timestamp,EMG_s0,EMG_s1,EMG_s2,EMG_s3,EMG_s4,EMG_s5,EMG_s6,EMG_s7
1688391478556274,-3,-6,-12,-7,-15,-16,-1,-1
1688391478556274,-1,0,-18,-19,-14,6,3,-1
1688391478557273,2,10,66,53,7,-5,-9,2
1688391478557273,1,-4,-1,0,10,-8,4,1
1688391478558274,1,-2,-9,-11,4,17,1,-1
1688391478558274,0,0,-19,-17,-3,5,-4,-2
1688391478561274,-1,-2,2,-6,-15,-5,7,1
1688391478561274,-6,-11,-59,-27,-16,-2,-3,0
1688391478569267,14,36,106,98,25,15,2,6
1688391478569267,-2,-2,-6,-1,8,-16,0,-2
1688391478576263,0,0,-13,-17,-16,27,1,0
1688391478576263,-3,-8,-18,-36,1,-13,-5,-2
1688391478584260,-10,-19,-42,-9,-4,-7,-1,-4
1688391478584260,5,11,60,47,7,6,2,2
1688391478607247,0,2,15,7,15,0,9,3
1688391478607247,-6,-11,-28,-71,-13,-16,-15,-3
1688391478608245,-2,-6,-44,-51,-11,-10,4,0
1688391478608245,8,21,77,90,25,0,8,1
1688391478615243,-7,-11,1,-44,-1,-1,-5,-5
1688391478615243,4,11,3,51,4,8,5,3
1688391478632237,-5,-10,-21,-21,-8,7,-2,0
1688391478632237,-15,-39,-127,-128,-39,-14,-9,-6
1688391478643224,13,32,96,111,31,9,1,3
1688391478643224,-2,-1,30,31,0,27,2,-1
1688391478653219,-9,-18,-69,-49,-5,-12,-6,-4
1688391478653219,2,9,-13,11,-15,11,1,1
1688391478691197,-6,-22,-68,-105,-35,-3,-1,0
1688391478691197,7,19,23,74,23,7,-2,2
1688391478692200,-21,-53,-114,-123,-48,-39,-8,-8
1688391478692200,9,23,-16,88,32,9,-1,0
1688391478693197,-4,-1,12,-62,-40,11,-1,-1
1688391478693197,-22,-60,-113,-100,-52,-10,-8,-12
1688391478695194,34,83,84,127,68,0,8,16
1688391478695194,-17,-48,-128,-128,-33,-8,-6,-7
1688391478703191,1,4,-2,50,16,-9,5,1
1688391478703191,-16,-40,-83,-127,-56,22,-11,-5
1688391478710185,2,13,57,79,16,-6,1,-5
1688391478710185,-1,-5,17,-47,-18,-16,6,0
1688391478718180,5,18,61,88,97,39,4,0
1688391478718180,11,24,16,-23,-22,-45,6,6
1688391478733174,-25,-61,-127,-128,-103,17,-12,-12
1688391478733174,28,78,127,127,96,3,7,13
1688391478740188,-22,-52,-101,-93,-64,-7,-8,-13
1688391478740188,4,17,65,-20,6,-4,0,0
1688391478749188,12,23,-47,-5,41,40,6,6
1688391478749188,-4,-5,26,57,38,56,7,-1
1688391478763180,-4,-10,-75,-31,-39,-19,-10,-5
1688391478763180,-14,-24,-84,-40,-5,45,-3,-9
1688391478770175,8,14,25,51,28,35,13,8
1688391478770175,-4,-11,-29,26,-62,-17,-2,-1
1688391478778170,1,-2,-30,-41,21,-11,0,1
1688391478778170,7,9,-11,106,10,9,3,3
1688391478793161,-7,-16,2,-55,28,48,-2,-5
1688391478793161,2,8,-21,-45,-6,17,-3,1
1688391478800159,0,4,26,64,-5,-14,-14,0
1688391478800159,-7,-16,-19,2,-6,-79,-2,-3
1688391478809152,4,11,22,81,16,-5,11,2
1688391478809152,-10,-26,-53,-128,-58,7,-23,-7
1688391478823147,14,29,67,94,47,63,21,5
1688391478823147,-3,-4,23,27,24,52,7,2
1688391478830141,-5,-12,-35,-60,33,-44,-5,-3
1688391478830141,-9,-18,-1,-48,-6,-62,-8,-5
1688391478838136,10,24,80,-48,8,-15,2,6
1688391478838136,0,7,6,28,-1,-6,-3,-2
1688391478861124,-5,-9,-22,-99,-36,-36,-3,-3
1688391478861124,-4,-5,-12,-10,-20,52,0,-3
1688391478862124,-4,-9,-26,-30,-17,-4,-2,-2
1688391478862124,12,32,75,2,38,-1,4,5
1688391478871118,-3,-1,40,16,-37,-32,-8,-2
1688391478871118,3,9,57,108,27,-10,1,0
1688391478883111,2,5,-15,13,-7,-48,-3,0
1688391478883111,0,-1,6,-21,12,8,-1,-1
1688391478890107,-1,-1,2,7,-2,8,-2,0
1688391478890107,-3,-8,-28,-7,-6,-8,1,-2
1688391478898103,2,4,19,18,9,7,5,1
1688391478898103,3,6,0,-23,-1,-8,-8,1
1688391478913093,-1,-1,11,9,1,-6,4,-1
1688391478913093,-4,-9,-13,-31,-13,10,6,-1
1688391478920090,0,3,4,-13,-5,-3,-5,1
1688391478920090,1,2,-1,7,8,0,-3,0
1688391478928888,-1,-1,7,25,-6,2,-6,-1
1688391478928888,-2,-2,1,-23,5,-6,7,-2
1688391478943882,-2,-4,-26,24,1,-7,-3,-2
1688391478943882,2,7,16,21,1,2,2,0
1688391478949880,-1,0,10,6,-4,0,-5,-1
1688391478949880,2,1,-9,-3,0,-15,-3,0
1688391478957875,-2,-5,-11,-15,-5,3,-6,-3
1688391478957875,1,4,2,6,3,-4,3,-1
1688391478972868,1,-4,-7,-4,-6,2,7,1
1688391478972868,-2,-2,-6,-11,-1,-8,-18,-2
1688391478979862,2,3,8,10,1,-4,15,-1
1688391478979862,-2,1,2,-4,-1,-1,1,1
1688391478988857,-2,0,0,5,2,11,-3,-4
1688391478988857,0,1,0,7,0,-9,2,1
1688391479003849,-3,-2,2,-2,1,7,-4,0
1688391479003849,3,1,-5,3,2,-10,-3,-2
1688391479009846,-1,-4,-7,-5,-5,-1,3,-1
1688391479009846,-3,0,0,-1,3,-6,-4,-1
1688391479017841,0,-2,-3,-6,-3,-1,-2,1
1688391479017841,0,0,-1,-6,-2,3,5,-1
1688391479032832,-1,0,-10,1,-1,0,-9,-2
1688391479032832,3,6,38,22,5,2,12,-1
1688391479039828,0,-1,-1,-1,-1,-1,-8,-1
1688391479039828,-2,-2,-7,0,-2,-1,4,-1
1688391479048824,-2,-5,-1,0,-2,-1,5,1
1688391479048824,-1,-4,-7,-12,-3,-2,-3,-1
1688391479063842,1,2,-3,-1,5,-1,0,1
1688391479063842,-3,1,4,4,3,1,-7,-3
1688391479069836,0,1,-1,-2,0,3,-1,1
1688391479069836,-1,-1,-8,-7,-4,-2,7,1
1688391479077833,-1,1,6,3,-1,-13,-3,-3
1688391479077833,0,-2,-5,-4,0,4,-3,0
1688391479093212,1,2,8,4,-2,-3,-4,-2
1688391479093212,-1,-2,-8,-2,0,-7,3,-1
1688391479100213,-1,-1,-1,0,1,5,5,0
1688391479100213,-2,3,1,1,0,1,-3,-2
1688391479109207,-2,-4,-4,-3,-2,-9,-5,-2
1688391479109207,0,2,-2,1,-1,-1,6,-2
1688391479123200,-2,-1,-4,-5,-2,0,-2,1
1688391479123200,-2,-4,-2,-3,-3,-2,0,0
1688391479132196,-1,-4,-3,3,-4,2,-3,-1
1688391479132196,0,0,-2,-12,2,10,3,1
1688391479138192,-4,-5,-15,12,-4,-21,-8,-3
1688391479138192,-3,-10,-49,-84,-12,-4,5,-2
1688391479154182,14,26,76,100,23,0,-7,9
1688391479154182,-4,-4,-10,-4,-3,-13,-4,-4
1688391479160178,0,-2,-6,-6,-2,9,4,2
1688391479160178,-4,-8,5,-12,-4,2,5,-3
1688391479169175,-6,-8,-23,-26,-8,-16,-7,-4
1688391479169175,-1,-2,-6,-3,-1,5,2,0
1688391479183167,-1,-1,7,1,0,4,-17,-2
1688391479183167,1,1,1,13,0,-4,-5,0
1688391479190161,-4,-3,-7,-19,-6,-8,5,-4
1688391479190161,2,2,6,15,4,-2,-3,1
1688391479198156,-4,-1,-6,-7,-4,-1,3,-1
1688391479198156,0,-5,-2,7,-1,1,-3,0
1688391479213147,-4,-9,-50,-73,-15,-1,0,-2
1688391479213147,9,18,49,54,19,-15,2,5
1688391479220144,0,-3,17,43,0,20,1,-1
1688391479220144,-2,-3,29,17,0,0,-1,-2
1688391479243134,-2,-3,-59,-47,-9,1,0,-4
1688391479243134,-5,-12,-27,-23,-3,-2,-2,-3
1688391479244133,-4,-9,-83,-51,-7,-8,-2,-5
1688391479244133,13,31,126,127,34,26,6,6
1688391479252127,6,15,73,28,26,-1,4,3
1688391479252127,-8,-24,-47,-34,-49,-13,-9,-2
1688391479258123,-7,-12,-79,-88,-19,10,2,-2
1688391479258123,-13,-26,-101,-89,1,-60,-9,-10
1688391479272788,1,11,79,56,13,27,3,0
1688391479272788,1,-1,-29,-35,-25,9,-10,4
1688391479279784,11,30,69,99,47,-24,11,2
1688391479279784,-8,-22,-111,-104,-27,-10,-2,-5
1688391479294777,-5,-20,-72,-64,-22,13,-5,-5
1688391479294777,6,8,69,79,42,6,5,2
1688391479303224,2,18,61,41,6,-64,-10,-2
1688391479303224,6,14,42,8,18,51,-4,1
1688391479310661,-3,-10,-23,-57,1,-57,5,3
1688391479310661,-11,-18,-60,10,-36,-63,-8,-9
1688391479318211,0,-13,-22,-100,-16,52,11,2
1688391479318211,6,20,38,25,-28,-19,-5,1
1688391479333206,6,23,37,84,46,39,4,3
1688391479333206,-3,1,-57,-114,-23,20,-6,-2
1688391479340202,-1,1,32,-51,7,-8,1,1
1688391479340202,-9,-17,-36,-9,-5,-76,-8,-5
1688391479355164,-8,-23,-44,-75,-59,29,7,-3
1688391479355164,12,31,55,98,20,29,6,6
1688391479363886,-4,-18,-45,-46,-1,19,7,1
1688391479363886,4,7,46,27,5,15,-6,4
1688391479370693,-5,-8,-22,30,-9,-12,5,-4
1688391479370693,-3,0,6,-15,10,-5,-2,-2
1688391479378135,-6,-11,0,-12,-35,-38,-2,-2
1688391479378135,0,1,-43,-35,11,30,4,2
1688391479393166,4,13,14,26,17,3,-7,-1
1688391479393166,-7,-11,-11,-31,2,-27,2,-3
1688391479400686,1,0,26,38,15,42,-5,-2
1688391479400686,2,7,11,27,-24,-43,1,0
1688391479415009,-1,7,26,14,4,6,-4,-1
1688391479415009,-2,-7,-16,-39,-3,27,0,-1
1688391479423100,1,1,1,50,0,-3,-4,1
1688391479423100,-2,0,11,-10,19,20,3,1
1688391479430662,-1,-7,-27,-15,-19,-18,-2,-1
1688391479430662,2,8,44,60,17,6,0,0
1688391479438158,0,8,19,12,3,-5,1,1
1688391479438158,0,-3,-9,-3,-6,12,-6,2
1688391479453161,-5,-8,-20,-25,-10,-1,-5,-4
1688391479453161,-2,0,0,-6,10,1,6,2
1688391479460681,-1,-3,-8,9,1,4,-4,-4
1688391479460681,-3,-3,-4,-5,-3,11,-1,-2
1688391479475157,-2,-5,0,17,4,-10,-2,-2
1688391479475157,2,2,3,-7,10,1,2,1
1688391479483171,0,0,-1,-6,-8,0,6,-1
1688391479483171,-5,-6,-6,5,0,3,1,-3
1688391479490237,-8,-18,6,-3,4,-1,-12,-1
1688391479490237,11,34,1,-9,-4,-6,0,-1
1688391479498221,5,-5,-11,-6,-6,5,0,1
1688391479498221,1,1,5,13,9,6,2,-1
1688391479513179,-8,-9,-9,-3,1,-5,-17,-1
1688391479513179,7,0,-5,-12,-3,5,16,-8
1688391479520730,1,-4,4,14,4,-4,-4,11
1688391479520730,-3,10,3,7,6,6,4,5
1688391479535199,-1,-9,0,-8,-4,-6,3,-1
1688391479535199,-9,-12,-4,-4,-2,0,-13,-4
1688391479543264,4,14,9,4,0,-5,-4,-2
1688391479543264,-2,-13,-4,-3,-4,4,9,0
1688391479551316,-1,-4,-3,-7,2,0,0,-1
1688391479551316,-2,7,-2,0,-1,3,0,1
1688391479566185,-2,4,1,2,-2,-2,-15,-6
1688391479566185,2,-1,-5,0,-3,5,11,0
1688391479573196,-2,11,8,10,7,-7,-9,1
1688391479573196,10,-4,-12,-15,6,-2,-4,5
1688391479580275,5,-10,2,2,-4,3,1,-4
1688391479580275,-19,-2,-5,-4,-2,-1,-15,1
1688391479595267,11,9,-1,-5,-1,-5,7,-4
1688391479595267,-6,-14,-4,-1,-2,7,2,2
1688391479603215,-5,2,-4,-2,-3,-3,2,-1
1688391479603215,13,6,6,1,1,-3,2,-2
1688391479611310,0,1,2,-3,-2,0,6,-1
1688391479611310,-9,-8,-11,-9,-7,-3,-9,0
1688391479634255,7,3,11,13,4,9,7,-3
1688391479634255,-5,-8,-15,-8,3,5,0,-1
1688391479636256,2,3,-12,-16,-10,-7,3,5
1688391479636256,-1,-3,19,29,0,-9,-5,-4
1688391479640380,0,6,5,-2,15,35,0,2
1688391479640380,-1,-6,-18,1,0,-14,-2,-2
1688391479655232,-1,5,3,-3,-8,-24,-1,-2
1688391479655232,4,-1,-3,1,36,72,10,5
1688391479663213,-13,-12,-16,-52,-58,-87,-14,-7
1688391479663213,5,9,1,61,23,36,1,2
1688391479678230,7,16,79,72,10,-71,-4,0
1688391479678230,-3,-2,-1,-4,-1,41,10,1
1688391479686150,-5,-9,0,-11,10,-29,-1,1
1688391479686150,-5,-11,-30,-21,-12,-35,-4,-7
1688391479701136,-7,-14,-55,-105,-40,-40,-8,-4
1688391479701136,15,30,39,60,61,10,6,12
1688391479702143,-4,-3,-13,-46,17,84,2,-1
1688391479702143,-2,-4,-62,-94,-54,-28,0,-3
1688391479715272,2,5,36,82,43,60,5,1
1688391479715272,0,8,59,38,-7,15,-6,-2
1688391479723083,1,1,-32,95,7,74,-1,-2
1688391479723083,-9,-27,-53,-95,-30,44,2,-4
1688391479747162,2,10,-18,-72,52,-30,-3,0
1688391479747162,-12,-31,-87,-88,-78,62,3,-7
1688391479747162,1,11,42,76,15,-44,-14,-5
1688391479747162,3,-1,63,12,32,-4,-11,-4
1688391479762166,-1,-1,1,4,4,-15,8,0
1688391479762166,-1,8,51,-27,-25,-24,-1,1
1688391479763174,6,15,26,59,51,-27,3,4
1688391479763174,3,15,60,6,-30,40,-3,1
1688391479775166,-4,-17,-69,-85,-22,50,6,2
1688391479775166,-23,-51,-128,-8,30,31,-26,-18
1688391479783147,12,17,56,-93,-21,-18,17,13
1688391479783147,29,63,127,127,112,60,19,19
1688391479798290,-26,-60,-110,-95,-97,-42,-9,-15
1688391479798290,20,43,89,85,28,-35,10,12
1688391479806276,-17,-24,-17,2,-32,-16,-15,-13
1688391479806276,2,8,-21,104,17,75,1,1
1688391479821330,7,14,39,-35,13,-44,-4,-1
1688391479821330,-33,-74,-128,-32,-46,-60,-10,-14
1688391479822154,40,90,107,105,104,21,32,23
1688391479822154,-6,-13,-62,-128,-42,-43,-15,-2
1688391479835680,-10,-23,-110,-87,-47,40,-3,-9
1688391479835680,4,11,83,53,13,-66,-3,2
1688391479843230,-6,-8,-81,-70,-36,-19,0,-1
1688391479843230,-10,-22,-22,-42,-45,-33,-9,-8
1688391479857638,8,18,11,105,80,40,2,6
1688391479857638,4,7,-41,-38,-39,2,1,1
1688391479866120,-5,-14,-49,32,3,-23,-7,-2
1688391479866120,-8,-24,-66,-94,-10,-108,8,-3
1688391479881355,9,28,74,57,-16,86,-9,4
1688391479881355,5,21,39,-26,-3,1,-1,0
1688391479882144,-15,-31,-32,-23,-24,10,-7,-11
1688391479882144,10,19,32,54,42,54,8,5
1688391479895226,0,0,21,20,-4,18,4,4
1688391479895226,0,2,-4,-23,-10,-21,-2,-2
1688391479911396,-15,-35,-42,-102,-33,10,-1,-7
1688391479911396,2,5,35,67,19,-17,-3,0
1688391479918216,2,11,23,7,-4,-7,3,0
1688391479918216,6,15,22,2,22,-46,0,2
1688391479926209,-6,-15,-29,-33,-11,-4,-7,-2
1688391479926209,-4,-10,-12,0,-12,4,1,-5
1688391479941158,-1,7,8,23,3,2,3,0
1688391479941158,-4,-9,-38,-29,0,10,-4,-1
1688391479942156,1,7,21,-1,-6,4,5,-1
1688391479942156,-3,-2,-21,-23,-11,-27,-7,-1
1688391479955181,-1,-1,9,8,5,21,1,-1
1688391479955181,0,-1,6,-21,1,-2,-4,-2
1688391479963263,-5,-10,-20,-21,-8,8,-7,-1
1688391479963263,0,-1,3,-5,-4,3,-2,-3
1688391479978234,-3,-5,-6,4,5,-10,0,-1
1688391479978234,-1,-4,-2,-10,0,12,2,-1
1688391479986266,2,3,8,5,-3,4,-4,-2
1688391479986266,-1,-6,-14,-4,-6,2,4,0
1688391480000966,2,4,8,7,3,1,2,0
1688391480000966,-1,-2,-6,-17,4,1,-4,-2
1688391480001962,0,-3,-4,-6,-3,7,-9,-2
1688391480001962,-2,-2,1,-1,-5,-3,6,1
1688391480014953,1,1,-8,-6,-5,-1,8,0
1688391480014953,2,2,4,-10,-2,1,-5,0
1688391480022742,-3,-2,-6,-6,-2,-2,1,-1
1688391480022742,-3,-2,-2,1,-3,7,-8,-3
1688391480038264,1,-1,3,7,3,-13,-6,-1
1688391480038264,-2,-1,-5,-9,-5,-7,1,0
1688391480046140,-1,-4,-8,-9,-5,1,-1,-2
1688391480046140,0,1,1,-3,1,1,1,2
1688391480061380,-3,-4,-1,0,0,6,1,-1
1688391480061380,1,1,2,-5,1,2,-5,2
1688391480062149,-1,-4,-8,-8,-2,-3,5,0
1688391480062149,0,0,-1,-1,-2,2,-7,-2
1688391480075209,-1,-1,-1,4,2,-2,0,-2
1688391480075209,-1,-2,-5,-13,-3,-2,0,-1
1688391480082609,-4,3,7,12,0,2,-1,-1
1688391480082609,1,-4,-5,-9,1,0,-2,1
1688391480098205,4,3,2,3,0,0,3,1
1688391480098205,-6,-6,0,0,1,1,2,-2
1688391480106240,0,-7,-2,-3,0,4,4,2
1688391480106240,-6,-5,4,7,1,0,-1,-2
1688391480121180,-2,0,-4,-4,-3,1,-2,-2
1688391480121180,-1,-3,-4,-7,-3,-6,-4,-2
1688391480122143,0,3,1,-2,-3,0,-5,-3
1688391480122143,3,12,3,0,-2,-1,13,7
1688391480135183,-1,-10,-4,-2,-1,-2,-12,-3
1688391480135183,-4,-22,-5,-2,-3,3,5,-3
1688391480143255,17,32,9,0,1,2,-1,-1
1688391480143255,-9,-4,-4,-1,0,1,-3,0
1688391480159211,21,25,8,3,0,1,16,2
1688391480159211,-15,-8,-3,1,-2,3,-8,0
1688391480166138,-2,4,-2,-1,3,-6,-7,2
1688391480166138,-2,0,7,2,1,-3,-3,0
1688391480181331,15,-3,-1,-1,-1,-1,0,1
1688391480181331,5,2,-2,0,1,12,14,-2
1688391480182143,-3,-9,-4,-6,-1,-6,3,-3
1688391480182143,11,-4,-5,-4,-5,0,-7,-4
1688391480195307,-58,-10,-6,-3,0,-6,-16,-3
1688391480195307,11,5,2,0,3,-1,4,-41
1688391480203230,2,-10,2,3,-1,5,-1,39
1688391480203230,0,-9,-6,1,-1,-12,-12,-44
1688391480218141,-5,5,4,-1,-2,4,38,69
1688391480218141,-19,12,2,1,2,2,-22,-95
1688391480226168,80,-29,3,7,9,6,8,30
1688391480226168,-75,-4,-7,-6,-7,-5,-47,51
1688391480240952,97,-9,-4,-6,-7,0,41,-80
1688391480240952,118,-7,-1,1,-10,-39,-15,21
1688391480241955,-71,-15,-3,9,15,52,-4,47
1688391480241955,74,17,6,-1,6,11,53,97
1688391480255053,-52,20,3,-6,-5,-76,4,85
1688391480255053,90,-47,-37,-22,-20,-16,-21,-48
1688391480263252,-21,23,0,-20,-22,-16,-32,85
1688391480263252,79,-27,-9,4,1,29,-49,-15
1688391480277866,-13,-44,-22,-3,17,23,-4,-47
1688391480277866,15,5,5,4,-4,-9,-15,-42
1688391480286129,-35,17,3,23,16,-25,42,-35
1688391480286129,-91,-37,-8,-13,7,58,36,-30
1688391480301123,119,46,18,11,2,37,10,44
1688391480301123,-128,6,9,6,8,26,15,40
1688391480302126,6,8,3,1,1,42,43,-35
1688391480302126,53,5,-1,0,-10,-26,-51,-41
1688391480315264,-11,5,16,12,10,8,-23,-104
1688391480315264,26,-11,-5,-3,-7,-9,22,125
1688391480323220,68,5,12,5,5,1,41,-91
1688391480323220,-36,36,-10,-14,-4,-39,55,-11
1688391480337461,45,-24,14,0,5,27,-23,76
1688391480337461,-6,19,7,-2,6,59,10,42
1688391480346150,-13,7,-2,-7,5,-11,34,18
1688391480346150,57,-35,-8,1,-14,-16,6,48
1688391480362151,-91,-24,-18,2,0,21,73,2
1688391480362151,-41,35,24,23,6,3,-29,-99
1688391480363151,8,29,6,-3,-5,-14,-17,121
1688391480363151,-26,30,8,16,29,5,16,-82
1688391480375655,-1,12,2,-4,-25,-64,-41,91
1688391480375655,-17,-6,0,1,12,32,50,9
1688391480383184,-10,-17,-16,-1,-9,18,-25,-91
1688391480383184,-6,35,26,6,-7,3,-48,-47
1688391480398220,-10,-18,-12,-5,-9,-23,-24,-54
1688391480398220,-7,12,1,-1,0,17,-1,-15
1688391480406157,-27,-17,-5,-8,-8,-19,-17,-63
1688391480406157,-11,-13,-8,-2,-6,24,7,-7
1688391480421192,1,-17,-2,-7,5,2,-24,-11
1688391480421192,-3,13,11,2,-4,-32,5,47
1688391480421192,35,2,-7,-7,-5,-8,-15,13
1688391480421192,-2,-26,-15,-6,-10,-30,-8,-58
1688391480437184,-21,-7,-11,3,-1,17,-22,-34
1688391480437184,23,9,5,1,0,-15,-2,21
1688391480443274,-7,-15,-4,-5,-4,-23,-19,-4
1688391480443274,-3,16,10,5,9,16,18,4
1688391480458175,-26,11,2,1,-1,-3,-12,-6
1688391480458175,-3,-12,-8,-4,5,6,0,14
1688391480473251,9,0,1,3,-1,-10,-25,-21
1688391480473251,0,-10,-5,-7,-2,12,19,44
1688391480481380,-3,3,-2,-6,0,14,-3,-12
1688391480481380,6,-9,-8,-7,-5,-23,-4,14
1688391480482165,-12,-8,11,23,1,9,-1,-7
1688391480482165,10,-1,-26,-29,-4,-11,-6,8
1688391480495655,4,10,43,69,8,0,-2,-5
1688391480495655,-3,0,-16,-26,-10,-19,-8,-13
1688391480503068,9,-16,-70,-74,-11,-4,-10,-1
1688391480503068,-11,-12,-22,-74,-7,-4,0,14
1688391480518278,10,13,-21,-3,6,-2,0,-11
1688391480518278,5,4,59,41,10,15,2,15
1688391480526294,-6,-6,2,53,5,4,-2,-1
1688391480526294,-2,-8,-22,-20,-9,-13,-1,13
1688391480539783,-6,-8,-43,-66,-11,4,3,-7
1688391480539783,-2,-11,-32,-63,-13,-3,-10,-9
1688391480548880,4,9,20,-22,8,-3,-1,1
1688391480548880,7,22,102,127,19,-4,4,6
1688391480555681,8,-2,2,-16,-2,3,-6,-3
1688391480555681,-2,2,14,-16,-2,-7,-10,3
1688391480563184,-3,-10,-14,20,-10,-10,6,-7
1688391480563184,-2,-7,-18,-39,-5,-8,0,10
1688391480577770,-3,-2,-40,-4,-7,12,-2,-3
1688391480577770,8,17,82,87,22,-14,4,7
1688391480585794,-2,-4,-13,-78,-13,-13,-3,-1
1688391480585794,3,3,34,24,3,-10,-4,2
1688391480600564,3,8,62,32,8,23,7,2
1688391480600564,-1,-5,-45,-35,-6,-14,-4,-4
1688391480608156,3,6,19,51,10,26,-3,1
1688391480608156,-3,0,2,-56,-24,-20,1,3
1688391480615680,-7,-18,-43,-25,-21,-12,-3,-6
1688391480615680,5,5,25,63,23,16,1,3
1688391480631381,2,6,38,32,5,-2,-2,-1
1688391480631381,-2,-10,-37,-41,-14,8,2,0
1688391480638180,-4,-5,-21,-66,-13,-7,-4,-3
1688391480638180,0,2,-18,26,20,32,-1,-3
1688391480646118,8,17,78,44,15,1,3,5
1688391480646118,-2,-6,-14,38,0,1,-3,-1
1688391480660655,-2,-11,-92,-72,-45,9,-4,-5
1688391480660655,0,3,6,34,1,-33,-2,-1
1688391480668160,-3,-4,2,-34,-5,-8,-4,-3
1688391480668160,-5,-14,-19,54,0,-8,-1,-1
1688391480683184,-4,-9,-5,-103,-40,-25,0,-2
1688391480683184,9,18,33,60,67,95,9,8
1688391480684193,-12,-22,-77,-73,-50,-58,-8,-8
1688391480684193,9,26,72,83,42,-4,7,6
1688391480698168,1,4,56,104,15,7,2,3
1688391480698168,-10,-28,-89,-128,-64,-31,-3,-7
1688391480706177,-3,-10,-42,-88,4,-26,-5,-1
1688391480706177,-7,-16,-36,-26,8,48,-2,-2
1688391480720705,17,49,69,60,56,-22,2,6
1688391480720705,-9,-18,-59,-88,-28,-10,-5,-7
1688391480728880,-8,-20,-113,-51,-56,12,0,-3
1688391480728880,7,8,25,-62,0,-38,5,8
1688391480745141,6,24,101,127,95,28,-5,-4
1688391480745141,1,-1,14,-114,-11,16,1,2
1688391480746128,-11,-20,-52,3,-23,3,-7,-6
1688391480746128,13,23,59,76,72,7,8,6
1688391480758142,0,-5,11,-97,-22,5,-3,0
1688391480758142,-2,1,-6,-79,-29,-5,3,1
1688391480766127,-9,-22,-3,18,9,127,11,-5
1688391480766127,-2,0,-8,-61,-2,-43,-8,0
1688391480780705,9,23,18,78,38,36,2,6
1688391480780705,-14,-33,-105,-82,-66,-22,-8,-8
1688391480788855,-3,0,-24,-40,46,-15,0,1
1688391480788855,-6,-7,16,11,-52,6,-3,-4
1688391480803855,8,8,-8,-20,8,20,2,3
1688391480803855,-7,-13,-54,-60,-6,-16,-6,-5
1688391480804243,3,11,50,94,24,-30,-6,0
1688391480804243,-14,-29,-36,-102,-35,53,-1,-7
1688391480819155,9,19,15,88,62,4,6,8
1688391480819155,-11,-27,-12,27,-18,-18,-3,-4
1688391480826171,15,40,94,27,28,31,7,6
1688391480826171,1,3,2,41,-2,19,-1,0
1688391480840674,-13,-28,-20,-81,-63,-45,0,-4
1688391480840674,7,16,54,75,20,61,3,2
1688391480848905,0,-2,-7,-22,1,-28,-1,0
1688391480848905,1,0,-30,-13,-18,-18,-19,-3
1688391480863255,-7,-17,-26,-43,-27,-15,3,-6
1688391480863255,-1,-4,-8,9,14,-50,-11,-3
1688391480864247,3,3,17,-21,-6,15,-2,1
1688391480864247,-6,-8,-42,-34,-52,-23,-1,-6
1688391480878230,-4,-6,0,14,22,-14,-4,-2
1688391480878230,1,5,20,7,-2,-18,1,0
1688391480886022,8,16,33,80,21,11,4,3
1688391480886022,0,0,-23,-28,13,-6,1,2
1688391480909223,-4,-14,-28,-16,-13,13,-4,-4
1688391480909223,2,13,20,27,3,2,3,0
1688391480910223,-2,-1,-3,-6,-1,-31,-3,0
1688391480910223,0,0,-21,-4,9,28,1,-1
1688391480923214,-7,-11,-17,-31,-18,-9,-3,-4
1688391480923214,4,11,21,45,20,1,1,1
1688391480924181,-3,-6,-11,-33,-7,0,-3,-3
1688391480924181,2,2,-4,5,10,-3,3,0
1688391480938233,-4,-6,-18,-21,-20,4,-6,-2
1688391480938233,3,6,12,13,8,-13,8,1
1688391480946152,0,0,0,9,-3,-5,-15,0
1688391480946152,1,4,-5,4,5,1,7,-2
1688391480970236,-3,-8,-12,-8,-8,-11,-5,-3
1688391480970236,-2,-1,0,12,6,12,-1,1
1688391480970236,0,0,3,-15,-4,-10,3,-1
1688391480970236,1,2,-6,-3,6,3,1,1
1688391480999875,-1,-6,-13,-18,-9,3,-5,-3
1688391480999875,1,1,10,18,5,-2,-1,-1
1688391481000889,-2,-1,-6,-9,-6,-1,-1,0
1688391481000889,-1,-1,-5,-8,3,-8,-4,0
1688391481001889,-2,-4,-7,-4,-7,0,5,-1
1688391481001889,1,3,4,7,0,2,-1,1
1688391481005909,0,-2,-3,-4,-1,-9,0,0
1688391481005909,1,2,-3,-1,2,5,1,-1
1688391481020680,-1,-3,-2,-7,-5,-2,1,-1
1688391481020680,0,2,5,14,5,0,-5,0
1688391481028905,0,-2,-9,-8,-3,-3,4,0
1688391481028905,-2,1,4,3,6,-1,4,-1
1688391481043279,-1,-1,-2,-4,-3,-1,-5,-2
1688391481043279,-1,-1,-3,-1,-1,-3,-1,0
1688391481044250,-1,-1,6,10,-11,0,-4,-2
1688391481044250,1,4,-3,-8,13,5,-2,1
1688391481058081,-1,-2,-2,-3,-1,-5,3,1
1688391481058081,0,0,0,0,4,3,-1,-2
1688391481066157,-2,-3,1,-4,-8,-12,1,0
1688391481066157,-1,-4,-5,8,2,5,-3,-1
1688391481080671,0,2,5,-3,0,-1,-1,-1
1688391481080671,0,1,1,4,-5,-4,1,0
1688391481088702,-2,-1,-6,-8,-6,-10,0,1
1688391481088702,-5,-10,-13,-20,-15,-6,0,-3
1688391481103096,0,3,-35,-34,12,-2,-6,-1
1688391481103096,3,4,8,22,9,5,0,2
1688391481104066,-1,-1,-6,-8,4,3,4,-2
1688391481104066,1,1,4,6,5,4,0,0
1688391481118171,-5,-10,-19,-19,-16,14,1,-3
1688391481118171,-4,-3,-3,-13,-1,4,1,-2
1688391481133249,0,5,8,2,9,23,1,1
1688391481133249,0,-1,-9,-3,-5,4,-2,-1
1688391481140656,1,0,9,2,-5,-1,-1,0
1688391481140656,-2,-1,4,11,0,-16,-1,1
1688391481148881,0,-1,-17,-23,-2,-2,-1,0
1688391481148881,-4,-9,-21,-24,-17,-2,-2,-3
1688391481163805,9,24,80,93,35,6,4,4
1688391481163805,-2,-4,-16,-17,-19,-2,-1,-2
1688391481164248,0,0,-13,-2,-2,-22,-3,0
1688391481164248,-1,1,14,19,11,16,-2,1
1688391481178173,-5,-8,-12,-14,-7,-46,-1,-2
1688391481178173,-6,-14,-36,-63,-21,-11,-8,-6
1688391481186151,11,24,96,86,16,-7,4,5
1688391481186151,-6,-13,-35,-25,10,74,3,-2
1688391481200199,1,-1,22,16,6,34,5,1
1688391481200199,8,18,56,86,34,13,3,4
1688391481208240,-7,-13,-31,-29,-5,30,-1,-3
1688391481208240,6,13,-1,-4,7,0,3,2
1688391481223247,-1,-5,9,21,30,7,5,2
1688391481223247,-9,-22,-78,-117,-59,-25,-11,-6
1688391481224244,6,14,80,72,-3,22,7,4
1688391481224244,0,3,32,78,23,-25,-1,1
1688391481238155,2,6,48,69,12,73,13,5
1688391481238155,-9,-22,-81,-56,-43,53,-12,-9
1688391481246155,22,48,38,21,55,-44,1,9
1688391481246155,-24,-40,-104,-109,-73,-31,-14,-14
1688391481260222,22,53,-9,-58,25,-19,11,12
1688391481260222,7,13,-4,127,75,-8,9,6
1688391481268782,-18,-40,-93,-128,-96,-26,-16,-14
1688391481268782,-1,-12,19,-22,9,36,8,1
1688391481283252,-25,-58,-94,-128,-52,-31,-18,-13
1688391481283252,26,65,99,99,90,35,17,12
1688391481284244,-29,-76,-128,-128,-90,48,-4,-9
1688391481284244,54,117,127,127,127,-20,27,31
1688391481298189,-19,-42,-102,-92,-70,63,-2,-7
1688391481298189,-5,3,66,-90,31,53,-5,-6
1688391481306151,6,19,-2,54,70,59,-2,2
1688391481306151,-14,-29,-83,-103,-88,20,-13,-10
1688391481322145,-9,-7,-24,-47,-70,-74,-27,-15
1688391481322145,-9,-19,11,-55,-47,28,0,-3
1688391481328980,4,14,41,118,23,-6,7,3
1688391481328980,-5,-23,-123,-113,-25,56,-27,-6
1688391481343116,-11,-26,-52,-39,-14,-19,5,-5
1688391481343116,3,3,24,39,35,30,-6,-3
1688391481344127,-3,-3,-69,-9,25,47,-4,-4
1688391481344127,-5,-10,20,9,-16,-27,-7,-5
1688391481358293,8,18,73,117,30,-18,1,8
1688391481358293,6,6,-48,4,8,-7,3,6
1688391481366320,-9,-17,-22,-99,-49,15,3,-3
1688391481366320,10,30,100,71,46,-47,4,6
1688391481380705,6,16,35,90,30,5,0,-1
1688391481380705,-8,-18,-1,23,-19,-26,-2,-2
1688391481388854,5,7,8,-10,8,-46,-1,1
1688391481388854,-12,-23,-28,-43,-46,-21,1,-4
1688391481403360,2,-4,-14,-32,5,-16,-4,-1
1688391481403360,1,0,30,4,-15,-15,2,0
1688391481404366,5,9,23,15,5,-23,2,1
1688391481404366,-2,-7,2,19,-12,-23,-2,-4
1688391481418153,1,3,-7,0,13,24,1,2
1688391481418153,0,-5,-54,-53,-15,-30,-1,0
1688391481426153,-2,3,1,-5,26,5,-2,-1
1688391481426153,-5,-6,-13,-15,-2,-34,-4,-3
1688391481440606,4,6,-2,-12,9,-6,-8,0
1688391481440606,-3,-8,-17,-31,-26,-26,5,-1
1688391481448187,-2,-3,12,-2,2,-21,-4,-2
1688391481448187,2,3,8,20,7,9,7,3
1688391481463214,0,2,21,22,-4,-2,-2,1
1688391481463214,-2,2,10,26,-1,-20,-3,-1
1688391481471396,0,1,-1,-5,22,67,2,0
1688391481471396,0,0,2,-2,-2,6,-2,0
1688391481478217,0,2,-4,-12,-4,-5,0,-2
1688391481478217,-2,-3,-12,-22,-10,-5,-2,-3
1688391481486216,0,1,2,7,3,-22,-2,0
1688391481486216,-5,-8,-13,-19,-3,6,-2,-2
1688391481500460,0,1,-5,-14,1,9,0,-1
1688391481500460,-1,0,-2,4,0,-3,1,0
1688391481508222,-2,-3,3,-2,-10,-20,5,-1
1688391481508222,-1,-1,2,2,-3,-6,-15,-2
1688391481523250,-2,0,-4,-9,1,-4,13,-2
1688391481523250,-2,-2,0,0,-5,-5,-3,-1
1688391481531380,0,1,2,1,-9,-17,-1,-1
1688391481531380,-1,0,-6,-7,2,2,1,-1
1688391481538181,0,1,-5,-3,4,9,4,1
1688391481538181,-1,-5,-7,-10,-6,-7,-3,-2
1688391481545166,-2,-1,3,1,-3,-11,-3,0
1688391481545166,2,2,2,7,3,2,4,0
