timestamp_leitura,left_data_Ac_X,left_data_Ac_Y,left_data_Ac_Z,left_data_Gy_X,left_data_Gy_Y,left_data_Gy_Z,right_data_Ac_X,right_data_Ac_Y,right_data_Ac_Z,right_data_Gy_X,right_data_Gy_Y,right_data_Gy_Z
2023-04-21 20:31:09.078534,3.275267839,0.095768064,8.956708908,-0.102321595,0.019984685,-0.011457887,,,,,,
2023-04-21 20:31:09.078534,3.275267839,0.098162271,8.956708908,-0.102321595,0.020251149,-0.011457887,,,,,,
2023-04-21 20:31:09.078534,3.275267839,0.098162271,8.961497307,-0.102321595,0.02051761,-0.011457887,,,,,,
2023-04-21 20:31:09.078534,3.275267839,0.098162271,8.966285706,-0.10258805,0.020784073,-0.011191424,,,,,,
2023-04-21 20:31:09.078534,3.277662039,0.10055647,8.971074104,-0.10258805,0.021050537,-0.011191424,,,,,,
2023-04-21 20:31:09.078534,3.277662039,0.10055647,8.971074104,-0.10258805,0.021050537,-0.010924961,,,,,,
2023-04-21 20:31:09.078534,3.275267839,0.10055647,8.971074104,-0.103120975,0.021316998,-0.010924961,,,,,,
2023-04-21 20:31:09.078534,3.275267839,0.10295067,8.973467827,-0.10285452,0.02158346,-0.010924961,,,,,,
2023-04-21 20:31:09.078534,3.277662039,0.10055647,8.971074104,-0.10285452,0.022116385,-0.010924961,,,,,,
2023-04-21 20:31:09.078534,3.275267839,0.10055647,8.973467827,-0.10285452,0.022382848,-0.010924961,,,,,,
2023-04-21 20:31:09.078534,3.275267839,0.098162271,8.968679428,-0.10285452,0.022649311,-0.010924961,,,,,,
2023-04-21 20:31:09.078534,3.270479441,0.095768064,8.968679428,-0.103120975,0.023182238,-0.010924961,,,,,,
2023-04-21 20:31:09.078534,3.270479441,0.093373865,8.966285706,-0.103120975,0.023448698,-0.010924961,,,,,,
2023-04-21 20:31:09.078534,3.270479441,0.088585466,8.966285706,-0.103387438,0.023448698,-0.010924961,,,,,,
2023-04-21 20:31:09.078534,3.270479441,0.086191259,8.961497307,-0.103653908,0.023448698,-0.011191424,,,,,,
2023-04-21 20:31:09.078534,,,,,,,-3.100491285,-0.330399841,9.967061996,0.106584989,0.011457887,-0.016254211
2023-04-21 20:31:09.078534,,,,,,,-3.100491285,-0.328005642,9.96466732,0.106318533,0.011990812,-0.016520673
2023-04-21 20:31:09.078534,,,,,,,-3.102885485,-0.325611442,9.959878922,0.106318533,0.011724349,-0.016254211
2023-04-21 20:31:09.078534,,,,,,,-3.105279684,-0.325611442,9.955090523,0.106318533,0.011457887,-0.016254211
2023-04-21 20:31:09.078534,,,,,,,-3.102885485,-0.323217243,9.947908401,0.106052071,0.011457887,-0.016520673
2023-04-21 20:31:09.078534,,,,,,,-3.102885485,-0.328005642,9.945513725,0.105519146,0.011191424,-0.016520673
2023-04-21 20:31:09.078534,,,,,,,-3.105279684,-0.330399841,9.945513725,0.105252676,0.010924961,-0.016520673
2023-04-21 20:31:09.078534,,,,,,,-3.105279684,-0.33279404,9.945513725,0.104986221,0.010924961,-0.016520673
2023-04-21 20:31:09.078534,,,,,,,-3.105279684,-0.33518824,9.955090523,0.104453288,0.010392036,-0.016520673
2023-04-21 20:31:09.078534,,,,,,,-3.105279684,-0.342370838,9.962273598,0.104186833,0.010125575,-0.016254211
2023-04-21 20:31:09.078534,,,,,,,-3.105279684,-0.344765037,9.971850395,0.104186833,0.009592649,-0.016254211
2023-04-21 20:31:09.078534,,,,,,,-3.105279684,-0.344765037,9.979032516,0.103920363,0.009059724,-0.016254211
2023-04-21 20:31:09.078534,,,,,,,-3.102885485,-0.342370838,9.988609314,0.103920363,0.009059724,-0.016254211
2023-04-21 20:31:09.078534,,,,,,,-3.100491285,-0.344765037,9.993397713,0.103920363,0.009059724,-0.016520673
2023-04-21 20:31:09.078534,,,,,,,-3.093308687,-0.347159237,9.998186111,0.104719758,0.009859112,-0.016520673
2023-04-21 20:31:09.166140,3.284844637,0.086191259,8.930372238,-0.10285452,0.021849923,-0.011990812,,,,,,
2023-04-21 20:31:09.166140,3.284844637,0.090979666,8.932766914,-0.10258805,0.022116385,-0.011990812,,,,,,
2023-04-21 20:31:09.166140,3.282450438,0.095768064,8.932766914,-0.102321595,0.022382848,-0.011990812,,,,,,
2023-04-21 20:31:09.166140,3.280056238,0.098162271,8.939949036,-0.102321595,0.022649311,-0.011990812,,,,,,
2023-04-21 20:31:09.166140,3.277662039,0.10055647,8.944737434,-0.102321595,0.022915773,-0.011990812,,,,,,
2023-04-21 20:31:09.166140,3.277662039,0.10055647,8.947132111,-0.102321595,0.023182238,-0.011990812,,,,,,
2023-04-21 20:31:09.166140,3.275267839,0.105344877,8.947132111,-0.10258805,0.023182238,-0.012257273,,,,,,
2023-04-21 20:31:09.166140,3.275267839,0.112527482,8.947132111,-0.10285452,0.023182238,-0.012257273,,,,,,
2023-04-21 20:31:09.166140,3.27287364,0.114921682,8.949525833,-0.103387438,0.023182238,-0.012257273,,,,,,
2023-04-21 20:31:09.166140,3.27287364,0.119710088,8.951920509,-0.103920363,0.022915773,-0.012257273,,,,,,
2023-04-21 20:31:09.166140,3.27287364,0.122104287,8.947132111,-0.104453288,0.022649311,-0.012257273,,,,,,
2023-04-21 20:31:09.166140,3.27287364,0.124498487,8.947132111,-0.104986221,0.022382848,-0.012523737,,,,,,
2023-04-21 20:31:09.166140,3.270479441,0.126892686,8.944737434,-0.105785601,0.021849923,-0.012523737,,,,,,
2023-04-21 20:31:09.166140,3.275267839,0.122104287,8.937555313,-0.106584989,0.021316998,-0.012523737,,,,,,
2023-04-21 20:31:09.166140,3.277662039,0.114921682,8.932766914,-0.107117914,0.021050537,-0.012523737,,,,,,
2023-04-21 20:31:09.166140,,,,,,,-3.102885485,-0.316034615,9.92636013,0.105252676,0.014388974,-0.016520673
2023-04-21 20:31:09.166140,,,,,,,-3.100491285,-0.316034615,9.928754807,0.105252676,0.014388974,-0.016520673
2023-04-21 20:31:09.166140,,,,,,,-3.100491285,-0.313640416,9.923966408,0.104986221,0.014122511,-0.016520673
2023-04-21 20:31:09.166140,,,,,,,-3.095702887,-0.316034615,9.92636013,0.105252676,0.014122511,-0.016520673
2023-04-21 20:31:09.166140,,,,,,,-3.093308687,-0.316034615,9.928754807,0.104986221,0.014122511,-0.016787136
2023-04-21 20:31:09.166140,,,,,,,-3.093308687,-0.313640416,9.92636013,0.104719758,0.014388974,-0.016787136
2023-04-21 20:31:09.166140,,,,,,,-3.093308687,-0.313640416,9.931148529,0.104719758,0.014388974,-0.017053599
2023-04-21 20:31:09.166140,,,,,,,-3.098097086,-0.318428814,9.933543205,0.104719758,0.014655436,-0.016787136
2023-04-21 20:31:09.166140,,,,,,,-3.098097086,-0.318428814,9.940725327,0.104719758,0.014655436,-0.016787136
2023-04-21 20:31:09.166140,,,,,,,-3.095702887,-0.320823014,9.945513725,0.104719758,0.014655436,-0.016787136
2023-04-21 20:31:09.166140,,,,,,,-3.093308687,-0.323217243,9.945513725,0.104719758,0.015188362,-0.016787136
2023-04-21 20:31:09.166140,,,,,,,-3.090914488,-0.325611442,9.9526968,0.104986221,0.015188362,-0.016787136
2023-04-21 20:31:09.166140,,,,,,,-3.093308687,-0.323217243,9.955090523,0.104986221,0.015454824,-0.016787136
2023-04-21 20:31:09.166140,,,,,,,-3.090914488,-0.320823014,9.9526968,0.105252676,0.015721286,-0.016787136
2023-04-21 20:31:09.166140,,,,,,,-3.093308687,-0.320823014,9.950302124,0.105252676,0.015721286,-0.016520673
2023-04-21 20:31:09.237103,3.27287364,0.059855044,8.995016098,-0.104453288,0.028511487,-0.012790199,,,,,,
2023-04-21 20:31:09.237103,3.268085241,0.057460841,9.009381294,-0.104186833,0.028777948,-0.012523737,,,,,,
2023-04-21 20:31:09.237103,3.260902643,0.057460841,9.021351814,-0.103920363,0.028777948,-0.012257273,,,,,,
2023-04-21 20:31:09.237103,3.253720045,0.057460841,9.028534889,-0.103653908,0.028777948,-0.011990812,,,,,,
2023-04-21 20:31:09.237103,3.248931646,0.057460841,9.03571701,-0.103120975,0.028777948,-0.011990812,,,,,,
2023-04-21 20:31:09.237103,3.244143248,0.055066638,9.045293808,-0.10285452,0.028777948,-0.011457887,,,,,,
2023-04-21 20:31:09.237103,3.244143248,0.057460841,9.054870605,-0.102321595,0.028777948,-0.011457887,,,,,,
2023-04-21 20:31:09.237103,3.239354849,0.055066638,9.057265282,-0.102055125,0.028777948,-0.011191424,,,,,,
2023-04-21 20:31:09.237103,3.236960649,0.057460841,9.054870605,-0.101522207,0.028777948,-0.010924961,,,,,,
2023-04-21 20:31:09.237103,3.232172251,0.059855044,9.059659004,-0.101522207,0.028511487,-0.010658499,,,,,,
2023-04-21 20:31:09.237103,3.229778051,0.059855044,9.054870605,-0.101255737,0.028511487,-0.010392036,,,,,,
2023-04-21 20:31:09.237103,3.227383852,0.057460841,9.047688484,-0.100989282,0.028245023,-0.010125575,,,,,,
2023-04-21 20:31:09.237103,3.227383852,0.055066638,9.045293808,-0.100989282,0.028245023,-0.009859112,,,,,,
2023-04-21 20:31:09.237103,3.224989653,0.055066638,9.042900085,-0.100989282,0.02797856,-0.009859112,,,,,,
2023-04-21 20:31:09.237103,3.224989653,0.055066638,9.038111687,-0.100722812,0.02797856,-0.009592649,,,,,,
2023-04-21 20:31:09.237103,,,,,,,-3.105279684,-0.328005642,9.967061996,0.104453288,0.014655436,-0.015987748
2023-04-21 20:31:09.237103,,,,,,,-3.102885485,-0.328005642,9.967061996,0.104453288,0.014655436,-0.015987748
2023-04-21 20:31:09.237103,,,,,,,-3.100491285,-0.325611442,9.969455719,0.104453288,0.014655436,-0.016254211
2023-04-21 20:31:09.237103,,,,,,,-3.098097086,-0.330399841,9.96466732,0.104453288,0.014921899,-0.016254211
2023-04-21 20:31:09.237103,,,,,,,-3.098097086,-0.330399841,9.96466732,0.104453288,0.014921899,-0.016254211
2023-04-21 20:31:09.237103,,,,,,,-3.100491285,-0.330399841,9.96466732,0.104719758,0.014921899,-0.016254211
2023-04-21 20:31:09.237103,,,,,,,-3.095702887,-0.330399841,9.957485199,0.104719758,0.015188362,-0.016254211
2023-04-21 20:31:09.237103,,,,,,,-3.095702887,-0.328005642,9.959878922,0.104986221,0.015454824,-0.016254211
2023-04-21 20:31:09.237103,,,,,,,-3.095702887,-0.330399841,9.957485199,0.105252676,0.015721286,-0.016254211
2023-04-21 20:31:09.237103,,,,,,,-3.093308687,-0.330399841,9.955090523,0.104986221,0.015987748,-0.016254211
2023-04-21 20:31:09.237103,,,,,,,-3.090914488,-0.330399841,9.947908401,0.105252676,0.015987748,-0.016254211
2023-04-21 20:31:09.237103,,,,,,,-3.093308687,-0.330399841,9.950302124,0.105252676,0.016254211,-0.016520673
2023-04-21 20:31:09.237103,,,,,,,-3.098097086,-0.330399841,9.945513725,0.105252676,0.016254211,-0.016520673
2023-04-21 20:31:09.237103,,,,,,,-3.102885485,-0.330399841,9.943120003,0.104986221,0.016254211,-0.016520673
2023-04-21 20:31:09.237103,,,,,,,-3.105279684,-0.330399841,9.943120003,0.104986221,0.016254211,-0.016520673
2023-04-21 20:31:09.386882,3.256114244,0.086191259,8.944737434,-0.098058186,0.026646247,-0.008260337,,,,,,
2023-04-21 20:31:09.386882,3.253720045,0.088585466,8.944737434,-0.098324656,0.027179174,-0.008260337,,,,,,
2023-04-21 20:31:09.386882,3.253720045,0.086191259,8.944737434,-0.098324656,0.027179174,-0.007993874,,,,,,
2023-04-21 20:31:09.386882,3.253720045,0.08379706,8.942343712,-0.098324656,0.027179174,-0.008260337,,,,,,
2023-04-21 20:31:09.386882,3.251325846,0.079008654,8.944737434,-0.098324656,0.027179174,-0.008526799,,,,,,
2023-04-21 20:31:09.386882,3.251325846,0.079008654,8.944737434,-0.098324656,0.027179174,-0.008526799,,,,,,
2023-04-21 20:31:09.386882,3.251325846,0.074220255,8.947132111,-0.098591112,0.027179174,-0.008793262,,,,,,
2023-04-21 20:31:09.386882,3.251325846,0.071826048,8.947132111,-0.098857582,0.027179174,-0.009059724,,,,,,
2023-04-21 20:31:09.386882,3.253720045,0.067037649,8.949525833,-0.099124044,0.027179174,-0.009059724,,,,,,
2023-04-21 20:31:09.386882,3.256114244,0.064643443,8.947132111,-0.099124044,0.027445635,-0.009059724,,,,,,
2023-04-21 20:31:09.386882,3.253720045,0.059855044,8.949525833,-0.099124044,0.027712099,-0.009592649,,,,,,
2023-04-21 20:31:09.386882,3.251325846,0.055066638,8.944737434,-0.099124044,0.027712099,-0.009326187,,,,,,
2023-04-21 20:31:09.386882,3.251325846,0.050278235,8.947132111,-0.098857582,0.027712099,-0.009326187,,,,,,
2023-04-21 20:31:09.386882,3.248931646,0.045489833,8.949525833,-0.098591112,0.027712099,-0.009326187,,,,,,
2023-04-21 20:31:09.386882,3.251325846,0.04309563,8.951920509,-0.098591112,0.027712099,-0.009326187,,,,,,
2023-04-21 20:31:09.386882,,,,,,,-3.098097086,-0.316034615,9.921571732,0.104186833,0.024514547,-0.015987748
2023-04-21 20:31:09.386882,,,,,,,-3.098097086,-0.318428814,9.92636013,0.104453288,0.024514547,-0.016254211
2023-04-21 20:31:09.386882,,,,,,,-3.102885485,-0.320823014,9.92636013,0.104453288,0.024781011,-0.016254211
2023-04-21 20:31:09.386882,,,,,,,-3.107673883,-0.318428814,9.928754807,0.104453288,0.024781011,-0.016254211
2023-04-21 20:31:09.386882,,,,,,,-3.110068083,-0.316034615,9.923966408,0.104186833,0.024781011,-0.016254211
2023-04-21 20:31:09.386882,,,,,,,-3.107673883,-0.320823014,9.919178009,0.104186833,0.024781011,-0.016254211
2023-04-21 20:31:09.386882,,,,,,,-3.110068083,-0.320823014,9.921571732,0.104186833,0.024781011,-0.016254211
2023-04-21 20:31:09.386882,,,,,,,-3.112462282,-0.325611442,9.92636013,0.104186833,0.025047474,-0.016254211
2023-04-21 20:31:09.386882,,,,,,,-3.114856482,-0.325611442,9.92636013,0.104186833,0.024781011,-0.016520673
2023-04-21 20:31:09.386882,,,,,,,-3.11964488,-0.325611442,9.931148529,0.104186833,0.024781011,-0.016254211
2023-04-21 20:31:09.386882,,,,,,,-3.12203908,-0.330399841,9.935936928,0.104186833,0.024781011,-0.016520673
2023-04-21 20:31:09.386882,,,,,,,-3.12203908,-0.33279404,9.938331604,0.104186833,0.024781011,-0.016254211
2023-04-21 20:31:09.386882,,,,,,,-3.124433279,-0.330399841,9.943120003,0.104186833,0.024514547,-0.016520673
2023-04-21 20:31:09.386882,,,,,,,-3.126827478,-0.330399841,9.947908401,0.104186833,0.024781011,-0.016520673
2023-04-21 20:31:09.386882,,,,,,,-3.126827478,-0.328005642,9.950302124,0.104186833,0.024514547,-0.016520673
2023-04-21 20:31:09.476312,3.263296843,0.076614454,8.966285706,-0.081004597,0.027445635,-0.007194487,,,,,,
2023-04-21 20:31:09.476312,3.265691042,0.086191259,8.961497307,-0.081004597,0.027712099,-0.007460949,,,,,,
2023-04-21 20:31:09.476312,3.268085241,0.090979666,8.959102631,-0.080738127,0.02797856,-0.007460949,,,,,,
2023-04-21 20:31:09.476312,3.270479441,0.093373865,8.951920509,-0.080738127,0.028245023,-0.007460949,,,,,,
2023-04-21 20:31:09.476312,3.27287364,0.098162271,8.939949036,-0.080738127,0.028245023,-0.007460949,,,,,,
2023-04-21 20:31:09.476312,3.270479441,0.10295067,8.932766914,-0.080471672,0.028511487,-0.007460949,,,,,,
2023-04-21 20:31:09.476312,3.270479441,0.107739076,8.932766914,-0.080738127,0.02904441,-0.007194487,,,,,,
2023-04-21 20:31:09.476312,3.270479441,0.110133275,8.930372238,-0.081004597,0.029310873,-0.007460949,,,,,,
2023-04-21 20:31:09.476312,3.27287364,0.114921682,8.925583839,-0.081271052,0.029310873,-0.007460949,,,,,,
2023-04-21 20:31:09.476312,3.270479441,0.114921682,8.920795441,-0.081537522,0.029577335,-0.007460949,,,,,,
2023-04-21 20:31:09.476312,3.270479441,0.117315881,8.916007042,-0.081803977,0.029843798,-0.007727412,,,,,,
2023-04-21 20:31:09.476312,3.268085241,0.119710088,8.913613319,-0.08207044,0.03011026,-0.007727412,,,,,,
2023-04-21 20:31:09.476312,3.265691042,0.122104287,8.913613319,-0.082603365,0.030376723,-0.007727412,,,,,,
2023-04-21 20:31:09.476312,3.265691042,0.124498487,8.911218643,-0.082869835,0.030643184,-0.007993874,,,,,,
2023-04-21 20:31:09.476312,3.263296843,0.1316811,8.911218643,-0.08313629,0.030909648,-0.007993874,,,,,,
2023-04-21 20:31:09.476312,,,,,,,-3.138798475,-0.33518824,9.921571732,0.106584989,0.012523737,-0.017320061
2023-04-21 20:31:09.476312,,,,,,,-3.138798475,-0.330399841,9.919178009,0.106318533,0.011990812,-0.017320061
2023-04-21 20:31:09.476312,,,,,,,-3.138798475,-0.328005642,9.923966408,0.106318533,0.011990812,-0.017586524
2023-04-21 20:31:09.476312,,,,,,,-3.136404276,-0.328005642,9.928754807,0.106584989,0.011990812,-0.017586524
2023-04-21 20:31:09.476312,,,,,,,-3.134010077,-0.325611442,9.92636013,0.106318533,0.011724349,-0.017586524
2023-04-21 20:31:09.476312,,,,,,,-3.129221678,-0.323217243,9.923966408,0.106584989,0.011724349,-0.017586524
2023-04-21 20:31:09.476312,,,,,,,-3.126827478,-0.320823014,9.923966408,0.106584989,0.011990812,-0.017320061
2023-04-21 20:31:09.476312,,,,,,,-3.124433279,-0.323217243,9.92636013,0.106584989,0.012257273,-0.017586524
2023-04-21 20:31:09.476312,,,,,,,-3.126827478,-0.325611442,9.92636013,0.106584989,0.012257273,-0.017586524
2023-04-21 20:31:09.476312,,,,,,,-3.126827478,-0.325611442,9.928754807,0.106584989,0.012257273,-0.017586524
2023-04-21 20:31:09.476312,,,,,,,-3.126827478,-0.328005642,9.933543205,0.106584989,0.012523737,-0.017586524
2023-04-21 20:31:09.476312,,,,,,,-3.124433279,-0.325611442,9.935936928,0.106851459,0.012523737,-0.017852986
2023-04-21 20:31:09.476312,,,,,,,-3.124433279,-0.328005642,9.935936928,0.106851459,0.012523737,-0.017586524
2023-04-21 20:31:09.476312,,,,,,,-3.126827478,-0.330399841,9.933543205,0.106851459,0.012523737,-0.017586524
2023-04-21 20:31:09.476312,,,,,,,-3.124433279,-0.33279404,9.938331604,0.106851459,0.012790199,-0.017586524
2023-04-21 20:31:09.547270,3.236960649,0.114921682,8.932766914,-0.104186833,0.02691271,-0.011457887,,,,,,
2023-04-21 20:31:09.547270,3.23456645,0.117315881,8.939949036,-0.104453288,0.026379786,-0.011457887,,,,,,
2023-04-21 20:31:09.547270,3.23456645,0.114921682,8.944737434,-0.104719758,0.026113322,-0.011457887,,,,,,
2023-04-21 20:31:09.547270,3.232172251,0.112527482,8.949525833,-0.104986221,0.026113322,-0.011191424,,,,,,
2023-04-21 20:31:09.547270,3.23456645,0.112527482,8.949525833,-0.105252676,0.025846859,-0.011457887,,,,,,
2023-04-21 20:31:09.547270,3.232172251,0.112527482,8.956708908,-0.105785601,0.025846859,-0.011191424,,,,,,
2023-04-21 20:31:09.547270,3.227383852,0.107739076,8.971074104,-0.106052071,0.025580399,-0.011191424,,,,,,
2023-04-21 20:31:09.547270,3.227383852,0.105344877,8.973467827,-0.106052071,0.025313934,-0.011191424,,,,,,
2023-04-21 20:31:09.547270,3.227383852,0.10295067,8.973467827,-0.106052071,0.025313934,-0.011191424,,,,,,
2023-04-21 20:31:09.547270,3.227383852,0.10055647,8.971074104,-0.106052071,0.025313934,-0.010924961,,,,,,
2023-04-21 20:31:09.547270,3.227383852,0.10055647,8.971074104,-0.106052071,0.025047474,-0.011191424,,,,,,
2023-04-21 20:31:09.547270,3.229778051,0.098162271,8.971074104,-0.106052071,0.025313934,-0.010924961,,,,,,
2023-04-21 20:31:09.547270,3.229778051,0.095768064,8.971074104,-0.105519146,0.025313934,-0.010924961,,,,,,
2023-04-21 20:31:09.547270,3.227383852,0.093373865,8.975862503,-0.105519146,0.025313934,-0.011191424,,,,,,
2023-04-21 20:31:09.547270,3.227383852,0.093373865,8.975862503,-0.105252676,0.025313934,-0.011191424,,,,,,
2023-04-21 20:31:09.547270,,,,,,,-3.124433279,-0.320823014,9.883264542,0.113779478,0.019185297,-0.021050537
2023-04-21 20:31:09.547270,,,,,,,-3.124433279,-0.313640416,9.878476143,0.113513015,0.019185297,-0.021050537
2023-04-21 20:31:09.547270,,,,,,,-3.126827478,-0.313640416,9.87608242,0.113246553,0.019451762,-0.021316998
2023-04-21 20:31:09.547270,,,,,,,-3.124433279,-0.311246216,9.87608242,0.11298009,0.019185297,-0.02158346
2023-04-21 20:31:09.547270,,,,,,,-3.129221678,-0.301669419,9.87608242,0.112713635,0.019185297,-0.02158346
2023-04-21 20:31:09.547270,,,,,,,-3.129221678,-0.29688102,9.878476143,0.112447165,0.019185297,-0.02158346
2023-04-21 20:31:09.547270,,,,,,,-3.129221678,-0.289698392,9.873687744,0.112447165,0.019451762,-0.021849923
2023-04-21 20:31:09.547270,,,,,,,-3.134010077,-0.282515794,9.873687744,0.11191424,0.019451762,-0.022116385
2023-04-21 20:31:09.547270,,,,,,,-3.134010077,-0.277727395,9.87608242,0.111647777,0.019451762,-0.022116385
2023-04-21 20:31:09.547270,,,,,,,-3.136404276,-0.270544797,9.880870819,0.111381322,0.019718224,-0.022382848
2023-04-21 20:31:09.547270,,,,,,,-3.136404276,-0.265756398,9.883264542,0.110848397,0.019984685,-0.022382848
2023-04-21 20:31:09.547270,,,,,,,-3.138798475,-0.263362199,9.880870819,0.110581927,0.019984685,-0.022649311
2023-04-21 20:31:09.547270,,,,,,,-3.143586874,-0.265756398,9.880870819,0.110049009,0.02051761,-0.022382848
2023-04-21 20:31:09.547270,,,,,,,-3.145981073,-0.265756398,9.885659218,0.109249614,0.020784073,-0.022382848
2023-04-21 20:31:09.547270,,,,,,,-3.145981073,-0.265756398,9.88805294,0.108716697,0.021050537,-0.022382848
2023-04-21 20:31:09.612232,3.208230257,0.098162271,8.927978516,-0.10285452,0.018119449,-0.012257273,,,,,,
2023-04-21 20:31:09.612232,3.210624456,0.10055647,8.925583839,-0.10285452,0.017852986,-0.012257273,,,,,,
2023-04-21 20:31:09.612232,3.208230257,0.10055647,8.927978516,-0.10285452,0.017586524,-0.012257273,,,,,,
2023-04-21 20:31:09.612232,3.210624456,0.098162271,8.935160637,-0.10285452,0.017586524,-0.012257273,,,,,,
2023-04-21 20:31:09.612232,3.213018656,0.095768064,8.939949036,-0.103120975,0.017320061,-0.012257273,,,,,,
2023-04-21 20:31:09.612232,3.215412855,0.095768064,8.939949036,-0.103120975,0.017053599,-0.012523737,,,,,,
2023-04-21 20:31:09.612232,3.217807055,0.093373865,8.949525833,-0.103387438,0.016787136,-0.012790199,,,,,,
2023-04-21 20:31:09.612232,3.220201254,0.095768064,8.949525833,-0.103653908,0.016520673,-0.012523737,,,,,,
2023-04-21 20:31:09.612232,3.220201254,0.095768064,8.947132111,-0.103653908,0.016254211,-0.012523737,,,,,,
2023-04-21 20:31:09.612232,3.227383852,0.093373865,8.949525833,-0.103653908,0.015987748,-0.012790199,,,,,,
2023-04-21 20:31:09.612232,3.227383852,0.093373865,8.951920509,-0.103387438,0.015987748,-0.012790199,,,,,,
2023-04-21 20:31:09.612232,3.227383852,0.090979666,8.951920509,-0.103387438,0.016254211,-0.012523737,,,,,,
2023-04-21 20:31:09.612232,3.23456645,0.090979666,8.954314232,-0.103120975,0.016254211,-0.012523737,,,,,,
2023-04-21 20:31:09.612232,3.23456645,0.095768064,8.959102631,-0.10285452,0.016254211,-0.012257273,,,,,,
2023-04-21 20:31:09.612232,3.236960649,0.095768064,8.966285706,-0.102321595,0.016520673,-0.012257273,,,,,,
2023-04-21 20:31:09.612232,,,,,,,-3.167528868,-0.356736064,9.957485199,0.103920363,0.019984685,-0.015987748
2023-04-21 20:31:09.612232,,,,,,,-3.167528868,-0.361524463,9.959878922,0.103920363,0.020251149,-0.015721286
2023-04-21 20:31:09.612232,,,,,,,-3.169923067,-0.363918662,9.959878922,0.104186833,0.020251149,-0.015721286
2023-04-21 20:31:09.612232,,,,,,,-3.169923067,-0.363918662,9.962273598,0.104186833,0.020251149,-0.015454824
2023-04-21 20:31:09.612232,,,,,,,-3.172317266,-0.37110126,9.96466732,0.104453288,0.019984685,-0.015454824
2023-04-21 20:31:09.612232,,,,,,,-3.172317266,-0.37110126,9.967061996,0.104719758,0.019984685,-0.015454824
2023-04-21 20:31:09.612232,,,,,,,-3.167528868,-0.37110126,9.969455719,0.104986221,0.019984685,-0.015188362
2023-04-21 20:31:09.612232,,,,,,,-3.167528868,-0.37349546,9.967061996,0.105519146,0.019718224,-0.015188362
2023-04-21 20:31:09.612232,,,,,,,-3.165134668,-0.37110126,9.962273598,0.105519146,0.019718224,-0.014921899
2023-04-21 20:31:09.612232,,,,,,,-3.162740469,-0.375889659,9.959878922,0.106052071,0.019718224,-0.014921899
2023-04-21 20:31:09.612232,,,,,,,-3.162740469,-0.37349546,9.957485199,0.106318533,0.019451762,-0.014655436
2023-04-21 20:31:09.612232,,,,,,,-3.162740469,-0.37349546,9.959878922,0.106584989,0.019451762,-0.014388974
2023-04-21 20:31:09.612232,,,,,,,-3.16034627,-0.37349546,9.957485199,0.106851459,0.019451762,-0.014388974
2023-04-21 20:31:09.612232,,,,,,,-3.15795207,-0.37110126,9.957485199,0.107117914,0.019451762,-0.014388974
2023-04-21 20:31:09.612232,,,,,,,-3.155557871,-0.37110126,9.957485199,0.107384384,0.019451762,-0.014388974
2023-04-21 20:31:09.705179,3.239354849,0.114921682,8.939949036,-0.10178867,0.028777948,-0.010392036,,,,,,
2023-04-21 20:31:09.705179,3.236960649,0.112527482,8.942343712,-0.102055125,0.028511487,-0.010392036,,,,,,
2023-04-21 20:31:09.705179,3.23456645,0.112527482,8.942343712,-0.102055125,0.028245023,-0.010392036,,,,,,
2023-04-21 20:31:09.705179,3.232172251,0.112527482,8.939949036,-0.102321595,0.028245023,-0.010392036,,,,,,
2023-04-21 20:31:09.705179,3.229778051,0.110133275,8.937555313,-0.10258805,0.02797856,-0.010658499,,,,,,
2023-04-21 20:31:09.705179,3.229778051,0.110133275,8.932766914,-0.10285452,0.027712099,-0.010658499,,,,,,
2023-04-21 20:31:09.705179,3.229778051,0.107739076,8.935160637,-0.103120975,0.027445635,-0.010924961,,,,,,
2023-04-21 20:31:09.705179,3.229778051,0.105344877,8.932766914,-0.103387438,0.027445635,-0.010924961,,,,,,
2023-04-21 20:31:09.705179,3.227383852,0.098162271,8.930372238,-0.103387438,0.027445635,-0.010924961,,,,,,
2023-04-21 20:31:09.705179,3.227383852,0.095768064,8.925583839,-0.103653908,0.027445635,-0.010924961,,,,,,
2023-04-21 20:31:09.705179,3.224989653,0.093373865,8.920795441,-0.103653908,0.027445635,-0.010658499,,,,,,
2023-04-21 20:31:09.705179,3.224989653,0.090979666,8.916007042,-0.103653908,0.027445635,-0.010924961,,,,,,
2023-04-21 20:31:09.705179,3.227383852,0.088585466,8.918401718,-0.103653908,0.027445635,-0.010924961,,,,,,
2023-04-21 20:31:09.705179,3.224989653,0.086191259,8.918401718,-0.103653908,0.027445635,-0.010924961,,,,,,
2023-04-21 20:31:09.705179,3.222595453,0.08379706,8.920795441,-0.103387438,0.027445635,-0.011191424,,,,,,
2023-04-21 20:31:09.705179,,,,,,,-3.191470861,-0.339976639,9.938331604,0.104719758,0.011990812,-0.017586524
2023-04-21 20:31:09.705179,,,,,,,-3.189076662,-0.342370838,9.935936928,0.104719758,0.010924961,-0.017586524
2023-04-21 20:31:09.705179,,,,,,,-3.191470861,-0.342370838,9.933543205,0.104986221,0.010392036,-0.017586524
2023-04-21 20:31:09.705179,,,,,,,-3.191470861,-0.342370838,9.931148529,0.105252676,0.010125575,-0.017852986
2023-04-21 20:31:09.705179,,,,,,,-3.191470861,-0.339976639,9.931148529,0.105519146,0.009592649,-0.018119449
2023-04-21 20:31:09.705179,,,,,,,-3.191470861,-0.339976639,9.928754807,0.105785601,0.009326187,-0.018119449
2023-04-21 20:31:09.705179,,,,,,,-3.19625926,-0.342370838,9.928754807,0.106052071,0.008526799,-0.017852986
2023-04-21 20:31:09.705179,,,,,,,-3.19625926,-0.339976639,9.92636013,0.106318533,0.008526799,-0.017852986
2023-04-21 20:31:09.705179,,,,,,,-3.19625926,-0.337582439,9.92636013,0.106318533,0.008260337,-0.017852986
2023-04-21 20:31:09.705179,,,,,,,-3.19625926,-0.33518824,9.921571732,0.106318533,0.007727412,-0.017852986
2023-04-21 20:31:09.705179,,,,,,,-3.19625926,-0.33279404,9.919178009,0.106584989,0.007460949,-0.017852986
2023-04-21 20:31:09.705179,,,,,,,-3.193865061,-0.33279404,9.91438961,0.106851459,0.006928025,-0.017852986
2023-04-21 20:31:09.705179,,,,,,,-3.19865346,-0.328005642,9.909601212,0.106584989,0.006661562,-0.017852986
2023-04-21 20:31:09.705179,,,,,,,-3.201047659,-0.328005642,9.909601212,0.106584989,0.0063951,-0.017586524
2023-04-21 20:31:09.705179,,,,,,,-3.19865346,-0.328005642,9.909601212,0.106851459,0.005862175,-0.017586524
2023-04-21 20:31:09.776136,3.203441858,0.119710088,8.956708908,-0.100189894,0.02051761,-0.011457887,,,,,,
2023-04-21 20:31:09.776136,3.203441858,0.119710088,8.956708908,-0.100189894,0.020251149,-0.011457887,,,,,,
2023-04-21 20:31:09.776136,3.205836058,0.122104287,8.956708908,-0.100189894,0.020251149,-0.011457887,,,,,,
2023-04-21 20:31:09.776136,3.208230257,0.122104287,8.959102631,-0.100456357,0.020251149,-0.011457887,,,,,,
2023-04-21 20:31:09.776136,3.203441858,0.124498487,8.959102631,-0.100456357,0.020251149,-0.011457887,,,,,,
2023-04-21 20:31:09.776136,3.203441858,0.126892686,8.959102631,-0.100722812,0.020251149,-0.011724349,,,,,,
2023-04-21 20:31:09.776136,3.203441858,0.124498487,8.959102631,-0.100722812,0.019984685,-0.011724349,,,,,,
2023-04-21 20:31:09.776136,3.205836058,0.126892686,8.961497307,-0.100989282,0.019984685,-0.011724349,,,,,,
2023-04-21 20:31:09.776136,3.208230257,0.126892686,8.961497307,-0.101255737,0.019984685,-0.011724349,,,,,,
2023-04-21 20:31:09.776136,3.210624456,0.129286885,8.961497307,-0.101522207,0.019718224,-0.011724349,,,,,,
2023-04-21 20:31:09.776136,3.213018656,0.129286885,8.963891029,-0.102055125,0.019451762,-0.011724349,,,,,,
2023-04-21 20:31:09.776136,3.213018656,0.1316811,8.963891029,-0.102055125,0.019451762,-0.011724349,,,,,,
2023-04-21 20:31:09.776136,3.215412855,0.134075299,8.963891029,-0.10258805,0.019185297,-0.011724349,,,,,,
2023-04-21 20:31:09.776136,3.215412855,0.134075299,8.959102631,-0.10285452,0.019185297,-0.011724349,,,,,,
2023-04-21 20:31:09.776136,3.215412855,0.134075299,8.956708908,-0.103120975,0.019185297,-0.011457887,,,,,,
2023-04-21 20:31:09.776136,,,,,,,-3.145981073,-0.328005642,9.933543205,0.104453288,-0.010392036,-0.017053599
2023-04-21 20:31:09.776136,,,,,,,-3.143586874,-0.328005642,9.933543205,0.104453288,-0.010658499,-0.017320061
2023-04-21 20:31:09.776136,,,,,,,-3.143586874,-0.328005642,9.931148529,0.104186833,-0.011191424,-0.017586524
2023-04-21 20:31:09.776136,,,,,,,-3.138798475,-0.325611442,9.931148529,0.104186833,-0.011457887,-0.017852986
2023-04-21 20:31:09.776136,,,,,,,-3.138798475,-0.325611442,9.935936928,0.104186833,-0.011724349,-0.017852986
2023-04-21 20:31:09.776136,,,,,,,-3.134010077,-0.328005642,9.940725327,0.103920363,-0.011990812,-0.018119449
2023-04-21 20:31:09.776136,,,,,,,-3.129221678,-0.330399841,9.943120003,0.103920363,-0.012257273,-0.018385911
2023-04-21 20:31:09.776136,,,,,,,-3.129221678,-0.330399841,9.945513725,0.103653908,-0.012790199,-0.018385911
2023-04-21 20:31:09.776136,,,,,,,-3.126827478,-0.328005642,9.945513725,0.103653908,-0.013056661,-0.018652374
2023-04-21 20:31:09.776136,,,,,,,-3.126827478,-0.325611442,9.943120003,0.103653908,-0.013056661,-0.018652374
2023-04-21 20:31:09.776136,,,,,,,-3.124433279,-0.325611442,9.943120003,0.103653908,-0.013323124,-0.018918836
2023-04-21 20:31:09.776136,,,,,,,-3.124433279,-0.325611442,9.950302124,0.103653908,-0.013589587,-0.019185297
2023-04-21 20:31:09.776136,,,,,,,-3.12203908,-0.325611442,9.950302124,0.103653908,-0.013589587,-0.019451762
2023-04-21 20:31:09.776136,,,,,,,-3.12203908,-0.325611442,9.950302124,0.103387438,-0.013589587,-0.019451762
2023-04-21 20:31:09.776136,,,,,,,-3.11964488,-0.328005642,9.947908401,0.103387438,-0.013323124,-0.019451762
2023-04-21 20:31:09.851093,3.205836058,0.090979666,8.944737434,-0.105252676,0.023715161,-0.011457887,,,,,,
2023-04-21 20:31:09.851093,3.203441858,0.088585466,8.939949036,-0.105252676,0.023715161,-0.011724349,,,,,,
2023-04-21 20:31:09.851093,3.201047659,0.088585466,8.937555313,-0.105252676,0.023715161,-0.011457887,,,,,,
2023-04-21 20:31:09.851093,3.201047659,0.090979666,8.939949036,-0.104986221,0.023448698,-0.011724349,,,,,,
2023-04-21 20:31:09.851093,3.203441858,0.090979666,8.942343712,-0.104719758,0.023448698,-0.011724349,,,,,,
2023-04-21 20:31:09.851093,3.205836058,0.090979666,8.944737434,-0.104719758,0.023448698,-0.011724349,,,,,,
2023-04-21 20:31:09.851093,3.208230257,0.088585466,8.944737434,-0.104453288,0.023182238,-0.011724349,,,,,,
2023-04-21 20:31:09.851093,3.208230257,0.086191259,8.942343712,-0.104453288,0.023182238,-0.011724349,,,,,,
2023-04-21 20:31:09.851093,3.205836058,0.086191259,8.944737434,-0.104453288,0.022915773,-0.011724349,,,,,,
2023-04-21 20:31:09.851093,3.208230257,0.086191259,8.947132111,-0.104186833,0.022649311,-0.011724349,,,,,,
2023-04-21 20:31:09.851093,3.208230257,0.08379706,8.951920509,-0.104186833,0.022649311,-0.011724349,,,,,,
2023-04-21 20:31:09.851093,3.208230257,0.086191259,8.959102631,-0.103653908,0.022382848,-0.011990812,,,,,,
2023-04-21 20:31:09.851093,3.208230257,0.088585466,8.959102631,-0.103653908,0.022382848,-0.011990812,,,,,,
2023-04-21 20:31:09.851093,3.208230257,0.088585466,8.954314232,-0.103387438,0.022116385,-0.012257273,,,,,,
2023-04-21 20:31:09.851093,3.213018656,0.090979666,8.951920509,-0.103120975,0.021849923,-0.011990812,,,,,,
2023-04-21 20:31:09.851093,,,,,,,-3.148375273,-0.330399841,9.9526968,0.103387438,-0.023448698,-0.021849923
2023-04-21 20:31:09.851093,,,,,,,-3.148375273,-0.330399841,9.9526968,0.103120975,-0.024248086,-0.022116385
2023-04-21 20:31:09.851093,,,,,,,-3.150769472,-0.330399841,9.955090523,0.103120975,-0.024514547,-0.022116385
2023-04-21 20:31:09.851093,,,,,,,-3.150769472,-0.328005642,9.955090523,0.103120975,-0.025047474,-0.022116385
2023-04-21 20:31:09.851093,,,,,,,-3.148375273,-0.330399841,9.9526968,0.103387438,-0.025846859,-0.022116385
2023-04-21 20:31:09.851093,,,,,,,-3.150769472,-0.328005642,9.9526968,0.103387438,-0.026379786,-0.022116385
2023-04-21 20:31:09.851093,,,,,,,-3.143586874,-0.325611442,9.950302124,0.103120975,-0.027179174,-0.022116385
2023-04-21 20:31:09.851093,,,,,,,-3.141192675,-0.323217243,9.947908401,0.103120975,-0.02797856,-0.022382848
2023-04-21 20:31:09.851093,,,,,,,-3.136404276,-0.323217243,9.947908401,0.103120975,-0.028511487,-0.022116385
2023-04-21 20:31:09.851093,,,,,,,-3.136404276,-0.325611442,9.943120003,0.103120975,-0.029843798,-0.022382848
2023-04-21 20:31:09.851093,,,,,,,-3.134010077,-0.325611442,9.943120003,0.10285452,-0.03011026,-0.022382848
2023-04-21 20:31:09.851093,,,,,,,-3.136404276,-0.328005642,9.935936928,0.10258805,-0.030909648,-0.022649311
2023-04-21 20:31:09.851093,,,,,,,-3.134010077,-0.325611442,9.933543205,0.102321595,-0.031442571,-0.022915773
2023-04-21 20:31:09.851093,,,,,,,-3.134010077,-0.325611442,9.928754807,0.102055125,-0.032241959,-0.023182238
2023-04-21 20:31:09.851093,,,,,,,-3.131615877,-0.325611442,9.931148529,0.10178867,-0.032774884,-0.023715161
2023-04-21 20:31:09.921053,3.203441858,0.107739076,8.968679428,-0.10258805,0.022382848,-0.011191424,,,,,,
2023-04-21 20:31:09.921053,3.205836058,0.110133275,8.971074104,-0.10258805,0.022649311,-0.011191424,,,,,,
2023-04-21 20:31:09.921053,3.208230257,0.110133275,8.971074104,-0.10258805,0.022649311,-0.011191424,,,,,,
2023-04-21 20:31:09.921053,3.205836058,0.107739076,8.973467827,-0.102321595,0.022915773,-0.011191424,,,,,,
2023-04-21 20:31:09.921053,3.203441858,0.107739076,8.975862503,-0.102321595,0.022915773,-0.011191424,,,,,,
2023-04-21 20:31:09.921053,3.201047659,0.107739076,8.980650902,-0.10258805,0.022915773,-0.011191424,,,,,,
2023-04-21 20:31:09.921053,3.203441858,0.107739076,8.978256226,-0.10285452,0.022915773,-0.010924961,,,,,,
2023-04-21 20:31:09.921053,3.205836058,0.105344877,8.978256226,-0.10285452,0.022915773,-0.010924961,,,,,,
2023-04-21 20:31:09.921053,3.208230257,0.10295067,8.978256226,-0.10285452,0.023182238,-0.010924961,,,,,,
2023-04-21 20:31:09.921053,3.208230257,0.10295067,8.973467827,-0.10285452,0.023182238,-0.010924961,,,,,,
2023-04-21 20:31:09.921053,3.208230257,0.10055647,8.968679428,-0.10285452,0.023448698,-0.010658499,,,,,,
2023-04-21 20:31:09.921053,3.205836058,0.10055647,8.963891029,-0.10285452,0.023448698,-0.010392036,,,,,,
2023-04-21 20:31:09.921053,3.208230257,0.10055647,8.963891029,-0.10285452,0.023715161,-0.010658499,,,,,,
2023-04-21 20:31:09.921053,3.208230257,0.098162271,8.961497307,-0.103120975,0.023981623,-0.010658499,,,,,,
2023-04-21 20:31:09.921053,3.208230257,0.098162271,8.961497307,-0.10285452,0.023981623,-0.010658499,,,,,,
2023-04-21 20:31:09.921053,,,,,,,-3.057395458,-0.438138902,9.9526968,0.113513015,-0.054624807,-0.02797856
2023-04-21 20:31:09.921053,,,,,,,-3.052607059,-0.438138902,9.957485199,0.114845328,-0.054624807,-0.028245023
2023-04-21 20:31:09.921053,,,,,,,-3.047818661,-0.440533102,9.96466732,0.115911178,-0.054091886,-0.028511487
2023-04-21 20:31:09.921053,,,,,,,-3.045424461,-0.442927301,9.969455719,0.117243491,-0.053825419,-0.028511487
2023-04-21 20:31:09.921053,,,,,,,-3.040636063,-0.438138902,9.976638794,0.118575804,-0.053558957,-0.028777948
2023-04-21 20:31:09.921053,,,,,,,-3.033453465,-0.440533102,9.981427193,0.119908117,-0.053026035,-0.028777948
2023-04-21 20:31:09.921053,,,,,,,-3.026270866,-0.438138902,9.986215591,0.120973967,-0.052759573,-0.028777948
2023-04-21 20:31:09.921053,,,,,,,-3.023876667,-0.433350503,9.993397713,0.12230628,-0.052226644,-0.028777948
2023-04-21 20:31:09.921053,,,,,,,-3.021482468,-0.428562105,9.998186111,0.12337213,-0.051960181,-0.028777948
2023-04-21 20:31:09.921053,,,,,,,-3.019088268,-0.423773706,10.00536919,0.124704443,-0.051160797,-0.028511487
2023-04-21 20:31:09.921053,,,,,,,-3.016694069,-0.421379507,10.00536919,0.126303226,-0.050627869,-0.028511487
2023-04-21 20:31:09.921053,,,,,,,-3.016694069,-0.418985307,10.00776291,0.126836136,-0.049828485,-0.028777948
2023-04-21 20:31:09.921053,,,,,,,-3.016694069,-0.418985307,10.01733971,0.128168449,-0.048762634,-0.028777948
2023-04-21 20:31:09.921053,,,,,,,-3.01429987,-0.416591108,10.02212811,0.129234299,-0.04769678,-0.028777948
2023-04-21 20:31:09.921053,,,,,,,-3.01190567,-0.416591108,10.02452278,0.129767224,-0.047163859,-0.028777948
2023-04-21 20:31:10.003007,3.19625926,0.10295067,8.947132111,-0.103120975,0.023715161,-0.010392036,,,,,,
2023-04-21 20:31:10.003007,3.19865346,0.10295067,8.939949036,-0.103387438,0.023715161,-0.010658499,,,,,,
2023-04-21 20:31:10.003007,3.19625926,0.10295067,8.939949036,-0.103653908,0.023448698,-0.010658499,,,,,,
2023-04-21 20:31:10.003007,3.19625926,0.10295067,8.942343712,-0.103387438,0.023715161,-0.010658499,,,,,,
2023-04-21 20:31:10.003007,3.19625926,0.105344877,8.942343712,-0.103387438,0.023715161,-0.010658499,,,,,,
2023-04-21 20:31:10.003007,3.19625926,0.10295067,8.942343712,-0.103387438,0.023715161,-0.010392036,,,,,,
2023-04-21 20:31:10.003007,3.19865346,0.10055647,8.944737434,-0.103120975,0.023715161,-0.010658499,,,,,,
2023-04-21 20:31:10.003007,3.19865346,0.098162271,8.944737434,-0.103120975,0.023715161,-0.010658499,,,,,,
2023-04-21 20:31:10.003007,3.201047659,0.098162271,8.944737434,-0.103120975,0.023448698,-0.010392036,,,,,,
2023-04-21 20:31:10.003007,3.201047659,0.095768064,8.947132111,-0.10285452,0.023448698,-0.010658499,,,,,,
2023-04-21 20:31:10.003007,3.201047659,0.095768064,8.949525833,-0.10285452,0.023448698,-0.010658499,,,,,,
2023-04-21 20:31:10.003007,3.201047659,0.095768064,8.951920509,-0.10285452,0.023448698,-0.010658499,,,,,,
2023-04-21 20:31:10.003007,3.203441858,0.093373865,8.954314232,-0.10285452,0.023448698,-0.010658499,,,,,,
2023-04-21 20:31:10.003007,3.201047659,0.093373865,8.954314232,-0.10258805,0.023182238,-0.010924961,,,,,,
2023-04-21 20:31:10.003007,3.19625926,0.093373865,8.954314232,-0.10285452,0.023182238,-0.011191424,,,,,,
2023-04-21 20:31:10.003007,,,,,,,-2.906560898,-0.1316811,9.933543205,0.141491577,-0.0021317,-0.041834611
2023-04-21 20:31:10.003007,,,,,,,-2.906560898,-0.126892686,9.931148529,0.139626339,-0.000532925,-0.042101074
2023-04-21 20:31:10.003007,,,,,,,-2.906560898,-0.129286885,9.92636013,0.138027564,0.000799387,-0.042101074
2023-04-21 20:31:10.003007,,,,,,,-2.911349297,-0.136469498,9.916783333,0.135895863,0.002931087,-0.042367533
2023-04-21 20:31:10.003007,,,,,,,-2.916137695,-0.146046311,9.911994934,0.13456355,0.004529862,-0.042633995
2023-04-21 20:31:10.003007,,,,,,,-2.923320293,-0.16759412,9.907206535,0.13243185,0.006928025,-0.043166921
2023-04-21 20:31:10.003007,,,,,,,-2.93529129,-0.193930343,9.897629738,0.130300149,0.009326187,-0.043699846
2023-04-21 20:31:10.003007,,,,,,,-2.944868088,-0.213083953,9.895236015,0.128967836,0.011191424,-0.044232771
2023-04-21 20:31:10.003007,,,,,,,-2.961627483,-0.239420176,9.88805294,0.127635539,0.013323124,-0.044765696
2023-04-21 20:31:10.003007,,,,,,,-2.983175278,-0.268150598,9.885659218,0.126036748,0.015454824,-0.045565084
2023-04-21 20:31:10.003007,,,,,,,-2.992752075,-0.287304193,9.878476143,0.125237361,0.016787136,-0.046098009
2023-04-21 20:31:10.003007,,,,,,,-3.007117271,-0.318428814,9.871294022,0.124704443,0.018652374,-0.047163859
2023-04-21 20:31:10.003007,,,,,,,-3.023876667,-0.349553436,9.861717224,0.124437973,0.019984685,-0.048229709
2023-04-21 20:31:10.003007,,,,,,,-3.035847664,-0.368707061,9.84974575,0.124171518,0.021050537,-0.049029093
2023-04-21 20:31:10.003007,,,,,,,-3.047818661,-0.397437483,9.83777523,0.124171518,0.022382848,-0.050361406
2023-04-21 20:31:10.071970,3.189076662,0.112527482,8.973467827,-0.104719758,0.024514547,-0.010924961,,,,,,
2023-04-21 20:31:10.071970,3.186682463,0.112527482,8.971074104,-0.104719758,0.024248086,-0.010924961,,,,,,
2023-04-21 20:31:10.071970,3.186682463,0.112527482,8.971074104,-0.104986221,0.024514547,-0.010924961,,,,,,
2023-04-21 20:31:10.071970,3.186682463,0.110133275,8.973467827,-0.105252676,0.024514547,-0.011191424,,,,,,
2023-04-21 20:31:10.071970,3.184288263,0.112527482,8.971074104,-0.105252676,0.024248086,-0.011191424,,,,,,
2023-04-21 20:31:10.071970,3.179499865,0.112527482,8.966285706,-0.105252676,0.024248086,-0.011191424,,,,,,
2023-04-21 20:31:10.071970,3.179499865,0.112527482,8.968679428,-0.105252676,0.024248086,-0.011191424,,,,,,
2023-04-21 20:31:10.071970,3.181894064,0.112527482,8.966285706,-0.105252676,0.023981623,-0.011457887,,,,,,
2023-04-21 20:31:10.071970,3.181894064,0.105344877,8.966285706,-0.105519146,0.023981623,-0.011457887,,,,,,
2023-04-21 20:31:10.071970,3.181894064,0.10295067,8.966285706,-0.105519146,0.023715161,-0.011457887,,,,,,
2023-04-21 20:31:10.071970,3.186682463,0.10295067,8.966285706,-0.105785601,0.023448698,-0.011457887,,,,,,
2023-04-21 20:31:10.071970,3.186682463,0.10055647,8.963891029,-0.105785601,0.023448698,-0.011457887,,,,,,
2023-04-21 20:31:10.071970,3.186682463,0.095768064,8.961497307,-0.105785601,0.023182238,-0.011457887,,,,,,
2023-04-21 20:31:10.071970,3.186682463,0.095768064,8.956708908,-0.106052071,0.023182238,-0.011457887,,,,,,
2023-04-21 20:31:10.071970,3.186682463,0.098162271,8.954314232,-0.106052071,0.023182238,-0.011724349,,,,,,
2023-04-21 20:31:10.071970,,,,,,,-3.323152065,-0.794874966,9.957485199,0.35839203,0.068214394,-0.067947932
2023-04-21 20:31:10.071970,,,,,,,-3.299209833,-0.739808321,9.971850395,0.36984992,0.065816231,-0.064750381
2023-04-21 20:31:10.071970,,,,,,,-3.280056238,-0.703895271,9.981427193,0.377577305,0.063950993,-0.062885143
2023-04-21 20:31:10.071970,,,,,,,-3.256114244,-0.644040287,10.00536919,0.388768762,0.061286367,-0.059687596
2023-04-21 20:31:10.071970,,,,,,,-3.23456645,-0.603338838,10.02212811,0.396496177,0.059421133,-0.057822358
2023-04-21 20:31:10.071970,,,,,,,-3.205836058,-0.533906996,10.04846478,0.407421142,0.056756508,-0.054358348
2023-04-21 20:31:10.071970,,,,,,,-3.174711466,-0.462080926,10.06761837,0.418079644,0.054091886,-0.05142726
2023-04-21 20:31:10.071970,,,,,,,-3.153163671,-0.40940848,10.07719517,0.424741209,0.052759573,-0.049295556
2023-04-21 20:31:10.071970,,,,,,,-3.124433279,-0.33518824,10.09156036,0.433800906,0.050894335,-0.046098009
2023-04-21 20:31:10.071970,,,,,,,-3.100491285,-0.258573771,10.10113716,0.442061275,0.048762634,-0.042900458
2023-04-21 20:31:10.071970,,,,,,,-3.08133769,-0.20350714,10.11310768,0.447390497,0.047430322,-0.040768761
2023-04-21 20:31:10.071970,,,,,,,-3.05021286,-0.119710088,10.12986755,0.454052061,0.046098009,-0.03757121
2023-04-21 20:31:10.071970,,,,,,,-3.019088268,-0.035913024,10.14662647,0.459647775,0.044232771,-0.034640122
2023-04-21 20:31:10.071970,,,,,,,-2.999934673,0.026336219,10.15859795,0.462578863,0.042900458,-0.032774884
2023-04-21 20:31:10.071970,,,,,,,-2.971204281,0.117315881,10.18014526,0.465509921,0.04103522,-0.029843798
2023-04-21 20:31:10.137932,3.191470861,0.098162271,8.985439301,-0.100722812,0.026379786,-0.011990812,,,,,,
2023-04-21 20:31:10.137932,3.191470861,0.10055647,8.987833023,-0.100722812,0.026379786,-0.011990812,,,,,,
2023-04-21 20:31:10.137932,3.191470861,0.105344877,8.990227699,-0.100722812,0.026379786,-0.011990812,,,,,,
2023-04-21 20:31:10.137932,3.189076662,0.110133275,8.990227699,-0.100456357,0.026646247,-0.011724349,,,,,,
2023-04-21 20:31:10.137932,3.189076662,0.110133275,8.987833023,-0.100722812,0.026646247,-0.011724349,,,,,,
2023-04-21 20:31:10.137932,3.184288263,0.114921682,8.985439301,-0.100989282,0.026646247,-0.011724349,,,,,,
2023-04-21 20:31:10.137932,3.179499865,0.114921682,8.975862503,-0.100989282,0.026646247,-0.011724349,,,,,,
2023-04-21 20:31:10.137932,3.177105665,0.117315881,8.971074104,-0.101255737,0.026646247,-0.011724349,,,,,,
2023-04-21 20:31:10.137932,3.174711466,0.119710088,8.971074104,-0.101522207,0.026646247,-0.011724349,,,,,,
2023-04-21 20:31:10.137932,3.172317266,0.114921682,8.966285706,-0.102055125,0.026379786,-0.011990812,,,,,,
2023-04-21 20:31:10.137932,3.172317266,0.110133275,8.963891029,-0.102055125,0.026113322,-0.011990812,,,,,,
2023-04-21 20:31:10.137932,3.172317266,0.107739076,8.963891029,-0.102055125,0.026113322,-0.011990812,,,,,,
2023-04-21 20:31:10.137932,3.172317266,0.10295067,8.961497307,-0.102321595,0.025846859,-0.011990812,,,,,,
2023-04-21 20:31:10.137932,3.169923067,0.098162271,8.966285706,-0.10258805,0.025313934,-0.011990812,,,,,,
2023-04-21 20:31:10.137932,3.172317266,0.095768064,8.966285706,-0.102321595,0.025313934,-0.011990812,,,,,,
2023-04-21 20:31:10.137932,,,,,,,-3.05021286,0.248996973,10.00776291,0.091663092,0.017320061,-0.019984685
2023-04-21 20:31:10.137932,,,,,,,-3.057395458,0.222660765,10.00297451,0.088998467,0.015987748,-0.019984685
2023-04-21 20:31:10.137932,,,,,,,-3.066972494,0.179565132,10.00297451,0.085534461,0.01385605,-0.019718224
2023-04-21 20:31:10.137932,,,,,,,-3.071760893,0.153228909,10.00776291,0.083669223,0.012523737,-0.019718224
2023-04-21 20:31:10.137932,,,,,,,-3.086126089,0.119710088,10.01255131,0.081803977,0.010924961,-0.019451762
2023-04-21 20:31:10.137932,,,,,,,-3.093308687,0.086191259,10.01733971,0.080738127,0.009059724,-0.019185297
2023-04-21 20:31:10.137932,,,,,,,-3.098097086,0.062249243,10.01733971,0.080471672,0.007727412,-0.018918836
2023-04-21 20:31:10.137932,,,,,,,-3.105279684,0.031124622,10.01494598,0.080738127,0.0063951,-0.018652374
2023-04-21 20:31:10.137932,,,,,,,-3.112462282,0.002394202,10.01015759,0.081271052,0.005595712,-0.018385911
2023-04-21 20:31:10.137932,,,,,,,-3.112462282,-0.01436521,10.00297451,0.081803977,0.005062787,-0.018385911
2023-04-21 20:31:10.137932,,,,,,,-3.114856482,-0.038307227,9.993397713,0.08313629,0.004529862,-0.017852986
2023-04-21 20:31:10.137932,,,,,,,-3.117250681,-0.055066638,9.986215591,0.084735066,0.003730475,-0.017586524
2023-04-21 20:31:10.137932,,,,,,,-3.117250681,-0.062249243,9.981427193,0.085800916,0.003464012,-0.017320061
2023-04-21 20:31:10.137932,,,,,,,-3.117250681,-0.064643443,9.974244118,0.088199086,0.002931087,-0.017053599
2023-04-21 20:31:10.137932,,,,,,,-3.114856482,-0.064643443,9.967061996,0.089797854,0.002398162,-0.016520673
2023-04-21 20:31:10.267036,3.088520288,0.162805721,9.026140213,-0.131632462,0.072477795,-0.028511487,,,,,,
2023-04-21 20:31:10.267036,3.086126089,0.160411507,9.02374649,-0.132698312,0.071145482,-0.029577335,,,,,,
2023-04-21 20:31:10.267036,3.08373189,0.160411507,9.02374649,-0.133231238,0.070612557,-0.030376723,,,,,,
2023-04-21 20:31:10.267036,3.076549292,0.160411507,9.02374649,-0.134297088,0.069280244,-0.031176111,,,,,,
2023-04-21 20:31:10.267036,3.069366693,0.160411507,9.021351814,-0.135362938,0.068480857,-0.031975497,,,,,,
2023-04-21 20:31:10.267036,3.064578056,0.158017308,9.02374649,-0.136162326,0.067681469,-0.032508422,,,,,,
2023-04-21 20:31:10.267036,3.059789658,0.150834709,9.026140213,-0.137494639,0.066615619,-0.033307809,,,,,,
2023-04-21 20:31:10.267036,3.055001259,0.143652096,9.033323288,-0.138560489,0.065016843,-0.033840735,,,,,,
2023-04-21 20:31:10.267036,3.052607059,0.136469498,9.03571701,-0.139359877,0.064217456,-0.03437366,,,,,,
2023-04-21 20:31:10.267036,3.045424461,0.1316811,9.045293808,-0.140159264,0.06261868,-0.035173047,,,,,,
2023-04-21 20:31:10.267036,3.040636063,0.124498487,9.050082207,-0.140958652,0.060753446,-0.035972435,,,,,,
2023-04-21 20:31:10.267036,3.035847664,0.119710088,9.047688484,-0.141491577,0.059421133,-0.036238898,,,,,,
2023-04-21 20:31:10.267036,3.033453465,0.110133275,9.047688484,-0.142024502,0.057555895,-0.036771823,,,,,,
2023-04-21 20:31:10.267036,3.031059265,0.107739076,9.047688484,-0.142557427,0.055424199,-0.037304748,,,,,,
2023-04-21 20:31:10.267036,3.028665066,0.10295067,9.047688484,-0.14282389,0.054358348,-0.03757121,,,,,,
2023-04-21 20:31:10.267036,,,,,,,-3.107673883,0.02873042,9.955090523,0.103387438,0.011191424,-0.016787136
2023-04-21 20:31:10.267036,,,,,,,-3.107673883,0.026336219,9.962273598,0.103653908,0.011191424,-0.016520673
2023-04-21 20:31:10.267036,,,,,,,-3.105279684,0.023942016,9.96466732,0.103920363,0.011191424,-0.016520673
2023-04-21 20:31:10.267036,,,,,,,-3.105279684,0.021547815,9.959878922,0.104186833,0.011191424,-0.016520673
2023-04-21 20:31:10.267036,,,,,,,-3.105279684,0.021547815,9.959878922,0.104186833,0.010924961,-0.016254211
2023-04-21 20:31:10.267036,,,,,,,-3.102885485,0.019153614,9.959878922,0.104186833,0.010924961,-0.016254211
2023-04-21 20:31:10.267036,,,,,,,-3.102885485,0.019153614,9.969455719,0.104186833,0.010392036,-0.015987748
2023-04-21 20:31:10.267036,,,,,,,-3.102885485,0.016759412,9.974244118,0.104186833,0.010392036,-0.015987748
2023-04-21 20:31:10.267036,,,,,,,-3.102885485,0.016759412,9.976638794,0.104453288,0.010125575,-0.015987748
2023-04-21 20:31:10.267036,,,,,,,-3.102885485,0.016759412,9.971850395,0.104719758,0.010125575,-0.015987748
2023-04-21 20:31:10.267036,,,,,,,-3.098097086,0.01436521,9.974244118,0.104719758,0.009859112,-0.015987748
2023-04-21 20:31:10.267036,,,,,,,-3.095702887,0.011971008,9.974244118,0.104719758,0.009326187,-0.015454824
2023-04-21 20:31:10.267036,,,,,,,-3.095702887,0.009576807,9.974244118,0.104719758,0.009059724,-0.015454824
2023-04-21 20:31:10.267036,,,,,,,-3.098097086,0.009576807,9.981427193,0.104986221,0.009059724,-0.015454824
2023-04-21 20:31:10.267036,,,,,,,-3.098097086,0.011971008,9.981427193,0.104986221,0.008793262,-0.015454824
2023-04-21 20:31:10.347991,3.287238836,0.280121595,8.757989883,-0.122839205,0.000266462,-0.057022974,,,,,,
2023-04-21 20:31:10.347991,3.306392431,0.306457818,8.741230011,-0.124704443,-0.0021317,-0.058355279,,,,,,
2023-04-21 20:31:10.347991,3.330334663,0.330399841,8.719682693,-0.126836136,-0.004529862,-0.060220521,,,,,,
2023-04-21 20:31:10.347991,3.349488258,0.349553436,8.705317497,-0.128168449,-0.0063951,-0.061552834,,,,,,
2023-04-21 20:31:10.347991,3.373430252,0.37349546,8.681375504,-0.130833074,-0.009059724,-0.064217456,,,,,,
2023-04-21 20:31:10.347991,3.390189648,0.407014281,8.65743351,-0.133764163,-0.012523737,-0.066882081,,,,,,
2023-04-21 20:31:10.347991,3.397372246,0.430956304,8.638279915,-0.135895863,-0.014655436,-0.068480857,,,,,,
2023-04-21 20:31:10.347991,3.406949043,0.474051923,8.616731644,-0.139626339,-0.017852986,-0.07087902,,,,,,
2023-04-21 20:31:10.347991,3.416525841,0.512359142,8.585607529,-0.14388974,-0.021050537,-0.07301072,,,,,,
2023-04-21 20:31:10.347991,3.426102638,0.536301196,8.566453934,-0.146820813,-0.023448698,-0.074343033,,,,,,
2023-04-21 20:31:10.347991,3.442862034,0.572214186,8.540117264,-0.152150065,-0.02691271,-0.076474734,,,,,,
2023-04-21 20:31:10.347991,3.45722723,0.610521436,8.518569946,-0.157479316,-0.03011026,-0.078606427,,,,,,
2023-04-21 20:31:10.347991,3.471592426,0.641646028,8.499416351,-0.163607955,-0.033307809,-0.080471672,,,,,,
2023-04-21 20:31:10.347991,3.478775024,0.663193882,8.482656479,-0.167871356,-0.03543951,-0.08207044,,,,,,
2023-04-21 20:31:10.347991,3.488351822,0.689530075,8.461109161,-0.174799383,-0.038104136,-0.083935678,,,,,,
2023-04-21 20:31:10.347991,,,,,,,-3.076549292,0.062249243,9.945513725,0.103920363,0.010658499,-0.016254211
2023-04-21 20:31:10.347991,,,,,,,-3.076549292,0.062249243,9.9526968,0.104186833,0.010658499,-0.016520673
2023-04-21 20:31:10.347991,,,,,,,-3.076549292,0.062249243,9.950302124,0.104186833,0.011191424,-0.016520673
2023-04-21 20:31:10.347991,,,,,,,-3.076549292,0.062249243,9.9526968,0.104453288,0.011457887,-0.016520673
2023-04-21 20:31:10.347991,,,,,,,-3.076549292,0.064643443,9.947908401,0.104453288,0.011724349,-0.016520673
2023-04-21 20:31:10.347991,,,,,,,-3.076549292,0.064643443,9.943120003,0.104453288,0.011990812,-0.016520673
2023-04-21 20:31:10.347991,,,,,,,-3.074155092,0.067037649,9.935936928,0.103920363,0.012257273,-0.016254211
2023-04-21 20:31:10.347991,,,,,,,-3.074155092,0.067037649,9.935936928,0.103653908,0.012257273,-0.016520673
2023-04-21 20:31:10.347991,,,,,,,-3.074155092,0.069431849,9.928754807,0.103120975,0.012257273,-0.016520673
2023-04-21 20:31:10.347991,,,,,,,-3.076549292,0.067037649,9.928754807,0.10285452,0.012523737,-0.016520673
2023-04-21 20:31:10.347991,,,,,,,-3.078943491,0.059855044,9.931148529,0.102321595,0.012790199,-0.016787136
2023-04-21 20:31:10.347991,,,,,,,-3.08373189,0.055066638,9.931148529,0.102055125,0.012790199,-0.017053599
2023-04-21 20:31:10.347991,,,,,,,-3.088520288,0.050278235,9.931148529,0.10178867,0.012790199,-0.017053599
2023-04-21 20:31:10.347991,,,,,,,-3.088520288,0.047884032,9.928754807,0.10178867,0.012790199,-0.017053599
2023-04-21 20:31:10.347991,,,,,,,-3.088520288,0.04309563,9.92636013,0.10178867,0.012790199,-0.017053599
2023-04-21 20:31:10.417950,2.734178305,-0.833182216,9.425971985,-0.446324646,0.004529862,-0.045831546,,,,,,
2023-04-21 20:31:10.417950,2.695871115,-0.921767652,9.500192642,-0.439130157,0.008526799,-0.043433387,,,,,,
2023-04-21 20:31:10.417950,2.671929121,-0.979228497,9.550470352,-0.433267981,0.011191424,-0.042101074,,,,,,
2023-04-21 20:31:10.417950,2.63601613,-1.067813993,9.63666153,-0.423408896,0.014655436,-0.03996937,,,,,,
2023-04-21 20:31:10.417950,2.602497339,-1.149216771,9.720458984,-0.411684513,0.017586524,-0.038104136,,,,,,
2023-04-21 20:31:10.417950,2.578555346,-1.197100878,9.770736694,-0.402891248,0.019185297,-0.037038282,,,,,,
2023-04-21 20:31:10.417950,2.545036316,-1.268926859,9.835380554,-0.3885023,0.020784073,-0.035173047,,,,,,
2023-04-21 20:31:10.417950,2.513911724,-1.33835876,9.900024414,-0.372514546,0.02158346,-0.033574272,,,,,,
2023-04-21 20:31:10.417950,2.497152328,-1.379060149,9.940725327,-0.361589581,0.022116385,-0.032508422,,,,,,
2023-04-21 20:31:10.417950,2.468421936,-1.431732655,9.993397713,-0.344003052,0.021849923,-0.031176111,,,,,,
2023-04-21 20:31:10.417950,2.444479942,-1.474828243,10.0412817,-0.325350702,0.020251149,-0.029843798,,,,,,
2023-04-21 20:31:10.417950,2.434903145,-1.496376038,10.07001209,-0.312560499,0.018918836,-0.02904441,,,,,,
2023-04-21 20:31:10.417950,2.430114746,-1.510741234,10.10113716,-0.293375194,0.016254211,-0.028245023,,,,,,
2023-04-21 20:31:10.417950,2.432508945,-1.508347034,10.11789608,-0.273390502,0.012523737,-0.027445635,,,,,,
2023-04-21 20:31:10.417950,2.439691544,-1.496376038,10.11789608,-0.260067374,0.009859112,-0.02691271,,,,,,
2023-04-21 20:31:10.417950,,,,,,,-3.112462282,0.009576807,9.979032516,0.103120975,0.012523737,-0.016787136
2023-04-21 20:31:10.417950,,,,,,,-3.110068083,0.011971008,9.983820915,0.103387438,0.012523737,-0.016520673
2023-04-21 20:31:10.417950,,,,,,,-3.107673883,0.01436521,9.983820915,0.103653908,0.012523737,-0.016787136
2023-04-21 20:31:10.417950,,,,,,,-3.102885485,0.016759412,9.983820915,0.103653908,0.011990812,-0.016787136
2023-04-21 20:31:10.417950,,,,,,,-3.105279684,0.016759412,9.981427193,0.103653908,0.011990812,-0.016787136
2023-04-21 20:31:10.417950,,,,,,,-3.102885485,0.019153614,9.981427193,0.103920363,0.011724349,-0.016787136
2023-04-21 20:31:10.417950,,,,,,,-3.098097086,0.021547815,9.976638794,0.104186833,0.011457887,-0.016787136
2023-04-21 20:31:10.417950,,,,,,,-3.098097086,0.026336219,9.976638794,0.103920363,0.011457887,-0.016787136
2023-04-21 20:31:10.417950,,,,,,,-3.098097086,0.026336219,9.983820915,0.104186833,0.011457887,-0.016787136
2023-04-21 20:31:10.417950,,,,,,,-3.095702887,0.02873042,9.983820915,0.104453288,0.011191424,-0.016787136
2023-04-21 20:31:10.417950,,,,,,,-3.095702887,0.02873042,9.986215591,0.104453288,0.011191424,-0.016520673
2023-04-21 20:31:10.417950,,,,,,,-3.095702887,0.031124622,9.981427193,0.104719758,0.011191424,-0.016254211
2023-04-21 20:31:10.417950,,,,,,,-3.095702887,0.031124622,9.983820915,0.104986221,0.011457887,-0.016254211
2023-04-21 20:31:10.417950,,,,,,,-3.098097086,0.02873042,9.981427193,0.104986221,0.011457887,-0.016254211
2023-04-21 20:31:10.417950,,,,,,,-3.100491285,0.026336219,9.979032516,0.104986221,0.011191424,-0.016254211
2023-04-21 20:31:10.490909,3.193865061,-0.138863698,8.829815865,-0.099923424,0.024248086,-0.010924961,,,,,,
2023-04-21 20:31:10.490909,3.203441858,-0.143652096,8.801085472,-0.101522207,0.023182238,-0.010658499,,,,,,
2023-04-21 20:31:10.490909,3.208230257,-0.14844051,8.7843256,-0.10258805,0.022649311,-0.010924961,,,,,,
2023-04-21 20:31:10.490909,3.205836058,-0.155623108,8.767566681,-0.104453288,0.022382848,-0.010658499,,,,,,
2023-04-21 20:31:10.490909,3.19625926,-0.165199921,8.765172005,-0.106851459,0.023182238,-0.010658499,,,,,,
2023-04-21 20:31:10.490909,3.189076662,-0.172382519,8.769960403,-0.108450226,0.023981623,-0.010658499,,,,,,
2023-04-21 20:31:10.490909,3.174711466,-0.189141929,8.791508675,-0.110049009,0.024781011,-0.010658499,,,,,,
2023-04-21 20:31:10.490909,3.16034627,-0.20590134,8.820239067,-0.111381322,0.024514547,-0.010658499,,,,,,
2023-04-21 20:31:10.490909,3.148375273,-0.220266551,8.841787338,-0.112180702,0.024248086,-0.010658499,,,,,,
2023-04-21 20:31:10.490909,3.126827478,-0.239420176,8.875306129,-0.112713635,0.023448698,-0.010658499,,,,,,
2023-04-21 20:31:10.490909,3.110068083,-0.258573771,8.904036522,-0.112713635,0.022382848,-0.010658499,,,,,,
2023-04-21 20:31:10.490909,3.100491285,-0.268150598,8.923190117,-0.112713635,0.021316998,-0.010658499,,,,,,
2023-04-21 20:31:10.490909,3.093308687,-0.282515794,8.942343712,-0.112180702,0.019718224,-0.010658499,,,,,,
2023-04-21 20:31:10.490909,3.086126089,-0.294486821,8.956708908,-0.111647777,0.017852986,-0.010658499,,,,,,
2023-04-21 20:31:10.490909,3.08133769,-0.299275219,8.963891029,-0.111381322,0.017053599,-0.010924961,,,,,,
2023-04-21 20:31:10.490909,,,,,,,-3.08373189,0.02873042,9.943120003,0.101255737,0.010924961,-0.016787136
2023-04-21 20:31:10.490909,,,,,,,-3.08373189,0.026336219,9.945513725,0.101255737,0.011191424,-0.016787136
2023-04-21 20:31:10.490909,,,,,,,-3.086126089,0.026336219,9.9526968,0.100989282,0.011191424,-0.016787136
2023-04-21 20:31:10.490909,,,,,,,-3.086126089,0.026336219,9.955090523,0.100989282,0.011191424,-0.016787136
2023-04-21 20:31:10.490909,,,,,,,-3.088520288,0.026336219,9.955090523,0.101255737,0.011724349,-0.016787136
2023-04-21 20:31:10.490909,,,,,,,-3.090914488,0.021547815,9.950302124,0.101255737,0.011724349,-0.016520673
2023-04-21 20:31:10.490909,,,,,,,-3.093308687,0.023942016,9.945513725,0.101522207,0.011990812,-0.016787136
2023-04-21 20:31:10.490909,,,,,,,-3.093308687,0.026336219,9.943120003,0.101522207,0.012257273,-0.016787136
2023-04-21 20:31:10.490909,,,,,,,-3.095702887,0.023942016,9.940725327,0.101522207,0.011990812,-0.017053599
2023-04-21 20:31:10.490909,,,,,,,-3.100491285,0.023942016,9.938331604,0.101522207,0.011990812,-0.017053599
2023-04-21 20:31:10.490909,,,,,,,-3.102885485,0.023942016,9.935936928,0.101522207,0.011724349,-0.016787136
2023-04-21 20:31:10.490909,,,,,,,-3.105279684,0.023942016,9.935936928,0.10178867,0.011724349,-0.016787136
2023-04-21 20:31:10.490909,,,,,,,-3.102885485,0.021547815,9.928754807,0.102055125,0.011457887,-0.016787136
2023-04-21 20:31:10.490909,,,,,,,-3.102885485,0.016759412,9.928754807,0.10178867,0.011457887,-0.016787136
2023-04-21 20:31:10.490909,,,,,,,-3.102885485,0.016759412,9.933543205,0.10178867,0.011191424,-0.016787136
2023-04-21 20:31:10.556046,3.193865061,-0.244208574,8.954314232,-0.095393561,0.014388974,-0.009859112,,,,,,
2023-04-21 20:31:10.556046,3.191470861,-0.237025961,8.949525833,-0.096192956,0.014921899,-0.010125575,,,,,,
2023-04-21 20:31:10.556046,3.189076662,-0.232237563,8.944737434,-0.096725874,0.015188362,-0.010125575,,,,,,
2023-04-21 20:31:10.556046,3.184288263,-0.229843363,8.939949036,-0.097525269,0.015454824,-0.010392036,,,,,,
2023-04-21 20:31:10.556046,3.179499865,-0.234631762,8.942343712,-0.098058186,0.015454824,-0.010392036,,,,,,
2023-04-21 20:31:10.556046,3.177105665,-0.237025961,8.942343712,-0.098857582,0.015721286,-0.010658499,,,,,,
2023-04-21 20:31:10.556046,3.172317266,-0.239420176,8.942343712,-0.099923424,0.015721286,-0.010392036,,,,,,
2023-04-21 20:31:10.556046,3.165134668,-0.246602774,8.951920509,-0.100456357,0.015454824,-0.010125575,,,,,,
2023-04-21 20:31:10.556046,3.162740469,-0.248996973,8.951920509,-0.101255737,0.014921899,-0.010125575,,,,,,
2023-04-21 20:31:10.556046,3.162740469,-0.253785372,8.949525833,-0.101522207,0.014921899,-0.010392036,,,,,,
2023-04-21 20:31:10.556046,3.155557871,-0.258573771,8.951920509,-0.102055125,0.014388974,-0.010392036,,,,,,
2023-04-21 20:31:10.556046,3.150769472,-0.268150598,8.956708908,-0.102321595,0.014122511,-0.010658499,,,,,,
2023-04-21 20:31:10.556046,3.148375273,-0.272938997,8.959102631,-0.10258805,0.01385605,-0.010658499,,,,,,
2023-04-21 20:31:10.556046,3.143586874,-0.280121595,8.961497307,-0.10258805,0.013589587,-0.010392036,,,,,,
2023-04-21 20:31:10.556046,3.141192675,-0.287304193,8.966285706,-0.10285452,0.013323124,-0.010392036,,,,,,
2023-04-21 20:31:10.556046,,,,,,,-3.112462282,0.031124622,9.933543205,0.103387438,0.009859112,-0.016254211
2023-04-21 20:31:10.556046,,,,,,,-3.110068083,0.033518825,9.935936928,0.103653908,0.010125575,-0.016254211
2023-04-21 20:31:10.556046,,,,,,,-3.107673883,0.035913024,9.938331604,0.103653908,0.010125575,-0.016254211
2023-04-21 20:31:10.556046,,,,,,,-3.107673883,0.033518825,9.938331604,0.103653908,0.010392036,-0.016254211
2023-04-21 20:31:10.556046,,,,,,,-3.098097086,0.033518825,9.928754807,0.103653908,0.010392036,-0.016254211
2023-04-21 20:31:10.556046,,,,,,,-3.098097086,0.035913024,9.92636013,0.103653908,0.010392036,-0.016254211
2023-04-21 20:31:10.556046,,,,,,,-3.095702887,0.038307227,9.931148529,0.103653908,0.010658499,-0.016254211
2023-04-21 20:31:10.556046,,,,,,,-3.095702887,0.038307227,9.931148529,0.103653908,0.010924961,-0.016254211
2023-04-21 20:31:10.556046,,,,,,,-3.093308687,0.035913024,9.931148529,0.103920363,0.011191424,-0.016254211
2023-04-21 20:31:10.556046,,,,,,,-3.090914488,0.033518825,9.92636013,0.104186833,0.011191424,-0.016254211
2023-04-21 20:31:10.556046,,,,,,,-3.088520288,0.033518825,9.92636013,0.104186833,0.011191424,-0.016254211
2023-04-21 20:31:10.556046,,,,,,,-3.090914488,0.033518825,9.931148529,0.104453288,0.011191424,-0.016254211
2023-04-21 20:31:10.556046,,,,,,,-3.090914488,0.031124622,9.92636013,0.104453288,0.011457887,-0.016254211
2023-04-21 20:31:10.556046,,,,,,,-3.093308687,0.02873042,9.92636013,0.104186833,0.011457887,-0.016254211
2023-04-21 20:31:10.556046,,,,,,,-3.095702887,0.02873042,9.923966408,0.104453288,0.011457887,-0.016254211
2023-04-21 20:31:10.628006,3.186682463,-0.292092621,8.923190117,-0.10285452,0.016520673,-0.012523737,,,,,,
2023-04-21 20:31:10.628006,3.189076662,-0.292092621,8.923190117,-0.10285452,0.016787136,-0.012523737,,,,,,
2023-04-21 20:31:10.628006,3.186682463,-0.294486821,8.923190117,-0.10258805,0.016787136,-0.012790199,,,,,,
2023-04-21 20:31:10.628006,3.189076662,-0.292092621,8.930372238,-0.102321595,0.017053599,-0.012523737,,,,,,
2023-04-21 20:31:10.628006,3.186682463,-0.289698392,8.935160637,-0.10178867,0.017053599,-0.012523737,,,,,,
2023-04-21 20:31:10.628006,3.184288263,-0.289698392,8.935160637,-0.101255737,0.017053599,-0.012523737,,,,,,
2023-04-21 20:31:10.628006,3.191470861,-0.284909993,8.944737434,-0.100989282,0.017053599,-0.012523737,,,,,,
2023-04-21 20:31:10.628006,3.193865061,-0.280121595,8.949525833,-0.100456357,0.017320061,-0.012523737,,,,,,
2023-04-21 20:31:10.628006,3.193865061,-0.277727395,8.954314232,-0.100456357,0.017320061,-0.012523737,,,,,,
2023-04-21 20:31:10.628006,3.191470861,-0.270544797,8.959102631,-0.100722812,0.017053599,-0.012523737,,,,,,
2023-04-21 20:31:10.628006,3.189076662,-0.263362199,8.961497307,-0.101255737,0.017320061,-0.012523737,,,,,,
2023-04-21 20:31:10.628006,3.186682463,-0.260968,8.963891029,-0.101255737,0.017053599,-0.012257273,,,,,,
2023-04-21 20:31:10.628006,3.186682463,-0.258573771,8.961497307,-0.101522207,0.016520673,-0.011990812,,,,,,
2023-04-21 20:31:10.628006,3.191470861,-0.258573771,8.956708908,-0.10178867,0.016254211,-0.011990812,,,,,,
2023-04-21 20:31:10.628006,3.19625926,-0.256179571,8.954314232,-0.102055125,0.016254211,-0.011724349,,,,,,
2023-04-21 20:31:10.628006,,,,,,,-3.102885485,0.04309563,9.933543205,0.106052071,0.010924961,-0.016787136
2023-04-21 20:31:10.628006,,,,,,,-3.105279684,0.04070143,9.938331604,0.105785601,0.010658499,-0.016787136
2023-04-21 20:31:10.628006,,,,,,,-3.107673883,0.04070143,9.940725327,0.105785601,0.010658499,-0.016787136
2023-04-21 20:31:10.628006,,,,,,,-3.107673883,0.04070143,9.945513725,0.105519146,0.010392036,-0.016520673
2023-04-21 20:31:10.628006,,,,,,,-3.107673883,0.04309563,9.945513725,0.105519146,0.010392036,-0.016520673
2023-04-21 20:31:10.628006,,,,,,,-3.107673883,0.04309563,9.943120003,0.105519146,0.010125575,-0.016520673
2023-04-21 20:31:10.628006,,,,,,,-3.105279684,0.047884032,9.947908401,0.105519146,0.010125575,-0.016520673
2023-04-21 20:31:10.628006,,,,,,,-3.100491285,0.047884032,9.945513725,0.105252676,0.010392036,-0.016520673
2023-04-21 20:31:10.628006,,,,,,,-3.100491285,0.047884032,9.945513725,0.104986221,0.010392036,-0.016520673
2023-04-21 20:31:10.628006,,,,,,,-3.102885485,0.045489833,9.947908401,0.104453288,0.010658499,-0.016520673
2023-04-21 20:31:10.628006,,,,,,,-3.100491285,0.045489833,9.9526968,0.104186833,0.010658499,-0.016787136
2023-04-21 20:31:10.628006,,,,,,,-3.102885485,0.045489833,9.9526968,0.103920363,0.010658499,-0.016787136
2023-04-21 20:31:10.628006,,,,,,,-3.105279684,0.045489833,9.947908401,0.103653908,0.010658499,-0.016787136
2023-04-21 20:31:10.628006,,,,,,,-3.107673883,0.038307227,9.950302124,0.103387438,0.010658499,-0.016787136
2023-04-21 20:31:10.628006,,,,,,,-3.102885485,0.035913024,9.950302124,0.103653908,0.010658499,-0.016520673
2023-04-21 20:31:10.701963,3.19625926,-0.289698392,8.978256226,-0.10285452,0.018918836,-0.012523737,,,,,,
2023-04-21 20:31:10.701963,3.193865061,-0.292092621,8.980650902,-0.10258805,0.018918836,-0.012523737,,,,,,
2023-04-21 20:31:10.701963,3.193865061,-0.294486821,8.980650902,-0.102321595,0.018918836,-0.012523737,,,,,,
2023-04-21 20:31:10.701963,3.191470861,-0.294486821,8.983044624,-0.102055125,0.018652374,-0.012523737,,,,,,
2023-04-21 20:31:10.701963,3.191470861,-0.292092621,8.980650902,-0.10178867,0.018652374,-0.012257273,,,,,,
2023-04-21 20:31:10.701963,3.191470861,-0.292092621,8.983044624,-0.10178867,0.018918836,-0.012257273,,,,,,
2023-04-21 20:31:10.701963,3.191470861,-0.292092621,8.987833023,-0.101522207,0.019185297,-0.012257273,,,,,,
2023-04-21 20:31:10.701963,3.191470861,-0.287304193,8.987833023,-0.101255737,0.019185297,-0.012257273,,,,,,
2023-04-21 20:31:10.701963,3.193865061,-0.287304193,8.987833023,-0.101255737,0.019451762,-0.012257273,,,,,,
2023-04-21 20:31:10.701963,3.193865061,-0.282515794,8.990227699,-0.100989282,0.019451762,-0.012257273,,,,,,
2023-04-21 20:31:10.701963,3.193865061,-0.280121595,8.992621422,-0.100989282,0.019718224,-0.011990812,,,,,,
2023-04-21 20:31:10.701963,3.193865061,-0.277727395,8.995016098,-0.100989282,0.019718224,-0.011990812,,,,,,
2023-04-21 20:31:10.701963,3.189076662,-0.275333196,8.995016098,-0.100989282,0.019984685,-0.011990812,,,,,,
2023-04-21 20:31:10.701963,3.189076662,-0.270544797,8.987833023,-0.100989282,0.020251149,-0.011990812,,,,,,
2023-04-21 20:31:10.701963,3.189076662,-0.265756398,8.990227699,-0.101255737,0.020784073,-0.011990812,,,,,,
2023-04-21 20:31:10.701963,,,,,,,-3.086126089,0.011971008,9.959878922,0.100456357,0.011457887,-0.016254211
2023-04-21 20:31:10.701963,,,,,,,-3.086126089,0.009576807,9.962273598,0.100989282,0.011191424,-0.016520673
2023-04-21 20:31:10.701963,,,,,,,-3.086126089,0.007182605,9.96466732,0.101255737,0.011191424,-0.016520673
2023-04-21 20:31:10.701963,,,,,,,-3.086126089,0.007182605,9.971850395,0.10178867,0.011191424,-0.016520673
2023-04-21 20:31:10.701963,,,,,,,-3.086126089,0.009576807,9.969455719,0.102055125,0.011191424,-0.016520673
2023-04-21 20:31:10.701963,,,,,,,-3.08373189,0.011971008,9.971850395,0.102321595,0.011191424,-0.016520673
2023-04-21 20:31:10.701963,,,,,,,-3.078943491,0.01436521,9.962273598,0.10285452,0.011724349,-0.016520673
2023-04-21 20:31:10.701963,,,,,,,-3.074155092,0.016759412,9.9526968,0.103120975,0.011990812,-0.016787136
2023-04-21 20:31:10.701963,,,,,,,-3.074155092,0.016759412,9.947908401,0.103387438,0.012257273,-0.016787136
2023-04-21 20:31:10.701963,,,,,,,-3.076549292,0.019153614,9.947908401,0.103653908,0.012790199,-0.016787136
2023-04-21 20:31:10.701963,,,,,,,-3.076549292,0.016759412,9.943120003,0.103920363,0.012790199,-0.017053599
2023-04-21 20:31:10.701963,,,,,,,-3.08133769,0.016759412,9.943120003,0.103920363,0.013056661,-0.017053599
2023-04-21 20:31:10.701963,,,,,,,-3.086126089,0.016759412,9.940725327,0.104186833,0.013323124,-0.017053599
2023-04-21 20:31:10.701963,,,,,,,-3.086126089,0.016759412,9.938331604,0.104453288,0.013323124,-0.017053599
2023-04-21 20:31:10.701963,,,,,,,-3.093308687,0.019153614,9.938331604,0.104719758,0.013589587,-0.017053599
2023-04-21 20:31:10.776920,3.174711466,-0.301669419,8.966285706,-0.103653908,0.02051761,-0.011457887,,,,,,
2023-04-21 20:31:10.776920,3.172317266,-0.299275219,8.968679428,-0.103387438,0.02051761,-0.011191424,,,,,,
2023-04-21 20:31:10.776920,3.174711466,-0.29688102,8.968679428,-0.10285452,0.02051761,-0.011191424,,,,,,
2023-04-21 20:31:10.776920,3.172317266,-0.294486821,8.975862503,-0.102321595,0.02051761,-0.011457887,,,,,,
2023-04-21 20:31:10.776920,3.172317266,-0.289698392,8.975862503,-0.101522207,0.020251149,-0.011724349,,,,,,
2023-04-21 20:31:10.776920,3.172317266,-0.287304193,8.973467827,-0.101255737,0.019984685,-0.011724349,,,,,,
2023-04-21 20:31:10.776920,3.167528868,-0.280121595,8.966285706,-0.100456357,0.019984685,-0.011724349,,,,,,
2023-04-21 20:31:10.776920,3.169923067,-0.277727395,8.961497307,-0.100189894,0.019984685,-0.011724349,,,,,,
2023-04-21 20:31:10.776920,3.169923067,-0.275333196,8.956708908,-0.100189894,0.020251149,-0.011724349,,,,,,
2023-04-21 20:31:10.776920,3.169923067,-0.270544797,8.956708908,-0.100189894,0.019984685,-0.011724349,,,,,,
2023-04-21 20:31:10.776920,3.169923067,-0.265756398,8.954314232,-0.100456357,0.019718224,-0.011724349,,,,,,
2023-04-21 20:31:10.776920,3.169923067,-0.265756398,8.951920509,-0.100722812,0.019451762,-0.011724349,,,,,,
2023-04-21 20:31:10.776920,3.172317266,-0.260968,8.956708908,-0.100989282,0.019185297,-0.011724349,,,,,,
2023-04-21 20:31:10.776920,3.174711466,-0.263362199,8.954314232,-0.101255737,0.018652374,-0.011724349,,,,,,
2023-04-21 20:31:10.776920,3.174711466,-0.260968,8.956708908,-0.101255737,0.018385911,-0.011990812,,,,,,
2023-04-21 20:31:10.776920,,,,,,,-3.117250681,0.02873042,9.933543205,0.10258805,0.010658499,-0.017053599
2023-04-21 20:31:10.776920,,,,,,,-3.114856482,0.026336219,9.933543205,0.10258805,0.010392036,-0.017053599
2023-04-21 20:31:10.776920,,,,,,,-3.110068083,0.026336219,9.933543205,0.10258805,0.010125575,-0.016787136
2023-04-21 20:31:10.776920,,,,,,,-3.112462282,0.026336219,9.933543205,0.10258805,0.009859112,-0.016787136
2023-04-21 20:31:10.776920,,,,,,,-3.112462282,0.026336219,9.933543205,0.10258805,0.009592649,-0.016787136
2023-04-21 20:31:10.776920,,,,,,,-3.112462282,0.026336219,9.928754807,0.10285452,0.009592649,-0.016787136
2023-04-21 20:31:10.776920,,,,,,,-3.105279684,0.026336219,9.928754807,0.10285452,0.009592649,-0.016787136
2023-04-21 20:31:10.776920,,,,,,,-3.105279684,0.023942016,9.928754807,0.10258805,0.009592649,-0.016787136
2023-04-21 20:31:10.776920,,,,,,,-3.105279684,0.021547815,9.928754807,0.10285452,0.009326187,-0.016787136
2023-04-21 20:31:10.776920,,,,,,,-3.105279684,0.019153614,9.92636013,0.10285452,0.009326187,-0.016787136
2023-04-21 20:31:10.776920,,,,,,,-3.102885485,0.016759412,9.931148529,0.10285452,0.009592649,-0.016787136
2023-04-21 20:31:10.776920,,,,,,,-3.102885485,0.019153614,9.935936928,0.103120975,0.009592649,-0.016520673
2023-04-21 20:31:10.776920,,,,,,,-3.102885485,0.019153614,9.940725327,0.103120975,0.009592649,-0.016520673
2023-04-21 20:31:10.776920,,,,,,,-3.105279684,0.016759412,9.938331604,0.103387438,0.009592649,-0.016787136
2023-04-21 20:31:10.776920,,,,,,,-3.100491285,0.016759412,9.940725327,0.103387438,0.009859112,-0.016787136
2023-04-21 20:31:10.840886,3.19865346,-0.229843363,8.935160637,-0.099390499,0.018652374,-0.011990812,,,,,,
2023-04-21 20:31:10.840886,3.203441858,-0.225054964,8.930372238,-0.099656969,0.018652374,-0.011990812,,,,,,
2023-04-21 20:31:10.840886,3.203441858,-0.222660765,8.923190117,-0.099923424,0.018652374,-0.011990812,,,,,,
2023-04-21 20:31:10.840886,3.208230257,-0.220266551,8.923190117,-0.100189894,0.018918836,-0.011990812,,,,,,
2023-04-21 20:31:10.840886,3.213018656,-0.217872351,8.923190117,-0.100456357,0.018918836,-0.012257273,,,,,,
2023-04-21 20:31:10.840886,3.215412855,-0.220266551,8.923190117,-0.100722812,0.018918836,-0.012257273,,,,,,
2023-04-21 20:31:10.840886,3.215412855,-0.215478152,8.918401718,-0.101522207,0.018918836,-0.011990812,,,,,,
2023-04-21 20:31:10.840886,3.215412855,-0.210689753,8.913613319,-0.102055125,0.019185297,-0.012257273,,,,,,
2023-04-21 20:31:10.840886,3.217807055,-0.210689753,8.911218643,-0.10258805,0.019185297,-0.012257273,,,,,,
2023-04-21 20:31:10.840886,3.217807055,-0.210689753,8.908824921,-0.103387438,0.019185297,-0.012257273,,,,,,
2023-04-21 20:31:10.840886,3.220201254,-0.208295554,8.911218643,-0.103920363,0.019185297,-0.011990812,,,,,,
2023-04-21 20:31:10.840886,3.220201254,-0.210689753,8.913613319,-0.104453288,0.019185297,-0.011990812,,,,,,
2023-04-21 20:31:10.840886,3.217807055,-0.213083953,8.920795441,-0.104986221,0.019185297,-0.011990812,,,,,,
2023-04-21 20:31:10.840886,3.213018656,-0.215478152,8.925583839,-0.105785601,0.018918836,-0.011990812,,,,,,
2023-04-21 20:31:10.840886,3.210624456,-0.220266551,8.923190117,-0.106052071,0.018918836,-0.011990812,,,,,,
2023-04-21 20:31:10.840886,,,,,,,-3.124433279,0.011971008,9.938331604,0.101255737,0.011724349,-0.016520673
2023-04-21 20:31:10.840886,,,,,,,-3.124433279,0.009576807,9.933543205,0.101255737,0.011457887,-0.016254211
2023-04-21 20:31:10.840886,,,,,,,-3.124433279,0.004788403,9.940725327,0.101522207,0.011191424,-0.016254211
2023-04-21 20:31:10.840886,,,,,,,-3.124433279,0.007182605,9.943120003,0.101522207,0.011191424,-0.016254211
2023-04-21 20:31:10.840886,,,,,,,-3.124433279,0.009576807,9.943120003,0.10178867,0.010924961,-0.016254211
2023-04-21 20:31:10.840886,,,,,,,-3.124433279,0.007182605,9.943120003,0.10178867,0.011191424,-0.015987748
2023-04-21 20:31:10.840886,,,,,,,-3.124433279,0.004788403,9.940725327,0.102055125,0.010924961,-0.015987748
2023-04-21 20:31:10.840886,,,,,,,-3.12203908,0.004788403,9.940725327,0.102321595,0.010658499,-0.015987748
2023-04-21 20:31:10.840886,,,,,,,-3.12203908,0.002394202,9.940725327,0.102321595,0.010658499,-0.015987748
2023-04-21 20:31:10.840886,,,,,,,-3.12203908,0.004788403,9.945513725,0.102321595,0.010392036,-0.015987748
2023-04-21 20:31:10.840886,,,,,,,-3.12203908,0.004788403,9.947908401,0.102321595,0.010125575,-0.015987748
2023-04-21 20:31:10.840886,,,,,,,-3.124433279,0.004788403,9.947908401,0.10258805,0.010125575,-0.016254211
2023-04-21 20:31:10.840886,,,,,,,-3.124433279,0.009576807,9.945513725,0.10258805,0.009859112,-0.015987748
2023-04-21 20:31:10.840886,,,,,,,-3.12203908,0.011971008,9.945513725,0.10258805,0.009592649,-0.015987748
2023-04-21 20:31:10.840886,,,,,,,-3.117250681,0.01436521,9.940725327,0.102321595,0.009859112,-0.015987748
2023-04-21 20:31:10.904845,3.184288263,-0.248996973,8.951920509,-0.102055125,0.021050537,-0.010658499,,,,,,
2023-04-21 20:31:10.904845,3.184288263,-0.246602774,8.951920509,-0.10178867,0.021050537,-0.010392036,,,,,,
2023-04-21 20:31:10.904845,3.181894064,-0.244208574,8.951920509,-0.101522207,0.021050537,-0.010658499,,,,,,
2023-04-21 20:31:10.904845,3.186682463,-0.244208574,8.956708908,-0.101255737,0.021316998,-0.010392036,,,,,,
2023-04-21 20:31:10.904845,3.181894064,-0.239420176,8.961497307,-0.100989282,0.021316998,-0.010658499,,,,,,
2023-04-21 20:31:10.904845,3.177105665,-0.237025961,8.966285706,-0.101255737,0.021050537,-0.010392036,,,,,,
2023-04-21 20:31:10.904845,3.174711466,-0.237025961,8.968679428,-0.101255737,0.021050537,-0.010658499,,,,,,
2023-04-21 20:31:10.904845,3.172317266,-0.239420176,8.971074104,-0.101255737,0.020784073,-0.010658499,,,,,,
2023-04-21 20:31:10.904845,3.174711466,-0.241814375,8.971074104,-0.100989282,0.020784073,-0.010658499,,,,,,
2023-04-21 20:31:10.904845,3.177105665,-0.239420176,8.971074104,-0.100989282,0.02051761,-0.010658499,,,,,,
2023-04-21 20:31:10.904845,3.179499865,-0.239420176,8.968679428,-0.100989282,0.019984685,-0.010658499,,,,,,
2023-04-21 20:31:10.904845,3.179499865,-0.241814375,8.963891029,-0.101255737,0.019984685,-0.010658499,,,,,,
2023-04-21 20:31:10.904845,3.179499865,-0.244208574,8.959102631,-0.100989282,0.019451762,-0.010658499,,,,,,
2023-04-21 20:31:10.904845,3.181894064,-0.239420176,8.959102631,-0.100989282,0.019185297,-0.010924961,,,,,,
2023-04-21 20:31:10.904845,3.181894064,-0.241814375,8.959102631,-0.100989282,0.018918836,-0.010924961,,,,,,
2023-04-21 20:31:10.904845,,,,,,,-3.110068083,0.002394202,9.959878922,0.104719758,0.009059724,-0.017053599
2023-04-21 20:31:10.904845,,,,,,,-3.112462282,0.0,9.955090523,0.104986221,0.009059724,-0.017053599
2023-04-21 20:31:10.904845,,,,,,,-3.114856482,0.002394202,9.9526968,0.105252676,0.009059724,-0.016787136
2023-04-21 20:31:10.904845,,,,,,,-3.12203908,0.002394202,9.955090523,0.105252676,0.009059724,-0.016787136
2023-04-21 20:31:10.904845,,,,,,,-3.12203908,0.002394202,9.9526968,0.105519146,0.009059724,-0.016787136
2023-04-21 20:31:10.904845,,,,,,,-3.11964488,0.004788403,9.945513725,0.105519146,0.009059724,-0.016787136
2023-04-21 20:31:10.904845,,,,,,,-3.11964488,0.004788403,9.945513725,0.105785601,0.009059724,-0.016787136
2023-04-21 20:31:10.904845,,,,,,,-3.117250681,0.004788403,9.940725327,0.106052071,0.008793262,-0.016787136
2023-04-21 20:31:10.904845,,,,,,,-3.114856482,0.004788403,9.938331604,0.106052071,0.008793262,-0.016787136
2023-04-21 20:31:10.904845,,,,,,,-3.114856482,0.004788403,9.938331604,0.106052071,0.008793262,-0.016787136
2023-04-21 20:31:10.904845,,,,,,,-3.112462282,0.007182605,9.931148529,0.106052071,0.008526799,-0.016787136
2023-04-21 20:31:10.904845,,,,,,,-3.110068083,0.009576807,9.92636013,0.106318533,0.008526799,-0.016787136
2023-04-21 20:31:10.904845,,,,,,,-3.112462282,0.009576807,9.92636013,0.106318533,0.008526799,-0.016787136
2023-04-21 20:31:10.904845,,,,,,,-3.110068083,0.007182605,9.92636013,0.106318533,0.008526799,-0.016520673
2023-04-21 20:31:10.904845,,,,,,,-3.107673883,0.007182605,9.928754807,0.106318533,0.008526799,-0.016520673
2023-04-21 20:31:10.972806,3.208230257,-0.251391172,8.963891029,-0.100989282,0.015721286,-0.012523737,,,,,,
2023-04-21 20:31:10.972806,3.210624456,-0.251391172,8.959102631,-0.100722812,0.015987748,-0.012523737,,,,,,
2023-04-21 20:31:10.972806,3.213018656,-0.253785372,8.956708908,-0.100722812,0.015987748,-0.012523737,,,,,,
2023-04-21 20:31:10.972806,3.215412855,-0.246602774,8.956708908,-0.100722812,0.015721286,-0.012257273,,,,,,
2023-04-21 20:31:10.972806,3.215412855,-0.244208574,8.954314232,-0.100989282,0.015721286,-0.012257273,,,,,,
2023-04-21 20:31:10.972806,3.210624456,-0.232237563,8.959102631,-0.100456357,0.016254211,-0.012257273,,,,,,
2023-04-21 20:31:10.972806,3.213018656,-0.229843363,8.959102631,-0.100189894,0.016254211,-0.011990812,,,,,,
2023-04-21 20:31:10.972806,3.215412855,-0.227449164,8.956708908,-0.100189894,0.016254211,-0.011990812,,,,,,
2023-04-21 20:31:10.972806,3.217807055,-0.225054964,8.954314232,-0.100189894,0.016254211,-0.011990812,,,,,,
2023-04-21 20:31:10.972806,3.220201254,-0.225054964,8.949525833,-0.100189894,0.016254211,-0.011990812,,,,,,
2023-04-21 20:31:10.972806,3.222595453,-0.225054964,8.942343712,-0.100189894,0.015987748,-0.011990812,,,,,,
2023-04-21 20:31:10.972806,3.224989653,-0.225054964,8.937555313,-0.100456357,0.016254211,-0.011990812,,,,,,
2023-04-21 20:31:10.972806,3.227383852,-0.225054964,8.930372238,-0.100722812,0.015987748,-0.012257273,,,,,,
2023-04-21 20:31:10.972806,3.232172251,-0.222660765,8.918401718,-0.101255737,0.015987748,-0.012257273,,,,,,
2023-04-21 20:31:10.972806,3.23456645,-0.220266551,8.911218643,-0.101255737,0.016254211,-0.011990812,,,,,,
2023-04-21 20:31:10.972806,,,,,,,-3.150769472,-0.01436521,9.957485199,0.100456357,0.007993874,-0.015987748
2023-04-21 20:31:10.972806,,,,,,,-3.148375273,-0.01436521,9.945513725,0.101255737,0.007993874,-0.015987748
2023-04-21 20:31:10.972806,,,,,,,-3.150769472,-0.016759412,9.940725327,0.10178867,0.007727412,-0.015987748
2023-04-21 20:31:10.972806,,,,,,,-3.145981073,-0.01436521,9.933543205,0.10258805,0.007460949,-0.015987748
2023-04-21 20:31:10.972806,,,,,,,-3.141192675,-0.009576807,9.921571732,0.103387438,0.007194487,-0.015987748
2023-04-21 20:31:10.972806,,,,,,,-3.138798475,-0.007182605,9.91438961,0.103920363,0.007194487,-0.015721286
2023-04-21 20:31:10.972806,,,,,,,-3.134010077,-0.004788403,9.900024414,0.104186833,0.007460949,-0.015987748
2023-04-21 20:31:10.972806,,,,,,,-3.134010077,0.0,9.88805294,0.104453288,0.007727412,-0.015987748
2023-04-21 20:31:10.972806,,,,,,,-3.131615877,0.002394202,9.880870819,0.104453288,0.007993874,-0.015987748
2023-04-21 20:31:10.972806,,,,,,,-3.129221678,0.004788403,9.878476143,0.104186833,0.007993874,-0.015721286
2023-04-21 20:31:10.972806,,,,,,,-3.131615877,0.007182605,9.890447617,0.104186833,0.007727412,-0.015987748
2023-04-21 20:31:10.972806,,,,,,,-3.131615877,0.007182605,9.897629738,0.103920363,0.007727412,-0.015987748
2023-04-21 20:31:10.972806,,,,,,,-3.134010077,0.007182605,9.911994934,0.103920363,0.007460949,-0.015721286
2023-04-21 20:31:10.972806,,,,,,,-3.134010077,0.002394202,9.916783333,0.103920363,0.007460949,-0.015721286
2023-04-21 20:31:10.972806,,,,,,,-3.131615877,0.002394202,9.919178009,0.104186833,0.007460949,-0.015721286
2023-04-21 20:31:11.037769,3.239354849,-0.244208574,8.966285706,-0.103120975,0.019185297,-0.011990812,,,,,,
2023-04-21 20:31:11.037769,3.239354849,-0.244208574,8.966285706,-0.10285452,0.019451762,-0.011990812,,,,,,
2023-04-21 20:31:11.037769,3.239354849,-0.244208574,8.971074104,-0.10285452,0.019718224,-0.011724349,,,,,,
2023-04-21 20:31:11.037769,3.236960649,-0.241814375,8.971074104,-0.10285452,0.020251149,-0.011457887,,,,,,
2023-04-21 20:31:11.037769,3.236960649,-0.239420176,8.973467827,-0.10285452,0.02051761,-0.011457887,,,,,,
2023-04-21 20:31:11.037769,3.23456645,-0.234631762,8.973467827,-0.103120975,0.02051761,-0.011191424,,,,,,
2023-04-21 20:31:11.037769,3.232172251,-0.232237563,8.973467827,-0.103387438,0.020251149,-0.011191424,,,,,,
2023-04-21 20:31:11.037769,3.224989653,-0.229843363,8.971074104,-0.103920363,0.020251149,-0.011191424,,,,,,
2023-04-21 20:31:11.037769,3.217807055,-0.229843363,8.959102631,-0.104453288,0.020251149,-0.011191424,,,,,,
2023-04-21 20:31:11.037769,3.215412855,-0.234631762,8.954314232,-0.104986221,0.020784073,-0.011457887,,,,,,
2023-04-21 20:31:11.037769,3.213018656,-0.241814375,8.961497307,-0.105519146,0.020784073,-0.011191424,,,,,,
2023-04-21 20:31:11.037769,3.213018656,-0.248996973,8.966285706,-0.106052071,0.021050537,-0.011191424,,,,,,
2023-04-21 20:31:11.037769,3.205836058,-0.256179571,8.975862503,-0.106052071,0.020784073,-0.011457887,,,,,,
2023-04-21 20:31:11.037769,3.19865346,-0.258573771,8.978256226,-0.106052071,0.020251149,-0.011457887,,,,,,
2023-04-21 20:31:11.037769,3.19625926,-0.260968,8.975862503,-0.106052071,0.019984685,-0.011457887,,,,,,
2023-04-21 20:31:11.037769,,,,,,,-3.11964488,0.011971008,9.92636013,0.105519146,0.010924961,-0.016787136
2023-04-21 20:31:11.037769,,,,,,,-3.117250681,0.016759412,9.923966408,0.105252676,0.010924961,-0.016787136
2023-04-21 20:31:11.037769,,,,,,,-3.112462282,0.019153614,9.916783333,0.104986221,0.011457887,-0.017053599
2023-04-21 20:31:11.037769,,,,,,,-3.110068083,0.021547815,9.919178009,0.104986221,0.011457887,-0.017320061
2023-04-21 20:31:11.037769,,,,,,,-3.110068083,0.023942016,9.916783333,0.104719758,0.011724349,-0.017320061
2023-04-21 20:31:11.037769,,,,,,,-3.110068083,0.021547815,9.91438961,0.104186833,0.011990812,-0.017320061
2023-04-21 20:31:11.037769,,,,,,,-3.110068083,0.021547815,9.911994934,0.104186833,0.011990812,-0.017320061
2023-04-21 20:31:11.037769,,,,,,,-3.112462282,0.019153614,9.916783333,0.103653908,0.012257273,-0.017320061
2023-04-21 20:31:11.037769,,,,,,,-3.112462282,0.01436521,9.919178009,0.103387438,0.012257273,-0.017586524
2023-04-21 20:31:11.037769,,,,,,,-3.110068083,0.011971008,9.923966408,0.103120975,0.011990812,-0.017586524
2023-04-21 20:31:11.037769,,,,,,,-3.112462282,0.011971008,9.931148529,0.103120975,0.011990812,-0.017320061
2023-04-21 20:31:11.037769,,,,,,,-3.112462282,0.01436521,9.933543205,0.10285452,0.011724349,-0.017320061
2023-04-21 20:31:11.037769,,,,,,,-3.112462282,0.01436521,9.933543205,0.10258805,0.011457887,-0.017320061
2023-04-21 20:31:11.037769,,,,,,,-3.112462282,0.01436521,9.940725327,0.10285452,0.011191424,-0.017320061
2023-04-21 20:31:11.037769,,,,,,,-3.112462282,0.01436521,9.943120003,0.10258805,0.011191424,-0.017586524
2023-04-21 20:31:11.134715,3.220201254,-0.239420176,8.963891029,-0.101255737,0.019451762,-0.010924961,,,,,,
2023-04-21 20:31:11.134715,3.215412855,-0.237025961,8.966285706,-0.101255737,0.019451762,-0.010924961,,,,,,
2023-04-21 20:31:11.134715,3.215412855,-0.237025961,8.971074104,-0.101255737,0.019451762,-0.010924961,,,,,,
2023-04-21 20:31:11.134715,3.210624456,-0.234631762,8.968679428,-0.101255737,0.019451762,-0.010924961,,,,,,
2023-04-21 20:31:11.134715,3.210624456,-0.234631762,8.963891029,-0.101255737,0.019451762,-0.010924961,,,,,,
2023-04-21 20:31:11.134715,3.208230257,-0.232237563,8.961497307,-0.101255737,0.019451762,-0.011191424,,,,,,
2023-04-21 20:31:11.134715,3.205836058,-0.232237563,8.963891029,-0.100989282,0.019185297,-0.010924961,,,,,,
2023-04-21 20:31:11.134715,3.205836058,-0.232237563,8.966285706,-0.101255737,0.019185297,-0.010924961,,,,,,
2023-04-21 20:31:11.134715,3.203441858,-0.237025961,8.963891029,-0.101255737,0.018918836,-0.010924961,,,,,,
2023-04-21 20:31:11.134715,3.203441858,-0.234631762,8.963891029,-0.101522207,0.018918836,-0.010924961,,,,,,
2023-04-21 20:31:11.134715,3.203441858,-0.237025961,8.963891029,-0.101522207,0.018652374,-0.010924961,,,,,,
2023-04-21 20:31:11.134715,3.208230257,-0.239420176,8.961497307,-0.101522207,0.018385911,-0.011191424,,,,,,
2023-04-21 20:31:11.134715,3.208230257,-0.239420176,8.951920509,-0.10178867,0.018385911,-0.011457887,,,,,,
2023-04-21 20:31:11.134715,3.210624456,-0.239420176,8.951920509,-0.10178867,0.018385911,-0.011724349,,,,,,
2023-04-21 20:31:11.134715,3.213018656,-0.237025961,8.947132111,-0.10178867,0.018385911,-0.011724349,,,,,,
2023-04-21 20:31:11.134715,,,,,,,-3.129221678,0.016759412,9.969455719,0.096459419,0.0063951,-0.016520673
2023-04-21 20:31:11.134715,,,,,,,-3.129221678,0.019153614,9.969455719,0.096459419,0.006128637,-0.016520673
2023-04-21 20:31:11.134715,,,,,,,-3.126827478,0.016759412,9.96466732,0.096725874,0.005862175,-0.016520673
2023-04-21 20:31:11.134715,,,,,,,-3.129221678,0.01436521,9.962273598,0.096725874,0.005862175,-0.016520673
2023-04-21 20:31:11.134715,,,,,,,-3.124433279,0.011971008,9.967061996,0.096992344,0.005862175,-0.016520673
2023-04-21 20:31:11.134715,,,,,,,-3.124433279,0.009576807,9.967061996,0.097258806,0.006128637,-0.016520673
2023-04-21 20:31:11.134715,,,,,,,-3.12203908,0.007182605,9.967061996,0.097258806,0.006128637,-0.016787136
2023-04-21 20:31:11.134715,,,,,,,-3.12203908,0.004788403,9.962273598,0.097525269,0.006128637,-0.016787136
2023-04-21 20:31:11.134715,,,,,,,-3.11964488,0.002394202,9.962273598,0.097525269,0.0063951,-0.016787136
2023-04-21 20:31:11.134715,,,,,,,-3.11964488,0.0,9.962273598,0.097525269,0.0063951,-0.016787136
2023-04-21 20:31:11.134715,,,,,,,-3.117250681,-0.002394202,9.959878922,0.097791731,0.0063951,-0.016787136
2023-04-21 20:31:11.134715,,,,,,,-3.117250681,-0.002394202,9.957485199,0.098058186,0.006661562,-0.016787136
2023-04-21 20:31:11.134715,,,,,,,-3.112462282,0.0,9.962273598,0.098324656,0.006661562,-0.016787136
2023-04-21 20:31:11.134715,,,,,,,-3.114856482,-0.002394202,9.959878922,0.098591112,0.006661562,-0.016787136
2023-04-21 20:31:11.134715,,,,,,,-3.114856482,-0.004788403,9.959878922,0.098857582,0.006928025,-0.017053599
2023-04-21 20:31:11.264804,3.208230257,-0.244208574,8.990227699,-0.103387438,0.019718224,-0.011724349,,,,,,
2023-04-21 20:31:11.264804,3.215412855,-0.248996973,8.990227699,-0.103120975,0.019451762,-0.011724349,,,,,,
2023-04-21 20:31:11.264804,3.215412855,-0.248996973,8.995016098,-0.103120975,0.019718224,-0.011724349,,,,,,
2023-04-21 20:31:11.264804,3.215412855,-0.248996973,8.995016098,-0.103120975,0.019718224,-0.011724349,,,,,,
2023-04-21 20:31:11.264804,3.215412855,-0.246602774,8.992621422,-0.10285452,0.019718224,-0.011724349,,,,,,
2023-04-21 20:31:11.264804,3.215412855,-0.246602774,8.995016098,-0.10258805,0.019984685,-0.011724349,,,,,,
2023-04-21 20:31:11.264804,3.215412855,-0.246602774,8.995016098,-0.102321595,0.020251149,-0.011724349,,,,,,
2023-04-21 20:31:11.264804,3.215412855,-0.246602774,8.997409821,-0.10178867,0.020251149,-0.011724349,,,,,,
2023-04-21 20:31:11.264804,3.215412855,-0.248996973,8.999804497,-0.101522207,0.02051761,-0.011724349,,,,,,
2023-04-21 20:31:11.264804,3.215412855,-0.251391172,8.999804497,-0.101255737,0.02051761,-0.011457887,,,,,,
2023-04-21 20:31:11.264804,3.217807055,-0.251391172,8.997409821,-0.100989282,0.020784073,-0.011457887,,,,,,
2023-04-21 20:31:11.264804,3.220201254,-0.251391172,8.990227699,-0.100722812,0.021050537,-0.011457887,,,,,,
2023-04-21 20:31:11.264804,3.220201254,-0.248996973,8.990227699,-0.100456357,0.021050537,-0.011457887,,,,,,
2023-04-21 20:31:11.264804,3.222595453,-0.244208574,8.990227699,-0.100456357,0.021316998,-0.011457887,,,,,,
2023-04-21 20:31:11.264804,3.224989653,-0.241814375,8.995016098,-0.100456357,0.021050537,-0.011191424,,,,,,
2023-04-21 20:31:11.264804,,,,,,,-3.145981073,-0.033518825,9.938331604,0.102321595,0.010125575,-0.016520673
2023-04-21 20:31:11.264804,,,,,,,-3.148375273,-0.035913024,9.940725327,0.10258805,0.010125575,-0.016520673
2023-04-21 20:31:11.264804,,,,,,,-3.145981073,-0.035913024,9.945513725,0.10258805,0.010125575,-0.016520673
2023-04-21 20:31:11.264804,,,,,,,-3.141192675,-0.031124622,9.945513725,0.10285452,0.009859112,-0.016254211
2023-04-21 20:31:11.264804,,,,,,,-3.143586874,-0.031124622,9.945513725,0.103387438,0.009859112,-0.016254211
2023-04-21 20:31:11.264804,,,,,,,-3.145981073,-0.031124622,9.945513725,0.103387438,0.009859112,-0.015987748
2023-04-21 20:31:11.264804,,,,,,,-3.143586874,-0.031124622,9.940725327,0.103387438,0.009859112,-0.016254211
2023-04-21 20:31:11.264804,,,,,,,-3.143586874,-0.02873042,9.935936928,0.103920363,0.010125575,-0.015987748
2023-04-21 20:31:11.264804,,,,,,,-3.141192675,-0.02873042,9.933543205,0.104453288,0.010125575,-0.015987748
2023-04-21 20:31:11.264804,,,,,,,-3.136404276,-0.026336219,9.928754807,0.104719758,0.010392036,-0.015987748
2023-04-21 20:31:11.264804,,,,,,,-3.134010077,-0.023942016,9.923966408,0.105252676,0.010392036,-0.016254211
2023-04-21 20:31:11.264804,,,,,,,-3.131615877,-0.019153614,9.919178009,0.105252676,0.010658499,-0.016254211
2023-04-21 20:31:11.264804,,,,,,,-3.131615877,-0.01436521,9.916783333,0.105519146,0.010924961,-0.016520673
2023-04-21 20:31:11.264804,,,,,,,-3.134010077,-0.011971008,9.919178009,0.105785601,0.011457887,-0.016520673
2023-04-21 20:31:11.264804,,,,,,,-3.134010077,-0.011971008,9.921571732,0.105785601,0.011724349,-0.016520673
2023-04-21 20:31:11.331766,3.215412855,-0.225054964,8.971074104,-0.089531392,0.017320061,-0.011191424,,,,,,
2023-04-21 20:31:11.331766,3.217807055,-0.220266551,8.968679428,-0.089531392,0.017586524,-0.010924961,,,,,,
2023-04-21 20:31:11.331766,3.217807055,-0.220266551,8.963891029,-0.089264929,0.017852986,-0.010924961,,,,,,
2023-04-21 20:31:11.331766,3.220201254,-0.217872351,8.966285706,-0.089264929,0.017852986,-0.010658499,,,,,,
2023-04-21 20:31:11.331766,3.227383852,-0.215478152,8.961497307,-0.089264929,0.017852986,-0.010392036,,,,,,
2023-04-21 20:31:11.331766,3.229778051,-0.210689753,8.959102631,-0.089531392,0.017852986,-0.010125575,,,,,,
2023-04-21 20:31:11.331766,3.232172251,-0.208295554,8.956708908,-0.089797854,0.018119449,-0.009859112,,,,,,
2023-04-21 20:31:11.331766,3.229778051,-0.20350714,8.954314232,-0.090064317,0.018385911,-0.009859112,,,,,,
2023-04-21 20:31:11.331766,3.229778051,-0.198718742,8.959102631,-0.09033078,0.018652374,-0.009592649,,,,,,
2023-04-21 20:31:11.331766,3.232172251,-0.196324542,8.959102631,-0.090597242,0.018918836,-0.009592649,,,,,,
2023-04-21 20:31:11.331766,3.229778051,-0.196324542,8.961497307,-0.091396637,0.019185297,-0.009592649,,,,,,
2023-04-21 20:31:11.331766,3.227383852,-0.196324542,8.961497307,-0.091663092,0.019451762,-0.009326187,,,,,,
2023-04-21 20:31:11.331766,3.224989653,-0.196324542,8.956708908,-0.092196018,0.019451762,-0.009059724,,,,,,
2023-04-21 20:31:11.331766,3.224989653,-0.198718742,8.961497307,-0.09272895,0.019718224,-0.009059724,,,,,,
2023-04-21 20:31:11.331766,3.222595453,-0.198718742,8.966285706,-0.093261868,0.019718224,-0.008793262,,,,,,
2023-04-21 20:31:11.331766,,,,,,,-3.124433279,-0.069431849,9.945513725,0.095926493,0.016520673,-0.018652374
2023-04-21 20:31:11.331766,,,,,,,-3.129221678,-0.069431849,9.945513725,0.096725874,0.016520673,-0.018652374
2023-04-21 20:31:11.331766,,,,,,,-3.131615877,-0.071826048,9.945513725,0.096725874,0.016520673,-0.018385911
2023-04-21 20:31:11.331766,,,,,,,-3.134010077,-0.071826048,9.947908401,0.097258806,0.016254211,-0.018385911
2023-04-21 20:31:11.331766,,,,,,,-3.138798475,-0.071826048,9.950302124,0.098058186,0.015987748,-0.018385911
2023-04-21 20:31:11.331766,,,,,,,-3.138798475,-0.071826048,9.947908401,0.098324656,0.015721286,-0.018385911
2023-04-21 20:31:11.331766,,,,,,,-3.141192675,-0.069431849,9.943120003,0.098857582,0.015188362,-0.018119449
2023-04-21 20:31:11.331766,,,,,,,-3.145981073,-0.067037649,9.945513725,0.099124044,0.014921899,-0.018119449
2023-04-21 20:31:11.331766,,,,,,,-3.145981073,-0.067037649,9.947908401,0.099124044,0.014655436,-0.018119449
2023-04-21 20:31:11.331766,,,,,,,-3.145981073,-0.064643443,9.950302124,0.099390499,0.014655436,-0.018119449
2023-04-21 20:31:11.331766,,,,,,,-3.143586874,-0.057460841,9.9526968,0.099656969,0.014388974,-0.017586524
2023-04-21 20:31:11.331766,,,,,,,-3.143586874,-0.057460841,9.9526968,0.099923424,0.014122511,-0.017586524
2023-04-21 20:31:11.331766,,,,,,,-3.141192675,-0.057460841,9.955090523,0.099923424,0.01385605,-0.017320061
2023-04-21 20:31:11.331766,,,,,,,-3.143586874,-0.055066638,9.957485199,0.100456357,0.013589587,-0.017053599
2023-04-21 20:31:11.331766,,,,,,,-3.143586874,-0.055066638,9.959878922,0.100456357,0.013589587,-0.017053599
2023-04-21 20:31:11.393728,3.203441858,-0.18674773,8.966285706,-0.099923424,0.019718224,-0.011724349,,,,,,
2023-04-21 20:31:11.393728,3.19625926,-0.18674773,8.966285706,-0.099923424,0.019718224,-0.011990812,,,,,,
2023-04-21 20:31:11.393728,3.191470861,-0.18674773,8.966285706,-0.099923424,0.019718224,-0.011990812,,,,,,
2023-04-21 20:31:11.393728,3.191470861,-0.18435353,8.963891029,-0.099923424,0.019984685,-0.012257273,,,,,,
2023-04-21 20:31:11.393728,3.186682463,-0.18435353,8.961497307,-0.099923424,0.019718224,-0.012523737,,,,,,
2023-04-21 20:31:11.393728,3.186682463,-0.18435353,8.959102631,-0.099923424,0.019718224,-0.012790199,,,,,,
2023-04-21 20:31:11.393728,3.181894064,-0.18674773,8.959102631,-0.099923424,0.019718224,-0.012523737,,,,,,
2023-04-21 20:31:11.393728,3.181894064,-0.18674773,8.959102631,-0.099923424,0.019451762,-0.012790199,,,,,,
2023-04-21 20:31:11.393728,3.181894064,-0.18435353,8.963891029,-0.099923424,0.019185297,-0.012790199,,,,,,
2023-04-21 20:31:11.393728,3.177105665,-0.181959331,8.963891029,-0.099923424,0.018918836,-0.012790199,,,,,,
2023-04-21 20:31:11.393728,3.174711466,-0.181959331,8.961497307,-0.099923424,0.018652374,-0.012790199,,,,,,
2023-04-21 20:31:11.393728,3.174711466,-0.18435353,8.959102631,-0.099923424,0.018652374,-0.013056661,,,,,,
2023-04-21 20:31:11.393728,3.174711466,-0.18435353,8.956708908,-0.099923424,0.018385911,-0.013323124,,,,,,
2023-04-21 20:31:11.393728,3.177105665,-0.18674773,8.954314232,-0.099656969,0.018385911,-0.013056661,,,,,,
2023-04-21 20:31:11.393728,3.174711466,-0.18435353,8.956708908,-0.099656969,0.018385911,-0.013323124,,,,,,
2023-04-21 20:31:11.393728,,,,,,,-3.114856482,-0.10055647,9.931148529,0.100722812,0.004796324,-0.016520673
2023-04-21 20:31:11.393728,,,,,,,-3.112462282,-0.10055647,9.938331604,0.100989282,0.004796324,-0.016520673
2023-04-21 20:31:11.393728,,,,,,,-3.110068083,-0.10055647,9.945513725,0.100989282,0.005062787,-0.016520673
2023-04-21 20:31:11.393728,,,,,,,-3.107673883,-0.10055647,9.947908401,0.101522207,0.005329249,-0.016787136
2023-04-21 20:31:11.393728,,,,,,,-3.105279684,-0.098162271,9.945513725,0.101522207,0.005595712,-0.017053599
2023-04-21 20:31:11.393728,,,,,,,-3.102885485,-0.098162271,9.945513725,0.102055125,0.005595712,-0.017053599
2023-04-21 20:31:11.393728,,,,,,,-3.102885485,-0.095768064,9.943120003,0.102055125,0.005862175,-0.017320061
2023-04-21 20:31:11.393728,,,,,,,-3.102885485,-0.093373865,9.940725327,0.102321595,0.005862175,-0.017053599
2023-04-21 20:31:11.393728,,,,,,,-3.105279684,-0.090979666,9.935936928,0.102321595,0.006128637,-0.017320061
2023-04-21 20:31:11.393728,,,,,,,-3.098097086,-0.090979666,9.92636013,0.102321595,0.0063951,-0.017586524
2023-04-21 20:31:11.393728,,,,,,,-3.095702887,-0.090979666,9.923966408,0.102055125,0.006661562,-0.017852986
2023-04-21 20:31:11.393728,,,,,,,-3.095702887,-0.090979666,9.92636013,0.102321595,0.006928025,-0.017852986
2023-04-21 20:31:11.393728,,,,,,,-3.095702887,-0.090979666,9.928754807,0.102055125,0.007194487,-0.018119449
2023-04-21 20:31:11.393728,,,,,,,-3.098097086,-0.093373865,9.933543205,0.102055125,0.007460949,-0.018119449
2023-04-21 20:31:11.393728,,,,,,,-3.100491285,-0.095768064,9.933543205,0.10178867,0.007194487,-0.018119449
2023-04-21 20:31:11.466686,3.155557871,-0.112527482,8.975862503,-0.102055125,0.017852986,-0.009859112,,,,,,
2023-04-21 20:31:11.466686,3.15795207,-0.110133275,8.978256226,-0.10178867,0.017586524,-0.009859112,,,,,,
2023-04-21 20:31:11.466686,3.155557871,-0.105344877,8.980650902,-0.10178867,0.017586524,-0.009859112,,,,,,
2023-04-21 20:31:11.466686,3.15795207,-0.105344877,8.975862503,-0.10178867,0.017586524,-0.009859112,,,,,,
2023-04-21 20:31:11.466686,3.153163671,-0.10055647,8.973467827,-0.10178867,0.017320061,-0.010125575,,,,,,
2023-04-21 20:31:11.466686,3.153163671,-0.10055647,8.973467827,-0.102321595,0.017320061,-0.010125575,,,,,,
2023-04-21 20:31:11.466686,3.15795207,-0.10055647,8.971074104,-0.102321595,0.017053599,-0.010392036,,,,,,
2023-04-21 20:31:11.466686,3.15795207,-0.10295067,8.973467827,-0.10258805,0.016787136,-0.010125575,,,,,,
2023-04-21 20:31:11.466686,3.15795207,-0.107739076,8.971074104,-0.10258805,0.016520673,-0.010392036,,,,,,
2023-04-21 20:31:11.466686,3.16034627,-0.112527482,8.968679428,-0.10285452,0.016520673,-0.010392036,,,,,,
2023-04-21 20:31:11.466686,3.162740469,-0.112527482,8.968679428,-0.10285452,0.016254211,-0.010392036,,,,,,
2023-04-21 20:31:11.466686,3.162740469,-0.114921682,8.966285706,-0.103120975,0.015987748,-0.010392036,,,,,,
2023-04-21 20:31:11.466686,3.162740469,-0.114921682,8.966285706,-0.103120975,0.015454824,-0.010392036,,,,,,
2023-04-21 20:31:11.466686,3.162740469,-0.117315881,8.963891029,-0.103387438,0.015188362,-0.010392036,,,,,,
2023-04-21 20:31:11.466686,3.16034627,-0.122104287,8.961497307,-0.103387438,0.014655436,-0.010658499,,,,,,
2023-04-21 20:31:11.466686,,,,,,,-3.11964488,-0.105344877,9.938331604,0.105519146,0.006128637,-0.015721286
2023-04-21 20:31:11.466686,,,,,,,-3.114856482,-0.107739076,9.943120003,0.105519146,0.005862175,-0.015721286
2023-04-21 20:31:11.466686,,,,,,,-3.112462282,-0.107739076,9.945513725,0.105785601,0.005862175,-0.015454824
2023-04-21 20:31:11.466686,,,,,,,-3.110068083,-0.112527482,9.945513725,0.105785601,0.005862175,-0.015454824
2023-04-21 20:31:11.466686,,,,,,,-3.105279684,-0.114921682,9.945513725,0.106052071,0.005595712,-0.015188362
2023-04-21 20:31:11.466686,,,,,,,-3.098097086,-0.119710088,9.947908401,0.106052071,0.005595712,-0.015188362
2023-04-21 20:31:11.466686,,,,,,,-3.093308687,-0.122104287,9.945513725,0.105785601,0.005595712,-0.015188362
2023-04-21 20:31:11.466686,,,,,,,-3.086126089,-0.122104287,9.945513725,0.105519146,0.005595712,-0.014921899
2023-04-21 20:31:11.466686,,,,,,,-3.08373189,-0.124498487,9.943120003,0.105785601,0.005862175,-0.014921899
2023-04-21 20:31:11.466686,,,,,,,-3.078943491,-0.129286885,9.943120003,0.105785601,0.005862175,-0.014921899
2023-04-21 20:31:11.466686,,,,,,,-3.074155092,-0.126892686,9.947908401,0.105785601,0.006128637,-0.014921899
2023-04-21 20:31:11.466686,,,,,,,-3.071760893,-0.126892686,9.947908401,0.105785601,0.006128637,-0.014921899
2023-04-21 20:31:11.466686,,,,,,,-3.074155092,-0.1316811,9.947908401,0.105519146,0.006128637,-0.014921899
2023-04-21 20:31:11.466686,,,,,,,-3.074155092,-0.1316811,9.945513725,0.105519146,0.006661562,-0.015188362
2023-04-21 20:31:11.466686,,,,,,,-3.074155092,-0.1316811,9.947908401,0.105519146,0.006661562,-0.015188362
2023-04-21 20:31:11.530651,3.184288263,-0.117315881,8.995016098,-0.098058186,0.018918836,-0.011457887,,,,,,
2023-04-21 20:31:11.530651,3.186682463,-0.117315881,8.997409821,-0.098324656,0.018918836,-0.011724349,,,,,,
2023-04-21 20:31:11.530651,3.186682463,-0.117315881,8.995016098,-0.098324656,0.019185297,-0.011457887,,,,,,
2023-04-21 20:31:11.530651,3.184288263,-0.112527482,8.990227699,-0.098324656,0.019185297,-0.011457887,,,,,,
2023-04-21 20:31:11.530651,3.181894064,-0.112527482,8.992621422,-0.098857582,0.019185297,-0.011457887,,,,,,
2023-04-21 20:31:11.530651,3.184288263,-0.110133275,8.992621422,-0.099124044,0.019185297,-0.011457887,,,,,,
2023-04-21 20:31:11.530651,3.184288263,-0.110133275,8.990227699,-0.099390499,0.019451762,-0.011191424,,,,,,
2023-04-21 20:31:11.530651,3.184288263,-0.112527482,8.987833023,-0.099656969,0.019185297,-0.011191424,,,,,,
2023-04-21 20:31:11.530651,3.184288263,-0.110133275,8.985439301,-0.099656969,0.019185297,-0.011191424,,,,,,
2023-04-21 20:31:11.530651,3.186682463,-0.110133275,8.980650902,-0.099923424,0.019185297,-0.011191424,,,,,,
2023-04-21 20:31:11.530651,3.186682463,-0.105344877,8.973467827,-0.100456357,0.019185297,-0.011191424,,,,,,
2023-04-21 20:31:11.530651,3.191470861,-0.10295067,8.966285706,-0.100456357,0.019451762,-0.011191424,,,,,,
2023-04-21 20:31:11.530651,3.201047659,-0.093373865,8.930372238,-0.10258805,0.019718224,-0.010924961,,,,,,
2023-04-21 20:31:11.530651,3.19865346,-0.090979666,8.918401718,-0.103653908,0.020251149,-0.010924961,,,,,,
2023-04-21 20:31:11.530651,3.19865346,-0.088585466,8.923190117,-0.104186833,0.020251149,-0.010924961,,,,,,
2023-04-21 20:31:11.530651,,,,,,,-3.105279684,-0.095768064,9.962273598,0.103653908,0.014388974,-0.016520673
2023-04-21 20:31:11.530651,,,,,,,-3.107673883,-0.095768064,9.959878922,0.103387438,0.014122511,-0.016520673
2023-04-21 20:31:11.530651,,,,,,,-3.110068083,-0.10055647,9.96466732,0.103120975,0.01385605,-0.016520673
2023-04-21 20:31:11.530651,,,,,,,-3.107673883,-0.10295067,9.969455719,0.10285452,0.013589587,-0.016520673
2023-04-21 20:31:11.530651,,,,,,,-3.110068083,-0.107739076,9.974244118,0.10285452,0.013323124,-0.016520673
2023-04-21 20:31:11.530651,,,,,,,-3.107673883,-0.110133275,9.979032516,0.103120975,0.013056661,-0.016520673
2023-04-21 20:31:11.530651,,,,,,,-3.107673883,-0.112527482,9.974244118,0.103120975,0.012790199,-0.016520673
2023-04-21 20:31:11.530651,,,,,,,-3.105279684,-0.110133275,9.969455719,0.10285452,0.012523737,-0.016520673
2023-04-21 20:31:11.530651,,,,,,,-3.102885485,-0.110133275,9.971850395,0.10285452,0.012523737,-0.016520673
2023-04-21 20:31:11.530651,,,,,,,-3.102885485,-0.110133275,9.974244118,0.10285452,0.012257273,-0.016520673
2023-04-21 20:31:11.530651,,,,,,,-3.102885485,-0.107739076,9.974244118,0.10285452,0.012257273,-0.016787136
2023-04-21 20:31:11.530651,,,,,,,-3.107673883,-0.10295067,9.971850395,0.10285452,0.011990812,-0.016520673
2023-04-21 20:31:11.530651,,,,,,,-3.114856482,-0.105344877,9.962273598,0.10258805,0.011724349,-0.016520673
2023-04-21 20:31:11.530651,,,,,,,-3.117250681,-0.10295067,9.957485199,0.102321595,0.011724349,-0.016520673
2023-04-21 20:31:11.530651,,,,,,,-3.11964488,-0.10295067,9.955090523,0.102321595,0.011457887,-0.016254211
2023-04-21 20:31:11.601609,3.165134668,-0.172382519,8.992621422,-0.097791731,0.014122511,-0.011990812,,,,,,
2023-04-21 20:31:11.601609,3.167528868,-0.16759412,8.985439301,-0.097525269,0.014122511,-0.011990812,,,,,,
2023-04-21 20:31:11.601609,3.169923067,-0.162805721,8.973467827,-0.097525269,0.014388974,-0.012257273,,,,,,
2023-04-21 20:31:11.601609,3.174711466,-0.158017308,8.971074104,-0.097791731,0.014122511,-0.012257273,,,,,,
2023-04-21 20:31:11.601609,3.179499865,-0.153228909,8.968679428,-0.097791731,0.014388974,-0.012523737,,,,,,
2023-04-21 20:31:11.601609,3.186682463,-0.150834709,8.963891029,-0.097525269,0.014388974,-0.012790199,,,,,,
2023-04-21 20:31:11.601609,3.189076662,-0.146046311,8.961497307,-0.097525269,0.014388974,-0.013056661,,,,,,
2023-04-21 20:31:11.601609,3.201047659,-0.138863698,8.959102631,-0.096992344,0.014655436,-0.013323124,,,,,,
2023-04-21 20:31:11.601609,3.203441858,-0.136469498,8.959102631,-0.096992344,0.015188362,-0.013589587,,,,,,
2023-04-21 20:31:11.601609,3.203441858,-0.129286885,8.956708908,-0.096725874,0.015454824,-0.013589587,,,,,,
2023-04-21 20:31:11.601609,3.205836058,-0.119710088,8.954314232,-0.096992344,0.015987748,-0.013589587,,,,,,
2023-04-21 20:31:11.601609,3.205836058,-0.114921682,8.951920509,-0.097258806,0.016254211,-0.013323124,,,,,,
2023-04-21 20:31:11.601609,3.208230257,-0.107739076,8.951920509,-0.097258806,0.016520673,-0.013323124,,,,,,
2023-04-21 20:31:11.601609,3.208230257,-0.10055647,8.954314232,-0.097791731,0.016520673,-0.013323124,,,,,,
2023-04-21 20:31:11.601609,3.208230257,-0.098162271,8.956708908,-0.098324656,0.016254211,-0.013323124,,,,,,
2023-04-21 20:31:11.601609,,,,,,,-3.074155092,-0.114921682,9.916783333,0.10285452,0.011990812,-0.017320061
2023-04-21 20:31:11.601609,,,,,,,-3.074155092,-0.114921682,9.928754807,0.10258805,0.012257273,-0.017320061
2023-04-21 20:31:11.601609,,,,,,,-3.074155092,-0.114921682,9.931148529,0.10258805,0.012523737,-0.017320061
2023-04-21 20:31:11.601609,,,,,,,-3.076549292,-0.117315881,9.933543205,0.10258805,0.012790199,-0.017586524
2023-04-21 20:31:11.601609,,,,,,,-3.076549292,-0.114921682,9.940725327,0.10285452,0.013056661,-0.017320061
2023-04-21 20:31:11.601609,,,,,,,-3.076549292,-0.114921682,9.947908401,0.10285452,0.013323124,-0.017586524
2023-04-21 20:31:11.601609,,,,,,,-3.078943491,-0.112527482,9.950302124,0.103120975,0.01385605,-0.017852986
2023-04-21 20:31:11.601609,,,,,,,-3.08373189,-0.107739076,9.950302124,0.103387438,0.014122511,-0.018119449
2023-04-21 20:31:11.601609,,,,,,,-3.086126089,-0.107739076,9.950302124,0.103653908,0.014122511,-0.018119449
2023-04-21 20:31:11.601609,,,,,,,-3.08373189,-0.105344877,9.945513725,0.103653908,0.014122511,-0.018119449
2023-04-21 20:31:11.601609,,,,,,,-3.088520288,-0.10295067,9.943120003,0.103653908,0.014388974,-0.018119449
2023-04-21 20:31:11.601609,,,,,,,-3.090914488,-0.10055647,9.940725327,0.103120975,0.014388974,-0.018119449
2023-04-21 20:31:11.601609,,,,,,,-3.088520288,-0.095768064,9.938331604,0.10285452,0.014388974,-0.018119449
2023-04-21 20:31:11.601609,,,,,,,-3.086126089,-0.093373865,9.940725327,0.103120975,0.014388974,-0.018119449
2023-04-21 20:31:11.601609,,,,,,,-3.088520288,-0.095768064,9.943120003,0.103120975,0.014122511,-0.018119449
2023-04-21 20:31:11.662580,3.201047659,-0.1316811,8.954314232,-0.102321595,0.017852986,-0.011191424,,,,,,
2023-04-21 20:31:11.662580,3.203441858,-0.1316811,8.949525833,-0.10178867,0.018385911,-0.010924961,,,,,,
2023-04-21 20:31:11.662580,3.201047659,-0.138863698,8.949525833,-0.101255737,0.018652374,-0.010924961,,,,,,
2023-04-21 20:31:11.662580,3.201047659,-0.136469498,8.949525833,-0.100722812,0.018918836,-0.010924961,,,,,,
2023-04-21 20:31:11.662580,3.201047659,-0.136469498,8.949525833,-0.100456357,0.019185297,-0.011191424,,,,,,
2023-04-21 20:31:11.662580,3.19625926,-0.134075299,8.954314232,-0.100189894,0.019185297,-0.011191424,,,,,,
2023-04-21 20:31:11.662580,3.193865061,-0.129286885,8.956708908,-0.099923424,0.019718224,-0.011191424,,,,,,
2023-04-21 20:31:11.662580,3.193865061,-0.124498487,8.959102631,-0.099656969,0.019984685,-0.011191424,,,,,,
2023-04-21 20:31:11.662580,3.191470861,-0.119710088,8.963891029,-0.099124044,0.019984685,-0.011191424,,,,,,
2023-04-21 20:31:11.662580,3.189076662,-0.117315881,8.966285706,-0.098857582,0.019984685,-0.010924961,,,,,,
2023-04-21 20:31:11.662580,3.189076662,-0.117315881,8.968679428,-0.098591112,0.019984685,-0.010924961,,,,,,
2023-04-21 20:31:11.662580,3.189076662,-0.112527482,8.973467827,-0.098324656,0.019718224,-0.010924961,,,,,,
2023-04-21 20:31:11.662580,3.186682463,-0.107739076,8.973467827,-0.098324656,0.019718224,-0.011191424,,,,,,
2023-04-21 20:31:11.662580,3.184288263,-0.105344877,8.973467827,-0.098591112,0.019718224,-0.011191424,,,,,,
2023-04-21 20:31:11.662580,3.179499865,-0.098162271,8.975862503,-0.098857582,0.019718224,-0.011457887,,,,,,
2023-04-21 20:31:11.662580,,,,,,,-3.114856482,-0.138863698,9.9526968,0.104453288,0.009859112,-0.016520673
2023-04-21 20:31:11.662580,,,,,,,-3.110068083,-0.138863698,9.950302124,0.104719758,0.009859112,-0.016254211
2023-04-21 20:31:11.662580,,,,,,,-3.107673883,-0.138863698,9.947908401,0.104986221,0.009326187,-0.016254211
2023-04-21 20:31:11.662580,,,,,,,-3.105279684,-0.141257897,9.943120003,0.105519146,0.009326187,-0.015987748
2023-04-21 20:31:11.662580,,,,,,,-3.105279684,-0.141257897,9.943120003,0.105785601,0.009326187,-0.015721286
2023-04-21 20:31:11.662580,,,,,,,-3.105279684,-0.141257897,9.938331604,0.106318533,0.009059724,-0.015721286
2023-04-21 20:31:11.662580,,,,,,,-3.102885485,-0.143652096,9.945513725,0.106318533,0.009059724,-0.015721286
2023-04-21 20:31:11.662580,,,,,,,-3.100491285,-0.146046311,9.950302124,0.106584989,0.009059724,-0.015721286
2023-04-21 20:31:11.662580,,,,,,,-3.098097086,-0.146046311,9.950302124,0.106851459,0.009059724,-0.015454824
2023-04-21 20:31:11.662580,,,,,,,-3.095702887,-0.143652096,9.955090523,0.107117914,0.009326187,-0.015188362
2023-04-21 20:31:11.662580,,,,,,,-3.090914488,-0.141257897,9.957485199,0.107117914,0.009326187,-0.015454824
2023-04-21 20:31:11.662580,,,,,,,-3.088520288,-0.138863698,9.959878922,0.107650839,0.009326187,-0.015454824
2023-04-21 20:31:11.662580,,,,,,,-3.086126089,-0.136469498,9.962273598,0.108450226,0.009592649,-0.015454824
2023-04-21 20:31:11.662580,,,,,,,-3.08133769,-0.136469498,9.957485199,0.108983152,0.009859112,-0.015188362
2023-04-21 20:31:11.662580,,,,,,,-3.076549292,-0.129286885,9.950302124,0.109516084,0.010125575,-0.015188362
2023-04-21 20:31:11.746529,3.181894064,-0.110133275,9.014169693,-0.10258805,0.021316998,-0.012523737,,,,,,
2023-04-21 20:31:11.746529,3.179499865,-0.110133275,9.011775017,-0.103120975,0.021316998,-0.012523737,,,,,,
2023-04-21 20:31:11.746529,3.177105665,-0.107739076,9.006986618,-0.103120975,0.02158346,-0.012523737,,,,,,
2023-04-21 20:31:11.746529,3.174711466,-0.105344877,9.006986618,-0.103387438,0.02158346,-0.012257273,,,,,,
2023-04-21 20:31:11.746529,3.174711466,-0.10295067,9.002198219,-0.103653908,0.021316998,-0.012257273,,,,,,
2023-04-21 20:31:11.746529,3.172317266,-0.105344877,8.997409821,-0.103653908,0.021316998,-0.012257273,,,,,,
2023-04-21 20:31:11.746529,3.172317266,-0.107739076,8.997409821,-0.103653908,0.021050537,-0.011990812,,,,,,
2023-04-21 20:31:11.746529,3.169923067,-0.110133275,8.995016098,-0.103920363,0.021050537,-0.011724349,,,,,,
2023-04-21 20:31:11.746529,3.169923067,-0.110133275,8.992621422,-0.103920363,0.021050537,-0.011990812,,,,,,
2023-04-21 20:31:11.746529,3.167528868,-0.114921682,8.992621422,-0.104186833,0.020784073,-0.011724349,,,,,,
2023-04-21 20:31:11.746529,3.169923067,-0.122104287,8.987833023,-0.104719758,0.02051761,-0.011724349,,,,,,
2023-04-21 20:31:11.746529,3.169923067,-0.119710088,8.985439301,-0.104986221,0.020251149,-0.011457887,,,,,,
2023-04-21 20:31:11.746529,3.169923067,-0.122104287,8.985439301,-0.104986221,0.019718224,-0.011724349,,,,,,
2023-04-21 20:31:11.746529,3.172317266,-0.122104287,8.983044624,-0.104986221,0.019185297,-0.011990812,,,,,,
2023-04-21 20:31:11.746529,3.177105665,-0.119710088,8.980650902,-0.104986221,0.019185297,-0.011990812,,,,,,
2023-04-21 20:31:11.746529,,,,,,,-3.110068083,-0.10055647,9.950302124,0.098591112,0.014388974,-0.018385911
2023-04-21 20:31:11.746529,,,,,,,-3.110068083,-0.107739076,9.962273598,0.098591112,0.013589587,-0.018385911
2023-04-21 20:31:11.746529,,,,,,,-3.112462282,-0.114921682,9.96466732,0.098591112,0.013589587,-0.018652374
2023-04-21 20:31:11.746529,,,,,,,-3.110068083,-0.124498487,9.96466732,0.098857582,0.013323124,-0.018385911
2023-04-21 20:31:11.746529,,,,,,,-3.110068083,-0.129286885,9.969455719,0.099124044,0.013323124,-0.018385911
2023-04-21 20:31:11.746529,,,,,,,-3.110068083,-0.134075299,9.969455719,0.099656969,0.013323124,-0.018385911
2023-04-21 20:31:11.746529,,,,,,,-3.112462282,-0.136469498,9.967061996,0.100456357,0.013589587,-0.018119449
2023-04-21 20:31:11.746529,,,,,,,-3.112462282,-0.138863698,9.967061996,0.101255737,0.013323124,-0.018385911
2023-04-21 20:31:11.746529,,,,,,,-3.112462282,-0.138863698,9.967061996,0.10178867,0.013323124,-0.018385911
2023-04-21 20:31:11.746529,,,,,,,-3.112462282,-0.138863698,9.96466732,0.102321595,0.013589587,-0.018385911
2023-04-21 20:31:11.746529,,,,,,,-3.114856482,-0.138863698,9.957485199,0.103120975,0.013589587,-0.018119449
2023-04-21 20:31:11.746529,,,,,,,-3.114856482,-0.136469498,9.9526968,0.103653908,0.01385605,-0.018119449
2023-04-21 20:31:11.746529,,,,,,,-3.12203908,-0.134075299,9.947908401,0.103920363,0.014122511,-0.018119449
2023-04-21 20:31:11.746529,,,,,,,-3.11964488,-0.1316811,9.931148529,0.104453288,0.014388974,-0.017852986
2023-04-21 20:31:11.746529,,,,,,,-3.117250681,-0.1316811,9.919178009,0.104453288,0.014122511,-0.017852986
2023-04-21 20:31:11.820488,3.189076662,-0.129286885,8.987833023,-0.106584989,0.019451762,-0.010658499,,,,,,
2023-04-21 20:31:11.820488,3.186682463,-0.129286885,8.978256226,-0.106318533,0.019718224,-0.010658499,,,,,,
2023-04-21 20:31:11.820488,3.184288263,-0.134075299,8.975862503,-0.106318533,0.019984685,-0.010658499,,,,,,
2023-04-21 20:31:11.820488,3.184288263,-0.136469498,8.975862503,-0.106318533,0.019984685,-0.010392036,,,,,,
2023-04-21 20:31:11.820488,3.181894064,-0.136469498,8.975862503,-0.106052071,0.020251149,-0.010392036,,,,,,
2023-04-21 20:31:11.820488,3.177105665,-0.136469498,8.975862503,-0.106052071,0.02051761,-0.010658499,,,,,,
2023-04-21 20:31:11.820488,3.177105665,-0.134075299,8.975862503,-0.106052071,0.020784073,-0.010658499,,,,,,
2023-04-21 20:31:11.820488,3.177105665,-0.134075299,8.978256226,-0.105785601,0.020784073,-0.010658499,,,,,,
2023-04-21 20:31:11.820488,3.177105665,-0.1316811,8.978256226,-0.105519146,0.020784073,-0.010658499,,,,,,
2023-04-21 20:31:11.820488,3.177105665,-0.134075299,8.978256226,-0.105252676,0.021050537,-0.010924961,,,,,,
2023-04-21 20:31:11.820488,3.174711466,-0.136469498,8.971074104,-0.105252676,0.021050537,-0.010924961,,,,,,
2023-04-21 20:31:11.820488,3.169923067,-0.136469498,8.966285706,-0.105519146,0.021316998,-0.010924961,,,,,,
2023-04-21 20:31:11.820488,3.167528868,-0.138863698,8.966285706,-0.105519146,0.021316998,-0.010924961,,,,,,
2023-04-21 20:31:11.820488,3.167528868,-0.138863698,8.963891029,-0.105519146,0.021050537,-0.011191424,,,,,,
2023-04-21 20:31:11.820488,3.167528868,-0.141257897,8.963891029,-0.105519146,0.020784073,-0.011191424,,,,,,
2023-04-21 20:31:11.820488,,,,,,,-3.098097086,-0.126892686,9.945513725,0.100989282,0.009326187,-0.016254211
2023-04-21 20:31:11.820488,,,,,,,-3.100491285,-0.143652096,9.96466732,0.10178867,0.009859112,-0.016520673
2023-04-21 20:31:11.820488,,,,,,,-3.100491285,-0.146046311,9.962273598,0.10178867,0.009859112,-0.016520673
2023-04-21 20:31:11.820488,,,,,,,-3.100491285,-0.14844051,9.959878922,0.102321595,0.010392036,-0.016787136
2023-04-21 20:31:11.820488,,,,,,,-3.100491285,-0.146046311,9.959878922,0.10285452,0.010658499,-0.017053599
2023-04-21 20:31:11.820488,,,,,,,-3.100491285,-0.146046311,9.955090523,0.10285452,0.010658499,-0.017053599
2023-04-21 20:31:11.820488,,,,,,,-3.100491285,-0.14844051,9.9526968,0.103120975,0.010658499,-0.017053599
2023-04-21 20:31:11.820488,,,,,,,-3.105279684,-0.143652096,9.950302124,0.103387438,0.010392036,-0.017053599
2023-04-21 20:31:11.820488,,,,,,,-3.105279684,-0.141257897,9.950302124,0.103653908,0.010392036,-0.017320061
2023-04-21 20:31:11.820488,,,,,,,-3.102885485,-0.136469498,9.9526968,0.104186833,0.010658499,-0.017320061
2023-04-21 20:31:11.820488,,,,,,,-3.102885485,-0.1316811,9.947908401,0.104719758,0.010392036,-0.017586524
2023-04-21 20:31:11.820488,,,,,,,-3.105279684,-0.129286885,9.943120003,0.104719758,0.010658499,-0.017586524
2023-04-21 20:31:11.820488,,,,,,,-3.102885485,-0.126892686,9.935936928,0.105252676,0.010658499,-0.017586524
2023-04-21 20:31:11.820488,,,,,,,-3.102885485,-0.124498487,9.933543205,0.105519146,0.010658499,-0.017586524
2023-04-21 20:31:11.820488,,,,,,,-3.102885485,-0.117315881,9.931148529,0.105519146,0.010658499,-0.017586524
2023-04-21 20:31:11.903047,3.208230257,-0.095768064,8.951920509,-0.099124044,0.011990812,-0.014655436,,,,,,
2023-04-21 20:31:11.903047,3.213018656,-0.090979666,8.944737434,-0.099390499,0.012257273,-0.014388974,,,,,,
2023-04-21 20:31:11.903047,3.215412855,-0.090979666,8.942343712,-0.099390499,0.012257273,-0.014388974,,,,,,
2023-04-21 20:31:11.903047,3.222595453,-0.088585466,8.937555313,-0.099923424,0.012523737,-0.014388974,,,,,,
2023-04-21 20:31:11.903047,3.224989653,-0.088585466,8.932766914,-0.100456357,0.012257273,-0.014122511,,,,,,
2023-04-21 20:31:11.903047,3.224989653,-0.088585466,8.935160637,-0.100989282,0.012257273,-0.01385605,,,,,,
2023-04-21 20:31:11.903047,3.227383852,-0.090979666,8.935160637,-0.101255737,0.012790199,-0.01385605,,,,,,
2023-04-21 20:31:11.903047,3.23456645,-0.095768064,8.932766914,-0.101522207,0.013323124,-0.013589587,,,,,,
2023-04-21 20:31:11.903047,3.236960649,-0.098162271,8.930372238,-0.101522207,0.013589587,-0.013589587,,,,,,
2023-04-21 20:31:11.903047,3.239354849,-0.098162271,8.930372238,-0.101522207,0.01385605,-0.013056661,,,,,,
2023-04-21 20:31:11.903047,3.236960649,-0.10295067,8.927978516,-0.10178867,0.014388974,-0.013056661,,,,,,
2023-04-21 20:31:11.903047,3.236960649,-0.10295067,8.923190117,-0.10178867,0.014655436,-0.013056661,,,,,,
2023-04-21 20:31:11.903047,3.239354849,-0.105344877,8.925583839,-0.102055125,0.014921899,-0.012790199,,,,,,
2023-04-21 20:31:11.903047,3.241749048,-0.110133275,8.927978516,-0.102321595,0.015721286,-0.012523737,,,,,,
2023-04-21 20:31:11.903047,3.244143248,-0.110133275,8.927978516,-0.102321595,0.015987748,-0.012523737,,,,,,
2023-04-21 20:31:11.903047,,,,,,,-3.08133769,-0.107739076,9.943120003,0.107384384,0.010658499,-0.016787136
2023-04-21 20:31:11.903047,,,,,,,-3.08373189,-0.107739076,9.933543205,0.107384384,0.010924961,-0.016520673
2023-04-21 20:31:11.903047,,,,,,,-3.08373189,-0.107739076,9.92636013,0.107117914,0.011191424,-0.016520673
2023-04-21 20:31:11.903047,,,,,,,-3.08373189,-0.110133275,9.923966408,0.107117914,0.011457887,-0.016520673
2023-04-21 20:31:11.903047,,,,,,,-3.086126089,-0.107739076,9.92636013,0.106851459,0.011457887,-0.016520673
2023-04-21 20:31:11.903047,,,,,,,-3.090914488,-0.110133275,9.923966408,0.106851459,0.011191424,-0.016520673
2023-04-21 20:31:11.903047,,,,,,,-3.093308687,-0.112527482,9.92636013,0.106851459,0.011457887,-0.016520673
2023-04-21 20:31:11.903047,,,,,,,-3.090914488,-0.112527482,9.928754807,0.106851459,0.011457887,-0.016254211
2023-04-21 20:31:11.903047,,,,,,,-3.095702887,-0.112527482,9.931148529,0.107117914,0.011990812,-0.016520673
2023-04-21 20:31:11.903047,,,,,,,-3.100491285,-0.114921682,9.931148529,0.107384384,0.012257273,-0.016520673
2023-04-21 20:31:11.903047,,,,,,,-3.100491285,-0.117315881,9.935936928,0.107384384,0.012523737,-0.016254211
2023-04-21 20:31:11.903047,,,,,,,-3.105279684,-0.119710088,9.933543205,0.107650839,0.012790199,-0.016254211
2023-04-21 20:31:11.903047,,,,,,,-3.110068083,-0.119710088,9.933543205,0.107917301,0.013056661,-0.016254211
2023-04-21 20:31:11.903047,,,,,,,-3.114856482,-0.122104287,9.935936928,0.107917301,0.013056661,-0.016254211
2023-04-21 20:31:11.903047,,,,,,,-3.11964488,-0.122104287,9.938331604,0.108183771,0.013323124,-0.015987748
2023-04-21 20:31:11.983275,3.169923067,-0.117315881,8.971074104,-0.098324656,0.018652374,-0.012790199,,,,,,
2023-04-21 20:31:11.983275,3.172317266,-0.114921682,8.971074104,-0.098591112,0.018385911,-0.012790199,,,,,,
2023-04-21 20:31:11.983275,3.172317266,-0.114921682,8.968679428,-0.098857582,0.018119449,-0.012790199,,,,,,
2023-04-21 20:31:11.983275,3.172317266,-0.119710088,8.966285706,-0.098857582,0.018119449,-0.012790199,,,,,,
2023-04-21 20:31:11.983275,3.172317266,-0.117315881,8.968679428,-0.099124044,0.018119449,-0.012790199,,,,,,
2023-04-21 20:31:11.983275,3.174711466,-0.119710088,8.966285706,-0.099390499,0.018119449,-0.012790199,,,,,,
2023-04-21 20:31:11.983275,3.179499865,-0.117315881,8.963891029,-0.099656969,0.018119449,-0.012790199,,,,,,
2023-04-21 20:31:11.983275,3.184288263,-0.112527482,8.959102631,-0.099923424,0.018119449,-0.013056661,,,,,,
