[0.3125, -0.25, -0.3125]
[2.75, -1.5, -1.75]
[-0.875, 1.25, -1.375]
[-0.5625, -0.6875, -0.25]
[-1.875, 0.25, 0.5625]
[2.5, -0.1875, -0.875]
[-0.75, -0.625, 0.4375]
[-2.0625, 0.375, 0.375]
[2.5625, -0.25, -0.4375]
[-0.8125, -0.5625, 0.5625]
[2.875, -1.0, -0.8125]
[-1.625, 2.5625, 1.5]
[-0.8125, -0.5, -0.625]
[0.5625, 0.0, 0.1875]
[0.4375, -0.1875, -0.25]
[0.375, -0.1875, -0.125]
[0.1875, -0.1875, -0.0625]
[0.125, -0.1875, -0.0625]
[0.3125, -0.1875, -0.1875]
[0.625, -0.1875, -0.25]
[0.625, -0.125, -0.0625]
[0.5, -0.1875, 0.0]
[0.25, -0.1875, -0.125]
[0.5, -0.25, -0.0625]
[0.4375, -0.1875, 0.0625]
[0.1875, -0.1875, 0.0]
[0.1875, -0.125, 0.0]
[0.5, -0.1875, 0.0625]
[0.375, -0.1875, 0.0625]
[0.0625, -0.1875, 0.125]
[0.1875, -0.1875, 0.1875]
[0.3125, -0.1875, -0.0625]
[0.5625, -0.1875, 0.0]
[0.625, -0.1875, -0.125]
[0.75, -0.1875, 0.0]
[0.8125, -0.125, 0.0625]
[0.1875, -0.1875, 0.125]
[0.125, -0.1875, 0.125]
[0.5625, -0.125, 0.0]
[0.5625, -0.125, 0.0]
[0.1875, -0.1875, 0.125]
[0.0, -0.25, 0.1875]
[0.1875, -0.1875, 0.0]
[0.5625, -0.1875, -0.1875]
[0.25, -0.1875, -0.125]
[0.0, -0.1875, -0.125]
[0.375, -0.25, -0.125]
[0.75, -0.1875, -0.125]
[0.5625, -0.125, -0.25]
[0.5625, -0.1875, -0.25]
[0.75, -0.1875, -0.1875]
[0.75, -0.1875, -0.0625]
[0.5, -0.125, 0.0625]
[0.25, -0.1875, 0.1875]
[0.125, -0.125, 0.3125]
[-0.125, -0.1875, 0.4375]
[-0.0625, -0.1875, 0.5]
[-0.0625, -0.1875, 0.4375]
[0.25, -0.125, 0.25]
[0.25, -0.1875, 0.125]
[0.0, -0.0625, -0.125]
[0.4375, 0.0, -0.375]
[0.5, -0.0625, -0.25]
[0.375, 0.0, -0.375]
[0.4375, -0.0625, -0.3125]
[0.4375, 0.0, -0.25]
[0.5, 0.0625, -0.0625]
[0.6875, 0.1875, 0.25]
[1.0, 0.375, 0.25]
[1.125, 0.25, 0.3125]
[0.5, 1.0625, 0.625]
[0.4375, 0.6875, 0.375]
[0.0, 0.5, 0.375]
[0.0625, 0.3125, 0.5625]
[0.0, 0.125, 0.625]
[0.5625, 0.4375, 0.5]
[0.6875, 0.5625, 0.25]
[1.25, 0.5625, 0.375]
[1.0625, 0.5625, 0.5]
[0.625, 0.625, 0.4375]
[1.25, -1.0, 1.5]
[0.1875, -2.25, 2.0625]
[-0.0625, -3.6875, 3.5625]
[-2.25, -2.3125, 2.875]
[0.75, -1.125, 2.125]
[2.3125, -2.75, 3.875]
[1.3125, -3.375, 3.75]
[-2.75, -4.1875, 3.375]
[-0.8125, -3.3125, 3.5]
[2.875, -4.375, 3.875]
[5.6875, -9.5, 7.0625]
[-0.9375, -8.0, 9.0]
[-8.625, -1.0625, 3.5625]
[14.8125, 1.1875, 1.3125]
[17.25, 0.25, 4.875]
[-3.125, -1.125, 3.6875]
[-3.5, -1.8125, 2.9375]
[-1.4375, -1.9375, 1.9375]
[0.1875, -0.125, 1.25]
[2.8125, 0.5, 0.5]
[3.6875, 0.3125, 2.4375]
[3.6875, -2.625, 2.875]
[-5.375, -1.0625, -0.125]
[1.125, -0.3125, 0.4375]
[2.75, 0.5, 0.875]
[2.3125, -0.6875, 2.3125]
[-1.4375, -0.75, 2.0]
[-1.0625, -0.1875, 0.6875]
[3.75, 0.8125, 0.5]
[5.75, 0.125, 2.25]
[-1.9375, 0.0625, 1.75]
[-2.4375, -0.4375, 1.625]
[7.625, 2.0625, 4.3125]
[10.125, 2.5625, -0.375]
[1.5625, 0.625, 1.25]
[4.3125, 1.5625, 2.9375]
[1.6875, 0.9375, 2.0625]
[-0.0625, 0.375, 0.9375]
[0.6875, 0.5625, 2.875]
[-2.125, 1.0625, 1.9375]
[0.25, 0.6875, 1.5625]
[0.25, 1.125, 2.5]
[0.0, 1.4375, 3.4375]
[-2.8125, 1.25, 2.4375]
[0.625, 1.4375, 3.6875]
[-1.1875, 1.625, 4.125]
[-1.4375, 2.1875, 4.125]
[-0.625, 1.75, 3.375]
[-0.5, 1.875, 3.9375]
[-2.0, 1.5625, 3.1875]
[-2.1875, 1.8125, 3.3125]
[-3.0625, 1.125, 2.875]
[-2.5, 1.25, 3.5]
[-1.25, 1.0, 2.8125]
[-1.0625, 0.25, 2.3125]
[-1.5, 0.0625, 1.3125]
[-0.9375, -0.3125, 0.0]
[-0.125, -0.625, -1.3125]
[-1.0625, -1.8125, -1.8125]
[0.25, -2.0625, -3.1875]
[1.0, -2.25, -4.1875]
[2.125, -1.5, -4.375]
[-0.75, -1.625, -4.875]
[-4.5625, -2.0, -1.3125]
[-3.375, -0.75, -1.75]
[1.0, 0.0625, -1.8125]
[-0.5, -0.9375, -1.1875]
[1.125, -0.6875, -1.1875]
[2.125, -0.875, -1.5625]
[-0.875, -1.4375, -0.4375]
[-2.25, -0.75, -1.0625]
[-1.4375, -0.875, -1.125]
[-0.375, -1.5625, -1.5]
[0.8125, -1.6875, -2.9375]
[2.1875, -2.375, -2.1875]
[-1.375, -4.4375, -3.5625]
[2.875, -4.1875, -3.375]
[-3.5, -5.0625, -6.125]
[3.875, -1.25, -4.6875]
[-2.75, -2.0, -1.3125]
[-10.3125, -3.4375, -4.0625]
[-2.0625, -2.125, -2.8125]
[-0.5625, -1.3125, 4.0625]
[-11.4375, -1.5625, 2.3125]
[-12.125, -1.4375, 2.6875]
[-16.75, -1.3125, 4.1875]
[-19.125, -1.625, 7.1875]
[-22.4375, 0.3125, 9.0625]
[-28.4375, 2.0625, 7.625]
[-31.1875, 4.1875, 7.125]
[-33.375, 14.3125, 13.8125]
[-32.875, 22.8125, 16.625]
[-64.0625, 31.8125, 25.4375]
[-80.8125, 36.5, 25.6875]
[-57.9375, 45.3125, 26.3125]
[-28.25, 55.1875, 31.375]
[-27.0625, 56.875, 37.9375]
[-37.1875, 54.0625, 42.0625]
[-34.125, 54.5, 45.8125]
[-24.9375, 54.125, 47.625]
[-5.0, 55.5625, 48.4375]
[13.4375, 56.0625, 49.0625]
[19.5, 57.1875, 49.25]
[25.375, 57.75, 50.3125]
[27.125, 59.0625, 49.375]
[30.9375, 61.125, 48.4375]
[38.0, 61.3125, 46.9375]
[39.4375, 61.625, 43.75]
[36.25, 61.25, 39.9375]
[37.0625, 59.8125, 36.8125]
[33.0625, 57.25, 32.9375]
[26.375, 55.25, 28.8125]
[22.75, 49.5625, 21.9375]
[19.5, 48.0625, 20.3125]
[13.3125, 46.4375, 19.0]
[12.5, 45.3125, 19.9375]
[7.75, 42.6875, 19.5]
[3.125, 41.75, 22.0]
[0.0, 38.5, 23.1875]
[-5.1875, 33.0, 25.1875]
[-9.1875, 28.9375, 28.375]
[-13.25, 22.5, 29.6875]
[-10.375, 16.1875, 30.9375]
[-10.1875, 11.625, 31.4375]
[-12.875, 6.6875, 31.8125]
[-12.5625, 1.5, 32.625]
[-16.0, -3.3125, 33.5625]
[-22.0625, -7.9375, 33.3125]
[-21.0, -10.5, 33.5625]
[-17.1875, -11.8125, 31.5]
[-15.5625, -14.3125, 26.875]
[-11.3125, -17.1875, 22.75]
[-3.5625, -19.1875, 18.0]
[1.75, -18.0625, 12.25]
[5.4375, -17.875, 5.125]
[7.8125, -18.125, -2.25]
[11.5, -16.25, -11.125]
[10.0625, -15.1875, -19.0]
[5.5, -14.4375, -24.9375]
[0.9375, -13.625, -32.3125]
[-3.5, -12.1875, -40.4375]
[-8.4375, -12.125, -50.3125]
[-7.5625, -12.4375, -63.5]
[0.5625, -13.3125, -76.5]
[3.0, -15.0625, -87.9375]
[-3.5, -21.375, -93.9375]
[-15.375, -26.9375, -94.75]
[-27.125, -28.4375, -92.375]
[-38.4375, -31.8125, -91.1875]
[-39.875, -33.5625, -90.1875]
[-38.5, -35.75, -91.125]
[-30.25, -36.0, -92.5625]
[-18.375, -34.75, -89.0]
[-11.8125, -36.75, -80.5]
[-30.25, -42.875, -77.875]
[-27.5625, -42.75, -81.375]
[-5.1875, -39.3125, -89.75]
[10.625, -34.9375, -94.4375]
[20.625, -35.0, -86.125]
[-0.5, -36.5, -73.375]
[-39.875, -39.625, -68.9375]
[-45.3125, -34.5, -67.6875]
[-18.875, -26.375, -65.0625]
[-6.5625, -20.0, -55.5625]
[-32.625, -22.0625, -38.5]
[-77.3125, -22.8125, -23.5625]
[-42.5625, -9.8125, -20.1875]
[-13.4375, 2.5625, -15.9375]
[13.6875, 8.4375, -3.0]
[23.375, 9.125, 10.125]
[24.0, 7.625, 11.625]
[38.1875, 7.4375, 8.375]
[43.0625, 3.75, 8.8125]
[43.625, 0.0625, 12.1875]
[47.0625, -1.625, 14.4375]
[48.8125, -1.375, 15.5]
[58.5, 0.3125, 16.5625]
[69.0, 1.625, 16.5]
[76.375, 2.5, 17.6875]
[71.1875, 1.625, 20.5]
[58.6875, 0.0, 25.625]
[43.5, -3.4375, 32.375]
[28.6875, -9.125, 39.125]
[19.0625, -16.4375, 44.4375]
[16.4375, -20.875, 43.75]
[19.5, -22.625, 40.1875]
[19.625, -22.9375, 35.0625]
[54.0, -23.125, 30.5625]
[51.5625, -29.5, 23.5625]
[22.0, -32.8125, 19.9375]
[-7.4375, -37.5625, 17.875]
[-39.9375, -43.25, 21.9375]
[-77.375, -50.9375, 19.375]
[-40.0, -49.5625, 14.125]
[22.625, -43.3125, -1.0]
[32.25, -31.75, -9.125]
[32.4375, -24.5625, -8.75]
[30.5, -20.8125, -8.625]
[21.9375, -17.0625, -6.3125]
[20.0625, -13.0625, -9.0]
[10.25, -7.6875, -7.6875]
[-1.25, -5.125, -2.75]
[-13.875, -2.0625, -0.3125]
[-11.6875, 1.5, -1.6875]
[1.5625, 3.25, -2.5625]
[4.9375, 4.125, -2.1875]
[0.125, 3.125, -1.4375]
[-4.9375, 2.0625, -1.5625]
[-3.9375, 3.1875, -2.6875]
[-4.375, 3.5625, -3.9375]
[-7.5625, 1.875, -3.625]
[-10.9375, 1.1875, -4.0]
[-11.0, 1.25, -4.0]
[-9.125, 1.8125, -5.625]
[-10.625, 0.8125, -5.75]
[-12.375, 0.125, -4.625]
[-5.1875, -0.1875, -4.625]
[-8.8125, -3.6875, -6.8125]
[-1.6875, -5.125, -3.0625]
[7.8125, -6.25, -1.9375]
[9.125, -6.8125, 1.3125]
[20.625, -7.0, 3.5625]
[27.3125, -6.5625, 3.5625]
[27.5, -4.5625, 2.9375]
[19.5, -1.3125, 0.5625]
[4.1875, -0.6875, 0.6875]
[-4.625, -1.3125, 2.1875]
[0.8125, -1.125, 2.1875]
[6.8125, 0.5, 0.9375]
[6.4375, 0.5, 0.25]
[3.25, 0.0625, 0.5]
[-0.1875, -0.4375, 0.6875]
[-0.6875, -0.375, 0.125]
[1.75, 0.1875, -0.125]
[1.9375, 0.25, -0.125]
[2.5, 0.4375, -0.1875]
[1.6875, 0.3125, -0.125]
[1.0, 0.25, -0.3125]
[1.1875, 0.5, -0.375]
[1.5625, 0.6875, -0.625]
[1.0, 0.9375, -0.75]
[1.1875, 1.125, -0.875]
[1.0625, 1.1875, -1.125]
[1.3125, 1.25, -1.3125]
[0.9375, 1.1875, -1.1875]
[1.0, 1.0, -1.125]
[0.875, 0.9375, -1.1875]
[0.875, 0.8125, -0.9375]
[0.0625, 0.375, -0.625]
[-0.5, 0.25, -0.5]
[-0.125, 0.3125, -0.25]
[0.75, 0.3125, -0.4375]
[0.75, 0.3125, -0.4375]
[0.625, 0.25, -0.125]
[0.0, 0.125, -0.125]
[-0.0625, 0.125, -0.125]
[-0.25, -0.0625, 0.0]
[-0.625, -0.125, 0.0]
[-0.5, -0.0625, 0.0]
[-0.375, -0.0625, 0.0625]
[0.0625, 0.0, -0.125]
[0.0625, 0.0625, -0.125]
[0.0625, -0.0625, -0.3125]
[-0.3125, -0.0625, -0.0625]
[-0.1875, -0.0625, -0.125]
[0.0625, 0.0625, -0.1875]
[0.125, 0.0, -0.125]
[-0.0625, -0.125, -0.125]
[-0.375, 0.0625, 0.0625]
[-0.125, 0.0, -0.1875]
[0.3125, 0.125, -0.0625]
[0.0625, -0.0625, -0.1875]
[0.1875, -0.0625, -0.25]
[0.3125, 0.1875, -0.1875]
[0.25, 0.125, -0.125]
[0.0, 0.125, -0.0625]
[-0.1875, -0.0625, -0.3125]
[0.1875, 0.1875, -0.125]
[0.25, 0.0625, 0.0625]
[-0.5625, -0.125, 0.1875]
[-0.5, -0.0625, 0.0625]
[-0.1875, 0.0625, 0.1875]
[-0.25, -0.0625, 0.1875]
[0.25, -0.375, 0.5625]
[0.1875, -0.75, 0.875]
[0.4375, -1.625, 1.8125]
[-0.8125, -1.5625, 1.8125]
[1.0, -1.3125, 2.0625]
[2.25, -0.875, 2.75]
[5.5, -1.0625, 3.25]
[4.875, -0.875, 5.0625]
[7.875, -6.8125, 9.25]
[10.8125, -7.75, 12.125]
[-7.1875, -1.5625, 7.3125]
[5.75, 3.25, 4.25]
[14.0625, 8.1875, 10.9375]
[-3.5625, 18.3125, 13.9375]
[-7.375, 30.75, 2.5]
[-37.8125, 37.75, 5.9375]
[-54.1875, 41.0625, 6.0625]
[-45.8125, 48.125, 13.375]
[-12.3125, 46.0625, 6.125]
[16.625, 42.4375, 7.9375]
[10.3125, 36.5625, 4.5]
[-41.625, 30.0625, 14.9375]
[-59.5625, 26.0, 21.25]
[-34.1875, 30.0625, 11.375]
[-6.6875, 35.0, 1.8125]
[-25.8125, 29.25, 4.375]
[-44.875, 23.5625, 11.375]
[-27.6875, 18.25, 6.6875]
[1.375, 15.125, 9.25]
[2.8125, 11.4375, 9.4375]
[-5.5, 6.25, 11.9375]
[-6.625, 3.625, 9.75]
[-0.5625, 2.9375, 8.3125]
[0.375, 1.8125, 6.1875]
[-3.625, -0.125, 4.3125]
[-3.1875, 0.0625, 3.25]
[-3.4375, -0.375, 1.0625]
[-3.375, -0.375, 0.5625]
[-3.8125, -0.6875, -0.5625]
[-3.5, 0.3125, -0.1875]
[-1.5625, 0.875, -1.0625]
[1.4375, 1.75, -2.625]
[-1.5, 1.875, -1.6875]
[-3.0, 1.5625, -1.5]
[-1.0, 1.8125, -2.0625]
[-1.3125, 1.625, -2.6875]
[-1.375, 1.1875, -3.25]
[-2.75, 1.375, -3.4375]
[-2.625, 0.9375, -4.1875]
[-3.4375, 0.6875, -3.25]
[-1.75, -0.3125, -3.3125]
[-1.875, -0.375, -3.4375]
[-1.375, 0.0625, -2.5]
[-1.5625, 0.6875, -2.625]
[-2.0625, 0.5625, -2.625]
[0.375, -0.25, -3.625]
[2.3125, -2.375, -6.0625]
[6.5625, -7.125, -9.8125]
[15.0625, -8.5625, -14.0625]
[19.625, -10.5625, -18.6875]
[13.6875, -12.1875, -27.3125]
[10.4375, -7.0, -31.625]
[10.5, -3.5625, -29.375]
[-7.125, -0.8125, -30.4375]
[40.0625, 4.9375, -9.625]
[12.8125, 2.125, -3.625]
[-0.6875, 7.25, 0.1875]
[4.125, 3.125, 13.6875]
[9.4375, 2.6875, 10.0]
[9.6875, 0.9375, -3.0625]
[0.8125, -5.75, 1.625]
[4.25, -10.4375, 6.875]
[13.25, -7.6875, 3.875]
[16.0, -6.4375, 1.0625]
[15.8125, -6.875, 2.125]
[10.75, -6.75, 3.4375]
[8.8125, -4.375, 3.0]
[9.5625, -3.125, 2.625]
[6.3125, -2.375, 2.375]
[1.4375, -1.8125, 1.9375]
[1.4375, -0.5, 1.0]
[2.8125, 1.1875, -0.25]
[-1.625, 1.125, -1.4375]
[-3.125, 0.75, -0.4375]
[-4.8125, 0.6875, -1.375]
[-3.625, -0.125, -1.25]
[-2.75, -0.375, -2.125]
[-1.8125, -0.8125, -1.375]
[1.0625, -0.6875, -0.8125]
[2.0, -0.125, -1.0]
[-0.3125, -0.75, -0.9375]
[-1.6875, -0.6875, -0.1875]
[-0.25, -1.0625, 0.8125]
[0.1875, -0.125, 0.625]
[0.125, 0.375, 0.3125]
[-0.375, 0.75, 0.3125]
[-0.125, 1.1875, 0.375]
[-1.5625, -0.1875, 1.1875]
[-4.4375, 0.875, 1.1875]
[-4.0625, 2.4375, 1.75]
[-3.625, 4.3125, 1.875]
[-6.3125, 6.625, 3.125]
[-4.4375, 8.1875, 6.3125]
[0.125, 13.8125, 8.625]
[4.0625, 21.5625, 7.1875]
[1.0625, 28.0, 7.0]
[-0.1875, 33.0, 10.75]
[-2.375, 39.3125, 17.1875]
[-15.125, 50.5, 18.4375]
[-28.375, 50.625, 26.8125]
[-55.9375, 50.625, 28.25]
[-85.625, 46.4375, 32.5625]
[-101.1875, 33.1875, 30.1875]
[-67.6875, 27.9375, 35.3125]
[-23.5625, 27.0, 43.125]
[-5.6875, 30.375, 36.4375]
[-23.0625, 32.5625, 28.125]
[-61.0625, 28.875, 24.625]
[-107.1875, 20.375, 28.5625]
[-135.25, 11.0, 37.3125]
[-55.9375, 50.625, 28.25]
[-132.5625, 3.25, 35.1875]
[-103.0, -4.125, 27.125]
[-66.375, -10.75, 19.4375]
[-45.125, -18.25, 14.375]
[-48.75, -21.875, 14.125]
[-72.375, -22.9375, 12.5]
[-83.0625, -19.6875, 3.875]
[-55.875, -11.1875, -10.4375]
[-25.3125, -4.0, -21.9375]
[-5.1875, 1.0, -33.5625]
[5.3125, -0.75, -31.25]
[8.25, -2.8125, -27.8125]
[14.5, -9.4375, -14.75]
[16.25, -10.375, -0.8125]
[12.1875, -1.5625, 3.5625]
[26.25, 13.5625, 11.25]
[63.6875, 20.125, 13.5]
[86.875, 18.75, 25.4375]
[59.875, 11.4375, 37.3125]
[38.0625, 4.4375, 38.0]
[20.4375, 1.0625, 27.5625]
[21.0, 4.0, 8.375]
[62.875, 7.6875, 0.0625]
[59.375, 7.875, 4.5625]
[15.875, 4.375, 9.5625]
[-1.25, 10.875, 9.5625]
[25.125, 13.5625, 3.6875]
[15.8125, 9.875, 1.3125]
[-16.625, 10.75, -5.0]
[-29.5, 8.625, -6.0625]
[-14.125, 3.625, -8.0625]
[-19.6875, 1.5, -13.0625]
[-23.3125, 0.0, -18.5625]
[-11.9375, -2.4375, -21.4375]
[0.6875, -6.0, -26.0]
[0.125, -7.375, -22.625]
[-7.875, -6.3125, -21.5]
[-14.3125, -6.6875, -16.75]
[-10.1875, -4.1875, -17.75]
[0.3125, -2.125, -21.1875]
[8.75, 0.125, -19.9375]
[6.9375, 3.3125, -20.875]
[0.6875, 1.0, -17.8125]
[-6.25, 0.0, -11.375]
[-8.625, 1.0625, -9.5625]
[-3.9375, 1.375, -6.4375]
[-1.5, 3.1875, -6.0625]
[1.0, 2.4375, -3.875]
[2.875, 3.8125, -3.25]
[6.25, 7.625, -4.125]
[11.0, 15.5625, -4.25]
[23.125, 22.5625, -4.9375]
[30.875, 18.5, -3.25]
[26.125, 10.25, 2.0625]
[11.4375, 2.875, 8.25]
[5.6875, 1.0625, 7.1875]
[-7.125, 5.0625, 8.0]
[-23.375, 16.125, 15.4375]
[-41.5, 19.125, 24.8125]
[-67.625, 10.3125, 28.8125]
[-81.5625, 1.3125, 23.375]
[-46.625, 0.4375, 17.0625]
[17.125, 1.0, 8.6875]
[22.0, -1.0625, 7.5]
[3.1875, -9.6875, 17.8125]
[-11.0625, -16.0, 26.0625]
[-27.625, -17.6875, 21.6875]
[-34.5, -15.75, 15.4375]
[-20.1875, -12.1875, 9.8125]
[-9.9375, -10.3125, 3.75]
[-12.3125, -8.9375, 1.6875]
[-7.875, -5.5625, 2.75]
[-6.8125, -2.375, 2.9375]
[-2.125, 1.1875, 5.125]
[-1.0625, 1.5, 6.5]
[1.375, 1.25, 8.1875]
[-3.375, 0.375, 8.9375]
[-4.0625, 0.625, 10.1875]
[-1.5, 1.1875, 10.4375]
[0.375, 1.5625, 10.4375]
[3.25, 1.6875, 10.75]
[1.9375, 1.9375, 11.4375]
[0.8125, 2.375, 11.3125]
[0.6875, 2.375, 10.125]
[1.8125, 2.8125, 9.25]
[5.6875, 3.4375, 7.4375]
[4.3125, 3.3125, 6.0625]
[1.75, 3.125, 6.0625]
[1.5, 2.6875, 4.9375]
[-1.5, 1.875, 4.1875]
[-2.75, 1.8125, 2.625]
[-2.4375, 2.0, 1.1875]
[-1.9375, 2.4375, 0.0]
[0.25, 2.125, -1.125]
[0.5625, 1.375, -0.875]
[-0.125, 0.8125, 0.0]
[0.125, -0.0625, 0.1875]
[-0.5625, -0.5625, 1.0]
[0.9375, -0.5, 1.75]
[1.4375, -0.5, 1.0625]
[-1.4375, -0.3125, 2.125]
[-1.8125, 0.625, 2.0]
[1.0625, 2.1875, 1.125]
[3.625, 2.9375, 1.125]
[3.9375, 3.0625, 1.1875]
[1.0, 1.625, 0.5]
[-1.6875, 0.625, 0.5625]
[-1.375, 0.25, 0.25]
[-0.4375, 0.75, 0.375]
[-0.0625, 1.3125, -0.0625]
[0.8125, 1.625, 0.3125]
[0.3125, 1.375, 0.5625]
[0.625, 1.375, 0.6875]
[1.25, 1.625, 0.0625]
[1.1875, 1.375, -1.0]
[0.125, 0.875, -0.875]
[1.25, 0.6875, -1.125]
[2.1875, 0.9375, -1.125]
[5.5625, 2.9375, -2.4375]
[5.5625, 2.0, 3.25]
[-7.5625, 4.0, -0.25]
[-6.0625, 5.0625, -7.875]
[3.9375, 2.4375, -13.8125]
[7.6875, -2.9375, -13.5]
[1.25, 0.6875, -1.125]
[7.6875, -2.9375, -13.5]
[-2.5, -4.5625, -5.9375]
[3.75, -6.5625, 2.9375]
[-1.6875, -3.5, 2.4375]
[-12.0, -2.8125, 3.1875]
[-16.875, -1.125, -5.4375]
[-9.0, -1.0625, -14.5625]
[-1.1875, -1.3125, -14.5]
[-2.8125, -1.6875, -11.9375]
[-11.0, -4.3125, -10.25]
[-11.5625, -5.0, -10.375]
[-6.5625, -5.125, -7.75]
[-0.0625, -4.5, -8.375]
[7.75, -3.6875, -11.6875]
[11.8125, -2.8125, -11.875]
[6.5, -3.5625, -8.8125]
[-0.75, -4.1875, -5.4375]
[-2.8125, -2.5625, -5.4375]
[1.75, -0.625, -7.4375]
[6.25, 0.8125, -10.625]
[4.125, 0.5, -8.3125]
[-0.8125, -0.5625, -5.75]
[-3.0625, -0.875, -5.0]
[-0.125, 0.5625, -5.875]
[3.125, 1.875, -7.1875]
[1.9375, 2.25, -6.75]
[-0.1875, 1.125, -4.4375]
[-1.5625, -0.375, -1.375]
[-2.75, -0.625, -0.625]
[0.75, -0.5, -1.75]
[3.6875, -0.1875, -2.875]
[-0.25, -1.4375, -1.375]
[-3.3125, -3.0625, 0.9375]
[-1.25, -2.75, 1.5]
[0.25, -1.0625, -1.0]
[0.5625, 0.25, -1.5]
[-2.625, 2.1875, -1.375]
[-6.8125, 5.0, 0.1875]
[-6.5, 8.9375, -0.5625]
[-0.375, 14.5625, -3.0625]
[4.4375, 20.5625, -5.375]
[2.625, 23.875, -7.75]
[1.0, 23.625, -8.4375]
[10.75, 21.375, -13.125]
[18.625, 17.75, -16.5625]
[16.8125, 15.5, -17.8125]
[-3.8125, 20.125, -20.0625]
[-29.4375, 24.125, -22.875]
[-45.8125, 32.0, -32.125]
[-27.6875, 34.8125, -36.3125]
[-14.1875, 41.375, -31.4375]
[-35.25, 46.375, -22.625]
[-70.5, 53.1875, -20.0625]
[-90.25, 62.0, -14.9375]
[-88.1875, 71.125, -9.5625]
[-80.3125, 75.8125, 1.125]
[-83.1875, 76.9375, 3.4375]
[-93.5, 77.0, 5.625]
[-100.5, 71.75, 12.3125]
[-89.6875, 50.25, 26.0]
[-78.0, 40.5625, 21.6875]
[-60.5625, 32.3125, 16.1875]
[-41.6875, 14.0625, 5.1875]
[-46.6875, 8.625, 0.4375]
[-53.3125, 5.0625, -1.75]
[-57.9375, 1.8125, -3.25]
[-54.5625, 4.3125, -3.1875]
[-42.25, 8.4375, -5.8125]
[-26.9375, 13.3125, -10.25]
[-16.0625, 17.125, -12.5625]
[-12.8125, 19.125, -11.5]
[-15.4375, 18.75, -10.25]
[-17.875, 17.375, -9.4375]
[-17.0625, 12.4375, -7.3125]
[-8.75, 8.4375, -9.0]
[3.6875, 7.1875, -12.5]
[8.8125, 10.1875, -15.0]
[4.6875, 14.75, -13.9375]
[-1.5625, 14.375, -8.5]
[-4.875, 11.0625, -5.25]
[-7.125, 7.3125, -6.6875]
[-1.1875, 3.8125, -8.625]
[5.875, 0.4375, -10.5625]
[5.625, -2.0625, -11.3125]
[1.5625, -3.75, -10.9375]
[-3.375, -5.0, -10.0]
[-3.1875, -4.0, -9.875]
[0.6875, -1.5625, -10.0625]
[-2.4375, 0.375, -9.0625]
[-2.1875, 1.3125, -6.9375]
[-1.625, 1.375, -5.3125]
[-0.5, 2.25, -4.0]
[-0.25, 2.75, -4.0625]
[1.0, 1.9375, -3.625]
[3.8125, 2.1875, -2.875]
[2.5625, 2.0, -2.75]
[2.0625, 1.0, -1.25]
[-0.125, -1.0625, 0.5]
[-1.0625, -2.875, 0.875]
[2.5625, -3.5625, 0.875]
[3.1875, -3.625, 1.6875]
[-0.625, -4.0, 3.75]
[-4.4375, -4.1875, 5.9375]
[-4.4375, -2.4375, 5.25]
[-15.125, -1.0, 3.1875]
[-22.5625, 4.625, 3.625]
[-26.75, 11.125, 8.6875]
[-39.8125, 12.8125, 9.125]
[-47.4375, 10.5625, 7.8125]
[-52.375, 6.0625, 11.5]
[-49.0, 2.4375, 14.3125]
[-33.75, 1.875, 13.125]
[-5.9375, 3.5, 10.625]
[10.0625, -2.5625, 15.1875]
[6.5625, -12.125, 24.8125]
[2.3125, -26.0625, 30.6875]
[8.75, -33.4375, 37.3125]
[21.8125, -35.25, 38.875]
[31.25, -33.375, 34.1875]
[33.3125, -30.3125, 27.6875]
[20.3125, -26.8125, 22.3125]
[5.3125, -24.5, 22.8125]
[5.3125, -23.0, 24.3125]
[3.625, -20.5, 29.0625]
[4.625, -18.0625, 31.875]
[6.75, -16.25, 29.5]
[6.875, -12.9375, 22.5625]
[6.5625, -9.1875, 14.5]
[1.5625, -9.9375, 8.875]
[-1.4375, -11.0, 5.9375]
[-0.5, -9.4375, 4.0]
[3.75, -7.625, 1.875]
[6.5, -5.6875, 0.875]
[5.0625, -4.1875, 1.1875]
[5.1875, -4.5625, 0.8125]
[1.375, -4.75, 0.4375]
[-4.625, -4.1875, 1.25]
[-5.0, -2.75, 1.875]
[-0.75, -1.375, 0.8125]
[-2.875, -1.0625, 0.875]
[-4.1875, -0.625, 0.9375]
[-1.5, 0.25, 0.875]
[0.8125, 0.8125, 0.3125]
[2.6875, 1.1875, -0.4375]
[4.75, 0.5, -1.125]
[3.4375, -0.8125, -2.3125]
[0.5625, 0.0, -1.6875]
[1.125, 1.6875, -2.3125]
[2.3125, 3.625, -2.25]
[2.125, 6.0, -1.25]
[2.8125, 8.1875, 0.0]
[5.875, 10.6875, 1.5]
[15.75, 8.8125, 6.4375]
[1.75, 7.4375, 6.125]
[-2.6875, 7.3125, 4.1875]
[-1.9375, 7.625, 6.0]
[21.9375, 4.75, -0.8125]
[58.3125, -8.625, -14.5625]
[77.1875, -15.75, -11.4375]
[69.5, -19.4375, 1.6875]
[30.4375, -16.9375, -6.4375]
[-11.3125, -3.0625, -28.5]
[-26.375, 6.25, -38.6875]
[-5.9375, 13.1875, -30.1875]
[15.0625, 10.9375, -18.0625]
[7.125, 9.0625, -14.375]
[-10.3125, 7.8125, -11.5625]
[-12.3125, 3.375, -10.75]
[-2.6875, 4.0625, -12.875]
[5.9375, 5.0, -9.8125]
[-3.875, -0.75, -6.0625]
[-15.1875, -4.0625, -5.4375]
[-2.4375, -7.5, -5.9375]
[12.875, -4.1875, -1.0]
[14.5, -1.3125, -2.5]
[15.1875, 6.25, -6.8125]
[18.25, 6.5625, -8.8125]
[0.4375, 10.4375, -8.9375]
[4.875, 14.0, -9.4375]
[4.0625, 17.0625, -15.0625]
[13.0625, 17.875, -18.5]
[17.375, 15.375, -16.8125]
[20.3125, 21.375, -15.4375]
[7.6875, 22.5, -16.3125]
[0.5625, 22.4375, -11.5]
[4.625, 20.875, -9.875]
[1.9375, 20.875, -11.6875]
[-0.9375, 18.0, -14.125]
[3.625, 17.0, -15.75]
[4.375, 15.625, -17.125]
[-2.75, 15.3125, -18.25]
[-3.5, 14.125, -18.0625]
[-0.5, 16.9375, -17.125]
[-2.25, 16.625, -15.25]
[-4.4375, 12.3125, -12.0625]
[-0.3125, 9.875, -12.8125]
[9.625, 6.0625, -12.3125]
[13.0625, 3.75, -8.5]
[6.9375, 1.0, -7.375]
[5.8125, -2.5, -4.4375]
[7.0, -5.625, -3.625]
[17.1875, -6.8125, -6.25]
[31.75, -4.3125, -10.0]
[41.1875, -2.0, -1.0625]
[24.4375, -2.5625, 5.375]
[13.75, -12.5625, 14.0625]
[22.875, -15.25, 21.125]
[33.0, -24.8125, 23.0]
[44.375, -22.6875, 21.5625]
[53.125, -19.6875, 30.4375]
[40.125, -13.4375, 26.625]
[31.5625, -8.375, 25.4375]
[36.0, -1.5625, 18.9375]
[63.25, -7.3125, 24.8125]
[79.0625, -24.6875, 28.125]
[74.875, -32.5625, 27.0]
[87.9375, -33.4375, 15.0]
[82.8125, -9.0625, -9.5625]
[75.5, 21.9375, -24.125]
[83.8125, 37.875, -22.875]
[69.75, 55.125, -1.75]
[19.9375, 56.375, 11.5]
[-9.125, 58.8125, 13.125]
[12.5, 55.0, 18.0625]
[40.0625, 51.8125, 13.125]
[47.4375, 46.0625, 15.75]
[26.0, 39.0625, 17.0]
[18.3125, 33.875, 20.25]
[25.3125, 30.25, 20.25]
[33.875, 27.5625, 23.125]
[31.9375, 31.125, 18.75]
[20.0, 33.0625, 20.0]
[18.9375, 34.0, 16.5]
[16.6875, 31.25, 15.875]
[2.75, 28.0625, 15.0625]
[-7.75, 26.4375, 12.5625]
[-8.25, 22.4375, 10.9375]
[-6.375, 21.625, 6.5]
[-2.4375, 18.375, 1.875]
[0.6875, 14.75, 0.5]
[0.1875, 10.6875, -1.0625]
[0.5625, 6.375, -3.8125]
[4.875, 1.9375, -5.6875]
[3.6875, -1.875, -5.625]
[-1.5, -5.5625, -4.75]
[-3.0, -8.8125, -5.375]
[-4.8125, -10.875, -2.625]
[-12.875, -11.75, -1.1875]
[-19.25, -13.0625, 1.75]
[-17.75, -14.625, 4.75]
[-21.75, -16.5625, 6.5625]
[-28.0, -22.5, 8.8125]
[-34.625, -24.75, 6.375]
[-27.1875, -23.9375, 5.375]
[-17.0625, -21.5625, 5.0]
[-11.0625, -17.25, 3.875]
[-11.0, -15.4375, 8.1875]
[-4.375, -17.1875, 10.9375]
[-5.4375, -23.0, 11.75]
[-5.25, -32.0, 15.1875]
[-3.0, -38.1875, 20.8125]
[-5.75, -40.8125, 24.25]
[-6.6875, -39.0, 29.75]
[-14.75, -35.5, 35.4375]
[-30.25, -33.5, 41.1875]
[-39.3125, -29.625, 44.5]
[-38.25, -25.5, 42.1875]
[-41.8125, -20.1875, 42.5]
[-57.125, -14.1875, 42.5625]
[-72.5625, -11.3125, 43.75]
[-77.1875, -9.5625, 45.0625]
[-73.625, -7.875, 42.6875]
[-63.5, -6.5625, 41.0625]
[-54.625, -4.5, 36.8125]
[-50.1875, -3.75, 34.125]
[-44.125, -5.1875, 28.125]
[-42.6875, -6.0625, 22.5]
[-44.75, -10.0625, 20.75]
[-43.25, -12.0, 18.0625]
[-42.0625, -10.875, 12.125]
[-45.0625, -10.3125, 9.6875]
[-46.3125, -13.125, 11.9375]
[-48.625, -13.8125, 13.625]
[-46.5, -12.4375, 14.4375]
[-35.625, -7.5625, 13.0]
[-32.375, -4.1875, 8.1875]
[-40.5625, -6.125, 4.8125]
[-50.125, -9.625, 9.5625]
[-54.8125, -10.9375, 10.6875]
[-50.8125, -11.6875, 10.75]
[-52.75, -16.625, 10.75]
[-73.5, -22.9375, 21.875]
[-92.625, -16.5625, 32.125]
[-62.0625, -6.3125, 25.0]
[-34.25, 1.0, 19.5625]
[-30.6875, 4.8125, 13.8125]
[-12.75, 0.3125, 11.125]
[-4.9375, 0.625, 14.25]
[2.375, 5.25, 19.5625]
[1.75, 13.8125, 25.5625]
[20.5, 23.3125, 26.75]
[29.0625, 29.1875, 25.6875]
[10.4375, 29.0, 15.5]
[-1.9375, 20.875, 5.625]
[8.8125, 20.75, -11.0625]
[47.1875, 27.5, -33.5]
[34.9375, 25.4375, -34.3125]
[25.75, 21.375, -36.0625]
[29.8125, 18.125, -48.75]
[63.75, 16.4375, -78.1875]
[100.0, 14.5, -111.5]
[133.1875, 15.125, -125.8125]
[173.8125, 8.9375, -107.375]
[187.1875, -1.1875, -97.3125]
[162.1875, -11.5, -98.1875]
[138.6875, -5.625, -98.4375]
[160.0, -5.8125, -94.375]
[179.25, -6.1875, -88.375]
[156.0, -16.3125, -74.4375]
[111.8125, -24.125, -61.0625]
[80.0, -29.0, -56.4375]
[70.5625, -39.4375, -59.1875]
[64.1875, -52.875, -54.3125]
[30.9375, -60.4375, -54.75]
[12.25, -59.4375, -55.375]
[17.625, -57.75, -46.1875]
[13.5625, -63.875, -29.625]
[-16.0625, -60.0625, -17.1875]
[-42.8125, -45.625, -19.75]
[-52.4375, -30.875, -28.6875]
[-47.375, -26.6875, -36.0]
[-33.5, -26.625, -39.1875]
[-32.4375, -32.5, -38.1875]
[-42.5625, -34.5, -34.375]
[-39.9375, -31.0, -31.125]
[-35.9375, -27.0, -28.0625]
[-28.0625, -23.375, -25.75]
[-15.9375, -19.0625, -23.25]
[-10.5625, -16.25, -21.375]
[-8.3125, -16.5625, -19.5625]
[-12.5, -20.0, -17.625]
[-26.5, -20.5, -17.9375]
[-28.75, -18.6875, -18.5625]
[-17.5625, -19.5, -19.75]
[-1.125, -20.0625, -20.625]
[-1.9375, -19.5625, -20.875]
[-10.3125, -14.0625, -16.5625]
[29.0625, 7.5625, -7.375]
[4.125, 3.75, -1.125]
[-26.25, 1.4375, 0.1875]
[-9.1875, 0.0625, -2.6875]
[19.375, -1.1875, -4.875]
[25.75, -2.1875, -3.8125]
[20.3125, -3.0, -1.0]
[13.6875, -1.625, 1.125]
[7.75, 3.1875, -2.25]
[4.1875, 3.375, -2.8125]
[1.875, 2.0625, -2.5]
[-1.4375, 1.3125, -1.75]
[-0.5625, -0.1875, 0.125]
[4.1875, 1.1875, -0.375]
[3.9375, 1.625, -4.0]
[-1.5, 2.0, -4.625]
[-0.4375, 1.8125, -5.125]
[1.0, 2.3125, -5.375]
[-0.25, 3.1875, -4.9375]
[-1.4375, 2.8125, -4.375]
[-0.9375, 1.3125, -4.125]
[3.5625, 0.25, -3.0]
[5.3125, 1.25, -2.6875]
[3.625, 1.875, -1.625]
[4.4375, 2.4375, -0.75]
[6.3125, 2.375, -1.375]
[6.1875, 2.1875, -1.4375]
