timestamp,EMG_s0,EMG_s1,EMG_s2,EMG_s3,EMG_s4,EMG_s5,EMG_s6,EMG_s7,left_data_Ac_X,left_data_Ac_Y,left_data_Ac_Z,left_data_Gy_X,left_data_Gy_Y,left_data_Gy_Z,left_data_flex_1,left_data_flex_2,left_data_flex_3,left_data_flex_4,left_data_flex_5,right_data_Ac_X,right_data_Ac_Y,right_data_Ac_Z,right_data_Gy_X,right_data_Gy_Y,right_data_Gy_Z,right_data_flex_1,right_data_flex_2,right_data_flex_3,right_data_flex_4,right_data_flex_5
1693678238727929200,-1.0,-2.0,0.0,7.0,8.0,-4.0,-1.0,-1.0,1.016338587,-0.861912608,10.24000072,-0.060620211,0.000532925,-0.007727412,-21.0,45.0,89.0,11.0,-4.0,-0.104147777,2.419340849,10.22563553,0.052759573,-0.027045943,0.038104136,20.0,41.0,-22.0,-25.0,52.0
1693678238734928800,-3.0,-4.0,-8.0,-8.0,-3.0,2.0,-1.0,-1.0,1.016338587,-0.861912608,10.24000072,-0.060620211,0.000532925,-0.007727412,-21.0,45.0,89.0,11.0,-4.0,-0.104147777,2.419340849,10.22563553,0.052759573,-0.027045943,0.038104136,20.0,41.0,-22.0,-25.0,52.0
1693678238735926500,1.0,1.0,7.0,12.0,13.0,1.0,0.0,-1.0,1.016338587,-0.861912608,10.24000072,-0.060620211,0.000532925,-0.007727412,-21.0,45.0,89.0,11.0,-4.0,-0.104147777,2.419340849,10.22563553,0.052759573,-0.027045943,0.038104136,20.0,41.0,-22.0,-25.0,52.0
1693678238737924100,1.0,2.0,-1.0,-10.0,-37.0,0.0,1.0,0.0,1.016338587,-0.861912608,10.24000072,-0.060620211,0.000532925,-0.007727412,-21.0,45.0,89.0,11.0,-4.0,-0.104147777,2.419340849,10.22563553,0.052759573,-0.027045943,0.038104136,20.0,41.0,-22.0,-25.0,52.0
1693678238738923600,-1.0,-1.0,0.0,7.0,40.0,9.0,0.0,-28.0,1.016338587,-0.861912608,10.24000072,-0.060620211,0.000532925,-0.007727412,-21.0,45.0,89.0,11.0,-4.0,-0.104147777,2.419340849,10.22563553,0.052759573,-0.027045943,0.038104136,20.0,41.0,-22.0,-25.0,52.0
1693678238739924700,1.0,0.0,-2.0,-16.0,-93.0,-18.0,1.0,37.0,1.016338587,-0.861912608,10.24000072,-0.060620211,0.000532925,-0.007727412,-21.0,45.0,89.0,11.0,-4.0,-0.104147777,2.419340849,10.22563553,0.052759573,-0.027045943,0.038104136,20.0,41.0,-22.0,-25.0,52.0
1693678238741922800,-1.0,1.0,0.0,7.0,-3.0,1.0,1.0,-1.0,1.016338587,-0.861912608,10.24000072,-0.060620211,0.000532925,-0.007727412,-21.0,45.0,89.0,11.0,-4.0,-0.104147777,2.419340849,10.22563553,0.052759573,-0.027045943,0.038104136,20.0,41.0,-22.0,-25.0,52.0
1693678238742921600,-5.0,-7.0,-20.0,-1.0,65.0,0.0,-4.0,1.0,1.016338587,-0.861912608,10.24000072,-0.060620211,0.000532925,-0.007727412,-21.0,45.0,89.0,11.0,-4.0,-0.104147777,2.419340849,10.22563553,0.052759573,-0.027045943,0.038104136,20.0,41.0,-22.0,-25.0,52.0
1693678238743920500,0.0,1.0,-7.0,-19.0,0.0,-4.0,-1.0,-5.0,1.016338587,-0.861912608,10.24000072,-0.060620211,0.000532925,-0.007727412,-21.0,45.0,89.0,11.0,-4.0,-0.104147777,2.419340849,10.22563553,0.052759573,-0.027045943,0.038104136,20.0,41.0,-22.0,-25.0,52.0
1693678238744920400,1.0,0.0,6.0,4.0,-2.0,2.0,-2.0,-12.0,1.016338587,-0.861912608,10.24000072,-0.060620211,0.000532925,-0.007727412,-21.0,45.0,89.0,11.0,-4.0,-0.104147777,2.419340849,10.22563553,0.052759573,-0.027045943,0.038104136,20.0,41.0,-22.0,-25.0,52.0
1693678238745918100,-1.0,-2.0,-12.0,-32.0,2.0,15.0,2.0,2.0,1.016338587,-0.861912608,10.24000072,-0.060620211,0.000532925,-0.007727412,-21.0,45.0,89.0,11.0,-4.0,-0.104147777,2.419340849,10.22563553,0.052759573,-0.027045943,0.038104136,20.0,41.0,-22.0,-25.0,52.0
1693678238748915500,-1.0,-2.0,-12.0,-32.0,2.0,15.0,2.0,2.0,1.019929886,-0.860715508,10.21965027,-0.060353752,0.000532925,-0.007993874,-31.0,43.0,87.0,10.0,-11.0,-0.10175357,2.41574955,10.21845245,0.053026035,-0.027445635,0.037837673,10.0,35.0,-23.0,-30.0,44.0
1693678238748917800,-2.0,-2.0,6.0,15.0,-21.0,-31.0,-3.0,-3.0,1.019929886,-0.860715508,10.21965027,-0.060353752,0.000532925,-0.007993874,-31.0,43.0,87.0,10.0,-11.0,-0.10175357,2.41574955,10.21845245,0.053026035,-0.027445635,0.037837673,10.0,35.0,-23.0,-30.0,44.0
1693678238749915500,-2.0,-2.0,6.0,15.0,-21.0,-31.0,-3.0,-3.0,1.018732786,-0.861912608,10.22084713,-0.060353752,0.000532925,-0.008127105,-22.0,43.0,87.0,6.0,-11.0,-0.10295067,2.41694665,10.21845245,0.052759573,-0.027445635,0.037970904,19.0,34.0,-23.0,-16.0,48.0
1693678238750915500,-2.0,-2.0,6.0,15.0,-21.0,-31.0,-3.0,-3.0,1.019929886,-0.860715508,10.21965027,-0.060353752,0.000532925,-0.007860643,-26.0,41.0,80.0,13.0,-8.0,-0.106541976,2.41574955,10.21486187,0.052759573,-0.027312404,0.037970904,10.0,31.0,-28.0,-18.0,48.0
1693678238750919800,1.0,2.0,-7.0,33.0,2.0,5.0,3.0,7.0,1.019929886,-0.860715508,10.21965027,-0.060353752,0.000532925,-0.007860643,-26.0,41.0,80.0,13.0,-8.0,-0.106541976,2.41574955,10.21486187,0.052759573,-0.027312404,0.037970904,10.0,31.0,-28.0,-18.0,48.0
1693678238751915500,2.0,6.0,20.0,-15.0,83.0,0.0,-2.0,-7.0,1.019929886,-0.860715508,10.21605873,-0.060220521,0.000532925,-0.007993874,-26.0,46.0,90.0,10.0,-5.0,-0.106541976,2.41574955,10.21605873,0.052759573,-0.027045943,0.037970904,20.0,38.0,-25.0,-18.0,53.0
1693678238752915500,2.0,6.0,20.0,-15.0,83.0,0.0,-2.0,-7.0,1.022324085,-0.863109708,10.21486187,-0.060220521,0.000666156,-0.007993874,-26.0,43.0,83.0,12.0,-7.0,-0.107739076,2.419340849,10.21486187,0.052759573,-0.027045943,0.037837673,18.0,33.0,-29.0,-27.0,46.0
1693678238760908900,0.0,-1.0,1.0,-3.0,30.0,2.0,-2.0,0.0,1.022324085,-0.863109708,10.21486187,-0.060220521,0.000666156,-0.007993874,-26.0,43.0,83.0,12.0,-7.0,-0.107739076,2.419340849,10.21486187,0.052759573,-0.027045943,0.037837673,18.0,33.0,-29.0,-27.0,46.0
1693678238761909400,-2.0,-2.0,-8.0,-16.0,-11.0,4.0,-1.0,-5.0,1.022324085,-0.863109708,10.21486187,-0.060220521,0.000666156,-0.007993874,-26.0,43.0,83.0,12.0,-7.0,-0.107739076,2.419340849,10.21486187,0.052759573,-0.027045943,0.037837673,18.0,33.0,-29.0,-27.0,46.0
1693678238777903100,0.0,0.0,-2.0,4.0,23.0,13.0,2.0,8.0,1.022324085,-0.863109708,10.21486187,-0.060220521,0.000666156,-0.007993874,-26.0,43.0,83.0,12.0,-7.0,-0.107739076,2.419340849,10.21486187,0.052759573,-0.027045943,0.037837673,18.0,33.0,-29.0,-27.0,46.0
1693678238778921800,-1.0,-5.0,-24.0,-25.0,-20.0,0.0,1.0,-3.0,1.022324085,-0.863109708,10.21486187,-0.060220521,0.000666156,-0.007993874,-26.0,43.0,83.0,12.0,-7.0,-0.107739076,2.419340849,10.21486187,0.052759573,-0.027045943,0.037837673,18.0,33.0,-29.0,-27.0,46.0
1693678238783897200,-2.0,2.0,25.0,32.0,-97.0,-26.0,-4.0,-5.0,1.022324085,-0.863109708,10.21486187,-0.060220521,0.000666156,-0.007993874,-26.0,43.0,83.0,12.0,-7.0,-0.107739076,2.419340849,10.21486187,0.052759573,-0.027045943,0.037837673,18.0,33.0,-29.0,-27.0,46.0
1693678238784919000,0.0,-2.0,-2.0,-4.0,68.0,10.0,0.0,-2.0,1.022324085,-0.863109708,10.21486187,-0.060220521,0.000666156,-0.007993874,-26.0,43.0,83.0,12.0,-7.0,-0.107739076,2.419340849,10.21486187,0.052759573,-0.027045943,0.037837673,18.0,33.0,-29.0,-27.0,46.0
1693678238800885100,0.0,-2.0,-2.0,-4.0,68.0,10.0,0.0,-2.0,1.022324085,-0.863109708,10.23880386,-0.060353752,0.000799387,-0.007727412,-18.0,42.0,88.0,11.0,-10.0,-0.110133275,2.421735048,10.22683239,0.053292494,-0.027712099,0.038104136,19.0,30.0,-28.0,-23.0,49.0
1693678238800890000,-2.0,-2.0,10.0,4.0,-87.0,-8.0,-2.0,5.0,1.022324085,-0.863109708,10.23880386,-0.060353752,0.000799387,-0.007727412,-18.0,42.0,88.0,11.0,-10.0,-0.110133275,2.421735048,10.22683239,0.053292494,-0.027712099,0.038104136,19.0,30.0,-28.0,-23.0,49.0
1693678238801885100,-2.0,-2.0,10.0,4.0,-87.0,-8.0,-2.0,5.0,1.021126986,-0.864306808,10.23760605,-0.060220521,0.000932619,-0.007594181,-33.0,39.0,76.0,6.0,-10.0,-0.110133275,2.419340849,10.22563553,0.053159267,-0.027445635,0.037970904,15.0,35.0,-20.0,-24.0,49.0
1693678238802885100,-2.0,-2.0,10.0,4.0,-87.0,-8.0,-2.0,5.0,1.019929886,-0.864306808,10.24000072,-0.060353752,0.000799387,-0.007594181,-30.0,41.0,90.0,8.0,-8.0,-0.111330383,2.419340849,10.22443867,0.053026035,-0.027445635,0.037970904,20.0,41.0,-20.0,-23.0,55.0
1693678238802888600,-1.0,4.0,-12.0,-10.0,44.0,10.0,-1.0,-5.0,1.019929886,-0.864306808,10.24000072,-0.060353752,0.000799387,-0.007594181,-30.0,41.0,90.0,8.0,-8.0,-0.111330383,2.419340849,10.22443867,0.053026035,-0.027445635,0.037970904,20.0,41.0,-20.0,-23.0,55.0
1693678238803885100,-1.0,4.0,-12.0,-10.0,44.0,10.0,-1.0,-5.0,1.017535686,-0.863109708,10.24119759,-0.060353752,0.000799387,-0.007594181,-21.0,43.0,88.0,7.0,-7.0,-0.111330383,2.419340849,10.22683239,0.053026035,-0.027312404,0.037970904,15.0,30.0,-29.0,-27.0,52.0
1693678238804885100,-1.0,4.0,-12.0,-10.0,44.0,10.0,-1.0,-5.0,1.018732786,-0.864306808,10.24598598,-0.060220521,0.000932619,-0.007860643,-20.0,59.0,90.0,11.0,-17.0,-0.112527482,2.420537949,10.22683239,0.0528928,-0.027179174,0.037970904,14.0,42.0,-22.0,-23.0,53.0
1693678238806883300,3.0,2.0,24.0,-3.0,7.0,-29.0,3.0,2.0,1.018732786,-0.864306808,10.24598598,-0.060220521,0.000932619,-0.007860643,-20.0,59.0,90.0,11.0,-17.0,-0.112527482,2.420537949,10.22683239,0.0528928,-0.027179174,0.037970904,14.0,42.0,-22.0,-23.0,53.0
1693678238807900600,-7.0,-9.0,-61.0,-65.0,-80.0,22.0,-4.0,-4.0,1.018732786,-0.864306808,10.24598598,-0.060220521,0.000932619,-0.007860643,-20.0,59.0,90.0,11.0,-17.0,-0.112527482,2.420537949,10.22683239,0.0528928,-0.027179174,0.037970904,14.0,42.0,-22.0,-23.0,53.0
1693678238808904700,0.0,4.0,51.0,64.0,-11.0,-33.0,-4.0,5.0,1.018732786,-0.864306808,10.24598598,-0.060220521,0.000932619,-0.007860643,-20.0,59.0,90.0,11.0,-17.0,-0.112527482,2.420537949,10.22683239,0.0528928,-0.027179174,0.037970904,14.0,42.0,-22.0,-23.0,53.0
1693678238809903500,-9.0,-26.0,-115.0,-106.0,12.0,17.0,-3.0,-11.0,1.018732786,-0.864306808,10.24598598,-0.060220521,0.000932619,-0.007860643,-20.0,59.0,90.0,11.0,-17.0,-0.112527482,2.420537949,10.22683239,0.0528928,-0.027179174,0.037970904,14.0,42.0,-22.0,-23.0,53.0
1693678238828892500,7.0,30.0,88.0,117.0,41.0,11.0,3.0,5.0,1.018732786,-0.864306808,10.24598598,-0.060220521,0.000932619,-0.007860643,-20.0,59.0,90.0,11.0,-17.0,-0.112527482,2.420537949,10.22683239,0.0528928,-0.027179174,0.037970904,14.0,42.0,-22.0,-23.0,53.0
1693678238832872300,0.0,-5.0,-20.0,-17.0,-21.0,-6.0,1.0,0.0,1.018732786,-0.864306808,10.24598598,-0.060220521,0.000932619,-0.007860643,-20.0,59.0,90.0,11.0,-17.0,-0.112527482,2.420537949,10.22683239,0.0528928,-0.027179174,0.037970904,14.0,42.0,-22.0,-23.0,53.0
1693678238833871100,-5.0,-15.0,-42.0,-7.0,31.0,-1.0,-6.0,-3.0,1.018732786,-0.864306808,10.24598598,-0.060220521,0.000932619,-0.007860643,-20.0,59.0,90.0,11.0,-17.0,-0.112527482,2.420537949,10.22683239,0.0528928,-0.027179174,0.037970904,14.0,42.0,-22.0,-23.0,53.0
1693678238834870400,-1.0,-11.0,25.0,47.0,-59.0,-13.0,1.0,-1.0,1.018732786,-0.864306808,10.24598598,-0.060220521,0.000932619,-0.007860643,-20.0,59.0,90.0,11.0,-17.0,-0.112527482,2.420537949,10.22683239,0.0528928,-0.027179174,0.037970904,14.0,42.0,-22.0,-23.0,53.0
1693678238852860600,-12.0,-18.0,-128.0,-9.0,90.0,36.0,-9.0,-7.0,1.018732786,-0.864306808,10.24598598,-0.060220521,0.000932619,-0.007860643,-20.0,59.0,90.0,11.0,-17.0,-0.112527482,2.420537949,10.22683239,0.0528928,-0.027179174,0.037970904,14.0,42.0,-22.0,-23.0,53.0
1693678238853859600,14.0,32.0,35.0,-20.0,-87.0,-43.0,8.0,8.0,1.018732786,-0.864306808,10.24598598,-0.060220521,0.000932619,-0.007860643,-20.0,59.0,90.0,11.0,-17.0,-0.112527482,2.420537949,10.22683239,0.0528928,-0.027179174,0.037970904,14.0,42.0,-22.0,-23.0,53.0
1693678238858868500,14.0,32.0,35.0,-20.0,-87.0,-43.0,8.0,8.0,1.028309584,-0.863109708,10.23640919,-0.06008729,0.000932619,-0.007594181,-22.0,46.0,85.0,12.0,-7.0,-0.112527482,2.422932148,10.23042393,0.052759573,-0.027445635,0.038370594,19.0,35.0,-20.0,-19.0,52.0
1693678238858875300,10.0,27.0,59.0,27.0,15.0,-1.0,4.0,7.0,1.028309584,-0.863109708,10.23640919,-0.06008729,0.000932619,-0.007594181,-22.0,46.0,85.0,12.0,-7.0,-0.112527482,2.422932148,10.23042393,0.052759573,-0.027445635,0.038370594,19.0,35.0,-20.0,-19.0,52.0
1693678238859868500,10.0,27.0,59.0,27.0,15.0,-1.0,4.0,7.0,1.030703783,-0.866701007,10.23640919,-0.06008729,0.000932619,-0.007460949,-24.0,38.0,90.0,12.0,-15.0,-0.108936176,2.424129248,10.22683239,0.0528928,-0.027578866,0.038237367,20.0,37.0,-20.0,-21.0,52.0
1693678238860868400,-2.0,11.0,28.0,-20.0,-30.0,-49.0,-3.0,-3.0,1.030703783,-0.866701007,10.23640919,-0.06008729,0.000932619,-0.007460949,-24.0,38.0,90.0,12.0,-15.0,-0.108936176,2.424129248,10.22683239,0.0528928,-0.027578866,0.038237367,20.0,37.0,-20.0,-21.0,52.0
1693678238860868500,-2.0,11.0,28.0,-20.0,-30.0,-49.0,-3.0,-3.0,1.029506683,-0.870292306,10.23640919,-0.06008729,0.000799387,-0.007327718,-22.0,41.0,88.0,10.0,-9.0,-0.108936176,2.422932148,10.22683239,0.0528928,-0.027445635,0.038237367,20.0,36.0,-25.0,-20.0,50.0
1693678238861868500,-2.0,11.0,28.0,-20.0,-30.0,-49.0,-3.0,-3.0,1.027112484,-0.865503907,10.23640919,-0.06008729,0.000799387,-0.007194487,-20.0,46.0,87.0,12.0,-9.0,-0.112527482,2.425326347,10.22802925,0.053026035,-0.027578866,0.038104136,16.0,30.0,-28.0,-23.0,47.0
1693678238862868500,-2.0,11.0,28.0,-20.0,-30.0,-49.0,-3.0,-3.0,1.028309584,-0.864306808,10.24000072,-0.06008729,0.000799387,-0.007327718,-18.0,45.0,87.0,12.0,-9.0,-0.112527482,2.424129248,10.22802925,0.052759573,-0.027578866,0.038104136,13.0,30.0,-30.0,-26.0,49.0
1693678238881844500,5.0,-1.0,15.0,22.0,-46.0,-32.0,2.0,1.0,1.028309584,-0.864306808,10.24000072,-0.06008729,0.000799387,-0.007327718,-18.0,45.0,87.0,12.0,-9.0,-0.112527482,2.424129248,10.22802925,0.052759573,-0.027578866,0.038104136,13.0,30.0,-30.0,-26.0,49.0
1693678238882864800,-3.0,-1.0,35.0,28.0,2.0,71.0,-4.0,-5.0,1.028309584,-0.864306808,10.24000072,-0.06008729,0.000799387,-0.007327718,-18.0,45.0,87.0,12.0,-9.0,-0.112527482,2.424129248,10.22802925,0.052759573,-0.027578866,0.038104136,13.0,30.0,-30.0,-26.0,49.0
1693678238901829600,-3.0,-1.0,35.0,28.0,2.0,71.0,-4.0,-5.0,1.019929886,-0.851138711,10.24119759,-0.060353752,0.000399694,-0.007061256,-28.0,43.0,86.0,8.0,-9.0,-0.105344877,2.425326347,10.22683239,0.052759573,-0.027445635,0.038104136,16.0,37.0,-29.0,-26.0,52.0
1693678238902829600,-3.0,-1.0,35.0,28.0,2.0,71.0,-4.0,-5.0,1.024718285,-0.85353291,10.23760605,-0.060353752,0.000532925,-0.007194487,-31.0,39.0,83.0,6.0,-7.0,-0.105344877,2.424129248,10.23162079,0.0528928,-0.027445635,0.037970904,20.0,39.0,-29.0,-16.0,50.0
1693678238903829600,-3.0,-1.0,35.0,28.0,2.0,71.0,-4.0,-5.0,1.022324085,-0.85353291,10.23521233,-0.060353752,0.000399694,-0.007194487,-27.0,39.0,88.0,8.0,-10.0,-0.104147777,2.422932148,10.22443867,0.0528928,-0.027845331,0.038370594,18.0,39.0,-24.0,-21.0,52.0
1693678238904829600,-3.0,-1.0,35.0,28.0,2.0,71.0,-4.0,-5.0,1.018732786,-0.85473001,10.24119759,-0.06008729,0.000399694,-0.007194487,-28.0,43.0,87.0,13.0,-4.0,-0.105344877,2.422932148,10.22204399,0.053026035,-0.027845331,0.038370594,14.0,37.0,-24.0,-31.0,51.0
1693678238905829600,-3.0,-1.0,35.0,28.0,2.0,71.0,-4.0,-5.0,1.018732786,-0.85473001,10.24000072,-0.06008729,0.000532925,-0.007194487,-28.0,37.0,89.0,11.0,-11.0,-0.107739076,2.424129248,10.22443867,0.0528928,-0.027712099,0.038370594,10.0,28.0,-23.0,-24.0,51.0
1693678238906826600,-12.0,-30.0,-89.0,-15.0,9.0,12.0,0.0,-5.0,1.018732786,-0.85473001,10.24000072,-0.06008729,0.000532925,-0.007194487,-28.0,37.0,89.0,11.0,-11.0,-0.107739076,2.424129248,10.22443867,0.0528928,-0.027712099,0.038370594,10.0,28.0,-23.0,-24.0,51.0
1693678238909284300,-8.0,-34.0,-109.0,-109.0,97.0,84.0,17.0,-1.0,1.018732786,-0.85473001,10.24000072,-0.06008729,0.000532925,-0.007194487,-28.0,37.0,89.0,11.0,-11.0,-0.107739076,2.424129248,10.22443867,0.0528928,-0.027712099,0.038370594,10.0,28.0,-23.0,-24.0,51.0
1693678238909284300,11.0,35.0,59.0,87.0,-70.0,-69.0,-10.0,2.0,1.018732786,-0.85473001,10.24000072,-0.06008729,0.000532925,-0.007194487,-28.0,37.0,89.0,11.0,-11.0,-0.107739076,2.424129248,10.22443867,0.0528928,-0.027712099,0.038370594,10.0,28.0,-23.0,-24.0,51.0
1693678238910283200,-1.0,-3.0,-45.0,-83.0,-9.0,38.0,20.0,5.0,1.018732786,-0.85473001,10.24000072,-0.06008729,0.000532925,-0.007194487,-28.0,37.0,89.0,11.0,-11.0,-0.107739076,2.424129248,10.22443867,0.0528928,-0.027712099,0.038370594,10.0,28.0,-23.0,-24.0,51.0
1693678238912279000,-9.0,-37.0,-73.0,-87.0,49.0,-23.0,-15.0,-7.0,1.018732786,-0.85473001,10.24000072,-0.06008729,0.000532925,-0.007194487,-28.0,37.0,89.0,11.0,-11.0,-0.107739076,2.424129248,10.22443867,0.0528928,-0.027712099,0.038370594,10.0,28.0,-23.0,-24.0,51.0
1693678238914279500,1.0,10.0,1.0,102.0,73.0,-2.0,-28.0,-5.0,1.018732786,-0.85473001,10.24000072,-0.06008729,0.000532925,-0.007194487,-28.0,37.0,89.0,11.0,-11.0,-0.107739076,2.424129248,10.22443867,0.0528928,-0.027712099,0.038370594,10.0,28.0,-23.0,-24.0,51.0
1693678238916285900,-2.0,-8.0,-75.0,-43.0,7.0,-4.0,-3.0,0.0,1.018732786,-0.85473001,10.24000072,-0.06008729,0.000532925,-0.007194487,-28.0,37.0,89.0,11.0,-11.0,-0.107739076,2.424129248,10.22443867,0.0528928,-0.027712099,0.038370594,10.0,28.0,-23.0,-24.0,51.0
1693678238917276500,-31.0,-77.0,-107.0,-89.0,41.0,38.0,28.0,-19.0,1.018732786,-0.85473001,10.24000072,-0.06008729,0.000532925,-0.007194487,-28.0,37.0,89.0,11.0,-11.0,-0.107739076,2.424129248,10.22443867,0.0528928,-0.027712099,0.038370594,10.0,28.0,-23.0,-24.0,51.0
1693678238926293100,28.0,65.0,127.0,74.0,-7.0,-36.0,4.0,16.0,1.018732786,-0.85473001,10.24000072,-0.06008729,0.000532925,-0.007194487,-28.0,37.0,89.0,11.0,-11.0,-0.107739076,2.424129248,10.22443867,0.0528928,-0.027712099,0.038370594,10.0,28.0,-23.0,-24.0,51.0
1693678238927270900,-3.0,-7.0,-23.0,-89.0,-13.0,22.0,53.0,5.0,1.018732786,-0.85473001,10.24000072,-0.06008729,0.000532925,-0.007194487,-28.0,37.0,89.0,11.0,-11.0,-0.107739076,2.424129248,10.22443867,0.0528928,-0.027712099,0.038370594,10.0,28.0,-23.0,-24.0,51.0
1693678238928274000,-15.0,-40.0,-113.0,-94.0,6.0,11.0,-34.0,-9.0,1.018732786,-0.85473001,10.24000072,-0.06008729,0.000532925,-0.007194487,-28.0,37.0,89.0,11.0,-11.0,-0.107739076,2.424129248,10.22443867,0.0528928,-0.027712099,0.038370594,10.0,28.0,-23.0,-24.0,51.0
1693678238931270000,23.0,59.0,127.0,125.0,-58.0,-58.0,6.0,6.0,1.018732786,-0.85473001,10.24000072,-0.06008729,0.000532925,-0.007194487,-28.0,37.0,89.0,11.0,-11.0,-0.107739076,2.424129248,10.22443867,0.0528928,-0.027712099,0.038370594,10.0,28.0,-23.0,-24.0,51.0
1693678238935269300,-8.0,-20.0,-16.0,88.0,-18.0,0.0,-4.0,-1.0,1.018732786,-0.85473001,10.24000072,-0.06008729,0.000532925,-0.007194487,-28.0,37.0,89.0,11.0,-11.0,-0.107739076,2.424129248,10.22443867,0.0528928,-0.027712099,0.038370594,10.0,28.0,-23.0,-24.0,51.0
1693678238936287600,7.0,40.0,74.0,-33.0,-34.0,-52.0,-13.0,-5.0,1.018732786,-0.85473001,10.24000072,-0.06008729,0.000532925,-0.007194487,-28.0,37.0,89.0,11.0,-11.0,-0.107739076,2.424129248,10.22443867,0.0528928,-0.027712099,0.038370594,10.0,28.0,-23.0,-24.0,51.0
1693678238948259500,-7.0,-14.0,-40.0,-75.0,-22.0,1.0,8.0,0.0,1.018732786,-0.85473001,10.24000072,-0.06008729,0.000532925,-0.007194487,-28.0,37.0,89.0,11.0,-11.0,-0.107739076,2.424129248,10.22443867,0.0528928,-0.027712099,0.038370594,10.0,28.0,-23.0,-24.0,51.0
1693678238950256900,12.0,35.0,53.0,88.0,-48.0,46.0,92.0,15.0,1.018732786,-0.85473001,10.24000072,-0.06008729,0.000532925,-0.007194487,-28.0,37.0,89.0,11.0,-11.0,-0.107739076,2.424129248,10.22443867,0.0528928,-0.027712099,0.038370594,10.0,28.0,-23.0,-24.0,51.0
1693678238957253300,-8.0,-23.0,-117.0,-42.0,50.0,8.0,-77.0,-3.0,1.018732786,-0.85473001,10.24000072,-0.06008729,0.000532925,-0.007194487,-28.0,37.0,89.0,11.0,-11.0,-0.107739076,2.424129248,10.22443867,0.0528928,-0.027712099,0.038370594,10.0,28.0,-23.0,-24.0,51.0
1693678238958254100,6.0,18.0,33.0,-4.0,-33.0,-39.0,-10.0,-7.0,1.018732786,-0.85473001,10.24000072,-0.06008729,0.000532925,-0.007194487,-28.0,37.0,89.0,11.0,-11.0,-0.107739076,2.424129248,10.22443867,0.0528928,-0.027712099,0.038370594,10.0,28.0,-23.0,-24.0,51.0
1693678238972242800,6.0,18.0,33.0,-4.0,-33.0,-39.0,-10.0,-7.0,1.021126986,-0.85592711,10.23880386,-0.060486984,0.000799387,-0.007327718,-26.0,41.0,85.0,7.0,-9.0,-0.107739076,2.421735048,10.23640919,0.052626338,-0.027712099,0.038104136,20.0,33.0,-24.0,-20.0,52.0
1693678238972245600,-5.0,-4.0,-5.0,-19.0,64.0,-17.0,-11.0,-9.0,1.021126986,-0.85592711,10.23880386,-0.060486984,0.000799387,-0.007327718,-26.0,41.0,85.0,7.0,-9.0,-0.107739076,2.421735048,10.23640919,0.052626338,-0.027712099,0.038104136,20.0,33.0,-24.0,-20.0,52.0
1693678238973242800,-5.0,-4.0,-5.0,-19.0,64.0,-17.0,-11.0,-9.0,1.021126986,-0.85353291,10.23880386,-0.060353752,0.000666156,-0.007327718,-16.0,41.0,85.0,12.0,-8.0,-0.107739076,2.421735048,10.23401546,0.052759573,-0.027712099,0.038104136,18.0,30.0,-21.0,-24.0,52.0
1693678238973246000,0.0,-4.0,6.0,-95.0,11.0,-1.0,-65.0,-1.0,1.021126986,-0.85353291,10.23880386,-0.060353752,0.000666156,-0.007327718,-16.0,41.0,85.0,12.0,-8.0,-0.107739076,2.421735048,10.23401546,0.052759573,-0.027712099,0.038104136,18.0,30.0,-21.0,-24.0,52.0
1693678238974242800,0.0,-4.0,6.0,-95.0,11.0,-1.0,-65.0,-1.0,1.021126986,-0.852335811,10.23640919,-0.060486984,0.000532925,-0.007460949,-27.0,42.0,84.0,12.0,-7.0,-0.108936176,2.420537949,10.22922707,0.052759573,-0.027712099,0.038104136,20.0,37.0,-31.0,-24.0,53.0
1693678238975242800,0.0,-4.0,6.0,-95.0,11.0,-1.0,-65.0,-1.0,1.022324085,-0.85592711,10.23401546,-0.060486984,0.000399694,-0.007327718,-23.0,51.0,87.0,13.0,-7.0,-0.108936176,2.420537949,10.22324085,0.053026035,-0.027712099,0.038104136,16.0,35.0,-32.0,-27.0,46.0
1693678238976242800,0.0,-4.0,6.0,-95.0,11.0,-1.0,-65.0,-1.0,1.023521185,-0.859518409,10.23042393,-0.060486984,0.000399694,-0.007327718,-23.0,42.0,81.0,10.0,-8.0,-0.107739076,2.422932148,10.22204399,0.0528928,-0.027578866,0.038104136,19.0,33.0,-21.0,-22.0,52.0
1693678238987237800,-3.0,-9.0,-74.0,-89.0,11.0,22.0,40.0,-2.0,1.023521185,-0.859518409,10.23042393,-0.060486984,0.000399694,-0.007327718,-23.0,42.0,81.0,10.0,-8.0,-0.107739076,2.422932148,10.22204399,0.0528928,-0.027578866,0.038104136,19.0,33.0,-21.0,-22.0,52.0
1693678238988236300,-5.0,-5.0,22.0,94.0,-25.0,-12.0,-24.0,1.0,1.023521185,-0.859518409,10.23042393,-0.060486984,0.000399694,-0.007327718,-23.0,42.0,81.0,10.0,-8.0,-0.107739076,2.422932148,10.22204399,0.0528928,-0.027578866,0.038104136,19.0,33.0,-21.0,-22.0,52.0
1693678239002238200,0.0,-7.0,-26.0,-14.0,40.0,50.0,10.0,0.0,1.023521185,-0.859518409,10.23042393,-0.060486984,0.000399694,-0.007327718,-23.0,42.0,81.0,10.0,-8.0,-0.107739076,2.422932148,10.22204399,0.0528928,-0.027578866,0.038104136,19.0,33.0,-21.0,-22.0,52.0
1693678239004226900,-6.0,-10.0,-31.0,15.0,-11.0,-30.0,-2.0,-4.0,1.023521185,-0.859518409,10.23042393,-0.060486984,0.000399694,-0.007327718,-23.0,42.0,81.0,10.0,-8.0,-0.107739076,2.422932148,10.22204399,0.0528928,-0.027578866,0.038104136,19.0,33.0,-21.0,-22.0,52.0
1693678239006226700,11.0,24.0,46.0,3.0,-12.0,7.0,12.0,5.0,1.023521185,-0.859518409,10.23042393,-0.060486984,0.000399694,-0.007327718,-23.0,42.0,81.0,10.0,-8.0,-0.107739076,2.422932148,10.22204399,0.0528928,-0.027578866,0.038104136,19.0,33.0,-21.0,-22.0,52.0
1693678239007225500,-5.0,-22.0,-52.0,-44.0,-5.0,12.0,20.0,0.0,1.023521185,-0.859518409,10.23042393,-0.060486984,0.000399694,-0.007327718,-23.0,42.0,81.0,10.0,-8.0,-0.107739076,2.422932148,10.22204399,0.0528928,-0.027578866,0.038104136,19.0,33.0,-21.0,-22.0,52.0
1693678239025215400,3.0,8.0,51.0,46.0,-14.0,11.0,24.0,3.0,1.023521185,-0.859518409,10.23042393,-0.060486984,0.000399694,-0.007327718,-23.0,42.0,81.0,10.0,-8.0,-0.107739076,2.422932148,10.22204399,0.0528928,-0.027578866,0.038104136,19.0,33.0,-21.0,-22.0,52.0
1693678239031216100,3.0,7.0,-6.0,13.0,27.0,-2.0,-17.0,3.0,1.023521185,-0.859518409,10.23042393,-0.060486984,0.000399694,-0.007327718,-23.0,42.0,81.0,10.0,-8.0,-0.107739076,2.422932148,10.22204399,0.0528928,-0.027578866,0.038104136,19.0,33.0,-21.0,-22.0,52.0
1693678239032208500,3.0,7.0,-6.0,13.0,27.0,-2.0,-17.0,3.0,1.017535686,-0.858321309,10.22204399,-0.060886677,0.000133231,-0.007727412,-27.0,38.0,88.0,8.0,-11.0,-0.112527482,2.421735048,10.21965027,0.052759573,-0.027845331,0.038370594,23.0,44.0,-23.0,-19.0,55.0
1693678239033208500,3.0,7.0,-6.0,13.0,27.0,-2.0,-17.0,3.0,1.019929886,-0.860715508,10.21725559,-0.060753446,0.000266462,-0.007727412,-27.0,46.0,85.0,6.0,-11.0,-0.116118781,2.420537949,10.21965027,0.052759573,-0.027845331,0.038237367,18.0,36.0,-23.0,-25.0,52.0
1693678239033222000,-1.0,9.0,37.0,-6.0,-29.0,11.0,14.0,-2.0,1.019929886,-0.860715508,10.21725559,-0.060753446,0.000266462,-0.007727412,-27.0,46.0,85.0,6.0,-11.0,-0.116118781,2.420537949,10.21965027,0.052759573,-0.027845331,0.038237367,18.0,36.0,-23.0,-25.0,52.0
1693678239034208500,-1.0,9.0,37.0,-6.0,-29.0,11.0,14.0,-2.0,1.019929886,-0.863109708,10.21845245,-0.060620211,0.000399694,-0.007727412,-24.0,51.0,89.0,13.0,-9.0,-0.112527482,2.421735048,10.22443867,0.0528928,-0.027712099,0.038237367,12.0,34.0,-25.0,-22.0,52.0
1693678239034221100,-2.0,-4.0,-3.0,3.0,-16.0,-13.0,-3.0,-3.0,1.019929886,-0.863109708,10.21845245,-0.060620211,0.000399694,-0.007727412,-24.0,51.0,89.0,13.0,-9.0,-0.112527482,2.421735048,10.22443867,0.0528928,-0.027712099,0.038237367,12.0,34.0,-25.0,-22.0,52.0
1693678239035208500,-2.0,-4.0,-3.0,3.0,-16.0,-13.0,-3.0,-3.0,1.021126986,-0.861912608,10.21845245,-0.060620211,0.000532925,-0.007860643,-28.0,49.0,79.0,12.0,-5.0,-0.112527482,2.421735048,10.22922707,0.053026035,-0.027712099,0.038104136,19.0,36.0,-25.0,-32.0,48.0
1693678239036208500,-2.0,-4.0,-3.0,3.0,-16.0,-13.0,-3.0,-3.0,1.021126986,-0.864306808,10.22084713,-0.060620211,0.000532925,-0.007860643,-24.0,41.0,95.0,10.0,-8.0,-0.110133275,2.421735048,10.22922707,0.053026035,-0.027578866,0.038104136,20.0,37.0,-24.0,-24.0,53.0
1693678239038207400,6.0,7.0,31.0,27.0,-6.0,3.0,-7.0,0.0,1.021126986,-0.864306808,10.22084713,-0.060620211,0.000532925,-0.007860643,-24.0,41.0,95.0,10.0,-8.0,-0.110133275,2.421735048,10.22922707,0.053026035,-0.027578866,0.038104136,20.0,37.0,-24.0,-24.0,53.0
1693678239040213700,-1.0,-2.0,-7.0,-15.0,13.0,-11.0,-24.0,1.0,1.021126986,-0.864306808,10.22084713,-0.060620211,0.000532925,-0.007860643,-24.0,41.0,95.0,10.0,-8.0,-0.110133275,2.421735048,10.22922707,0.053026035,-0.027578866,0.038104136,20.0,37.0,-24.0,-24.0,53.0
1693678239048202200,-5.0,-3.0,0.0,-14.0,3.0,-2.0,4.0,-4.0,1.021126986,-0.864306808,10.22084713,-0.060620211,0.000532925,-0.007860643,-24.0,41.0,95.0,10.0,-8.0,-0.110133275,2.421735048,10.22922707,0.053026035,-0.027578866,0.038104136,20.0,37.0,-24.0,-24.0,53.0
1693678239050200300,-3.0,-6.0,-5.0,12.0,-23.0,0.0,-10.0,-3.0,1.021126986,-0.864306808,10.22084713,-0.060620211,0.000532925,-0.007860643,-24.0,41.0,95.0,10.0,-8.0,-0.110133275,2.421735048,10.22922707,0.053026035,-0.027578866,0.038104136,20.0,37.0,-24.0,-24.0,53.0
1693678239054197900,4.0,7.0,14.0,0.0,0.0,-4.0,5.0,5.0,1.021126986,-0.864306808,10.22084713,-0.060620211,0.000532925,-0.007860643,-24.0,41.0,95.0,10.0,-8.0,-0.110133275,2.421735048,10.22922707,0.053026035,-0.027578866,0.038104136,20.0,37.0,-24.0,-24.0,53.0
1693678239055198100,0.0,-13.0,-38.0,-28.0,17.0,5.0,8.0,-2.0,1.021126986,-0.864306808,10.22084713,-0.060620211,0.000532925,-0.007860643,-24.0,41.0,95.0,10.0,-8.0,-0.110133275,2.421735048,10.22922707,0.053026035,-0.027578866,0.038104136,20.0,37.0,-24.0,-24.0,53.0
1693678239061198100,-2.0,6.0,31.0,20.0,-13.0,4.0,16.0,-1.0,1.021126986,-0.864306808,10.22084713,-0.060620211,0.000532925,-0.007860643,-24.0,41.0,95.0,10.0,-8.0,-0.110133275,2.421735048,10.22922707,0.053026035,-0.027578866,0.038104136,20.0,37.0,-24.0,-24.0,53.0
1693678239062192900,9.0,9.0,14.0,12.0,-2.0,-11.0,-50.0,4.0,1.021126986,-0.864306808,10.22084713,-0.060620211,0.000532925,-0.007860643,-24.0,41.0,95.0,10.0,-8.0,-0.110133275,2.421735048,10.22922707,0.053026035,-0.027578866,0.038104136,20.0,37.0,-24.0,-24.0,53.0
1693678239077187500,-9.0,-5.0,5.0,-9.0,-11.0,0.0,-12.0,-10.0,1.021126986,-0.864306808,10.22084713,-0.060620211,0.000532925,-0.007860643,-24.0,41.0,95.0,10.0,-8.0,-0.110133275,2.421735048,10.22922707,0.053026035,-0.027578866,0.038104136,20.0,37.0,-24.0,-24.0,53.0
1693678239078184400,-17.0,-1.0,-8.0,-1.0,8.0,-15.0,-17.0,0.0,1.021126986,-0.864306808,10.22084713,-0.060620211,0.000532925,-0.007860643,-24.0,41.0,95.0,10.0,-8.0,-0.110133275,2.421735048,10.22922707,0.053026035,-0.027578866,0.038104136,20.0,37.0,-24.0,-24.0,53.0
1693678239081186900,40.0,8.0,19.0,10.0,-9.0,5.0,45.0,6.0,1.021126986,-0.864306808,10.22084713,-0.060620211,0.000532925,-0.007860643,-24.0,41.0,95.0,10.0,-8.0,-0.110133275,2.421735048,10.22922707,0.053026035,-0.027578866,0.038104136,20.0,37.0,-24.0,-24.0,53.0
1693678239083185400,-3.0,2.0,-2.0,-4.0,-5.0,-2.0,-38.0,-1.0,1.021126986,-0.864306808,10.22084713,-0.060620211,0.000532925,-0.007860643,-24.0,41.0,95.0,10.0,-8.0,-0.110133275,2.421735048,10.22922707,0.053026035,-0.027578866,0.038104136,20.0,37.0,-24.0,-24.0,53.0
1693678239090178400,-3.0,2.0,-2.0,-4.0,-5.0,-2.0,-38.0,-1.0,1.019929886,-0.85473001,10.23880386,-0.060353752,0.000266462,-0.007727412,-31.0,35.0,85.0,8.0,-11.0,-0.110133275,2.418143749,10.24000072,0.053026035,-0.027179174,0.038104136,20.0,37.0,-22.0,-23.0,55.0
1693678239091178400,-3.0,2.0,-2.0,-4.0,-5.0,-2.0,-38.0,-1.0,1.017535686,-0.857124209,10.24119759,-0.06008729,0.000133231,-0.007594181,-25.0,47.0,89.0,3.0,-9.0,-0.110133275,2.41694665,10.24000072,0.053026035,-0.027312404,0.038237367,13.0,35.0,-30.0,-32.0,51.0
1693678239092178400,-3.0,2.0,-2.0,-4.0,-5.0,-2.0,-38.0,-1.0,1.018732786,-0.85473001,10.24119759,-0.06008729,0.000133231,-0.007594181,-20.0,43.0,86.0,13.0,-8.0,-0.111330383,2.41574955,10.23760605,0.053159267,-0.027312404,0.038370594,6.0,30.0,-31.0,-28.0,52.0
1693678239093178400,-3.0,2.0,-2.0,-4.0,-5.0,-2.0,-38.0,-1.0,1.018732786,-0.851138711,10.23880386,-0.06008729,0.000133231,-0.007594181,-21.0,43.0,92.0,9.0,-7.0,-0.108936176,2.41335535,10.23521233,0.053159267,-0.027445635,0.038370594,20.0,42.0,-21.0,-24.0,53.0
1693678239094178400,-3.0,2.0,-2.0,-4.0,-5.0,-2.0,-38.0,-1.0,1.018732786,-0.852335811,10.23880386,-0.060220521,0.000266462,-0.007594181,-27.0,39.0,89.0,8.0,-12.0,-0.112527482,2.410961151,10.23162079,0.053159267,-0.027712099,0.038370594,19.0,39.0,-25.0,-26.0,52.0
1693678239100171700,5.0,-3.0,-3.0,-4.0,9.0,11.0,14.0,3.0,1.018732786,-0.852335811,10.23880386,-0.060220521,0.000266462,-0.007594181,-27.0,39.0,89.0,8.0,-12.0,-0.112527482,2.410961151,10.23162079,0.053159267,-0.027712099,0.038370594,19.0,39.0,-25.0,-26.0,52.0
1693678239101170500,-79.0,-16.0,-10.0,1.0,-2.0,-3.0,-10.0,-22.0,1.018732786,-0.852335811,10.23880386,-0.060220521,0.000266462,-0.007594181,-27.0,39.0,89.0,8.0,-12.0,-0.112527482,2.410961151,10.23162079,0.053159267,-0.027712099,0.038370594,19.0,39.0,-25.0,-26.0,52.0
1693678239103169700,62.0,8.0,6.0,-3.0,-10.0,3.0,10.0,5.0,1.018732786,-0.852335811,10.23880386,-0.060220521,0.000266462,-0.007594181,-27.0,39.0,89.0,8.0,-12.0,-0.112527482,2.410961151,10.23162079,0.053159267,-0.027712099,0.038370594,19.0,39.0,-25.0,-26.0,52.0
1693678239104169100,-25.0,-7.0,-14.0,-14.0,-2.0,-16.0,0.0,8.0,1.018732786,-0.852335811,10.23880386,-0.060220521,0.000266462,-0.007594181,-27.0,39.0,89.0,8.0,-12.0,-0.112527482,2.410961151,10.23162079,0.053159267,-0.027712099,0.038370594,19.0,39.0,-25.0,-26.0,52.0
1693678239116165600,12.0,-1.0,5.0,6.0,-6.0,1.0,-8.0,0.0,1.018732786,-0.852335811,10.23880386,-0.060220521,0.000266462,-0.007594181,-27.0,39.0,89.0,8.0,-12.0,-0.112527482,2.410961151,10.23162079,0.053159267,-0.027712099,0.038370594,19.0,39.0,-25.0,-26.0,52.0
1693678239117165500,16.0,7.0,6.0,6.0,9.0,6.0,1.0,4.0,1.018732786,-0.852335811,10.23880386,-0.060220521,0.000266462,-0.007594181,-27.0,39.0,89.0,8.0,-12.0,-0.112527482,2.410961151,10.23162079,0.053159267,-0.027712099,0.038370594,19.0,39.0,-25.0,-26.0,52.0
1693678239121159800,-47.0,-5.0,8.0,-2.0,1.0,8.0,2.0,-10.0,1.018732786,-0.852335811,10.23880386,-0.060220521,0.000266462,-0.007594181,-27.0,39.0,89.0,8.0,-12.0,-0.112527482,2.410961151,10.23162079,0.053159267,-0.027712099,0.038370594,19.0,39.0,-25.0,-26.0,52.0
1693678239122159200,-1.0,-6.0,-10.0,-8.0,-10.0,-6.0,6.0,-8.0,1.018732786,-0.852335811,10.23880386,-0.060220521,0.000266462,-0.007594181,-27.0,39.0,89.0,8.0,-12.0,-0.112527482,2.410961151,10.23162079,0.053159267,-0.027712099,0.038370594,19.0,39.0,-25.0,-26.0,52.0
1693678239138152900,33.0,7.0,-4.0,24.0,5.0,4.0,4.0,13.0,1.018732786,-0.852335811,10.23880386,-0.060220521,0.000266462,-0.007594181,-27.0,39.0,89.0,8.0,-12.0,-0.112527482,2.410961151,10.23162079,0.053159267,-0.027712099,0.038370594,19.0,39.0,-25.0,-26.0,52.0
1693678239141147900,-3.0,9.0,17.0,-11.0,-2.0,-3.0,-2.0,-4.0,1.018732786,-0.852335811,10.23880386,-0.060220521,0.000266462,-0.007594181,-27.0,39.0,89.0,8.0,-12.0,-0.112527482,2.410961151,10.23162079,0.053159267,-0.027712099,0.038370594,19.0,39.0,-25.0,-26.0,52.0
1693678239142166600,-13.0,-3.0,2.0,3.0,4.0,7.0,43.0,10.0,1.018732786,-0.852335811,10.23880386,-0.060220521,0.000266462,-0.007594181,-27.0,39.0,89.0,8.0,-12.0,-0.112527482,2.410961151,10.23162079,0.053159267,-0.027712099,0.038370594,19.0,39.0,-25.0,-26.0,52.0
1693678239143168900,27.0,0.0,1.0,4.0,-7.0,-7.0,-40.0,-3.0,1.018732786,-0.852335811,10.23880386,-0.060220521,0.000266462,-0.007594181,-27.0,39.0,89.0,8.0,-12.0,-0.112527482,2.410961151,10.23162079,0.053159267,-0.027712099,0.038370594,19.0,39.0,-25.0,-26.0,52.0
1693678239153161100,27.0,0.0,1.0,4.0,-7.0,-7.0,-40.0,-3.0,1.022324085,-0.865503907,10.23880386,-0.060220521,0.000399694,-0.007860643,-21.0,44.0,79.0,7.0,-11.0,-0.112527482,2.426523447,10.22324085,0.053026035,-0.027445635,0.038104136,16.0,33.0,-21.0,-20.0,50.0
1693678239154161100,27.0,0.0,1.0,4.0,-7.0,-7.0,-40.0,-3.0,1.019929886,-0.869095206,10.23162079,-0.060220521,0.000399694,-0.007727412,-19.0,45.0,89.0,12.0,-8.0,-0.112527482,2.424129248,10.22443867,0.053026035,-0.027445635,0.038370594,19.0,41.0,-25.0,-26.0,48.0
1693678239155161100,27.0,0.0,1.0,4.0,-7.0,-7.0,-40.0,-3.0,1.021126986,-0.873883605,10.22683239,-0.059954058,0.000399694,-0.007860643,-22.0,48.0,87.0,7.0,-4.0,-0.108936176,2.422932148,10.22324085,0.053159267,-0.027312404,0.038237367,17.0,30.0,-28.0,-27.0,47.0
1693678239156161100,27.0,0.0,1.0,4.0,-7.0,-7.0,-40.0,-3.0,1.022324085,-0.869095206,10.22922707,-0.06008729,0.000266462,-0.007860643,-22.0,50.0,91.0,16.0,-8.0,-0.110133275,2.421735048,10.22204399,0.053292494,-0.027578866,0.038237367,11.0,35.0,-24.0,-25.0,49.0
1693678239157161100,27.0,0.0,1.0,4.0,-7.0,-7.0,-40.0,-3.0,1.021126986,-0.866701007,10.22922707,-0.060220521,0.000133231,-0.007860643,-27.0,44.0,90.0,13.0,-9.0,-0.111330383,2.424129248,10.22324085,0.053292494,-0.027578866,0.037970904,15.0,33.0,-25.0,-21.0,54.0
1693678239160139800,-38.0,-4.0,-3.0,-1.0,-1.0,-2.0,19.0,-4.0,1.021126986,-0.866701007,10.22922707,-0.060220521,0.000133231,-0.007860643,-27.0,44.0,90.0,13.0,-9.0,-0.111330383,2.424129248,10.22324085,0.053292494,-0.027578866,0.037970904,15.0,33.0,-25.0,-21.0,54.0
1693678239161138800,18.0,-11.0,-22.0,-13.0,1.0,-7.0,-44.0,-11.0,1.021126986,-0.866701007,10.22922707,-0.060220521,0.000133231,-0.007860643,-27.0,44.0,90.0,13.0,-9.0,-0.111330383,2.424129248,10.22324085,0.053292494,-0.027578866,0.037970904,15.0,33.0,-25.0,-21.0,54.0
1693678239163134800,22.0,9.0,11.0,2.0,-2.0,-5.0,-10.0,5.0,1.021126986,-0.866701007,10.22922707,-0.060220521,0.000133231,-0.007860643,-27.0,44.0,90.0,13.0,-9.0,-0.111330383,2.424129248,10.22324085,0.053292494,-0.027578866,0.037970904,15.0,33.0,-25.0,-21.0,54.0
1693678239166134400,-13.0,-5.0,-1.0,5.0,1.0,10.0,44.0,-6.0,1.021126986,-0.866701007,10.22922707,-0.060220521,0.000133231,-0.007860643,-27.0,44.0,90.0,13.0,-9.0,-0.111330383,2.424129248,10.22324085,0.053292494,-0.027578866,0.037970904,15.0,33.0,-25.0,-21.0,54.0
1693678239173131900,11.0,9.0,14.0,2.0,-4.0,5.0,12.0,14.0,1.021126986,-0.866701007,10.22922707,-0.060220521,0.000133231,-0.007860643,-27.0,44.0,90.0,13.0,-9.0,-0.111330383,2.424129248,10.22324085,0.053292494,-0.027578866,0.037970904,15.0,33.0,-25.0,-21.0,54.0
1693678239175128500,28.0,-5.0,-4.0,4.0,5.0,-1.0,8.0,-11.0,1.021126986,-0.866701007,10.22922707,-0.060220521,0.000133231,-0.007860643,-27.0,44.0,90.0,13.0,-9.0,-0.111330383,2.424129248,10.22324085,0.053292494,-0.027578866,0.037970904,15.0,33.0,-25.0,-21.0,54.0
1693678239183124700,-34.0,-3.0,-6.0,-19.0,-6.0,2.0,-16.0,0.0,1.021126986,-0.866701007,10.22922707,-0.060220521,0.000133231,-0.007860643,-27.0,44.0,90.0,13.0,-9.0,-0.111330383,2.424129248,10.22324085,0.053292494,-0.027578866,0.037970904,15.0,33.0,-25.0,-21.0,54.0
1693678239185123600,-11.0,3.0,3.0,9.0,4.0,2.0,9.0,6.0,1.021126986,-0.866701007,10.22922707,-0.060220521,0.000133231,-0.007860643,-27.0,44.0,90.0,13.0,-9.0,-0.111330383,2.424129248,10.22324085,0.053292494,-0.027578866,0.037970904,15.0,33.0,-25.0,-21.0,54.0
1693678239205113600,-80.0,-11.0,1.0,-5.0,5.0,1.0,2.0,-16.0,1.021126986,-0.866701007,10.22922707,-0.060220521,0.000133231,-0.007860643,-27.0,44.0,90.0,13.0,-9.0,-0.111330383,2.424129248,10.22324085,0.053292494,-0.027578866,0.037970904,15.0,33.0,-25.0,-21.0,54.0
1693678239206116700,79.0,12.0,1.0,-1.0,-2.0,-13.0,-62.0,-12.0,1.021126986,-0.866701007,10.22922707,-0.060220521,0.000133231,-0.007860643,-27.0,44.0,90.0,13.0,-9.0,-0.111330383,2.424129248,10.22324085,0.053292494,-0.027578866,0.037970904,15.0,33.0,-25.0,-21.0,54.0
1693678239208035300,-32.0,-2.0,-9.0,-5.0,-5.0,-9.0,-6.0,28.0,1.021126986,-0.866701007,10.22922707,-0.060220521,0.000133231,-0.007860643,-27.0,44.0,90.0,13.0,-9.0,-0.111330383,2.424129248,10.22324085,0.053292494,-0.027578866,0.037970904,15.0,33.0,-25.0,-21.0,54.0
1693678239209043600,-33.0,-5.0,-3.0,2.0,4.0,10.0,19.0,10.0,1.021126986,-0.866701007,10.22922707,-0.060220521,0.000133231,-0.007860643,-27.0,44.0,90.0,13.0,-9.0,-0.111330383,2.424129248,10.22324085,0.053292494,-0.027578866,0.037970904,15.0,33.0,-25.0,-21.0,54.0
1693678239222011500,-33.0,-5.0,-3.0,2.0,4.0,10.0,19.0,10.0,1.019929886,-0.851138711,10.23521233,-0.060886677,0.000532925,-0.007993874,-19.0,38.0,85.0,10.0,1.0,-0.112527482,2.419340849,10.22204399,0.05249311,-0.027578866,0.038637057,16.0,36.0,-21.0,-22.0,44.0
1693678239223011500,-33.0,-5.0,-3.0,2.0,4.0,10.0,19.0,10.0,1.021126986,-0.846350312,10.24000072,-0.061019909,0.000532925,-0.007860643,-22.0,42.0,87.0,6.0,-15.0,-0.110133275,2.420537949,10.21965027,0.052759573,-0.027712099,0.038503829,15.0,30.0,-24.0,-22.0,48.0
1693678239224011500,-33.0,-5.0,-3.0,2.0,4.0,10.0,19.0,10.0,1.018732786,-0.842759013,10.24478912,-0.060886677,0.000399694,-0.007860643,-20.0,45.0,89.0,11.0,-6.0,-0.107739076,2.41694665,10.21965027,0.0528928,-0.027712099,0.038637057,18.0,41.0,-25.0,-24.0,53.0
1693678239225011500,-33.0,-5.0,-3.0,2.0,4.0,10.0,19.0,10.0,1.018732786,-0.845153213,10.24239445,-0.061019909,0.000532925,-0.007727412,-20.0,38.0,86.0,10.0,-8.0,-0.107739076,2.418143749,10.21845245,0.053026035,-0.027712099,0.038637057,20.0,43.0,-20.0,-24.0,54.0
1693678239226011500,-33.0,-5.0,-3.0,2.0,4.0,10.0,19.0,10.0,1.018732786,-0.845153213,10.24000072,-0.060886677,0.000532925,-0.007860643,-26.0,37.0,83.0,9.0,-11.0,-0.10295067,2.420537949,10.22084713,0.0528928,-0.027578866,0.038637057,21.0,40.0,-17.0,-24.0,55.0
1693678239228010800,30.0,1.0,4.0,-7.0,-3.0,11.0,8.0,-6.0,1.018732786,-0.845153213,10.24000072,-0.060886677,0.000532925,-0.007860643,-26.0,37.0,83.0,9.0,-11.0,-0.10295067,2.420537949,10.22084713,0.0528928,-0.027578866,0.038637057,21.0,40.0,-17.0,-24.0,55.0
1693678239232008400,28.0,5.0,-2.0,8.0,0.0,4.0,24.0,16.0,1.018732786,-0.845153213,10.24000072,-0.060886677,0.000532925,-0.007860643,-26.0,37.0,83.0,9.0,-11.0,-0.10295067,2.420537949,10.22084713,0.0528928,-0.027578866,0.038637057,21.0,40.0,-17.0,-24.0,55.0
1693678239234007300,27.0,0.0,2.0,3.0,-1.0,4.0,-6.0,-23.0,1.018732786,-0.845153213,10.24000072,-0.060886677,0.000532925,-0.007860643,-26.0,37.0,83.0,9.0,-11.0,-0.10295067,2.420537949,10.22084713,0.0528928,-0.027578866,0.038637057,21.0,40.0,-17.0,-24.0,55.0
1693678239236007500,-37.0,-18.0,-10.0,-7.0,-2.0,-14.0,-22.0,-6.0,1.018732786,-0.845153213,10.24000072,-0.060886677,0.000532925,-0.007860643,-26.0,37.0,83.0,9.0,-11.0,-0.10295067,2.420537949,10.22084713,0.0528928,-0.027578866,0.038637057,21.0,40.0,-17.0,-24.0,55.0
1693678239237005200,-20.0,-1.0,2.0,-5.0,-5.0,-7.0,-6.0,-17.0,1.018732786,-0.845153213,10.24000072,-0.060886677,0.000532925,-0.007860643,-26.0,37.0,83.0,9.0,-11.0,-0.10295067,2.420537949,10.22084713,0.0528928,-0.027578866,0.038637057,21.0,40.0,-17.0,-24.0,55.0
1693678239241005600,-55.0,3.0,-1.0,4.0,2.0,-2.0,2.0,5.0,1.018732786,-0.845153213,10.24000072,-0.060886677,0.000532925,-0.007860643,-26.0,37.0,83.0,9.0,-11.0,-0.10295067,2.420537949,10.22084713,0.0528928,-0.027578866,0.038637057,21.0,40.0,-17.0,-24.0,55.0
1693678239243001900,-59.0,-4.0,1.0,3.0,-1.0,-7.0,-18.0,-54.0,1.018732786,-0.845153213,10.24000072,-0.060886677,0.000532925,-0.007860643,-26.0,37.0,83.0,9.0,-11.0,-0.10295067,2.420537949,10.22084713,0.0528928,-0.027578866,0.038637057,21.0,40.0,-17.0,-24.0,55.0
1693678239244001700,82.0,30.0,12.0,8.0,-2.0,13.0,34.0,50.0,1.018732786,-0.845153213,10.24000072,-0.060886677,0.000532925,-0.007860643,-26.0,37.0,83.0,9.0,-11.0,-0.10295067,2.420537949,10.22084713,0.0528928,-0.027578866,0.038637057,21.0,40.0,-17.0,-24.0,55.0
1693678239264990000,36.0,5.0,-3.0,-6.0,-4.0,0.0,1.0,50.0,1.018732786,-0.845153213,10.24000072,-0.060886677,0.000532925,-0.007860643,-26.0,37.0,83.0,9.0,-11.0,-0.10295067,2.420537949,10.22084713,0.0528928,-0.027578866,0.038637057,21.0,40.0,-17.0,-24.0,55.0
1693678239266988800,-60.0,-29.0,-10.0,-12.0,-7.0,-2.0,-16.0,-37.0,1.018732786,-0.845153213,10.24000072,-0.060886677,0.000532925,-0.007860643,-26.0,37.0,83.0,9.0,-11.0,-0.10295067,2.420537949,10.22084713,0.0528928,-0.027578866,0.038637057,21.0,40.0,-17.0,-24.0,55.0
1693678239268989200,-79.0,-2.0,12.0,17.0,13.0,3.0,-13.0,-82.0,1.018732786,-0.845153213,10.24000072,-0.060886677,0.000532925,-0.007860643,-26.0,37.0,83.0,9.0,-11.0,-0.10295067,2.420537949,10.22084713,0.0528928,-0.027578866,0.038637057,21.0,40.0,-17.0,-24.0,55.0
1693678239269988200,41.0,22.0,1.0,-4.0,0.0,-2.0,14.0,14.0,1.018732786,-0.845153213,10.24000072,-0.060886677,0.000532925,-0.007860643,-26.0,37.0,83.0,9.0,-11.0,-0.10295067,2.420537949,10.22084713,0.0528928,-0.027578866,0.038637057,21.0,40.0,-17.0,-24.0,55.0
1693678239280981700,11.0,-13.0,-9.0,-2.0,0.0,3.0,-44.0,17.0,1.018732786,-0.845153213,10.24000072,-0.060886677,0.000532925,-0.007860643,-26.0,37.0,83.0,9.0,-11.0,-0.10295067,2.420537949,10.22084713,0.0528928,-0.027578866,0.038637057,21.0,40.0,-17.0,-24.0,55.0
1693678239282981400,-33.0,27.0,5.0,0.0,-7.0,-4.0,34.0,81.0,1.018732786,-0.845153213,10.24000072,-0.060886677,0.000532925,-0.007860643,-26.0,37.0,83.0,9.0,-11.0,-0.10295067,2.420537949,10.22084713,0.0528928,-0.027578866,0.038637057,21.0,40.0,-17.0,-24.0,55.0
1693678239285978300,127.0,-10.0,8.0,9.0,6.0,11.0,15.0,22.0,1.018732786,-0.845153213,10.24000072,-0.060886677,0.000532925,-0.007860643,-26.0,37.0,83.0,9.0,-11.0,-0.10295067,2.420537949,10.22084713,0.0528928,-0.027578866,0.038637057,21.0,40.0,-17.0,-24.0,55.0
1693678239287977900,-27.0,-62.0,-5.0,-6.0,-3.0,3.0,-16.0,-110.0,1.018732786,-0.845153213,10.24000072,-0.060886677,0.000532925,-0.007860643,-26.0,37.0,83.0,9.0,-11.0,-0.10295067,2.420537949,10.22084713,0.0528928,-0.027578866,0.038637057,21.0,40.0,-17.0,-24.0,55.0
1693678239293972800,104.0,50.0,-10.0,-15.0,-14.0,-29.0,0.0,71.0,1.018732786,-0.845153213,10.24000072,-0.060886677,0.000532925,-0.007860643,-26.0,37.0,83.0,9.0,-11.0,-0.10295067,2.420537949,10.22084713,0.0528928,-0.027578866,0.038637057,21.0,40.0,-17.0,-24.0,55.0
1693678239294974000,-50.0,-51.0,-19.0,-23.0,-3.0,25.0,67.0,-27.0,1.018732786,-0.845153213,10.24000072,-0.060886677,0.000532925,-0.007860643,-26.0,37.0,83.0,9.0,-11.0,-0.10295067,2.420537949,10.22084713,0.0528928,-0.027578866,0.038637057,21.0,40.0,-17.0,-24.0,55.0
1693678239301967600,-87.0,8.0,3.0,1.0,-12.0,-28.0,-42.0,21.0,1.018732786,-0.845153213,10.24000072,-0.060886677,0.000532925,-0.007860643,-26.0,37.0,83.0,9.0,-11.0,-0.10295067,2.420537949,10.22084713,0.0528928,-0.027578866,0.038637057,21.0,40.0,-17.0,-24.0,55.0
1693678239303967000,39.0,90.0,16.0,11.0,15.0,23.0,-8.0,-27.0,1.018732786,-0.845153213,10.24000072,-0.060886677,0.000532925,-0.007860643,-26.0,37.0,83.0,9.0,-11.0,-0.10295067,2.420537949,10.22084713,0.0528928,-0.027578866,0.038637057,21.0,40.0,-17.0,-24.0,55.0
1693678239311960800,39.0,90.0,16.0,11.0,15.0,23.0,-8.0,-27.0,1.022324085,-0.85353291,10.23760605,-0.060486984,0.000399694,-0.007727412,-2.0,63.0,109.0,31.0,-5.0,-0.111330383,2.419340849,10.20528507,0.053026035,-0.027312404,0.037970904,18.0,32.0,-27.0,-28.0,50.0
1693678239312960800,39.0,90.0,16.0,11.0,15.0,23.0,-8.0,-27.0,1.023521185,-0.849941611,10.23281765,-0.060486984,0.000399694,-0.007993874,-22.0,44.0,85.0,12.0,-10.0,-0.111330383,2.420537949,10.20887566,0.053026035,-0.027312404,0.037970904,16.0,39.0,-23.0,-18.0,48.0
1693678239313960800,39.0,90.0,16.0,11.0,15.0,23.0,-8.0,-27.0,1.025915384,-0.851138711,10.23401546,-0.060620211,0.000399694,-0.007993874,-29.0,49.0,99.0,13.0,3.0,-0.112527482,2.422932148,10.21127033,0.0528928,-0.027312404,0.037970904,17.0,33.0,-25.0,-26.0,54.0
1693678239314960800,39.0,90.0,16.0,11.0,15.0,23.0,-8.0,-27.0,1.025915384,-0.85592711,10.24000072,-0.060620211,0.000399694,-0.007860643,-27.0,45.0,87.0,6.0,-9.0,-0.114921682,2.421735048,10.21486187,0.053026035,-0.027312404,0.037970904,20.0,43.0,-16.0,-22.0,53.0
1693678239315960800,39.0,90.0,16.0,11.0,15.0,23.0,-8.0,-27.0,1.030703783,-0.858321309,10.23880386,-0.060486984,0.000399694,-0.007860643,-29.0,41.0,88.0,6.0,-7.0,-0.118512981,2.421735048,10.21486187,0.053292494,-0.027312404,0.037837673,15.0,41.0,-19.0,-22.0,49.0
1693678239317959000,-109.0,-104.0,-5.0,2.0,7.0,-12.0,7.0,30.0,1.030703783,-0.858321309,10.23880386,-0.060486984,0.000399694,-0.007860643,-29.0,41.0,88.0,6.0,-7.0,-0.118512981,2.421735048,10.21486187,0.053292494,-0.027312404,0.037837673,15.0,41.0,-19.0,-22.0,49.0
1693678239318959000,18.0,77.0,-2.0,-10.0,-4.0,16.0,-12.0,-52.0,1.030703783,-0.858321309,10.23880386,-0.060486984,0.000399694,-0.007860643,-29.0,41.0,88.0,6.0,-7.0,-0.118512981,2.421735048,10.21486187,0.053292494,-0.027312404,0.037837673,15.0,41.0,-19.0,-22.0,49.0
1693678239321957700,-42.0,-75.0,-17.0,-6.0,-1.0,-75.0,-10.0,11.0,1.030703783,-0.858321309,10.23880386,-0.060486984,0.000399694,-0.007860643,-29.0,41.0,88.0,6.0,-7.0,-0.118512981,2.421735048,10.21486187,0.053292494,-0.027312404,0.037837673,15.0,41.0,-19.0,-22.0,49.0
1693678239322955600,-95.0,-101.0,-10.0,-9.0,0.0,40.0,39.0,23.0,1.030703783,-0.858321309,10.23880386,-0.060486984,0.000399694,-0.007860643,-29.0,41.0,88.0,6.0,-7.0,-0.118512981,2.421735048,10.21486187,0.053292494,-0.027312404,0.037837673,15.0,41.0,-19.0,-22.0,49.0
1693678239339946600,-90.0,40.0,12.0,13.0,15.0,25.0,-2.0,-40.0,1.030703783,-0.858321309,10.23880386,-0.060486984,0.000399694,-0.007860643,-29.0,41.0,88.0,6.0,-7.0,-0.118512981,2.421735048,10.21486187,0.053292494,-0.027312404,0.037837673,15.0,41.0,-19.0,-22.0,49.0
1693678239341946200,62.0,44.0,0.0,-5.0,-11.0,-7.0,17.0,87.0,1.030703783,-0.858321309,10.23880386,-0.060486984,0.000399694,-0.007860643,-29.0,41.0,88.0,6.0,-7.0,-0.118512981,2.421735048,10.21486187,0.053292494,-0.027312404,0.037837673,15.0,41.0,-19.0,-22.0,49.0
1693678239344944400,73.0,76.0,-5.0,-3.0,7.0,23.0,9.0,-76.0,1.030703783,-0.858321309,10.23880386,-0.060486984,0.000399694,-0.007860643,-29.0,41.0,88.0,6.0,-7.0,-0.118512981,2.421735048,10.21486187,0.053292494,-0.027312404,0.037837673,15.0,41.0,-19.0,-22.0,49.0
1693678239347942700,-7.0,56.0,13.0,8.0,-5.0,-21.0,2.0,-48.0,1.030703783,-0.858321309,10.23880386,-0.060486984,0.000399694,-0.007860643,-29.0,41.0,88.0,6.0,-7.0,-0.118512981,2.421735048,10.21486187,0.053292494,-0.027312404,0.037837673,15.0,41.0,-19.0,-22.0,49.0
1693678239378924000,-3.0,14.0,4.0,21.0,20.0,-19.0,-5.0,25.0,1.030703783,-0.858321309,10.23880386,-0.060486984,0.000399694,-0.007860643,-29.0,41.0,88.0,6.0,-7.0,-0.118512981,2.421735048,10.21486187,0.053292494,-0.027312404,0.037837673,15.0,41.0,-19.0,-22.0,49.0
1693678239382922900,-19.0,-85.0,-11.0,-17.0,-4.0,13.0,-5.0,17.0,1.030703783,-0.858321309,10.23880386,-0.060486984,0.000399694,-0.007860643,-29.0,41.0,88.0,6.0,-7.0,-0.118512981,2.421735048,10.21486187,0.053292494,-0.027312404,0.037837673,15.0,41.0,-19.0,-22.0,49.0
1693678239384921100,32.0,25.0,-11.0,-10.0,-9.0,18.0,3.0,21.0,1.030703783,-0.858321309,10.23880386,-0.060486984,0.000399694,-0.007860643,-29.0,41.0,88.0,6.0,-7.0,-0.118512981,2.421735048,10.21486187,0.053292494,-0.027312404,0.037837673,15.0,41.0,-19.0,-22.0,49.0
1693678239386920000,-1.0,-56.0,-9.0,-3.0,7.0,-26.0,-6.0,-65.0,1.030703783,-0.858321309,10.23880386,-0.060486984,0.000399694,-0.007860643,-29.0,41.0,88.0,6.0,-7.0,-0.118512981,2.421735048,10.21486187,0.053292494,-0.027312404,0.037837673,15.0,41.0,-19.0,-22.0,49.0
1693678239388919300,49.0,-50.0,5.0,1.0,-8.0,-6.0,56.0,27.0,1.030703783,-0.858321309,10.23880386,-0.060486984,0.000399694,-0.007860643,-29.0,41.0,88.0,6.0,-7.0,-0.118512981,2.421735048,10.21486187,0.053292494,-0.027312404,0.037837673,15.0,41.0,-19.0,-22.0,49.0
1693678239389918900,-57.0,10.0,9.0,46.0,48.0,25.0,-44.0,76.0,1.030703783,-0.858321309,10.23880386,-0.060486984,0.000399694,-0.007860643,-29.0,41.0,88.0,6.0,-7.0,-0.118512981,2.421735048,10.21486187,0.053292494,-0.027312404,0.037837673,15.0,41.0,-19.0,-22.0,49.0
1693678239390918100,55.0,63.0,2.0,-11.0,-21.0,-31.0,15.0,49.0,1.030703783,-0.858321309,10.23880386,-0.060486984,0.000399694,-0.007860643,-29.0,41.0,88.0,6.0,-7.0,-0.118512981,2.421735048,10.21486187,0.053292494,-0.027312404,0.037837673,15.0,41.0,-19.0,-22.0,49.0
1693678239392915500,-12.0,-28.0,-9.0,0.0,1.0,-14.0,20.0,-71.0,1.030703783,-0.858321309,10.23880386,-0.060486984,0.000399694,-0.007860643,-29.0,41.0,88.0,6.0,-7.0,-0.118512981,2.421735048,10.21486187,0.053292494,-0.027312404,0.037837673,15.0,41.0,-19.0,-22.0,49.0
1693678239400909400,-12.0,-28.0,-9.0,0.0,1.0,-14.0,20.0,-71.0,1.036689281,-0.85473001,10.23760605,-0.060353752,0.000266462,-0.007594181,-28.0,49.0,81.0,12.0,-8.0,-0.124498487,2.425326347,10.22084713,0.053159267,-0.027578866,0.037837673,14.0,35.0,-25.0,-26.0,49.0
1693678239401909400,-12.0,-28.0,-9.0,0.0,1.0,-14.0,20.0,-71.0,1.035492182,-0.85592711,10.23760605,-0.060353752,0.000266462,-0.007594181,-24.0,38.0,86.0,11.0,-6.0,-0.122104287,2.426523447,10.22204399,0.053026035,-0.027712099,0.037837673,15.0,33.0,-24.0,-21.0,44.0
1693678239402909400,-12.0,-28.0,-9.0,0.0,1.0,-14.0,20.0,-71.0,1.033097982,-0.859518409,10.23521233,-0.060486984,0.000266462,-0.007594181,-24.0,49.0,88.0,10.0,-12.0,-0.123301387,2.426523447,10.22204399,0.053159267,-0.027712099,0.037837673,19.0,38.0,-18.0,-24.0,49.0
1693678239403909400,-12.0,-28.0,-9.0,0.0,1.0,-14.0,20.0,-71.0,1.031900883,-0.85592711,10.23521233,-0.060486984,0.000266462,-0.007727412,-26.0,43.0,85.0,0.0,-11.0,-0.123301387,2.424129248,10.22204399,0.053026035,-0.027578866,0.037837673,20.0,40.0,-25.0,-19.0,52.0
1693678239404909400,-12.0,-28.0,-9.0,0.0,1.0,-14.0,20.0,-71.0,1.033097982,-0.851138711,10.23162079,-0.060486984,0.000399694,-0.007727412,-32.0,38.0,87.0,7.0,-11.0,-0.122104287,2.425326347,10.22443867,0.0528928,-0.027312404,0.037837673,15.0,31.0,-28.0,-23.0,51.0
1693678239432035600,-65.0,-59.0,-26.0,3.0,42.0,37.0,-9.0,-61.0,1.033097982,-0.851138711,10.23162079,-0.060486984,0.000399694,-0.007727412,-32.0,38.0,87.0,7.0,-11.0,-0.122104287,2.425326347,10.22443867,0.0528928,-0.027312404,0.037837673,15.0,31.0,-28.0,-23.0,51.0
1693678239434034900,-5.0,42.0,12.0,5.0,-18.0,-27.0,-15.0,71.0,1.033097982,-0.851138711,10.23162079,-0.060486984,0.000399694,-0.007727412,-32.0,38.0,87.0,7.0,-11.0,-0.122104287,2.425326347,10.22443867,0.0528928,-0.027312404,0.037837673,15.0,31.0,-28.0,-23.0,51.0
1693678239436032400,-42.0,-75.0,0.0,12.0,13.0,26.0,47.0,109.0,1.033097982,-0.851138711,10.23162079,-0.060486984,0.000399694,-0.007727412,-32.0,38.0,87.0,7.0,-11.0,-0.122104287,2.425326347,10.22443867,0.0528928,-0.027312404,0.037837673,15.0,31.0,-28.0,-23.0,51.0
1693678239437031500,85.0,28.0,4.0,6.0,-10.0,46.0,-30.0,127.0,1.033097982,-0.851138711,10.23162079,-0.060486984,0.000399694,-0.007727412,-32.0,38.0,87.0,7.0,-11.0,-0.122104287,2.425326347,10.22443867,0.0528928,-0.027312404,0.037837673,15.0,31.0,-28.0,-23.0,51.0
1693678239438034300,24.0,56.0,5.0,3.0,-4.0,-31.0,-24.0,-112.0,1.033097982,-0.851138711,10.23162079,-0.060486984,0.000399694,-0.007727412,-32.0,38.0,87.0,7.0,-11.0,-0.122104287,2.425326347,10.22443867,0.0528928,-0.027312404,0.037837673,15.0,31.0,-28.0,-23.0,51.0
1693678239440031700,39.0,26.0,9.0,-3.0,4.0,42.0,71.0,-110.0,1.033097982,-0.851138711,10.23162079,-0.060486984,0.000399694,-0.007727412,-32.0,38.0,87.0,7.0,-11.0,-0.122104287,2.425326347,10.22443867,0.0528928,-0.027312404,0.037837673,15.0,31.0,-28.0,-23.0,51.0
1693678239441031200,-20.0,8.0,1.0,1.0,1.0,-9.0,-36.0,-41.0,1.033097982,-0.851138711,10.23162079,-0.060486984,0.000399694,-0.007727412,-32.0,38.0,87.0,7.0,-11.0,-0.122104287,2.425326347,10.22443867,0.0528928,-0.027312404,0.037837673,15.0,31.0,-28.0,-23.0,51.0
1693678239443029100,-72.0,0.0,-11.0,-15.0,2.0,9.0,16.0,2.0,1.033097982,-0.851138711,10.23162079,-0.060486984,0.000399694,-0.007727412,-32.0,38.0,87.0,7.0,-11.0,-0.122104287,2.425326347,10.22443867,0.0528928,-0.027312404,0.037837673,15.0,31.0,-28.0,-23.0,51.0
1693678239444029000,23.0,43.0,17.0,5.0,-6.0,63.0,-17.0,-120.0,1.033097982,-0.851138711,10.23162079,-0.060486984,0.000399694,-0.007727412,-32.0,38.0,87.0,7.0,-11.0,-0.122104287,2.425326347,10.22443867,0.0528928,-0.027312404,0.037837673,15.0,31.0,-28.0,-23.0,51.0
1693678239445028000,6.0,-24.0,-7.0,-5.0,-11.0,-1.0,-23.0,18.0,1.033097982,-0.851138711,10.23162079,-0.060486984,0.000399694,-0.007727412,-32.0,38.0,87.0,7.0,-11.0,-0.122104287,2.425326347,10.22443867,0.0528928,-0.027312404,0.037837673,15.0,31.0,-28.0,-23.0,51.0
1693678239447027000,-21.0,-11.0,17.0,-6.0,-26.0,-14.0,-3.0,-28.0,1.033097982,-0.851138711,10.23162079,-0.060486984,0.000399694,-0.007727412,-32.0,38.0,87.0,7.0,-11.0,-0.122104287,2.425326347,10.22443867,0.0528928,-0.027312404,0.037837673,15.0,31.0,-28.0,-23.0,51.0
1693678239450025900,-19.0,-57.0,-22.0,13.0,35.0,18.0,-21.0,12.0,1.033097982,-0.851138711,10.23162079,-0.060486984,0.000399694,-0.007727412,-32.0,38.0,87.0,7.0,-11.0,-0.122104287,2.425326347,10.22443867,0.0528928,-0.027312404,0.037837673,15.0,31.0,-28.0,-23.0,51.0
1693678239469013600,11.0,-2.0,15.0,2.0,-7.0,-20.0,-6.0,0.0,1.033097982,-0.851138711,10.23162079,-0.060486984,0.000399694,-0.007727412,-32.0,38.0,87.0,7.0,-11.0,-0.122104287,2.425326347,10.22443867,0.0528928,-0.027312404,0.037837673,15.0,31.0,-28.0,-23.0,51.0
1693678239471014500,-6.0,13.0,-4.0,-22.0,-33.0,-46.0,-15.0,-25.0,1.033097982,-0.851138711,10.23162079,-0.060486984,0.000399694,-0.007727412,-32.0,38.0,87.0,7.0,-11.0,-0.122104287,2.425326347,10.22443867,0.0528928,-0.027312404,0.037837673,15.0,31.0,-28.0,-23.0,51.0
1693678239473013000,5.0,-11.0,1.0,10.0,23.0,43.0,0.0,27.0,1.033097982,-0.851138711,10.23162079,-0.060486984,0.000399694,-0.007727412,-32.0,38.0,87.0,7.0,-11.0,-0.122104287,2.425326347,10.22443867,0.0528928,-0.027312404,0.037837673,15.0,31.0,-28.0,-23.0,51.0
1693678239474010900,5.0,-11.0,1.0,10.0,23.0,43.0,0.0,27.0,1.021126986,-0.858321309,10.23640919,-0.060486984,0.000266462,-0.007727412,-27.0,43.0,88.0,8.0,-9.0,-0.10295067,2.424129248,10.22084713,0.053558957,-0.027578866,0.038503829,13.0,35.0,-27.0,-24.0,54.0
1693678239474013000,-3.0,7.0,-5.0,-11.0,-21.0,-31.0,4.0,13.0,1.021126986,-0.858321309,10.23640919,-0.060486984,0.000266462,-0.007727412,-27.0,43.0,88.0,8.0,-9.0,-0.10295067,2.424129248,10.22084713,0.053558957,-0.027578866,0.038503829,13.0,35.0,-27.0,-24.0,54.0
1693678239475010900,-3.0,7.0,-5.0,-11.0,-21.0,-31.0,4.0,13.0,1.018732786,-0.859518409,10.23640919,-0.060486984,0.000266462,-0.007727412,-18.0,43.0,90.0,11.0,-7.0,-0.10175357,2.422932148,10.22204399,0.053425729,-0.027712099,0.038370594,17.0,39.0,-24.0,-21.0,50.0
1693678239475012400,8.0,24.0,-4.0,-30.0,-47.0,-79.0,-12.0,37.0,1.018732786,-0.859518409,10.23640919,-0.060486984,0.000266462,-0.007727412,-18.0,43.0,90.0,11.0,-7.0,-0.10175357,2.422932148,10.22204399,0.053425729,-0.027712099,0.038370594,17.0,39.0,-24.0,-21.0,50.0
1693678239476010900,8.0,24.0,-4.0,-30.0,-47.0,-79.0,-12.0,37.0,1.018732786,-0.863109708,10.23401546,-0.060620211,0.000266462,-0.007594181,-24.0,45.0,86.0,2.0,-12.0,-0.10295067,2.422932148,10.22443867,0.053425729,-0.027712099,0.038104136,11.0,43.0,-22.0,-20.0,55.0
1693678239476011500,-1.0,-38.0,-8.0,4.0,-2.0,-37.0,-9.0,-35.0,1.018732786,-0.863109708,10.23401546,-0.060620211,0.000266462,-0.007594181,-24.0,45.0,86.0,2.0,-12.0,-0.10295067,2.422932148,10.22443867,0.053425729,-0.027712099,0.038104136,11.0,43.0,-22.0,-20.0,55.0
1693678239477010900,-1.0,-38.0,-8.0,4.0,-2.0,-37.0,-9.0,-35.0,1.018732786,-0.869095206,10.23640919,-0.060486984,0.000133231,-0.007594181,-22.0,46.0,83.0,7.0,-11.0,-0.10295067,2.425326347,10.22563553,0.053292494,-0.027578866,0.038104136,17.0,32.0,-23.0,-23.0,48.0
1693678239478010900,-1.0,-38.0,-8.0,4.0,-2.0,-37.0,-9.0,-35.0,1.019929886,-0.867898107,10.23880386,-0.060486984,0.000133231,-0.007727412,-31.0,37.0,85.0,7.0,-15.0,-0.105344877,2.424129248,10.22563553,0.053292494,-0.027445635,0.038237367,13.0,34.0,-27.0,-24.0,52.0
1693678239483011000,-30.0,-20.0,-12.0,-3.0,9.0,2.0,-16.0,-28.0,1.019929886,-0.867898107,10.23880386,-0.060486984,0.000133231,-0.007727412,-31.0,37.0,85.0,7.0,-15.0,-0.105344877,2.424129248,10.22563553,0.053292494,-0.027445635,0.038237367,13.0,34.0,-27.0,-24.0,52.0
1693678239485005400,26.0,37.0,12.0,14.0,4.0,-20.0,-6.0,26.0,1.019929886,-0.867898107,10.23880386,-0.060486984,0.000133231,-0.007727412,-31.0,37.0,85.0,7.0,-15.0,-0.105344877,2.424129248,10.22563553,0.053292494,-0.027445635,0.038237367,13.0,34.0,-27.0,-24.0,52.0
1693678239498997300,-53.0,-60.0,-11.0,-10.0,7.0,31.0,2.0,-39.0,1.019929886,-0.867898107,10.23880386,-0.060486984,0.000133231,-0.007727412,-31.0,37.0,85.0,7.0,-15.0,-0.105344877,2.424129248,10.22563553,0.053292494,-0.027445635,0.038237367,13.0,34.0,-27.0,-24.0,52.0
1693678239500996900,38.0,20.0,9.0,3.0,-9.0,-18.0,-11.0,-13.0,1.019929886,-0.867898107,10.23880386,-0.060486984,0.000133231,-0.007727412,-31.0,37.0,85.0,7.0,-15.0,-0.105344877,2.424129248,10.22563553,0.053292494,-0.027445635,0.038237367,13.0,34.0,-27.0,-24.0,52.0
1693678239501995700,-6.0,-8.0,-8.0,-2.0,6.0,4.0,-10.0,-26.0,1.019929886,-0.867898107,10.23880386,-0.060486984,0.000133231,-0.007727412,-31.0,37.0,85.0,7.0,-15.0,-0.105344877,2.424129248,10.22563553,0.053292494,-0.027445635,0.038237367,13.0,34.0,-27.0,-24.0,52.0
1693678239502994500,-66.0,-20.0,9.0,-2.0,-9.0,10.0,9.0,23.0,1.019929886,-0.867898107,10.23880386,-0.060486984,0.000133231,-0.007727412,-31.0,37.0,85.0,7.0,-15.0,-0.105344877,2.424129248,10.22563553,0.053292494,-0.027445635,0.038237367,13.0,34.0,-27.0,-24.0,52.0
1693678239518985700,53.0,47.0,14.0,3.0,1.0,17.0,12.0,84.0,1.019929886,-0.867898107,10.23880386,-0.060486984,0.000133231,-0.007727412,-31.0,37.0,85.0,7.0,-15.0,-0.105344877,2.424129248,10.22563553,0.053292494,-0.027445635,0.038237367,13.0,34.0,-27.0,-24.0,52.0
1693678239520983800,14.0,-17.0,-9.0,-7.0,2.0,-9.0,-7.0,-27.0,1.019929886,-0.867898107,10.23880386,-0.060486984,0.000133231,-0.007727412,-31.0,37.0,85.0,7.0,-15.0,-0.105344877,2.424129248,10.22563553,0.053292494,-0.027445635,0.038237367,13.0,34.0,-27.0,-24.0,52.0
1693678239526981600,-12.0,3.0,-12.0,-12.0,-1.0,38.0,-14.0,-10.0,1.019929886,-0.867898107,10.23880386,-0.060486984,0.000133231,-0.007727412,-31.0,37.0,85.0,7.0,-15.0,-0.105344877,2.424129248,10.22563553,0.053292494,-0.027445635,0.038237367,13.0,34.0,-27.0,-24.0,52.0
1693678239527982200,22.0,2.0,4.0,-4.0,-2.0,8.0,23.0,-10.0,1.019929886,-0.867898107,10.23880386,-0.060486984,0.000133231,-0.007727412,-31.0,37.0,85.0,7.0,-15.0,-0.105344877,2.424129248,10.22563553,0.053292494,-0.027445635,0.038237367,13.0,34.0,-27.0,-24.0,52.0
1693678239533979700,-7.0,4.0,2.0,1.0,-2.0,-13.0,-14.0,5.0,1.019929886,-0.867898107,10.23880386,-0.060486984,0.000133231,-0.007727412,-31.0,37.0,85.0,7.0,-15.0,-0.105344877,2.424129248,10.22563553,0.053292494,-0.027445635,0.038237367,13.0,34.0,-27.0,-24.0,52.0
1693678239534976600,-20.0,0.0,-2.0,-3.0,6.0,12.0,-4.0,-11.0,1.019929886,-0.867898107,10.23880386,-0.060486984,0.000133231,-0.007727412,-31.0,37.0,85.0,7.0,-15.0,-0.105344877,2.424129248,10.22563553,0.053292494,-0.027445635,0.038237367,13.0,34.0,-27.0,-24.0,52.0
1693678239543971400,27.0,-5.0,4.0,5.0,-2.0,43.0,8.0,3.0,1.019929886,-0.867898107,10.23880386,-0.060486984,0.000133231,-0.007727412,-31.0,37.0,85.0,7.0,-15.0,-0.105344877,2.424129248,10.22563553,0.053292494,-0.027445635,0.038237367,13.0,34.0,-27.0,-24.0,52.0
1693678239545969200,27.0,-5.0,4.0,5.0,-2.0,43.0,8.0,3.0,1.029506683,-0.863109708,10.23162079,-0.060753446,0.000133231,-0.007594181,-20.0,45.0,89.0,11.0,-8.0,-0.107739076,2.41455245,10.22204399,0.0528928,-0.028111791,0.038370594,16.0,40.0,-23.0,-23.0,54.0
1693678239545970000,5.0,16.0,1.0,0.0,-3.0,-18.0,-8.0,-3.0,1.029506683,-0.863109708,10.23162079,-0.060753446,0.000133231,-0.007594181,-20.0,45.0,89.0,11.0,-8.0,-0.107739076,2.41455245,10.22204399,0.0528928,-0.028111791,0.038370594,16.0,40.0,-23.0,-23.0,54.0
1693678239546969200,5.0,16.0,1.0,0.0,-3.0,-18.0,-8.0,-3.0,1.031900883,-0.863109708,10.23042393,-0.060620211,0.000266462,-0.007727412,-22.0,51.0,88.0,11.0,-8.0,-0.107739076,2.41574955,10.22324085,0.053159267,-0.028245023,0.038237367,20.0,33.0,-25.0,-24.0,53.0
1693678239547969200,5.0,16.0,1.0,0.0,-3.0,-18.0,-8.0,-3.0,1.030703783,-0.864306808,10.22683239,-0.060753446,0.000266462,-0.007594181,-29.0,43.0,90.0,8.0,-7.0,-0.106541976,2.41574955,10.22802925,0.053292494,-0.028245023,0.038237367,15.0,35.0,-31.0,-20.0,52.0
1693678239548969200,5.0,16.0,1.0,0.0,-3.0,-18.0,-8.0,-3.0,1.034295082,-0.865503907,10.23281765,-0.060620211,0.000399694,-0.007594181,-27.0,42.0,86.0,6.0,-9.0,-0.106541976,2.41694665,10.22683239,0.053026035,-0.027845331,0.038237367,17.0,43.0,-17.0,-22.0,48.0
1693678239549969200,5.0,16.0,1.0,0.0,-3.0,-18.0,-8.0,-3.0,1.037886381,-0.864306808,10.23401546,-0.060753446,0.000399694,-0.007594181,-22.0,45.0,88.0,10.0,-9.0,-0.110133275,2.41455245,10.22204399,0.0528928,-0.027712099,0.038237367,19.0,31.0,-27.0,-24.0,48.0
1693678239556963800,3.0,4.0,-4.0,-10.0,-6.0,15.0,1.0,2.0,1.037886381,-0.864306808,10.23401546,-0.060753446,0.000399694,-0.007594181,-22.0,45.0,88.0,10.0,-9.0,-0.110133275,2.41455245,10.22204399,0.0528928,-0.027712099,0.038237367,19.0,31.0,-27.0,-24.0,48.0
1693678239558963400,-5.0,-13.0,-13.0,-6.0,-2.0,-12.0,-4.0,-9.0,1.037886381,-0.864306808,10.23401546,-0.060753446,0.000399694,-0.007594181,-22.0,45.0,88.0,10.0,-9.0,-0.110133275,2.41455245,10.22204399,0.0528928,-0.027712099,0.038237367,19.0,31.0,-27.0,-24.0,48.0
1693678239559961500,1.0,15.0,14.0,9.0,-2.0,12.0,8.0,14.0,1.037886381,-0.864306808,10.23401546,-0.060753446,0.000399694,-0.007594181,-22.0,45.0,88.0,10.0,-9.0,-0.110133275,2.41455245,10.22204399,0.0528928,-0.027712099,0.038237367,19.0,31.0,-27.0,-24.0,48.0
1693678239560961600,1.0,2.0,-6.0,-3.0,-2.0,-8.0,-4.0,3.0,1.037886381,-0.864306808,10.23401546,-0.060753446,0.000399694,-0.007594181,-22.0,45.0,88.0,10.0,-9.0,-0.110133275,2.41455245,10.22204399,0.0528928,-0.027712099,0.038237367,19.0,31.0,-27.0,-24.0,48.0
1693678239581952000,-4.0,7.0,-5.0,-1.0,-5.0,0.0,1.0,11.0,1.037886381,-0.864306808,10.23401546,-0.060753446,0.000399694,-0.007594181,-22.0,45.0,88.0,10.0,-9.0,-0.110133275,2.41455245,10.22204399,0.0528928,-0.027712099,0.038237367,19.0,31.0,-27.0,-24.0,48.0
1693678239582951400,-6.0,-25.0,-3.0,7.0,28.0,9.0,0.0,-9.0,1.037886381,-0.864306808,10.23401546,-0.060753446,0.000399694,-0.007594181,-22.0,45.0,88.0,10.0,-9.0,-0.110133275,2.41455245,10.22204399,0.0528928,-0.027712099,0.038237367,19.0,31.0,-27.0,-24.0,48.0
1693678239583950000,-8.0,1.0,7.0,4.0,-6.0,-9.0,-4.0,-2.0,1.037886381,-0.864306808,10.23401546,-0.060753446,0.000399694,-0.007594181,-22.0,45.0,88.0,10.0,-9.0,-0.110133275,2.41455245,10.22204399,0.0528928,-0.027712099,0.038237367,19.0,31.0,-27.0,-24.0,48.0
1693678239584949300,13.0,28.0,8.0,-3.0,-8.0,2.0,4.0,2.0,1.037886381,-0.864306808,10.23401546,-0.060753446,0.000399694,-0.007594181,-22.0,45.0,88.0,10.0,-9.0,-0.110133275,2.41455245,10.22204399,0.0528928,-0.027712099,0.038237367,19.0,31.0,-27.0,-24.0,48.0
1693678239598942600,10.0,-4.0,4.0,1.0,-8.0,-14.0,1.0,3.0,1.037886381,-0.864306808,10.23401546,-0.060753446,0.000399694,-0.007594181,-22.0,45.0,88.0,10.0,-9.0,-0.110133275,2.41455245,10.22204399,0.0528928,-0.027712099,0.038237367,19.0,31.0,-27.0,-24.0,48.0
1693678239599950900,-8.0,-11.0,-1.0,2.0,8.0,7.0,-8.0,-13.0,1.037886381,-0.864306808,10.23401546,-0.060753446,0.000399694,-0.007594181,-22.0,45.0,88.0,10.0,-9.0,-0.110133275,2.41455245,10.22204399,0.0528928,-0.027712099,0.038237367,19.0,31.0,-27.0,-24.0,48.0
1693678239600938800,-8.0,-11.0,-1.0,2.0,8.0,7.0,-8.0,-13.0,1.033097982,-0.866701007,10.24239445,-0.060620211,0.000399694,-0.007460949,-20.0,47.0,88.0,13.0,-5.0,-0.116118781,2.418143749,10.21127033,0.0528928,-0.02797856,0.038370594,17.0,43.0,-24.0,-23.0,52.0
1693678239601938800,-8.0,-11.0,-1.0,2.0,8.0,7.0,-8.0,-13.0,1.035492182,-0.865503907,10.24359226,-0.061019909,0.000532925,-0.007594181,-18.0,45.0,78.0,12.0,-1.0,-0.113724582,2.419340849,10.21366405,0.0528928,-0.02797856,0.038370594,15.0,41.0,-24.0,-19.0,54.0
1693678239601960800,-1.0,1.0,-6.0,-5.0,-6.0,-28.0,-12.0,-2.0,1.035492182,-0.865503907,10.24359226,-0.061019909,0.000532925,-0.007594181,-18.0,45.0,78.0,12.0,-1.0,-0.113724582,2.419340849,10.21366405,0.0528928,-0.02797856,0.038370594,15.0,41.0,-24.0,-19.0,54.0
1693678239602938800,-1.0,1.0,-6.0,-5.0,-6.0,-28.0,-12.0,-2.0,1.031900883,-0.866701007,10.24598598,-0.060753446,0.000666156,-0.007460949,-25.0,41.0,89.0,4.0,-11.0,-0.113724582,2.419340849,10.21605873,0.0528928,-0.027845331,0.038370594,13.0,43.0,-24.0,-24.0,54.0
1693678239603938800,-1.0,1.0,-6.0,-5.0,-6.0,-28.0,-12.0,-2.0,1.035492182,-0.867898107,10.24359226,-0.060753446,0.000666156,-0.007460949,-23.0,43.0,87.0,10.0,-15.0,-0.113724582,2.418143749,10.21605873,0.0528928,-0.027845331,0.038237367,15.0,35.0,-22.0,-20.0,52.0
1693678239603939500,8.0,4.0,-6.0,-2.0,6.0,-1.0,-9.0,1.0,1.035492182,-0.867898107,10.24359226,-0.060753446,0.000666156,-0.007460949,-23.0,43.0,87.0,10.0,-15.0,-0.113724582,2.418143749,10.21605873,0.0528928,-0.027845331,0.038237367,15.0,35.0,-22.0,-20.0,52.0
1693678239604938800,8.0,4.0,-6.0,-2.0,6.0,-1.0,-9.0,1.0,1.035492182,-0.866701007,10.24000072,-0.060620211,0.000666156,-0.007460949,-28.0,46.0,89.0,12.0,-12.0,-0.116118781,2.419340849,10.21965027,0.052759573,-0.027845331,0.038104136,12.0,32.0,-26.0,-27.0,48.0
1693678239624947600,-10.0,-10.0,-9.0,-8.0,-2.0,13.0,4.0,6.0,1.035492182,-0.866701007,10.24000072,-0.060620211,0.000666156,-0.007460949,-28.0,46.0,89.0,12.0,-12.0,-0.116118781,2.419340849,10.21965027,0.052759573,-0.027845331,0.038104136,12.0,32.0,-26.0,-27.0,48.0
1693678239626926800,-6.0,-9.0,0.0,-1.0,-14.0,-8.0,33.0,-1.0,1.035492182,-0.866701007,10.24000072,-0.060620211,0.000666156,-0.007460949,-28.0,46.0,89.0,12.0,-12.0,-0.116118781,2.419340849,10.21965027,0.052759573,-0.027845331,0.038104136,12.0,32.0,-26.0,-27.0,48.0
1693678239632920400,0.0,3.0,3.0,3.0,5.0,-11.0,-9.0,4.0,1.035492182,-0.866701007,10.24000072,-0.060620211,0.000666156,-0.007460949,-28.0,46.0,89.0,12.0,-12.0,-0.116118781,2.419340849,10.21965027,0.052759573,-0.027845331,0.038104136,12.0,32.0,-26.0,-27.0,48.0
1693678239633922100,4.0,-5.0,-13.0,-11.0,0.0,11.0,2.0,-1.0,1.035492182,-0.866701007,10.24000072,-0.060620211,0.000666156,-0.007460949,-28.0,46.0,89.0,12.0,-12.0,-0.116118781,2.419340849,10.21965027,0.052759573,-0.027845331,0.038104136,12.0,32.0,-26.0,-27.0,48.0
1693678239639916300,-7.0,-2.0,-5.0,80.0,52.0,6.0,7.0,-4.0,1.035492182,-0.866701007,10.24000072,-0.060620211,0.000666156,-0.007460949,-28.0,46.0,89.0,12.0,-12.0,-0.116118781,2.419340849,10.21965027,0.052759573,-0.027845331,0.038104136,12.0,32.0,-26.0,-27.0,48.0
1693678239641916000,8.0,24.0,58.0,-52.0,-67.0,-3.0,-2.0,7.0,1.035492182,-0.866701007,10.24000072,-0.060620211,0.000666156,-0.007460949,-28.0,46.0,89.0,12.0,-12.0,-0.116118781,2.419340849,10.21965027,0.052759573,-0.027845331,0.038104136,12.0,32.0,-26.0,-27.0,48.0
1693678239645913300,5.0,-2.0,-7.0,1.0,4.0,-10.0,8.0,1.0,1.035492182,-0.866701007,10.24000072,-0.060620211,0.000666156,-0.007460949,-28.0,46.0,89.0,12.0,-12.0,-0.116118781,2.419340849,10.21965027,0.052759573,-0.027845331,0.038104136,12.0,32.0,-26.0,-27.0,48.0
1693678239649910900,1.0,2.0,6.0,10.0,1.0,-5.0,-9.0,-2.0,1.035492182,-0.866701007,10.24000072,-0.060620211,0.000666156,-0.007460949,-28.0,46.0,89.0,12.0,-12.0,-0.116118781,2.419340849,10.21965027,0.052759573,-0.027845331,0.038104136,12.0,32.0,-26.0,-27.0,48.0
1693678239653909600,1.0,-3.0,-18.0,-21.0,-15.0,-12.0,2.0,-1.0,1.035492182,-0.866701007,10.24000072,-0.060620211,0.000666156,-0.007460949,-28.0,46.0,89.0,12.0,-12.0,-0.116118781,2.419340849,10.21965027,0.052759573,-0.027845331,0.038104136,12.0,32.0,-26.0,-27.0,48.0
1693678239655907300,-7.0,-11.0,-23.0,16.0,37.0,12.0,-6.0,-5.0,1.035492182,-0.866701007,10.24000072,-0.060620211,0.000666156,-0.007460949,-28.0,46.0,89.0,12.0,-12.0,-0.116118781,2.419340849,10.21965027,0.052759573,-0.027845331,0.038104136,12.0,32.0,-26.0,-27.0,48.0
1693678239665905000,-4.0,-3.0,6.0,-6.0,-12.0,-11.0,-1.0,1.0,1.035492182,-0.866701007,10.24000072,-0.060620211,0.000666156,-0.007460949,-28.0,46.0,89.0,12.0,-12.0,-0.116118781,2.419340849,10.21965027,0.052759573,-0.027845331,0.038104136,12.0,32.0,-26.0,-27.0,48.0
1693678239674893700,-4.0,-3.0,6.0,-6.0,-12.0,-11.0,-1.0,1.0,1.023521185,-0.867898107,10.23042393,-0.060220521,0.000666156,-0.007860643,-24.0,48.0,89.0,6.0,-9.0,-0.114921682,2.41574955,10.21007347,0.052759573,-0.027445635,0.037837673,13.0,36.0,-21.0,-22.0,53.0
1693678239674912400,5.0,8.0,4.0,0.0,4.0,5.0,-2.0,2.0,1.023521185,-0.867898107,10.23042393,-0.060220521,0.000666156,-0.007860643,-24.0,48.0,89.0,6.0,-9.0,-0.114921682,2.41574955,10.21007347,0.052759573,-0.027445635,0.037837673,13.0,36.0,-21.0,-22.0,53.0
1693678239675893700,5.0,8.0,4.0,0.0,4.0,5.0,-2.0,2.0,1.024718285,-0.867898107,10.23162079,-0.060353752,0.000532925,-0.007594181,-20.0,45.0,88.0,10.0,-9.0,-0.113724582,2.41574955,10.21127033,0.052759573,-0.027445635,0.037970904,13.0,33.0,-24.0,-18.0,58.0
1693678239676893700,5.0,8.0,4.0,0.0,4.0,5.0,-2.0,2.0,1.022324085,-0.866701007,10.22802925,-0.060353752,0.000399694,-0.007594181,-27.0,42.0,89.0,7.0,-7.0,-0.113724582,2.41335535,10.21246719,0.0528928,-0.027578866,0.037837673,16.0,35.0,-29.0,-22.0,50.0
1693678239676896800,-1.0,1.0,-5.0,-16.0,6.0,4.0,-1.0,2.0,1.022324085,-0.866701007,10.22802925,-0.060353752,0.000399694,-0.007594181,-27.0,42.0,89.0,7.0,-7.0,-0.113724582,2.41335535,10.21246719,0.0528928,-0.027578866,0.037837673,16.0,35.0,-29.0,-22.0,50.0
1693678239677893700,-1.0,1.0,-5.0,-16.0,6.0,4.0,-1.0,2.0,1.022324085,-0.866701007,10.22683239,-0.060486984,0.000532925,-0.007327718,-24.0,38.0,87.0,12.0,-9.0,-0.112527482,2.41574955,10.21366405,0.053026035,-0.028245023,0.037704438,15.0,32.0,-27.0,-30.0,52.0
1693678239678893700,-1.0,1.0,-5.0,-16.0,6.0,4.0,-1.0,2.0,1.024718285,-0.865503907,10.22443867,-0.060486984,0.000399694,-0.007327718,-20.0,44.0,88.0,13.0,-8.0,-0.108936176,2.419340849,10.22084713,0.053292494,-0.028378254,0.037970904,13.0,36.0,-23.0,-20.0,50.0
1693678239679893100,-4.0,-8.0,-22.0,38.0,52.0,5.0,-11.0,-5.0,1.024718285,-0.865503907,10.22443867,-0.060486984,0.000399694,-0.007327718,-20.0,44.0,88.0,13.0,-8.0,-0.108936176,2.419340849,10.22084713,0.053292494,-0.028378254,0.037970904,13.0,36.0,-23.0,-20.0,50.0
1693678239700883000,2.0,11.0,34.0,-66.0,-77.0,-15.0,-1.0,3.0,1.024718285,-0.865503907,10.22443867,-0.060486984,0.000399694,-0.007327718,-20.0,44.0,88.0,13.0,-8.0,-0.108936176,2.419340849,10.22084713,0.053292494,-0.028378254,0.037970904,13.0,36.0,-23.0,-20.0,50.0
1693678239702881400,3.0,5.0,17.0,27.0,-34.0,-23.0,0.0,1.0,1.024718285,-0.865503907,10.22443867,-0.060486984,0.000399694,-0.007327718,-20.0,44.0,88.0,13.0,-8.0,-0.108936176,2.419340849,10.22084713,0.053292494,-0.028378254,0.037970904,13.0,36.0,-23.0,-20.0,50.0
1693678239703879600,1.0,-3.0,11.0,3.0,-18.0,-16.0,-4.0,-1.0,1.024718285,-0.865503907,10.22443867,-0.060486984,0.000399694,-0.007327718,-20.0,44.0,88.0,13.0,-8.0,-0.108936176,2.419340849,10.22084713,0.053292494,-0.028378254,0.037970904,13.0,36.0,-23.0,-20.0,50.0
1693678239704878300,2.0,3.0,-14.0,17.0,3.0,-13.0,-1.0,0.0,1.024718285,-0.865503907,10.22443867,-0.060486984,0.000399694,-0.007327718,-20.0,44.0,88.0,13.0,-8.0,-0.108936176,2.419340849,10.22084713,0.053292494,-0.028378254,0.037970904,13.0,36.0,-23.0,-20.0,50.0
1693678239705878400,-5.0,-9.0,-28.0,3.0,27.0,3.0,2.0,-4.0,1.024718285,-0.865503907,10.22443867,-0.060486984,0.000399694,-0.007327718,-20.0,44.0,88.0,13.0,-8.0,-0.108936176,2.419340849,10.22084713,0.053292494,-0.028378254,0.037970904,13.0,36.0,-23.0,-20.0,50.0
1693678239706877700,-6.0,-5.0,-15.0,-13.0,0.0,-20.0,-12.0,-6.0,1.024718285,-0.865503907,10.22443867,-0.060486984,0.000399694,-0.007327718,-20.0,44.0,88.0,13.0,-8.0,-0.108936176,2.419340849,10.22084713,0.053292494,-0.028378254,0.037970904,13.0,36.0,-23.0,-20.0,50.0
1693678239714875700,-1.0,-7.0,7.0,-15.0,-9.0,12.0,-2.0,2.0,1.024718285,-0.865503907,10.22443867,-0.060486984,0.000399694,-0.007327718,-20.0,44.0,88.0,13.0,-8.0,-0.108936176,2.419340849,10.22084713,0.053292494,-0.028378254,0.037970904,13.0,36.0,-23.0,-20.0,50.0
1693678239716873300,-6.0,-12.0,-35.0,-32.0,24.0,-8.0,-4.0,-2.0,1.024718285,-0.865503907,10.22443867,-0.060486984,0.000399694,-0.007327718,-20.0,44.0,88.0,13.0,-8.0,-0.108936176,2.419340849,10.22084713,0.053292494,-0.028378254,0.037970904,13.0,36.0,-23.0,-20.0,50.0
1693678239721870100,-2.0,9.0,57.0,46.0,-7.0,-21.0,-8.0,-3.0,1.024718285,-0.865503907,10.22443867,-0.060486984,0.000399694,-0.007327718,-20.0,44.0,88.0,13.0,-8.0,-0.108936176,2.419340849,10.22084713,0.053292494,-0.028378254,0.037970904,13.0,36.0,-23.0,-20.0,50.0
1693678239722869800,5.0,8.0,12.0,-36.0,-43.0,-3.0,1.0,0.0,1.024718285,-0.865503907,10.22443867,-0.060486984,0.000399694,-0.007327718,-20.0,44.0,88.0,13.0,-8.0,-0.108936176,2.419340849,10.22084713,0.053292494,-0.028378254,0.037970904,13.0,36.0,-23.0,-20.0,50.0
1693678239736861200,0.0,2.0,16.0,24.0,-29.0,-4.0,-4.0,2.0,1.024718285,-0.865503907,10.22443867,-0.060486984,0.000399694,-0.007327718,-20.0,44.0,88.0,13.0,-8.0,-0.108936176,2.419340849,10.22084713,0.053292494,-0.028378254,0.037970904,13.0,36.0,-23.0,-20.0,50.0
1693678239738857200,0.0,2.0,16.0,24.0,-29.0,-4.0,-4.0,2.0,1.025915384,-0.869095206,10.21605873,-0.060486984,0.000399694,-0.007460949,-18.0,45.0,81.0,12.0,-4.0,-0.120907187,2.41574955,10.21965027,0.0528928,-0.027179174,0.038104136,21.0,33.0,-20.0,-20.0,54.0
1693678239738860000,-1.0,0.0,-13.0,-50.0,-6.0,-14.0,-1.0,-3.0,1.025915384,-0.869095206,10.21605873,-0.060486984,0.000399694,-0.007460949,-18.0,45.0,81.0,12.0,-4.0,-0.120907187,2.41574955,10.21965027,0.0528928,-0.027179174,0.038104136,21.0,33.0,-20.0,-20.0,54.0
1693678239739857200,-1.0,0.0,-13.0,-50.0,-6.0,-14.0,-1.0,-3.0,1.023521185,-0.869095206,10.21486187,-0.060486984,0.000266462,-0.007594181,-22.0,37.0,88.0,11.0,-9.0,-0.123301387,2.41694665,10.21486187,0.052759573,-0.02691271,0.038104136,19.0,39.0,-27.0,-24.0,48.0
1693678239740857200,-1.0,0.0,-13.0,-50.0,-6.0,-14.0,-1.0,-3.0,1.025915384,-0.871489406,10.21725559,-0.060620211,0.000266462,-0.007594181,-20.0,38.0,88.0,11.0,-8.0,-0.122104287,2.41574955,10.21486187,0.052759573,-0.027045943,0.038104136,15.0,35.0,-32.0,-20.0,55.0
1693678239741857200,-1.0,0.0,-13.0,-50.0,-6.0,-14.0,-1.0,-3.0,1.027112484,-0.872686505,10.21845245,-0.060620211,0.000133231,-0.007594181,-28.0,42.0,84.0,3.0,-11.0,-0.120907187,2.41574955,10.21486187,0.052759573,-0.027045943,0.038237367,13.0,30.0,-25.0,-22.0,48.0
1693678239742857200,-1.0,0.0,-13.0,-50.0,-6.0,-14.0,-1.0,-3.0,1.023521185,-0.870292306,10.22084713,-0.060620211,0.000133231,-0.007594181,-22.0,39.0,89.0,10.0,-9.0,-0.119710088,2.41455245,10.21486187,0.0528928,-0.027179174,0.038237367,15.0,35.0,-29.0,-27.0,50.0
1693678239744856100,-1.0,-2.0,-53.0,-37.0,60.0,67.0,0.0,0.0,1.023521185,-0.870292306,10.22084713,-0.060620211,0.000133231,-0.007594181,-22.0,39.0,89.0,10.0,-9.0,-0.119710088,2.41455245,10.21486187,0.0528928,-0.027179174,0.038237367,15.0,35.0,-29.0,-27.0,50.0
1693678239745856100,2.0,6.0,40.0,90.0,-58.0,-36.0,2.0,1.0,1.023521185,-0.870292306,10.22084713,-0.060620211,0.000133231,-0.007594181,-22.0,39.0,89.0,10.0,-9.0,-0.119710088,2.41455245,10.21486187,0.0528928,-0.027179174,0.038237367,15.0,35.0,-29.0,-27.0,50.0
1693678239774839300,-2.0,-7.0,-22.0,26.0,52.0,10.0,-2.0,-1.0,1.023521185,-0.870292306,10.22084713,-0.060620211,0.000133231,-0.007594181,-22.0,39.0,89.0,10.0,-9.0,-0.119710088,2.41455245,10.21486187,0.0528928,-0.027179174,0.038237367,15.0,35.0,-29.0,-27.0,50.0
1693678239776837200,6.0,5.0,29.0,-34.0,-39.0,36.0,4.0,3.0,1.023521185,-0.870292306,10.22084713,-0.060620211,0.000133231,-0.007594181,-22.0,39.0,89.0,10.0,-9.0,-0.119710088,2.41455245,10.21486187,0.0528928,-0.027179174,0.038237367,15.0,35.0,-29.0,-27.0,50.0
1693678239778838000,-7.0,-11.0,-14.0,50.0,18.0,-62.0,-9.0,-7.0,1.023521185,-0.870292306,10.22084713,-0.060620211,0.000133231,-0.007594181,-22.0,39.0,89.0,10.0,-9.0,-0.119710088,2.41455245,10.21486187,0.0528928,-0.027179174,0.038237367,15.0,35.0,-29.0,-27.0,50.0
1693678239780837600,-3.0,0.0,12.0,-32.0,35.0,82.0,3.0,-1.0,1.023521185,-0.870292306,10.22084713,-0.060620211,0.000133231,-0.007594181,-22.0,39.0,89.0,10.0,-9.0,-0.119710088,2.41455245,10.21486187,0.0528928,-0.027179174,0.038237367,15.0,35.0,-29.0,-27.0,50.0
1693678239783837000,5.0,16.0,11.0,22.0,-55.0,-55.0,0.0,2.0,1.023521185,-0.870292306,10.22084713,-0.060620211,0.000133231,-0.007594181,-22.0,39.0,89.0,10.0,-9.0,-0.119710088,2.41455245,10.21486187,0.0528928,-0.027179174,0.038237367,15.0,35.0,-29.0,-27.0,50.0
1693678239785834000,0.0,-1.0,21.0,-2.0,-65.0,-4.0,-3.0,0.0,1.023521185,-0.870292306,10.22084713,-0.060620211,0.000133231,-0.007594181,-22.0,39.0,89.0,10.0,-9.0,-0.119710088,2.41455245,10.21486187,0.0528928,-0.027179174,0.038237367,15.0,35.0,-29.0,-27.0,50.0
1693678239787831200,-4.0,-7.0,-37.0,-36.0,68.0,1.0,7.0,-5.0,1.023521185,-0.870292306,10.22084713,-0.060620211,0.000133231,-0.007594181,-22.0,39.0,89.0,10.0,-9.0,-0.119710088,2.41455245,10.21486187,0.0528928,-0.027179174,0.038237367,15.0,35.0,-29.0,-27.0,50.0
1693678239788833000,-2.0,-6.0,-36.0,13.0,-1.0,-15.0,-7.0,-4.0,1.023521185,-0.870292306,10.22084713,-0.060620211,0.000133231,-0.007594181,-22.0,39.0,89.0,10.0,-9.0,-0.119710088,2.41455245,10.21486187,0.0528928,-0.027179174,0.038237367,15.0,35.0,-29.0,-27.0,50.0
1693678239797826100,-1.0,-9.0,-8.0,-24.0,63.0,73.0,21.0,5.0,1.023521185,-0.870292306,10.22084713,-0.060620211,0.000133231,-0.007594181,-22.0,39.0,89.0,10.0,-9.0,-0.119710088,2.41455245,10.21486187,0.0528928,-0.027179174,0.038237367,15.0,35.0,-29.0,-27.0,50.0
1693678239799824800,57.0,22.0,31.0,85.0,-52.0,-56.0,-10.0,-1.0,1.023521185,-0.870292306,10.22084713,-0.060620211,0.000133231,-0.007594181,-22.0,39.0,89.0,10.0,-9.0,-0.119710088,2.41455245,10.21486187,0.0528928,-0.027179174,0.038237367,15.0,35.0,-29.0,-27.0,50.0
1693678239802823500,-46.0,-3.0,-11.0,-8.0,51.0,102.0,31.0,5.0,1.023521185,-0.870292306,10.22084713,-0.060620211,0.000133231,-0.007594181,-22.0,39.0,89.0,10.0,-9.0,-0.119710088,2.41455245,10.21486187,0.0528928,-0.027179174,0.038237367,15.0,35.0,-29.0,-27.0,50.0
1693678239804823200,-42.0,-11.0,-25.0,-67.0,36.0,-102.0,-30.0,-14.0,1.023521185,-0.870292306,10.22084713,-0.060620211,0.000133231,-0.007594181,-22.0,39.0,89.0,10.0,-9.0,-0.119710088,2.41455245,10.21486187,0.0528928,-0.027179174,0.038237367,15.0,35.0,-29.0,-27.0,50.0
1693678239818041700,-42.0,-11.0,-25.0,-67.0,36.0,-102.0,-30.0,-14.0,1.017535686,-0.85592711,10.22683239,-0.060486984,0.000666156,-0.007460949,-23.0,44.0,85.0,13.0,-7.0,-0.114921682,2.41694665,10.21246719,0.052759573,-0.027712099,0.038104136,11.0,41.0,-20.0,-20.0,55.0
1693678239819041700,-42.0,-11.0,-25.0,-67.0,36.0,-102.0,-30.0,-14.0,1.018732786,-0.85592711,10.22922707,-0.060620211,0.000532925,-0.007594181,-23.0,47.0,87.0,12.0,-13.0,-0.112527482,2.41455245,10.21725559,0.0528928,-0.027712099,0.038104136,14.0,33.0,-26.0,-24.0,49.0
1693678239820041700,-42.0,-11.0,-25.0,-67.0,36.0,-102.0,-30.0,-14.0,1.018732786,-0.85592711,10.22443867,-0.060486984,0.000532925,-0.007594181,-28.0,38.0,87.0,9.0,-13.0,-0.114921682,2.41335535,10.22084713,0.052759573,-0.027578866,0.038104136,11.0,40.0,-27.0,-22.0,52.0
1693678239820043000,53.0,-7.0,23.0,-127.0,4.0,36.0,-4.0,-4.0,1.018732786,-0.85592711,10.22443867,-0.060486984,0.000532925,-0.007594181,-28.0,38.0,87.0,9.0,-13.0,-0.114921682,2.41335535,10.22084713,0.052759573,-0.027578866,0.038104136,11.0,40.0,-27.0,-22.0,52.0
1693678239821041700,53.0,-7.0,23.0,-127.0,4.0,36.0,-4.0,-4.0,1.021126986,-0.857124209,10.21965027,-0.060220521,0.000532925,-0.007727412,-18.0,38.0,84.0,6.0,-13.0,-0.116118781,2.41455245,10.22324085,0.052759573,-0.027578866,0.037970904,15.0,35.0,-22.0,-26.0,48.0
1693678239822041700,-28.0,30.0,73.0,123.0,-16.0,66.0,32.0,22.0,1.023521185,-0.857124209,10.22324085,-0.060220521,0.000666156,-0.007594181,-24.0,45.0,87.0,12.0,-8.0,-0.114921682,2.41574955,10.22443867,0.052626338,-0.027445635,0.037970904,15.0,33.0,-23.0,-28.0,50.0
1693678239824040100,78.0,11.0,18.0,46.0,19.0,-7.0,-12.0,-1.0,1.023521185,-0.857124209,10.22324085,-0.060220521,0.000666156,-0.007594181,-24.0,45.0,87.0,12.0,-8.0,-0.114921682,2.41574955,10.22443867,0.052626338,-0.027445635,0.037970904,15.0,33.0,-23.0,-28.0,50.0
1693678239825038500,-56.0,-4.0,-19.0,58.0,-17.0,97.0,8.0,-6.0,1.023521185,-0.857124209,10.22324085,-0.060220521,0.000666156,-0.007594181,-24.0,45.0,87.0,12.0,-8.0,-0.114921682,2.41574955,10.22443867,0.052626338,-0.027445635,0.037970904,15.0,33.0,-23.0,-28.0,50.0
1693678239842029200,-32.0,-38.0,-112.0,-117.0,127.0,-128.0,3.0,9.0,1.023521185,-0.857124209,10.22324085,-0.060220521,0.000666156,-0.007594181,-24.0,45.0,87.0,12.0,-8.0,-0.114921682,2.41574955,10.22443867,0.052626338,-0.027445635,0.037970904,15.0,33.0,-23.0,-28.0,50.0
1693678239844028600,8.0,23.0,54.0,-35.0,-34.0,32.0,-9.0,3.0,1.023521185,-0.857124209,10.22324085,-0.060220521,0.000666156,-0.007594181,-24.0,45.0,87.0,12.0,-8.0,-0.114921682,2.41574955,10.22443867,0.052626338,-0.027445635,0.037970904,15.0,33.0,-23.0,-28.0,50.0
1693678239845028000,-37.0,-7.0,46.0,87.0,-128.0,-86.0,7.0,-3.0,1.023521185,-0.857124209,10.22324085,-0.060220521,0.000666156,-0.007594181,-24.0,45.0,87.0,12.0,-8.0,-0.114921682,2.41574955,10.22443867,0.052626338,-0.027445635,0.037970904,15.0,33.0,-23.0,-28.0,50.0
1693678239847026900,37.0,-28.0,-95.0,-87.0,127.0,79.0,7.0,20.0,1.023521185,-0.857124209,10.22324085,-0.060220521,0.000666156,-0.007594181,-24.0,45.0,87.0,12.0,-8.0,-0.114921682,2.41574955,10.22443867,0.052626338,-0.027445635,0.037970904,15.0,33.0,-23.0,-28.0,50.0
1693678239857022000,20.0,51.0,108.0,21.0,-128.0,-75.0,-30.0,-24.0,1.023521185,-0.857124209,10.22324085,-0.060220521,0.000666156,-0.007594181,-24.0,45.0,87.0,12.0,-8.0,-0.114921682,2.41574955,10.22443867,0.052626338,-0.027445635,0.037970904,15.0,33.0,-23.0,-28.0,50.0
1693678239858020400,35.0,-6.0,-92.0,-124.0,127.0,73.0,-7.0,-15.0,1.023521185,-0.857124209,10.22324085,-0.060220521,0.000666156,-0.007594181,-24.0,45.0,87.0,12.0,-8.0,-0.114921682,2.41574955,10.22443867,0.052626338,-0.027445635,0.037970904,15.0,33.0,-23.0,-28.0,50.0
1693678239865016800,-32.0,-6.0,21.0,100.0,2.0,-91.0,59.0,42.0,1.023521185,-0.857124209,10.22324085,-0.060220521,0.000666156,-0.007594181,-24.0,45.0,87.0,12.0,-8.0,-0.114921682,2.41574955,10.22443867,0.052626338,-0.027445635,0.037970904,15.0,33.0,-23.0,-28.0,50.0
1693678239867015700,109.0,12.0,-7.0,-85.0,-37.0,69.0,-53.0,9.0,1.023521185,-0.857124209,10.22324085,-0.060220521,0.000666156,-0.007594181,-24.0,45.0,87.0,12.0,-8.0,-0.114921682,2.41574955,10.22443867,0.052626338,-0.027445635,0.037970904,15.0,33.0,-23.0,-28.0,50.0
1693678239881007400,-126.0,-37.0,-23.0,-12.0,37.0,-70.0,7.0,-50.0,1.023521185,-0.857124209,10.22324085,-0.060220521,0.000666156,-0.007594181,-24.0,45.0,87.0,12.0,-8.0,-0.114921682,2.41574955,10.22443867,0.052626338,-0.027445635,0.037970904,15.0,33.0,-23.0,-28.0,50.0
1693678239885005300,45.0,18.0,-20.0,-91.0,-48.0,3.0,18.0,26.0,1.023521185,-0.857124209,10.22324085,-0.060220521,0.000666156,-0.007594181,-24.0,45.0,87.0,12.0,-8.0,-0.114921682,2.41574955,10.22443867,0.052626338,-0.027445635,0.037970904,15.0,33.0,-23.0,-28.0,50.0
1693678239888000800,45.0,18.0,-20.0,-91.0,-48.0,3.0,18.0,26.0,1.023521185,-0.85473001,10.23880386,-0.060486984,0.00106585,-0.007327718,-20.0,45.0,87.0,6.0,-9.0,-0.117315881,2.406172752,10.24119759,0.0528928,-0.027712099,0.037704438,10.0,39.0,-27.0,-24.0,49.0
1693678239888003200,-64.0,-33.0,-38.0,-128.0,12.0,16.0,8.0,-13.0,1.023521185,-0.85473001,10.23880386,-0.060486984,0.00106585,-0.007327718,-20.0,45.0,87.0,6.0,-9.0,-0.117315881,2.406172752,10.24119759,0.0528928,-0.027712099,0.037704438,10.0,39.0,-27.0,-24.0,49.0
1693678239889000800,-64.0,-33.0,-38.0,-128.0,12.0,16.0,8.0,-13.0,1.023521185,-0.85353291,10.23880386,-0.060486984,0.00106585,-0.007327718,-21.0,39.0,89.0,6.0,-15.0,-0.119710088,2.404975653,10.23880386,0.0528928,-0.027845331,0.037704438,9.0,36.0,-25.0,-28.0,47.0
1693678239890000800,-64.0,-33.0,-38.0,-128.0,12.0,16.0,8.0,-13.0,1.027112484,-0.849941611,10.24000072,-0.060620211,0.000799387,-0.007327718,-28.0,43.0,90.0,10.0,-13.0,-0.119710088,2.408566952,10.23880386,0.052626338,-0.027845331,0.037704438,9.0,39.0,-29.0,-30.0,44.0
1693678239890003000,32.0,27.0,106.0,120.0,-50.0,74.0,0.0,63.0,1.027112484,-0.849941611,10.24000072,-0.060620211,0.000799387,-0.007327718,-28.0,43.0,90.0,10.0,-13.0,-0.119710088,2.408566952,10.23880386,0.052626338,-0.027845331,0.037704438,9.0,39.0,-29.0,-30.0,44.0
1693678239891000800,32.0,27.0,106.0,120.0,-50.0,74.0,0.0,63.0,1.024718285,-0.852335811,10.24119759,-0.060486984,0.000932619,-0.007460949,-23.0,45.0,84.0,13.0,-11.0,-0.117315881,2.407369852,10.23162079,0.052759573,-0.027845331,0.037704438,11.0,37.0,-27.0,-27.0,49.0
1693678239892000800,32.0,27.0,106.0,120.0,-50.0,74.0,0.0,63.0,1.022324085,-0.849941611,10.23521233,-0.060486984,0.000932619,-0.007460949,-19.0,43.0,87.0,12.0,-8.0,-0.117315881,2.407369852,10.23640919,0.053159267,-0.027712099,0.037704438,19.0,42.0,-24.0,-20.0,50.0
1693678239901996500,37.0,-5.0,-33.0,-85.0,66.0,61.0,-11.0,31.0,1.022324085,-0.849941611,10.23521233,-0.060486984,0.000932619,-0.007460949,-19.0,43.0,87.0,12.0,-8.0,-0.117315881,2.407369852,10.23640919,0.053159267,-0.027712099,0.037704438,19.0,42.0,-24.0,-20.0,50.0
1693678239903996100,34.0,-21.0,-46.0,96.0,17.0,13.0,65.0,-27.0,1.022324085,-0.849941611,10.23521233,-0.060486984,0.000932619,-0.007460949,-19.0,43.0,87.0,12.0,-8.0,-0.117315881,2.407369852,10.23640919,0.053159267,-0.027712099,0.037704438,19.0,42.0,-24.0,-20.0,50.0
1693678239904993600,-91.0,-33.0,-45.0,-128.0,-5.0,80.0,-79.0,-54.0,1.022324085,-0.849941611,10.23521233,-0.060486984,0.000932619,-0.007460949,-19.0,43.0,87.0,12.0,-8.0,-0.117315881,2.407369852,10.23640919,0.053159267,-0.027712099,0.037704438,19.0,42.0,-24.0,-20.0,50.0
1693678239905994700,-14.0,-28.0,-55.0,-127.0,76.0,-126.0,-73.0,-21.0,1.022324085,-0.849941611,10.23521233,-0.060486984,0.000932619,-0.007460949,-19.0,43.0,87.0,12.0,-8.0,-0.117315881,2.407369852,10.23640919,0.053159267,-0.027712099,0.037704438,19.0,42.0,-24.0,-20.0,50.0
1693678239924039300,55.0,58.0,112.0,126.0,-128.0,89.0,-42.0,20.0,1.022324085,-0.849941611,10.23521233,-0.060486984,0.000932619,-0.007460949,-19.0,43.0,87.0,12.0,-8.0,-0.117315881,2.407369852,10.23640919,0.053159267,-0.027712099,0.037704438,19.0,42.0,-24.0,-20.0,50.0
1693678239926039900,-36.0,11.0,43.0,-50.0,-60.0,-5.0,16.0,4.0,1.022324085,-0.849941611,10.23521233,-0.060486984,0.000932619,-0.007460949,-19.0,43.0,87.0,12.0,-8.0,-0.117315881,2.407369852,10.23640919,0.053159267,-0.027712099,0.037704438,19.0,42.0,-24.0,-20.0,50.0
1693678239928039900,43.0,-3.0,-80.0,-109.0,42.0,-25.0,-5.0,7.0,1.022324085,-0.849941611,10.23521233,-0.060486984,0.000932619,-0.007460949,-19.0,43.0,87.0,12.0,-8.0,-0.117315881,2.407369852,10.23640919,0.053159267,-0.027712099,0.037704438,19.0,42.0,-24.0,-20.0,50.0
1693678239929037800,-27.0,10.0,50.0,127.0,9.0,-66.0,69.0,-14.0,1.022324085,-0.849941611,10.23521233,-0.060486984,0.000932619,-0.007460949,-19.0,43.0,87.0,12.0,-8.0,-0.117315881,2.407369852,10.23640919,0.053159267,-0.027712099,0.037704438,19.0,42.0,-24.0,-20.0,50.0
1693678239938032600,-11.0,-15.0,-57.0,-41.0,104.0,9.0,-6.0,-15.0,1.022324085,-0.849941611,10.23521233,-0.060486984,0.000932619,-0.007460949,-19.0,43.0,87.0,12.0,-8.0,-0.117315881,2.407369852,10.23640919,0.053159267,-0.027712099,0.037704438,19.0,42.0,-24.0,-20.0,50.0
1693678239940033800,-37.0,-28.0,-22.0,74.0,102.0,30.0,3.0,22.0,1.022324085,-0.849941611,10.23521233,-0.060486984,0.000932619,-0.007460949,-19.0,43.0,87.0,12.0,-8.0,-0.117315881,2.407369852,10.23640919,0.053159267,-0.027712099,0.037704438,19.0,42.0,-24.0,-20.0,50.0
1693678239952023400,43.0,31.0,75.0,80.0,-102.0,-64.0,11.0,9.0,1.022324085,-0.849941611,10.23521233,-0.060486984,0.000932619,-0.007460949,-19.0,43.0,87.0,12.0,-8.0,-0.117315881,2.407369852,10.23640919,0.053159267,-0.027712099,0.037704438,19.0,42.0,-24.0,-20.0,50.0
1693678239953023400,45.0,5.0,-55.0,-128.0,13.0,19.0,-38.0,-34.0,1.022324085,-0.849941611,10.23521233,-0.060486984,0.000932619,-0.007460949,-19.0,43.0,87.0,12.0,-8.0,-0.117315881,2.407369852,10.23640919,0.053159267,-0.027712099,0.037704438,19.0,42.0,-24.0,-20.0,50.0
1693678239962017700,-101.0,-20.0,-24.0,2.0,-21.0,42.0,47.0,6.0,1.022324085,-0.849941611,10.23521233,-0.060486984,0.000932619,-0.007460949,-19.0,43.0,87.0,12.0,-8.0,-0.117315881,2.407369852,10.23640919,0.053159267,-0.027712099,0.037704438,19.0,42.0,-24.0,-20.0,50.0
1693678239966015800,8.0,-16.0,13.0,15.0,-60.0,23.0,-9.0,13.0,1.022324085,-0.849941611,10.23521233,-0.060486984,0.000932619,-0.007460949,-19.0,43.0,87.0,12.0,-8.0,-0.117315881,2.407369852,10.23640919,0.053159267,-0.027712099,0.037704438,19.0,42.0,-24.0,-20.0,50.0
1693678239968016200,21.0,-6.0,-27.0,-42.0,17.0,64.0,1.0,5.0,1.022324085,-0.849941611,10.23521233,-0.060486984,0.000932619,-0.007460949,-19.0,43.0,87.0,12.0,-8.0,-0.117315881,2.407369852,10.23640919,0.053159267,-0.027712099,0.037704438,19.0,42.0,-24.0,-20.0,50.0
1693678239969015100,12.0,31.0,97.0,94.0,42.0,-23.0,29.0,2.0,1.022324085,-0.849941611,10.23521233,-0.060486984,0.000932619,-0.007460949,-19.0,43.0,87.0,12.0,-8.0,-0.117315881,2.407369852,10.23640919,0.053159267,-0.027712099,0.037704438,19.0,42.0,-24.0,-20.0,50.0
1693678239985006200,42.0,14.0,-14.0,-94.0,-62.0,-10.0,-38.0,-6.0,1.022324085,-0.849941611,10.23521233,-0.060486984,0.000932619,-0.007460949,-19.0,43.0,87.0,12.0,-8.0,-0.117315881,2.407369852,10.23640919,0.053159267,-0.027712099,0.037704438,19.0,42.0,-24.0,-20.0,50.0
1693678239987005900,-47.0,-19.0,-52.0,-100.0,83.0,-22.0,15.0,-2.0,1.022324085,-0.849941611,10.23521233,-0.060486984,0.000932619,-0.007460949,-19.0,43.0,87.0,12.0,-8.0,-0.117315881,2.407369852,10.23640919,0.053159267,-0.027712099,0.037704438,19.0,42.0,-24.0,-20.0,50.0
1693678239988002900,26.0,10.0,16.0,-39.0,9.0,-34.0,-62.0,2.0,1.022324085,-0.849941611,10.23521233,-0.060486984,0.000932619,-0.007460949,-19.0,43.0,87.0,12.0,-8.0,-0.117315881,2.407369852,10.23640919,0.053159267,-0.027712099,0.037704438,19.0,42.0,-24.0,-20.0,50.0
1693678239989003600,-47.0,-19.0,-33.0,-48.0,-22.0,11.0,16.0,-15.0,1.022324085,-0.849941611,10.23521233,-0.060486984,0.000932619,-0.007460949,-19.0,43.0,87.0,12.0,-8.0,-0.117315881,2.407369852,10.23640919,0.053159267,-0.027712099,0.037704438,19.0,42.0,-24.0,-20.0,50.0
1693678239999000100,55.0,-3.0,-21.0,-49.0,6.0,41.0,58.0,-11.0,1.022324085,-0.849941611,10.23521233,-0.060486984,0.000932619,-0.007460949,-19.0,43.0,87.0,12.0,-8.0,-0.117315881,2.407369852,10.23640919,0.053159267,-0.027712099,0.037704438,19.0,42.0,-24.0,-20.0,50.0
1693678239999998700,-40.0,-2.0,75.0,80.0,-94.0,-41.0,-128.0,-7.0,1.022324085,-0.849941611,10.23521233,-0.060486984,0.000932619,-0.007460949,-19.0,43.0,87.0,12.0,-8.0,-0.117315881,2.407369852,10.23640919,0.053159267,-0.027712099,0.037704438,19.0,42.0,-24.0,-20.0,50.0
1693678240000992900,-40.0,-2.0,75.0,80.0,-94.0,-41.0,-128.0,-7.0,1.023521185,-0.85473001,10.21845245,-0.060753446,0.0,-0.008127105,-19.0,39.0,87.0,13.0,-11.0,-0.125695586,2.404975653,10.21486187,0.053825419,-0.02904441,0.038770292,19.0,30.0,-25.0,-23.0,52.0
1693678240001992900,-40.0,-2.0,75.0,80.0,-94.0,-41.0,-128.0,-7.0,1.024718285,-0.85473001,10.22204399,-0.060353752,-0.000133231,-0.007993874,-23.0,42.0,87.0,12.0,-9.0,-0.119710088,2.407369852,10.21845245,0.054491576,-0.03011026,0.038903523,8.0,30.0,-22.0,-25.0,49.0
1693678240002992900,-40.0,-2.0,75.0,80.0,-94.0,-41.0,-128.0,-7.0,1.027112484,-0.852335811,10.22204399,-0.060486984,-0.000399694,-0.007993874,-24.0,31.0,90.0,8.0,-5.0,-0.122104287,2.41574955,10.21845245,0.054358348,-0.030243492,0.039436448,15.0,40.0,-28.0,-21.0,50.0
1693678240003992900,-40.0,-2.0,75.0,80.0,-94.0,-41.0,-128.0,-7.0,1.029506683,-0.852335811,10.23521233,-0.060220521,-0.000399694,-0.008127105,-24.0,44.0,80.0,13.0,-11.0,-0.118512981,2.420537949,10.21845245,0.053825419,-0.029843798,0.039436448,20.0,41.0,-21.0,-19.0,52.0
1693678240004992900,-40.0,-2.0,75.0,80.0,-94.0,-41.0,-128.0,-7.0,1.034295082,-0.85353291,10.23760605,-0.060486984,-0.000399694,-0.007993874,-26.0,42.0,84.0,11.0,-8.0,-0.116118781,2.425326347,10.22084713,0.053425729,-0.029444104,0.039169986,13.0,33.0,-31.0,-24.0,48.0
1693678240006992000,32.0,20.0,40.0,120.0,-35.0,-39.0,28.0,13.0,1.034295082,-0.85353291,10.23760605,-0.060486984,-0.000399694,-0.007993874,-26.0,42.0,84.0,11.0,-8.0,-0.116118781,2.425326347,10.22084713,0.053425729,-0.029444104,0.039169986,13.0,33.0,-31.0,-24.0,48.0
1693678240008993400,-34.0,-14.0,-21.0,5.0,-12.0,54.0,59.0,-4.0,1.034295082,-0.85353291,10.23760605,-0.060486984,-0.000399694,-0.007993874,-26.0,42.0,84.0,11.0,-8.0,-0.116118781,2.425326347,10.22084713,0.053425729,-0.029444104,0.039169986,13.0,33.0,-31.0,-24.0,48.0
1693678240022984000,9.0,1.0,19.0,4.0,11.0,-70.0,11.0,3.0,1.034295082,-0.85353291,10.23760605,-0.060486984,-0.000399694,-0.007993874,-26.0,42.0,84.0,11.0,-8.0,-0.116118781,2.425326347,10.22084713,0.053425729,-0.029444104,0.039169986,13.0,33.0,-31.0,-24.0,48.0
1693678240024981700,25.0,7.0,-7.0,-11.0,95.0,-14.0,-13.0,-14.0,1.034295082,-0.85353291,10.23760605,-0.060486984,-0.000399694,-0.007993874,-26.0,42.0,84.0,11.0,-8.0,-0.116118781,2.425326347,10.22084713,0.053425729,-0.029444104,0.039169986,13.0,33.0,-31.0,-24.0,48.0
1693678240025981300,32.0,-4.0,-64.0,-106.0,43.0,9.0,17.0,0.0,1.034295082,-0.85353291,10.23760605,-0.060486984,-0.000399694,-0.007993874,-26.0,42.0,84.0,11.0,-8.0,-0.116118781,2.425326347,10.22084713,0.053425729,-0.029444104,0.039169986,13.0,33.0,-31.0,-24.0,48.0
1693678240026984200,-48.0,11.0,64.0,78.0,-123.0,8.0,12.0,-13.0,1.034295082,-0.85353291,10.23760605,-0.060486984,-0.000399694,-0.007993874,-26.0,42.0,84.0,11.0,-8.0,-0.116118781,2.425326347,10.22084713,0.053425729,-0.029444104,0.039169986,13.0,33.0,-31.0,-24.0,48.0
1693678240044969900,72.0,8.0,10.0,35.0,4.0,31.0,-1.0,29.0,1.034295082,-0.85353291,10.23760605,-0.060486984,-0.000399694,-0.007993874,-26.0,42.0,84.0,11.0,-8.0,-0.116118781,2.425326347,10.22084713,0.053425729,-0.029444104,0.039169986,13.0,33.0,-31.0,-24.0,48.0
1693678240048969300,-66.0,-17.0,-55.0,-78.0,63.0,19.0,-11.0,-5.0,1.034295082,-0.85353291,10.23760605,-0.060486984,-0.000399694,-0.007993874,-26.0,42.0,84.0,11.0,-8.0,-0.116118781,2.425326347,10.22084713,0.053425729,-0.029444104,0.039169986,13.0,33.0,-31.0,-24.0,48.0
1693678240050968000,-14.0,-17.0,-5.0,-55.0,2.0,24.0,-2.0,-9.0,1.034295082,-0.85353291,10.23760605,-0.060486984,-0.000399694,-0.007993874,-26.0,42.0,84.0,11.0,-8.0,-0.116118781,2.425326347,10.22084713,0.053425729,-0.029444104,0.039169986,13.0,33.0,-31.0,-24.0,48.0
1693678240051967000,-21.0,-6.0,-22.0,-81.0,4.0,-84.0,-4.0,-22.0,1.034295082,-0.85353291,10.23760605,-0.060486984,-0.000399694,-0.007993874,-26.0,42.0,84.0,11.0,-8.0,-0.116118781,2.425326347,10.22084713,0.053425729,-0.029444104,0.039169986,13.0,33.0,-31.0,-24.0,48.0
1693678240072956100,-21.0,-23.0,-27.0,2.0,-3.0,2.0,-30.0,-6.0,1.034295082,-0.85353291,10.23760605,-0.060486984,-0.000399694,-0.007993874,-26.0,42.0,84.0,11.0,-8.0,-0.116118781,2.425326347,10.22084713,0.053425729,-0.029444104,0.039169986,13.0,33.0,-31.0,-24.0,48.0
1693678240074953300,41.0,15.0,22.0,30.0,-31.0,-22.0,-12.0,-7.0,1.034295082,-0.85353291,10.23760605,-0.060486984,-0.000399694,-0.007993874,-26.0,42.0,84.0,11.0,-8.0,-0.116118781,2.425326347,10.22084713,0.053425729,-0.029444104,0.039169986,13.0,33.0,-31.0,-24.0,48.0
1693678240075950500,41.0,15.0,22.0,30.0,-31.0,-22.0,-12.0,-7.0,1.024718285,-0.863109708,10.23760605,-0.060620211,0.0,-0.007860643,-22.0,47.0,81.0,13.0,-8.0,-0.114921682,2.422932148,10.20767879,0.051294025,-0.025846859,0.037970904,11.0,30.0,-25.0,-23.0,46.0
1693678240075952400,7.0,9.0,12.0,11.0,24.0,62.0,36.0,1.0,1.024718285,-0.863109708,10.23760605,-0.060620211,0.0,-0.007860643,-22.0,47.0,81.0,13.0,-8.0,-0.114921682,2.422932148,10.20767879,0.051294025,-0.025846859,0.037970904,11.0,30.0,-25.0,-23.0,46.0
1693678240076950500,7.0,9.0,12.0,11.0,24.0,62.0,36.0,1.0,1.024718285,-0.866701007,10.24119759,-0.060486984,0.000266462,-0.007727412,-24.0,39.0,88.0,10.0,-12.0,-0.113724582,2.422932148,10.20887566,0.051693719,-0.026379786,0.038104136,14.0,30.0,-29.0,-24.0,49.0
1693678240077950500,7.0,9.0,12.0,11.0,24.0,62.0,36.0,1.0,1.022324085,-0.867898107,10.24119759,-0.060486984,0.000399694,-0.007860643,-31.0,41.0,85.0,16.0,-7.0,-0.116118781,2.421735048,10.20887566,0.052359879,-0.027179174,0.037970904,20.0,39.0,-23.0,-18.0,41.0
1693678240077951300,-11.0,-3.0,-10.0,0.0,-22.0,-37.0,-23.0,-1.0,1.022324085,-0.867898107,10.24119759,-0.060486984,0.000399694,-0.007860643,-31.0,41.0,85.0,16.0,-7.0,-0.116118781,2.421735048,10.20887566,0.052359879,-0.027179174,0.037970904,20.0,39.0,-23.0,-18.0,41.0
1693678240078950500,-11.0,-3.0,-10.0,0.0,-22.0,-37.0,-23.0,-1.0,1.017535686,-0.866701007,10.24359226,-0.060486984,0.000532925,-0.007860643,-20.0,50.0,90.0,10.0,-8.0,-0.117315881,2.420537949,10.21725559,0.0528928,-0.027845331,0.038104136,21.0,43.0,-20.0,-18.0,54.0
1693678240079950500,-11.0,-3.0,-10.0,0.0,-22.0,-37.0,-23.0,-1.0,1.018732786,-0.866701007,10.24239445,-0.060353752,0.000666156,-0.007727412,-23.0,41.0,90.0,13.0,-3.0,-0.113724582,2.419340849,10.21725559,0.0528928,-0.028245023,0.038237367,19.0,37.0,-23.0,-24.0,51.0
1693678240082948900,24.0,13.0,27.0,75.0,3.0,49.0,-40.0,-2.0,1.018732786,-0.866701007,10.24239445,-0.060353752,0.000666156,-0.007727412,-23.0,41.0,90.0,13.0,-3.0,-0.113724582,2.419340849,10.21725559,0.0528928,-0.028245023,0.038237367,19.0,37.0,-23.0,-24.0,51.0
1693678240083948100,-30.0,-5.0,-5.0,-22.0,-14.0,-55.0,95.0,3.0,1.018732786,-0.866701007,10.24239445,-0.060353752,0.000666156,-0.007727412,-23.0,41.0,90.0,13.0,-3.0,-0.113724582,2.419340849,10.21725559,0.0528928,-0.028245023,0.038237367,19.0,37.0,-23.0,-24.0,51.0
1693678240085948500,-3.0,8.0,16.0,40.0,-16.0,-19.0,-15.0,-6.0,1.018732786,-0.866701007,10.24239445,-0.060353752,0.000666156,-0.007727412,-23.0,41.0,90.0,13.0,-3.0,-0.113724582,2.419340849,10.21725559,0.0528928,-0.028245023,0.038237367,19.0,37.0,-23.0,-24.0,51.0
1693678240087948100,4.0,-1.0,-14.0,-10.0,15.0,-80.0,-103.0,-17.0,1.018732786,-0.866701007,10.24239445,-0.060353752,0.000666156,-0.007727412,-23.0,41.0,90.0,13.0,-3.0,-0.113724582,2.419340849,10.21725559,0.0528928,-0.028245023,0.038237367,19.0,37.0,-23.0,-24.0,51.0
1693678240103935900,-30.0,-6.0,-1.0,5.0,-19.0,-12.0,24.0,3.0,1.018732786,-0.866701007,10.24239445,-0.060353752,0.000666156,-0.007727412,-23.0,41.0,90.0,13.0,-3.0,-0.113724582,2.419340849,10.21725559,0.0528928,-0.028245023,0.038237367,19.0,37.0,-23.0,-24.0,51.0
1693678240105935900,37.0,14.0,5.0,-10.0,1.0,66.0,55.0,7.0,1.018732786,-0.866701007,10.24239445,-0.060353752,0.000666156,-0.007727412,-23.0,41.0,90.0,13.0,-3.0,-0.113724582,2.419340849,10.21725559,0.0528928,-0.028245023,0.038237367,19.0,37.0,-23.0,-24.0,51.0
1693678240110931900,-32.0,-8.0,-9.0,-5.0,2.0,15.0,25.0,-9.0,1.018732786,-0.866701007,10.24239445,-0.060353752,0.000666156,-0.007727412,-23.0,41.0,90.0,13.0,-3.0,-0.113724582,2.419340849,10.21725559,0.0528928,-0.028245023,0.038237367,19.0,37.0,-23.0,-24.0,51.0
1693678240111933500,-6.0,-10.0,2.0,2.0,3.0,4.0,-37.0,10.0,1.018732786,-0.866701007,10.24239445,-0.060353752,0.000666156,-0.007727412,-23.0,41.0,90.0,13.0,-3.0,-0.113724582,2.419340849,10.21725559,0.0528928,-0.028245023,0.038237367,19.0,37.0,-23.0,-24.0,51.0
1693678240117929800,16.0,19.0,5.0,8.0,18.0,45.0,-90.0,-35.0,1.018732786,-0.866701007,10.24239445,-0.060353752,0.000666156,-0.007727412,-23.0,41.0,90.0,13.0,-3.0,-0.113724582,2.419340849,10.21725559,0.0528928,-0.028245023,0.038237367,19.0,37.0,-23.0,-24.0,51.0
1693678240119928900,-65.0,-21.0,-5.0,0.0,-12.0,-33.0,22.0,12.0,1.018732786,-0.866701007,10.24239445,-0.060353752,0.000666156,-0.007727412,-23.0,41.0,90.0,13.0,-3.0,-0.113724582,2.419340849,10.21725559,0.0528928,-0.028245023,0.038237367,19.0,37.0,-23.0,-24.0,51.0
1693678240126927100,-3.0,-12.0,6.0,17.0,-4.0,-37.0,-2.0,9.0,1.018732786,-0.866701007,10.24239445,-0.060353752,0.000666156,-0.007727412,-23.0,41.0,90.0,13.0,-3.0,-0.113724582,2.419340849,10.21725559,0.0528928,-0.028245023,0.038237367,19.0,37.0,-23.0,-24.0,51.0
1693678240128923100,17.0,7.0,-15.0,-25.0,3.0,20.0,-9.0,0.0,1.018732786,-0.866701007,10.24239445,-0.060353752,0.000666156,-0.007727412,-23.0,41.0,90.0,13.0,-3.0,-0.113724582,2.419340849,10.21725559,0.0528928,-0.028245023,0.038237367,19.0,37.0,-23.0,-24.0,51.0
1693678240142914500,-14.0,-9.0,4.0,16.0,-11.0,-28.0,87.0,12.0,1.018732786,-0.866701007,10.24239445,-0.060353752,0.000666156,-0.007727412,-23.0,41.0,90.0,13.0,-3.0,-0.113724582,2.419340849,10.21725559,0.0528928,-0.028245023,0.038237367,19.0,37.0,-23.0,-24.0,51.0
1693678240143914400,-27.0,-57.0,-10.0,2.0,5.0,12.0,-119.0,-46.0,1.018732786,-0.866701007,10.24239445,-0.060353752,0.000666156,-0.007727412,-23.0,41.0,90.0,13.0,-3.0,-0.113724582,2.419340849,10.21725559,0.0528928,-0.028245023,0.038237367,19.0,37.0,-23.0,-24.0,51.0
1693678240148912000,101.0,60.0,14.0,15.0,5.0,50.0,-35.0,21.0,1.018732786,-0.866701007,10.24239445,-0.060353752,0.000666156,-0.007727412,-23.0,41.0,90.0,13.0,-3.0,-0.113724582,2.419340849,10.21725559,0.0528928,-0.028245023,0.038237367,19.0,37.0,-23.0,-24.0,51.0
1693678240152908500,101.0,60.0,14.0,15.0,5.0,50.0,-35.0,21.0,1.021126986,-0.863109708,10.22683239,-0.060486984,0.000532925,-0.007594181,-24.0,43.0,81.0,9.0,-9.0,-0.116118781,2.424129248,10.22084713,0.05249311,-0.02691271,0.037970904,9.0,31.0,-28.0,-23.0,37.0
1693678240152909000,0.0,18.0,-13.0,-22.0,-10.0,-3.0,127.0,52.0,1.021126986,-0.863109708,10.22683239,-0.060486984,0.000532925,-0.007594181,-24.0,43.0,81.0,9.0,-9.0,-0.116118781,2.424129248,10.22084713,0.05249311,-0.02691271,0.037970904,9.0,31.0,-28.0,-23.0,37.0
1693678240153908500,0.0,18.0,-13.0,-22.0,-10.0,-3.0,127.0,52.0,1.017535686,-0.865503907,10.22563553,-0.060486984,0.000399694,-0.007594181,-24.0,48.0,87.0,6.0,-8.0,-0.114921682,2.425326347,10.22324085,0.052626338,-0.02691271,0.037970904,18.0,36.0,-23.0,-27.0,52.0
1693678240154908500,0.0,18.0,-13.0,-22.0,-10.0,-3.0,127.0,52.0,1.018732786,-0.865503907,10.22683239,-0.060486984,0.000266462,-0.007327718,-30.0,39.0,88.0,12.0,-8.0,-0.112527482,2.428917646,10.22443867,0.052626338,-0.02691271,0.038104136,19.0,39.0,-24.0,-18.0,55.0
1693678240155908500,0.0,18.0,-13.0,-22.0,-10.0,-3.0,127.0,52.0,1.018732786,-0.865503907,10.22683239,-0.060753446,0.000266462,-0.007460949,-22.0,38.0,87.0,8.0,-9.0,-0.116118781,2.428917646,10.22683239,0.0528928,-0.027045943,0.037970904,22.0,36.0,-29.0,-22.0,50.0
1693678240156908500,0.0,18.0,-13.0,-22.0,-10.0,-3.0,127.0,52.0,1.017535686,-0.866701007,10.23042393,-0.060753446,0.000133231,-0.007594181,-23.0,44.0,89.0,13.0,-1.0,-0.118512981,2.428917646,10.22802925,0.052759573,-0.027312404,0.037970904,13.0,29.0,-25.0,-29.0,44.0
1693678240165901300,-71.0,-56.0,-14.0,-10.0,7.0,6.0,-121.0,-8.0,1.017535686,-0.866701007,10.23042393,-0.060753446,0.000133231,-0.007594181,-23.0,44.0,89.0,13.0,-1.0,-0.118512981,2.428917646,10.22802925,0.052759573,-0.027312404,0.037970904,13.0,29.0,-25.0,-29.0,44.0
1693678240167899900,22.0,91.0,12.0,14.0,-11.0,-14.0,70.0,-2.0,1.017535686,-0.866701007,10.23042393,-0.060753446,0.000133231,-0.007594181,-23.0,44.0,89.0,13.0,-1.0,-0.118512981,2.428917646,10.22802925,0.052759573,-0.027312404,0.037970904,13.0,29.0,-25.0,-29.0,44.0
1693678240168899300,-10.0,22.0,9.0,-6.0,10.0,30.0,-94.0,-42.0,1.017535686,-0.866701007,10.23042393,-0.060753446,0.000133231,-0.007594181,-23.0,44.0,89.0,13.0,-1.0,-0.118512981,2.428917646,10.22802925,0.052759573,-0.027312404,0.037970904,13.0,29.0,-25.0,-29.0,44.0
1693678240169898900,98.0,-74.0,-3.0,5.0,-3.0,25.0,55.0,10.0,1.017535686,-0.866701007,10.23042393,-0.060753446,0.000133231,-0.007594181,-23.0,44.0,89.0,13.0,-1.0,-0.118512981,2.428917646,10.22802925,0.052759573,-0.027312404,0.037970904,13.0,29.0,-25.0,-29.0,44.0
1693678240186889300,-27.0,65.0,-11.0,0.0,-5.0,4.0,109.0,-4.0,1.017535686,-0.866701007,10.23042393,-0.060753446,0.000133231,-0.007594181,-23.0,44.0,89.0,13.0,-1.0,-0.118512981,2.428917646,10.22802925,0.052759573,-0.027312404,0.037970904,13.0,29.0,-25.0,-29.0,44.0
1693678240188887900,46.0,-32.0,2.0,-4.0,8.0,-8.0,-41.0,19.0,1.017535686,-0.866701007,10.23042393,-0.060753446,0.000133231,-0.007594181,-23.0,44.0,89.0,13.0,-1.0,-0.118512981,2.428917646,10.22802925,0.052759573,-0.027312404,0.037970904,13.0,29.0,-25.0,-29.0,44.0
1693678240190888800,55.0,-84.0,1.0,10.0,-6.0,-16.0,36.0,-29.0,1.017535686,-0.866701007,10.23042393,-0.060753446,0.000133231,-0.007594181,-23.0,44.0,89.0,13.0,-1.0,-0.118512981,2.428917646,10.22802925,0.052759573,-0.027312404,0.037970904,13.0,29.0,-25.0,-29.0,44.0
1693678240193885100,-69.0,16.0,-7.0,-2.0,11.0,-1.0,8.0,17.0,1.017535686,-0.866701007,10.23042393,-0.060753446,0.000133231,-0.007594181,-23.0,44.0,89.0,13.0,-1.0,-0.118512981,2.428917646,10.22802925,0.052759573,-0.027312404,0.037970904,13.0,29.0,-25.0,-29.0,44.0
1693678240209875700,84.0,17.0,9.0,2.0,-8.0,-22.0,-9.0,16.0,1.017535686,-0.866701007,10.23042393,-0.060753446,0.000133231,-0.007594181,-23.0,44.0,89.0,13.0,-1.0,-0.118512981,2.428917646,10.22802925,0.052759573,-0.027312404,0.037970904,13.0,29.0,-25.0,-29.0,44.0
1693678240211874900,112.0,-6.0,-6.0,-10.0,-7.0,-17.0,-9.0,-8.0,1.017535686,-0.866701007,10.23042393,-0.060753446,0.000133231,-0.007594181,-23.0,44.0,89.0,13.0,-1.0,-0.118512981,2.428917646,10.22802925,0.052759573,-0.027312404,0.037970904,13.0,29.0,-25.0,-29.0,44.0
1693678240213875900,-60.0,-13.0,-14.0,-9.0,-5.0,-13.0,-16.0,11.0,1.017535686,-0.866701007,10.23042393,-0.060753446,0.000133231,-0.007594181,-23.0,44.0,89.0,13.0,-1.0,-0.118512981,2.428917646,10.22802925,0.052759573,-0.027312404,0.037970904,13.0,29.0,-25.0,-29.0,44.0
1693678240216872600,-6.0,13.0,6.0,-3.0,1.0,6.0,-8.0,-47.0,1.017535686,-0.866701007,10.23042393,-0.060753446,0.000133231,-0.007594181,-23.0,44.0,89.0,13.0,-1.0,-0.118512981,2.428917646,10.22802925,0.052759573,-0.027312404,0.037970904,13.0,29.0,-25.0,-29.0,44.0
1693678240223867300,-45.0,-5.0,7.0,15.0,8.0,14.0,-54.0,-2.0,1.017535686,-0.866701007,10.23042393,-0.060753446,0.000133231,-0.007594181,-23.0,44.0,89.0,13.0,-1.0,-0.118512981,2.428917646,10.22802925,0.052759573,-0.027312404,0.037970904,13.0,29.0,-25.0,-29.0,44.0
1693678240230867400,-100.0,36.0,-1.0,-3.0,-6.0,-29.0,76.0,-34.0,1.017535686,-0.866701007,10.23042393,-0.060753446,0.000133231,-0.007594181,-23.0,44.0,89.0,13.0,-1.0,-0.118512981,2.428917646,10.22802925,0.052759573,-0.027312404,0.037970904,13.0,29.0,-25.0,-29.0,44.0
1693678240233866400,109.0,-9.0,10.0,3.0,-3.0,-14.0,-53.0,96.0,1.017535686,-0.866701007,10.23042393,-0.060753446,0.000133231,-0.007594181,-23.0,44.0,89.0,13.0,-1.0,-0.118512981,2.428917646,10.22802925,0.052759573,-0.027312404,0.037970904,13.0,29.0,-25.0,-29.0,44.0
1693678240236859300,109.0,-9.0,10.0,3.0,-3.0,-14.0,-53.0,96.0,1.029506683,-0.851138711,10.23880386,-0.060620211,0.000666156,-0.007460949,-24.0,48.0,87.0,6.0,-7.0,-0.111330383,2.419340849,10.21366405,0.053159267,-0.027445635,0.038370594,13.0,36.0,-22.0,-20.0,48.0
1693678240236861200,-85.0,-43.0,-6.0,-8.0,3.0,15.0,-18.0,-33.0,1.029506683,-0.851138711,10.23880386,-0.060620211,0.000666156,-0.007460949,-24.0,48.0,87.0,6.0,-7.0,-0.111330383,2.419340849,10.21366405,0.053159267,-0.027445635,0.038370594,13.0,36.0,-22.0,-20.0,48.0
1693678240237859300,-85.0,-43.0,-6.0,-8.0,3.0,15.0,-18.0,-33.0,1.028309584,-0.85353291,10.23760605,-0.060486984,0.000666156,-0.007594181,-27.0,42.0,80.0,11.0,-9.0,-0.111330383,2.418143749,10.21007347,0.053159267,-0.027445635,0.038370594,17.0,35.0,-29.0,-20.0,48.0
1693678240238859300,-85.0,-43.0,-6.0,-8.0,3.0,15.0,-18.0,-33.0,1.028309584,-0.85473001,10.24000072,-0.060620211,0.000666156,-0.007594181,-30.0,43.0,86.0,8.0,-9.0,-0.111330383,2.421735048,10.20767879,0.053159267,-0.027445635,0.038237367,21.0,37.0,-19.0,-18.0,52.0
1693678240239859300,-85.0,-43.0,-6.0,-8.0,3.0,15.0,-18.0,-33.0,1.029506683,-0.85592711,10.23521233,-0.060486984,0.000666156,-0.007594181,-21.0,46.0,88.0,8.0,-8.0,-0.107739076,2.421735048,10.21246719,0.053159267,-0.027179174,0.038237367,16.0,33.0,-28.0,-22.0,52.0
1693678240240859300,7.0,-12.0,-2.0,3.0,-4.0,2.0,39.0,44.0,1.030703783,-0.858321309,10.23640919,-0.060486984,0.000532925,-0.007727412,-18.0,48.0,88.0,9.0,-5.0,-0.105344877,2.425326347,10.21366405,0.0528928,-0.027045943,0.037970904,13.0,32.0,-31.0,-24.0,49.0
1693678240241857800,72.0,7.0,2.0,1.0,5.0,5.0,-20.0,-48.0,1.030703783,-0.858321309,10.23640919,-0.060486984,0.000532925,-0.007727412,-18.0,48.0,88.0,9.0,-5.0,-0.105344877,2.425326347,10.21366405,0.0528928,-0.027045943,0.037970904,13.0,32.0,-31.0,-24.0,49.0
1693678240248856000,-100.0,-17.0,-9.0,-7.0,-2.0,-5.0,25.0,-27.0,1.030703783,-0.858321309,10.23640919,-0.060486984,0.000532925,-0.007727412,-18.0,48.0,88.0,9.0,-5.0,-0.105344877,2.425326347,10.21366405,0.0528928,-0.027045943,0.037970904,13.0,32.0,-31.0,-24.0,49.0
1693678240249856400,-19.0,-7.0,2.0,2.0,6.0,10.0,25.0,23.0,1.030703783,-0.858321309,10.23640919,-0.060486984,0.000532925,-0.007727412,-18.0,48.0,88.0,9.0,-5.0,-0.105344877,2.425326347,10.21366405,0.0528928,-0.027045943,0.037970904,13.0,32.0,-31.0,-24.0,49.0
1693678240261847300,49.0,62.0,-3.0,-3.0,-8.0,-14.0,-52.0,-55.0,1.030703783,-0.858321309,10.23640919,-0.060486984,0.000532925,-0.007727412,-18.0,48.0,88.0,9.0,-5.0,-0.105344877,2.425326347,10.21366405,0.0528928,-0.027045943,0.037970904,13.0,32.0,-31.0,-24.0,49.0
1693678240265844300,-14.0,-31.0,-2.0,-1.0,-3.0,-4.0,48.0,28.0,1.030703783,-0.858321309,10.23640919,-0.060486984,0.000532925,-0.007727412,-18.0,48.0,88.0,9.0,-5.0,-0.105344877,2.425326347,10.21366405,0.0528928,-0.027045943,0.037970904,13.0,32.0,-31.0,-24.0,49.0
1693678240268844600,-14.0,5.0,-8.0,-4.0,-2.0,-3.0,19.0,-2.0,1.030703783,-0.858321309,10.23640919,-0.060486984,0.000532925,-0.007727412,-18.0,48.0,88.0,9.0,-5.0,-0.105344877,2.425326347,10.21366405,0.0528928,-0.027045943,0.037970904,13.0,32.0,-31.0,-24.0,49.0
1693678240269843500,32.0,33.0,-4.0,-4.0,2.0,0.0,-31.0,23.0,1.030703783,-0.858321309,10.23640919,-0.060486984,0.000532925,-0.007727412,-18.0,48.0,88.0,9.0,-5.0,-0.105344877,2.425326347,10.21366405,0.0528928,-0.027045943,0.037970904,13.0,32.0,-31.0,-24.0,49.0
1693678240284832500,4.0,-30.0,-1.0,2.0,-1.0,-4.0,21.0,-24.0,1.030703783,-0.858321309,10.23640919,-0.060486984,0.000532925,-0.007727412,-18.0,48.0,88.0,9.0,-5.0,-0.105344877,2.425326347,10.21366405,0.0528928,-0.027045943,0.037970904,13.0,32.0,-31.0,-24.0,49.0
1693678240286832100,-36.0,-19.0,6.0,-7.0,-2.0,2.0,-24.0,14.0,1.030703783,-0.858321309,10.23640919,-0.060486984,0.000532925,-0.007727412,-18.0,48.0,88.0,9.0,-5.0,-0.105344877,2.425326347,10.21366405,0.0528928,-0.027045943,0.037970904,13.0,32.0,-31.0,-24.0,49.0
1693678240287831000,-20.0,4.0,4.0,3.0,-2.0,4.0,7.0,6.0,1.030703783,-0.858321309,10.23640919,-0.060486984,0.000532925,-0.007727412,-18.0,48.0,88.0,9.0,-5.0,-0.105344877,2.425326347,10.21366405,0.0528928,-0.027045943,0.037970904,13.0,32.0,-31.0,-24.0,49.0
1693678240289829700,41.0,41.0,-7.0,-1.0,-1.0,8.0,8.0,-10.0,1.030703783,-0.858321309,10.23640919,-0.060486984,0.000532925,-0.007727412,-18.0,48.0,88.0,9.0,-5.0,-0.105344877,2.425326347,10.21366405,0.0528928,-0.027045943,0.037970904,13.0,32.0,-31.0,-24.0,49.0
1693678240300827000,-23.0,-30.0,8.0,6.0,-2.0,-11.0,-15.0,10.0,1.030703783,-0.858321309,10.23640919,-0.060486984,0.000532925,-0.007727412,-18.0,48.0,88.0,9.0,-5.0,-0.105344877,2.425326347,10.21366405,0.0528928,-0.027045943,0.037970904,13.0,32.0,-31.0,-24.0,49.0
1693678240302823000,-24.0,12.0,-16.0,-13.0,-5.0,0.0,19.0,8.0,1.030703783,-0.858321309,10.23640919,-0.060486984,0.000532925,-0.007727412,-18.0,48.0,88.0,9.0,-5.0,-0.105344877,2.425326347,10.21366405,0.0528928,-0.027045943,0.037970904,13.0,32.0,-31.0,-24.0,49.0
1693678240314813300,-24.0,12.0,-16.0,-13.0,-5.0,0.0,19.0,8.0,1.024718285,-0.85592711,10.23281765,-0.060753446,0.0,-0.007860643,-28.0,43.0,83.0,11.0,-16.0,-0.10295067,2.420537949,10.22084713,0.052626338,-0.026379786,0.037704438,24.0,33.0,-25.0,-26.0,52.0
1693678240315813300,-24.0,12.0,-16.0,-13.0,-5.0,0.0,19.0,8.0,1.025915384,-0.857124209,10.23042393,-0.061019909,0.000133231,-0.007727412,-27.0,38.0,87.0,2.0,-13.0,-0.106541976,2.421735048,10.22204399,0.052626338,-0.026646247,0.037704438,17.0,41.0,-21.0,-16.0,55.0
1693678240315816300,-18.0,34.0,9.0,11.0,6.0,1.0,-49.0,-25.0,1.025915384,-0.857124209,10.23042393,-0.061019909,0.000133231,-0.007727412,-27.0,38.0,87.0,2.0,-13.0,-0.106541976,2.421735048,10.22204399,0.052626338,-0.026646247,0.037704438,17.0,41.0,-21.0,-16.0,55.0
1693678240316813300,-18.0,34.0,9.0,11.0,6.0,1.0,-49.0,-25.0,1.025915384,-0.85592711,10.22922707,-0.061019909,0.000266462,-0.007727412,-24.0,32.0,87.0,10.0,-5.0,-0.105344877,2.422932148,10.22324085,0.052626338,-0.02691271,0.03757121,11.0,31.0,-27.0,-23.0,42.0
1693678240317813300,-18.0,34.0,9.0,11.0,6.0,1.0,-49.0,-25.0,1.024718285,-0.85592711,10.23640919,-0.060886677,0.000399694,-0.007860643,-20.0,38.0,87.0,13.0,-8.0,-0.106541976,2.420537949,10.21965027,0.052626338,-0.02691271,0.037704438,18.0,39.0,-27.0,-24.0,46.0
1693678240317814300,102.0,-28.0,3.0,-6.0,-8.0,-2.0,-2.0,3.0,1.024718285,-0.85592711,10.23640919,-0.060886677,0.000399694,-0.007860643,-20.0,38.0,87.0,13.0,-8.0,-0.106541976,2.420537949,10.21965027,0.052626338,-0.02691271,0.037704438,18.0,39.0,-27.0,-24.0,46.0
1693678240318813300,102.0,-28.0,3.0,-6.0,-8.0,-2.0,-2.0,3.0,1.027112484,-0.85592711,10.23880386,-0.060753446,0.000399694,-0.007727412,-6.0,48.0,91.0,12.0,-5.0,-0.105344877,2.421735048,10.22084713,0.05249311,-0.02691271,0.03757121,17.0,30.0,-25.0,-20.0,45.0
1693678240321811600,-61.0,-19.0,-2.0,3.0,11.0,4.0,32.0,19.0,1.027112484,-0.85592711,10.23880386,-0.060753446,0.000399694,-0.007727412,-6.0,48.0,91.0,12.0,-5.0,-0.105344877,2.421735048,10.22084713,0.05249311,-0.02691271,0.03757121,17.0,30.0,-25.0,-20.0,45.0
1693678240323810200,28.0,-8.0,2.0,1.0,-1.0,-19.0,-61.0,-3.0,1.027112484,-0.85592711,10.23880386,-0.060753446,0.000399694,-0.007727412,-6.0,48.0,91.0,12.0,-5.0,-0.105344877,2.421735048,10.22084713,0.05249311,-0.02691271,0.03757121,17.0,30.0,-25.0,-20.0,45.0
1693678240327807300,-63.0,-10.0,0.0,-2.0,-2.0,0.0,21.0,-24.0,1.027112484,-0.85592711,10.23880386,-0.060753446,0.000399694,-0.007727412,-6.0,48.0,91.0,12.0,-5.0,-0.105344877,2.421735048,10.22084713,0.05249311,-0.02691271,0.03757121,17.0,30.0,-25.0,-20.0,45.0
1693678240330807700,27.0,24.0,-5.0,2.0,-2.0,8.0,3.0,3.0,1.027112484,-0.85592711,10.23880386,-0.060753446,0.000399694,-0.007727412,-6.0,48.0,91.0,12.0,-5.0,-0.105344877,2.421735048,10.22084713,0.05249311,-0.02691271,0.03757121,17.0,30.0,-25.0,-20.0,45.0
1693678240344799200,0.0,-3.0,-11.0,-17.0,-8.0,-4.0,3.0,6.0,1.027112484,-0.85592711,10.23880386,-0.060753446,0.000399694,-0.007727412,-6.0,48.0,91.0,12.0,-5.0,-0.105344877,2.421735048,10.22084713,0.05249311,-0.02691271,0.03757121,17.0,30.0,-25.0,-20.0,45.0
1693678240347798600,16.0,-4.0,3.0,-9.0,5.0,2.0,-39.0,-11.0,1.027112484,-0.85592711,10.23880386,-0.060753446,0.000399694,-0.007727412,-6.0,48.0,91.0,12.0,-5.0,-0.105344877,2.421735048,10.22084713,0.05249311,-0.02691271,0.03757121,17.0,30.0,-25.0,-20.0,45.0
1693678240350795400,-18.0,1.0,7.0,17.0,1.0,7.0,19.0,3.0,1.027112484,-0.85592711,10.23880386,-0.060753446,0.000399694,-0.007727412,-6.0,48.0,91.0,12.0,-5.0,-0.105344877,2.421735048,10.22084713,0.05249311,-0.02691271,0.03757121,17.0,30.0,-25.0,-20.0,45.0
1693678240352794300,-23.0,-1.0,4.0,-3.0,0.0,-13.0,-13.0,-5.0,1.027112484,-0.85592711,10.23880386,-0.060753446,0.000399694,-0.007727412,-6.0,48.0,91.0,12.0,-5.0,-0.105344877,2.421735048,10.22084713,0.05249311,-0.02691271,0.03757121,17.0,30.0,-25.0,-20.0,45.0
1693678240375781900,20.0,-12.0,-37.0,-11.0,3.0,13.0,43.0,0.0,1.027112484,-0.85592711,10.23880386,-0.060753446,0.000399694,-0.007727412,-6.0,48.0,91.0,12.0,-5.0,-0.105344877,2.421735048,10.22084713,0.05249311,-0.02691271,0.03757121,17.0,30.0,-25.0,-20.0,45.0
1693678240376781200,-20.0,14.0,53.0,44.0,-7.0,-2.0,36.0,15.0,1.027112484,-0.85592711,10.23880386,-0.060753446,0.000399694,-0.007727412,-6.0,48.0,91.0,12.0,-5.0,-0.105344877,2.421735048,10.22084713,0.05249311,-0.02691271,0.03757121,17.0,30.0,-25.0,-20.0,45.0
1693678240378779600,33.0,3.0,-13.0,-9.0,0.0,-23.0,-63.0,-8.0,1.027112484,-0.85592711,10.23880386,-0.060753446,0.000399694,-0.007727412,-6.0,48.0,91.0,12.0,-5.0,-0.105344877,2.421735048,10.22084713,0.05249311,-0.02691271,0.03757121,17.0,30.0,-25.0,-20.0,45.0
1693678240384776100,-19.0,-13.0,-29.0,-8.0,2.0,19.0,-4.0,5.0,1.027112484,-0.85592711,10.23880386,-0.060753446,0.000399694,-0.007727412,-6.0,48.0,91.0,12.0,-5.0,-0.105344877,2.421735048,10.22084713,0.05249311,-0.02691271,0.03757121,17.0,30.0,-25.0,-20.0,45.0
1693678240385776400,-1.0,-3.0,-20.0,-21.0,9.0,-8.0,0.0,-1.0,1.027112484,-0.85592711,10.23880386,-0.060753446,0.000399694,-0.007727412,-6.0,48.0,91.0,12.0,-5.0,-0.105344877,2.421735048,10.22084713,0.05249311,-0.02691271,0.03757121,17.0,30.0,-25.0,-20.0,45.0
1693678240387776400,-14.0,-5.0,23.0,39.0,-15.0,15.0,1.0,-2.0,1.027112484,-0.85592711,10.23880386,-0.060753446,0.000399694,-0.007727412,-6.0,48.0,91.0,12.0,-5.0,-0.105344877,2.421735048,10.22084713,0.05249311,-0.02691271,0.03757121,17.0,30.0,-25.0,-20.0,45.0
1693678240388772900,18.0,19.0,12.0,4.0,10.0,30.0,24.0,7.0,1.027112484,-0.85592711,10.23880386,-0.060753446,0.000399694,-0.007727412,-6.0,48.0,91.0,12.0,-5.0,-0.105344877,2.421735048,10.22084713,0.05249311,-0.02691271,0.03757121,17.0,30.0,-25.0,-20.0,45.0
1693678240388775500,18.0,19.0,12.0,4.0,10.0,30.0,24.0,7.0,1.031900883,-0.858321309,10.23281765,-0.060220521,0.000932619,-0.007727412,-22.0,46.0,90.0,13.0,-11.0,-0.111330383,2.41455245,10.23162079,0.0528928,-0.026646247,0.038104136,9.0,30.0,-23.0,-18.0,50.0
1693678240389775500,18.0,19.0,12.0,4.0,10.0,30.0,24.0,7.0,1.033097982,-0.857124209,10.22922707,-0.060220521,0.000932619,-0.007727412,-22.0,41.0,75.0,3.0,-13.0,-0.113724582,2.41335535,10.23042393,0.052759573,-0.026513018,0.038104136,18.0,35.0,-25.0,-16.0,52.0
1693678240390773100,-2.0,0.0,-10.0,-14.0,3.0,-29.0,17.0,-7.0,1.033097982,-0.857124209,10.22922707,-0.060220521,0.000932619,-0.007727412,-22.0,41.0,75.0,3.0,-13.0,-0.113724582,2.41335535,10.23042393,0.052759573,-0.026513018,0.038104136,18.0,35.0,-25.0,-16.0,52.0
1693678240390775500,-2.0,0.0,-10.0,-14.0,3.0,-29.0,17.0,-7.0,1.034295082,-0.85592711,10.22802925,-0.060220521,0.000932619,-0.007727412,-28.0,45.0,77.0,7.0,-2.0,-0.116118781,2.41574955,10.23281765,0.052626338,-0.026513018,0.038104136,13.0,42.0,-25.0,-24.0,52.0
1693678240391775500,-2.0,0.0,-10.0,-14.0,3.0,-29.0,17.0,-7.0,1.034295082,-0.857124209,10.22683239,-0.06008729,0.00106585,-0.007727412,-26.0,43.0,84.0,8.0,-9.0,-0.116118781,2.41574955,10.23640919,0.05249311,-0.026513018,0.037970904,15.0,41.0,-21.0,-29.0,46.0
1693678240392775500,-2.0,0.0,-10.0,-14.0,3.0,-29.0,17.0,-7.0,1.033097982,-0.859518409,10.22324085,-0.06008729,0.00106585,-0.007727412,-19.0,47.0,90.0,14.0,-5.0,-0.117315881,2.41574955,10.23760605,0.052626338,-0.026646247,0.038104136,13.0,36.0,-33.0,-26.0,44.0
1693678240411723400,-1.0,-14.0,-21.0,-11.0,-18.0,-38.0,-31.0,2.0,1.033097982,-0.859518409,10.22324085,-0.06008729,0.00106585,-0.007727412,-19.0,47.0,90.0,14.0,-5.0,-0.117315881,2.41574955,10.23760605,0.052626338,-0.026646247,0.038104136,13.0,36.0,-33.0,-26.0,44.0
1693678240415721600,5.0,-15.0,-69.0,-42.0,-4.0,3.0,-23.0,6.0,1.033097982,-0.859518409,10.22324085,-0.06008729,0.00106585,-0.007727412,-19.0,47.0,90.0,14.0,-5.0,-0.117315881,2.41574955,10.23760605,0.052626338,-0.026646247,0.038104136,13.0,36.0,-33.0,-26.0,44.0
