timestamp,EMG_s0,EMG_s1,EMG_s2,EMG_s3,EMG_s4,EMG_s5,EMG_s6,EMG_s7,left_data_Ac_X,left_data_Ac_Y,left_data_Ac_Z,left_data_Gy_X,left_data_Gy_Y,left_data_Gy_Z,left_data_flex_1,left_data_flex_2,left_data_flex_3,left_data_flex_4,left_data_flex_5,right_data_Ac_X,right_data_Ac_Y,right_data_Ac_Z,right_data_Gy_X,right_data_Gy_Y,right_data_Gy_Z,right_data_flex_1,right_data_flex_2,right_data_flex_3,right_data_flex_4,right_data_flex_5
1693678368275270700,0.0,-1.0,-2.0,-1.0,0.0,0.0,-1.0,1.0,1.021126986,-0.865503907,10.22204399,-0.060220521,0.000932619,-0.007727412,-26.0,33.0,79.0,11.0,-12.0,-0.104147777,2.421735048,10.23281765,0.052626338,-0.027578866,0.038370594,20.0,30.0,-25.0,-24.0,45.0
1693678368276287200,-1.0,-1.0,-2.0,1.0,-2.0,-14.0,1.0,-4.0,1.021126986,-0.865503907,10.22204399,-0.060220521,0.000932619,-0.007727412,-26.0,33.0,79.0,11.0,-12.0,-0.104147777,2.421735048,10.23281765,0.052626338,-0.027578866,0.038370594,20.0,30.0,-25.0,-24.0,45.0
1693678368283266400,0.0,0.0,0.0,-1.0,-2.0,0.0,2.0,4.0,1.021126986,-0.865503907,10.22204399,-0.060220521,0.000932619,-0.007727412,-26.0,33.0,79.0,11.0,-12.0,-0.104147777,2.421735048,10.23281765,0.052626338,-0.027578866,0.038370594,20.0,30.0,-25.0,-24.0,45.0
1693678368287288900,-1.0,-1.0,1.0,-2.0,-1.0,0.0,6.0,7.0,1.021126986,-0.865503907,10.22204399,-0.060220521,0.000932619,-0.007727412,-26.0,33.0,79.0,11.0,-12.0,-0.104147777,2.421735048,10.23281765,0.052626338,-0.027578866,0.038370594,20.0,30.0,-25.0,-24.0,45.0
1693678368288281000,0.0,0.0,0.0,0.0,-1.0,-5.0,-6.0,-1.0,1.021126986,-0.865503907,10.22204399,-0.060220521,0.000932619,-0.007727412,-26.0,33.0,79.0,11.0,-12.0,-0.104147777,2.421735048,10.23281765,0.052626338,-0.027578866,0.038370594,20.0,30.0,-25.0,-24.0,45.0
1693678368289284400,-1.0,-1.0,-3.0,-1.0,-1.0,4.0,-3.0,-5.0,1.021126986,-0.865503907,10.22204399,-0.060220521,0.000932619,-0.007727412,-26.0,33.0,79.0,11.0,-12.0,-0.104147777,2.421735048,10.23281765,0.052626338,-0.027578866,0.038370594,20.0,30.0,-25.0,-24.0,45.0
1693678368290284000,-1.0,0.0,-1.0,-3.0,-1.0,-1.0,-1.0,-4.0,1.021126986,-0.865503907,10.22204399,-0.060220521,0.000932619,-0.007727412,-26.0,33.0,79.0,11.0,-12.0,-0.104147777,2.421735048,10.23281765,0.052626338,-0.027578866,0.038370594,20.0,30.0,-25.0,-24.0,45.0
1693678368291259100,-1.0,0.0,-1.0,-3.0,-1.0,-1.0,-1.0,-4.0,1.015141487,-0.85592711,10.23880386,-0.06008729,0.00106585,-0.007594181,-28.0,41.0,81.0,8.0,-9.0,-0.116118781,2.41694665,10.24119759,0.0528928,-0.028111791,0.037970904,9.0,37.0,-25.0,-25.0,54.0
1693678368291277600,-1.0,0.0,-1.0,-1.0,-1.0,-2.0,0.0,1.0,1.015141487,-0.85592711,10.23880386,-0.06008729,0.00106585,-0.007594181,-28.0,41.0,81.0,8.0,-9.0,-0.116118781,2.41694665,10.24119759,0.0528928,-0.028111791,0.037970904,9.0,37.0,-25.0,-25.0,54.0
1693678368292259100,-1.0,0.0,-1.0,-1.0,-1.0,-2.0,0.0,1.0,1.016338587,-0.858321309,10.23640919,-0.06008729,0.000932619,-0.007594181,-21.0,34.0,85.0,8.0,-9.0,-0.116118781,2.41694665,10.24119759,0.0528928,-0.028111791,0.038104136,19.0,35.0,-21.0,-23.0,54.0
1693678368292276600,1.0,0.0,-1.0,-1.0,1.0,5.0,2.0,0.0,1.016338587,-0.858321309,10.23640919,-0.06008729,0.000932619,-0.007594181,-21.0,34.0,85.0,8.0,-9.0,-0.116118781,2.41694665,10.24119759,0.0528928,-0.028111791,0.038104136,19.0,35.0,-21.0,-23.0,54.0
1693678368293259100,1.0,0.0,-1.0,-1.0,1.0,5.0,2.0,0.0,1.017535686,-0.861912608,10.23401546,-0.06008729,0.000799387,-0.007460949,-28.0,35.0,86.0,10.0,-9.0,-0.116118781,2.418143749,10.24239445,0.0528928,-0.028245023,0.038237367,14.0,32.0,-22.0,-27.0,52.0
1693678368293259900,-1.0,1.0,0.0,-1.0,-1.0,0.0,1.0,-12.0,1.017535686,-0.861912608,10.23401546,-0.06008729,0.000799387,-0.007460949,-28.0,35.0,86.0,10.0,-9.0,-0.116118781,2.418143749,10.24239445,0.0528928,-0.028245023,0.038237367,14.0,32.0,-22.0,-27.0,52.0
1693678368294259100,-1.0,1.0,0.0,-1.0,-1.0,0.0,1.0,-12.0,1.018732786,-0.863109708,10.23521233,-0.06008729,0.000666156,-0.007460949,-27.0,41.0,85.0,6.0,-15.0,-0.117315881,2.418143749,10.23640919,0.0528928,-0.02797856,0.038237367,13.0,37.0,-32.0,-28.0,48.0
1693678368295259100,-1.0,1.0,0.0,-1.0,-1.0,0.0,1.0,-12.0,1.016338587,-0.863109708,10.23640919,-0.06008729,0.000532925,-0.007327718,-30.0,38.0,80.0,4.0,-12.0,-0.118512981,2.422932148,10.23521233,0.053026035,-0.027845331,0.038237367,7.0,32.0,-24.0,-32.0,42.0
1693678368302279600,0.0,0.0,0.0,-1.0,0.0,0.0,-3.0,15.0,1.016338587,-0.863109708,10.23640919,-0.06008729,0.000532925,-0.007327718,-30.0,38.0,80.0,4.0,-12.0,-0.118512981,2.422932148,10.23521233,0.053026035,-0.027845331,0.038237367,7.0,32.0,-24.0,-32.0,42.0
1693678368305254200,-1.0,-1.0,-2.0,-2.0,-1.0,0.0,-1.0,-5.0,1.016338587,-0.863109708,10.23640919,-0.06008729,0.000532925,-0.007327718,-30.0,38.0,80.0,4.0,-12.0,-0.118512981,2.422932148,10.23521233,0.053026035,-0.027845331,0.038237367,7.0,32.0,-24.0,-32.0,42.0
1693678368306255700,-1.0,-1.0,-2.0,-1.0,-2.0,-1.0,0.0,2.0,1.016338587,-0.863109708,10.23640919,-0.06008729,0.000532925,-0.007327718,-30.0,38.0,80.0,4.0,-12.0,-0.118512981,2.422932148,10.23521233,0.053026035,-0.027845331,0.038237367,7.0,32.0,-24.0,-32.0,42.0
1693678368307256200,0.0,-1.0,-1.0,0.0,2.0,1.0,-1.0,1.0,1.016338587,-0.863109708,10.23640919,-0.06008729,0.000532925,-0.007327718,-30.0,38.0,80.0,4.0,-12.0,-0.118512981,2.422932148,10.23521233,0.053026035,-0.027845331,0.038237367,7.0,32.0,-24.0,-32.0,42.0
1693678368319646100,-1.0,-1.0,1.0,0.0,0.0,-2.0,-1.0,-6.0,1.016338587,-0.863109708,10.23640919,-0.06008729,0.000532925,-0.007327718,-30.0,38.0,80.0,4.0,-12.0,-0.118512981,2.422932148,10.23521233,0.053026035,-0.027845331,0.038237367,7.0,32.0,-24.0,-32.0,42.0
1693678368320646700,0.0,0.0,-1.0,-1.0,-1.0,-2.0,-2.0,-2.0,1.016338587,-0.863109708,10.23640919,-0.06008729,0.000532925,-0.007327718,-30.0,38.0,80.0,4.0,-12.0,-0.118512981,2.422932148,10.23521233,0.053026035,-0.027845331,0.038237367,7.0,32.0,-24.0,-32.0,42.0
1693678368322643600,-1.0,-1.0,-3.0,-2.0,-2.0,0.0,-1.0,-1.0,1.016338587,-0.863109708,10.23640919,-0.06008729,0.000532925,-0.007327718,-30.0,38.0,80.0,4.0,-12.0,-0.118512981,2.422932148,10.23521233,0.053026035,-0.027845331,0.038237367,7.0,32.0,-24.0,-32.0,42.0
1693678368323663900,-1.0,-4.0,-1.0,-1.0,-1.0,0.0,0.0,3.0,1.016338587,-0.863109708,10.23640919,-0.06008729,0.000532925,-0.007327718,-30.0,38.0,80.0,4.0,-12.0,-0.118512981,2.422932148,10.23521233,0.053026035,-0.027845331,0.038237367,7.0,32.0,-24.0,-32.0,42.0
1693678368338632500,-1.0,-1.0,-11.0,-9.0,-2.0,0.0,-1.0,-2.0,1.016338587,-0.863109708,10.23640919,-0.06008729,0.000532925,-0.007327718,-30.0,38.0,80.0,4.0,-12.0,-0.118512981,2.422932148,10.23521233,0.053026035,-0.027845331,0.038237367,7.0,32.0,-24.0,-32.0,42.0
1693678368340632600,1.0,2.0,5.0,10.0,0.0,-1.0,1.0,14.0,1.016338587,-0.863109708,10.23640919,-0.06008729,0.000532925,-0.007327718,-30.0,38.0,80.0,4.0,-12.0,-0.118512981,2.422932148,10.23521233,0.053026035,-0.027845331,0.038237367,7.0,32.0,-24.0,-32.0,42.0
1693678368353621900,1.0,2.0,5.0,10.0,0.0,-1.0,1.0,14.0,1.022324085,-0.860715508,10.24359226,-0.060353752,0.000532925,-0.007594181,-33.0,44.0,90.0,2.0,-8.0,-0.119710088,2.41574955,10.22443867,0.053159267,-0.027578866,0.038503829,20.0,32.0,-23.0,-22.0,51.0
1693678368354621900,1.0,2.0,5.0,10.0,0.0,-1.0,1.0,14.0,1.022324085,-0.859518409,10.24838066,-0.060353752,0.000532925,-0.007327718,-23.0,34.0,88.0,10.0,-13.0,-0.117315881,2.41574955,10.22084713,0.053026035,-0.027578866,0.038503829,20.0,39.0,-16.0,-17.0,53.0
1693678368354627300,-3.0,0.0,-3.0,-3.0,-1.0,-3.0,-7.0,-10.0,1.022324085,-0.859518409,10.24838066,-0.060353752,0.000532925,-0.007327718,-23.0,34.0,88.0,10.0,-13.0,-0.117315881,2.41574955,10.22084713,0.053026035,-0.027578866,0.038503829,20.0,39.0,-16.0,-17.0,53.0
1693678368355621900,-3.0,0.0,-3.0,-3.0,-1.0,-3.0,-7.0,-10.0,1.024718285,-0.858321309,10.24478912,-0.06008729,0.000666156,-0.007460949,-30.0,45.0,83.0,8.0,-13.0,-0.119710088,2.41574955,10.22204399,0.053026035,-0.027712099,0.038370594,11.0,40.0,-28.0,-27.0,44.0
1693678368355645900,11.0,4.0,4.0,4.0,3.0,5.0,1.0,18.0,1.024718285,-0.858321309,10.24478912,-0.06008729,0.000666156,-0.007460949,-30.0,45.0,83.0,8.0,-13.0,-0.119710088,2.41574955,10.22204399,0.053026035,-0.027712099,0.038370594,11.0,40.0,-28.0,-27.0,44.0
1693678368356621900,11.0,4.0,4.0,4.0,3.0,5.0,1.0,18.0,1.028309584,-0.863109708,10.24598598,-0.060220521,0.000532925,-0.007460949,-27.0,44.0,83.0,8.0,-12.0,-0.124498487,2.41574955,10.22683239,0.052759573,-0.027845331,0.038370594,9.0,37.0,-28.0,-26.0,50.0
1693678368357621900,11.0,4.0,4.0,4.0,3.0,5.0,1.0,18.0,1.027112484,-0.863109708,10.24359226,-0.060353752,0.000532925,-0.007327718,-28.0,41.0,75.0,8.0,-9.0,-0.123301387,2.41455245,10.22563553,0.052626338,-0.027845331,0.038370594,14.0,31.0,-21.0,-30.0,48.0
1693678368360621000,4.0,-2.0,4.0,3.0,1.0,0.0,3.0,-14.0,1.027112484,-0.863109708,10.24359226,-0.060353752,0.000532925,-0.007327718,-28.0,41.0,75.0,8.0,-9.0,-0.123301387,2.41455245,10.22563553,0.052626338,-0.027845331,0.038370594,14.0,31.0,-21.0,-30.0,48.0
1693678368361622800,-15.0,-5.0,-5.0,-4.0,2.0,0.0,-6.0,-9.0,1.027112484,-0.863109708,10.24359226,-0.060353752,0.000532925,-0.007327718,-28.0,41.0,75.0,8.0,-9.0,-0.123301387,2.41455245,10.22563553,0.052626338,-0.027845331,0.038370594,14.0,31.0,-21.0,-30.0,48.0
1693678368369616300,-3.0,2.0,-1.0,-6.0,-1.0,-4.0,5.0,12.0,1.027112484,-0.863109708,10.24359226,-0.060353752,0.000532925,-0.007327718,-28.0,41.0,75.0,8.0,-9.0,-0.123301387,2.41455245,10.22563553,0.052626338,-0.027845331,0.038370594,14.0,31.0,-21.0,-30.0,48.0
1693678368371614300,49.0,2.0,-14.0,-7.0,-4.0,-3.0,1.0,-4.0,1.027112484,-0.863109708,10.24359226,-0.060353752,0.000532925,-0.007327718,-28.0,41.0,75.0,8.0,-9.0,-0.123301387,2.41455245,10.22563553,0.052626338,-0.027845331,0.038370594,14.0,31.0,-21.0,-30.0,48.0
1693678368392601300,-20.0,-9.0,10.0,2.0,-4.0,-6.0,-2.0,4.0,1.027112484,-0.863109708,10.24359226,-0.060353752,0.000532925,-0.007327718,-28.0,41.0,75.0,8.0,-9.0,-0.123301387,2.41455245,10.22563553,0.052626338,-0.027845331,0.038370594,14.0,31.0,-21.0,-30.0,48.0
1693678368394603500,-5.0,4.0,-8.0,-6.0,-1.0,-2.0,5.0,-27.0,1.027112484,-0.863109708,10.24359226,-0.060353752,0.000532925,-0.007327718,-28.0,41.0,75.0,8.0,-9.0,-0.123301387,2.41455245,10.22563553,0.052626338,-0.027845331,0.038370594,14.0,31.0,-21.0,-30.0,48.0
1693678368395601800,-66.0,-16.0,-1.0,9.0,1.0,1.0,-1.0,-46.0,1.027112484,-0.863109708,10.24359226,-0.060353752,0.000532925,-0.007327718,-28.0,41.0,75.0,8.0,-9.0,-0.123301387,2.41455245,10.22563553,0.052626338,-0.027845331,0.038370594,14.0,31.0,-21.0,-30.0,48.0
1693678368396621600,5.0,2.0,11.0,2.0,-1.0,-1.0,-6.0,38.0,1.027112484,-0.863109708,10.24359226,-0.060353752,0.000532925,-0.007327718,-28.0,41.0,75.0,8.0,-9.0,-0.123301387,2.41455245,10.22563553,0.052626338,-0.027845331,0.038370594,14.0,31.0,-21.0,-30.0,48.0
1693678368407591000,5.0,2.0,11.0,2.0,-1.0,-1.0,-6.0,38.0,1.013944387,-0.863109708,10.24119759,-0.060486984,0.000666156,-0.007460949,-20.0,41.0,87.0,9.0,-12.0,-0.114921682,2.421735048,10.23521233,0.052759573,-0.027845331,0.038237367,19.0,42.0,-25.0,-19.0,52.0
1693678368408591000,5.0,2.0,11.0,2.0,-1.0,-1.0,-6.0,38.0,1.013944387,-0.864306808,10.23880386,-0.060486984,0.000799387,-0.007327718,-18.0,53.0,91.0,13.0,-9.0,-0.117315881,2.422932148,10.23401546,0.052626338,-0.027712099,0.038237367,19.0,41.0,-23.0,-20.0,53.0
1693678368409591000,5.0,2.0,11.0,2.0,-1.0,-1.0,-6.0,38.0,1.015141487,-0.866701007,10.24359226,-0.060486984,0.000799387,-0.007460949,-24.0,43.0,88.0,7.0,-12.0,-0.116118781,2.426523447,10.23521233,0.052626338,-0.027712099,0.038237367,17.0,30.0,-25.0,-20.0,52.0
1693678368410591000,5.0,2.0,11.0,2.0,-1.0,-1.0,-6.0,38.0,1.017535686,-0.866701007,10.24119759,-0.060486984,0.000932619,-0.007327718,-34.0,37.0,78.0,6.0,-13.0,-0.113724582,2.424129248,10.23042393,0.052626338,-0.027712099,0.037970904,13.0,39.0,-23.0,-24.0,49.0
1693678368411591000,5.0,2.0,11.0,2.0,-1.0,-1.0,-6.0,38.0,1.016338587,-0.866701007,10.24239445,-0.060486984,0.000932619,-0.007327718,-20.0,43.0,84.0,6.0,-8.0,-0.112527482,2.422932148,10.22563553,0.05249311,-0.027578866,0.038104136,19.0,41.0,-26.0,-20.0,50.0
1693678368423587000,27.0,15.0,17.0,-2.0,1.0,6.0,6.0,26.0,1.016338587,-0.866701007,10.24239445,-0.060486984,0.000932619,-0.007327718,-20.0,43.0,84.0,6.0,-8.0,-0.112527482,2.422932148,10.22563553,0.05249311,-0.027578866,0.038104136,19.0,41.0,-26.0,-20.0,50.0
1693678368425586700,71.0,-3.0,-31.0,-19.0,-10.0,-29.0,8.0,-10.0,1.016338587,-0.866701007,10.24239445,-0.060486984,0.000932619,-0.007327718,-20.0,43.0,84.0,6.0,-8.0,-0.112527482,2.422932148,10.22563553,0.05249311,-0.027578866,0.038104136,19.0,41.0,-26.0,-20.0,50.0
1693678368426582500,-61.0,-9.0,-6.0,13.0,0.0,-5.0,12.0,-29.0,1.016338587,-0.866701007,10.24239445,-0.060486984,0.000932619,-0.007327718,-20.0,43.0,84.0,6.0,-8.0,-0.112527482,2.422932148,10.22563553,0.05249311,-0.027578866,0.038104136,19.0,41.0,-26.0,-20.0,50.0
1693678368427594300,-32.0,-1.0,7.0,-14.0,-3.0,-6.0,-34.0,7.0,1.016338587,-0.866701007,10.24239445,-0.060486984,0.000932619,-0.007327718,-20.0,43.0,84.0,6.0,-8.0,-0.112527482,2.422932148,10.22563553,0.05249311,-0.027578866,0.038104136,19.0,41.0,-26.0,-20.0,50.0
1693678368428598500,-49.0,3.0,15.0,12.0,4.0,14.0,-7.0,-28.0,1.016338587,-0.866701007,10.24239445,-0.060486984,0.000932619,-0.007327718,-20.0,43.0,84.0,6.0,-8.0,-0.112527482,2.422932148,10.22563553,0.05249311,-0.027578866,0.038104136,19.0,41.0,-26.0,-20.0,50.0
1693678368429602800,-3.0,9.0,30.0,13.0,-4.0,-40.0,3.0,38.0,1.016338587,-0.866701007,10.24239445,-0.060486984,0.000932619,-0.007327718,-20.0,43.0,84.0,6.0,-8.0,-0.112527482,2.422932148,10.22563553,0.05249311,-0.027578866,0.038104136,19.0,41.0,-26.0,-20.0,50.0
1693678368436584700,107.0,9.0,-40.0,-16.0,-7.0,-22.0,-4.0,-17.0,1.016338587,-0.866701007,10.24239445,-0.060486984,0.000932619,-0.007327718,-20.0,43.0,84.0,6.0,-8.0,-0.112527482,2.422932148,10.22563553,0.05249311,-0.027578866,0.038104136,19.0,41.0,-26.0,-20.0,50.0
1693678368438598300,-85.0,-31.0,11.0,7.0,3.0,21.0,27.0,-44.0,1.016338587,-0.866701007,10.24239445,-0.060486984,0.000932619,-0.007327718,-20.0,43.0,84.0,6.0,-8.0,-0.112527482,2.422932148,10.22563553,0.05249311,-0.027578866,0.038104136,19.0,41.0,-26.0,-20.0,50.0
1693678368439597200,37.0,-1.0,-6.0,-1.0,-4.0,-19.0,-34.0,33.0,1.016338587,-0.866701007,10.24239445,-0.060486984,0.000932619,-0.007327718,-20.0,43.0,84.0,6.0,-8.0,-0.112527482,2.422932148,10.22563553,0.05249311,-0.027578866,0.038104136,19.0,41.0,-26.0,-20.0,50.0
1693678368440575800,88.0,14.0,6.0,-3.0,6.0,24.0,60.0,95.0,1.016338587,-0.866701007,10.24239445,-0.060486984,0.000932619,-0.007327718,-20.0,43.0,84.0,6.0,-8.0,-0.112527482,2.422932148,10.22563553,0.05249311,-0.027578866,0.038104136,19.0,41.0,-26.0,-20.0,50.0
1693678368443572200,-94.0,-33.0,-15.0,-19.0,-18.0,-30.0,-63.0,-8.0,1.016338587,-0.866701007,10.24239445,-0.060486984,0.000932619,-0.007327718,-20.0,43.0,84.0,6.0,-8.0,-0.112527482,2.422932148,10.22563553,0.05249311,-0.027578866,0.038104136,19.0,41.0,-26.0,-20.0,50.0
1693678368444575400,-39.0,25.0,9.0,15.0,16.0,24.0,28.0,66.0,1.016338587,-0.866701007,10.24239445,-0.060486984,0.000932619,-0.007327718,-20.0,43.0,84.0,6.0,-8.0,-0.112527482,2.422932148,10.22563553,0.05249311,-0.027578866,0.038104136,19.0,41.0,-26.0,-20.0,50.0
1693678368451569000,102.0,2.0,-15.0,-10.0,-4.0,0.0,82.0,-128.0,1.016338587,-0.866701007,10.24239445,-0.060486984,0.000932619,-0.007327718,-20.0,43.0,84.0,6.0,-8.0,-0.112527482,2.422932148,10.22563553,0.05249311,-0.027578866,0.038104136,19.0,41.0,-26.0,-20.0,50.0
1693678368453591500,-128.0,-22.0,-6.0,-10.0,-11.0,-20.0,-98.0,15.0,1.016338587,-0.866701007,10.24239445,-0.060486984,0.000932619,-0.007327718,-20.0,43.0,84.0,6.0,-8.0,-0.112527482,2.422932148,10.22563553,0.05249311,-0.027578866,0.038104136,19.0,41.0,-26.0,-20.0,50.0
1693678368469560000,20.0,29.0,6.0,17.0,28.0,61.0,111.0,27.0,1.016338587,-0.866701007,10.24239445,-0.060486984,0.000932619,-0.007327718,-20.0,43.0,84.0,6.0,-8.0,-0.112527482,2.422932148,10.22563553,0.05249311,-0.027578866,0.038104136,19.0,41.0,-26.0,-20.0,50.0
1693678368476569800,-44.0,-20.0,-18.0,-16.0,-13.0,-19.0,11.0,11.0,1.016338587,-0.866701007,10.24239445,-0.060486984,0.000932619,-0.007327718,-20.0,43.0,84.0,6.0,-8.0,-0.112527482,2.422932148,10.22563553,0.05249311,-0.027578866,0.038104136,19.0,41.0,-26.0,-20.0,50.0
1693678368477552400,-44.0,-20.0,-18.0,-16.0,-13.0,-19.0,11.0,11.0,1.012747288,-0.858321309,10.23760605,-0.06008729,0.000932619,-0.007993874,-28.0,39.0,84.0,8.0,-6.0,-0.112527482,2.418143749,10.23042393,0.052626338,-0.028245023,0.038237367,21.0,37.0,-23.0,-18.0,50.0
1693678368477569100,-55.0,0.0,19.0,7.0,2.0,-5.0,-36.0,13.0,1.012747288,-0.858321309,10.23760605,-0.06008729,0.000932619,-0.007993874,-28.0,39.0,84.0,8.0,-6.0,-0.112527482,2.418143749,10.23042393,0.052626338,-0.028245023,0.038237367,21.0,37.0,-23.0,-18.0,50.0
1693678368478552400,-55.0,0.0,19.0,7.0,2.0,-5.0,-36.0,13.0,1.012747288,-0.857124209,10.23401546,-0.06008729,0.000799387,-0.007993874,-22.0,38.0,83.0,10.0,-9.0,-0.111330383,2.420537949,10.23401546,0.052759573,-0.02797856,0.038370594,21.0,40.0,-25.0,-23.0,49.0
1693678368478554000,-46.0,-5.0,-7.0,5.0,1.0,-3.0,-35.0,-62.0,1.012747288,-0.857124209,10.23401546,-0.06008729,0.000799387,-0.007993874,-22.0,38.0,83.0,10.0,-9.0,-0.111330383,2.420537949,10.23401546,0.052759573,-0.02797856,0.038370594,21.0,40.0,-25.0,-23.0,49.0
1693678368479552400,-46.0,-5.0,-7.0,5.0,1.0,-3.0,-35.0,-62.0,1.017535686,-0.85592711,10.23162079,-0.06008729,0.000799387,-0.007860643,-28.0,39.0,85.0,7.0,-11.0,-0.112527482,2.420537949,10.23162079,0.052626338,-0.02797856,0.038237367,9.0,35.0,-25.0,-24.0,49.0
1693678368480552400,-46.0,-5.0,-7.0,5.0,1.0,-3.0,-35.0,-62.0,1.018732786,-0.85592711,10.23042393,-0.059954058,0.000932619,-0.007860643,-26.0,39.0,77.0,7.0,-15.0,-0.111330383,2.419340849,10.23521233,0.052626338,-0.028111791,0.038237367,10.0,30.0,-27.0,-30.0,48.0
1693678368481552400,-46.0,-5.0,-7.0,5.0,1.0,-3.0,-35.0,-62.0,1.016338587,-0.861912608,10.22802925,-0.059954058,0.000932619,-0.007594181,-33.0,37.0,84.0,10.0,-11.0,-0.116118781,2.420537949,10.23640919,0.052759573,-0.027845331,0.038237367,18.0,32.0,-23.0,-22.0,50.0
1693678368487548100,57.0,3.0,13.0,-5.0,3.0,14.0,-20.0,-23.0,1.016338587,-0.861912608,10.22802925,-0.059954058,0.000932619,-0.007594181,-33.0,37.0,84.0,10.0,-11.0,-0.116118781,2.420537949,10.23640919,0.052759573,-0.027845331,0.038237367,18.0,32.0,-23.0,-22.0,50.0
1693678368489549600,80.0,2.0,-3.0,-5.0,-8.0,-12.0,-36.0,23.0,1.016338587,-0.861912608,10.22802925,-0.059954058,0.000932619,-0.007594181,-33.0,37.0,84.0,10.0,-11.0,-0.116118781,2.420537949,10.23640919,0.052759573,-0.027845331,0.038237367,18.0,32.0,-23.0,-22.0,50.0
1693678368495542600,-42.0,-10.0,-22.0,10.0,1.0,10.0,15.0,58.0,1.016338587,-0.861912608,10.22802925,-0.059954058,0.000932619,-0.007594181,-33.0,37.0,84.0,10.0,-11.0,-0.116118781,2.420537949,10.23640919,0.052759573,-0.027845331,0.038237367,18.0,32.0,-23.0,-22.0,50.0
1693678368496542100,-4.0,1.0,-3.0,-46.0,0.0,25.0,23.0,-30.0,1.016338587,-0.861912608,10.22802925,-0.059954058,0.000932619,-0.007594181,-33.0,37.0,84.0,10.0,-11.0,-0.116118781,2.420537949,10.23640919,0.052759573,-0.027845331,0.038237367,18.0,32.0,-23.0,-22.0,50.0
1693678368518530300,-87.0,-4.0,28.0,49.0,1.0,-10.0,-35.0,-12.0,1.016338587,-0.861912608,10.22802925,-0.059954058,0.000932619,-0.007594181,-33.0,37.0,84.0,10.0,-11.0,-0.116118781,2.420537949,10.23640919,0.052759573,-0.027845331,0.038237367,18.0,32.0,-23.0,-22.0,50.0
1693678368521550800,99.0,23.0,4.0,6.0,3.0,7.0,34.0,-7.0,1.016338587,-0.861912608,10.22802925,-0.059954058,0.000932619,-0.007594181,-33.0,37.0,84.0,10.0,-11.0,-0.116118781,2.420537949,10.23640919,0.052759573,-0.027845331,0.038237367,18.0,32.0,-23.0,-22.0,50.0
1693678368523529000,-74.0,-20.0,-17.0,-12.0,-12.0,-27.0,-18.0,25.0,1.016338587,-0.861912608,10.22802925,-0.059954058,0.000932619,-0.007594181,-33.0,37.0,84.0,10.0,-11.0,-0.116118781,2.420537949,10.23640919,0.052759573,-0.027845331,0.038237367,18.0,32.0,-23.0,-22.0,50.0
1693678368524525800,39.0,7.0,-1.0,4.0,9.0,30.0,5.0,-46.0,1.016338587,-0.861912608,10.22802925,-0.059954058,0.000932619,-0.007594181,-33.0,37.0,84.0,10.0,-11.0,-0.116118781,2.420537949,10.23640919,0.052759573,-0.027845331,0.038237367,18.0,32.0,-23.0,-22.0,50.0
1693678368534520200,39.0,7.0,-1.0,4.0,9.0,30.0,5.0,-46.0,1.023521185,-0.858321309,10.22324085,-0.059954058,0.001465544,-0.007993874,-24.0,43.0,83.0,12.0,-7.0,-0.124498487,2.421735048,10.23281765,0.05249311,-0.027312404,0.038104136,16.0,39.0,-23.0,-27.0,53.0
1693678368535520200,39.0,7.0,-1.0,4.0,9.0,30.0,5.0,-46.0,1.023521185,-0.859518409,10.22683239,-0.059820827,0.001598775,-0.007993874,-24.0,41.0,80.0,8.0,-12.0,-0.124498487,2.421735048,10.23401546,0.052626338,-0.027312404,0.038104136,17.0,37.0,-29.0,-24.0,48.0
1693678368536520200,39.0,7.0,-1.0,4.0,9.0,30.0,5.0,-46.0,1.022324085,-0.857124209,10.22922707,-0.059820827,0.001332312,-0.007993874,-22.0,41.0,81.0,6.0,-7.0,-0.124498487,2.420537949,10.23162079,0.052759573,-0.027312404,0.038104136,10.0,29.0,-26.0,-23.0,49.0
1693678368537520200,39.0,7.0,-1.0,4.0,9.0,30.0,5.0,-46.0,1.025915384,-0.859518409,10.23042393,-0.059820827,0.001332312,-0.008127105,-22.0,39.0,87.0,6.0,-15.0,-0.123301387,2.421735048,10.23162079,0.052759573,-0.027312404,0.037970904,15.0,37.0,-30.0,-33.0,52.0
1693678368538520200,39.0,7.0,-1.0,4.0,9.0,30.0,5.0,-46.0,1.029506683,-0.860715508,10.22922707,-0.059820827,0.001199081,-0.008260337,-24.0,46.0,84.0,12.0,-7.0,-0.123301387,2.421735048,10.23162079,0.052626338,-0.027179174,0.038104136,21.0,30.0,-28.0,-20.0,50.0
1693678368541516500,-113.0,-5.0,-1.0,-18.0,-4.0,10.0,25.0,-29.0,1.029506683,-0.860715508,10.22922707,-0.059820827,0.001199081,-0.008260337,-24.0,46.0,84.0,12.0,-7.0,-0.123301387,2.421735048,10.23162079,0.052626338,-0.027179174,0.038104136,21.0,30.0,-28.0,-20.0,50.0
1693678368542516600,29.0,-1.0,-3.0,-1.0,-4.0,-20.0,-35.0,-3.0,1.029506683,-0.860715508,10.22922707,-0.059820827,0.001199081,-0.008260337,-24.0,46.0,84.0,12.0,-7.0,-0.123301387,2.421735048,10.23162079,0.052626338,-0.027179174,0.038104136,21.0,30.0,-28.0,-20.0,50.0
1693678368543515700,-26.0,3.0,2.0,1.0,2.0,1.0,3.0,5.0,1.029506683,-0.860715508,10.22922707,-0.059820827,0.001199081,-0.008260337,-24.0,46.0,84.0,12.0,-7.0,-0.123301387,2.421735048,10.23162079,0.052626338,-0.027179174,0.038104136,21.0,30.0,-28.0,-20.0,50.0
1693678368544515000,8.0,-3.0,-11.0,-8.0,-2.0,6.0,-12.0,-53.0,1.029506683,-0.860715508,10.22922707,-0.059820827,0.001199081,-0.008260337,-24.0,46.0,84.0,12.0,-7.0,-0.123301387,2.421735048,10.23162079,0.052626338,-0.027179174,0.038104136,21.0,30.0,-28.0,-20.0,50.0
1693678368547514300,-24.0,-7.0,16.0,13.0,4.0,-4.0,17.0,72.0,1.029506683,-0.860715508,10.22922707,-0.059820827,0.001199081,-0.008260337,-24.0,46.0,84.0,12.0,-7.0,-0.123301387,2.421735048,10.23162079,0.052626338,-0.027179174,0.038104136,21.0,30.0,-28.0,-20.0,50.0
1693678368548513400,-44.0,-11.0,-7.0,3.0,-2.0,-1.0,-24.0,-88.0,1.029506683,-0.860715508,10.22922707,-0.059820827,0.001199081,-0.008260337,-24.0,46.0,84.0,12.0,-7.0,-0.123301387,2.421735048,10.23162079,0.052626338,-0.027179174,0.038104136,21.0,30.0,-28.0,-20.0,50.0
1693678368555509800,-7.0,-1.0,-3.0,-6.0,-3.0,-16.0,-2.0,24.0,1.029506683,-0.860715508,10.22922707,-0.059820827,0.001199081,-0.008260337,-24.0,46.0,84.0,12.0,-7.0,-0.123301387,2.421735048,10.23162079,0.052626338,-0.027179174,0.038104136,21.0,30.0,-28.0,-20.0,50.0
1693678368557507400,-16.0,6.0,12.0,10.0,3.0,-4.0,52.0,19.0,1.029506683,-0.860715508,10.22922707,-0.059820827,0.001199081,-0.008260337,-24.0,46.0,84.0,12.0,-7.0,-0.123301387,2.421735048,10.23162079,0.052626338,-0.027179174,0.038104136,21.0,30.0,-28.0,-20.0,50.0
1693678368570500500,33.0,-10.0,-16.0,-13.0,-18.0,-28.0,-51.0,6.0,1.029506683,-0.860715508,10.22922707,-0.059820827,0.001199081,-0.008260337,-24.0,46.0,84.0,12.0,-7.0,-0.123301387,2.421735048,10.23162079,0.052626338,-0.027179174,0.038104136,21.0,30.0,-28.0,-20.0,50.0
1693678368572498400,-101.0,-9.0,2.0,-9.0,6.0,-4.0,-8.0,-82.0,1.029506683,-0.860715508,10.22922707,-0.059820827,0.001199081,-0.008260337,-24.0,46.0,84.0,12.0,-7.0,-0.123301387,2.421735048,10.23162079,0.052626338,-0.027179174,0.038104136,21.0,30.0,-28.0,-20.0,50.0
1693678368573499600,83.0,11.0,-1.0,-3.0,-13.0,-7.0,15.0,24.0,1.029506683,-0.860715508,10.22922707,-0.059820827,0.001199081,-0.008260337,-24.0,46.0,84.0,12.0,-7.0,-0.123301387,2.421735048,10.23162079,0.052626338,-0.027179174,0.038104136,21.0,30.0,-28.0,-20.0,50.0
1693678368574499300,8.0,-1.0,-4.0,9.0,-8.0,-42.0,-42.0,-3.0,1.029506683,-0.860715508,10.22922707,-0.059820827,0.001199081,-0.008260337,-24.0,46.0,84.0,12.0,-7.0,-0.123301387,2.421735048,10.23162079,0.052626338,-0.027179174,0.038104136,21.0,30.0,-28.0,-20.0,50.0
1693678368595486000,5.0,-7.0,-7.0,-12.0,1.0,10.0,33.0,-43.0,1.029506683,-0.860715508,10.22922707,-0.059820827,0.001199081,-0.008260337,-24.0,46.0,84.0,12.0,-7.0,-0.123301387,2.421735048,10.23162079,0.052626338,-0.027179174,0.038104136,21.0,30.0,-28.0,-20.0,50.0
1693678368598484000,65.0,9.0,-1.0,-9.0,-10.0,-6.0,-1.0,49.0,1.029506683,-0.860715508,10.22922707,-0.059820827,0.001199081,-0.008260337,-24.0,46.0,84.0,12.0,-7.0,-0.123301387,2.421735048,10.23162079,0.052626338,-0.027179174,0.038104136,21.0,30.0,-28.0,-20.0,50.0
1693678368602479500,65.0,9.0,-1.0,-9.0,-10.0,-6.0,-1.0,49.0,1.019929886,-0.864306808,10.22324085,-0.059954058,0.000799387,-0.007860643,-15.0,41.0,87.0,2.0,-11.0,-0.126892686,2.424129248,10.22204399,0.05249311,-0.027578866,0.038237367,14.0,35.0,-23.0,-20.0,52.0
1693678368602491000,1.0,8.0,-2.0,5.0,8.0,8.0,-7.0,-57.0,1.019929886,-0.864306808,10.22324085,-0.059954058,0.000799387,-0.007860643,-15.0,41.0,87.0,2.0,-11.0,-0.126892686,2.424129248,10.22204399,0.05249311,-0.027578866,0.038237367,14.0,35.0,-23.0,-20.0,52.0
1693678368603479500,1.0,8.0,-2.0,5.0,8.0,8.0,-7.0,-57.0,1.018732786,-0.864306808,10.22204399,-0.059954058,0.000799387,-0.007727412,-29.0,42.0,79.0,12.0,-12.0,-0.125695586,2.428917646,10.21845245,0.052359879,-0.027712099,0.038237367,14.0,33.0,-25.0,-24.0,48.0
1693678368603482300,-15.0,5.0,2.0,11.0,8.0,38.0,2.0,65.0,1.018732786,-0.864306808,10.22204399,-0.059954058,0.000799387,-0.007727412,-29.0,42.0,79.0,12.0,-12.0,-0.125695586,2.428917646,10.21845245,0.052359879,-0.027712099,0.038237367,14.0,33.0,-25.0,-24.0,48.0
1693678368604479500,-15.0,5.0,2.0,11.0,8.0,38.0,2.0,65.0,1.013944387,-0.860715508,10.21605873,-0.059820827,0.000799387,-0.007594181,-33.0,37.0,77.0,8.0,-13.0,-0.120907187,2.431311846,10.21965027,0.052359879,-0.027578866,0.038237367,17.0,32.0,-24.0,-20.0,39.0
1693678368605479500,-15.0,5.0,2.0,11.0,8.0,38.0,2.0,65.0,1.013944387,-0.860715508,10.21725559,-0.059820827,0.000799387,-0.007594181,-28.0,37.0,83.0,6.0,-13.0,-0.116118781,2.431311846,10.22324085,0.052359879,-0.027712099,0.038104136,15.0,37.0,-27.0,-18.0,50.0
1693678368606479500,-15.0,5.0,2.0,11.0,8.0,38.0,2.0,65.0,1.017535686,-0.861912608,10.21845245,-0.059954058,0.000932619,-0.007594181,-28.0,41.0,85.0,6.0,-15.0,-0.114921682,2.430114746,10.22443867,0.05249311,-0.027712099,0.038104136,15.0,39.0,-25.0,-23.0,52.0
1693678368607479400,26.0,17.0,9.0,-10.0,-1.0,-4.0,8.0,-2.0,1.017535686,-0.861912608,10.21845245,-0.059954058,0.000932619,-0.007594181,-28.0,41.0,85.0,6.0,-15.0,-0.114921682,2.430114746,10.22443867,0.05249311,-0.027712099,0.038104136,15.0,39.0,-25.0,-23.0,52.0
1693678368608479000,-25.0,-7.0,-7.0,6.0,2.0,-14.0,0.0,-40.0,1.017535686,-0.861912608,10.21845245,-0.059954058,0.000932619,-0.007594181,-28.0,41.0,85.0,6.0,-15.0,-0.114921682,2.430114746,10.22443867,0.05249311,-0.027712099,0.038104136,15.0,39.0,-25.0,-23.0,52.0
1693678368615474100,78.0,4.0,4.0,1.0,-1.0,15.0,-12.0,67.0,1.017535686,-0.861912608,10.21845245,-0.059954058,0.000932619,-0.007594181,-28.0,41.0,85.0,6.0,-15.0,-0.114921682,2.430114746,10.22443867,0.05249311,-0.027712099,0.038104136,15.0,39.0,-25.0,-23.0,52.0
1693678368619472400,85.0,25.0,5.0,8.0,6.0,33.0,38.0,24.0,1.017535686,-0.861912608,10.21845245,-0.059954058,0.000932619,-0.007594181,-28.0,41.0,85.0,6.0,-15.0,-0.114921682,2.430114746,10.22443867,0.05249311,-0.027712099,0.038104136,15.0,39.0,-25.0,-23.0,52.0
1693678368630465000,-52.0,4.0,3.0,-3.0,16.0,27.0,-10.0,-30.0,1.017535686,-0.861912608,10.21845245,-0.059954058,0.000932619,-0.007594181,-28.0,41.0,85.0,6.0,-15.0,-0.114921682,2.430114746,10.22443867,0.05249311,-0.027712099,0.038104136,15.0,39.0,-25.0,-23.0,52.0
1693678368631466100,-36.0,-14.0,-9.0,-12.0,-17.0,-31.0,16.0,127.0,1.017535686,-0.861912608,10.21845245,-0.059954058,0.000932619,-0.007594181,-28.0,41.0,85.0,6.0,-15.0,-0.114921682,2.430114746,10.22443867,0.05249311,-0.027712099,0.038104136,15.0,39.0,-25.0,-23.0,52.0
1693678368634467000,-74.0,1.0,3.0,3.0,8.0,21.0,-7.0,-119.0,1.017535686,-0.861912608,10.21845245,-0.059954058,0.000932619,-0.007594181,-28.0,41.0,85.0,6.0,-15.0,-0.114921682,2.430114746,10.22443867,0.05249311,-0.027712099,0.038104136,15.0,39.0,-25.0,-23.0,52.0
1693678368636462700,22.0,-3.0,1.0,10.0,-3.0,-18.0,5.0,23.0,1.017535686,-0.861912608,10.21845245,-0.059954058,0.000932619,-0.007594181,-28.0,41.0,85.0,6.0,-15.0,-0.114921682,2.430114746,10.22443867,0.05249311,-0.027712099,0.038104136,15.0,39.0,-25.0,-23.0,52.0
1693678368655452400,39.0,-16.0,-11.0,-19.0,-26.0,-32.0,-48.0,-12.0,1.017535686,-0.861912608,10.21845245,-0.059954058,0.000932619,-0.007594181,-28.0,41.0,85.0,6.0,-15.0,-0.114921682,2.430114746,10.22443867,0.05249311,-0.027712099,0.038104136,15.0,39.0,-25.0,-23.0,52.0
1693678368660449500,-50.0,-4.0,-1.0,6.0,8.0,11.0,27.0,77.0,1.017535686,-0.861912608,10.21845245,-0.059954058,0.000932619,-0.007594181,-28.0,41.0,85.0,6.0,-15.0,-0.114921682,2.430114746,10.22443867,0.05249311,-0.027712099,0.038104136,15.0,39.0,-25.0,-23.0,52.0
1693678368662449100,-32.0,-12.0,-5.0,-5.0,3.0,-7.0,-40.0,-37.0,1.017535686,-0.861912608,10.21845245,-0.059954058,0.000932619,-0.007594181,-28.0,41.0,85.0,6.0,-15.0,-0.114921682,2.430114746,10.22443867,0.05249311,-0.027712099,0.038104136,15.0,39.0,-25.0,-23.0,52.0
1693678368663446800,92.0,7.0,4.0,2.0,-5.0,3.0,-6.0,-6.0,1.017535686,-0.861912608,10.21845245,-0.059954058,0.000932619,-0.007594181,-28.0,41.0,85.0,6.0,-15.0,-0.114921682,2.430114746,10.22443867,0.05249311,-0.027712099,0.038104136,15.0,39.0,-25.0,-23.0,52.0
1693678368667442700,92.0,7.0,4.0,2.0,-5.0,3.0,-6.0,-6.0,1.010353088,-0.85473001,10.23281765,-0.060220521,0.000532925,-0.007993874,-12.0,39.0,86.0,10.0,-11.0,-0.110133275,2.426523447,10.22324085,0.052226644,-0.028111791,0.038104136,17.0,37.0,-24.0,-22.0,48.0
1693678368668442700,92.0,7.0,4.0,2.0,-5.0,3.0,-6.0,-6.0,1.013944387,-0.857124209,10.23162079,-0.060220521,0.000666156,-0.008127105,-22.0,41.0,80.0,7.0,-11.0,-0.111330383,2.427720547,10.22563553,0.052226644,-0.028111791,0.038104136,10.0,33.0,-28.0,-32.0,54.0
1693678368669442700,92.0,7.0,4.0,2.0,-5.0,3.0,-6.0,-6.0,1.016338587,-0.859518409,10.23162079,-0.060220521,0.000666156,-0.007860643,-26.0,39.0,74.0,6.0,-8.0,-0.111330383,2.425326347,10.22683239,0.052226644,-0.028245023,0.037970904,17.0,34.0,-28.0,-24.0,50.0
1693678368669448200,127.0,28.0,10.0,8.0,12.0,5.0,17.0,-46.0,1.016338587,-0.859518409,10.23162079,-0.060220521,0.000666156,-0.007860643,-26.0,39.0,74.0,6.0,-8.0,-0.111330383,2.425326347,10.22683239,0.052226644,-0.028245023,0.037970904,17.0,34.0,-28.0,-24.0,50.0
1693678368670442700,127.0,28.0,10.0,8.0,12.0,5.0,17.0,-46.0,1.016338587,-0.858321309,10.23162079,-0.06008729,0.000666156,-0.007993874,-20.0,49.0,83.0,11.0,-15.0,-0.111330383,2.426523447,10.23042393,0.052359879,-0.02797856,0.037970904,21.0,33.0,-28.0,-21.0,52.0
1693678368671442700,-56.0,-6.0,7.0,21.0,11.0,26.0,-4.0,-4.0,1.018732786,-0.858321309,10.22922707,-0.060220521,0.000532925,-0.008127105,-32.0,41.0,87.0,7.0,-12.0,-0.108936176,2.427720547,10.22683239,0.052359879,-0.02797856,0.037837673,19.0,40.0,-21.0,-23.0,52.0
1693678368675439700,84.0,10.0,0.0,-21.0,-20.0,-34.0,3.0,55.0,1.018732786,-0.858321309,10.22922707,-0.060220521,0.000532925,-0.008127105,-32.0,41.0,87.0,7.0,-12.0,-0.108936176,2.427720547,10.22683239,0.052359879,-0.02797856,0.037837673,19.0,40.0,-21.0,-23.0,52.0
1693678368678438600,-105.0,-9.0,0.0,2.0,5.0,9.0,17.0,49.0,1.018732786,-0.858321309,10.22922707,-0.060220521,0.000532925,-0.008127105,-32.0,41.0,87.0,7.0,-12.0,-0.108936176,2.427720547,10.22683239,0.052359879,-0.02797856,0.037837673,19.0,40.0,-21.0,-23.0,52.0
1693678368690453900,4.0,-5.0,14.0,30.0,8.0,-1.0,-23.0,-37.0,1.018732786,-0.858321309,10.22922707,-0.060220521,0.000532925,-0.008127105,-32.0,41.0,87.0,7.0,-12.0,-0.108936176,2.427720547,10.22683239,0.052359879,-0.02797856,0.037837673,19.0,40.0,-21.0,-23.0,52.0
1693678368692430400,43.0,23.0,1.0,-14.0,-4.0,16.0,-4.0,-29.0,1.018732786,-0.858321309,10.22922707,-0.060220521,0.000532925,-0.008127105,-32.0,41.0,87.0,7.0,-12.0,-0.108936176,2.427720547,10.22683239,0.052359879,-0.02797856,0.037837673,19.0,40.0,-21.0,-23.0,52.0
1693678368694431300,2.0,27.0,6.0,5.0,3.0,13.0,1.0,82.0,1.018732786,-0.858321309,10.22922707,-0.060220521,0.000532925,-0.008127105,-32.0,41.0,87.0,7.0,-12.0,-0.108936176,2.427720547,10.22683239,0.052359879,-0.02797856,0.037837673,19.0,40.0,-21.0,-23.0,52.0
1693678368696427600,-54.0,-11.0,3.0,10.0,8.0,-1.0,30.0,-11.0,1.018732786,-0.858321309,10.22922707,-0.060220521,0.000532925,-0.008127105,-32.0,41.0,87.0,7.0,-12.0,-0.108936176,2.427720547,10.22683239,0.052359879,-0.02797856,0.037837673,19.0,40.0,-21.0,-23.0,52.0
1693678368713417900,35.0,14.0,4.0,-1.0,3.0,34.0,17.0,45.0,1.018732786,-0.858321309,10.22922707,-0.060220521,0.000532925,-0.008127105,-32.0,41.0,87.0,7.0,-12.0,-0.108936176,2.427720547,10.22683239,0.052359879,-0.02797856,0.037837673,19.0,40.0,-21.0,-23.0,52.0
1693678368714440000,53.0,-33.0,-20.0,1.0,5.0,22.0,3.0,7.0,1.018732786,-0.858321309,10.22922707,-0.060220521,0.000532925,-0.008127105,-32.0,41.0,87.0,7.0,-12.0,-0.108936176,2.427720547,10.22683239,0.052359879,-0.02797856,0.037837673,19.0,40.0,-21.0,-23.0,52.0
1693678368715439100,-77.0,-1.0,6.0,-5.0,-3.0,11.0,11.0,-8.0,1.018732786,-0.858321309,10.22922707,-0.060220521,0.000532925,-0.008127105,-32.0,41.0,87.0,7.0,-12.0,-0.108936176,2.427720547,10.22683239,0.052359879,-0.02797856,0.037837673,19.0,40.0,-21.0,-23.0,52.0
1693678368720419600,21.0,9.0,-4.0,-6.0,-14.0,-26.0,-14.0,-20.0,1.018732786,-0.858321309,10.22922707,-0.060220521,0.000532925,-0.008127105,-32.0,41.0,87.0,7.0,-12.0,-0.108936176,2.427720547,10.22683239,0.052359879,-0.02797856,0.037837673,19.0,40.0,-21.0,-23.0,52.0
1693678368727412400,-49.0,-5.0,2.0,-8.0,-11.0,-6.0,-2.0,12.0,1.018732786,-0.858321309,10.22922707,-0.060220521,0.000532925,-0.008127105,-32.0,41.0,87.0,7.0,-12.0,-0.108936176,2.427720547,10.22683239,0.052359879,-0.02797856,0.037837673,19.0,40.0,-21.0,-23.0,52.0
1693678368729409700,30.0,17.0,6.0,23.0,15.0,14.0,-2.0,-51.0,1.018732786,-0.858321309,10.22922707,-0.060220521,0.000532925,-0.008127105,-32.0,41.0,87.0,7.0,-12.0,-0.108936176,2.427720547,10.22683239,0.052359879,-0.02797856,0.037837673,19.0,40.0,-21.0,-23.0,52.0
1693678368737405500,58.0,-5.0,-27.0,-8.0,22.0,12.0,-7.0,-9.0,1.018732786,-0.858321309,10.22922707,-0.060220521,0.000532925,-0.008127105,-32.0,41.0,87.0,7.0,-12.0,-0.108936176,2.427720547,10.22683239,0.052359879,-0.02797856,0.037837673,19.0,40.0,-21.0,-23.0,52.0
1693678368743410800,58.0,-5.0,-27.0,-8.0,22.0,12.0,-7.0,-9.0,1.018732786,-0.85473001,10.21486187,-0.06008729,0.00106585,-0.008127105,-27.0,41.0,78.0,3.0,-12.0,-0.111330383,2.418143749,10.21965027,0.05249311,-0.027712099,0.038370594,18.0,30.0,-23.0,-30.0,49.0
1693678368744410800,58.0,-5.0,-27.0,-8.0,22.0,12.0,-7.0,-9.0,1.021126986,-0.851138711,10.21486187,-0.059954058,0.00106585,-0.007860643,-26.0,36.0,80.0,2.0,-12.0,-0.113724582,2.420537949,10.21725559,0.052359879,-0.027712099,0.038370594,14.0,36.0,-28.0,-18.0,47.0
1693678368744416300,-27.0,-22.0,45.0,13.0,-22.0,-15.0,-19.0,-59.0,1.021126986,-0.851138711,10.21486187,-0.059954058,0.00106585,-0.007860643,-26.0,36.0,80.0,2.0,-12.0,-0.113724582,2.420537949,10.21725559,0.052359879,-0.027712099,0.038370594,14.0,36.0,-28.0,-18.0,47.0
1693678368745410800,-27.0,-22.0,45.0,13.0,-22.0,-15.0,-19.0,-59.0,1.019929886,-0.852335811,10.21605873,-0.059820827,0.00106585,-0.007860643,-33.0,34.0,78.0,-6.0,-15.0,-0.112527482,2.424129248,10.22084713,0.052359879,-0.027712099,0.038370594,17.0,39.0,-23.0,-27.0,50.0
1693678368746410800,-27.0,-22.0,45.0,13.0,-22.0,-15.0,-19.0,-59.0,1.023521185,-0.85353291,10.22204399,-0.059954058,0.00106585,-0.007727412,-32.0,43.0,80.0,10.0,-11.0,-0.113724582,2.426523447,10.21965027,0.05249311,-0.027578866,0.038503829,20.0,40.0,-20.0,-20.0,46.0
1693678368747410800,-27.0,-22.0,45.0,13.0,-22.0,-15.0,-19.0,-59.0,1.023521185,-0.85353291,10.22324085,-0.059954058,0.000932619,-0.007727412,-22.0,42.0,87.0,6.0,-11.0,-0.111330383,2.427720547,10.21965027,0.05249311,-0.027712099,0.038503829,29.0,32.0,-21.0,-27.0,48.0
1693678368752398900,-3.0,-6.0,-12.0,-18.0,-6.0,-16.0,14.0,50.0,1.023521185,-0.85353291,10.22324085,-0.059954058,0.000932619,-0.007727412,-22.0,42.0,87.0,6.0,-11.0,-0.111330383,2.427720547,10.21965027,0.05249311,-0.027712099,0.038503829,29.0,32.0,-21.0,-27.0,48.0
1693678368754397700,7.0,4.0,5.0,-8.0,-11.0,-16.0,-3.0,-14.0,1.023521185,-0.85353291,10.22324085,-0.059954058,0.000932619,-0.007727412,-22.0,42.0,87.0,6.0,-11.0,-0.111330383,2.427720547,10.21965027,0.05249311,-0.027712099,0.038503829,29.0,32.0,-21.0,-27.0,48.0
1693678368755397300,-41.0,-31.0,-33.0,23.0,13.0,21.0,10.0,4.0,1.023521185,-0.85353291,10.22324085,-0.059954058,0.000932619,-0.007727412,-22.0,42.0,87.0,6.0,-11.0,-0.111330383,2.427720547,10.21965027,0.05249311,-0.027712099,0.038503829,29.0,32.0,-21.0,-27.0,48.0
1693678368756396400,-2.0,7.0,-44.0,-2.0,24.0,8.0,-16.0,-32.0,1.023521185,-0.85353291,10.22324085,-0.059954058,0.000932619,-0.007727412,-22.0,42.0,87.0,6.0,-11.0,-0.111330383,2.427720547,10.21965027,0.05249311,-0.027712099,0.038503829,29.0,32.0,-21.0,-27.0,48.0
1693678368781378900,1.0,3.0,32.0,9.0,-9.0,-22.0,0.0,6.0,1.023521185,-0.85353291,10.22324085,-0.059954058,0.000932619,-0.007727412,-22.0,42.0,87.0,6.0,-11.0,-0.111330383,2.427720547,10.21965027,0.05249311,-0.027712099,0.038503829,29.0,32.0,-21.0,-27.0,48.0
1693678368784378600,8.0,9.0,-7.0,-24.0,-43.0,-7.0,5.0,9.0,1.023521185,-0.85353291,10.22324085,-0.059954058,0.000932619,-0.007727412,-22.0,42.0,87.0,6.0,-11.0,-0.111330383,2.427720547,10.21965027,0.05249311,-0.027712099,0.038503829,29.0,32.0,-21.0,-27.0,48.0
1693678368787377300,-34.0,-23.0,-27.0,1.0,53.0,15.0,-3.0,-42.0,1.023521185,-0.85353291,10.22324085,-0.059954058,0.000932619,-0.007727412,-22.0,42.0,87.0,6.0,-11.0,-0.111330383,2.427720547,10.21965027,0.05249311,-0.027712099,0.038503829,29.0,32.0,-21.0,-27.0,48.0
1693678368788394400,27.0,9.0,51.0,-73.0,-76.0,-52.0,-15.0,-1.0,1.023521185,-0.85353291,10.22324085,-0.059954058,0.000932619,-0.007727412,-22.0,42.0,87.0,6.0,-11.0,-0.111330383,2.427720547,10.21965027,0.05249311,-0.027712099,0.038503829,29.0,32.0,-21.0,-27.0,48.0
1693678368790373600,-62.0,-14.0,-28.0,-2.0,-1.0,14.0,4.0,18.0,1.023521185,-0.85353291,10.22324085,-0.059954058,0.000932619,-0.007727412,-22.0,42.0,87.0,6.0,-11.0,-0.111330383,2.427720547,10.21965027,0.05249311,-0.027712099,0.038503829,29.0,32.0,-21.0,-27.0,48.0
1693678368791380000,-10.0,-10.0,-5.0,2.0,32.0,-12.0,-9.0,-17.0,1.023521185,-0.85353291,10.22324085,-0.059954058,0.000932619,-0.007727412,-22.0,42.0,87.0,6.0,-11.0,-0.111330383,2.427720547,10.21965027,0.05249311,-0.027712099,0.038503829,29.0,32.0,-21.0,-27.0,48.0
1693678368795370400,-48.0,7.0,8.0,-29.0,-60.0,-34.0,3.0,5.0,1.023521185,-0.85353291,10.22324085,-0.059954058,0.000932619,-0.007727412,-22.0,42.0,87.0,6.0,-11.0,-0.111330383,2.427720547,10.21965027,0.05249311,-0.027712099,0.038503829,29.0,32.0,-21.0,-27.0,48.0
1693678368797370300,-39.0,-24.0,-28.0,31.0,41.0,15.0,-6.0,-9.0,1.023521185,-0.85353291,10.22324085,-0.059954058,0.000932619,-0.007727412,-22.0,42.0,87.0,6.0,-11.0,-0.111330383,2.427720547,10.21965027,0.05249311,-0.027712099,0.038503829,29.0,32.0,-21.0,-27.0,48.0
1693678368812361200,-1.0,2.0,-4.0,-18.0,-19.0,-24.0,0.0,20.0,1.023521185,-0.85353291,10.22324085,-0.059954058,0.000932619,-0.007727412,-22.0,42.0,87.0,6.0,-11.0,-0.111330383,2.427720547,10.21965027,0.05249311,-0.027712099,0.038503829,29.0,32.0,-21.0,-27.0,48.0
1693678368813363700,27.0,13.0,17.0,1.0,-21.0,-15.0,4.0,-3.0,1.023521185,-0.85353291,10.22324085,-0.059954058,0.000932619,-0.007727412,-22.0,42.0,87.0,6.0,-11.0,-0.111330383,2.427720547,10.21965027,0.05249311,-0.027712099,0.038503829,29.0,32.0,-21.0,-27.0,48.0
1693678368814382600,-24.0,-25.0,2.0,26.0,44.0,40.0,-3.0,-22.0,1.023521185,-0.85353291,10.22324085,-0.059954058,0.000932619,-0.007727412,-22.0,42.0,87.0,6.0,-11.0,-0.111330383,2.427720547,10.21965027,0.05249311,-0.027712099,0.038503829,29.0,32.0,-21.0,-27.0,48.0
1693678368815381500,9.0,64.0,49.0,53.0,48.0,42.0,33.0,-19.0,1.023521185,-0.85353291,10.22324085,-0.059954058,0.000932619,-0.007727412,-22.0,42.0,87.0,6.0,-11.0,-0.111330383,2.427720547,10.21965027,0.05249311,-0.027712099,0.038503829,29.0,32.0,-21.0,-27.0,48.0
1693678368821355900,9.0,64.0,49.0,53.0,48.0,42.0,33.0,-19.0,1.018732786,-0.858321309,10.22802925,-0.06008729,0.000799387,-0.007460949,-27.0,43.0,85.0,6.0,-8.0,-0.120907187,2.426523447,10.23640919,0.052359879,-0.028111791,0.038104136,13.0,32.0,-23.0,-28.0,49.0
1693678368822355900,9.0,64.0,49.0,53.0,48.0,42.0,33.0,-19.0,1.021126986,-0.858321309,10.22683239,-0.06008729,0.000799387,-0.007594181,-28.0,33.0,80.0,7.0,-11.0,-0.124498487,2.426523447,10.23521233,0.052359879,-0.02797856,0.038237367,13.0,44.0,-21.0,-26.0,50.0
1693678368823355900,9.0,64.0,49.0,53.0,48.0,42.0,33.0,-19.0,1.021126986,-0.861912608,10.22324085,-0.059954058,0.000932619,-0.007460949,-23.0,46.0,81.0,7.0,-9.0,-0.124498487,2.421735048,10.23401546,0.05249311,-0.027845331,0.038237367,18.0,39.0,-25.0,-24.0,50.0
1693678368824355900,9.0,64.0,49.0,53.0,48.0,42.0,33.0,-19.0,1.023521185,-0.861912608,10.22324085,-0.059820827,0.000799387,-0.007460949,-23.0,43.0,79.0,9.0,-12.0,-0.125695586,2.421735048,10.22802925,0.052626338,-0.028111791,0.038370594,17.0,37.0,-20.0,-21.0,52.0
1693678368825355900,9.0,64.0,49.0,53.0,48.0,42.0,33.0,-19.0,1.025915384,-0.860715508,10.22204399,-0.059954058,0.000799387,-0.007460949,-23.0,52.0,83.0,10.0,-14.0,-0.129286885,2.420537949,10.22443867,0.052759573,-0.02797856,0.038370594,14.0,37.0,-23.0,-26.0,48.0
1693678368835349700,47.0,-10.0,-11.0,-16.0,-33.0,-45.0,-19.0,39.0,1.025915384,-0.860715508,10.22204399,-0.059954058,0.000799387,-0.007460949,-23.0,52.0,83.0,10.0,-14.0,-0.129286885,2.420537949,10.22443867,0.052759573,-0.02797856,0.038370594,14.0,37.0,-23.0,-26.0,48.0
1693678368837371800,-43.0,-18.0,-15.0,17.0,20.0,12.0,-8.0,-11.0,1.025915384,-0.860715508,10.22204399,-0.059954058,0.000799387,-0.007460949,-23.0,52.0,83.0,10.0,-14.0,-0.129286885,2.420537949,10.22443867,0.052759573,-0.02797856,0.038370594,14.0,37.0,-23.0,-26.0,48.0
1693678368838370400,37.0,-1.0,6.0,-2.0,-4.0,-1.0,13.0,38.0,1.025915384,-0.860715508,10.22204399,-0.059954058,0.000799387,-0.007460949,-23.0,52.0,83.0,10.0,-14.0,-0.129286885,2.420537949,10.22443867,0.052759573,-0.02797856,0.038370594,14.0,37.0,-23.0,-26.0,48.0
1693678368839370100,34.0,10.0,-4.0,-11.0,-19.0,-5.0,-22.0,-12.0,1.025915384,-0.860715508,10.22204399,-0.059954058,0.000799387,-0.007460949,-23.0,52.0,83.0,10.0,-14.0,-0.129286885,2.420537949,10.22443867,0.052759573,-0.02797856,0.038370594,14.0,37.0,-23.0,-26.0,48.0
1693678368847343500,-2.0,2.0,8.0,15.0,48.0,42.0,38.0,85.0,1.025915384,-0.860715508,10.22204399,-0.059954058,0.000799387,-0.007460949,-23.0,52.0,83.0,10.0,-14.0,-0.129286885,2.420537949,10.22443867,0.052759573,-0.02797856,0.038370594,14.0,37.0,-23.0,-26.0,48.0
1693678368849342600,63.0,37.0,32.0,24.0,23.0,28.0,9.0,9.0,1.025915384,-0.860715508,10.22204399,-0.059954058,0.000799387,-0.007460949,-23.0,52.0,83.0,10.0,-14.0,-0.129286885,2.420537949,10.22443867,0.052759573,-0.02797856,0.038370594,14.0,37.0,-23.0,-26.0,48.0
1693678368855337700,-70.0,-20.0,-2.0,-19.0,-37.0,-29.0,-16.0,-14.0,1.025915384,-0.860715508,10.22204399,-0.059954058,0.000799387,-0.007460949,-23.0,52.0,83.0,10.0,-14.0,-0.129286885,2.420537949,10.22443867,0.052759573,-0.02797856,0.038370594,14.0,37.0,-23.0,-26.0,48.0
1693678368857338600,10.0,0.0,-8.0,1.0,4.0,8.0,11.0,14.0,1.025915384,-0.860715508,10.22204399,-0.059954058,0.000799387,-0.007460949,-23.0,52.0,83.0,10.0,-14.0,-0.129286885,2.420537949,10.22443867,0.052759573,-0.02797856,0.038370594,14.0,37.0,-23.0,-26.0,48.0
1693678368870347900,9.0,-4.0,-13.0,-5.0,-2.0,6.0,-61.0,13.0,1.025915384,-0.860715508,10.22204399,-0.059954058,0.000799387,-0.007460949,-23.0,52.0,83.0,10.0,-14.0,-0.129286885,2.420537949,10.22443867,0.052759573,-0.02797856,0.038370594,14.0,37.0,-23.0,-26.0,48.0
1693678368872327400,-57.0,-16.0,-10.0,-5.0,8.0,-4.0,15.0,-84.0,1.025915384,-0.860715508,10.22204399,-0.059954058,0.000799387,-0.007460949,-23.0,52.0,83.0,10.0,-14.0,-0.129286885,2.420537949,10.22443867,0.052759573,-0.02797856,0.038370594,14.0,37.0,-23.0,-26.0,48.0
1693678368873326700,23.0,11.0,20.0,7.0,-3.0,-20.0,21.0,7.0,1.025915384,-0.860715508,10.22204399,-0.059954058,0.000799387,-0.007460949,-23.0,52.0,83.0,10.0,-14.0,-0.129286885,2.420537949,10.22443867,0.052759573,-0.02797856,0.038370594,14.0,37.0,-23.0,-26.0,48.0
1693678368874326100,-28.0,-16.0,-18.0,5.0,13.0,16.0,-13.0,-4.0,1.025915384,-0.860715508,10.22204399,-0.059954058,0.000799387,-0.007460949,-23.0,52.0,83.0,10.0,-14.0,-0.129286885,2.420537949,10.22443867,0.052759573,-0.02797856,0.038370594,14.0,37.0,-23.0,-26.0,48.0
1693678368885317400,-28.0,-16.0,-18.0,5.0,13.0,16.0,-13.0,-4.0,1.022324085,-0.863109708,10.24000072,-0.059954058,0.000799387,-0.007460949,-32.0,44.0,77.0,10.0,-12.0,-0.107739076,2.41694665,10.23281765,0.052759573,-0.028111791,0.038237367,10.0,35.0,-24.0,-23.0,48.0
1693678368886317400,-28.0,-16.0,-18.0,5.0,13.0,16.0,-13.0,-4.0,1.022324085,-0.866701007,10.23760605,-0.059820827,0.000932619,-0.007460949,-32.0,37.0,82.0,6.0,-15.0,-0.110133275,2.41694665,10.22802925,0.0528928,-0.028245023,0.038237367,7.0,30.0,-23.0,-22.0,53.0
1693678368887317400,-28.0,-16.0,-18.0,5.0,13.0,16.0,-13.0,-4.0,1.022324085,-0.864306808,10.23640919,-0.059687596,0.000799387,-0.007460949,-28.0,46.0,85.0,7.0,-11.0,-0.110133275,2.41694665,10.22802925,0.053159267,-0.028245023,0.038237367,20.0,33.0,-27.0,-19.0,55.0
1693678368888317400,-28.0,-16.0,-18.0,5.0,13.0,16.0,-13.0,-4.0,1.021126986,-0.861912608,10.23880386,-0.059820827,0.000932619,-0.007594181,-22.0,47.0,85.0,6.0,-15.0,-0.111330383,2.41574955,10.23281765,0.053026035,-0.028245023,0.038503829,22.0,39.0,-17.0,-23.0,52.0
1693678368889317400,-28.0,-16.0,-18.0,5.0,13.0,16.0,-13.0,-4.0,1.018732786,-0.863109708,10.24000072,-0.059687596,0.000799387,-0.007594181,-24.0,41.0,84.0,11.0,-8.0,-0.112527482,2.419340849,10.23401546,0.053159267,-0.028245023,0.038637057,16.0,31.0,-29.0,-31.0,51.0
1693678368893315200,-19.0,-7.0,-4.0,11.0,31.0,41.0,-4.0,-39.0,1.018732786,-0.863109708,10.24000072,-0.059687596,0.000799387,-0.007594181,-24.0,41.0,84.0,11.0,-8.0,-0.112527482,2.419340849,10.23401546,0.053159267,-0.028245023,0.038637057,16.0,31.0,-29.0,-31.0,51.0
1693678368895314200,11.0,-2.0,-2.0,-16.0,-19.0,-26.0,-2.0,21.0,1.018732786,-0.863109708,10.24000072,-0.059687596,0.000799387,-0.007594181,-24.0,41.0,84.0,11.0,-8.0,-0.112527482,2.419340849,10.23401546,0.053159267,-0.028245023,0.038637057,16.0,31.0,-29.0,-31.0,51.0
1693678368896313900,25.0,10.0,8.0,3.0,-7.0,-12.0,-2.0,5.0,1.018732786,-0.863109708,10.24000072,-0.059687596,0.000799387,-0.007594181,-24.0,41.0,84.0,11.0,-8.0,-0.112527482,2.419340849,10.23401546,0.053159267,-0.028245023,0.038637057,16.0,31.0,-29.0,-31.0,51.0
1693678368898312300,-36.0,-22.0,-24.0,-16.0,-4.0,33.0,2.0,-18.0,1.018732786,-0.863109708,10.24000072,-0.059687596,0.000799387,-0.007594181,-24.0,41.0,84.0,11.0,-8.0,-0.112527482,2.419340849,10.23401546,0.053159267,-0.028245023,0.038637057,16.0,31.0,-29.0,-31.0,51.0
1693678368907306500,-5.0,1.0,-1.0,-5.0,-2.0,-16.0,-3.0,11.0,1.018732786,-0.863109708,10.24000072,-0.059687596,0.000799387,-0.007594181,-24.0,41.0,84.0,11.0,-8.0,-0.112527482,2.419340849,10.23401546,0.053159267,-0.028245023,0.038637057,16.0,31.0,-29.0,-31.0,51.0
1693678368909305300,27.0,15.0,14.0,9.0,15.0,40.0,21.0,-27.0,1.018732786,-0.863109708,10.24000072,-0.059687596,0.000799387,-0.007594181,-24.0,41.0,84.0,11.0,-8.0,-0.112527482,2.419340849,10.23401546,0.053159267,-0.028245023,0.038637057,16.0,31.0,-29.0,-31.0,51.0
1693678368915324100,-4.0,4.0,9.0,0.0,-21.0,-12.0,14.0,12.0,1.018732786,-0.863109708,10.24000072,-0.059687596,0.000799387,-0.007594181,-24.0,41.0,84.0,11.0,-8.0,-0.112527482,2.419340849,10.23401546,0.053159267,-0.028245023,0.038637057,16.0,31.0,-29.0,-31.0,51.0
1693678368920300300,-12.0,-27.0,-18.0,-5.0,-2.0,-24.0,-22.0,7.0,1.018732786,-0.863109708,10.24000072,-0.059687596,0.000799387,-0.007594181,-24.0,41.0,84.0,11.0,-8.0,-0.112527482,2.419340849,10.23401546,0.053159267,-0.028245023,0.038637057,16.0,31.0,-29.0,-31.0,51.0
1693678368930296000,-5.0,3.0,1.0,0.0,5.0,15.0,23.0,-19.0,1.018732786,-0.863109708,10.24000072,-0.059687596,0.000799387,-0.007594181,-24.0,41.0,84.0,11.0,-8.0,-0.112527482,2.419340849,10.23401546,0.053159267,-0.028245023,0.038637057,16.0,31.0,-29.0,-31.0,51.0
1693678368932310200,2.0,-6.0,-11.0,-4.0,3.0,9.0,-11.0,27.0,1.018732786,-0.863109708,10.24000072,-0.059687596,0.000799387,-0.007594181,-24.0,41.0,84.0,11.0,-8.0,-0.112527482,2.419340849,10.23401546,0.053159267,-0.028245023,0.038637057,16.0,31.0,-29.0,-31.0,51.0
1693678368935295900,32.0,6.0,3.0,-1.0,-3.0,-6.0,-16.0,-13.0,1.018732786,-0.863109708,10.24000072,-0.059687596,0.000799387,-0.007594181,-24.0,41.0,84.0,11.0,-8.0,-0.112527482,2.419340849,10.23401546,0.053159267,-0.028245023,0.038637057,16.0,31.0,-29.0,-31.0,51.0
1693678368937289400,-39.0,-13.0,-16.0,-21.0,13.0,5.0,7.0,-17.0,1.018732786,-0.863109708,10.24000072,-0.059687596,0.000799387,-0.007594181,-24.0,41.0,84.0,11.0,-8.0,-0.112527482,2.419340849,10.23401546,0.053159267,-0.028245023,0.038637057,16.0,31.0,-29.0,-31.0,51.0
1693678368957280400,10.0,15.0,14.0,30.0,18.0,8.0,7.0,-1.0,1.018732786,-0.863109708,10.24000072,-0.059687596,0.000799387,-0.007594181,-24.0,41.0,84.0,11.0,-8.0,-0.112527482,2.419340849,10.23401546,0.053159267,-0.028245023,0.038637057,16.0,31.0,-29.0,-31.0,51.0
1693678368959279300,53.0,12.0,18.0,-12.0,-39.0,-34.0,-3.0,6.0,1.018732786,-0.863109708,10.24000072,-0.059687596,0.000799387,-0.007594181,-24.0,41.0,84.0,11.0,-8.0,-0.112527482,2.419340849,10.23401546,0.053159267,-0.028245023,0.038637057,16.0,31.0,-29.0,-31.0,51.0
1693678368960274700,53.0,12.0,18.0,-12.0,-39.0,-34.0,-3.0,6.0,1.011550188,-0.866701007,10.24239445,-0.059421133,0.001199081,-0.007594181,-30.0,46.0,83.0,6.0,-12.0,-0.116118781,2.427720547,10.21845245,0.052759573,-0.028111791,0.038237367,18.0,36.0,-25.0,-24.0,51.0
1693678368961274700,53.0,12.0,18.0,-12.0,-39.0,-34.0,-3.0,6.0,1.009155989,-0.865503907,10.23880386,-0.059421133,0.001199081,-0.007727412,-27.0,34.0,83.0,8.0,-13.0,-0.118512981,2.425326347,10.22324085,0.052626338,-0.027712099,0.038237367,18.0,33.0,-17.0,-20.0,52.0
1693678368961275700,-55.0,1.0,7.0,-4.0,-11.0,-11.0,2.0,-9.0,1.009155989,-0.865503907,10.23880386,-0.059421133,0.001199081,-0.007727412,-27.0,34.0,83.0,8.0,-13.0,-0.118512981,2.425326347,10.22324085,0.052626338,-0.027712099,0.038237367,18.0,33.0,-17.0,-20.0,52.0
1693678368962274700,-55.0,1.0,7.0,-4.0,-11.0,-11.0,2.0,-9.0,1.010353088,-0.866701007,10.23760605,-0.059421133,0.001332312,-0.007727412,-23.0,47.0,85.0,0.0,-13.0,-0.117315881,2.422932148,10.22563553,0.05249311,-0.027845331,0.038370594,18.0,45.0,-20.0,-19.0,55.0
1693678368962276100,10.0,3.0,3.0,2.0,-18.0,-6.0,5.0,26.0,1.010353088,-0.866701007,10.23760605,-0.059421133,0.001332312,-0.007727412,-23.0,47.0,85.0,0.0,-13.0,-0.117315881,2.422932148,10.22563553,0.05249311,-0.027845331,0.038370594,18.0,45.0,-20.0,-19.0,55.0
1693678368963274700,10.0,3.0,3.0,2.0,-18.0,-6.0,5.0,26.0,1.009155989,-0.865503907,10.23640919,-0.059554365,0.001332312,-0.007594181,-24.0,47.0,88.0,13.0,-9.0,-0.117315881,2.425326347,10.22324085,0.05249311,-0.027845331,0.038104136,14.0,35.0,-25.0,-20.0,55.0
1693678368964274700,10.0,3.0,3.0,2.0,-18.0,-6.0,5.0,26.0,1.012747288,-0.865503907,10.23042393,-0.059687596,0.001598775,-0.007993874,-32.0,38.0,84.0,8.0,-15.0,-0.119710088,2.421735048,10.22324085,0.052626338,-0.027845331,0.038104136,20.0,37.0,-22.0,-20.0,44.0
1693678368970272300,-18.0,-15.0,-25.0,-25.0,0.0,-12.0,-1.0,-31.0,1.012747288,-0.865503907,10.23042393,-0.059687596,0.001598775,-0.007993874,-32.0,38.0,84.0,8.0,-15.0,-0.119710088,2.421735048,10.22324085,0.052626338,-0.027845331,0.038104136,20.0,37.0,-22.0,-20.0,44.0
1693678368972270300,2.0,-10.0,-14.0,-15.0,3.0,-3.0,-8.0,20.0,1.012747288,-0.865503907,10.23042393,-0.059687596,0.001598775,-0.007993874,-32.0,38.0,84.0,8.0,-15.0,-0.119710088,2.421735048,10.22324085,0.052626338,-0.027845331,0.038104136,20.0,37.0,-22.0,-20.0,44.0
1693678368984263600,19.0,5.0,6.0,8.0,6.0,20.0,-4.0,-10.0,1.012747288,-0.865503907,10.23042393,-0.059687596,0.001598775,-0.007993874,-32.0,38.0,84.0,8.0,-15.0,-0.119710088,2.421735048,10.22324085,0.052626338,-0.027845331,0.038104136,20.0,37.0,-22.0,-20.0,44.0
1693678368987262200,-6.0,-3.0,-6.0,0.0,4.0,-3.0,2.0,13.0,1.012747288,-0.865503907,10.23042393,-0.059687596,0.001598775,-0.007993874,-32.0,38.0,84.0,8.0,-15.0,-0.119710088,2.421735048,10.22324085,0.052626338,-0.027845331,0.038104136,20.0,37.0,-22.0,-20.0,44.0
1693678368990258900,-12.0,-6.0,-6.0,-3.0,-7.0,-11.0,12.0,-14.0,1.012747288,-0.865503907,10.23042393,-0.059687596,0.001598775,-0.007993874,-32.0,38.0,84.0,8.0,-15.0,-0.119710088,2.421735048,10.22324085,0.052626338,-0.027845331,0.038104136,20.0,37.0,-22.0,-20.0,44.0
1693678368992258800,-3.0,2.0,-2.0,-2.0,1.0,41.0,7.0,1.0,1.012747288,-0.865503907,10.23042393,-0.059687596,0.001598775,-0.007993874,-32.0,38.0,84.0,8.0,-15.0,-0.119710088,2.421735048,10.22324085,0.052626338,-0.027845331,0.038104136,20.0,37.0,-22.0,-20.0,44.0
1693678368993258000,7.0,2.0,2.0,-12.0,-11.0,-31.0,0.0,9.0,1.012747288,-0.865503907,10.23042393,-0.059687596,0.001598775,-0.007993874,-32.0,38.0,84.0,8.0,-15.0,-0.119710088,2.421735048,10.22324085,0.052626338,-0.027845331,0.038104136,20.0,37.0,-22.0,-20.0,44.0
1693678368994257500,-20.0,-6.0,-2.0,9.0,5.0,-6.0,-9.0,-6.0,1.012747288,-0.865503907,10.23042393,-0.059687596,0.001598775,-0.007993874,-32.0,38.0,84.0,8.0,-15.0,-0.119710088,2.421735048,10.22324085,0.052626338,-0.027845331,0.038104136,20.0,37.0,-22.0,-20.0,44.0
1693678369013246200,14.0,3.0,6.0,-9.0,-17.0,-7.0,4.0,-7.0,1.012747288,-0.865503907,10.23042393,-0.059687596,0.001598775,-0.007993874,-32.0,38.0,84.0,8.0,-15.0,-0.119710088,2.421735048,10.22324085,0.052626338,-0.027845331,0.038104136,20.0,37.0,-22.0,-20.0,44.0
1693678369014247200,-3.0,8.0,6.0,4.0,-3.0,13.0,4.0,16.0,1.012747288,-0.865503907,10.23042393,-0.059687596,0.001598775,-0.007993874,-32.0,38.0,84.0,8.0,-15.0,-0.119710088,2.421735048,10.22324085,0.052626338,-0.027845331,0.038104136,20.0,37.0,-22.0,-20.0,44.0
1693678369020694000,-2.0,-9.0,-10.0,-5.0,-1.0,10.0,8.0,4.0,1.012747288,-0.865503907,10.23042393,-0.059687596,0.001598775,-0.007993874,-32.0,38.0,84.0,8.0,-15.0,-0.119710088,2.421735048,10.22324085,0.052626338,-0.027845331,0.038104136,20.0,37.0,-22.0,-20.0,44.0
1693678369022694700,-1.0,-6.0,-3.0,0.0,-2.0,10.0,-1.0,3.0,1.012747288,-0.865503907,10.23042393,-0.059687596,0.001598775,-0.007993874,-32.0,38.0,84.0,8.0,-15.0,-0.119710088,2.421735048,10.22324085,0.052626338,-0.027845331,0.038104136,20.0,37.0,-22.0,-20.0,44.0
1693678369033684500,-1.0,-6.0,-3.0,0.0,-2.0,10.0,-1.0,3.0,1.013944387,-0.864306808,10.24718285,-0.059820827,0.000932619,-0.007993874,-26.0,35.0,79.0,8.0,-11.0,-0.116118781,2.41574955,10.23521233,0.05249311,-0.02691271,0.038237367,18.0,37.0,-17.0,-22.0,52.0
1693678369034684500,-1.0,-6.0,-3.0,0.0,-2.0,10.0,-1.0,3.0,1.015141487,-0.864306808,10.24239445,-0.059687596,0.000932619,-0.007993874,-20.0,41.0,87.0,2.0,-20.0,-0.113724582,2.41694665,10.23281765,0.052359879,-0.02691271,0.038237367,20.0,45.0,-21.0,-18.0,54.0
1693678369035684500,-1.0,-6.0,-3.0,0.0,-2.0,10.0,-1.0,3.0,1.016338587,-0.864306808,10.23640919,-0.059687596,0.000932619,-0.007993874,-26.0,38.0,83.0,12.0,-8.0,-0.113724582,2.420537949,10.23042393,0.052359879,-0.027312404,0.038370594,19.0,33.0,-21.0,-21.0,50.0
1693678369036684500,-1.0,-6.0,-3.0,0.0,-2.0,10.0,-1.0,3.0,1.017535686,-0.861912608,10.23401546,-0.059687596,0.000932619,-0.007860643,-24.0,44.0,83.0,-1.0,-12.0,-0.111330383,2.421735048,10.23401546,0.052359879,-0.027578866,0.038503829,19.0,30.0,-17.0,-24.0,49.0
1693678369037684500,-1.0,-6.0,-3.0,0.0,-2.0,10.0,-1.0,3.0,1.016338587,-0.861912608,10.23521233,-0.059820827,0.000932619,-0.007860643,-24.0,35.0,83.0,3.0,30.0,-0.111330383,2.421735048,10.23281765,0.05249311,-0.027578866,0.038503829,9.0,36.0,-24.0,-24.0,53.0
1693678369039684200,0.0,-1.0,-10.0,-2.0,-3.0,-44.0,-1.0,-8.0,1.016338587,-0.861912608,10.23521233,-0.059820827,0.000932619,-0.007860643,-24.0,35.0,83.0,3.0,30.0,-0.111330383,2.421735048,10.23281765,0.05249311,-0.027578866,0.038503829,9.0,36.0,-24.0,-24.0,53.0
1693678369041683700,-20.0,-6.0,-1.0,0.0,5.0,16.0,-15.0,-1.0,1.016338587,-0.861912608,10.23521233,-0.059820827,0.000932619,-0.007860643,-24.0,35.0,83.0,3.0,30.0,-0.111330383,2.421735048,10.23281765,0.05249311,-0.027578866,0.038503829,9.0,36.0,-24.0,-24.0,53.0
1693678369042682100,2.0,2.0,6.0,-7.0,-4.0,9.0,-6.0,-2.0,1.016338587,-0.861912608,10.23521233,-0.059820827,0.000932619,-0.007860643,-24.0,35.0,83.0,3.0,30.0,-0.111330383,2.421735048,10.23281765,0.05249311,-0.027578866,0.038503829,9.0,36.0,-24.0,-24.0,53.0
1693678369044682900,7.0,1.0,-1.0,13.0,2.0,-8.0,4.0,-2.0,1.016338587,-0.861912608,10.23521233,-0.059820827,0.000932619,-0.007860643,-24.0,35.0,83.0,3.0,30.0,-0.111330383,2.421735048,10.23281765,0.05249311,-0.027578866,0.038503829,9.0,36.0,-24.0,-24.0,53.0
1693678369054674900,-3.0,3.0,4.0,8.0,8.0,12.0,-2.0,-1.0,1.016338587,-0.861912608,10.23521233,-0.059820827,0.000932619,-0.007860643,-24.0,35.0,83.0,3.0,30.0,-0.111330383,2.421735048,10.23281765,0.05249311,-0.027578866,0.038503829,9.0,36.0,-24.0,-24.0,53.0
1693678369056673800,-8.0,1.0,-12.0,-15.0,-19.0,-26.0,-6.0,4.0,1.016338587,-0.861912608,10.23521233,-0.059820827,0.000932619,-0.007860643,-24.0,35.0,83.0,3.0,30.0,-0.111330383,2.421735048,10.23281765,0.05249311,-0.027578866,0.038503829,9.0,36.0,-24.0,-24.0,53.0
1693678369058672400,11.0,3.0,7.0,8.0,2.0,3.0,2.0,-1.0,1.016338587,-0.861912608,10.23521233,-0.059820827,0.000932619,-0.007860643,-24.0,35.0,83.0,3.0,30.0,-0.111330383,2.421735048,10.23281765,0.05249311,-0.027578866,0.038503829,9.0,36.0,-24.0,-24.0,53.0
1693678369060671200,0.0,-3.0,-1.0,-12.0,-4.0,12.0,4.0,6.0,1.016338587,-0.861912608,10.23521233,-0.059820827,0.000932619,-0.007860643,-24.0,35.0,83.0,3.0,30.0,-0.111330383,2.421735048,10.23281765,0.05249311,-0.027578866,0.038503829,9.0,36.0,-24.0,-24.0,53.0
1693678369073663600,-9.0,-5.0,-10.0,3.0,0.0,5.0,0.0,-10.0,1.016338587,-0.861912608,10.23521233,-0.059820827,0.000932619,-0.007860643,-24.0,35.0,83.0,3.0,30.0,-0.111330383,2.421735048,10.23281765,0.05249311,-0.027578866,0.038503829,9.0,36.0,-24.0,-24.0,53.0
1693678369074663500,-7.0,-9.0,-5.0,-9.0,-8.0,-20.0,10.0,1.0,1.016338587,-0.861912608,10.23521233,-0.059820827,0.000932619,-0.007860643,-24.0,35.0,83.0,3.0,30.0,-0.111330383,2.421735048,10.23281765,0.05249311,-0.027578866,0.038503829,9.0,36.0,-24.0,-24.0,53.0
1693678369076661300,1.0,2.0,-1.0,1.0,19.0,-14.0,-13.0,-8.0,1.016338587,-0.861912608,10.23521233,-0.059820827,0.000932619,-0.007860643,-24.0,35.0,83.0,3.0,30.0,-0.111330383,2.421735048,10.23281765,0.05249311,-0.027578866,0.038503829,9.0,36.0,-24.0,-24.0,53.0
1693678369077661600,-4.0,-4.0,-9.0,-11.0,-17.0,-36.0,-1.0,1.0,1.016338587,-0.861912608,10.23521233,-0.059820827,0.000932619,-0.007860643,-24.0,35.0,83.0,3.0,30.0,-0.111330383,2.421735048,10.23281765,0.05249311,-0.027578866,0.038503829,9.0,36.0,-24.0,-24.0,53.0
1693678369096651200,4.0,13.0,31.0,8.0,-9.0,10.0,-1.0,2.0,1.016338587,-0.861912608,10.23521233,-0.059820827,0.000932619,-0.007860643,-24.0,35.0,83.0,3.0,30.0,-0.111330383,2.421735048,10.23281765,0.05249311,-0.027578866,0.038503829,9.0,36.0,-24.0,-24.0,53.0
1693678369098650900,-1.0,0.0,1.0,2.0,-4.0,-3.0,5.0,4.0,1.016338587,-0.861912608,10.23521233,-0.059820827,0.000932619,-0.007860643,-24.0,35.0,83.0,3.0,30.0,-0.111330383,2.421735048,10.23281765,0.05249311,-0.027578866,0.038503829,9.0,36.0,-24.0,-24.0,53.0
1693678369100649700,6.0,1.0,-2.0,-2.0,-1.0,17.0,10.0,3.0,1.016338587,-0.861912608,10.23521233,-0.059820827,0.000932619,-0.007860643,-24.0,35.0,83.0,3.0,30.0,-0.111330383,2.421735048,10.23281765,0.05249311,-0.027578866,0.038503829,9.0,36.0,-24.0,-24.0,53.0
1693678369103649000,-7.0,-4.0,-13.0,-15.0,6.0,-20.0,-17.0,-10.0,1.016338587,-0.861912608,10.23521233,-0.059820827,0.000932619,-0.007860643,-24.0,35.0,83.0,3.0,30.0,-0.111330383,2.421735048,10.23281765,0.05249311,-0.027578866,0.038503829,9.0,36.0,-24.0,-24.0,53.0
1693678369110644300,2.0,-6.0,-7.0,16.0,8.0,7.0,5.0,-1.0,1.016338587,-0.861912608,10.23521233,-0.059820827,0.000932619,-0.007860643,-24.0,35.0,83.0,3.0,30.0,-0.111330383,2.421735048,10.23281765,0.05249311,-0.027578866,0.038503829,9.0,36.0,-24.0,-24.0,53.0
1693678369112643400,-3.0,-1.0,8.0,5.0,-12.0,-6.0,-9.0,3.0,1.016338587,-0.861912608,10.23521233,-0.059820827,0.000932619,-0.007860643,-24.0,35.0,83.0,3.0,30.0,-0.111330383,2.421735048,10.23281765,0.05249311,-0.027578866,0.038503829,9.0,36.0,-24.0,-24.0,53.0
1693678369113642600,-4.0,-2.0,-10.0,-2.0,12.0,15.0,-2.0,-2.0,1.016338587,-0.861912608,10.23521233,-0.059820827,0.000932619,-0.007860643,-24.0,35.0,83.0,3.0,30.0,-0.111330383,2.421735048,10.23281765,0.05249311,-0.027578866,0.038503829,9.0,36.0,-24.0,-24.0,53.0
1693678369114641700,0.0,-4.0,-2.0,3.0,2.0,-19.0,12.0,5.0,1.016338587,-0.861912608,10.23521233,-0.059820827,0.000932619,-0.007860643,-24.0,35.0,83.0,3.0,30.0,-0.111330383,2.421735048,10.23281765,0.05249311,-0.027578866,0.038503829,9.0,36.0,-24.0,-24.0,53.0
1693678369125701000,0.0,-4.0,-2.0,3.0,2.0,-19.0,12.0,5.0,1.023521185,-0.863109708,10.22443867,-0.06008729,0.001199081,-0.007594181,-12.0,29.0,78.0,6.0,-14.0,-0.110133275,2.420537949,10.23042393,0.0528928,-0.027179174,0.038770292,7.0,41.0,-27.0,-24.0,53.0
1693678369126701000,0.0,-4.0,-2.0,3.0,2.0,-19.0,12.0,5.0,1.024718285,-0.860715508,10.21965027,-0.059954058,0.00106585,-0.007460949,-26.0,37.0,86.0,8.0,-12.0,-0.112527482,2.421735048,10.22922707,0.0528928,-0.027179174,0.038903523,20.0,49.0,-17.0,-22.0,52.0
1693678369127701000,0.0,-4.0,-2.0,3.0,2.0,-19.0,12.0,5.0,1.025915384,-0.863109708,10.21845245,-0.059954058,0.000932619,-0.007460949,-26.0,38.0,80.0,7.0,-12.0,-0.111330383,2.424129248,10.22443867,0.0528928,-0.027045943,0.038903523,18.0,33.0,-24.0,-22.0,50.0
1693678369128701000,0.0,-4.0,-2.0,3.0,2.0,-19.0,12.0,5.0,1.027112484,-0.863109708,10.22084713,-0.059954058,0.000932619,-0.007460949,-23.0,45.0,85.0,12.0,-13.0,-0.113724582,2.421735048,10.22443867,0.052759573,-0.027312404,0.038770292,15.0,36.0,-26.0,-22.0,51.0
1693678369129701000,0.0,-4.0,-2.0,3.0,2.0,-19.0,12.0,5.0,1.023521185,-0.867898107,10.22324085,-0.059820827,0.00106585,-0.007460949,-31.0,38.0,85.0,7.0,-17.0,-0.110133275,2.420537949,10.23042393,0.052759573,-0.027578866,0.038637057,15.0,31.0,-23.0,-26.0,53.0
1693678369135699400,-3.0,-3.0,-23.0,-12.0,25.0,-3.0,-10.0,-5.0,1.023521185,-0.867898107,10.22324085,-0.059820827,0.00106585,-0.007460949,-31.0,38.0,85.0,7.0,-17.0,-0.110133275,2.420537949,10.23042393,0.052759573,-0.027578866,0.038637057,15.0,31.0,-23.0,-26.0,53.0
1693678369138697200,4.0,7.0,51.0,11.0,-39.0,-16.0,-4.0,3.0,1.023521185,-0.867898107,10.22324085,-0.059820827,0.00106585,-0.007460949,-31.0,38.0,85.0,7.0,-17.0,-0.110133275,2.420537949,10.23042393,0.052759573,-0.027578866,0.038637057,15.0,31.0,-23.0,-26.0,53.0
1693678369141695300,-4.0,-6.0,-8.0,10.0,-16.0,-9.0,-6.0,-3.0,1.023521185,-0.867898107,10.22324085,-0.059820827,0.00106585,-0.007460949,-31.0,38.0,85.0,7.0,-17.0,-0.110133275,2.420537949,10.23042393,0.052759573,-0.027578866,0.038637057,15.0,31.0,-23.0,-26.0,53.0
1693678369142694800,5.0,5.0,14.0,15.0,-3.0,12.0,6.0,0.0,1.023521185,-0.867898107,10.22324085,-0.059820827,0.00106585,-0.007460949,-31.0,38.0,85.0,7.0,-17.0,-0.110133275,2.420537949,10.23042393,0.052759573,-0.027578866,0.038637057,15.0,31.0,-23.0,-26.0,53.0
1693678369155686400,0.0,0.0,-2.0,-25.0,-6.0,5.0,-1.0,0.0,1.023521185,-0.867898107,10.22324085,-0.059820827,0.00106585,-0.007460949,-31.0,38.0,85.0,7.0,-17.0,-0.110133275,2.420537949,10.23042393,0.052759573,-0.027578866,0.038637057,15.0,31.0,-23.0,-26.0,53.0
1693678369157686600,-7.0,-8.0,-27.0,1.0,55.0,10.0,-7.0,-4.0,1.023521185,-0.867898107,10.22324085,-0.059820827,0.00106585,-0.007460949,-31.0,38.0,85.0,7.0,-17.0,-0.110133275,2.420537949,10.23042393,0.052759573,-0.027578866,0.038637057,15.0,31.0,-23.0,-26.0,53.0
1693678369163681300,-1.0,-4.0,-7.0,-8.0,-7.0,-37.0,-3.0,-3.0,1.023521185,-0.867898107,10.22324085,-0.059820827,0.00106585,-0.007460949,-31.0,38.0,85.0,7.0,-17.0,-0.110133275,2.420537949,10.23042393,0.052759573,-0.027578866,0.038637057,15.0,31.0,-23.0,-26.0,53.0
1693678369172676600,-1.0,-4.0,-1.0,-10.0,-8.0,-1.0,-1.0,0.0,1.023521185,-0.867898107,10.22324085,-0.059820827,0.00106585,-0.007460949,-31.0,38.0,85.0,7.0,-17.0,-0.110133275,2.420537949,10.23042393,0.052759573,-0.027578866,0.038637057,15.0,31.0,-23.0,-26.0,53.0
1693678369176674900,-4.0,-1.0,6.0,2.0,-26.0,-8.0,-4.0,-3.0,1.023521185,-0.867898107,10.22324085,-0.059820827,0.00106585,-0.007460949,-31.0,38.0,85.0,7.0,-17.0,-0.110133275,2.420537949,10.23042393,0.052759573,-0.027578866,0.038637057,15.0,31.0,-23.0,-26.0,53.0
1693678369178673900,-2.0,-4.0,-16.0,11.0,58.0,5.0,-1.0,3.0,1.023521185,-0.867898107,10.22324085,-0.059820827,0.00106585,-0.007460949,-31.0,38.0,85.0,7.0,-17.0,-0.110133275,2.420537949,10.23042393,0.052759573,-0.027578866,0.038637057,15.0,31.0,-23.0,-26.0,53.0
1693678369180673000,3.0,3.0,9.0,0.0,8.0,17.0,-3.0,0.0,1.023521185,-0.867898107,10.22324085,-0.059820827,0.00106585,-0.007460949,-31.0,38.0,85.0,7.0,-17.0,-0.110133275,2.420537949,10.23042393,0.052759573,-0.027578866,0.038637057,15.0,31.0,-23.0,-26.0,53.0
1693678369185676300,0.0,1.0,-6.0,3.0,11.0,11.0,-2.0,0.0,1.023521185,-0.867898107,10.22324085,-0.059820827,0.00106585,-0.007460949,-31.0,38.0,85.0,7.0,-17.0,-0.110133275,2.420537949,10.23042393,0.052759573,-0.027578866,0.038637057,15.0,31.0,-23.0,-26.0,53.0
1693678369193666700,3.0,-1.0,5.0,4.0,-31.0,5.0,5.0,2.0,1.023521185,-0.867898107,10.22324085,-0.059820827,0.00106585,-0.007460949,-31.0,38.0,85.0,7.0,-17.0,-0.110133275,2.420537949,10.23042393,0.052759573,-0.027578866,0.038637057,15.0,31.0,-23.0,-26.0,53.0
1693678369195663100,-4.0,-6.0,-9.0,-33.0,-97.0,-34.0,-6.0,-3.0,1.023521185,-0.867898107,10.22324085,-0.059820827,0.00106585,-0.007460949,-31.0,38.0,85.0,7.0,-17.0,-0.110133275,2.420537949,10.23042393,0.052759573,-0.027578866,0.038637057,15.0,31.0,-23.0,-26.0,53.0
1693678369197663000,-4.0,-4.0,-8.0,4.0,45.0,2.0,-9.0,-5.0,1.023521185,-0.867898107,10.22324085,-0.059820827,0.00106585,-0.007460949,-31.0,38.0,85.0,7.0,-17.0,-0.110133275,2.420537949,10.23042393,0.052759573,-0.027578866,0.038637057,15.0,31.0,-23.0,-26.0,53.0
1693678369202661600,-1.0,0.0,6.0,26.0,34.0,-3.0,3.0,1.0,1.023521185,-0.867898107,10.22324085,-0.059820827,0.00106585,-0.007460949,-31.0,38.0,85.0,7.0,-17.0,-0.110133275,2.420537949,10.23042393,0.052759573,-0.027578866,0.038637057,15.0,31.0,-23.0,-26.0,53.0
1693678369218650800,0.0,-1.0,1.0,-10.0,10.0,9.0,-2.0,0.0,1.023521185,-0.867898107,10.22324085,-0.059820827,0.00106585,-0.007460949,-31.0,38.0,85.0,7.0,-17.0,-0.110133275,2.420537949,10.23042393,0.052759573,-0.027578866,0.038637057,15.0,31.0,-23.0,-26.0,53.0
1693678369220649400,1.0,2.0,1.0,-1.0,-26.0,4.0,0.0,1.0,1.023521185,-0.867898107,10.22324085,-0.059820827,0.00106585,-0.007460949,-31.0,38.0,85.0,7.0,-17.0,-0.110133275,2.420537949,10.23042393,0.052759573,-0.027578866,0.038637057,15.0,31.0,-23.0,-26.0,53.0
1693678369222648200,1.0,1.0,-5.0,5.0,24.0,2.0,4.0,1.0,1.023521185,-0.867898107,10.22324085,-0.059820827,0.00106585,-0.007460949,-31.0,38.0,85.0,7.0,-17.0,-0.110133275,2.420537949,10.23042393,0.052759573,-0.027578866,0.038637057,15.0,31.0,-23.0,-26.0,53.0
1693678369224648900,-3.0,-2.0,-2.0,-18.0,-52.0,-10.0,-4.0,-2.0,1.023521185,-0.867898107,10.22324085,-0.059820827,0.00106585,-0.007460949,-31.0,38.0,85.0,7.0,-17.0,-0.110133275,2.420537949,10.23042393,0.052759573,-0.027578866,0.038637057,15.0,31.0,-23.0,-26.0,53.0
1693678369230643000,-1.0,2.0,4.0,9.0,29.0,8.0,2.0,-1.0,1.023521185,-0.867898107,10.22324085,-0.059820827,0.00106585,-0.007460949,-31.0,38.0,85.0,7.0,-17.0,-0.110133275,2.420537949,10.23042393,0.052759573,-0.027578866,0.038637057,15.0,31.0,-23.0,-26.0,53.0
1693678369231643000,-4.0,-3.0,-11.0,6.0,40.0,5.0,-3.0,-1.0,1.023521185,-0.867898107,10.22324085,-0.059820827,0.00106585,-0.007460949,-31.0,38.0,85.0,7.0,-17.0,-0.110133275,2.420537949,10.23042393,0.052759573,-0.027578866,0.038637057,15.0,31.0,-23.0,-26.0,53.0
1693678369238638700,-1.0,-4.0,-1.0,-20.0,-42.0,-26.0,-7.0,-3.0,1.023521185,-0.867898107,10.22324085,-0.059820827,0.00106585,-0.007460949,-31.0,38.0,85.0,7.0,-17.0,-0.110133275,2.420537949,10.23042393,0.052759573,-0.027578866,0.038637057,15.0,31.0,-23.0,-26.0,53.0
1693678369240637700,-1.0,-1.0,2.0,10.0,-9.0,14.0,1.0,-1.0,1.023521185,-0.867898107,10.22324085,-0.059820827,0.00106585,-0.007460949,-31.0,38.0,85.0,7.0,-17.0,-0.110133275,2.420537949,10.23042393,0.052759573,-0.027578866,0.038637057,15.0,31.0,-23.0,-26.0,53.0
1693678369252627700,-1.0,-1.0,2.0,10.0,-9.0,14.0,1.0,-1.0,1.019929886,-0.863109708,10.23401546,-0.059421133,0.000666156,-0.007194487,-33.0,45.0,76.0,6.0,-21.0,-0.107739076,2.420537949,10.24478912,0.0528928,-0.027845331,0.038104136,18.0,43.0,-19.0,-24.0,53.0
1693678369253627700,-1.0,-1.0,2.0,10.0,-9.0,14.0,1.0,-1.0,1.019929886,-0.861912608,10.23281765,-0.059421133,0.000799387,-0.007327718,-26.0,41.0,85.0,10.0,-9.0,-0.111330383,2.419340849,10.24478912,0.0528928,-0.02797856,0.037837673,13.0,39.0,-21.0,-18.0,51.0
1693678369254627700,-1.0,-1.0,2.0,10.0,-9.0,14.0,1.0,-1.0,1.022324085,-0.864306808,10.23042393,-0.059421133,0.000666156,-0.007327718,-23.0,41.0,89.0,12.0,-9.0,-0.113724582,2.420537949,10.24838066,0.0528928,-0.02797856,0.037704438,20.0,36.0,-24.0,-22.0,52.0
1693678369255627700,-1.0,-1.0,2.0,10.0,-9.0,14.0,1.0,-1.0,1.023521185,-0.860715508,10.23162079,-0.059554365,0.000666156,-0.007594181,-49.0,35.0,89.0,6.0,-14.0,-0.110133275,2.419340849,10.24718285,0.0528928,-0.028111791,0.037704438,15.0,28.0,-28.0,-26.0,49.0
1693678369256627700,-1.0,-1.0,2.0,10.0,-9.0,14.0,1.0,-1.0,1.021126986,-0.858321309,10.22563553,-0.059421133,0.000532925,-0.007460949,-30.0,37.0,80.0,10.0,-11.0,-0.108936176,2.419340849,10.24119759,0.052626338,-0.02797856,0.037837673,14.0,33.0,-24.0,-19.0,49.0
1693678369257629400,3.0,2.0,4.0,-4.0,0.0,-3.0,0.0,-1.0,1.021126986,-0.858321309,10.22563553,-0.059421133,0.000532925,-0.007460949,-30.0,37.0,80.0,10.0,-11.0,-0.108936176,2.419340849,10.24119759,0.052626338,-0.02797856,0.037837673,14.0,33.0,-24.0,-19.0,49.0
1693678369260626100,0.0,0.0,-3.0,5.0,-3.0,-3.0,-3.0,-2.0,1.021126986,-0.858321309,10.22563553,-0.059421133,0.000532925,-0.007460949,-30.0,37.0,80.0,10.0,-11.0,-0.108936176,2.419340849,10.24119759,0.052626338,-0.02797856,0.037837673,14.0,33.0,-24.0,-19.0,49.0
1693678369262624400,1.0,1.0,6.0,11.0,22.0,18.0,4.0,2.0,1.021126986,-0.858321309,10.22563553,-0.059421133,0.000532925,-0.007460949,-30.0,37.0,80.0,10.0,-11.0,-0.108936176,2.419340849,10.24119759,0.052626338,-0.02797856,0.037837673,14.0,33.0,-24.0,-19.0,49.0
1693678369264625500,2.0,2.0,3.0,0.0,-31.0,8.0,2.0,3.0,1.021126986,-0.858321309,10.22563553,-0.059421133,0.000532925,-0.007460949,-30.0,37.0,80.0,10.0,-11.0,-0.108936176,2.419340849,10.24119759,0.052626338,-0.02797856,0.037837673,14.0,33.0,-24.0,-19.0,49.0
1693678369277616700,-2.0,-4.0,-9.0,-10.0,-17.0,-6.0,0.0,-1.0,1.021126986,-0.858321309,10.22563553,-0.059421133,0.000532925,-0.007460949,-30.0,37.0,80.0,10.0,-11.0,-0.108936176,2.419340849,10.24119759,0.052626338,-0.02797856,0.037837673,14.0,33.0,-24.0,-19.0,49.0
1693678369279615400,-1.0,-1.0,-3.0,3.0,29.0,0.0,-1.0,-2.0,1.021126986,-0.858321309,10.22563553,-0.059421133,0.000532925,-0.007460949,-30.0,37.0,80.0,10.0,-11.0,-0.108936176,2.419340849,10.24119759,0.052626338,-0.02797856,0.037837673,14.0,33.0,-24.0,-19.0,49.0
1693678369281614100,-1.0,-3.0,0.0,2.0,-3.0,8.0,-1.0,-2.0,1.021126986,-0.858321309,10.22563553,-0.059421133,0.000532925,-0.007460949,-30.0,37.0,80.0,10.0,-11.0,-0.108936176,2.419340849,10.24119759,0.052626338,-0.02797856,0.037837673,14.0,33.0,-24.0,-19.0,49.0
1693678369286611900,-1.0,-1.0,-1.0,-3.0,-24.0,2.0,-2.0,0.0,1.021126986,-0.858321309,10.22563553,-0.059421133,0.000532925,-0.007460949,-30.0,37.0,80.0,10.0,-11.0,-0.108936176,2.419340849,10.24119759,0.052626338,-0.02797856,0.037837673,14.0,33.0,-24.0,-19.0,49.0
1693678369290608200,-1.0,-3.0,-4.0,2.0,-2.0,-57.0,-7.0,-3.0,1.021126986,-0.858321309,10.22563553,-0.059421133,0.000532925,-0.007460949,-30.0,37.0,80.0,10.0,-11.0,-0.108936176,2.419340849,10.24119759,0.052626338,-0.02797856,0.037837673,14.0,33.0,-24.0,-19.0,49.0
1693678369292607200,1.0,1.0,8.0,-8.0,12.0,36.0,1.0,-2.0,1.021126986,-0.858321309,10.22563553,-0.059421133,0.000532925,-0.007460949,-30.0,37.0,80.0,10.0,-11.0,-0.108936176,2.419340849,10.24119759,0.052626338,-0.02797856,0.037837673,14.0,33.0,-24.0,-19.0,49.0
1693678369312598400,0.0,-2.0,-2.0,6.0,48.0,-21.0,0.0,2.0,1.021126986,-0.858321309,10.22563553,-0.059421133,0.000532925,-0.007460949,-30.0,37.0,80.0,10.0,-11.0,-0.108936176,2.419340849,10.24119759,0.052626338,-0.02797856,0.037837673,14.0,33.0,-24.0,-19.0,49.0
1693678369314595400,-2.0,-2.0,-4.0,-17.0,-68.0,0.0,-1.0,0.0,1.021126986,-0.858321309,10.22563553,-0.059421133,0.000532925,-0.007460949,-30.0,37.0,80.0,10.0,-11.0,-0.108936176,2.419340849,10.24119759,0.052626338,-0.02797856,0.037837673,14.0,33.0,-24.0,-19.0,49.0
1693678369321591100,1.0,3.0,1.0,-2.0,55.0,12.0,-1.0,0.0,1.021126986,-0.858321309,10.22563553,-0.059421133,0.000532925,-0.007460949,-30.0,37.0,80.0,10.0,-11.0,-0.108936176,2.419340849,10.24119759,0.052626338,-0.02797856,0.037837673,14.0,33.0,-24.0,-19.0,49.0
1693678369323590400,-6.0,-8.0,-15.0,-3.0,15.0,-40.0,-10.0,-5.0,1.021126986,-0.858321309,10.22563553,-0.059421133,0.000532925,-0.007460949,-30.0,37.0,80.0,10.0,-11.0,-0.108936176,2.419340849,10.24119759,0.052626338,-0.02797856,0.037837673,14.0,33.0,-24.0,-19.0,49.0
1693678369325588600,-1.0,0.0,6.0,-1.0,-63.0,6.0,0.0,-2.0,1.021126986,-0.858321309,10.22563553,-0.059421133,0.000532925,-0.007460949,-30.0,37.0,80.0,10.0,-11.0,-0.108936176,2.419340849,10.24119759,0.052626338,-0.02797856,0.037837673,14.0,33.0,-24.0,-19.0,49.0
1693678369327589000,2.0,1.0,-1.0,-2.0,22.0,5.0,2.0,0.0,1.021126986,-0.858321309,10.22563553,-0.059421133,0.000532925,-0.007460949,-30.0,37.0,80.0,10.0,-11.0,-0.108936176,2.419340849,10.24119759,0.052626338,-0.02797856,0.037837673,14.0,33.0,-24.0,-19.0,49.0
1693678369339580500,-1.0,-3.0,-11.0,-7.0,-11.0,7.0,0.0,0.0,1.021126986,-0.858321309,10.22563553,-0.059421133,0.000532925,-0.007460949,-30.0,37.0,80.0,10.0,-11.0,-0.108936176,2.419340849,10.24119759,0.052626338,-0.02797856,0.037837673,14.0,33.0,-24.0,-19.0,49.0
1693678369342581000,3.0,4.0,19.0,26.0,-1.0,-3.0,3.0,3.0,1.021126986,-0.858321309,10.22563553,-0.059421133,0.000532925,-0.007460949,-30.0,37.0,80.0,10.0,-11.0,-0.108936176,2.419340849,10.24119759,0.052626338,-0.02797856,0.037837673,14.0,33.0,-24.0,-19.0,49.0
1693678369344578300,-1.0,-2.0,-5.0,-16.0,-14.0,1.0,-3.0,-2.0,1.021126986,-0.858321309,10.22563553,-0.059421133,0.000532925,-0.007460949,-30.0,37.0,80.0,10.0,-11.0,-0.108936176,2.419340849,10.24119759,0.052626338,-0.02797856,0.037837673,14.0,33.0,-24.0,-19.0,49.0
1693678369346576000,-5.0,-6.0,-6.0,-11.0,-63.0,-13.0,-5.0,-3.0,1.021126986,-0.858321309,10.22563553,-0.059421133,0.000532925,-0.007460949,-30.0,37.0,80.0,10.0,-11.0,-0.108936176,2.419340849,10.24119759,0.052626338,-0.02797856,0.037837673,14.0,33.0,-24.0,-19.0,49.0
1693678369352574100,-1.0,-1.0,-2.0,-5.0,0.0,12.0,2.0,0.0,1.021126986,-0.858321309,10.22563553,-0.059421133,0.000532925,-0.007460949,-30.0,37.0,80.0,10.0,-11.0,-0.108936176,2.419340849,10.24119759,0.052626338,-0.02797856,0.037837673,14.0,33.0,-24.0,-19.0,49.0
1693678369355571600,-1.0,0.0,-6.0,-6.0,18.0,-5.0,2.0,1.0,1.021126986,-0.858321309,10.22563553,-0.059421133,0.000532925,-0.007460949,-30.0,37.0,80.0,10.0,-11.0,-0.108936176,2.419340849,10.24119759,0.052626338,-0.02797856,0.037837673,14.0,33.0,-24.0,-19.0,49.0
1693678369358569800,1.0,2.0,4.0,6.0,11.0,12.0,-1.0,-1.0,1.021126986,-0.858321309,10.22563553,-0.059421133,0.000532925,-0.007460949,-30.0,37.0,80.0,10.0,-11.0,-0.108936176,2.419340849,10.24119759,0.052626338,-0.02797856,0.037837673,14.0,33.0,-24.0,-19.0,49.0
1693678369360568900,1.0,1.0,5.0,-1.0,27.0,2.0,2.0,-2.0,1.021126986,-0.858321309,10.22563553,-0.059421133,0.000532925,-0.007460949,-30.0,37.0,80.0,10.0,-11.0,-0.108936176,2.419340849,10.24119759,0.052626338,-0.02797856,0.037837673,14.0,33.0,-24.0,-19.0,49.0
1693678369372561500,0.0,-1.0,-1.0,2.0,2.0,-2.0,-2.0,-4.0,1.021126986,-0.858321309,10.22563553,-0.059421133,0.000532925,-0.007460949,-30.0,37.0,80.0,10.0,-11.0,-0.108936176,2.419340849,10.24119759,0.052626338,-0.02797856,0.037837673,14.0,33.0,-24.0,-19.0,49.0
1693678369374560900,-1.0,-3.0,-7.0,-5.0,-11.0,3.0,1.0,1.0,1.021126986,-0.858321309,10.22563553,-0.059421133,0.000532925,-0.007460949,-30.0,37.0,80.0,10.0,-11.0,-0.108936176,2.419340849,10.24119759,0.052626338,-0.02797856,0.037837673,14.0,33.0,-24.0,-19.0,49.0
1693678369380556800,1.0,1.0,3.0,4.0,-19.0,-1.0,1.0,0.0,1.021126986,-0.858321309,10.22563553,-0.059421133,0.000532925,-0.007460949,-30.0,37.0,80.0,10.0,-11.0,-0.108936176,2.419340849,10.24119759,0.052626338,-0.02797856,0.037837673,14.0,33.0,-24.0,-19.0,49.0
1693678369382557500,-1.0,1.0,-3.0,-4.0,41.0,-5.0,-2.0,0.0,1.021126986,-0.858321309,10.22563553,-0.059421133,0.000532925,-0.007460949,-30.0,37.0,80.0,10.0,-11.0,-0.108936176,2.419340849,10.24119759,0.052626338,-0.02797856,0.037837673,14.0,33.0,-24.0,-19.0,49.0
1693678369396550700,-2.0,1.0,5.0,10.0,-5.0,13.0,2.0,1.0,1.021126986,-0.858321309,10.22563553,-0.059421133,0.000532925,-0.007460949,-30.0,37.0,80.0,10.0,-11.0,-0.108936176,2.419340849,10.24119759,0.052626338,-0.02797856,0.037837673,14.0,33.0,-24.0,-19.0,49.0
1693678369397545400,-2.0,1.0,5.0,10.0,-5.0,13.0,2.0,1.0,1.018732786,-0.864306808,10.22324085,-0.059820827,0.000932619,-0.007327718,-26.0,36.0,83.0,10.0,-8.0,-0.108936176,2.421735048,10.22443867,0.05249311,-0.027845331,0.037970904,15.0,43.0,-24.0,-22.0,55.0
1693678369398545400,-2.0,1.0,5.0,10.0,-5.0,13.0,2.0,1.0,1.016338587,-0.866701007,10.22802925,-0.059820827,0.00106585,-0.007460949,-27.0,41.0,79.0,8.0,-12.0,-0.111330383,2.420537949,10.22802925,0.05249311,-0.02797856,0.038104136,18.0,32.0,-23.0,-22.0,51.0
1693678369398546500,-2.0,-3.0,-5.0,-6.0,-50.0,-6.0,-5.0,-2.0,1.016338587,-0.866701007,10.22802925,-0.059820827,0.00106585,-0.007460949,-27.0,41.0,79.0,8.0,-12.0,-0.111330383,2.420537949,10.22802925,0.05249311,-0.02797856,0.038104136,18.0,32.0,-23.0,-22.0,51.0
1693678369399545400,-2.0,-3.0,-5.0,-6.0,-50.0,-6.0,-5.0,-2.0,1.017535686,-0.864306808,10.22802925,-0.059820827,0.000932619,-0.007460949,-23.0,43.0,85.0,10.0,-13.0,-0.114921682,2.421735048,10.23162079,0.05249311,-0.028111791,0.037970904,18.0,36.0,-21.0,-24.0,46.0
1693678369400545400,-2.0,-3.0,-5.0,-6.0,-50.0,-6.0,-5.0,-2.0,1.016338587,-0.865503907,10.23401546,-0.059687596,0.000932619,-0.007327718,-28.0,45.0,89.0,6.0,-13.0,-0.112527482,2.419340849,10.22683239,0.05249311,-0.02797856,0.037970904,15.0,31.0,-32.0,-27.0,48.0
1693678369401545400,-2.0,-3.0,-5.0,-6.0,-50.0,-6.0,-5.0,-2.0,1.016338587,-0.863109708,10.23162079,-0.059820827,0.00106585,-0.007460949,-29.0,35.0,81.0,9.0,-11.0,-0.110133275,2.418143749,10.22802925,0.052759573,-0.028111791,0.037970904,15.0,33.0,-23.0,-26.0,49.0
1693678369409540800,-1.0,-2.0,-6.0,-13.0,-6.0,-30.0,-3.0,-4.0,1.016338587,-0.863109708,10.23162079,-0.059820827,0.00106585,-0.007460949,-29.0,35.0,81.0,9.0,-11.0,-0.110133275,2.418143749,10.22802925,0.052759573,-0.028111791,0.037970904,15.0,33.0,-23.0,-26.0,49.0
1693678369411539500,-1.0,1.0,3.0,7.0,35.0,7.0,1.0,-1.0,1.016338587,-0.863109708,10.23162079,-0.059820827,0.00106585,-0.007460949,-29.0,35.0,81.0,9.0,-11.0,-0.110133275,2.418143749,10.22802925,0.052759573,-0.028111791,0.037970904,15.0,33.0,-23.0,-26.0,49.0
1693678369418640500,3.0,2.0,6.0,3.0,-39.0,0.0,3.0,-1.0,1.016338587,-0.863109708,10.23162079,-0.059820827,0.00106585,-0.007460949,-29.0,35.0,81.0,9.0,-11.0,-0.110133275,2.418143749,10.22802925,0.052759573,-0.028111791,0.037970904,15.0,33.0,-23.0,-26.0,49.0
1693678369420635500,-3.0,-3.0,-6.0,-3.0,66.0,9.0,0.0,0.0,1.016338587,-0.863109708,10.23162079,-0.059820827,0.00106585,-0.007460949,-29.0,35.0,81.0,9.0,-11.0,-0.110133275,2.418143749,10.22802925,0.052759573,-0.028111791,0.037970904,15.0,33.0,-23.0,-26.0,49.0
1693678369426632000,0.0,2.0,2.0,0.0,-68.0,17.0,-1.0,-2.0,1.016338587,-0.863109708,10.23162079,-0.059820827,0.00106585,-0.007460949,-29.0,35.0,81.0,9.0,-11.0,-0.110133275,2.418143749,10.22802925,0.052759573,-0.028111791,0.037970904,15.0,33.0,-23.0,-26.0,49.0
1693678369427632000,1.0,2.0,5.0,7.0,61.0,-4.0,8.0,4.0,1.016338587,-0.863109708,10.23162079,-0.059820827,0.00106585,-0.007460949,-29.0,35.0,81.0,9.0,-11.0,-0.110133275,2.418143749,10.22802925,0.052759573,-0.028111791,0.037970904,15.0,33.0,-23.0,-26.0,49.0
1693678369456614500,-11.0,-24.0,-4.0,-1.0,-41.0,21.0,-10.0,-2.0,1.016338587,-0.863109708,10.23162079,-0.059820827,0.00106585,-0.007460949,-29.0,35.0,81.0,9.0,-11.0,-0.110133275,2.418143749,10.22802925,0.052759573,-0.028111791,0.037970904,15.0,33.0,-23.0,-26.0,49.0
1693678369458614800,-15.0,5.0,-11.0,-22.0,-61.0,-63.0,-22.0,-53.0,1.016338587,-0.863109708,10.23162079,-0.059820827,0.00106585,-0.007460949,-29.0,35.0,81.0,9.0,-11.0,-0.110133275,2.418143749,10.22802925,0.052759573,-0.028111791,0.037970904,15.0,33.0,-23.0,-26.0,49.0
1693678369460613600,2.0,5.0,3.0,5.0,-42.0,28.0,1.0,26.0,1.016338587,-0.863109708,10.23162079,-0.059820827,0.00106585,-0.007460949,-29.0,35.0,81.0,9.0,-11.0,-0.110133275,2.418143749,10.22802925,0.052759573,-0.028111791,0.037970904,15.0,33.0,-23.0,-26.0,49.0
1693678369461612400,3.0,-18.0,-6.0,-10.0,22.0,0.0,18.0,42.0,1.016338587,-0.863109708,10.23162079,-0.059820827,0.00106585,-0.007460949,-29.0,35.0,81.0,9.0,-11.0,-0.110133275,2.418143749,10.22802925,0.052759573,-0.028111791,0.037970904,15.0,33.0,-23.0,-26.0,49.0
1693678369462611500,12.0,31.0,11.0,18.0,7.0,-15.0,-7.0,-12.0,1.016338587,-0.863109708,10.23162079,-0.059820827,0.00106585,-0.007460949,-29.0,35.0,81.0,9.0,-11.0,-0.110133275,2.418143749,10.22802925,0.052759573,-0.028111791,0.037970904,15.0,33.0,-23.0,-26.0,49.0
1693678369463611100,-4.0,-1.0,3.0,7.0,23.0,19.0,-12.0,-7.0,1.016338587,-0.863109708,10.23162079,-0.059820827,0.00106585,-0.007460949,-29.0,35.0,81.0,9.0,-11.0,-0.110133275,2.418143749,10.22802925,0.052759573,-0.028111791,0.037970904,15.0,33.0,-23.0,-26.0,49.0
1693678369465611600,-7.0,-12.0,-5.0,1.0,44.0,6.0,-4.0,-12.0,1.016338587,-0.863109708,10.23162079,-0.059820827,0.00106585,-0.007460949,-29.0,35.0,81.0,9.0,-11.0,-0.110133275,2.418143749,10.22802925,0.052759573,-0.028111791,0.037970904,15.0,33.0,-23.0,-26.0,49.0
1693678369467608200,-7.0,-12.0,-5.0,1.0,44.0,6.0,-4.0,-12.0,1.021126986,-0.870292306,10.22563553,-0.060220521,0.00106585,-0.007594181,-27.0,37.0,84.0,13.0,-11.0,-0.108936176,2.422932148,10.22683239,0.052626338,-0.027179174,0.038237367,15.0,35.0,-23.0,-24.0,52.0
1693678369468608200,-7.0,-12.0,-5.0,1.0,44.0,6.0,-4.0,-12.0,1.017535686,-0.870292306,10.22922707,-0.060220521,0.00106585,-0.007460949,-24.0,35.0,83.0,10.0,-8.0,-0.106541976,2.424129248,10.22802925,0.05249311,-0.027179174,0.038237367,20.0,40.0,-24.0,-24.0,53.0
1693678369468611000,4.0,35.0,10.0,3.0,-15.0,-3.0,-10.0,-30.0,1.017535686,-0.870292306,10.22922707,-0.060220521,0.00106585,-0.007460949,-24.0,35.0,83.0,10.0,-8.0,-0.106541976,2.424129248,10.22802925,0.05249311,-0.027179174,0.038237367,20.0,40.0,-24.0,-24.0,53.0
1693678369469608200,4.0,35.0,10.0,3.0,-15.0,-3.0,-10.0,-30.0,1.015141487,-0.870292306,10.23281765,-0.06008729,0.000799387,-0.007460949,-28.0,36.0,79.0,9.0,-13.0,-0.106541976,2.425326347,10.22922707,0.05249311,-0.027445635,0.038370594,20.0,36.0,-21.0,-24.0,50.0
1693678369470608200,4.0,35.0,10.0,3.0,-15.0,-3.0,-10.0,-30.0,1.019929886,-0.869095206,10.23640919,-0.060353752,0.000799387,-0.007327718,-32.0,39.0,79.0,6.0,-13.0,-0.106541976,2.425326347,10.23042393,0.052626338,-0.027312404,0.038370594,13.0,39.0,-29.0,-22.0,49.0
1693678369471608200,4.0,35.0,10.0,3.0,-15.0,-3.0,-10.0,-30.0,1.018732786,-0.867898107,10.22802925,-0.060353752,0.000799387,-0.007460949,-17.0,37.0,76.0,10.0,-13.0,-0.10295067,2.422932148,10.22563553,0.052759573,-0.027179174,0.038370594,20.0,35.0,-25.0,-34.0,52.0
1693678369478603200,-10.0,-33.0,-11.0,-9.0,28.0,-2.0,15.0,44.0,1.018732786,-0.867898107,10.22802925,-0.060353752,0.000799387,-0.007460949,-17.0,37.0,76.0,10.0,-13.0,-0.10295067,2.422932148,10.22563553,0.052759573,-0.027179174,0.038370594,20.0,35.0,-25.0,-34.0,52.0
1693678369480601400,5.0,4.0,0.0,-1.0,-15.0,1.0,7.0,-4.0,1.018732786,-0.867898107,10.22802925,-0.060353752,0.000799387,-0.007460949,-17.0,37.0,76.0,10.0,-13.0,-0.10295067,2.422932148,10.22563553,0.052759573,-0.027179174,0.038370594,20.0,35.0,-25.0,-34.0,52.0
1693678369481600900,5.0,12.0,4.0,6.0,27.0,-8.0,-2.0,-14.0,1.018732786,-0.867898107,10.22802925,-0.060353752,0.000799387,-0.007460949,-17.0,37.0,76.0,10.0,-13.0,-0.10295067,2.422932148,10.22563553,0.052759573,-0.027179174,0.038370594,20.0,35.0,-25.0,-34.0,52.0
1693678369486598200,-7.0,-8.0,-5.0,-1.0,6.0,9.0,-4.0,24.0,1.018732786,-0.867898107,10.22802925,-0.060353752,0.000799387,-0.007460949,-17.0,37.0,76.0,10.0,-13.0,-0.10295067,2.422932148,10.22563553,0.052759573,-0.027179174,0.038370594,20.0,35.0,-25.0,-34.0,52.0
1693678369502590000,0.0,1.0,0.0,-5.0,-10.0,-5.0,-2.0,-21.0,1.018732786,-0.867898107,10.22802925,-0.060353752,0.000799387,-0.007460949,-17.0,37.0,76.0,10.0,-13.0,-0.10295067,2.422932148,10.22563553,0.052759573,-0.027179174,0.038370594,20.0,35.0,-25.0,-34.0,52.0
1693678369504590500,2.0,-7.0,-1.0,3.0,25.0,9.0,-7.0,18.0,1.018732786,-0.867898107,10.22802925,-0.060353752,0.000799387,-0.007460949,-17.0,37.0,76.0,10.0,-13.0,-0.10295067,2.422932148,10.22563553,0.052759573,-0.027179174,0.038370594,20.0,35.0,-25.0,-34.0,52.0
1693678369505586400,-9.0,-22.0,-7.0,-8.0,2.0,12.0,19.0,-11.0,1.018732786,-0.867898107,10.22802925,-0.060353752,0.000799387,-0.007460949,-17.0,37.0,76.0,10.0,-13.0,-0.10295067,2.422932148,10.22563553,0.052759573,-0.027179174,0.038370594,20.0,35.0,-25.0,-34.0,52.0
1693678369507585600,-8.0,-2.0,-1.0,1.0,-17.0,-11.0,-20.0,-31.0,1.018732786,-0.867898107,10.22802925,-0.060353752,0.000799387,-0.007460949,-17.0,37.0,76.0,10.0,-13.0,-0.10295067,2.422932148,10.22563553,0.052759573,-0.027179174,0.038370594,20.0,35.0,-25.0,-34.0,52.0
1693678369528576500,-2.0,10.0,4.0,2.0,-1.0,-2.0,3.0,-12.0,1.018732786,-0.867898107,10.22802925,-0.060353752,0.000799387,-0.007460949,-17.0,37.0,76.0,10.0,-13.0,-0.10295067,2.422932148,10.22563553,0.052759573,-0.027179174,0.038370594,20.0,35.0,-25.0,-34.0,52.0
1693678369530575100,7.0,6.0,-1.0,1.0,17.0,-1.0,1.0,20.0,1.018732786,-0.867898107,10.22802925,-0.060353752,0.000799387,-0.007460949,-17.0,37.0,76.0,10.0,-13.0,-0.10295067,2.422932148,10.22563553,0.052759573,-0.027179174,0.038370594,20.0,35.0,-25.0,-34.0,52.0
1693678369532575000,5.0,3.0,-1.0,3.0,37.0,25.0,3.0,20.0,1.018732786,-0.867898107,10.22802925,-0.060353752,0.000799387,-0.007460949,-17.0,37.0,76.0,10.0,-13.0,-0.10295067,2.422932148,10.22563553,0.052759573,-0.027179174,0.038370594,20.0,35.0,-25.0,-34.0,52.0
1693678369536571700,2.0,-5.0,-1.0,-6.0,-29.0,-21.0,-9.0,-5.0,1.018732786,-0.867898107,10.22802925,-0.060353752,0.000799387,-0.007460949,-17.0,37.0,76.0,10.0,-13.0,-0.10295067,2.422932148,10.22563553,0.052759573,-0.027179174,0.038370594,20.0,35.0,-25.0,-34.0,52.0
1693678369538567800,2.0,-5.0,-1.0,-6.0,-29.0,-21.0,-9.0,-5.0,1.033097982,-0.859518409,10.24359226,-0.059687596,0.000799387,-0.007327718,-24.0,39.0,85.0,10.0,-13.0,-0.113724582,2.430114746,10.22563553,0.05249311,-0.028511487,0.038770292,16.0,46.0,-24.0,-28.0,33.0
1693678369539567800,2.0,-5.0,-1.0,-6.0,-29.0,-21.0,-9.0,-5.0,1.031900883,-0.861912608,10.24718285,-0.059554365,0.000932619,-0.007194487,-24.0,44.0,84.0,8.0,-5.0,-0.114921682,2.432508945,10.22324085,0.053026035,-0.029310873,0.038503829,17.0,32.0,-24.0,-14.0,49.0
1693678369539567900,-2.0,2.0,3.0,4.0,1.0,3.0,6.0,-1.0,1.031900883,-0.861912608,10.24718285,-0.059554365,0.000932619,-0.007194487,-24.0,44.0,84.0,8.0,-5.0,-0.114921682,2.432508945,10.22324085,0.053026035,-0.029310873,0.038503829,17.0,32.0,-24.0,-14.0,49.0
1693678369540567800,-2.0,2.0,3.0,4.0,1.0,3.0,6.0,-1.0,1.031900883,-0.860715508,10.24478912,-0.059687596,0.000666156,-0.007194487,-24.0,42.0,81.0,12.0,-9.0,-0.114921682,2.432508945,10.22683239,0.053558957,-0.029710567,0.038370594,18.0,36.0,-23.0,-31.0,50.0
1693678369541567800,-2.0,2.0,3.0,4.0,1.0,3.0,6.0,-1.0,1.028309584,-0.859518409,10.24598598,-0.059687596,0.000532925,-0.007194487,-30.0,34.0,78.0,1.0,-13.0,-0.111330383,2.430114746,10.23401546,0.053159267,-0.029444104,0.038637057,10.0,34.0,-24.0,-28.0,52.0
1693678369542567800,-1.0,-4.0,-1.0,2.0,0.0,13.0,12.0,-3.0,1.025915384,-0.860715508,10.24718285,-0.059421133,0.000666156,-0.007194487,-23.0,38.0,83.0,7.0,-14.0,-0.111330383,2.427720547,10.23760605,0.05249311,-0.028644716,0.038637057,25.0,33.0,-19.0,-19.0,52.0
1693678369543565000,2.0,0.0,-4.0,-2.0,43.0,57.0,2.0,8.0,1.025915384,-0.860715508,10.24718285,-0.059421133,0.000666156,-0.007194487,-23.0,38.0,83.0,7.0,-14.0,-0.111330383,2.427720547,10.23760605,0.05249311,-0.028644716,0.038637057,25.0,33.0,-19.0,-19.0,52.0
1693678369544565700,-5.0,0.0,3.0,7.0,-16.0,-73.0,-2.0,-1.0,1.025915384,-0.860715508,10.24718285,-0.059421133,0.000666156,-0.007194487,-23.0,38.0,83.0,7.0,-14.0,-0.111330383,2.427720547,10.23760605,0.05249311,-0.028644716,0.038637057,25.0,33.0,-19.0,-19.0,52.0
1693678369561554600,2.0,2.0,-1.0,-10.0,7.0,14.0,-5.0,-3.0,1.025915384,-0.860715508,10.24718285,-0.059421133,0.000666156,-0.007194487,-23.0,38.0,83.0,7.0,-14.0,-0.111330383,2.427720547,10.23760605,0.05249311,-0.028644716,0.038637057,25.0,33.0,-19.0,-19.0,52.0
1693678369562554800,-1.0,-4.0,-1.0,5.0,49.0,2.0,2.0,10.0,1.025915384,-0.860715508,10.24718285,-0.059421133,0.000666156,-0.007194487,-23.0,38.0,83.0,7.0,-14.0,-0.111330383,2.427720547,10.23760605,0.05249311,-0.028644716,0.038637057,25.0,33.0,-19.0,-19.0,52.0
1693678369564556900,-1.0,-3.0,-3.0,-8.0,-79.0,-18.0,-8.0,-9.0,1.025915384,-0.860715508,10.24718285,-0.059421133,0.000666156,-0.007194487,-23.0,38.0,83.0,7.0,-14.0,-0.111330383,2.427720547,10.23760605,0.05249311,-0.028644716,0.038637057,25.0,33.0,-19.0,-19.0,52.0
1693678369566553000,1.0,-1.0,-2.0,1.0,5.0,43.0,6.0,-6.0,1.025915384,-0.860715508,10.24718285,-0.059421133,0.000666156,-0.007194487,-23.0,38.0,83.0,7.0,-14.0,-0.111330383,2.427720547,10.23760605,0.05249311,-0.028644716,0.038637057,25.0,33.0,-19.0,-19.0,52.0
1693678369575545900,0.0,1.0,-2.0,5.0,16.0,-33.0,-4.0,2.0,1.025915384,-0.860715508,10.24718285,-0.059421133,0.000666156,-0.007194487,-23.0,38.0,83.0,7.0,-14.0,-0.111330383,2.427720547,10.23760605,0.05249311,-0.028644716,0.038637057,25.0,33.0,-19.0,-19.0,52.0
1693678369577549700,2.0,-1.0,1.0,6.0,-5.0,4.0,6.0,4.0,1.025915384,-0.860715508,10.24718285,-0.059421133,0.000666156,-0.007194487,-23.0,38.0,83.0,7.0,-14.0,-0.111330383,2.427720547,10.23760605,0.05249311,-0.028644716,0.038637057,25.0,33.0,-19.0,-19.0,52.0
1693678369583543000,-3.0,2.0,1.0,-6.0,-54.0,-16.0,-3.0,-4.0,1.025915384,-0.860715508,10.24718285,-0.059421133,0.000666156,-0.007194487,-23.0,38.0,83.0,7.0,-14.0,-0.111330383,2.427720547,10.23760605,0.05249311,-0.028644716,0.038637057,25.0,33.0,-19.0,-19.0,52.0
1693678369586542000,2.0,-1.0,1.0,10.0,102.0,24.0,3.0,-3.0,1.025915384,-0.860715508,10.24718285,-0.059421133,0.000666156,-0.007194487,-23.0,38.0,83.0,7.0,-14.0,-0.111330383,2.427720547,10.23760605,0.05249311,-0.028644716,0.038637057,25.0,33.0,-19.0,-19.0,52.0
1693678369608527600,0.0,-2.0,-7.0,-16.0,-100.0,-11.0,-3.0,1.0,1.025915384,-0.860715508,10.24718285,-0.059421133,0.000666156,-0.007194487,-23.0,38.0,83.0,7.0,-14.0,-0.111330383,2.427720547,10.23760605,0.05249311,-0.028644716,0.038637057,25.0,33.0,-19.0,-19.0,52.0
1693678369609529000,-3.0,-3.0,-5.0,-14.0,14.0,-17.0,-5.0,0.0,1.025915384,-0.860715508,10.24718285,-0.059421133,0.000666156,-0.007194487,-23.0,38.0,83.0,7.0,-14.0,-0.111330383,2.427720547,10.23760605,0.05249311,-0.028644716,0.038637057,25.0,33.0,-19.0,-19.0,52.0
1693678369610524700,-3.0,-3.0,-5.0,-14.0,14.0,-17.0,-5.0,0.0,1.022324085,-0.860715508,10.23760605,-0.059954058,0.000666156,-0.007327718,-26.0,38.0,84.0,8.0,-9.0,-0.122104287,2.418143749,10.22563553,0.052226644,-0.026646247,0.037704438,9.0,36.0,-29.0,-26.0,52.0
1693678369611524700,-3.0,-3.0,-5.0,-14.0,14.0,-17.0,-5.0,0.0,1.017535686,-0.863109708,10.23880386,-0.059954058,0.000532925,-0.007194487,-27.0,39.0,83.0,10.0,-12.0,-0.120907187,2.422932148,10.21845245,0.052359879,-0.027578866,0.038104136,15.0,41.0,-28.0,-24.0,41.0
1693678369611527800,0.0,0.0,-2.0,-2.0,48.0,-13.0,-1.0,-4.0,1.017535686,-0.863109708,10.23880386,-0.059954058,0.000532925,-0.007194487,-27.0,39.0,83.0,10.0,-12.0,-0.120907187,2.422932148,10.21845245,0.052359879,-0.027578866,0.038104136,15.0,41.0,-28.0,-24.0,41.0
1693678369612524700,0.0,0.0,-2.0,-2.0,48.0,-13.0,-1.0,-4.0,1.018732786,-0.864306808,10.24119759,-0.059820827,0.000399694,-0.007194487,-28.0,38.0,85.0,4.0,-16.0,-0.114921682,2.425326347,10.21605873,0.052626338,-0.028111791,0.038370594,14.0,39.0,-30.0,-20.0,53.0
1693678369612525500,2.0,-2.0,2.0,21.0,-16.0,14.0,4.0,2.0,1.018732786,-0.864306808,10.24119759,-0.059820827,0.000399694,-0.007194487,-28.0,38.0,85.0,4.0,-16.0,-0.114921682,2.425326347,10.21605873,0.052626338,-0.028111791,0.038370594,14.0,39.0,-30.0,-20.0,53.0
1693678369613524700,2.0,-2.0,2.0,21.0,-16.0,14.0,4.0,2.0,1.017535686,-0.866701007,10.24239445,-0.059687596,0.000532925,-0.007327718,-29.0,43.0,80.0,3.0,-19.0,-0.111330383,2.426523447,10.21486187,0.053026035,-0.028245023,0.038370594,14.0,43.0,-24.0,-19.0,53.0
1693678369614524700,2.0,-2.0,2.0,21.0,-16.0,14.0,4.0,2.0,1.021126986,-0.864306808,10.24359226,-0.059687596,0.000399694,-0.007194487,-23.0,41.0,89.0,8.0,-14.0,-0.111330383,2.427720547,10.21486187,0.053292494,-0.028245023,0.038237367,10.0,37.0,-19.0,-23.0,52.0
1693678369620523200,3.0,5.0,7.0,-4.0,48.0,13.0,4.0,-1.0,1.021126986,-0.864306808,10.24359226,-0.059687596,0.000399694,-0.007194487,-23.0,41.0,89.0,8.0,-14.0,-0.111330383,2.427720547,10.21486187,0.053292494,-0.028245023,0.038237367,10.0,37.0,-19.0,-23.0,52.0
1693678369622521400,-5.0,-3.0,1.0,13.0,-18.0,-5.0,-5.0,-2.0,1.021126986,-0.864306808,10.24359226,-0.059687596,0.000399694,-0.007194487,-23.0,41.0,89.0,8.0,-14.0,-0.111330383,2.427720547,10.21486187,0.053292494,-0.028245023,0.038237367,10.0,37.0,-19.0,-23.0,52.0
1693678369628516400,2.0,4.0,4.0,-5.0,1.0,12.0,3.0,3.0,1.021126986,-0.864306808,10.24359226,-0.059687596,0.000399694,-0.007194487,-23.0,41.0,89.0,8.0,-14.0,-0.111330383,2.427720547,10.21486187,0.053292494,-0.028245023,0.038237367,10.0,37.0,-19.0,-23.0,52.0
1693678369630514900,-2.0,-3.0,-5.0,-10.0,-18.0,-44.0,-8.0,-6.0,1.021126986,-0.864306808,10.24359226,-0.059687596,0.000399694,-0.007194487,-23.0,41.0,89.0,8.0,-14.0,-0.111330383,2.427720547,10.21486187,0.053292494,-0.028245023,0.038237367,10.0,37.0,-19.0,-23.0,52.0
1693678369635518700,-2.0,1.0,-3.0,3.0,61.0,30.0,-2.0,0.0,1.021126986,-0.864306808,10.24359226,-0.059687596,0.000399694,-0.007194487,-23.0,41.0,89.0,8.0,-14.0,-0.111330383,2.427720547,10.21486187,0.053292494,-0.028245023,0.038237367,10.0,37.0,-19.0,-23.0,52.0
1693678369637510700,2.0,2.0,2.0,-3.0,-41.0,4.0,2.0,-1.0,1.021126986,-0.864306808,10.24359226,-0.059687596,0.000399694,-0.007194487,-23.0,41.0,89.0,8.0,-14.0,-0.111330383,2.427720547,10.21486187,0.053292494,-0.028245023,0.038237367,10.0,37.0,-19.0,-23.0,52.0
1693678369653502600,0.0,3.0,2.0,11.0,36.0,9.0,0.0,1.0,1.021126986,-0.864306808,10.24359226,-0.059687596,0.000399694,-0.007194487,-23.0,41.0,89.0,8.0,-14.0,-0.111330383,2.427720547,10.21486187,0.053292494,-0.028245023,0.038237367,10.0,37.0,-19.0,-23.0,52.0
1693678369654501800,-1.0,-4.0,-4.0,-6.0,33.0,42.0,4.0,1.0,1.021126986,-0.864306808,10.24359226,-0.059687596,0.000399694,-0.007194487,-23.0,41.0,89.0,8.0,-14.0,-0.111330383,2.427720547,10.21486187,0.053292494,-0.028245023,0.038237367,10.0,37.0,-19.0,-23.0,52.0
1693678369658499100,-2.0,2.0,2.0,1.0,-67.0,-29.0,-5.0,-1.0,1.021126986,-0.864306808,10.24359226,-0.059687596,0.000399694,-0.007194487,-23.0,41.0,89.0,8.0,-14.0,-0.111330383,2.427720547,10.21486187,0.053292494,-0.028245023,0.038237367,10.0,37.0,-19.0,-23.0,52.0
1693678369660497700,1.0,-4.0,-4.0,-9.0,11.0,22.0,1.0,1.0,1.021126986,-0.864306808,10.24359226,-0.059687596,0.000399694,-0.007194487,-23.0,41.0,89.0,8.0,-14.0,-0.111330383,2.427720547,10.21486187,0.053292494,-0.028245023,0.038237367,10.0,37.0,-19.0,-23.0,52.0
1693678369661499400,-3.0,-1.0,-1.0,2.0,75.0,-51.0,-7.0,-2.0,1.021126986,-0.864306808,10.24359226,-0.059687596,0.000399694,-0.007194487,-23.0,41.0,89.0,8.0,-14.0,-0.111330383,2.427720547,10.21486187,0.053292494,-0.028245023,0.038237367,10.0,37.0,-19.0,-23.0,52.0
1693678369663496100,-1.0,-2.0,-4.0,-11.0,12.0,14.0,-4.0,-3.0,1.021126986,-0.864306808,10.24359226,-0.059687596,0.000399694,-0.007194487,-23.0,41.0,89.0,8.0,-14.0,-0.111330383,2.427720547,10.21486187,0.053292494,-0.028245023,0.038237367,10.0,37.0,-19.0,-23.0,52.0
1693678369688482000,-2.0,0.0,0.0,-6.0,-21.0,5.0,-1.0,1.0,1.021126986,-0.864306808,10.24359226,-0.059687596,0.000399694,-0.007194487,-23.0,41.0,89.0,8.0,-14.0,-0.111330383,2.427720547,10.21486187,0.053292494,-0.028245023,0.038237367,10.0,37.0,-19.0,-23.0,52.0
1693678369690481600,-2.0,1.0,6.0,17.0,-16.0,13.0,6.0,2.0,1.021126986,-0.864306808,10.24359226,-0.059687596,0.000399694,-0.007194487,-23.0,41.0,89.0,8.0,-14.0,-0.111330383,2.427720547,10.21486187,0.053292494,-0.028245023,0.038237367,10.0,37.0,-19.0,-23.0,52.0
1693678369692480300,-2.0,-8.0,-11.0,-15.0,116.0,-8.0,-5.0,-4.0,1.021126986,-0.864306808,10.24359226,-0.059687596,0.000399694,-0.007194487,-23.0,41.0,89.0,8.0,-14.0,-0.111330383,2.427720547,10.21486187,0.053292494,-0.028245023,0.038237367,10.0,37.0,-19.0,-23.0,52.0
1693678369693479800,1.0,4.0,2.0,0.0,-17.0,-5.0,1.0,0.0,1.021126986,-0.864306808,10.24359226,-0.059687596,0.000399694,-0.007194487,-23.0,41.0,89.0,8.0,-14.0,-0.111330383,2.427720547,10.21486187,0.053292494,-0.028245023,0.038237367,10.0,37.0,-19.0,-23.0,52.0
1693678369695479500,-6.0,-6.0,-9.0,-14.0,13.0,-15.0,-11.0,-3.0,1.021126986,-0.864306808,10.24359226,-0.059687596,0.000399694,-0.007194487,-23.0,41.0,89.0,8.0,-14.0,-0.111330383,2.427720547,10.21486187,0.053292494,-0.028245023,0.038237367,10.0,37.0,-19.0,-23.0,52.0
1693678369697491200,-3.0,-10.0,-4.0,3.0,28.0,5.0,2.0,1.0,1.021126986,-0.864306808,10.24359226,-0.059687596,0.000399694,-0.007194487,-23.0,41.0,89.0,8.0,-14.0,-0.111330383,2.427720547,10.21486187,0.053292494,-0.028245023,0.038237367,10.0,37.0,-19.0,-23.0,52.0
1693678369704472900,-1.0,9.0,7.0,12.0,-50.0,-3.0,-9.0,-1.0,1.021126986,-0.864306808,10.24359226,-0.059687596,0.000399694,-0.007194487,-23.0,41.0,89.0,8.0,-14.0,-0.111330383,2.427720547,10.21486187,0.053292494,-0.028245023,0.038237367,10.0,37.0,-19.0,-23.0,52.0
1693678369705472700,-3.0,4.0,-1.0,1.0,13.0,-2.0,2.0,-23.0,1.021126986,-0.864306808,10.24359226,-0.059687596,0.000399694,-0.007194487,-23.0,41.0,89.0,8.0,-14.0,-0.111330383,2.427720547,10.21486187,0.053292494,-0.028245023,0.038237367,10.0,37.0,-19.0,-23.0,52.0
1693678369727525500,-3.0,4.0,-1.0,1.0,13.0,-2.0,2.0,-23.0,1.013944387,-0.861912608,10.23042393,-0.060220521,0.000666156,-0.007594181,-24.0,41.0,87.0,11.0,-5.0,-0.116118781,2.428917646,10.21605873,0.05249311,-0.027845331,0.038637057,13.0,31.0,-28.0,-23.0,48.0
1693678369728525500,-3.0,4.0,-1.0,1.0,13.0,-2.0,2.0,-23.0,1.013944387,-0.863109708,10.22443867,-0.06008729,0.000666156,-0.007727412,-24.0,45.0,87.0,7.0,-12.0,-0.114921682,2.431311846,10.21845245,0.05249311,-0.027712099,0.038637057,14.0,39.0,-22.0,-21.0,54.0
1693678369729525500,-3.0,4.0,-1.0,1.0,13.0,-2.0,2.0,-23.0,1.011550188,-0.864306808,10.22563553,-0.06008729,0.000666156,-0.007860643,-30.0,43.0,84.0,3.0,-12.0,-0.113724582,2.431311846,10.22084713,0.05249311,-0.027445635,0.038503829,11.0,35.0,-34.0,-23.0,52.0
1693678369730525500,-3.0,4.0,-1.0,1.0,13.0,-2.0,2.0,-23.0,1.012747288,-0.865503907,10.23401546,-0.060220521,0.000799387,-0.007594181,-29.0,43.0,83.0,4.0,-11.0,-0.116118781,2.430114746,10.22324085,0.05249311,-0.027445635,0.038503829,14.0,31.0,-31.0,-28.0,52.0
1693678369731525500,-3.0,4.0,-1.0,1.0,13.0,-2.0,2.0,-23.0,1.013944387,-0.863109708,10.22683239,-0.060353752,0.000799387,-0.007594181,-28.0,43.0,83.0,10.0,-8.0,-0.119710088,2.428917646,10.22324085,0.05249311,-0.027445635,0.038503829,14.0,36.0,-21.0,-25.0,51.0
1693678369734525000,6.0,3.0,0.0,0.0,31.0,4.0,-2.0,10.0,1.013944387,-0.863109708,10.22683239,-0.060353752,0.000799387,-0.007594181,-28.0,43.0,83.0,10.0,-8.0,-0.119710088,2.428917646,10.22324085,0.05249311,-0.027445635,0.038503829,14.0,36.0,-21.0,-25.0,51.0
1693678369738522700,-5.0,0.0,-1.0,-6.0,-15.0,-6.0,-5.0,-23.0,1.013944387,-0.863109708,10.22683239,-0.060353752,0.000799387,-0.007594181,-28.0,43.0,83.0,10.0,-8.0,-0.119710088,2.428917646,10.22324085,0.05249311,-0.027445635,0.038503829,14.0,36.0,-21.0,-25.0,51.0
1693678369739520900,-41.0,-37.0,-1.0,7.0,-36.0,-8.0,15.0,-48.0,1.013944387,-0.863109708,10.22683239,-0.060353752,0.000799387,-0.007594181,-28.0,43.0,83.0,10.0,-8.0,-0.119710088,2.428917646,10.22324085,0.05249311,-0.027445635,0.038503829,14.0,36.0,-21.0,-25.0,51.0
1693678369740520200,-12.0,11.0,-7.0,-9.0,-19.0,8.0,-1.0,69.0,1.013944387,-0.863109708,10.22683239,-0.060353752,0.000799387,-0.007594181,-28.0,43.0,83.0,10.0,-8.0,-0.119710088,2.428917646,10.22324085,0.05249311,-0.027445635,0.038503829,14.0,36.0,-21.0,-25.0,51.0
1693678369742520100,-88.0,4.0,4.0,6.0,-3.0,14.0,9.0,-68.0,1.013944387,-0.863109708,10.22683239,-0.060353752,0.000799387,-0.007594181,-28.0,43.0,83.0,10.0,-8.0,-0.119710088,2.428917646,10.22324085,0.05249311,-0.027445635,0.038503829,14.0,36.0,-21.0,-25.0,51.0
1693678369744519000,64.0,29.0,-3.0,-13.0,-26.0,-14.0,-5.0,44.0,1.013944387,-0.863109708,10.22683239,-0.060353752,0.000799387,-0.007594181,-28.0,43.0,83.0,10.0,-8.0,-0.119710088,2.428917646,10.22324085,0.05249311,-0.027445635,0.038503829,14.0,36.0,-21.0,-25.0,51.0
1693678369746518100,-12.0,2.0,-5.0,-10.0,-35.0,-1.0,7.0,-1.0,1.013944387,-0.863109708,10.22683239,-0.060353752,0.000799387,-0.007594181,-28.0,43.0,83.0,10.0,-8.0,-0.119710088,2.428917646,10.22324085,0.05249311,-0.027445635,0.038503829,14.0,36.0,-21.0,-25.0,51.0
1693678369750515000,-16.0,-5.0,1.0,6.0,13.0,3.0,10.0,-7.0,1.013944387,-0.863109708,10.22683239,-0.060353752,0.000799387,-0.007594181,-28.0,43.0,83.0,10.0,-8.0,-0.119710088,2.428917646,10.22324085,0.05249311,-0.027445635,0.038503829,14.0,36.0,-21.0,-25.0,51.0
1693678369756512300,2.0,-17.0,-4.0,3.0,18.0,-5.0,-8.0,0.0,1.013944387,-0.863109708,10.22683239,-0.060353752,0.000799387,-0.007594181,-28.0,43.0,83.0,10.0,-8.0,-0.119710088,2.428917646,10.22324085,0.05249311,-0.027445635,0.038503829,14.0,36.0,-21.0,-25.0,51.0
1693678369759508600,-51.0,-15.0,-2.0,-7.0,-9.0,-6.0,-3.0,-8.0,1.013944387,-0.863109708,10.22683239,-0.060353752,0.000799387,-0.007594181,-28.0,43.0,83.0,10.0,-8.0,-0.119710088,2.428917646,10.22324085,0.05249311,-0.027445635,0.038503829,14.0,36.0,-21.0,-25.0,51.0
1693678369763507000,5.0,4.0,1.0,5.0,6.0,7.0,-15.0,15.0,1.013944387,-0.863109708,10.22683239,-0.060353752,0.000799387,-0.007594181,-28.0,43.0,83.0,10.0,-8.0,-0.119710088,2.428917646,10.22324085,0.05249311,-0.027445635,0.038503829,14.0,36.0,-21.0,-25.0,51.0
1693678369768504500,25.0,-6.0,0.0,-7.0,-23.0,-3.0,-1.0,-9.0,1.013944387,-0.863109708,10.22683239,-0.060353752,0.000799387,-0.007594181,-28.0,43.0,83.0,10.0,-8.0,-0.119710088,2.428917646,10.22324085,0.05249311,-0.027445635,0.038503829,14.0,36.0,-21.0,-25.0,51.0
1693678369778499100,-19.0,-4.0,-4.0,2.0,1.0,12.0,-4.0,6.0,1.013944387,-0.863109708,10.22683239,-0.060353752,0.000799387,-0.007594181,-28.0,43.0,83.0,10.0,-8.0,-0.119710088,2.428917646,10.22324085,0.05249311,-0.027445635,0.038503829,14.0,36.0,-21.0,-25.0,51.0
1693678369780499900,-5.0,-1.0,5.0,9.0,4.0,21.0,9.0,-15.0,1.013944387,-0.863109708,10.22683239,-0.060353752,0.000799387,-0.007594181,-28.0,43.0,83.0,10.0,-8.0,-0.119710088,2.428917646,10.22324085,0.05249311,-0.027445635,0.038503829,14.0,36.0,-21.0,-25.0,51.0
1693678369784494700,18.0,5.0,-4.0,-9.0,-30.0,-27.0,-17.0,13.0,1.013944387,-0.863109708,10.22683239,-0.060353752,0.000799387,-0.007594181,-28.0,43.0,83.0,10.0,-8.0,-0.119710088,2.428917646,10.22324085,0.05249311,-0.027445635,0.038503829,14.0,36.0,-21.0,-25.0,51.0
1693678369787493500,-9.0,-4.0,-6.0,-18.0,-32.0,-23.0,-8.0,-13.0,1.013944387,-0.863109708,10.22683239,-0.060353752,0.000799387,-0.007594181,-28.0,43.0,83.0,10.0,-8.0,-0.119710088,2.428917646,10.22324085,0.05249311,-0.027445635,0.038503829,14.0,36.0,-21.0,-25.0,51.0
1693678369808480100,29.0,5.0,0.0,8.0,9.0,-17.0,4.0,16.0,1.013944387,-0.863109708,10.22683239,-0.060353752,0.000799387,-0.007594181,-28.0,43.0,83.0,10.0,-8.0,-0.119710088,2.428917646,10.22324085,0.05249311,-0.027445635,0.038503829,14.0,36.0,-21.0,-25.0,51.0
1693678369810480700,3.0,-2.0,-11.0,3.0,42.0,23.0,2.0,3.0,1.013944387,-0.863109708,10.22683239,-0.060353752,0.000799387,-0.007594181,-28.0,43.0,83.0,10.0,-8.0,-0.119710088,2.428917646,10.22324085,0.05249311,-0.027445635,0.038503829,14.0,36.0,-21.0,-25.0,51.0
1693678369811479800,1.0,18.0,46.0,14.0,18.0,18.0,9.0,-2.0,1.013944387,-0.863109708,10.22683239,-0.060353752,0.000799387,-0.007594181,-28.0,43.0,83.0,10.0,-8.0,-0.119710088,2.428917646,10.22324085,0.05249311,-0.027445635,0.038503829,14.0,36.0,-21.0,-25.0,51.0
1693678369813478200,-10.0,-9.0,-24.0,-1.0,-25.0,-22.0,-9.0,-5.0,1.013944387,-0.863109708,10.22683239,-0.060353752,0.000799387,-0.007594181,-28.0,43.0,83.0,10.0,-8.0,-0.119710088,2.428917646,10.22324085,0.05249311,-0.027445635,0.038503829,14.0,36.0,-21.0,-25.0,51.0
1693678369814479000,15.0,3.0,22.0,1.0,-2.0,7.0,-1.0,-2.0,1.013944387,-0.863109708,10.22683239,-0.060353752,0.000799387,-0.007594181,-28.0,43.0,83.0,10.0,-8.0,-0.119710088,2.428917646,10.22324085,0.05249311,-0.027445635,0.038503829,14.0,36.0,-21.0,-25.0,51.0
1693678369819478500,5.0,-3.0,1.0,3.0,-20.0,-37.0,4.0,6.0,1.013944387,-0.863109708,10.22683239,-0.060353752,0.000799387,-0.007594181,-28.0,43.0,83.0,10.0,-8.0,-0.119710088,2.428917646,10.22324085,0.05249311,-0.027445635,0.038503829,14.0,36.0,-21.0,-25.0,51.0
1693678369831468900,0.0,0.0,-10.0,8.0,1.0,-7.0,2.0,5.0,1.013944387,-0.863109708,10.22683239,-0.060353752,0.000799387,-0.007594181,-28.0,43.0,83.0,10.0,-8.0,-0.119710088,2.428917646,10.22324085,0.05249311,-0.027445635,0.038503829,14.0,36.0,-21.0,-25.0,51.0
1693678369834466200,0.0,0.0,-10.0,8.0,1.0,-7.0,2.0,5.0,1.018732786,-0.864306808,10.23281765,-0.060486984,0.000799387,-0.007860643,-28.0,45.0,87.0,6.0,-12.0,-0.116118781,2.421735048,10.22204399,0.052759573,-0.027179174,0.038104136,20.0,41.0,-26.0,-28.0,50.0
1693678369835466200,0.0,0.0,-10.0,8.0,1.0,-7.0,2.0,5.0,1.021126986,-0.861912608,10.23640919,-0.060620211,0.000799387,-0.007860643,-28.0,39.0,84.0,3.0,-11.0,-0.112527482,2.421735048,10.21845245,0.0528928,-0.027045943,0.038104136,20.0,33.0,-25.0,-24.0,48.0
1693678369835469000,0.0,-1.0,-1.0,-2.0,12.0,11.0,8.0,-9.0,1.021126986,-0.861912608,10.23640919,-0.060620211,0.000799387,-0.007860643,-28.0,39.0,84.0,3.0,-11.0,-0.112527482,2.421735048,10.21845245,0.0528928,-0.027045943,0.038104136,20.0,33.0,-25.0,-24.0,48.0
1693678369836466200,0.0,-1.0,-1.0,-2.0,12.0,11.0,8.0,-9.0,1.022324085,-0.863109708,10.23640919,-0.060753446,0.000666156,-0.007860643,-26.0,38.0,80.0,6.0,-16.0,-0.111330383,2.420537949,10.22324085,0.053026035,-0.027179174,0.038104136,15.0,44.0,-24.0,-24.0,54.0
1693678369837466200,0.0,-1.0,-1.0,-2.0,12.0,11.0,8.0,-9.0,1.021126986,-0.864306808,10.23880386,-0.060620211,0.000666156,-0.007594181,-24.0,43.0,81.0,5.0,-16.0,-0.110133275,2.421735048,10.22204399,0.053026035,-0.027045943,0.038104136,14.0,32.0,-25.0,-23.0,49.0
1693678369838466200,0.0,-1.0,-1.0,-2.0,12.0,11.0,8.0,-9.0,1.018732786,-0.859518409,10.24000072,-0.060620211,0.000799387,-0.007594181,-30.0,38.0,82.0,8.0,-12.0,-0.107739076,2.422932148,10.22443867,0.053159267,-0.027179174,0.038104136,20.0,34.0,-21.0,-24.0,50.0
1693678369839465300,12.0,-1.0,-17.0,-5.0,39.0,21.0,-2.0,10.0,1.018732786,-0.859518409,10.24000072,-0.060620211,0.000799387,-0.007594181,-30.0,38.0,82.0,8.0,-12.0,-0.107739076,2.422932148,10.22443867,0.053159267,-0.027179174,0.038104136,20.0,34.0,-21.0,-24.0,50.0
1693678369841464300,-11.0,-3.0,-5.0,2.0,28.0,28.0,-3.0,-4.0,1.018732786,-0.859518409,10.24000072,-0.060620211,0.000799387,-0.007594181,-30.0,38.0,82.0,8.0,-12.0,-0.107739076,2.422932148,10.22443867,0.053159267,-0.027179174,0.038104136,20.0,34.0,-21.0,-24.0,50.0
1693678369842462600,0.0,2.0,-4.0,-16.0,-103.0,-74.0,-3.0,3.0,1.018732786,-0.859518409,10.24000072,-0.060620211,0.000799387,-0.007594181,-30.0,38.0,82.0,8.0,-12.0,-0.107739076,2.422932148,10.22443867,0.053159267,-0.027179174,0.038104136,20.0,34.0,-21.0,-24.0,50.0
1693678369843461200,3.0,4.0,17.0,-12.0,68.0,21.0,0.0,2.0,1.018732786,-0.859518409,10.24000072,-0.060620211,0.000799387,-0.007594181,-30.0,38.0,82.0,8.0,-12.0,-0.107739076,2.422932148,10.22443867,0.053159267,-0.027179174,0.038104136,20.0,34.0,-21.0,-24.0,50.0
1693678369861451600,-1.0,-11.0,-11.0,-16.0,-49.0,-1.0,-17.0,-4.0,1.018732786,-0.859518409,10.24000072,-0.060620211,0.000799387,-0.007594181,-30.0,38.0,82.0,8.0,-12.0,-0.107739076,2.422932148,10.22443867,0.053159267,-0.027179174,0.038104136,20.0,34.0,-21.0,-24.0,50.0
1693678369863449300,-6.0,0.0,2.0,4.0,0.0,13.0,3.0,-15.0,1.018732786,-0.859518409,10.24000072,-0.060620211,0.000799387,-0.007594181,-30.0,38.0,82.0,8.0,-12.0,-0.107739076,2.422932148,10.22443867,0.053159267,-0.027179174,0.038104136,20.0,34.0,-21.0,-24.0,50.0
1693678369867447300,-4.0,-3.0,-28.0,-1.0,-46.0,-12.0,-2.0,-1.0,1.018732786,-0.859518409,10.24000072,-0.060620211,0.000799387,-0.007594181,-30.0,38.0,82.0,8.0,-12.0,-0.107739076,2.422932148,10.22443867,0.053159267,-0.027179174,0.038104136,20.0,34.0,-21.0,-24.0,50.0
1693678369871444800,5.0,3.0,26.0,-1.0,-33.0,25.0,4.0,2.0,1.018732786,-0.859518409,10.24000072,-0.060620211,0.000799387,-0.007594181,-30.0,38.0,82.0,8.0,-12.0,-0.107739076,2.422932148,10.22443867,0.053159267,-0.027179174,0.038104136,20.0,34.0,-21.0,-24.0,50.0
1693678369875443500,5.0,2.0,3.0,12.0,4.0,-23.0,5.0,6.0,1.018732786,-0.859518409,10.24000072,-0.060620211,0.000799387,-0.007594181,-30.0,38.0,82.0,8.0,-12.0,-0.107739076,2.422932148,10.22443867,0.053159267,-0.027179174,0.038104136,20.0,34.0,-21.0,-24.0,50.0
1693678369876442000,-3.0,0.0,-2.0,0.0,14.0,-15.0,-9.0,-45.0,1.018732786,-0.859518409,10.24000072,-0.060620211,0.000799387,-0.007594181,-30.0,38.0,82.0,8.0,-12.0,-0.107739076,2.422932148,10.22443867,0.053159267,-0.027179174,0.038104136,20.0,34.0,-21.0,-24.0,50.0
1693678369886437000,4.0,-5.0,-6.0,4.0,12.0,25.0,8.0,53.0,1.018732786,-0.859518409,10.24000072,-0.060620211,0.000799387,-0.007594181,-30.0,38.0,82.0,8.0,-12.0,-0.107739076,2.422932148,10.22443867,0.053159267,-0.027179174,0.038104136,20.0,34.0,-21.0,-24.0,50.0
1693678369888436900,-6.0,-3.0,-3.0,-2.0,-23.0,-18.0,-3.0,-9.0,1.018732786,-0.859518409,10.24000072,-0.060620211,0.000799387,-0.007594181,-30.0,38.0,82.0,8.0,-12.0,-0.107739076,2.422932148,10.22443867,0.053159267,-0.027179174,0.038104136,20.0,34.0,-21.0,-24.0,50.0
1693678369902429500,7.0,4.0,5.0,6.0,19.0,19.0,6.0,16.0,1.018732786,-0.859518409,10.24000072,-0.060620211,0.000799387,-0.007594181,-30.0,38.0,82.0,8.0,-12.0,-0.107739076,2.422932148,10.22443867,0.053159267,-0.027179174,0.038104136,20.0,34.0,-21.0,-24.0,50.0
1693678369907424600,-8.0,-3.0,-4.0,-14.0,-71.0,-34.0,-6.0,-12.0,1.018732786,-0.859518409,10.24000072,-0.060620211,0.000799387,-0.007594181,-30.0,38.0,82.0,8.0,-12.0,-0.107739076,2.422932148,10.22443867,0.053159267,-0.027179174,0.038104136,20.0,34.0,-21.0,-24.0,50.0
1693678369908420800,-8.0,-3.0,-4.0,-14.0,-71.0,-34.0,-6.0,-12.0,1.016338587,-0.861912608,10.23042393,-0.059954058,0.000666156,-0.007194487,-24.0,26.0,79.0,10.0,-13.0,-0.106541976,2.420537949,10.23281765,0.052626338,-0.027845331,0.038104136,20.0,33.0,-24.0,-21.0,52.0
1693678369909420800,-8.0,-3.0,-4.0,-14.0,-71.0,-34.0,-6.0,-12.0,1.016338587,-0.860715508,10.22563553,-0.059954058,0.000799387,-0.007327718,-28.0,37.0,78.0,9.0,-13.0,-0.105344877,2.418143749,10.22922707,0.052626338,-0.027845331,0.038104136,17.0,46.0,-17.0,-23.0,55.0
1693678369909424700,0.0,0.0,-5.0,-8.0,14.0,20.0,3.0,5.0,1.016338587,-0.860715508,10.22563553,-0.059954058,0.000799387,-0.007327718,-28.0,37.0,78.0,9.0,-13.0,-0.105344877,2.418143749,10.22922707,0.052626338,-0.027845331,0.038104136,17.0,46.0,-17.0,-23.0,55.0
1693678369910420800,0.0,0.0,-5.0,-8.0,14.0,20.0,3.0,5.0,1.016338587,-0.859518409,10.22683239,-0.06008729,0.000932619,-0.007460949,-32.0,39.0,80.0,8.0,-15.0,-0.105344877,2.418143749,10.23042393,0.052626338,-0.027845331,0.038104136,14.0,40.0,-29.0,-22.0,52.0
1693678369910424400,-1.0,1.0,2.0,4.0,19.0,6.0,-2.0,2.0,1.016338587,-0.859518409,10.22683239,-0.06008729,0.000932619,-0.007460949,-32.0,39.0,80.0,8.0,-15.0,-0.105344877,2.418143749,10.23042393,0.052626338,-0.027845331,0.038104136,14.0,40.0,-29.0,-22.0,52.0
1693678369911420800,-1.0,1.0,2.0,4.0,19.0,6.0,-2.0,2.0,1.013944387,-0.859518409,10.22443867,-0.06008729,0.000932619,-0.007594181,-16.0,21.0,84.0,6.0,-12.0,-0.106541976,2.41455245,10.23281765,0.052759573,-0.02797856,0.038237367,11.0,33.0,-31.0,-21.0,48.0
1693678369912420800,-1.0,1.0,2.0,4.0,19.0,6.0,-2.0,2.0,1.016338587,-0.860715508,10.22443867,-0.06008729,0.00106585,-0.007594181,-24.0,45.0,84.0,12.0,-8.0,-0.110133275,2.41694665,10.23401546,0.052759573,-0.02797856,0.038370594,6.0,31.0,-25.0,-28.0,46.0
1693678369937407500,-5.0,-11.0,-13.0,-9.0,42.0,-15.0,-3.0,-8.0,1.016338587,-0.860715508,10.22443867,-0.06008729,0.00106585,-0.007594181,-24.0,45.0,84.0,12.0,-8.0,-0.110133275,2.41694665,10.23401546,0.052759573,-0.02797856,0.038370594,6.0,31.0,-25.0,-28.0,46.0
1693678369939405800,-1.0,2.0,2.0,5.0,32.0,15.0,-3.0,13.0,1.016338587,-0.860715508,10.22443867,-0.06008729,0.00106585,-0.007594181,-24.0,45.0,84.0,12.0,-8.0,-0.110133275,2.41694665,10.23401546,0.052759573,-0.02797856,0.038370594,6.0,31.0,-25.0,-28.0,46.0
1693678369940406300,4.0,6.0,13.0,10.0,-14.0,1.0,-3.0,-12.0,1.016338587,-0.860715508,10.22443867,-0.06008729,0.00106585,-0.007594181,-24.0,45.0,84.0,12.0,-8.0,-0.110133275,2.41694665,10.23401546,0.052759573,-0.02797856,0.038370594,6.0,31.0,-25.0,-28.0,46.0
1693678369941404900,2.0,1.0,1.0,17.0,27.0,7.0,7.0,3.0,1.016338587,-0.860715508,10.22443867,-0.06008729,0.00106585,-0.007594181,-24.0,45.0,84.0,12.0,-8.0,-0.110133275,2.41694665,10.23401546,0.052759573,-0.02797856,0.038370594,6.0,31.0,-25.0,-28.0,46.0
1693678369942404500,2.0,-2.0,-2.0,-12.0,-76.0,6.0,-3.0,-4.0,1.016338587,-0.860715508,10.22443867,-0.06008729,0.00106585,-0.007594181,-24.0,45.0,84.0,12.0,-8.0,-0.110133275,2.41694665,10.23401546,0.052759573,-0.02797856,0.038370594,6.0,31.0,-25.0,-28.0,46.0
1693678369943403500,-6.0,-6.0,-8.0,-13.0,-19.0,-39.0,1.0,8.0,1.016338587,-0.860715508,10.22443867,-0.06008729,0.00106585,-0.007594181,-24.0,45.0,84.0,12.0,-8.0,-0.110133275,2.41694665,10.23401546,0.052759573,-0.02797856,0.038370594,6.0,31.0,-25.0,-28.0,46.0
1693678369952407900,1.0,3.0,1.0,1.0,40.0,43.0,2.0,-3.0,1.016338587,-0.860715508,10.22443867,-0.06008729,0.00106585,-0.007594181,-24.0,45.0,84.0,12.0,-8.0,-0.110133275,2.41694665,10.23401546,0.052759573,-0.02797856,0.038370594,6.0,31.0,-25.0,-28.0,46.0
1693678369954399900,0.0,-1.0,3.0,14.0,57.0,-9.0,-4.0,-5.0,1.016338587,-0.860715508,10.22443867,-0.06008729,0.00106585,-0.007594181,-24.0,45.0,84.0,12.0,-8.0,-0.110133275,2.41694665,10.23401546,0.052759573,-0.02797856,0.038370594,6.0,31.0,-25.0,-28.0,46.0
1693678369958396900,2.0,0.0,-2.0,3.0,-44.0,3.0,7.0,5.0,1.016338587,-0.860715508,10.22443867,-0.06008729,0.00106585,-0.007594181,-24.0,45.0,84.0,12.0,-8.0,-0.110133275,2.41694665,10.23401546,0.052759573,-0.02797856,0.038370594,6.0,31.0,-25.0,-28.0,46.0
1693678369960393600,-2.0,-2.0,3.0,-10.0,10.0,1.0,-14.0,-27.0,1.016338587,-0.860715508,10.22443867,-0.06008729,0.00106585,-0.007594181,-24.0,45.0,84.0,12.0,-8.0,-0.110133275,2.41694665,10.23401546,0.052759573,-0.02797856,0.038370594,6.0,31.0,-25.0,-28.0,46.0
1693678369978383700,-2.0,-3.0,-5.0,-16.0,4.0,-3.0,3.0,38.0,1.016338587,-0.860715508,10.22443867,-0.06008729,0.00106585,-0.007594181,-24.0,45.0,84.0,12.0,-8.0,-0.110133275,2.41694665,10.23401546,0.052759573,-0.02797856,0.038370594,6.0,31.0,-25.0,-28.0,46.0
1693678369980383000,-3.0,-12.0,-14.0,-10.0,-29.0,25.0,-4.0,-2.0,1.016338587,-0.860715508,10.22443867,-0.06008729,0.00106585,-0.007594181,-24.0,45.0,84.0,12.0,-8.0,-0.110133275,2.41694665,10.23401546,0.052759573,-0.02797856,0.038370594,6.0,31.0,-25.0,-28.0,46.0
1693678369982381000,8.0,11.0,4.0,4.0,27.0,-52.0,-6.0,4.0,1.016338587,-0.860715508,10.22443867,-0.06008729,0.00106585,-0.007594181,-24.0,45.0,84.0,12.0,-8.0,-0.110133275,2.41694665,10.23401546,0.052759573,-0.02797856,0.038370594,6.0,31.0,-25.0,-28.0,46.0
1693678369987379600,-1.0,1.0,6.0,2.0,-72.0,12.0,12.0,-7.0,1.016338587,-0.860715508,10.22443867,-0.06008729,0.00106585,-0.007594181,-24.0,45.0,84.0,12.0,-8.0,-0.110133275,2.41694665,10.23401546,0.052759573,-0.02797856,0.038370594,6.0,31.0,-25.0,-28.0,46.0
1693678369989375000,-1.0,1.0,6.0,2.0,-72.0,12.0,12.0,-7.0,1.016338587,-0.863109708,10.24239445,-0.059820827,0.000399694,-0.007594181,-30.0,42.0,78.0,8.0,-12.0,-0.114921682,2.419340849,10.23281765,0.0528928,-0.027445635,0.037837673,13.0,35.0,-20.0,-25.0,50.0
1693678369989378800,5.0,2.0,6.0,26.0,97.0,52.0,-9.0,4.0,1.016338587,-0.863109708,10.24239445,-0.059820827,0.000399694,-0.007594181,-30.0,42.0,78.0,8.0,-12.0,-0.114921682,2.419340849,10.23281765,0.0528928,-0.027445635,0.037837673,13.0,35.0,-20.0,-25.0,50.0
1693678369990375000,5.0,2.0,6.0,26.0,97.0,52.0,-9.0,4.0,1.018732786,-0.861912608,10.24718285,-0.059954058,0.000532925,-0.007727412,-26.0,37.0,85.0,10.0,-12.0,-0.114921682,2.41574955,10.23521233,0.052626338,-0.027312404,0.037970904,22.0,34.0,-27.0,-21.0,52.0
1693678369991375000,5.0,2.0,6.0,26.0,97.0,52.0,-9.0,4.0,1.021126986,-0.864306808,10.23640919,-0.059954058,0.000932619,-0.007727412,-27.0,38.0,83.0,10.0,-15.0,-0.113724582,2.41694665,10.23401546,0.052359879,-0.027312404,0.038104136,20.0,36.0,-21.0,-24.0,62.0
1693678369991376500,-4.0,-7.0,-14.0,-18.0,-28.0,-68.0,-12.0,-10.0,1.021126986,-0.864306808,10.23640919,-0.059954058,0.000932619,-0.007727412,-27.0,38.0,83.0,10.0,-15.0,-0.113724582,2.41694665,10.23401546,0.052359879,-0.027312404,0.038104136,20.0,36.0,-21.0,-24.0,62.0
1693678369992375000,-4.0,-7.0,-14.0,-18.0,-28.0,-68.0,-12.0,-10.0,1.023521185,-0.865503907,10.23880386,-0.059820827,0.001199081,-0.007727412,-28.0,41.0,83.0,12.0,-12.0,-0.112527482,2.418143749,10.23521233,0.052359879,-0.027712099,0.038503829,15.0,36.0,-29.0,-27.0,48.0
1693678369993375000,-4.0,-7.0,-14.0,-18.0,-28.0,-68.0,-12.0,-10.0,1.023521185,-0.865503907,10.22922707,-0.06008729,0.001332312,-0.007860643,-28.0,41.0,85.0,8.0,-9.0,-0.113724582,2.418143749,10.23640919,0.052626338,-0.028111791,0.038503829,14.0,35.0,-25.0,-22.0,50.0
1693678369995374800,-4.0,0.0,1.0,8.0,64.0,52.0,10.0,22.0,1.023521185,-0.865503907,10.22922707,-0.06008729,0.001332312,-0.007860643,-28.0,41.0,85.0,8.0,-9.0,-0.113724582,2.418143749,10.23640919,0.052626338,-0.028111791,0.038503829,14.0,35.0,-25.0,-22.0,50.0
1693678369997373400,1.0,-4.0,-3.0,-15.0,-103.0,-37.0,1.0,1.0,1.023521185,-0.865503907,10.22922707,-0.06008729,0.001332312,-0.007860643,-28.0,41.0,85.0,8.0,-9.0,-0.113724582,2.418143749,10.23640919,0.052626338,-0.028111791,0.038503829,14.0,35.0,-25.0,-22.0,50.0
1693678370004368300,0.0,5.0,4.0,5.0,40.0,1.0,0.0,-20.0,1.023521185,-0.865503907,10.22922707,-0.06008729,0.001332312,-0.007860643,-28.0,41.0,85.0,8.0,-9.0,-0.113724582,2.418143749,10.23640919,0.052626338,-0.028111791,0.038503829,14.0,35.0,-25.0,-22.0,50.0
