timestamp,EMG_s0,EMG_s1,EMG_s2,EMG_s3,EMG_s4,EMG_s5,EMG_s6,EMG_s7,right_data_Ac_X,right_data_Ac_Y,right_data_Ac_Z,right_data_Gy_X,right_data_Gy_Y,right_data_Gy_Z,left_data_Ac_X,left_data_Ac_Y,left_data_Ac_Z,left_data_Gy_X,left_data_Gy_Y,left_data_Gy_Z
1689140534321118600,2.0,-4.0,-3.0,1.0,2.0,1.0,-1.0,-2.0,,,,,,,,,,,,
1689140534323117400,4.0,5.0,-9.0,-3.0,-4.0,-2.0,1.0,1.0,,,,,,,,,,,,
1689140534324118200,0.0,-4.0,-4.0,-1.0,0.0,-2.0,-1.0,0.0,,,,,,,,,,,,
1689140534325118500,-7.0,0.0,-10.0,-5.0,1.0,0.0,0.0,4.0,,,,,,,,,,,,
1689140534327114800,2.0,-5.0,19.0,6.0,-3.0,0.0,2.0,-3.0,,,,,,,,,,,,
1689140534328114100,-2.0,4.0,3.0,0.0,0.0,-1.0,-5.0,-16.0,,,,,,,,,,,,
1689140534329114300,0.0,-4.0,-16.0,-2.0,2.0,-1.0,-1.0,3.0,,,,,,,,,,,,
1689140534331115400,3.0,-4.0,7.0,-1.0,0.0,-1.0,-2.0,0.0,,,,,,,,,,,,
1689140534332115400,-3.0,1.0,-7.0,-4.0,-6.0,-1.0,0.0,0.0,,,,,,,,,,,,
1689140534334111100,-3.0,-22.0,16.0,5.0,12.0,2.0,-2.0,8.0,,,,,,,,,,,,
1689140534344107700,-1.0,-9.0,-29.0,2.0,-3.0,-2.0,-2.0,-2.0,,,,,,,,,,,,
1689140534348103600,0.0,1.0,-7.0,-2.0,-4.0,0.0,3.0,-2.0,,,,,,,,,,,,
1689140534350103000,-3.0,-1.0,-12.0,-7.0,-1.0,-2.0,-3.0,-1.0,,,,,,,,,,,,
1689140534352102300,2.0,-3.0,9.0,-3.0,-4.0,1.0,2.0,-2.0,,,,,,,,,,,,
1689140534362095500,-1.0,6.0,-2.0,0.0,-1.0,0.0,-4.0,36.0,,,,,,,,,,,,
1689140534364094300,-14.0,-4.0,5.0,0.0,-1.0,-1.0,-1.0,-54.0,,,,,,,,,,,,
1689140534374088000,0.0,11.0,-1.0,12.0,5.0,-2.0,-2.0,-1.0,,,,,,,,,,,,
1689140534376088800,7.0,-38.0,-38.0,-12.0,-3.0,0.0,2.0,4.0,,,,,,,,,,,,
1689140534377088400,-12.0,20.0,32.0,1.0,0.0,0.0,2.0,-10.0,,,,,,,,,,,,
1689140534379085600,37.0,-2.0,-14.0,0.0,0.0,0.0,-2.0,8.0,,,,,,,,,,,,
1689140534392079600,0.0,-2.0,-9.0,-14.0,-4.0,0.0,1.0,3.0,,,,,,,,,,,,
1689140534394076500,0.0,15.0,32.0,14.0,2.0,0.0,0.0,-19.0,,,,,,,,,,,,
1689140534441051000,-6.0,-42.0,22.0,-4.0,-5.0,-1.0,0.0,0.0,,,,,,,,,,,,
1689140534443049000,1.0,12.0,14.0,-1.0,-4.0,-2.0,-4.0,8.0,0.811634362,-0.253785372,10.6446209,0.106052071,0.011724349,-0.016520673,-0.275333196,0.308852017,9.248801231,-0.103653908,0.022116385,-0.012523737
1689140534444049400,-1.0,8.0,-4.0,-1.0,3.0,1.0,4.0,8.0,,,,,,,,,,,,
1689140534445048500,-13.0,-39.0,-24.0,-3.0,0.0,-1.0,-12.0,-47.0,,,,,,,,,,,,
1689140534447046900,2.0,18.0,16.0,1.0,-1.0,1.0,0.0,15.0,,,,,,,,,,,,
1689140534448047700,7.0,-3.0,-42.0,-2.0,0.0,-3.0,-1.0,35.0,,,,,,,,,,,,
1689140534450046100,-4.0,8.0,58.0,10.0,0.0,-1.0,-3.0,-8.0,,,,,,,,,,,,
1689140534451044300,15.0,19.0,-18.0,-3.0,1.0,2.0,6.0,14.0,,,,,,,,,,,,
1689140534453043800,-7.0,-6.0,50.0,6.0,-1.0,-3.0,-2.0,-5.0,,,,,,,,,,,,
1689140534455042000,-6.0,10.0,75.0,3.0,3.0,0.0,-5.0,17.0,,,,,,,,,,,,
1689140534459544200,30.0,17.0,-84.0,-19.0,-6.0,0.0,-1.0,-51.0,,,,,,,,,,,,
1689140534461543900,-16.0,6.0,71.0,11.0,-3.0,-1.0,4.0,10.0,,,,,,,,,,,,
1689140534468540500,-24.0,-12.0,-33.0,-4.0,-2.0,-2.0,7.0,57.0,,,,,,,,,,,,
1689140534470537900,26.0,8.0,-9.0,5.0,4.0,2.0,-10.0,-15.0,,,,,,,,,,,,
1689140534482531900,4.0,-10.0,-17.0,2.0,0.0,1.0,1.0,28.0,,,,,,,,,,,,
1689140534483531400,22.0,56.0,51.0,-11.0,-3.0,-1.0,-4.0,-5.0,,,,,,,,,,,,
1689140534491526700,-36.0,-35.0,4.0,12.0,3.0,4.0,3.0,-17.0,,,,,,,,,,,,
1689140534492526000,-26.0,-38.0,4.0,-10.0,-10.0,-8.0,-2.0,-29.0,,,,,,,,,,,,
1689140534497523400,8.0,59.0,-21.0,3.0,3.0,0.0,0.0,14.0,,,,,,,,,,,,
1689140534499523400,8.0,-26.0,-14.0,1.0,-3.0,-2.0,1.0,51.0,,,,,,,,,,,,
1689140534512518000,17.0,69.0,-2.0,1.0,2.0,2.0,-3.0,-79.0,,,,,,,,,,,,
1689140534513513900,-60.0,32.0,24.0,0.0,2.0,4.0,11.0,9.0,,,,,,,,,,,,
1689140534519510400,32.0,11.0,49.0,20.0,9.0,6.0,2.0,-14.0,,,,,,,,,,,,
1689140534521509700,2.0,18.0,-94.0,-22.0,-12.0,-11.0,-23.0,-13.0,,,,,,,,,,,,
1689140534528505800,-16.0,-54.0,-6.0,-16.0,-5.0,-5.0,-9.0,-33.0,,,,,,,,,,,,
1689140534530504000,3.0,-2.0,-9.0,-3.0,-3.0,1.0,22.0,49.0,,,,,,,,,,,,
1689140534543497000,-6.0,-31.0,-12.0,2.0,2.0,0.0,-13.0,-26.0,,,,,,,,,,,,
1689140534545497600,-36.0,6.0,-1.0,9.0,3.0,4.0,8.0,6.0,,,,,,,,,,,,
1689140534552493900,-9.0,32.0,2.0,1.0,1.0,-1.0,-2.0,-2.0,,,,,,,,,,,,
1689140534553491200,34.0,-30.0,-50.0,-10.0,-3.0,-3.0,-7.0,-4.0,,,,,,,,,,,,
1689140534560632000,-43.0,-11.0,7.0,-2.0,-7.0,-4.0,11.0,-23.0,,,,,,,,,,,,
1689140534562630500,25.0,-11.0,18.0,4.0,7.0,3.0,4.0,-79.0,,,,,,,,,,,,
1689140534572626100,-8.0,7.0,-35.0,-7.0,-1.0,-2.0,5.0,64.0,,,,,,,,,,,,
1689140534574623500,2.0,-44.0,31.0,6.0,-2.0,-3.0,-2.0,-29.0,,,,,,,,,,,,
1689140534579620800,-2.0,8.0,23.0,-6.0,-5.0,-1.0,-8.0,44.0,,,,,,,,,,,,
1689140534581621000,4.0,-18.0,43.0,16.0,4.0,-2.0,-9.0,-10.0,,,,,,,,,,,,
1689140534588615600,-27.0,42.0,-24.0,-2.0,0.0,-1.0,16.0,42.0,,,,,,,,,,,,
1689140534590615900,1.0,81.0,-6.0,5.0,8.0,7.0,0.0,43.0,,,,,,,,,,,,
1689140534602607700,55.0,24.0,3.0,6.0,0.0,0.0,1.0,-88.0,,,,,,,,,,,,
1689140534603609200,-25.0,-27.0,-24.0,-14.0,-7.0,-5.0,2.0,26.0,,,,,,,,,,,,
1689140534611602600,21.0,-9.0,-4.0,5.0,-1.0,-2.0,-11.0,23.0,,,,,,,,,,,,
1689140534613602000,1.0,38.0,-17.0,-7.0,2.0,0.0,-5.0,-60.0,,,,,,,,,,,,
1689140534617599700,-36.0,-88.0,-21.0,0.0,-3.0,-1.0,7.0,72.0,,,,,,,,,,,,
1689140534619598700,-34.0,43.0,21.0,6.0,0.0,1.0,-1.0,-62.0,,,,,,,,,,,,
1689140534659577200,30.0,-38.0,-24.0,-2.0,-3.0,-7.0,-25.0,-81.0,,,,,,,,,,,,
1689140534661576500,-2.0,-21.0,-30.0,-1.0,0.0,-1.0,-3.0,-13.0,,,,,,,,,,,,
1689140534663574900,3.0,-7.0,-22.0,-8.0,-1.0,-2.0,-5.0,1.0,,,,,,,,,,,,
1689140534666571900,-27.0,7.0,40.0,12.0,-3.0,1.0,1.0,14.0,,,,,,,,,,,,
1689140534668571400,-13.0,-16.0,-13.0,-27.0,-5.0,0.0,-3.0,-82.0,,,,,,,,,,,,
1689140534670569800,-30.0,-21.0,-3.0,-4.0,-1.0,-2.0,-4.0,-36.0,,,,,,,,,,,,
1689140534672568500,3.0,-16.0,2.0,3.0,-3.0,-4.0,-25.0,-84.0,,,,,,,,,,,,
1689140534675566100,1.0,18.0,-33.0,-14.0,3.0,1.0,6.0,78.0,,,,,,,,,,,,
1689140534709547400,1.0,88.0,12.0,25.0,3.0,2.0,5.0,-21.0,,,,,,,,,,,,
1689140534711546300,19.0,20.0,-18.0,-22.0,-7.0,-6.0,-3.0,-4.0,,,,,,,,,,,,
1689140534712546000,-15.0,-12.0,27.0,-10.0,-2.0,-2.0,7.0,26.0,,,,,,,,,,,,
1689140534714545500,-8.0,12.0,-20.0,9.0,0.0,-4.0,-5.0,-22.0,,,,,,,,,,,,
1689140534716543600,36.0,19.0,10.0,1.0,5.0,4.0,0.0,75.0,,,,,,,,,,,,
1689140534718542600,-2.0,-20.0,-16.0,6.0,1.0,-4.0,0.0,-3.0,,,,,,,,,,,,
1689140534720540500,12.0,-43.0,7.0,3.0,2.0,3.0,8.0,25.0,,,,,,,,,,,,
1689140534722539400,70.0,9.0,-5.0,1.0,5.0,0.0,7.0,123.0,,,,,,,,,,,,
1689140534725537500,10.0,-20.0,22.0,0.0,-1.0,-3.0,-6.0,-22.0,,,,,,,,,,,,
1689140534726537000,-8.0,31.0,8.0,-2.0,-4.0,-2.0,-3.0,38.0,,,,,,,,,,,,
1689140534747524800,-6.0,-61.0,-1.0,13.0,4.0,-4.0,0.0,-50.0,,,,,,,,,,,,
1689140534749524500,8.0,-9.0,15.0,-13.0,0.0,4.0,-2.0,-13.0,,,,,,,,,,,,
1689140534751524200,12.0,-30.0,-25.0,0.0,-2.0,-1.0,-16.0,-63.0,,,,,,,,,,,,
1689140534753522100,-17.0,-17.0,-17.0,18.0,2.0,1.0,1.0,35.0,,,,,,,,,,,,
1689140534755520800,32.0,9.0,22.0,-20.0,-4.0,-1.0,-7.0,-2.0,,,,,,,,,,,,
1689140534757519500,-54.0,35.0,-14.0,9.0,-3.0,-13.0,-4.0,-51.0,,,,,,,,,,,,
1689140534765515000,-16.0,12.0,10.0,-16.0,-3.0,-2.0,0.0,0.0,,,,,,,,,,,,
1689140534784503900,43.0,-21.0,19.0,13.0,2.0,-4.0,-13.0,-53.0,,,,,,,,,,,,
1689140534786504600,7.0,49.0,9.0,15.0,11.0,15.0,3.0,95.0,,,,,,,,,,,,
1689140534787501600,7.0,-74.0,-9.0,-4.0,-6.0,-8.0,-30.0,5.0,,,,,,,,,,,,
1689140534789500200,20.0,4.0,-10.0,-1.0,0.0,1.0,3.0,12.0,,,,,,,,,,,,
1689140534791500000,-2.0,-52.0,2.0,5.0,-2.0,-2.0,-6.0,37.0,,,,,,,,,,,,
1689140534793500600,-21.0,14.0,1.0,-17.0,-11.0,-15.0,11.0,125.0,,,,,,,,,,,,
1689140534794500400,25.0,30.0,-2.0,-8.0,4.0,11.0,9.0,-42.0,,,,,,,,,,,,
1689140534797497100,5.0,-57.0,-1.0,15.0,-3.0,-13.0,-11.0,54.0,,,,,,,,,,,,
1689140534799494600,-26.0,-27.0,-56.0,-22.0,-9.0,8.0,-7.0,-10.0,,,,,,,,,,,,
1689140534801493900,-26.0,2.0,15.0,-7.0,2.0,-1.0,-2.0,-4.0,,,,,,,,,,,,
1689140534803494100,-30.0,-39.0,-79.0,-9.0,-3.0,6.0,13.0,20.0,,,,,,,,,,,,
1689140534829486600,9.0,29.0,12.0,18.0,0.0,-17.0,-3.0,102.0,,,,,,,,,,,,
1689140534831484100,-5.0,6.0,44.0,-8.0,2.0,27.0,28.0,17.0,,,,,,,,,,,,
1689140534833482300,-26.0,34.0,-24.0,2.0,0.0,-1.0,-16.0,-51.0,,,,,,,,,,,,
1689140534835482000,54.0,1.0,25.0,6.0,3.0,3.0,-1.0,-38.0,,,,,,,,,,,,
1689140534843477700,-71.0,-84.0,-2.0,2.0,4.0,6.0,10.0,-8.0,,,,,,,,,,,,
1689140534845475700,16.0,11.0,9.0,8.0,0.0,-8.0,5.0,12.0,,,,,,,,,,,,
1689140534846474400,-9.0,-3.0,-20.0,-14.0,-1.0,1.0,0.0,5.0,,,,,,,,,,,,
1689140534847475200,-1.0,-35.0,46.0,14.0,0.0,-1.0,1.0,-8.0,,,,,,,,,,,,
1689140534851471600,-30.0,-24.0,-25.0,-40.0,-9.0,-5.0,-7.0,-85.0,,,,,,,,,,,,
1689140534853474300,18.0,38.0,15.0,14.0,0.0,-11.0,-15.0,74.0,,,,,,,,,,,,
1689140534857468500,-8.0,-91.0,-37.0,-10.0,-10.0,-4.0,6.0,-29.0,,,,,,,,,,,,
1689140534859467300,-27.0,4.0,17.0,-7.0,-2.0,-5.0,0.0,19.0,,,,,,,,,,,,
1689140534872460000,32.0,39.0,16.0,12.0,-2.0,3.0,11.0,32.0,,,,,,,,,,,,
1689140534873461400,13.0,-5.0,10.0,-8.0,-3.0,-1.0,14.0,60.0,,,,,,,,,,,,
1689140534879455800,27.0,26.0,-37.0,-7.0,1.0,-1.0,-8.0,28.0,,,,,,,,,,,,
1689140534881455700,-5.0,3.0,50.0,8.0,-2.0,-2.0,-3.0,-55.0,,,,,,,,,,,,
1689140534888450600,-10.0,-4.0,-8.0,1.0,2.0,5.0,2.0,-14.0,,,,,,,,,,,,
1689140534890449700,-3.0,1.0,-17.0,-11.0,-3.0,-5.0,-13.0,-36.0,,,,,,,,,,,,
1689140534902442300,-19.0,-11.0,-6.0,2.0,-3.0,-8.0,3.0,-29.0,,,,,,,,,,,,
1689140534903442300,-19.0,8.0,-19.0,-6.0,-3.0,1.0,1.0,-21.0,,,,,,,,,,,,
1689140534911442800,-2.0,34.0,36.0,5.0,7.0,0.0,4.0,28.0,,,,,,,,,,,,
1689140534912443800,-16.0,-23.0,35.0,10.0,4.0,21.0,1.0,-33.0,,,,,,,,,,,,
1689140534917438300,11.0,34.0,1.0,4.0,0.0,-3.0,-6.0,-36.0,,,,,,,,,,,,
1689140534918438000,27.0,1.0,9.0,17.0,3.0,5.0,-3.0,-74.0,,,,,,,,,,,,
1689140534932429700,18.0,13.0,-17.0,-34.0,-4.0,5.0,4.0,14.0,,,,,,,,,,,,
1689140534933429500,10.0,3.0,14.0,6.0,-1.0,-11.0,-17.0,-64.0,,,,,,,,,,,,
1689140534939425200,-9.0,9.0,3.0,-9.0,-3.0,0.0,-1.0,-34.0,,,,,,,,,,,,
1689140534940425900,-8.0,11.0,-21.0,-4.0,-2.0,0.0,5.0,53.0,,,,,,,,,,,,
1689140534948422200,18.0,-3.0,6.0,13.0,2.0,2.0,7.0,2.0,,,,,,,,,,,,
1689140534950419400,14.0,30.0,-16.0,-1.0,0.0,-4.0,3.0,-100.0,,,,,,,,,,,,
1689140534962412300,-9.0,23.0,18.0,14.0,1.0,3.0,6.0,12.0,,,,,,,,,,,,
1689140534963413700,-19.0,27.0,-12.0,-12.0,-3.0,-6.0,-6.0,-7.0,,,,,,,,,,,,
1689140534971407300,-3.0,-8.0,-14.0,-1.0,-4.0,-3.0,1.0,22.0,,,,,,,,,,,,
1689140534972406900,-10.0,6.0,13.0,4.0,3.0,-1.0,-5.0,-67.0,,,,,,,,,,,,
1689140534981402500,-49.0,8.0,-5.0,6.0,2.0,2.0,9.0,-72.0,,,,,,,,,,,,
1689140534982403100,13.0,-26.0,-10.0,-8.0,-2.0,0.0,5.0,76.0,,,,,,,,,,,,
1689140534992395500,42.0,-15.0,-12.0,13.0,2.0,-1.0,1.0,-1.0,,,,,,,,,,,,
1689140534994394300,-1.0,8.0,-25.0,-60.0,-11.0,-3.0,6.0,49.0,,,,,,,,,,,,
1689140535000394100,-1.0,-44.0,17.0,8.0,-5.0,-3.0,-6.0,28.0,,,,,,,,,,,,
1689140535002390600,-10.0,-23.0,-20.0,-2.0,0.0,-2.0,10.0,43.0,,,,,,,,,,,,
1689140535008386200,1.0,5.0,4.0,6.0,1.0,5.0,0.0,38.0,,,,,,,,,,,,
1689140535010386900,-18.0,-26.0,-14.0,18.0,4.0,-12.0,-1.0,30.0,,,,,,,,,,,,
1689140535022377600,-15.0,16.0,10.0,-9.0,1.0,3.0,4.0,36.0,,,,,,,,,,,,
1689140535023378500,45.0,1.0,-21.0,-8.0,-1.0,-1.0,0.0,-31.0,,,,,,,,,,,,
1689140535031372900,-12.0,26.0,38.0,15.0,-3.0,0.0,-5.0,-9.0,,,,,,,,,,,,
1689140535032374300,3.0,-21.0,19.0,13.0,-2.0,-4.0,3.0,22.0,,,,,,,,,,,,
1689140535045365900,25.0,7.0,-11.0,-4.0,3.0,1.0,9.0,71.0,,,,,,,,,,,,
1689140535046365400,-12.0,54.0,9.0,1.0,0.0,3.0,-1.0,-14.0,,,,,,,,,,,,
1689140535052362600,-33.0,-22.0,-14.0,-3.0,4.0,0.0,-1.0,-22.0,,,,,,,,,,,,
1689140535053361200,-5.0,-35.0,-23.0,-11.0,-5.0,0.0,-1.0,-16.0,,,,,,,,,,,,
1689140535060357200,-18.0,6.0,-4.0,3.0,-4.0,-3.0,0.0,32.0,,,,,,,,,,,,
1689140535061357900,-13.0,-26.0,-33.0,-10.0,2.0,1.0,-3.0,-2.0,,,,,,,,,,,,
1689140535069352100,6.0,5.0,22.0,12.0,0.0,-2.0,-3.0,-14.0,,,,,,,,,,,,
1689140535070352900,6.0,50.0,17.0,-12.0,-2.0,-1.0,2.0,13.0,,,,,,,,,,,,
1689140535082343700,-3.0,-8.0,-1.0,11.0,-1.0,3.0,7.0,56.0,,,,,,,,,,,,
1689140535083345200,52.0,5.0,13.0,6.0,1.0,-1.0,1.0,48.0,,,,,,,,,,,,
1689140535091340700,1.0,10.0,-20.0,-3.0,2.0,2.0,2.0,-18.0,,,,,,,,,,,,
1689140535092339600,-13.0,-14.0,-19.0,3.0,0.0,-1.0,5.0,40.0,,,,,,,,,,,,
1689140535105352400,7.0,12.0,31.0,9.0,2.0,-3.0,-8.0,-105.0,,,,,,,,,,,,
1689140535107005500,-20.0,11.0,-10.0,-6.0,-3.0,1.0,-3.0,23.0,,,,,,,,,,,,
1689140535111997700,22.0,-9.0,-23.0,-10.0,-6.0,-2.0,-1.0,-5.0,,,,,,,,,,,,
1689140535113019800,2.0,43.0,62.0,30.0,6.0,4.0,-1.0,7.0,,,,,,,,,,,,
1689140535119993700,3.0,0.0,-39.0,-40.0,-4.0,-3.0,-4.0,-19.0,,,,,,,,,,,,
1689140535121004700,-23.0,-24.0,44.0,11.0,1.0,-1.0,0.0,-20.0,,,,,,,,,,,,
1689140535151975400,-30.0,21.0,-26.0,-12.0,-1.0,0.0,-1.0,44.0,,,,,,,,,,,,
1689140535153976800,22.0,13.0,-18.0,-1.0,1.0,-3.0,-5.0,5.0,,,,,,,,,,,,
1689140535155974600,12.0,-8.0,15.0,27.0,-3.0,-4.0,-3.0,-17.0,,,,,,,,,,,,
1689140535156973900,-8.0,-20.0,-13.0,-14.0,-4.0,-4.0,-4.0,-31.0,,,,,,,,,,,,
1689140535157973700,-18.0,4.0,9.0,-7.0,-2.0,0.0,1.0,15.0,,,,,,,,,,,,
1689140535159971200,9.0,-24.0,-12.0,-7.0,1.0,1.0,-2.0,-25.0,,,,,,,,,,,,
1689140535165969100,-3.0,-4.0,19.0,3.0,4.0,-2.0,-4.0,17.0,,,,,,,,,,,,
1689140535166968500,-3.0,-18.0,-37.0,-1.0,-2.0,-1.0,-14.0,-43.0,,,,,,,,,,,,
1689140535171963100,5.0,-13.0,19.0,4.0,-1.0,-1.0,-2.0,-51.0,,,,,,,,,,,,
1689140535172986300,-15.0,11.0,-4.0,3.0,-3.0,-4.0,-1.0,7.0,,,,,,,,,,,,
1689140535188954400,5.0,4.0,-5.0,-10.0,-7.0,-6.0,-13.0,-15.0,,,,,,,,,,,,
1689140535189956700,-9.0,2.0,-10.0,-5.0,-2.0,-3.0,6.0,20.0,,,,,,,,,,,,
1689140535191955400,-8.0,-23.0,19.0,2.0,-2.0,-2.0,-3.0,-10.0,,,,,,,,,,,,
1689140535192952200,-18.0,5.0,-15.0,-7.0,-3.0,0.0,6.0,41.0,,,,,,,,,,,,
1689140535203947400,69.0,15.0,2.0,-3.0,1.0,0.0,-5.0,-46.0,,,,,,,,,,,,
1689140535205946800,1.0,6.0,-7.0,7.0,1.0,0.0,-1.0,20.0,,,,,,,,,,,,
1689140535233943800,22.0,-12.0,-10.0,-8.0,-1.0,-1.0,0.0,41.0,,,,,,,,,,,,
1689140535236927800,-6.0,-21.0,17.0,8.0,-5.0,-4.0,-11.0,-43.0,,,,,,,,,,,,
1689140535237926300,-17.0,-8.0,-23.0,-3.0,-3.0,-2.0,0.0,3.0,,,,,,,,,,,,
1689140535238925200,-8.0,-1.0,32.0,11.0,2.0,0.0,0.0,-20.0,,,,,,,,,,,,
1689140535239940300,28.0,25.0,-26.0,-12.0,-5.0,-5.0,-3.0,-49.0,,,,,,,,,,,,
1689140535241925300,-18.0,-2.0,-3.0,2.0,0.0,-1.0,-2.0,-2.0,,,,,,,,,,,,
1689140535248920200,0.0,8.0,-2.0,-7.0,-1.0,0.0,3.0,17.0,,,,,,,,,,,,
1689140535250920600,-2.0,0.0,1.0,2.0,0.0,-8.0,-5.0,-35.0,,,,,,,,,,,,
1689140535251917700,-24.0,14.0,-3.0,-1.0,0.0,9.0,1.0,19.0,,,,,,,,,,,,
1689140535252918100,-8.0,-25.0,-4.0,-2.0,-2.0,-1.0,-10.0,-88.0,,,,,,,,,,,,
1689140535261927700,-10.0,0.0,2.0,-5.0,-2.0,-4.0,-3.0,28.0,,,,,,,,,,,,
1689140535263917000,3.0,-8.0,7.0,6.0,-1.0,-1.0,5.0,50.0,,,,,,,,,,,,
1689140535281902100,-5.0,-20.0,14.0,3.0,0.0,-5.0,-6.0,-70.0,,,,,,,,,,,,
1689140535284899900,25.0,22.0,-4.0,-4.0,0.0,5.0,11.0,43.0,,,,,,,,,,,,
1689140535287899100,6.0,-7.0,1.0,9.0,5.0,5.0,2.0,-12.0,,,,,,,,,,,,
1689140535289900700,11.0,-21.0,5.0,-2.0,-5.0,-3.0,-4.0,-6.0,,,,,,,,,,,,
1689140535292895700,5.0,2.0,-3.0,-4.0,2.0,-1.0,2.0,-36.0,,,,,,,,,,,,
1689140535293894400,-6.0,0.0,-3.0,6.0,5.0,6.0,-3.0,-13.0,,,,,,,,,,,,
1689140535299891500,-16.0,-3.0,-21.0,-2.0,2.0,-1.0,-10.0,-72.0,,,,,,,,,,,,
1689140535301889500,0.0,1.0,22.0,-1.0,-2.0,1.0,7.0,58.0,,,,,,,,,,,,
1689140535308886300,-5.0,-3.0,13.0,5.0,-2.0,-2.0,0.0,27.0,,,,,,,,,,,,
1689140535310886300,11.0,-11.0,-17.0,-2.0,-1.0,-3.0,1.0,-10.0,,,,,,,,,,,,
1689140535321877300,-10.0,23.0,17.0,3.0,-2.0,1.0,1.0,20.0,,,,,,,,,,,,
1689140535323877300,5.0,1.0,-28.0,-8.0,-2.0,-6.0,-6.0,-30.0,,,,,,,,,,,,
1689140535330873100,5.0,-10.0,5.0,-1.0,4.0,13.0,8.0,11.0,,,,,,,,,,,,
1689140535332872000,-15.0,-13.0,-2.0,3.0,0.0,-3.0,1.0,16.0,,,,,,,,,,,,
1689140535353859700,-7.0,3.0,11.0,-2.0,-4.0,-2.0,1.0,32.0,,,,,,,,,,,,
1689140535354860100,-8.0,-17.0,-9.0,2.0,0.0,4.0,21.0,75.0,,,,,,,,,,,,
1689140535360855300,-10.0,2.0,-9.0,0.0,4.0,1.0,1.0,18.0,,,,,,,,,,,,
1689140535361856700,72.0,6.0,32.0,6.0,-4.0,-3.0,-2.0,-19.0,,,,,,,,,,,,
1689140535362855800,-3.0,37.0,-2.0,-2.0,4.0,3.0,-3.0,-17.0,,,,,,,,,,,,
1689140535363854800,11.0,-4.0,4.0,0.0,-1.0,0.0,0.0,28.0,,,,,,,,,,,,
1689140535382842400,6.0,0.0,-12.0,0.0,-1.0,-3.0,-4.0,-9.0,,,,,,,,,,,,
1689140535384841500,-10.0,-6.0,-10.0,-3.0,-2.0,0.0,-5.0,-55.0,,,,,,,,,,,,
1689140535386841900,2.0,5.0,2.0,-1.0,-2.0,-4.0,3.0,14.0,,,,,,,,,,,,
1689140535387862300,15.0,17.0,14.0,0.0,3.0,2.0,-1.0,-37.0,,,,,,,,,,,,
1689140535390840900,-20.0,8.0,-5.0,-6.0,-1.0,-3.0,-1.0,-28.0,,,,,,,,,,,,
1689140535392837900,-31.0,-5.0,-13.0,-3.0,-1.0,-2.0,-3.0,6.0,,,,,,,,,,,,
1689140535405836900,0.0,0.0,12.0,-1.0,-3.0,-2.0,10.0,68.0,,,,,,,,,,,,
1689140535407829900,-18.0,5.0,0.0,4.0,-1.0,3.0,-3.0,-34.0,,,,,,,,,,,,
1689140535412826700,-11.0,36.0,4.0,9.0,-5.0,-10.0,-4.0,-6.0,,,,,,,,,,,,
1689140535413825700,-12.0,-11.0,-7.0,-19.0,0.0,4.0,5.0,26.0,,,,,,,,,,,,
1689140535427816600,-23.0,-13.0,-7.0,-4.0,-1.0,5.0,13.0,83.0,,,,,,,,,,,,
1689140535428817000,19.0,-14.0,8.0,0.0,3.0,4.0,8.0,79.0,,,,,,,,,,,,
1689140535434815200,45.0,2.0,3.0,2.0,-2.0,-5.0,-5.0,-18.0,,,,,,,,,,,,
1689140535435814500,12.0,67.0,-18.0,2.0,0.0,-4.0,0.0,13.0,,,,,,,,,,,,
1689140535450804400,-17.0,7.0,39.0,0.0,-1.0,1.0,-2.0,-6.0,,,,,,,,,,,,
1689140535452803600,-7.0,4.0,-21.0,-5.0,-4.0,-4.0,-7.0,-26.0,,,,,,,,,,,,
1689140535454802900,3.0,-10.0,1.0,2.0,-2.0,0.0,0.0,27.0,,,,,,,,,,,,
1689140535455800900,-11.0,15.0,-13.0,-4.0,-2.0,-3.0,0.0,0.0,,,,,,,,,,,,
1689140535465795700,8.0,-63.0,1.0,4.0,0.0,-1.0,1.0,-15.0,,,,,,,,,,,,
1689140535466795300,-11.0,-2.0,0.0,-2.0,3.0,-1.0,-3.0,-14.0,,,,,,,,,,,,
1689140535471791600,10.0,32.0,12.0,-6.0,-4.0,-3.0,-6.0,-16.0,,,,,,,,,,,,
1689140535473793100,-18.0,-9.0,-10.0,6.0,1.0,2.0,1.0,10.0,,,,,,,,,,,,
1689140535487783500,-12.0,-2.0,-13.0,-17.0,-5.0,-7.0,-10.0,2.0,,,,,,,,,,,,
1689140535490782000,15.0,-16.0,3.0,4.0,-1.0,-7.0,-10.0,-76.0,,,,,,,,,,,,
1689140535494779300,8.0,-21.0,-34.0,-8.0,2.0,14.0,5.0,40.0,,,,,,,,,,,,
1689140535496778100,1.0,-18.0,26.0,5.0,0.0,-5.0,-2.0,-16.0,,,,,,,,,,,,
1689140535510769400,11.0,-6.0,0.0,8.0,4.0,4.0,-1.0,23.0,,,,,,,,,,,,
1689140535512768800,-17.0,10.0,-21.0,-1.0,-4.0,-5.0,-6.0,4.0,,,,,,,,,,,,
1689140535514768000,-33.0,-6.0,5.0,-4.0,-4.0,-7.0,3.0,8.0,,,,,,,,,,,,
1689140535515767900,16.0,-41.0,-1.0,2.0,3.0,-1.0,-6.0,-7.0,,,,,,,,,,,,
1689140535525761200,10.0,-3.0,-5.0,4.0,0.0,-1.0,0.0,-9.0,,,,,,,,,,,,
1689140535526760500,-8.0,24.0,24.0,2.0,-1.0,2.0,-2.0,-18.0,,,,,,,,,,,,
1689140535534756600,-9.0,10.0,-15.0,-5.0,-2.0,-3.0,2.0,0.0,,,,,,,,,,,,
1689140535536755600,-17.0,-37.0,-17.0,-2.0,-1.0,-1.0,8.0,84.0,,,,,,,,,,,,
1689140535548748200,4.0,7.0,10.0,1.0,0.0,-1.0,-15.0,-67.0,,,,,,,,,,,,
1689140535549747900,-1.0,-5.0,-24.0,-5.0,-5.0,-3.0,-4.0,46.0,,,,,,,,,,,,
1689140535554744200,-5.0,-12.0,18.0,6.0,2.0,-4.0,-1.0,6.0,,,,,,,,,,,,
1689140535555746100,10.0,13.0,0.0,-8.0,-2.0,5.0,7.0,8.0,,,,,,,,,,,,
1689140535570735200,2.0,6.0,-7.0,4.0,3.0,2.0,4.0,41.0,,,,,,,,,,,,
1689140535572733700,15.0,-6.0,-10.0,-6.0,0.0,4.0,-2.0,-25.0,,,,,,,,,,,,
1689140535573737100,16.0,15.0,15.0,-5.0,-2.0,-6.0,-17.0,-45.0,,,,,,,,,,,,
1689140535575735900,15.0,35.0,18.0,19.0,5.0,12.0,-2.0,-8.0,,,,,,,,,,,,
1689140535585726900,-22.0,-92.0,-42.0,-30.0,-4.0,-1.0,-1.0,1.0,,,,,,,,,,,,
1689140535586727600,3.0,12.0,16.0,6.0,2.0,0.0,-1.0,-2.0,,,,,,,,,,,,
1689140535592722400,-18.0,-14.0,-18.0,-5.0,-1.0,-3.0,8.0,-3.0,,,,,,,,,,,,
1689140535593723900,10.0,-26.0,5.0,7.0,1.0,-6.0,-8.0,11.0,,,,,,,,,,,,
1689140535607570300,13.0,18.0,1.0,7.0,-3.0,-2.0,0.0,14.0,,,,,,,,,,,,
1689140535609574900,2.0,6.0,0.0,-3.0,0.0,-1.0,-9.0,-12.0,,,,,,,,,,,,
1689140535614557900,13.0,-2.0,29.0,2.0,-1.0,-2.0,-8.0,-19.0,,,,,,,,,,,,
1689140535615560600,-27.0,-19.0,-9.0,-8.0,-1.0,-3.0,1.0,-17.0,,,,,,,,,,,,
1689140535631551600,2.0,27.0,-21.0,-2.0,-2.0,-2.0,3.0,-10.0,,,,,,,,,,,,
1689140535632550500,-13.0,-10.0,20.0,2.0,1.0,-3.0,5.0,9.0,,,,,,,,,,,,
1689140535634549800,9.0,-11.0,-7.0,8.0,3.0,2.0,2.0,65.0,,,,,,,,,,,,
1689140535635548700,8.0,7.0,6.0,-5.0,-6.0,-5.0,-11.0,-83.0,,,,,,,,,,,,
1689140535645544800,-18.0,0.0,-2.0,1.0,-2.0,-1.0,-1.0,-32.0,,,,,,,,,,,,
1689140535646541000,16.0,1.0,-8.0,-2.0,0.0,3.0,5.0,6.0,,,,,,,,,,,,
1689140535661531600,4.0,28.0,0.0,5.0,-1.0,0.0,-1.0,-5.0,,,,,,,,,,,,
1689140535662531000,-18.0,-29.0,-4.0,-14.0,-5.0,-4.0,2.0,19.0,,,,,,,,,,,,
1689140535675524200,0.0,-2.0,3.0,22.0,4.0,1.0,0.0,-12.0,,,,,,,,,,,,
1689140535676524600,8.0,-7.0,-15.0,-46.0,-11.0,-4.0,-2.0,-12.0,,,,,,,,,,,,
1689140535683519000,-10.0,-4.0,4.0,6.0,0.0,5.0,5.0,39.0,,,,,,,,,,,,
1689140535685520500,1.0,8.0,-5.0,-1.0,-2.0,-3.0,-1.0,-38.0,,,,,,,,,,,,
1689140535691516200,3.0,6.0,-16.0,-4.0,0.0,-3.0,-2.0,-20.0,,,,,,,,,,,,
1689140535692516200,-26.0,5.0,10.0,17.0,-1.0,2.0,2.0,33.0,,,,,,,,,,,,
1689140535694515200,-12.0,-32.0,39.0,0.0,0.0,-1.0,-4.0,-76.0,,,,,,,,,,,,
1689140535695511700,-6.0,10.0,-8.0,-5.0,2.0,0.0,2.0,9.0,,,,,,,,,,,,
1689140535705505700,11.0,5.0,32.0,4.0,0.0,3.0,1.0,7.0,,,,,,,,,,,,
1689140535706505700,-9.0,21.0,-14.0,1.0,-4.0,-5.0,-7.0,-48.0,,,,,,,,,,,,
1689140535712501700,4.0,-17.0,-24.0,-10.0,-1.0,-2.0,-1.0,36.0,,,,,,,,,,,,
1689140535713502600,9.0,1.0,-5.0,5.0,-1.0,0.0,4.0,52.0,,,,,,,,,,,,
1689140535728494200,-20.0,14.0,-1.0,-3.0,-1.0,-4.0,-3.0,-50.0,,,,,,,,,,,,
1689140535729493400,-28.0,-23.0,7.0,5.0,4.0,2.0,0.0,-10.0,,,,,,,,,,,,
1689140535734489700,14.0,40.0,0.0,-2.0,-3.0,-3.0,4.0,18.0,,,,,,,,,,,,
1689140535736489000,-1.0,-15.0,5.0,-2.0,-1.0,-2.0,-2.0,-8.0,,,,,,,,,,,,
1689140535751481100,-2.0,0.0,-5.0,-2.0,-3.0,-3.0,-1.0,7.0,,,,,,,,,,,,
1689140535752479800,-3.0,6.0,4.0,0.0,-3.0,-2.0,-2.0,-2.0,,,,,,,,,,,,
1689140535754480000,-3.0,-12.0,-25.0,0.0,2.0,1.0,3.0,11.0,,,,,,,,,,,,
1689140535755479000,-12.0,26.0,27.0,6.0,0.0,0.0,5.0,18.0,,,,,,,,,,,,
1689140535765473800,22.0,13.0,7.0,-1.0,0.0,3.0,-4.0,-5.0,,,,,,,,,,,,
1689140535766473400,-8.0,-16.0,-5.0,3.0,2.0,-1.0,0.0,2.0,,,,,,,,,,,,
1689140535772467600,5.0,3.0,-7.0,-3.0,-2.0,0.0,2.0,21.0,,,,,,,,,,,,
1689140535773470300,13.0,-13.0,-17.0,-5.0,-2.0,-2.0,-1.0,10.0,,,,,,,,,,,,
1689140535789460400,-9.0,29.0,11.0,-1.0,-2.0,0.0,3.0,9.0,,,,,,,,,,,,
1689140535791460700,3.0,2.0,1.0,6.0,9.0,3.0,1.0,-2.0,,,,,,,,,,,,
1689140535794455600,-6.0,-16.0,9.0,-4.0,-3.0,-3.0,0.0,-19.0,,,,,,,,,,,,
1689140535795458500,-17.0,8.0,3.0,3.0,3.0,3.0,-8.0,-9.0,,,,,,,,,,,,
1689140535811445200,16.0,17.0,-21.0,-1.0,-1.0,-1.0,1.0,-3.0,,,,,,,,,,,,
1689140535812467300,17.0,17.0,38.0,-2.0,-4.0,-3.0,-2.0,11.0,,,,,,,,,,,,
1689140535814447000,-3.0,-9.0,0.0,0.0,2.0,-3.0,-3.0,-37.0,,,,,,,,,,,,
1689140535815446200,-29.0,-13.0,5.0,2.0,-2.0,-3.0,-3.0,17.0,,,,,,,,,,,,
1689140535833433600,41.0,-4.0,10.0,-1.0,-1.0,-3.0,-2.0,37.0,,,,,,,,,,,,
1689140535836432600,-12.0,-48.0,-22.0,-2.0,-1.0,0.0,-4.0,-36.0,,,,,,,,,,,,
1689140535838431700,-8.0,14.0,-8.0,-2.0,1.0,2.0,1.0,10.0,,,,,,,,,,,,
1689140535839429700,-3.0,-16.0,-1.0,-2.0,-4.0,-4.0,1.0,-15.0,,,,,,,,,,,,
1689140535848425900,-8.0,-9.0,-10.0,-10.0,-1.0,-1.0,-1.0,-7.0,,,,,,,,,,,,
1689140535849423400,-2.0,13.0,-7.0,1.0,0.0,-1.0,4.0,18.0,,,,,,,,,,,,
1689140535854438900,-5.0,-16.0,7.0,7.0,-1.0,1.0,-3.0,-6.0,,,,,,,,,,,,
1689140535856420800,11.0,6.0,-16.0,-6.0,-3.0,-5.0,-2.0,6.0,,,,,,,,,,,,
1689140535878429100,-15.0,3.0,16.0,2.0,0.0,1.0,0.0,-1.0,,,,,,,,,,,,
1689140535880407600,8.0,-27.0,-19.0,1.0,2.0,2.0,-6.0,-75.0,,,,,,,,,,,,
1689140535881427500,51.0,0.0,-4.0,-1.0,-3.0,-3.0,1.0,24.0,,,,,,,,,,,,
1689140535883404900,6.0,19.0,5.0,-1.0,-1.0,-1.0,3.0,16.0,,,,,,,,,,,,
1689140535884425500,4.0,3.0,2.0,1.0,0.0,-2.0,-1.0,-5.0,,,,,,,,,,,,
1689140535886405600,-7.0,6.0,-4.0,-5.0,-2.0,0.0,3.0,3.0,,,,,,,,,,,,
1689140535893399600,-14.0,5.0,8.0,4.0,1.0,1.0,0.0,13.0,,,,,,,,,,,,
1689140535895398400,6.0,2.0,-17.0,-4.0,-1.0,-3.0,-4.0,-27.0,,,,,,,,,,,,
1689140535908392600,-34.0,-24.0,52.0,1.0,0.0,1.0,1.0,-74.0,,,,,,,,,,,,
1689140535909392200,31.0,-31.0,-12.0,1.0,-1.0,-1.0,-6.0,-26.0,,,,,,,,,,,,
1689140535914408400,-11.0,-10.0,-34.0,-9.0,-3.0,-1.0,-1.0,21.0,,,,,,,,,,,,
1689140535915389000,-8.0,7.0,19.0,8.0,7.0,3.0,3.0,18.0,,,,,,,,,,,,
1689140535931377000,-10.0,12.0,-8.0,3.0,-1.0,-1.0,0.0,27.0,,,,,,,,,,,,
1689140535932379100,-2.0,26.0,-7.0,-8.0,-7.0,-11.0,-2.0,8.0,,,,,,,,,,,,
1689140535934377900,-1.0,6.0,21.0,6.0,3.0,7.0,4.0,7.0,,,,,,,,,,,,
1689140535936374600,10.0,-5.0,25.0,-1.0,-3.0,1.0,3.0,14.0,,,,,,,,,,,,
1689140535945371800,16.0,-10.0,-19.0,6.0,-2.0,1.0,3.0,49.0,,,,,,,,,,,,
1689140535946390100,-3.0,7.0,3.0,-1.0,3.0,-2.0,2.0,76.0,,,,,,,,,,,,
1689140535953364300,-11.0,17.0,-10.0,-6.0,-7.0,-4.0,-3.0,4.0,,,,,,,,,,,,
1689140535954386500,6.0,-3.0,0.0,21.0,6.0,4.0,-3.0,-17.0,,,,,,,,,,,,
1689140535968354900,-15.0,0.0,-4.0,-29.0,-5.0,-2.0,-1.0,-4.0,,,,,,,,,,,,
1689140535969355400,-14.0,-13.0,-26.0,-5.0,0.0,2.0,4.0,44.0,,,,,,,,,,,,
1689140535974353700,-8.0,25.0,11.0,0.0,-4.0,-5.0,-6.0,44.0,,,,,,,,,,,,
1689140535976353300,-7.0,-2.0,-12.0,0.0,1.0,-2.0,-3.0,-24.0,,,,,,,,,,,,
1689140535991342100,15.0,-19.0,-9.0,3.0,0.0,-1.0,0.0,25.0,,,,,,,,,,,,
1689140535993341800,-9.0,22.0,30.0,9.0,-1.0,4.0,4.0,5.0,,,,,,,,,,,,
1689140535995341700,4.0,-31.0,-4.0,-2.0,6.0,5.0,-1.0,-37.0,,,,,,,,,,,,
1689140535996347200,9.0,21.0,-7.0,-5.0,-4.0,-4.0,-2.0,-4.0,,,,,,,,,,,,
1689140536005337600,-4.0,-11.0,-30.0,-23.0,-6.0,-4.0,-4.0,-4.0,,,,,,,,,,,,
1689140536006334200,-11.0,9.0,-3.0,-5.0,-4.0,-1.0,2.0,-6.0,,,,,,,,,,,,
1689140536015350500,-7.0,-16.0,6.0,7.0,6.0,0.0,0.0,14.0,,,,,,,,,,,,
1689140536017327300,8.0,3.0,-7.0,2.0,-1.0,2.0,-3.0,-29.0,,,,,,,,,,,,
1689140536028323400,-4.0,13.0,-1.0,4.0,2.0,3.0,2.0,-34.0,,,,,,,,,,,,
1689140536029321200,-7.0,-30.0,0.0,1.0,-1.0,-2.0,-1.0,8.0,,,,,,,,,,,,
1689140536034340000,8.0,-12.0,-2.0,-5.0,-4.0,-3.0,-3.0,-15.0,,,,,,,,,,,,
1689140536036318000,-14.0,-34.0,-12.0,-6.0,0.0,1.0,1.0,-14.0,,,,,,,,,,,,
1689140536051308000,-3.0,23.0,4.0,7.0,2.0,0.0,0.0,9.0,,,,,,,,,,,,
1689140536053308600,16.0,92.0,14.0,-2.0,0.0,-1.0,0.0,-4.0,,,,,,,,,,,,
1689140536054328300,-10.0,-35.0,16.0,9.0,2.0,2.0,0.0,-22.0,,,,,,,,,,,,
1689140536055328000,-12.0,-41.0,-14.0,-20.0,-8.0,-6.0,-2.0,37.0,,,,,,,,,,,,
1689140536064316600,-22.0,-11.0,7.0,4.0,-5.0,-4.0,-1.0,-3.0,,,,,,,,,,,,
1689140536066302100,50.0,-3.0,3.0,10.0,7.0,5.0,-1.0,11.0,,,,,,,,,,,,
1689140536073297600,-5.0,-23.0,-13.0,-6.0,-1.0,1.0,3.0,-1.0,,,,,,,,,,,,
1689140536075294000,13.0,43.0,22.0,-2.0,3.0,1.0,-1.0,16.0,,,,,,,,,,,,
1689140536089308600,-5.0,-42.0,-27.0,3.0,1.0,2.0,2.0,8.0,,,,,,,,,,,,
1689140536091305400,-6.0,-17.0,6.0,-9.0,-4.0,1.0,-2.0,-6.0,,,,,,,,,,,,
1689140536095283000,-5.0,17.0,-1.0,0.0,-4.0,-1.0,0.0,-15.0,,,,,,,,,,,,
1689140536096283400,5.0,-2.0,0.0,12.0,2.0,0.0,-1.0,-4.0,,,,,,,,,,,,
1689140536111273100,-5.0,7.0,7.0,-14.0,1.0,1.0,-1.0,-39.0,,,,,,,,,,,,
1689140536112274300,-12.0,-12.0,-1.0,5.0,-1.0,0.0,-2.0,4.0,,,,,,,,,,,,
1689140536114274600,3.0,11.0,-5.0,-2.0,3.0,-1.0,3.0,-6.0,,,,,,,,,,,,
1689140536115283100,-19.0,21.0,-5.0,-3.0,-4.0,0.0,5.0,34.0,,,,,,,,,,,,
1689140536124288100,16.0,21.0,11.0,13.0,2.0,-1.0,-4.0,46.0,,,,,,,,,,,,
1689140536126266700,-9.0,-26.0,-13.0,-2.0,0.0,1.0,1.0,-16.0,,,,,,,,,,,,
1689140536141256400,-3.0,14.0,-14.0,-12.0,-7.0,-4.0,1.0,13.0,,,,,,,,,,,,
1689140536142257000,3.0,14.0,8.0,-5.0,-1.0,1.0,2.0,-6.0,,,,,,,,,,,,
1689140536148253100,-3.0,-21.0,4.0,5.0,-1.0,-2.0,1.0,-1.0,,,,,,,,,,,,
1689140536149274900,19.0,3.0,12.0,-6.0,2.0,-3.0,-3.0,-7.0,,,,,,,,,,,,
1689140536159248700,7.0,6.0,1.0,16.0,-2.0,0.0,-3.0,-1.0,,,,,,,,,,,,
1689140536160262800,2.0,-18.0,-8.0,-1.0,2.0,2.0,0.0,-1.0,,,,,,,,,,,,
1689140536171239100,6.0,8.0,-55.0,-38.0,-5.0,-1.0,-3.0,-18.0,,,,,,,,,,,,
1689140536173240800,22.0,4.0,41.0,15.0,-2.0,-2.0,0.0,9.0,,,,,,,,,,,,
1689140536175236700,-10.0,-37.0,-25.0,-13.0,-1.0,1.0,1.0,-8.0,,,,,,,,,,,,
1689140536176238600,11.0,9.0,10.0,4.0,0.0,-2.0,-5.0,8.0,,,,,,,,,,,,
1689140536185230700,-7.0,-3.0,1.0,12.0,0.0,-1.0,-1.0,-8.0,,,,,,,,,,,,
1689140536186230600,-12.0,-1.0,-8.0,-2.0,-3.0,-2.0,4.0,43.0,,,,,,,,,,,,
1689140536193226000,0.0,-10.0,6.0,-2.0,-2.0,-2.0,-8.0,-51.0,,,,,,,,,,,,
1689140536195247200,3.0,7.0,2.0,0.0,1.0,2.0,-3.0,-7.0,,,,,,,,,,,,
1689140536208217800,18.0,-18.0,6.0,6.0,2.0,-1.0,-1.0,8.0,,,,,,,,,,,,
1689140536209222800,-12.0,34.0,-20.0,-7.0,-3.0,-2.0,7.0,33.0,,,,,,,,,,,,
1689140536215214900,3.0,5.0,32.0,0.0,-5.0,-4.0,-2.0,9.0,,,,,,,,,,,,
1689140536216213000,6.0,21.0,-12.0,-6.0,-2.0,-3.0,-1.0,37.0,,,,,,,,,,,,
1689140536231204500,-11.0,11.0,22.0,19.0,4.0,0.0,0.0,-29.0,,,,,,,,,,,,
1689140536234203600,-4.0,-8.0,-24.0,-24.0,3.0,3.0,0.0,-42.0,,,,,,,,,,,,
1689140536235204200,-5.0,47.0,13.0,1.0,-2.0,0.0,3.0,10.0,,,,,,,,,,,,
1689140536237204400,-1.0,-15.0,0.0,6.0,3.0,6.0,2.0,27.0,,,,,,,,,,,,
1689140536245196500,0.0,12.0,7.0,14.0,1.0,0.0,-1.0,13.0,,,,,,,,,,,,
1689140536246198800,-39.0,-40.0,-24.0,5.0,2.0,2.0,-4.0,-12.0,,,,,,,,,,,,
1689140536254191000,8.0,15.0,42.0,3.0,3.0,0.0,0.0,-13.0,,,,,,,,,,,,
1689140536255191500,-22.0,1.0,-21.0,-10.0,-6.0,-9.0,-8.0,-7.0,,,,,,,,,,,,
1689140536268183800,-1.0,0.0,3.0,9.0,7.0,0.0,-4.0,-6.0,,,,,,,,,,,,
1689140536270204900,-2.0,-4.0,2.0,2.0,-2.0,1.0,-3.0,-17.0,,,,,,,,,,,,
1689140536275179200,-3.0,-31.0,-21.0,-6.0,2.0,3.0,-2.0,7.0,,,,,,,,,,,,
1689140536276179200,1.0,20.0,14.0,8.0,-3.0,-5.0,-3.0,-19.0,,,,,,,,,,,,
1689140536290170700,-16.0,-18.0,1.0,-4.0,-2.0,-5.0,2.0,2.0,,,,,,,,,,,,
1689140536292170100,0.0,-18.0,-15.0,3.0,-3.0,7.0,1.0,-10.0,,,,,,,,,,,,
1689140536302164500,13.0,18.0,6.0,3.0,4.0,-4.0,-7.0,-2.0,,,,,,,,,,,,
1689140536304163200,4.0,-40.0,-7.0,9.0,4.0,4.0,10.0,30.0,,,,,,,,,,,,
1689140536306162800,1.0,34.0,-7.0,-32.0,-18.0,-11.0,-3.0,-7.0,,,,,,,,,,,,
1689140536307161800,3.0,5.0,12.0,3.0,-8.0,0.0,4.0,9.0,,,,,,,,,,,,
1689140536313157200,-8.0,-59.0,-56.0,-25.0,-3.0,-7.0,-7.0,0.0,,,,,,,,,,,,
1689140536315156900,1.0,10.0,21.0,4.0,-7.0,-3.0,3.0,-7.0,,,,,,,,,,,,
1689140536328149600,10.0,21.0,9.0,0.0,20.0,14.0,-6.0,5.0,,,,,,,,,,,,
1689140536329149500,4.0,25.0,29.0,36.0,26.0,15.0,0.0,0.0,,,,,,,,,,,,
1689140536342141000,-13.0,-37.0,-29.0,6.0,4.0,4.0,3.0,2.0,,,,,,,,,,,,
1689140536344140600,3.0,22.0,4.0,25.0,-18.0,-16.0,-1.0,-19.0,,,,,,,,,,,,
1689140536351137100,8.0,-53.0,-25.0,-62.0,-2.0,9.0,2.0,30.0,,,,,,,,,,,,
1689140536353135200,-9.0,18.0,10.0,2.0,-18.0,-27.0,-14.0,-26.0,,,,,,,,,,,,
1689140536357131700,-25.0,42.0,5.0,-23.0,-6.0,11.0,6.0,5.0,,,,,,,,,,,,
1689140536359131800,4.0,-26.0,-17.0,9.0,2.0,3.0,-11.0,-17.0,,,,,,,,,,,,
1689140536365128500,2.0,-50.0,-4.0,-14.0,-36.0,-25.0,0.0,2.0,,,,,,,,,,,,
1689140536366129300,3.0,41.0,19.0,15.0,9.0,14.0,5.0,9.0,,,,,,,,,,,,
1689140536382117900,-6.0,-37.0,-6.0,8.0,5.0,3.0,5.0,-3.0,,,,,,,,,,,,
1689140536384119700,-8.0,2.0,-4.0,-10.0,6.0,4.0,-4.0,-11.0,,,,,,,,,,,,
1689140536388114800,-4.0,50.0,19.0,22.0,-9.0,-7.0,0.0,-5.0,,,,,,,,,,,,
1689140536390113300,10.0,-45.0,-25.0,-42.0,-1.0,-1.0,-4.0,13.0,,,,,,,,,,,,
1689140536395112200,7.0,19.0,12.0,8.0,-15.0,-10.0,0.0,-3.0,,,,,,,,,,,,
1689140536396116000,2.0,-23.0,-11.0,-19.0,-11.0,-7.0,2.0,-6.0,,,,,,,,,,,,
1689140536410102300,0.0,-8.0,-16.0,13.0,11.0,7.0,3.0,1.0,,,,,,,,,,,,
1689140536412100800,-3.0,-9.0,3.0,-9.0,-15.0,-15.0,-3.0,-7.0,,,,,,,,,,,,
1689140536417097800,7.0,37.0,15.0,13.0,11.0,7.0,3.0,7.0,,,,,,,,,,,,
1689140536418100000,-9.0,6.0,-6.0,-9.0,7.0,5.0,-1.0,-38.0,,,,,,,,,,,,
1689140536434091500,-5.0,-31.0,6.0,10.0,11.0,9.0,2.0,-15.0,,,,,,,,,,,,
1689140536435090800,5.0,-10.0,-12.0,1.0,0.0,0.0,5.0,24.0,,,,,,,,,,,,
1689140536437088100,9.0,17.0,7.0,1.0,-6.0,-12.0,-4.0,3.0,,,,,,,,,,,,
1689140536439088300,2.0,1.0,2.0,-10.0,7.0,5.0,5.0,6.0,,,,,,,,,,,,
1689140536448080200,0.0,-9.0,-1.0,12.0,6.0,0.0,-3.0,-12.0,,,,,,,,,,,,
1689140536450079200,0.0,7.0,2.0,-1.0,-2.0,-8.0,0.0,-2.0,,,,,,,,,,,,
1689140536458077800,2.0,6.0,-7.0,-6.0,-7.0,-2.0,-1.0,3.0,,,,,,,,,,,,
1689140536459096600,0.0,-12.0,3.0,-2.0,0.0,-3.0,2.0,1.0,,,,,,,,,,,,
1689140536471068100,-3.0,9.0,15.0,10.0,6.0,6.0,2.0,12.0,,,,,,,,,,,,
1689140536473066100,-4.0,9.0,6.0,-2.0,-10.0,-5.0,-4.0,-2.0,,,,,,,,,,,,
1689140536477078200,-1.0,13.0,-23.0,-9.0,14.0,4.0,-2.0,-4.0,,,,,,,,,,,,
1689140536479065200,-1.0,-15.0,1.0,-1.0,-1.0,-1.0,-4.0,-4.0,,,,,,,,,,,,
1689140536494053600,0.0,11.0,33.0,3.0,-2.0,-2.0,2.0,2.0,,,,,,,,,,,,
1689140536495055900,-3.0,3.0,6.0,1.0,-3.0,-2.0,-2.0,-1.0,,,,,,,,,,,,
1689140536497055100,-17.0,-12.0,3.0,-3.0,-7.0,-1.0,0.0,-42.0,,,,,,,,,,,,
1689140536498052000,-4.0,4.0,-11.0,2.0,3.0,-2.0,2.0,-2.0,,,,,,,,,,,,
1689140536508046400,1.0,16.0,1.0,0.0,1.0,-3.0,-6.0,1.0,,,,,,,,,,,,
1689140536509046300,-7.0,-27.0,-20.0,3.0,4.0,2.0,-2.0,14.0,,,,,,,,,,,,
1689140536515044400,23.0,1.0,6.0,13.0,5.0,2.0,0.0,-6.0,,,,,,,,,,,,
1689140536516042700,-12.0,47.0,-1.0,3.0,7.0,3.0,1.0,0.0,,,,,,,,,,,,
1689140536534032600,2.0,-31.0,-4.0,-23.0,-6.0,-7.0,-1.0,-6.0,,,,,,,,,,,,
1689140536535033500,-5.0,-11.0,-13.0,-18.0,-4.0,3.0,0.0,-5.0,,,,,,,,,,,,
1689140536537029200,-7.0,-6.0,-43.0,6.0,1.0,1.0,1.0,7.0,,,,,,,,,,,,
1689140536538030600,0.0,8.0,57.0,23.0,6.0,-1.0,-4.0,-3.0,,,,,,,,,,,,
1689140536554021700,-5.0,4.0,7.0,19.0,-2.0,-2.0,-2.0,-2.0,,,,,,,,,,,,
1689140536555021800,12.0,7.0,15.0,18.0,4.0,2.0,5.0,-16.0,,,,,,,,,,,,
1689140536556021100,29.0,0.0,-23.0,-64.0,-14.0,-3.0,0.0,20.0,,,,,,,,,,,,
1689140536557020200,6.0,-1.0,-29.0,-19.0,-3.0,2.0,0.0,0.0,,,,,,,,,,,,
1689140536568014700,4.0,-28.0,-23.0,-2.0,-3.0,-3.0,-4.0,2.0,,,,,,,,,,,,
1689140536569012000,-3.0,4.0,8.0,6.0,3.0,1.0,-1.0,-11.0,,,,,,,,,,,,
1689140536575007800,-9.0,-6.0,18.0,13.0,-1.0,0.0,0.0,1.0,,,,,,,,,,,,
1689140536576030300,14.0,33.0,-13.0,-11.0,-3.0,0.0,0.0,32.0,,,,,,,,,,,,
1689140536590998400,-20.0,-5.0,4.0,8.0,-2.0,-3.0,2.0,-23.0,,,,,,,,,,,,
1689140536591998900,-8.0,7.0,-3.0,1.0,4.0,2.0,3.0,-1.0,,,,,,,,,,,,
1689140536596994200,3.0,-3.0,1.0,8.0,-2.0,-5.0,-3.0,19.0,,,,,,,,,,,,
1689140536598017000,-9.0,-14.0,-15.0,-16.0,-5.0,0.0,-1.0,-8.0,,,,,,,,,,,,
1689140536613985400,6.0,27.0,84.0,26.0,4.0,2.0,0.0,1.0,,,,,,,,,,,,
1689140536614987700,5.0,-23.0,-24.0,-6.0,-2.0,0.0,-2.0,-25.0,,,,,,,,,,,,
1689140536616987000,-21.0,33.0,-1.0,4.0,0.0,-1.0,-1.0,39.0,,,,,,,,,,,,
1689140536617986800,53.0,-13.0,-7.0,-8.0,-1.0,-1.0,-1.0,-24.0,,,,,,,,,,,,
1689140536627976800,-21.0,8.0,-23.0,1.0,-4.0,0.0,6.0,43.0,,,,,,,,,,,,
1689140536628977400,36.0,-19.0,30.0,-1.0,1.0,2.0,-7.0,-64.0,,,,,,,,,,,,
1689140536634973100,-7.0,30.0,12.0,-4.0,-2.0,0.0,7.0,20.0,,,,,,,,,,,,
1689140536635972900,-6.0,-13.0,-14.0,0.0,0.0,2.0,1.0,2.0,,,,,,,,,,,,
1689140536650965400,2.0,15.0,-22.0,-6.0,-8.0,-7.0,0.0,18.0,,,,,,,,,,,,
1689140536651986100,-2.0,-49.0,-20.0,-8.0,0.0,-4.0,-5.0,4.0,,,,,,,,,,,,
1689140536656983800,-18.0,12.0,10.0,16.0,4.0,3.0,0.0,-14.0,,,,,,,,,,,,
1689140536658962300,-6.0,-17.0,7.0,-6.0,-4.0,-3.0,-2.0,5.0,,,,,,,,,,,,
1689140536673951100,19.0,3.0,-22.0,3.0,-1.0,0.0,-5.0,-14.0,,,,,,,,,,,,
1689140536675951000,-7.0,13.0,1.0,-20.0,-5.0,-5.0,2.0,26.0,,,,,,,,,,,,
1689140536676951700,-6.0,-20.0,7.0,10.0,8.0,1.0,-1.0,1.0,0.802057564,-0.248996973,10.65180302,0.106052071,0.011990812,-0.016520673,-0.270544797,0.311246216,9.241618156,-0.104186833,0.022382848,-0.011457887
1689140536677952600,-87.0,-17.0,-22.0,-9.0,-6.0,-4.0,22.0,96.0,,,,,,,,,,,,
1689140536686943800,-5.0,5.0,11.0,3.0,4.0,4.0,-6.0,-42.0,,,,,,,,,,,,
1689140536688942800,-19.0,6.0,0.0,11.0,1.0,2.0,13.0,81.0,,,,,,,,,,,,
1689140536695938300,-6.0,-19.0,5.0,8.0,6.0,1.0,-9.0,-38.0,,,,,,,,,,,,
1689140536696941000,12.0,16.0,-19.0,-6.0,0.0,-3.0,-1.0,6.0,,,,,,,,,,,,
1689140536710932100,5.0,-3.0,-60.0,-10.0,0.0,2.0,-1.0,13.0,,,,,,,,,,,,
1689140536711931800,-9.0,12.0,28.0,5.0,-2.0,-1.0,-2.0,15.0,,,,,,,,,,,,
1689140536716948200,-9.0,-17.0,2.0,-2.0,-1.0,1.0,2.0,5.0,,,,,,,,,,,,
1689140536717928600,47.0,11.0,17.0,11.0,0.0,0.0,-5.0,-9.0,,,,,,,,,,,,
1689140536733916500,-12.0,26.0,6.0,0.0,0.0,0.0,0.0,-34.0,,,,,,,,,,,,
1689140536734938900,47.0,12.0,-14.0,-4.0,-1.0,-1.0,-1.0,-10.0,,,,,,,,,,,,
1689140536736917700,15.0,-5.0,-18.0,-9.0,-2.0,0.0,-2.0,-17.0,,,,,,,,,,,,
1689140536737915700,-1.0,5.0,33.0,3.0,-1.0,-3.0,-10.0,-61.0,,,,,,,,,,,,
1689140536746909500,16.0,5.0,-3.0,-1.0,6.0,8.0,3.0,13.0,,,,,,,,,,,,
1689140536748909200,-38.0,1.0,10.0,-2.0,-2.0,-3.0,-5.0,-24.0,,,,,,,,,,,,
1689140536755905200,-10.0,-18.0,-4.0,7.0,-2.0,-4.0,-9.0,-88.0,,,,,,,,,,,,
1689140536757904100,0.0,-6.0,5.0,13.0,1.0,-2.0,-1.0,11.0,,,,,,,,,,,,
1689140536770899700,-5.0,-5.0,-18.0,-22.0,4.0,0.0,3.0,8.0,,,,,,,,,,,,
1689140536771917200,-8.0,20.0,31.0,0.0,0.0,1.0,-5.0,-12.0,,,,,,,,,,,,
1689140536776891100,3.0,-11.0,10.0,-4.0,-4.0,-2.0,3.0,25.0,,,,,,,,,,,,
1689140536778890800,-22.0,-14.0,-6.0,5.0,1.0,0.0,-4.0,-24.0,,,,,,,,,,,,
1689140536793884800,0.0,0.0,-12.0,5.0,-1.0,0.0,-3.0,-25.0,,,,,,,,,,,,
1689140536795882700,-7.0,-8.0,-16.0,-1.0,-1.0,-1.0,-13.0,-67.0,,,,,,,,,,,,
1689140536796882200,4.0,-2.0,3.0,0.0,1.0,0.0,1.0,19.0,,,,,,,,,,,,
1689140536797881400,-13.0,2.0,0.0,-10.0,2.0,2.0,-2.0,11.0,,,,,,,,,,,,
1689140536806873800,8.0,-23.0,29.0,9.0,-4.0,-6.0,-5.0,-10.0,,,,,,,,,,,,
1689140536808880500,-6.0,19.0,-11.0,-11.0,-1.0,-4.0,1.0,30.0,,,,,,,,,,,,
1689140536816875100,-13.0,15.0,5.0,1.0,-5.0,1.0,6.0,17.0,0.797269166,-0.256179571,10.6446209,0.106052071,0.011990812,-0.016254211,-0.268150598,0.313640416,9.255983353,-0.104186833,0.022382848,-0.011724349
1689140536817875000,6.0,1.0,0.0,4.0,6.0,7.0,-3.0,-4.0,,,,,,,,,,,,
1689140536829867000,-15.0,-14.0,-10.0,-8.0,-1.0,-2.0,7.0,37.0,,,,,,,,,,,,
1689140536831867000,-8.0,-7.0,-8.0,6.0,2.0,-2.0,-9.0,-26.0,,,,,,,,,,,,
1689140536836865400,20.0,-3.0,-5.0,-3.0,-1.0,-3.0,-1.0,20.0,,,,,,,,,,,,
1689140536838862800,19.0,59.0,13.0,-5.0,-7.0,-4.0,-1.0,-2.0,,,,,,,,,,,,
1689140536853855200,-18.0,-11.0,-8.0,-2.0,2.0,0.0,-4.0,-32.0,,,,,,,,,,,,
1689140536854854000,-20.0,0.0,20.0,6.0,1.0,2.0,10.0,39.0,,,,,,,,,,,,
1689140536856856400,28.0,7.0,2.0,0.0,0.0,-2.0,-3.0,-13.0,,,,,,,,,,,,
1689140536857852500,5.0,-30.0,-9.0,-8.0,-6.0,-2.0,1.0,-10.0,,,,,,,,,,,,
1689140536867845700,16.0,17.0,5.0,1.0,0.0,-2.0,-1.0,-11.0,,,,,,,,,,,,
1689140536869844700,-33.0,4.0,-11.0,-2.0,0.0,3.0,4.0,33.0,,,,,,,,,,,,
1689140536874842800,45.0,-14.0,-9.0,-3.0,-1.0,-2.0,-11.0,-83.0,,,,,,,,,,,,
1689140536875842700,-6.0,-13.0,4.0,2.0,-2.0,-1.0,24.0,71.0,,,,,,,,,,,,
1689140536898828200,24.0,-3.0,21.0,9.0,4.0,3.0,-4.0,73.0,,,,,,,,,,,,
1689140536899828600,18.0,-17.0,-16.0,-3.0,-2.0,-1.0,4.0,37.0,,,,,,,,,,,,
1689140536901827200,-23.0,2.0,0.0,-2.0,-1.0,-2.0,2.0,30.0,,,,,,,,,,,,
1689140536902834900,7.0,-12.0,-7.0,-1.0,2.0,3.0,2.0,-4.0,,,,,,,,,,,,
1689140536913906000,0.0,39.0,6.0,5.0,-1.0,-3.0,-4.0,-55.0,,,,,,,,,,,,
1689140536915905500,-7.0,-27.0,-15.0,-7.0,-2.0,-1.0,0.0,20.0,,,,,,,,,,,,
1689140536916904500,-11.0,-11.0,11.0,13.0,6.0,0.0,3.0,23.0,,,,,,,,,,,,
1689140536918904400,-7.0,20.0,0.0,-14.0,-5.0,0.0,-4.0,-9.0,,,,,,,,,,,,
1689140536927899100,-12.0,-25.0,-7.0,-4.0,-6.0,-6.0,-1.0,20.0,,,,,,,,,,,,
1689140536928897300,17.0,7.0,-10.0,6.0,1.0,0.0,-15.0,-66.0,,,,,,,,,,,,
1689140536935892800,-22.0,-12.0,3.0,-2.0,-2.0,-2.0,-4.0,-17.0,,,,,,,,,,,,
1689140536937892400,9.0,-25.0,3.0,2.0,2.0,1.0,13.0,93.0,,,,,,,,,,,,
1689140536950884000,2.0,-3.0,-11.0,-2.0,2.0,3.0,-12.0,-29.0,,,,,,,,,,,,
1689140536951884500,10.0,18.0,16.0,0.0,-3.0,-1.0,6.0,10.0,,,,,,,,,,,,
1689140536956880600,-21.0,10.0,-13.0,-4.0,-3.0,-2.0,-1.0,25.0,,,,,,,,,,,,
1689140536958881600,-2.0,-3.0,4.0,1.0,-1.0,-4.0,-11.0,-42.0,,,,,,,,,,,,
1689140536972872000,-4.0,-6.0,-3.0,-9.0,-2.0,0.0,4.0,-44.0,,,,,,,,,,,,
1689140536973871800,-5.0,-4.0,-19.0,2.0,3.0,1.0,2.0,-7.0,,,,,,,,,,,,
1689140536982866500,-8.0,14.0,25.0,20.0,0.0,0.0,2.0,-1.0,,,,,,,,,,,,
1689140536983867700,-16.0,-19.0,-25.0,-23.0,1.0,2.0,-6.0,-18.0,,,,,,,,,,,,
1689140536987866100,-31.0,22.0,21.0,13.0,-5.0,-7.0,-9.0,-8.0,,,,,,,,,,,,
1689140536989861900,3.0,-2.0,-43.0,-14.0,-3.0,0.0,-3.0,-24.0,,,,,,,,,,,,
1689140536996859400,-11.0,9.0,15.0,-2.0,3.0,2.0,4.0,21.0,,,,,,,,,,,,
1689140536998858000,35.0,-2.0,8.0,14.0,0.0,-2.0,-7.0,-22.0,,,,,,,,,,,,
1689140537010563000,-3.0,-11.0,-36.0,-7.0,1.0,4.0,6.0,35.0,,,,,,,,,,,,
1689140537013562100,1.0,-2.0,21.0,3.0,0.0,-4.0,-2.0,13.0,,,,,,,,,,,,
1689140537017559600,-22.0,28.0,20.0,7.0,-2.0,-2.0,1.0,22.0,,,,,,,,,,,,
1689140537019559200,-17.0,-12.0,-17.0,1.0,2.0,1.0,-5.0,-24.0,,,,,,,,,,,,
1689140537033549300,-2.0,17.0,9.0,-2.0,-2.0,1.0,1.0,14.0,,,,,,,,,,,,
1689140537034549200,17.0,4.0,-18.0,1.0,0.0,-1.0,0.0,52.0,,,,,,,,,,,,
1689140537036550400,7.0,-18.0,-10.0,-10.0,-1.0,0.0,-1.0,-94.0,,,,,,,,,,,,
1689140537037548500,-31.0,30.0,18.0,5.0,-6.0,-7.0,-6.0,-31.0,,,,,,,,,,,,
1689140537047543100,15.0,-14.0,-8.0,-12.0,1.0,0.0,-2.0,18.0,,,,,,,,,,,,
1689140537048542600,-2.0,39.0,14.0,6.0,0.0,1.0,4.0,-3.0,,,,,,,,,,,,
1689140537056536100,11.0,31.0,24.0,-6.0,-1.0,2.0,-4.0,8.0,,,,,,,,,,,,
1689140537057536500,-24.0,-5.0,3.0,-1.0,2.0,-1.0,2.0,12.0,,,,,,,,,,,,
1689140537073528300,33.0,-12.0,-20.0,5.0,-1.0,3.0,-1.0,-2.0,,,,,,,,,,,,
1689140537075526000,-4.0,5.0,10.0,0.0,2.0,3.0,0.0,-23.0,,,,,,,,,,,,
1689140537077525100,3.0,-27.0,-32.0,-10.0,-6.0,-4.0,2.0,44.0,,,,,,,,,,,,
1689140537078523500,-23.0,-20.0,22.0,6.0,0.0,-1.0,-5.0,-31.0,,,,,,,,,,,,
1689140537093516700,-1.0,2.0,4.0,-2.0,2.0,0.0,9.0,20.0,,,,,,,,,,,,
1689140537095514200,-11.0,-9.0,18.0,4.0,0.0,-1.0,-2.0,-4.0,,,,,,,,,,,,
1689140537096514500,30.0,-27.0,-22.0,2.0,-2.0,-3.0,2.0,48.0,,,,,,,,,,,,
1689140537097514400,-21.0,7.0,-17.0,-8.0,-1.0,0.0,-6.0,-54.0,,,,,,,,,,,,
1689140537107507400,-8.0,-8.0,11.0,-9.0,-7.0,-4.0,-2.0,10.0,,,,,,,,,,,,
1689140537108508500,5.0,-23.0,4.0,6.0,1.0,0.0,3.0,5.0,,,,,,,,,,,,
1689140537116501900,1.0,-19.0,-3.0,-2.0,1.0,0.0,3.0,56.0,,,,,,,,,,,,
1689140537117501600,15.0,23.0,2.0,8.0,3.0,1.0,-1.0,-35.0,,,,,,,,,,,,
1689140537130493900,-2.0,0.0,-6.0,1.0,-1.0,-1.0,-3.0,-25.0,,,,,,,,,,,,
1689140537132492500,-27.0,-3.0,-10.0,-8.0,-5.0,-3.0,1.0,16.0,,,,,,,,,,,,
1689140537137491500,-5.0,-29.0,3.0,1.0,4.0,4.0,-3.0,-5.0,,,,,,,,,,,,
1689140537138491100,19.0,0.0,-12.0,0.0,-4.0,-4.0,1.0,22.0,,,,,,,,,,,,
1689140537153481600,-2.0,-6.0,5.0,-5.0,0.0,4.0,4.0,24.0,,,,,,,,,,,,
1689140537155481000,1.0,-15.0,7.0,6.0,1.0,-1.0,-1.0,-17.0,,,,,,,,,,,,
1689140537156480800,24.0,16.0,-11.0,-8.0,-2.0,0.0,1.0,-8.0,,,,,,,,,,,,
1689140537157487900,5.0,-5.0,6.0,3.0,0.0,2.0,4.0,66.0,,,,,,,,,,,,
1689140537167473000,-1.0,-5.0,-19.0,-17.0,-4.0,-4.0,-5.0,-32.0,,,,,,,,,,,,
1689140537168473900,14.0,20.0,17.0,17.0,1.0,1.0,1.0,33.0,,,,,,,,,,,,
1689140537176467600,-12.0,-5.0,-16.0,-20.0,-12.0,-8.0,-5.0,-58.0,,,,,,,,,,,,
1689140537177467300,8.0,29.0,24.0,-6.0,-1.0,3.0,-1.0,35.0,,,,,,,,,,,,
1689140537190460400,8.0,-8.0,20.0,12.0,1.0,-3.0,1.0,28.0,,,,,,,,,,,,
1689140537192459400,0.0,3.0,-9.0,-10.0,-2.0,-3.0,-2.0,-39.0,,,,,,,,,,,,
1689140537213450800,-3.0,1.0,-2.0,5.0,3.0,1.0,0.0,-17.0,,,,,,,,,,,,
1689140537215445900,-2.0,-18.0,-2.0,5.0,3.0,3.0,-1.0,0.0,,,,,,,,,,,,
1689140537217460300,-4.0,9.0,0.0,1.0,2.0,2.0,0.0,-9.0,,,,,,,,,,,,
1689140537218446100,7.0,-19.0,-11.0,-6.0,-4.0,-4.0,-2.0,-6.0,0.797269166,-0.253785372,10.65180302,0.106584989,0.012523737,-0.016520673,-0.280121595,0.311246216,9.239224434,-0.104186833,0.021849923,-0.011457887
1689140537220443400,-8.0,-10.0,26.0,9.0,3.0,-2.0,-3.0,0.0,,,,,,,,,,,,
1689140537221464200,6.0,-20.0,-11.0,-2.0,0.0,-2.0,-4.0,-19.0,,,,,,,,,,,,
1689140537227438300,14.0,25.0,14.0,7.0,-2.0,-1.0,-1.0,17.0,,,,,,,,,,,,
1689140537228439600,19.0,-14.0,-40.0,-19.0,-3.0,0.0,2.0,74.0,,,,,,,,,,,,
1689140537236433600,18.0,6.0,0.0,-1.0,-1.0,0.0,-8.0,-60.0,,,,,,,,,,,,
1689140537237433300,-15.0,-18.0,-4.0,5.0,10.0,2.0,-3.0,-19.0,,,,,,,,,,,,
1689140537250425300,-14.0,45.0,9.0,0.0,-3.0,-2.0,-2.0,-8.0,,,,,,,,,,,,
1689140537251424800,6.0,4.0,5.0,2.0,-1.0,-1.0,1.0,19.0,,,,,,,,,,,,
1689140537257421300,-6.0,19.0,-3.0,-1.0,1.0,3.0,-1.0,-42.0,,,,,,,,,,,,
1689140537258422400,2.0,-37.0,-3.0,2.0,-3.0,-3.0,0.0,8.0,,,,,,,,,,,,
1689140537273414400,-2.0,-19.0,-7.0,2.0,1.0,-1.0,-3.0,-6.0,,,,,,,,,,,,
1689140537274414300,-25.0,22.0,10.0,0.0,4.0,3.0,6.0,-24.0,,,,,,,,,,,,
1689140537279431400,-7.0,1.0,-2.0,1.0,-2.0,-3.0,2.0,20.0,,,,,,,,,,,,
1689140537281410500,0.0,12.0,-17.0,-12.0,-2.0,-3.0,0.0,4.0,,,,,,,,,,,,
1689140537288408500,-9.0,-69.0,6.0,5.0,2.0,2.0,1.0,3.0,,,,,,,,,,,,
1689140537289405200,0.0,1.0,7.0,2.0,1.0,1.0,-3.0,-41.0,,,,,,,,,,,,
1689140537296399700,2.0,-12.0,-14.0,2.0,-1.0,1.0,2.0,1.0,,,,,,,,,,,,
1689140537297420500,18.0,-15.0,-62.0,-13.0,-6.0,-2.0,2.0,3.0,,,,,,,,,,,,
1689140537310390700,-29.0,24.0,64.0,3.0,3.0,4.0,6.0,17.0,,,,,,,,,,,,
1689140537312390600,14.0,37.0,16.0,12.0,-3.0,-9.0,-17.0,-57.0,,,,,,,,,,,,
1689140537317390200,-9.0,3.0,-15.0,-1.0,3.0,2.0,-1.0,-14.0,,,,,,,,,,,,
1689140537318409200,13.0,13.0,20.0,10.0,1.0,-1.0,0.0,19.0,,,,,,,,,,,,
1689140537332379200,-3.0,-5.0,-48.0,-19.0,1.0,1.0,1.0,11.0,,,,,,,,,,,,
1689140537334399400,-21.0,-24.0,-17.0,7.0,0.0,2.0,2.0,0.0,,,,,,,,,,,,
1689140537340373600,-10.0,10.0,27.0,-10.0,-4.0,-1.0,-1.0,4.0,,,,,,,,,,,,
1689140537341374200,-8.0,-3.0,-14.0,-21.0,-6.0,-3.0,-3.0,-6.0,,,,,,,,,,,,
1689140537356364600,17.0,0.0,8.0,7.0,-1.0,-2.0,-2.0,-3.0,,,,,,,,,,,,
1689140537360368800,-9.0,-8.0,2.0,-3.0,3.0,4.0,-1.0,3.0,,,,,,,,,,,,
1689140537364376100,0.0,6.0,-3.0,6.0,2.0,-1.0,-2.0,42.0,,,,,,,,,,,,
1689140537365363400,12.0,-29.0,-4.0,2.0,-6.0,-5.0,0.0,-11.0,,,,,,,,,,,,
1689140537370379200,-13.0,29.0,-11.0,-5.0,-10.0,-3.0,0.0,-5.0,,,,,,,,,,,,
1689140537372357200,4.0,-4.0,20.0,3.0,2.0,0.0,-4.0,-1.0,,,,,,,,,,,,
1689140537377352500,-16.0,10.0,-15.0,-7.0,7.0,7.0,0.0,16.0,,,,,,,,,,,,
1689140537378356200,0.0,-1.0,27.0,9.0,5.0,3.0,-1.0,-7.0,,,,,,,,,,,,
1689140537392343300,3.0,-32.0,-10.0,16.0,2.0,-5.0,-1.0,-9.0,,,,,,,,,,,,
1689140537394347200,0.0,-32.0,-21.0,-22.0,1.0,6.0,4.0,6.0,,,,,,,,,,,,
1689140537400341800,11.0,12.0,-2.0,-20.0,-31.0,-16.0,-2.0,29.0,,,,,,,,,,,,
1689140537401341600,-25.0,29.0,10.0,-44.0,-39.0,-9.0,-4.0,-45.0,,,,,,,,,,,,
1689140537416330300,9.0,-8.0,-4.0,81.0,53.0,21.0,2.0,-4.0,,,,,,,,,,,,
1689140537418330500,-15.0,-10.0,5.0,7.0,17.0,2.0,-3.0,-5.0,,,,,,,,,,,,
1689140537419329600,13.0,-8.0,-4.0,-18.0,-3.0,-3.0,-1.0,24.0,,,,,,,,,,,,
1689140537420343200,0.0,36.0,-6.0,-86.0,-62.0,-13.0,-4.0,2.0,,,,,,,,,,,,
1689140537438320300,-26.0,24.0,-6.0,13.0,-28.0,-10.0,-2.0,-3.0,,,,,,,,,,,,
1689140537440316900,27.0,-32.0,-1.0,-7.0,26.0,9.0,0.0,1.0,,,,,,,,,,,,
1689140537442315900,-16.0,16.0,13.0,58.0,25.0,8.0,2.0,-11.0,,,,,,,,,,,,
1689140537443314800,17.0,-5.0,-4.0,28.0,9.0,-5.0,-8.0,1.0,,,,,,,,,,,,
1689140537453312300,58.0,9.0,-4.0,-48.0,-30.0,-6.0,7.0,26.0,,,,,,,,,,,,
1689140537454309100,-17.0,-11.0,-10.0,-31.0,-30.0,-14.0,-10.0,-4.0,,,,,,,,,,,,
1689140537459304800,-19.0,-4.0,-12.0,-25.0,-27.0,-11.0,-3.0,-4.0,,,,,,,,,,,,
1689140537461304000,17.0,-1.0,-6.0,-55.0,-12.0,-2.0,-4.0,-6.0,,,,,,,,,,,,
1689140537476296200,-86.0,4.0,16.0,54.0,27.0,10.0,7.0,-4.0,,,,,,,,,,,,
1689140537477317300,33.0,-12.0,-5.0,17.0,8.0,0.0,-2.0,-12.0,,,,,,,,,,,,
1689140537478298300,32.0,20.0,0.0,-19.0,-4.0,0.0,3.0,23.0,,,,,,,,,,,,
1689140537479295300,-15.0,-9.0,1.0,34.0,18.0,6.0,7.0,-6.0,,,,,,,,,,,,
1689140537498285900,8.0,-16.0,1.0,-30.0,-14.0,-3.0,-14.0,-11.0,,,,,,,,,,,,
1689140537500283000,-9.0,12.0,-15.0,-24.0,-17.0,-14.0,-19.0,-4.0,,,,,,,,,,,,
1689140537501303600,-5.0,-19.0,-9.0,-37.0,-21.0,-2.0,23.0,15.0,,,,,,,,,,,,
1689140537502281900,-69.0,6.0,1.0,36.0,6.0,6.0,6.0,-7.0,,,,,,,,,,,,
1689140537513275900,81.0,-8.0,-10.0,-9.0,20.0,-2.0,-9.0,13.0,,,,,,,,,,,,
1689140537515275800,-54.0,25.0,11.0,12.0,2.0,8.0,-2.0,-19.0,,,,,,,,,,,,
1689140537519270900,96.0,-5.0,-4.0,0.0,0.0,-5.0,7.0,-1.0,,,,,,,,,,,,
1689140537521270100,-57.0,-33.0,-4.0,1.0,4.0,2.0,14.0,27.0,,,,,,,,,,,,
1689140537535262900,-68.0,-43.0,-7.0,-20.0,-10.0,-7.0,-22.0,-40.0,,,,,,,,,,,,
1689140537536263900,-27.0,42.0,4.0,-2.0,-11.0,-6.0,12.0,12.0,,,,,,,,,,,,
1689140537543258000,56.0,6.0,-1.0,-12.0,-7.0,1.0,-4.0,-25.0,,,,,,,,,,,,
1689140537545258000,41.0,30.0,22.0,77.0,56.0,14.0,-11.0,11.0,,,,,,,,,,,,
1689140537549254700,0.0,-49.0,-13.0,-14.0,-18.0,-10.0,31.0,32.0,,,,,,,,,,,,
1689140537551253000,96.0,-1.0,-31.0,-61.0,-35.0,-26.0,-69.0,-9.0,,,,,,,,,,,,
1689140537582237700,-125.0,-25.0,-9.0,-88.0,-77.0,5.0,-39.0,-37.0,,,,,,,,,,,,
1689140537583237200,23.0,54.0,86.0,95.0,94.0,39.0,32.0,-32.0,,,,,,,,,,,,
1689140537584237700,66.0,-34.0,10.0,-12.0,29.0,28.0,44.0,72.0,,,,,,,,,,,,
1689140537585255600,-74.0,32.0,16.0,-13.0,-10.0,15.0,51.0,2.0,,,,,,,,,,,,
1689140537586254800,34.0,50.0,-2.0,-31.0,-16.0,-23.0,-44.0,-26.0,,,,,,,,,,,,
1689140537588232200,-65.0,-75.0,-51.0,-82.0,-69.0,-41.0,-32.0,-39.0,,,,,,,,,,,,
1689140537597229000,86.0,-12.0,2.0,-22.0,-17.0,5.0,-18.0,57.0,,,,,,,,,,,,
1689140537599225900,-35.0,-19.0,-13.0,57.0,48.0,-11.0,19.0,19.0,,,,,,,,,,,,
1689140537601226800,92.0,12.0,9.0,34.0,24.0,15.0,5.0,-17.0,,,,,,,,,,,,
1689140537602226400,-50.0,-34.0,-31.0,-36.0,-13.0,-1.0,-14.0,-42.0,,,,,,,,,,,,
1689140537610219200,-128.0,8.0,-7.0,-12.0,-9.0,-24.0,-68.0,-128.0,,,,,,,,,,,,
1689140537611219000,-13.0,10.0,6.0,1.0,-12.0,21.0,72.0,-13.0,,,,,,,,,,,,
1689140537619214800,65.0,-64.0,-2.0,5.0,3.0,-23.0,-18.0,82.0,,,,,,,,,,,,
1689140537621213500,123.0,86.0,-1.0,12.0,7.0,7.0,47.0,65.0,,,,,,,,,,,,
1689140537633206700,-83.0,18.0,-1.0,-8.0,3.0,10.0,-33.0,-34.0,,,,,,,,,,,,
1689140537635205700,121.0,-65.0,-11.0,-4.0,-17.0,-16.0,-20.0,18.0,,,,,,,,,,,,
1689140537647200300,-128.0,19.0,25.0,65.0,52.0,17.0,-4.0,38.0,,,,,,,,,,,,
1689140537649197700,-69.0,54.0,3.0,-75.0,-32.0,7.0,-9.0,-65.0,,,,,,,,,,,,
1689140537656194500,124.0,8.0,-16.0,90.0,12.0,-40.0,35.0,86.0,,,,,,,,,,,,
1689140537658192400,-128.0,39.0,42.0,12.0,27.0,34.0,-18.0,-108.0,,,,,,,,,,,,
1689140537660190700,112.0,-5.0,-5.0,36.0,25.0,0.0,-26.0,83.0,,,,,,,,,,,,
1689140537661189800,-80.0,-75.0,-48.0,-35.0,-13.0,13.0,75.0,71.0,,,,,,,,,,,,
1689140537670184900,13.0,33.0,1.0,-77.0,-45.0,-22.0,-70.0,-9.0,,,,,,,,,,,,
1689140537672183500,-75.0,63.0,12.0,-2.0,-11.0,8.0,26.0,10.0,,,,,,,,,,,,
1689140537678180000,-118.0,-54.0,-6.0,45.0,26.0,8.0,-44.0,-32.0,,,,,,,,,,,,
1689140537680179100,115.0,32.0,15.0,-12.0,11.0,-9.0,-21.0,-42.0,,,,,,,,,,,,
1689140537693171500,28.0,-40.0,-12.0,9.0,-7.0,-15.0,8.0,-73.0,,,,,,,,,,,,
1689140537695171900,70.0,10.0,-11.0,-25.0,-19.0,11.0,83.0,90.0,,,,,,,,,,,,
1689140537700168300,19.0,-17.0,15.0,-13.0,-3.0,25.0,-26.0,-22.0,,,,,,,,,,,,
1689140537701169500,-78.0,-5.0,-21.0,-17.0,-24.0,-11.0,45.0,2.0,,,,,,,,,,,,
1689140537723155200,-91.0,5.0,8.0,10.0,20.0,23.0,-21.0,56.0,,,,,,,,,,,,
1689140537725153300,37.0,12.0,26.0,12.0,1.0,-11.0,-13.0,-34.0,,,,,,,,,,,,
1689140537727152900,20.0,-48.0,-11.0,7.0,2.0,-31.0,-31.0,35.0,,,,,,,,,,,,
1689140537728152500,67.0,-11.0,5.0,10.0,-28.0,-28.0,21.0,69.0,,,,,,,,,,,,
1689140537730150700,127.0,95.0,29.0,5.0,8.0,39.0,19.0,82.0,,,,,,,,,,,,
1689140537731149700,-84.0,-67.0,-10.0,27.0,40.0,5.0,7.0,-39.0,,,,,,,,,,,,
1689140537739147000,-38.0,63.0,3.0,-22.0,-30.0,-21.0,-45.0,-95.0,,,,,,,,,,,,
1689140537740146100,86.0,-7.0,-14.0,-94.0,-41.0,-19.0,42.0,57.0,,,,,,,,,,,,
1689140537753137200,-40.0,-8.0,-2.0,66.0,-1.0,13.0,27.0,-40.0,,,,,,,,,,,,
1689140537755138200,85.0,64.0,84.0,94.0,93.0,27.0,-59.0,63.0,,,,,,,,,,,,
1689140537760134200,45.0,2.0,5.0,-97.0,-20.0,-21.0,20.0,-31.0,,,,,,,,,,,,
1689140537761133300,93.0,17.0,8.0,20.0,55.0,25.0,-58.0,-16.0,,,,,,,,,,,,
1689140537784119700,-20.0,-59.0,-83.0,-128.0,-124.0,-69.0,-50.0,-115.0,,,,,,,,,,,,
1689140537786118900,19.0,-54.0,-44.0,-128.0,-118.0,-47.0,-5.0,-7.0,,,,,,,,,,,,
1689140537789116600,30.0,-16.0,11.0,108.0,71.0,18.0,16.0,12.0,,,,,,,,,,,,
1689140537791116500,-30.0,30.0,18.0,5.0,-9.0,2.0,8.0,-44.0,,,,,,,,,,,,
1689140537792115100,-56.0,-7.0,5.0,-55.0,8.0,6.0,-1.0,-16.0,,,,,,,,,,,,
1689140537794114800,-1.0,0.0,-88.0,-80.0,-86.0,-33.0,-37.0,8.0,,,,,,,,,,,,
1689140537806108500,-100.0,41.0,28.0,-121.0,-37.0,28.0,107.0,34.0,,,,,,,,,,,,
1689140537808106000,-128.0,-46.0,82.0,109.0,86.0,15.0,-78.0,-53.0,,,,,,,,,,,,
1689140537813102400,77.0,-20.0,-71.0,-105.0,-5.0,2.0,57.0,1.0,,,,,,,,,,,,
1689140537815103900,127.0,34.0,-79.0,-107.0,-84.0,-12.0,23.0,93.0,,,,,,,,,,,,
1689140537821098700,-100.0,-17.0,72.0,76.0,68.0,32.0,16.0,-47.0,,,,,,,,,,,,
1689140537823099500,-28.0,45.0,24.0,20.0,45.0,45.0,25.0,65.0,,,,,,,,,,,,
1689140537836091300,111.0,-34.0,-54.0,-54.0,-29.0,-19.0,1.0,-30.0,,,,,,,,,,,,
1689140537838089700,25.0,5.0,63.0,58.0,56.0,10.0,-28.0,1.0,,,,,,,,,,,,
1689140537841088800,12.0,46.0,46.0,43.0,69.0,54.0,52.0,-13.0,,,,,,,,,,,,
1689140537842086500,-44.0,14.0,-82.0,-81.0,-105.0,-68.0,-42.0,21.0,,,,,,,,,,,,
1689140537850083300,-2.0,31.0,127.0,58.0,78.0,43.0,5.0,16.0,,,,,,,,,,,,
1689140537851080900,30.0,-69.0,-123.0,-128.0,-99.0,-10.0,-5.0,-8.0,,,,,,,,,,,,
1689140537859076500,-27.0,-35.0,42.0,124.0,80.0,23.0,17.0,7.0,,,,,,,,,,,,
1689140537860077100,-3.0,12.0,-2.0,-66.0,-64.0,-11.0,-2.0,13.0,,,,,,,,,,,,
1689140537881063500,-68.0,28.0,-67.0,21.0,-90.0,-51.0,-18.0,-6.0,,,,,,,,,,,,
1689140537883063700,10.0,31.0,-88.0,-66.0,-72.0,-44.0,-16.0,-34.0,,,,,,,,,,,,
1689140537885062900,-53.0,22.0,84.0,84.0,63.0,36.0,-7.0,-39.0,,,,,,,,,,,,
1689140537886062300,127.0,-19.0,-17.0,-18.0,-6.0,24.0,4.0,-23.0,,,,,,,,,,,,
1689140537896055500,-9.0,-51.0,-48.0,-74.0,-66.0,-32.0,-4.0,31.0,,,,,,,,,,,,
1689140537898054100,15.0,3.0,80.0,84.0,74.0,28.0,5.0,6.0,,,,,,,,,,,,
1689140537900054200,-1.0,-11.0,-128.0,-128.0,-113.0,-57.0,-17.0,-9.0,,,,,,,,,,,,
1689140537902052700,71.0,-60.0,-73.0,-83.0,-88.0,-27.0,-34.0,-15.0,,,,,,,,,,,,
1689140537909568600,-20.0,50.0,92.0,47.0,80.0,77.0,70.0,58.0,,,,,,,,,,,,
1689140537911567600,-39.0,-42.0,69.0,110.0,52.0,17.0,15.0,-4.0,,,,,,,,,,,,
1689140537926560500,63.0,-27.0,-98.0,-128.0,-121.0,-44.0,-10.0,1.0,,,,,,,,,,,,
1689140537927559600,-128.0,-20.0,-47.0,-70.0,-53.0,-16.0,-27.0,-35.0,,,,,,,,,,,,
1689140537932554800,42.0,24.0,-35.0,13.0,55.0,-1.0,-2.0,-8.0,,,,,,,,,,,,
1689140537934555200,38.0,-57.0,34.0,-95.0,-57.0,-32.0,-101.0,-87.0,,,,,,,,,,,,
1689140537939550800,-64.0,-13.0,66.0,71.0,92.0,81.0,100.0,38.0,,,,,,,,,,,,
1689140537941550200,113.0,45.0,-10.0,13.0,-75.0,-39.0,83.0,75.0,,,,,,,,,,,,
1689140537956543500,-35.0,-27.0,42.0,20.0,-11.0,14.0,-14.0,-2.0,,,,,,,,,,,,
1689140537958543200,-122.0,-25.0,-96.0,-92.0,-72.0,-74.0,-16.0,15.0,,,,,,,,,,,,
1689140537959540400,73.0,53.0,32.0,13.0,-15.0,17.0,-54.0,-40.0,,,,,,,,,,,,
1689140537960541700,-13.0,-12.0,-8.0,14.0,53.0,42.0,-24.0,-7.0,,,,,,,,,,,,
1689140537969534100,18.0,83.0,-105.0,-128.0,-75.0,-22.0,-3.0,-1.0,,,,,,,,,,,,
1689140537971533400,-128.0,40.0,115.0,25.0,30.0,54.0,47.0,0.0,,,,,,,,,,,,
1689140537978530900,103.0,-106.0,-113.0,-128.0,-128.0,-64.0,-30.0,-10.0,,,,,,,,,,,,
1689140537979530800,127.0,75.0,-68.0,37.0,-9.0,-25.0,-2.0,55.0,,,,,,,,,,,,
1689140537994521600,89.0,45.0,110.0,127.0,124.0,56.0,32.0,25.0,,,,,,,,,,,,
1689140537996520200,-115.0,-17.0,-119.0,-103.0,-82.0,-25.0,-25.0,-56.0,,,,,,,,,,,,
1689140538000519400,4.0,111.0,-6.0,-88.0,-104.0,-42.0,-12.0,6.0,,,,,,,,,,,,
1689140538002517000,-128.0,55.0,127.0,120.0,127.0,98.0,32.0,-29.0,,,,,,,,,,,,
1689140538039495000,54.0,-52.0,-128.0,-128.0,-128.0,-88.0,-55.0,-19.0,,,,,,,,,,,,
1689140538042493100,-58.0,-98.0,12.0,57.0,77.0,47.0,51.0,57.0,,,,,,,,,,,,
1689140538044492700,120.0,53.0,34.0,16.0,27.0,-7.0,4.0,43.0,,,,,,,,,,,,
1689140538046490900,1.0,-38.0,-47.0,17.0,-1.0,1.0,-24.0,20.0,,,,,,,,,,,,
1689140538048489800,-111.0,-51.0,43.0,4.0,19.0,19.0,3.0,-55.0,,,,,,,,,,,,
1689140538049489200,-35.0,95.0,-128.0,-128.0,-72.0,-42.0,-61.0,-24.0,,,,,,,,,,,,
1689140538051488100,65.0,-128.0,49.0,-71.0,-27.0,18.0,87.0,65.0,,,,,,,,,,,,
1689140538053486900,-115.0,42.0,70.0,-21.0,56.0,-10.0,-22.0,-14.0,,,,,,,,,,,,
1689140538080471400,-78.0,-3.0,-55.0,-90.0,-14.0,-23.0,-14.0,4.0,,,,,,,,,,,,
1689140538082471400,22.0,-21.0,30.0,31.0,14.0,-8.0,-50.0,-53.0,,,,,,,,,,,,
1689140538084469900,-125.0,51.0,-52.0,53.0,-19.0,25.0,-16.0,-8.0,,,,,,,,,,,,
1689140538086469500,30.0,13.0,116.0,50.0,-12.0,1.0,2.0,-5.0,,,,,,,,,,,,
1689140538089467300,13.0,-111.0,-100.0,-16.0,4.0,14.0,12.0,-6.0,,,,,,,,,,,,
1689140538091465400,115.0,-11.0,48.0,127.0,116.0,52.0,52.0,47.0,,,,,,,,,,,,
1689140538094464500,55.0,0.0,57.0,68.0,-16.0,-39.0,-17.0,18.0,,,,,,,,,,,,
1689140538096462700,-84.0,-76.0,93.0,57.0,58.0,58.0,20.0,-32.0,,,,,,,,,,,,
1689140538098461500,52.0,21.0,-73.0,-51.0,-94.0,-45.0,-32.0,-21.0,,,,,,,,,,,,
1689140538101459200,127.0,35.0,104.0,53.0,79.0,-5.0,19.0,55.0,,,,,,,,,,,,
1689140538103459400,-127.0,-5.0,-128.0,-75.0,-38.0,21.0,34.0,-30.0,,,,,,,,,,,,
1689140538106457400,31.0,-27.0,-60.0,-74.0,34.0,29.0,-47.0,-30.0,,,,,,,,,,,,
1689140538113453800,58.0,127.0,77.0,-79.0,-47.0,-43.0,32.0,74.0,,,,,,,,,,,,
1689140538115451400,83.0,60.0,80.0,85.0,71.0,71.0,43.0,29.0,,,,,,,,,,,,
1689140538119448900,-73.0,-31.0,6.0,-113.0,-29.0,-7.0,-23.0,-23.0,,,,,,,,,,,,
1689140538122448300,-53.0,29.0,61.0,-11.0,-80.0,-99.0,-62.0,-33.0,,,,,,,,,,,,
1689140538136439100,-77.0,46.0,-10.0,-60.0,-18.0,74.0,31.0,5.0,,,,,,,,,,,,
1689140538138440200,-7.0,27.0,-106.0,-62.0,-82.0,-12.0,36.0,34.0,,,,,,,,,,,,
1689140538139436600,-95.0,-5.0,-3.0,108.0,39.0,-25.0,-48.0,-59.0,,,,,,,,,,,,
1689140538140438000,105.0,15.0,-128.0,-82.0,7.0,24.0,38.0,88.0,,,,,,,,,,,,
1689140538160425300,10.0,-96.0,-13.0,15.0,-53.0,-54.0,-9.0,-38.0,,,,,,,,,,,,
1689140538161427000,0.0,53.0,78.0,-16.0,-20.0,25.0,-34.0,-63.0,,,,,,,,,,,,
1689140538163427500,54.0,28.0,-128.0,-119.0,-21.0,12.0,-10.0,7.0,,,,,,,,,,,,
1689140538165422800,-47.0,-52.0,-95.0,-92.0,-69.0,-74.0,-44.0,-64.0,0.797269166,-0.256179571,10.66616821,0.106052071,0.012257273,-0.016520673,-0.280121595,0.299275219,9.234436035,-0.103920363,0.021849923,-0.012523737
1689140538172418600,38.0,121.0,127.0,127.0,127.0,127.0,85.0,61.0,,,,,,,,,,,,
1689140538174417600,42.0,-88.0,-13.0,-84.0,-73.0,-49.0,-2.0,-2.0,,,,,,,,,,,,
1689140538187409800,121.0,-50.0,-80.0,-67.0,-52.0,-26.0,-19.0,2.0,,,,,,,,,,,,
1689140538189410400,92.0,103.0,83.0,-30.0,17.0,-17.0,-13.0,22.0,,,,,,,,,,,,
1689140538195405900,-83.0,-45.0,-68.0,34.0,44.0,-7.0,-32.0,-47.0,,,,,,,,,,,,
1689140538196406800,-128.0,79.0,30.0,-91.0,-93.0,-15.0,-14.0,-43.0,,,,,,,,,,,,
1689140538202400900,-115.0,61.0,-24.0,-64.0,-3.0,-17.0,-85.0,-92.0,,,,,,,,,,,,
1689140538203400300,109.0,-6.0,-128.0,-92.0,-24.0,-14.0,-8.0,-20.0,,,,,,,,,,,,
1689140538209397500,-44.0,30.0,-1.0,-48.0,-49.0,-23.0,92.0,97.0,,,,,,,,,,,,
1689140538210396900,-25.0,-1.0,-31.0,-26.0,-84.0,-81.0,-37.0,-64.0,,,,,,,,,,,,
1689140538218391500,55.0,107.0,83.0,47.0,55.0,35.0,43.0,123.0,,,,,,,,,,,,
1689140538219391700,-71.0,97.0,5.0,-28.0,-73.0,-1.0,-12.0,-30.0,,,,,,,,,,,,
1689140538234384500,98.0,-18.0,1.0,-40.0,-41.0,-20.0,-36.0,-7.0,,,,,,,,,,,,
1689140538235384200,-103.0,53.0,-33.0,-33.0,64.0,32.0,-12.0,-11.0,,,,,,,,,,,,
1689140538239380100,94.0,89.0,49.0,26.0,29.0,-13.0,-6.0,-43.0,,,,,,,,,,,,
1689140538241378700,-128.0,-128.0,-13.0,-13.0,20.0,-4.0,-62.0,-77.0,,,,,,,,,,,,
1689140538255370500,80.0,-31.0,16.0,-50.0,-23.0,-15.0,-108.0,-124.0,,,,,,,,,,,,
1689140538256371100,112.0,94.0,12.0,16.0,24.0,-14.0,69.0,127.0,,,,,,,,,,,,
1689140538262366200,26.0,44.0,-89.0,-69.0,-78.0,-35.0,-110.0,-56.0,,,,,,,,,,,,
1689140538263368700,123.0,4.0,59.0,63.0,38.0,53.0,127.0,83.0,,,,,,,,,,,,
1689140538286352800,-128.0,-36.0,60.0,107.0,35.0,-9.0,44.0,95.0,,,,,,,,,,,,
1689140538287352000,-75.0,-122.0,-21.0,69.0,83.0,19.0,-82.0,-104.0,,,,,,,,,,,,
1689140538289351800,16.0,106.0,102.0,127.0,89.0,74.0,28.0,70.0,,,,,,,,,,,,
1689140538290350700,-50.0,-23.0,-68.0,-50.0,-73.0,-33.0,-69.0,-98.0,,,,,,,,,,,,
1689140538293350000,20.0,-33.0,-62.0,-68.0,-25.0,9.0,-47.0,-28.0,,,,,,,,,,,,
1689140538295350500,22.0,99.0,-5.0,19.0,6.0,0.0,-78.0,15.0,,,,,,,,,,,,
1689140538299348800,81.0,-128.0,-4.0,-17.0,-31.0,-6.0,127.0,4.0,,,,,,,,,,,,
1689140538301348200,-65.0,47.0,22.0,35.0,-9.0,21.0,14.0,11.0,,,,,,,,,,,,
1689140538323353800,54.0,43.0,-10.0,1.0,15.0,6.0,-67.0,47.0,,,,,,,,,,,,
1689140538325330700,-68.0,39.0,-12.0,-9.0,-32.0,-3.0,97.0,-43.0,,,,,,,,,,,,
1689140538326330400,75.0,28.0,-91.0,-105.0,-66.0,-72.0,-18.0,34.0,,,,,,,,,,,,
1689140538327332300,-64.0,-14.0,4.0,-64.0,-2.0,-13.0,-83.0,-66.0,,,,,,,,,,,,
1689140538338322800,-52.0,127.0,54.0,10.0,30.0,-3.0,33.0,-7.0,,,,,,,,,,,,
1689140538340321900,88.0,62.0,-6.0,4.0,31.0,44.0,16.0,68.0,,,,,,,,,,,,
1689140538344321600,-15.0,-49.0,-18.0,-16.0,-56.0,-53.0,-61.0,-66.0,,,,,,,,,,,,
1689140538346320900,98.0,-21.0,-37.0,-30.0,-35.0,2.0,80.0,65.0,,,,,,,,,,,,
1689140538353316300,61.0,50.0,28.0,29.0,22.0,17.0,62.0,58.0,,,,,,,,,,,,
1689140538354313600,-6.0,-21.0,-12.0,34.0,27.0,25.0,44.0,2.0,,,,,,,,,,,,
1689140538359312800,-128.0,75.0,-22.0,-38.0,-36.0,-2.0,-45.0,-107.0,,,,,,,,,,,,
1689140538361309600,-31.0,-97.0,40.0,112.0,58.0,27.0,39.0,11.0,,,,,,,,,,,,
1689140538384298900,20.0,-70.0,58.0,17.0,87.0,31.0,74.0,42.0,,,,,,,,,,,,
1689140538386296200,9.0,37.0,-20.0,-29.0,13.0,13.0,45.0,6.0,0.797269166,-0.246602774,10.65419769,0.105785601,0.011724349,-0.016520673,-0.268150598,0.316034615,9.246406555,-0.104186833,0.022649311,-0.011724349
1689140538388295200,-31.0,84.0,31.0,14.0,15.0,16.0,32.0,31.0,,,,,,,,,,,,
1689140538390297900,-88.0,-78.0,-47.0,-77.0,-64.0,-46.0,-121.0,-74.0,,,,,,,,,,,,
1689140538398290100,-13.0,23.0,-36.0,-26.0,-10.0,-17.0,-66.0,-128.0,,,,,,,,,,,,
1689140538400287800,108.0,-46.0,-94.0,-96.0,-64.0,-25.0,-49.0,34.0,,,,,,,,,,,,
1689140538401288400,12.0,-6.0,92.0,-8.0,47.0,39.0,-11.0,70.0,,,,,,,,,,,,
1689140538402287600,22.0,-20.0,-35.0,-25.0,60.0,26.0,-58.0,-80.0,,,,,,,,,,,,
1689140538428273700,-78.0,-69.0,-37.0,-64.0,-50.0,-77.0,35.0,8.0,,,,,,,,,,,,
1689140538430270600,116.0,-3.0,76.0,45.0,49.0,53.0,62.0,78.0,,,,,,,,,,,,
1689140538431271300,-87.0,-78.0,-44.0,-54.0,1.0,12.0,-69.0,-26.0,,,,,,,,,,,,
1689140538432268900,25.0,72.0,9.0,1.0,0.0,7.0,1.0,34.0,,,,,,,,,,,,
1689140538435267800,-95.0,-8.0,3.0,1.0,-18.0,-2.0,-54.0,-72.0,,,,,,,,,,,,
1689140538436267900,-80.0,33.0,41.0,65.0,11.0,23.0,-75.0,-3.0,,,,,,,,,,,,
1689140538442263500,9.0,-72.0,-83.0,-78.0,-52.0,-79.0,-26.0,-72.0,,,,,,,,,,,,
1689140538443266400,32.0,36.0,7.0,12.0,18.0,45.0,-36.0,63.0,,,,,,,,,,,,
1689140538460253300,-81.0,4.0,19.0,11.0,-22.0,-18.0,59.0,-128.0,,,,,,,,,,,,
1689140538461275100,-88.0,73.0,64.0,-110.0,-4.0,54.0,-71.0,69.0,,,,,,,,,,,,
1689140538463252400,92.0,-34.0,8.0,-5.0,58.0,22.0,127.0,76.0,,,,,,,,,,,,
1689140538464254600,-62.0,81.0,7.0,-16.0,1.0,-1.0,6.0,39.0,,,,,,,,,,,,
1689140538473245800,43.0,8.0,-125.0,-128.0,-83.0,-33.0,-116.0,-98.0,,,,,,,,,,,,
1689140538474248100,0.0,-19.0,49.0,90.0,48.0,-31.0,32.0,-76.0,,,,,,,,,,,,
1689140538479244300,58.0,10.0,79.0,13.0,30.0,27.0,55.0,61.0,,,,,,,,,,,,
1689140538481242700,-50.0,-71.0,-103.0,-100.0,-102.0,0.0,49.0,-51.0,,,,,,,,,,,,
1689140538495233700,-32.0,-25.0,106.0,91.0,97.0,77.0,-15.0,45.0,,,,,,,,,,,,
1689140538497232400,74.0,-60.0,-25.0,-50.0,24.0,3.0,-38.0,-62.0,,,,,,,,,,,,
1689140538502234200,-128.0,22.0,-45.0,-56.0,-73.0,1.0,-9.0,-55.0,,,,,,,,,,,,
1689140538503250800,127.0,-32.0,-44.0,-77.0,-56.0,-103.0,78.0,127.0,,,,,,,,,,,,
1689140538518219400,-4.0,96.0,45.0,74.0,31.0,39.0,-64.0,95.0,,,,,,,,,,,,
1689140538520220000,-92.0,-93.0,-67.0,-68.0,-79.0,-37.0,-108.0,-96.0,,,,,,,,,,,,
1689140538522218000,-96.0,-60.0,5.0,31.0,69.0,21.0,-111.0,-108.0,,,,,,,,,,,,
1689140538524218300,36.0,74.0,3.0,-32.0,-29.0,13.0,-11.0,-54.0,,,,,,,,,,,,
1689140538539233200,95.0,-9.0,-6.0,24.0,37.0,-13.0,53.0,127.0,,,,,,,,,,,,
1689140538541207900,-34.0,-57.0,-26.0,1.0,-17.0,-32.0,41.0,-56.0,,,,,,,,,,,,
1689140538543229400,-73.0,-18.0,-9.0,6.0,-58.0,-21.0,-104.0,73.0,,,,,,,,,,,,
1689140538546204500,-6.0,-14.0,-33.0,-61.0,-59.0,-70.0,82.0,-85.0,,,,,,,,,,,,
1689140538556200000,63.0,24.0,-52.0,58.0,30.0,13.0,-112.0,77.0,,,,,,,,,,,,
1689140538557197900,-49.0,56.0,-19.0,-33.0,22.0,18.0,127.0,63.0,,,,,,,,,,,,
1689140538562196600,108.0,-2.0,27.0,-16.0,-76.0,-74.0,-80.0,-13.0,,,,,,,,,,,,
1689140538564193100,79.0,43.0,81.0,65.0,127.0,67.0,58.0,2.0,,,,,,,,,,,,
1689140538578207500,66.0,-8.0,-38.0,-128.0,-121.0,-23.0,-22.0,-35.0,,,,,,,,,,,,
1689140538580184000,-39.0,75.0,-7.0,-48.0,-31.0,0.0,28.0,-39.0,,,,,,,,,,,,
1689140538582185100,37.0,-35.0,-64.0,-28.0,-53.0,-49.0,-65.0,-44.0,,,,,,,,,,,,
1689140538583184400,7.0,83.0,76.0,87.0,93.0,29.0,-128.0,21.0,,,,,,,,,,,,
1689140538592177200,-7.0,-4.0,41.0,26.0,-17.0,-8.0,127.0,4.0,,,,,,,,,,,,
1689140538594179100,-20.0,-17.0,-31.0,-27.0,-47.0,-73.0,-116.0,0.0,,,,,,,,,,,,
1689140538601174400,-55.0,46.0,40.0,29.0,33.0,39.0,127.0,12.0,,,,,,,,,,,,
1689140538602171700,26.0,31.0,10.0,33.0,-13.0,-3.0,-85.0,50.0,,,,,,,,,,,,
1689140538615164400,-122.0,38.0,-22.0,-7.0,-9.0,-42.0,-56.0,-87.0,,,,,,,,,,,,
1689140538617185500,-32.0,36.0,46.0,58.0,56.0,59.0,-21.0,11.0,,,,,,,,,,,,
1689140538635175100,10.0,86.0,-24.0,17.0,6.0,19.0,-66.0,53.0,,,,,,,,,,,,
1689140538636155400,51.0,-41.0,0.0,20.0,56.0,44.0,124.0,-54.0,,,,,,,,,,,,
1689140538639151400,19.0,-93.0,-92.0,-128.0,-75.0,-38.0,-83.0,60.0,,,,,,,,,,,,
1689140538641151800,-60.0,-37.0,-52.0,-11.0,14.0,-6.0,-1.0,-27.0,,,,,,,,,,,,
1689140538643151000,66.0,51.0,18.0,-26.0,-11.0,-7.0,-77.0,-38.0,,,,,,,,,,,,
1689140538644169400,-80.0,17.0,27.0,85.0,41.0,-36.0,-55.0,-36.0,,,,,,,,,,,,
1689140538652142100,-74.0,-47.0,116.0,83.0,20.0,3.0,112.0,-6.0,,,,,,,,,,,,
1689140538654142100,86.0,-74.0,-21.0,-22.0,-17.0,4.0,45.0,19.0,,,,,,,,,,,,
1689140538661139500,-69.0,-126.0,-31.0,-71.0,-33.0,-71.0,-40.0,-31.0,,,,,,,,,,,,
1689140538663138400,-108.0,-9.0,-24.0,-94.0,-79.0,1.0,69.0,-12.0,,,,,,,,,,,,
1689140538675151600,-31.0,106.0,-86.0,-102.0,-29.0,14.0,-55.0,-49.0,,,,,,,,,,,,
1689140538677131600,5.0,41.0,78.0,74.0,52.0,47.0,-20.0,-25.0,,,,,,,,,,,,
1689140538682127200,-100.0,45.0,69.0,48.0,29.0,-9.0,117.0,100.0,,,,,,,,,,,,
1689140538684125000,42.0,83.0,-5.0,-28.0,6.0,12.0,-124.0,-41.0,,,,,,,,,,,,
1689140538698119000,0.0,115.0,-23.0,-45.0,-11.0,0.0,50.0,57.0,,,,,,,,,,,,
1689140538700117000,85.0,-95.0,-13.0,-46.0,-23.0,-15.0,-46.0,-15.0,,,,,,,,,,,,
1689140538702116600,1.0,116.0,19.0,10.0,29.0,29.0,21.0,-10.0,,,,,,,,,,,,
1689140538704115800,-13.0,40.0,1.0,66.0,27.0,30.0,-22.0,45.0,,,,,,,,,,,,
1689140538712108200,-56.0,-111.0,-65.0,-106.0,-14.0,-21.0,42.0,-49.0,,,,,,,,,,,,
1689140538714108800,105.0,10.0,46.0,75.0,79.0,22.0,-11.0,95.0,,,,,,,,,,,,
1689140538729099500,-12.0,-33.0,-96.0,-118.0,-79.0,-13.0,44.0,-35.0,,,,,,,,,,,,
1689140538731098400,-13.0,-31.0,53.0,22.0,17.0,-14.0,29.0,78.0,,,,,,,,,,,,
1689140538735096900,113.0,48.0,95.0,127.0,127.0,76.0,-21.0,52.0,0.804451764,-0.260968,10.6398325,0.106052071,0.011724349,-0.016520673,-0.275333196,0.308852017,9.239224434,-0.103920363,0.022382848,-0.011724349
1689140538737095100,30.0,-120.0,-43.0,-38.0,-53.0,-32.0,-64.0,-96.0,,,,,,,,,,,,
1689140538742091200,83.0,60.0,13.0,-28.0,63.0,36.0,76.0,54.0,,,,,,,,,,,,
1689140538744091300,-112.0,-86.0,-52.0,-79.0,-52.0,-14.0,-51.0,-36.0,,,,,,,,,,,,
1689140538758081700,-33.0,20.0,-36.0,-26.0,-41.0,-16.0,-30.0,-49.0,,,,,,,,,,,,
1689140538760082900,-13.0,89.0,5.0,-10.0,-17.0,0.0,37.0,35.0,,,,,,,,,,,,
1689140538762081900,32.0,-76.0,28.0,48.0,37.0,36.0,-18.0,-5.0,,,,,,,,,,,,
1689140538764081000,-21.0,-14.0,-34.0,-29.0,-44.0,-18.0,-7.0,-21.0,,,,,,,,,,,,
1689140538772074400,10.0,11.0,24.0,23.0,0.0,4.0,-6.0,-4.0,,,,,,,,,,,,
1689140538774074300,-98.0,-48.0,-34.0,-35.0,-39.0,-41.0,-3.0,-5.0,,,,,,,,,,,,
1689140538781071400,22.0,-3.0,-68.0,-48.0,-8.0,9.0,-15.0,-15.0,,,,,,,,,,,,
1689140538783069700,-31.0,-14.0,51.0,-21.0,3.0,7.0,24.0,17.0,,,,,,,,,,,,
1689140538804056400,17.0,16.0,80.0,81.0,91.0,38.0,12.0,-8.0,,,,,,,,,,,,
1689140538806056800,38.0,-11.0,-24.0,-81.0,-23.0,-16.0,-3.0,45.0,,,,,,,,,,,,
1689140538808053500,11.0,11.0,10.0,-26.0,-3.0,-11.0,-13.0,-26.0,,,,,,,,,,,,
1689140538810053000,20.0,25.0,-38.0,-14.0,-6.0,19.0,28.0,25.0,,,,,,,,,,,,
1689140538819047900,-11.0,-26.0,8.0,8.0,-37.0,-17.0,-31.0,-16.0,,,,,,,,,,,,
1689140538820049500,-69.0,33.0,-91.0,-81.0,-51.0,-37.0,-19.0,-27.0,,,,,,,,,,,,
1689140538821048100,-19.0,-76.0,50.0,89.0,67.0,59.0,33.0,30.0,,,,,,,,,,,,
1689140538823046300,20.0,-28.0,7.0,-87.0,-65.0,-46.0,-5.0,11.0,,,,,,,,,,,,
1689140538832040300,-41.0,-23.0,-17.0,19.0,16.0,13.0,-21.0,-26.0,,,,,,,,,,,,
1689140538834039300,-15.0,27.0,-18.0,-38.0,47.0,8.0,1.0,-6.0,,,,,,,,,,,,
1689140538841035300,-13.0,16.0,42.0,-23.0,-56.0,-44.0,12.0,8.0,,,,,,,,,,,,
1689140538843035400,25.0,-32.0,-94.0,27.0,7.0,33.0,-5.0,-1.0,,,,,,,,,,,,
1689140538856027200,-19.0,10.0,87.0,18.0,13.0,26.0,3.0,-18.0,,,,,,,,,,,,
1689140538858025200,-29.0,-83.0,-74.0,-94.0,-76.0,-54.0,0.0,3.0,,,,,,,,,,,,
1689140538862022900,28.0,21.0,-38.0,50.0,80.0,46.0,-4.0,5.0,,,,,,,,,,,,
1689140538864022800,-65.0,-31.0,26.0,-89.0,-24.0,-40.0,-15.0,-24.0,,,,,,,,,,,,
1689140538879013800,45.0,-78.0,57.0,30.0,11.0,26.0,23.0,29.0,,,,,,,,,,,,
1689140538881014500,16.0,98.0,3.0,-31.0,-54.0,-16.0,-3.0,3.0,,,,,,,,,,,,
1689140538883011800,-57.0,32.0,102.0,39.0,36.0,0.0,-16.0,-44.0,,,,,,,,,,,,
1689140538884011200,-3.0,-81.0,-69.0,24.0,23.0,7.0,-3.0,23.0,,,,,,,,,,,,
1689140538926985600,6.0,-97.0,-58.0,-56.0,-44.0,-25.0,1.0,10.0,,,,,,,,,,,,
1689140538928985500,-2.0,115.0,39.0,38.0,78.0,56.0,-8.0,-27.0,,,,,,,,,,,,
1689140538930983900,34.0,10.0,-70.0,27.0,2.0,13.0,30.0,10.0,,,,,,,,,,,,
1689140538932983000,-8.0,32.0,127.0,-17.0,-18.0,-32.0,-16.0,29.0,,,,,,,,,,,,
1689140538934981800,-38.0,61.0,-46.0,-25.0,-17.0,-6.0,-7.0,-53.0,,,,,,,,,,,,
1689140538935981100,-15.0,16.0,-30.0,-11.0,-31.0,-26.0,-13.0,62.0,,,,,,,,,,,,
1689140538937979500,-26.0,-104.0,-52.0,-9.0,-4.0,-6.0,-15.0,-31.0,,,,,,,,,,,,
1689140538939978900,35.0,88.0,-1.0,29.0,2.0,14.0,4.0,18.0,,,,,,,,,,,,
1689140538963964800,-25.0,6.0,-70.0,-21.0,4.0,3.0,-16.0,-80.0,,,,,,,,,,,,
1689140538965963700,16.0,-57.0,68.0,-3.0,-43.0,-28.0,5.0,75.0,,,,,,,,,,,,
1689140538967962500,-3.0,33.0,6.0,13.0,19.0,14.0,-1.0,5.0,,,,,,,,,,,,
1689140538969961800,48.0,-50.0,-77.0,-8.0,-63.0,-26.0,5.0,70.0,,,,,,,,,,,,
1689140538970961200,-43.0,-2.0,55.0,26.0,66.0,14.0,4.0,-26.0,,,,,,,,,,,,
1689140538972960100,-41.0,-104.0,-2.0,10.0,-24.0,-19.0,2.0,-74.0,,,,,,,,,,,,
1689140538974958900,31.0,116.0,100.0,15.0,7.0,-2.0,25.0,59.0,,,,,,,,,,,,
1689140538976957700,15.0,7.0,6.0,69.0,100.0,81.0,20.0,37.0,,,,,,,,,,,,
1689140538978956500,-4.0,9.0,-62.0,-55.0,-55.0,-30.0,-9.0,4.0,,,,,,,,,,,,
1689140538980955300,26.0,31.0,10.0,53.0,22.0,29.0,21.0,9.0,,,,,,,,,,,,
1689140538982955800,-36.0,1.0,-15.0,-22.0,-17.0,-4.0,-6.0,-50.0,,,,,,,,,,,,
1689140538984953000,-9.0,35.0,-58.0,24.0,36.0,-2.0,5.0,10.0,,,,,,,,,,,,
1689140538998946100,-2.0,37.0,-43.0,-26.0,-3.0,7.0,3.0,14.0,,,,,,,,,,,,
1689140539000943300,2.0,27.0,94.0,34.0,35.0,21.0,-9.0,-20.0,,,,,,,,,,,,
1689140539002942400,-4.0,3.0,-25.0,-18.0,-6.0,-8.0,-7.0,-11.0,,,,,,,,,,,,
1689140539004940700,21.0,39.0,42.0,-3.0,-13.0,-7.0,9.0,-28.0,,,,,,,,,,,,
1689140539012202200,7.0,-47.0,-10.0,-3.0,11.0,35.0,-12.0,-6.0,,,,,,,,,,,,
1689140539014201000,-13.0,35.0,-36.0,-5.0,-31.0,-16.0,0.0,-19.0,,,,,,,,,,,,
1689140539021197400,-16.0,-22.0,2.0,-14.0,-16.0,-1.0,3.0,11.0,,,,,,,,,,,,
1689140539023196600,-35.0,-1.0,28.0,6.0,-16.0,-18.0,-19.0,-69.0,,,,,,,,,,,,
1689140539035188900,3.0,32.0,-28.0,-9.0,15.0,-10.0,5.0,-7.0,,,,,,,,,,,,
1689140539037189100,80.0,47.0,9.0,8.0,-21.0,-14.0,4.0,113.0,,,,,,,,,,,,
1689140539045183700,-53.0,-68.0,-12.0,5.0,34.0,66.0,9.0,-95.0,,,,,,,,,,,,
1689140539048182400,13.0,-10.0,-6.0,-10.0,-24.0,-11.0,-7.0,25.0,,,,,,,,,,,,
1689140539058176700,-31.0,-21.0,-5.0,-29.0,-56.0,-37.0,-11.0,35.0,,,,,,,,,,,,
1689140539060174700,-14.0,-14.0,-7.0,14.0,29.0,32.0,31.0,-35.0,,,,,,,,,,,,
1689140539061175000,15.0,-14.0,-25.0,-3.0,-11.0,-23.0,-7.0,19.0,,,,,,,,,,,,
1689140539062174300,11.0,6.0,-3.0,1.0,9.0,-10.0,-9.0,-20.0,,,,,,,,,,,,
1689140539073168300,2.0,52.0,35.0,-5.0,-10.0,-4.0,6.0,-31.0,,,,,,,,,,,,
1689140539074167300,-82.0,-55.0,-13.0,9.0,-14.0,-15.0,-32.0,-91.0,,,,,,,,,,,,
1689140539081162100,92.0,50.0,18.0,6.0,6.0,6.0,1.0,48.0,,,,,,,,,,,,
1689140539082162700,-9.0,-37.0,-2.0,0.0,0.0,16.0,33.0,16.0,,,,,,,,,,,,
1689140539095155200,-12.0,76.0,-25.0,-9.0,-5.0,-6.0,-10.0,25.0,,,,,,,,,,,,
1689140539097155600,20.0,-50.0,46.0,11.0,-7.0,-2.0,2.0,-50.0,,,,,,,,,,,,
1689140539102150100,-4.0,-27.0,-36.0,-15.0,-18.0,-25.0,-42.0,-47.0,,,,,,,,,,,,
1689140539103152400,-89.0,31.0,46.0,33.0,36.0,42.0,21.0,24.0,,,,,,,,,,,,
1689140539118142000,87.0,-4.0,-38.0,-39.0,-54.0,-95.0,-14.0,63.0,,,,,,,,,,,,
1689140539120143000,-54.0,59.0,-8.0,19.0,45.0,73.0,28.0,-15.0,,,,,,,,,,,,
1689140539125138800,-10.0,74.0,30.0,1.0,-15.0,-10.0,-23.0,103.0,,,,,,,,,,,,
1689140539126137900,-86.0,-47.0,-20.0,-5.0,3.0,14.0,2.0,-103.0,,,,,,,,,,,,
1689140539132411000,76.0,-17.0,8.0,10.0,7.0,21.0,58.0,76.0,,,,,,,,,,,,
1689140539133416500,28.0,-23.0,-63.0,-19.0,-13.0,-34.0,-17.0,13.0,,,,,,,,,,,,
1689140539141373600,9.0,7.0,26.0,7.0,-2.0,0.0,-50.0,-45.0,,,,,,,,,,,,
1689140539142374300,-17.0,93.0,43.0,-12.0,-22.0,-18.0,5.0,57.0,,,,,,,,,,,,
1689140539155365300,-128.0,-64.0,56.0,14.0,11.0,2.0,-67.0,-119.0,,,,,,,,,,,,
1689140539157364300,127.0,8.0,-33.0,4.0,21.0,44.0,84.0,37.0,,,,,,,,,,,,
1689140539162361700,86.0,-11.0,-4.0,52.0,36.0,-4.0,42.0,66.0,,,,,,,,,,,,
1689140539163359600,-21.0,-73.0,-70.0,-7.0,-16.0,-34.0,2.0,-95.0,,,,,,,,,,,,
1689140539178148500,-62.0,41.0,-1.0,-47.0,4.0,39.0,-60.0,-40.0,,,,,,,,,,,,
1689140539179148600,0.0,15.0,-17.0,-81.0,-72.0,-60.0,69.0,32.0,,,,,,,,,,,,
1689140539185145800,-104.0,25.0,-9.0,-59.0,6.0,-20.0,-83.0,-57.0,,,,,,,,,,,,
1689140539186144400,86.0,-9.0,69.0,104.0,77.0,61.0,-34.0,-10.0,,,,,,,,,,,,
1689140539192410700,-94.0,-24.0,19.0,8.0,-54.0,-41.0,-68.0,-60.0,,,,,,,,,,,,
1689140539193415000,70.0,20.0,40.0,99.0,86.0,59.0,25.0,41.0,,,,,,,,,,,,
1689140539208405500,-38.0,-23.0,-21.0,-45.0,-29.0,-4.0,50.0,55.0,,,,,,,,,,,,
1689140539209405300,83.0,32.0,-14.0,-40.0,-45.0,-53.0,-27.0,2.0,,,,,,,,,,,,
1689140539215401200,-9.0,-74.0,-80.0,-105.0,-53.0,-17.0,74.0,22.0,,,,,,,,,,,,
1689140539216404200,77.0,47.0,20.0,-64.0,-39.0,22.0,-58.0,18.0,,,,,,,,,,,,
1689140539222397600,-49.0,-83.0,-27.0,-53.0,-19.0,-19.0,-50.0,-91.0,,,,,,,,,,,,
1689140539223397900,-61.0,23.0,-14.0,-47.0,-28.0,13.0,41.0,8.0,,,,,,,,,,,,
1689140539238388100,127.0,47.0,87.0,106.0,84.0,54.0,24.0,86.0,,,,,,,,,,,,
1689140539239388600,-128.0,-25.0,16.0,83.0,79.0,-51.0,48.0,-64.0,,,,,,,,,,,,
1689140539244384400,92.0,106.0,22.0,-13.0,-4.0,33.0,-31.0,119.0,,,,,,,,,,,,
1689140539245385700,-89.0,-69.0,-79.0,-124.0,-88.0,-55.0,37.0,-97.0,,,,,,,,,,,,
1689140539261376100,-75.0,20.0,-20.0,-67.0,-41.0,-6.0,-3.0,-37.0,,,,,,,,,,,,
1689140539262376100,-46.0,30.0,-43.0,-34.0,-17.0,-13.0,-61.0,-23.0,,,,,,,,,,,,
1689140539264374300,-31.0,15.0,-78.0,-112.0,-98.0,-36.0,-14.0,-123.0,,,,,,,,,,,,
1689140539264374300,83.0,86.0,91.0,75.0,96.0,77.0,86.0,84.0,,,,,,,,,,,,
1689140539275404400,4.0,14.0,-56.0,-93.0,-113.0,14.0,25.0,111.0,,,,,,,,,,,,
1689140539277405500,-62.0,-83.0,-32.0,-40.0,-43.0,-65.0,-11.0,-2.0,,,,,,,,,,,,
1689140539282111900,-128.0,-1.0,-16.0,-84.0,-51.0,-18.0,-57.0,-38.0,,,,,,,,,,,,
1689140539283098700,127.0,-84.0,-90.0,-78.0,-59.0,-22.0,-63.0,12.0,,,,,,,,,,,,
1689140539298134000,-100.0,-2.0,-22.0,-55.0,-17.0,-32.0,-29.0,-103.0,,,,,,,,,,,,
1689140539299153800,-82.0,-34.0,-29.0,-1.0,-47.0,7.0,-26.0,-5.0,,,,,,,,,,,,
1689140539304538000,90.0,-31.0,59.0,88.0,54.0,33.0,73.0,64.0,,,,,,,,,,,,
1689140539306481500,-59.0,21.0,44.0,39.0,56.0,1.0,12.0,30.0,,,,,,,,,,,,
1689140539321338200,17.0,43.0,19.0,-8.0,21.0,38.0,-10.0,-47.0,,,,,,,,,,,,
1689140539323337100,32.0,-82.0,-76.0,-127.0,-84.0,-68.0,-27.0,-1.0,,,,,,,,,,,,
1689140539325358000,-85.0,-24.0,-28.0,-26.0,-3.0,-2.0,102.0,3.0,,,,,,,,,,,,
1689140539325358000,15.0,-20.0,-11.0,-128.0,-100.0,-20.0,-128.0,-45.0,,,,,,,,,,,,
1689140539335282900,-19.0,-5.0,17.0,79.0,74.0,-46.0,94.0,30.0,,,,,,,,,,,,
1689140539338267800,84.0,51.0,39.0,-62.0,43.0,95.0,69.0,101.0,,,,,,,,,,,,
1689140539350260600,-100.0,6.0,44.0,116.0,67.0,-9.0,-62.0,-20.0,,,,,,,,,,,,
1689140539351278300,87.0,20.0,-24.0,-47.0,-28.0,-23.0,-61.0,9.0,,,,,,,,,,,,
1689140539358252100,-94.0,-7.0,-12.0,-22.0,-8.0,16.0,86.0,54.0,,,,,,,,,,,,
1689140539359273900,51.0,-13.0,15.0,23.0,-14.0,-6.0,-34.0,6.0,,,,,,,,,,,,
1689140539364247900,37.0,38.0,-13.0,-11.0,-4.0,4.0,45.0,45.0,,,,,,,,,,,,
1689140539365270100,-29.0,-11.0,35.0,91.0,55.0,12.0,19.0,41.0,,,,,,,,,,,,
1689140539381239100,-29.0,25.0,8.0,-61.0,-27.0,-28.0,-88.0,23.0,,,,,,,,,,,,
1689140539382260900,-23.0,20.0,33.0,45.0,67.0,73.0,20.0,6.0,,,,,,,,,,,,
1689140539385236900,-90.0,22.0,-50.0,-128.0,-88.0,-62.0,-13.0,-95.0,,,,,,,,,,,,
1689140539386237100,70.0,27.0,29.0,47.0,13.0,-12.0,-55.0,-70.0,,,,,,,,,,,,
1689140539396230100,-44.0,-3.0,36.0,95.0,79.0,82.0,99.0,56.0,,,,,,,,,,,,
1689140539397230400,-15.0,3.0,-28.0,-101.0,-42.0,-30.0,-59.0,-23.0,,,,,,,,,,,,
1689140539407276200,-26.0,49.0,61.0,-6.0,12.0,20.0,-78.0,-74.0,,,,,,,,,,,,
1689140539408225200,-89.0,-43.0,-89.0,-128.0,-90.0,-67.0,-98.0,-94.0,,,,,,,,,,,,
1689140539418218200,127.0,4.0,10.0,-40.0,5.0,-15.0,26.0,84.0,,,,,,,,,,,,
1689140539419219400,-24.0,30.0,8.0,-18.0,10.0,12.0,-42.0,3.0,,,,,,,,,,,,
1689140539424229200,-41.0,-51.0,-19.0,28.0,-9.0,-9.0,-19.0,28.0,,,,,,,,,,,,
1689140539426214100,-66.0,68.0,32.0,-12.0,6.0,9.0,25.0,10.0,,,,,,,,,,,,
1689140539448467200,116.0,2.0,-24.0,-6.0,9.0,-4.0,-9.0,-41.0,,,,,,,,,,,,
1689140539450463900,-77.0,-71.0,-72.0,-73.0,-81.0,-57.0,-110.0,-73.0,,,,,,,,,,,,
1689140539451466200,79.0,48.0,37.0,12.0,7.0,48.0,127.0,118.0,,,,,,,,,,,,
1689140539452462900,-77.0,-62.0,-63.0,-93.0,-39.0,-24.0,81.0,-15.0,,,,,,,,,,,,
1689140539454462300,-60.0,26.0,59.0,70.0,62.0,-9.0,32.0,-66.0,,,,,,,,,,,,
1689140539456463400,99.0,45.0,35.0,-40.0,52.0,70.0,44.0,24.0,,,,,,,,,,,,
1689140539463705200,-47.0,-58.0,31.0,14.0,3.0,-20.0,-24.0,-46.0,,,,,,,,,,,,
1689140539465704300,-67.0,40.0,-10.0,-8.0,-7.0,23.0,-33.0,62.0,,,,,,,,,,,,
1689140539477696400,-27.0,-63.0,-79.0,-128.0,-128.0,-89.0,-96.0,-67.0,,,,,,,,,,,,
1689140539479697100,25.0,71.0,102.0,96.0,116.0,80.0,-19.0,38.0,,,,,,,,,,,,
1689140539484693000,-57.0,-29.0,-43.0,-111.0,-57.0,-64.0,11.0,9.0,,,,,,,,,,,,
1689140539486691800,127.0,61.0,13.0,-61.0,41.0,44.0,79.0,43.0,,,,,,,,,,,,
1689140539501684200,-73.0,41.0,-6.0,-10.0,-44.0,3.0,-77.0,-12.0,,,,,,,,,,,,
1689140539503684500,32.0,-43.0,-39.0,-25.0,-23.0,-8.0,112.0,-9.0,,,,,,,,,,,,
1689140539505681200,44.0,10.0,-16.0,22.0,10.0,12.0,-84.0,-16.0,,,,,,,,,,,,
1689140539506681800,87.0,10.0,-18.0,-58.0,0.0,-18.0,21.0,26.0,,,,,,,,,,,,
1689140539523671300,74.0,2.0,33.0,54.0,88.0,50.0,47.0,39.0,,,,,,,,,,,,
1689140539524670100,-111.0,86.0,-13.0,-108.0,-58.0,-9.0,-56.0,-41.0,,,,,,,,,,,,
1689140539526668000,103.0,-84.0,58.0,127.0,65.0,7.0,47.0,29.0,,,,,,,,,,,,
1689140539527669800,-120.0,-25.0,12.0,25.0,16.0,6.0,45.0,-47.0,,,,,,,,,,,,
1689140539538662500,84.0,-84.0,-34.0,-105.0,-22.0,-9.0,-24.0,13.0,,,,,,,,,,,,
1689140539540662700,-103.0,7.0,14.0,56.0,-25.0,-32.0,-29.0,-4.0,,,,,,,,,,,,
1689140539544657500,-45.0,50.0,-45.0,-92.0,5.0,30.0,-38.0,-75.0,,,,,,,,,,,,
1689140539546656000,-22.0,-64.0,-17.0,6.0,-1.0,-53.0,-62.0,-44.0,,,,,,,,,,,,
1689140539560651800,-5.0,54.0,4.0,-3.0,7.0,15.0,53.0,-8.0,,,,,,,,,,,,
1689140539561650200,-73.0,-87.0,40.0,79.0,48.0,25.0,57.0,14.0,,,,,,,,,,,,
1689140539563647500,-53.0,-4.0,-30.0,-105.0,-31.0,-27.0,-7.0,16.0,,,,,,,,,,,,
1689140539564647000,-51.0,40.0,45.0,123.0,36.0,34.0,28.0,16.0,,,,,,,,,,,,
1689140539582635100,14.0,4.0,26.0,63.0,46.0,21.0,-57.0,-36.0,,,,,,,,,,,,
1689140539584635200,-78.0,57.0,8.0,-18.0,-4.0,-38.0,-49.0,-19.0,,,,,,,,,,,,
1689140539585634200,92.0,-22.0,-51.0,-66.0,-10.0,-9.0,-16.0,-29.0,,,,,,,,,,,,
1689140539585634200,96.0,-4.0,-1.0,-62.0,-8.0,39.0,-3.0,54.0,,,,,,,,,,,,
1689140539598627700,59.0,-33.0,45.0,-32.0,-55.0,12.0,-3.0,-12.0,,,,,,,,,,,,
1689140539599627000,47.0,35.0,-36.0,-45.0,-10.0,-61.0,-5.0,46.0,,,,,,,,,,,,
1689140539604623300,-13.0,26.0,-53.0,-70.0,-64.0,-13.0,102.0,50.0,,,,,,,,,,,,
1689140539605625500,-26.0,9.0,78.0,0.0,68.0,32.0,9.0,-12.0,,,,,,,,,,,,
1689140539620614400,-122.0,-6.0,-49.0,-113.0,-13.0,26.0,-14.0,11.0,,,,,,,,,,,,
1689140539622613700,50.0,-18.0,17.0,-37.0,-64.0,-20.0,28.0,-24.0,,,,,,,,,,,,
1689140539623613800,14.0,97.0,-53.0,-95.0,-43.0,21.0,34.0,33.0,,,,,,,,,,,,
1689140539625612200,28.0,-77.0,-18.0,35.0,-51.0,-39.0,-16.0,28.0,,,,,,,,,,,,
1689140539642601100,35.0,46.0,10.0,26.0,-10.0,-6.0,6.0,24.0,,,,,,,,,,,,
1689140539644601400,-99.0,30.0,-19.0,-73.0,8.0,-1.0,-9.0,-31.0,,,,,,,,,,,,
1689140539646599100,120.0,15.0,43.0,56.0,42.0,15.0,-6.0,36.0,,,,,,,,,,,,
1689140539647598700,-119.0,21.0,5.0,-35.0,3.0,22.0,18.0,-24.0,,,,,,,,,,,,
1689140539666588100,-12.0,-32.0,-42.0,24.0,3.0,-18.0,-60.0,30.0,,,,,,,,,,,,
1689140539668588700,-23.0,9.0,35.0,66.0,-17.0,-2.0,28.0,-15.0,,,,,,,,,,,,
1689140539669587700,-14.0,-60.0,16.0,8.0,25.0,29.0,8.0,7.0,,,,,,,,,,,,
1689140539671587000,-9.0,39.0,-58.0,-95.0,-88.0,-46.0,-39.0,-21.0,,,,,,,,,,,,
1689140539692574400,65.0,37.0,6.0,51.0,61.0,10.0,4.0,23.0,,,,,,,,,,,,
1689140539694572700,-58.0,-47.0,11.0,42.0,7.0,10.0,-36.0,-59.0,,,,,,,,,,,,
1689140539696571500,78.0,19.0,-47.0,-32.0,-60.0,-11.0,28.0,73.0,,,,,,,,,,,,
1689140539697570500,-128.0,-71.0,29.0,-74.0,-36.0,-2.0,-37.0,-90.0,,,,,,,,,,,,
1689140539728553200,-34.0,111.0,-102.0,-128.0,-128.0,-45.0,35.0,67.0,,,,,,,,,,,,
1689140539730552000,119.0,-32.0,-16.0,17.0,64.0,52.0,96.0,59.0,,,,,,,,,,,,
1689140539732551800,-2.0,-37.0,23.0,-46.0,28.0,23.0,10.0,-25.0,,,,,,,,,,,,
1689140539734551000,-24.0,39.0,-128.0,-128.0,-128.0,-63.0,-37.0,16.0,,,,,,,,,,,,
1689140539735549600,-22.0,26.0,108.0,109.0,55.0,-2.0,-36.0,-40.0,,,,,,,,,,,,
1689140539737548300,-80.0,-35.0,78.0,-98.0,-69.0,-21.0,-63.0,-85.0,,,,,,,,,,,,
1689140539739546300,15.0,13.0,-100.0,-100.0,-51.0,-19.0,1.0,73.0,,,,,,,,,,,,
1689140539741545700,65.0,-26.0,113.0,127.0,127.0,79.0,49.0,-17.0,,,,,,,,,,,,
1689140539743544300,19.0,-45.0,-24.0,7.0,15.0,19.0,4.0,-4.0,,,,,,,,,,,,
1689140539745545100,-98.0,114.0,-41.0,-113.0,-98.0,-42.0,-13.0,18.0,,,,,,,,,,,,
1689140539747542800,70.0,-89.0,121.0,127.0,127.0,25.0,-36.0,-75.0,,,,,,,,,,,,
1689140539749541900,6.0,73.0,-40.0,-69.0,-18.0,-11.0,8.0,75.0,,,,,,,,,,,,
1689140539765532000,-10.0,16.0,-13.0,-87.0,-47.0,-8.0,-10.0,-60.0,,,,,,,,,,,,
1689140539768531100,63.0,-29.0,-68.0,-54.0,-21.0,-22.0,-20.0,31.0,,,,,,,,,,,,
1689140539769529500,-119.0,32.0,-94.0,-112.0,-56.0,1.0,9.0,34.0,,,,,,,,,,,,
1689140539771527600,-79.0,-1.0,105.0,126.0,66.0,5.0,5.0,-4.0,,,,,,,,,,,,
1689140539778523500,-10.0,-100.0,18.0,-102.0,-62.0,-37.0,-33.0,-65.0,,,,,,,,,,,,
1689140539780522500,44.0,25.0,-101.0,-36.0,56.0,33.0,10.0,5.0,,,,,,,,,,,,
1689140539784520400,-128.0,5.0,85.0,-42.0,-29.0,5.0,-21.0,-16.0,,,,,,,,,,,,
1689140539786519100,22.0,84.0,-14.0,58.0,77.0,63.0,64.0,68.0,,,,,,,,,,,,
1689140539800513500,-14.0,-43.0,-128.0,-128.0,-64.0,-57.0,-38.0,24.0,,,,,,,,,,,,
1689140539802510800,64.0,43.0,121.0,123.0,78.0,65.0,47.0,71.0,,,,,,,,,,,,
1689140539803509700,-125.0,-50.0,-75.0,-52.0,-74.0,-93.0,-67.0,-105.0,,,,,,,,,,,,
1689140539805508200,52.0,64.0,7.0,33.0,33.0,4.0,29.0,44.0,,,,,,,,,,,,
1689140539823498400,2.0,46.0,93.0,127.0,127.0,92.0,7.0,-12.0,,,,,,,,,,,,
1689140539824497700,-15.0,28.0,-82.0,-57.0,-63.0,-42.0,9.0,65.0,,,,,,,,,,,,
1689140539826496700,-35.0,32.0,86.0,113.0,127.0,72.0,22.0,13.0,,,,,,,,,,,,
1689140539827497200,99.0,-30.0,-123.0,-128.0,-61.0,-56.0,-32.0,1.0,,,,,,,,,,,,
1689140539838489200,-121.0,0.0,-68.0,-104.0,-87.0,-53.0,-14.0,-48.0,,,,,,,,,,,,
1689140539840488300,3.0,2.0,-2.0,-128.0,-15.0,-32.0,-25.0,-47.0,,,,,,,,,,,,
1689140539844487100,19.0,82.0,-71.0,-17.0,-55.0,12.0,27.0,33.0,,,,,,,,,,,,
1689140539846484300,-59.0,-19.0,104.0,59.0,32.0,55.0,5.0,-10.0,,,,,,,,,,,,
1689140539867472500,-70.0,22.0,-6.0,-20.0,109.0,44.0,16.0,2.0,,,,,,,,,,,,
1689140539869472200,-83.0,-83.0,-109.0,-128.0,-124.0,-69.0,-34.0,-40.0,,,,,,,,,,,,
1689140539870471500,51.0,10.0,15.0,3.0,10.0,-16.0,-14.0,-4.0,,,,,,,,,,,,
1689140539870471500,21.0,31.0,-29.0,-128.0,-56.0,-25.0,-15.0,-5.0,,,,,,,,,,,,
1689140539882465200,-16.0,23.0,-125.0,-121.0,-112.0,-50.0,-21.0,-33.0,,,,,,,,,,,,
1689140539884465000,0.0,25.0,99.0,103.0,74.0,80.0,19.0,-1.0,,,,,,,,,,,,
1689140539885463800,-42.0,-68.0,-87.0,-105.0,-95.0,-42.0,-20.0,-44.0,,,,,,,,,,,,
1689140539886462100,-5.0,25.0,-89.0,-74.0,-7.0,41.0,30.0,87.0,,,,,,,,,,,,
1689140539899456300,121.0,6.0,44.0,49.0,84.0,6.0,20.0,-4.0,,,,,,,,,,,,
1689140539901454500,127.0,-44.0,-71.0,-64.0,-75.0,-113.0,-77.0,-67.0,,,,,,,,,,,,
1689140539905451600,-12.0,48.0,74.0,26.0,83.0,82.0,12.0,-26.0,,,,,,,,,,,,
1689140539907451700,-26.0,-63.0,-89.0,-50.0,-18.0,27.0,30.0,17.0,,,,,,,,,,,,
1689140539920443200,-46.0,-7.0,100.0,30.0,21.0,-30.0,-20.0,-2.0,,,,,,,,,,,,
1689140539922445100,-24.0,-26.0,56.0,-15.0,2.0,45.0,23.0,18.0,,,,,,,,,,,,
1689140539927439900,52.0,4.0,60.0,25.0,9.0,18.0,15.0,27.0,,,,,,,,,,,,
1689140539929437800,-71.0,-78.0,-36.0,-52.0,-38.0,-47.0,-60.0,-101.0,,,,,,,,,,,,
1689140539942430000,115.0,-45.0,-34.0,-38.0,-64.0,-8.0,6.0,20.0,,,,,,,,,,,,
1689140539944429200,24.0,98.0,20.0,79.0,81.0,11.0,1.0,-5.0,,,,,,,,,,,,
1689140539946428600,-49.0,55.0,24.0,4.0,18.0,7.0,16.0,46.0,,,,,,,,,,,,
1689140539948428300,59.0,-93.0,-48.0,-120.0,-126.0,-110.0,-64.0,-89.0,,,,,,,,,,,,
1689140539958422400,76.0,77.0,-60.0,2.0,34.0,42.0,34.0,38.0,,,,,,,,,,,,
1689140539959421400,-83.0,-58.0,13.0,5.0,-7.0,41.0,35.0,53.0,,,,,,,,,,,,
1689140539964416800,127.0,76.0,-128.0,-95.0,-71.0,-31.0,-17.0,7.0,,,,,,,,,,,,
1689140539966417500,-92.0,-49.0,72.0,85.0,35.0,14.0,0.0,1.0,,,,,,,,,,,,
1689140539980408300,-60.0,5.0,-123.0,-65.0,-90.0,-55.0,-5.0,17.0,,,,,,,,,,,,
1689140539987403800,-63.0,-76.0,25.0,-124.0,-71.0,-40.0,-16.0,-48.0,,,,,,,,,,,,
1689140539988405700,113.0,46.0,5.0,-68.0,106.0,99.0,28.0,32.0,,,,,,,,,,,,
1689140539990404000,-50.0,-53.0,-70.0,-81.0,-103.0,-89.0,-38.0,-31.0,,,,,,,,,,,,
1689140540002395900,-87.0,-29.0,48.0,83.0,88.0,30.0,1.0,3.0,,,,,,,,,,,,
1689140540004395000,-51.0,12.0,-112.0,-70.0,-81.0,-33.0,-7.0,5.0,,,,,,,,,,,,
1689140540005394400,-41.0,-66.0,127.0,127.0,111.0,46.0,2.0,-24.0,,,,,,,,,,,,
1689140540006393600,100.0,106.0,-22.0,11.0,56.0,35.0,24.0,33.0,,,,,,,,,,,,
1689140540018387600,-76.0,-26.0,-30.0,-51.0,-81.0,-15.0,3.0,-21.0,,,,,,,,,,,,
1689140540019386300,99.0,-33.0,19.0,-20.0,59.0,-10.0,-30.0,-30.0,,,,,,,,,,,,
1689140540024384500,-52.0,24.0,-25.0,-3.0,-37.0,-21.0,4.0,-4.0,,,,,,,,,,,,
1689140540025382400,116.0,-24.0,-72.0,-71.0,7.0,-11.0,-10.0,21.0,,,,,,,,,,,,
1689140540040373700,22.0,79.0,127.0,127.0,112.0,51.0,19.0,10.0,,,,,,,,,,,,
1689140540042373100,66.0,97.0,-128.0,-76.0,-34.0,-47.0,-5.0,18.0,,,,,,,,,,,,
1689140540044371900,13.0,3.0,70.0,88.0,13.0,-27.0,-3.0,-5.0,,,,,,,,,,,,
1689140540046370400,-96.0,29.0,-36.0,-39.0,30.0,26.0,18.0,-12.0,,,,,,,,,,,,
1689140540063360300,-52.0,-24.0,65.0,-87.0,-83.0,-12.0,-7.0,-21.0,,,,,,,,,,,,
1689140540064360100,-9.0,-1.0,87.0,57.0,2.0,25.0,8.0,13.0,,,,,,,,,,,,
1689140540066359300,121.0,-6.0,-29.0,-46.0,-2.0,1.0,1.0,18.0,,,,,,,,,,,,
1689140540068357700,87.0,127.0,-26.0,6.0,14.0,40.0,15.0,4.0,,,,,,,,,,,,
1689140540078353000,-27.0,38.0,6.0,-93.0,-41.0,-1.0,5.0,-11.0,,,,,,,,,,,,
1689140540080353000,117.0,21.0,69.0,-3.0,57.0,22.0,0.0,4.0,,,,,,,,,,,,
1689140540085349800,1.0,-53.0,-70.0,79.0,69.0,23.0,30.0,17.0,,,,,,,,,,,,
1689140540087347000,-79.0,34.0,127.0,43.0,-6.0,26.0,44.0,31.0,,,,,,,,,,,,
1689140540099340800,127.0,-30.0,-127.0,-23.0,33.0,23.0,-21.0,-16.0,,,,,,,,,,,,
1689140540101339300,-119.0,-57.0,-83.0,-73.0,-73.0,-48.0,-10.0,-14.0,,,,,,,,,,,,
1689140540107335400,-26.0,-57.0,-29.0,-110.0,-128.0,-38.0,-4.0,-6.0,,,,,,,,,,,,
1689140540109334600,-35.0,-26.0,-45.0,-58.0,52.0,-6.0,-20.0,-7.0,,,,,,,,,,,,
1689140540123325800,71.0,48.0,104.0,89.0,18.0,-20.0,8.0,21.0,,,,,,,,,,,,
1689140540125326400,-39.0,-44.0,-17.0,71.0,127.0,91.0,19.0,7.0,,,,,,,,,,,,
1689140540126324700,-6.0,-73.0,-107.0,-128.0,-128.0,-112.0,-15.0,-4.0,,,,,,,,,,,,
1689140540127324100,14.0,29.0,80.0,65.0,83.0,71.0,8.0,-6.0,,,,,,,,,,,,
1689140540138318200,-60.0,-24.0,44.0,-59.0,-57.0,-27.0,12.0,19.0,,,,,,,,,,,,
1689140540140317800,17.0,-33.0,37.0,52.0,30.0,-5.0,-16.0,-12.0,0.804451764,-0.248996973,10.65180302,0.106052071,0.012257273,-0.016520673,-0.282515794,0.313640416,9.248801231,-0.104453288,0.022649311,-0.012257273
1689140540144314200,0.0,45.0,75.0,42.0,5.0,38.0,-7.0,-16.0,,,,,,,,,,,,
1689140540145313400,85.0,53.0,-47.0,-77.0,-114.0,-24.0,12.0,30.0,,,,,,,,,,,,
1689140540161304400,5.0,-107.0,-105.0,-128.0,-79.0,25.0,-33.0,-8.0,,,,,,,,,,,,
1689140540162305000,57.0,127.0,-90.0,-3.0,33.0,-14.0,33.0,30.0,,,,,,,,,,,,
1689140540167301000,-64.0,34.0,95.0,0.0,115.0,93.0,17.0,-14.0,,,,,,,,,,,,
1689140540168302500,-14.0,13.0,42.0,-4.0,-85.0,-54.0,-2.0,-6.0,,,,,,,,,,,,
1689140540183293200,4.0,-56.0,-55.0,16.0,-42.0,-52.0,-18.0,-14.0,,,,,,,,,,,,
1689140540185291000,1.0,-5.0,-61.0,-75.0,-55.0,-25.0,5.0,3.0,,,,,,,,,,,,
1689140540186290100,-11.0,13.0,-40.0,-56.0,-47.0,-16.0,-4.0,5.0,,,,,,,,,,,,
1689140540187289000,-4.0,-22.0,-61.0,-16.0,-72.0,-100.0,-43.0,-32.0,,,,,,,,,,,,
1689140540198284300,-11.0,-10.0,-60.0,-51.0,0.0,-3.0,9.0,5.0,,,,,,,,,,,,
1689140540200283500,-16.0,-5.0,97.0,37.0,-9.0,10.0,-5.0,-4.0,,,,,,,,,,,,
1689140540204279600,-5.0,-38.0,-29.0,-44.0,-41.0,-50.0,-14.0,-7.0,,,,,,,,,,,,
1689140540206279700,-14.0,-13.0,-42.0,-93.0,-68.0,-62.0,-7.0,-5.0,,,,,,,,,,,,
1689140540220271500,8.0,18.0,-7.0,17.0,35.0,25.0,10.0,1.0,,,,,,,,,,,,
1689140540221270900,14.0,92.0,100.0,39.0,55.0,45.0,7.0,6.0,,,,,,,,,,,,
1689140540227268500,-9.0,-15.0,-122.0,-8.0,-4.0,-3.0,-19.0,-12.0,,,,,,,,,,,,
1689140540229267900,8.0,2.0,79.0,114.0,48.0,14.0,4.0,0.0,,,,,,,,,,,,
1689140540243257800,10.0,-7.0,86.0,62.0,68.0,56.0,28.0,24.0,,,,,,,,,,,,
1689140540244257500,7.0,-14.0,7.0,-12.0,-47.0,-13.0,-10.0,-7.0,,,,,,,,,,,,
1689140540245257100,-16.0,21.0,6.0,20.0,-31.0,-46.0,-7.0,-3.0,,,,,,,,,,,,
1689140540246256200,-23.0,-24.0,-20.0,7.0,33.0,37.0,8.0,-3.0,,,,,,,,,,,,
1689140540260247800,-3.0,46.0,-56.0,-10.0,-19.0,-17.0,-15.0,-4.0,,,,,,,,,,,,
1689140540261247700,-2.0,-42.0,-80.0,2.0,-17.0,-15.0,-2.0,0.0,,,,,,,,,,,,
1689140540264247100,-24.0,-32.0,10.0,-42.0,-40.0,-24.0,-14.0,-14.0,0.804451764,-0.256179571,10.63743782,0.106318533,0.011724349,-0.016520673,-0.270544797,0.306457818,9.248801231,-0.104453288,0.022116385,-0.012257273
1689140540265246200,5.0,-1.0,27.0,31.0,28.0,26.0,2.0,2.0,,,,,,,,,,,,
1689140540279593200,16.0,12.0,48.0,-2.0,10.0,-5.0,4.0,7.0,,,,,,,,,,,,
1689140540280598000,1.0,-26.0,-34.0,1.0,-1.0,0.0,-5.0,-3.0,,,,,,,,,,,,
1689140540287593400,-8.0,10.0,5.0,26.0,21.0,4.0,-1.0,-1.0,,,,,,,,,,,,
1689140540288593000,3.0,-20.0,-38.0,-19.0,6.0,13.0,2.0,-4.0,,,,,,,,,,,,
1689140540302515600,-10.0,21.0,20.0,-6.0,-18.0,-25.0,-9.0,-8.0,,,,,,,,,,,,
1689140540304515300,-6.0,19.0,16.0,17.0,9.0,18.0,0.0,-9.0,,,,,,,,,,,,
1689140540305514500,-17.0,3.0,3.0,7.0,1.0,-2.0,-7.0,-2.0,,,,,,,,,,,,
1689140540306514700,19.0,-3.0,43.0,10.0,2.0,9.0,2.0,7.0,,,,,,,,,,,,
1689140540318637000,10.0,-7.0,-18.0,-6.0,-5.0,-8.0,-4.0,8.0,,,,,,,,,,,,
1689140540319641700,-4.0,5.0,-2.0,7.0,30.0,43.0,9.0,-16.0,,,,,,,,,,,,
1689140540324635800,33.0,21.0,0.0,8.0,-1.0,-6.0,-18.0,37.0,,,,,,,,,,,,
1689140540325638500,-9.0,19.0,13.0,3.0,22.0,14.0,11.0,1.0,,,,,,,,,,,,
1689140540339928200,13.0,3.0,-8.0,-5.0,8.0,1.0,-5.0,-24.0,,,,,,,,,,,,
1689140540340930200,-28.0,-25.0,4.0,-5.0,-11.0,-2.0,7.0,-28.0,,,,,,,,,,,,
1689140540346946600,55.0,2.0,11.0,0.0,-11.0,-9.0,17.0,47.0,,,,,,,,,,,,
1689140540348928400,-51.0,-8.0,16.0,10.0,17.0,17.0,7.0,-8.0,,,,,,,,,,,,
1689140540362915000,86.0,19.0,-14.0,-15.0,-13.0,-5.0,2.0,5.0,,,,,,,,,,,,
1689140540364914900,-65.0,1.0,18.0,11.0,1.0,-11.0,13.0,49.0,,,,,,,,,,,,
1689140540366912800,-45.0,-2.0,-6.0,2.0,4.0,0.0,-22.0,-47.0,,,,,,,,,,,,
1689140540367912800,48.0,-7.0,4.0,3.0,4.0,13.0,-9.0,-6.0,,,,,,,,,,,,
1689140540378906500,-48.0,-8.0,-2.0,2.0,8.0,5.0,8.0,19.0,,,,,,,,,,,,
1689140540379905900,37.0,-5.0,-13.0,-10.0,-8.0,-1.0,2.0,19.0,,,,,,,,,,,,
1689140540384902500,-23.0,-5.0,7.0,8.0,9.0,1.0,16.0,-16.0,,,,,,,,,,,,
1689140540385902300,24.0,5.0,0.0,-7.0,-5.0,1.0,-7.0,16.0,,,,,,,,,,,,
1689140540399689400,-27.0,-12.0,0.0,-2.0,3.0,0.0,5.0,-23.0,,,,,,,,,,,,
1689140540401711700,-4.0,2.0,0.0,-2.0,-10.0,-3.0,-14.0,-26.0,,,,,,,,,,,,
1689140540407545200,-8.0,-3.0,0.0,3.0,5.0,2.0,2.0,1.0,,,,,,,,,,,,
1689140540409543000,1.0,2.0,15.0,2.0,0.0,-6.0,-5.0,-29.0,,,,,,,,,,,,
1689140540423047700,-70.0,1.0,-11.0,-3.0,4.0,10.0,13.0,-77.0,,,,,,,,,,,,
1689140540425066200,90.0,10.0,-2.0,0.0,0.0,1.0,18.0,115.0,,,,,,,,,,,,
1689140540426065100,-9.0,-4.0,6.0,5.0,5.0,1.0,0.0,-22.0,,,,,,,,,,,,
1689140540427064200,26.0,-6.0,-6.0,-7.0,-3.0,-3.0,-2.0,4.0,,,,,,,,,,,,
1689140540438467500,-58.0,-1.0,-3.0,-1.0,1.0,-1.0,-15.0,-88.0,,,,,,,,,,,,
1689140540441451400,-48.0,-8.0,-5.0,-6.0,-8.0,-4.0,6.0,-17.0,,,,,,,,,,,,
1689140540444470400,7.0,-4.0,1.0,-1.0,-4.0,-4.0,-23.0,23.0,,,,,,,,,,,,
1689140540445450900,4.0,2.0,4.0,3.0,4.0,6.0,1.0,-21.0,,,,,,,,,,,,
1689140540459639000,19.0,0.0,-2.0,-2.0,-3.0,3.0,-14.0,23.0,,,,,,,,,,,,
1689140540461469000,21.0,5.0,5.0,4.0,2.0,2.0,-2.0,-41.0,,,,,,,,,,,,
1689140540467473700,-25.0,-4.0,-6.0,-6.0,-8.0,-9.0,-12.0,-54.0,,,,,,,,,,,,
1689140540468466700,-13.0,-2.0,0.0,-2.0,-1.0,-2.0,12.0,23.0,,,,,,,,,,,,
1689140540483575600,20.0,0.0,0.0,2.0,4.0,2.0,-4.0,42.0,,,,,,,,,,,,
1689140540484596400,-5.0,-5.0,-5.0,-8.0,-8.0,-8.0,-13.0,-69.0,,,,,,,,,,,,
1689140540485577100,14.0,3.0,3.0,1.0,3.0,1.0,13.0,70.0,,,,,,,,,,,,
1689140540487576000,-2.0,-5.0,0.0,-1.0,2.0,2.0,-3.0,7.0,,,,,,,,,,,,
1689140540505564600,13.0,-1.0,0.0,0.0,0.0,-1.0,3.0,3.0,,,,,,,,,,,,
1689140540507562600,15.0,-1.0,-3.0,-2.0,-1.0,1.0,-8.0,45.0,,,,,,,,,,,,
1689140540508564600,-43.0,-6.0,-2.0,-3.0,-4.0,0.0,-7.0,-64.0,,,,,,,,,,,,
1689140540509570900,1.0,-2.0,-1.0,-7.0,-6.0,-1.0,-8.0,-10.0,,,,,,,,,,,,
1689140540521556400,10.0,4.0,2.0,4.0,1.0,-2.0,19.0,42.0,,,,,,,,,,,,
1689140540522553600,-2.0,-5.0,-4.0,-6.0,0.0,8.0,13.0,7.0,,,,,,,,,,,,
1689140540527550300,-1.0,-3.0,1.0,6.0,6.0,-2.0,11.0,-36.0,,,,,,,,,,,,
1689140540528553200,-2.0,0.0,0.0,0.0,5.0,6.0,-10.0,15.0,,,,,,,,,,,,
1689140540542563900,9.0,2.0,0.0,-4.0,0.0,1.0,9.0,6.0,,,,,,,,,,,,
1689140540544562800,-19.0,-12.0,-12.0,0.0,-2.0,-1.0,-7.0,26.0,,,,,,,,,,,,
1689140540545542800,28.0,7.0,4.0,0.0,-4.0,-2.0,9.0,13.0,,,,,,,,,,,,
1689140540546561000,-26.0,-2.0,0.0,1.0,-2.0,-3.0,1.0,-36.0,,,,,,,,,,,,
1689140540558533400,5.0,-2.0,-1.0,1.0,0.0,-2.0,-1.0,15.0,,,,,,,,,,,,
1689140540559536300,-16.0,1.0,2.0,-6.0,-7.0,-4.0,-13.0,-31.0,,,,,,,,,,,,
1689140540564590000,12.0,1.0,-2.0,-1.0,1.0,4.0,7.0,41.0,,,,,,,,,,,,
1689140540566552000,-17.0,-5.0,-4.0,-2.0,-3.0,-4.0,4.0,-13.0,,,,,,,,,,,,
1689140540579639000,5.0,-3.0,-1.0,-1.0,2.0,1.0,-4.0,32.0,,,,,,,,,,,,
1689140540581642700,17.0,2.0,2.0,1.0,0.0,-3.0,-4.0,64.0,,,,,,,,,,,,
1689140540587544300,30.0,-8.0,1.0,1.0,-1.0,1.0,2.0,-33.0,,,,,,,,,,,,
1689140540589542500,4.0,27.0,5.0,-3.0,-1.0,0.0,1.0,19.0,,,,,,,,,,,,
1689140540603497500,-2.0,-6.0,-4.0,-2.0,-3.0,-1.0,0.0,-7.0,,,,,,,,,,,,
1689140540604495400,-2.0,-2.0,2.0,2.0,3.0,0.0,-2.0,-1.0,,,,,,,,,,,,
1689140540605497900,-17.0,-1.0,-1.0,-3.0,1.0,-4.0,-5.0,-27.0,,,,,,,,,,,,
1689140540606495700,9.0,-11.0,-1.0,-1.0,3.0,2.0,-2.0,41.0,,,,,,,,,,,,
1689140540626689900,12.0,-1.0,-2.0,-2.0,-5.0,-2.0,-5.0,15.0,,,,,,,,,,,,
1689140540628690500,-7.0,1.0,-1.0,2.0,-1.0,-2.0,0.0,-37.0,,,,,,,,,,,,
1689140540630687200,7.0,7.0,3.0,3.0,2.0,2.0,4.0,39.0,,,,,,,,,,,,
1689140540631686800,-22.0,-6.0,-2.0,4.0,2.0,1.0,-5.0,-34.0,,,,,,,,,,,,
1689140540639684300,-24.0,1.0,0.0,-4.0,-3.0,-3.0,0.0,0.0,,,,,,,,,,,,
1689140540641685300,8.0,-4.0,-1.0,-1.0,1.0,3.0,-3.0,-18.0,,,,,,,,,,,,
1689140540647676800,-7.0,0.0,-2.0,-4.0,-1.0,-3.0,-1.0,3.0,,,,,,,,,,,,
1689140540648694400,11.0,-2.0,-1.0,-1.0,-4.0,-1.0,3.0,16.0,,,,,,,,,,,,
1689140540670665600,-4.0,-2.0,0.0,3.0,4.0,2.0,0.0,3.0,,,,,,,,,,,,
1689140540671663800,-15.0,2.0,2.0,0.0,-5.0,-4.0,-3.0,-14.0,,,,,,,,,,,,
1689140540672663100,2.0,3.0,0.0,1.0,2.0,2.0,-3.0,-24.0,,,,,,,,,,,,
1689140540673662700,-13.0,-8.0,-2.0,-1.0,-1.0,-3.0,0.0,-2.0,,,,,,,,,,,,
1689140540678659300,4.0,3.0,1.0,0.0,-1.0,0.0,-5.0,-9.0,,,,,,,,,,,,
1689140540679662400,2.0,0.0,0.0,1.0,1.0,-1.0,0.0,-17.0,,,,,,,,,,,,
1689140540684655400,-4.0,-1.0,-1.0,-1.0,-6.0,-1.0,-2.0,2.0,,,,,,,,,,,,
1689140540685677300,-2.0,1.0,-1.0,-1.0,0.0,-1.0,0.0,-3.0,,,,,,,,,,,,
1689140540703645900,8.0,-4.0,-23.0,-70.0,-35.0,-12.0,-4.0,0.0,,,,,,,,,,,,
1689140540704647200,6.0,-3.0,-4.0,-48.0,-31.0,-3.0,-2.0,0.0,,,,,,,,,,,,
1689140540707645000,-2.0,-2.0,5.0,19.0,27.0,5.0,0.0,6.0,,,,,,,,,,,,
1689140540708647800,-8.0,3.0,10.0,19.0,29.0,9.0,2.0,-3.0,,,,,,,,,,,,
1689140540723096200,14.0,3.0,8.0,-1.0,11.0,7.0,5.0,13.0,,,,,,,,,,,,
1689140540725096600,-8.0,-10.0,-41.0,-77.0,-67.0,-22.0,-12.0,-15.0,,,,,,,,,,,,
1689140540726095300,-12.0,-3.0,9.0,-2.0,31.0,8.0,-1.0,-5.0,,,,,,,,,,,,
1689140540727094400,-1.0,1.0,1.0,40.0,-42.0,-6.0,-2.0,-4.0,,,,,,,,,,,,
1689140540738554800,12.0,-2.0,42.0,91.0,103.0,35.0,10.0,6.0,,,,,,,,,,,,
1689140540739556000,1.0,-15.0,-36.0,-33.0,-2.0,-2.0,3.0,0.0,,,,,,,,,,,,
1689140540744576300,-14.0,-6.0,-29.0,-88.0,-99.0,-23.0,-12.0,-10.0,,,,,,,,,,,,
1689140540746532900,18.0,-6.0,15.0,65.0,91.0,37.0,11.0,15.0,,,,,,,,,,,,
1689140540759431700,-2.0,5.0,-2.0,-80.0,-45.0,-13.0,-7.0,-4.0,,,,,,,,,,,,
1689140540760409800,-3.0,50.0,64.0,-27.0,-6.0,4.0,0.0,-5.0,,,,,,,,,,,,
1689140540784723600,2.0,-13.0,-60.0,-60.0,-38.0,-20.0,-9.0,0.0,,,,,,,,,,,,
1689140540786718600,-13.0,-2.0,-13.0,-116.0,-57.0,-17.0,-7.0,-8.0,,,,,,,,,,,,
1689140540787717400,-14.0,-15.0,-18.0,60.0,-14.0,5.0,1.0,-7.0,,,,,,,,,,,,
1689140540788720200,3.0,0.0,-6.0,22.0,56.0,6.0,-4.0,-10.0,,,,,,,,,,,,
1689140540790718800,-7.0,-13.0,28.0,39.0,3.0,7.0,6.0,1.0,,,,,,,,,,,,
1689140540791716100,11.0,-1.0,-33.0,-1.0,33.0,6.0,12.0,26.0,,,,,,,,,,,,
1689140540806709000,-3.0,11.0,32.0,5.0,-10.0,-8.0,-5.0,-9.0,,,,,,,,,,,,
1689140540808709700,21.0,5.0,15.0,15.0,-17.0,-10.0,-6.0,-1.0,,,,,,,,,,,,
1689140540809708000,-36.0,12.0,-5.0,-8.0,-4.0,-3.0,-8.0,-13.0,,,,,,,,,,,,
1689140540810707400,12.0,-5.0,-8.0,20.0,16.0,6.0,3.0,-2.0,,,,,,,,,,,,
1689140540819698600,1.0,-25.0,-6.0,12.0,-1.0,1.0,6.0,14.0,,,,,,,,,,,,
1689140540820702000,12.0,-2.0,-6.0,-7.0,-4.0,2.0,-2.0,-4.0,,,,,,,,,,,,
1689140540826694500,-35.0,10.0,13.0,28.0,25.0,7.0,2.0,0.0,,,,,,,,,,,,
1689140540828709500,-1.0,-4.0,-9.0,-46.0,-39.0,-11.0,-3.0,-17.0,,,,,,,,,,,,
1689140540850357300,5.0,25.0,28.0,27.0,42.0,8.0,3.0,-4.0,,,,,,,,,,,,
1689140540852383700,19.0,-2.0,-8.0,37.0,12.0,-2.0,-3.0,3.0,,,,,,,,,,,,
1689140540853382000,2.0,5.0,11.0,13.0,12.0,11.0,9.0,18.0,,,,,,,,,,,,
1689140540853382000,0.0,-11.0,-54.0,-43.0,-31.0,-15.0,-6.0,-5.0,,,,,,,,,,,,
1689140540858511900,-14.0,19.0,71.0,-24.0,-22.0,-10.0,-9.0,-15.0,,,,,,,,,,,,
1689140540860512600,-5.0,-16.0,-11.0,19.0,5.0,2.0,2.0,4.0,,,,,,,,,,,,
1689140540864509800,-23.0,-10.0,2.0,-3.0,5.0,-5.0,14.0,-2.0,,,,,,,,,,,,
1689140540865512100,15.0,11.0,-1.0,-4.0,-15.0,-3.0,-45.0,-9.0,,,,,,,,,,,,
1689140540879624500,18.0,12.0,-30.0,-12.0,-16.0,-5.0,17.0,28.0,,,,,,,,,,,,
1689140540881648100,10.0,-10.0,-12.0,15.0,13.0,5.0,-20.0,32.0,,,,,,,,,,,,
1689140540887490900,57.0,17.0,38.0,5.0,-6.0,-4.0,-13.0,-44.0,,,,,,,,,,,,
1689140540888496800,-29.0,-36.0,-32.0,-11.0,-10.0,-9.0,3.0,-2.0,,,,,,,,,,,,
1689140540902781600,-50.0,-7.0,-24.0,-10.0,-10.0,-10.0,-8.0,-12.0,,,,,,,,,,,,
1689140540904780000,-5.0,-18.0,14.0,-15.0,-3.0,5.0,9.0,-11.0,,,,,,,,,,,,
1689140540905779200,-8.0,-20.0,-89.0,-59.0,-37.0,-20.0,-10.0,23.0,,,,,,,,,,,,
1689140540906778500,46.0,68.0,102.0,88.0,70.0,22.0,23.0,22.0,,,,,,,,,,,,
1689140540918771900,-15.0,26.0,38.0,32.0,15.0,-1.0,-11.0,-28.0,,,,,,,,,,,,
1689140540919794300,8.0,14.0,10.0,3.0,-2.0,-1.0,25.0,4.0,,,,,,,,,,,,
1689140540924770500,21.0,-6.0,-49.0,-47.0,0.0,-4.0,-14.0,1.0,,,,,,,,,,,,
1689140540925790000,-55.0,-28.0,-13.0,-60.0,-53.0,-26.0,-7.0,-24.0,,,,,,,,,,,,
1689140540939760000,-31.0,-27.0,36.0,60.0,11.0,17.0,4.0,9.0,,,,,,,,,,,,
1689140540940765300,13.0,-13.0,-32.0,23.0,56.0,11.0,9.0,-24.0,,,,,,,,,,,,
1689140540946757300,-23.0,48.0,10.0,-31.0,-3.0,2.0,9.0,9.0,,,,,,,,,,,,
1689140540948774100,25.0,-51.0,-31.0,-38.0,-30.0,-11.0,-8.0,0.0,,,,,,,,,,,,
1689140540963748100,-40.0,20.0,-65.0,-27.0,-28.0,-11.0,1.0,-8.0,,,,,,,,,,,,
1689140540964746300,-17.0,-52.0,26.0,-32.0,-30.0,-12.0,-18.0,-15.0,,,,,,,,,,,,
1689140540965744800,6.0,17.0,7.0,30.0,-4.0,2.0,-14.0,-10.0,,,,,,,,,,,,
1689140540967746300,-44.0,46.0,22.0,19.0,19.0,16.0,19.0,18.0,,,,,,,,,,,,
1689140540978737000,58.0,-77.0,-42.0,-28.0,-12.0,-10.0,-11.0,-14.0,,,,,,,,,,,,
1689140540980735400,16.0,26.0,-8.0,-21.0,-10.0,-7.0,-9.0,1.0,,,,,,,,,,,,
1689140540984734100,18.0,40.0,38.0,35.0,33.0,12.0,12.0,9.0,,,,,,,,,,,,
1689140540985733100,-6.0,-1.0,-2.0,-43.0,-41.0,-18.0,-10.0,-11.0,,,,,,,,,,,,
1689140540999724900,-35.0,4.0,43.0,59.0,31.0,8.0,-1.0,-5.0,,,,,,,,,,,,
1689140541000728600,-27.0,14.0,-32.0,-54.0,-11.0,-11.0,-2.0,-4.0,,,,,,,,,,,,
1689140541007721100,43.0,-65.0,32.0,123.0,57.0,24.0,13.0,22.0,,,,,,,,,,,,
1689140541008721200,20.0,10.0,-9.0,-40.0,-15.0,-12.0,-10.0,-11.0,,,,,,,,,,,,
1689140541022410800,-12.0,24.0,-65.0,-88.0,-48.0,-11.0,3.0,10.0,,,,,,,,,,,,
1689140541024415300,-9.0,-19.0,57.0,108.0,-3.0,17.0,12.0,7.0,,,,,,,,,,,,
1689140541029572900,-46.0,-4.0,-12.0,-69.0,-27.0,-8.0,-4.0,-16.0,,,,,,,,,,,,
1689140541031542800,53.0,23.0,16.0,-26.0,-13.0,-1.0,4.0,-10.0,,,,,,,,,,,,
1689140541038812400,20.0,-46.0,-7.0,-43.0,-3.0,-2.0,-14.0,-10.0,,,,,,,,,,,,
1689140541039811500,24.0,19.0,-30.0,-16.0,-46.0,-19.0,-14.0,1.0,,,,,,,,,,,,
1689140541044807900,-9.0,-32.0,19.0,-12.0,-11.0,-4.0,-3.0,-4.0,,,,,,,,,,,,
1689140541045805800,46.0,13.0,5.0,57.0,16.0,5.0,7.0,18.0,,,,,,,,,,,,
1689140541059796500,28.0,6.0,-31.0,-35.0,9.0,2.0,-1.0,4.0,,,,,,,,,,,,
1689140541061799100,39.0,53.0,31.0,46.0,35.0,20.0,10.0,7.0,,,,,,,,,,,,
1689140541066793700,-31.0,10.0,5.0,-4.0,-1.0,-1.0,-1.0,-4.0,,,,,,,,,,,,
1689140541068791300,5.0,-22.0,4.0,23.0,34.0,7.0,0.0,5.0,,,,,,,,,,,,
1689140541083782900,-30.0,-56.0,-20.0,-19.0,-46.0,-23.0,-7.0,-11.0,,,,,,,,,,,,
1689140541084782400,-16.0,20.0,-13.0,-21.0,-4.0,-4.0,0.0,4.0,,,,,,,,,,,,
1689140541089778900,10.0,14.0,-7.0,-44.0,-6.0,2.0,-4.0,2.0,,,,,,,,,,,,
1689140541091778300,-41.0,13.0,11.0,-51.0,-57.0,-18.0,-5.0,-11.0,,,,,,,,,,,,
1689140541098774400,43.0,26.0,17.0,32.0,71.0,25.0,14.0,22.0,,,,,,,,,,,,
1689140541100794700,-2.0,-4.0,-3.0,-17.0,-14.0,-3.0,-2.0,-4.0,,,,,,,,,,,,
1689140541112773600,-19.0,-11.0,25.0,57.0,22.0,5.0,4.0,-1.0,0.799663365,-0.248996973,10.65419769,0.106318533,0.011990812,-0.015987748,-0.275333196,0.316034615,9.246406555,-0.104186833,0.022116385,-0.012257273
1689140541114768300,6.0,-4.0,-16.0,-27.0,8.0,-1.0,0.0,-2.0,,,,,,,,,,,,
1689140541119761900,-3.0,2.0,-22.0,-62.0,-3.0,-9.0,-3.0,3.0,,,,,,,,,,,,
1689140541120761800,-63.0,-41.0,13.0,67.0,-7.0,-4.0,-7.0,-17.0,,,,,,,,,,,,
1689140541127505800,85.0,39.0,-17.0,24.0,35.0,9.0,6.0,17.0,,,,,,,,,,,,
1689140541128522900,-56.0,-82.0,12.0,25.0,28.0,21.0,0.0,-6.0,,,,,,,,,,,,
1689140541142111600,39.0,58.0,20.0,29.0,-11.0,-32.0,1.0,6.0,,,,,,,,,,,,
1689140541143124500,-76.0,-35.0,-26.0,-54.0,4.0,14.0,0.0,-6.0,,,,,,,,,,,,
1689140541157772200,54.0,-59.0,-36.0,-32.0,-46.0,-7.0,-2.0,6.0,,,,,,,,,,,,
1689140541159777500,-1.0,65.0,7.0,20.0,10.0,5.0,3.0,-1.0,,,,,,,,,,,,
1689140541165331400,23.0,1.0,-1.0,32.0,-11.0,-5.0,-4.0,0.0,,,,,,,,,,,,
1689140541167340200,-22.0,28.0,3.0,-67.0,6.0,0.0,2.0,1.0,,,,,,,,,,,,
1689140541168350300,-37.0,-19.0,24.0,67.0,16.0,18.0,8.0,2.0,,,,,,,,,,,,
1689140541169333900,-32.0,-6.0,-17.0,-21.0,-44.0,-14.0,-9.0,-13.0,,,,,,,,,,,,
1689140541179613300,-16.0,11.0,-9.0,-107.0,-55.0,1.0,1.0,4.0,,,,,,,,,,,,
1689140541181631100,51.0,16.0,7.0,-60.0,-34.0,-6.0,1.0,11.0,,,,,,,,,,,,
1689140541187615300,-51.0,-1.0,10.0,1.0,13.0,0.0,-4.0,-12.0,,,,,,,,,,,,
1689140541188613100,-3.0,6.0,-17.0,30.0,-12.0,-3.0,2.0,6.0,,,,,,,,,,,,
1689140541202614900,-22.0,17.0,-19.0,-44.0,-5.0,2.0,-8.0,-10.0,,,,,,,,,,,,
1689140541203614100,34.0,-1.0,22.0,-5.0,-9.0,-9.0,6.0,5.0,,,,,,,,,,,,
1689140541209598600,-39.0,26.0,16.0,-12.0,-38.0,-24.0,-14.0,-20.0,,,,,,,,,,,,
1689140541210601700,96.0,27.0,-7.0,-6.0,44.0,5.0,11.0,19.0,,,,,,,,,,,,
1689140541225590100,-20.0,-71.0,-38.0,-29.0,-34.0,-9.0,-2.0,2.0,,,,,,,,,,,,
1689140541226590600,27.0,-9.0,-11.0,-26.0,-16.0,6.0,-2.0,-6.0,,,,,,,,,,,,
1689140541227599100,17.0,8.0,-52.0,-56.0,-18.0,-9.0,-2.0,-5.0,,,,,,,,,,,,
1689140541228606000,18.0,36.0,7.0,32.0,63.0,26.0,14.0,11.0,,,,,,,,,,,,
1689140541239581400,-6.0,28.0,6.0,63.0,63.0,16.0,-6.0,-2.0,,,,,,,,,,,,
1689140541240603700,-40.0,2.0,52.0,7.0,-3.0,6.0,7.0,0.0,,,,,,,,,,,,
1689140541249575900,13.0,-10.0,70.0,93.0,21.0,34.0,9.0,10.0,,,,,,,,,,,,
1689140541250598400,-52.0,-23.0,5.0,-6.0,-24.0,-10.0,-8.0,-17.0,,,,,,,,,,,,
1689140541262411400,82.0,35.0,-37.0,-101.0,-25.0,3.0,0.0,11.0,,,,,,,,,,,,
1689140541264415300,-107.0,-68.0,-97.0,26.0,-42.0,-7.0,-20.0,-21.0,,,,,,,,,,,,
1689140541269676300,36.0,25.0,-8.0,-17.0,-6.0,-17.0,-5.0,1.0,,,,,,,,,,,,
1689140541271702400,-23.0,-31.0,49.0,61.0,44.0,39.0,12.0,5.0,,,,,,,,,,,,
1689140541285165400,0.0,6.0,50.0,127.0,58.0,14.0,1.0,-8.0,,,,,,,,,,,,
1689140541287191700,13.0,12.0,27.0,-53.0,-83.0,-40.0,-10.0,-16.0,,,,,,,,,,,,
1689140541288169600,56.0,2.0,34.0,-8.0,30.0,5.0,12.0,27.0,,,,,,,,,,,,
1689140541289189600,-47.0,-41.0,-44.0,-25.0,-30.0,-5.0,-8.0,-12.0,,,,,,,,,,,,
1689140541300264800,21.0,-32.0,-23.0,-109.0,-119.0,-44.0,-11.0,-12.0,,,,,,,,,,,,
1689140541301282300,60.0,26.0,17.0,86.0,54.0,25.0,-1.0,1.0,,,,,,,,,,,,
1689140541307264900,-27.0,-34.0,-72.0,-128.0,-100.0,-41.0,-16.0,-8.0,,,,,,,,,,,,
1689140541309256800,10.0,1.0,88.0,104.0,91.0,56.0,18.0,13.0,,,,,,,,,,,,
1689140541322338200,0.0,0.0,-11.0,-6.0,-6.0,5.0,-3.0,-1.0,,,,,,,,,,,,
1689140541324337500,-19.0,-42.0,-41.0,-53.0,-34.0,-52.0,-13.0,-9.0,,,,,,,,,,,,
1689140541330337400,17.0,2.0,50.0,-13.0,-17.0,-29.0,2.0,-2.0,,,,,,,,,,,,
1689140541331348500,15.0,51.0,-89.0,-128.0,-108.0,-48.0,-22.0,-12.0,,,,,,,,,,,,
1689140541345323700,60.0,43.0,59.0,73.0,17.0,17.0,9.0,8.0,,,,,,,,,,,,
1689140541346321500,-30.0,-61.0,-9.0,29.0,87.0,27.0,2.0,3.0,,,,,,,,,,,,
1689140541348320300,13.0,-23.0,-91.0,-53.0,-78.0,-28.0,-15.0,-4.0,,,,,,,,,,,,
1689140541349319400,-31.0,41.0,41.0,45.0,46.0,-38.0,-3.0,-10.0,,,,,,,,,,,,
1689140541361312700,19.0,5.0,55.0,27.0,63.0,28.0,17.0,14.0,,,,,,,,,,,,
1689140541362313600,19.0,59.0,-49.0,-51.0,15.0,27.0,4.0,0.0,,,,,,,,,,,,
1689140541367308600,31.0,7.0,65.0,71.0,40.0,54.0,12.0,10.0,,,,,,,,,,,,
1689140541368308900,97.0,-43.0,-29.0,-64.0,-31.0,-14.0,-4.0,10.0,,,,,,,,,,,,
1689140541382301600,-79.0,-30.0,64.0,60.0,55.0,72.0,15.0,-1.0,,,,,,,,,,,,
1689140541384299500,48.0,-2.0,-35.0,-54.0,39.0,-26.0,0.0,5.0,,,,,,,,,,,,
1689140541390296500,-118.0,68.0,-101.0,-54.0,-42.0,-28.0,-14.0,-29.0,,,,,,,,,,,,
1689140541392295600,5.0,-12.0,12.0,2.0,20.0,63.0,13.0,2.0,,,,,,,,,,,,
1689140541405287900,71.0,-29.0,-87.0,-94.0,-48.0,-52.0,-12.0,1.0,,,,,,,,,,,,
1689140541408286400,-123.0,-44.0,-51.0,-78.0,-70.0,-34.0,2.0,-12.0,,,,,,,,,,,,
1689140541410284900,86.0,45.0,17.0,29.0,23.0,17.0,-13.0,0.0,,,,,,,,,,,,
1689140541412284200,-45.0,17.0,-39.0,-6.0,-23.0,-40.0,-4.0,7.0,,,,,,,,,,,,
1689140541420283800,21.0,35.0,65.0,95.0,71.0,52.0,5.0,-8.0,,,,,,,,,,,,
1689140541425276800,37.0,-33.0,40.0,-46.0,-76.0,7.0,5.0,14.0,,,,,,,,,,,,
1689140541428275700,-37.0,-26.0,32.0,30.0,42.0,-21.0,-11.0,-13.0,,,,,,,,,,,,
1689140541431273900,-76.0,-32.0,-30.0,-66.0,-49.0,-14.0,-7.0,-10.0,,,,,,,,,,,,
1689140541442272100,-23.0,-8.0,8.0,85.0,81.0,1.0,-6.0,-11.0,,,,,,,,,,,,
1689140541444265800,127.0,84.0,1.0,-58.0,-16.0,23.0,10.0,16.0,,,,,,,,,,,,
1689140541449263200,6.0,-72.0,87.0,118.0,78.0,12.0,10.0,7.0,,,,,,,,,,,,
1689140541451261800,10.0,-28.0,-19.0,-73.0,-28.0,20.0,3.0,-3.0,,,,,,,,,,,,
1689140541466252500,-42.0,12.0,-93.0,-95.0,-77.0,-51.0,6.0,6.0,,,,,,,,,,,,
1689140541468252300,-48.0,-8.0,54.0,66.0,41.0,7.0,-10.0,-10.0,,,,,,,,,,,,
1689140541470250500,-11.0,33.0,-35.0,-21.0,1.0,-3.0,12.0,7.0,,,,,,,,,,,,
1689140541472249500,46.0,-11.0,4.0,22.0,-2.0,-14.0,-61.0,10.0,,,,,,,,,,,,
1689140541480244500,114.0,54.0,-10.0,-18.0,-32.0,-18.0,0.0,23.0,,,,,,,,,,,,
1689140541482245100,-107.0,-59.0,-51.0,36.0,23.0,-5.0,-14.0,-34.0,,,,,,,,,,,,
1689140541487239500,82.0,-23.0,36.0,-9.0,49.0,37.0,17.0,10.0,,,,,,,,,,,,
1689140541488240400,49.0,93.0,49.0,-21.0,-53.0,-34.0,9.0,3.0,,,,,,,,,,,,
1689140541502231300,10.0,-117.0,44.0,15.0,22.0,41.0,11.0,-2.0,,,,,,,,,,,,
1689140541503231800,37.0,60.0,-20.0,62.0,4.0,-11.0,-6.0,4.0,,,,,,,,,,,,
1689140541509229100,-39.0,48.0,-78.0,-98.0,-106.0,-78.0,-3.0,5.0,,,,,,,,,,,,
1689140541511228600,-57.0,-2.0,-50.0,-20.0,-33.0,-50.0,5.0,-14.0,,,,,,,,,,,,
1689140541525219100,61.0,96.0,49.0,37.0,11.0,47.0,9.0,19.0,,,,,,,,,,,,
1689140541526218400,-81.0,-17.0,-53.0,-39.0,1.0,-9.0,-3.0,-29.0,,,,,,,,,,,,
1689140541527220100,-9.0,-6.0,35.0,88.0,83.0,25.0,2.0,-4.0,,,,,,,,,,,,
1689140541529218400,46.0,19.0,-3.0,5.0,50.0,2.0,5.0,0.0,,,,,,,,,,,,
1689140541541209300,-80.0,-39.0,-10.0,-128.0,-128.0,-44.0,-3.0,14.0,,,,,,,,,,,,
1689140541543207600,123.0,-13.0,-54.0,-47.0,-20.0,-18.0,-4.0,23.0,,,,,,,,,,,,
1689140541550206000,-88.0,-1.0,-34.0,-21.0,-36.0,-21.0,-5.0,-15.0,,,,,,,,,,,,
1689140541552203400,70.0,4.0,111.0,127.0,105.0,91.0,30.0,21.0,,,,,,,,,,,,
1689140541562622800,-68.0,-71.0,-42.0,-81.0,-4.0,4.0,6.0,0.0,,,,,,,,,,,,
1689140541563622100,-13.0,-6.0,52.0,-5.0,5.0,-13.0,10.0,9.0,,,,,,,,,,,,
1689140541569630000,68.0,-13.0,-73.0,-128.0,-119.0,-39.0,-10.0,3.0,,,,,,,,,,,,
1689140541570655300,6.0,16.0,-32.0,-28.0,-58.0,-12.0,1.0,-15.0,,,,,,,,,,,,
1689140541585727800,-30.0,20.0,-7.0,1.0,26.0,4.0,-2.0,-12.0,,,,,,,,,,,,
1689140541586730100,-49.0,-22.0,4.0,-32.0,-23.0,11.0,9.0,10.0,,,,,,,,,,,,
1689140541587729800,-3.0,9.0,-5.0,-43.0,-23.0,-51.0,-25.0,-23.0,,,,,,,,,,,,
1689140541588729700,96.0,-62.0,-55.0,-12.0,-10.0,-14.0,-2.0,10.0,,,,,,,,,,,,
1689140541608785900,14.0,-11.0,-56.0,-69.0,-59.0,-28.0,-11.0,-4.0,,,,,,,,,,,,
1689140541610784100,37.0,30.0,90.0,74.0,93.0,41.0,8.0,1.0,,,,,,,,,,,,
1689140541611783700,-62.0,-19.0,17.0,-40.0,-6.0,24.0,-4.0,-11.0,,,,,,,,,,,,
1689140541612782200,-42.0,19.0,28.0,-25.0,0.0,20.0,8.0,2.0,,,,,,,,,,,,
1689140541621884500,-23.0,-12.0,-36.0,-13.0,-19.0,-47.0,-20.0,-12.0,,,,,,,,,,,,
1689140541623908400,2.0,18.0,10.0,28.0,-6.0,-3.0,5.0,-5.0,,,,,,,,,,,,
1689140541629884800,7.0,0.0,17.0,13.0,1.0,13.0,9.0,16.0,,,,,,,,,,,,
1689140541630886200,42.0,-19.0,-7.0,-9.0,-10.0,-14.0,-10.0,-3.0,,,,,,,,,,,,
1689140541644892800,-11.0,-3.0,-18.0,3.0,10.0,7.0,-6.0,-17.0,,,,,,,,,,,,
1689140541646878700,20.0,15.0,-4.0,15.0,-10.0,6.0,-8.0,7.0,,,,,,,,,,,,
1689140541647879100,6.0,4.0,11.0,13.0,27.0,28.0,34.0,-3.0,,,,,,,,,,,,
1689140541648877500,-105.0,-18.0,-13.0,-24.0,-14.0,-8.0,7.0,7.0,,,,,,,,,,,,
1689140541659867400,-7.0,15.0,-14.0,2.0,-15.0,-25.0,-8.0,-21.0,,,,,,,,,,,,
1689140541660889800,49.0,10.0,25.0,20.0,3.0,8.0,8.0,25.0,,,,,,,,,,,,
1689140541666885900,-6.0,-9.0,3.0,1.0,22.0,27.0,0.0,5.0,,,,,,,,,,,,
1689140541668865600,-17.0,-16.0,-13.0,-6.0,-10.0,-15.0,4.0,-9.0,,,,,,,,,,,,
1689140541681854600,-2.0,-1.0,8.0,13.0,6.0,1.0,-8.0,1.0,,,,,,,,,,,,
1689140541683866800,2.0,11.0,3.0,5.0,8.0,12.0,12.0,-4.0,,,,,,,,,,,,
1689140541690849600,1.0,-16.0,-7.0,-10.0,5.0,9.0,-3.0,-2.0,,,,,,,,,,,,
1689140541692849400,-20.0,-12.0,-13.0,-11.0,2.0,10.0,2.0,2.0,,,,,,,,,,,,
1689140541713480300,-8.0,7.0,6.0,11.0,1.0,-3.0,-9.0,-5.0,,,,,,,,,,,,
1689140541714496800,-12.0,0.0,2.0,-6.0,-8.0,-2.0,-5.0,-15.0,,,,,,,,,,,,
1689140541715499200,28.0,2.0,-9.0,-9.0,3.0,10.0,-2.0,2.0,,,,,,,,,,,,
1689140541716498200,-13.0,-11.0,2.0,0.0,0.0,-9.0,-2.0,-15.0,,,,,,,,,,,,
1689140541721368000,-17.0,2.0,1.0,8.0,1.0,-1.0,-8.0,8.0,,,,,,,,,,,,
1689140541722367100,-14.0,2.0,-4.0,2.0,-5.0,-6.0,-1.0,13.0,,,,,,,,,,,,
1689140541727894800,43.0,-5.0,1.0,2.0,9.0,6.0,5.0,-18.0,,,,,,,,,,,,
1689140541728892800,-28.0,-17.0,0.0,-2.0,-3.0,16.0,-4.0,-4.0,,,,,,,,,,,,
1689140541742411400,-17.0,-7.0,-1.0,1.0,2.0,-5.0,-2.0,-7.0,,,,,,,,,,,,
1689140541743417700,15.0,-18.0,-1.0,2.0,-5.0,0.0,-10.0,1.0,,,,,,,,,,,,
1689140541750413400,-14.0,-17.0,-1.0,-1.0,8.0,4.0,-2.0,14.0,,,,,,,,,,,,
1689140541751412400,-15.0,-16.0,-7.0,-10.0,-15.0,-16.0,-14.0,-1.0,,,,,,,,,,,,
1689140541765015700,-12.0,0.0,-2.0,4.0,6.0,7.0,9.0,-8.0,,,,,,,,,,,,
1689140541767014600,13.0,3.0,4.0,2.0,-4.0,-3.0,1.0,-14.0,,,,,,,,,,,,
1689140541768014100,-45.0,8.0,0.0,4.0,5.0,12.0,11.0,-23.0,,,,,,,,,,,,
1689140541768991600,22.0,8.0,-6.0,-4.0,-4.0,-2.0,-25.0,16.0,,,,,,,,,,,,
1689140541780984800,29.0,14.0,5.0,8.0,8.0,5.0,10.0,34.0,,,,,,,,,,,,
1689140541781987300,0.0,8.0,-1.0,-2.0,-6.0,-6.0,-8.0,-6.0,,,,,,,,,,,,
1689140541787004000,-18.0,2.0,-3.0,-2.0,-1.0,5.0,7.0,-1.0,,,,,,,,,,,,
1689140541787983400,-26.0,3.0,-3.0,-4.0,-5.0,-5.0,5.0,-21.0,,,,,,,,,,,,
1689140541801972000,0.0,3.0,-1.0,2.0,1.0,-2.0,-11.0,1.0,,,,,,,,,,,,
1689140541802994800,-12.0,5.0,1.0,-1.0,1.0,0.0,0.0,-14.0,,,,,,,,,,,,
1689140541809968300,-3.0,-3.0,0.0,-1.0,3.0,1.0,-8.0,7.0,,,,,,,,,,,,
1689140541810967900,-8.0,-3.0,2.0,2.0,3.0,1.0,2.0,1.0,,,,,,,,,,,,
1689140541825962400,7.0,0.0,0.0,0.0,-6.0,-6.0,12.0,-22.0,,,,,,,,,,,,
1689140541827959200,5.0,6.0,1.0,2.0,6.0,4.0,-12.0,29.0,,,,,,,,,,,,
1689140541828961400,21.0,-4.0,-1.0,-1.0,1.0,1.0,-4.0,8.0,,,,,,,,,,,,
1689140541829959700,10.0,3.0,1.0,-2.0,0.0,0.0,-1.0,-6.0,,,,,,,,,,,,
1689140541841078400,13.0,-4.0,-2.0,2.0,2.0,-1.0,8.0,18.0,,,,,,,,,,,,
1689140541843082500,-21.0,6.0,-3.0,-1.0,-3.0,3.0,16.0,-17.0,,,,,,,,,,,,
1689140541847144100,-8.0,-4.0,1.0,1.0,1.0,2.0,-6.0,2.0,,,,,,,,,,,,
1689140541849079400,5.0,-1.0,-3.0,-3.0,1.0,1.0,-1.0,3.0,,,,,,,,,,,,
1689140541862413900,-15.0,-5.0,0.0,0.0,2.0,0.0,1.0,-1.0,,,,,,,,,,,,
1689140541863438800,10.0,-1.0,-2.0,1.0,0.0,-3.0,-4.0,-3.0,,,,,,,,,,,,
1689140541869658400,15.0,8.0,-1.0,-1.0,-4.0,-1.0,0.0,20.0,,,,,,,,,,,,
1689140541870667700,-4.0,-3.0,-3.0,-2.0,-1.0,-6.0,3.0,5.0,,,,,,,,,,,,
1689140541885708200,-33.0,-2.0,-1.0,0.0,3.0,4.0,-2.0,-19.0,,,,,,,,,,,,
1689140541887709800,21.0,-5.0,-4.0,-2.0,-1.0,-8.0,-4.0,12.0,,,,,,,,,,,,
1689140541888709000,-4.0,-4.0,0.0,-1.0,0.0,2.0,0.0,-17.0,,,,,,,,,,,,
1689140541890710800,-11.0,-2.0,1.0,-3.0,0.0,-2.0,0.0,16.0,,,,,,,,,,,,
1689140541916185700,-12.0,-2.0,0.0,3.0,-1.0,2.0,2.0,-6.0,,,,,,,,,,,,
1689140541918184400,9.0,1.0,-1.0,-1.0,-3.0,-1.0,-4.0,3.0,,,,,,,,,,,,
1689140541919182100,2.0,0.0,0.0,3.0,2.0,0.0,-2.0,6.0,,,,,,,,,,,,
1689140541920182500,2.0,-1.0,2.0,3.0,1.0,4.0,3.0,-8.0,,,,,,,,,,,,
1689140541922179000,7.0,-1.0,-7.0,-3.0,-5.0,-6.0,-5.0,1.0,,,,,,,,,,,,
1689140541923201200,-13.0,0.0,4.0,1.0,2.0,1.0,7.0,-2.0,,,,,,,,,,,,
1689140541930176800,0.0,-2.0,-3.0,-2.0,-2.0,-4.0,-4.0,-8.0,,,,,,,,,,,,
1689140541931176100,9.0,-3.0,-7.0,-1.0,-6.0,-7.0,-3.0,3.0,,,,,,,,,,,,
1689140541945166800,9.0,10.0,8.0,3.0,-1.0,-1.0,1.0,0.0,,,,,,,,,,,,
1689140541947167600,-5.0,0.0,16.0,6.0,14.0,7.0,3.0,3.0,,,,,,,,,,,,
1689140541948167200,3.0,4.0,7.0,0.0,7.0,4.0,-2.0,3.0,,,,,,,,,,,,
1689140541949166800,-11.0,-9.0,0.0,-4.0,-1.0,4.0,-1.0,-12.0,,,,,,,,,,,,
1689140541961160300,0.0,0.0,-5.0,-32.0,-13.0,-5.0,-6.0,3.0,,,,,,,,,,,,
1689140541962157800,6.0,0.0,3.0,42.0,15.0,1.0,2.0,3.0,,,,,,,,,,,,
1689140541971153900,4.0,-3.0,-5.0,-4.0,-3.0,-5.0,-4.0,-2.0,,,,,,,,,,,,
1689140541973151700,-6.0,0.0,1.0,-5.0,-3.0,1.0,3.0,-1.0,,,,,,,,,,,,
1689140541990264700,-2.0,-4.0,-1.0,4.0,5.0,0.0,-3.0,-6.0,,,,,,,,,,,,
1689140541992267100,-5.0,-4.0,-9.0,-25.0,-15.0,-4.0,-1.0,-5.0,,,,,,,,,,,,
1689140541993289600,-5.0,-4.0,-5.0,3.0,-5.0,-1.0,2.0,4.0,,,,,,,,,,,,
1689140541994288400,2.0,2.0,1.0,4.0,6.0,1.0,-1.0,-4.0,,,,,,,,,,,,
1689140542004282700,1.0,-1.0,-3.0,-12.0,-3.0,1.0,-5.0,-5.0,,,,,,,,,,,,
1689140542006259700,1.0,0.0,-3.0,-2.0,-1.0,-3.0,1.0,3.0,,,,,,,,,,,,
1689140542021249700,3.0,-2.0,-1.0,4.0,2.0,3.0,1.0,7.0,,,,,,,,,,,,
1689140542022250600,-4.0,-1.0,-12.0,-6.0,-2.0,-1.0,0.0,-14.0,,,,,,,,,,,,
1689140542024250200,9.0,2.0,11.0,11.0,4.0,1.0,0.0,9.0,,,,,,,,,,,,
1689140542025249300,-7.0,1.0,10.0,-7.0,-3.0,0.0,-1.0,-2.0,,,,,,,,,,,,
1689140542027249100,2.0,0.0,0.0,-4.0,-1.0,-3.0,-1.0,1.0,,,,,,,,,,,,
1689140542028266600,-4.0,-9.0,-36.0,-3.0,-3.0,0.0,-1.0,-4.0,,,,,,,,,,,,
1689140542042410200,-5.0,-1.0,4.0,4.0,8.0,2.0,0.0,-2.0,,,,,,,,,,,,
1689140542044416900,-6.0,-17.0,-44.0,-12.0,-7.0,-6.0,-2.0,-5.0,,,,,,,,,,,,
1689140542049413600,3.0,-4.0,5.0,-8.0,-3.0,1.0,0.0,-8.0,,,,,,,,,,,,
1689140542050425100,0.0,1.0,-6.0,-1.0,-3.0,-2.0,0.0,11.0,,,,,,,,,,,,
1689140542065047200,-3.0,2.0,1.0,6.0,-1.0,0.0,-2.0,-4.0,,,,,,,,,,,,
1689140542066046600,1.0,2.0,0.0,-4.0,-3.0,-2.0,1.0,-15.0,,,,,,,,,,,,
1689140542072065300,-1.0,5.0,5.0,3.0,0.0,0.0,0.0,22.0,,,,,,,,,,,,
1689140542073043600,-1.0,2.0,17.0,2.0,4.0,1.0,2.0,-3.0,,,,,,,,,,,,
1689140542088034300,-2.0,-2.0,-11.0,-38.0,-21.0,-7.0,-3.0,-3.0,,,,,,,,,,,,
1689140542089037200,1.0,0.0,4.0,22.0,15.0,6.0,1.0,1.0,,,,,,,,,,,,
1689140542090036300,-2.0,-3.0,-10.0,-36.0,-5.0,-1.0,0.0,-5.0,,,,,,,,,,,,
1689140542091035300,-1.0,9.0,42.0,83.0,19.0,1.0,0.0,-1.0,,,,,,,,,,,,
1689140542102025800,-3.0,-9.0,-11.0,10.0,-2.0,0.0,-1.0,2.0,,,,,,,,,,,,
1689140542103047900,-4.0,-1.0,-8.0,-33.0,-15.0,-7.0,-3.0,-2.0,,,,,,,,,,,,
1689140542115021000,0.0,0.0,-7.0,-12.0,-3.0,-2.0,-1.0,-1.0,,,,,,,,,,,,
1689140542116021800,0.0,1.0,-5.0,-30.0,-7.0,-1.0,-3.0,0.0,,,,,,,,,,,,
1689140542125015000,0.0,-4.0,-1.0,-11.0,-9.0,-2.0,-1.0,-2.0,,,,,,,,,,,,
1689140542127016500,1.0,1.0,5.0,1.0,6.0,2.0,-1.0,4.0,,,,,,,,,,,,
1689140542132417800,-3.0,-3.0,4.0,25.0,12.0,3.0,1.0,2.0,,,,,,,,,,,,
1689140542134426700,7.0,1.0,2.0,-11.0,-4.0,-3.0,-3.0,-6.0,,,,,,,,,,,,
1689140542147760000,-3.0,-1.0,-2.0,19.0,4.0,1.0,0.0,-3.0,,,,,,,,,,,,
1689140542149712800,-4.0,-5.0,-8.0,-48.0,-20.0,-4.0,-2.0,3.0,,,,,,,,,,,,
1689140542150711500,3.0,2.0,15.0,69.0,29.0,6.0,0.0,-1.0,,,,,,,,,,,,
1689140542151710700,-2.0,-2.0,-3.0,-16.0,-6.0,-5.0,-2.0,-1.0,,,,,,,,,,,,
1689140542162212100,-3.0,-4.0,4.0,20.0,22.0,10.0,2.0,0.0,,,,,,,,,,,,
1689140542164188000,3.0,3.0,3.0,0.0,-11.0,-3.0,0.0,5.0,,,,,,,,,,,,
1689140542169647700,-4.0,-1.0,-3.0,-37.0,-16.0,-5.0,-2.0,-7.0,,,,,,,,,,,,
1689140542171651700,0.0,-1.0,12.0,60.0,23.0,7.0,3.0,5.0,,,,,,,,,,,,
1689140542184722600,1.0,0.0,-8.0,-9.0,-8.0,-6.0,-2.0,-1.0,,,,,,,,,,,,
1689140542186717700,-1.0,3.0,3.0,-6.0,-9.0,-4.0,-1.0,-1.0,,,,,,,,,,,,
1689140542192714100,-3.0,-2.0,-8.0,-29.0,-7.0,-3.0,-3.0,-3.0,,,,,,,,,,,,
1689140542194713800,1.0,1.0,0.0,65.0,15.0,5.0,1.0,3.0,,,,,,,,,,,,
1689140542207705100,-1.0,0.0,9.0,6.0,5.0,0.0,-1.0,-3.0,,,,,,,,,,,,
1689140542209706800,-3.0,-1.0,-11.0,-25.0,-24.0,-6.0,-2.0,-1.0,,,,,,,,,,,,
1689140542211726000,4.0,2.0,-5.0,-16.0,26.0,1.0,-1.0,0.0,,,,,,,,,,,,
1689140542213703800,-3.0,-1.0,-20.0,-128.0,-59.0,-14.0,-6.0,0.0,,,,,,,,,,,,
1689140542222698700,11.0,15.0,78.0,105.0,112.0,47.0,16.0,10.0,,,,,,,,,,,,
1689140542223695900,2.0,-2.0,-17.0,-55.0,-4.0,1.0,1.0,0.0,,,,,,,,,,,,
1689140542229694300,-2.0,-31.0,-5.0,4.0,-19.0,-6.0,-4.0,-3.0,,,,,,,,,,,,
1689140542230692600,-4.0,0.0,-19.0,-54.0,-20.0,-10.0,-4.0,-3.0,,,,,,,,,,,,
1689140542244683600,-5.0,-1.0,-20.0,-35.0,-37.0,-11.0,-5.0,-4.0,,,,,,,,,,,,
1689140542246682700,0.0,-1.0,7.0,19.0,5.0,-1.0,0.0,4.0,,,,,,,,,,,,
1689140542252680200,-1.0,9.0,5.0,9.0,6.0,6.0,2.0,1.0,,,,,,,,,,,,
1689140542254678300,-4.0,-9.0,-6.0,-4.0,-12.0,-5.0,-4.0,-3.0,,,,,,,,,,,,
1689140542270669300,-1.0,-7.0,-18.0,-12.0,-17.0,-8.0,-2.0,-1.0,,,,,,,,,,,,
1689140542271668900,-4.0,2.0,11.0,39.0,17.0,3.0,1.0,-2.0,,,,,,,,,,,,
1689140542274666700,-3.0,-2.0,-15.0,-17.0,-27.0,-9.0,-4.0,-4.0,,,,,,,,,,,,
1689140542276666400,-3.0,1.0,12.0,17.0,18.0,8.0,6.0,1.0,,,,,,,,,,,,
1689140542283662300,-4.0,2.0,1.0,-23.0,-8.0,-4.0,-4.0,-3.0,,,,,,,,,,,,
1689140542284661800,-7.0,-10.0,-1.0,4.0,14.0,7.0,-2.0,-4.0,,,,,,,,,,,,
1689140542289658700,3.0,7.0,7.0,10.0,-3.0,-1.0,0.0,1.0,,,,,,,,,,,,
1689140542291657700,-1.0,-1.0,8.0,-2.0,-2.0,-5.0,-4.0,-2.0,,,,,,,,,,,,
1689140542304650700,-8.0,-8.0,-20.0,-13.0,-8.0,-11.0,-6.0,-6.0,,,,,,,,,,,,
1689140542305650400,13.0,2.0,0.0,9.0,-11.0,-13.0,-8.0,1.0,,,,,,,,,,,,
1689140542311644700,-29.0,-2.0,12.0,13.0,16.0,19.0,18.0,1.0,,,,,,,,,,,,
1689140542313645700,30.0,14.0,4.0,8.0,8.0,1.0,-4.0,9.0,,,,,,,,,,,,
1689140542327636900,9.0,-4.0,-17.0,-28.0,-23.0,-10.0,-10.0,-35.0,,,,,,,,,,,,
1689140542329635500,-6.0,3.0,10.0,13.0,5.0,3.0,4.0,-5.0,,,,,,,,,,,,
1689140542331636000,-25.0,5.0,-12.0,-16.0,-18.0,-10.0,0.0,-51.0,,,,,,,,,,,,
1689140542332636100,-71.0,-10.0,7.0,4.0,-2.0,-1.0,3.0,36.0,,,,,,,,,,,,
1689140542342628200,84.0,2.0,-4.0,-2.0,3.0,6.0,3.0,34.0,,,,,,,,,,,,
1689140542344626500,-5.0,-3.0,11.0,13.0,0.0,-8.0,-3.0,38.0,,,,,,,,,,,,
1689140542349627400,88.0,36.0,4.0,6.0,16.0,9.0,-12.0,10.0,,,,,,,,,,,,
1689140542351625900,-3.0,46.0,6.0,-3.0,14.0,14.0,1.0,-2.0,,,,,,,,,,,,
1689140542364615200,30.0,-37.0,-6.0,-4.0,-14.0,-12.0,-26.0,21.0,,,,,,,,,,,,
1689140542365616100,-9.0,5.0,1.0,-9.0,2.0,12.0,33.0,-54.0,,,,,,,,,,,,
1689140542372610900,66.0,3.0,-12.0,-10.0,-10.0,-11.0,-40.0,126.0,,,,,,,,,,,,
1689140542374610000,16.0,-81.0,-20.0,-17.0,-11.0,0.0,29.0,110.0,,,,,,,,,,,,
1689140542387601400,72.0,97.0,21.0,8.0,17.0,13.0,57.0,-35.0,,,,,,,,,,,,
1689140542389602500,59.0,-8.0,-12.0,-7.0,-22.0,-19.0,-96.0,-110.0,,,,,,,,,,,,
1689140542390600700,15.0,-65.0,-9.0,-4.0,6.0,1.0,-35.0,-76.0,,,,,,,,,,,,
1689140542392599500,-69.0,70.0,1.0,-18.0,-8.0,-11.0,30.0,-26.0,,,,,,,,,,,,
1689140542402595900,-9.0,-106.0,-40.0,-13.0,-38.0,-26.0,-78.0,-7.0,,,,,,,,,,,,
1689140542403594600,-50.0,-8.0,6.0,12.0,11.0,11.0,124.0,102.0,,,,,,,,,,,,
1689140542409590400,-128.0,72.0,21.0,14.0,17.0,8.0,-48.0,28.0,,,,,,,,,,,,
1689140542411589000,-35.0,-102.0,-32.0,-22.0,-39.0,-42.0,-45.0,-39.0,,,,,,,,,,,,
1689140542424580700,70.0,82.0,44.0,29.0,43.0,-7.0,31.0,20.0,,,,,,,,,,,,
1689140542426581000,-128.0,18.0,0.0,9.0,13.0,14.0,-100.0,-120.0,,,,,,,,,,,,
1689140542432577500,101.0,10.0,-2.0,-6.0,-14.0,19.0,107.0,78.0,,,,,,,,,,,,
1689140542433577100,127.0,61.0,13.0,10.0,20.0,16.0,66.0,-101.0,,,,,,,,,,,,
1689140542447567700,-98.0,-58.0,-7.0,-6.0,-18.0,-12.0,-36.0,-29.0,,,,,,,,,,,,
1689140542449567200,-60.0,27.0,11.0,3.0,15.0,19.0,-25.0,40.0,,,,,,,,,,,,
1689140542450568000,13.0,25.0,-6.0,2.0,3.0,-2.0,-8.0,-89.0,,,,,,,,,,,,
