timestamp,EMG_s0,EMG_s1,EMG_s2,EMG_s3,EMG_s4,EMG_s5,EMG_s6,EMG_s7,left_data_Ac_X,left_data_Ac_Y,left_data_Ac_Z,left_data_Gy_X,left_data_Gy_Y,left_data_Gy_Z,left_data_flex_1,left_data_flex_2,left_data_flex_3,left_data_flex_4,left_data_flex_5,right_data_Ac_X,right_data_Ac_Y,right_data_Ac_Z,right_data_Gy_X,right_data_Gy_Y,right_data_Gy_Z,right_data_flex_1,right_data_flex_2,right_data_flex_3,right_data_flex_4,right_data_flex_5
1693678310234166100,-1.0,1.0,1.0,1.0,-2.0,-1.0,0.0,0.0,1.016338587,-0.861912608,10.22802925,-0.060353752,0.000266462,-0.007727412,-24.0,39.0,84.0,7.0,-8.0,-0.114921682,2.421735048,10.22324085,0.052359879,-0.027845331,0.037970904,15.0,32.0,-28.0,-23.0,45.0
1693678310236166500,2.0,0.0,0.0,2.0,4.0,1.0,0.0,1.0,1.016338587,-0.861912608,10.22802925,-0.060353752,0.000266462,-0.007727412,-24.0,39.0,84.0,7.0,-8.0,-0.114921682,2.421735048,10.22324085,0.052359879,-0.027845331,0.037970904,15.0,32.0,-28.0,-23.0,45.0
1693678310238162600,-1.0,-2.0,0.0,-1.0,-3.0,-3.0,0.0,0.0,1.016338587,-0.861912608,10.22802925,-0.060353752,0.000266462,-0.007727412,-24.0,39.0,84.0,7.0,-8.0,-0.114921682,2.421735048,10.22324085,0.052359879,-0.027845331,0.037970904,15.0,32.0,-28.0,-23.0,45.0
1693678310239162400,0.0,-1.0,-1.0,0.0,-1.0,-2.0,-1.0,1.0,1.016338587,-0.861912608,10.22802925,-0.060353752,0.000266462,-0.007727412,-24.0,39.0,84.0,7.0,-8.0,-0.114921682,2.421735048,10.22324085,0.052359879,-0.027845331,0.037970904,15.0,32.0,-28.0,-23.0,45.0
1693678310253154300,-5.0,-4.0,-5.0,-9.0,0.0,2.0,1.0,-2.0,1.016338587,-0.861912608,10.22802925,-0.060353752,0.000266462,-0.007727412,-24.0,39.0,84.0,7.0,-8.0,-0.114921682,2.421735048,10.22324085,0.052359879,-0.027845331,0.037970904,15.0,32.0,-28.0,-23.0,45.0
1693678310254153900,6.0,9.0,10.0,18.0,10.0,7.0,0.0,1.0,1.016338587,-0.861912608,10.22802925,-0.060353752,0.000266462,-0.007727412,-24.0,39.0,84.0,7.0,-8.0,-0.114921682,2.421735048,10.22324085,0.052359879,-0.027845331,0.037970904,15.0,32.0,-28.0,-23.0,45.0
1693678310256151800,-2.0,-1.0,-4.0,-7.0,-9.0,-6.0,-2.0,-2.0,1.016338587,-0.861912608,10.22802925,-0.060353752,0.000266462,-0.007727412,-24.0,39.0,84.0,7.0,-8.0,-0.114921682,2.421735048,10.22324085,0.052359879,-0.027845331,0.037970904,15.0,32.0,-28.0,-23.0,45.0
1693678310258151400,1.0,-2.0,-3.0,-2.0,2.0,-4.0,-1.0,1.0,1.016338587,-0.861912608,10.22802925,-0.060353752,0.000266462,-0.007727412,-24.0,39.0,84.0,7.0,-8.0,-0.114921682,2.421735048,10.22324085,0.052359879,-0.027845331,0.037970904,15.0,32.0,-28.0,-23.0,45.0
1693678310259151200,17.0,5.0,3.0,-2.0,-3.0,0.0,1.0,13.0,1.016338587,-0.861912608,10.22802925,-0.060353752,0.000266462,-0.007727412,-24.0,39.0,84.0,7.0,-8.0,-0.114921682,2.421735048,10.22324085,0.052359879,-0.027845331,0.037970904,15.0,32.0,-28.0,-23.0,45.0
1693678310260150600,10.0,-1.0,-8.0,-17.0,-10.0,-2.0,-1.0,-9.0,1.016338587,-0.861912608,10.22802925,-0.060353752,0.000266462,-0.007727412,-24.0,39.0,84.0,7.0,-8.0,-0.114921682,2.421735048,10.22324085,0.052359879,-0.027845331,0.037970904,15.0,32.0,-28.0,-23.0,45.0
1693678310268147200,-44.0,-14.0,1.0,16.0,15.0,3.0,-2.0,-8.0,1.016338587,-0.861912608,10.22802925,-0.060353752,0.000266462,-0.007727412,-24.0,39.0,84.0,7.0,-8.0,-0.114921682,2.421735048,10.22324085,0.052359879,-0.027845331,0.037970904,15.0,32.0,-28.0,-23.0,45.0
1693678310270144600,0.0,6.0,-1.0,-7.0,-16.0,0.0,-2.0,-2.0,1.016338587,-0.861912608,10.22802925,-0.060353752,0.000266462,-0.007727412,-24.0,39.0,84.0,7.0,-8.0,-0.114921682,2.421735048,10.22324085,0.052359879,-0.027845331,0.037970904,15.0,32.0,-28.0,-23.0,45.0
1693678310271144400,-2.0,-4.0,-9.0,-5.0,-2.0,-9.0,1.0,5.0,1.016338587,-0.861912608,10.22802925,-0.060353752,0.000266462,-0.007727412,-24.0,39.0,84.0,7.0,-8.0,-0.114921682,2.421735048,10.22324085,0.052359879,-0.027845331,0.037970904,15.0,32.0,-28.0,-23.0,45.0
1693678310272143900,25.0,2.0,7.0,17.0,23.0,11.0,2.0,25.0,1.016338587,-0.861912608,10.22802925,-0.060353752,0.000266462,-0.007727412,-24.0,39.0,84.0,7.0,-8.0,-0.114921682,2.421735048,10.22324085,0.052359879,-0.027845331,0.037970904,15.0,32.0,-28.0,-23.0,45.0
1693678310274144200,31.0,4.0,-4.0,-11.0,-22.0,-3.0,0.0,-9.0,1.016338587,-0.861912608,10.22802925,-0.060353752,0.000266462,-0.007727412,-24.0,39.0,84.0,7.0,-8.0,-0.114921682,2.421735048,10.22324085,0.052359879,-0.027845331,0.037970904,15.0,32.0,-28.0,-23.0,45.0
1693678310276141400,-66.0,-8.0,-13.0,-11.0,3.0,-5.0,-10.0,-48.0,1.016338587,-0.861912608,10.22802925,-0.060353752,0.000266462,-0.007727412,-24.0,39.0,84.0,7.0,-8.0,-0.114921682,2.421735048,10.22324085,0.052359879,-0.027845331,0.037970904,15.0,32.0,-28.0,-23.0,45.0
1693678310278141200,-10.0,4.0,25.0,14.0,-8.0,-5.0,4.0,5.0,1.016338587,-0.861912608,10.22802925,-0.060353752,0.000266462,-0.007727412,-24.0,39.0,84.0,7.0,-8.0,-0.114921682,2.421735048,10.22324085,0.052359879,-0.027845331,0.037970904,15.0,32.0,-28.0,-23.0,45.0
1693678310281139200,-11.0,-4.0,-7.0,-5.0,-34.0,-5.0,1.0,-5.0,1.016338587,-0.861912608,10.22802925,-0.060353752,0.000266462,-0.007727412,-24.0,39.0,84.0,7.0,-8.0,-0.114921682,2.421735048,10.22324085,0.052359879,-0.027845331,0.037970904,15.0,32.0,-28.0,-23.0,45.0
1693678310299130800,-2.0,-6.0,-27.0,-13.0,38.0,4.0,-3.0,16.0,1.016338587,-0.861912608,10.22802925,-0.060353752,0.000266462,-0.007727412,-24.0,39.0,84.0,7.0,-8.0,-0.114921682,2.421735048,10.22324085,0.052359879,-0.027845331,0.037970904,15.0,32.0,-28.0,-23.0,45.0
1693678310309121700,27.0,19.0,68.0,19.0,-21.0,7.0,7.0,17.0,1.016338587,-0.861912608,10.22802925,-0.060353752,0.000266462,-0.007727412,-24.0,39.0,84.0,7.0,-8.0,-0.114921682,2.421735048,10.22324085,0.052359879,-0.027845331,0.037970904,15.0,32.0,-28.0,-23.0,45.0
1693678310310121800,0.0,-9.0,-22.0,-23.0,-40.0,11.0,-6.0,-17.0,1.016338587,-0.861912608,10.22802925,-0.060353752,0.000266462,-0.007727412,-24.0,39.0,84.0,7.0,-8.0,-0.114921682,2.421735048,10.22324085,0.052359879,-0.027845331,0.037970904,15.0,32.0,-28.0,-23.0,45.0
1693678310311121300,-13.0,4.0,12.0,-8.0,-78.0,-32.0,2.0,2.0,1.016338587,-0.861912608,10.22802925,-0.060353752,0.000266462,-0.007727412,-24.0,39.0,84.0,7.0,-8.0,-0.114921682,2.421735048,10.22324085,0.052359879,-0.027845331,0.037970904,15.0,32.0,-28.0,-23.0,45.0
1693678310313118500,-13.0,4.0,12.0,-8.0,-78.0,-32.0,2.0,2.0,1.022324085,-0.861912608,10.23042393,-0.060353752,0.000399694,-0.007594181,-18.0,41.0,74.0,5.0,-12.0,-0.110133275,2.419340849,10.21845245,0.052226644,-0.027445635,0.038104136,13.0,35.0,-19.0,-24.0,52.0
1693678310314118500,-13.0,4.0,12.0,-8.0,-78.0,-32.0,2.0,2.0,1.022324085,-0.865503907,10.23042393,-0.060220521,0.000266462,-0.007594181,-30.0,43.0,85.0,12.0,-12.0,-0.111330383,2.420537949,10.22084713,0.052359879,-0.027445635,0.037970904,20.0,36.0,-24.0,-24.0,55.0
1693678310315118500,-13.0,4.0,12.0,-8.0,-78.0,-32.0,2.0,2.0,1.022324085,-0.866701007,10.23162079,-0.060353752,0.000399694,-0.007594181,-25.0,33.0,81.0,6.0,-14.0,-0.110133275,2.419340849,10.22204399,0.052359879,-0.027312404,0.037837673,18.0,32.0,-21.0,-28.0,53.0
1693678310316118500,-13.0,4.0,12.0,-8.0,-78.0,-32.0,2.0,2.0,1.023521185,-0.867898107,10.23042393,-0.060220521,0.000399694,-0.007460949,-27.0,41.0,84.0,8.0,-8.0,-0.110133275,2.418143749,10.22084713,0.052359879,-0.027578866,0.037837673,18.0,40.0,-32.0,-24.0,49.0
1693678310317118500,-13.0,4.0,12.0,-8.0,-78.0,-32.0,2.0,2.0,1.022324085,-0.869095206,10.22563553,-0.06008729,0.000532925,-0.007460949,-28.0,42.0,81.0,10.0,-9.0,-0.110133275,2.420537949,10.22443867,0.052359879,-0.027578866,0.037704438,15.0,30.0,-27.0,-29.0,50.0
1693678310319118100,13.0,10.0,35.0,24.0,73.0,-45.0,1.0,4.0,1.022324085,-0.869095206,10.22563553,-0.06008729,0.000532925,-0.007460949,-28.0,42.0,81.0,10.0,-9.0,-0.110133275,2.420537949,10.22443867,0.052359879,-0.027578866,0.037704438,15.0,30.0,-27.0,-29.0,50.0
1693678310320115500,8.0,-4.0,-5.0,5.0,-17.0,53.0,-1.0,1.0,1.022324085,-0.869095206,10.22563553,-0.06008729,0.000532925,-0.007460949,-28.0,42.0,81.0,10.0,-9.0,-0.110133275,2.420537949,10.22443867,0.052359879,-0.027578866,0.037704438,15.0,30.0,-27.0,-29.0,50.0
1693678310321115400,-4.0,1.0,4.0,22.0,99.0,10.0,2.0,-3.0,1.022324085,-0.869095206,10.22563553,-0.06008729,0.000532925,-0.007460949,-28.0,42.0,81.0,10.0,-9.0,-0.110133275,2.420537949,10.22443867,0.052359879,-0.027578866,0.037704438,15.0,30.0,-27.0,-29.0,50.0
1693678310322114900,-1.0,-5.0,-9.0,-8.0,-65.0,-39.0,-5.0,-5.0,1.022324085,-0.869095206,10.22563553,-0.06008729,0.000532925,-0.007460949,-28.0,42.0,81.0,10.0,-9.0,-0.110133275,2.420537949,10.22443867,0.052359879,-0.027578866,0.037704438,15.0,30.0,-27.0,-29.0,50.0
1693678310342103500,-2.0,-2.0,-11.0,-7.0,-63.0,-41.0,-2.0,-3.0,1.022324085,-0.869095206,10.22563553,-0.06008729,0.000532925,-0.007460949,-28.0,42.0,81.0,10.0,-9.0,-0.110133275,2.420537949,10.22443867,0.052359879,-0.027578866,0.037704438,15.0,30.0,-27.0,-29.0,50.0
1693678310343102600,6.0,-2.0,-3.0,3.0,87.0,50.0,3.0,2.0,1.022324085,-0.869095206,10.22563553,-0.06008729,0.000532925,-0.007460949,-28.0,42.0,81.0,10.0,-9.0,-0.110133275,2.420537949,10.22443867,0.052359879,-0.027578866,0.037704438,15.0,30.0,-27.0,-29.0,50.0
1693678310345103100,-2.0,0.0,7.0,7.0,35.0,39.0,3.0,2.0,1.022324085,-0.869095206,10.22563553,-0.06008729,0.000532925,-0.007460949,-28.0,42.0,81.0,10.0,-9.0,-0.110133275,2.420537949,10.22443867,0.052359879,-0.027578866,0.037704438,15.0,30.0,-27.0,-29.0,50.0
1693678310346100700,-5.0,-3.0,-10.0,0.0,21.0,-19.0,1.0,-4.0,1.022324085,-0.869095206,10.22563553,-0.06008729,0.000532925,-0.007460949,-28.0,42.0,81.0,10.0,-9.0,-0.110133275,2.420537949,10.22443867,0.052359879,-0.027578866,0.037704438,15.0,30.0,-27.0,-29.0,50.0
1693678310366092700,2.0,3.0,3.0,5.0,-4.0,45.0,3.0,-3.0,1.022324085,-0.869095206,10.22563553,-0.06008729,0.000532925,-0.007460949,-28.0,42.0,81.0,10.0,-9.0,-0.110133275,2.420537949,10.22443867,0.052359879,-0.027578866,0.037704438,15.0,30.0,-27.0,-29.0,50.0
1693678310369088400,-3.0,-9.0,-16.0,-13.0,80.0,-37.0,-6.0,6.0,1.022324085,-0.869095206,10.22563553,-0.06008729,0.000532925,-0.007460949,-28.0,42.0,81.0,10.0,-9.0,-0.110133275,2.420537949,10.22443867,0.052359879,-0.027578866,0.037704438,15.0,30.0,-27.0,-29.0,50.0
1693678310370088000,-1.0,-5.0,-13.0,-25.0,-128.0,-1.0,-6.0,-6.0,1.022324085,-0.869095206,10.22563553,-0.06008729,0.000532925,-0.007460949,-28.0,42.0,81.0,10.0,-9.0,-0.110133275,2.420537949,10.22443867,0.052359879,-0.027578866,0.037704438,15.0,30.0,-27.0,-29.0,50.0
1693678310372086000,-5.0,0.0,0.0,2.0,82.0,15.0,1.0,-5.0,1.022324085,-0.869095206,10.22563553,-0.06008729,0.000532925,-0.007460949,-28.0,42.0,81.0,10.0,-9.0,-0.110133275,2.420537949,10.22443867,0.052359879,-0.027578866,0.037704438,15.0,30.0,-27.0,-29.0,50.0
1693678310386078100,-3.0,0.0,7.0,1.0,-24.0,4.0,-2.0,1.0,1.022324085,-0.869095206,10.22563553,-0.06008729,0.000532925,-0.007460949,-28.0,42.0,81.0,10.0,-9.0,-0.110133275,2.420537949,10.22443867,0.052359879,-0.027578866,0.037704438,15.0,30.0,-27.0,-29.0,50.0
1693678310386078700,-3.0,0.0,7.0,1.0,-24.0,4.0,-2.0,1.0,1.022324085,-0.861912608,10.21725559,-0.059954058,0.000799387,-0.007727412,-22.0,41.0,85.0,8.0,-7.0,-0.112527482,2.41455245,10.21965027,0.052359879,-0.027312404,0.037704438,18.0,46.0,-21.0,-19.0,90.0
1693678310387078300,7.0,-2.0,-7.0,-1.0,9.0,-12.0,4.0,-20.0,1.022324085,-0.861912608,10.21725559,-0.059954058,0.000799387,-0.007727412,-22.0,41.0,85.0,8.0,-7.0,-0.112527482,2.41455245,10.21965027,0.052359879,-0.027312404,0.037704438,18.0,46.0,-21.0,-19.0,90.0
1693678310387078700,7.0,-2.0,-7.0,-1.0,9.0,-12.0,4.0,-20.0,1.022324085,-0.860715508,10.21486187,-0.059820827,0.000932619,-0.007727412,-26.0,43.0,89.0,7.0,-8.0,-0.113724582,2.418143749,10.21486187,0.052226644,-0.027179174,0.037437979,19.0,35.0,-21.0,-20.0,50.0
1693678310388078700,7.0,-2.0,-7.0,-1.0,9.0,-12.0,4.0,-20.0,1.019929886,-0.863109708,10.21605873,-0.059820827,0.000799387,-0.007727412,-24.0,41.0,80.0,6.0,-7.0,-0.111330383,2.41574955,10.21605873,0.052226644,-0.027179174,0.037304748,15.0,37.0,-23.0,-31.0,50.0
1693678310389078700,7.0,-2.0,-7.0,-1.0,9.0,-12.0,4.0,-20.0,1.017535686,-0.865503907,10.20767879,-0.059820827,0.000799387,-0.007727412,-27.0,43.0,84.0,11.0,-8.0,-0.111330383,2.41574955,10.21366405,0.052226644,-0.027179174,0.03757121,11.0,32.0,-22.0,-23.0,49.0
1693678310390078700,7.0,-2.0,-7.0,-1.0,9.0,-12.0,4.0,-20.0,1.021126986,-0.865503907,10.21246719,-0.06008729,0.000799387,-0.007727412,-15.0,42.0,85.0,12.0,-9.0,-0.107739076,2.41694665,10.21366405,0.052359879,-0.027179174,0.037437979,13.0,45.0,-20.0,-26.0,50.0
1693678310419059400,2.0,-9.0,-7.0,10.0,59.0,3.0,1.0,0.0,1.021126986,-0.865503907,10.21246719,-0.06008729,0.000799387,-0.007727412,-15.0,42.0,85.0,12.0,-9.0,-0.107739076,2.41694665,10.21366405,0.052359879,-0.027179174,0.037437979,13.0,45.0,-20.0,-26.0,50.0
1693678310421058300,-10.0,-2.0,0.0,-7.0,15.0,-12.0,-5.0,-10.0,1.021126986,-0.865503907,10.21246719,-0.06008729,0.000799387,-0.007727412,-15.0,42.0,85.0,12.0,-9.0,-0.107739076,2.41694665,10.21366405,0.052359879,-0.027179174,0.037437979,13.0,45.0,-20.0,-26.0,50.0
1693678310423058800,0.0,19.0,4.0,5.0,16.0,7.0,6.0,11.0,1.021126986,-0.865503907,10.21246719,-0.06008729,0.000799387,-0.007727412,-15.0,42.0,85.0,12.0,-9.0,-0.107739076,2.41694665,10.21366405,0.052359879,-0.027179174,0.037437979,13.0,45.0,-20.0,-26.0,50.0
1693678310424058100,-1.0,5.0,10.0,18.0,10.0,4.0,-5.0,-15.0,1.021126986,-0.865503907,10.21246719,-0.06008729,0.000799387,-0.007727412,-15.0,42.0,85.0,12.0,-9.0,-0.107739076,2.41694665,10.21366405,0.052359879,-0.027179174,0.037437979,13.0,45.0,-20.0,-26.0,50.0
1693678310425056900,-2.0,1.0,-4.0,-8.0,-28.0,-11.0,-2.0,-3.0,1.021126986,-0.865503907,10.21246719,-0.06008729,0.000799387,-0.007727412,-15.0,42.0,85.0,12.0,-9.0,-0.107739076,2.41694665,10.21366405,0.052359879,-0.027179174,0.037437979,13.0,45.0,-20.0,-26.0,50.0
1693678310427054400,5.0,-4.0,-4.0,5.0,94.0,13.0,5.0,2.0,1.021126986,-0.865503907,10.21246719,-0.06008729,0.000799387,-0.007727412,-15.0,42.0,85.0,12.0,-9.0,-0.107739076,2.41694665,10.21366405,0.052359879,-0.027179174,0.037437979,13.0,45.0,-20.0,-26.0,50.0
1693678310428054600,3.0,-2.0,-4.0,-10.0,-39.0,-11.0,-20.0,10.0,1.021126986,-0.865503907,10.21246719,-0.06008729,0.000799387,-0.007727412,-15.0,42.0,85.0,12.0,-9.0,-0.107739076,2.41694665,10.21366405,0.052359879,-0.027179174,0.037437979,13.0,45.0,-20.0,-26.0,50.0
1693678310431053900,-2.0,2.0,1.0,-5.0,26.0,1.0,2.0,2.0,1.021126986,-0.865503907,10.21246719,-0.06008729,0.000799387,-0.007727412,-15.0,42.0,85.0,12.0,-9.0,-0.107739076,2.41694665,10.21366405,0.052359879,-0.027179174,0.037437979,13.0,45.0,-20.0,-26.0,50.0
1693678310435051100,-4.0,-2.0,3.0,0.0,-7.0,-5.0,4.0,-4.0,1.021126986,-0.865503907,10.21246719,-0.06008729,0.000799387,-0.007727412,-15.0,42.0,85.0,12.0,-9.0,-0.107739076,2.41694665,10.21366405,0.052359879,-0.027179174,0.037437979,13.0,45.0,-20.0,-26.0,50.0
1693678310436049300,-25.0,-16.0,-6.0,0.0,-11.0,3.0,-3.0,-14.0,1.021126986,-0.865503907,10.21246719,-0.06008729,0.000799387,-0.007727412,-15.0,42.0,85.0,12.0,-9.0,-0.107739076,2.41694665,10.21366405,0.052359879,-0.027179174,0.037437979,13.0,45.0,-20.0,-26.0,50.0
1693678310446044700,5.0,2.0,-3.0,3.0,28.0,9.0,22.0,18.0,1.021126986,-0.865503907,10.21246719,-0.06008729,0.000799387,-0.007727412,-15.0,42.0,85.0,12.0,-9.0,-0.107739076,2.41694665,10.21366405,0.052359879,-0.027179174,0.037437979,13.0,45.0,-20.0,-26.0,50.0
1693678310450045500,22.0,9.0,7.0,5.0,-17.0,-10.0,-35.0,-19.0,1.021126986,-0.865503907,10.21246719,-0.06008729,0.000799387,-0.007727412,-15.0,42.0,85.0,12.0,-9.0,-0.107739076,2.41694665,10.21366405,0.052359879,-0.027179174,0.037437979,13.0,45.0,-20.0,-26.0,50.0
1693678310461035700,-40.0,-33.0,-1.0,4.0,1.0,3.0,3.0,-32.0,1.021126986,-0.865503907,10.21246719,-0.06008729,0.000799387,-0.007727412,-15.0,42.0,85.0,12.0,-9.0,-0.107739076,2.41694665,10.21366405,0.052359879,-0.027179174,0.037437979,13.0,45.0,-20.0,-26.0,50.0
1693678310467030500,-40.0,-33.0,-1.0,4.0,1.0,3.0,3.0,-32.0,1.034295082,-0.85353291,10.24119759,-0.060753446,0.000399694,-0.007594181,-31.0,36.0,83.0,6.0,-14.0,-0.106541976,2.41455245,10.22084713,0.052359879,-0.027045943,0.037837673,17.0,34.0,-20.0,-14.0,55.0
1693678310467032200,-32.0,-24.0,-7.0,-19.0,-102.0,-2.0,-13.0,-15.0,1.034295082,-0.85353291,10.24119759,-0.060753446,0.000399694,-0.007594181,-31.0,36.0,83.0,6.0,-14.0,-0.106541976,2.41455245,10.22084713,0.052359879,-0.027045943,0.037837673,17.0,34.0,-20.0,-14.0,55.0
1693678310468030500,-32.0,-24.0,-7.0,-19.0,-102.0,-2.0,-13.0,-15.0,1.030703783,-0.852335811,10.23760605,-0.060753446,0.000266462,-0.007460949,-37.0,34.0,83.0,6.0,-15.0,-0.104147777,2.41455245,10.21965027,0.052359879,-0.027045943,0.037970904,14.0,36.0,-21.0,-27.0,51.0
1693678310469030500,-32.0,-24.0,-7.0,-19.0,-102.0,-2.0,-13.0,-15.0,1.027112484,-0.849941611,10.23640919,-0.060753446,0.000266462,-0.007460949,-27.0,45.0,90.0,3.0,-8.0,-0.10295067,2.41694665,10.22204399,0.05249311,-0.027312404,0.037970904,14.0,31.0,-22.0,-27.0,48.0
1693678310470029800,58.0,46.0,-10.0,-1.0,78.0,-26.0,-5.0,66.0,1.027112484,-0.849941611,10.23640919,-0.060753446,0.000266462,-0.007460949,-27.0,45.0,90.0,3.0,-8.0,-0.10295067,2.41694665,10.22204399,0.05249311,-0.027312404,0.037970904,14.0,31.0,-22.0,-27.0,48.0
1693678310470030500,58.0,46.0,-10.0,-1.0,78.0,-26.0,-5.0,66.0,1.022324085,-0.852335811,10.23760605,-0.060886677,0.000399694,-0.007460949,-28.0,39.0,81.0,10.0,-11.0,-0.105344877,2.421735048,10.22084713,0.05249311,-0.027179174,0.037970904,19.0,37.0,-28.0,-20.0,51.0
1693678310471030500,58.0,46.0,-10.0,-1.0,78.0,-26.0,-5.0,66.0,1.023521185,-0.852335811,10.24119759,-0.061019909,0.000399694,-0.007460949,-24.0,47.0,87.0,13.0,-5.0,-0.108936176,2.422932148,10.22204399,0.05249311,-0.027312404,0.037970904,17.0,39.0,-24.0,-23.0,51.0
1693678310472029000,-43.0,-38.0,-9.0,-10.0,-49.0,5.0,23.0,10.0,1.023521185,-0.852335811,10.24119759,-0.061019909,0.000399694,-0.007460949,-24.0,47.0,87.0,13.0,-5.0,-0.108936176,2.422932148,10.22204399,0.05249311,-0.027312404,0.037970904,17.0,39.0,-24.0,-23.0,51.0
1693678310477028200,-41.0,43.0,-2.0,-3.0,41.0,5.0,6.0,13.0,1.023521185,-0.852335811,10.24119759,-0.061019909,0.000399694,-0.007460949,-24.0,47.0,87.0,13.0,-5.0,-0.108936176,2.422932148,10.22204399,0.05249311,-0.027312404,0.037970904,17.0,39.0,-24.0,-23.0,51.0
1693678310478026800,78.0,47.0,27.0,16.0,-7.0,9.0,12.0,-22.0,1.023521185,-0.852335811,10.24119759,-0.061019909,0.000399694,-0.007460949,-24.0,47.0,87.0,13.0,-5.0,-0.108936176,2.422932148,10.22204399,0.05249311,-0.027312404,0.037970904,17.0,39.0,-24.0,-23.0,51.0
1693678310492018700,-97.0,-98.0,-18.0,-5.0,3.0,14.0,-6.0,-15.0,1.023521185,-0.852335811,10.24119759,-0.061019909,0.000399694,-0.007460949,-24.0,47.0,87.0,13.0,-5.0,-0.108936176,2.422932148,10.22204399,0.05249311,-0.027312404,0.037970904,17.0,39.0,-24.0,-23.0,51.0
1693678310494016700,52.0,46.0,4.0,14.0,55.0,19.0,-6.0,-2.0,1.023521185,-0.852335811,10.24119759,-0.061019909,0.000399694,-0.007460949,-24.0,47.0,87.0,13.0,-5.0,-0.108936176,2.422932148,10.22204399,0.05249311,-0.027312404,0.037970904,17.0,39.0,-24.0,-23.0,51.0
1693678310495016300,-18.0,37.0,4.0,8.0,-52.0,-41.0,-39.0,-31.0,1.023521185,-0.852335811,10.24119759,-0.061019909,0.000399694,-0.007460949,-24.0,47.0,87.0,13.0,-5.0,-0.108936176,2.422932148,10.22204399,0.05249311,-0.027312404,0.037970904,17.0,39.0,-24.0,-23.0,51.0
1693678310499014600,16.0,-25.0,-11.0,3.0,22.0,44.0,-36.0,72.0,1.023521185,-0.852335811,10.24119759,-0.061019909,0.000399694,-0.007460949,-24.0,47.0,87.0,13.0,-5.0,-0.108936176,2.422932148,10.22204399,0.05249311,-0.027312404,0.037970904,17.0,39.0,-24.0,-23.0,51.0
1693678310521000700,-3.0,15.0,11.0,-3.0,-56.0,31.0,59.0,13.0,1.023521185,-0.852335811,10.24119759,-0.061019909,0.000399694,-0.007460949,-24.0,47.0,87.0,13.0,-5.0,-0.108936176,2.422932148,10.22204399,0.05249311,-0.027312404,0.037970904,17.0,39.0,-24.0,-23.0,51.0
1693678310522999100,34.0,-11.0,-34.0,-2.0,-66.0,45.0,33.0,30.0,1.023521185,-0.852335811,10.24119759,-0.061019909,0.000399694,-0.007460949,-24.0,47.0,87.0,13.0,-5.0,-0.108936176,2.422932148,10.22204399,0.05249311,-0.027312404,0.037970904,17.0,39.0,-24.0,-23.0,51.0
1693678310539989900,-106.0,-57.0,55.0,19.0,78.0,-67.0,16.0,-17.0,1.023521185,-0.852335811,10.24119759,-0.061019909,0.000399694,-0.007460949,-24.0,47.0,87.0,13.0,-5.0,-0.108936176,2.422932148,10.22204399,0.05249311,-0.027312404,0.037970904,17.0,39.0,-24.0,-23.0,51.0
1693678310540989500,51.0,74.0,-8.0,-25.0,-29.0,-36.0,24.0,94.0,1.023521185,-0.852335811,10.24119759,-0.061019909,0.000399694,-0.007460949,-24.0,47.0,87.0,13.0,-5.0,-0.108936176,2.422932148,10.22204399,0.05249311,-0.027312404,0.037970904,17.0,39.0,-24.0,-23.0,51.0
1693678310541990700,69.0,20.0,3.0,9.0,-5.0,9.0,-79.0,-72.0,1.023521185,-0.852335811,10.24119759,-0.061019909,0.000399694,-0.007460949,-24.0,47.0,87.0,13.0,-5.0,-0.108936176,2.422932148,10.22204399,0.05249311,-0.027312404,0.037970904,17.0,39.0,-24.0,-23.0,51.0
1693678310542988200,-128.0,-81.0,-23.0,-15.0,27.0,-13.0,26.0,-43.0,1.023521185,-0.852335811,10.24119759,-0.061019909,0.000399694,-0.007460949,-24.0,47.0,87.0,13.0,-5.0,-0.108936176,2.422932148,10.22204399,0.05249311,-0.027312404,0.037970904,17.0,39.0,-24.0,-23.0,51.0
1693678310545986000,16.0,42.0,-21.0,-9.0,-14.0,6.0,-45.0,-24.0,1.023521185,-0.852335811,10.24119759,-0.061019909,0.000399694,-0.007460949,-24.0,47.0,87.0,13.0,-5.0,-0.108936176,2.422932148,10.22204399,0.05249311,-0.027312404,0.037970904,17.0,39.0,-24.0,-23.0,51.0
1693678310549986500,-61.0,-23.0,16.0,17.0,43.0,48.0,28.0,69.0,1.023521185,-0.852335811,10.24119759,-0.061019909,0.000399694,-0.007460949,-24.0,47.0,87.0,13.0,-5.0,-0.108936176,2.422932148,10.22204399,0.05249311,-0.027312404,0.037970904,17.0,39.0,-24.0,-23.0,51.0
1693678310551983600,-24.0,-15.0,-13.0,-14.0,-34.0,18.0,-24.0,-41.0,1.023521185,-0.852335811,10.24119759,-0.061019909,0.000399694,-0.007460949,-24.0,47.0,87.0,13.0,-5.0,-0.108936176,2.422932148,10.22204399,0.05249311,-0.027312404,0.037970904,17.0,39.0,-24.0,-23.0,51.0
1693678310552980300,-24.0,-15.0,-13.0,-14.0,-34.0,18.0,-24.0,-41.0,1.023521185,-0.85473001,10.23042393,-0.060620211,0.000532925,-0.007194487,-28.0,45.0,83.0,2.0,-13.0,-0.113724582,2.41455245,10.21965027,0.0528928,-0.02797856,0.037837673,16.0,37.0,-20.0,-20.0,53.0
1693678310553980300,-24.0,-15.0,-13.0,-14.0,-34.0,18.0,-24.0,-41.0,1.021126986,-0.85592711,10.23162079,-0.060486984,0.000532925,-0.007327718,-28.0,45.0,83.0,4.0,-16.0,-0.110133275,2.41694665,10.22204399,0.0528928,-0.027845331,0.037837673,15.0,36.0,-27.0,-30.0,47.0
1693678310553981900,94.0,42.0,-7.0,-12.0,6.0,-33.0,73.0,40.0,1.021126986,-0.85592711,10.23162079,-0.060486984,0.000532925,-0.007327718,-28.0,45.0,83.0,4.0,-16.0,-0.110133275,2.41694665,10.22204399,0.0528928,-0.027845331,0.037837673,15.0,36.0,-27.0,-30.0,47.0
1693678310554980300,94.0,42.0,-7.0,-12.0,6.0,-33.0,73.0,40.0,1.018732786,-0.85473001,10.22802925,-0.060353752,0.000532925,-0.007327718,-30.0,31.0,81.0,-2.0,-4.0,-0.108936176,2.41694665,10.22443867,0.052759573,-0.027845331,0.03757121,17.0,35.0,-31.0,-28.0,53.0
1693678310555980300,94.0,42.0,-7.0,-12.0,6.0,-33.0,73.0,40.0,1.018732786,-0.857124209,10.22563553,-0.060486984,0.000532925,-0.007327718,-23.0,46.0,78.0,10.0,-12.0,-0.105344877,2.418143749,10.22922707,0.052759573,-0.027712099,0.03757121,20.0,35.0,-24.0,-24.0,50.0
1693678310555981100,77.0,-16.0,-25.0,-20.0,-39.0,85.0,0.0,-2.0,1.018732786,-0.857124209,10.22563553,-0.060486984,0.000532925,-0.007327718,-23.0,46.0,78.0,10.0,-12.0,-0.105344877,2.418143749,10.22922707,0.052759573,-0.027712099,0.03757121,20.0,35.0,-24.0,-24.0,50.0
1693678310556980300,77.0,-16.0,-25.0,-20.0,-39.0,85.0,0.0,-2.0,1.019929886,-0.859518409,10.22563553,-0.060486984,0.000666156,-0.007460949,-27.0,43.0,83.0,12.0,-7.0,-0.105344877,2.419340849,10.23281765,0.052626338,-0.027712099,0.03757121,15.0,34.0,-25.0,-23.0,50.0
1693678310557981000,-46.0,-28.0,44.0,26.0,0.0,-90.0,-20.0,-44.0,1.019929886,-0.859518409,10.22563553,-0.060486984,0.000666156,-0.007460949,-27.0,43.0,83.0,12.0,-7.0,-0.105344877,2.419340849,10.23281765,0.052626338,-0.027712099,0.03757121,15.0,34.0,-25.0,-23.0,50.0
1693678310565977100,-35.0,6.0,0.0,16.0,71.0,34.0,-35.0,19.0,1.019929886,-0.859518409,10.22563553,-0.060486984,0.000666156,-0.007460949,-27.0,43.0,83.0,12.0,-7.0,-0.105344877,2.419340849,10.23281765,0.052626338,-0.027712099,0.03757121,15.0,34.0,-25.0,-23.0,50.0
1693678310567975400,-24.0,0.0,4.0,-12.0,-11.0,-1.0,-16.0,-18.0,1.019929886,-0.859518409,10.22563553,-0.060486984,0.000666156,-0.007460949,-27.0,43.0,83.0,12.0,-7.0,-0.105344877,2.419340849,10.23281765,0.052626338,-0.027712099,0.03757121,15.0,34.0,-25.0,-23.0,50.0
1693678310573969900,13.0,-21.0,-23.0,-4.0,12.0,15.0,35.0,34.0,1.019929886,-0.859518409,10.22563553,-0.060486984,0.000666156,-0.007460949,-27.0,43.0,83.0,12.0,-7.0,-0.105344877,2.419340849,10.23281765,0.052626338,-0.027712099,0.03757121,15.0,34.0,-25.0,-23.0,50.0
1693678310575969400,17.0,12.0,-20.0,-3.0,24.0,9.0,-12.0,-40.0,1.019929886,-0.859518409,10.22563553,-0.060486984,0.000666156,-0.007460949,-27.0,43.0,83.0,12.0,-7.0,-0.105344877,2.419340849,10.23281765,0.052626338,-0.027712099,0.03757121,15.0,34.0,-25.0,-23.0,50.0
1693678310582968300,-22.0,-29.0,30.0,11.0,17.0,-11.0,34.0,-16.0,1.019929886,-0.859518409,10.22563553,-0.060486984,0.000666156,-0.007460949,-27.0,43.0,83.0,12.0,-7.0,-0.105344877,2.419340849,10.23281765,0.052626338,-0.027712099,0.03757121,15.0,34.0,-25.0,-23.0,50.0
1693678310584965400,-83.0,-47.0,-4.0,8.0,-37.0,-5.0,-19.0,6.0,1.019929886,-0.859518409,10.22563553,-0.060486984,0.000666156,-0.007460949,-27.0,43.0,83.0,12.0,-7.0,-0.105344877,2.419340849,10.23281765,0.052626338,-0.027712099,0.03757121,15.0,34.0,-25.0,-23.0,50.0
1693678310589961900,107.0,91.0,3.0,-14.0,-20.0,-1.0,-14.0,21.0,1.019929886,-0.859518409,10.22563553,-0.060486984,0.000666156,-0.007460949,-27.0,43.0,83.0,12.0,-7.0,-0.105344877,2.419340849,10.23281765,0.052626338,-0.027712099,0.03757121,15.0,34.0,-25.0,-23.0,50.0
1693678310590960800,-19.0,-41.0,-14.0,-5.0,-23.0,-5.0,11.0,-9.0,1.019929886,-0.859518409,10.22563553,-0.060486984,0.000666156,-0.007460949,-27.0,43.0,83.0,12.0,-7.0,-0.105344877,2.419340849,10.23281765,0.052626338,-0.027712099,0.03757121,15.0,34.0,-25.0,-23.0,50.0
1693678310604958300,-44.0,3.0,-3.0,-8.0,-30.0,-30.0,2.0,-39.0,1.019929886,-0.859518409,10.22563553,-0.060486984,0.000666156,-0.007460949,-27.0,43.0,83.0,12.0,-7.0,-0.105344877,2.419340849,10.23281765,0.052626338,-0.027712099,0.03757121,15.0,34.0,-25.0,-23.0,50.0
1693678310606951200,-42.0,-14.0,15.0,6.0,26.0,-11.0,-37.0,-1.0,1.019929886,-0.859518409,10.22563553,-0.060486984,0.000666156,-0.007460949,-27.0,43.0,83.0,12.0,-7.0,-0.105344877,2.419340849,10.23281765,0.052626338,-0.027712099,0.03757121,15.0,34.0,-25.0,-23.0,50.0
1693678310608952500,-17.0,-7.0,8.0,10.0,11.0,14.0,20.0,-14.0,1.019929886,-0.859518409,10.22563553,-0.060486984,0.000666156,-0.007460949,-27.0,43.0,83.0,12.0,-7.0,-0.105344877,2.419340849,10.23281765,0.052626338,-0.027712099,0.03757121,15.0,34.0,-25.0,-23.0,50.0
1693678310609951300,12.0,12.0,-8.0,-10.0,-67.0,6.0,-6.0,-12.0,1.019929886,-0.859518409,10.22563553,-0.060486984,0.000666156,-0.007460949,-27.0,43.0,83.0,12.0,-7.0,-0.105344877,2.419340849,10.23281765,0.052626338,-0.027712099,0.03757121,15.0,34.0,-25.0,-23.0,50.0
1693678310617945200,3.0,-8.0,-7.0,-8.0,-14.0,-27.0,6.0,1.0,1.019929886,-0.859518409,10.22563553,-0.060486984,0.000666156,-0.007460949,-27.0,43.0,83.0,12.0,-7.0,-0.105344877,2.419340849,10.23281765,0.052626338,-0.027712099,0.03757121,15.0,34.0,-25.0,-23.0,50.0
1693678310619946600,4.0,10.0,1.0,-11.0,20.0,-2.0,-24.0,-24.0,1.019929886,-0.859518409,10.22563553,-0.060486984,0.000666156,-0.007460949,-27.0,43.0,83.0,12.0,-7.0,-0.105344877,2.419340849,10.23281765,0.052626338,-0.027712099,0.03757121,15.0,34.0,-25.0,-23.0,50.0
1693678310626940500,-7.0,-25.0,4.0,2.0,-18.0,1.0,9.0,15.0,1.019929886,-0.859518409,10.22563553,-0.060486984,0.000666156,-0.007460949,-27.0,43.0,83.0,12.0,-7.0,-0.105344877,2.419340849,10.23281765,0.052626338,-0.027712099,0.03757121,15.0,34.0,-25.0,-23.0,50.0
1693678310628939500,15.0,24.0,-3.0,5.0,32.0,2.0,-1.0,-13.0,1.019929886,-0.859518409,10.22563553,-0.060486984,0.000666156,-0.007460949,-27.0,43.0,83.0,12.0,-7.0,-0.105344877,2.419340849,10.23281765,0.052626338,-0.027712099,0.03757121,15.0,34.0,-25.0,-23.0,50.0
1693678310642931000,37.0,-8.0,-3.0,-4.0,-2.0,4.0,20.0,-24.0,1.019929886,-0.859518409,10.22563553,-0.060486984,0.000666156,-0.007460949,-27.0,43.0,83.0,12.0,-7.0,-0.105344877,2.419340849,10.23281765,0.052626338,-0.027712099,0.03757121,15.0,34.0,-25.0,-23.0,50.0
1693678310644930100,-12.0,13.0,3.0,-5.0,-25.0,-17.0,-16.0,33.0,1.019929886,-0.859518409,10.22563553,-0.060486984,0.000666156,-0.007460949,-27.0,43.0,83.0,12.0,-7.0,-0.105344877,2.419340849,10.23281765,0.052626338,-0.027712099,0.03757121,15.0,34.0,-25.0,-23.0,50.0
1693678310651926300,53.0,-2.0,0.0,-2.0,-10.0,-10.0,3.0,51.0,1.019929886,-0.859518409,10.22563553,-0.060486984,0.000666156,-0.007460949,-27.0,43.0,83.0,12.0,-7.0,-0.105344877,2.419340849,10.23281765,0.052626338,-0.027712099,0.03757121,15.0,34.0,-25.0,-23.0,50.0
1693678310652923300,53.0,-2.0,0.0,-2.0,-10.0,-10.0,3.0,51.0,1.015141487,-0.859518409,10.22683239,-0.060220521,0.00106585,-0.007460949,-25.0,38.0,81.0,10.0,-9.0,-0.114921682,2.412158251,10.21605873,0.05249311,-0.027712099,0.037437979,14.0,33.0,-24.0,-28.0,54.0
1693678310653923300,53.0,-2.0,0.0,-2.0,-10.0,-10.0,3.0,51.0,1.017535686,-0.858321309,10.23162079,-0.060220521,0.00106585,-0.007594181,-20.0,21.0,75.0,6.0,-8.0,-0.113724582,2.41694665,10.22084713,0.05249311,-0.027845331,0.03757121,10.0,41.0,-19.0,-19.0,54.0
1693678310654923300,53.0,-2.0,0.0,-2.0,-10.0,-10.0,3.0,51.0,1.017535686,-0.860715508,10.23042393,-0.060220521,0.001199081,-0.007460949,-24.0,42.0,84.0,10.0,-7.0,-0.113724582,2.418143749,10.22084713,0.052626338,-0.02797856,0.03757121,17.0,37.0,-24.0,-25.0,44.0
1693678310655923300,53.0,-2.0,0.0,-2.0,-10.0,-10.0,3.0,51.0,1.019929886,-0.859518409,10.22922707,-0.060353752,0.001199081,-0.007460949,-22.0,38.0,85.0,11.0,-8.0,-0.114921682,2.419340849,10.21845245,0.052759573,-0.027712099,0.03757121,13.0,40.0,-24.0,-29.0,52.0
1693678310655927700,-4.0,-14.0,-4.0,-6.0,-1.0,4.0,15.0,-38.0,1.019929886,-0.859518409,10.22922707,-0.060353752,0.001199081,-0.007460949,-22.0,38.0,85.0,11.0,-8.0,-0.114921682,2.419340849,10.21845245,0.052759573,-0.027712099,0.03757121,13.0,40.0,-24.0,-29.0,52.0
1693678310656923300,-4.0,-14.0,-4.0,-6.0,-1.0,4.0,15.0,-38.0,1.022324085,-0.857124209,10.22802925,-0.06008729,0.001199081,-0.007327718,-23.0,38.0,83.0,12.0,-5.0,-0.113724582,2.421735048,10.21486187,0.052759573,-0.027578866,0.03757121,21.0,36.0,-19.0,-18.0,55.0
1693678310672913700,-28.0,5.0,-7.0,-6.0,-10.0,-5.0,18.0,-16.0,1.022324085,-0.857124209,10.22802925,-0.06008729,0.001199081,-0.007327718,-23.0,38.0,83.0,12.0,-5.0,-0.113724582,2.421735048,10.21486187,0.052759573,-0.027578866,0.03757121,21.0,36.0,-19.0,-18.0,55.0
1693678310674913500,13.0,16.0,6.0,5.0,30.0,2.0,-40.0,-43.0,1.022324085,-0.857124209,10.22802925,-0.06008729,0.001199081,-0.007327718,-23.0,38.0,83.0,12.0,-5.0,-0.113724582,2.421735048,10.21486187,0.052759573,-0.027578866,0.03757121,21.0,36.0,-19.0,-18.0,55.0
1693678310675912300,-28.0,-19.0,-6.0,-1.0,-17.0,-5.0,10.0,15.0,1.022324085,-0.857124209,10.22802925,-0.06008729,0.001199081,-0.007327718,-23.0,38.0,83.0,12.0,-5.0,-0.113724582,2.421735048,10.21486187,0.052759573,-0.027578866,0.03757121,21.0,36.0,-19.0,-18.0,55.0
1693678310678910700,7.0,-17.0,-16.0,-15.0,-33.0,13.0,7.0,-15.0,1.022324085,-0.857124209,10.22802925,-0.06008729,0.001199081,-0.007327718,-23.0,38.0,83.0,12.0,-5.0,-0.113724582,2.421735048,10.21486187,0.052759573,-0.027578866,0.03757121,21.0,36.0,-19.0,-18.0,55.0
1693678310681909600,23.0,23.0,17.0,20.0,29.0,7.0,-19.0,25.0,1.022324085,-0.857124209,10.22802925,-0.06008729,0.001199081,-0.007327718,-23.0,38.0,83.0,12.0,-5.0,-0.113724582,2.421735048,10.21486187,0.052759573,-0.027578866,0.03757121,21.0,36.0,-19.0,-18.0,55.0
1693678310685907100,17.0,10.0,-1.0,-17.0,-70.0,-39.0,-4.0,9.0,1.022324085,-0.857124209,10.22802925,-0.06008729,0.001199081,-0.007327718,-23.0,38.0,83.0,12.0,-5.0,-0.113724582,2.421735048,10.21486187,0.052759573,-0.027578866,0.03757121,21.0,36.0,-19.0,-18.0,55.0
1693678310694901200,-34.0,-23.0,-3.0,-5.0,33.0,19.0,-2.0,-11.0,1.022324085,-0.857124209,10.22802925,-0.06008729,0.001199081,-0.007327718,-23.0,38.0,83.0,12.0,-5.0,-0.113724582,2.421735048,10.21486187,0.052759573,-0.027578866,0.03757121,21.0,36.0,-19.0,-18.0,55.0
1693678310698900300,5.0,7.0,5.0,20.0,50.0,93.0,23.0,-11.0,1.022324085,-0.857124209,10.22802925,-0.06008729,0.001199081,-0.007327718,-23.0,38.0,83.0,12.0,-5.0,-0.113724582,2.421735048,10.21486187,0.052759573,-0.027578866,0.03757121,21.0,36.0,-19.0,-18.0,55.0
1693678310703895900,5.0,0.0,-4.0,5.0,28.0,-55.0,-8.0,50.0,1.022324085,-0.857124209,10.22802925,-0.06008729,0.001199081,-0.007327718,-23.0,38.0,83.0,12.0,-5.0,-0.113724582,2.421735048,10.21486187,0.052759573,-0.027578866,0.03757121,21.0,36.0,-19.0,-18.0,55.0
1693678310706895500,-22.0,-11.0,-8.0,-16.0,-36.0,54.0,5.0,-69.0,1.022324085,-0.857124209,10.22802925,-0.06008729,0.001199081,-0.007327718,-23.0,38.0,83.0,12.0,-5.0,-0.113724582,2.421735048,10.21486187,0.052759573,-0.027578866,0.03757121,21.0,36.0,-19.0,-18.0,55.0
1693678310724883900,4.0,-3.0,-2.0,-8.0,-94.0,-85.0,-14.0,-2.0,1.022324085,-0.857124209,10.22802925,-0.06008729,0.001199081,-0.007327718,-23.0,38.0,83.0,12.0,-5.0,-0.113724582,2.421735048,10.21486187,0.052759573,-0.027578866,0.03757121,21.0,36.0,-19.0,-18.0,55.0
1693678310726884000,-8.0,4.0,4.0,0.0,28.0,-29.0,-15.0,-24.0,1.022324085,-0.857124209,10.22802925,-0.06008729,0.001199081,-0.007327718,-23.0,38.0,83.0,12.0,-5.0,-0.113724582,2.421735048,10.21486187,0.052759573,-0.027578866,0.03757121,21.0,36.0,-19.0,-18.0,55.0
1693678310732880900,-3.0,2.0,-1.0,6.0,96.0,90.0,20.0,4.0,1.022324085,-0.857124209,10.22802925,-0.06008729,0.001199081,-0.007327718,-23.0,38.0,83.0,12.0,-5.0,-0.113724582,2.421735048,10.21486187,0.052759573,-0.027578866,0.03757121,21.0,36.0,-19.0,-18.0,55.0
1693678310736877700,16.0,0.0,-2.0,7.0,2.0,-47.0,10.0,53.0,1.022324085,-0.857124209,10.22802925,-0.06008729,0.001199081,-0.007327718,-23.0,38.0,83.0,12.0,-5.0,-0.113724582,2.421735048,10.21486187,0.052759573,-0.027578866,0.03757121,21.0,36.0,-19.0,-18.0,55.0
1693678310737876700,1.0,-4.0,-2.0,-15.0,3.0,55.0,11.0,-24.0,1.022324085,-0.857124209,10.22802925,-0.06008729,0.001199081,-0.007327718,-23.0,38.0,83.0,12.0,-5.0,-0.113724582,2.421735048,10.21486187,0.052759573,-0.027578866,0.03757121,21.0,36.0,-19.0,-18.0,55.0
1693678310738875700,-21.0,-7.0,-7.0,-15.0,-9.0,5.0,-11.0,3.0,1.022324085,-0.857124209,10.22802925,-0.06008729,0.001199081,-0.007327718,-23.0,38.0,83.0,12.0,-5.0,-0.113724582,2.421735048,10.21486187,0.052759573,-0.027578866,0.03757121,21.0,36.0,-19.0,-18.0,55.0
1693678310749872400,-6.0,0.0,-3.0,7.0,-49.0,-13.0,-4.0,-15.0,1.022324085,-0.857124209,10.22802925,-0.06008729,0.001199081,-0.007327718,-23.0,38.0,83.0,12.0,-5.0,-0.113724582,2.421735048,10.21486187,0.052759573,-0.027578866,0.03757121,21.0,36.0,-19.0,-18.0,55.0
1693678310751868600,24.0,11.0,-2.0,20.0,68.0,1.0,5.0,1.0,1.022324085,-0.857124209,10.22802925,-0.06008729,0.001199081,-0.007327718,-23.0,38.0,83.0,12.0,-5.0,-0.113724582,2.421735048,10.21486187,0.052759573,-0.027578866,0.03757121,21.0,36.0,-19.0,-18.0,55.0
1693678310753867600,-6.0,5.0,25.0,35.0,69.0,76.0,11.0,9.0,1.022324085,-0.857124209,10.22802925,-0.06008729,0.001199081,-0.007327718,-23.0,38.0,83.0,12.0,-5.0,-0.113724582,2.421735048,10.21486187,0.052759573,-0.027578866,0.03757121,21.0,36.0,-19.0,-18.0,55.0
1693678310754866200,-20.0,-14.0,-16.0,-32.0,-60.0,-68.0,-14.0,-10.0,1.022324085,-0.857124209,10.22802925,-0.06008729,0.001199081,-0.007327718,-23.0,38.0,83.0,12.0,-5.0,-0.113724582,2.421735048,10.21486187,0.052759573,-0.027578866,0.03757121,21.0,36.0,-19.0,-18.0,55.0
1693678310769860100,5.0,-1.0,-10.0,-26.0,-50.0,-9.0,-2.0,-3.0,1.022324085,-0.857124209,10.22802925,-0.06008729,0.001199081,-0.007327718,-23.0,38.0,83.0,12.0,-5.0,-0.113724582,2.421735048,10.21486187,0.052759573,-0.027578866,0.03757121,21.0,36.0,-19.0,-18.0,55.0
1693678310771856400,5.0,-1.0,-10.0,-26.0,-50.0,-9.0,-2.0,-3.0,1.013944387,-0.859518409,10.22563553,-0.060620211,0.000799387,-0.007594181,-29.0,41.0,86.0,6.0,-13.0,-0.112527482,2.420537949,10.22563553,0.052626338,-0.027445635,0.038104136,18.0,35.0,-30.0,-22.0,52.0
1693678310771857400,10.0,5.0,-3.0,-12.0,-40.0,27.0,12.0,4.0,1.013944387,-0.859518409,10.22563553,-0.060620211,0.000799387,-0.007594181,-29.0,41.0,86.0,6.0,-13.0,-0.112527482,2.420537949,10.22563553,0.052626338,-0.027445635,0.038104136,18.0,35.0,-30.0,-22.0,52.0
1693678310772856400,10.0,5.0,-3.0,-12.0,-40.0,27.0,12.0,4.0,1.015141487,-0.859518409,10.23281765,-0.060620211,0.000666156,-0.007727412,-22.0,39.0,84.0,11.0,-13.0,-0.111330383,2.420537949,10.22563553,0.052759573,-0.027578866,0.038104136,13.0,35.0,-29.0,-31.0,44.0
1693678310773856400,10.0,5.0,-3.0,-12.0,-40.0,27.0,12.0,4.0,1.015141487,-0.857124209,10.23521233,-0.060753446,0.000532925,-0.007594181,-20.0,46.0,83.0,12.0,-9.0,-0.112527482,2.419340849,10.22802925,0.052759573,-0.027712099,0.037970904,16.0,34.0,-29.0,-23.0,50.0
1693678310773856600,-5.0,-1.0,-2.0,5.0,17.0,-47.0,-8.0,-6.0,1.015141487,-0.857124209,10.23521233,-0.060753446,0.000532925,-0.007594181,-20.0,46.0,83.0,12.0,-9.0,-0.112527482,2.419340849,10.22802925,0.052759573,-0.027712099,0.037970904,16.0,34.0,-29.0,-23.0,50.0
1693678310774856400,-5.0,-1.0,-2.0,5.0,17.0,-47.0,-8.0,-6.0,1.018732786,-0.85592711,10.23401546,-0.060753446,0.000532925,-0.007594181,-18.0,48.0,86.0,7.0,-7.0,-0.111330383,2.421735048,10.22802925,0.053026035,-0.027578866,0.038104136,17.0,35.0,-17.0,-27.0,50.0
1693678310775856400,-2.0,3.0,6.0,-6.0,-6.0,24.0,5.0,6.0,1.019929886,-0.85473001,10.23521233,-0.060753446,0.000532925,-0.007727412,-23.0,45.0,84.0,7.0,-4.0,-0.111330383,2.419340849,10.22802925,0.0528928,-0.027578866,0.038104136,18.0,43.0,-20.0,-22.0,54.0
1693678310791846600,3.0,-5.0,-2.0,14.0,20.0,-25.0,5.0,-4.0,1.019929886,-0.85473001,10.23521233,-0.060753446,0.000532925,-0.007727412,-23.0,45.0,84.0,7.0,-4.0,-0.111330383,2.419340849,10.22802925,0.0528928,-0.027578866,0.038104136,18.0,43.0,-20.0,-22.0,54.0
1693678310792846800,2.0,1.0,-4.0,6.0,33.0,4.0,1.0,7.0,1.019929886,-0.85473001,10.23521233,-0.060753446,0.000532925,-0.007727412,-23.0,45.0,84.0,7.0,-4.0,-0.111330383,2.419340849,10.22802925,0.0528928,-0.027578866,0.038104136,18.0,43.0,-20.0,-22.0,54.0
1693678310807838900,2.0,6.0,11.0,14.0,84.0,29.0,9.0,5.0,1.019929886,-0.85473001,10.23521233,-0.060753446,0.000532925,-0.007727412,-23.0,45.0,84.0,7.0,-4.0,-0.111330383,2.419340849,10.22802925,0.0528928,-0.027578866,0.038104136,18.0,43.0,-20.0,-22.0,54.0
1693678310809835000,1.0,-3.0,-2.0,-12.0,-42.0,-44.0,-30.0,-36.0,1.019929886,-0.85473001,10.23521233,-0.060753446,0.000532925,-0.007727412,-23.0,45.0,84.0,7.0,-4.0,-0.111330383,2.419340849,10.22802925,0.0528928,-0.027578866,0.038104136,18.0,43.0,-20.0,-22.0,54.0
1693678310811833400,-4.0,6.0,-3.0,-8.0,20.0,15.0,9.0,20.0,1.019929886,-0.85473001,10.23521233,-0.060753446,0.000532925,-0.007727412,-23.0,45.0,84.0,7.0,-4.0,-0.111330383,2.419340849,10.22802925,0.0528928,-0.027578866,0.038104136,18.0,43.0,-20.0,-22.0,54.0
1693678310812833600,-5.0,1.0,11.0,13.0,44.0,-25.0,-2.0,-4.0,1.019929886,-0.85473001,10.23521233,-0.060753446,0.000532925,-0.007727412,-23.0,45.0,84.0,7.0,-4.0,-0.111330383,2.419340849,10.22802925,0.0528928,-0.027578866,0.038104136,18.0,43.0,-20.0,-22.0,54.0
1693678310816831600,-1.0,-5.0,-7.0,-9.0,-55.0,3.0,-1.0,6.0,1.019929886,-0.85473001,10.23521233,-0.060753446,0.000532925,-0.007727412,-23.0,45.0,84.0,7.0,-4.0,-0.111330383,2.419340849,10.22802925,0.0528928,-0.027578866,0.038104136,18.0,43.0,-20.0,-22.0,54.0
1693678310818831700,1.0,2.0,-6.0,4.0,61.0,-1.0,6.0,3.0,1.019929886,-0.85473001,10.23521233,-0.060753446,0.000532925,-0.007727412,-23.0,45.0,84.0,7.0,-4.0,-0.111330383,2.419340849,10.22802925,0.0528928,-0.027578866,0.038104136,18.0,43.0,-20.0,-22.0,54.0
1693678310821828700,-3.0,-4.0,1.0,-10.0,-34.0,-43.0,-9.0,-8.0,1.019929886,-0.85473001,10.23521233,-0.060753446,0.000532925,-0.007727412,-23.0,45.0,84.0,7.0,-4.0,-0.111330383,2.419340849,10.22802925,0.0528928,-0.027578866,0.038104136,18.0,43.0,-20.0,-22.0,54.0
1693678310823828400,6.0,3.0,6.0,2.0,-7.0,5.0,-1.0,-7.0,1.019929886,-0.85473001,10.23521233,-0.060753446,0.000532925,-0.007727412,-23.0,45.0,84.0,7.0,-4.0,-0.111330383,2.419340849,10.22802925,0.0528928,-0.027578866,0.038104136,18.0,43.0,-20.0,-22.0,54.0
1693678310848810900,6.0,3.0,6.0,2.0,-7.0,5.0,-1.0,-7.0,1.022324085,-0.85353291,10.23521233,-0.06008729,0.000133231,-0.007327718,-28.0,45.0,87.0,10.0,-14.0,-0.108936176,2.425326347,10.23042393,0.053026035,-0.027445635,0.038370594,16.0,33.0,-21.0,-22.0,48.0
1693678310849810900,6.0,3.0,6.0,2.0,-7.0,5.0,-1.0,-7.0,1.021126986,-0.857124209,10.23760605,-0.059954058,0.000266462,-0.007327718,-27.0,43.0,83.0,10.0,-11.0,-0.113724582,2.424129248,10.23401546,0.0528928,-0.027312404,0.038370594,16.0,35.0,-32.0,-26.0,48.0
1693678310850810900,6.0,3.0,6.0,2.0,-7.0,5.0,-1.0,-7.0,1.018732786,-0.85353291,10.23880386,-0.059954058,0.000399694,-0.007194487,-24.0,41.0,87.0,10.0,-11.0,-0.118512981,2.422932148,10.23281765,0.0528928,-0.027312404,0.038503829,19.0,40.0,-25.0,-22.0,53.0
1693678310851810900,6.0,3.0,6.0,2.0,-7.0,5.0,-1.0,-7.0,1.018732786,-0.85353291,10.23521233,-0.060220521,0.000399694,-0.006928025,-24.0,45.0,83.0,8.0,-9.0,-0.122104287,2.422932148,10.23042393,0.0528928,-0.027312404,0.038503829,20.0,33.0,-25.0,-23.0,55.0
1693678310852810900,6.0,3.0,6.0,2.0,-7.0,5.0,-1.0,-7.0,1.018732786,-0.85473001,10.23281765,-0.06008729,0.000532925,-0.007061256,-14.0,39.0,73.0,6.0,-12.0,-0.120907187,2.422932148,10.23281765,0.052759573,-0.027578866,0.038770292,8.0,35.0,-29.0,-23.0,49.0
1693678310859806700,-3.0,-4.0,-7.0,1.0,35.0,0.0,-7.0,-7.0,1.018732786,-0.85473001,10.23281765,-0.06008729,0.000532925,-0.007061256,-14.0,39.0,73.0,6.0,-12.0,-0.120907187,2.422932148,10.23281765,0.052759573,-0.027578866,0.038770292,8.0,35.0,-29.0,-23.0,49.0
1693678310861805300,-6.0,2.0,2.0,8.0,11.0,-7.0,-3.0,33.0,1.018732786,-0.85473001,10.23281765,-0.06008729,0.000532925,-0.007061256,-14.0,39.0,73.0,6.0,-12.0,-0.120907187,2.422932148,10.23281765,0.052759573,-0.027578866,0.038770292,8.0,35.0,-29.0,-23.0,49.0
1693678310864805400,-2.0,-4.0,-3.0,-6.0,-19.0,21.0,-1.0,-8.0,1.018732786,-0.85473001,10.23281765,-0.06008729,0.000532925,-0.007061256,-14.0,39.0,73.0,6.0,-12.0,-0.120907187,2.422932148,10.23281765,0.052759573,-0.027578866,0.038770292,8.0,35.0,-29.0,-23.0,49.0
1693678310867802500,4.0,1.0,5.0,2.0,34.0,22.0,5.0,7.0,1.018732786,-0.85473001,10.23281765,-0.06008729,0.000532925,-0.007061256,-14.0,39.0,73.0,6.0,-12.0,-0.120907187,2.422932148,10.23281765,0.052759573,-0.027578866,0.038770292,8.0,35.0,-29.0,-23.0,49.0
1693678310869802000,-4.0,-6.0,-8.0,-10.0,-15.0,-11.0,-6.0,-9.0,1.018732786,-0.85473001,10.23281765,-0.06008729,0.000532925,-0.007061256,-14.0,39.0,73.0,6.0,-12.0,-0.120907187,2.422932148,10.23281765,0.052759573,-0.027578866,0.038770292,8.0,35.0,-29.0,-23.0,49.0
1693678310871800000,-1.0,2.0,3.0,11.0,-55.0,-2.0,1.0,-2.0,1.018732786,-0.85473001,10.23281765,-0.06008729,0.000532925,-0.007061256,-14.0,39.0,73.0,6.0,-12.0,-0.120907187,2.422932148,10.23281765,0.052759573,-0.027578866,0.038770292,8.0,35.0,-29.0,-23.0,49.0
1693678310882794100,1.0,0.0,0.0,-8.0,64.0,22.0,3.0,1.0,1.018732786,-0.85473001,10.23281765,-0.06008729,0.000532925,-0.007061256,-14.0,39.0,73.0,6.0,-12.0,-0.120907187,2.422932148,10.23281765,0.052759573,-0.027578866,0.038770292,8.0,35.0,-29.0,-23.0,49.0
1693678310885793800,2.0,-1.0,-2.0,-3.0,7.0,12.0,-2.0,1.0,1.018732786,-0.85473001,10.23281765,-0.06008729,0.000532925,-0.007061256,-14.0,39.0,73.0,6.0,-12.0,-0.120907187,2.422932148,10.23281765,0.052759573,-0.027578866,0.038770292,8.0,35.0,-29.0,-23.0,49.0
1693678310904780800,-2.0,-6.0,-5.0,-3.0,-20.0,-7.0,-5.0,-3.0,1.018732786,-0.85473001,10.23281765,-0.06008729,0.000532925,-0.007061256,-14.0,39.0,73.0,6.0,-12.0,-0.120907187,2.422932148,10.23281765,0.052759573,-0.027578866,0.038770292,8.0,35.0,-29.0,-23.0,49.0
1693678310906781600,-3.0,2.0,2.0,10.0,38.0,2.0,1.0,-2.0,1.018732786,-0.85473001,10.23281765,-0.06008729,0.000532925,-0.007061256,-14.0,39.0,73.0,6.0,-12.0,-0.120907187,2.422932148,10.23281765,0.052759573,-0.027578866,0.038770292,8.0,35.0,-29.0,-23.0,49.0
1693678310908778500,2.0,1.0,5.0,16.0,-15.0,1.0,7.0,-20.0,1.018732786,-0.85473001,10.23281765,-0.06008729,0.000532925,-0.007061256,-14.0,39.0,73.0,6.0,-12.0,-0.120907187,2.422932148,10.23281765,0.052759573,-0.027578866,0.038770292,8.0,35.0,-29.0,-23.0,49.0
1693678310909777500,8.0,0.0,0.0,-16.0,-73.0,-9.0,-1.0,23.0,1.018732786,-0.85473001,10.23281765,-0.06008729,0.000532925,-0.007061256,-14.0,39.0,73.0,6.0,-12.0,-0.120907187,2.422932148,10.23281765,0.052759573,-0.027578866,0.038770292,8.0,35.0,-29.0,-23.0,49.0
1693678310911776400,-7.0,-8.0,-8.0,-4.0,23.0,-14.0,-6.0,-13.0,1.018732786,-0.85473001,10.23281765,-0.06008729,0.000532925,-0.007061256,-14.0,39.0,73.0,6.0,-12.0,-0.120907187,2.422932148,10.23281765,0.052759573,-0.027578866,0.038770292,8.0,35.0,-29.0,-23.0,49.0
1693678310916776700,-4.0,-1.0,-2.0,-1.0,6.0,42.0,6.0,9.0,1.018732786,-0.85473001,10.23281765,-0.06008729,0.000532925,-0.007061256,-14.0,39.0,73.0,6.0,-12.0,-0.120907187,2.422932148,10.23281765,0.052759573,-0.027578866,0.038770292,8.0,35.0,-29.0,-23.0,49.0
1693678310918774700,-1.0,-2.0,-4.0,-10.0,-39.0,-10.0,2.0,-22.0,1.018732786,-0.85473001,10.23281765,-0.06008729,0.000532925,-0.007061256,-14.0,39.0,73.0,6.0,-12.0,-0.120907187,2.422932148,10.23281765,0.052759573,-0.027578866,0.038770292,8.0,35.0,-29.0,-23.0,49.0
1693678310920771600,1.0,-1.0,2.0,6.0,39.0,7.0,-6.0,-6.0,1.018732786,-0.85473001,10.23281765,-0.06008729,0.000532925,-0.007061256,-14.0,39.0,73.0,6.0,-12.0,-0.120907187,2.422932148,10.23281765,0.052759573,-0.027578866,0.038770292,8.0,35.0,-29.0,-23.0,49.0
1693678310935764600,0.0,-1.0,1.0,6.0,42.0,37.0,-2.0,3.0,1.018732786,-0.85473001,10.23281765,-0.06008729,0.000532925,-0.007061256,-14.0,39.0,73.0,6.0,-12.0,-0.120907187,2.422932148,10.23281765,0.052759573,-0.027578866,0.038770292,8.0,35.0,-29.0,-23.0,49.0
1693678310936764200,1.0,-2.0,-3.0,-14.0,-100.0,-86.0,-4.0,-2.0,1.018732786,-0.85473001,10.23281765,-0.06008729,0.000532925,-0.007061256,-14.0,39.0,73.0,6.0,-12.0,-0.120907187,2.422932148,10.23281765,0.052759573,-0.027578866,0.038770292,8.0,35.0,-29.0,-23.0,49.0
1693678310937759600,1.0,-2.0,-3.0,-14.0,-100.0,-86.0,-4.0,-2.0,1.027112484,-0.857124209,10.24718285,-0.059820827,0.0,-0.007727412,-28.0,35.0,84.0,8.0,-8.0,-0.111330383,2.412158251,10.23042393,0.052759573,-0.027045943,0.037837673,8.0,37.0,-25.0,-28.0,51.0
1693678310938759600,1.0,-2.0,-3.0,-14.0,-100.0,-86.0,-4.0,-2.0,1.027112484,-0.85592711,10.24838066,-0.059954058,0.000133231,-0.007860643,-20.0,43.0,87.0,8.0,-8.0,-0.118512981,2.41335535,10.23162079,0.0528928,-0.026779478,0.037704438,18.0,40.0,-19.0,-20.0,51.0
1693678310938760300,-2.0,0.0,-3.0,-1.0,20.0,14.0,8.0,-6.0,1.027112484,-0.85592711,10.24838066,-0.059954058,0.000133231,-0.007860643,-20.0,43.0,87.0,8.0,-8.0,-0.118512981,2.41335535,10.23162079,0.0528928,-0.026779478,0.037704438,18.0,40.0,-19.0,-20.0,51.0
1693678310939759600,-2.0,0.0,-3.0,-1.0,20.0,14.0,8.0,-6.0,1.027112484,-0.857124209,10.24359226,-0.059954058,0.000133231,-0.007727412,-26.0,43.0,85.0,10.0,-6.0,-0.116118781,2.41574955,10.23042393,0.052626338,-0.02691271,0.037837673,14.0,43.0,-20.0,-24.0,55.0
1693678310939760900,-2.0,-3.0,2.0,5.0,97.0,1.0,-34.0,-45.0,1.027112484,-0.857124209,10.24359226,-0.059954058,0.000133231,-0.007727412,-26.0,43.0,85.0,10.0,-6.0,-0.116118781,2.41574955,10.23042393,0.052626338,-0.02691271,0.037837673,14.0,43.0,-20.0,-24.0,55.0
1693678310940759600,-2.0,-3.0,2.0,5.0,97.0,1.0,-34.0,-45.0,1.027112484,-0.857124209,10.24478912,-0.059954058,0.000399694,-0.007860643,-22.0,41.0,85.0,10.0,-12.0,-0.113724582,2.41694665,10.22802925,0.052626338,-0.02691271,0.037970904,9.0,43.0,-23.0,-21.0,53.0
1693678310941759600,-2.0,-3.0,2.0,5.0,97.0,1.0,-34.0,-45.0,1.030703783,-0.85592711,10.24478912,-0.06008729,0.000399694,-0.007727412,-30.0,32.0,82.0,10.0,-12.0,-0.111330383,2.41694665,10.22204399,0.052626338,-0.027179174,0.037704438,5.0,35.0,-27.0,-20.0,49.0
1693678310950754100,0.0,0.0,-7.0,-6.0,-63.0,-26.0,0.0,33.0,1.030703783,-0.85592711,10.24478912,-0.06008729,0.000399694,-0.007727412,-30.0,32.0,82.0,10.0,-12.0,-0.111330383,2.41694665,10.22204399,0.052626338,-0.027179174,0.037704438,5.0,35.0,-27.0,-20.0,49.0
1693678310951753400,-6.0,-7.0,2.0,4.0,36.0,32.0,6.0,6.0,1.030703783,-0.85592711,10.24478912,-0.06008729,0.000399694,-0.007727412,-30.0,32.0,82.0,10.0,-12.0,-0.111330383,2.41694665,10.22204399,0.052626338,-0.027179174,0.037704438,5.0,35.0,-27.0,-20.0,49.0
1693678310952753500,2.0,2.0,2.0,3.0,4.0,4.0,6.0,3.0,1.030703783,-0.85592711,10.24478912,-0.06008729,0.000399694,-0.007727412,-30.0,32.0,82.0,10.0,-12.0,-0.111330383,2.41694665,10.22204399,0.052626338,-0.027179174,0.037704438,5.0,35.0,-27.0,-20.0,49.0
1693678310953752800,-1.0,5.0,5.0,6.0,-23.0,-41.0,20.0,-2.0,1.030703783,-0.85592711,10.24478912,-0.06008729,0.000399694,-0.007727412,-30.0,32.0,82.0,10.0,-12.0,-0.111330383,2.41694665,10.22204399,0.052626338,-0.027179174,0.037704438,5.0,35.0,-27.0,-20.0,49.0
1693678310971742300,-6.0,-8.0,0.0,-3.0,-20.0,-8.0,-17.0,1.0,1.030703783,-0.85592711,10.24478912,-0.06008729,0.000399694,-0.007727412,-30.0,32.0,82.0,10.0,-12.0,-0.111330383,2.41694665,10.22204399,0.052626338,-0.027179174,0.037704438,5.0,35.0,-27.0,-20.0,49.0
1693678310973740900,3.0,-4.0,-13.0,-7.0,52.0,16.0,-5.0,-18.0,1.030703783,-0.85592711,10.24478912,-0.06008729,0.000399694,-0.007727412,-30.0,32.0,82.0,10.0,-12.0,-0.111330383,2.41694665,10.22204399,0.052626338,-0.027179174,0.037704438,5.0,35.0,-27.0,-20.0,49.0
1693678310975741400,-37.0,-4.0,8.0,6.0,-30.0,-14.0,-15.0,15.0,1.030703783,-0.85592711,10.24478912,-0.06008729,0.000399694,-0.007727412,-30.0,32.0,82.0,10.0,-12.0,-0.111330383,2.41694665,10.22204399,0.052626338,-0.027179174,0.037704438,5.0,35.0,-27.0,-20.0,49.0
1693678310976741100,76.0,7.0,-2.0,13.0,35.0,24.0,11.0,-5.0,1.030703783,-0.85592711,10.24478912,-0.06008729,0.000399694,-0.007727412,-30.0,32.0,82.0,10.0,-12.0,-0.111330383,2.41694665,10.22204399,0.052626338,-0.027179174,0.037704438,5.0,35.0,-27.0,-20.0,49.0
1693678311004723500,-92.0,-54.0,-13.0,-23.0,4.0,-23.0,-4.0,44.0,1.030703783,-0.85592711,10.24478912,-0.06008729,0.000399694,-0.007727412,-30.0,32.0,82.0,10.0,-12.0,-0.111330383,2.41694665,10.22204399,0.052626338,-0.027179174,0.037704438,5.0,35.0,-27.0,-20.0,49.0
1693678311007722500,94.0,75.0,19.0,22.0,26.0,25.0,12.0,-25.0,1.030703783,-0.85592711,10.24478912,-0.06008729,0.000399694,-0.007727412,-30.0,32.0,82.0,10.0,-12.0,-0.111330383,2.41694665,10.22204399,0.052626338,-0.027179174,0.037704438,5.0,35.0,-27.0,-20.0,49.0
1693678311009721800,-104.0,-46.0,-10.0,-6.0,-39.0,-11.0,0.0,-76.0,1.030703783,-0.85592711,10.24478912,-0.06008729,0.000399694,-0.007727412,-30.0,32.0,82.0,10.0,-12.0,-0.111330383,2.41694665,10.22204399,0.052626338,-0.027179174,0.037704438,5.0,35.0,-27.0,-20.0,49.0
1693678311011720700,91.0,70.0,2.0,4.0,38.0,14.0,3.0,39.0,1.030703783,-0.85592711,10.24478912,-0.06008729,0.000399694,-0.007727412,-30.0,32.0,82.0,10.0,-12.0,-0.111330383,2.41694665,10.22204399,0.052626338,-0.027179174,0.037704438,5.0,35.0,-27.0,-20.0,49.0
1693678311013719600,69.0,28.0,21.0,15.0,-83.0,-20.0,-7.0,77.0,1.030703783,-0.85592711,10.24478912,-0.06008729,0.000399694,-0.007727412,-30.0,32.0,82.0,10.0,-12.0,-0.111330383,2.41694665,10.22204399,0.052626338,-0.027179174,0.037704438,5.0,35.0,-27.0,-20.0,49.0
1693678311015716400,69.0,28.0,21.0,15.0,-83.0,-20.0,-7.0,77.0,1.022324085,-0.85353291,10.21845245,-0.060220521,0.000532925,-0.007594181,-26.0,37.0,85.0,11.0,-8.0,-0.108936176,2.421735048,10.23880386,0.0528928,-0.027312404,0.038370594,17.0,40.0,-19.0,-26.0,52.0
1693678311016716400,69.0,28.0,21.0,15.0,-83.0,-20.0,-7.0,77.0,1.022324085,-0.852335811,10.21845245,-0.060220521,0.000532925,-0.007727412,-31.0,49.0,85.0,0.0,-15.0,-0.108936176,2.420537949,10.23880386,0.052759573,-0.027312404,0.038370594,11.0,37.0,-20.0,-28.0,51.0
1693678311017716400,69.0,28.0,21.0,15.0,-83.0,-20.0,-7.0,77.0,1.021126986,-0.85592711,10.22084713,-0.060353752,0.000532925,-0.007460949,-20.0,41.0,90.0,6.0,-8.0,-0.110133275,2.418143749,10.23401546,0.0528928,-0.027445635,0.038503829,21.0,39.0,-24.0,-24.0,53.0
1693678311017719000,-128.0,-58.0,-30.0,-41.0,34.0,-4.0,26.0,0.0,1.021126986,-0.85592711,10.22084713,-0.060353752,0.000532925,-0.007460949,-20.0,41.0,90.0,6.0,-8.0,-0.110133275,2.418143749,10.23401546,0.0528928,-0.027445635,0.038503829,21.0,39.0,-24.0,-24.0,53.0
1693678311018716400,-128.0,-58.0,-30.0,-41.0,34.0,-4.0,26.0,0.0,1.019929886,-0.858321309,10.22324085,-0.060220521,0.000666156,-0.007460949,-20.0,38.0,79.0,11.0,-8.0,-0.111330383,2.418143749,10.23401546,0.052759573,-0.027578866,0.038370594,10.0,41.0,-28.0,-24.0,49.0
1693678311019716400,-128.0,-58.0,-30.0,-41.0,34.0,-4.0,26.0,0.0,1.023521185,-0.859518409,10.22204399,-0.060220521,0.000532925,-0.007594181,-27.0,45.0,85.0,6.0,-10.0,-0.112527482,2.41694665,10.23640919,0.052759573,-0.027712099,0.038503829,15.0,36.0,-21.0,-22.0,53.0
1693678311026711000,127.0,1.0,3.0,17.0,2.0,-3.0,-28.0,-48.0,1.023521185,-0.859518409,10.22204399,-0.060220521,0.000532925,-0.007594181,-27.0,45.0,85.0,6.0,-10.0,-0.112527482,2.41694665,10.23640919,0.052759573,-0.027712099,0.038503829,15.0,36.0,-21.0,-22.0,53.0
1693678311027710500,13.0,6.0,22.0,-2.0,-21.0,8.0,31.0,127.0,1.023521185,-0.859518409,10.22204399,-0.060220521,0.000532925,-0.007594181,-27.0,45.0,85.0,6.0,-10.0,-0.112527482,2.41694665,10.23640919,0.052759573,-0.027712099,0.038503829,15.0,36.0,-21.0,-22.0,53.0
1693678311028710100,24.0,5.0,-10.0,5.0,42.0,6.0,48.0,-22.0,1.023521185,-0.859518409,10.22204399,-0.060220521,0.000532925,-0.007594181,-27.0,45.0,85.0,6.0,-10.0,-0.112527482,2.41694665,10.23640919,0.052759573,-0.027712099,0.038503829,15.0,36.0,-21.0,-22.0,53.0
1693678311033707700,-28.0,-8.0,13.0,26.0,-1.0,31.0,-11.0,-11.0,1.023521185,-0.859518409,10.22204399,-0.060220521,0.000532925,-0.007594181,-27.0,45.0,85.0,6.0,-10.0,-0.112527482,2.41694665,10.23640919,0.052759573,-0.027712099,0.038503829,15.0,36.0,-21.0,-22.0,53.0
1693678311034708000,-36.0,18.0,10.0,6.0,38.0,17.0,19.0,75.0,1.023521185,-0.859518409,10.22204399,-0.060220521,0.000532925,-0.007594181,-27.0,45.0,85.0,6.0,-10.0,-0.112527482,2.41694665,10.23640919,0.052759573,-0.027712099,0.038503829,15.0,36.0,-21.0,-22.0,53.0
1693678311036706600,-29.0,-17.0,-31.0,-64.0,-118.0,-75.0,-5.0,-34.0,1.023521185,-0.859518409,10.22204399,-0.060220521,0.000532925,-0.007594181,-27.0,45.0,85.0,6.0,-10.0,-0.112527482,2.41694665,10.23640919,0.052759573,-0.027712099,0.038503829,15.0,36.0,-21.0,-22.0,53.0
1693678311063690000,-34.0,-11.0,35.0,25.0,127.0,22.0,-11.0,-78.0,1.023521185,-0.859518409,10.22204399,-0.060220521,0.000532925,-0.007594181,-27.0,45.0,85.0,6.0,-10.0,-0.112527482,2.41694665,10.23640919,0.052759573,-0.027712099,0.038503829,15.0,36.0,-21.0,-22.0,53.0
1693678311067687800,-25.0,28.0,4.0,32.0,-36.0,29.0,-16.0,-6.0,1.023521185,-0.859518409,10.22204399,-0.060220521,0.000532925,-0.007594181,-27.0,45.0,85.0,6.0,-10.0,-0.112527482,2.41694665,10.23640919,0.052759573,-0.027712099,0.038503829,15.0,36.0,-21.0,-22.0,53.0
1693678311069686400,55.0,-10.0,37.0,1.0,65.0,-3.0,5.0,12.0,1.023521185,-0.859518409,10.22204399,-0.060220521,0.000532925,-0.007594181,-27.0,45.0,85.0,6.0,-10.0,-0.112527482,2.41694665,10.23640919,0.052759573,-0.027712099,0.038503829,15.0,36.0,-21.0,-22.0,53.0
1693678311070685800,-31.0,-22.0,-19.0,6.0,-25.0,5.0,-30.0,17.0,1.023521185,-0.859518409,10.22204399,-0.060220521,0.000532925,-0.007594181,-27.0,45.0,85.0,6.0,-10.0,-0.112527482,2.41694665,10.23640919,0.052759573,-0.027712099,0.038503829,15.0,36.0,-21.0,-22.0,53.0
1693678311078681600,-24.0,-21.0,-24.0,-29.0,42.0,-22.0,-12.0,-62.0,1.023521185,-0.859518409,10.22204399,-0.060220521,0.000532925,-0.007594181,-27.0,45.0,85.0,6.0,-10.0,-0.112527482,2.41694665,10.23640919,0.052759573,-0.027712099,0.038503829,15.0,36.0,-21.0,-22.0,53.0
1693678311084678600,26.0,-23.0,-26.0,-1.0,99.0,18.0,28.0,23.0,1.023521185,-0.859518409,10.22204399,-0.060220521,0.000532925,-0.007594181,-27.0,45.0,85.0,6.0,-10.0,-0.112527482,2.41694665,10.23640919,0.052759573,-0.027712099,0.038503829,15.0,36.0,-21.0,-22.0,53.0
1693678311085678500,-51.0,-13.0,-16.0,-24.0,-34.0,-20.0,-21.0,-19.0,1.023521185,-0.859518409,10.22204399,-0.060220521,0.000532925,-0.007594181,-27.0,45.0,85.0,6.0,-10.0,-0.112527482,2.41694665,10.23640919,0.052759573,-0.027712099,0.038503829,15.0,36.0,-21.0,-22.0,53.0
1693678311087673000,-51.0,-13.0,-16.0,-24.0,-34.0,-20.0,-21.0,-19.0,1.027112484,-0.864306808,10.23640919,-0.060486984,0.000399694,-0.007993874,-29.0,34.0,76.0,2.0,-12.0,-0.119710088,2.425326347,10.22324085,0.053026035,-0.027312404,0.037970904,13.0,30.0,-21.0,-20.0,51.0
1693678311087677000,-55.0,1.0,9.0,9.0,19.0,14.0,3.0,-7.0,1.027112484,-0.864306808,10.23640919,-0.060486984,0.000399694,-0.007993874,-29.0,34.0,76.0,2.0,-12.0,-0.119710088,2.425326347,10.22324085,0.053026035,-0.027312404,0.037970904,13.0,30.0,-21.0,-20.0,51.0
1693678311088673000,-55.0,1.0,9.0,9.0,19.0,14.0,3.0,-7.0,1.024718285,-0.864306808,10.23640919,-0.060620211,0.000399694,-0.007993874,-28.0,38.0,79.0,6.0,-8.0,-0.118512981,2.425326347,10.22802925,0.053159267,-0.027445635,0.038104136,15.0,36.0,-16.0,-19.0,51.0
1693678311088675400,107.0,43.0,-8.0,-4.0,-45.0,2.0,5.0,32.0,1.024718285,-0.864306808,10.23640919,-0.060620211,0.000399694,-0.007993874,-28.0,38.0,79.0,6.0,-8.0,-0.118512981,2.425326347,10.22802925,0.053159267,-0.027445635,0.038104136,15.0,36.0,-16.0,-19.0,51.0
1693678311089673000,107.0,43.0,-8.0,-4.0,-45.0,2.0,5.0,32.0,1.021126986,-0.863109708,10.23640919,-0.060486984,0.000133231,-0.008127105,-28.0,39.0,85.0,7.0,-12.0,-0.119710088,2.421735048,10.22802925,0.053159267,-0.027445635,0.038104136,17.0,39.0,-21.0,-18.0,55.0
1693678311089674500,50.0,-16.0,8.0,5.0,18.0,-13.0,-8.0,-12.0,1.021126986,-0.863109708,10.23640919,-0.060486984,0.000133231,-0.008127105,-28.0,39.0,85.0,7.0,-12.0,-0.119710088,2.421735048,10.22802925,0.053159267,-0.027445635,0.038104136,17.0,39.0,-21.0,-18.0,55.0
1693678311090673000,50.0,-16.0,8.0,5.0,18.0,-13.0,-8.0,-12.0,1.021126986,-0.859518409,10.23162079,-0.060753446,0.000133231,-0.008127105,-28.0,38.0,83.0,13.0,-9.0,-0.117315881,2.420537949,10.22922707,0.053159267,-0.027712099,0.038104136,15.0,39.0,-23.0,-22.0,53.0
1693678311091673000,50.0,-16.0,8.0,5.0,18.0,-13.0,-8.0,-12.0,1.019929886,-0.858321309,10.23880386,-0.060620211,0.000133231,-0.008127105,-28.0,43.0,83.0,3.0,-13.0,-0.117315881,2.418143749,10.23042393,0.053026035,-0.027845331,0.038237367,15.0,30.0,-24.0,-26.0,49.0
1693678311100670700,-49.0,2.0,-14.0,-9.0,-23.0,-4.0,-10.0,-10.0,1.019929886,-0.858321309,10.23880386,-0.060620211,0.000133231,-0.008127105,-28.0,43.0,83.0,3.0,-13.0,-0.117315881,2.418143749,10.23042393,0.053026035,-0.027845331,0.038237367,15.0,30.0,-24.0,-26.0,49.0
1693678311101667800,-47.0,-2.0,-16.0,-3.0,46.0,2.0,9.0,-32.0,1.019929886,-0.858321309,10.23880386,-0.060620211,0.000133231,-0.008127105,-28.0,43.0,83.0,3.0,-13.0,-0.117315881,2.418143749,10.23042393,0.053026035,-0.027845331,0.038237367,15.0,30.0,-24.0,-26.0,49.0
1693678311106664700,-43.0,17.0,22.0,23.0,-10.0,10.0,-14.0,-19.0,1.019929886,-0.858321309,10.23880386,-0.060620211,0.000133231,-0.008127105,-28.0,43.0,83.0,3.0,-13.0,-0.117315881,2.418143749,10.23042393,0.053026035,-0.027845331,0.038237367,15.0,30.0,-24.0,-26.0,49.0
1693678311108663700,15.0,23.0,30.0,-2.0,-37.0,-22.0,-5.0,18.0,1.019929886,-0.858321309,10.23880386,-0.060620211,0.000133231,-0.008127105,-28.0,43.0,83.0,3.0,-13.0,-0.117315881,2.418143749,10.23042393,0.053026035,-0.027845331,0.038237367,15.0,30.0,-24.0,-26.0,49.0
1693678311109663100,94.0,5.0,-5.0,-9.0,-10.0,-14.0,19.0,84.0,1.019929886,-0.858321309,10.23880386,-0.060620211,0.000133231,-0.008127105,-28.0,43.0,83.0,3.0,-13.0,-0.117315881,2.418143749,10.23042393,0.053026035,-0.027845331,0.038237367,15.0,30.0,-24.0,-26.0,49.0
1693678311111661900,-49.0,-29.0,0.0,0.0,-12.0,10.0,6.0,-33.0,1.019929886,-0.858321309,10.23880386,-0.060620211,0.000133231,-0.008127105,-28.0,43.0,83.0,3.0,-13.0,-0.117315881,2.418143749,10.23042393,0.053026035,-0.027845331,0.038237367,15.0,30.0,-24.0,-26.0,49.0
1693678311136648100,-107.0,-8.0,-26.0,-15.0,-10.0,-7.0,-16.0,-28.0,1.019929886,-0.858321309,10.23880386,-0.060620211,0.000133231,-0.008127105,-28.0,43.0,83.0,3.0,-13.0,-0.117315881,2.418143749,10.23042393,0.053026035,-0.027845331,0.038237367,15.0,30.0,-24.0,-26.0,49.0
1693678311138649500,81.0,-16.0,8.0,3.0,-2.0,4.0,4.0,5.0,1.019929886,-0.858321309,10.23880386,-0.060620211,0.000133231,-0.008127105,-28.0,43.0,83.0,3.0,-13.0,-0.117315881,2.418143749,10.23042393,0.053026035,-0.027845331,0.038237367,15.0,30.0,-24.0,-26.0,49.0
1693678311141645800,69.0,55.0,-2.0,-3.0,-21.0,-5.0,-5.0,59.0,1.019929886,-0.858321309,10.23880386,-0.060620211,0.000133231,-0.008127105,-28.0,43.0,83.0,3.0,-13.0,-0.117315881,2.418143749,10.23042393,0.053026035,-0.027845331,0.038237367,15.0,30.0,-24.0,-26.0,49.0
1693678311143646100,-50.0,-2.0,-3.0,5.0,65.0,-2.0,-9.0,-17.0,1.019929886,-0.858321309,10.23880386,-0.060620211,0.000133231,-0.008127105,-28.0,43.0,83.0,3.0,-13.0,-0.117315881,2.418143749,10.23042393,0.053026035,-0.027845331,0.038237367,15.0,30.0,-24.0,-26.0,49.0
1693678311145643600,-5.0,-7.0,-6.0,-16.0,-103.0,0.0,1.0,11.0,1.019929886,-0.858321309,10.23880386,-0.060620211,0.000133231,-0.008127105,-28.0,43.0,83.0,3.0,-13.0,-0.117315881,2.418143749,10.23042393,0.053026035,-0.027845331,0.038237367,15.0,30.0,-24.0,-26.0,49.0
1693678311150644200,-91.0,-8.0,4.0,-2.0,2.0,-13.0,-9.0,-16.0,1.019929886,-0.858321309,10.23880386,-0.060620211,0.000133231,-0.008127105,-28.0,43.0,83.0,3.0,-13.0,-0.117315881,2.418143749,10.23042393,0.053026035,-0.027845331,0.038237367,15.0,30.0,-24.0,-26.0,49.0
1693678311153638400,-35.0,-11.0,-9.0,-3.0,13.0,4.0,-3.0,-25.0,1.019929886,-0.858321309,10.23880386,-0.060620211,0.000133231,-0.008127105,-28.0,43.0,83.0,3.0,-13.0,-0.117315881,2.418143749,10.23042393,0.053026035,-0.027845331,0.038237367,15.0,30.0,-24.0,-26.0,49.0
1693678311155637600,6.0,-21.0,-2.0,2.0,-1.0,-2.0,-6.0,-24.0,1.019929886,-0.858321309,10.23880386,-0.060620211,0.000133231,-0.008127105,-28.0,43.0,83.0,3.0,-13.0,-0.117315881,2.418143749,10.23042393,0.053026035,-0.027845331,0.038237367,15.0,30.0,-24.0,-26.0,49.0
1693678311173625100,6.0,-21.0,-2.0,2.0,-1.0,-2.0,-6.0,-24.0,1.021126986,-0.849941611,10.23640919,-0.060353752,0.000399694,-0.007594181,-30.0,41.0,84.0,4.0,-12.0,-0.107739076,2.420537949,10.22802925,0.05249311,-0.027578866,0.038237367,12.0,36.0,-19.0,-24.0,48.0
1693678311174625100,6.0,-21.0,-2.0,2.0,-1.0,-2.0,-6.0,-24.0,1.024718285,-0.847547412,10.23401546,-0.060353752,0.000399694,-0.007594181,-24.0,41.0,84.0,10.0,-13.0,-0.108936176,2.419340849,10.22802925,0.052626338,-0.027712099,0.038370594,20.0,37.0,-15.0,-21.0,54.0
1693678311175625100,6.0,-21.0,-2.0,2.0,-1.0,-2.0,-6.0,-24.0,1.028309584,-0.847547412,10.22683239,-0.060220521,0.000266462,-0.007594181,-20.0,44.0,84.0,7.0,-5.0,-0.110133275,2.422932148,10.23281765,0.052626338,-0.027845331,0.038370594,20.0,42.0,-24.0,-18.0,54.0
1693678311176625100,6.0,-21.0,-2.0,2.0,-1.0,-2.0,-6.0,-24.0,1.027112484,-0.851138711,10.22324085,-0.060220521,0.000399694,-0.007727412,-23.0,44.0,88.0,8.0,-8.0,-0.113724582,2.421735048,10.23162079,0.0528928,-0.028111791,0.038237367,20.0,37.0,-23.0,-22.0,52.0
1693678311177625100,6.0,-21.0,-2.0,2.0,-1.0,-2.0,-6.0,-24.0,1.028309584,-0.85473001,10.22204399,-0.060220521,0.000532925,-0.007594181,-24.0,41.0,85.0,7.0,-9.0,-0.112527482,2.421735048,10.22922707,0.0528928,-0.02797856,0.038370594,13.0,39.0,-23.0,-31.0,50.0
1693678311181623900,116.0,38.0,12.0,12.0,55.0,4.0,0.0,32.0,1.028309584,-0.85473001,10.22204399,-0.060220521,0.000532925,-0.007594181,-24.0,41.0,85.0,7.0,-9.0,-0.112527482,2.421735048,10.22922707,0.0528928,-0.02797856,0.038370594,13.0,39.0,-23.0,-31.0,50.0
1693678311182622700,-45.0,-16.0,-6.0,1.0,43.0,1.0,-1.0,-29.0,1.028309584,-0.85473001,10.22204399,-0.060220521,0.000532925,-0.007594181,-24.0,41.0,85.0,7.0,-9.0,-0.112527482,2.421735048,10.22922707,0.0528928,-0.02797856,0.038370594,13.0,39.0,-23.0,-31.0,50.0
1693678311199611900,-1.0,-16.0,-21.0,-30.0,-30.0,-22.0,-5.0,-9.0,1.028309584,-0.85473001,10.22204399,-0.060220521,0.000532925,-0.007594181,-24.0,41.0,85.0,7.0,-9.0,-0.112527482,2.421735048,10.22922707,0.0528928,-0.02797856,0.038370594,13.0,39.0,-23.0,-31.0,50.0
1693678311201612600,58.0,7.0,14.0,13.0,5.0,4.0,-4.0,43.0,1.028309584,-0.85473001,10.22204399,-0.060220521,0.000532925,-0.007594181,-24.0,41.0,85.0,7.0,-9.0,-0.112527482,2.421735048,10.22922707,0.0528928,-0.02797856,0.038370594,13.0,39.0,-23.0,-31.0,50.0
1693678311202611600,-40.0,-28.0,-2.0,-2.0,3.0,-2.0,14.0,-18.0,1.028309584,-0.85473001,10.22204399,-0.060220521,0.000532925,-0.007594181,-24.0,41.0,85.0,7.0,-9.0,-0.112527482,2.421735048,10.22922707,0.0528928,-0.02797856,0.038370594,13.0,39.0,-23.0,-31.0,50.0
1693678311203610800,33.0,14.0,-2.0,4.0,35.0,1.0,-8.0,11.0,1.028309584,-0.85473001,10.22204399,-0.060220521,0.000532925,-0.007594181,-24.0,41.0,85.0,7.0,-9.0,-0.112527482,2.421735048,10.22922707,0.0528928,-0.02797856,0.038370594,13.0,39.0,-23.0,-31.0,50.0
1693678311204608400,-35.0,6.0,1.0,6.0,-48.0,9.0,20.0,-18.0,1.028309584,-0.85473001,10.22204399,-0.060220521,0.000532925,-0.007594181,-24.0,41.0,85.0,7.0,-9.0,-0.112527482,2.421735048,10.22922707,0.0528928,-0.02797856,0.038370594,13.0,39.0,-23.0,-31.0,50.0
1693678311205610200,-29.0,-16.0,2.0,-2.0,15.0,-3.0,-36.0,-45.0,1.028309584,-0.85473001,10.22204399,-0.060220521,0.000532925,-0.007594181,-24.0,41.0,85.0,7.0,-9.0,-0.112527482,2.421735048,10.22922707,0.0528928,-0.02797856,0.038370594,13.0,39.0,-23.0,-31.0,50.0
1693678311207609400,-19.0,-7.0,-4.0,-5.0,-49.0,-4.0,8.0,10.0,1.028309584,-0.85473001,10.22204399,-0.060220521,0.000532925,-0.007594181,-24.0,41.0,85.0,7.0,-9.0,-0.112527482,2.421735048,10.22922707,0.0528928,-0.02797856,0.038370594,13.0,39.0,-23.0,-31.0,50.0
1693678311209606300,19.0,6.0,-7.0,-7.0,-45.0,-7.0,-5.0,4.0,1.028309584,-0.85473001,10.22204399,-0.060220521,0.000532925,-0.007594181,-24.0,41.0,85.0,7.0,-9.0,-0.112527482,2.421735048,10.22922707,0.0528928,-0.02797856,0.038370594,13.0,39.0,-23.0,-31.0,50.0
1693678311211607200,-8.0,-4.0,-1.0,0.0,55.0,3.0,2.0,9.0,1.028309584,-0.85473001,10.22204399,-0.060220521,0.000532925,-0.007594181,-24.0,41.0,85.0,7.0,-9.0,-0.112527482,2.421735048,10.22922707,0.0528928,-0.02797856,0.038370594,13.0,39.0,-23.0,-31.0,50.0
1693678311216602700,-16.0,-11.0,0.0,-5.0,-43.0,-4.0,10.0,-4.0,1.028309584,-0.85473001,10.22204399,-0.060220521,0.000532925,-0.007594181,-24.0,41.0,85.0,7.0,-9.0,-0.112527482,2.421735048,10.22922707,0.0528928,-0.02797856,0.038370594,13.0,39.0,-23.0,-31.0,50.0
1693678311226595200,19.0,6.0,1.0,1.0,10.0,0.0,-7.0,6.0,1.028309584,-0.85473001,10.22204399,-0.060220521,0.000532925,-0.007594181,-24.0,41.0,85.0,7.0,-9.0,-0.112527482,2.421735048,10.22922707,0.0528928,-0.02797856,0.038370594,13.0,39.0,-23.0,-31.0,50.0
1693678311228595600,-24.0,10.0,0.0,-3.0,-19.0,0.0,0.0,8.0,1.028309584,-0.85473001,10.22204399,-0.060220521,0.000532925,-0.007594181,-24.0,41.0,85.0,7.0,-9.0,-0.112527482,2.421735048,10.22922707,0.0528928,-0.02797856,0.038370594,13.0,39.0,-23.0,-31.0,50.0
1693678311230594400,-17.0,-7.0,6.0,11.0,37.0,5.0,-7.0,-17.0,1.028309584,-0.85473001,10.22204399,-0.060220521,0.000532925,-0.007594181,-24.0,41.0,85.0,7.0,-9.0,-0.112527482,2.421735048,10.22922707,0.0528928,-0.02797856,0.038370594,13.0,39.0,-23.0,-31.0,50.0
1693678311234592500,17.0,14.0,3.0,-3.0,-66.0,5.0,6.0,5.0,1.028309584,-0.85473001,10.22204399,-0.060220521,0.000532925,-0.007594181,-24.0,41.0,85.0,7.0,-9.0,-0.112527482,2.421735048,10.22922707,0.0528928,-0.02797856,0.038370594,13.0,39.0,-23.0,-31.0,50.0
1693678311250591200,-3.0,-4.0,-3.0,-1.0,63.0,-17.0,-5.0,-10.0,1.028309584,-0.85473001,10.22204399,-0.060220521,0.000532925,-0.007594181,-24.0,41.0,85.0,7.0,-9.0,-0.112527482,2.421735048,10.22922707,0.0528928,-0.02797856,0.038370594,13.0,39.0,-23.0,-31.0,50.0
1693678311252581700,-37.0,-7.0,-5.0,-8.0,-24.0,-7.0,-2.0,-2.0,1.028309584,-0.85473001,10.22204399,-0.060220521,0.000532925,-0.007594181,-24.0,41.0,85.0,7.0,-9.0,-0.112527482,2.421735048,10.22922707,0.0528928,-0.02797856,0.038370594,13.0,39.0,-23.0,-31.0,50.0
1693678311253580700,4.0,4.0,3.0,13.0,42.0,17.0,7.0,-45.0,1.028309584,-0.85473001,10.22204399,-0.060220521,0.000532925,-0.007594181,-24.0,41.0,85.0,7.0,-9.0,-0.112527482,2.421735048,10.22922707,0.0528928,-0.02797856,0.038370594,13.0,39.0,-23.0,-31.0,50.0
1693678311254580500,1.0,-1.0,-5.0,-21.0,-61.0,-16.0,-2.0,44.0,1.028309584,-0.85473001,10.22204399,-0.060220521,0.000532925,-0.007594181,-24.0,41.0,85.0,7.0,-9.0,-0.112527482,2.421735048,10.22922707,0.0528928,-0.02797856,0.038370594,13.0,39.0,-23.0,-31.0,50.0
1693678311265578100,-12.0,-5.0,-1.0,4.0,2.0,23.0,1.0,0.0,1.028309584,-0.85473001,10.22204399,-0.060220521,0.000532925,-0.007594181,-24.0,41.0,85.0,7.0,-9.0,-0.112527482,2.421735048,10.22922707,0.0528928,-0.02797856,0.038370594,13.0,39.0,-23.0,-31.0,50.0
1693678311267572700,16.0,0.0,0.0,-8.0,-36.0,-24.0,-4.0,15.0,1.028309584,-0.85473001,10.22204399,-0.060220521,0.000532925,-0.007594181,-24.0,41.0,85.0,7.0,-9.0,-0.112527482,2.421735048,10.22922707,0.0528928,-0.02797856,0.038370594,13.0,39.0,-23.0,-31.0,50.0
1693678311268570800,16.0,0.0,0.0,-8.0,-36.0,-24.0,-4.0,15.0,1.018732786,-0.848744512,10.22922707,-0.060353752,0.000799387,-0.007460949,-24.0,37.0,85.0,10.0,-10.0,-0.110133275,2.421735048,10.22922707,0.052359879,-0.027045943,0.037970904,15.0,41.0,-24.0,-19.0,54.0
1693678311269570800,16.0,0.0,0.0,-8.0,-36.0,-24.0,-4.0,15.0,1.019929886,-0.852335811,10.22563553,-0.060220521,0.000666156,-0.007594181,-30.0,38.0,83.0,11.0,-9.0,-0.108936176,2.420537949,10.22922707,0.05249311,-0.027312404,0.037837673,13.0,40.0,-21.0,-24.0,54.0
1693678311269573500,-5.0,2.0,-1.0,9.0,39.0,14.0,0.0,-9.0,1.019929886,-0.852335811,10.22563553,-0.060220521,0.000666156,-0.007594181,-30.0,38.0,83.0,11.0,-9.0,-0.108936176,2.420537949,10.22922707,0.05249311,-0.027312404,0.037837673,13.0,40.0,-21.0,-24.0,54.0
1693678311270570800,-5.0,2.0,-1.0,9.0,39.0,14.0,0.0,-9.0,1.023521185,-0.85592711,10.22563553,-0.060353752,0.000532925,-0.007594181,-21.0,49.0,87.0,12.0,-14.0,-0.106541976,2.422932148,10.22683239,0.05249311,-0.027578866,0.038104136,9.0,34.0,-29.0,-32.0,53.0
1693678311271570400,-11.0,-1.0,0.0,5.0,14.0,6.0,5.0,-13.0,1.023521185,-0.85592711,10.22563553,-0.060353752,0.000532925,-0.007594181,-21.0,49.0,87.0,12.0,-14.0,-0.106541976,2.422932148,10.22683239,0.05249311,-0.027578866,0.038104136,9.0,34.0,-29.0,-32.0,53.0
1693678311271570800,-11.0,-1.0,0.0,5.0,14.0,6.0,5.0,-13.0,1.022324085,-0.85592711,10.22204399,-0.060353752,0.000532925,-0.007727412,-29.0,32.0,85.0,6.0,-9.0,-0.107739076,2.424129248,10.22563553,0.05249311,-0.027445635,0.038104136,21.0,32.0,-24.0,-22.0,50.0
1693678311272570800,-11.0,-1.0,0.0,5.0,14.0,6.0,5.0,-13.0,1.023521185,-0.852335811,10.21965027,-0.060220521,0.000532925,-0.007727412,-23.0,37.0,80.0,13.0,-13.0,-0.110133275,2.419340849,10.22204399,0.05249311,-0.027712099,0.038237367,15.0,40.0,-23.0,-23.0,55.0
1693678311286563100,-9.0,-3.0,-3.0,-1.0,-16.0,-21.0,-7.0,-17.0,1.023521185,-0.852335811,10.21965027,-0.060220521,0.000532925,-0.007727412,-23.0,37.0,80.0,13.0,-13.0,-0.110133275,2.419340849,10.22204399,0.05249311,-0.027712099,0.038237367,15.0,40.0,-23.0,-23.0,55.0
1693678311288561000,7.0,3.0,-3.0,-2.0,32.0,18.0,4.0,29.0,1.023521185,-0.852335811,10.21965027,-0.060220521,0.000532925,-0.007727412,-23.0,37.0,80.0,13.0,-13.0,-0.110133275,2.419340849,10.22204399,0.05249311,-0.027712099,0.038237367,15.0,40.0,-23.0,-23.0,55.0
1693678311290559000,-2.0,6.0,5.0,8.0,-11.0,-31.0,-4.0,0.0,1.023521185,-0.852335811,10.21965027,-0.060220521,0.000532925,-0.007727412,-23.0,37.0,80.0,13.0,-13.0,-0.110133275,2.419340849,10.22204399,0.05249311,-0.027712099,0.038237367,15.0,40.0,-23.0,-23.0,55.0
1693678311291559000,-1.0,-5.0,-2.0,3.0,88.0,34.0,10.0,4.0,1.023521185,-0.852335811,10.21965027,-0.060220521,0.000532925,-0.007727412,-23.0,37.0,80.0,13.0,-13.0,-0.110133275,2.419340849,10.22204399,0.05249311,-0.027712099,0.038237367,15.0,40.0,-23.0,-23.0,55.0
1693678311300554300,-4.0,-2.0,0.0,1.0,7.0,-20.0,-16.0,-12.0,1.023521185,-0.852335811,10.21965027,-0.060220521,0.000532925,-0.007727412,-23.0,37.0,80.0,13.0,-13.0,-0.110133275,2.419340849,10.22204399,0.05249311,-0.027712099,0.038237367,15.0,40.0,-23.0,-23.0,55.0
1693678311302553800,2.0,1.0,-4.0,-2.0,20.0,1.0,5.0,-9.0,1.023521185,-0.852335811,10.21965027,-0.060220521,0.000532925,-0.007727412,-23.0,37.0,80.0,13.0,-13.0,-0.110133275,2.419340849,10.22204399,0.05249311,-0.027712099,0.038237367,15.0,40.0,-23.0,-23.0,55.0
1693678311318544200,-12.0,-5.0,-2.0,-9.0,-34.0,7.0,-4.0,9.0,1.023521185,-0.852335811,10.21965027,-0.060220521,0.000532925,-0.007727412,-23.0,37.0,80.0,13.0,-13.0,-0.110133275,2.419340849,10.22204399,0.05249311,-0.027712099,0.038237367,15.0,40.0,-23.0,-23.0,55.0
1693678311320542900,-8.0,0.0,6.0,18.0,3.0,46.0,1.0,-14.0,1.023521185,-0.852335811,10.21965027,-0.060220521,0.000532925,-0.007727412,-23.0,37.0,80.0,13.0,-13.0,-0.110133275,2.419340849,10.22204399,0.05249311,-0.027712099,0.038237367,15.0,40.0,-23.0,-23.0,55.0
1693678311324541300,8.0,3.0,-1.0,-7.0,-60.0,0.0,7.0,9.0,1.023521185,-0.852335811,10.21965027,-0.060220521,0.000532925,-0.007727412,-23.0,37.0,80.0,13.0,-13.0,-0.110133275,2.419340849,10.22204399,0.05249311,-0.027712099,0.038237367,15.0,40.0,-23.0,-23.0,55.0
1693678311325540900,-5.0,-5.0,-1.0,9.0,23.0,-10.0,-3.0,-2.0,1.023521185,-0.852335811,10.21965027,-0.060220521,0.000532925,-0.007727412,-23.0,37.0,80.0,13.0,-13.0,-0.110133275,2.419340849,10.22204399,0.05249311,-0.027712099,0.038237367,15.0,40.0,-23.0,-23.0,55.0
1693678311327538700,-9.0,-4.0,-2.0,-7.0,-2.0,10.0,-1.0,3.0,1.023521185,-0.852335811,10.21965027,-0.060220521,0.000532925,-0.007727412,-23.0,37.0,80.0,13.0,-13.0,-0.110133275,2.419340849,10.22204399,0.05249311,-0.027712099,0.038237367,15.0,40.0,-23.0,-23.0,55.0
1693678311328538100,7.0,3.0,-1.0,-12.0,-19.0,16.0,5.0,-5.0,1.023521185,-0.852335811,10.21965027,-0.060220521,0.000532925,-0.007727412,-23.0,37.0,80.0,13.0,-13.0,-0.110133275,2.419340849,10.22204399,0.05249311,-0.027712099,0.038237367,15.0,40.0,-23.0,-23.0,55.0
1693678311339531500,7.0,3.0,-1.0,-12.0,-19.0,16.0,5.0,-5.0,1.022324085,-0.859518409,10.21246719,-0.060620211,0.000799387,-0.007327718,-22.0,41.0,85.0,7.0,-13.0,-0.108936176,2.422932148,10.23281765,0.0528928,-0.027845331,0.037704438,17.0,41.0,-20.0,-24.0,55.0
1693678311340531500,7.0,3.0,-1.0,-12.0,-19.0,16.0,5.0,-5.0,1.023521185,-0.860715508,10.21486187,-0.060486984,0.000799387,-0.007460949,-23.0,47.0,89.0,11.0,-8.0,-0.108936176,2.421735048,10.23760605,0.052759573,-0.027845331,0.037704438,9.0,41.0,-24.0,-24.0,52.0
1693678311341531500,7.0,3.0,-1.0,-12.0,-19.0,16.0,5.0,-5.0,1.025915384,-0.863109708,10.21605873,-0.060353752,0.000799387,-0.007594181,-28.0,38.0,85.0,11.0,-6.0,-0.105344877,2.421735048,10.23880386,0.052759573,-0.027712099,0.037704438,18.0,29.0,-20.0,-28.0,49.0
1693678311342531500,7.0,3.0,-1.0,-12.0,-19.0,16.0,5.0,-5.0,1.022324085,-0.863109708,10.21965027,-0.060220521,0.000799387,-0.007594181,-27.0,43.0,93.0,8.0,-13.0,-0.104147777,2.421735048,10.23760605,0.052759573,-0.027712099,0.03757121,13.0,36.0,-24.0,-22.0,47.0
1693678311343531500,7.0,3.0,-1.0,-12.0,-19.0,16.0,5.0,-5.0,1.019929886,-0.861912608,10.21965027,-0.060353752,0.000799387,-0.007594181,-30.0,43.0,84.0,8.0,-9.0,-0.104147777,2.425326347,10.23760605,0.053026035,-0.02797856,0.03757121,14.0,45.0,-29.0,-21.0,54.0
1693678311354521900,1.0,-2.0,-2.0,-5.0,-34.0,-18.0,-6.0,1.0,1.019929886,-0.861912608,10.21965027,-0.060353752,0.000799387,-0.007594181,-30.0,43.0,84.0,8.0,-9.0,-0.104147777,2.425326347,10.23760605,0.053026035,-0.02797856,0.03757121,14.0,45.0,-29.0,-21.0,54.0
1693678311356521700,-6.0,0.0,1.0,-1.0,36.0,8.0,2.0,9.0,1.019929886,-0.861912608,10.21965027,-0.060353752,0.000799387,-0.007594181,-30.0,43.0,84.0,8.0,-9.0,-0.104147777,2.425326347,10.23760605,0.053026035,-0.02797856,0.03757121,14.0,45.0,-29.0,-21.0,54.0
1693678311357521600,-4.0,-1.0,-9.0,-16.0,-65.0,-16.0,-8.0,-5.0,1.019929886,-0.861912608,10.21965027,-0.060353752,0.000799387,-0.007594181,-30.0,43.0,84.0,8.0,-9.0,-0.104147777,2.425326347,10.23760605,0.053026035,-0.02797856,0.03757121,14.0,45.0,-29.0,-21.0,54.0
1693678311358520300,5.0,5.0,8.0,9.0,-37.0,-19.0,4.0,-3.0,1.019929886,-0.861912608,10.21965027,-0.060353752,0.000799387,-0.007594181,-30.0,43.0,84.0,8.0,-9.0,-0.104147777,2.425326347,10.23760605,0.053026035,-0.02797856,0.03757121,14.0,45.0,-29.0,-21.0,54.0
1693678311360519400,-5.0,-5.0,-3.0,3.0,31.0,4.0,2.0,1.0,1.019929886,-0.861912608,10.21965027,-0.060353752,0.000799387,-0.007594181,-30.0,43.0,84.0,8.0,-9.0,-0.104147777,2.425326347,10.23760605,0.053026035,-0.02797856,0.03757121,14.0,45.0,-29.0,-21.0,54.0
1693678311361519200,-5.0,2.0,-3.0,-4.0,-41.0,4.0,-4.0,4.0,1.019929886,-0.861912608,10.21965027,-0.060353752,0.000799387,-0.007594181,-30.0,43.0,84.0,8.0,-9.0,-0.104147777,2.425326347,10.23760605,0.053026035,-0.02797856,0.03757121,14.0,45.0,-29.0,-21.0,54.0
1693678311377510000,-1.0,-2.0,-3.0,-3.0,61.0,-19.0,-5.0,-3.0,1.019929886,-0.861912608,10.21965027,-0.060353752,0.000799387,-0.007594181,-30.0,43.0,84.0,8.0,-9.0,-0.104147777,2.425326347,10.23760605,0.053026035,-0.02797856,0.03757121,14.0,45.0,-29.0,-21.0,54.0
1693678311380509500,1.0,3.0,9.0,18.0,105.0,8.0,6.0,0.0,1.019929886,-0.861912608,10.21965027,-0.060353752,0.000799387,-0.007594181,-30.0,43.0,84.0,8.0,-9.0,-0.104147777,2.425326347,10.23760605,0.053026035,-0.02797856,0.03757121,14.0,45.0,-29.0,-21.0,54.0
1693678311391501300,1.0,7.0,4.0,-11.0,6.0,7.0,6.0,9.0,1.019929886,-0.861912608,10.21965027,-0.060353752,0.000799387,-0.007594181,-30.0,43.0,84.0,8.0,-9.0,-0.104147777,2.425326347,10.23760605,0.053026035,-0.02797856,0.03757121,14.0,45.0,-29.0,-21.0,54.0
1693678311392503100,-4.0,-10.0,-6.0,16.0,127.0,0.0,-10.0,-12.0,1.019929886,-0.861912608,10.21965027,-0.060353752,0.000799387,-0.007594181,-30.0,43.0,84.0,8.0,-9.0,-0.104147777,2.425326347,10.23760605,0.053026035,-0.02797856,0.03757121,14.0,45.0,-29.0,-21.0,54.0
1693678311406493800,-6.0,-4.0,-5.0,-13.0,9.0,2.0,-1.0,-1.0,1.019929886,-0.861912608,10.21965027,-0.060353752,0.000799387,-0.007594181,-30.0,43.0,84.0,8.0,-9.0,-0.104147777,2.425326347,10.23760605,0.053026035,-0.02797856,0.03757121,14.0,45.0,-29.0,-21.0,54.0
1693678311407491700,-6.0,-4.0,-5.0,-13.0,9.0,2.0,-1.0,-1.0,1.022324085,-0.864306808,10.24000072,-0.06008729,0.000266462,-0.007460949,-29.0,46.0,87.0,12.0,-7.0,-0.105344877,2.427720547,10.22802925,0.052759573,-0.027179174,0.037437979,17.0,40.0,-25.0,-22.0,52.0
1693678311408491700,-6.0,-4.0,-5.0,-13.0,9.0,2.0,-1.0,-1.0,1.025915384,-0.864306808,10.23880386,-0.060220521,0.000399694,-0.007594181,-6.0,42.0,86.0,6.0,-8.0,-0.104147777,2.430114746,10.23042393,0.05249311,-0.026779478,0.037171517,14.0,40.0,-21.0,-24.0,49.0
1693678311408492400,-4.0,-3.0,-9.0,-27.0,-104.0,-33.0,-10.0,-2.0,1.025915384,-0.864306808,10.23880386,-0.060220521,0.000399694,-0.007594181,-6.0,42.0,86.0,6.0,-8.0,-0.104147777,2.430114746,10.23042393,0.05249311,-0.026779478,0.037171517,14.0,40.0,-21.0,-24.0,49.0
1693678311409491700,-4.0,-3.0,-9.0,-27.0,-104.0,-33.0,-10.0,-2.0,1.025915384,-0.865503907,10.24000072,-0.060220521,0.000266462,-0.007594181,-27.0,38.0,83.0,6.0,-12.0,-0.104147777,2.428917646,10.22802925,0.052226644,-0.026646247,0.037171517,7.0,35.0,-32.0,-28.0,52.0
1693678311410491700,-4.0,-3.0,-9.0,-27.0,-104.0,-33.0,-10.0,-2.0,1.024718285,-0.867898107,10.23760605,-0.06008729,0.000399694,-0.007594181,-7.0,59.0,107.0,10.0,-11.0,-0.105344877,2.427720547,10.22563553,0.052226644,-0.026513018,0.037171517,20.0,45.0,-28.0,-16.0,52.0
1693678311411491700,-4.0,-3.0,-9.0,-27.0,-104.0,-33.0,-10.0,-2.0,1.024718285,-0.865503907,10.24478912,-0.060220521,0.000399694,-0.007594181,-32.0,38.0,79.0,2.0,-17.0,-0.106541976,2.425326347,10.22563553,0.052226644,-0.026379786,0.037171517,20.0,43.0,-20.0,-19.0,53.0
1693678311416489600,1.0,6.0,10.0,15.0,27.0,30.0,7.0,3.0,1.024718285,-0.865503907,10.24478912,-0.060220521,0.000399694,-0.007594181,-32.0,38.0,79.0,2.0,-17.0,-0.106541976,2.425326347,10.22563553,0.052226644,-0.026379786,0.037171517,20.0,43.0,-20.0,-19.0,53.0
1693678311418486900,0.0,1.0,5.0,10.0,34.0,7.0,1.0,-17.0,1.024718285,-0.865503907,10.24478912,-0.060220521,0.000399694,-0.007594181,-32.0,38.0,79.0,2.0,-17.0,-0.106541976,2.425326347,10.22563553,0.052226644,-0.026379786,0.037171517,20.0,43.0,-20.0,-19.0,53.0
1693678311419486900,-2.0,-1.0,0.0,-2.0,9.0,-11.0,0.0,31.0,1.024718285,-0.865503907,10.24478912,-0.060220521,0.000399694,-0.007594181,-32.0,38.0,79.0,2.0,-17.0,-0.106541976,2.425326347,10.22563553,0.052226644,-0.026379786,0.037171517,20.0,43.0,-20.0,-19.0,53.0
1693678311420486800,-4.0,-6.0,-4.0,0.0,-43.0,-13.0,-4.0,-18.0,1.024718285,-0.865503907,10.24478912,-0.060220521,0.000399694,-0.007594181,-32.0,38.0,79.0,2.0,-17.0,-0.106541976,2.425326347,10.22563553,0.052226644,-0.026379786,0.037171517,20.0,43.0,-20.0,-19.0,53.0
1693678311436475000,-9.0,-15.0,-17.0,-18.0,53.0,-19.0,-7.0,11.0,1.024718285,-0.865503907,10.24478912,-0.060220521,0.000399694,-0.007594181,-32.0,38.0,79.0,2.0,-17.0,-0.106541976,2.425326347,10.22563553,0.052226644,-0.026379786,0.037171517,20.0,43.0,-20.0,-19.0,53.0
1693678311438474600,5.0,6.0,4.0,-1.0,-48.0,17.0,0.0,7.0,1.024718285,-0.865503907,10.24478912,-0.060220521,0.000399694,-0.007594181,-32.0,38.0,79.0,2.0,-17.0,-0.106541976,2.425326347,10.22563553,0.052226644,-0.026379786,0.037171517,20.0,43.0,-20.0,-19.0,53.0
1693678311440473800,-1.0,4.0,4.0,15.0,33.0,7.0,8.0,-16.0,1.024718285,-0.865503907,10.24478912,-0.060220521,0.000399694,-0.007594181,-32.0,38.0,79.0,2.0,-17.0,-0.106541976,2.425326347,10.22563553,0.052226644,-0.026379786,0.037171517,20.0,43.0,-20.0,-19.0,53.0
1693678311441473300,4.0,6.0,9.0,17.0,24.0,9.0,6.0,3.0,1.024718285,-0.865503907,10.24478912,-0.060220521,0.000399694,-0.007594181,-32.0,38.0,79.0,2.0,-17.0,-0.106541976,2.425326347,10.22563553,0.052226644,-0.026379786,0.037171517,20.0,43.0,-20.0,-19.0,53.0
1693678311451467100,2.0,2.0,5.0,-1.0,-51.0,8.0,0.0,6.0,1.024718285,-0.865503907,10.24478912,-0.060220521,0.000399694,-0.007594181,-32.0,38.0,79.0,2.0,-17.0,-0.106541976,2.425326347,10.22563553,0.052226644,-0.026379786,0.037171517,20.0,43.0,-20.0,-19.0,53.0
1693678311453467800,-6.0,-8.0,-7.0,-10.0,-52.0,-23.0,-4.0,-10.0,1.024718285,-0.865503907,10.24478912,-0.060220521,0.000399694,-0.007594181,-32.0,38.0,79.0,2.0,-17.0,-0.106541976,2.425326347,10.22563553,0.052226644,-0.026379786,0.037171517,20.0,43.0,-20.0,-19.0,53.0
1693678311457463700,-1.0,2.0,2.0,1.0,-10.0,14.0,2.0,-13.0,1.024718285,-0.865503907,10.24478912,-0.060220521,0.000399694,-0.007594181,-32.0,38.0,79.0,2.0,-17.0,-0.106541976,2.425326347,10.22563553,0.052226644,-0.026379786,0.037171517,20.0,43.0,-20.0,-19.0,53.0
1693678311459462800,1.0,-1.0,-9.0,-13.0,-22.0,-23.0,-8.0,20.0,1.024718285,-0.865503907,10.24478912,-0.060220521,0.000399694,-0.007594181,-32.0,38.0,79.0,2.0,-17.0,-0.106541976,2.425326347,10.22563553,0.052226644,-0.026379786,0.037171517,20.0,43.0,-20.0,-19.0,53.0
1693678311477452500,0.0,3.0,5.0,13.0,30.0,3.0,8.0,23.0,1.024718285,-0.865503907,10.24478912,-0.060220521,0.000399694,-0.007594181,-32.0,38.0,79.0,2.0,-17.0,-0.106541976,2.425326347,10.22563553,0.052226644,-0.026379786,0.037171517,20.0,43.0,-20.0,-19.0,53.0
1693678311481452400,0.0,0.0,1.0,-11.0,-14.0,4.0,-2.0,0.0,1.024718285,-0.865503907,10.24478912,-0.060220521,0.000399694,-0.007594181,-32.0,38.0,79.0,2.0,-17.0,-0.106541976,2.425326347,10.22563553,0.052226644,-0.026379786,0.037171517,20.0,43.0,-20.0,-19.0,53.0
1693678311484450400,-1.0,-2.0,-1.0,8.0,40.0,11.0,-1.0,-2.0,1.024718285,-0.865503907,10.24478912,-0.060220521,0.000399694,-0.007594181,-32.0,38.0,79.0,2.0,-17.0,-0.106541976,2.425326347,10.22563553,0.052226644,-0.026379786,0.037171517,20.0,43.0,-20.0,-19.0,53.0
1693678311485445500,-1.0,-2.0,-1.0,8.0,40.0,11.0,-1.0,-2.0,1.023521185,-0.864306808,10.23880386,-0.060220521,0.0,-0.007460949,-26.0,41.0,83.0,7.0,-10.0,-0.113724582,2.421735048,10.21965027,0.0528928,-0.027712099,0.038370594,17.0,39.0,-29.0,-24.0,54.0
1693678311486445500,-1.0,-2.0,-1.0,8.0,40.0,11.0,-1.0,-2.0,1.022324085,-0.864306808,10.24239445,-0.060353752,0.0,-0.007327718,-22.0,39.0,84.0,11.0,-9.0,-0.112527482,2.421735048,10.22324085,0.0528928,-0.027578866,0.038503829,15.0,36.0,-34.0,-28.0,49.0
1693678311486448700,-6.0,-7.0,-12.0,-27.0,-44.0,-39.0,-11.0,-10.0,1.022324085,-0.864306808,10.24239445,-0.060353752,0.0,-0.007327718,-22.0,39.0,84.0,11.0,-9.0,-0.112527482,2.421735048,10.22324085,0.0528928,-0.027578866,0.038503829,15.0,36.0,-34.0,-28.0,49.0
1693678311487445500,-6.0,-7.0,-12.0,-27.0,-44.0,-39.0,-11.0,-10.0,1.018732786,-0.865503907,10.23880386,-0.060353752,-0.000133231,-0.007327718,-27.0,27.0,84.0,2.0,-13.0,-0.108936176,2.419340849,10.22324085,0.053026035,-0.027445635,0.038370594,17.0,25.0,-22.0,-22.0,53.0
1693678311488445500,-6.0,-7.0,-12.0,-27.0,-44.0,-39.0,-11.0,-10.0,1.017535686,-0.867898107,10.23281765,-0.060353752,0.0,-0.007327718,-27.0,41.0,80.0,10.0,-9.0,-0.110133275,2.41694665,10.22802925,0.0528928,-0.027045943,0.038237367,18.0,44.0,-20.0,-20.0,52.0
1693678311489445500,0.0,-2.0,-2.0,-13.0,-33.0,-24.0,-5.0,-12.0,1.018732786,-0.866701007,10.23042393,-0.060353752,0.000133231,-0.007460949,-26.0,38.0,83.0,6.0,-14.0,-0.112527482,2.420537949,10.22443867,0.053026035,-0.026779478,0.038104136,18.0,45.0,-23.0,-23.0,50.0
1693678311491445000,2.0,4.0,6.0,9.0,6.0,16.0,9.0,6.0,1.018732786,-0.866701007,10.23042393,-0.060353752,0.000133231,-0.007460949,-26.0,38.0,83.0,6.0,-14.0,-0.112527482,2.420537949,10.22443867,0.053026035,-0.026779478,0.038104136,18.0,45.0,-23.0,-23.0,50.0
1693678311493444100,0.0,-4.0,-3.0,1.0,24.0,-1.0,-7.0,1.0,1.018732786,-0.866701007,10.23042393,-0.060353752,0.000133231,-0.007460949,-26.0,38.0,83.0,6.0,-14.0,-0.112527482,2.420537949,10.22443867,0.053026035,-0.026779478,0.038104136,18.0,45.0,-23.0,-23.0,50.0
1693678311494442900,0.0,-1.0,0.0,-1.0,-18.0,-2.0,4.0,-2.0,1.018732786,-0.866701007,10.23042393,-0.060353752,0.000133231,-0.007460949,-26.0,38.0,83.0,6.0,-14.0,-0.112527482,2.420537949,10.22443867,0.053026035,-0.026779478,0.038104136,18.0,45.0,-23.0,-23.0,50.0
1693678311511432200,-1.0,-1.0,-3.0,6.0,36.0,12.0,5.0,-2.0,1.018732786,-0.866701007,10.23042393,-0.060353752,0.000133231,-0.007460949,-26.0,38.0,83.0,6.0,-14.0,-0.112527482,2.420537949,10.22443867,0.053026035,-0.026779478,0.038104136,18.0,45.0,-23.0,-23.0,50.0
1693678311515430500,-2.0,5.0,3.0,-6.0,-37.0,32.0,-9.0,-33.0,1.018732786,-0.866701007,10.23042393,-0.060353752,0.000133231,-0.007460949,-26.0,38.0,83.0,6.0,-14.0,-0.112527482,2.420537949,10.22443867,0.053026035,-0.026779478,0.038104136,18.0,45.0,-23.0,-23.0,50.0
1693678311518428700,-1.0,-2.0,-1.0,-2.0,-22.0,-43.0,-3.0,37.0,1.018732786,-0.866701007,10.23042393,-0.060353752,0.000133231,-0.007460949,-26.0,38.0,83.0,6.0,-14.0,-0.112527482,2.420537949,10.22443867,0.053026035,-0.026779478,0.038104136,18.0,45.0,-23.0,-23.0,50.0
1693678311520428600,0.0,0.0,3.0,7.0,23.0,18.0,3.0,2.0,1.018732786,-0.866701007,10.23042393,-0.060353752,0.000133231,-0.007460949,-26.0,38.0,83.0,6.0,-14.0,-0.112527482,2.420537949,10.22443867,0.053026035,-0.026779478,0.038104136,18.0,45.0,-23.0,-23.0,50.0
1693678311525424500,2.0,-1.0,-3.0,6.0,13.0,3.0,1.0,-6.0,1.018732786,-0.866701007,10.23042393,-0.060353752,0.000133231,-0.007460949,-26.0,38.0,83.0,6.0,-14.0,-0.112527482,2.420537949,10.22443867,0.053026035,-0.026779478,0.038104136,18.0,45.0,-23.0,-23.0,50.0
1693678311526424700,-3.0,-5.0,-6.0,-24.0,-85.0,-27.0,-4.0,1.0,1.018732786,-0.866701007,10.23042393,-0.060353752,0.000133231,-0.007460949,-26.0,38.0,83.0,6.0,-14.0,-0.112527482,2.420537949,10.22443867,0.053026035,-0.026779478,0.038104136,18.0,45.0,-23.0,-23.0,50.0
1693678311549410400,-3.0,-5.0,-6.0,-24.0,-85.0,-27.0,-4.0,1.0,1.018732786,-0.859518409,10.23760605,-0.060620211,0.000532925,-0.007860643,-24.0,42.0,81.0,10.0,-12.0,-0.117315881,2.418143749,10.21366405,0.053425729,-0.026779478,0.037970904,16.0,30.0,-31.0,-26.0,48.0
1693678311550410400,-3.0,-5.0,-6.0,-24.0,-85.0,-27.0,-4.0,1.0,1.019929886,-0.857124209,10.23880386,-0.060620211,0.000399694,-0.007727412,-23.0,45.0,89.0,7.0,-9.0,-0.116118781,2.41455245,10.21605873,0.053159267,-0.027179174,0.037970904,6.0,33.0,-24.0,-24.0,51.0
1693678311551410400,-3.0,-5.0,-6.0,-24.0,-85.0,-27.0,-4.0,1.0,1.021126986,-0.85473001,10.24239445,-0.060620211,0.000399694,-0.007727412,-23.0,42.0,84.0,11.0,-15.0,-0.112527482,2.41574955,10.21486187,0.0528928,-0.027312404,0.038104136,18.0,35.0,-21.0,-19.0,54.0
1693678311552410400,-3.0,-5.0,-6.0,-24.0,-85.0,-27.0,-4.0,1.0,1.022324085,-0.851138711,10.23640919,-0.060753446,0.000399694,-0.007460949,-27.0,42.0,79.0,11.0,-14.0,-0.106541976,2.420537949,10.21965027,0.053159267,-0.027712099,0.038104136,20.0,41.0,-25.0,-22.0,54.0
1693678311553410400,-3.0,-5.0,-6.0,-24.0,-85.0,-27.0,-4.0,1.0,1.023521185,-0.85353291,10.23042393,-0.060620211,0.000266462,-0.007460949,-31.0,37.0,79.0,7.0,-14.0,-0.110133275,2.427720547,10.22084713,0.053425729,-0.02797856,0.038237367,13.0,32.0,-22.0,-23.0,48.0
1693678311558407700,-1.0,3.0,0.0,4.0,32.0,19.0,1.0,-19.0,1.023521185,-0.85353291,10.23042393,-0.060620211,0.000266462,-0.007460949,-31.0,37.0,79.0,7.0,-14.0,-0.110133275,2.427720547,10.22084713,0.053425729,-0.02797856,0.038237367,13.0,32.0,-22.0,-23.0,48.0
1693678311560405400,0.0,3.0,3.0,10.0,84.0,3.0,0.0,-2.0,1.023521185,-0.85353291,10.23042393,-0.060620211,0.000266462,-0.007460949,-31.0,37.0,79.0,7.0,-14.0,-0.110133275,2.427720547,10.22084713,0.053425729,-0.02797856,0.038237367,13.0,32.0,-22.0,-23.0,48.0
1693678311561405700,0.0,-2.0,0.0,-1.0,-2.0,4.0,-1.0,3.0,1.023521185,-0.85353291,10.23042393,-0.060620211,0.000266462,-0.007460949,-31.0,37.0,79.0,7.0,-14.0,-0.110133275,2.427720547,10.22084713,0.053425729,-0.02797856,0.038237367,13.0,32.0,-22.0,-23.0,48.0
1693678311565403500,-4.0,-1.0,0.0,-1.0,4.0,14.0,4.0,-2.0,1.023521185,-0.85353291,10.23042393,-0.060620211,0.000266462,-0.007460949,-31.0,37.0,79.0,7.0,-14.0,-0.110133275,2.427720547,10.22084713,0.053425729,-0.02797856,0.038237367,13.0,32.0,-22.0,-23.0,48.0
1693678311567401700,0.0,0.0,4.0,-2.0,-9.0,-14.0,-5.0,-3.0,1.023521185,-0.85353291,10.23042393,-0.060620211,0.000266462,-0.007460949,-31.0,37.0,79.0,7.0,-14.0,-0.110133275,2.427720547,10.22084713,0.053425729,-0.02797856,0.038237367,13.0,32.0,-22.0,-23.0,48.0
1693678311569401700,2.0,2.0,7.0,15.0,44.0,7.0,9.0,5.0,1.023521185,-0.85353291,10.23042393,-0.060620211,0.000266462,-0.007460949,-31.0,37.0,79.0,7.0,-14.0,-0.110133275,2.427720547,10.22084713,0.053425729,-0.02797856,0.038237367,13.0,32.0,-22.0,-23.0,48.0
1693678311582396900,-4.0,-9.0,-16.0,-25.0,14.0,-1.0,-10.0,-12.0,1.023521185,-0.85353291,10.23042393,-0.060620211,0.000266462,-0.007460949,-31.0,37.0,79.0,7.0,-14.0,-0.110133275,2.427720547,10.22084713,0.053425729,-0.02797856,0.038237367,13.0,32.0,-22.0,-23.0,48.0
1693678311585390700,-1.0,1.0,-5.0,-1.0,-64.0,-2.0,-2.0,8.0,1.023521185,-0.85353291,10.23042393,-0.060620211,0.000266462,-0.007460949,-31.0,37.0,79.0,7.0,-14.0,-0.110133275,2.427720547,10.22084713,0.053425729,-0.02797856,0.038237367,13.0,32.0,-22.0,-23.0,48.0
1693678311587390200,0.0,0.0,1.0,-2.0,-14.0,-28.0,-4.0,-6.0,1.023521185,-0.85353291,10.23042393,-0.060620211,0.000266462,-0.007460949,-31.0,37.0,79.0,7.0,-14.0,-0.110133275,2.427720547,10.22084713,0.053425729,-0.02797856,0.038237367,13.0,32.0,-22.0,-23.0,48.0
1693678311589390200,-1.0,1.0,2.0,17.0,127.0,20.0,2.0,-3.0,1.023521185,-0.85353291,10.23042393,-0.060620211,0.000266462,-0.007460949,-31.0,37.0,79.0,7.0,-14.0,-0.110133275,2.427720547,10.22084713,0.053425729,-0.02797856,0.038237367,13.0,32.0,-22.0,-23.0,48.0
1693678311590387400,3.0,2.0,1.0,-8.0,-87.0,0.0,2.0,7.0,1.023521185,-0.85353291,10.23042393,-0.060620211,0.000266462,-0.007460949,-31.0,37.0,79.0,7.0,-14.0,-0.110133275,2.427720547,10.22084713,0.053425729,-0.02797856,0.038237367,13.0,32.0,-22.0,-23.0,48.0
1693678311592387900,-2.0,-5.0,3.0,-1.0,58.0,3.0,2.0,7.0,1.023521185,-0.85353291,10.23042393,-0.060620211,0.000266462,-0.007460949,-31.0,37.0,79.0,7.0,-14.0,-0.110133275,2.427720547,10.22084713,0.053425729,-0.02797856,0.038237367,13.0,32.0,-22.0,-23.0,48.0
1693678311601382700,-2.0,-6.0,-9.0,-18.0,-82.0,4.0,-4.0,1.0,1.023521185,-0.85353291,10.23042393,-0.060620211,0.000266462,-0.007460949,-31.0,37.0,79.0,7.0,-14.0,-0.110133275,2.427720547,10.22084713,0.053425729,-0.02797856,0.038237367,13.0,32.0,-22.0,-23.0,48.0
1693678311603380600,-2.0,-3.0,-3.0,-12.0,-19.0,-22.0,-5.0,-7.0,1.023521185,-0.85353291,10.23042393,-0.060620211,0.000266462,-0.007460949,-31.0,37.0,79.0,7.0,-14.0,-0.110133275,2.427720547,10.22084713,0.053425729,-0.02797856,0.038237367,13.0,32.0,-22.0,-23.0,48.0
1693678311608378700,-2.0,3.0,8.0,17.0,61.0,18.0,0.0,-3.0,1.023521185,-0.85353291,10.23042393,-0.060620211,0.000266462,-0.007460949,-31.0,37.0,79.0,7.0,-14.0,-0.110133275,2.427720547,10.22084713,0.053425729,-0.02797856,0.038237367,13.0,32.0,-22.0,-23.0,48.0
1693678311610377000,2.0,-1.0,-6.0,-3.0,-41.0,-25.0,1.0,5.0,1.023521185,-0.85353291,10.23042393,-0.060620211,0.000266462,-0.007460949,-31.0,37.0,79.0,7.0,-14.0,-0.110133275,2.427720547,10.22084713,0.053425729,-0.02797856,0.038237367,13.0,32.0,-22.0,-23.0,48.0
1693678311629363900,2.0,-1.0,-6.0,-3.0,-41.0,-25.0,1.0,5.0,1.025915384,-0.861912608,10.24239445,-0.060220521,0.000399694,-0.007327718,-27.0,38.0,85.0,1.0,-10.0,-0.113724582,2.422932148,10.23162079,0.052359879,-0.027179174,0.037970904,11.0,30.0,-28.0,-26.0,53.0
1693678311630363900,2.0,-1.0,-6.0,-3.0,-41.0,-25.0,1.0,5.0,1.023521185,-0.863109708,10.24359226,-0.06008729,0.000532925,-0.007460949,-30.0,46.0,86.0,13.0,-10.0,-0.113724582,2.420537949,10.23042393,0.052226644,-0.027312404,0.037837673,15.0,32.0,-32.0,-26.0,50.0
1693678311631363900,2.0,-1.0,-6.0,-3.0,-41.0,-25.0,1.0,5.0,1.022324085,-0.861912608,10.23880386,-0.060220521,0.000399694,-0.007460949,-28.0,47.0,85.0,11.0,-13.0,-0.114921682,2.41694665,10.22443867,0.05249311,-0.027445635,0.037704438,20.0,43.0,-15.0,-20.0,55.0
1693678311632363900,2.0,-1.0,-6.0,-3.0,-41.0,-25.0,1.0,5.0,1.021126986,-0.858321309,10.24239445,-0.06008729,0.000666156,-0.007194487,-28.0,38.0,83.0,7.0,-12.0,-0.117315881,2.418143749,10.22204399,0.05249311,-0.027712099,0.037837673,18.0,44.0,-30.0,-23.0,55.0
1693678311633363900,2.0,-1.0,-6.0,-3.0,-41.0,-25.0,1.0,5.0,1.023521185,-0.85592711,10.24359226,-0.06008729,0.000532925,-0.007194487,-39.0,36.0,84.0,7.0,-16.0,-0.114921682,2.420537949,10.21725559,0.0528928,-0.028111791,0.037970904,20.0,36.0,-20.0,-26.0,50.0
1693678311655356600,2.0,2.0,1.0,10.0,79.0,30.0,-1.0,-2.0,1.023521185,-0.85592711,10.24359226,-0.06008729,0.000532925,-0.007194487,-39.0,36.0,84.0,7.0,-16.0,-0.114921682,2.420537949,10.21725559,0.0528928,-0.028111791,0.037970904,20.0,36.0,-20.0,-26.0,50.0
1693678311657350400,0.0,-2.0,-1.0,-8.0,-54.0,-2.0,-1.0,0.0,1.023521185,-0.85592711,10.24359226,-0.06008729,0.000532925,-0.007194487,-39.0,36.0,84.0,7.0,-16.0,-0.114921682,2.420537949,10.21725559,0.0528928,-0.028111791,0.037970904,20.0,36.0,-20.0,-26.0,50.0
1693678311659348200,4.0,9.0,10.0,2.0,-10.0,-9.0,5.0,0.0,1.023521185,-0.85592711,10.24359226,-0.06008729,0.000532925,-0.007194487,-39.0,36.0,84.0,7.0,-16.0,-0.114921682,2.420537949,10.21725559,0.0528928,-0.028111791,0.037970904,20.0,36.0,-20.0,-26.0,50.0
1693678311660347500,-7.0,-10.0,-15.0,2.0,-27.0,-36.0,-13.0,-1.0,1.023521185,-0.85592711,10.24359226,-0.06008729,0.000532925,-0.007194487,-39.0,36.0,84.0,7.0,-16.0,-0.114921682,2.420537949,10.21725559,0.0528928,-0.028111791,0.037970904,20.0,36.0,-20.0,-26.0,50.0
1693678311661347100,-1.0,0.0,3.0,14.0,58.0,6.0,5.0,-4.0,1.023521185,-0.85592711,10.24359226,-0.06008729,0.000532925,-0.007194487,-39.0,36.0,84.0,7.0,-16.0,-0.114921682,2.420537949,10.21725559,0.0528928,-0.028111791,0.037970904,20.0,36.0,-20.0,-26.0,50.0
1693678311665348200,3.0,2.0,5.0,24.0,92.0,35.0,6.0,3.0,1.023521185,-0.85592711,10.24359226,-0.06008729,0.000532925,-0.007194487,-39.0,36.0,84.0,7.0,-16.0,-0.114921682,2.420537949,10.21725559,0.0528928,-0.028111791,0.037970904,20.0,36.0,-20.0,-26.0,50.0
1693678311667343700,1.0,7.0,7.0,-5.0,21.0,-11.0,3.0,0.0,1.023521185,-0.85592711,10.24359226,-0.06008729,0.000532925,-0.007194487,-39.0,36.0,84.0,7.0,-16.0,-0.114921682,2.420537949,10.21725559,0.0528928,-0.028111791,0.037970904,20.0,36.0,-20.0,-26.0,50.0
1693678311668343500,-2.0,-3.0,-7.0,-27.0,58.0,-11.0,-3.0,-3.0,1.023521185,-0.85592711,10.24359226,-0.06008729,0.000532925,-0.007194487,-39.0,36.0,84.0,7.0,-16.0,-0.114921682,2.420537949,10.21725559,0.0528928,-0.028111791,0.037970904,20.0,36.0,-20.0,-26.0,50.0
1693678311676338900,5.0,11.0,28.0,73.0,99.0,37.0,13.0,2.0,1.023521185,-0.85592711,10.24359226,-0.06008729,0.000532925,-0.007194487,-39.0,36.0,84.0,7.0,-16.0,-0.114921682,2.420537949,10.21725559,0.0528928,-0.028111791,0.037970904,20.0,36.0,-20.0,-26.0,50.0
1693678311677337400,4.0,7.0,18.0,21.0,-9.0,9.0,12.0,9.0,1.023521185,-0.85592711,10.24359226,-0.06008729,0.000532925,-0.007194487,-39.0,36.0,84.0,7.0,-16.0,-0.114921682,2.420537949,10.21725559,0.0528928,-0.028111791,0.037970904,20.0,36.0,-20.0,-26.0,50.0
1693678311697326200,4.0,7.0,18.0,21.0,-9.0,9.0,12.0,9.0,1.024718285,-0.857124209,10.23281765,-0.06008729,0.000532925,-0.007460949,-28.0,38.0,80.0,10.0,-11.0,-0.113724582,2.426523447,10.24000072,0.052626338,-0.027845331,0.037837673,14.0,42.0,-19.0,-24.0,52.0
1693678311698326200,4.0,7.0,18.0,21.0,-9.0,9.0,12.0,9.0,1.025915384,-0.85473001,10.23281765,-0.060353752,0.000532925,-0.007460949,-12.0,45.0,81.0,10.0,-12.0,-0.114921682,2.425326347,10.23760605,0.05249311,-0.027578866,0.037704438,18.0,39.0,-31.0,-23.0,53.0
1693678311699326200,4.0,7.0,18.0,21.0,-9.0,9.0,12.0,9.0,1.025915384,-0.857124209,10.23162079,-0.060353752,0.000532925,-0.007327718,-24.0,42.0,90.0,9.0,-13.0,-0.114921682,2.425326347,10.24000072,0.05249311,-0.027445635,0.037704438,18.0,39.0,-20.0,-23.0,55.0
1693678311700326200,4.0,7.0,18.0,21.0,-9.0,9.0,12.0,9.0,1.025915384,-0.857124209,10.23281765,-0.060353752,0.000666156,-0.007194487,-28.0,42.0,87.0,10.0,-7.0,-0.119710088,2.424129248,10.24478912,0.052626338,-0.027445635,0.037704438,17.0,41.0,-25.0,-28.0,50.0
1693678311701326200,4.0,7.0,18.0,21.0,-9.0,9.0,12.0,9.0,1.023521185,-0.857124209,10.23880386,-0.060220521,0.000799387,-0.007327718,-22.0,41.0,80.0,6.0,-9.0,-0.120907187,2.422932148,10.24239445,0.052626338,-0.027712099,0.037837673,20.0,37.0,-23.0,-32.0,50.0
1693678311708320200,-7.0,-12.0,-25.0,-49.0,-76.0,-5.0,-17.0,-8.0,1.023521185,-0.857124209,10.23880386,-0.060220521,0.000799387,-0.007327718,-22.0,41.0,80.0,6.0,-9.0,-0.120907187,2.422932148,10.24239445,0.052626338,-0.027712099,0.037837673,20.0,37.0,-23.0,-32.0,50.0
1693678311710319300,-3.0,0.0,0.0,22.0,34.0,-56.0,-4.0,-1.0,1.023521185,-0.857124209,10.23880386,-0.060220521,0.000799387,-0.007327718,-22.0,41.0,80.0,6.0,-9.0,-0.120907187,2.422932148,10.24239445,0.052626338,-0.027712099,0.037837673,20.0,37.0,-23.0,-32.0,50.0
1693678311711320500,-1.0,-1.0,-13.0,5.0,76.0,32.0,-1.0,-4.0,1.023521185,-0.857124209,10.23880386,-0.060220521,0.000799387,-0.007327718,-22.0,41.0,80.0,6.0,-9.0,-0.120907187,2.422932148,10.24239445,0.052626338,-0.027712099,0.037837673,20.0,37.0,-23.0,-32.0,50.0
1693678311713318500,-3.0,-8.0,-29.0,-49.0,-50.0,-29.0,-8.0,-2.0,1.023521185,-0.857124209,10.23880386,-0.060220521,0.000799387,-0.007327718,-22.0,41.0,80.0,6.0,-9.0,-0.120907187,2.422932148,10.24239445,0.052626338,-0.027712099,0.037837673,20.0,37.0,-23.0,-32.0,50.0
1693678311718315500,16.0,31.0,82.0,-1.0,49.0,8.0,21.0,17.0,1.023521185,-0.857124209,10.23880386,-0.060220521,0.000799387,-0.007327718,-22.0,41.0,80.0,6.0,-9.0,-0.120907187,2.422932148,10.24239445,0.052626338,-0.027712099,0.037837673,20.0,37.0,-23.0,-32.0,50.0
1693678311720314600,-1.0,-4.0,-3.0,47.0,91.0,62.0,9.0,-2.0,1.023521185,-0.857124209,10.23880386,-0.060220521,0.000799387,-0.007327718,-22.0,41.0,80.0,6.0,-9.0,-0.120907187,2.422932148,10.24239445,0.052626338,-0.027712099,0.037837673,20.0,37.0,-23.0,-32.0,50.0
1693678311721314500,-11.0,-19.0,-31.0,-48.0,-128.0,-111.0,-38.0,-17.0,1.023521185,-0.857124209,10.23880386,-0.060220521,0.000799387,-0.007327718,-22.0,41.0,80.0,6.0,-9.0,-0.120907187,2.422932148,10.24239445,0.052626338,-0.027712099,0.037837673,20.0,37.0,-23.0,-32.0,50.0
1693678311723313300,-6.0,-11.0,-21.0,54.0,127.0,43.0,-4.0,-4.0,1.023521185,-0.857124209,10.23880386,-0.060220521,0.000799387,-0.007327718,-22.0,41.0,80.0,6.0,-9.0,-0.120907187,2.422932148,10.24239445,0.052626338,-0.027712099,0.037837673,20.0,37.0,-23.0,-32.0,50.0
1693678311724312200,16.0,25.0,35.0,59.0,35.0,100.0,48.0,19.0,1.023521185,-0.857124209,10.23880386,-0.060220521,0.000799387,-0.007327718,-22.0,41.0,80.0,6.0,-9.0,-0.120907187,2.422932148,10.24239445,0.052626338,-0.027712099,0.037837673,20.0,37.0,-23.0,-32.0,50.0
1693678311725311700,-16.0,-24.0,-48.0,-114.0,-116.0,-72.0,-39.0,-18.0,1.023521185,-0.857124209,10.23880386,-0.060220521,0.000799387,-0.007327718,-22.0,41.0,80.0,6.0,-9.0,-0.120907187,2.422932148,10.24239445,0.052626338,-0.027712099,0.037837673,20.0,37.0,-23.0,-32.0,50.0
1693678311730307800,2.0,5.0,-12.0,96.0,118.0,69.0,11.0,4.0,1.023521185,-0.857124209,10.23880386,-0.060220521,0.000799387,-0.007327718,-22.0,41.0,80.0,6.0,-9.0,-0.120907187,2.422932148,10.24239445,0.052626338,-0.027712099,0.037837673,20.0,37.0,-23.0,-32.0,50.0
1693678311734306900,12.0,27.0,92.0,115.0,49.0,107.0,28.0,14.0,1.023521185,-0.857124209,10.23880386,-0.060220521,0.000799387,-0.007327718,-22.0,41.0,80.0,6.0,-9.0,-0.120907187,2.422932148,10.24239445,0.052626338,-0.027712099,0.037837673,20.0,37.0,-23.0,-32.0,50.0
1693678311737304000,-14.0,-30.0,-50.0,-51.0,57.0,3.0,-31.0,-17.0,1.023521185,-0.857124209,10.23880386,-0.060220521,0.000799387,-0.007327718,-22.0,41.0,80.0,6.0,-9.0,-0.120907187,2.422932148,10.24239445,0.052626338,-0.027712099,0.037837673,20.0,37.0,-23.0,-32.0,50.0
1693678311738303200,6.0,11.0,22.0,-19.0,-53.0,8.0,8.0,6.0,1.023521185,-0.857124209,10.23880386,-0.060220521,0.000799387,-0.007327718,-22.0,41.0,80.0,6.0,-9.0,-0.120907187,2.422932148,10.24239445,0.052626338,-0.027712099,0.037837673,20.0,37.0,-23.0,-32.0,50.0
1693678311751295400,-2.0,-6.0,-16.0,-10.0,83.0,-9.0,4.0,-1.0,1.023521185,-0.857124209,10.23880386,-0.060220521,0.000799387,-0.007327718,-22.0,41.0,80.0,6.0,-9.0,-0.120907187,2.422932148,10.24239445,0.052626338,-0.027712099,0.037837673,20.0,37.0,-23.0,-32.0,50.0
1693678311753294000,-5.0,-13.0,-46.0,-76.0,-59.0,-18.0,-2.0,-4.0,1.023521185,-0.857124209,10.23880386,-0.060220521,0.000799387,-0.007327718,-22.0,41.0,80.0,6.0,-9.0,-0.120907187,2.422932148,10.24239445,0.052626338,-0.027712099,0.037837673,20.0,37.0,-23.0,-32.0,50.0
1693678311754294200,-3.0,3.0,43.0,116.0,116.0,-6.0,-17.0,-7.0,1.023521185,-0.857124209,10.23880386,-0.060220521,0.000799387,-0.007327718,-22.0,41.0,80.0,6.0,-9.0,-0.120907187,2.422932148,10.24239445,0.052626338,-0.027712099,0.037837673,20.0,37.0,-23.0,-32.0,50.0
1693678311756292800,7.0,9.0,14.0,28.0,100.0,47.0,20.0,9.0,1.023521185,-0.857124209,10.23880386,-0.060220521,0.000799387,-0.007327718,-22.0,41.0,80.0,6.0,-9.0,-0.120907187,2.422932148,10.24239445,0.052626338,-0.027712099,0.037837673,20.0,37.0,-23.0,-32.0,50.0
1693678311765287700,1.0,2.0,6.0,-47.0,-62.0,47.0,2.0,1.0,1.023521185,-0.857124209,10.23880386,-0.060220521,0.000799387,-0.007327718,-22.0,41.0,80.0,6.0,-9.0,-0.120907187,2.422932148,10.24239445,0.052626338,-0.027712099,0.037837673,20.0,37.0,-23.0,-32.0,50.0
1693678311768287900,-6.0,-12.0,-26.0,62.0,2.0,-61.0,-12.0,-3.0,1.023521185,-0.857124209,10.23880386,-0.060220521,0.000799387,-0.007327718,-22.0,41.0,80.0,6.0,-9.0,-0.120907187,2.422932148,10.24239445,0.052626338,-0.027712099,0.037837673,20.0,37.0,-23.0,-32.0,50.0
1693678311786275500,1.0,4.0,4.0,-96.0,-78.0,-6.0,11.0,2.0,1.023521185,-0.857124209,10.23880386,-0.060220521,0.000799387,-0.007327718,-22.0,41.0,80.0,6.0,-9.0,-0.120907187,2.422932148,10.24239445,0.052626338,-0.027712099,0.037837673,20.0,37.0,-23.0,-32.0,50.0
1693678311787274800,-12.0,-18.0,-32.0,-43.0,-59.0,-101.0,-32.0,-13.0,1.023521185,-0.857124209,10.23880386,-0.060220521,0.000799387,-0.007327718,-22.0,41.0,80.0,6.0,-9.0,-0.120907187,2.422932148,10.24239445,0.052626338,-0.027712099,0.037837673,20.0,37.0,-23.0,-32.0,50.0
1693678311788274200,9.0,20.0,50.0,22.0,-13.0,68.0,23.0,13.0,1.023521185,-0.857124209,10.23880386,-0.060220521,0.000799387,-0.007327718,-22.0,41.0,80.0,6.0,-9.0,-0.120907187,2.422932148,10.24239445,0.052626338,-0.027712099,0.037837673,20.0,37.0,-23.0,-32.0,50.0
1693678311790273500,-9.0,-11.0,-10.0,-47.0,77.0,-85.0,-25.0,-13.0,1.023521185,-0.857124209,10.23880386,-0.060220521,0.000799387,-0.007327718,-22.0,41.0,80.0,6.0,-9.0,-0.120907187,2.422932148,10.24239445,0.052626338,-0.027712099,0.037837673,20.0,37.0,-23.0,-32.0,50.0
1693678311804264700,-2.0,-7.0,-33.0,-20.0,-92.0,-2.0,-1.0,0.0,1.023521185,-0.857124209,10.23880386,-0.060220521,0.000799387,-0.007327718,-22.0,41.0,80.0,6.0,-9.0,-0.120907187,2.422932148,10.24239445,0.052626338,-0.027712099,0.037837673,20.0,37.0,-23.0,-32.0,50.0
1693678311805265000,4.0,12.0,24.0,32.0,5.0,110.0,14.0,4.0,1.023521185,-0.857124209,10.23880386,-0.060220521,0.000799387,-0.007327718,-22.0,41.0,80.0,6.0,-9.0,-0.120907187,2.422932148,10.24239445,0.052626338,-0.027712099,0.037837673,20.0,37.0,-23.0,-32.0,50.0
1693678311811260500,-3.0,-1.0,8.0,24.0,106.0,-98.0,-3.0,-2.0,1.023521185,-0.857124209,10.23880386,-0.060220521,0.000799387,-0.007327718,-22.0,41.0,80.0,6.0,-9.0,-0.120907187,2.422932148,10.24239445,0.052626338,-0.027712099,0.037837673,20.0,37.0,-23.0,-32.0,50.0
1693678311817258500,1.0,6.0,13.0,2.0,5.0,39.0,6.0,2.0,1.023521185,-0.857124209,10.23880386,-0.060220521,0.000799387,-0.007327718,-22.0,41.0,80.0,6.0,-9.0,-0.120907187,2.422932148,10.24239445,0.052626338,-0.027712099,0.037837673,20.0,37.0,-23.0,-32.0,50.0
1693678311819258000,-7.0,-10.0,-25.0,-52.0,-72.0,-77.0,-23.0,-8.0,1.023521185,-0.857124209,10.23880386,-0.060220521,0.000799387,-0.007327718,-22.0,41.0,80.0,6.0,-9.0,-0.120907187,2.422932148,10.24239445,0.052626338,-0.027712099,0.037837673,20.0,37.0,-23.0,-32.0,50.0
1693678311820255700,0.0,-5.0,-9.0,-37.0,-10.0,-41.0,-4.0,-3.0,1.023521185,-0.857124209,10.23880386,-0.060220521,0.000799387,-0.007327718,-22.0,41.0,80.0,6.0,-9.0,-0.120907187,2.422932148,10.24239445,0.052626338,-0.027712099,0.037837673,20.0,37.0,-23.0,-32.0,50.0
1693678311833250800,1.0,0.0,-12.0,12.0,15.0,107.0,9.0,-3.0,1.023521185,-0.857124209,10.23880386,-0.060220521,0.000799387,-0.007327718,-22.0,41.0,80.0,6.0,-9.0,-0.120907187,2.422932148,10.24239445,0.052626338,-0.027712099,0.037837673,20.0,37.0,-23.0,-32.0,50.0
1693678311835248300,0.0,-1.0,12.0,-48.0,-68.0,-34.0,-16.0,-10.0,1.023521185,-0.857124209,10.23880386,-0.060220521,0.000799387,-0.007327718,-22.0,41.0,80.0,6.0,-9.0,-0.120907187,2.422932148,10.24239445,0.052626338,-0.027712099,0.037837673,20.0,37.0,-23.0,-32.0,50.0
1693678311842243900,0.0,5.0,-6.0,8.0,-50.0,-22.0,8.0,24.0,1.023521185,-0.857124209,10.23880386,-0.060220521,0.000799387,-0.007327718,-22.0,41.0,80.0,6.0,-9.0,-0.120907187,2.422932148,10.24239445,0.052626338,-0.027712099,0.037837673,20.0,37.0,-23.0,-32.0,50.0
1693678311843243300,7.0,11.0,21.0,15.0,-4.0,103.0,26.0,4.0,1.023521185,-0.857124209,10.23880386,-0.060220521,0.000799387,-0.007327718,-22.0,41.0,80.0,6.0,-9.0,-0.120907187,2.422932148,10.24239445,0.052626338,-0.027712099,0.037837673,20.0,37.0,-23.0,-32.0,50.0
1693678311849237000,7.0,11.0,21.0,15.0,-4.0,103.0,26.0,4.0,1.009155989,-0.85473001,10.22084713,-0.060220521,0.00106585,-0.007460949,-27.0,43.0,90.0,11.0,-9.0,-0.117315881,2.419340849,10.23281765,0.05249311,-0.026513018,0.037837673,20.0,39.0,-18.0,-19.0,49.0
1693678311850237000,7.0,11.0,21.0,15.0,-4.0,103.0,26.0,4.0,1.010353088,-0.85592711,10.22324085,-0.060220521,0.000932619,-0.007594181,-28.0,42.0,83.0,8.0,-12.0,-0.114921682,2.41574955,10.23401546,0.052759573,-0.026779478,0.037704438,13.0,34.0,-25.0,-22.0,49.0
1693678311851237000,7.0,11.0,21.0,15.0,-4.0,103.0,26.0,4.0,1.009155989,-0.859518409,10.22563553,-0.060353752,0.000799387,-0.007460949,-28.0,37.0,87.0,8.0,-9.0,-0.116118781,2.410961151,10.23162079,0.052626338,-0.027045943,0.037704438,18.0,35.0,-20.0,-29.0,50.0
1693678311852237000,7.0,11.0,21.0,15.0,-4.0,103.0,26.0,4.0,1.010353088,-0.859518409,10.23521233,-0.060353752,0.000799387,-0.007460949,-23.0,37.0,84.0,7.0,-11.0,-0.112527482,2.41574955,10.22922707,0.052759573,-0.027445635,0.037970904,20.0,37.0,-23.0,-28.0,50.0
1693678311853237000,7.0,11.0,21.0,15.0,-4.0,103.0,26.0,4.0,1.010353088,-0.857124209,10.23880386,-0.060486984,0.000799387,-0.007327718,-19.0,43.0,83.0,11.0,-15.0,-0.111330383,2.421735048,10.22922707,0.053026035,-0.027845331,0.037970904,20.0,35.0,-24.0,-22.0,53.0
1693678311856236300,-15.0,-24.0,-43.0,2.0,40.0,-47.0,-30.0,-12.0,1.010353088,-0.857124209,10.23880386,-0.060486984,0.000799387,-0.007327718,-19.0,43.0,83.0,11.0,-15.0,-0.111330383,2.421735048,10.22922707,0.053026035,-0.027845331,0.037970904,20.0,35.0,-24.0,-22.0,53.0
1693678311859234100,-1.0,-6.0,-6.0,-12.0,-44.0,-14.0,3.0,0.0,1.010353088,-0.857124209,10.23880386,-0.060486984,0.000799387,-0.007327718,-19.0,43.0,83.0,11.0,-15.0,-0.111330383,2.421735048,10.22922707,0.053026035,-0.027845331,0.037970904,20.0,35.0,-24.0,-22.0,53.0
1693678311860232600,1.0,-2.0,-4.0,0.0,30.0,55.0,-1.0,-10.0,1.010353088,-0.857124209,10.23880386,-0.060486984,0.000799387,-0.007327718,-19.0,43.0,83.0,11.0,-15.0,-0.111330383,2.421735048,10.22922707,0.053026035,-0.027845331,0.037970904,20.0,35.0,-24.0,-22.0,53.0
1693678311862233800,8.0,8.0,12.0,40.0,26.0,-11.0,7.0,3.0,1.010353088,-0.857124209,10.23880386,-0.060486984,0.000799387,-0.007327718,-19.0,43.0,83.0,11.0,-15.0,-0.111330383,2.421735048,10.22922707,0.053026035,-0.027845331,0.037970904,20.0,35.0,-24.0,-22.0,53.0
1693678311878222400,1.0,-2.0,7.0,-26.0,-74.0,5.0,24.0,37.0,1.010353088,-0.857124209,10.23880386,-0.060486984,0.000799387,-0.007327718,-19.0,43.0,83.0,11.0,-15.0,-0.111330383,2.421735048,10.22922707,0.053026035,-0.027845331,0.037970904,20.0,35.0,-24.0,-22.0,53.0
1693678311884220200,-7.0,-4.0,8.0,14.0,41.0,15.0,7.0,20.0,1.010353088,-0.857124209,10.23880386,-0.060486984,0.000799387,-0.007327718,-19.0,43.0,83.0,11.0,-15.0,-0.111330383,2.421735048,10.22922707,0.053026035,-0.027845331,0.037970904,20.0,35.0,-24.0,-22.0,53.0
1693678311894215200,-8.0,-5.0,-7.0,11.0,-54.0,-5.0,-30.0,-35.0,1.010353088,-0.857124209,10.23880386,-0.060486984,0.000799387,-0.007327718,-19.0,43.0,83.0,11.0,-15.0,-0.111330383,2.421735048,10.22922707,0.053026035,-0.027845331,0.037970904,20.0,35.0,-24.0,-22.0,53.0
1693678311899216700,-78.0,-10.0,-6.0,17.0,35.0,-7.0,-13.0,-50.0,1.010353088,-0.857124209,10.23880386,-0.060486984,0.000799387,-0.007327718,-19.0,43.0,83.0,11.0,-15.0,-0.111330383,2.421735048,10.22922707,0.053026035,-0.027845331,0.037970904,20.0,35.0,-24.0,-22.0,53.0
1693678311918199600,-79.0,28.0,17.0,3.0,3.0,1.0,3.0,-73.0,1.010353088,-0.857124209,10.23880386,-0.060486984,0.000799387,-0.007327718,-19.0,43.0,83.0,11.0,-15.0,-0.111330383,2.421735048,10.22922707,0.053026035,-0.027845331,0.037970904,20.0,35.0,-24.0,-22.0,53.0
1693678311920199500,93.0,61.0,11.0,8.0,24.0,10.0,22.0,96.0,1.010353088,-0.857124209,10.23880386,-0.060486984,0.000799387,-0.007327718,-19.0,43.0,83.0,11.0,-15.0,-0.111330383,2.421735048,10.22922707,0.053026035,-0.027845331,0.037970904,20.0,35.0,-24.0,-22.0,53.0
1693678311922199100,-1.0,0.0,-15.0,-17.0,2.0,18.0,-47.0,-67.0,1.010353088,-0.857124209,10.23880386,-0.060486984,0.000799387,-0.007327718,-19.0,43.0,83.0,11.0,-15.0,-0.111330383,2.421735048,10.22922707,0.053026035,-0.027845331,0.037970904,20.0,35.0,-24.0,-22.0,53.0
1693678311923197800,-52.0,-44.0,-6.0,11.0,11.0,1.0,48.0,123.0,1.010353088,-0.857124209,10.23880386,-0.060486984,0.000799387,-0.007327718,-19.0,43.0,83.0,11.0,-15.0,-0.111330383,2.421735048,10.22922707,0.053026035,-0.027845331,0.037970904,20.0,35.0,-24.0,-22.0,53.0
1693678311925195900,6.0,83.0,14.0,-12.0,-31.0,-5.0,57.0,-27.0,1.010353088,-0.857124209,10.23880386,-0.060486984,0.000799387,-0.007327718,-19.0,43.0,83.0,11.0,-15.0,-0.111330383,2.421735048,10.22922707,0.053026035,-0.027845331,0.037970904,20.0,35.0,-24.0,-22.0,53.0
1693678311927194400,47.0,-101.0,8.0,1.0,-5.0,14.0,-15.0,27.0,1.010353088,-0.857124209,10.23880386,-0.060486984,0.000799387,-0.007327718,-19.0,43.0,83.0,11.0,-15.0,-0.111330383,2.421735048,10.22922707,0.053026035,-0.027845331,0.037970904,20.0,35.0,-24.0,-22.0,53.0
1693678311943185600,68.0,103.0,-16.0,-9.0,2.0,-33.0,-35.0,-97.0,1.010353088,-0.857124209,10.23880386,-0.060486984,0.000799387,-0.007327718,-19.0,43.0,83.0,11.0,-15.0,-0.111330383,2.421735048,10.22922707,0.053026035,-0.027845331,0.037970904,20.0,35.0,-24.0,-22.0,53.0
1693678311944184800,28.0,58.0,5.0,12.0,13.0,-21.0,13.0,43.0,1.010353088,-0.857124209,10.23880386,-0.060486984,0.000799387,-0.007327718,-19.0,43.0,83.0,11.0,-15.0,-0.111330383,2.421735048,10.22922707,0.053026035,-0.027845331,0.037970904,20.0,35.0,-24.0,-22.0,53.0
1693678311948184000,-87.0,-65.0,-4.0,-21.0,-20.0,-22.0,-65.0,-40.0,1.010353088,-0.857124209,10.23880386,-0.060486984,0.000799387,-0.007327718,-19.0,43.0,83.0,11.0,-15.0,-0.111330383,2.421735048,10.22922707,0.053026035,-0.027845331,0.037970904,20.0,35.0,-24.0,-22.0,53.0
1693678311950181500,112.0,48.0,-17.0,-22.0,-13.0,-53.0,-10.0,-24.0,1.010353088,-0.857124209,10.23880386,-0.060486984,0.000799387,-0.007327718,-19.0,43.0,83.0,11.0,-15.0,-0.111330383,2.421735048,10.22922707,0.053026035,-0.027845331,0.037970904,20.0,35.0,-24.0,-22.0,53.0
1693678311952179700,112.0,48.0,-17.0,-22.0,-13.0,-53.0,-10.0,-24.0,1.015141487,-0.858321309,10.22683239,-0.060620211,0.000666156,-0.007061256,-24.0,37.0,88.0,12.0,-9.0,-0.112527482,2.418143749,10.22802925,0.05249311,-0.027712099,0.037970904,21.0,33.0,-25.0,-24.0,48.0
1693678311952180800,-85.0,-71.0,-11.0,0.0,24.0,-14.0,25.0,17.0,1.015141487,-0.858321309,10.22683239,-0.060620211,0.000666156,-0.007061256,-24.0,37.0,88.0,12.0,-9.0,-0.112527482,2.418143749,10.22802925,0.05249311,-0.027712099,0.037970904,21.0,33.0,-25.0,-24.0,48.0
1693678311953179700,-85.0,-71.0,-11.0,0.0,24.0,-14.0,25.0,17.0,1.017535686,-0.857124209,10.22922707,-0.060486984,0.000666156,-0.007061256,-30.0,38.0,77.0,10.0,-9.0,-0.111330383,2.419340849,10.22683239,0.052359879,-0.027578866,0.037970904,15.0,36.0,-31.0,-22.0,52.0
1693678311954179700,-85.0,-71.0,-11.0,0.0,24.0,-14.0,25.0,17.0,1.018732786,-0.85592711,10.22443867,-0.060486984,0.000799387,-0.007194487,-33.0,45.0,85.0,7.0,-13.0,-0.113724582,2.419340849,10.23042393,0.052359879,-0.027312404,0.037970904,19.0,39.0,-29.0,-23.0,45.0
1693678311954180000,120.0,79.0,33.0,39.0,29.0,54.0,50.0,79.0,1.018732786,-0.85592711,10.22443867,-0.060486984,0.000799387,-0.007194487,-33.0,45.0,85.0,7.0,-13.0,-0.113724582,2.419340849,10.23042393,0.052359879,-0.027312404,0.037970904,19.0,39.0,-29.0,-23.0,45.0
1693678311955179700,120.0,79.0,33.0,39.0,29.0,54.0,50.0,79.0,1.016338587,-0.857124209,10.22443867,-0.060486984,0.000799387,-0.007061256,-28.0,43.0,87.0,6.0,-15.0,-0.114921682,2.421735048,10.23401546,0.052359879,-0.027179174,0.038104136,14.0,36.0,-27.0,-23.0,54.0
1693678311956179700,-81.0,-62.0,-28.0,-34.0,-23.0,-11.0,-33.0,-100.0,1.019929886,-0.863109708,10.22563553,-0.060220521,0.000666156,-0.007061256,-24.0,44.0,88.0,7.0,-8.0,-0.117315881,2.420537949,10.23880386,0.052359879,-0.027312404,0.037837673,20.0,41.0,-24.0,-23.0,53.0
1693678311958177300,47.0,7.0,9.0,4.0,20.0,49.0,72.0,101.0,1.019929886,-0.863109708,10.22563553,-0.060220521,0.000666156,-0.007061256,-24.0,44.0,88.0,7.0,-8.0,-0.117315881,2.420537949,10.23880386,0.052359879,-0.027312404,0.037837673,20.0,41.0,-24.0,-23.0,53.0
1693678311959176500,-127.0,-70.0,-3.0,31.0,95.0,-34.0,-43.0,-9.0,1.019929886,-0.863109708,10.22563553,-0.060220521,0.000666156,-0.007061256,-24.0,44.0,88.0,7.0,-8.0,-0.117315881,2.420537949,10.23880386,0.052359879,-0.027312404,0.037837673,20.0,41.0,-24.0,-23.0,53.0
1693678311960175900,-70.0,-25.0,-27.0,-64.0,-85.0,-47.0,37.0,44.0,1.019929886,-0.863109708,10.22563553,-0.060220521,0.000666156,-0.007061256,-24.0,44.0,88.0,7.0,-8.0,-0.117315881,2.420537949,10.23880386,0.052359879,-0.027312404,0.037837673,20.0,41.0,-24.0,-23.0,53.0
1693678311969170900,108.0,36.0,16.0,-7.0,55.0,19.0,22.0,116.0,1.019929886,-0.863109708,10.22563553,-0.060220521,0.000666156,-0.007061256,-24.0,44.0,88.0,7.0,-8.0,-0.117315881,2.420537949,10.23880386,0.052359879,-0.027312404,0.037837673,20.0,41.0,-24.0,-23.0,53.0
1693678311971170900,-128.0,-18.0,-8.0,7.0,78.0,25.0,-40.0,-115.0,1.019929886,-0.863109708,10.22563553,-0.060220521,0.000666156,-0.007061256,-24.0,44.0,88.0,7.0,-8.0,-0.117315881,2.420537949,10.23880386,0.052359879,-0.027312404,0.037837673,20.0,41.0,-24.0,-23.0,53.0
1693678311972170700,-38.0,-3.0,9.0,19.0,115.0,-22.0,43.0,0.0,1.019929886,-0.863109708,10.22563553,-0.060220521,0.000666156,-0.007061256,-24.0,44.0,88.0,7.0,-8.0,-0.117315881,2.420537949,10.23880386,0.052359879,-0.027312404,0.037837673,20.0,41.0,-24.0,-23.0,53.0
1693678311974167700,-22.0,-19.0,-10.0,27.0,103.0,27.0,-60.0,-89.0,1.019929886,-0.863109708,10.22563553,-0.060220521,0.000666156,-0.007061256,-24.0,44.0,88.0,7.0,-8.0,-0.117315881,2.420537949,10.23880386,0.052359879,-0.027312404,0.037837673,20.0,41.0,-24.0,-23.0,53.0
1693678311992157600,44.0,-5.0,-4.0,0.0,4.0,-9.0,2.0,33.0,1.019929886,-0.863109708,10.22563553,-0.060220521,0.000666156,-0.007061256,-24.0,44.0,88.0,7.0,-8.0,-0.117315881,2.420537949,10.23880386,0.052359879,-0.027312404,0.037837673,20.0,41.0,-24.0,-23.0,53.0
1693678311994158000,-26.0,0.0,-5.0,-8.0,8.0,10.0,4.0,-29.0,1.019929886,-0.863109708,10.22563553,-0.060220521,0.000666156,-0.007061256,-24.0,44.0,88.0,7.0,-8.0,-0.117315881,2.420537949,10.23880386,0.052359879,-0.027312404,0.037837673,20.0,41.0,-24.0,-23.0,53.0
1693678311995157600,64.0,28.0,9.0,4.0,-23.0,22.0,40.0,33.0,1.019929886,-0.863109708,10.22563553,-0.060220521,0.000666156,-0.007061256,-24.0,44.0,88.0,7.0,-8.0,-0.117315881,2.420537949,10.23880386,0.052359879,-0.027312404,0.037837673,20.0,41.0,-24.0,-23.0,53.0
1693678311999154700,0.0,-5.0,10.0,15.0,36.0,-11.0,-42.0,-36.0,1.019929886,-0.863109708,10.22563553,-0.060220521,0.000666156,-0.007061256,-24.0,44.0,88.0,7.0,-8.0,-0.117315881,2.420537949,10.23880386,0.052359879,-0.027312404,0.037837673,20.0,41.0,-24.0,-23.0,53.0
1693678312005150300,20.0,-28.0,-13.0,-31.0,-81.0,-29.0,-6.0,7.0,1.019929886,-0.863109708,10.22563553,-0.060220521,0.000666156,-0.007061256,-24.0,44.0,88.0,7.0,-8.0,-0.117315881,2.420537949,10.23880386,0.052359879,-0.027312404,0.037837673,20.0,41.0,-24.0,-23.0,53.0
1693678312006149900,-29.0,17.0,9.0,18.0,24.0,15.0,10.0,-32.0,1.019929886,-0.863109708,10.22563553,-0.060220521,0.000666156,-0.007061256,-24.0,44.0,88.0,7.0,-8.0,-0.117315881,2.420537949,10.23880386,0.052359879,-0.027312404,0.037837673,20.0,41.0,-24.0,-23.0,53.0
1693678312018143800,11.0,8.0,0.0,-7.0,-49.0,0.0,16.0,40.0,1.019929886,-0.863109708,10.22563553,-0.060220521,0.000666156,-0.007061256,-24.0,44.0,88.0,7.0,-8.0,-0.117315881,2.420537949,10.23880386,0.052359879,-0.027312404,0.037837673,20.0,41.0,-24.0,-23.0,53.0
1693678312020144600,6.0,-23.0,-1.0,3.0,-4.0,-11.0,-19.0,-19.0,1.019929886,-0.863109708,10.22563553,-0.060220521,0.000666156,-0.007061256,-24.0,44.0,88.0,7.0,-8.0,-0.117315881,2.420537949,10.23880386,0.052359879,-0.027312404,0.037837673,20.0,41.0,-24.0,-23.0,53.0
1693678312028137200,-9.0,-2.0,-5.0,-2.0,-8.0,-9.0,1.0,-10.0,1.019929886,-0.863109708,10.22563553,-0.060220521,0.000666156,-0.007061256,-24.0,44.0,88.0,7.0,-8.0,-0.117315881,2.420537949,10.23880386,0.052359879,-0.027312404,0.037837673,20.0,41.0,-24.0,-23.0,53.0
1693678312031136300,-19.0,5.0,-7.0,-15.0,-23.0,3.0,-2.0,-3.0,1.019929886,-0.863109708,10.22563553,-0.060220521,0.000666156,-0.007061256,-24.0,44.0,88.0,7.0,-8.0,-0.117315881,2.420537949,10.23880386,0.052359879,-0.027312404,0.037837673,20.0,41.0,-24.0,-23.0,53.0
1693678312038131100,18.0,-16.0,-3.0,-8.0,0.0,1.0,-13.0,31.0,1.019929886,-0.863109708,10.22563553,-0.060220521,0.000666156,-0.007061256,-24.0,44.0,88.0,7.0,-8.0,-0.117315881,2.420537949,10.23880386,0.052359879,-0.027312404,0.037837673,20.0,41.0,-24.0,-23.0,53.0
1693678312040131000,6.0,-1.0,-4.0,-10.0,-77.0,-23.0,-7.0,-29.0,1.019929886,-0.863109708,10.22563553,-0.060220521,0.000666156,-0.007061256,-24.0,44.0,88.0,7.0,-8.0,-0.117315881,2.420537949,10.23880386,0.052359879,-0.027312404,0.037837673,20.0,41.0,-24.0,-23.0,53.0
