timestamp,EMG_s0,EMG_s1,EMG_s2,EMG_s3,EMG_s4,EMG_s5,EMG_s6,EMG_s7
1693678206499767000,-2,1,14,1,-6,-5,-17,-5
1693678206501766500,2,4,2,-5,-1,-1,3,-1
1693678206502766800,2,-6,-9,6,4,12,-6,0
1693678206504765300,0,4,16,1,-3,-22,8,1
1693678206505764200,-2,-6,-19,-8,0,2,-3,0
1693678206507763500,-8,-17,-62,-10,3,-4,-1,-3
1693678206508763000,-1,10,53,-19,-14,-4,-4,-3
1693678206509762200,6,4,31,40,-2,-1,-1,3
1693678206510761700,-2,-4,-12,9,4,3,8,1
1693678206512759600,0,-6,-9,-1,-16,-8,-10,-2
1693678206513759300,-6,-7,-54,-53,11,4,-5,-2
1693678206515758400,1,-1,-11,34,7,-10,-7,-1
1693678206525753100,1,8,67,16,-19,-1,-1,-3
1693678206527752000,-1,0,-28,-38,6,-6,5,1
1693678206537745500,-2,-9,-15,9,9,25,-1,7
1693678206538745800,-2,0,15,-49,-8,51,-2,-10
1693678206541743400,-8,-10,-84,-81,46,-47,-2,-1
1693678206542744600,5,-7,5,39,-14,0,12,3
1693678206564731600,-5,15,34,61,7,16,7,0
1693678206565729700,2,-10,-28,59,-29,-5,4,5
1693678206566729100,-3,-7,14,44,32,-77,-18,-7
1693678206567728500,8,16,62,23,-5,74,9,6
1693678206610704200,21,40,110,111,12,58,5,8
1693678206612703200,-6,-12,-50,-6,92,21,9,-9
1693678206613702500,-7,-5,22,-5,-9,-9,-20,-10
1693678206614701800,-7,-17,-50,-20,-32,-35,-16,-6
1693678206615700900,6,19,20,44,87,-50,6,2
1693678206617700500,2,20,20,65,20,62,-3,0
1693678206618699000,-8,-20,-94,80,69,-43,-1,-3
1693678206619698500,-9,-30,-75,-113,-69,12,11,1
1693678206623696000,-8,41,72,-25,14,-31,-10,-7
1693678206624699000,-16,-48,-112,-73,-103,-61,-14,-10
1693678206632691100,32,71,82,63,-16,10,32,18
1693678206633691800,11,8,-56,42,-33,39,13,2
1693678206638688000,-31,-93,-128,-128,3,-7,-21,-13
1693678206639688200,25,55,85,54,-12,-86,-5,15
1693678206665672100,-1,15,47,45,-87,14,-7,0
1693678206666671200,1,18,45,35,114,-2,24,1
1693678206667670700,-6,-29,-112,-49,-76,-55,-3,-8
1693678206668670900,-4,-10,-12,114,1,28,-17,1
1693678206685660400,-2,-25,-70,-79,96,44,7,-3
1693678206687659500,2,25,96,50,8,-4,7,-2
1693678206688677800,15,36,37,127,50,13,34,5
1693678206689680500,-10,-27,-81,-108,-12,44,-25,-11
1693678206698652700,-29,-46,-128,-128,14,-2,-17,-23
1693678206699656600,8,27,92,16,-34,-60,-55,7
1693678206705651900,0,7,-14,-86,-66,42,5,-1
1693678206707659600,12,27,109,-23,-59,-33,30,9
1693678206738630900,3,-4,21,-45,16,-40,1,3
1693678206739630400,-1,-26,-86,-60,33,0,4,-9
1693678206741651300,-11,-9,13,-23,-48,34,6,6
1693678206742650400,4,31,76,88,30,-64,-14,3
1693678206744628600,-2,-14,-18,-52,-52,2,0,0
1693678206746626400,8,16,38,21,5,20,18,7
1693678206747627200,1,-3,-3,-21,8,-41,-24,-4
1693678206749628300,-6,-18,-50,-39,19,31,-11,-7
1693678206759622200,-2,0,14,51,31,52,1,2
1693678206761639500,-1,0,-10,20,-31,-32,-9,0
1693678206765616800,-5,-5,-14,1,21,59,18,-2
1693678206767614900,-3,-8,-27,-24,32,14,8,-7
1693678206781605500,5,13,43,38,-32,-2,14,10
1693678206783604300,-7,-13,-25,-25,11,20,-24,-4
1693678206784603900,-2,-3,-17,9,3,-16,-6,-1
1693678206785603200,-12,2,6,-7,-10,9,30,56
1693678206814589200,14,2,17,13,-13,-18,22,13
1693678206815587500,-10,-6,-31,1,13,13,-28,-72
1693678206816587300,-21,-11,-9,10,11,-15,-33,-13
1693678206817587500,16,-3,-3,-5,-7,3,2,-31
1693678206834577300,-57,7,-1,3,5,20,-45,-19
1693678206836576200,-17,-15,-24,-5,17,11,53,77
1693678206838573700,-8,-1,15,12,-10,1,8,14
1693678206839572600,41,-2,-13,-25,1,7,-6,40
1693678206841571200,45,-11,-10,2,-4,-14,-20,-49
1693678206842573500,-6,3,5,3,-3,1,3,23
1693678206848566600,-88,-13,0,5,-6,-8,-13,-67
1693678206849568300,-30,1,-12,-2,8,14,57,18
1693678206863560800,-34,1,3,11,4,-12,-43,-16
1693678206865559200,97,-6,-9,2,-11,-9,11,64
1693678206866558100,13,11,-3,-6,6,9,8,23
1693678206867558300,-100,-15,-3,-6,8,4,-19,-88
1693678206886545300,92,13,12,11,-5,11,22,24
1693678206888544700,-39,8,1,-1,8,13,8,-3
1693678206889543400,0,-1,-6,0,-1,-3,5,30
1693678206890544300,-36,-2,-3,-8,-8,-2,12,39
1693678206910531700,-19,-11,-3,1,-4,-8,-36,-61
1693678206912532400,56,7,0,11,12,13,11,10
1693678206913531700,60,13,5,7,-1,-9,20,6
1693678206914530500,58,2,2,0,1,3,-9,44
1693678206924524700,-75,-14,-2,-6,-4,-12,-18,15
1693678206925545500,-9,-10,-10,0,8,15,-7,-19
1693678206927525700,-12,0,-1,-4,-6,-5,-9,-56
1693678206928524200,48,5,3,3,3,12,19,-25
1693678206940517900,52,9,7,5,-4,1,18,35
1693678206941516200,-35,3,1,-1,-2,3,5,-53
1693678206945533400,-37,-4,-5,-5,-9,0,-22,41
1693678206947514700,-51,-11,-4,-14,-8,2,13,-83
1693678206962506900,67,23,5,1,-3,-28,50,115
1693678206965501200,-45,-4,-1,1,-5,-5,-5,-113
1693678206967503200,-37,-17,-7,-4,1,8,6,-85
1693678206968515900,9,10,-4,-4,3,10,-13,79
1693678206983489100,-9,12,7,12,9,34,62,-26
1693678206986491400,16,-1,1,1,5,-2,-10,45
1693678206999481300,-56,-18,-15,-13,-7,-19,-50,-68
1693678207001480200,-1,0,4,9,5,11,88,27
1693678207002479300,-45,-8,-3,-9,-5,17,0,32
1693678207004482600,-32,8,-3,0,-3,-20,11,63
1693678207014471400,63,17,-1,-5,-7,8,-48,74
1693678207015471400,1,8,1,1,3,-6,18,-88
1693678207021468000,-16,3,-3,-10,-11,-8,3,96
1693678207023469700,-60,8,14,20,16,17,11,-127
1693678207024468100,107,-13,-4,-6,-4,-5,46,122
1693678207025482500,-14,2,-4,10,10,1,-21,-76
1693678207044457300,9,-5,9,6,-7,-18,66,-69
1693678207045457300,-68,-18,-19,-18,-7,-11,-83,38
1693678207047453100,-13,1,19,20,14,0,25,31
1693678207048452400,45,7,-6,-11,-12,-9,-42,-19
1693678207059446800,-39,10,-5,6,7,0,2,-128
1693678207060446000,2,-30,-25,-19,-13,-9,-60,64
1693678207074438200,20,26,12,18,26,28,26,-36
1693678207076438500,-61,-17,0,-4,5,10,-17,1
1693678207089429600,20,0,4,8,2,-20,-23,21
1693678207091427900,27,-22,-14,9,28,35,21,-53
1693678207093427100,-41,26,20,-7,-29,-23,3,-27
1693678207094426100,48,-13,-16,-18,-9,-25,-30,-2
1693678207112416300,5,-22,-26,-18,-13,-13,-38,39
1693678207114415100,-59,-36,-7,27,59,59,68,-107
1693678207115414600,23,13,-3,-17,-24,-7,16,-18
1693678207116414100,18,30,15,3,5,19,61,8
1693678207119418200,-28,-29,-14,-6,-1,2,-36,57
1693678207120411800,8,-16,-16,-38,-42,-32,-27,33
1693678207125411000,69,4,13,21,5,-22,-7,-19
1693678207127606200,-6,-22,-11,3,7,18,-36,46
1693678207141597400,12,8,4,-1,11,21,-11,-27
1693678207142597100,19,30,19,17,2,25,42,68
1693678207143596200,12,-26,-17,3,32,6,14,-6
1693678207144595700,5,12,13,-2,-13,15,-13,-4
1693678207165583800,-16,-3,2,4,8,10,10,-18
1693678207167586700,-9,14,11,-12,-31,-36,-21,40
1693678207168584200,50,22,-9,-19,-16,-5,-10,114
1693678207169591600,-77,-22,-7,-1,15,12,-12,-9
1693678207186571300,15,1,-15,-11,-3,21,-36,-61
1693678207187573700,7,2,-3,-5,-9,13,21,-4
1693678207194575600,-28,-20,-25,-36,-37,-41,-15,-4
1693678207195566700,-19,8,12,11,4,-1,-13,4
1693678207201563600,26,12,12,14,19,8,7,52
1693678207203582000,0,-5,-7,-9,-12,-24,-8,-14
1693678207204561400,-38,-58,-43,-21,32,24,-6,-67
1693678207206562800,26,20,4,-13,-39,-21,2,29
1693678207240540500,-35,-19,-4,15,26,0,2,-33
1693678207242540300,35,21,15,0,-23,-23,0,16
1693678207244538500,-27,-18,-4,13,23,21,-1,-16
1693678207245537700,22,28,22,17,21,-12,-6,0
1693678207246538100,-23,15,17,17,19,15,7,12
1693678207248539100,38,-4,0,1,-18,-29,-14,-34
1693678207249538500,-19,8,11,22,19,38,9,0
1693678207251534300,3,7,5,-2,-2,-13,-10,-7
1693678207261528400,-10,-14,-5,-7,-18,-15,12,-10
1693678207263530200,-5,12,10,11,24,-5,3,2
1693678207265526500,-11,9,4,-22,-18,0,3,-3
1693678207267525700,8,-16,-14,15,-5,-14,-15,6
1693678207292514000,-4,1,7,8,14,0,-3,-13
1693678207293510800,18,41,25,21,-22,-1,11,10
1693678207295509800,-7,-16,-21,-13,-6,25,3,1
1693678207296508500,-6,-19,-12,15,43,-40,-19,-30
1693678207298507200,5,14,33,-17,-49,24,17,4
1693678207300508300,-16,-23,-32,-95,-18,-6,-10,-18
1693678207314498000,-1,17,45,120,24,-10,-4,-14
1693678207315497800,-12,-36,-46,-54,-27,3,-7,-3
1693678207330491700,4,19,10,23,-6,-16,1,-4
1693678207331489700,-2,-13,-9,-38,35,9,1,3
1693678207332488900,-1,7,-7,-21,-4,2,4,-2
1693678207333487800,-12,-23,-11,0,42,32,-10,-6
1693678207344481100,3,1,-5,22,-36,-20,-4,2
1693678207345483700,2,8,8,32,-9,6,-4,-9
1693678207346480500,1,16,19,20,30,-8,3,-1
1693678207347479600,0,2,-1,-10,-21,-7,2,-2
1693678207366470200,-7,-8,-16,-20,-30,-6,-3,-10
1693678207367467700,-2,-5,-12,-6,4,2,6,0
1693678207369472600,-4,2,13,-7,7,-5,-9,-7
1693678207369472600,17,24,23,23,-2,-6,7,10
1693678207385457600,-10,-9,-16,-38,3,-18,-2,-12
1693678207386458400,-2,-9,-4,16,9,-39,7,0
1693678207389458400,3,-2,-10,-7,-8,109,1,21
1693678207390455000,3,5,6,-21,-26,-56,-8,-11
1693678207405445800,-10,-12,-9,4,14,35,-4,8
1693678207407445400,-2,7,11,24,5,-38,-8,-27
1693678207408446000,-6,-2,-7,-21,-24,2,1,-13
1693678207409447800,5,0,7,7,-8,1,7,17
1693678207418440400,-5,-6,-8,-10,22,6,-1,-22
1693678207419438000,12,0,3,15,-10,2,0,3
1693678207425436400,-21,3,-4,-13,-4,-40,-2,5
1693678207427436300,4,-12,-6,-2,-7,7,-1,-8
1693678207442425300,1,7,4,0,3,-22,1,8
1693678207443426700,2,1,-7,-17,16,25,-2,-1
1693678207445430200,1,-3,7,15,-32,-25,-4,3
1693678207447422000,6,0,0,1,8,16,0,-12
1693678207465412200,2,4,9,4,-1,9,0,0
1693678207467414400,-5,2,-1,7,4,11,1,9
1693678207469410000,-1,-4,-10,-19,2,-19,-6,-21
1693678207473408100,-5,-1,6,8,0,10,1,2
1693678207491397100,-6,-6,-8,-9,8,-6,-2,-1
1693678207493396800,14,2,8,0,-10,3,1,-7
1693678207498394600,-36,4,1,-7,-9,-19,-5,5
1693678207500392100,2,2,-5,-6,-8,10,15,24
1693678207502391200,1,-7,-7,-1,7,-7,-7,17
1693678207504389900,5,4,5,11,-1,7,4,10
1693678207506388700,-3,-4,0,-3,-4,-6,-1,-26
1693678207508389200,14,3,-4,-1,5,1,-4,-3
1693678207524377800,-5,-1,2,-2,3,-5,-2,-7
1693678207526376900,-15,-1,1,6,-2,5,-1,-3
1693678207528376800,16,-8,-3,-6,-3,-10,0,2
1693678207529377200,-5,-1,0,-2,-1,-2,-4,-3
1693678207546160800,11,1,-3,0,-4,-2,7,2
1693678207548176500,-14,-6,5,2,-7,7,-7,-14
1693678207554486800,11,1,-5,-2,4,-4,-8,4
1693678207556483600,-12,-5,-5,-7,-3,8,-2,-4
1693678207569412200,13,11,8,7,2,-7,2,-9
1693678207571416600,-19,-4,0,2,3,2,-5,7
1693678207572415400,4,-10,-5,-8,-1,-3,3,4
1693678207573414300,-3,4,-2,1,-1,-13,-1,-11
1693678207592507000,-11,-5,-6,-10,-3,1,-1,6
1693678207593505100,7,6,11,10,4,16,5,21
1693678207595503600,12,3,-2,1,0,-3,3,-4
1693678207596503100,4,9,10,1,0,4,2,2
1693678207606512500,1,-2,-6,-3,5,23,-1,-1
1693678207608510700,11,-2,-9,-3,-9,-39,-13,-49
1693678207609509900,-14,4,11,2,-2,-40,-15,44
1693678207610508200,-11,-9,-7,-2,-2,6,-14,-33
1693678207629467100,-1,3,5,1,2,1,13,11
1693678207631493100,11,8,-4,-4,0,20,2,14
1693678207632492200,-8,-12,-4,-1,7,60,9,-15
1693678207632492200,-3,-1,-2,-3,-13,-47,-19,-3
1693678207644939800,3,2,1,0,-2,-30,-15,26
1693678207645939400,4,-6,-4,0,-5,-23,10,4
1693678207651590400,7,10,8,3,3,0,4,-18
1693678207653572200,-2,1,2,0,5,27,19,15
1693678207667283000,3,-4,1,4,2,16,17,-99
1693678207669290000,-20,-2,-2,0,3,4,25,106
1693678207674396300,8,1,-3,-7,-4,-12,-6,-65
1693678207676416700,-6,-5,-3,3,4,1,-52,-14
1693678207697132600,6,3,-1,-2,-3,-4,51,23
1693678207699130100,11,4,8,8,7,16,-43,-23
1693678207700152300,-30,-6,-2,-4,-2,17,17,10
1693678207701128100,21,0,-12,-12,-15,-45,-24,-5
1693678207703485900,-26,-12,0,-1,1,16,49,17
1693678207705509400,-36,-11,-14,-14,2,4,-32,-9
1693678207711569800,56,13,-16,7,11,1,42,25
1693678207713519500,23,9,58,46,-16,-18,-80,-38
1693678207730489700,-2,4,0,4,-6,-8,-5,-4
1693678207732491800,17,0,-4,-18,5,15,89,15
1693678207733487200,-10,1,-1,-3,1,-25,-61,-4
1693678207734486600,-59,-14,-17,3,2,11,-40,6
1693678207749477300,5,0,-1,-4,1,15,-28,1
1693678207750499700,43,-1,-3,-4,-12,-22,-35,-16
1693678207751498900,-3,14,-26,11,11,18,27,-21
1693678207752484300,-70,-41,-25,-56,-18,-2,100,-12
1693678207763469800,-10,9,37,18,-6,-19,-79,31
1693678207764471100,-42,-8,-2,8,8,8,-33,-46
1693678207771470500,82,15,11,5,-3,1,36,20
1693678207773467400,-92,-46,-99,-36,-23,-10,-28,-20
1693678207788456300,-29,-8,18,74,41,26,74,55
1693678207792454900,16,15,52,-16,-29,-3,-76,-38
1693678207794452800,52,-8,-54,-5,-6,2,-39,-1
1693678207796473300,-5,28,120,19,1,7,71,-15
1693678207808446600,41,-27,-45,-15,-21,-57,-92,52
1693678207810445500,-97,-6,-20,15,8,-5,21,-22
1693678207816440500,50,-5,6,9,-11,12,-13,19
1693678207818440500,-26,-8,-10,-4,-5,-35,-55,-19
1693678207823435600,80,13,-34,-36,14,32,96,-61
1693678207825437200,-84,-12,-7,16,2,19,-12,81
1693678207831431100,6,-16,-36,-77,-33,-41,-57,-62
1693678207833432200,79,50,79,96,70,75,76,27
1693678207848422000,20,-8,-21,-53,-29,-48,-36,-31
1693678207850419900,36,18,42,65,-8,33,8,-39
1693678207852418900,2,0,-22,25,19,7,44,19
1693678207853418500,-6,-18,-28,-56,-33,36,-6,17
1693678207869410600,-18,20,9,22,-2,-16,-11,-21
1693678207871412600,47,-10,-71,-89,21,30,64,-12
1693678207873407800,-84,-7,48,85,22,-21,38,25
1693678207875406300,-7,0,-30,-17,-49,-10,-71,2
1693678207883401100,-4,3,11,83,22,34,9,-13
1693678207884400700,127,-12,-63,-92,-15,17,17,-42
1693678207893397100,-104,7,102,35,-33,15,-70,87
1693678207898392500,55,-2,-101,-97,73,-55,33,10
1693678207906388100,-6,5,76,83,-32,16,-5,7
1693678207908386900,10,-15,-54,-28,21,-4,59,-17
1693678207909391000,29,-1,16,88,15,-75,-62,-66
1693678207910407600,16,5,-5,-68,-7,33,20,52
1693678207929374700,-10,1,-19,-86,31,1,-44,-11
1693678207930396500,-22,8,38,62,60,-24,0,22
1693678207931375000,-8,-18,-77,-80,-18,11,15,-22
1693678207932395100,16,24,81,105,18,34,51,17
1693678207952361100,-22,-29,-105,-69,49,-38,-21,-19
1693678207954361000,6,23,79,65,-65,-5,-6,1
1693678207956361800,-3,-5,-31,-85,44,-7,18,2
1693678207957358000,-15,34,80,124,37,23,-7,-30
1693678207966353000,-17,5,6,51,-61,49,88,24
1693678207968370500,-21,-29,-60,-77,17,-58,-52,-7
1693678207969374400,-27,-18,-3,-62,7,-16,-11,-1
1693678207972350200,73,23,-5,38,-38,10,50,-3
1693678207989340100,-51,-34,-103,36,27,26,-2,-21
1693678207991343500,10,23,28,78,61,33,104,37
1693678207999336000,-12,-1,-2,-72,-114,-23,-69,-7
1693678208003332900,-1,-47,-128,-50,60,-17,-63,0
1693678208011328100,27,11,0,-76,-59,-2,82,7
1693678208013328100,13,11,41,66,19,-8,28,-4
1693678208027319000,-8,-10,-39,-73,93,60,43,-8
1693678208029319000,23,11,62,38,-107,-52,-16,13
1693678208031318200,-29,-11,-53,-13,22,-23,-51,-19
1693678208032317100,0,14,43,-54,-52,-10,-28,12
1693678208034315300,27,5,-9,19,6,-10,7,6
1693678208035314200,-4,-15,-83,-59,90,40,21,-1
1693678208049306900,31,59,127,-10,-15,7,-65,-13
1693678208051305100,-27,-14,-36,-29,0,49,39,29
1693678208053303400,5,-3,-9,-15,-12,-65,-78,-7
1693678208055303900,5,-16,-52,-29,-18,21,108,3
1693678208072292100,3,-9,-89,-128,36,33,126,4
1693678208074292700,27,5,0,93,-18,-34,-119,0
1693678208075291300,-1,27,57,79,-11,-38,70,-8
1693678208076293100,-61,-61,-70,-80,25,-2,-57,-25
1693678208086284900,39,61,95,91,-30,-36,-16,16
1693678208088284500,-28,-15,-99,-124,21,70,-32,-15
1693678208089283300,25,-10,-84,51,7,75,91,28
1693678208091283100,26,26,73,4,-27,29,87,8
1693678208110271300,-35,-7,56,75,19,-63,-126,-35
1693678208111270800,19,-15,-74,-128,-32,-48,25,2
1693678208117268500,-27,12,61,52,12,60,38,-9
1693678208118267600,8,11,-12,5,59,42,31,28
1693678208132261800,18,-20,-49,24,-36,-22,61,6
1693678208133261500,-22,15,28,77,36,2,-13,-12
1693678208135260000,11,-3,1,14,-49,1,48,-22
1693678208136260100,-3,-5,16,3,-15,-66,-65,12
1693678208146254800,-24,-14,-5,-29,3,32,13,10
1693678208148255200,5,-14,-27,7,-17,-50,-27,-13
1693678208154250400,6,-3,-20,-31,34,11,-1,0
1693678208156248700,1,6,7,-8,1,63,40,1
1693678208171241200,7,-6,-18,-28,7,-62,-96,-9
1693678208173241200,-17,6,41,18,-12,6,31,0
1693678208175238500,-5,3,-4,-21,6,20,28,5
1693678208176237900,-2,9,22,9,-25,-44,-60,-16
1693678208200223900,3,-6,-5,4,-8,18,-67,-2
1693678208201226500,-9,0,17,21,16,25,87,9
1693678208203221500,1,1,5,-7,-12,-23,84,8
1693678208205220800,3,-2,-16,-4,-20,-39,-80,-12
1693678208207223500,-6,-11,-13,-16,17,29,28,4
1693678208208218700,6,0,-3,-7,-1,-16,-27,-7
1693678208209218100,31,13,-4,-9,14,27,18,19
1693678208210217600,-39,-4,7,-1,-11,-17,19,-9
1693678208230949600,-9,-7,-9,-13,3,7,-16,10
1693678208232949000,7,8,21,10,-8,-1,14,-2
1693678208234947300,-10,-6,1,2,-8,-20,-51,-18
1693678208238945800,11,5,1,4,3,22,1,9
1693678208252937000,21,6,1,-3,-1,-21,12,-1
1693678208255936300,-26,-17,-12,1,-7,-10,7,16
1693678208257935600,-20,-5,-6,-12,4,-6,-74,7
1693678208259933400,15,0,-7,-5,-9,-19,1,-15
1693678208266928500,-3,-2,-1,-9,3,21,23,2
1693678208268928100,-2,1,2,4,-7,-6,1,-7
1693678208269927200,-76,2,3,-7,3,5,-36,-10
1693678208271927800,33,5,6,6,-1,-6,-11,23
1693678208288915600,48,10,0,2,-4,8,8,-8
1693678208290915900,-9,-2,-1,0,-3,-2,-29,0
1693678208291915000,-11,-10,-8,-12,-5,-11,-3,-4
1693678208292915000,-83,-10,-2,6,-3,-9,4,-25
1693678208311903500,44,-3,-1,0,9,13,-3,80
1693678208313901700,40,10,0,-1,-2,-17,34,-28
1693678208314901700,14,-4,-2,-1,1,-8,-19,-13
1693678208315901400,18,9,4,-5,3,22,5,-1
1693678208326895700,-28,-14,-11,-7,-1,-3,5,-39
1693678208327895600,-37,-6,-4,1,-2,4,12,23
1693678208328893400,9,1,4,1,-1,1,-47,-20
1693678208329893200,0,-7,2,2,-3,-10,3,-11
1693678208352880000,39,-1,-6,-7,-5,-9,-24,-42
1693678208357876400,-2,-4,-9,-1,-3,10,-4,61
1693678208358877400,-26,2,4,-6,-4,-11,18,20
1693678208360876200,-72,4,-5,-3,-3,6,-1,6
1693678208372868500,-54,-9,-2,0,5,11,12,0
1693678208374867900,11,16,7,4,-1,0,-31,5
1693678208375867000,-4,-15,-6,4,4,-4,-4,-22
1693678208377865300,69,9,1,-2,-4,-13,28,67
1693678208387860200,20,9,6,5,2,7,-11,4
1693678208388860400,-3,-10,0,3,6,5,-5,-123
1693678208389859500,34,7,4,-4,-2,11,-19,122
1693678208390858700,74,-10,-8,-2,-7,-30,14,-32
1693678208408848500,8,11,3,1,3,9,14,-60
1693678208411846100,-24,-10,-6,-2,0,-12,-3,127
1693678208412845200,-11,-8,-6,-3,-6,-23,8,-84
1693678208413844100,-6,-2,1,2,-3,6,9,17
1693678208431834300,3,1,-1,-3,-4,4,-15,54
1693678208433832600,61,6,0,-3,-7,-17,-66,-11
1693678208434832700,15,11,-2,1,0,15,15,80
1693678208435832000,-97,-25,-1,0,-2,-25,-2,-98
1693678208446829700,10,8,1,4,3,13,35,110
1693678208447825400,-44,-7,4,2,2,12,1,-78
1693678208449824600,42,5,3,3,4,3,24,-46
1693678208450823800,52,13,4,-3,-3,-3,-15,88
1693678208470812800,40,-21,-5,-1,-1,-7,12,-4
1693678208471813400,-11,26,9,6,7,17,56,-74
1693678208472811600,-109,-7,1,-1,-1,-8,17,-128
1693678208473816500,35,0,-4,0,1,-9,-27,82
1693678208499795300,-83,22,6,0,0,-12,19,-24
1693678208501794500,102,-8,-13,-22,-21,-18,-18,35
1693678208502793700,3,-5,0,6,-2,-19,-11,14
1693678208504792900,-28,5,7,5,11,59,10,-66
1693678208514786100,-12,-11,-11,-4,-7,-3,-58,-40
1693678208516787600,-34,12,10,4,-2,-10,6,63
1693678208517785500,37,-2,-7,-2,-1,12,-38,110
1693678208518785600,37,-7,-5,-5,-2,-22,-29,-57
1693678208528779400,-73,8,6,10,9,25,18,55
1693678208530777800,-19,-32,-17,-7,-4,2,19,-2
1693678208531777000,-10,8,2,-5,-13,-17,4,37
1693678208532776800,2,12,1,-3,-2,3,30,82
1693678208551765500,-35,-18,-2,2,3,-13,17,-55
1693678208552765300,-27,0,-1,-8,-7,-5,-20,-45
1693678208555763900,-37,-16,-9,-2,2,20,29,64
1693678208558762400,-3,10,12,14,12,0,3,-60
1693678208575751800,-53,-4,7,4,6,18,6,-19
1693678208578750600,59,12,2,11,10,-14,-18,69
1693678208585746500,-59,-10,-4,-9,-4,-2,-27,51
1693678208587745200,13,8,-5,-6,-1,16,24,-10
1693678208589744600,31,-8,-6,-14,-17,-24,5,-75
1693678208591743800,-25,1,9,15,15,11,-7,0
1693678208596739900,19,17,11,-3,-3,4,-1,-13
1693678208598738400,-10,-4,-14,-12,-16,-22,-27,-41
1693678208612730900,17,-2,2,7,7,5,25,-23
1693678208613731200,-105,-6,-3,-5,5,16,26,62
1693678208615730800,63,-12,-9,5,10,20,-31,-88
1693678208617728100,-55,-9,-2,1,7,40,0,-18
1693678208625722400,53,17,7,6,11,19,6,43
1693678208627722600,11,1,-1,-16,-18,-38,-40,-65
1693678208641714100,-42,-7,-1,-1,-1,26,38,47
1693678208643713700,-2,-4,7,9,12,-4,-15,8
1693678208649709400,1,-9,-11,-7,-3,4,-3,-8
1693678208651709800,33,-3,-1,1,-6,7,-36,69
1693678208653706900,10,6,-3,-3,7,23,20,-84
1693678208654706600,-20,-5,-3,-2,-1,-43,-3,-82
1693678208679691200,-97,-10,7,9,5,-4,-2,56
1693678208681691900,39,2,0,-5,-1,13,3,26
1693678208682691500,36,5,-6,-18,-21,-38,22,18
1693678208683690500,-46,-11,-8,-5,-4,54,44,-65
1693678208685689800,-5,-10,-3,1,-1,-17,-4,82
1693678208687689700,-1,9,5,4,0,5,6,-28
1693678208701679300,7,17,6,8,12,18,-6,3
1693678208702679200,11,-5,9,11,4,-14,-12,32
1693678208708676300,-8,-14,-12,-11,-16,-12,-11,-34
1693678208710675100,-2,-6,0,11,11,22,17,-48
1693678208711674400,44,9,6,1,-2,-11,-13,20
1693678208712676400,15,2,0,-7,-18,-13,-23,5
1693678208731662900,-23,-5,0,2,6,15,13,83
1693678208733683900,-20,-9,0,3,13,39,16,-40
1693678208735660200,-10,-13,-6,-8,-21,-57,-8,-16
1693678208736659400,24,11,4,7,15,30,10,66
1693678208754649000,-7,5,5,3,0,-3,7,-15
1693678208756648400,11,-2,-3,-9,-4,3,-1,-19
1693678208757669900,15,9,7,13,18,12,-3,-10
1693678208758648500,2,-3,-3,-6,-1,-12,-5,-50
1693678208777637700,33,-14,-17,-12,-5,-10,-15,17
1693678208778657100,-4,0,3,-5,-14,-31,5,94
1693678208780634200,32,-13,-10,5,20,43,-5,8
1693678208782636300,2,1,-1,-7,-25,-69,-20,17
1693678208798624500,10,8,4,2,3,-13,-18,-58
1693678208799640000,32,3,-2,-2,2,26,2,-12
1693678208800624200,-46,-20,-12,-8,-5,-37,-3,0
1693678208801624600,3,13,7,-1,-10,30,1,47
1693678208806619800,9,1,1,-5,-3,-5,-3,-22
1693678208809618400,-12,0,-4,-10,-17,-19,-4,-14
1693678208813637600,-5,0,1,6,5,5,2,-23
1693678208815614300,-1,-3,-6,-3,4,-45,-12,2
1693678208828629500,22,14,12,7,8,13,-9,-47
1693678208830606200,-12,2,1,2,-1,-4,5,-34
1693678208832610300,49,7,7,10,11,39,9,34
1693678208833606400,3,2,-9,-16,-19,-43,0,28
1693678208857593500,-16,-8,-14,30,24,-18,-7,-14
1693678208861589900,0,11,47,-15,-44,-32,-5,-14
1693678208862590200,-21,-3,-4,-2,1,5,-2,-22
1693678208865586500,6,4,5,24,33,52,8,23
1693678208874579900,22,3,-4,-17,-7,-3,5,7
1693678208876579300,-7,4,-17,13,17,13,9,-9
1693678208878577500,-10,-3,2,-9,9,-19,-17,-13
1693678208879577000,3,1,-1,-23,-13,14,4,12
1693678208889572700,-1,0,8,-2,-25,-5,1,-5
1693678208891574200,-10,-12,-10,-4,2,23,9,3
1693678208893572700,-26,-11,-13,-19,-17,-43,-17,-22
1693678208895569200,-6,-9,-7,34,44,40,-12,-1
1693678208914557400,18,25,25,-19,-33,26,12,11
1693678208916556400,-5,-8,-16,-18,-17,-12,-3,-3
1693678208918556400,1,-1,3,6,-8,-6,1,-9
1693678208919554800,-2,-3,1,-13,-4,-13,8,4
1693678208942541400,1,-9,-12,-1,-6,-17,-14,-3
1693678208943541400,0,1,-5,2,15,0,-1,0
1693678208944540800,-8,2,8,-9,-7,-15,-1,-9
1693678208946540100,-6,-7,-29,-30,-7,32,-5,3
1693678208949540300,1,9,52,73,-1,-3,0,0
1693678208950537400,-3,-7,-27,-17,10,-12,-4,-5
1693678208951536700,0,9,27,66,-14,4,4,-1
1693678208952536700,4,5,7,-3,-33,-24,-2,5
1693678208980519600,1,-7,-23,-1,34,26,-3,-3
1693678208982519400,-5,-6,-8,-42,6,7,-3,-5
1693678208983518700,3,10,18,4,-25,24,0,-2
1693678208984518300,-3,-9,1,14,30,30,3,1
1693678209001507800,-1,-3,-18,-32,-11,-43,0,-1
1693678209005505300,-6,-3,1,62,38,-4,-8,-4
1693678209010503700,-2,-3,-8,-37,1,9,7,-1
1693678209011502200,-4,-6,-15,9,17,23,-4,-3
1693678209014503800,1,-3,22,9,-28,7,6,2
1693678209015500800,-2,2,1,3,0,-2,-5,-4
1693678209016500000,2,7,0,2,-13,-13,8,2
1693678209017498700,3,3,5,-18,-25,-8,7,2
1693678209040485800,-6,-16,-31,-14,24,1,-21,-5
1693678209041484800,1,6,14,-3,-3,-40,-3,-1
1693678209042484600,-5,-3,1,15,6,21,-3,-3
1693678209045483300,1,0,8,-14,-10,-17,-1,3
1693678209054477900,0,-1,-10,-10,-5,-22,1,-2
1693678209055477600,-2,-6,-7,-3,-17,16,6,1
1693678209061472400,-3,0,-22,-37,42,23,-8,-3
1693678209063472400,-2,2,21,17,-17,-52,-5,-1
1693678209068469900,6,8,15,54,-2,-31,-5,-1
1693678209070468700,-3,-5,5,-14,-25,10,-3,-2
1693678209072469900,-4,-7,-29,-38,7,-13,1,-2
1693678209073466800,3,9,19,-1,-19,46,4,3
1693678209096453400,-1,-3,-8,-44,-18,-9,5,-1
1693678209097452400,0,0,-2,13,10,-7,-2,-1
1693678209099451200,0,1,-6,6,11,8,4,2
1693678209100450800,-2,1,12,5,-11,-31,-11,-1
1693678209116441600,1,-3,-15,3,-1,-6,4,2
1693678209118441400,2,-3,5,10,6,12,4,2
1693678209120439300,-1,-1,12,35,-11,2,2,-1
1693678209122439800,-2,0,-1,20,20,23,2,0
1693678209129434200,-3,-11,-30,-18,-8,-8,3,1
1693678209131434300,4,10,16,-2,-3,6,0,2
1693678209132434000,-2,-2,-7,-5,10,-9,6,-3
1693678209134433600,-5,-14,-14,-17,-10,11,-1,-2
1693678209159419200,-3,-8,-15,-74,14,31,-11,-4
1693678209170411500,1,16,42,84,-32,-8,1,-1
1693678209172411100,1,4,-9,-50,38,-2,-5,-2
1693678209173410100,9,-1,10,6,-27,27,18,11
1693678209182404300,-2,6,-5,-3,36,-7,12,4
1693678209184403200,-19,-21,-21,-44,-43,-33,-23,-14
1693678209185402700,12,21,66,109,-6,17,3,5
1693678209188400500,-1,2,-20,-32,-28,-12,-4,-5
1693678209190399800,3,8,11,53,29,25,5,0
1693678209191398800,-1,-9,-27,-71,1,34,7,-1
1693678209192398800,-9,-21,-27,3,-24,-76,-1,3
1693678209194399200,-9,-6,-9,-77,52,94,28,-3
1693678209211386600,6,5,40,59,-37,-56,-54,-3
1693678209213386100,5,-1,-51,-18,53,27,6,0
1693678209214385700,2,-3,36,37,-81,-63,0,5
1693678209215384800,8,6,13,50,38,9,-1,4
1693678209236373700,-3,12,-3,-100,19,61,21,2
1693678209239372500,2,0,29,83,1,73,10,4
1693678209240371100,-4,6,-11,22,-88,56,-30,-10
1693678209242370200,-11,-25,-32,-80,61,35,0,-4
1693678209249366200,-4,8,23,104,-57,-119,-29,-11
1693678209251364700,-5,-14,3,-95,23,85,3,2
1693678209253365500,-5,10,-19,-79,79,-7,30,-1
1693678209254364000,12,0,16,48,-12,-103,-12,13
1693678209271354300,0,-22,-53,-53,22,72,37,-8
1693678209273353500,18,32,65,40,-43,-68,-38,-3
1693678209274352300,-8,-21,-19,-70,13,24,3,0
1693678209275351000,-10,2,-15,43,9,-41,-15,-11
1693678209294340100,18,1,-29,-71,79,118,48,23
1693678209296339400,-3,-1,22,72,39,-91,1,0
1693678209297338400,2,-1,-53,-83,25,49,-3,1
1693678209299336700,-8,-9,0,-80,-54,57,-5,-2
1693678209309331500,-4,-4,28,10,-29,-87,0,-1
1693678209310331500,-10,-3,-44,-80,28,45,-11,-4
1693678209311330600,2,2,12,114,49,0,3,0
1693678209312329900,4,7,-8,-7,-4,-34,1,3
1693678209331319100,-3,9,60,22,-20,-34,5,2
1693678209333318300,-10,-14,-16,-22,-26,-20,-18,-5
1693678209334317300,4,-7,-12,-23,-3,-19,-4,-3
1693678209335315900,1,13,43,86,-20,-50,-2,-2
1693678209354305000,-4,-15,-44,-79,5,-16,-7,-2
1693678209357307200,5,6,28,7,-5,-32,11,2
1693678209359302300,-2,0,9,39,-13,13,0,-1
1693678209360303200,-3,8,-13,20,-1,52,-9,-8
1693678209369299100,-6,-3,-27,-7,12,-35,-10,-3
1693678209371296000,-5,-9,-26,-23,4,-14,8,0
1693678209373294500,-12,7,8,-50,6,40,-7,-7
1693678209374294000,18,25,101,49,2,-53,5,7
1693678209394283500,-3,-8,-13,-6,-19,-3,12,-2
1693678209396282500,0,7,1,58,7,12,0,-1
1693678209401279300,-3,-6,-13,-30,-37,7,2,-1
1693678209402279200,-1,5,36,-79,-20,-1,-5,0
1693678209416269800,-15,-21,-71,-77,29,52,-5,-7
1693678209418271400,12,40,70,90,-26,23,8,1
1693678209420267000,-2,-21,-89,-59,10,-57,-3,-2
1693678209421290900,-6,-19,-87,-31,23,42,0,-6
1693678209429262700,7,21,66,116,-81,21,-4,2
1693678209432262800,-5,-19,-8,-128,-7,-46,-3,-1
1693678209433278200,0,-2,34,105,4,1,-6,1
1693678209434282300,-5,-16,-101,-91,14,6,-1,-4
1693678209454251300,-8,-16,-98,-70,51,50,-5,-1
1693678209455248200,-2,2,45,56,-14,-52,7,0
1693678209460245500,4,-7,-20,-20,0,45,2,0
1693678209462245400,-1,12,52,103,-35,-36,-16,-4
1693678209475242700,10,21,78,49,7,31,6,5
1693678209476237200,-4,-11,-60,-61,-3,-11,3,1
1693678209478240500,-1,2,46,-86,-23,11,1,-3
1693678209480233800,-3,-4,-32,7,17,-31,0,-3
1693678209489227900,-8,-10,-25,-29,-11,-61,-16,-13
1693678209491227200,-46,-11,-17,49,5,47,5,9
1693678209493225600,38,6,10,-13,9,-14,-4,4
1693678209494224800,10,-1,-5,-1,8,9,2,2
1693678209514214900,-16,16,70,73,-24,-5,-2,-7
1693678209520210400,10,-6,-35,-21,11,3,-7,-18
1693678209527206900,-77,-1,3,19,-4,-4,3,18
1693678209529205700,2,-1,11,16,6,-3,-8,-23
1693678209535201900,101,-2,-18,-8,5,39,8,25
1693678209538200500,-55,-16,-29,-38,-6,-21,1,4
1693678209539199600,33,9,12,9,24,10,-13,-13
1693678209540201100,-117,-10,-3,9,-15,28,6,1
1693678209548195500,54,5,4,-19,-5,0,-7,65
1693678209550193100,116,3,-9,3,3,11,13,-12
1693678209556189300,-62,0,19,40,-5,20,15,6
1693678209558188600,84,0,-14,-16,5,-11,-22,-40
1693678209572180300,-97,3,4,-2,-9,-2,-7,-23
1693678209573180300,-52,-1,-4,11,6,-3,12,74
1693678209574180100,-72,-17,-15,-3,0,-24,2,-79
1693678209576177600,99,8,2,-30,3,5,12,33
1693678209596169100,-32,6,0,1,0,1,-15,6
1693678209599165900,67,11,11,19,3,16,-1,-8
1693678209601163700,-71,-5,3,0,8,32,0,2
1693678209603168100,37,1,-6,7,1,-15,-1,34
1693678209608160100,-27,-13,-23,21,-6,-3,0,-60
1693678209609159700,-38,-1,1,2,1,-3,-3,-9
1693678209616156700,31,11,40,6,-7,-34,-3,4
1693678209618154100,-31,-3,0,9,-11,-10,-1,16
1693678209632146600,-5,-4,1,-8,6,-12,-1,2
1693678209633146300,-19,-8,-37,-16,16,-2,-8,-21
1693678209634145300,45,2,-16,-11,-11,-21,2,17
1693678209635144700,-30,-2,8,6,16,44,5,-2
1693678209655133500,-1,1,-1,-17,19,8,4,-2
1693678209656132800,-7,1,4,1,38,14,-1,-13
1693678209657133200,36,8,13,14,-33,-15,-3,15
1693678209659130900,-23,-3,-6,-20,5,-25,-5,-8
1693678209669125500,-12,-7,-13,30,3,22,3,-8
1693678209671124500,5,9,38,67,29,4,10,6
1693678209676120200,17,1,14,-5,-10,1,-18,6
1693678209678120500,-23,-6,-23,-10,-13,-20,2,-8
1693678209691112800,4,1,17,-2,-18,-13,-6,2
1693678209693112000,-7,-7,-24,-65,-1,-1,0,-3
1693678209694111100,13,-4,-32,7,6,-19,4,3
1693678209695110200,-14,6,10,62,-36,4,-2,-5
1693678209715098700,-2,-10,-27,-43,-42,-12,1,-1
1693678209717098600,-3,0,-2,7,-20,8,-3,-2
1693678209718097100,8,0,3,1,3,-1,-6,-2
1693678209719096400,-27,-3,-8,-29,26,-8,0,-19
1693678209728095100,10,1,-7,5,22,11,3,20
1693678209729095700,-14,-11,-29,-12,-44,9,-7,-6
1693678209737089600,10,9,16,21,34,2,2,5
1693678209738089900,4,2,8,-15,1,23,4,0
1693678209756080600,-13,1,5,-8,12,-14,1,-7
1693678209757079300,0,1,20,17,-4,-12,-2,-4
1693678209759077000,6,-15,-69,-58,30,6,-2,2
1693678209760076200,-14,10,55,64,-1,-9,5,6
1693678209775067400,0,2,24,-22,-17,11,7,-4
1693678209777068000,5,0,-16,-19,12,0,-16,3
1693678209778072100,-1,-1,9,34,0,-8,2,-5
1693678209780068900,-1,-8,-18,-22,-13,-14,-3,-1
1693678209789061900,-1,-4,-7,51,-12,8,-2,-2
1693678209790060400,7,12,48,-21,8,12,18,-1
1693678209797055400,-1,-4,5,5,3,-14,-20,-14
1693678209799054200,-4,-4,-13,-6,1,-3,0,27
1693678209812047700,5,-1,-5,7,-18,2,-3,1
1693678209813046600,-9,3,18,11,-21,-8,4,0
1693678209815046100,2,-2,1,-7,1,0,2,-2
1693678209818044600,4,6,7,-6,10,-4,6,-5
1693678209834737100,-3,-4,-10,-8,13,-10,11,-3
1693678209835737100,-4,-4,-17,-17,-10,-11,-13,-3
1693678209837739100,-1,-4,-6,-18,-1,11,-5,1
1693678209838735600,2,0,-3,-10,0,4,-5,20
1693678209857725800,-10,-1,5,-62,-4,-8,6,-34
1693678209863724200,14,-9,-57,34,8,-6,6,2
1693678209864743200,12,24,94,45,-12,8,15,13
1693678209866726300,-19,-7,-21,-10,-5,-6,3,-9
1693678209871717200,13,4,5,-1,12,-6,-17,9
1693678209873716700,-9,-7,-19,-14,-2,2,3,-5
1693678209875717700,-6,-12,-44,-32,-16,-9,-6,-4
1693678209876735600,8,4,21,28,3,-7,-8,-6
1693678209894703200,-10,-2,7,1,3,4,-1,1
1693678209896701900,-2,0,12,14,3,5,9,-4
1693678209897724800,3,-4,-22,-9,-10,2,25,8
1693678209898723600,-7,3,6,-12,2,-5,-22,-11
1693678209918689800,-2,-5,-8,8,5,-1,-6,4
1693678209920688900,-9,-3,-5,-7,-7,-4,-10,1
1693678209921690000,-11,0,1,1,5,2,19,-6
1693678209923686800,-28,-1,-3,-1,5,0,9,-4
1693678209931681700,65,-5,2,6,0,0,-8,9
1693678209933684500,-1,6,12,5,3,-3,2,-8
1693678209934683700,72,7,1,1,-4,2,-8,11
1693678209937679800,-21,-2,-4,-7,1,-3,-4,-11
1693678209955670100,6,-7,-9,-13,-1,4,2,1
1693678209956669200,-13,5,11,35,-4,-4,-5,-2
1693678209957669900,-20,-8,-13,3,3,0,2,-8
1693678209958672300,-68,-14,-8,-6,2,3,-3,-28
1693678209977656200,36,20,9,7,5,6,59,-2
1693678209979655500,23,-4,-8,-29,-3,4,-19,49
1693678209980676500,32,10,5,-5,-1,-13,-46,-4
1693678209981675500,7,-13,-19,-6,-3,-14,0,-11
1693678209991647500,-119,-10,4,7,-1,2,1,-30
1693678209993646500,20,20,1,-7,-1,0,14,59
1693678209994664100,92,5,-17,6,5,7,0,-8
1693678209995645200,-106,-11,42,26,0,3,10,-34
1693678210014634400,117,9,2,8,4,-7,-22,-16
1693678210016634000,-87,-6,-2,-2,-2,3,-4,-52
1693678210017636800,-101,-15,-10,-16,-3,-8,3,20
1693678210019638400,82,15,-12,3,3,9,7,4
1693678210038621400,-68,-17,-11,-3,-9,-14,-11,80
1693678210039622700,-97,-7,1,-5,1,-1,-5,-110
1693678210040641700,93,17,10,7,-1,-1,10,30
1693678210042618900,-81,-8,-10,-12,4,3,9,-20
1693678210051613500,60,-4,9,-5,-6,-4,-27,-58
1693678210053612400,83,10,-10,-7,-5,-13,-10,27
1693678210054611800,-128,-35,-2,-1,-4,-4,-3,-84
1693678210056611500,99,32,-4,-10,-6,1,-1,103
1693678210074599800,-71,-5,-7,1,4,5,11,-6
1693678210077598400,-24,2,0,-5,5,6,5,-1
1693678210079597300,-30,2,3,8,-2,4,9,-7
1693678210081598200,8,3,7,6,6,-2,18,-8
1693678210099586600,-25,2,5,10,4,3,-29,-36
1693678210102586600,112,12,3,-2,-2,6,-20,50
1693678210104583100,-128,-29,-17,-2,-1,3,-13,-38
1693678210107581500,76,18,7,7,7,7,-3,28
1693678210111579700,-12,6,-1,-12,-7,-1,7,-25
1693678210113581500,-35,-9,8,16,8,-1,27,8
1693678210115577300,-81,-3,0,4,3,10,-28,-31
1693678210117579700,87,-12,-17,-23,-12,-12,5,92
1693678210135565800,-8,-2,-6,8,-5,-26,1,-52
1693678210137564900,-46,-16,10,9,9,11,2,-16
1693678210139563700,115,51,21,8,4,39,20,39
1693678210141562000,-78,-11,-3,-7,-7,-80,5,-128
1693678210164548500,-37,-18,-8,-1,1,3,-13,104
1693678210165548500,-26,-16,-16,-23,-9,8,15,-47
1693678210173544000,-55,14,9,2,1,9,19,44
1693678210175543400,36,23,3,7,5,10,-23,-67
1693678210177545200,-44,-2,-1,-17,-26,-48,19,-45
1693678210178540700,5,11,4,3,-4,-16,-18,43
1693678210180540200,-29,-10,-8,-8,-9,10,8,85
1693678210182540200,36,-18,-13,-19,-16,-47,-21,-108
1693678210194532000,-42,19,23,22,16,13,-9,31
1693678210196531300,103,-3,-5,3,-5,-8,26,60
1693678210198530700,23,-10,-6,-8,15,44,10,5
1693678210199528900,-46,-15,-16,-16,-58,-79,10,13
1693678210218518800,-5,6,5,7,20,117,6,22
1693678210221518400,-63,-8,-1,-6,-21,-62,-16,-42
1693678210223516400,34,0,-3,-2,10,19,16,-13
1693678210224514900,-34,-11,-2,3,12,23,-14,8
1693678210231511300,74,15,1,0,9,-21,6,-27
1693678210233509400,-4,3,4,-2,-6,5,-5,26
1693678210234508700,44,1,-9,-4,-3,7,-1,-14
1693678210235508000,-8,2,-8,-12,10,30,-8,41
1693678210255496200,-13,2,3,20,-1,-60,-10,16
1693678210257496600,-13,8,43,-6,-11,78,1,4
1693678210258496100,19,-11,-47,4,-4,-48,-6,-24
1693678210259494900,-25,-1,52,13,-24,27,4,2
1693678210277484400,13,-6,-35,-38,18,1,-5,23
1693678210279482700,-8,-14,-55,-19,28,7,-2,-41
1693678210280482300,-15,9,69,18,-35,-34,-6,-18
1693678210281482200,-2,-14,-51,26,11,43,8,46
1693678210291476300,-23,-7,-28,-77,9,-7,-3,-5
1693678210293476200,9,18,79,39,-20,-15,-1,-6
1693678210294475100,-17,-17,-75,30,34,-27,-15,2
1693678210295473700,-3,15,63,-1,0,69,1,28
1693678210316466300,14,-6,-44,16,-24,8,12,-4
1693678210324458200,-25,-7,21,12,12,-3,-19,-22
1693678210325456700,10,-2,-5,-40,-5,-40,-2,14
1693678210327455100,-11,-17,-83,35,37,30,7,-2
1693678210336449500,-7,12,101,69,-33,47,-8,-10
1693678210338448800,2,-7,-61,-65,5,-29,2,9
1693678210344446300,-11,-6,-14,-41,-15,-2,26,-1
1693678210346450600,-2,2,6,6,16,41,-30,5
1693678210352441700,-9,-11,-35,-105,-5,-62,-10,-1
1693678210354439800,1,10,56,86,-2,39,5,4
1693678210355439400,7,-4,-14,20,14,10,-1,-3
1693678210356460900,-1,16,50,-48,-64,-87,11,6
1693678210376427900,-6,-17,-59,-19,35,24,2,3
1693678210377444800,1,3,7,-20,-44,14,-3,-7
1693678210379425700,-7,-3,0,33,25,-6,-6,-4
1693678210381424400,-5,-18,-60,-56,50,8,3,5
1693678210404411800,7,14,94,127,-2,3,4,9
1693678210406409600,-3,-9,-35,-59,-29,-10,1,-5
1693678210408409700,-5,-4,-11,-57,5,-7,-10,1
1693678210410409000,-5,5,22,59,22,-5,-3,4
1693678210411407700,12,5,-3,-29,-44,54,16,2
1693678210413406500,-20,-21,-85,-68,42,64,-19,-13
1693678210415405800,19,23,89,62,-1,42,-2,4
1693678210417404600,-19,-14,-16,-60,-11,-60,-10,-3
1693678210434394000,-11,0,-4,70,-36,-64,-26,-11
1693678210436395000,8,10,-1,63,44,18,45,9
1693678210438391700,-6,-10,-33,-89,12,40,-25,-9
1693678210439391500,6,7,39,-25,-71,76,17,6
1693678210457379800,-4,3,5,69,53,100,-7,-1
1693678210459379900,-7,-9,-19,-106,15,-128,-9,-7
1693678210460381100,7,15,53,122,8,55,16,6
1693678210461378500,-9,-18,-102,-85,72,-92,-9,-3
1693678210471373300,15,24,71,40,-70,-62,0,9
1693678210472373000,-3,-1,-5,-18,-7,118,1,-4
1693678210479367800,-5,1,3,46,-21,4,-7,-4
1693678210485364900,11,19,63,-67,25,43,5,6
1693678210494359500,-10,-14,-54,-65,9,-51,-13,-6
1693678210496359700,-1,-5,-9,85,-20,32,-1,-2
1693678210497358000,-14,-17,-47,-98,-15,-50,-7,-3
1693678210498357500,6,8,35,127,4,59,15,8
1693678210517346700,7,13,75,-42,10,-10,17,0
1693678210520344800,3,-3,-26,29,14,-8,-3,2
1693678210521346500,-7,-16,-68,-94,-50,-11,1,-2
1693678210522344000,-4,-6,-46,-39,53,6,-10,-3
1693678210537340500,6,9,42,28,21,39,11,5
1693678210540340700,-4,-1,26,44,-23,-100,-19,-7
1693678210541339300,6,14,65,21,6,13,0,2
1693678210542338900,-3,-10,-56,-2,2,27,4,-4
1693678210554330600,-12,-22,-52,-95,-40,-48,-7,-6
1693678210556329600,4,14,17,31,13,35,-2,3
1693678210557329000,3,15,65,-70,-13,-38,-2,4
1693678210558328500,4,9,52,59,-44,-34,-2,-1
1693678210577318800,-7,-7,-48,-47,41,39,7,-2
1693678210579317300,-5,-13,-42,-27,-7,-23,-10,-5
1693678210580315900,-4,-8,-46,3,16,3,-4,-2
1693678210581315200,1,10,59,-45,-19,12,0,0
1693678210591311900,-4,-1,11,12,2,-8,-8,-3
1693678210593330200,6,5,1,-5,31,47,13,6
1693678210606300500,3,0,-7,23,-7,-77,-5,-1
1693678210608317400,-9,-3,3,-4,-30,27,-7,-3
1693678210614296000,-7,-10,-56,18,25,26,-2,-2
1693678210616297800,-1,3,19,-18,-8,0,-1,0
1693678210618294000,7,6,6,15,2,8,2,4
1693678210619294000,3,-8,-33,14,7,-8,10,3
1693678210637294500,-3,1,16,-5,-2,-7,29,-5
1693678210639289900,8,-7,-15,-12,-5,-4,-30,-1
1693678210640288800,-12,7,54,55,-9,7,-16,-2
1693678210641288700,-2,-1,-12,-33,-11,-30,-11,0
1693678210651282700,4,-3,-22,-14,7,20,12,12
1693678210652283600,7,12,69,42,-20,-27,13,-12
1693678210659277500,-13,-15,-49,-4,7,8,-8,-3
1693678210661277400,-3,6,17,48,5,-3,3,5
1693678210674269800,-42,-11,-2,-5,-1,-9,14,-12
1693678210676268200,20,-4,-21,-15,5,-5,-41,0
1693678210678269700,20,0,-10,-18,-3,0,6,15
1693678210679266800,18,2,-5,7,-5,4,-7,-1
1693678210699256500,4,4,0,2,-4,-4,-5,-4
1693678210700254500,-36,-16,-9,1,5,-8,22,-5
1693678210702254500,-46,-8,-7,2,3,12,-21,-25
1693678210708251000,25,-3,-24,-12,4,-5,-7,27
1693678210711248100,-4,-2,32,34,-2,8,-7,-21
1693678210712248500,-35,-1,-4,-14,-8,-5,6,-7
1693678210719242900,28,4,3,-1,-2,1,8,7
1693678210722243200,-14,-6,-12,-4,3,10,4,-16
1693678210734239800,-6,-6,-28,-17,4,-6,-22,15
1693678210735239900,3,3,8,30,5,8,9,11
1693678210737240300,-44,2,18,-4,7,3,14,-20
1693678210738239100,72,7,10,22,0,0,-3,13
1693678210757229300,39,1,-7,0,4,5,-9,-5
1693678210759247800,-78,-14,-11,-15,-9,-11,-2,-33
1693678210760247700,62,-5,-18,4,8,7,2,10
1693678210761247600,-107,-12,-11,-17,-11,-5,3,-8
1693678210772218800,66,13,1,4,7,0,6,47
1693678210774219800,81,4,2,-7,0,-7,-9,2
1693678210779214600,-53,-2,-7,-4,0,3,14,13
1693678210780236800,-18,8,17,17,2,-4,-6,-90
1693678210794205200,-70,-20,-18,-11,-9,-9,11,-31
1693678210796205600,4,22,9,4,7,13,6,79
1693678210797204700,22,0,-8,-2,-7,-6,-4,-32
1693678210799203200,51,7,-2,-7,-8,-1,21,77
1693678210817194600,-25,-22,-9,3,7,-2,-11,-121
1693678210819193800,85,28,10,5,3,0,10,28
1693678210821194700,-30,-4,-10,1,-2,2,-18,78
1693678210822202600,62,16,-3,-1,-4,-9,13,48
1693678210840185300,-44,-19,5,4,8,-1,-22,-96
1693678210841207900,54,22,0,-16,-14,-10,4,86
1693678210842207600,-97,-55,-1,2,3,4,10,-54
1693678210843206300,-15,-19,-10,-10,-4,-11,12,-6
1693678210854178200,-23,44,1,-5,3,20,-11,74
1693678210855177900,-30,0,0,4,2,-9,-13,-8
1693678210864175300,-92,-4,0,1,-1,-43,-2,-79
1693678210865173600,-63,-24,0,0,0,11,11,65
1693678210885165600,69,12,2,-6,-7,-10,21,118
1693678210886181600,-55,35,-3,-6,0,17,-6,-98
1693678210888159100,19,5,-4,-2,-8,-3,23,-10
1693678210889158200,-26,-28,-4,-3,3,8,5,24
1693678210905150800,3,-17,3,8,9,1,0,-32
1693678210906148700,4,6,-2,-9,-12,31,-13,91
1693678210911148200,28,11,1,6,11,12,2,-78
1693678210913147400,-32,-20,1,16,16,-37,-18,-48
1693678210915143400,92,9,-18,-3,9,74,4,33
1693678210916143200,15,18,13,4,15,59,48,56
1693678210922139300,-28,16,1,-7,-9,-70,-19,-9
1693678210924140700,-15,-6,-14,-10,-15,-49,-8,-64
1693678210937147500,-128,-27,5,8,11,54,-5,-22
1693678210939137900,18,-20,-6,-2,-8,-79,-51,-38
1693678210941140000,68,23,-3,-4,-5,-1,17,37
1693678210942138100,-87,-5,-3,-3,3,21,-18,-42
1693678210962126300,18,54,8,11,9,17,13,-50
1693678210968121500,-37,-20,7,4,7,-12,-16,-11
1693678210970120600,-35,16,-2,-5,-8,20,-12,-33
1693678210971121600,-21,-33,0,3,7,39,17,68
1693678210982114900,-24,5,-9,-16,-15,-124,-21,10
1693678210984113700,-4,-8,-3,2,0,-30,-5,-105
1693678210985113800,-5,-4,-8,-10,-9,34,-6,120
1693678210987112800,32,-1,10,17,20,37,-10,-83
1693678210997106200,41,3,0,-17,-19,-43,-1,53
1693678211000105000,3,-2,-4,4,-9,-48,5,-23
1693678211001104300,11,-13,0,4,6,14,11,-10
1693678211002104200,-12,0,0,-8,-1,14,-17,-104
1693678211020091900,28,-17,-7,0,-10,-38,18,102
1693678211028108300,-27,-32,-3,-10,-8,67,-16,-84
1693678211030107500,23,8,14,8,16,89,21,62
1693678211031106100,-8,-21,-5,-14,-29,-43,-7,22
1693678211033105100,5,34,-4,-9,-10,47,-7,-45
1693678211035101800,-25,-27,-16,-8,-1,10,16,-50
1693678211050092800,31,4,4,5,-10,-2,-41,2
1693678211051093800,-7,13,0,-5,0,15,2,-4
1693678211057089000,10,15,5,1,-13,-22,-8,7
1693678211060087900,-18,-7,-8,-8,4,2,-8,45
1693678211061087000,21,1,-2,11,4,10,42,1
1693678211063088800,61,20,1,-13,9,-49,-17,0
1693678211083074500,-23,-27,-9,-11,-9,-35,-21,-25
1693678211091069300,5,-2,2,-5,-1,-26,11,42
1693678211093069300,14,-3,11,19,21,4,0,-21
1693678211094069600,28,13,-2,-12,-32,19,6,10
1693678211102065200,35,-19,5,19,23,39,5,6
1693678211105062500,-22,-9,-4,10,17,-57,0,-41
1693678211107064000,0,-11,-4,-10,-14,-1,7,9
1693678211110058800,26,37,11,4,11,54,7,-11
1693678211118053800,-43,-22,-4,-10,-21,-38,-1,-15
1693678211119053800,-8,2,0,3,12,3,4,-17
1693678211121054500,-41,-4,-2,-10,-4,-29,-16,13
1693678211122054100,3,-2,-6,2,-8,-22,11,12
1693678211140049200,-7,-8,0,1,-2,-17,2,-21
1693678211141051200,-10,2,-9,-9,-8,23,11,20
1693678211143047200,4,-6,0,-13,6,-9,-8,-19
1693678211144046900,-9,20,29,54,16,26,7,24
1693678211162037900,-35,-9,-1,10,7,-9,-2,-3
1693678211164036100,2,-10,-12,-23,-4,12,2,-8
1693678211167034100,11,0,-2,21,2,0,-9,4
1693678211168033700,-5,-1,-11,-10,-9,-32,-9,4
1693678211177028900,-1,-1,4,-2,7,29,9,-9
1693678211179027300,-4,2,6,3,-8,9,3,9
1693678211180026300,11,0,6,-10,6,-19,-9,-14
1693678211181025800,-6,1,-8,-24,-10,2,1,14
1693678211204014200,-9,-12,-23,-18,27,-8,-5,-12
1693678211209009900,-8,-3,14,4,-32,6,8,6
1693678211212011400,-1,-1,-9,2,-9,-13,-5,2
1693678211213009100,1,-2,2,26,10,35,0,-3
1693678211215009600,-2,0,-7,-23,6,-16,-10,-1
1693678211216008100,-6,-3,6,29,-19,39,7,2
1693678211223003900,-8,-23,-32,-71,-20,-36,-17,-18
1693678211224004100,-2,3,0,59,17,3,-1,6
1693678211237001300,0,-2,17,10,-2,12,-2,-4
1693678211238997900,2,6,-3,0,-2,-20,6,6
1693678211239997000,8,4,9,-19,-17,94,14,0
1693678211240996200,-13,-13,-34,-33,35,-87,-14,-5
1693678211259985400,7,7,53,23,-48,8,2,2
1693678211261994600,-1,0,-9,-8,47,-8,-2,-2
1693678211262984000,4,-2,12,5,-44,-14,-3,0
1693678211270981800,-6,-4,-13,-19,17,-22,-1,-1
1693678211281972500,-1,5,3,-32,8,3,-5,-7
1693678211283971600,-4,-7,-18,13,-45,-17,-1,1
1693678211284974700,5,6,4,13,58,26,2,-2
1693678211286970200,-7,0,0,-9,-23,2,0,0
1693678211295966100,-2,0,-1,28,-13,-3,-5,-2
1693678211297964100,1,3,13,-17,-20,21,2,2
1693678211304960200,1,-4,-24,51,26,7,3,-2
1693678211305962300,-1,-4,-16,65,30,36,-5,-1
1693678211326991900,1,2,16,-65,-16,57,6,1
1693678211328954700,4,11,21,-58,-28,-9,0,3
1693678211330956000,3,-4,9,92,-9,-16,14,2
1693678211331955500,1,-2,-5,-6,-62,-11,-7,-2
1693678211333951600,3,9,5,6,11,-9,-2,0
1693678211334950900,-2,-3,-15,-8,84,23,-1,0
1693678211341947300,-4,-9,-4,-36,-4,-46,-8,-4
1693678211343950500,0,-9,-14,-38,-19,35,13,5
1693678211357938000,-9,-16,-40,-48,74,14,-5,-5
1693678211358937100,11,21,18,-18,-50,-60,-1,2
1693678211360938000,6,0,2,71,17,29,1,5
1693678211361937000,-5,-7,-24,-107,-15,13,10,0
1693678211379927700,0,2,29,76,23,-9,-10,-4
1693678211381925100,-6,-18,-7,-13,-9,-21,2,3
1693678211383923000,9,14,15,-10,20,38,18,6
1693678211384922600,-6,15,37,43,-14,19,-11,-5
1693678211403913900,5,-1,-19,-8,1,-58,4,0
1693678211405911100,-4,-4,-1,62,-10,46,0,0
1693678211407909000,-8,-14,-36,-75,27,-12,-12,-6
1693678211408908400,1,-8,8,23,-15,-8,-1,0
1693678211416905100,2,0,-35,-74,-5,0,7,4
1693678211418903200,-10,-11,-6,113,37,18,-7,-7
1693678211420902200,2,8,21,-4,-7,-30,-7,-1
1693678211422909500,0,-7,-20,40,76,29,-5,0
1693678211439891400,-4,-14,4,-46,-74,-8,6,6
1693678211441891900,12,37,41,78,24,14,5,2
1693678211442889400,1,11,37,-13,-92,7,-4,-3
1693678211443889000,-1,-12,0,47,-23,-48,-4,3
1693678211453883400,-17,5,-11,17,30,77,-7,-18
1693678211454882600,4,0,-15,-78,22,-83,-7,-4
1693678211461878100,-4,-12,-26,-49,-5,-24,4,-1
1693678211463876700,12,13,-3,-82,18,-9,11,4
1693678211477871700,-10,-18,3,13,-16,15,-48,-6
1693678211485867800,9,2,42,69,-30,24,6,4
1693678211487866900,-4,14,-4,-10,11,-10,-3,-5
1693678211488864500,-12,-10,1,-54,-11,1,-12,-10
1693678211499856300,13,9,-11,31,8,-18,13,6
1693678211501855500,-18,-30,-46,-81,23,21,-1,-1
1693678211503854500,11,19,14,25,-1,-6,0,1
1693678211504854000,-3,-8,3,8,-2,12,6,3
1693678211512850300,11,17,4,-25,5,-5,12,5
1693678211515847600,-9,-11,2,36,-16,-51,-4,-5
1693678211522843300,1,-6,-4,-31,-12,-68,-7,1
1693678211523843200,-1,7,7,-12,-14,5,-8,-4
1693678211538839800,2,7,11,25,6,7,5,1
1693678211544840100,-4,-14,-21,-44,4,-11,8,1
1693678211546841800,-6,-9,-6,12,12,19,-2,-3
1693678211547834700,7,8,6,-7,10,1,-16,-3
1693678211559827900,1,-4,-2,20,-18,-18,17,3
1693678211562828200,-3,0,-9,-22,4,30,-5,-3
1693678211565826600,-6,-12,-14,-22,-5,0,-3,-2
1693678211566824200,8,16,17,26,-2,26,1,2
1693678211573822300,-8,-17,-11,1,-12,10,2,-1
1693678211574822400,-4,-2,-7,-33,-11,-45,-10,-4
1693678211581815200,-2,2,-20,-1,9,20,-5,-3
1693678211583815700,3,2,15,-30,26,-18,11,3
1693678211600805800,-1,1,4,-8,-16,-14,8,-1
1693678211602804800,1,6,-7,37,-4,21,-26,-3
1693678211604802600,-4,-8,8,-8,-7,-5,3,-2
1693678211606800800,-1,-1,-17,-15,3,-4,6,1
1693678211627789800,3,4,12,29,2,11,28,2
1693678211628788000,-3,-6,-14,-42,-5,-19,-46,-5
1693678211630791400,-5,-8,-6,-2,7,31,-6,0
1693678211631787600,-1,2,5,22,-14,-16,-3,-1
1693678211633785500,3,3,-6,-7,2,8,9,2
1693678211634784800,-3,-5,-6,-13,-1,11,16,-1
1693678211641782900,6,3,11,28,5,-6,0,1
1693678211643779800,-12,-4,-7,9,3,3,-1,-4
1693678211657773100,1,3,19,25,-12,-20,-13,0
1693678211660770500,-1,-1,0,-14,6,13,6,0
1693678211663771500,2,-2,2,-23,-4,-2,0,1
1693678211664769900,8,11,10,-19,-4,0,13,3
1693678211679759600,-5,-9,-26,-3,-2,-12,-24,-5
1693678211681757900,0,5,20,38,0,11,17,1
1693678211682756900,2,3,-6,-10,2,-2,-1,1
1693678211683757100,-1,-10,-11,2,-7,-14,-1,-3
1693678211693751900,-3,-1,-18,-33,3,22,-8,-1
1693678211694753600,1,9,28,-19,-9,-40,3,0
1693678211709745200,-5,-6,-16,-3,3,3,0,-3
1693678211711741200,-1,-2,8,9,-2,-4,4,1
1693678211724732700,0,-6,-12,-5,-4,0,-4,-2
1693678211726606200,1,2,0,25,5,21,3,1
1693678211727597700,-3,-5,-3,12,-1,-10,-2,-1
1693678211728597400,-3,-1,4,-6,-8,-11,-10,-3
1693678211739588800,2,0,-2,-2,5,6,6,1
1693678211741588300,-2,-5,-25,-25,-4,4,0,-2
1693678211742589300,2,4,25,36,-1,-2,0,0
1693678211743588800,2,-1,4,2,5,5,1,2
1693678211762576600,1,10,21,36,0,-5,-2,1
1693678211764575600,4,1,-9,-18,6,16,5,1
1693678211765575300,-3,-2,5,-3,-3,-1,1,-3
1693678211767575700,-1,-2,-6,-3,-6,-2,-7,-2
1693678211776568400,-4,-4,-9,-1,1,-8,-5,-2
1693678211777567500,0,1,12,-23,2,8,3,1
1693678211790561300,-1,0,-12,4,0,-2,-2,-2
1693678211792560000,3,5,26,21,0,6,16,1
1693678211807553600,1,-4,-5,0,2,-8,1,1
1693678211808550200,0,-3,-12,-7,3,6,-5,-1
1693678211810548500,-2,0,-1,17,-1,-1,-2,0
1693678211812550200,-2,-6,-13,-13,-3,1,0,0
1693678211822541100,-1,2,12,-7,-1,0,-2,-1
1693678211824542600,-3,-9,-16,-17,6,14,4,-2
1693678211828538100,1,4,7,34,-12,-20,-2,-2
1693678211829540000,-1,2,8,-30,1,4,-8,-1
1693678211837533300,0,0,3,34,1,0,-1,-1
1693678211838533100,-1,-1,-3,1,1,6,0,-1
1693678211843530100,2,0,-10,-18,4,8,4,4
1693678211845528300,0,-4,-12,4,-4,-8,-4,-2
1693678211863520200,-2,-3,-10,-22,4,5,1,-1
1693678211866517500,0,-2,0,1,-2,1,5,0
1693678211867516400,-4,2,6,-4,4,4,-15,-1
1693678211868515800,-1,-1,-4,1,-7,-5,-4,-1
1693678211882507300,2,2,-2,5,1,-1,2,1
1693678211884508000,-4,9,26,27,3,3,-4,-2
1693678211885507900,-2,-3,-1,-22,-1,2,6,-1
1693678211887506000,-1,-6,-19,6,3,1,-2,-1
1693678211896499600,0,-1,-9,-23,-8,-8,-4,-1
1693678211898498800,1,-3,-12,-9,-4,0,5,-2
1693678211904495500,0,0,15,3,1,-1,-1,-2
1693678211906494500,0,2,14,13,0,-2,-5,-1
1693678211932482400,-1,0,5,5,-3,-1,2,-1
1693678211934478800,0,0,-5,-11,1,6,2,1
1693678211938475400,0,0,-8,-19,-4,-14,-2,-2
1693678211940475400,-3,-4,-7,5,-1,-8,-8,-2
1693678211944475700,-3,-5,-16,-17,3,-4,-1,-2
1693678211945474800,1,7,40,19,-10,-4,-2,0
1693678211947472700,-2,-2,1,-4,1,7,-2,-3
1693678211948496100,3,7,14,27,0,-1,3,1
1693678211957222800,-2,-4,-5,-9,-2,7,-2,-1
1693678211958488900,-3,-4,-18,-15,0,-15,-4,-2
1693678211963460900,-3,-5,-11,-9,0,10,3,1
1693678211966459700,-2,-3,-11,-21,2,-8,-3,-1
1693678211979454200,1,3,7,20,-3,-3,-2,2
1693678211981451300,1,2,10,3,-1,0,0,0
1693678211983451000,1,2,-1,12,4,4,14,1
1693678211984449000,-2,-6,-10,-15,-9,-11,-14,-3
1693678212009456800,-1,-2,-6,-3,2,-4,-3,0
1693678212011433500,-1,-4,-9,4,-7,1,-7,-1
1693678212013433300,-5,-3,-2,-12,-3,-14,0,-1
1693678212015433300,-2,0,-1,1,4,12,10,2
1693678212016432300,-2,0,6,5,-3,4,-1,-1
1693678212018432300,2,-1,-3,-1,0,-6,0,-1
1693678212030451200,4,0,2,5,2,-2,-3,1
1693678212032428400,-1,0,-2,1,-2,0,3,1
1693678212041424000,-6,-3,0,4,-5,-1,0,-2
1693678212244307800,6,-1,-8,-10,4,23,17,2
1693678212247305900,7,2,3,-1,8,8,-6,-1
1693678212252303600,-12,-4,-2,14,-13,-26,-8,-6
1693678212256301100,-9,-6,-3,-13,-2,1,3,-3
1693678212259298700,20,11,4,8,5,-5,-14,7
1693678212263297700,-7,-1,1,-2,0,11,8,1
1693678212267295200,-1,-1,5,1,6,-12,1,-2
1693678212270295700,-5,-3,1,-7,-4,17,9,-2
1693678212272292800,-8,-4,-11,-3,-4,-2,-10,-24
1693678212279287900,14,5,3,5,-2,-8,-1,23
1693678212282287900,-2,-2,-2,-8,3,7,-3,7
1693678212316266600,6,1,4,5,0,-10,-16,7
1693678212323261600,-27,-12,-12,-6,3,0,26,4
1693678212326261200,2,5,0,-3,-7,-15,-62,-15
1693678212331258300,9,-2,-7,-5,1,16,26,-15
1693678212335255300,-6,-3,2,1,2,-20,-48,-23
1693678212339254200,-21,-4,-1,2,0,8,7,-32
1693678212345252400,-14,-4,7,5,4,3,37,47
1693678212349248500,-26,0,-1,3,2,6,27,32
1693678212356249800,-22,-6,-7,-8,-4,-4,-14,-74
1693678212359242600,8,8,-8,-6,-7,-16,-8,3
1693678212374236100,-31,-1,-1,0,0,4,-34,-82
1693678212381229100,101,11,2,5,2,8,-18,73
1693678212385226900,-128,-13,3,-3,5,26,52,-43
1693678212391223800,87,2,-6,-7,-10,-21,11,78
1693678212395221500,6,-11,-8,-4,-2,-9,-30,39
1693678212398219900,-43,10,2,-6,-4,3,13,-32
1693678212408264100,-73,-8,-1,7,3,-6,-26,-58
1693678212413261700,-1,-2,-4,6,5,16,-14,-12
1693678212416262600,-86,-17,-6,-4,1,16,97,3
1693678212419258800,45,40,20,16,11,25,13,37
1693678212431251400,-23,6,3,3,-8,-24,5,127
1693678212434250100,-20,-7,0,-5,3,2,-6,-118
1693678212439318800,-95,-11,-4,5,2,12,17,85
1693678212442316100,38,3,0,-8,-6,-20,-35,-128
1693678212447363800,47,22,10,8,5,11,36,126
1693678212449351300,-18,-9,-1,-2,3,45,-11,-46
1693678212452351500,86,-2,1,-4,-9,-49,-29,0
1693678212456351300,-68,-7,-5,0,-2,-11,6,76
1693678212459349000,70,5,5,2,2,12,10,-40
1693678212463344600,-82,2,6,7,7,-14,-23,-16
1693678212465343100,-24,8,-3,-1,2,11,-12,43
1693678212467342700,15,-15,0,3,5,-2,56,-24
1693678212471340800,4,3,4,5,3,-16,45,-90
1693678212481333300,-98,-30,-3,1,8,34,-43,115
1693678212483332200,50,9,-7,-8,-22,-64,13,-32
1693678212488308000,-54,-13,1,1,-2,-8,15,42
1693678212490303000,70,12,-10,-15,-13,22,3,18
1693678212492299900,-31,-9,3,-6,-6,-27,40,-80
1693678212498297200,24,11,5,-1,-5,9,-66,47
1693678212501295800,-90,-8,-2,-3,-9,-14,42,-39
1693678212505296600,42,-19,-12,4,12,18,-6,22
1693678212509291600,39,24,4,-8,-20,-43,-11,81
1693678212512288400,-9,-12,-5,-8,-13,-4,36,-28
1693678212516306600,70,-2,-3,0,0,-3,-57,-112
1693678212522301200,10,-5,-6,-5,3,24,38,125
1693678212527327000,8,-4,-2,8,10,-14,28,-52
1693678212531324300,-7,5,1,-13,-3,3,-10,-49
1693678212534322100,29,8,5,4,1,16,-17,120
1693678212535322200,-24,-9,-6,-14,-12,-10,-9,-62
1693678212539318600,58,16,8,10,4,-10,-13,41
1693678212545315800,-16,2,1,7,3,16,11,-36
1693678212547314500,-27,-21,-4,-3,2,-39,-31,-8
1693678212548314300,-7,-3,-1,-7,-12,-53,-28,92
1693678212550311700,-2,-2,-11,-5,-2,28,35,-10
1693678212551310900,1,9,10,12,10,20,4,-76
1693678212552310400,-13,-8,-13,-17,4,18,-23,22
1693678212557309800,15,3,14,19,-4,-20,-26,-45
1693678212560308100,-37,-22,-8,-1,4,8,-1,6
1693678212563305100,37,12,-1,2,2,-13,5,59
1693678212565304900,-29,-7,0,-1,3,11,17,-7
1693678212567302100,-2,-5,-4,-3,3,25,-11,-53
1693678212568301500,1,4,4,5,2,-19,-3,10
1693678212572301000,7,-11,-13,-5,7,16,-10,-8
1693678212575299700,-49,3,7,4,-9,0,1,-57
1693678212577297700,-47,-4,-2,-1,6,6,-2,-7
1693678212580295500,22,1,-1,-5,-6,8,5,30
1693678212582294500,-1,-7,-5,-2,14,15,-11,-30
1693678212584294100,54,9,2,-3,-16,-25,-9,77
1693678212588290600,-19,-1,-5,-7,-3,11,-7,-61
1693678212590289900,-13,-13,-3,19,19,-31,-5,-9
1693678212592289300,11,14,15,-4,-26,-23,-4,-23
1693678212594286800,-8,5,1,-5,-3,23,-6,-37
1693678212598285300,15,-6,-6,9,18,-4,-5,19
1693678212600284500,7,13,8,1,-1,19,-11,15
1693678212605280300,-11,-8,-5,1,6,14,6,-1
1693678212635264000,-8,-10,-6,-4,4,-6,2,29
1693678212641260800,4,9,4,2,-4,-5,16,12
1693678212646258400,-1,0,-2,-4,-3,-14,-36,-17
1693678212649255000,-5,5,9,5,7,29,9,0
1693678212651254600,8,4,-1,-3,-1,-16,-6,-10
1693678212657251800,3,-4,-1,-3,-9,-24,-4,-17
1693678212660249200,-1,-1,-2,-3,-3,17,14,15
1693678212664249500,0,3,9,10,4,29,0,-16
1693678212667246100,-3,-2,-8,-4,5,0,-15,20
1693678212674242700,-2,0,-10,-24,-20,-20,-10,3
1693678212677239900,3,1,7,-2,-11,-14,3,-9
1693678212679239200,-2,-4,-9,-13,4,-2,0,4
1693678212711220200,-3,3,10,-18,-40,-5,1,-20
1693678212713218600,-10,-11,-7,9,21,6,-6,-8
1693678212716218300,12,15,5,2,12,31,15,11
1693678212719217000,-5,-6,1,19,-6,-16,4,-1
1693678212727211100,-4,-3,-10,1,25,18,1,-4
1693678212730209000,0,-2,-8,8,-7,-24,-12,2
1693678212732208000,-6,-10,10,3,12,2,-7,-7
1693678212735208300,9,0,-5,-11,-26,-5,9,13
1693678212742289700,-11,-6,-18,4,36,19,-4,-15
1693678212745287800,9,4,18,10,-29,4,4,4
1693678212747406100,-1,0,6,-34,9,6,5,-1
1693678212750389100,-8,-5,-16,-1,2,-42,2,-2
1693678212784369200,-1,-3,-12,2,7,-1,-52,-10
1693678212791365700,7,11,15,-10,-25,5,4,-1
1693678212793365200,-3,-9,-19,-7,10,-15,-3,1
1693678212796362100,-1,8,14,-8,-17,-12,2,7
1693678212798361100,-1,-2,-12,2,-5,0,10,-6
1693678212800360200,-5,2,-5,-6,21,-14,-2,-2
1693678212802358800,4,3,-1,11,-7,78,9,3
1693678212808355200,-7,-8,-8,-38,14,28,-8,-3
1693678212810354200,-3,1,5,58,52,33,4,-6
1693678212812354100,10,17,35,50,-28,-4,6,7
1693678212815351600,8,8,0,1,-25,21,13,4
1693678212818349900,-11,-18,-25,27,29,-52,-1,-2
1693678212826346000,2,7,21,-2,-54,3,2,-2
1693678212855329100,-6,-9,-17,15,62,26,-4,-3
1693678212858326400,-3,-2,-6,2,-13,-46,-11,-6
1693678212860327200,1,6,14,11,10,24,0,2
1693678212862325200,-7,-18,-47,-57,27,-19,6,-3
1693678212864324000,-5,-6,4,-19,-14,-3,-10,-6
1693678212867380400,3,1,17,-7,-52,-3,2,5
1693678212872366800,-5,1,37,62,-20,-13,-14,-5
1693678212875362700,3,3,7,-5,-11,39,15,3
1693678212878360300,-4,-4,-28,-25,31,55,7,-2
1693678212880359600,-7,-7,-17,-12,12,-102,-17,-7
1693678212882359200,-2,-12,-17,11,38,-1,0,5
1693678212883358400,-3,-1,28,13,-39,-27,9,1
1693678212886358900,1,1,-19,-6,14,-14,14,-3
1693678212892352700,-2,-1,12,-10,-28,-26,-23,-4
1693678212912450700,1,5,-20,-30,18,40,4,-1
1693678212914448500,0,-9,4,23,3,27,-2,1
1693678212917447400,-7,-7,14,-6,-46,-87,-4,-2
1693678212921446300,5,8,-16,-47,72,57,12,2
1693678212926442600,-9,-6,2,46,-63,-4,-9,-5
1693678212929439900,18,16,6,3,9,10,13,6
1693678212932441200,-1,-5,8,-17,-38,48,6,6
1693678212934441800,-7,-5,-13,0,-21,-73,-15,-11
1693678212939439200,-4,-9,-30,-11,50,1,-1,0
1693678212941434600,3,2,18,-19,-14,21,-4,0
1693678212943433000,15,8,5,14,4,13,4,11
1693678212945431500,-2,5,13,55,41,72,9,3
1693678212947430600,0,3,-9,-47,-28,-2,7,-2
1693678212954428600,-7,-13,0,2,-17,-27,-2,-2
1693678213012432500,2,10,20,32,-15,-23,-4,-3
1693678213016430600,-6,-4,-22,-41,6,34,-8,-5
1693678213024425700,5,-2,31,41,-8,-36,3,4
1693678213028424300,-4,0,-10,-25,27,30,12,1
1693678213032421800,-6,5,28,29,15,61,-37,-9
1693678213034420300,4,-3,-2,3,-34,-70,14,6
1693678213044415000,8,11,24,-21,2,81,-4,3
1693678213047413100,-14,-13,-14,-3,-16,-89,-29,-12
1693678213051410000,0,2,-27,-21,32,35,10,-3
1693678213059405900,0,-6,0,24,-20,52,10,2
1693678213061404900,-5,-7,-6,-34,16,-8,-5,-5
1693678213064402500,4,7,9,54,-10,-2,0,1
1693678213066401300,-4,-14,-22,-21,1,-3,-4,-4
1693678213068627800,1,5,10,-13,4,54,4,1
1693678213075623600,0,-10,-6,-6,-24,-90,10,3
1693678213077621800,2,12,1,-9,14,41,1,-4
1693678213079621500,-4,-7,-25,-32,-6,-13,-6,2
1693678213080620900,0,6,17,38,-6,-38,-24,-1
1693678213081618400,-4,-2,-15,-14,14,60,11,-2
1693678213082618300,1,7,11,6,-5,-30,-6,-3
1693678213084616300,1,3,9,8,5,-1,-9,-2
1693678213085616200,-5,-1,-10,-18,3,14,7,-1
1693678213091613200,4,4,2,-4,-7,-10,6,2
1693678213093611700,-4,-10,-13,-8,0,7,4,3
1693678213094611300,-4,-7,-10,-15,1,5,25,-3
1693678213096609600,0,-2,-10,-17,7,-21,-43,-5
1693678213098608400,-1,8,16,29,-1,4,-2,-4
1693678213099607800,0,-3,5,-4,-25,-2,-1,1
1693678213100607500,-3,-6,-36,-31,22,-20,-2,1
1693678213101607300,4,8,34,2,-16,-17,16,-1
1693678213107605300,-6,-3,-9,-21,-5,0,-16,-3
1693678213109603100,-1,-4,-6,-10,7,-1,15,-2
1693678213110602300,-1,-1,0,0,-5,-17,-8,-2
1693678213112601100,1,-15,-37,-13,14,1,8,-3
1693678213113601000,5,15,51,33,-17,7,-4,2
1693678213114600700,-4,3,6,10,8,7,11,2
1693678213115599200,-5,-3,-7,-1,-8,-8,8,-3
1693678213116598900,-7,0,5,8,4,-4,-24,-4
1693678213118596900,21,-1,-10,-4,3,4,4,9
1693678213123595500,0,-3,-11,-11,1,-3,-4,0
1693678213125596000,-23,-1,22,18,10,14,2,-5
1693678213127591900,0,-2,-4,6,-15,-32,7,-1
1693678213129591200,-11,-5,-17,-18,-2,10,0,-5
1693678213131589600,12,0,-2,-12,-5,-7,-13,-8
1693678213132590100,10,-1,-1,0,2,6,0,19
1693678213133589000,-3,2,9,10,1,5,12,-17
1693678213134588400,4,-3,-15,-20,0,-3,-6,-7
1693678213137586600,-1,5,26,24,4,0,1,1
1693678213141586500,2,-3,6,1,-3,-22,-10,1
1693678213143583500,-13,-6,0,7,-7,-3,1,3
1693678213145583100,-14,-6,-4,-2,-1,-5,-3,-4
1693678213146581800,-92,-2,-4,-6,6,7,18,-12
1693678213147580500,93,10,-4,-5,-3,-2,-32,14
1693678213148580100,1,2,7,7,0,1,9,2
1693678213150579300,-26,-2,-3,-1,11,4,-2,-33
1693678213151578000,-15,-3,-2,-3,-4,-3,-6,11
1693678213156576800,-30,2,-6,-4,0,-1,17,39
1693678213158575600,-6,-6,-9,-3,1,12,1,-6
1693678213160574200,7,4,-1,1,-2,-4,7,7
1693678213162573800,-21,-20,-19,-15,-3,-6,-12,-11
1693678213164571000,-117,-1,17,12,-4,-2,10,-39
1693678213166570600,109,10,-6,6,1,5,-32,56
1693678213168568700,-38,-5,1,-5,-2,-10,19,-18
1693678213174568300,72,8,2,3,-3,-3,-2,27
1693678213177563800,-63,-7,-1,-9,-7,-11,-5,-56
1693678213178563400,-45,-8,2,-3,-1,5,4,-61
1693678213180562400,47,-6,-17,-8,-7,-7,-37,53
1693678213182561400,35,1,-4,-6,1,-10,3,21
1693678213184559600,-48,3,6,-1,3,1,-16,-4
1693678213186559500,63,3,2,13,4,2,8,10
1693678213190556600,-105,-5,-2,-6,0,4,3,-30
1693678213193554700,-5,-9,-6,-3,1,-1,12,3
1693678213195555100,68,8,5,1,0,-8,-5,-47
1693678213197552900,-38,-5,2,-6,1,8,3,4
1693678213199551800,-61,2,0,2,4,1,-18,34
1693678213201550300,-24,4,3,-2,-4,4,16,2
1693678213206547900,-12,-19,-10,-4,-6,-3,-5,-39
1693678213210545800,45,9,-6,-12,-11,-19,-4,25
1693678213212544900,14,-5,4,13,12,11,6,11
1693678213214544000,33,12,3,-1,-2,-5,-4,37
1693678213215543500,19,4,5,5,-1,10,3,-14
1693678213217541500,-49,-6,-8,-13,-12,-14,25,60
1693678213224538400,-10,3,-4,-8,-10,-7,8,19
1693678213226536000,1,-5,-4,1,7,19,-34,45
1693678213229534200,59,-8,-9,-3,-3,-25,-7,17
1693678213231534600,-32,0,5,12,11,13,-25,-50
1693678213234533500,109,-9,-13,-21,-21,-33,21,56
1693678213239530400,-15,-2,3,7,14,25,-1,-91
1693678213245524800,29,7,1,-5,-17,-34,8,68
1693678213255525700,-40,-20,-14,-9,-3,3,11,-84
1693678213264514400,103,2,0,2,-3,-26,39,-2
1693678213265515400,-55,19,3,1,-3,19,21,-65
1693678213268512000,0,-5,-1,-1,2,30,-23,122
1693678213273509800,8,-2,1,1,-5,-63,-8,-71
1693678213275508000,-21,14,3,1,-2,10,-13,-18
1693678213278507700,53,-6,2,0,-2,-2,35,87
1693678213284503100,-37,1,-2,6,8,7,10,-50
1693678213288471100,-77,-8,-7,-12,-10,12,-19,14
1693678213292466300,-29,-4,0,7,9,2,-2,-58
1693678213294465000,25,1,4,3,2,-16,-25,108
1693678213298461600,-25,1,-2,-9,-4,2,5,-57
1693678213300463000,8,4,-1,5,10,20,-1,21
1693678213308456700,-4,-9,-5,-3,-1,0,0,-2
1693678213310459200,-24,6,1,1,0,3,1,6
1693678213324447900,13,4,8,5,5,22,28,4
1693678213326446600,-24,-8,-5,1,4,11,14,-27
1693678213328447300,-64,-7,-3,4,5,29,-20,-17
1693678213330445000,50,2,3,-3,-10,-31,9,-47
1693678213344434600,17,0,2,8,11,12,-10,-5
1693678213346434800,-3,3,4,-7,-15,-14,15,30
1693678213347435100,41,3,5,9,9,15,-32,-73
1693678213348433900,29,-3,-1,-9,7,13,9,-27
1693678213358428000,-22,-4,2,3,0,0,41,-20
1693678213360427600,9,0,5,13,17,22,3,89
1693678213374419100,5,3,1,-9,-15,-47,-25,-19
1693678213376420200,2,-18,-18,-10,-1,2,-24,-31
1693678213381415000,6,4,-1,-10,-15,-20,-4,-25
1693678213383414000,7,4,6,2,3,16,11,4
1693678213396438000,-38,-3,0,3,5,2,23,-4
1693678213397438000,-11,0,-1,6,6,25,-37,57
1693678213412429300,-1,-3,4,8,8,-41,-3,-8
1693678213414430200,8,13,1,0,-4,0,-3,-85
1693678213415429000,-13,-2,2,6,8,13,5,60
1693678213417425900,-65,0,2,-2,-11,-25,-11,-67
1693678213418425800,8,-10,-11,-11,-3,24,-39,2
1693678213425422200,-3,0,10,15,1,-3,20,11
1693678213428420900,20,4,5,4,1,-4,-10,-3
1693678213430422000,-3,-13,-5,2,7,-11,9,-41
1693678213442412300,24,17,10,4,0,9,-2,-7
1693678213444412300,-3,-11,-14,-11,0,-15,-4,4
1693678213446411200,11,9,3,-4,-6,10,21,4
1693678213447409300,-19,-7,1,7,1,-15,6,24
1693678213464398800,-3,-3,-6,-10,-15,-13,-13,15
1693678213475393400,12,-4,-4,-4,10,18,-9,5
1693678213480389900,9,-1,-6,-10,-12,-22,2,37
1693678213482390200,-36,-6,2,15,9,-16,7,-46
1693678213483388500,18,13,8,0,-8,-5,4,3
1693678213485387700,10,5,-6,-3,-3,13,27,78
1693678213490386100,-5,-11,-4,-2,6,-27,-11,-45
1693678213492384300,-1,3,-4,-12,-15,-6,-8,-8
1693678213501377500,-9,-5,-2,-6,10,14,0,10
1693678213507375900,-8,-1,-5,5,-14,-17,-9,-12
1693678213510376400,26,0,2,4,4,7,-6,-28
1693678213511373700,16,3,1,-5,-4,-3,1,9
1693678213524368500,-8,-8,-7,2,1,3,4,-33
1693678213527363600,12,6,3,-10,-9,2,-21,-7
1693678213529362500,-4,-4,-6,-4,1,19,-1,-2
1693678213530362800,2,-2,-5,-12,-15,-26,-3,-12
1693678213539359300,-2,-2,-6,7,6,19,3,17
1693678213542355600,-3,3,4,1,5,-37,19,-11
1693678213547353300,-9,1,2,-3,-14,5,-7,13
1693678213549350600,-5,8,4,1,7,-18,-7,-2
1693678213566341400,-9,-8,-11,-13,-1,25,-7,13
1693678213577335200,1,-6,-5,-2,7,23,-2,-8
1693678213579333300,-12,3,2,4,4,-11,4,8
1693678213582332300,5,2,0,-2,3,11,5,-2
1693678213589331300,-5,-11,-15,-12,-11,-20,6,0
1693678213592326100,4,3,6,17,16,51,-15,-7
1693678213594327700,2,1,3,-6,-5,21,-3,5
1693678213596325400,-1,7,4,1,-2,7,-1,-2
1693678213599323000,-3,5,12,20,-4,-36,-6,0
1693678213601320800,-1,-7,-12,-13,-12,34,-7,-3
1693678213608317300,-3,-3,-6,4,29,-1,1,6
1693678213611315000,-1,2,-17,-4,12,24,-3,-2
1693678213624308400,2,11,75,30,-36,-5,0,5
1693678213626307600,1,-9,-17,-22,4,-22,-1,-1
1693678213629305000,-3,3,6,14,-5,14,-1,-1
1693678213631303800,2,1,-3,-5,7,9,-2,-1
1693678213645296100,-9,-14,-31,-17,15,31,29,-2
1693678213647295700,-3,-4,9,18,-1,-19,-14,-3
1693678213649294900,1,8,9,37,-12,0,-13,0
1693678213650294700,-4,-2,1,4,-8,-5,-4,-2
1693678213667285300,-2,-5,-23,-2,44,1,6,6
1693678213670282300,-2,-5,6,-5,-24,-5,8,-1
1693678213675278500,-1,-5,-22,-20,-3,-3,12,3
1693678213678277200,1,-3,-5,-12,22,16,4,1
1693678213682274700,4,3,-8,-2,5,-10,-4,2
1693678213684273200,0,-3,4,20,-17,-16,-4,-3
1693678213689375700,0,0,11,40,1,-18,-3,0
1693678213691371900,-3,-5,0,-2,12,55,-2,-3
1693678213706362600,-1,0,-2,-35,-1,-18,0,2
1693678213710361600,0,-5,-17,31,35,40,7,3
1693678213712358700,-9,-9,-10,-43,-4,-46,-9,-7
1693678213713358700,-1,-1,6,7,-5,24,4,1
1693678213734346000,5,8,11,26,-21,9,-1,4
1693678213739350700,4,8,5,-12,2,-15,12,3
1693678213742343000,-4,-1,-7,-18,6,26,-9,-4
1693678213744341900,-4,-10,-17,14,10,-28,-4,-4
1693678213749337300,2,0,10,-10,-30,12,-8,1
1693678213750336800,0,0,-1,-9,27,1,3,0
1693678213757333700,4,8,20,1,-33,-17,7,4
1693678213759332700,0,-2,-3,-5,-13,26,2,-2
1693678213774324000,-1,-1,-10,-19,8,11,1,0
1693678213777322700,-4,-2,-8,22,1,-45,-8,-6
1693678213778320300,-6,-5,-11,-21,29,13,-2,-3
1693678213779321000,3,9,42,29,-47,-19,-4,1
1693678213791348100,5,4,-1,4,10,20,6,3
1693678213799343500,-2,1,-2,-27,-15,-15,-10,-4
1693678213801341900,-6,-12,-30,-45,2,-16,-8,-5
1693678213806340900,3,11,17,28,-11,-10,3,0
1693678213809338000,-4,-7,-8,5,4,-14,-7,-3
1693678213812335700,0,2,3,-20,-21,10,-9,-5
1693678213813335100,5,6,7,28,-13,-7,11,6
1693678213816334500,2,-10,-10,-27,8,7,-11,-7
1693678213825331300,-8,2,-6,-7,14,-11,-2,-2
1693678213827328400,0,-5,9,3,-16,15,2,3
1693678213829329800,-4,4,8,-31,13,17,7,2
1693678213830326300,-9,2,-2,32,5,-28,-7,-5
1693678213848314400,20,-13,-15,4,-6,56,9,7
1693678213849314700,-14,5,15,23,16,-63,-19,-7
1693678213851315800,5,-6,14,-3,-40,-21,-3,2
1693678213852312700,5,2,-13,-31,15,24,4,2
1693678213862306800,-10,-2,9,18,3,8,-11,-5
1693678213864307100,5,9,7,-2,6,59,15,3
1693678213868304100,-5,-9,-8,28,8,-59,-4,-3
1693678213873302400,-2,-1,-12,2,19,-32,-8,-4
1693678213893254000,-14,-5,-13,-40,-37,-50,-10,-7
1693678213896251400,19,5,-3,-11,24,102,13,3
1693678213898251400,-7,10,19,24,3,-1,-3,3
1693678213899249100,-3,-8,-16,-16,10,-18,18,-1
1693678213908243700,-6,-6,-1,6,3,9,-8,-6
1693678213911242200,6,3,-7,-24,2,-17,0,7
1693678213912241100,-19,-3,3,50,-16,-29,-1,-7
1693678213914239600,21,-10,-3,-12,2,-14,-19,7
1693678213923236200,-3,13,2,-8,-2,19,6,0
1693678213925233500,3,0,11,13,30,4,-4,-2
1693678213929230600,3,-1,1,-8,-30,87,18,2
1693678213930230100,-17,-8,-26,-93,-6,-7,-31,-15
1693678213944223000,-10,-6,-18,77,68,24,-5,0
1693678213946222400,1,1,-4,-84,-69,-5,-1,3
1693678213947222000,9,-2,-11,57,29,63,-11,-6
1693678213949223100,4,20,71,72,-44,62,20,10
1693678213967208600,9,-7,-32,-12,-25,45,3,1
1693678213973207700,18,2,-18,-91,9,-91,-9,-8
1693678213975205000,-28,-13,-12,7,38,75,1,2
1693678213976205400,-1,-3,-15,-24,-7,-24,5,-1
1693678213982201200,-4,1,9,8,4,-9,0,0
1693678213993709800,1,-3,-1,34,-10,-39,4,2
1693678213995721100,4,-10,-8,-45,17,-12,22,-2
1693678213996706900,-3,-8,2,27,1,-20,-5,2
1693678214007700400,15,14,16,-32,-13,-35,11,6
1693678214010698400,-20,-10,-34,-45,18,22,-3,-5
1693678214013696500,12,12,46,74,-36,-67,-23,-1
1693678214014696300,-10,-2,-9,-28,-9,84,11,0
1693678214027689400,3,6,22,27,-41,-82,-13,-5
1693678214029687100,-13,-21,-31,-33,-19,58,7,-5
1693678214031686300,-32,-6,-35,-128,31,31,-13,-17
1693678214032685900,26,5,12,58,-9,-22,5,13
1693678214040684000,-2,4,8,-62,19,-29,4,3
1693678214042681500,-4,4,30,127,-28,38,-5,0
1693678214050675200,11,3,-14,-20,20,-6,5,6
1693678214053673800,-16,-8,-1,-10,-9,-25,-1,-9
1693678214064666700,8,-10,-34,-71,30,14,-1,-5
1693678214070664000,-4,12,10,-6,25,-36,24,3
1693678214081657300,2,5,15,40,-25,5,0,2
1693678214084655400,-8,-19,-67,-107,82,6,4,-3
1693678214090654800,10,18,87,127,-91,-23,-11,2
1693678214093650700,-9,-2,6,-74,-22,-20,-10,-11
1693678214094649600,16,4,-9,-64,-2,26,0,4
1693678214095650100,-6,-2,-12,-44,-4,-1,11,3
1693678214106644000,-9,-8,-32,-46,4,-5,-9,-5
1693678214111640600,0,5,31,86,-21,20,-6,-1
1693678214114638600,2,-2,-16,-34,-13,-46,-9,-3
1693678214116637000,0,5,25,93,6,-18,-2,0
1693678214124632500,-3,-8,-22,30,12,35,-4,-4
1693678214126631400,-2,-5,-9,-37,2,-1,-4,0
1693678214128633000,38,6,-18,-42,46,44,-8,-2
1693678214130630200,-47,-10,0,42,-14,-29,4,-2
1693678214147618900,-14,2,43,31,-50,26,-2,7
1693678214148618800,-1,3,11,59,-4,13,6,8
1693678214150617500,-8,-11,-13,-30,6,-40,-11,-1
1693678214151617200,7,5,4,-26,-11,61,13,-6
1693678214160613800,5,3,-1,-16,3,-96,-49,-9
1693678214162610800,-11,-17,-26,-32,31,22,-5,-4
1693678214173606100,-2,5,16,14,-46,65,27,6
1693678214175604000,20,17,54,94,13,-20,-6,2
1693678214195592400,-5,3,-2,12,36,8,-4,-3
1693678214197591100,9,-4,-25,-128,-10,-39,1,1
1693678214199589800,2,13,56,118,-59,-49,-1,4
1693678214200589200,2,-5,-38,-128,20,40,6,-3
1693678214206586600,5,4,12,26,-16,19,13,2
1693678214208585300,7,22,76,127,26,-29,-4,6
1693678214214580600,-2,-9,-26,-78,9,96,22,3
1693678214216582800,-4,13,58,73,-109,-87,-10,-4
1693678214229573000,16,3,18,59,25,-1,6,4
1693678214231570900,0,0,-12,16,108,20,-2,1
1693678214232570600,-5,-3,-9,15,-64,0,24,-1
1693678214234569300,4,-2,18,41,82,-53,-34,-2
1693678214244565200,-9,-12,-43,-128,4,57,4,-5
1693678214246563300,-3,1,7,-8,-35,-13,-1,-3
1693678214247563200,0,-11,-30,-84,55,-34,-8,-3
1693678214248561600,-1,-5,-34,-115,74,-18,6,0
1693678214267551200,-2,7,27,-38,-6,-8,3,1
1693678214271552400,-1,-9,-34,-64,-53,-4,-3,-1
1693678214273548600,-5,4,18,30,-23,51,-5,-2
1693678214275546300,-8,-26,-87,-128,37,-1,-14,-5
1693678214283541700,14,30,93,76,-46,-11,22,10
1693678214285540600,-1,-6,-22,-128,-6,-20,0,-4
1693678214296534200,-3,-6,-25,-34,10,-75,-18,-6
1693678214298534100,10,18,64,55,-69,23,8,6
1693678214308527900,-9,-11,-46,-80,23,26,0,-6
1693678214310526400,1,-3,-22,42,24,3,-1,1
1693678214312526600,-4,-4,13,-11,-17,11,-3,-1
1693678214314525700,9,15,44,53,32,32,6,6
1693678214328516300,-7,-16,-43,-52,9,-3,22,-2
1693678214332515300,11,25,87,77,-46,-16,-10,2
1693678214334512100,9,20,55,71,-49,19,-3,4
1693678214338510900,-10,-21,-68,-97,82,93,-9,-8
1693678214342508000,-7,-9,-9,12,-30,-68,-17,-12
1693678214344508000,-1,-3,-14,15,92,29,-15,-2
1693678214357500300,-3,-12,-35,-31,1,29,1,4
1693678214359499800,1,2,4,33,-49,-27,-4,-1
1693678214364495600,0,-1,-21,-54,83,17,37,1
1693678214366494100,-8,-17,-48,-92,-33,-61,-12,-4
1693678214368493800,5,13,28,7,19,52,1,1
1693678214373490500,-17,-18,-47,-102,-58,-82,-37,-16
1693678214397476000,-7,-20,-88,-128,13,34,4,4
1693678214398476000,10,25,60,70,6,14,30,10
1693678214400475800,-3,-15,-43,-10,110,-13,-28,-5
1693678214401474000,8,10,4,-41,-2,28,22,4
1693678214407471100,-3,-2,12,-20,-45,-2,-10,-3
1693678214410469100,-22,-38,-83,-128,86,14,-13,-15
1693678214412468700,14,23,32,-39,-42,23,16,9
1693678214413467900,-2,-5,-11,-35,0,8,4,-2
1693678214424462900,-9,-13,-35,-102,28,20,-22,-6
1693678214426460600,3,-2,-13,-17,-74,35,11,4
1693678214432455800,-4,-3,12,-58,64,-11,14,2
1693678214433456000,5,8,11,-13,-85,-103,-19,-2
1693678214447447700,-8,-13,-26,-21,48,32,25,-3
1693678214448447300,-2,-7,-44,3,27,55,-2,-4
1693678214450446300,1,4,16,-34,25,-34,-5,2
1693678214451446500,1,2,14,30,-41,-20,2,0
1693678214460439800,-2,-6,-2,87,-81,29,-1,2
1693678214462439700,-11,-11,-48,-79,65,0,-11,-8
1693678214473434800,1,3,-7,-7,2,-48,-7,-4
1693678214475431900,1,-4,-30,-70,52,46,21,4
1693678214488424900,-6,-12,-36,-83,60,35,-17,-2
1693678214494420600,11,27,89,23,-128,-38,0,5
1693678214496420700,-3,-10,-33,-78,9,-86,3,-3
1693678214497419100,-1,-1,-3,-33,1,62,-3,-1
1693678214507413000,4,8,20,20,7,-27,-17,-1
1693678214510413200,-2,-4,18,63,13,11,-1,1
1693678214511411600,-13,-11,-18,29,-29,29,0,-9
1693678214513412000,10,18,61,127,-77,0,11,11
1693678214523404800,2,3,20,-10,3,-26,0,2
1693678214524405300,0,-11,-30,-33,-3,17,19,-3
1693678214529400400,1,2,-3,-53,-31,1,-10,-3
1693678214531399800,-1,2,35,89,22,22,-4,0
1693678214544392400,5,19,25,122,-30,-38,-11,0
1693678214546391000,1,-1,8,-9,-9,-9,8,-2
1693678214551387900,-2,-9,-32,-46,6,30,3,0
1693678214555390700,-8,-12,-31,-51,28,2,-9,-5
1693678214567378900,0,-2,4,-32,5,-1,12,1
1693678214572382800,6,8,14,22,46,2,-8,2
1693678214575375600,-1,1,7,16,-29,-22,-4,-2
1693678214577373300,-4,-4,-14,-42,15,16,3,0
1693678214590370100,6,3,24,29,-5,5,3,4
1693678214593364400,-5,-10,-26,-34,0,-22,-10,-3
1693678214596361700,-3,-6,-8,1,14,20,-2,-2
1693678214597361100,1,-1,0,-11,-13,-9,3,1
1693678214606357800,0,2,1,-5,1,-6,-5,-1
1693678214608355900,1,4,0,-9,-21,5,4,-5
1693678214610355800,0,-2,-1,17,10,-13,-30,0
1693678214611354100,1,3,2,-1,-6,-5,1,3
1693678214627344300,-3,-4,-9,5,2,6,5,1
1693678214629343400,1,1,4,-8,-6,11,0,3
1693678214631342400,2,5,10,16,-1,-3,3,-4
1693678214632341600,-3,-6,-17,-21,9,9,1,-2
1693678214649331800,-2,1,3,-9,7,19,-5,-15
1693678214660329100,0,-2,1,-11,-18,1,-2,21
1693678214664323500,1,-2,-1,18,2,-18,3,18
1693678214668321000,2,-2,-4,-7,1,-17,-3,-12
1693678214678318000,-2,5,8,8,2,-23,5,13
1693678214681314100,12,3,6,6,-10,-17,-3,-7
1693678214701307900,-18,-8,0,4,2,-19,12,-5
1693678214710296700,3,4,-2,-7,5,-19,0,-9
1693678214778257900,10,4,6,6,-3,-14,-21,0
1693678214780257100,-6,-4,-6,-9,-2,5,4,-3
1693678214785254700,1,3,2,-2,3,23,-4,6
1693678214793252900,-9,-4,-2,2,-2,27,18,-85
1693678214796248300,15,3,-3,-8,-1,39,17,75
1693678214798246800,0,2,3,-7,-9,-1,-19,-46
1693678214801245200,-13,-10,-1,19,2,11,20,51
1693678214810241600,-2,5,4,-1,-2,16,4,21
1693678214813238800,-12,-4,-3,0,1,13,-1,-14
1693678214815237600,39,2,3,1,0,3,-10,50
1693678214818236000,-32,-9,-9,-10,-4,-5,-10,-54
1693678214836226000,6,-9,2,1,5,-2,0,13
1693678214842222900,-71,-2,0,0,0,-11,3,-11
1693678214845221100,54,9,-3,4,-4,-3,8,25
1693678214848218300,21,1,4,-2,1,-9,-2,-30
1693678214850218000,-50,0,-3,-1,-3,-4,-36,-27
1693678214855214900,73,6,-2,-4,-2,-7,17,43
1693678214860211500,15,2,0,0,-2,-6,-26,-15
1693678214863209500,13,-1,-6,-4,0,1,17,18
1693678214866207900,26,0,0,2,0,-3,3,-6
1693678214868206300,-26,-5,5,1,-1,-2,-9,-32
1693678214875203500,-64,-3,1,0,-2,-2,-5,-41
1693678214881199900,36,-6,-5,-2,2,0,2,33
1693678214883198700,4,-5,-5,-9,-6,-6,8,56
1693678214885198000,37,22,-1,-3,-1,-6,-4,8
1693678214892193500,-4,-4,0,2,1,-2,17,2
1693678214895191700,-25,-3,-2,-4,0,-3,-15,-35
1693678214896205600,1,-1,-2,-1,-2,-4,-16,-6
1693678214897196300,-14,-8,1,5,0,-1,2,-5
1693678214898196200,-3,-4,-1,0,-1,0,10,-7
1693678214899195000,-3,-3,-1,-4,0,-1,-14,-7
1693678214900194300,-18,-5,0,-2,0,1,32,14
1693678214901193900,11,-13,-13,-6,-6,-7,-16,-23
1693678214906193300,-23,2,6,6,-1,0,4,4
1693678214909189500,-3,1,5,-1,0,-1,-4,0
1693678214911190000,-4,9,2,-2,1,-1,6,13
1693678214913188400,-19,-12,-6,-7,-4,1,7,-17
1693678214914186400,-6,-8,0,-5,-3,-4,-14,0
1693678214916185000,-1,3,-4,-1,0,1,8,5
1693678214918185500,21,1,-1,1,2,2,0,4
1693678214922186500,-7,2,7,2,-3,-1,-8,-12
1693678214924182200,-6,-2,-7,-1,1,0,-9,4
1693678214926178900,6,6,1,-2,-1,1,0,-2
1693678214927178700,-6,-3,-5,0,-2,-1,-7,1
1693678214929178500,-10,-1,-1,-11,1,5,5,-6
1693678214930177000,-1,0,0,7,-4,0,9,4
1693678214932177700,-7,1,3,-2,-1,-4,-9,-3
1693678214934176600,6,0,-7,-18,-2,-3,13,-1
1693678214938173000,14,1,2,32,5,-5,-29,-1
1693678214941174300,-15,-3,-3,1,9,0,2,-2
1693678214944171600,6,9,8,3,-4,0,0,0
1693678214945169700,1,-1,-5,-3,-4,2,-2,6
1693678214950165600,2,0,-2,-6,-1,-1,4,-5
1693678214956163300,-4,-3,1,-3,0,3,1,-1
1693678214959160700,-3,-1,-3,7,2,2,0,-1
1693678214961159600,6,1,0,2,-4,-3,-6,2
1693678214964157500,-5,-5,-7,-36,-3,-2,1,-4
1693678214966156400,-6,2,12,45,3,-2,6,1
1693678214972154100,5,0,-3,-10,-2,3,9,0
1693678214974151700,0,-1,2,7,-3,-7,-28,-3
1693678214993143000,-3,0,-4,-13,1,1,8,0
1693678214996139500,0,-1,-4,-16,-1,6,-6,-2
1693678214998138400,1,1,-1,4,1,-12,-1,-2
1693678215001137100,5,1,3,2,-1,-28,-3,0
1693678215012130500,-5,-5,-1,12,5,5,-1,0
1693678215015129100,-1,3,-2,-13,-5,-5,14,2
1693678215017128800,-3,-2,5,6,-2,0,-34,-4
1693678215022126700,9,0,-2,-2,2,8,1,2
1693678215049108600,0,1,3,6,5,-3,2,-7
1693678215051108600,-5,-5,-7,-7,-4,0,0,-1
1693678215056106600,-2,-7,-10,-8,-1,8,11,17
1693678215059103800,-5,5,4,2,0,-5,-6,-2
1693678215061103000,4,1,1,4,-6,0,0,7
1693678215064101000,1,-2,-7,-19,0,5,0,-16
1693678215067099700,-4,4,6,11,3,17,1,-6
1693678215071096500,-3,-5,-2,-2,-4,-46,-1,1
1693678215076093900,2,5,4,7,-1,-1,4,-9
1693678215078093200,6,-2,-3,-8,-2,0,-3,7
1693678215082091700,-14,-4,-2,1,5,-9,7,-3
1693678215084088800,1,2,2,1,2,31,2,-2
1693678215094082800,-11,-6,-3,-5,-7,-26,-47,-16
1693678215098594100,7,2,1,5,5,-13,18,0
1693678215100593400,-2,-3,-7,-8,1,75,-9,51
1693678215103594000,-2,-2,-2,-1,-1,-31,-12,-14
1693678215108588200,0,-6,-4,-8,-14,-1,-4,-49
1693678215111587300,31,-7,2,12,15,37,-1,37
1693678215114584600,-64,1,1,-1,-10,-53,14,-107
1693678215116585000,3,-4,0,-7,-9,24,-15,105
1693678215146566900,-64,9,-5,-16,-16,-7,11,-25
1693678215149565300,-22,-46,-6,0,2,-7,-22,77
1693678215153563900,-51,-16,-16,-20,-23,-65,10,-23
1693678215158559800,-89,13,2,10,12,-3,19,1
1693678215161558300,92,30,11,2,3,16,2,7
1693678215164555800,-18,10,8,6,-3,19,0,-29
1693678215166555900,-21,-17,-8,-6,-3,-27,9,34
1693678215172552200,-1,-15,-2,1,19,34,-3,-66
1693678215175550300,-88,-20,-11,1,6,60,11,17
1693678215178549000,43,9,-1,1,9,61,-5,-59
1693678215180547800,-47,-8,7,8,7,22,-1,-6
1693678215184545300,-58,-21,-6,-5,-13,-40,-20,-93
1693678215192540000,19,12,1,1,4,49,24,-42
1693678215195538200,-69,4,-5,-8,-9,-55,-5,14
1693678215198537300,42,19,7,6,9,0,-15,14
1693678215204534500,63,-7,-10,-10,-10,3,-18,63
1693678215211529400,-48,-23,2,7,5,-65,-15,15
1693678215214527800,-7,-17,-4,3,3,-16,9,-7
1693678215229457900,85,68,2,-15,-19,-12,-10,-39
1693678215231457400,-1,-11,4,12,-6,-26,-9,11
1693678215233455900,-39,-37,-1,1,0,6,1,2
1693678215239457900,42,22,1,-4,-3,-10,11,96
1693678215242450700,-94,-24,-4,0,6,-8,-28,-97
1693678215245449800,57,11,-6,1,6,12,21,12
1693678215250445700,8,-11,12,10,1,0,11,43
1693678215255449000,-6,40,-2,8,16,13,13,-1
1693678215262438700,-17,-60,-6,-4,-9,34,55,37
1693678215266436800,-29,17,-2,-5,9,35,3,-102
1693678215290423600,80,39,3,5,3,-12,-18,-2
1693678215295420700,-25,-24,0,-4,1,-9,2,-128
1693678215298419200,24,11,-9,-6,-20,-37,-49,-46
1693678215301417100,-64,-5,-7,-14,-21,19,32,37
1693678215307413800,39,-12,-5,7,15,14,8,-19
1693678215310412000,-18,-8,-3,-8,-4,3,-6,-42
1693678215312411400,94,16,3,0,5,14,-24,97
1693678215315408800,-9,6,7,1,11,27,12,-75
1693678215317407700,-18,3,0,-4,-8,-3,-8,20
1693678215323404600,4,12,0,8,9,83,-14,2
1693678215326403800,-34,-20,-7,-10,-18,-89,1,86
1693678215328401700,18,-2,-4,-2,6,27,-3,0
1693678215330400400,4,9,-7,-9,1,33,17,11
1693678215333398800,28,-3,6,10,8,-58,-2,8
1693678215336397600,34,1,10,-1,-11,-6,-13,-40
1693678215339396100,20,9,2,6,9,13,-4,2
1693678215347390500,-10,-4,4,0,-10,-13,-8,8
1693678215350390000,-71,-7,-11,-12,-14,-22,0,25
1693678215354388600,56,2,3,-3,3,27,15,-41
1693678215357387900,-49,-9,2,9,10,-28,3,-16
1693678215374375600,-35,-9,-1,5,10,-12,7,-16
1693678215376373900,22,1,0,-8,-22,-30,-13,-14
1693678215379371900,-20,-8,-8,7,26,22,2,-22
1693678215382372800,23,-2,-1,-1,-4,18,-4,17
1693678215384371700,5,6,2,-7,-16,-19,-10,-8
1693678215387368000,-9,-5,-3,0,3,-2,11,-13
1693678215398361000,-7,4,9,14,15,18,-2,3
1693678215400360300,37,5,9,2,-8,13,11,35
1693678215407356700,-15,-1,-11,-24,-36,-72,-15,4
1693678215410354100,7,-2,-3,0,-4,5,2,20
1693678215411353700,-6,6,1,0,7,25,12,14
1693678215413352400,9,-12,-4,-10,-5,-12,-7,5
1693678215431348600,-23,-1,-10,-6,5,2,-1,48
1693678215432348700,7,2,-3,-9,-16,2,7,-29
1693678215435348300,-19,-8,-2,4,13,12,23,2
1693678215440347000,-7,21,10,14,-9,-25,-22,-12
1693678215443342100,33,-4,-5,2,15,60,16,14
1693678215445339900,-4,-4,-1,1,2,23,-11,9
1693678215456337100,-5,-11,-14,-3,14,15,6,-4
1693678215458332500,1,3,4,12,9,17,9,19
1693678215467328200,7,10,2,-5,-14,16,5,-1
1693678215472327700,2,11,23,36,34,58,0,4
1693678215474324500,9,13,-10,-15,-10,-15,7,7
1693678215475323000,7,2,39,21,6,22,0,12
1693678215489317100,4,0,-1,-13,-13,-52,-15,-15
1693678215491313800,8,-2,1,0,3,-10,0,-11
1693678215493314400,-2,1,-11,-7,-17,-13,-3,9
1693678215495314000,-6,-13,-40,-25,9,0,-5,1
1693678215508304200,-1,-4,-21,-46,-7,5,11,-12
1693678215514301800,0,6,13,42,33,-30,-16,10
1693678215516299700,12,17,20,-43,-50,-3,13,12
1693678215518298400,6,3,-8,-3,-3,40,-24,6
1693678215527292900,-9,-9,-9,14,-4,-2,0,-8
1693678215529293700,-9,-21,-40,-61,-12,12,-11,-5
1693678215532291000,1,-1,-6,-6,-19,-5,-7,2
1693678215533290700,4,-5,-10,-28,5,25,13,-5
1693678215549280000,-4,-7,19,20,5,-22,-4,-11
1693678215553279000,2,-2,-10,-1,-22,3,2,7
1693678215556278400,-6,-6,7,41,38,59,3,-2
1693678215558277200,-6,-10,-26,-26,-29,-53,-4,-1
1693678215573268100,3,1,12,-13,7,29,-4,-3
1693678215575265500,1,4,11,20,-3,-46,2,1
1693678215577265600,5,6,11,-13,-16,-27,1,5
1693678215580263300,-4,-12,-23,6,17,1,6,0
1693678215597254200,1,-2,-14,10,-1,4,0,-4
1693678215599252400,4,4,13,-24,-26,45,6,-1
1693678215600251600,-2,-4,5,16,3,-57,-3,1
1693678215604249800,-5,-9,-6,16,-11,-14,-6,1
1693678215610246300,6,6,7,15,13,25,6,-1
1693678215612246500,-1,2,8,-7,0,-12,3,2
1693678215613245300,-4,-6,-9,15,22,-14,-14,-2
1693678215615244400,6,0,4,-18,-22,-12,1,-1
1693678215631745000,-12,3,4,8,-2,-18,-7,-4
1693678215634742200,8,0,-12,-2,7,0,4,-26
1693678215638742400,-16,-2,6,8,16,20,-6,53
1693678215640739200,-18,10,15,18,13,-6,-2,-21
1693678215646736600,67,30,7,-4,-13,15,5,37
1693678215647735200,2,-6,-7,-9,-12,-25,-3,2
1693678215656730600,2,2,-3,-8,15,69,10,-18
1693678215658729200,2,0,22,-9,11,-66,-11,4
1693678215676717900,-19,1,14,38,-26,5,4,-15
1693678215682714600,2,4,8,10,11,11,-6,-46
1693678215683716600,19,2,0,4,-8,-20,17,21
1693678215685713300,-4,-1,-16,-15,10,5,6,2
1693678215692709300,-9,-5,-2,-19,14,-1,1,-17
1693678215695706900,1,6,12,16,-9,-20,-3,25
1693678215697706600,-9,-6,-6,1,10,6,-3,-23
1693678215698705800,6,-6,-30,-21,8,6,6,3
1693678215706701000,-12,-9,12,45,-9,-3,-5,3
1693678215708700200,1,5,7,4,-13,8,1,19
1693678215713697200,0,7,-1,-4,-4,-25,-16,-14
1693678215714698100,1,2,11,8,-16,21,2,1
1693678215730695500,-1,-9,-32,-43,41,28,21,6
1693678215732694900,-11,-3,-7,3,14,63,-18,-5
1693678215734697500,3,7,32,17,-41,11,-3,-10
1693678215737692400,3,-3,-3,11,16,-8,-2,4
1693678215760679300,-1,3,9,1,4,26,12,-1
1693678215762677400,-5,-11,-18,-15,-5,-36,3,5
1693678215765675600,-7,-14,-41,-71,66,85,1,-1
1693678215767674500,4,10,57,76,-89,-38,-4,2
1693678215772679000,-3,3,-6,-10,2,0,-7,-4
1693678215776669200,1,-4,-9,-25,-28,-34,5,7
1693678215778667800,-1,-1,-15,-21,1,-11,-6,-7
1693678215780666600,1,-7,-23,-18,14,61,10,1
1693678215790660700,-8,-3,-11,-78,49,-33,-7,-10
1693678215792660900,7,12,40,100,-51,-16,-7,8
1693678215795658700,4,3,37,67,-11,36,6,1
1693678215797657500,0,3,-2,-26,10,-18,-8,-4
1693678215812649000,-9,-13,-34,-61,44,55,1,-5
1693678215814648800,-5,-6,4,-18,-33,16,10,4
1693678215817645500,0,5,-3,-30,31,-2,-8,-4
1693678215821645500,-2,-2,3,28,-31,-87,-13,-2
1693678215825642200,-4,-12,-24,9,3,-23,0,-1
1693678215827642400,-5,-6,-26,-56,87,1,10,2
1693678215837634300,2,6,51,37,-100,31,-22,-8
1693678215840634900,-3,-6,-19,-80,42,-17,-2,-2
1693678215854626000,-2,4,14,-33,-43,-52,-8,-3
1693678215864618800,-5,-11,-29,80,-18,76,7,0
1693678215867617400,3,0,-14,-73,-4,-2,16,6
1693678215873614000,-18,-18,-40,-89,-16,1,-49,-24
1693678215876611800,13,14,38,87,35,-89,23,12
1693678215878612400,-11,-17,-48,-75,127,115,-27,-12
1693678215880610500,8,17,70,26,-89,-118,2,5
1693678215882608500,4,10,-12,-59,44,-14,11,-2
1693678215888612000,8,5,-25,-77,14,68,52,16
1693678215890603900,4,16,51,81,-111,-106,-48,-9
1693678215894601700,-3,-8,-22,-14,-11,98,-17,-9
1693678215897600200,6,11,25,2,26,-28,2,5
1693678215909592700,-6,0,39,70,-50,85,-23,-8
1693678215912590900,-4,-4,-6,-83,-59,-75,-2,0
1693678215914591200,16,24,-13,-92,57,-22,42,22
1693678215917054800,-16,-36,-64,11,69,98,28,-5
1693678215932007600,26,34,84,55,-74,65,8,16
1693678215934005800,-22,-30,-64,-93,31,14,-5,-8
1693678215937007400,-14,-13,4,-7,-83,-79,-34,-20
1693678215941004600,16,10,12,7,77,26,31,17
1693678215955993600,-31,-19,-25,-19,-26,33,5,-7
1693678215957992100,8,-1,-28,-128,46,-24,-15,-9
1693678215959993000,16,30,52,122,-35,-94,-3,14
1693678215961990400,-3,-11,-40,-73,93,113,9,0
1693678215975982900,-2,-4,12,-77,-15,-69,-27,-8
1693678215977983200,2,12,75,82,-77,-15,21,7
1693678215980979600,-13,-24,-82,-72,115,30,26,1
1693678215982978600,-13,-26,-84,-87,20,32,-39,-16
1693678215991973000,22,52,82,73,-96,21,5,10
1693678215993971700,-4,-8,-33,-61,94,9,16,3
1693678215995969800,-6,-18,-39,35,82,66,7,-6
1693678215996969500,-11,-17,-25,-6,-22,116,-14,-6
1693678216005964400,-11,-32,-84,-48,99,-70,-22,-13
1693678216008963100,7,14,36,66,-32,66,6,6
1693678216014959100,-6,-14,-23,-79,40,45,18,-1
1693678216017130200,3,16,58,58,-78,-73,-38,-7
1693678216030107500,-11,-21,-34,-54,10,80,-38,-21
1693678216033105000,-3,-10,-27,-27,-20,-42,-17,-3
1693678216036103100,-22,-37,-62,-103,15,15,-28,-14
1693678216039100800,25,48,110,83,-128,17,34,23
1693678216057090800,4,6,27,79,-1,-52,-23,-2
1693678216059089400,8,8,6,64,-26,-65,39,14
1693678216061090400,-3,1,21,41,-60,97,-10,-8
1693678216064087000,-6,-10,-37,-45,16,-81,-6,-3
1693678216067086300,3,16,71,49,-113,56,10,3
1693678216074081800,-2,-7,-42,-128,13,127,25,6
1693678216078078900,3,13,26,25,-45,14,-20,-7
1693678216081076200,2,6,14,-1,64,1,20,6
1693678216090071800,-10,-23,-48,39,-18,-76,-30,-10
1693678216093069700,-8,-6,-17,55,6,24,-6,-6
1693678216096069700,1,-1,-32,-119,25,-122,-3,0
1693678216098068900,-11,-29,-76,-119,3,99,1,-4
1693678216122706900,19,30,41,-21,-37,-55,26,11
1693678216125706800,5,5,-7,-85,39,-2,-2,-1
1693678216127704700,-3,-10,-31,-11,-18,54,9,4
1693678216128706600,4,18,70,21,-118,27,-4,2
1693678216130702600,-4,-8,9,54,28,-52,-1,1
1693678216132700900,-9,-20,-58,-11,37,91,21,-5
1693678216134703200,22,38,80,121,-74,-57,7,11
1693678216139698000,5,10,25,-33,44,44,7,2
1693678216164682500,-10,-26,-92,-128,42,8,2,-5
1693678216166680700,-2,7,31,-92,-56,-50,-15,-3
1693678216170680500,1,7,51,101,32,-6,10,4
1693678216174677900,-5,-8,-21,-71,1,-128,-16,-6
1693678216177679000,3,7,24,54,-4,47,6,0
1693678216179675600,6,8,20,-103,-5,-4,19,7
1693678216180674000,-19,-30,-74,-93,-14,-14,-38,-19
1693678216181672300,6,8,17,51,-11,67,31,11
1693678216189669100,0,-6,-18,0,85,-8,-4,-1
1693678216191670200,-1,3,11,126,16,-7,-6,2
1693678216195667100,0,5,5,9,43,-48,-4,0
1693678216197664800,-2,-6,-18,-28,-25,15,6,1
1693678216209656300,1,1,-1,67,28,20,-2,-1
1693678216212654800,-1,3,7,30,32,-44,-11,0
1693678216213654500,6,11,14,25,10,-42,8,2
1693678216215655500,2,-1,-1,27,-6,-77,-14,-1
1693678216232642700,-8,-10,-32,-51,13,27,-8,-4
1693678216233642900,3,8,31,27,4,-2,-6,0
1693678216238651700,-5,-11,-22,-34,-5,42,-2,-1
1693678216240640700,1,7,20,42,14,-19,2,0
1693678216245636100,-2,-8,-24,-71,10,11,1,-2
1693678216247634500,-1,-4,-8,-35,-26,8,-2,0
1693678216264626300,-2,-7,-7,-13,21,34,4,0
1693678216267623700,1,1,6,28,-17,3,-2,-1
1693678216275620400,-2,-4,-6,-9,5,5,2,-4
1693678216277618500,0,0,-3,10,-7,-11,-3,-2
1693678216280615700,1,-1,-11,-17,16,17,3,1
1693678216281617200,2,6,16,17,-9,-53,-2,2
1693678216292608800,-5,-7,-17,-26,5,39,18,-3
1693678216294610100,3,4,4,5,-4,3,-7,-1
1693678216296608800,2,4,5,-4,12,31,-2,-2
1693678216298605700,0,2,12,26,-1,12,1,0
1693678216306602300,-3,-7,-12,-15,6,-9,7,1
1693678216309601900,-2,4,6,14,-12,-3,-1,-4
1693678216316597100,3,0,1,3,2,0,4,3
1693678216323595300,-3,-5,-6,-4,-9,-16,-5,-5
1693678216357572400,1,1,-3,-9,6,-24,-7,2
1693678216359571300,2,3,6,11,-2,-4,3,1
1693678216362569800,-3,-1,-5,-11,-1,5,2,0
1693678216365570100,-3,-6,-3,0,1,11,-8,-3
1693678216367566300,-1,-1,-2,-10,1,19,-4,0
1693678216371564600,-1,2,2,5,1,12,-12,0
1693678216374563400,-6,-11,-4,-1,-3,14,6,0
1693678216377560600,2,5,2,2,-9,13,4,0
1693678216406545300,0,2,-2,3,4,14,-3,1
1693678216409543400,3,4,2,4,0,18,3,1
1693678216411542500,-4,-4,-2,-9,2,26,-1,-1
1693678216413540700,2,4,3,5,1,13,0,0
1693678216416541400,-4,-3,-3,-6,2,9,-8,0
1693678216419537000,0,-4,-4,0,-6,-37,12,-14
1693678216422541000,-9,-1,-4,-11,-6,5,-39,7
1693678216425532900,5,0,0,4,-4,-18,2,31
1693678216427531900,3,1,0,-5,3,-11,4,-1
1693678216429533700,1,-1,1,6,-1,-9,2,9
1693678216449520200,-1,-1,-1,-4,0,-14,15,-17
1693678216452518900,-1,-4,-2,-3,-1,-1,2,-10
1693678216456516900,-5,1,-2,-7,-3,0,-26,-26
1693678216458515800,-13,-7,0,6,-1,-2,-4,16
1693678216471507700,15,9,5,5,6,9,19,11
1693678216475504800,2,-1,-1,-2,-1,2,-14,-11
1693678216477504400,-22,-1,6,0,2,-8,12,2
1693678216479502700,5,-4,-4,-3,-3,-1,-15,-12
1693678216481501700,-5,-3,-4,-5,-3,-2,17,3
1693678216483501300,-4,0,2,3,0,-2,-28,2
1693678216491495600,-3,-3,-5,-3,1,-5,2,-5
1693678216493495900,6,4,2,3,0,0,1,0
1693678216495494100,-1,3,2,-9,-3,1,7,10
1693678216497493700,-3,-4,-2,-2,-1,-1,-1,-9
1693678216500490500,6,4,-3,0,0,-5,-3,2
1693678216503489800,-2,2,4,-1,1,4,-1,4
1693678216506487700,0,-13,-15,-13,-3,-6,-2,-7
1693678216508487100,-4,8,5,5,1,-1,15,-7
