timestamp,EMG_s0,EMG_s1,EMG_s2,EMG_s3,EMG_s4,EMG_s5,EMG_s6,EMG_s7
1693678238727929200,-1,-2,0,7,8,-4,-1,-1
1693678238734928800,-3,-4,-8,-8,-3,2,-1,-1
1693678238735926500,1,1,7,12,13,1,0,-1
1693678238737924100,1,2,-1,-10,-37,0,1,0
1693678238738923600,-1,-1,0,7,40,9,0,-28
1693678238739924700,1,0,-2,-16,-93,-18,1,37
1693678238741922800,-1,1,0,7,-3,1,1,-1
1693678238742921600,-5,-7,-20,-1,65,0,-4,1
1693678238743920500,0,1,-7,-19,0,-4,-1,-5
1693678238744920400,1,0,6,4,-2,2,-2,-12
1693678238745918100,-1,-2,-12,-32,2,15,2,2
1693678238748917800,-2,-2,6,15,-21,-31,-3,-3
1693678238750919800,1,2,-7,33,2,5,3,7
1693678238751915500,2,6,20,-15,83,0,-2,-7
1693678238760908900,0,-1,1,-3,30,2,-2,0
1693678238761909400,-2,-2,-8,-16,-11,4,-1,-5
1693678238777903100,0,0,-2,4,23,13,2,8
1693678238778921800,-1,-5,-24,-25,-20,0,1,-3
1693678238783897200,-2,2,25,32,-97,-26,-4,-5
1693678238784919000,0,-2,-2,-4,68,10,0,-2
1693678238800890000,-2,-2,10,4,-87,-8,-2,5
1693678238802888600,-1,4,-12,-10,44,10,-1,-5
1693678238806883300,3,2,24,-3,7,-29,3,2
1693678238807900600,-7,-9,-61,-65,-80,22,-4,-4
1693678238808904700,0,4,51,64,-11,-33,-4,5
1693678238809903500,-9,-26,-115,-106,12,17,-3,-11
1693678238828892500,7,30,88,117,41,11,3,5
1693678238832872300,0,-5,-20,-17,-21,-6,1,0
1693678238833871100,-5,-15,-42,-7,31,-1,-6,-3
1693678238834870400,-1,-11,25,47,-59,-13,1,-1
1693678238852860600,-12,-18,-128,-9,90,36,-9,-7
1693678238853859600,14,32,35,-20,-87,-43,8,8
1693678238858875300,10,27,59,27,15,-1,4,7
1693678238860868400,-2,11,28,-20,-30,-49,-3,-3
1693678238881844500,5,-1,15,22,-46,-32,2,1
1693678238882864800,-3,-1,35,28,2,71,-4,-5
1693678238906826600,-12,-30,-89,-15,9,12,0,-5
1693678238909284300,-8,-34,-109,-109,97,84,17,-1
1693678238909284300,11,35,59,87,-70,-69,-10,2
1693678238910283200,-1,-3,-45,-83,-9,38,20,5
1693678238912279000,-9,-37,-73,-87,49,-23,-15,-7
1693678238914279500,1,10,1,102,73,-2,-28,-5
1693678238916285900,-2,-8,-75,-43,7,-4,-3,0
1693678238917276500,-31,-77,-107,-89,41,38,28,-19
1693678238926293100,28,65,127,74,-7,-36,4,16
1693678238927270900,-3,-7,-23,-89,-13,22,53,5
1693678238928274000,-15,-40,-113,-94,6,11,-34,-9
1693678238931270000,23,59,127,125,-58,-58,6,6
1693678238935269300,-8,-20,-16,88,-18,0,-4,-1
1693678238936287600,7,40,74,-33,-34,-52,-13,-5
1693678238948259500,-7,-14,-40,-75,-22,1,8,0
1693678238950256900,12,35,53,88,-48,46,92,15
1693678238957253300,-8,-23,-117,-42,50,8,-77,-3
1693678238958254100,6,18,33,-4,-33,-39,-10,-7
1693678238972245600,-5,-4,-5,-19,64,-17,-11,-9
1693678238973246000,0,-4,6,-95,11,-1,-65,-1
1693678238987237800,-3,-9,-74,-89,11,22,40,-2
1693678238988236300,-5,-5,22,94,-25,-12,-24,1
1693678239002238200,0,-7,-26,-14,40,50,10,0
1693678239004226900,-6,-10,-31,15,-11,-30,-2,-4
1693678239006226700,11,24,46,3,-12,7,12,5
1693678239007225500,-5,-22,-52,-44,-5,12,20,0
1693678239025215400,3,8,51,46,-14,11,24,3
1693678239031216100,3,7,-6,13,27,-2,-17,3
1693678239033222000,-1,9,37,-6,-29,11,14,-2
1693678239034221100,-2,-4,-3,3,-16,-13,-3,-3
1693678239038207400,6,7,31,27,-6,3,-7,0
1693678239040213700,-1,-2,-7,-15,13,-11,-24,1
1693678239048202200,-5,-3,0,-14,3,-2,4,-4
1693678239050200300,-3,-6,-5,12,-23,0,-10,-3
1693678239054197900,4,7,14,0,0,-4,5,5
1693678239055198100,0,-13,-38,-28,17,5,8,-2
1693678239061198100,-2,6,31,20,-13,4,16,-1
1693678239062192900,9,9,14,12,-2,-11,-50,4
1693678239077187500,-9,-5,5,-9,-11,0,-12,-10
1693678239078184400,-17,-1,-8,-1,8,-15,-17,0
1693678239081186900,40,8,19,10,-9,5,45,6
1693678239083185400,-3,2,-2,-4,-5,-2,-38,-1
1693678239100171700,5,-3,-3,-4,9,11,14,3
1693678239101170500,-79,-16,-10,1,-2,-3,-10,-22
1693678239103169700,62,8,6,-3,-10,3,10,5
1693678239104169100,-25,-7,-14,-14,-2,-16,0,8
1693678239116165600,12,-1,5,6,-6,1,-8,0
1693678239117165500,16,7,6,6,9,6,1,4
1693678239121159800,-47,-5,8,-2,1,8,2,-10
1693678239122159200,-1,-6,-10,-8,-10,-6,6,-8
1693678239138152900,33,7,-4,24,5,4,4,13
1693678239141147900,-3,9,17,-11,-2,-3,-2,-4
1693678239142166600,-13,-3,2,3,4,7,43,10
1693678239143168900,27,0,1,4,-7,-7,-40,-3
1693678239160139800,-38,-4,-3,-1,-1,-2,19,-4
1693678239161138800,18,-11,-22,-13,1,-7,-44,-11
1693678239163134800,22,9,11,2,-2,-5,-10,5
1693678239166134400,-13,-5,-1,5,1,10,44,-6
1693678239173131900,11,9,14,2,-4,5,12,14
1693678239175128500,28,-5,-4,4,5,-1,8,-11
1693678239183124700,-34,-3,-6,-19,-6,2,-16,0
1693678239185123600,-11,3,3,9,4,2,9,6
1693678239205113600,-80,-11,1,-5,5,1,2,-16
1693678239206116700,79,12,1,-1,-2,-13,-62,-12
1693678239208035300,-32,-2,-9,-5,-5,-9,-6,28
1693678239209043600,-33,-5,-3,2,4,10,19,10
1693678239228010800,30,1,4,-7,-3,11,8,-6
1693678239232008400,28,5,-2,8,0,4,24,16
1693678239234007300,27,0,2,3,-1,4,-6,-23
1693678239236007500,-37,-18,-10,-7,-2,-14,-22,-6
1693678239237005200,-20,-1,2,-5,-5,-7,-6,-17
1693678239241005600,-55,3,-1,4,2,-2,2,5
1693678239243001900,-59,-4,1,3,-1,-7,-18,-54
1693678239244001700,82,30,12,8,-2,13,34,50
1693678239264990000,36,5,-3,-6,-4,0,1,50
1693678239266988800,-60,-29,-10,-12,-7,-2,-16,-37
1693678239268989200,-79,-2,12,17,13,3,-13,-82
1693678239269988200,41,22,1,-4,0,-2,14,14
1693678239280981700,11,-13,-9,-2,0,3,-44,17
1693678239282981400,-33,27,5,0,-7,-4,34,81
1693678239285978300,127,-10,8,9,6,11,15,22
1693678239287977900,-27,-62,-5,-6,-3,3,-16,-110
1693678239293972800,104,50,-10,-15,-14,-29,0,71
1693678239294974000,-50,-51,-19,-23,-3,25,67,-27
1693678239301967600,-87,8,3,1,-12,-28,-42,21
1693678239303967000,39,90,16,11,15,23,-8,-27
1693678239317959000,-109,-104,-5,2,7,-12,7,30
1693678239318959000,18,77,-2,-10,-4,16,-12,-52
1693678239321957700,-42,-75,-17,-6,-1,-75,-10,11
1693678239322955600,-95,-101,-10,-9,0,40,39,23
1693678239339946600,-90,40,12,13,15,25,-2,-40
1693678239341946200,62,44,0,-5,-11,-7,17,87
1693678239344944400,73,76,-5,-3,7,23,9,-76
1693678239347942700,-7,56,13,8,-5,-21,2,-48
1693678239378924000,-3,14,4,21,20,-19,-5,25
1693678239382922900,-19,-85,-11,-17,-4,13,-5,17
1693678239384921100,32,25,-11,-10,-9,18,3,21
1693678239386920000,-1,-56,-9,-3,7,-26,-6,-65
1693678239388919300,49,-50,5,1,-8,-6,56,27
1693678239389918900,-57,10,9,46,48,25,-44,76
1693678239390918100,55,63,2,-11,-21,-31,15,49
1693678239392915500,-12,-28,-9,0,1,-14,20,-71
1693678239432035600,-65,-59,-26,3,42,37,-9,-61
1693678239434034900,-5,42,12,5,-18,-27,-15,71
1693678239436032400,-42,-75,0,12,13,26,47,109
1693678239437031500,85,28,4,6,-10,46,-30,127
1693678239438034300,24,56,5,3,-4,-31,-24,-112
1693678239440031700,39,26,9,-3,4,42,71,-110
1693678239441031200,-20,8,1,1,1,-9,-36,-41
1693678239443029100,-72,0,-11,-15,2,9,16,2
1693678239444029000,23,43,17,5,-6,63,-17,-120
1693678239445028000,6,-24,-7,-5,-11,-1,-23,18
1693678239447027000,-21,-11,17,-6,-26,-14,-3,-28
1693678239450025900,-19,-57,-22,13,35,18,-21,12
1693678239469013600,11,-2,15,2,-7,-20,-6,0
1693678239471014500,-6,13,-4,-22,-33,-46,-15,-25
1693678239473013000,5,-11,1,10,23,43,0,27
1693678239474013000,-3,7,-5,-11,-21,-31,4,13
1693678239475012400,8,24,-4,-30,-47,-79,-12,37
1693678239476011500,-1,-38,-8,4,-2,-37,-9,-35
1693678239483011000,-30,-20,-12,-3,9,2,-16,-28
1693678239485005400,26,37,12,14,4,-20,-6,26
1693678239498997300,-53,-60,-11,-10,7,31,2,-39
1693678239500996900,38,20,9,3,-9,-18,-11,-13
1693678239501995700,-6,-8,-8,-2,6,4,-10,-26
1693678239502994500,-66,-20,9,-2,-9,10,9,23
1693678239518985700,53,47,14,3,1,17,12,84
1693678239520983800,14,-17,-9,-7,2,-9,-7,-27
1693678239526981600,-12,3,-12,-12,-1,38,-14,-10
1693678239527982200,22,2,4,-4,-2,8,23,-10
1693678239533979700,-7,4,2,1,-2,-13,-14,5
1693678239534976600,-20,0,-2,-3,6,12,-4,-11
1693678239543971400,27,-5,4,5,-2,43,8,3
1693678239545970000,5,16,1,0,-3,-18,-8,-3
1693678239556963800,3,4,-4,-10,-6,15,1,2
1693678239558963400,-5,-13,-13,-6,-2,-12,-4,-9
1693678239559961500,1,15,14,9,-2,12,8,14
1693678239560961600,1,2,-6,-3,-2,-8,-4,3
1693678239581952000,-4,7,-5,-1,-5,0,1,11
1693678239582951400,-6,-25,-3,7,28,9,0,-9
1693678239583950000,-8,1,7,4,-6,-9,-4,-2
1693678239584949300,13,28,8,-3,-8,2,4,2
1693678239598942600,10,-4,4,1,-8,-14,1,3
1693678239599950900,-8,-11,-1,2,8,7,-8,-13
1693678239601960800,-1,1,-6,-5,-6,-28,-12,-2
1693678239603939500,8,4,-6,-2,6,-1,-9,1
1693678239624947600,-10,-10,-9,-8,-2,13,4,6
1693678239626926800,-6,-9,0,-1,-14,-8,33,-1
1693678239632920400,0,3,3,3,5,-11,-9,4
1693678239633922100,4,-5,-13,-11,0,11,2,-1
1693678239639916300,-7,-2,-5,80,52,6,7,-4
1693678239641916000,8,24,58,-52,-67,-3,-2,7
1693678239645913300,5,-2,-7,1,4,-10,8,1
1693678239649910900,1,2,6,10,1,-5,-9,-2
1693678239653909600,1,-3,-18,-21,-15,-12,2,-1
1693678239655907300,-7,-11,-23,16,37,12,-6,-5
1693678239665905000,-4,-3,6,-6,-12,-11,-1,1
1693678239674912400,5,8,4,0,4,5,-2,2
1693678239676896800,-1,1,-5,-16,6,4,-1,2
1693678239679893100,-4,-8,-22,38,52,5,-11,-5
1693678239700883000,2,11,34,-66,-77,-15,-1,3
1693678239702881400,3,5,17,27,-34,-23,0,1
1693678239703879600,1,-3,11,3,-18,-16,-4,-1
1693678239704878300,2,3,-14,17,3,-13,-1,0
1693678239705878400,-5,-9,-28,3,27,3,2,-4
1693678239706877700,-6,-5,-15,-13,0,-20,-12,-6
1693678239714875700,-1,-7,7,-15,-9,12,-2,2
1693678239716873300,-6,-12,-35,-32,24,-8,-4,-2
1693678239721870100,-2,9,57,46,-7,-21,-8,-3
1693678239722869800,5,8,12,-36,-43,-3,1,0
1693678239736861200,0,2,16,24,-29,-4,-4,2
1693678239738860000,-1,0,-13,-50,-6,-14,-1,-3
1693678239744856100,-1,-2,-53,-37,60,67,0,0
1693678239745856100,2,6,40,90,-58,-36,2,1
1693678239774839300,-2,-7,-22,26,52,10,-2,-1
1693678239776837200,6,5,29,-34,-39,36,4,3
1693678239778838000,-7,-11,-14,50,18,-62,-9,-7
1693678239780837600,-3,0,12,-32,35,82,3,-1
1693678239783837000,5,16,11,22,-55,-55,0,2
1693678239785834000,0,-1,21,-2,-65,-4,-3,0
1693678239787831200,-4,-7,-37,-36,68,1,7,-5
1693678239788833000,-2,-6,-36,13,-1,-15,-7,-4
1693678239797826100,-1,-9,-8,-24,63,73,21,5
1693678239799824800,57,22,31,85,-52,-56,-10,-1
1693678239802823500,-46,-3,-11,-8,51,102,31,5
1693678239804823200,-42,-11,-25,-67,36,-102,-30,-14
1693678239820043000,53,-7,23,-127,4,36,-4,-4
1693678239822041700,-28,30,73,123,-16,66,32,22
1693678239824040100,78,11,18,46,19,-7,-12,-1
1693678239825038500,-56,-4,-19,58,-17,97,8,-6
1693678239842029200,-32,-38,-112,-117,127,-128,3,9
1693678239844028600,8,23,54,-35,-34,32,-9,3
1693678239845028000,-37,-7,46,87,-128,-86,7,-3
1693678239847026900,37,-28,-95,-87,127,79,7,20
1693678239857022000,20,51,108,21,-128,-75,-30,-24
1693678239858020400,35,-6,-92,-124,127,73,-7,-15
1693678239865016800,-32,-6,21,100,2,-91,59,42
1693678239867015700,109,12,-7,-85,-37,69,-53,9
1693678239881007400,-126,-37,-23,-12,37,-70,7,-50
1693678239885005300,45,18,-20,-91,-48,3,18,26
1693678239888003200,-64,-33,-38,-128,12,16,8,-13
1693678239890003000,32,27,106,120,-50,74,0,63
1693678239901996500,37,-5,-33,-85,66,61,-11,31
1693678239903996100,34,-21,-46,96,17,13,65,-27
1693678239904993600,-91,-33,-45,-128,-5,80,-79,-54
1693678239905994700,-14,-28,-55,-127,76,-126,-73,-21
1693678239924039300,55,58,112,126,-128,89,-42,20
1693678239926039900,-36,11,43,-50,-60,-5,16,4
1693678239928039900,43,-3,-80,-109,42,-25,-5,7
1693678239929037800,-27,10,50,127,9,-66,69,-14
1693678239938032600,-11,-15,-57,-41,104,9,-6,-15
1693678239940033800,-37,-28,-22,74,102,30,3,22
1693678239952023400,43,31,75,80,-102,-64,11,9
1693678239953023400,45,5,-55,-128,13,19,-38,-34
1693678239962017700,-101,-20,-24,2,-21,42,47,6
1693678239966015800,8,-16,13,15,-60,23,-9,13
1693678239968016200,21,-6,-27,-42,17,64,1,5
1693678239969015100,12,31,97,94,42,-23,29,2
1693678239985006200,42,14,-14,-94,-62,-10,-38,-6
1693678239987005900,-47,-19,-52,-100,83,-22,15,-2
1693678239988002900,26,10,16,-39,9,-34,-62,2
1693678239989003600,-47,-19,-33,-48,-22,11,16,-15
1693678239999000100,55,-3,-21,-49,6,41,58,-11
1693678239999998700,-40,-2,75,80,-94,-41,-128,-7
1693678240006992000,32,20,40,120,-35,-39,28,13
1693678240008993400,-34,-14,-21,5,-12,54,59,-4
1693678240022984000,9,1,19,4,11,-70,11,3
1693678240024981700,25,7,-7,-11,95,-14,-13,-14
1693678240025981300,32,-4,-64,-106,43,9,17,0
1693678240026984200,-48,11,64,78,-123,8,12,-13
1693678240044969900,72,8,10,35,4,31,-1,29
1693678240048969300,-66,-17,-55,-78,63,19,-11,-5
1693678240050968000,-14,-17,-5,-55,2,24,-2,-9
1693678240051967000,-21,-6,-22,-81,4,-84,-4,-22
1693678240072956100,-21,-23,-27,2,-3,2,-30,-6
1693678240074953300,41,15,22,30,-31,-22,-12,-7
1693678240075952400,7,9,12,11,24,62,36,1
1693678240077951300,-11,-3,-10,0,-22,-37,-23,-1
1693678240082948900,24,13,27,75,3,49,-40,-2
1693678240083948100,-30,-5,-5,-22,-14,-55,95,3
1693678240085948500,-3,8,16,40,-16,-19,-15,-6
1693678240087948100,4,-1,-14,-10,15,-80,-103,-17
1693678240103935900,-30,-6,-1,5,-19,-12,24,3
1693678240105935900,37,14,5,-10,1,66,55,7
1693678240110931900,-32,-8,-9,-5,2,15,25,-9
1693678240111933500,-6,-10,2,2,3,4,-37,10
1693678240117929800,16,19,5,8,18,45,-90,-35
1693678240119928900,-65,-21,-5,0,-12,-33,22,12
1693678240126927100,-3,-12,6,17,-4,-37,-2,9
1693678240128923100,17,7,-15,-25,3,20,-9,0
1693678240142914500,-14,-9,4,16,-11,-28,87,12
1693678240143914400,-27,-57,-10,2,5,12,-119,-46
1693678240148912000,101,60,14,15,5,50,-35,21
1693678240152909000,0,18,-13,-22,-10,-3,127,52
1693678240165901300,-71,-56,-14,-10,7,6,-121,-8
1693678240167899900,22,91,12,14,-11,-14,70,-2
1693678240168899300,-10,22,9,-6,10,30,-94,-42
1693678240169898900,98,-74,-3,5,-3,25,55,10
1693678240186889300,-27,65,-11,0,-5,4,109,-4
1693678240188887900,46,-32,2,-4,8,-8,-41,19
1693678240190888800,55,-84,1,10,-6,-16,36,-29
1693678240193885100,-69,16,-7,-2,11,-1,8,17
1693678240209875700,84,17,9,2,-8,-22,-9,16
1693678240211874900,112,-6,-6,-10,-7,-17,-9,-8
1693678240213875900,-60,-13,-14,-9,-5,-13,-16,11
1693678240216872600,-6,13,6,-3,1,6,-8,-47
1693678240223867300,-45,-5,7,15,8,14,-54,-2
1693678240230867400,-100,36,-1,-3,-6,-29,76,-34
1693678240233866400,109,-9,10,3,-3,-14,-53,96
1693678240236861200,-85,-43,-6,-8,3,15,-18,-33
1693678240240859300,7,-12,-2,3,-4,2,39,44
1693678240241857800,72,7,2,1,5,5,-20,-48
1693678240248856000,-100,-17,-9,-7,-2,-5,25,-27
1693678240249856400,-19,-7,2,2,6,10,25,23
1693678240261847300,49,62,-3,-3,-8,-14,-52,-55
1693678240265844300,-14,-31,-2,-1,-3,-4,48,28
1693678240268844600,-14,5,-8,-4,-2,-3,19,-2
1693678240269843500,32,33,-4,-4,2,0,-31,23
1693678240284832500,4,-30,-1,2,-1,-4,21,-24
1693678240286832100,-36,-19,6,-7,-2,2,-24,14
1693678240287831000,-20,4,4,3,-2,4,7,6
1693678240289829700,41,41,-7,-1,-1,8,8,-10
1693678240300827000,-23,-30,8,6,-2,-11,-15,10
1693678240302823000,-24,12,-16,-13,-5,0,19,8
1693678240315816300,-18,34,9,11,6,1,-49,-25
1693678240317814300,102,-28,3,-6,-8,-2,-2,3
1693678240321811600,-61,-19,-2,3,11,4,32,19
1693678240323810200,28,-8,2,1,-1,-19,-61,-3
1693678240327807300,-63,-10,0,-2,-2,0,21,-24
1693678240330807700,27,24,-5,2,-2,8,3,3
1693678240344799200,0,-3,-11,-17,-8,-4,3,6
1693678240347798600,16,-4,3,-9,5,2,-39,-11
1693678240350795400,-18,1,7,17,1,7,19,3
1693678240352794300,-23,-1,4,-3,0,-13,-13,-5
1693678240375781900,20,-12,-37,-11,3,13,43,0
1693678240376781200,-20,14,53,44,-7,-2,36,15
1693678240378779600,33,3,-13,-9,0,-23,-63,-8
1693678240384776100,-19,-13,-29,-8,2,19,-4,5
1693678240385776400,-1,-3,-20,-21,9,-8,0,-1
1693678240387776400,-14,-5,23,39,-15,15,1,-2
1693678240388772900,18,19,12,4,10,30,24,7
1693678240390773100,-2,0,-10,-14,3,-29,17,-7
1693678240411723400,-1,-14,-21,-11,-18,-38,-31,2
1693678240415721600,5,-15,-69,-42,-4,3,-23,6
1693678240416721700,7,-2,-38,29,29,43,24,-9
1693678240417720500,-30,12,79,80,-4,-38,-25,-11
1693678240426714300,6,-18,0,-20,-7,-1,24,5
1693678240428713500,15,28,-73,-42,-6,-4,-11,6
1693678240431712200,0,-45,-70,-80,-39,-32,15,6
1693678240433713200,-16,13,-82,3,37,23,-1,-12
1693678240440706600,-23,22,75,60,24,50,-5,-6
1693678240441706300,-21,-21,6,-18,48,4,5,-4
1693678240452701000,11,-8,-32,37,-15,-63,13,2
1693678240453701500,16,53,40,-40,-80,-66,-9,0
1693678240465693000,-9,-56,-117,94,53,84,4,-8
1693678240467694700,37,77,111,-11,-68,-56,-2,23
1693678240468693800,27,-27,-95,-64,22,65,29,20
1693678240469693300,31,46,93,101,-3,-71,7,26
1693678240486682800,-6,-48,-70,-35,-23,4,-4,-10
1693678240488679200,16,-27,13,29,50,19,13,16
1693678240490682900,38,56,104,50,3,30,27,15
1693678240491680400,2,19,43,111,-28,-1,-1,-4
1693678240500673900,-19,-35,-103,-128,-58,-122,-23,-16
1693678240501673600,-13,52,59,49,-7,7,-12,-14
1693678240518709700,-10,10,-35,-16,26,-40,13,-4
1693678240519710200,-26,-4,-79,-77,41,127,6,-15
1693678240523706100,19,-9,118,-6,54,8,22,17
1693678240524708800,-24,-43,-53,74,13,49,-31,-16
1693678240537698800,-33,11,-63,4,-39,-45,4,-20
1693678240539698300,-16,-66,-56,-116,-32,0,-34,-9
1693678240548692900,6,26,36,56,-2,46,16,14
1693678240549693100,6,46,-23,-66,19,-27,-2,-7
1693678240551691600,-16,-37,-14,-3,28,13,0,-2
1693678240552689700,-15,-112,-79,3,32,26,7,3
1693678240560684200,36,79,99,-47,-3,25,5,3
1693678240561684900,20,-69,-106,17,-7,-2,8,29
1693678240569679600,19,58,127,4,-36,-41,-26,-1
1693678240570679300,6,8,4,37,22,33,20,9
1693678240585671300,-56,-14,-80,-42,-24,-65,-29,-44
1693678240587669300,-18,-22,-45,-16,25,63,33,31
1693678240588670800,-32,-28,-19,-50,-7,-9,-23,-59
1693678240589669400,42,15,64,53,-30,26,-61,47
1693678240606657900,-45,-27,-80,-72,-8,-11,9,-46
1693678240608658300,-38,-11,85,45,3,55,-10,-10
1693678240609658600,-15,-12,31,-54,-14,-46,6,5
1693678240610656800,7,-27,-95,17,38,22,43,17
1693678240620651000,71,74,92,-15,-47,-51,-25,62
1693678240621653500,-44,-35,-32,-39,21,-19,1,-32
1693678240630645300,5,9,56,5,-1,83,-23,6
1693678240633643400,10,-8,-30,13,-22,-90,9,-43
1693678240644637300,62,10,21,72,22,44,-20,88
1693678240647636100,-39,-17,-4,-18,-10,-10,48,-112
1693678240649637000,-68,-6,-53,25,13,-22,-51,4
1693678240652633100,-79,-6,-29,-119,9,-3,15,32
1693678240667624000,34,2,9,68,-14,8,13,99
1693678240669624100,102,38,85,79,-32,-13,-10,-81
1693678240670623600,-36,-10,-37,2,32,61,32,94
1693678240671622500,-64,-12,-3,-65,-9,2,85,-118
1693678240681621100,67,9,-35,-74,32,17,-64,34
1693678240682617900,-29,-19,-35,-86,-28,-116,-83,35
1693678240700605800,26,7,50,77,-15,8,30,-11
1693678240701607600,-2,24,40,61,23,33,16,20
1693678240704602000,-34,-12,-13,-5,-9,15,98,-45
1693678240706603900,5,-6,-44,-26,0,7,-40,20
1693678240707733000,42,2,5,2,-3,-2,-21,-7
1693678240708722100,32,11,10,-7,-11,-37,22,8
1693678240726709300,-23,4,19,37,11,-5,-100,-58
1693678240728708400,14,3,-16,-12,4,33,105,80
1693678240732706600,5,11,8,14,-2,-18,-15,-31
1693678240733708500,30,-7,-18,-44,1,1,-65,0
1693678240740700700,-49,-8,12,-47,-5,-2,52,-27
1693678240741701900,-68,-17,-19,-5,-25,-30,-15,-3
1693678240749696200,5,3,-10,12,1,14,103,-11
1693678240750698300,-1,5,13,-7,-5,-15,-92,14
1693678240765687300,-6,-8,-6,22,7,25,97,-24
1693678240767685300,40,-2,-9,-20,-11,11,-4,12
1693678240770683800,28,5,2,-5,8,1,-28,2
1693678240771686500,-18,8,10,-8,7,23,7,7
1693678240789674200,-55,-2,16,44,-6,-36,-29,-8
1693678240790675400,55,8,-29,-67,15,23,48,-1
1693678240794670600,29,-11,-20,-57,-15,-38,-52,12
1693678240798670300,-30,8,37,65,11,12,24,-10
1693678240800672800,42,0,6,-29,-22,25,93,5
1693678240802667100,-84,-4,-2,16,2,-25,-75,2
1693678240815658800,34,6,28,-21,-10,14,-58,-51
1693678240818659700,32,-2,-19,-22,-6,8,88,62
1693678240824655300,-18,-4,-3,38,14,3,-69,-47
1693678240826655200,31,5,-4,-12,4,28,92,51
1693678240827655100,-92,1,-3,13,-5,-16,-72,-17
1693678240828653600,20,-11,-3,-18,-13,-58,-15,-24
1693678240847640600,6,-2,-4,3,2,-7,66,14
1693678240850638600,-18,-1,4,1,-1,-22,-97,-11
1693678240851639000,89,19,-9,11,4,39,43,16
1693678240853635800,-72,-6,14,-3,6,42,119,12
1693678240864634900,6,-3,-10,-11,-20,-78,-116,-21
1693678240867631600,36,-1,-4,14,3,12,-57,-10
1693678240869629900,-46,-6,-5,10,-7,17,127,62
1693678240871626700,17,-5,-5,-19,-9,-10,-73,14
1693678240892614500,-7,6,8,22,7,28,12,-33
1693678240894615200,69,25,16,22,12,40,75,11
1693678240896612400,-113,-47,-29,-22,-17,-57,-8,-31
1693678240898613400,127,33,-9,-35,-5,-14,-88,9
1693678240906605000,-128,-46,13,33,-9,-22,-87,-30
1693678240909078900,119,-3,-8,-8,-1,-24,-46,-27
1693678240911078300,41,11,2,11,15,30,21,67
1693678240912079100,67,16,13,7,15,17,-20,-89
1693678240921072500,26,33,-1,-3,5,23,61,127
1693678240923072100,6,-13,-1,1,-2,36,-9,-33
1693678240936066600,-11,-19,-3,3,3,-38,-40,-98
1693678240937065500,80,41,14,10,2,17,37,82
1693678240944058900,94,44,5,-2,5,18,-10,-2
1693678240948057300,-128,-50,-13,-5,-17,-47,32,-8
1693678240950059600,71,-9,-15,-9,4,21,-22,-45
1693678240951059300,105,-12,10,22,31,10,15,-83
1693678240967048400,-55,10,3,5,0,27,45,93
1693678240970046100,19,13,3,-3,-3,25,29,59
1693678240971045200,34,-14,-8,-7,-14,-59,-48,-80
1693678240972044500,-99,5,-5,-6,-1,-8,4,-20
1693678240981038200,95,37,6,-3,-2,-3,-25,-32
1693678240983039900,-18,7,5,1,-2,12,5,23
1693678240990032600,-50,15,4,5,5,-20,12,-61
1693678240992032600,-69,-77,-6,-4,-7,10,-3,27
1693678241005024700,45,38,0,2,3,-4,25,-28
1693678241008024300,-37,-17,1,-1,-4,-35,-5,-80
1693678241017019700,29,33,2,3,2,11,6,127
1693678241019019300,-100,-24,-12,-21,-22,-31,-57,-63
1693678241027012000,-10,-17,-3,6,8,-2,37,-10
1693678241030011000,-86,-25,-1,1,5,6,-4,-40
1693678241033008600,47,-13,-1,-5,-2,6,35,96
1693678241034009000,-57,37,2,4,3,11,-15,-89
1693678241041006500,71,-23,1,1,2,-1,-3,2
1693678241043005700,-9,29,1,-2,3,31,-2,2
1693678241049998600,2,-27,-6,-8,-10,-2,-46,57
1693678241050999500,-10,7,-2,1,-1,13,13,106
1693678241064990300,-56,-36,-16,-4,1,-5,1,14
1693678241066988900,22,9,7,11,7,6,-9,-1
1693678241068991300,-9,22,4,7,9,23,1,-60
1693678241069988500,-8,-28,-4,-19,-19,-19,-10,39
1693678241089977100,88,8,6,12,-4,3,-26,58
1693678241091974300,4,10,-11,-8,-3,-14,14,13
1693678241092976300,-35,-42,-5,1,8,10,32,-59
1693678241093975600,54,39,-1,-1,3,-29,-4,-96
1693678241100970200,-59,-23,-8,-10,1,1,-44,-5
1693678241101969600,52,31,7,4,4,-1,12,40
1693678241109968900,4,-9,4,2,-8,-16,-3,-13
1693678241110969400,5,-7,-1,2,11,34,0,-27
1693678241123961400,4,12,-5,-17,-23,-39,6,-53
1693678241125962600,42,21,2,9,3,-7,-14,113
1693678241131958200,-41,1,9,5,9,40,22,53
1693678241133958400,-20,-10,-11,-5,-6,10,38,-29
1693678241150946700,-18,-5,-1,2,7,3,-12,-27
1693678241151945900,1,-18,5,5,3,9,-6,-23
1693678241154944500,20,14,-2,-3,-7,-12,1,-37
1693678241156943100,-1,0,-6,-3,1,-9,-2,57
1693678241168936200,-17,-19,-6,-4,0,4,3,-13
1693678241171933900,65,-4,5,-4,-1,-12,-46,-128
1693678241175932400,22,37,-4,-12,-12,24,-8,98
1693678241176931300,-1,-9,5,7,3,-7,40,82
1693678241183927100,-24,3,-8,-10,4,17,-12,-60
1693678241185928800,-19,2,4,-3,-10,34,0,-13
1693678241190923000,38,-6,-6,-4,3,12,-24,-43
1693678241191922700,11,17,12,7,5,3,-7,80
1693678241207893100,-32,-6,2,3,10,31,36,-15
1693678241210880200,-38,-10,-7,-7,-17,-46,-1,42
1693678241219874600,15,12,2,-11,-11,8,7,-17
1693678241220875300,-25,3,6,6,11,20,-3,27
1693678241222874200,2,-13,-8,-11,-2,6,4,-10
1693678241224873200,0,1,1,-2,-7,-50,-11,-12
1693678241232867800,-22,-6,-6,-2,11,-5,10,-11
1693678241235866900,-7,-13,4,7,-2,20,-20,-52
1693678241243861600,10,-1,-3,-1,-6,21,-15,-72
1693678241247861000,5,3,-9,-12,-16,-8,-2,-66
1693678241251857300,0,0,8,7,0,-2,-4,50
1693678241253856600,-16,-10,-6,1,9,-10,-11,-16
1693678241266849600,-3,-3,-5,-7,-7,-24,-11,-29
1693678241267849800,-9,12,6,14,30,25,17,7
1693678241294833000,-24,-23,1,14,11,36,-2,-29
1693678241297830500,10,-3,1,4,-6,-23,-14,-27
1693678241300830100,-5,1,2,-3,-11,-5,10,33
1693678241302829500,-3,-4,-1,-1,16,11,0,13
1693678241320983600,-12,7,1,-3,-20,-23,-4,-1
1693678241322983800,-6,-8,-9,-4,-5,-7,-9,-4
1693678241324981800,-1,2,4,7,12,2,6,-4
1693678241326980800,-55,-8,-7,-5,-17,15,11,35
1693678241328978700,-5,3,-3,8,7,-4,-5,-37
1693678241331979500,7,4,10,26,18,-16,-10,-17
1693678241334976000,-26,-3,-5,-11,-24,-8,4,18
1693678241335975300,-11,-9,-5,25,19,-26,-16,-6
1693678241337974300,-6,-1,-1,8,-2,2,5,-6
1693678241339973500,7,5,0,-78,-48,-15,-5,0
1693678241366964100,2,0,16,69,21,-2,-1,12
1693678241369956200,-5,-7,-4,-8,-4,16,-1,3
1693678241370955100,-3,-1,-19,-42,-12,-4,2,-13
1693678241371954700,-5,-5,3,29,14,17,0,0
1693678241372953900,5,3,6,-13,3,14,1,-5
1693678241374952900,3,0,-1,-18,-10,-8,3,-1
1693678241387944600,2,8,9,1,-4,0,3,0
1693678241388945900,1,-3,-6,-8,22,22,-4,-8
1693678241390943000,-15,-25,-31,-47,8,-42,-17,-6
1693678241391944500,18,24,51,45,-38,25,8,10
1693678241392944100,-2,1,-4,16,-1,5,3,0
1693678241393943300,-1,1,-5,7,5,38,8,1
1693678241411887200,-1,-4,-12,-5,-3,21,-6,-3
1693678241415887700,-1,-12,-15,-74,9,5,1,5
1693678241417885300,-4,-5,-3,-6,-9,-32,-6,-10
1693678241418883300,2,3,-1,37,37,86,10,1
1693678241425883700,9,11,27,1,-34,-56,6,6
1693678241428876700,3,0,8,80,6,-63,-8,-1
1693678241432875500,-1,6,23,22,-33,-7,-1,-2
1693678241434874400,-2,-7,-54,-61,7,6,1,-1
1693678241448866100,3,2,22,25,100,53,18,10
1693678241449867700,10,21,62,93,-88,-76,-5,5
1693678241451865600,-1,-5,-10,-43,-53,-29,13,-1
1693678241452863700,-4,-6,-7,-48,52,14,-14,-4
1693678241469853500,1,4,5,79,42,37,0,1
1693678241471853800,-4,-12,-47,-71,-21,7,7,-1
1693678241472853800,0,0,-9,-1,25,79,20,7
1693678241473853300,-9,-11,-25,7,18,-128,-35,-14
1693678241491841600,17,24,55,-21,-70,58,20,13
1693678241493840100,-4,-10,-44,-90,46,5,-9,-7
1693678241494841500,3,12,23,-20,-14,-4,-4,-1
1693678241497838000,6,4,-11,-77,-30,16,15,7
1693678241508962800,-4,3,40,101,-20,-4,-5,-5
1693678241510962400,-16,-30,-96,-76,118,14,-13,-11
1693678241512960900,-1,10,79,61,-95,-31,0,1
1693678241514961000,17,20,68,-21,-122,50,16,13
1693678241530951300,2,-4,-52,-39,101,-14,9,1
1693678241532949000,-4,-14,-4,46,-44,127,10,2
1693678241533952100,-4,-6,-27,-110,64,-94,-22,-10
1693678241534950900,-10,-10,-38,63,25,2,-3,-5
1693678241544943400,-3,-4,21,61,-79,15,0,1
1693678241545944500,-21,-32,-85,-69,127,-64,-37,-21
1693678241552939500,5,11,45,-17,2,61,8,3
1693678241553937700,9,18,72,127,14,-83,5,6
1693678241566929900,-13,-28,-103,-128,6,-29,-22,-15
1693678241568928000,0,-6,-38,-13,83,41,25,10
1693678241569927400,-1,18,88,-4,-63,-104,-57,-15
1693678241570930100,1,-4,-11,2,127,87,17,2
1693678241597915500,3,10,16,-42,-125,-98,0,6
1693678241599910600,-10,-26,15,73,-5,106,-11,-7
1693678241600913800,6,-2,-66,-24,-73,4,35,15
1693678241601912400,-11,-10,-29,2,76,-9,-27,-16
1693678241603911500,14,37,51,99,-74,-5,-6,6
1693678241604910600,10,10,6,-68,55,44,15,8
1693678241611927000,-20,-47,-128,-119,66,122,4,-11
1693678241614924900,-1,9,35,-41,64,79,4,3
1693678241627915100,11,19,16,-105,-37,-78,3,2
1693678241630915300,-1,7,8,-93,-30,7,-15,-4
1693678241632915800,3,-2,-36,-8,127,5,14,6
1693678241633915400,-15,-37,-128,-128,-90,49,-17,-13
1693678241651924300,-1,-5,15,47,102,57,-15,-4
1693678241653901000,2,-3,-23,-94,-33,3,38,13
1693678241654900900,3,14,7,32,127,14,-40,-11
1693678241656900200,-2,1,11,-37,-98,-43,8,0
1693678241664900000,9,15,45,22,0,-47,-1,4
1693678241665898000,7,9,-3,22,-121,-45,-7,1
1693678241670891200,-25,-45,-103,-95,-22,-51,-10,-15
1693678241671890100,5,41,84,64,27,-68,-11,1
1693678241686882500,-12,-27,-115,-128,45,18,-7,-11
1693678241688880400,5,12,24,80,-55,-24,7,6
1693678241689882900,22,45,122,54,-128,-97,5,12
1693678241690882400,-13,-24,-75,-81,68,21,-29,-14
1693678241709868800,-15,-36,-89,-128,-25,42,16,-2
1693678241711867300,2,12,16,14,94,-11,-3,-3
1693678241713870000,3,-2,41,63,-71,32,23,9
1693678241715865100,22,49,82,71,-90,-96,3,10
1693678241722860100,-12,-27,-89,-107,105,14,5,-4
1693678241724860100,-2,2,-27,-111,-44,-18,-8,-5
1693678241734855200,-1,-4,-30,-44,-14,79,9,3
1693678241736853200,-1,-9,10,-17,-16,59,22,7
1693678241748847300,-21,-34,-49,-12,105,-10,-33,-16
1693678241749848100,18,38,38,-93,-117,-22,2,6
1693678241750847400,-7,-6,0,37,127,5,-13,-6
1693678241752844700,0,-1,11,22,-69,1,9,4
1693678241768834600,-6,-4,-13,-24,71,2,-10,-7
1693678241773832800,-11,-23,-77,-101,89,-2,14,-1
1693678241777831400,-3,-3,-4,-36,-33,-4,-21,-8
1693678241779829200,-3,-9,-20,-34,-8,-90,-13,-3
1693678241782826700,-4,-10,-32,-34,-84,66,-1,-4
1693678241784825400,-6,-9,-18,127,-29,-17,-13,-5
1693678241791822500,10,26,21,-92,-27,51,14,7
1693678241793820600,-8,-15,-17,2,75,-62,-6,-7
1693678241806812000,5,8,1,9,91,37,10,4
1693678241809153200,-4,-6,-54,-40,110,113,5,0
1693678241811151900,-5,-10,-40,-69,46,33,-3,-4
1693678241814151800,-9,-29,-124,-128,64,6,7,0
1693678241835138100,21,42,117,57,-128,-20,1,11
1693678241836138600,-3,-12,-4,-78,31,31,-1,-3
1693678241838137800,16,33,100,127,24,13,16,13
1693678241839137100,1,-1,11,-14,-59,19,8,1
1693678241852127600,6,7,27,68,-69,-11,18,9
1693678241854129100,-15,-2,13,-36,58,-97,-39,-20
1693678241855127800,-9,-33,-95,-95,-1,-61,-13,-11
1693678241856126900,0,1,-30,-78,2,28,2,0
1693678241867119500,-2,4,15,-4,16,9,-2,1
1693678241869118800,6,-8,-62,-84,-21,-2,14,7
1693678241870118000,3,7,21,18,60,36,13,5
1693678241871118700,1,-1,-29,-54,49,60,-1,-2
1693678241893106500,-11,-15,-62,-95,121,6,-22,-8
1693678241895103600,9,15,40,25,-27,-85,-9,0
1693678241899101700,-4,-5,-27,2,50,49,18,2
1693678241901101000,14,1,11,0,-7,35,13,15
1693678241905097500,-6,-6,-35,-48,35,50,34,4
1693678241906098000,17,26,50,46,-32,127,-4,5
1693678241914093400,-3,-5,-37,-5,-18,-81,-27,-10
1693678241916094300,-9,-13,2,-7,-53,14,-22,-7
1693678241927084800,18,25,29,47,-26,-13,8,4
1693678241930084800,0,-2,32,48,-41,2,22,11
1693678241932082600,-9,1,-21,-1,-28,-14,-2,-2
1693678241933084000,7,-6,-5,13,54,17,14,2
1693678241949072400,-8,1,10,20,-59,-28,-24,-7
1693678241956071000,0,0,17,24,-22,-30,1,-1
1693678241964064500,2,-5,-26,-22,-12,-1,-4,-1
1693678241967063000,-8,-4,5,0,-2,-26,-1,-4
1693678241968062000,2,-4,-3,7,1,-5,-4,1
1693678241970061900,-5,-4,12,9,-3,-26,-1,-4
1693678241972060500,-9,-18,-26,-25,-13,17,1,-5
1693678241973059300,-4,26,36,26,-14,13,0,-4
1693678241987050200,-6,-7,-8,0,-7,15,7,-9
1693678241989050600,8,0,11,14,-7,9,-23,6
1693678241990049700,-15,-14,-26,-9,-8,3,-1,-11
1693678241992048200,8,6,14,16,-19,-26,-4,1
1693678242009037800,-3,-5,-4,-4,-6,8,22,-36
1693678242011037400,-8,-7,-4,-1,11,-3,-13,25
1693678242014035600,0,-2,-10,-8,-7,-8,-12,19
1693678242016036700,-5,-5,4,2,-7,-4,-7,-14
1693678242032025700,3,3,3,-2,-9,-6,-5,6
1693678242033025400,-5,-1,1,8,1,15,12,-17
1693678242038020500,5,12,10,9,4,23,8,-4
1693678242039023200,-16,-4,-5,-5,-12,8,-1,5
1693678242055012700,13,-7,-2,3,-3,-7,-5,13
1693678242056011500,4,10,7,11,-2,-2,7,-1
1693678242057011000,2,1,0,-7,-4,4,14,3
1693678242059009700,-11,-8,-5,0,-9,-7,-36,-9
1693678242069005400,-19,-2,-6,-2,-1,3,-1,3
1693678242070005100,27,-10,0,4,-3,-18,1,3
1693678242080998000,0,6,5,4,3,2,9,-3
1693678242083999100,-11,-7,7,5,-2,-8,-1,-9
1693678242084995000,9,8,-4,-1,-2,-7,-8,9
1693678242086993600,-26,0,0,-2,-5,-4,0,1
1693678242091990600,50,0,-8,-3,-5,-2,10,2
1693678242092992000,16,5,0,0,-7,1,1,4
1693678242106982100,-3,-5,0,-2,-3,0,-3,9
1693678242108981300,-32,-3,1,-5,-1,-3,-17,-40
1693678242109980500,-53,0,-7,-8,-1,-2,-32,8
1693678242110979900,15,0,4,6,-1,-3,15,13
1693678242132967000,-18,-1,4,0,2,2,3,-6
1693678242138963900,10,0,-2,0,0,2,16,0
1693678242140962500,-27,-3,1,-1,-2,-2,1,-6
1693678242141964700,5,2,-6,-6,-4,-1,0,1
1693678242142963400,-36,-1,4,1,0,-3,-2,-1
1693678242144961000,29,-3,0,-1,-3,-5,3,5
1693678242152956200,-1,-9,1,3,0,1,-5,-4
1693678242155954200,-3,17,3,0,-2,-8,4,-2
1693678242167947500,-3,-4,-1,-3,0,-3,-3,0
1693678242169946500,-29,-3,1,-1,0,-5,-1,2
1693678242181942000,77,8,-3,1,0,4,5,13
1693678242184937900,-1,-8,0,3,-1,1,5,-6
1693678242192932500,-66,-7,2,-2,0,0,-13,-28
1693678242200928700,66,27,2,0,-2,-2,7,35
1693678242203926300,-20,-3,-1,2,0,2,7,18
1693678242205925600,-30,-4,-3,-4,-2,-5,-5,-8
1693678242207924100,11,-11,-6,-3,-2,-4,1,14
1693678242209922900,-40,-7,-4,-6,-5,-17,-11,-28
1693678242212921400,-8,-4,-2,-1,-2,0,-4,-14
1693678242215921800,19,5,-2,1,-1,2,6,10
1693678242227913300,-38,-3,2,1,0,1,0,-19
1693678242232911000,44,4,1,2,2,4,3,20
1693678242240906700,42,6,-2,-1,-3,-5,5,-4
1693678242242904200,-5,-6,-8,-8,-1,2,-8,-6
1693678242256897200,-10,-4,-3,-2,-2,0,1,11
1693678242258894600,58,2,3,3,0,0,6,5
1693678242259894700,-95,-15,-3,-4,-4,-18,-4,-5
1693678242261893700,34,2,-12,-7,-2,5,6,1
1693678242264895100,63,9,10,11,5,-5,-11,10
1693678242266914400,-35,-4,-1,-3,-8,-3,-1,-6
1693678242271887200,24,4,2,4,1,6,1,-5
1693678242272887000,-55,-7,-10,-11,0,0,-4,-23
1693678242286879200,81,24,-14,-5,1,1,3,49
1693678242287878300,-48,-14,-9,5,1,-2,-6,-21
1693678242292874300,-66,6,26,-29,-15,4,16,12
1693678242294873900,51,3,18,2,-8,-18,-41,-6
1693678242308880700,-22,-7,-29,-4,-9,2,-1,-4
1693678242309878500,-19,-4,-25,-37,16,4,-6,-19
1693678242317874300,3,-1,-11,-22,-2,2,-1,-2
1693678242319873900,-16,5,13,43,6,2,14,10
1693678242331866200,-7,-16,-24,-4,-2,2,0,-17
1693678242333864300,-9,0,15,42,7,4,-1,11
1693678242334865200,17,-6,-24,-57,-29,-1,-6,-12
1693678242336864100,-27,-8,-34,-10,22,-3,2,5
1693678242346857400,27,18,77,34,-16,10,-4,-4
1693678242349856500,6,-6,-16,-18,4,-14,9,4
1693678242354852000,3,6,32,27,-6,0,-4,1
1693678242355853300,4,-4,-36,-27,-6,3,8,-1
1693678242370844600,-10,-5,-20,-22,5,-1,-4,-1
1693678242371843800,-13,-3,-10,44,38,13,2,4
1693678242373843200,6,5,63,68,-47,-47,-10,-6
1693678242374842300,-2,-4,-24,-31,-12,2,5,6
1693678242391831500,-2,-11,-59,-51,11,2,0,-9
1693678242394829600,-8,14,46,7,-19,2,-2,2
1693678242398829100,17,2,-1,14,25,57,1,-1
1693678242399828900,-1,-5,-32,-23,-10,-28,3,-1
1693678242406822000,4,2,27,0,4,24,4,2
1693678242407822100,2,-6,-28,37,-3,12,-4,-2
1693678242413819600,-4,-2,0,-15,9,6,-1,-1
1693678242415819500,-4,7,60,28,-13,-8,3,1
1693678242431808700,-10,-12,-43,-28,6,8,4,-5
1693678242433808200,3,-1,-1,-36,1,-2,-5,2
1693678242434806600,0,-5,-18,-22,10,-12,-16,-7
1693678242435806000,-7,-1,15,37,-15,20,3,1
1693678242451797100,13,-2,-8,-25,-16,-28,-4,-1
1693678242453795400,-10,3,29,17,3,-13,-2,-5
1693678242458792100,0,3,-5,20,-3,0,3,-1
1693678242460793000,6,0,9,-11,26,5,1,0
1693678242481780300,-3,6,6,3,5,44,-3,-1
1693678242483779000,-17,-19,-41,1,-12,3,-4,-5
1693678242484779300,-2,2,4,-5,23,7,3,-2
1693678242485779100,10,8,31,65,-32,-9,4,3
1693678242488775300,0,-8,-9,-16,-8,1,-7,-6
1693678242489777000,2,-1,-31,-26,25,-14,9,20
1693678242498771600,-7,-7,-12,8,15,10,1,-26
1693678242499772000,3,4,3,3,8,-7,-14,-8
1693678242510884700,-1,11,43,26,7,-3,6,4
1693678242515882700,4,1,6,-10,-17,-2,0,-5
1693678242516882700,-4,-13,-56,-52,3,2,3,10
1693678242518882200,0,3,24,24,3,30,12,6
1693678242537869500,4,16,70,94,-20,-26,-3,-2
1693678242539870000,10,11,46,35,3,7,-5,3
1693678242540868500,-4,-2,11,67,-4,-1,2,-6
1693678242542867400,-32,-27,-68,-90,1,4,-3,-19
1693678242548865500,1,8,28,-45,-2,0,4,7
1693678242550864200,3,5,17,67,-21,-33,-3,-4
1693678242551863200,44,6,-11,-23,-8,-3,-1,9
1693678242552862800,-8,1,19,79,41,17,20,-2
1693678242572850500,-23,-14,-30,-28,-4,-22,-24,-4
1693678242574850200,-14,-10,-22,-72,-67,6,7,-12
1693678242575847900,6,3,-9,12,9,-15,-15,-2
1693678242577847700,1,1,-10,-75,10,42,41,8
1693678242593837300,8,-7,-49,47,8,-42,-55,-4
1693678242597842700,13,27,109,79,22,10,-2,11
1693678242599836600,-12,-7,-26,-11,-35,20,-2,-6
1693678242601833100,12,4,-3,-36,-11,-48,-20,12
1693678242618824900,-14,-16,-57,-66,12,46,50,-8
1693678242620822000,1,4,32,10,4,-22,-29,-2
1693678242621821700,-11,-2,5,41,69,19,-1,-1
1693678242624820600,2,3,12,0,7,-30,-18,-1
1693678242631815900,7,0,-2,-9,-46,-33,6,-4
1693678242632816000,3,-4,-50,-76,76,32,14,-3
1693678242634815000,-16,-4,18,26,56,-11,12,10
1693678242635814300,-42,-10,-12,11,-18,-12,-19,-48
1693678242654802700,32,8,30,27,120,25,7,34
1693678242656802100,-5,-5,-28,-65,-128,-25,-6,6
1693678242658799500,-28,0,-3,-3,102,21,14,22
1693678242659799300,-5,-4,-39,22,14,1,-3,18
1693678242668793600,-57,-1,19,33,22,6,39,-9
1693678242670792800,95,17,-12,5,36,11,-3,5
1693678242672791800,-21,-5,3,-20,-13,-27,-3,0
1693678242673791600,-14,-5,-15,-18,-26,5,1,6
1693678242691781700,-23,-5,-7,-24,-10,4,9,-2
1693678242699779800,-49,-11,-24,-18,15,2,3,3
1693678242701777600,15,-9,-45,-44,-83,-29,-1,-6
1693678242702774500,18,24,86,15,35,16,11,5
1693678242713877400,7,1,-3,25,-10,14,-11,-11
1693678242716876400,17,-4,-20,-21,-12,-38,0,-2
1693678242718875400,-23,-19,-24,-27,-14,36,7,-19
1693678242719873800,-7,-8,-4,-4,-15,-37,-22,-2
1693678242736863200,16,8,17,-4,-29,-17,-4,15
1693678242739862600,-22,-15,-36,15,11,20,4,-44
1693678242740862700,16,12,22,0,-21,-19,-10,0
1693678242742860500,0,-5,-6,11,-10,15,7,14
1693678242750856200,26,11,33,9,14,11,7,-4
1693678242752855300,-53,-7,-5,-5,12,10,-9,3
1693678242761851400,6,-4,2,-4,-60,-52,-23,-7
1693678242766847500,12,10,3,8,4,-6,-2,0
1693678242773842400,-16,-16,-31,-53,1,-3,-13,-7
1693678242775842200,-7,17,63,68,28,22,23,-7
1693678242776841000,10,8,18,25,-1,17,39,5
1693678242777840600,13,2,4,-37,22,16,-58,-1
1693678242788832800,35,3,25,14,-77,-68,-27,-6
1693678242789833400,-83,-22,-21,-26,21,21,3,7
1693678242790834800,68,6,-33,-11,-18,26,-14,-17
1693678242792833200,-75,-22,-1,7,23,3,60,29
1693678242811821400,-31,-19,-81,-14,16,6,-11,-22
1693678242815819600,65,3,-18,-22,-16,-19,6,39
1693678242816819300,-33,17,63,37,26,-8,11,-12
1693678242818817400,-41,-1,-15,53,-18,54,-13,-20
1693678242833809500,0,-3,-17,-30,-49,36,36,20
1693678242835807600,-4,-12,-14,-59,-6,-23,-15,-12
1693678242836805800,-10,-1,1,20,33,-15,-49,-7
1693678242837806800,125,7,-37,-73,-48,-85,-27,-7
1693678242848799700,-77,7,53,117,-16,11,19,-6
1693678242850800400,9,-23,-89,-121,2,6,-12,6
1693678242851798500,50,26,88,-52,-32,18,52,-4
1693678242852797500,-67,3,18,-87,26,74,-12,8
1693678242871785500,39,-9,-52,5,11,-37,-20,9
1693678242872786100,16,20,68,123,-58,-59,-8,18
1693678242873785100,-4,-19,-102,-95,-1,7,4,-8
1693678242875784200,26,5,43,24,20,1,4,2
1693678242893772700,1,-9,-39,-29,37,19,26,-16
1693678242894772600,-17,26,70,76,-48,-3,41,0
1693678242897772300,8,-25,-87,-72,-3,-18,-67,-1
1693678242898772200,-9,2,-8,-55,-12,-26,-18,-10
1693678242910879400,4,20,75,13,39,25,-20,1
1693678242913875300,-7,-23,-76,-32,59,31,7,-9
1693678242914876300,8,23,17,86,-44,-17,-20,13
1693678242916876900,11,-15,-114,80,34,-27,-5,-12
1693678242931864800,26,16,3,-20,-63,-40,-38,-11
1693678242933863300,-39,-23,-72,-34,4,23,-29,6
1693678242934863000,-30,3,-1,77,50,-11,34,19
1693678242936861600,43,4,-13,22,-2,-6,36,2
1693678242963845900,-49,-30,-85,56,44,-42,-13,-10
1693678242965844400,31,26,74,54,-64,13,-72,-16
1693678242966844500,-24,-21,-61,30,-31,-73,-15,2
1693678242968843200,0,0,-9,1,17,12,18,-1
1693678242971849100,19,-19,-128,-110,2,50,-1,2
1693678242973841900,47,19,54,45,32,-4,119,-6
1693678242974840200,-21,-5,3,-35,25,-9,-71,3
1693678242975838800,-62,-2,31,-56,-36,-50,-87,11
1693678242991830300,-72,3,87,27,-54,15,-28,-5
1693678242992829500,12,-17,-55,-37,43,-24,33,-52
1693678242993828900,40,30,96,42,-11,10,-36,36
1693678242994828300,53,-7,-52,51,48,67,39,9
1693678243013876200,6,-25,-109,-128,25,1,-95,-68
1693678243015878700,-10,18,55,70,-34,-20,28,47
1693678243016876100,-24,-22,-72,-32,-3,84,127,-6
1693678243018874400,44,19,47,-15,-55,29,71,48
1693678243036861100,18,-21,-53,-43,50,-80,-42,-44
1693678243038862900,-14,1,-23,-100,59,12,-80,-42
1693678243039860000,-16,-23,-68,-73,19,55,25,-24
1693678243041862200,-27,20,79,90,37,54,127,12
1693678243060848500,13,17,18,38,-33,75,127,43
1693678243062848500,-22,-50,-128,-84,51,-121,-96,-53
1693678243065849000,-24,5,42,-39,-75,17,-11,3
1693678243066849000,37,17,5,49,-11,-1,-37,-17
1693678243090831000,-16,3,-8,9,45,-9,83,24
1693678243093830400,-2,0,32,4,-50,44,-7,31
1693678243096829400,-3,-3,15,-6,24,28,-5,3
1693678243098834400,2,-14,-75,-66,34,11,-37,-21
1693678243099851500,76,8,3,-84,10,28,106,18
1693678243101846800,-23,28,51,-54,-104,14,-68,11
1693678243102827200,-68,-26,-49,-81,17,-80,41,-24
1693678243103843500,21,-1,-47,-81,11,-7,12,-15
1693678243121814700,-30,-6,32,57,-7,0,-45,38
1693678243122815300,13,-6,-29,-14,48,30,33,0
1693678243124814200,32,9,4,22,-11,22,0,2
1693678243125813900,-24,-20,-69,14,-1,-22,-64,-12
1693678243150797000,17,22,40,89,39,-10,-11,3
1693678243152795400,-2,-6,-81,-3,49,31,39,5
1693678243153798600,5,9,43,75,-85,-71,-26,-6
1693678243154797500,-31,-34,-91,95,-3,-103,-13,-17
1693678243155796700,21,43,117,-24,-107,49,-27,9
1693678243157792300,2,-7,-30,-58,9,-36,20,5
1693678243164789600,-4,-17,-77,-36,71,33,-3,-2
1693678243166790000,-15,-19,-68,-128,18,16,2,-7
1693678243172786200,3,8,24,-19,5,-6,-19,4
1693678243173787600,2,20,40,0,-78,13,17,8
1693678243179781500,27,30,79,15,-30,12,10,12
1693678243181779900,-5,1,-12,-54,-4,-2,10,-1
1693678243193771800,-9,-18,-42,73,2,-54,-17,-4
1693678243195771100,-3,7,27,-60,-33,-1,15,2
1693678243198778300,-1,-9,-72,24,29,12,-1,-1
1693678243199768100,-4,-7,-25,-87,32,23,5,-7
1693678243208763500,-12,7,8,5,-22,-36,-22,-5
1693678243209766500,-3,-8,-2,79,4,-28,5,0
1693678243216760100,14,21,80,-58,16,-46,-1,5
1693678243217781400,-6,-11,3,-41,-81,13,7,3
1693678243231750900,3,-11,-19,-18,50,-4,-11,-4
1693678243233749800,-3,-6,-22,-26,8,33,8,-3
1693678243237748100,-11,-17,-68,-54,65,8,-2,-2
1693678243239748000,-1,-5,-1,-18,-31,-7,1,0
1693678243270727200,-4,-8,-114,-128,-14,-31,-10,-7
1693678243272728500,15,31,89,3,-67,5,14,12
1693678243274727100,4,0,-46,50,25,10,0,-1
1693678243276724900,-13,-18,-15,-22,9,5,-1,-4
1693678243278723900,-1,3,-25,-26,7,5,-4,2
1693678243281722700,0,2,-25,45,54,11,6,0
1693678243282721500,-13,-11,-9,-72,-3,-34,-9,-10
1693678243284720700,16,33,127,46,-69,-27,6,9
1693678243291716400,-5,-11,-1,71,-20,2,-6,-2
1693678243292716800,7,27,75,-38,19,11,7,7
1693678243294714200,10,12,12,-28,-56,4,1,4
1693678243295714100,-2,0,-46,-5,32,-6,0,0
1693678243316702800,-1,-1,-23,-15,18,7,2,0
1693678243318702100,-7,-19,-17,2,52,-7,1,0
1693678243320699300,2,-17,-90,11,-14,30,3,-1
1693678243321700000,9,38,127,-18,-12,-18,-3,3
1693678243331693300,-7,-27,-72,125,81,37,3,-1
1693678243334694000,20,48,58,105,-95,-22,5,10
1693678243336690500,-6,-15,-120,-96,43,-1,-1,-3
1693678243337691600,-6,-3,-2,106,109,22,0,-3
1693678243351682000,18,52,88,25,-31,20,10,12
1693678243353682800,-20,-50,-128,-127,122,-23,-5,-13
1693678243355681000,6,10,-4,31,64,32,2,4
1693678243356680600,5,18,-19,-23,87,-4,4,3
1693678243374668800,-15,-36,-72,-109,-23,2,-15,-12
1693678243376666900,5,14,50,60,-41,-8,2,1
1693678243379666100,-13,-34,-64,-82,48,-4,-7,-8
1693678243382664100,9,22,84,27,86,40,7,6
1693678243401656600,-4,-14,-56,-72,23,-87,-17,-7
1693678243403651900,-12,-17,-45,76,116,47,3,-6
1693678243404653600,13,26,42,101,49,53,24,14
1693678243405651700,-22,-34,-95,-25,60,-18,-30,-19
1693678243411647200,8,23,58,52,51,35,7,4
1693678243415647800,-20,-30,-16,-21,-48,-25,-14,-13
1693678243417646700,5,14,73,127,69,39,5,4
1693678243419642500,4,8,-42,-20,13,-10,-3,12
1693678243442630900,6,14,87,38,65,42,11,-22
1693678243444630100,-12,-28,-100,-128,44,-39,-15,7
1693678243446629200,2,5,49,21,-75,-33,-3,7
1693678243449627600,-12,-32,-76,-90,-58,-12,-11,1
1693678243451623900,6,14,32,53,38,-16,11,8
1693678243453624800,0,-9,-26,-33,105,8,-1,-17
1693678243455622600,10,18,81,109,57,46,12,10
1693678243456621900,-11,-20,-55,-119,-128,-113,-42,-22
1693678243471613300,10,13,16,-18,-9,40,17,17
1693678243473613100,15,35,64,111,61,91,39,21
1693678243475611500,-32,-52,-90,-128,-59,-80,-54,-31
1693678243477610200,15,20,41,109,62,60,37,14
1693678243497599100,-12,-15,-17,108,-23,-26,-23,-11
1693678243500602200,6,19,54,2,34,22,7,8
1693678243502595700,5,7,-13,-22,64,35,14,0
1693678243504595100,-4,-5,-5,102,106,23,5,-3
1693678243517587400,-12,-17,-36,-58,29,-6,-17,-4
1693678243519587300,7,13,-15,51,-4,22,29,10
1693678243521584800,-16,-20,-24,23,-63,-53,-34,-21
1693678243523584800,2,8,26,23,-76,22,2,-2
1693678243531578900,-5,-18,-32,-128,40,-62,-5,4
1693678243533583400,2,3,6,100,22,-31,-14,-8
1693678243535577100,5,12,58,-102,-53,-17,2,4
1693678243537575200,-4,-23,-17,56,97,41,10,0
1693678243555564500,-12,-14,-18,0,8,25,-15,-12
1693678243556565200,-6,-22,-55,-128,36,3,1,-1
1693678243557565300,26,61,112,-17,9,0,24,19
1693678243558564700,-9,-20,-69,-37,-99,-51,-25,-13
1693678243569556700,19,41,48,89,-55,43,29,19
1693678243580551600,-31,-59,-88,-128,-25,-104,-61,-32
1693678243582549900,11,15,21,89,37,15,20,9
1693678243584547900,-8,-18,-79,-59,84,38,-1,-6
1693678243591543700,5,11,7,-10,-1,-14,-4,-1
1693678243593544000,12,25,30,113,-59,21,16,10
1693678243594542800,-11,-24,-84,-53,66,52,2,-4
1693678243598541300,-2,2,54,-19,6,-72,-17,-8
1693678243614536600,-9,-19,-45,-25,38,-44,1,2
1693678243615536900,-10,-22,-37,-75,-64,-12,-29,-13
1693678243618535300,1,-7,-5,4,18,-22,-5,-2
1693678243619533900,13,27,48,86,-54,52,38,20
1693678243628528200,-11,-23,-28,-121,95,-44,-30,-14
1693678243632528400,1,5,6,-69,-37,16,13,-2
1693678243643519000,0,-7,9,26,-74,-39,-6,-1
1693678243646519100,6,24,24,-3,47,34,16,8
1693678243651516400,14,25,42,99,-15,5,7,7
1693678243653514900,7,14,56,127,0,7,9,2
1693678243654513900,-8,-15,-35,19,-12,-11,-20,-8
1693678243655513400,1,0,23,16,-6,-2,5,1
1693678243673501600,1,2,1,-25,-28,32,16,6
1693678243675501400,4,4,-3,-3,51,18,8,4
1693678243676502400,-5,-11,-12,-63,-68,-24,-12,-5
1693678243678501100,1,7,16,10,-25,-6,4,0
1693678243688493600,0,-3,2,1,-27,-2,10,1
1693678243689493600,1,-7,-16,-16,0,0,-12,1
1693678243704485200,2,2,9,14,16,12,17,-2
1693678243706483400,-4,-4,-9,-50,-48,-50,-21,5
1693678243711480800,0,-2,-4,5,12,39,3,16
1693678243715480500,0,5,12,9,11,9,2,-38
1693678243716479900,2,7,0,6,21,1,35,14
1693678243718478800,-2,-1,1,13,8,9,-3,0
1693678243733471100,1,-1,6,3,-24,-7,-5,3
1693678243735467500,-30,-3,-3,7,4,-6,3,-1
1693678243736466500,-1,4,0,-3,13,2,-19,7
1693678243737466600,52,-7,-5,-18,-21,-6,28,-2
1693678243749459700,21,-2,1,9,2,6,-28,-4
1693678243751460000,-7,-5,-3,-16,-10,-9,-13,56
1693678243756454700,-1,10,9,24,17,1,-8,-20
1693678243758454000,-45,-2,-5,-21,-10,-3,-2,-50
1693678243771445800,-13,-3,9,16,-23,13,26,4
1693678243775444100,51,-2,-8,0,99,10,-7,8
1693678243776443800,3,-6,-8,6,-82,-35,-7,7
1693678243778443600,0,-4,6,2,20,13,-18,21
1693678243794433400,-26,17,-3,-7,-11,-3,-9,-43
1693678243799433000,9,-16,-18,-18,-16,1,47,-15
1693678243802429400,30,17,31,35,83,14,7,12
1693678243803429400,5,1,5,2,-22,-12,-9,3
1693678243808425500,-19,-8,-3,2,0,-3,-15,-19
1693678243809425400,-17,7,6,4,-18,6,4,24
1693678243817420900,1,-6,-15,-14,15,0,5,-43
1693678243818420100,-8,1,5,-6,-11,3,10,9
1693678243832412100,3,-4,1,12,14,7,1,15
1693678243838407600,-3,-2,-3,-4,-14,-5,12,-17
1693678243842406300,-7,2,-6,-12,-14,-9,-4,22
1693678243843407600,12,-2,-3,-3,5,-11,4,-8
1693678243853399800,9,-8,-12,-32,-25,-11,-25,-3
1693678243855400300,1,0,8,29,8,11,-5,3
1693678243856399700,-22,-3,-2,6,10,6,1,-11
1693678243857397600,-5,10,7,-5,-4,6,20,15
1693678243868390600,19,-7,-22,-36,15,7,18,-9
1693678243870391600,-3,1,25,49,8,3,-14,-10
1693678243875386000,-4,0,7,-13,-51,-15,-5,5
1693678243877386400,-5,0,-3,2,17,6,-1,-8
1693678243891377200,-4,-6,2,-5,-12,-5,3,15
1693678243893378100,-7,3,-18,-21,-12,2,-15,-8
1693678243894376300,-3,-5,-2,11,17,6,4,-5
1693678243897374300,-13,-2,6,-1,-12,-1,12,6
1693678243914365100,-8,-6,-2,7,-6,1,66,-33
1693678243916363800,37,-1,-8,-16,-6,-14,-101,29
1693678243921360600,56,10,-4,-4,16,-6,45,60
1693678243923361200,-14,4,-3,-7,-13,0,-7,-45
1693678243928355900,47,-1,1,1,3,-10,43,27
1693678243931355300,-51,7,0,-7,-11,10,3,-128
1693678243935353100,-21,-27,-21,-17,-2,10,-57,106
1693678243937351600,-32,3,10,13,7,-10,-6,-10
1693678243951343000,3,-13,-9,-9,-4,27,79,-17
1693678243953342800,59,21,8,-5,-17,-37,-68,66
1693678243954342200,-10,-11,-11,-6,4,-15,3,-43
1693678243955341200,-29,-8,-7,-22,-24,10,5,-81
1693678243973330900,-87,-6,4,10,10,1,-21,-8
1693678243975329700,17,3,-4,-7,-9,5,1,-41
1693678243981327200,57,18,8,11,19,41,21,-45
1693678243983335000,2,-8,-11,-4,-3,-64,13,127
1693678243997318700,-20,5,7,1,-3,6,-59,-102
1693678243999320600,-38,-8,-1,-2,-7,25,35,31
1693678244001317000,-29,-1,1,1,7,3,-20,-26
1693678244002314300,3,-4,-4,-6,-3,-2,1,-10
1693678244013308100,-5,5,2,4,0,-6,-19,39
1693678244015307400,5,-5,-2,1,6,1,36,10
1693678244019304600,-33,2,6,6,1,-13,-8,-23
1693678244021304600,30,-23,-14,-9,-4,4,-57,59
1693678244036295100,-38,6,4,1,1,-21,-1,-25
1693678244037295700,74,0,-3,3,14,49,32,29
1693678244041293100,-28,-12,-4,-12,-15,-31,-20,-79
1693678244043291000,26,25,8,8,13,41,-6,-8
1693678244050287500,38,5,-5,-3,-12,-83,-19,25
1693678244051286700,-34,-11,-3,-4,2,38,37,-18
1693678244055284100,-11,-14,-4,4,1,-4,-2,-13
1693678244057285400,36,25,9,3,-3,4,-15,-20
1693678244072274100,-3,-20,-11,-5,3,5,-29,45
1693678244073272900,2,9,3,2,10,45,16,33
1693678244074274400,-23,9,2,-2,-15,-36,-1,-44
1693678244075273900,-33,0,2,2,9,30,28,-8
1693678244094260800,75,1,2,4,-7,49,-79,-58
1693678244098259000,-48,-20,-9,-8,-10,-15,-20,32
1693678244100259200,-36,-13,0,3,20,34,27,40
1693678244101258400,-52,-3,-2,1,-1,15,3,52
1693678244108252500,72,7,3,-2,-8,20,-6,83
1693678244109252900,-15,10,2,0,-3,-39,12,-111
1693678244118249000,-22,-4,-1,13,31,28,-18,81
1693678244120246300,-29,9,13,6,15,-11,12,-49
1693678244133241700,38,-4,-3,-4,-9,-12,-25,-93
1693678244134239200,-44,-9,-4,-4,1,15,18,-51
1693678244136238200,38,21,7,7,11,3,2,12
1693678244138237700,0,-3,-2,9,34,120,16,-128
1693678244154226800,-53,-6,-3,-3,-14,-28,-1,6
1693678244155229100,77,20,11,12,6,10,3,1
1693678244156226400,-43,0,-4,-15,-31,7,-5,-118
1693678244158227000,21,-13,-2,1,9,7,-10,8
1693678244169222000,-20,-4,-6,-5,-3,23,16,36
1693678244171220100,-59,-21,-12,-14,-9,-22,-10,0
1693678244176215000,33,4,0,-6,2,-15,-7,-4
1693678244177215700,95,30,10,8,-3,4,10,21
1693678244191205100,-59,-8,1,4,11,-14,14,47
1693678244192205300,-17,-15,-4,0,9,33,-1,-6
1693678244194203500,-3,-8,-9,-11,-37,-90,-3,24
1693678244197203300,29,10,-4,-15,-19,-111,0,10
1693678244214195600,-59,4,-2,30,41,68,15,-27
1693678244216193500,51,11,59,-45,-69,49,17,61
1693678244218191900,-32,-9,-17,8,-6,40,21,0
1693678244220189500,-24,-29,-19,-8,-23,-11,-32,-15
1693678244241179700,23,5,-19,-19,20,-46,-5,1
1693678244244177700,-8,4,-1,8,-17,-68,-9,-2
1693678244248174900,33,1,5,4,28,62,25,28
1693678244253172400,-10,-4,-10,13,-2,-7,2,-1
1693678244260166700,-1,-9,-11,-17,1,17,6,4
1693678244262165000,-9,5,11,45,4,-80,-20,11
1693678244265164700,20,15,13,-5,1,103,15,-4
1693678244267164200,-45,-19,-5,21,22,-34,-17,-50
1693678244274158400,17,11,8,5,-16,79,-8,-1
1693678244276157600,31,-8,-29,-15,21,-24,12,12
1693678244277156900,2,1,-6,5,-4,-46,-14,-7
1693678244281155100,-25,-9,-6,-23,-27,-18,-4,-4
1693678244298144900,-5,-3,0,-22,-25,-12,8,11
1693678244301143700,2,18,1,-2,0,30,10,3
1693678244303143300,16,1,-10,30,33,-9,-1,0
1693678244304143000,9,-2,-26,-1,34,64,11,28
1693678244311136400,-3,9,77,3,-29,-67,-14,-8
1693678244315137200,-4,15,8,18,-13,36,10,13
1693678244317135100,-4,3,-11,19,-2,-79,2,7
1693678244318135400,-9,-15,18,37,3,19,-1,4
1693678244334124100,-1,-4,-61,17,73,24,15,3
1693678244335123900,-20,-8,46,15,-16,-72,-14,-15
1693678244336123000,4,1,-7,-16,-57,21,-3,10
1693678244339121700,3,-8,-2,-75,-44,-50,-15,-2
1693678244356111300,-14,-29,-27,-31,-39,-41,-14,-13
1693678244358110200,13,28,6,15,19,13,8,14
1693678244359111300,-8,-16,-6,29,36,4,-4,-6
1693678244360110000,3,3,-7,-28,9,46,13,13
1693678244371102500,-9,-8,6,42,-17,45,-13,-7
1693678244373102800,-23,-28,-65,33,87,54,4,-6
1693678244374102700,-5,-6,31,-27,0,-17,-16,-5
1693678244375102100,17,15,27,17,-56,33,35,17
1693678244394089000,2,5,1,102,46,-19,-1,3
1693678244396089100,-6,0,20,-127,-121,-20,-9,-5
1693678244398088500,-5,-21,-33,21,61,71,2,-8
1693678244400092900,4,11,-5,5,4,-83,1,7
1693678244424071500,3,4,-23,39,50,15,10,3
1693678244426071700,-11,-9,3,15,15,5,-8,-4
1693678244427070700,7,16,31,-45,-28,7,15,11
1693678244431070500,-9,-12,-10,-15,-3,-19,-18,-6
1693678244433069800,14,22,4,-51,-32,-9,13,11
1693678244435066300,-11,-17,-32,-3,9,-21,-10,-10
1693678244435066300,2,0,9,0,-15,16,3,5
1693678244436065600,-5,-13,-10,-4,22,-14,0,-2
1693678244454055200,22,42,47,-6,-20,35,16,14
1693678244456055200,2,1,2,26,17,-40,0,5
1693678244457054900,-16,-17,-18,-20,-19,72,-24,-57
1693678244458055600,17,26,23,31,21,60,16,63
1693678244476041800,-2,-6,5,-19,-11,58,1,-4
1693678244478041700,-8,-6,-16,-11,-4,52,5,0
1693678244481040400,6,11,0,-7,-14,-30,-21,-6
1693678244483040300,-11,-16,-11,-3,-3,23,-18,-24
1693678244491033200,1,-4,5,-44,-4,21,17,5
1693678244493032100,3,11,-1,68,49,44,-3,-1
1693678244494032200,3,5,28,1,-39,-33,-1,7
1693678244496032300,2,9,23,-4,-4,-9,2,-9
1693678244516019500,-3,-10,-31,-55,-28,-24,3,7
1693678244518019200,-7,-8,-13,-13,4,-15,-6,-11
1693678244520017300,1,2,-4,-10,47,7,11,15
1693678244521017200,1,11,22,80,-23,-15,4,-3
1693678244536007900,2,1,-4,-52,-8,-42,11,-8
1693678244538007100,-11,-18,-44,-7,20,59,-20,-5
1693678244539006400,1,2,40,85,12,118,-2,10
1693678244540006100,7,11,10,-48,-45,23,0,-3
1693678244552998400,-9,-15,-14,-11,-3,11,9,-4
1693678244554996800,-1,-1,-8,-23,-25,-14,2,-1
1693678244555998200,-3,-6,-19,-28,25,11,3,5
1693678244557995900,-5,-9,-10,70,39,-21,-2,-9
1693678244573986500,-2,3,15,52,4,19,-12,-4
1693678244574986700,-2,-3,-9,-57,-28,12,-5,-3
1693678244576985500,8,6,-10,-3,48,-7,13,9
1693678244578983800,-5,-10,-7,-22,-55,-48,-25,-11
1693678244604970000,4,3,5,25,35,8,19,10
1693678244605968300,-10,-10,-8,-19,-47,-85,-29,-9
1693678244607969700,1,2,3,-12,-17,40,6,4
1693678244608968000,2,3,-15,-51,7,16,3,3
1693678244610965800,-11,-16,-23,-12,19,24,-21,-9
1693678244613964600,3,7,26,7,-12,29,8,1
1693678244615964900,5,12,21,16,-24,14,5,5
1693678244617961600,-5,-12,-28,-29,15,15,-5,-6
1693678244633951900,-5,-6,-10,-40,18,88,-4,-2
1693678244635954600,9,17,40,72,-15,63,8,5
1693678244637950800,2,-1,-17,-29,2,54,9,6
1693678244638949800,-3,-1,6,8,-1,56,-3,-7
1693678244656938500,6,1,10,-14,-25,-86,4,6
1693678244658939400,-1,-5,-11,-28,-9,-48,-1,0
1693678244659938800,-4,-3,-10,12,0,-3,-8,-2
1693678244660938400,2,1,9,44,40,52,9,-1
1693678244670930900,1,4,4,-6,-23,7,1,3
1693678244672930000,0,-1,-1,-6,9,-35,5,3
1693678244673930100,-12,-9,-19,-7,-31,-128,-48,-16
1693678244674928700,-1,0,7,-23,43,120,5,2
1693678244693918400,-2,-1,6,1,49,61,0,-1
1693678244697915900,4,5,11,57,-61,13,10,4
1693678244698917000,-1,-9,-61,-107,54,-66,20,3
1693678244700915700,6,17,73,94,-72,-21,1,0
1693678244718904500,-2,-2,-7,-12,-47,-103,-21,-5
1693678244720903700,1,3,-2,-10,44,53,22,5
1693678244721903200,-8,-14,-29,-45,-18,-110,-28,-13
1693678244722901400,-7,-12,-29,-51,16,3,4,1
1693678244739891100,10,16,48,66,-15,65,8,5
1693678244752885700,-3,-4,-18,0,26,47,-2,-3
1693678244753883900,1,1,18,18,7,78,10,5
1693678244755883500,-2,-6,-21,-62,21,-97,-2,-2
1693678244756882700,-3,0,1,-31,-18,-9,-15,-7
1693678244758880100,3,3,22,36,-31,23,0,2
1693678244760878900,3,0,5,14,5,30,12,4
1693678244764883200,-1,-1,-3,43,-15,26,5,-2
1693678244775870100,-11,-15,-49,-66,43,-74,-29,-11
1693678244777871200,4,8,29,-2,-7,-41,9,5
1693678244780868100,4,6,6,30,18,45,8,4
1693678244782868000,-3,-2,17,92,44,-14,0,1
1693678244799861600,6,8,10,28,-19,-34,7,3
1693678244801855400,-1,-3,-7,-32,21,63,2,-1
1693678244802855600,-7,-8,-6,34,-40,18,-23,-10
1693678244803854900,-6,-14,-55,-128,18,30,-3,-4
1693678244822843800,-5,-7,11,114,60,39,-2,-3
1693678244824843700,-2,-3,-4,-27,-16,1,-2,-2
1693678244826841100,4,9,31,89,-43,23,17,6
1693678244830840300,-4,-7,-39,-65,16,-84,-21,-9
1693678244836836700,-1,1,22,-3,-57,101,3,2
1693678244838836200,-4,-3,-21,-3,17,-5,2,-3
1693678244839840400,0,-4,-12,-53,56,-5,-1,1
1693678244840845600,-7,-15,-28,-83,-37,18,3,-4
1693678244850827600,9,14,60,121,-32,-56,-3,3
1693678244852826100,-2,0,-11,-34,27,-13,5,1
1693678244858822500,3,2,-4,26,17,68,13,6
1693678244860823300,5,7,16,9,-20,8,8,6
1693678244873814100,-1,-1,-6,-46,14,17,10,1
1693678244874813800,-5,-4,0,23,-18,77,-8,-4
1693678244876814100,-4,-4,-7,-33,-10,1,-2,-2
1693678244877813800,3,3,21,22,42,56,5,1
1693678244897802300,3,5,18,100,-59,-18,1,1
1693678244899800000,-6,-5,-3,-43,18,-75,-10,-6
1693678244901803700,-2,-7,-18,-18,12,-34,1,-3
1693678244902799100,5,8,19,-47,-6,33,-3,4
1693678244910793000,1,7,28,17,-30,18,3,2
1693678244913792200,-3,-4,-11,89,-37,-58,-23,-6
1693678244918790200,1,2,11,-66,13,-1,7,1
1693678244920790400,-4,-11,-19,-74,-28,-62,-13,-5
1693678244933779900,-9,-12,-45,-11,48,-47,-16,-6
1693678244935779100,4,6,18,17,38,113,4,3
1693678244936779500,-5,-5,-13,25,-34,1,-14,-7
1693678244937782000,-4,-1,19,57,35,17,-18,-4
1693678244966761900,5,12,-3,-73,17,54,18,5
1693678244967762800,3,0,10,11,-10,-35,7,2
1693678244968761300,9,22,76,93,-76,-68,-13,2
1693678244969760700,-3,-7,-36,-16,8,62,6,0
1693678244971760100,-6,-17,-29,-128,58,14,6,-3
1693678244972759600,6,12,25,33,-39,57,7,5
1693678244980755400,3,0,-3,84,15,53,22,6
1693678244982753100,-3,2,-2,-3,-12,-115,-21,-7
1693678244993746000,-1,-2,-2,88,16,4,1,0
1693678244996747200,18,40,69,73,-11,1,13,13
1693678244998743400,-10,-23,-85,-128,32,119,-2,-9
1693678245000742900,9,24,57,127,-13,41,11,9
1693678245016733800,-6,-8,-32,-102,-2,86,-12,-10
1693678245017733000,-12,-25,-57,-111,83,14,2,-4
1693678245018731700,-1,5,13,6,-24,-61,-10,-2
1693678245020732200,0,-2,-4,-98,5,21,20,6
1693678245031723900,-2,-1,15,52,-55,7,9,-1
1693678245034724200,1,7,18,21,31,-61,-19,-5
1693678245038719300,1,2,16,33,-38,-11,4,2
1693678245040719600,-10,-18,-70,-86,46,0,-10,-9
1693678245053712400,4,8,38,-21,-66,-36,2,1
1693678245055711300,-1,1,27,15,28,-9,-3,-1
1693678245061707400,-3,-10,-49,-113,-38,5,5,0
1693678245068704600,12,25,76,-12,-67,-7,-1,4
1693678245076698200,0,1,9,94,-59,-10,-2,2
1693678245077697500,-16,-35,-119,-128,51,-13,-11,-11
1693678245080697200,7,12,27,57,-72,-9,4,5
1693678245082694700,7,18,70,93,-79,-12,-2,3
1693678245090689800,-5,-14,-65,-128,55,-1,21,-3
1693678245091691200,-1,-4,-7,-41,8,-9,-28,-3
1693678245099690200,-12,-26,-85,-120,123,16,-2,-4
1693678245101684200,2,8,48,104,-25,30,5,2
1693678245114676300,2,9,19,-40,-4,-19,1,2
1693678245117677200,-7,-13,-45,-79,1,56,6,-5
1693678245118675800,5,10,48,-22,30,12,9,6
1693678245119674900,-13,-21,-84,-92,68,-14,-26,-13
1693678245137664600,-2,-11,-46,-128,29,14,-7,-1
1693678245138663500,4,4,37,44,-40,-19,9,2
1693678245139662800,-7,-16,-72,-101,97,11,-5,-4
1693678245141663100,6,9,21,7,-47,-2,8,2
1693678245159650400,-4,-2,-2,30,54,-58,-12,-2
1693678245161650900,-8,-8,-25,-2,24,4,-13,-9
1693678245165647400,4,8,61,83,-86,-35,4,3
1693678245167646000,-4,-7,0,55,21,14,11,0
1693678245182637600,0,6,19,5,-1,4,-6,-3
1693678245183637800,-2,-9,-23,-73,0,2,2,2
1693678245185637300,6,9,13,-3,-2,0,-2,-2
1693678245187634700,-4,-11,-35,-105,70,25,4,1
1693678245199628500,0,2,24,71,-41,-4,-4,-1
1693678245202626000,2,1,10,21,-12,-6,20,1
1693678245204625300,-10,-13,-59,-80,17,13,-13,-7
1693678245228612200,-1,-4,-53,-73,63,16,1,2
1693678245233608900,2,-1,-14,-61,84,-15,2,4
1693678245236607200,-1,-1,-3,-51,-32,-23,4,-2
1693678245239605400,-1,3,6,-50,-10,-23,-1,-2
1693678245241603900,-5,-12,-63,-114,45,8,-4,-6
1693678245248600500,0,6,27,-84,-6,12,7,0
1693678245251598300,2,2,9,-32,-11,-41,-16,-4
1693678245253597400,1,-7,2,-32,-12,-30,-9,-4
1693678245255595300,-3,-8,-23,-1,-16,-34,-3,-3
1693678245258595900,-1,2,8,40,-11,13,-2,0
1693678245260595900,1,8,23,26,-20,23,8,3
1693678245265591500,3,8,28,53,-23,-5,-7,0
1693678245269589700,-4,-7,-9,12,-34,18,-5,-4
1693678245300570300,3,-1,-7,29,-30,-7,0,0
1693678245302569400,5,4,15,48,-1,-3,0,3
1693678245304567500,-3,3,17,44,3,-29,5,2
1693678245306566100,5,8,31,50,-38,-27,5,1
1693678245308566400,-3,-4,-16,-15,-1,45,-8,-6
1693678245310567100,-8,-13,-3,-10,7,15,27,28
1693678245317561300,-4,14,23,24,-6,2,-28,-7
1693678245319560200,10,11,16,22,-25,-4,17,21
1693678245322557700,12,-18,-16,-9,-11,-8,-42,-6
1693678245324558100,9,12,-10,-7,1,6,7,-4
1693678245326554900,-1,0,19,26,-10,2,9,-9
1693678245329553400,-53,-12,4,12,-21,-23,-7,-23
1693678245340547600,29,13,-5,-1,0,3,15,6
1693678245342547600,20,-4,10,8,-7,19,-1,-23
1693678245345544900,-41,-9,5,15,-1,8,8,21
1693678245349544000,-80,-14,5,6,1,9,-61,-23
1693678245354539000,74,37,-3,-2,-2,-13,-17,0
1693678245355539800,-94,-34,-7,-1,-10,-5,-4,104
1693678245358537300,15,40,3,2,-2,18,44,29
1693678245359535600,20,7,7,5,-4,-14,27,5
1693678245383522800,-24,-29,-12,-8,-9,9,18,-11
1693678245388520300,-64,-1,2,8,3,-12,-29,-59
1693678245389521700,78,-23,11,10,2,6,-21,-17
1693678245391518200,-22,17,5,12,-10,6,-3,-5
1693678245400513100,-26,1,-8,-9,-2,-15,5,23
1693678245402512600,48,-16,-7,-8,-2,-4,35,-23
1693678245404512900,-51,-5,9,9,2,-4,-27,-67
1693678245406510200,38,26,-3,-2,-9,-3,-11,4
1693678245415504800,32,-1,7,8,5,1,29,-15
1693678245417503600,-79,0,-4,-3,-2,-9,-31,-11
1693678245418501600,22,16,1,5,-1,0,25,50
1693678245420501600,-3,-28,5,1,-5,3,-11,-58
1693678245436492200,-128,-8,-5,-3,-9,-36,-16,13
1693678245438492800,-27,3,-2,3,-2,14,24,30
1693678245440491400,111,9,9,5,3,19,10,-24
1693678245442488800,-39,-4,-3,-2,-6,-32,14,89
1693678245459478300,-64,-12,-2,-3,-1,4,-22,-103
1693678245482467400,81,5,1,1,2,-1,-23,-42
1693678245485464500,34,-12,-14,-13,-20,-15,15,104
1693678245488463300,16,-7,8,2,-2,9,8,7
1693678245489463200,66,26,6,4,1,26,5,-3
1693678245492460500,-13,-9,-2,-5,-7,-33,8,-47
1693678245495459300,-60,1,-3,-1,-2,8,-50,-16
1693678245499456500,-29,-30,-8,0,3,11,6,-87
1693678245508451900,99,35,0,-7,-15,-24,13,127
1693678245525441400,-94,-32,-9,-5,-1,-2,25,21
1693678245530440600,-22,-3,5,2,-5,-12,-18,-70
1693678245536438300,36,0,2,1,-1,-4,7,7
1693678245540433300,-15,-11,-2,-3,-4,-9,2,-50
1693678245543431700,36,-8,-3,-5,1,9,-40,60
1693678245547429100,-25,34,14,13,10,3,24,87
1693678245549428600,33,-22,-8,-1,0,21,9,-21
1693678245552425800,-66,-40,-6,-2,0,-29,-21,43
1693678245554425400,105,44,-1,-2,-9,-38,5,-11
1693678245556424000,-19,-3,4,2,9,27,26,-31
1693678245559421900,-5,24,3,2,4,5,12,51
1693678245589404700,-60,-33,-8,-2,3,29,2,-29
1693678245591404500,14,30,11,7,-5,-22,-28,26
1693678245593402500,5,15,2,-2,-2,-19,-4,-41
1693678245596404200,38,-13,-2,-5,-3,0,18,-56
1693678245600397700,-61,-5,-2,-2,-5,-5,44,68
1693678245602396800,38,23,9,5,5,14,-92,-110
1693678245604396800,-3,21,-14,-14,-11,-13,-66,22
1693678245606395600,-80,-49,-6,2,8,23,59,-64
1693678245609394200,110,28,11,6,11,25,45,-75
1693678245614392400,-89,9,-13,-16,-22,-62,-76,19
1693678245616389800,-9,-20,-1,1,6,23,83,59
1693678245619387800,24,-11,2,4,4,7,-60,-65
1693678245638377500,-11,-6,-4,0,-1,3,10,-6
1693678245640374900,-28,25,10,6,8,31,74,22
1693678245642375100,23,-28,-10,-7,-10,-22,-36,-119
1693678245679353400,-8,-1,-10,-13,-21,-37,-55,28
1693678245683350800,32,22,7,11,12,23,42,64
1693678245685350100,13,-23,0,3,8,31,33,25
1693678245688470000,-17,-38,-9,-6,-1,1,54,87
1693678245690468900,63,59,15,13,12,11,-28,-18
1693678245692466600,-21,-16,1,-4,-16,-19,-1,13
1693678245694465900,7,-16,-1,-3,-9,8,22,-14
1693678245697467000,-43,11,1,4,0,-5,-29,-5
1693678245700461700,1,1,-10,-8,-11,13,-20,74
1693678245702462800,-41,22,4,13,22,22,37,-39
1693678245703461400,-14,29,13,14,12,24,14,29
1693678245705459300,-87,-16,-8,-16,-25,-18,-18,-121
1693678245706458900,66,-18,-3,-5,-13,9,19,32
1693678245709457900,-74,28,0,-1,4,-6,-10,95
1693678245711458800,-20,-29,-5,-8,-10,2,13,-9
1693678245727446400,111,-51,-3,2,-1,-8,-45,-79
1693678245729446800,8,62,3,5,7,14,43,127
1693678245742438200,54,-21,1,2,0,-8,-35,-128
1693678245745436900,29,1,-3,-9,-14,-9,-17,26
1693678245750433100,2,-3,7,16,29,18,7,108
1693678245751432400,45,-2,-1,-5,-10,-19,-38,-6
1693678245753431500,-32,35,-1,-6,-10,-6,2,26
1693678245755431600,-3,-12,-7,-4,-5,-21,-7,61
1693678245756430700,-58,-9,2,-7,0,-2,16,-36
1693678245758430000,19,19,15,10,8,-5,3,-20
1693678245760427300,19,-45,-10,-11,-10,-33,-59,29
1693678245764427800,-57,-11,-7,-3,17,96,32,12
1693678245767425900,43,20,-2,-10,-21,-48,1,94
1693678245769423800,-73,-2,5,6,0,-14,24,68
1693678245773420200,75,-25,-6,-7,-8,-2,-58,-68
1693678245775419100,21,21,8,9,10,14,13,20
1693678245782414600,-15,17,5,4,11,28,36,96
1693678245786418300,11,3,-3,7,20,40,-12,-44
1693678245798408300,-42,-27,-25,-16,-4,31,-9,39
1693678245801404900,46,-2,6,12,11,54,6,-17
1693678245803403000,18,1,-6,-8,-23,-68,-42,-36
1693678245805402300,28,1,3,-8,7,58,22,19
1693678245833012700,-19,-13,-15,-13,-11,-38,2,15
1693678245836011600,4,8,14,7,11,-22,2,-29
1693678245838008800,9,-6,-5,-10,-20,-12,-9,-1
1693678245840009100,-38,-12,0,10,25,32,7,-51
1693678245843006900,3,-1,4,12,9,-1,3,11
1693678245845005100,42,15,7,8,2,-27,20,-18
1693678245850003700,-42,-3,2,6,2,54,-5,-60
1693678245852000300,5,-7,-10,-13,-3,-52,-12,4
1693678245857996500,-3,10,5,-3,-4,38,1,-35
1693678245858997700,17,-23,-16,-5,8,-28,-15,-3
1693678245860997000,7,16,8,-4,-5,-13,7,-16
1693678245866994300,-49,-29,-29,-26,-13,-30,-3,-11
1693678245880986000,57,26,23,18,19,-31,-1,94
1693678245883984900,1,-2,-9,-15,-20,35,17,-30
1693678245884982000,-24,-25,-27,-19,-15,-6,-8,8
1693678245886981600,-19,-5,-5,-21,-43,-49,-15,-17
1693678245892976200,-7,-25,-23,-41,-27,-17,-10,-32
1693678245893976600,-22,14,6,4,-7,-14,-2,2
1693678245901973500,-17,-19,-16,-1,-3,7,1,-16
1693678245903972300,17,20,13,20,4,7,14,19
1693678245924958600,-9,0,25,33,60,-10,0,-32
1693678245926958400,-16,-2,-19,-41,-44,-8,-1,-6
1693678245930957800,-4,-8,-11,-23,66,5,-4,-11
1693678245933954400,4,17,20,-18,-60,17,18,-16
1693678245938950400,-1,16,28,31,7,8,0,-1
1693678245940950400,6,-20,-9,38,16,7,7,-11
1693678245941949200,9,13,0,32,24,25,-2,-1
1693678245942948700,10,13,-4,1,13,-4,2,1
1693678245952943800,-9,-3,4,46,48,25,0,-11
1693678245954943000,17,-1,-4,-45,-81,-67,-3,5
1693678245963938400,-3,-5,-6,-42,-18,1,2,-8
1693678245967934500,-20,7,25,33,26,-19,0,-1
1693678245975929100,11,12,-6,-22,-11,58,18,-1
1693678245977928800,-9,-24,-14,60,95,-51,-9,-24
1693678245982927000,13,27,35,-22,-107,-37,-10,10
1693678245985925300,-10,-14,-3,1,-11,-22,-11,-10
1693678245998917600,-4,-15,-17,4,18,92,-4,-7
1693678246001915300,9,2,-21,-46,-35,4,-13,-2
1693678246002916100,2,11,22,80,55,24,10,3
1693678246004913300,-3,-7,4,29,51,15,3,0
1693678246016906700,2,9,-8,-23,-50,2,1,-4
1693678246022903700,0,0,1,-7,24,10,5,-1
1693678246023904000,-8,-10,-23,-21,37,71,-8,-7
1693678246024901400,-4,-4,6,56,-5,30,5,-6
1693678246036894300,-16,-23,-27,-11,41,-49,-24,-11
1693678246038892900,24,38,47,38,-24,47,18,13
1693678246039894600,0,9,29,48,-3,-25,-1,-2
1693678246041891900,12,3,-10,-33,-56,30,15,8
1693678246058881600,-6,-13,-29,-47,-16,52,13,-5
1693678246060881000,-3,4,11,49,40,-81,-21,-7
1693678246063882800,1,-3,-17,1,14,32,15,4
1693678246066877900,-9,-5,-2,7,49,-25,-11,-4
1693678246072874000,-3,-5,-1,-54,-67,-75,0,-3
1693678246074873300,-2,-8,-6,0,32,93,-9,-7
1693678246081870600,9,17,12,8,8,-39,12,11
1693678246083868300,0,2,4,-34,-68,-92,-8,-2
1693678246098866600,8,10,2,-10,-25,-28,4,3
1693678246108855100,-6,-13,-24,-13,34,-64,-2,-5
1693678246109853700,-6,-3,8,27,-1,10,-12,-7
1693678246112851600,2,1,11,-3,-42,52,2,2
1693678246118847500,2,4,7,22,-24,-7,0,0
1693678246120847400,-6,-4,-8,23,37,-42,-4,-7
1693678246122846500,-2,-10,-32,-45,-15,-9,-3,-2
1693678246123846100,1,5,27,-18,26,48,7,1
1693678246141835300,-3,-2,10,67,1,3,-4,-1
1693678246142833400,-10,-12,-17,-96,-16,-47,-31,-13
1693678246147832600,2,-3,4,22,6,-35,18,7
1693678246150831400,4,9,2,-17,-37,17,-19,-7
1693678246156825500,-5,-6,-18,-73,41,22,-2,-5
1693678246158826000,5,1,6,50,-8,127,29,9
1693678246159826300,-11,-13,-27,-29,74,-90,-39,-14
1693678246160824900,2,0,7,31,-67,5,17,10
1693678246180813000,2,1,-8,5,26,50,-11,-6
1693678246183810900,-1,-2,-16,30,56,116,0,0
1693678246185809900,7,15,35,-45,-74,81,0,1
1693678246187808800,9,10,45,28,-9,113,36,12
1693678246202799100,-10,-13,-71,-106,51,-69,-45,-16
1693678246204798300,12,22,119,120,-67,-86,18,9
1693678246208797600,-1,-5,-48,-121,25,105,13,3
1693678246209795600,-23,-46,-71,-11,104,-20,-16,-14
1693678246216791200,25,56,110,66,-116,-25,5,14
1693678246218790600,-1,-18,-77,-84,79,-42,17,5
1693678246220788800,0,5,20,48,24,36,3,-2
1693678246222790000,2,-1,-11,45,-57,49,4,2
1693678246238778700,-11,-16,-43,-86,116,65,16,0
1693678246241776700,0,1,-3,-70,-10,25,-13,1
1693678246243775600,8,7,82,87,-128,64,26,12
1693678246246775300,-9,-14,-55,-117,-25,-66,-13,-9
1693678246265763900,4,-10,2,73,27,111,38,9
1693678246269761900,-14,9,16,15,-96,-31,-42,-21
1693678246271759900,2,-7,-46,-32,90,0,-6,-6
1693678246274758000,-6,-6,-1,-45,81,55,-5,-7
1693678246277756300,13,18,15,-36,-30,11,12,5
1693678246281756900,-1,-6,-52,-128,30,-54,3,-2
1693678246283755500,-11,-12,-32,107,93,0,3,-4
1693678246285752800,0,-19,-15,-49,-38,-118,-28,0
1693678246300743700,-24,-13,-52,-69,99,38,-8,-12
1693678246302742600,15,39,-12,-94,-18,-31,16,4
1693678246304740800,-14,-49,-98,-124,25,58,-18,-7
1693678246307740500,31,52,116,106,-55,-11,28,21
1693678246325728900,-5,-2,-41,26,2,-70,-6,-13
1693678246326728200,4,-8,47,89,-60,-62,-1,2
1693678246333726600,8,28,114,94,-95,-73,-5,3
1693678246335724900,-2,-9,-53,-124,81,33,4,2
1693678246338722300,-17,-35,-39,-49,-5,17,-6,-5
1693678246341722500,-9,-7,-16,-18,6,75,15,-3
1693678246342719300,17,27,61,30,-75,-100,-5,5
1693678246344718300,-23,-33,-92,-59,63,-14,-14,-13
1693678246358710200,14,16,31,-29,-80,-38,31,7
1693678246360710800,-2,-19,-13,-10,28,42,-23,1
1693678246362709600,-6,-2,-40,-52,-17,25,11,2
1693678246365706600,-5,6,-29,-36,81,40,-15,-12
1693678246382697100,5,4,23,-47,-9,-22,-8,2
1693678246384695900,-4,-15,-50,51,35,7,3,1
1693678246386694700,-5,0,64,64,-105,39,-3,-4
1693678246388694100,5,23,19,57,20,-28,-2,0
1693678246409682600,7,1,-7,65,9,-4,5,5
1693678246411680000,-3,-7,14,-19,-57,42,0,-2
1693678246415679300,-11,-17,-55,-59,108,-22,-6,-2
1693678246418675300,3,-13,-14,-128,-20,5,2,-1
1693678246421674800,-4,11,83,127,-50,-29,-9,0
1693678246423675900,-2,14,-7,-27,18,32,-3,-5
1693678246425671700,6,7,5,55,14,26,11,5
1693678246426671900,3,6,26,12,-14,16,3,1
1693678246441661900,-4,-14,-2,-18,-13,-11,-10,-1
1693678246443661400,3,-16,-10,-15,-14,11,-1,4
1693678246446660000,-8,0,19,-2,10,3,4,-2
1693678246449660700,5,16,30,127,-26,-22,-3,3
1693678246456653400,8,16,97,127,16,-3,4,8
1693678246458652400,-3,-15,-41,-72,-3,10,2,-4
1693678246459652500,-1,-8,12,17,-3,-65,-15,-6
1693678246460650900,-7,36,23,-45,17,42,-6,-7
1693678246482640200,0,-3,-10,-38,-27,-32,0,0
1693678246484638900,1,-7,-8,-90,10,55,7,1
1693678246486638700,8,10,36,29,15,-2,10,4
1693678246488637500,-10,-30,-88,56,54,-20,-10,-6
1693678246502628000,3,-5,0,-128,-41,45,-9,-2
1693678246504627100,-8,4,-11,8,24,-24,-11,-7
1693678246505625000,3,2,24,10,13,31,7,5
1693678246507625500,-4,17,21,-12,13,5,7,-4
1693678246516620600,8,8,29,81,-4,62,16,6
1693678246518618900,-7,-31,-71,-44,6,30,-9,-3
1693678246520617700,5,15,36,33,-19,70,8,3
1693678246521616800,-6,-31,-99,18,49,-45,-3,-5
1693678246538606400,-9,-19,-86,-125,28,-41,13,-5
1693678246540606100,1,18,61,87,-74,-42,-10,-1
1693678246541606400,-3,-2,-88,-33,-19,-50,-12,-7
1693678246543603500,-11,-21,-62,-86,-36,45,-13,-6
1693678246572587800,0,11,43,-74,35,3,-1,2
1693678246574588200,2,-2,8,127,40,-8,-2,-2
1693678246575587700,-6,-7,-110,-128,1,-34,-13,-9
1693678246577584600,0,-2,18,-17,-32,-20,7,1
1693678246582582800,-7,3,-40,-11,-4,5,-12,-5
1693678246584581100,-1,3,20,5,-19,15,3,3
1693678246587579300,4,4,30,3,7,-13,0,2
1693678246588578500,4,11,37,9,10,33,3,3
1693678246598573600,-4,-8,-33,60,12,11,-9,-4
1693678246601573000,-4,0,15,-45,7,2,-3,-2
1693678246602571500,-1,-8,-10,-1,29,-20,3,-3
1693678246604572900,4,5,19,-4,-13,4,4,3
1693678246621558700,0,-7,-27,0,-18,-21,-7,0
1693678246622558900,-6,-9,-65,-99,33,-17,4,-4
1693678246631558800,1,3,11,-80,-43,-4,-5,2
1693678246634554600,-2,-8,-3,-67,-4,38,3,1
1693678246636551000,7,19,64,-4,-67,-75,-9,3
1693678246638551300,-5,-1,-20,-99,6,46,7,-4
1693678246639551000,2,3,-15,8,50,44,2,1
1693678246640550100,0,2,38,101,-25,-38,-5,-1
1693678246658538700,-2,-8,-40,-36,-7,12,-4,-5
1693678246660536800,0,2,13,5,-9,1,-2,-1
1693678246664540400,-3,-2,-8,-27,0,9,-1,-2
1693678246666535500,0,2,20,-4,-5,-21,0,0
1693678246682526000,-3,-4,-7,14,10,4,-7,9
1693678246684524800,5,9,31,41,-9,-6,1,7
1693678246686523500,-3,-3,-4,4,23,15,-1,-23
1693678246687524500,-2,-10,-11,-12,0,20,2,3
1693678246697516400,0,4,-6,9,7,13,0,-4
1693678246700514200,3,5,21,37,-2,-7,-1,10
1693678246703512200,-4,-8,-23,-24,-2,7,1,3
1693678246705511900,1,1,3,-9,-12,-12,-1,-3
1693678246719503300,-2,-4,-1,3,15,5,-2,-2
1693678246724500600,1,3,16,11,-3,-10,1,-2
1693678246733497100,-2,-4,-11,-10,-3,-16,-1,0
1693678246735496200,-2,-3,2,-15,-10,-4,-2,-2
1693678246743489400,0,2,8,75,-4,-7,-1,2
1693678246750486700,1,-2,1,6,0,-3,3,-6
1693678246752485900,0,-4,-8,-10,-4,4,1,1
1693678246755483600,1,1,2,3,-1,-3,-2,2
1693678246757481800,-2,-3,-12,-20,2,8,-1,-5
1693678246758480700,0,-1,1,0,-4,-4,1,-1
1693678246765477600,-1,1,0,7,-8,-2,-1,4
1693678246767475800,0,1,9,4,15,-3,-2,-3
1693678246782467900,-3,-4,-7,-17,-14,-10,-2,-4
1693678246783468400,0,3,7,6,-9,-5,-1,-1
1693678246785467000,-3,-6,-19,-67,2,-3,-1,3
1693678246787464500,0,0,2,52,-4,-4,-1,-3
1693678246801456400,3,6,15,-4,4,6,1,0
1693678246804456500,0,-3,1,10,1,-1,8,2
1693678246805453900,-4,-3,-9,-15,-2,-4,-19,-4
1693678246807452800,-2,-3,-11,-17,-2,-1,2,-1
1693678246823444000,-6,-15,-77,-41,27,8,-3,-3
1693678246825442000,5,12,42,25,-18,-6,1,1
1693678246826442700,1,-2,-7,16,1,-4,6,-1
1693678246827442400,0,2,3,-1,-6,-2,-1,-2
1693678246838435800,-2,-3,-13,-13,3,-2,-1,-3
1693678246840434200,-3,-6,-20,-16,6,2,-2,-2
1693678246841435300,0,1,6,13,-1,3,5,2
1693678246842432600,2,0,1,-8,0,2,-4,2
1693678246865424400,-1,0,12,-4,-4,1,0,-2
1693678246868418800,-2,-2,-10,-4,1,2,7,-4
1693678246870417700,2,3,13,14,-7,-10,-4,-1
1693678246873414900,-1,1,0,-5,0,-3,2,-1
1693678246875414600,-1,-3,10,7,0,-3,-13,-1
1693678246876413100,1,3,5,7,-1,2,-2,1
1693678246884408900,-3,-7,-16,-4,0,2,2,2
1693678246886408000,-2,2,1,-9,-1,-2,5,0
1693678246923385500,1,0,7,9,-2,1,4,-3
1693678246925385400,1,-1,2,3,2,-3,-6,1
1693678246926384900,-1,2,0,2,2,1,5,0
1693678246930383100,-3,-4,-5,-10,-3,-1,-5,-2
1693678246934381100,-5,-6,-44,-57,9,6,-3,-2
1693678246937378400,4,11,68,20,-17,-7,-1,3
1693678246939377400,-1,0,-1,10,4,-4,0,1
1693678246940377100,5,7,26,48,0,1,3,1
1693678246942376400,-3,-4,-15,-21,-1,0,-1,-1
1693678246943376800,-5,-8,-34,-28,4,2,-2,-1
1693678246948376400,-1,-2,-4,-5,-2,-1,1,0
1693678246950374000,-2,-3,-6,-30,-3,-4,-3,-2
1693678246958366000,-2,6,20,27,-2,-3,3,0
1693678246960365500,-2,-3,-13,4,5,-2,-5,1
1693678246964365800,2,0,7,-5,-9,-2,6,1
1693678246967363000,1,-3,-11,-1,1,-5,-22,-1
1693678246982353400,0,-3,-1,-60,5,0,1,0
1693678246984352200,2,0,17,107,-20,-2,0,0
1693678246986351000,-3,-4,-21,-26,6,3,10,-3
1693678246988349800,-3,-1,2,9,2,-1,5,1
1693678247010337600,1,0,7,-5,-13,2,-1,2
1693678247015340000,-1,1,-9,-57,9,-17,-5,-1
1693678247019332800,-2,-1,3,36,3,15,3,-1
1693678247021330000,1,4,14,52,-17,-7,1,-1
1693678247022331800,4,5,29,23,9,30,0,4
1693678247024328600,-8,-9,-56,-60,-6,-30,1,-4
1693678247026327900,-3,-8,-29,-23,4,5,-4,1
1693678247029327400,-1,1,-2,-14,4,-24,1,-1
1693678247042317700,-3,2,-12,-32,0,21,-2,-4
1693678247043318100,2,4,43,70,2,19,2,2
1693678247046317000,-3,-14,-37,-15,2,-14,-6,-2
1693678247051313800,1,6,-2,-77,-4,42,1,2
1693678247065305300,-4,-8,-53,-60,19,-76,-5,-2
1693678247068304300,2,10,77,40,-20,21,-5,-1
1693678247069302500,0,13,63,12,-5,-4,-2,0
1693678247071302900,0,-1,-10,72,-6,0,8,2
1693678247083294600,-4,-14,-49,-58,-7,8,-7,-3
1693678247085294000,7,19,73,-38,7,0,3,3
1693678247087296700,-6,-21,-97,-37,34,42,-4,-4
1693678247089291400,7,24,78,87,6,39,8,5
1693678247110279500,-6,-16,-35,-6,-20,-30,0,-7
1693678247117275100,1,7,19,93,-37,-22,-8,-1
1693678247119273700,1,-1,-23,-70,18,-4,3,1
1693678247121273400,-10,-33,-113,-118,53,92,4,-4
1693678247124271300,18,61,127,119,-50,-15,5,12
1693678247126270300,-1,-14,-82,-36,-17,14,9,-1
1693678247127269400,-1,2,1,-52,67,-36,-8,-4
1693678247133269200,-6,-20,-95,-31,-4,24,6,-2
1693678247139262900,1,-5,42,87,127,28,-2,3
1693678247140262300,-8,-12,-109,28,-4,-99,-20,-9
1693678247141260700,17,10,47,85,11,73,14,13
1693678247142261100,6,34,4,14,101,-87,-7,2
1693678247166248100,-14,-34,-71,-79,90,-61,-7,-14
1693678247169246000,5,16,86,38,-31,-33,4,1
1693678247170246600,-8,-29,-128,81,50,-90,-23,-10
1693678247173243900,7,19,97,109,16,92,7,6
1693678247185237900,-11,16,-91,-82,-15,39,8,-5
1693678247187235400,-16,-30,-112,-128,-39,-46,-5,-5
1693678247188236200,-9,-12,-44,-41,61,-74,-2,-2
1693678247189234700,17,34,123,-25,-120,41,8,9
1693678247206225600,-2,-11,8,8,72,18,-5,-4
1693678247209224700,-10,-27,-99,21,29,79,-22,-6
1693678247210224100,0,14,36,-3,-65,-26,0,0
1693678247214222300,-5,-21,-50,-71,-18,-30,-3,-5
1693678247222216000,0,-21,-19,-16,-24,-19,4,2
1693678247224215400,19,39,82,71,-4,23,9,11
1693678247226214400,-3,20,23,31,-24,6,-8,-4
1693678247227211400,-5,-15,-30,-71,35,-42,-9,-7
1693678247247202800,8,12,78,67,-72,19,9,5
1693678247250199200,-4,-2,-26,-59,70,2,4,-2
1693678247252198800,2,16,28,-39,-61,17,-1,1
1693678247254197100,-3,-12,24,-79,1,23,14,1
1693678247267189900,-5,5,-11,-41,-22,9,-22,-3
1693678247270188100,3,3,20,25,30,11,1,3
1693678247274185600,4,3,43,-10,-41,35,8,4
1693678247275185000,-7,-13,-41,3,9,-27,-10,-4
1693678247285179200,0,-4,-24,-29,-14,47,10,0
1693678247287178400,10,21,83,52,-11,-82,-14,1
1693678247289178800,-7,-15,-35,-32,6,46,-2,-2
1693678247291175800,-4,-8,-18,88,77,-107,-8,-3
1693678247305169100,8,9,58,103,-76,-22,9,4
1693678247307166600,-6,-17,-46,-62,39,20,5,-3
1693678247320159600,-3,-5,3,-18,-13,-14,3,-3
1693678247322159500,-3,-2,-23,-15,-10,-1,-6,-2
1693678247324157000,2,3,1,8,0,0,-5,1
1693678247326157400,-6,-15,-26,-47,14,24,-9,-4
1693678247327157600,-1,3,18,16,-3,1,0,0
1693678247332153200,-1,0,-2,-3,-35,-8,-1,-3
1693678247343148000,2,3,5,15,-3,-10,3,0
1693678247348146800,0,-3,-17,-37,2,28,13,0
1693678247350144900,5,7,23,2,-3,9,-8,2
1693678247352142400,-3,-1,-6,-3,-17,-12,-2,-2
1693678247366133000,0,-5,-9,5,-3,-6,-5,-2
1693678247368132100,-6,-7,-15,-8,17,21,6,0
1693678247370130700,4,4,16,5,-3,2,1,-1
1693678247372131400,-1,-3,-9,-9,-10,-9,-2,-3
1693678247381126500,0,-1,-7,6,2,1,3,-1
1693678247383122400,-4,-3,-8,-17,-4,14,4,0
1693678247384123500,-1,2,8,0,-9,-7,-1,-1
1693678247388121800,-3,-5,-12,-15,-14,0,10,-1
1693678247408108500,-2,-6,-34,-59,10,6,-3,-2
1693678247409109600,2,5,42,56,-11,3,-3,0
1693678247410109200,0,-3,3,11,0,-2,-1,-2
1693678247416105400,-1,-3,-11,-3,-7,-1,-2,0
1693678247424099600,-4,-5,-14,-11,-5,-1,0,0
1693678247426098000,1,-5,-26,-36,15,13,13,2
1693678247427097800,2,4,19,22,-8,-6,-16,-1
1693678247433094400,-1,4,9,11,-5,-4,-2,0
1693678247439090200,-1,2,8,15,-3,-6,0,-2
1693678247440091000,-3,-5,-22,-28,-3,8,-9,-3
1693678247441089600,0,6,9,2,-3,-9,11,-1
1693678247442089100,-1,-2,-3,-7,0,3,-6,-1
1693678247466076400,-6,0,12,19,-4,2,18,-2
1693678247468074000,8,10,-7,-8,4,1,-5,3
1693678247470075100,6,-10,-20,-22,-2,8,-5,1
1693678247471072500,11,4,5,3,-3,-4,1,12
1693678247485064300,-5,1,6,15,1,4,8,-9
1693678247487063900,6,-2,0,-4,-3,-7,-24,-8
1693678247489063500,-6,-1,5,10,6,10,11,25
1693678247490062100,-38,-13,-9,-11,-6,-11,-14,-30
1693678247506052200,-2,-8,4,10,-2,0,-6,-3
1693678247507053300,-1,0,-5,-6,2,5,7,7
1693678247509050800,16,3,5,1,1,0,-1,3
1693678247510050600,-10,2,-1,1,-1,-4,-2,-11
1693678247521045000,3,2,-3,-6,-4,-3,-7,1
1693678247522043500,-15,-9,-6,3,-1,0,-2,9
1693678247531046200,9,1,-6,-7,-2,4,13,2
1693678247533037300,-3,-4,2,2,-4,-3,-16,7
1693678247548029500,5,3,-1,2,-1,-2,-11,8
1693678247550028400,4,-2,-5,-8,1,11,17,-14
1693678247552028000,-31,-3,1,2,0,-18,-18,-15
1693678247554026100,25,-6,-5,-5,-6,-8,11,-2
1693678247559021500,-29,-1,-1,1,-3,9,3,9
1693678247560022200,34,-2,-2,-3,-2,-3,4,-11
1693678247564024600,6,-2,-2,-5,0,7,4,0
1693678247567021000,-4,2,-6,-7,-4,-4,-10,8
1693678247584008300,3,3,6,1,-2,-5,8,11
1693678247587006100,-7,-5,-2,0,2,6,-19,-2
1693678247589004800,5,-1,-3,-5,-4,-2,-2,-11
1693678247591005300,-7,-4,-9,-22,5,3,10,-5
1693678247604995400,7,9,11,29,-2,5,-15,-5
1693678247606994900,-15,-12,-8,-10,-6,-13,4,0
1693678247608995700,-19,-4,-6,-10,-15,-14,-4,-8
1693678247609994300,4,1,0,7,10,5,-1,11
1693678247626982900,4,5,4,-1,6,5,9,-2
1693678247632980000,-10,-4,-13,-10,-2,-1,8,-6
1693678247634979400,4,14,31,12,5,5,-4,4
1693678247636979100,10,-3,-7,0,0,2,9,11
1693678247641974000,16,-2,0,-3,-5,-10,-11,-26
1693678247643973100,5,0,-5,0,5,2,1,8
1693678247648973000,-15,3,2,-2,4,5,9,16
1693678247650971600,2,-1,5,3,-4,-2,-3,-11
1693678247664961400,-39,-16,-11,-2,-3,-6,-17,-35
1693678247668959200,-1,3,8,-5,1,4,7,43
1693678247671958900,-35,-7,-15,-6,1,4,6,5
1693678247672956500,27,18,7,9,4,4,0,21
1693678247684950300,-11,12,9,-6,-8,-17,11,9
1693678247687948800,-19,-13,-4,2,2,3,-3,-12
1693678247689947300,22,12,2,4,3,2,10,-7
1693678247690946500,-14,-6,-3,2,0,11,0,-18
1693678247702939600,-31,-6,-10,-6,-1,-1,22,59
1693678247704938900,21,22,16,10,7,15,-5,-53
1693678247707940100,-32,-20,-6,-6,-4,-4,-24,81
1693678247709937200,-24,-8,0,3,-5,-28,10,-55
1693678247724926700,63,-3,-1,-6,-4,-18,-47,-39
1693678247726926900,5,0,3,3,0,11,64,-37
1693678247730930500,-70,-19,-14,-5,-4,-6,-37,-7
1693678247732922800,71,8,-4,-3,0,-10,-1,18
1693678247738919600,-41,-6,2,4,-2,-9,-4,-25
1693678247740919700,19,2,5,1,3,1,-18,17
1693678247748914100,20,-1,-2,-2,-2,-2,8,-19
1693678247751912400,-17,-12,1,1,2,28,3,-9
1693678247764908100,6,11,1,3,1,-11,10,24
1693678247766903600,0,-7,-5,-2,1,15,-27,13
1693678247768901100,-48,7,2,1,0,-3,12,-34
1693678247771901600,-9,1,2,0,1,23,-2,44
1693678247784894800,68,7,-2,-2,0,2,28,33
1693678247787891700,18,3,3,-4,5,11,-1,-23
1693678247789889700,-45,-6,4,5,1,-19,-4,-19
1693678247791890600,-33,-11,-6,-2,-3,16,-18,-22
1693678247806512500,-14,-6,-2,1,-12,-8,-7,2
1693678247809502200,-18,-3,-12,-15,-3,-12,-5,12
1693678247815500200,54,8,8,11,8,28,30,-1
1693678247818498100,4,1,-1,-9,-5,-3,-13,1
1693678247822495600,-6,4,5,5,4,11,-2,0
1693678247824495900,-1,-2,-18,-24,-13,-5,-5,-1
1693678247825494400,27,3,5,23,-1,40,-5,-11
1693678247829492100,-19,-12,-47,-24,24,-37,11,12
1693678247851478700,7,15,41,-97,-27,0,0,-10
1693678247855477100,-20,14,90,109,6,69,-4,10
1693678247867470000,9,-3,-14,-7,-30,-105,-1,-12
1693678247871469800,-1,-10,-79,15,18,25,19,-3
1693678247873467400,-18,-2,68,11,-33,65,-3,9
1693678247875465800,-18,-11,-58,-56,3,-68,-11,-21
1693678247876465400,38,12,5,-101,51,44,-10,1
1693678247880463800,-19,15,111,103,-49,21,19,21
1693678247883462700,10,-16,-56,16,23,-46,0,-3
1693678247884462100,-22,-12,-19,-4,-17,-38,-8,9
1693678247889456700,18,-7,-62,2,35,57,26,-7
1693678247890456700,1,-15,-34,-78,-22,-43,-12,1
1693678247905448100,-3,10,54,-17,-8,2,-26,-2
1693678247907447200,15,-2,47,74,10,-34,6,25
1693678247910444900,63,11,46,39,-14,14,-17,-18
1693678247915445800,-61,-2,-10,-9,-27,-20,-22,1
1693678247918440500,-3,-7,-35,6,5,16,6,-6
1693678247920440200,-5,-15,-95,-48,2,-10,5,0
1693678247933432000,-49,-1,42,28,24,10,-5,-13
1693678247935431200,73,19,29,15,28,41,8,17
1693678247940426600,-35,-13,-37,-31,-2,-27,-4,-6
1693678247942428500,-9,7,8,43,27,72,1,2
1693678247949424000,32,5,8,21,-25,-77,-5,12
1693678247951422900,-54,5,-5,-38,-3,-1,55,-70
1693678247966414800,98,2,-15,24,1,20,-10,43
1693678247968411300,4,-4,-34,-59,-4,10,-6,-12
1693678247970411900,-52,-14,0,-19,-36,-30,-33,-11
1693678247972411300,-36,-17,-24,-18,3,-24,-19,-23
1693678247981412600,2,14,33,55,39,17,14,-10
1693678247983403700,-35,2,-9,-5,-14,-28,1,-5
1693678247987401100,29,0,52,18,-32,13,26,-27
1693678247988400700,29,-5,-53,-46,34,2,-9,57
1693678248009390600,-10,-11,-8,2,-8,34,11,30
1693678248014391000,25,12,65,31,-3,45,-43,5
1693678248017386200,80,9,-25,-19,-11,29,115,15
1693678248019382300,26,-18,-7,1,5,-78,-112,-56
1693678248024380600,-58,-13,-45,-37,2,59,13,-15
1693678248026379100,4,7,53,2,-14,-31,22,2
1693678248032376700,-2,-6,-59,12,16,8,14,36
1693678248038373000,88,20,88,14,-18,-32,-12,-86
1693678248054363000,8,-9,-93,-71,26,-23,4,69
1693678248059361400,-38,22,87,79,-18,12,25,8
1693678248060360000,-21,5,-16,-42,-11,-65,-70,2
1693678248064362900,91,-1,-27,4,6,51,26,44
1693678248067356000,-21,-7,-15,18,7,-62,1,-95
1693678248069356900,8,-4,-18,-26,0,3,-10,20
1693678248071356900,-4,9,36,49,16,5,7,-14
1693678248072353100,-20,-19,-57,-13,-19,16,19,32
1693678248085344400,-63,7,52,34,7,-3,-17,-41
1693678248087344300,9,12,36,3,-22,-25,23,61
1693678248089346300,1,-6,-4,0,-6,-9,-36,-8
1693678248089346300,-46,0,-3,6,2,29,-18,10
1693678248107332200,38,-2,-15,-18,15,6,67,0
1693678248109332200,-11,-35,-128,8,4,-64,-11,-60
1693678248110330500,-41,35,91,-34,-4,90,-12,3
1693678248114332900,-13,-2,-25,80,-18,-32,52,26
1693678248120325900,35,13,58,64,13,-54,-81,0
1693678248122324900,-13,-5,-24,-85,3,33,7,-18
1693678248138315400,3,-26,-76,-9,18,24,-8,6
1693678248140315300,-6,29,104,1,35,63,50,15
1693678248148310300,8,-11,-31,-24,-15,10,-28,-11
1693678248150307700,121,11,5,75,-36,-11,-22,8
1693678248153305600,-88,-14,-16,-21,3,-5,-49,-7
1693678248154307100,10,-3,-7,-80,-1,17,-7,-3
1693678248168297700,11,7,34,70,-2,23,84,21
1693678248171296500,-1,-18,-97,-128,29,9,-71,-20
1693678248173295800,18,0,34,101,-36,-70,-83,-17
1693678248174294600,-2,23,65,4,2,9,26,-6
1693678248181292200,3,-37,-104,-37,29,49,75,34
1693678248183289600,14,38,81,-105,3,39,41,-10
1693678248189284700,-20,-4,37,85,-28,-40,-14,59
1693678248191284300,-48,-20,-58,-29,-76,-29,-122,-19
1693678248205277100,8,24,37,109,16,-6,55,-16
1693678248216270100,2,3,-9,1,51,37,-3,-2
1693678248220267400,9,-28,-80,-121,11,-47,-69,-12
1693678248224265200,11,2,10,33,20,72,-40,4
1693678248231262100,-15,0,-43,-61,-10,-59,-66,1
1693678248234262600,-15,-2,-6,44,-36,-73,-23,1
1693678248237257900,70,5,-41,-72,62,30,92,2
1693678248240256000,-101,-37,-113,-51,34,21,105,3
1693678248242256900,36,41,54,26,-30,47,-126,-10
1693678248243255700,-34,-20,-33,124,59,5,43,0
1693678248250250800,27,3,-22,-127,-27,14,81,9
1693678248252251600,13,-3,-36,41,39,-68,-47,-1
1693678248265244700,-14,-23,-76,-128,-18,40,66,1
1693678248267241300,-6,16,45,-39,-51,4,-28,-2
1693678248269240200,25,-1,-29,54,-12,10,2,-9
1693678248270240300,-8,-5,13,45,28,63,-8,15
1693678248287228700,-5,19,92,-57,-16,-80,62,-7
1693678248289227800,-1,-36,-29,-16,-21,-40,-70,0
1693678248290229400,13,8,-28,-54,41,3,50,7
1693678248292227300,20,-14,9,-69,-14,-34,67,9
1693678248307218600,27,22,99,116,-60,76,-76,-2
1693678248310215800,0,-2,11,12,28,31,61,13
1693678248316214600,-15,-10,-76,-81,-5,17,-16,-12
1693678248318211700,27,25,81,86,-56,-82,-9,16
1693678248324207300,-3,-15,-83,14,24,-33,10,5
1693678248326206300,6,4,41,-118,-11,37,57,11
1693678248329206500,-23,-59,-16,48,15,70,-21,-14
1693678248332206300,19,17,-38,-98,-25,-29,-31,-5
1693678248349194200,-14,-15,15,-4,14,-6,4,-8
1693678248351192800,-9,16,-4,35,17,32,8,-3
1693678248353192400,-6,-4,12,31,-13,0,4,-2
1693678248355190800,13,2,15,-17,13,8,11,4
1693678248361187000,-18,-4,-17,4,8,1,-78,-11
1693678248365185300,-7,-7,-25,-2,-3,2,1,-3
1693678248375180200,5,24,45,28,-15,-31,5,4
1693678248377179200,-1,-8,-24,13,7,4,-12,-8
1693678248384173700,-1,3,-17,-15,-7,-11,16,-3
1693678248387174200,-11,-3,-15,12,-5,-34,-12,1
1693678248389170600,-1,0,-16,9,2,-2,-3,-5
1693678248390173200,0,18,15,11,-2,16,16,-4
1693678248407160800,-2,-12,-19,-20,0,0,-6,-2
1693678248409159700,3,0,-5,-10,-2,-12,3,1
1693678248412158400,-3,8,15,14,-2,11,11,1
1693678248415156800,4,1,-4,2,-1,7,-2,-1
1693678248425150400,-6,2,0,-9,-1,-16,5,-1
1693678248427149500,-7,-11,-26,3,1,-5,-10,-3
1693678248434145600,-1,9,8,12,-7,-3,5,-2
1693678248436143900,0,-1,2,5,-1,-11,-4,-1
1693678248451135700,-6,-10,-21,-18,4,-2,0,-1
1693678248454134900,-1,2,-1,6,-4,2,3,-2
1693678248456132700,2,6,13,15,-1,-1,-3,0
1693678248458131600,-2,-2,-3,-4,0,0,1,-2
1693678248468125200,-3,-2,-6,-11,0,3,4,0
1693678248470124400,1,-2,-4,1,-2,-1,0,-3
1693678248473123400,0,2,5,3,-5,-8,2,2
1693678248475122700,-7,-8,-24,-55,7,4,-3,-4
1693678248481118800,-2,5,3,50,-5,-4,3,0
1693678248484116700,1,4,17,7,-12,-12,-3,0
1693678248491112400,0,4,13,7,5,2,1,-1
1693678248492111900,-1,0,-4,-8,-2,-2,2,-1
1693678248509102100,-5,-10,-22,-37,6,1,-2,-2
1693678248512107000,1,-1,-10,-18,-1,1,1,1
1693678248517097900,-1,1,-1,15,-1,-1,0,-1
1693678248519096500,-2,0,5,6,-4,3,1,-1
1693678248527178100,-2,-6,-12,-19,4,-3,0,-2
1693678248531176400,-1,7,23,26,-4,-3,-1,0
1693678248534176300,-1,0,-3,-15,-2,1,1,-2
1693678248535176100,2,2,6,17,0,3,-1,1
1693678248542506100,0,-3,-5,-10,-2,-2,-2,-1
1693678248545505500,-2,-5,-20,-27,2,-4,3,-1
1693678248549502600,-1,-3,-10,17,2,5,-2,0
1693678248551501100,-2,-3,-10,-14,3,4,-1,-1
1693678248565525500,1,9,40,18,-3,9,5,0
1693678248568518000,-2,-5,-11,2,-7,-21,-4,-1
1693678248571517700,1,0,0,-17,2,-3,1,-1
1693678248573518000,-5,-7,-20,3,0,-3,0,-1
1693678248586904600,-2,-4,-16,-16,2,0,-4,-2
1693678248588907200,3,3,3,17,4,5,1,1
1693678248589906700,-1,2,16,5,-3,0,-4,1
1693678248590905900,0,-1,2,18,2,-2,1,-1
1693678248600903300,-3,-4,-6,-15,-6,-8,-2,1
1693678248602899100,-2,1,0,1,3,5,-1,0
1693678248609902400,3,3,2,6,6,-5,2,0
1693678248613902000,-5,2,13,8,-12,-6,-2,-2
1693678248624893900,9,0,7,-4,-4,-8,-2,-1
1693678248625894000,-4,-6,-17,-13,2,-2,-3,-3
1693678248628892600,-1,0,-1,11,-2,15,0,-1
1693678248631891600,1,3,10,-2,2,-2,0,0
1693678248647880700,-6,-4,-9,-1,0,-2,0,0
1693678248651881800,-3,-8,-40,-38,2,3,0,-2
1693678248652879000,2,8,43,37,0,-4,1,-1
1693678248654878100,7,10,48,55,-8,-3,1,2
1693678248668500200,-2,-3,-8,6,-2,-4,1,0
1693678248671496600,-2,-5,-6,9,7,13,-1,0
1693678248673496700,-5,-3,-12,-39,-3,-3,2,-3
1693678248675494400,0,-1,-6,-31,-4,5,-9,0
1693678248684490900,-3,-1,11,12,0,-11,2,-1
1693678248686488800,2,1,6,8,0,4,3,1
1693678248688487500,-2,-5,-16,-3,-1,-3,-1,-1
1693678248689486500,0,-2,-5,1,3,7,6,1
1693678248707247000,2,3,-2,-12,1,1,-2,-2
1693678248709246900,-3,0,1,3,-3,-3,-1,-3
1693678248712244900,3,-1,-6,-3,-3,-4,-1,-2
1693678248716244700,36,5,-3,-6,3,-3,1,29
1693678248720240300,-46,-7,-7,-6,0,5,1,-34
1693678248722240200,-5,3,11,11,1,-4,1,-6
