timestamp,EMG_s0,EMG_s1,EMG_s2,EMG_s3,EMG_s4,EMG_s5,EMG_s6,EMG_s7
1693678133211114400,-5,-18,-105,37,13,17,-7,-7
1693678133214114400,-17,-27,-95,-67,-2,15,-14,-10
1693678133215112800,6,31,79,41,-63,-29,-4,-1
1693678133216111500,-4,-8,-36,11,-6,20,-2,-3
1693678133224120000,-1,-6,-3,-85,10,-1,5,0
1693678133227105800,3,7,33,56,29,34,12,3
1693678133228106700,-8,-32,-104,-74,39,62,-2,-2
1693678133230104300,-1,1,20,3,-57,28,3,-1
1693678133232102000,16,42,127,63,-62,-20,7,10
1693678133233102200,5,1,-43,32,41,-59,0,2
1693678133234100500,-7,-29,-100,-45,72,-25,-8,-4
1693678133235100900,6,19,75,-75,14,23,10,4
1693678133248026500,-4,-9,-24,-61,-37,-17,5,-2
1693678133250023900,-2,-3,-4,106,-20,71,-14,-2
1693678133260692100,-1,10,24,36,5,-39,5,0
1693678133262690100,4,11,27,106,11,-23,-19,0
1693678133264688600,-6,-10,-41,-82,12,19,-7,-6
1693678133265690000,0,-4,-19,1,-4,-8,0,0
1693678133274553600,-2,7,6,61,-33,34,2,1
1693678133275552200,-2,-11,-30,0,23,29,2,-2
1693678133285405200,0,0,16,18,5,-43,9,1
1693678133287426500,8,9,26,6,-8,-14,11,4
1693678133299179900,1,0,10,-32,1,14,-25,-2
1693678133301197900,-1,-1,-15,-1,3,-80,1,0
1693678133307179500,4,8,30,59,13,16,-3,3
1693678133310174100,-3,-9,-23,-66,-6,-22,4,-3
1693678133322983600,-2,-3,2,-22,-10,-31,0,-1
1693678133324986500,2,4,6,-19,-10,3,9,0
1693678133326980900,-5,-17,-44,0,6,-1,-27,-6
1693678133328980800,-1,7,27,-37,-9,-14,8,-2
1693678133386488800,0,-3,-1,-3,0,7,32,-8
1693678133390488000,-104,1,6,8,2,-5,-14,6
1693678133392485500,95,1,4,-1,1,2,10,-13
1693678133394484900,-23,22,-1,-8,-9,-8,-27,15
1693678133396483700,80,7,2,9,5,6,70,25
1693678133398481600,-91,1,9,3,7,5,-7,-85
1693678133400480400,65,-1,-3,2,6,-1,-4,9
1693678133402480700,73,-10,-3,-1,-5,-4,8,37
1693678133405478900,85,2,-18,-24,-15,-5,-46,43
1693678133408477300,27,-2,5,6,5,-6,-10,-6
1693678133411475200,-72,0,-2,-12,-3,-8,61,-18
1693678133414472800,-119,-14,7,20,10,5,-9,-30
1693678133417471500,0,-1,2,0,-1,2,-26,4
1693678133419470600,34,-12,-13,-4,-2,1,-1,16
1693678133422468100,-33,-13,-3,-2,-3,-10,-31,-2
1693678133432462400,-14,22,-4,-14,-5,-5,31,7
1693678133434464900,-110,-11,2,9,3,0,-3,-43
1693678133437460000,-29,-8,-5,1,-5,-1,-6,40
1693678133441456900,21,19,8,10,5,6,-23,13
1693678133443456000,46,-1,-3,0,5,1,8,19
1693678133445454600,-71,1,7,5,0,-12,-22,-10
1693678133446454200,109,-10,-12,-11,-4,2,3,2
1693678133457447400,-34,-2,3,5,2,6,27,14
1693678133459446200,-66,2,1,5,1,1,-20,-69
1693678133462446100,9,-14,-3,-8,-5,-6,-11,18
1693678133465443900,-10,-3,-1,2,0,2,43,-8
1693678133477437000,-94,-17,-4,-6,-3,-2,-9,-57
1693678133480434100,67,-5,-5,-8,-6,2,-8,51
1693678133481434200,5,20,-1,-2,6,0,-27,6
1693678133483433300,72,12,4,5,1,7,6,78
1693678133501423400,5,-10,0,4,-1,-12,-4,-86
1693678133505421200,-86,-22,-8,-11,-7,-5,2,-46
1693678133507418600,45,21,4,6,1,21,2,4
1693678133508420900,5,3,-5,-12,-4,-22,5,66
1693678133514414400,-51,5,7,18,18,21,13,-44
1693678133516414300,34,-14,-13,-17,-22,-16,-30,86
1693678133519413100,-24,4,11,8,2,27,51,-27
1693678133521410900,2,19,-1,-8,-9,-31,-21,-12
1693678133537402100,-9,13,1,2,-2,40,-30,26
1693678133540401300,-86,-71,-12,-9,-7,-27,-43,-19
1693678133542398600,-90,36,3,3,-5,-19,-8,21
1693678133544397700,59,-26,6,4,11,30,108,-118
1693678133560390000,-46,24,-14,-16,-7,-4,-30,81
1693678133563386700,59,35,13,16,11,20,49,64
1693678133567386700,-63,-50,-15,-12,5,25,25,-74
1693678133569384000,-114,-4,9,15,9,-41,-20,83
1693678133576380200,-14,-29,-3,-8,-6,-46,-66,-72
1693678133577378000,73,26,8,13,10,51,72,-76
1693678133578379800,7,-8,0,0,5,-9,47,124
1693678133580377900,-8,46,-8,-17,-8,-6,-38,-107
1693678133597426600,-80,-44,2,-8,-27,-24,-6,-27
1693678133599422900,70,34,4,8,-2,-21,-6,-65
1693678133600422000,122,25,-6,-11,-8,-2,-46,86
1693678133601421600,-45,-42,6,22,15,21,38,-22
1693678133619152200,113,45,5,-5,-8,-13,-4,46
1693678133621156400,-66,-12,-7,-14,-15,-27,-16,-45
1693678133627153700,-16,-19,-5,12,16,5,-30,-40
1693678133628155700,18,20,4,-5,-11,15,-14,15
1693678133636083700,-5,-4,-5,12,20,9,-16,10
1693678133638082500,-8,6,6,1,-5,11,3,10
1693678133641085000,-24,-18,4,15,26,23,0,-38
1693678133643081900,-22,-6,-1,-8,-26,-20,-28,-1
1693678133658409300,0,6,-2,-26,-38,-15,31,8
1693678133659406900,-5,-9,-13,-27,-9,-4,-10,10
1693678133661405900,-21,-10,-5,-2,-4,-9,-9,-39
1693678133663427600,-12,-11,-11,4,2,-6,-8,-15
1693678133680121500,6,18,-3,-9,-13,3,12,-17
1693678133682120000,10,-15,-6,11,10,18,14,21
1693678133683119100,13,35,28,4,-13,-17,2,-12
1693678133684117400,4,-9,-7,7,12,7,-11,5
1693678133702746300,-5,-6,-15,-42,-41,-51,-3,5
1693678133707745100,-12,7,2,-8,-5,-7,-5,-2
1693678133708742000,-31,-34,-8,37,69,24,-13,-34
1693678133710739500,1,28,21,-14,-54,-14,-1,8
1693678133741455700,-23,-41,-5,30,57,39,17,19
1693678133744454700,-17,-14,7,-10,-22,-14,-8,-2
1693678133746454000,35,49,0,2,0,-10,20,-7
1693678133747452300,-37,-15,-5,17,54,39,-49,-16
1693678133748473400,16,0,5,3,-21,-2,17,32
1693678133750453800,-1,-10,-18,-31,-27,-7,-12,-8
1693678133757578800,-25,-29,-20,-23,-10,-10,-4,-19
1693678133759567000,4,1,21,1,-6,-3,-2,4
1693678133760567000,-2,1,-7,1,-21,-16,0,4
1693678133762565200,-4,14,15,9,-2,-14,-6,1
1693678133764564900,-4,-8,-14,-26,-27,-27,-11,-10
1693678133766562600,-1,1,-9,23,35,44,11,-1
1693678133777508900,8,5,18,15,29,27,5,8
1693678133779508600,14,25,12,11,-4,7,14,7
1693678133780507500,-16,-13,-4,-30,-25,-24,-8,13
1693678133781507500,3,-12,-33,-78,-24,-28,-2,0
1693678133799981700,7,8,42,74,21,17,9,1
1693678133801983900,-4,2,0,-1,3,24,4,5
1693678133802986100,-11,-8,-4,3,-8,2,-4,-18
1693678133806983500,10,20,1,-4,-10,-13,7,8
1693678133813976500,0,-7,-34,-17,12,-3,1,3
1693678133815976600,-12,-7,1,7,28,-10,-11,-17
1693678133829549500,9,4,1,-56,-56,5,10,8
1693678133831549100,1,-4,2,87,44,15,-1,-1
1693678133836729700,5,3,-21,-41,15,-13,5,-1
1693678133840733700,0,-1,47,51,-26,-2,2,5
1693678133842730600,-6,-3,-33,-61,55,23,-3,-8
1693678133844731000,11,11,71,33,-99,-25,2,11
1693678133860501600,0,-1,-24,-12,9,1,1,-3
1693678133862502400,-8,-10,-22,17,27,-6,-3,-5
1693678133863504300,-4,-9,-29,-59,8,14,-2,-2
1693678133865499700,-5,-5,-22,-33,14,-22,2,-6
1693678133874482000,0,-4,-11,22,76,22,-1,2
1693678133875481600,5,11,50,-13,-78,-9,0,4
1693678133882478500,-4,-11,-23,-50,4,-2,-2,-8
1693678133883475600,-2,-8,3,55,52,7,-2,0
1693678133907530400,10,21,36,60,-65,3,0,3
1693678133909528400,-2,-2,-32,-95,33,12,2,1
1693678133910528100,1,-5,-35,51,46,6,18,-1
1693678133912526700,-5,9,43,-34,-68,-12,-38,-8
1693678133928049200,-6,-9,-18,-19,6,-11,-1,-2
1693678133930048000,-4,-17,-17,26,7,-13,-2,2
1693678133931047200,-3,14,36,31,-27,-11,8,1
1693678133932046000,-23,-76,-124,-128,119,52,17,1
1693678133935044900,-3,58,93,74,-55,-11,-12,-17
1693678133938043000,26,9,-36,-19,76,-55,-4,10
1693678133942040000,-16,8,-16,-52,77,23,-11,-11
1693678133945040000,33,44,89,70,-85,-34,23,17
1693678133957032300,5,-10,-62,-108,22,28,-3,3
1693678133959034700,-12,-10,67,15,-74,-14,-2,1
1693678133960033600,-4,-8,-38,-93,19,-31,-22,-16
1693678133962029500,6,43,-15,-23,39,23,4,0
1693678133980018700,-37,-81,-63,-128,21,-4,17,-18
1693678133982018400,23,45,7,19,31,74,-25,4
1693678133984017400,18,5,20,71,-48,-54,-11,4
1693678133986016400,2,19,-1,4,-12,24,-5,-4
1693678133994013900,13,-7,4,44,1,9,22,15
1693678133995012900,-33,-75,-63,-39,18,-6,-11,-18
1693678134002008900,6,33,77,105,-50,42,8,6
1693678134006004400,10,-8,6,67,-41,99,4,7
1693678134016999200,-6,16,-7,-41,-12,-3,-1,-10
1693678134018996500,-9,-22,-5,-13,-14,11,-1,-6
1693678134022994800,2,-2,-1,-4,0,-32,-15,5
1693678134025992600,-14,-5,-20,-40,10,-24,-2,-9
1693678134040984500,14,-7,6,28,-5,5,7,15
1693678134042984200,-3,21,5,6,12,42,19,0
1693678134044982200,-6,-5,-2,13,-11,-61,16,-7
1693678134046981500,-4,-10,-23,-27,7,-41,-31,-5
1693678134053976000,0,0,15,5,-5,-28,-1,2
1693678134056977100,3,11,-16,6,30,-29,-35,-4
1693678134061972500,1,-6,7,5,-9,34,29,9
1693678134063972000,-8,-21,-5,-16,-10,-55,-13,1
1693678134076963700,5,11,5,6,3,10,22,2
1693678134078963300,1,12,4,0,3,2,-49,-5
1693678134083960200,-8,-12,10,15,-17,12,-10,2
1693678134085958400,3,2,-8,-14,1,1,28,-1
1693678134107945700,20,2,-9,-5,5,4,-11,0
1693678134109945000,-5,-2,-7,-2,4,-2,29,-1
1693678134111944100,-5,-6,11,5,-8,11,10,-4
1693678134113941900,-2,-3,-17,-19,15,-7,-30,-8
1693678134114941700,-6,-3,-2,1,2,7,6,5
1693678134115941300,1,-2,4,5,-5,-10,3,-1
1693678134122939700,12,1,0,3,-4,-3,-14,3
1693678134125937700,-8,3,-11,-24,12,10,15,-4
1693678134136939500,-10,-7,12,-3,-10,2,20,-1
1693678134140938800,-4,5,0,1,-6,-11,-43,-4
1693678134142937000,-25,-1,0,3,-2,3,-11,-15
1693678134144936600,18,-16,-17,-17,1,-6,-6,0
1693678134160506600,-3,0,-9,-16,4,1,-17,-4
1693678134162503600,5,0,-6,2,7,5,34,7
1693678134163502100,4,5,10,8,-5,2,1,6
1693678134164501800,0,-2,3,5,-1,2,-11,-3
1693678134184487700,4,3,-1,0,1,-2,3,5
1693678134186483800,-9,1,0,3,0,4,27,-4
1693678134188483400,0,-4,-2,1,-1,0,-16,-1
1693678134190483100,-7,0,4,3,-1,2,22,-1
1693678134196479100,0,-7,-38,-19,10,3,-16,-2
1693678134198476500,7,15,40,24,-4,9,18,3
1693678134207473300,1,1,5,-25,-15,-2,19,-1
1693678134208471400,2,3,7,14,4,-8,-50,-1
1693678134223345400,-2,2,11,9,1,3,-8,2
1693678134225342000,-3,-9,-35,-33,-1,-6,-10,-6
1693678134227341900,0,-8,-22,-15,6,2,16,3
1693678134228340600,17,7,16,27,-6,19,22,8
1693678134234364400,-10,-5,-33,22,1,-16,-18,-6
1693678134235365900,-10,6,46,-34,10,7,9,-2
1693678134242801600,8,3,24,32,-7,2,-7,2
1693678134244801000,-10,-7,-30,-7,-4,-5,12,-2
1693678134257500400,8,9,36,0,7,22,-13,0
1693678134259497400,2,-1,5,8,-7,-29,18,1
1693678134265492600,2,-3,-28,-32,5,-1,-17,-1
1693678134267494600,0,3,29,77,2,0,4,1
1693678134290503200,-4,-1,3,-23,-9,-1,6,1
1693678134292500500,0,-1,2,50,13,2,6,0
1693678134294499600,1,1,6,-69,-18,-3,-14,-1
1693678134297499600,-8,-7,-15,-15,-1,-6,8,-1
1693678134310495900,-1,-1,-9,16,-1,-7,-5,-2
1693678134312495300,-2,-8,-22,2,2,10,5,1
1693678134313495100,7,6,32,40,1,0,-1,2
1693678134314493100,-4,-4,-12,-43,2,1,4,-2
1693678134316492000,-4,2,9,9,-6,-6,-3,-3
1693678134317491600,1,1,-11,-16,1,2,-9,0
1693678134340772800,0,-7,-23,4,6,1,2,-3
1693678134342771500,-2,3,21,0,-2,-3,0,2
1693678134344772000,-1,-6,-12,-38,0,1,-1,1
1693678134346772500,1,4,20,66,-8,-2,-1,-1
1693678134347770000,-3,-5,-16,26,9,1,-2,-2
1693678134348769700,-2,2,3,-15,-11,-1,4,-2
1693678134370495400,0,1,-1,-10,-3,-8,-4,-1
1693678134375493200,-2,-5,-19,-13,-1,3,0,-3
1693678134377491500,-3,-4,-8,-11,5,-1,-1,0
1693678134379491400,-1,3,2,-20,-14,-5,-4,-1
1693678134385070000,0,-1,-3,3,1,-1,2,-2
1693678134387077500,-1,-3,-11,-20,-1,1,-4,-1
1693678134391074000,-1,0,10,12,-1,2,0,1
1693678134392073000,-1,-3,-18,-12,9,-1,1,-1
1693678134415076600,1,3,15,10,-3,-2,-2,1
1693678134418094000,-2,0,-5,-12,-3,0,-1,0
1693678134419092000,2,-2,-7,6,4,3,-2,0
1693678134420091100,-1,-1,0,-4,3,-2,0,-2
1693678134430503500,2,2,10,15,-2,-1,-2,-1
1693678134432509500,-1,-2,-11,-8,1,1,-2,-1
1693678134434506000,-1,-1,0,-2,-3,0,-2,-1
1693678134434506000,-1,-2,1,-1,3,-1,0,-2
1693678134445076400,1,0,6,8,-3,-1,1,-2
1693678134447080100,-1,-3,-12,-15,-1,1,0,-2
1693678134448078600,0,1,6,4,-4,-1,0,1
1693678134449077700,-2,0,2,0,1,-1,1,-2
1693678134459071700,0,-1,-3,4,0,0,-3,-2
1693678134460071400,-2,-2,0,-7,-1,1,-1,0
1693678134468227900,0,-1,4,5,0,-3,-1,-2
1693678134470227400,-1,-3,-3,1,2,2,-1,0
1693678134482530200,-1,1,0,-1,-2,-1,1,-1
1693678134484507500,-1,0,-3,-7,-1,-1,-2,-1
1693678134485507300,-1,-1,3,3,0,0,0,-2
1693678134487508900,0,-1,-4,-4,1,1,0,-1
1693678134512526700,-2,0,1,3,0,1,-1,0
1693678134514480500,0,1,1,-4,0,0,-1,2
1693678134516479400,0,-1,-4,-2,0,0,1,-2
1693678134517500100,-2,-1,-2,-3,0,0,0,-1
1693678134518500900,-1,-2,2,3,0,-1,-1,0
1693678134520499100,-2,-1,-4,-3,0,-1,-1,-1
1693678134535468000,-1,-2,-2,0,0,1,2,0
1693678134536487600,-1,-2,-2,-4,0,-1,11,-3
1693678134542486900,-2,1,4,6,3,0,0,0
1693678134544464400,1,0,-3,-2,3,14,-6,-2
1693678134546462200,1,2,0,-1,-2,9,3,2
1693678134547461400,0,-2,0,-1,-2,1,0,0
1693678134565026600,-2,-1,-4,-2,0,-5,-6,-2
1693678134567041700,1,2,1,-1,0,-9,0,-1
1693678134568041300,0,-1,1,3,2,5,0,-3
1693678134569040500,-2,-3,-4,-5,-5,-6,1,-1
1693678134589606700,2,4,2,1,0,9,-3,3
1693678134592604500,1,2,3,-3,-3,26,9,3
1693678134593606700,0,0,2,4,9,47,8,3
1693678134594605400,0,-1,-1,1,6,31,3,-1
1693678134617619200,0,0,1,0,1,18,-2,-2
1693678134619622500,0,1,2,4,-6,-21,2,-2
1693678134621622700,-3,-4,-5,-5,1,-30,-20,-3
1693678134624621100,1,4,4,6,10,8,2,1
1693678134632275400,-2,-2,-3,-4,-4,-9,7,-1
1693678134634298500,-2,-1,-2,0,1,-1,2,-1
1693678134648690600,0,0,-1,1,-4,-8,-6,-1
1693678134649693500,-2,-1,-1,-1,-5,-17,-7,-2
1693678134651711500,-1,-2,0,-1,0,-13,-3,-3
1693678134652687700,-2,-5,-3,-4,-2,-5,0,-1
1693678134653686400,-2,1,0,0,-3,-3,2,-1
1693678134656687300,-1,-2,-3,-2,-3,-8,-2,-1
1693678134662682900,0,1,0,-2,-8,1,5,0
1693678134664703500,-2,-3,-7,-5,-3,-14,-1,-3
1693678134665680200,-1,-2,-2,0,-2,-11,5,-2
1693678134667701500,1,2,2,0,1,7,-8,0
1693678134692665000,1,-2,-3,0,1,3,2,-1
1693678134694666400,-2,-3,-5,-3,-2,0,-1,0
1693678134695663900,-1,1,0,-1,-1,-9,-1,-2
1693678134696685300,-2,0,-1,-2,0,-8,-1,-2
1693678134698624600,-1,-2,-1,-2,1,-1,0,1
1693678134699627800,-1,-2,-1,-1,-1,1,-2,-2
1693678134715617800,1,1,-1,-5,-6,3,5,4
1693678134716637300,-2,-3,-1,3,0,-1,-4,0
1693678134723505600,-1,0,0,1,0,-5,-3,-2
1693678134725503500,-3,0,0,-1,2,0,-6,-2
1693678134736267600,-1,-2,-1,0,-1,-5,-1,-1
1693678134740271500,-2,0,0,-1,-1,-5,-2,0
1693678134745267800,-1,-1,-1,0,-1,-2,-2,0
1693678134747264700,0,-1,-1,-2,-2,1,-1,0
1693678134748265000,0,0,1,0,-1,-1,-1,-2
1693678134749264300,-2,-1,0,-1,-1,-2,-1,0
1693678134758504700,-1,-2,-1,-1,1,-1,-1,1
1693678134760499900,-2,-3,-2,-1,0,4,-2,-2
1693678134767727000,0,-2,0,-1,-1,-3,-3,-1
1693678134769730200,-1,-2,-3,-2,-2,0,-3,-1
1693678134790639300,-2,-1,0,-2,-3,0,0,0
1693678134792638700,0,-1,0,-1,-1,-3,-1,-1
1693678134794637500,-2,0,0,0,-2,-3,-1,-2
1693678134795659400,-1,-1,-1,-1,-2,-3,-1,1
1693678134812700100,0,-1,0,-3,-2,0,0,1
1693678134814701500,-1,-1,1,0,0,1,-2,-1
1693678134815700500,-1,-1,0,0,-1,0,-2,-1
1693678134816700700,0,-1,-2,-2,-3,-1,0,0
1693678134818740100,0,0,-1,-1,1,-2,-2,-3
1693678134820763500,-1,-3,-1,-1,2,2,-1,1
1693678134827738800,0,0,-2,1,-1,-2,1,0
1693678134828739300,-1,-1,-1,-1,1,-3,-1,-2
1693678134841689500,-1,-2,0,1,1,-1,0,-2
1693678134843692800,-1,0,-1,0,-2,-1,-1,0
1693678134867401700,2,-2,-1,-2,0,1,-1,1
1693678134869404500,0,1,-2,0,-1,-1,0,0
1693678134870402800,-2,-1,-1,0,-2,-1,-1,-1
1693678134873399900,-1,0,-1,0,1,1,0,-1
1693678134875400500,-2,-1,-1,-1,-1,-1,1,2
1693678134876402200,-1,-1,0,0,-3,-1,-1,-1
1693678134890286900,0,-1,-2,-2,-1,-1,-2,-1
1693678134892279200,-1,0,-1,-1,-3,-1,0,-1
1693678134893273800,-1,-1,-2,-2,1,-1,-1,0
1693678134895274200,-1,0,0,-2,-1,-1,1,-1
1693678134902611200,-1,-1,0,0,1,-2,-2,-1
1693678134906574800,0,-2,-1,-1,-1,3,-2,0
1693678134908570900,0,-1,1,1,-1,-1,-3,0
1693678134909570400,0,-2,-1,0,-1,0,-2,0
1693678134925944300,-1,-1,0,-1,0,-2,-2,0
1693678134927941200,-1,-1,0,-1,-1,-2,2,-2
1693678134928943700,-2,0,1,0,-1,0,-2,0
1693678134929961800,0,0,-2,-1,-2,0,0,0
1693678134947403900,-1,0,-1,1,-2,-1,0,-2
1693678134949345200,0,-1,-1,-1,0,-2,0,0
1693678134951339800,-1,-2,0,-1,-1,-2,-1,-3
1693678134951339800,-1,-2,-1,-1,0,-4,0,-1
1693678134962337000,0,-2,-1,-4,-5,-2,-1,1
1693678134963335900,0,0,-1,-1,0,-1,0,0
1693678134968436900,1,1,-2,-1,0,-2,0,-2
1693678134970462400,-2,1,0,-3,-1,1,0,-3
1693678134985165700,-1,-1,-1,-1,-1,0,-1,1
1693678134987160700,-1,-2,0,0,0,-4,-3,-1
1693678134990185300,0,-1,0,-1,-1,-1,0,1
1693678134992180200,-1,-1,0,0,1,-1,-2,1
1693678135015043100,0,0,-1,1,-1,1,0,-1
1693678135016999200,-1,-1,-2,0,-2,-1,-2,-2
1693678135018002400,-1,-2,-1,0,-1,0,0,-1
1693678135019000500,-1,-2,-1,1,0,0,0,1
1693678135023003400,-3,0,-1,-1,0,1,-1,1
1693678135024995500,0,0,-2,1,1,0,-1,1
1693678135037339600,-2,-1,0,-1,-1,-1,-2,-1
1693678135040338900,1,-1,-1,-1,-2,1,0,-1
1693678135045335000,0,0,0,0,1,0,-2,-1
1693678135046333500,0,0,0,-1,-1,-2,-1,-3
1693678135048333200,0,1,-1,-2,-1,-1,-2,-2
1693678135049331700,-1,0,0,-3,-2,-2,-1,-1
1693678135067394600,0,-1,-1,0,0,-1,1,-3
1693678135069320900,-1,-1,0,0,0,0,0,-1
1693678135073323200,0,-1,0,0,0,0,-1,-1
1693678135074318400,-1,0,0,-1,-1,-4,0,0
1693678135089307800,0,0,-1,-1,-2,-1,-1,1
1693678135091308600,0,0,0,0,-1,-3,-2,-1
1693678135097302600,-1,0,-1,-1,-2,0,0,-1
1693678135099322900,0,0,-2,-1,0,-1,-1,-1
1693678135107296800,-2,0,-2,-1,-1,-1,-1,-1
1693678135109297400,-1,-1,-2,-2,-2,0,0,1
1693678135111294900,0,-1,0,1,-1,-1,-1,0
1693678135114292900,1,1,0,-1,-1,0,-1,0
1693678135127570400,2,0,-1,-1,-1,-1,-1,0
1693678135129570600,1,-2,-1,0,-1,0,1,-2
1693678135130570300,-1,-1,-1,-2,-1,-1,1,0
1693678135131569700,-2,0,-1,0,-2,0,-1,-2
1693678135142366100,0,-2,3,-1,0,-1,-1,-2
1693678135144367600,-2,-1,0,-1,-1,-1,0,-2
1693678135149891800,0,-1,-1,-1,-2,-2,-1,-1
1693678135151889700,0,0,-2,1,0,-1,0,-1
1693678135173555900,-1,-1,-1,-1,-1,-1,0,0
1693678135175557100,0,-1,-1,-2,-1,0,-1,-2
1693678135177554000,-2,-2,1,0,-3,0,0,-1
1693678135178562300,0,0,0,0,0,0,-1,0
1693678135203483400,0,-2,-3,0,-1,-1,-1,-2
1693678135208488900,-1,-1,-2,-1,0,0,-1,2
1693678135209489400,-2,-1,-1,0,1,-2,-1,-2
1693678135210488100,0,-1,-1,1,0,0,-1,-1
1693678135212483500,-2,0,-2,-1,-2,-1,-1,1
1693678135213482600,0,0,-2,0,-1,-1,-1,0
1693678135217930800,-2,-1,1,-1,-1,1,-1,-1
1693678135219929600,0,0,1,-1,0,-1,-1,-1
1693678135225926200,-1,0,0,-2,1,0,-1,-2
1693678135227925500,0,1,-2,0,-1,-2,-1,-2
1693678135230924000,0,-1,-2,-1,0,0,-1,1
1693678135232923700,-2,-1,1,-2,0,-1,-1,-1
1693678135247360100,-2,-1,-1,0,-1,0,0,-3
1693678135249358700,0,0,-1,0,0,2,0,-1
1693678135251357800,-1,-2,0,-2,-1,-1,-1,-1
1693678135252357100,-1,-1,-1,-1,-1,0,-1,0
1693678135270370600,0,0,0,-1,-2,-2,-2,-1
1693678135274373900,-1,-1,-1,-2,-1,-1,0,1
1693678135276368000,-1,-1,-2,0,0,0,1,-1
1693678135277367300,-1,-2,0,-1,0,-1,0,-1
1693678135292359500,1,-1,0,-1,-1,-2,0,-2
1693678135295359800,0,-1,1,0,-1,0,-1,-1
1693678135296357900,-1,0,-1,0,-1,-1,-2,0
1693678135298356400,0,-2,-1,0,-1,-1,-1,0
1693678135309482200,0,-2,0,-2,-1,0,0,-1
1693678135310481400,-2,-2,1,-1,-2,0,-1,0
1693678135313496700,0,0,-1,-2,-1,1,0,-1
1693678135315477700,1,0,-1,0,-1,0,-2,-1
1693678135322953800,1,-1,-2,0,1,-1,-2,0
1693678135325954200,1,-2,-1,-1,0,0,-1,0
1693678135339943800,-1,0,-2,-1,-1,-1,-2,-1
1693678135341939400,-2,-1,-1,-2,-2,0,0,-2
1693678135345936600,-1,0,-1,1,0,0,-1,1
1693678135347935900,0,-1,0,-1,-2,-1,-1,-2
1693678135349939100,0,-1,1,1,1,-1,0,0
1693678135350932900,-1,0,-1,-2,-1,-1,-1,-2
1693678135368231600,-3,0,-2,-1,0,-1,0,-1
1693678135372230700,-2,1,-1,-1,0,-1,1,0
1693678135374230300,0,0,-2,-1,-1,-1,-1,0
1693678135376225800,0,-1,-1,0,-2,-1,0,-1
1693678135381238200,-1,0,-1,1,0,0,0,0
1693678135383221000,-1,-1,0,-2,1,0,-2,1
1693678135390394300,0,0,-1,-1,1,0,0,0
1693678135392388800,-1,-1,0,0,-1,-2,-1,0
1693678135420606000,0,0,0,-2,-1,-1,-1,-1
1693678135424608100,0,-1,-2,-1,-1,-1,-1,-1
1693678135426601500,-1,0,0,0,-1,-1,0,-1
1693678135428601900,-1,0,-1,-1,1,0,-2,0
1693678135430600300,0,-1,-1,-1,-2,-1,0,-1
1693678135432600300,-2,-1,-2,-1,0,-1,0,0
1693678135434596400,0,-3,0,-3,-2,-1,0,1
1693678135435595500,-2,-2,0,-1,0,0,-1,-1
1693678135441593300,0,-2,-1,0,-1,-1,0,-1
1693678135442591900,-2,-2,-3,-1,1,0,-1,-3
1693678135450418900,0,2,0,-2,-3,-2,0,-2
1693678135451419400,0,0,1,-2,0,0,1,-1
1693678135465051100,-2,-3,0,0,2,0,-1,0
1693678135467066200,-1,-2,0,0,0,-1,-1,-1
1693678135468065200,-2,-1,0,1,1,0,0,-2
1693678135469063900,-1,-2,-2,0,-2,-1,-2,0
1693678135490371100,-1,1,0,-2,-1,-1,-1,-2
1693678135492368900,0,0,0,-1,-1,0,0,0
1693678135494367600,-1,-1,0,1,1,0,-1,0
1693678135495369300,0,-1,-1,0,-1,-3,-1,-1
1693678135501528000,-1,-1,-1,-1,0,0,-1,-1
1693678135502547600,0,-2,-1,-1,0,-1,1,-1
1693678135518149100,-1,0,0,-2,1,-1,-2,-1
1693678135519147800,0,-1,-2,0,-1,1,-2,0
1693678135525145000,-2,0,-3,1,-1,-1,1,-1
1693678135527145200,-1,0,0,0,-1,0,-1,0
1693678135529142500,0,-1,0,0,0,-1,-1,-2
1693678135530165500,-2,1,0,-1,0,-2,-1,-1
1693678135547351500,1,-1,0,-2,-1,-1,-2,-1
1693678135549350500,0,0,-2,-1,-2,1,-1,0
1693678135550349100,-2,-2,-2,0,-1,0,-2,0
1693678135552368800,-1,-1,0,-1,-1,0,-1,0
1693678135571509000,0,0,0,-2,-1,1,1,-1
1693678135574511100,0,0,0,-1,-2,-1,-2,0
1693678135575505400,0,-1,-1,-2,-2,-1,1,0
1693678135576505700,0,-1,-1,-2,-1,1,-2,-2
1693678135593143700,-1,-1,-1,-1,-3,0,-1,1
1693678135596165300,-1,0,-1,-2,0,0,-2,-1
1693678135597141800,0,-1,-1,0,0,-2,-1,0
1693678135598164600,0,-1,-2,0,0,1,-2,-1
1693678135615051000,-1,-1,0,1,-1,-1,0,-2
1693678135617065700,-1,1,-1,-1,-2,-1,-1,-1
1693678135619064600,0,0,-2,-1,0,-1,-2,0
1693678135620063800,0,-2,-1,-1,-1,0,0,0
1693678135623065800,2,-1,-1,1,0,-1,0,-1
1693678135625062900,0,1,1,0,-1,-1,-1,-2
1693678135630395600,-2,0,0,-2,-2,-1,-1,-2
1693678135631395600,0,-1,0,0,-2,-2,0,0
1693678135645325200,0,-1,-1,-1,0,-1,-1,0
1693678135647325700,1,-2,-2,2,0,-3,0,0
1693678135648340200,-1,-1,0,1,-2,-2,-1,0
1693678135649344500,-1,0,0,1,0,-1,-1,0
1693678135675408400,-1,0,0,-1,0,0,0,-1
1693678135677407300,-2,-2,-1,-1,0,-2,0,1
1693678135679430500,-1,-1,-1,-1,-1,0,-2,-1
1693678135680428200,0,-1,-2,-2,-2,-1,0,1
1693678135690305700,0,-1,-2,-2,-1,0,-1,-1
1693678135692306200,-1,-1,-1,-1,-2,-1,-1,0
1693678135694305800,-1,-1,-1,-2,2,-2,0,-3
1693678135696323600,-1,-1,0,0,0,-1,0,0
1693678135706398600,0,-1,0,2,-2,0,-1,0
1693678135708396100,0,-2,0,-1,-1,-1,-2,-2
1693678135710398100,-1,-1,-1,0,-1,1,0,0
1693678135711394500,-2,0,0,-1,0,0,1,-1
1693678135727981500,-1,1,0,-1,0,0,0,-1
1693678135728981300,-1,0,-1,0,-2,0,0,-1
1693678135730982000,0,-1,-1,-2,0,0,1,-1
1693678135731985500,-1,0,-1,-1,-1,0,0,0
1693678135741451800,0,1,0,-1,1,-2,-1,0
1693678135743453800,-2,0,1,-1,0,1,0,0
1693678135750353800,0,0,-1,-2,1,-1,1,-1
1693678135752354600,0,-1,-1,-2,0,-1,-1,-2
1693678135773527300,0,0,-1,-1,0,-1,-1,-1
1693678135775525800,-1,0,-1,0,0,0,-2,-2
1693678135777523600,1,-1,-1,-1,-1,-1,-2,-1
1693678135779523400,-1,0,-1,1,0,-1,-1,0
1693678135803264600,-2,-1,0,-1,0,0,-3,-2
1693678135808265000,0,-2,-1,0,-1,0,0,0
1693678135809264200,1,0,0,0,-1,1,-1,0
1693678135810264100,-1,-1,1,1,-1,-1,1,-2
1693678135813259000,-3,-1,0,-1,0,-1,1,0
1693678135815260900,0,1,-2,-1,-2,0,-1,-2
1693678135827250300,-1,0,-2,1,-1,-1,-1,1
1693678135829249700,1,0,0,-2,1,0,1,0
1693678135830248800,0,-1,0,0,1,1,-2,0
1693678135832248600,-2,-2,-2,-1,-1,-1,1,-1
1693678135834247300,-1,-1,0,1,0,-1,-2,1
1693678135836247900,-2,-1,-1,-1,-1,-1,0,-1
1693678135856234000,0,-1,-3,-1,0,-1,-1,-1
1693678135860236700,0,-1,0,-1,-1,-1,0,-2
1693678135861231000,-1,-1,-1,-1,-1,1,0,-3
1693678135864230200,0,-2,-2,-2,-2,0,-2,-1
1693678135878221900,0,0,-1,-1,0,-1,1,-1
1693678135880221200,0,-1,-1,-2,1,0,0,0
1693678135882219000,-1,-2,-1,0,-1,-1,-1,0
1693678135884218200,-2,0,-1,-2,0,1,-1,-2
1693678135886218400,-2,-2,-3,0,1,-2,0,-1
1693678135889216500,-1,-1,1,-1,2,-2,-1,1
1693678135900209700,-1,-1,-1,-1,0,-1,-1,-2
1693678135902207300,-1,0,-1,0,-2,-2,-1,-1
1693678135908206100,-2,-3,-2,0,-2,-1,1,-1
1693678135910205500,0,-1,-1,-1,0,-2,-1,-2
1693678135912202700,0,0,-1,-1,-2,0,-1,-2
1693678135914201100,0,-2,0,0,0,-1,-1,-1
1693678135930497500,-1,0,1,-3,-2,-1,-1,-2
1693678135932494200,-2,-2,-1,0,0,1,-2,1
1693678135933492600,-2,-1,0,0,-2,-2,-1,-1
1693678135934492100,-1,0,0,0,-1,-1,-1,0
1693678135945388600,1,-1,1,-1,-2,0,-1,-2
1693678135947387900,0,-2,-2,0,-1,0,-1,-1
1693678135948386600,-1,0,-1,-1,0,-1,-1,-1
1693678135950385500,-1,-1,-2,-1,0,0,0,0
1693678135967376900,-1,0,-1,1,-1,-1,-1,1
1693678135968375600,-2,0,0,0,-2,-1,-2,-1
1693678135982479700,-1,1,-2,0,-2,-3,-1,0
1693678135984478100,-1,0,0,-2,0,0,0,1
1693678135998150100,0,1,-1,-1,-1,-1,-3,1
1693678135999149000,-1,-1,-2,-2,-1,0,-1,1
1693678136000148400,-3,-1,1,0,-1,-1,-1,-1
1693678136001148200,-1,0,-1,0,0,1,-1,1
1693678136007150500,0,-2,-2,0,-3,-1,-1,-1
1693678136009144400,0,1,0,-1,0,-1,0,-3
1693678136011145500,0,-1,-2,-2,0,-1,-1,0
1693678136012143500,-2,0,-1,0,-3,-3,-1,-1
1693678136027502800,-2,-1,-2,1,-3,1,0,1
1693678136029502400,-1,-1,0,-1,-1,0,0,0
1693678136033500100,0,0,0,0,1,0,1,1
1693678136035499900,1,-1,0,0,1,1,0,-2
1693678136050369400,-1,-1,0,-2,1,-1,-1,-1
1693678136052368300,-1,-1,-1,0,-1,0,-1,-2
1693678136056366600,-1,-1,0,-1,0,0,0,0
1693678136061366100,-3,-2,-2,-1,-3,-2,0,1
1693678136073356200,-1,0,1,-1,1,-2,1,-2
1693678136076354600,1,0,-2,-2,0,-1,-2,1
1693678136079351700,-1,-1,0,-1,0,-2,-1,-3
1693678136080352600,1,-2,-2,0,0,0,0,-1
1693678136090164900,-1,-1,-2,-2,0,1,-1,0
1693678136092166300,-1,0,-1,1,-1,-2,0,-2
1693678136093165100,-1,0,-1,-1,-1,-1,-1,-1
1693678136094164100,1,0,-1,-1,-1,0,-2,-1
1693678136110501500,0,0,0,-1,0,0,-1,-1
1693678136112501600,0,-1,-1,-1,-1,-1,0,0
1693678136114499300,-2,0,-1,-2,-2,0,-2,-1
1693678136115498300,-1,0,1,-1,-1,-1,-1,0
1693678136124952600,-1,0,-1,0,1,-2,0,0
1693678136126952900,-1,2,-1,0,-1,0,-2,0
1693678136130949600,0,-1,-2,-1,-1,-1,-1,-1
1693678136132948000,0,-1,-2,0,1,0,-2,-2
1693678136147153100,0,-1,-1,-2,-1,0,0,-1
1693678136149156400,-2,-1,-1,-1,-2,1,-1,-1
1693678136150157100,0,-1,1,-1,0,0,0,0
1693678136151155800,-1,-2,-2,0,0,-1,-1,0
1693678136169150300,0,-1,0,-1,-1,-1,-1,0
1693678136172166700,-1,-1,-1,0,0,-2,-2,0
1693678136178163300,-2,-1,-1,-2,-1,-1,0,-1
1693678136179161900,0,0,1,0,-2,0,2,-1
1693678136184159000,-2,-1,-1,-1,-1,-2,-1,-1
1693678136186158000,-1,0,-2,-1,-1,0,-3,-1
1693678136191158600,0,-1,0,-1,-1,1,0,-1
1693678136193154500,0,-1,0,-1,0,0,-1,-2
1693678136207499000,-1,0,-1,-2,0,0,-2,-2
1693678136210496800,0,-3,0,-1,-2,-1,-1,-2
1693678136212495500,0,-1,-2,1,-1,0,-1,0
1693678136213493700,-1,0,-2,0,-1,0,0,-1
1693678136230504300,0,0,0,1,-1,0,0,1
1693678136231507700,-1,-1,-1,-2,-1,-1,0,-1
1693678136232508300,1,-1,-1,-2,-1,0,-1,-1
1693678136233507200,-1,1,1,-1,1,-1,0,0
1693678136244317700,-1,-1,-3,-2,0,-1,0,0
1693678136246316400,0,1,0,-1,-1,0,0,0
1693678136251505500,-1,-1,-1,0,0,0,0,0
1693678136252505600,-2,0,1,-1,-2,-1,-1,-1
1693678136275520900,1,-2,-1,1,-3,-2,-2,-3
1693678136277518500,-1,-3,0,1,0,0,0,0
1693678136278520100,-1,0,0,-1,0,-1,0,0
1693678136279518800,-2,-1,-1,0,-1,-1,-1,0
1693678136291319000,0,-1,-1,0,0,-2,1,0
1693678136293313800,1,-2,0,-2,-2,-1,0,-1
1693678136295313100,0,-2,0,-1,0,-1,-1,-3
1693678136297312000,-1,-1,-2,-2,0,0,-2,2
1693678136304502500,-1,-1,0,-2,-1,0,-3,-2
1693678136308500300,-1,0,-2,0,1,-1,-1,0
1693678136312497700,-1,-1,-1,0,-2,-1,-1,0
1693678136314498900,-1,-3,-1,-2,-1,-2,0,-2
1693678136327368200,-1,0,-1,0,0,0,-2,0
1693678136329367700,0,0,0,-1,1,-1,0,-1
1693678136331366700,-2,-1,0,-1,-1,0,-2,-1
1693678136332366200,0,-1,-2,3,0,-2,-2,-1
1693678136350231500,-1,-3,-8,3,5,4,0,-3
1693678136352230100,0,3,9,-20,-13,-3,-1,-1
1693678136353229800,-1,1,5,3,-2,3,0,1
1693678136358227600,0,1,5,-17,-8,-4,-1,-1
1693678136363481700,-2,-1,0,5,-1,-3,0,1
1693678136365479600,-2,-4,-20,28,13,1,-3,-2
1693678136373507900,0,-2,1,-3,9,10,-1,-1
1693678136375508800,3,-4,-4,-6,-17,-31,0,1
1693678136390291600,-3,-1,4,-6,-4,5,-3,-1
1693678136392296000,-1,1,0,16,5,-14,-3,1
1693678136394290300,-3,-1,-13,6,8,2,-1,-1
1693678136395290500,-1,0,-1,-28,-17,7,2,0
1693678136410497100,0,2,5,-30,-7,-18,-1,1
1693678136411494500,-1,4,32,-32,-25,11,-1,0
1693678136413495300,-1,-4,-11,-10,5,-19,-3,-4
1693678136414494700,-2,-2,-12,21,22,-12,-1,0
1693678136423521800,-2,3,15,-46,-31,19,-2,-3
1693678136425523400,2,0,-2,2,-2,-21,2,1
1693678136432933700,0,-1,0,4,-5,1,2,2
1693678136433949600,-1,-3,-6,-4,6,3,-1,-3
1693678136447288500,0,-1,-8,34,19,13,0,0
1693678136449242700,-1,-3,-4,-2,4,0,-2,-1
1693678136450241500,0,0,0,-3,-4,11,1,-2
1693678136451241000,-2,-2,-2,6,5,-1,-3,-2
1693678136477504800,0,-1,0,12,2,8,3,0
1693678136479503600,-3,-3,-4,1,-3,-19,-3,-2
1693678136480525000,-2,-2,-3,8,2,-5,0,-2
1693678136481501600,4,6,14,-1,-2,3,1,2
1693678136483522900,-1,-5,-4,-2,-17,-27,-3,-2
1693678136484522800,-2,-3,-9,-4,2,10,2,-1
1693678136492942900,1,1,2,3,-3,-4,-1,-1
1693678136494940800,-5,-4,-6,5,10,23,0,-3
1693678136515047700,3,1,12,10,1,-22,-2,1
1693678136517052200,-1,-2,-6,0,0,-9,-1,-1
1693678136518052800,-5,-5,-9,-6,-6,-6,-3,-3
1693678136519050900,0,3,9,-4,-2,20,0,1
1693678136530503800,2,4,-3,8,13,5,4,3
1693678136531527500,-1,-3,-10,5,6,-3,1,-1
1693678136533529200,1,5,23,-12,-11,1,-2,1
1693678136533529200,0,-3,-4,5,-2,-1,-1,-2
1693678136560267700,-3,-6,-8,0,1,-5,-4,-2
1693678136562267600,-3,-10,-9,-9,-2,6,-4,-1
1693678136563265500,-3,0,-1,2,3,8,-1,-3
1693678136564265600,5,22,15,17,6,0,1,4
1693678136568269300,-1,-16,-3,-1,1,-5,-2,-2
1693678136571262900,-5,-4,-4,-1,0,10,4,0
1693678136574261200,1,-17,-15,-15,-6,-7,7,-1
1693678136575261900,-7,-4,-2,-6,-4,-5,-23,-7
1693678136590891200,-4,10,6,9,6,-3,3,2
1693678136593889800,7,1,0,1,2,30,-3,1
1693678136594891400,-44,15,2,-3,-5,-6,-1,-7
1693678136595890200,71,-18,5,10,0,-3,11,9
1693678136606111200,-21,-1,-15,-2,3,7,-3,-9
1693678136610107700,27,2,5,-3,-3,-8,2,9
1693678136627540400,20,6,-7,8,12,-5,-9,3
1693678136629540600,-39,-4,5,36,1,5,11,-5
1693678136630539800,-12,1,18,-29,-8,-2,-5,-5
1693678136631538800,-1,6,6,10,-3,-3,-8,2
1693678136633596900,19,7,2,-2,1,0,2,-2
1693678136635537700,23,-5,-3,-8,-1,-11,-24,2
1693678136651224800,2,-7,-30,34,11,8,9,-1
1693678136653219100,-12,1,10,-32,-6,-3,-1,-7
1693678136655218700,-4,0,8,22,3,2,4,2
1693678136658219500,-9,-2,-7,-2,2,-3,9,0
1693678136664213900,-43,0,3,1,-6,3,1,1
1693678136665232600,42,1,-12,-5,3,-2,-3,-3
1693678136679936500,-57,-10,-6,-4,-1,-4,-4,6
1693678136681942200,48,0,-4,-16,-8,1,1,-18
1693678136689937200,-43,-7,-3,-11,-4,-6,-13,-21
1693678136691941600,21,18,24,28,12,7,9,11
1693678136692936400,7,-12,-1,-11,-5,-12,-7,-6
1693678136693940000,-31,3,-4,-6,-2,0,2,5
1693678136710548000,18,-8,-20,-28,-8,-2,-5,3
1693678136711569200,-27,-11,-22,9,3,0,-2,-8
1693678136712569200,13,4,33,35,2,0,-2,3
1693678136713567900,-16,19,17,-19,-6,1,5,5
1693678136732564000,31,4,6,20,-2,0,2,2
1693678136734495500,-28,-14,-47,-23,7,1,0,-4
1693678136735512100,19,26,73,22,-14,-1,4,7
1693678136736515300,-7,-7,-16,4,1,-5,0,-3
1693678136757295700,12,7,26,5,7,5,8,5
1693678136758297400,-4,-4,-21,-17,-5,-1,1,-1
1693678136760293700,-2,-15,-42,-17,-5,-4,-6,-10
1693678136762312700,-14,-9,-5,3,0,-3,-3,-2
1693678136777573200,20,18,19,-1,3,2,4,8
1693678136779573000,-10,-5,10,13,-3,0,1,-5
1693678136780592700,10,-1,-13,-19,3,2,4,-1
1693678136780592700,-16,-7,-1,-9,-8,-2,1,0
1693678136783526100,-1,-18,-41,-12,1,0,-4,-1
1693678136785529900,1,6,25,14,2,-1,3,0
1693678136793524900,1,0,-13,-23,2,4,0,-2
1693678136794527400,-2,-7,-6,12,-4,-2,-12,0
1693678136807647000,4,-12,-25,-32,1,-2,-2,1
1693678136809646300,-8,16,44,21,-2,-8,-8,-6
1693678136813685000,13,9,7,16,5,7,5,6
1693678136814641000,-15,-14,-25,-29,-4,-2,0,-3
1693678136830512100,7,-6,-13,11,-1,1,0,1
1693678136832516400,5,20,29,1,-2,-1,0,1
1693678136833515300,-1,-7,0,-5,5,3,0,0
1693678136834514600,1,9,17,6,5,-2,2,-1
1693678136852592300,1,5,14,15,-4,0,0,0
1693678136856490000,-11,-21,-36,-29,-3,-1,-2,-3
1693678136859509300,13,16,21,33,6,0,3,4
1693678136860504800,-1,2,-11,-14,-5,-2,-1,-3
1693678136867478700,-10,-12,-7,-14,-9,-2,-3,-6
1693678136868479400,4,4,17,13,12,4,1,4
1693678136881558900,-3,-5,-9,-10,-12,-2,-3,-3
1693678136882575100,-10,-11,-26,0,-3,3,0,-1
1693678136891144200,14,16,43,23,11,3,4,5
1693678136892144000,1,-7,-1,-1,-5,0,8,0
1693678136894144900,-5,-9,-18,-13,-6,-7,-22,-4
1693678136895162700,-5,-9,-21,-15,0,3,5,2
1693678136912413900,9,11,12,10,-2,-2,-3,2
1693678136914346800,3,10,15,9,2,1,14,-3
1693678136915370600,-6,-10,-31,-22,-4,0,4,-1
1693678136916368700,6,7,28,38,3,-1,0,1
1693678136935713600,5,8,-5,-4,2,1,-3,0
1693678136938713000,-7,-11,-8,-7,-7,1,1,-1
1693678136941711800,2,6,-2,-5,-5,-6,-5,-2
1693678136943711900,-3,-1,4,-19,0,-1,-3,-1
1693678136957702600,-4,-5,-3,7,-2,-2,4,0
1693678136959700500,2,3,-11,-15,-2,-2,-7,0
1693678136961699800,-1,-2,11,-8,-2,3,5,0
1693678136963699700,-2,3,13,16,-5,-1,-1,-1
1693678136979561900,-4,-6,-6,-2,-2,-4,-3,-1
1693678136981562600,-8,-7,-16,-14,-6,-1,-5,-2
1693678136989556500,-2,-5,-15,1,5,3,0,0
1693678136991561800,6,12,25,1,-2,-3,3,2
1693678136993554600,-2,-2,-1,1,-1,0,0,0
1693678136995553200,-1,-1,-11,0,-3,-4,-4,-2
1693678137010493600,-5,-11,-13,-9,-2,0,4,-3
1693678137012491100,0,3,-5,-6,9,1,1,-1
1693678137013488800,3,3,7,14,-5,-1,-3,-1
1693678137014489600,-1,-5,2,-7,-3,0,-3,0
1693678137015487700,3,7,5,18,4,-3,-1,0
1693678137015487700,-6,-14,-25,-14,-8,2,1,-2
1693678137032509600,-3,2,6,-28,4,1,0,1
1693678137034509800,4,3,19,31,-3,0,18,0
1693678137035507600,0,-2,4,-4,-4,-9,-19,-3
1693678137036506900,-3,-2,-3,3,2,-3,0,-2
1693678137056525200,-8,-11,-23,-19,-7,-2,0,-2
1693678137058525200,11,13,10,1,8,4,4,3
1693678137061521500,-2,-6,-1,12,1,4,8,0
1693678137062523600,0,1,0,-3,0,-5,-7,0
1693678137085530300,-3,-8,-4,6,-2,-1,-2,-4
1693678137088526900,-8,-6,-7,-19,-9,-5,-9,-1
1693678137091528600,0,0,1,-1,3,0,4,-2
1693678137093522400,3,0,-1,3,5,4,-1,-1
1693678137095526600,-1,0,0,2,-3,2,1,-2
1693678137096524600,-2,-8,-13,0,-1,-3,-9,-2
1693678137097520100,2,3,0,1,1,2,0,2
1693678137099519100,-1,-3,3,-5,-2,1,3,0
1693678137106517200,1,3,0,15,1,-6,-4,-2
1693678137108516500,4,6,14,14,6,-3,-6,1
1693678137115509600,-2,-3,-10,-11,-1,0,1,0
1693678137117508200,-5,0,2,1,-3,-1,2,1
1693678137130501000,-10,-8,-7,-3,2,5,7,-4
1693678137132500300,6,0,5,8,-2,-6,-6,4
1693678137134498700,4,2,8,8,1,-1,3,-6
1693678137136497700,-2,2,-5,-10,-2,1,0,7
1693678137160484200,-3,0,4,6,-9,3,8,-3
1693678137161484200,-8,-7,-11,-26,3,-6,-15,-4
1693678137162483100,1,-2,4,21,3,0,-2,1
1693678137163481900,2,-1,-2,-12,-1,0,2,-6
1693678137166479900,3,2,-5,-1,1,-1,0,2
1693678137167481700,-4,-4,-10,3,-1,3,3,0
1693678137182500500,-3,-3,-2,-12,-8,-1,-1,-1
1693678137184497500,0,3,3,12,6,-2,-5,-2
1693678137190496300,4,3,5,0,2,-4,-1,2
1693678137192498500,-5,-6,-7,-6,-2,-2,-1,-1
1693678137194493900,-1,1,0,2,-4,8,17,-15
1693678137196491100,-7,-1,-16,5,13,-8,-8,13
1693678137212475400,4,6,30,1,-7,-3,-3,-2
1693678137214471900,-12,-1,0,12,-4,2,4,4
1693678137215472500,5,1,1,-10,3,0,3,5
1693678137216471700,-1,-3,-5,3,-6,3,2,-9
1693678137226507200,-12,-6,-20,-14,0,-1,-3,-6
1693678137228507200,1,-1,3,30,8,3,-2,4
1693678137235500400,30,6,20,12,-5,-5,-12,4
1693678137236500500,12,1,12,-4,-7,2,1,0
1693678137250504100,-17,-1,-15,-6,5,-3,-6,1
1693678137251527600,-5,-2,-2,-24,-9,3,8,-9
1693678137253528300,-16,-3,-6,8,-2,-4,-6,5
1693678137256508700,17,0,5,8,-3,-1,0,-3
1693678137273872100,4,-1,-13,-29,-4,1,4,-2
1693678137275893100,6,3,11,26,-3,-2,0,2
1693678137279867600,-7,3,-3,-6,1,2,0,2
1693678137280888100,1,-1,4,-2,0,-3,-2,-3
1693678137286194000,1,2,-2,2,-2,-1,-4,5
1693678137290200100,0,-2,-8,-14,-2,-1,-3,0
1693678137295231000,-6,-4,-3,-8,0,1,-2,-1
1693678137296195900,-6,-2,-9,11,1,2,16,-2
1693678137310524600,5,5,23,1,-4,-2,-16,0
1693678137311547000,4,0,7,5,-4,-4,-10,-4
1693678137312522400,-4,-2,-7,-2,1,-3,2,0
1693678137313521900,-3,1,-1,-3,-3,0,4,-1
1693678137332524600,6,2,-8,4,3,1,1,-3
1693678137334485900,1,-5,-18,-35,5,2,-4,1
1693678137335485500,-4,-1,10,38,-5,-10,-7,-1
1693678137338485100,-6,1,1,-19,-5,0,-2,1
1693678137346225600,8,-1,-1,2,-1,-2,4,-1
1693678137348230100,-4,0,-1,1,-4,1,3,-4
1693678137356504100,-4,-3,-10,-19,5,3,2,0
1693678137358503500,0,-1,2,2,-2,0,-3,-3
1693678137371508000,1,1,5,12,-3,-1,3,1
1693678137374508200,-3,-8,-12,-8,1,0,-2,-3
1693678137375505900,3,6,5,-15,-1,2,11,-2
1693678137376507700,-9,-1,1,3,-3,1,-19,1
1693678137393021400,-1,2,2,12,1,-3,-9,-2
1693678137395018900,-2,-1,1,2,-2,-5,-4,-3
1693678137397019400,-3,-6,-8,-8,-2,-3,3,1
1693678137398018800,1,-1,0,1,-3,3,26,-1
1693678137406482700,0,1,-1,-2,3,5,-17,0
1693678137408501200,3,-1,-2,3,5,0,7,0
1693678137415477600,-1,-3,-2,-3,-4,2,-4,1
1693678137416479600,-4,-2,-2,-3,0,-4,8,-1
1693678137429469500,-4,-5,-6,-3,-3,-10,0,-6
1693678137431470400,-2,3,4,3,-1,0,4,2
1693678137439463800,-3,-1,-5,-10,-1,1,30,-1
1693678137442465400,0,-1,-3,4,2,-4,-43,-7
1693678137459453200,2,0,1,-1,-2,4,11,2
1693678137461452900,0,3,1,2,-1,-1,-2,0
1693678137468472900,-3,-3,-2,-5,-1,-4,-11,-2
1693678137471472500,1,2,3,3,-1,0,13,2
1693678137475469500,1,-4,-1,3,1,0,1,2
1693678137477468700,-3,-5,-5,-4,-1,-2,-3,-4
1693678137478471200,0,3,0,-1,0,1,6,2
1693678137479467200,-1,1,4,2,-3,-2,-3,-1
1693678137490279100,-2,-1,-2,-4,-2,-3,-4,0
1693678137493295800,-1,-1,-2,-1,3,3,2,-1
1693678137494272100,-2,-2,-2,-2,-1,0,-12,-3
1693678137495274700,1,-1,3,-1,1,-2,-4,-2
1693678137512498500,3,-2,-1,-1,0,1,4,1
1693678137514486300,0,-2,1,2,-2,-1,1,-1
1693678137515489100,-1,-8,-8,-5,-2,-2,-12,-1
1693678137516507900,0,5,6,-2,2,1,0,0
1693678137526511800,0,-2,-1,2,-3,1,7,0
1693678137528511500,-1,2,0,-1,2,0,-4,-3
1693678137535501400,-1,-3,-7,-4,-1,-4,-11,-2
1693678137538501500,-1,-2,3,13,-10,-4,1,-2
1693678137550650200,-3,-2,-1,-24,-2,1,2,-2
1693678137552648100,2,2,7,15,0,3,1,1
1693678137555646800,0,-1,-3,3,7,1,6,0
1693678137557642400,-1,0,-4,-4,3,0,-8,-2
1693678137573507500,0,-2,2,7,-2,-2,2,0
1693678137576506600,-3,-2,-8,-10,-2,-3,1,-1
1693678137589349600,0,0,1,-8,-1,0,-2,1
1693678137592348100,-2,-1,-3,5,2,-1,5,0
1693678137593345200,0,1,7,-1,-8,-2,-2,-1
1693678137595343300,-2,0,-2,-5,0,-1,-3,0
1693678137597365000,0,2,4,4,-1,1,2,-1
1693678137598364100,0,-2,-5,-7,0,-1,-1,0
1693678137609337400,0,-3,-5,0,4,-1,-2,-1
1693678137610334100,0,0,0,1,-3,0,1,-1
1693678137616330200,0,0,0,1,-1,-2,-6,-1
1693678137618333100,-2,-2,0,-3,2,1,1,-1
1693678137640529900,-2,-1,-6,15,10,2,0,-1
1693678137642529300,0,0,4,-8,2,1,4,-2
1693678137644526900,-1,-1,-3,-13,-24,-8,-14,-4
1693678137645524000,0,-2,-2,-4,-4,-3,1,0
1693678137647523400,-2,1,1,-3,-4,-9,2,-1
1693678137648522300,-1,-3,-7,16,7,0,-2,-1
1693678137663527100,0,0,-1,2,9,2,2,0
1693678137664523500,0,-1,1,-5,-2,-2,2,-2
1693678137669412900,-2,-2,-5,5,4,0,-3,-1
1693678137674414800,0,1,-1,-3,-3,0,-2,-1
1693678137683527200,-1,-1,5,6,-1,2,1,-2
1693678137685552200,-1,1,-2,-8,-7,-2,9,0
1693678137700497500,-4,1,2,3,2,0,-28,-4
1693678137702516100,0,-4,-3,-6,-5,-2,-2,0
1693678137708512300,-1,4,-1,2,0,-1,1,-3
1693678137710491400,3,1,1,2,4,1,0,1
1693678137715072600,-2,1,0,-4,-2,2,9,-1
1693678137717075400,-4,-2,-1,-4,-6,-2,-1,0
1693678137718096800,0,-1,-3,2,3,-1,-3,-3
1693678137719074200,-1,-3,2,-1,1,2,1,0
1693678137740985000,1,-2,0,-3,-2,0,1,0
1693678137742981900,-1,1,-1,1,-1,-2,-3,-3
1693678137744984500,0,-3,0,-2,1,0,5,2
1693678137745983000,-3,0,1,0,0,-2,-7,1
1693678137760520900,1,-1,0,2,0,1,-2,1
1693678137762519200,-2,0,-2,-3,-2,1,9,-2
1693678137764520300,-1,0,0,-1,0,0,-3,0
1693678137766517300,0,-1,0,0,0,0,-3,-2
1693678137775513800,0,-1,-1,0,-3,-1,0,1
1693678137778511100,-1,-1,-2,-1,-2,-2,-2,0
1693678137779532100,0,0,-2,-4,-2,0,0,0
1693678137780531400,0,-1,-3,0,0,-1,-2,0
1693678137789503000,1,1,-1,-3,0,0,7,-1
1693678137792504100,0,1,1,-2,-1,-1,-4,-2
1693678137796498300,-1,0,0,0,1,-1,-1,-2
1693678137797496500,-1,-1,-2,2,1,0,0,0
1693678137812491400,1,-1,-2,-1,-2,-1,2,0
1693678137814488900,1,0,0,-2,-3,-1,-2,-1
1693678137818648900,-1,-3,-2,0,0,-2,-3,1
1693678137823666300,0,-1,0,1,1,4,-3,-3
1693678137835023400,-1,0,0,-3,-2,-2,2,1
1693678137839038200,0,-1,2,4,1,-1,-4,0
1693678137842037900,-1,0,-2,-2,-2,-4,1,-1
1693678137843036500,-2,-2,-1,2,-2,-3,-1,-1
1693678137850031900,-1,-1,-1,-1,-2,1,2,0
1693678137851033400,-1,-2,0,0,-1,-1,0,0
1693678137857034300,1,0,-2,1,2,1,-2,0
1693678137858027400,1,-1,-1,-2,-1,1,3,0
1693678137872508400,-1,1,0,-3,-2,-2,-2,0
1693678137875510200,-2,-2,-3,-2,0,-1,0,0
1693678137877507800,-1,2,4,4,5,3,0,-1
1693678137878504000,0,3,0,1,4,7,-2,0
1693678137895238000,-2,-4,-4,-4,-11,-75,-9,-3
1693678137897238200,1,2,1,5,10,34,-18,-3
1693678137898237300,0,-3,-5,-5,-1,19,-3,1
1693678137899236400,-5,-4,0,8,2,-53,-29,-8
1693678137917226400,1,0,8,-9,-3,51,6,1
1693678137919225500,2,4,-3,-1,10,46,5,2
1693678137925226800,0,-3,3,8,3,32,0,-2
1693678137927223600,1,-1,-5,-12,-9,25,11,1
1693678137941214900,1,-1,0,8,11,20,-4,-1
1693678137944211100,-1,-3,-1,-26,-14,-21,3,0
1693678137948208700,0,-1,-5,-1,-5,-9,0,0
1693678137950208900,2,0,-1,3,2,1,-7,0
1693678137959202500,-4,-2,-5,7,0,-21,8,-5
1693678137961201500,0,1,-1,4,0,0,-10,0
1693678137978355300,-3,-1,-2,-8,0,-16,-4,1
1693678137980353800,0,3,8,17,-6,-1,-3,1
1693678137982353400,1,0,-2,-16,2,11,0,-1
1693678137984351300,0,-2,-5,10,-5,-27,2,-1
1693678137985352400,0,1,6,2,1,8,5,-1
1693678137990349700,-2,-3,-4,4,4,-4,6,-2
1693678137994346500,2,-3,-2,-2,-6,-2,-1,0
1693678137996345900,-2,-3,-2,3,1,-49,-3,-4
1693678137998347400,-2,-2,-4,-2,-13,-53,-14,-6
1693678138000343600,1,-2,-2,-18,-2,24,15,3
1693678138015334900,-1,-1,-2,0,-3,5,1,1
1693678138018332500,-2,-4,-4,-3,2,22,-13,-2
1693678138021331600,0,0,1,8,1,-8,-4,-3
1693678138025330800,-2,-2,-2,-7,0,28,-3,-2
1693678138029326600,-1,0,-6,19,11,10,3,-2
1693678138031326500,0,2,13,-18,-15,-12,8,2
1693678138040322400,1,-1,-2,-25,-10,-13,-6,-3
1693678138042318900,0,-3,-12,-11,-2,-5,3,1
1693678138052496900,0,1,8,30,4,-27,-5,0
1693678138057487200,-2,1,9,10,-9,23,-4,-2
1693678138058482600,0,-2,0,-10,5,5,2,1
1693678138059482200,1,0,1,2,0,-19,6,-1
1693678138075496000,-1,-3,-12,-5,-3,11,5,2
1693678138077493600,-2,1,0,14,29,-49,6,-2
1693678138079492400,-1,1,2,-3,-12,28,-2,0
1693678138080491500,-2,-1,-3,-5,-18,-29,11,-1
1693678138090438300,1,2,4,-3,18,36,-10,-1
1693678138092433700,-1,-2,0,-1,-28,16,-4,-2
1693678138097598700,0,0,0,13,8,31,12,1
1693678138098602200,4,6,9,-28,21,65,10,5
1693678138112494100,0,3,-1,-3,46,3,11,0
1693678138115491700,0,-2,-1,-23,-65,-19,23,3
1693678138116492200,-3,-3,-10,10,-13,-10,-10,-4
1693678138117489400,-2,-3,5,20,-1,13,-7,-3
1693678138143950700,-1,-1,-13,-13,4,-3,-9,0
1693678138145947800,2,1,11,9,16,44,2,0
1693678138146947500,1,2,15,4,-3,-2,1,0
1693678138148947700,-1,-3,-4,8,39,-39,-9,-4
1693678138157945500,2,1,-1,13,-8,42,-13,1
1693678138159939800,-2,-4,-15,-19,-38,-34,-20,-5
1693678138163937300,-3,-3,-3,12,19,-24,-10,-2
1693678138164938700,0,0,-2,-10,29,23,-6,-2
1693678138173509900,0,1,14,15,47,6,4,-1
1693678138175510900,1,3,-9,17,5,8,7,3
1693678138179506700,-2,-2,1,0,43,-33,10,0
1693678138181503400,0,-1,-4,-31,-83,-5,-1,0
1693678138219355500,-1,1,2,1,3,-14,3,-2
1693678138225350700,0,1,-3,1,28,36,2,-1
1693678138226349400,-3,-5,-13,-24,17,-31,0,-1
1693678138228348400,-2,0,-2,26,23,-27,-5,-3
1693678138229858300,0,-1,4,-16,-42,-2,-3,-2
1693678138230859200,0,1,4,9,42,11,-5,-1
1693678138231855700,1,2,-5,8,24,23,4,3
1693678138232857100,-6,-6,0,-5,-24,-32,-3,-3
1693678138240852400,-3,-8,-10,-10,26,7,-3,-2
1693678138242852500,-1,1,-4,-7,-55,-14,4,1
1693678138244849800,2,-1,2,0,19,0,3,2
1693678138245850600,3,8,7,14,-82,63,-5,0
1693678138255842400,-4,-7,-11,-27,-10,-25,0,-1
1693678138259353800,-2,-6,-5,-10,36,-6,10,0
1693678138260353300,2,0,7,-7,-32,22,1,1
1693678138261353900,2,2,2,25,54,44,-6,0
1693678138284996400,1,3,6,4,-18,-1,0,0
1693678138289998500,0,-2,0,5,20,1,0,1
1693678138292000100,-1,1,-2,-2,-10,20,-1,-2
1693678138293000600,-2,-2,-6,-11,-33,-41,-1,-4
1693678138308517500,-3,0,-1,-2,-23,-10,0,-3
1693678138310517400,-4,-7,-3,7,18,-6,-2,-1
1693678138312516600,2,7,-2,-17,-28,7,5,-1
1693678138313515900,-5,-3,4,4,92,-4,1,-2
1693678138315046500,3,3,6,-9,-60,-24,-7,-1
1693678138316049400,-3,-2,-5,1,-52,-24,-4,-2
1693678138317050000,-3,-5,-3,-3,-31,33,2,-2
1693678138318049400,-1,-2,-7,-15,-14,-75,11,0
1693678138329042200,3,6,14,17,63,44,-14,-1
1693678138331043200,2,3,9,7,11,10,12,2
1693678138345417000,-1,-2,-9,-3,-35,37,-2,-2
1693678138347417100,0,-2,-1,-5,15,34,4,1
1693678138352505900,-2,-6,-9,1,22,18,9,1
1693678138358502700,1,6,4,2,23,3,-17,-2
1693678138360500300,0,-4,-5,7,-1,-9,4,1
1693678138361500600,-2,-2,-4,0,14,29,10,2
1693678138375507900,0,2,2,-16,-65,4,4,-2
1693678138377508800,0,4,3,7,41,-5,0,-1
1693678138379504200,-1,-3,-9,-24,-26,19,-21,0
1693678138380502900,0,3,1,12,55,26,-12,-3
1693678138398430600,-1,-3,-5,-7,-35,-66,-17,-4
1693678138400431000,1,-1,-2,-1,66,61,6,3
1693678138401430500,-1,-2,0,10,3,-16,6,-2
1693678138402428800,0,1,3,1,1,-27,-1,0
1693678138411422900,-3,-5,-12,-5,5,-21,5,0
1693678138413422200,-2,-4,-1,-6,-6,-13,0,0
1693678138423509400,2,4,9,-12,21,-71,5,-1
1693678138425510200,2,0,-3,1,-36,-16,4,1
1693678138435034700,-1,0,0,8,24,13,2,-3
1693678138439037800,-3,-5,-12,-15,-67,-10,-3,-2
1693678138442034800,1,0,1,13,42,1,4,0
1693678138443034800,1,-1,0,-6,-27,8,-7,0
1693678138448709800,0,-1,-1,-4,-61,50,2,1
1693678138450715100,1,-1,-3,5,25,-4,2,-1
1693678138457712600,0,0,6,1,0,-1,0,0
1693678138458708400,-1,-2,3,-4,7,-4,-3,-2
1693678138473666500,1,0,2,11,40,31,-1,1
1693678138474666500,-1,-2,-2,-10,-18,1,-5,-3
1693678138476664300,-1,1,1,13,4,64,0,-1
1693678138477662600,-1,-2,-7,-8,-4,-5,-2,-1
1693678138494551600,-1,0,1,6,-20,-11,1,0
1693678138496544400,-2,0,1,-19,-19,-6,2,-1
1693678138509363400,-3,-2,0,12,43,-14,1,0
1693678138511366700,0,-1,0,-6,-32,-22,2,-1
1693678138513367800,0,-1,-2,-2,13,-6,1,0
1693678138514388200,-2,0,1,-5,6,2,-3,-2
1693678138517488700,0,2,2,6,-13,-15,0,0
1693678138518505800,-1,-2,-1,11,44,10,-2,0
1693678138533292900,-3,-3,-1,-15,-72,-27,-3,-4
1693678138535317300,0,-2,-3,3,-21,-8,-6,-2
1693678138536307800,0,-2,-3,-2,4,-5,-1,-1
1693678138539313600,-1,0,1,8,5,5,-1,1
1693678138554868500,2,1,2,4,38,0,3,1
1693678138557868500,-1,-1,-1,-9,-9,-9,-2,0
1693678138558883600,-2,-2,-1,0,-52,-7,-1,-1
1693678138559885900,0,0,1,1,41,9,-1,1
1693678138569194200,-3,-1,-2,-3,-29,-17,-1,-1
1693678138573198700,-3,-1,-8,9,13,2,-4,-2
1693678138578596900,-1,-1,10,-17,4,-12,-2,0
1693678138579596900,-2,-1,-3,-1,-2,3,-2,0
1693678138599957400,0,1,-1,2,26,3,2,0
1693678138601916300,0,1,-2,8,27,10,1,-2
1693678138602935300,-4,-2,-8,-2,-27,-18,-6,-2
1693678138605919300,0,-1,2,-2,-50,-12,-3,-3
1693678138623510800,-2,-3,-2,-8,25,0,2,-1
1693678138625509300,0,0,3,7,5,1,0,-1
1693678138626526100,1,-4,-3,8,43,12,2,1
1693678138627529400,-1,2,1,-7,-14,-5,-2,-1
1693678138628524900,1,-4,-1,5,2,-3,-1,-1
1693678138629529000,-3,2,2,9,4,2,-1,-1
1693678138639433400,-2,-3,-2,-13,-3,-5,-3,0
1693678138641455900,0,-7,-5,-2,-13,-2,0,0
1693678138652296200,-9,-5,-2,2,14,1,1,-3
1693678138655293500,11,11,3,20,46,7,3,2
1693678138658711600,-3,-10,2,-24,-80,-16,-3,-1
1693678138660736100,0,25,1,3,13,1,-2,-5
1693678138676419700,-3,0,1,0,4,0,-1,-2
1693678138678424700,-1,-2,1,0,-2,-4,-1,0
1693678138679424700,2,1,-3,15,23,2,1,-2
1693678138680421600,-3,-10,-5,-13,-12,-1,-1,-1
1693678138697347200,-1,-4,3,16,68,15,1,1
1693678138699285200,-5,-9,-5,-18,-102,-23,-4,-1
1693678138700284000,0,5,-2,7,42,4,-1,-1
1693678138701282300,-6,-9,0,-1,1,-3,0,1
1693678138711638900,7,9,-4,-10,5,-3,-2,-1
1693678138713575000,5,1,4,9,22,11,-1,-1
1693678138721459700,0,-3,0,-1,6,4,2,-1
1693678138723461300,-6,-10,-2,3,-16,3,2,-3
1693678138735552400,-2,-3,-1,-7,2,-7,-4,-3
1693678138738546700,0,2,1,-3,11,-1,2,3
1693678138740569800,-2,10,-2,-4,-14,-4,-5,-7
1693678138741544800,11,25,6,9,11,5,1,0
1693678138789469600,-4,-8,-3,0,-7,-3,2,1
1693678138790469200,-8,-12,-4,-10,12,-3,-2,-3
1693678138792446400,-9,-24,-6,7,-4,3,-1,-1
1693678138793445700,8,23,6,-3,-7,-6,-3,1
1693678138794444700,11,12,3,1,-8,-4,1,2
1693678138795444600,-1,0,-5,18,3,-5,-4,-2
1693678138812570400,-7,-3,3,-18,17,6,1,-1
1693678138813569500,-5,-16,-4,1,5,-3,-2,-2
1693678138814592000,-1,0,0,-6,-14,-2,-2,-2
1693678138815590100,-3,-3,-4,-8,2,-1,-2,-1
1693678138834416500,-1,-9,-6,4,20,2,0,1
1693678138835433900,-3,-2,0,7,-1,-1,0,-3
1693678138838415000,1,-4,1,-4,-8,-3,-3,-3
1693678138839416500,1,4,2,-1,3,2,1,1
1693678138841412800,5,12,0,3,1,-3,-2,-2
1693678138842410900,-7,-7,-3,-11,-2,-2,-1,1
1693678138847450800,-4,-2,-3,2,-1,0,-1,-2
1693678138849446900,-1,-7,-4,-9,-3,-1,1,-2
1693678138862575300,3,6,4,1,-12,-8,1,0
1693678138864594200,3,-5,-3,5,4,1,2,2
1693678138864594200,-8,-11,3,3,18,4,1,1
1693678138865570100,-1,15,2,-5,-8,-1,-5,-3
1693678138889488000,-4,-2,-8,9,19,3,-2,1
1693678138890488700,-3,-14,-6,-32,-35,-18,-7,-3
1693678138891488200,9,5,8,-8,-21,-2,3,1
1693678138892485200,3,24,11,8,12,4,6,2
1693678138908238200,2,0,3,14,14,6,4,1
1693678138910243100,1,5,-12,3,24,5,-1,-2
1693678138912263300,-9,-17,-2,0,16,1,-2,-2
1693678138912263300,-11,-17,9,-4,-17,-8,-1,-2
1693678138913262100,6,7,-10,1,3,2,0,2
1693678138914260800,2,-3,3,1,-12,1,0,-2
1693678138923293100,3,8,-8,-8,-6,-3,-2,0
1693678138925291800,-8,-14,-3,3,44,4,-3,-4
1693678138928290400,1,-4,-7,-19,-60,-4,-2,-1
1693678138929293800,-1,-1,5,21,18,2,0,0
1693678138938284900,13,17,9,-10,-5,1,2,4
1693678138940283600,-2,-4,-2,17,11,2,-2,-1
1693678138952545500,1,-3,3,-3,-4,-16,-2,-2
1693678138956547300,-1,-7,-1,-17,-5,2,1,-2
1693678138958545500,-10,-2,-6,21,5,-2,-5,-5
1693678138959541900,10,-3,6,-14,-8,2,2,2
1693678138962541300,-3,-13,-5,2,16,6,3,4
1693678138963543600,-3,23,8,23,44,5,0,-3
1693678138975532700,0,-4,-3,-19,-79,-1,2,2
1693678138977532200,0,-7,-7,2,23,-1,-4,-4
1693678138979531700,-7,5,8,22,-24,-1,0,-4
1693678138980532500,0,0,7,-10,12,-5,-1,0
1693678139005517400,-7,-9,-10,-7,30,3,-2,-1
1693678139008514500,-3,-3,-8,-6,-19,-2,0,0
1693678139009515600,-2,-11,-10,-9,21,4,-1,-1
1693678139011512200,2,-4,-3,-1,-9,4,1,1
1693678139012511600,6,16,11,6,9,-6,-3,-3
1693678139013512400,-3,3,-2,-7,-16,-4,0,-3
1693678139027502900,-3,-2,4,3,21,1,-1,-3
1693678139029502600,-1,-8,-14,13,14,16,1,0
1693678139035498800,-4,-5,-8,-13,12,-4,-1,-1
1693678139040497100,9,10,19,11,-39,-7,1,4
1693678139041495700,4,11,15,16,59,5,0,1
1693678139043494200,-3,-10,-2,-14,-59,-7,-3,-2
1693678139073507400,-4,-8,-16,8,32,7,-1,-1
1693678139075506400,-3,-6,-9,-1,50,10,-2,-3
1693678139077507200,1,5,-1,-13,-32,1,5,3
1693678139078506500,-3,-7,-2,2,-25,-16,-1,0
1693678139080503400,0,2,3,-14,-32,-13,-7,-4
1693678139081502800,-1,-2,-6,-12,14,6,0,0
1693678139086345500,4,5,-2,13,77,7,2,2
1693678139090347900,5,4,16,-2,-47,-12,-1,2
1693678139095346000,-1,0,4,14,76,1,3,1
1693678139097343800,-4,-5,-7,-3,-8,-1,1,-1
1693678139098342800,-3,-13,-13,-23,6,-3,-7,-5
1693678139099342300,9,19,12,18,-22,-3,2,2
1693678139117363900,-1,-5,1,-4,-48,0,1,-2
1693678139119362300,1,0,3,0,42,8,6,4
1693678139123361000,-6,11,1,16,59,-2,-5,-6
1693678139124359100,-5,-16,-17,-37,-82,-9,-4,-3
1693678139131505700,-5,4,1,13,84,2,-3,-3
1693678139132504400,-4,4,-1,-14,-93,-8,-7,-6
1693678139141336500,6,12,19,15,2,2,6,4
1693678139142337600,-1,2,-2,17,64,4,0,-4
1693678139162521800,-1,-3,-6,-3,-17,4,3,2
1693678139164487100,-4,-14,-18,-23,-22,0,-1,-2
1693678139166508600,-6,-4,0,-5,-67,-12,-1,-3
1693678139167531000,4,9,17,27,35,16,5,3
1693678139185065500,4,2,5,-11,2,0,2,2
1693678139190066800,-2,-1,1,17,21,-17,-7,-4
1693678139191068200,-4,-12,-16,-37,-10,-18,-3,-3
1693678139192066600,-8,-5,-8,-11,23,10,1,0
1693678139200504600,-3,0,4,14,-23,1,3,0
1693678139201514500,6,11,17,26,46,14,5,4
1693678139207506800,0,1,-3,-12,-95,-13,-2,-3
1693678139209524800,-5,-11,-11,2,60,10,-3,-4
1693678139215111900,-2,-3,-5,-9,-57,-3,0,-1
1693678139217115100,-8,-9,-10,-11,17,-2,-4,-5
1693678139218137100,4,7,13,19,-3,6,0,2
1693678139219120900,0,2,5,-3,-14,-22,0,2
1693678139238405500,1,-3,0,5,-14,-16,-1,-1
1693678139239405800,0,-4,-7,6,15,-2,3,1
1693678139241404800,-4,-9,-13,-23,-16,10,-3,0
1693678139243407400,1,-9,0,6,25,-2,-3,-3
1693678139251508600,7,18,12,12,-10,1,-1,2
1693678139253506800,-3,-6,-8,-36,-51,-3,2,-1
1693678139266347200,-2,1,0,31,92,0,2,2
1693678139267347700,0,-8,-12,-24,-70,-2,-6,-14
1693678139275087100,-8,-9,-11,-4,11,2,-2,1
1693678139277093000,1,4,6,4,-14,-1,1,14
1693678139278093600,8,11,9,6,-26,0,1,5
1693678139279091300,2,-1,1,8,81,12,5,7
1693678139297422500,-3,-7,-8,-13,-16,1,-10,-7
1693678139299420900,1,0,1,-3,-21,1,-4,-29
1693678139300441900,-10,-12,-16,-20,15,-6,-2,0
1693678139301420300,-4,2,-4,-7,11,-3,8,4
1693678139311569500,6,8,11,11,2,3,4,2
1693678139313567900,-2,-9,-2,14,31,2,-4,5
1693678139327426500,3,4,3,-3,-5,-1,-3,-3
1693678139329426500,2,1,-1,17,8,4,-2,-4
1693678139335476100,-4,-2,0,-24,-84,1,1,2
1693678139338444400,1,3,-4,16,12,0,0,3
1693678139348712300,0,4,2,-13,30,-1,-3,-5
1693678139350715200,-4,0,1,-6,-20,-4,-3,5
1693678139365062900,-2,-2,0,-1,-2,11,5,1
1693678139367067800,1,0,-1,-1,3,-9,-12,-2
1693678139367636100,3,3,10,15,22,9,1,-1
1693678139368628400,-3,-1,-5,-17,35,-9,-5,0
1693678139371627200,-3,-7,-6,-5,25,-8,-1,-1
1693678139372647700,3,9,9,3,-28,2,4,1
1693678139389373500,-5,-4,-4,4,-16,-3,-6,-2
1693678139390367200,-2,-2,-5,-11,1,4,-1,-2
1693678139395065300,1,-1,0,3,-18,-17,-2,-3
1693678139397068900,0,1,4,5,11,-3,1,3
1693678139398087800,0,0,-1,-7,-6,10,2,1
1693678139399090400,1,2,6,23,-38,-5,2,1
1693678139417587000,-5,-5,-9,-8,75,2,-4,-4
1693678139421614500,-1,1,1,-13,-27,-7,1,2
1693678139422613100,0,2,0,2,-24,-13,-3,-2
1693678139423614000,-3,-3,2,3,-12,3,-2,-2
1693678139431549900,1,1,-2,10,-6,6,4,2
1693678139433549000,2,2,0,-6,33,-18,-2,0
1693678139440409800,5,0,2,6,-4,27,3,0
1693678139442403800,-1,-1,-6,-13,-5,-40,-4,1
1693678139455690800,0,-1,-1,9,16,22,1,-3
1693678139456713200,0,-1,0,-2,48,9,-14,1
1693678139457702900,-3,-4,-3,-13,3,-14,6,-5
1693678139458701000,0,1,-2,11,30,10,-2,-2
1693678139477362000,-2,-3,-2,-7,7,-8,-3,0
1693678139479385300,1,-1,-3,-2,-4,20,2,-6
1693678139484365200,-2,-3,1,1,-33,-31,-3,10
1693678139485384800,-3,-1,2,0,-11,19,-1,-1
1693678139491361800,1,1,2,1,-5,-19,-1,-1
1693678139492379300,0,-2,-1,1,54,7,3,2
1693678139500551600,-2,-2,-7,-16,-43,-34,-4,-5
1693678139501567700,-1,-1,-2,-4,17,41,0,1
1693678139514493400,-1,1,3,-1,-61,-1,4,-5
1693678139516505800,0,-1,-3,-6,-59,-7,2,-1
1693678139529558800,-3,-2,-2,25,44,11,-2,-2
1693678139531559400,-2,0,1,-17,-16,-13,-1,1
1693678139538544000,0,-2,-1,15,47,6,-1,-1
1693678139539542000,-2,-2,0,10,-10,10,2,0
1693678139540568100,-2,-6,-12,-32,-68,-17,-5,-2
1693678139541562900,1,1,1,6,21,7,4,2
1693678139551573700,0,0,2,-8,29,-4,-15,-1
1693678139553571600,-3,-1,-5,-9,-12,-17,1,-1
1693678139559938300,1,2,8,18,-13,12,-2,0
1693678139561944400,2,2,3,17,-39,-4,5,0
1693678139582575200,0,-5,-10,-30,67,-1,-5,0
1693678139584571500,-1,-3,-7,-11,-1,-6,-1,-1
1693678139584571500,0,3,10,16,54,1,2,-1
1693678139585591400,0,-2,-4,-6,-14,25,0,0
1693678139605489500,-1,-1,-1,11,-1,-7,2,0
1693678139606516100,0,1,-1,31,-14,3,1,2
1693678139611590800,-2,-3,-2,7,117,6,-3,-1
1693678139613596700,1,1,7,28,-10,9,4,5
1693678139614595900,-1,-5,-7,-26,-97,-19,-5,-9
1693678139615595000,2,0,-3,-4,56,7,3,1
1693678139626413500,-1,0,0,2,-20,11,1,-3
1693678139628438100,1,2,2,5,33,-26,-4,-1
1693678139634564000,1,0,3,6,-51,22,4,4
1693678139635569400,0,-1,2,-3,-52,-11,-2,-3
1693678139642942900,-4,-3,-6,-14,10,9,2,10
1693678139643941200,-3,-2,-5,-29,-62,-9,-9,-5
1693678139657487000,-1,3,4,14,51,-13,-1,2
1693678139659485500,-4,-3,1,5,18,-9,-2,-3
1693678139660488000,-1,0,3,0,18,17,0,-1
1693678139661486600,-1,-2,-3,16,89,-6,0,-3
1693678139681464100,2,1,1,-40,-89,3,4,3
1693678139682485800,-5,-8,-9,10,98,28,-7,-5
1693678139689042600,0,-2,-5,-14,-13,-25,-1,-3
1693678139690065400,-4,-3,-4,-1,-9,-35,-3,-2
1693678139694551800,-1,0,1,9,-37,0,1,-1
1693678139696551500,-1,2,-1,-19,-86,-42,5,2
1693678139701419500,-1,-1,-1,3,-16,49,-2,-3
1693678139703414300,1,-2,5,-3,-3,0,0,0
1693678139717425300,-3,1,-9,17,74,-11,-5,-3
1693678139720422300,1,3,2,-8,-90,15,-1,-1
1693678139722421300,0,-4,-9,-10,35,-13,1,-1
1693678139723421300,0,1,0,-7,-75,-9,-3,6
1693678139740506500,-1,2,7,6,107,18,1,-5
1693678139742536700,-5,-8,-15,-1,35,-9,-3,1
1693678139742536700,-6,-6,-4,-3,0,-6,3,-10
1693678139743512600,9,8,9,3,-12,6,2,-2
1693678139755511600,-2,-3,0,19,58,5,-2,2
1693678139756515000,-1,0,0,-33,-10,-8,-5,-4
1693678139775441900,-1,-6,-6,-23,32,3,1,1
1693678139777440100,-3,1,0,1,73,7,1,-2
1693678139780437700,-2,-5,-7,-11,-74,-23,7,4
1693678139782439500,5,8,9,-4,1,1,-9,-7
1693678139783435000,2,1,4,27,24,8,0,0
1693678139785433900,-8,-10,-24,-41,-19,-13,-9,-9
1693678139800018100,7,14,20,16,-59,9,1,5
1693678139802021400,2,2,17,26,60,25,6,3
1693678139804021200,-9,-1,-13,-41,-76,-27,-6,2
1693678139806020100,-3,-4,2,24,36,6,-1,-4
1693678139813560200,-1,-5,-10,11,7,5,2,-1
1693678139815541500,-2,-4,-6,-17,-63,4,5,5
1693678139823509900,4,4,7,19,0,10,-5,1
1693678139824508000,-6,-12,-12,-17,-9,-7,7,-6
1693678139838114100,0,16,20,7,-19,-4,-3,0
1693678139840111300,0,-8,-10,3,30,-1,-1,-2
1693678139841111700,-3,-9,-13,17,-4,5,6,9
1693678139842111300,1,-3,-13,-25,-4,-2,-12,-8
1693678139859915900,-15,0,6,14,12,-1,-5,-1
1693678139861919700,18,16,7,-6,81,1,0,-3
1693678139862918100,1,-21,-21,-18,-25,-12,1,0
1693678139863940100,-6,-2,-3,-18,-12,-13,-7,6
1693678139882439000,18,22,19,12,55,19,13,-2
1693678139884414800,-7,3,55,43,30,-13,-12,-1
1693678139885418700,-8,30,13,31,70,6,-1,-2
1693678139888413100,3,-10,-2,-11,-1,7,3,-2
1693678139905402400,-13,-30,-40,-33,31,-8,-3,-2
1693678139907402100,-8,1,-17,-10,-17,3,14,5
1693678139908417600,0,-12,-17,-36,-120,-17,-19,-13
1693678139910401000,5,9,0,3,19,6,2,7
1693678139921521500,-2,-10,-9,1,6,-5,-11,-11
1693678139922511200,-1,-1,-10,-10,-25,2,6,1
1693678139925509400,7,6,14,21,-16,5,-1,-8
1693678139927511600,-3,7,9,6,22,10,5,2
1693678139933503100,0,-8,-3,-13,-20,-19,-7,2
1693678139934506400,4,1,-6,-4,-6,-4,1,0
1693678139942502800,-4,-2,3,3,2,13,4,1
1693678139944500400,-1,-4,4,7,19,1,3,6
1693678139957503900,0,-4,-7,-7,51,8,21,-1
1693678139960494500,-5,1,-8,-3,-37,7,-2,0
1693678139962488500,10,14,31,25,47,-24,3,4
1693678139964509300,2,0,-1,-12,-5,35,2,-3
1693678139980477200,-2,-1,5,27,34,20,-3,0
1693678139981476000,-5,-14,-24,-15,-5,-24,4,3
1693678139988477200,-1,4,3,-3,45,14,-9,5
1693678139989473000,-2,1,-2,6,-24,-46,-12,-9
1693678139994471300,-1,4,5,0,4,22,-3,-5
1693678139995472200,2,-6,-1,-6,-47,9,7,-2
1693678140012547800,1,-1,-2,-5,-51,-8,3,2
1693678140014545900,-3,-1,2,-8,-49,-12,-15,-6
1693678140017546400,-4,-5,-8,4,43,-6,0,8
1693678140020543100,-1,-1,-3,-1,-4,0,-17,-7
1693678140023541300,-3,-4,-1,-1,-6,-15,30,-3
1693678140025540900,3,4,4,1,-37,19,3,2
1693678140041499600,1,0,1,-4,-36,8,12,3
1693678140043498800,0,3,0,0,37,3,-10,-6
1693678140044497400,-2,-3,-4,-1,14,-33,-14,0
1693678140045496300,-2,-1,3,11,60,19,7,-4
1693678140054372400,-1,0,0,-6,4,-8,-4,-2
1693678140056376400,-1,-1,3,4,-1,33,12,5
1693678140062876800,-1,-3,-4,-11,-18,-10,1,4
1693678140063876400,0,1,-1,7,28,23,3,-6
1693678140085020900,-1,-2,-3,-4,-22,4,0,9
1693678140088036600,0,1,0,5,7,0,-17,-2
1693678140090038700,-2,-1,2,6,40,3,-15,-10
1693678140091036600,-3,-3,-6,-14,-20,-75,-6,2
1693678140108024900,-2,-3,-6,-14,-4,23,-1,-6
1693678140111023400,-2,2,4,3,-9,16,20,9
1693678140112022700,4,2,3,6,-9,25,-26,10
1693678140114020600,-7,-5,-8,-3,-6,-52,-31,-21
1693678140115020300,0,2,7,4,27,-12,-6,-4
1693678140117018400,-5,-7,-5,4,50,5,9,-6
1693678140130353900,3,4,4,-11,-45,105,2,7
1693678140131351700,-1,-2,-6,6,76,8,6,3
1693678140138348000,-3,-6,-7,-13,-14,-15,9,1
1693678140140347500,1,3,4,3,-7,21,21,4
1693678140141347700,-3,-4,-4,1,-16,-84,-13,-8
1693678140144345600,5,3,3,4,-7,89,6,8
1693678140160503900,0,2,2,6,17,23,-2,0
1693678140161506300,-2,-3,-4,-12,24,-38,1,-1
1693678140163504600,-3,-2,-3,-16,-52,-35,4,-6
1693678140164503600,-1,-1,1,5,12,0,3,5
1693678140190487300,-2,-2,-1,-2,-8,-99,-19,-9
1693678140191488400,-2,-1,3,0,-23,-32,-19,-5
1693678140193485000,2,0,0,9,96,55,13,-2
1693678140197482300,-3,-3,-8,-11,-33,-22,9,3
1693678140200484300,1,1,1,-2,-6,22,-11,2
1693678140202480900,-5,-4,-4,0,-10,-30,0,-6
1693678140205481300,0,0,-1,-3,-4,13,8,0
1693678140208479000,0,2,6,11,7,2,17,4
1693678140223243700,3,3,6,10,-7,19,-4,1
1693678140225240900,-6,-9,-13,-19,39,-46,-7,-6
1693678140228237300,-3,-4,-5,-5,-2,-2,1,-9
1693678140229235900,0,2,4,3,-15,29,9,4
1693678140233497500,4,4,4,5,0,97,12,4
1693678140235499900,-2,0,-1,3,1,-16,-11,7
1693678140258361800,1,2,2,-1,-28,14,4,-3
1693678140259360200,-1,-3,-3,1,-15,0,0,1
1693678140265372900,-2,-3,-7,-14,-62,-27,-12,-9
1693678140267355100,1,0,1,2,3,7,1,2
1693678140272512200,-2,2,-1,-3,-9,0,-8,-6
1693678140275511500,0,1,6,7,33,-4,0,1
1693678140279939800,0,1,0,-3,-23,-14,9,3
1693678140280963300,0,-2,-3,-8,4,-1,-12,-5
1693678140294135700,-2,-4,-7,0,-24,-20,-3,1
1693678140296115800,0,4,3,7,26,23,-10,-10
1693678140297115500,1,-1,-1,-6,-44,-4,8,11
1693678140298115100,2,3,5,0,-41,14,-7,-1
1693678140321912200,1,0,2,6,44,5,7,5
1693678140323922100,-5,-6,-4,4,53,-54,-6,-6
1693678140325912700,-1,-2,-8,-29,-59,8,5,-2
1693678140326912500,3,3,3,8,23,46,-6,6
1693678140341370900,-2,1,1,-2,28,-8,1,-5
1693678140343365900,0,-1,4,-5,-64,-23,12,2
1693678140344387600,-1,-2,-3,12,77,-15,-10,4
1693678140345385400,-1,-6,-2,-1,-63,-5,-8,-5
1693678140346386300,-5,3,-1,-3,12,0,-7,-4
1693678140347363600,-4,4,1,1,-8,7,4,-7
1693678140362478000,-2,-2,2,8,2,-14,-12,-9
1693678140364431700,2,3,2,-5,37,3,7,5
1693678140365453000,1,1,4,14,-15,-37,9,7
1693678140366432000,2,-2,-7,-12,-60,22,-18,-2
1693678140385057700,-1,-2,-1,3,22,9,-13,-10
1693678140391059200,-2,0,-1,7,87,28,8,2
1693678140393057600,-3,-6,-2,-15,-55,-70,-2,-3
1693678140394078900,1,-2,-4,-13,22,37,16,11
1693678140400443200,0,3,4,33,85,57,-1,1
1693678140402419700,-3,-2,-2,-7,-19,-4,6,10
1693678140407418000,1,-8,-3,-2,3,40,14,1
1693678140408418000,4,2,5,13,29,10,-2,1
1693678140423509500,-6,6,-5,-7,-92,-74,-10,-11
1693678140425533300,7,8,7,-7,7,7,12,2
1693678140427505400,-3,1,-1,3,16,19,13,7
1693678140428505700,1,4,-2,-3,3,-7,-23,-2
1693678140441336400,-2,-23,-12,-4,11,9,25,9
1693678140442334600,-10,15,10,20,91,-18,-14,-13
1693678140445357400,-7,-5,-2,-12,-79,-66,-60,-8
1693678140446355200,1,-3,-6,17,122,-64,-5,-18
1693678140467368400,-2,1,-1,-34,-28,-84,-10,37
1693678140468368400,-3,-13,-10,-8,-27,-49,-6,-49
1693678140476363600,2,-3,-3,0,120,109,15,-13
1693678140477362500,-2,1,6,-2,-64,-34,-12,8
1693678140490526200,1,-5,-5,13,93,100,29,-8
1693678140492526100,-22,2,-9,-23,-57,-53,3,4
1693678140493525400,-1,-5,-2,-10,23,30,-4,-14
1693678140494523600,1,3,1,-36,54,18,28,16
1693678140512514800,8,13,18,11,-70,-30,-33,-4
1693678140514486200,-15,-35,-12,-1,20,22,3,-8
1693678140515488700,22,-29,-11,12,5,8,9,19
1693678140516487700,-9,-48,-22,-16,-50,-14,3,16
1693678140527332000,30,42,-5,-56,34,-12,8,4
1693678140529335300,2,24,29,55,14,13,-4,1
1693678140530334100,9,26,20,11,-6,-29,-17,-6
1693678140531333300,0,-22,-15,2,18,31,0,7
1693678140534331700,-4,-12,6,9,9,81,-2,10
1693678140536332900,25,5,4,15,2,-8,-20,-4
1693678140566282700,3,4,-10,-15,8,42,70,88
1693678140568285500,-2,3,9,8,-31,23,-41,-34
1693678140571286500,-15,-4,-1,16,48,40,1,18
1693678140574284600,-7,-4,-5,-13,-13,32,14,-25
1693678140575284800,-9,3,4,4,-11,-70,25,7
1693678140577281800,-4,17,6,-6,-83,-19,-28,-41
1693678140590275600,-13,-31,-14,2,-43,-70,12,14
1693678140592298400,12,7,-5,-7,104,30,12,68
1693678140594293500,0,4,15,-6,-42,0,-21,-15
1693678140595292400,-2,9,6,21,77,60,18,-11
1693678140618884500,-4,-7,-3,2,40,-7,-18,-5
1693678140623886500,0,0,-9,-6,-25,-8,-1,-25
1693678140626906200,-13,-20,-15,-5,-14,2,-24,-21
1693678140627882900,3,18,5,4,-31,-3,14,3
1693678140628884100,7,13,14,11,-26,22,-2,-6
1693678140629903900,1,-4,-5,-8,-29,7,3,-4
1693678140630903200,3,10,3,10,13,14,-2,-21
1693678140631902900,2,-25,-12,-17,-44,-29,4,25
1693678140647366800,-6,3,-4,10,73,-34,-6,-30
1693678140649322300,1,-3,-5,-21,-82,2,-14,-1
1693678140650341100,-9,-3,-5,-2,-60,-31,-12,-6
1693678140651318600,-1,-2,2,12,14,16,9,3
1693678140671859000,1,-2,2,5,30,4,15,-2
1693678140674881500,-4,3,-1,-11,-32,8,15,15
1693678140676857200,0,1,1,11,29,14,-14,-4
1693678140678854000,0,8,5,14,95,8,11,8
1693678140679853300,0,-15,-14,-25,-106,-25,2,-14
1693678140679853300,-1,3,15,19,26,-28,12,14
1693678140700525500,-3,-3,-10,-15,20,85,7,1
1693678140703528200,0,8,5,12,24,-38,17,-1
1693678140706528500,-2,-3,-4,-8,-38,-5,0,0
1693678140708527200,-1,-6,-1,2,5,62,-17,-6
1693678140709548700,0,3,2,9,18,-21,-1,-1
1693678140710545400,0,11,1,1,62,88,-1,16
1693678140723396100,-5,-3,2,-9,-58,-69,7,0
1693678140725390800,0,-5,-6,-9,-3,-42,-16,-2
1693678140726403300,0,5,2,4,-28,37,2,-12
1693678140727386800,0,-5,-5,-2,21,-58,0,8
1693678140738548500,-1,-6,-6,-12,2,-91,11,53
1693678140739545400,6,5,6,14,35,99,3,17
1693678140755108100,-17,-7,-7,-4,-1,69,8,-96
1693678140757139400,1,3,2,0,6,-57,7,14
1693678140774682600,0,3,5,3,-36,35,7,-5
1693678140775681500,0,-6,-12,-26,-81,-24,0,18
1693678140791563400,1,-2,-6,1,101,-66,-20,25
1693678140793562200,-4,-8,-9,-16,-58,61,4,-14
1693678140794562400,3,11,8,15,66,120,-30,-49
1693678140795582600,0,-4,-2,10,25,102,6,34
1693678140822510800,1,2,0,-14,-31,-87,-21,-1
1693678140824510600,5,8,10,27,-10,-31,10,10
1693678140825511200,-7,-12,-19,-61,-16,-6,-20,28
1693678140827509400,-5,-4,0,1,90,-83,-2,-52
1693678140828508600,4,5,4,12,65,81,24,30
1693678140830508000,6,10,14,25,-41,43,12,6
1693678140843506300,-2,-6,-6,-3,64,-24,-15,18
1693678140845507400,-1,0,-1,-5,9,43,5,-30
1693678140847498200,-2,-3,-1,-14,-81,-128,-4,2
1693678140848513400,1,-2,-1,7,6,72,-11,22
1693678140849494900,4,7,11,34,86,-22,20,-22
1693678140850496700,-1,-2,-3,10,45,36,-25,-2
1693678140874596200,-1,-4,-9,-26,-30,-81,-10,16
1693678140877593900,-1,-1,0,2,19,21,20,3
1693678140879597000,-8,-4,-2,-17,-66,-27,-12,-44
1693678140880614400,4,2,1,11,80,42,6,6
1693678140882592900,2,1,2,12,49,15,-7,14
1693678140883594400,-1,2,7,5,-98,-97,-9,2
1693678140884591900,-5,-6,-15,-3,106,30,-5,-14
1693678140885588500,-3,-4,-5,-26,-115,-76,-6,7
1693678140889598600,0,3,0,-3,-68,45,-6,-8
1693678140892587300,-6,-10,-11,-23,35,2,-7,-12
1693678140904488700,7,14,22,63,99,75,24,7
1693678140908486700,-7,-15,-29,-36,-97,-103,-17,-5
1693678140909512900,0,-1,-8,14,55,127,14,14
1693678140911484100,0,6,9,-40,64,-10,5,-26
1693678140916276200,4,0,0,-3,-9,5,14,64
1693678140917303000,-4,-1,-19,47,53,39,4,-40
1693678140925278700,7,8,44,-70,-13,0,29,10
1693678140926275800,0,0,-16,46,-44,-27,-8,-10
1693678140939953500,-1,-4,8,-41,28,76,-17,-2
1693678140941951700,3,3,0,20,-32,-54,21,57
1693678140942952300,-5,-2,-18,28,51,7,6,-40
1693678140943948000,0,-2,3,0,91,-4,-5,2
1693678140974312100,-6,-5,-14,-21,-128,16,1,-32
1693678140975310200,5,-2,6,-21,34,58,8,30
1693678140977310700,-3,-1,2,16,64,-84,-4,-13
1693678140978308300,2,6,6,-11,20,71,-9,6
1693678140979307100,0,-1,-4,45,47,-16,11,-2
1693678140980305900,-1,3,12,-12,73,-42,21,2
1693678140986496300,-6,-4,-6,-25,-74,-19,-22,12
1693678140990495900,1,2,-2,4,50,110,20,-11
1693678140999814500,-1,3,2,6,-3,-78,-15,-1
1693678141002818200,2,4,12,6,7,127,18,-5
1693678141006818100,2,-3,-7,11,17,68,-29,-3
1693678141008814400,-5,-4,1,-11,-59,37,-6,5
1693678141023849400,0,4,5,13,65,-34,4,-6
1693678141024848300,-4,-4,-2,-29,-76,-78,-33,-16
1693678141026846500,1,0,-5,21,60,-7,21,9
1693678141027846300,-1,-7,-9,-35,-53,-15,-15,3
1693678141044971400,4,6,7,11,63,74,-9,-1
1693678141046975700,-2,-5,-9,-7,-72,-59,-8,-12
1693678141047973800,3,1,1,0,64,1,8,26
1693678141048973300,-4,-4,-6,-25,-42,-64,-1,-11
1693678141067549300,1,-7,-10,-8,63,48,-11,3
1693678141072561300,-3,8,10,7,-18,-18,-22,-61
1693678141074549300,0,-2,-5,13,-13,-18,25,13
1693678141076547700,-1,2,0,10,50,-45,-10,-13
1693678141089373500,3,5,6,14,3,26,17,25
1693678141092375100,-2,-5,-6,-30,-20,-36,-14,11
1693678141096414200,-4,-8,-4,-4,1,-1,4,-7
1693678141098390400,1,4,6,25,127,-38,-24,44
1693678141099389500,-1,2,-1,-2,-107,5,0,-90
1693678141100389200,3,3,13,31,127,62,15,20
1693678141106364200,-2,1,3,-3,-98,-48,4,-4
1693678141108362900,-2,-5,-7,-10,-12,92,16,2
1693678141121511300,2,1,6,23,48,39,5,16
1693678141124511400,-5,-5,-7,-37,-41,-24,-18,-11
1693678141126509700,-3,-6,-4,1,75,90,6,-1
1693678141128508100,0,-1,-4,-9,-61,-75,23,4
1693678141142446300,4,10,9,15,52,50,-33,-5
1693678141144449300,-1,-2,-7,7,-76,26,8,6
1693678141145449000,1,-1,2,-8,-26,-43,-8,11
1693678141146448100,-3,-7,-3,-10,-66,-40,-9,-5
1693678141156487300,-5,-3,-5,2,-42,-35,-6,-22
1693678141159489900,0,0,7,8,117,27,12,16
1693678141173384100,-1,-3,-9,-15,-72,2,-8,-2
1693678141175377600,-1,0,5,7,-30,79,-23,12
1693678141180473700,-1,-2,-5,-13,-26,-61,-5,-3
1693678141182472600,3,3,9,25,15,11,4,8
1693678141183471200,0,0,-3,10,63,57,1,-8
1693678141184470000,-1,-7,-7,-9,-5,2,-9,0
1693678141205471800,-2,-1,9,7,22,-17,2,15
1693678141207472900,-1,-2,-6,-3,126,-53,-18,-4
1693678141209470000,2,4,4,1,36,47,-31,1
1693678141210469900,-4,0,4,9,-81,18,-2,-16
1693678141225459500,-1,-5,-9,-19,-24,-20,13,12
1693678141227459200,1,1,7,18,-21,70,6,0
1693678141229457700,2,5,-1,-2,13,13,-15,-7
1693678141231457100,0,0,-8,-5,68,-6,8,-9
1693678141247380600,-1,-4,-3,0,-53,15,8,6
1693678141249380200,2,1,2,-8,-38,6,26,10
1693678141250379000,-1,-1,1,-5,-55,-37,-3,2
1693678141252379400,2,1,-1,-10,5,36,-1,-7
1693678141278163900,-4,0,6,20,18,24,2,1
1693678141280166400,-4,-8,-13,-19,-73,-53,-9,-4
1693678141282167900,1,3,0,-5,42,16,12,1
1693678141283188200,-2,-1,1,5,34,-15,-8,-8
1693678141284186900,-2,-6,-7,-12,-25,-72,0,2
1693678141285185300,3,4,0,18,-29,40,-6,2
1693678141308486400,-3,-3,2,4,-14,-76,1,-3
1693678141310487200,-2,-5,-11,-10,3,-39,-10,-3
1693678141311486700,0,-2,-5,6,20,-50,21,7
1693678141312485900,0,1,10,-18,-94,-24,-5,-1
1693678141313485000,0,-5,-7,-3,53,7,0,-2
1693678141315484000,-1,0,-2,-11,-78,-14,2,2
1693678141330346700,-3,-3,-5,-2,16,35,-3,-1
1693678141332363800,-1,2,3,22,23,7,-5,-2
1693678141333367000,0,3,5,3,-14,1,18,5
1693678141334366500,2,0,0,3,45,-20,-1,-3
1693678141355511600,0,0,-1,2,5,31,-8,1
1693678141357506400,0,-2,-4,-17,6,-21,0,0
1693678141359504200,-2,1,8,15,34,48,-16,-5
1693678141360526900,1,5,4,12,39,-11,-1,-7
1693678141375016600,-2,-1,-1,-7,-78,40,-14,0
1693678141377015600,-2,-1,-3,1,49,17,6,1
1693678141378013800,-1,-4,-5,2,-2,-9,4,2
1693678141379011700,0,-1,2,2,41,5,-2,-2
1693678141384489000,0,3,2,-12,79,3,-1,1
1693678141387487600,-3,-2,-6,2,113,0,-6,-1
1693678141390487100,4,6,4,9,-5,36,-8,2
1693678141391485900,-4,-3,-7,-15,-28,-14,-6,-6
1693678141405393400,-2,-2,-1,-8,45,47,-17,1
1693678141408394500,-2,1,2,6,-15,10,0,0
1693678141409390400,-2,-1,-3,3,8,3,7,1
1693678141410411100,2,2,2,23,13,37,9,5
1693678141427501300,-2,-7,-8,-37,-52,-12,1,2
1693678141429486700,0,4,6,15,74,33,-9,-7
1693678141430509100,-2,-4,-5,-14,-107,-28,-3,-4
1693678141431508000,0,-1,0,-3,-13,14,0,-3
1693678141450504500,-1,-3,-4,3,-10,-6,5,1
1693678141452513300,1,1,1,17,52,-4,9,4
1693678141456511500,-2,-3,-2,-20,-48,-64,-3,-5
1693678141458508000,-2,-3,4,5,9,60,-4,-4
1693678141459506300,0,-1,-3,-2,56,-57,21,1
1693678141460504700,-2,-2,-2,-5,17,75,-21,-5
1693678141481964900,0,1,-2,15,17,-37,-7,0
1693678141482981500,-1,-2,-4,-15,18,-71,-2,-1
1693678141483964600,-1,-2,-1,-12,3,14,5,1
1693678141487962400,1,1,2,7,26,-4,11,0
1693678141503339400,-4,-6,-10,-25,-26,-64,13,-3
1693678141506338000,-2,-2,3,3,29,43,5,0
1693678141509781800,-2,0,0,2,-48,-29,-25,-2
1693678141512530000,0,-4,-13,-25,-82,-2,17,1
1693678141513551400,2,3,5,24,57,87,4,4
1693678141513551400,5,3,-2,-9,0,78,50,11
1693678141526064200,3,2,-1,-4,-13,46,10,8
1693678141527061100,-4,-3,-2,15,41,-52,-35,-9
1693678141528076800,-3,-7,-10,-44,89,-19,-10,-3
1693678141529080600,-1,-1,1,16,36,-40,1,-1
1693678141547392900,0,2,7,8,38,31,9,-1
1693678141548390800,3,2,0,-9,-51,-21,2,2
1693678141549390800,0,1,5,13,-19,32,-5,-1
1693678141550390600,-2,-2,-2,-6,-29,-18,-21,-7
1693678141561990500,-2,-4,-6,-2,56,5,1,-3
1693678141564005800,-1,-1,1,4,-46,23,6,0
1693678141565005300,-2,0,1,11,31,5,-5,-3
1693678141565984300,3,2,-4,-4,-28,31,12,7
1693678141584807700,3,5,14,5,-37,-13,-35,-5
1693678141588814100,0,-2,-4,1,55,22,13,3
1693678141590816300,-5,-5,-4,-17,-100,51,-31,-9
1693678141591808800,-1,1,0,10,78,29,2,2
1693678141600417900,-1,0,-3,4,-31,-5,9,-1
1693678141602416000,1,1,-3,-16,-35,-44,-8,0
1693678141606415000,3,6,10,34,-5,99,-8,-3
1693678141608413600,-4,-3,-1,-11,23,-74,-13,-9
1693678141630504300,-3,-5,-8,-10,-6,-26,-8,-6
1693678141632512700,-2,-1,0,-9,-43,-31,5,-1
1693678141633511100,2,2,-1,4,27,52,20,5
1693678141634508300,2,7,10,15,-74,8,1,2
1693678141644793700,-3,-4,-9,-17,57,-50,6,-1
1693678141646816400,0,3,4,9,65,97,-26,-2
1693678141652515900,6,2,5,16,72,-5,12,69
1693678141656511200,-7,-5,-7,-10,-4,43,-10,-74
1693678141659509000,0,-2,-4,-4,-27,6,5,38
1693678141660530600,-4,-2,-4,-19,-126,-7,12,-27
1693678141674660300,-3,0,2,6,32,-68,-3,-17
1693678141675659600,0,-1,0,0,74,35,-29,3
1693678141683434400,1,-2,-3,-2,-13,1,10,10
1693678141685432700,-1,0,3,5,54,13,5,10
1693678141690433700,-1,-2,-2,-9,-81,2,7,-12
1693678141691431200,1,0,-2,1,-47,-5,9,21
1693678141705489000,-4,-2,-1,6,-9,1,-2,-25
1693678141707515700,2,3,3,10,10,-48,-10,9
1693678141708486600,-1,-2,-3,-4,9,4,1,-17
1693678141709509400,-2,-4,-1,-6,1,-21,0,6
1693678141719783900,1,1,4,7,3,14,-3,-11
1693678141722805500,-3,-4,1,6,-4,-3,9,6
1693678141726359600,1,1,-1,5,54,47,10,6
1693678141728364500,-5,-6,-4,-20,-89,-85,-34,-4
1693678141750568300,4,-1,-3,3,86,12,12,-2
1693678141754572500,-2,-3,-4,-11,-43,-19,4,-1
1693678141756572800,1,1,1,4,25,29,-24,-2
1693678141757569400,0,2,2,10,41,9,12,-4
1693678141764513400,-1,2,3,7,9,27,-8,-8
1693678141766513100,-1,-3,-4,-2,2,-36,-8,-5
1693678141767511400,-2,-2,-4,2,-8,-18,8,5
1693678141767511400,3,4,6,7,44,18,6,8
1693678141784378300,-3,-4,-6,-25,-113,-43,-7,0
1693678141789378900,-2,-4,-5,-4,22,-13,3,-3
1693678141792375000,2,5,5,1,78,-4,-1,-6
1693678141794373000,1,-2,-2,8,-51,96,10,60
1693678141806367800,-1,3,5,13,15,-13,9,-91
1693678141808366800,0,-1,-2,0,15,8,0,16
1693678141810364200,0,-2,-4,-11,-35,-31,7,-4
1693678141812366900,2,3,2,5,38,47,-20,1
1693678141824389800,-3,-3,0,-6,-35,-76,-11,24
1693678141826407700,-2,-3,-5,-6,-59,-13,-3,7
1693678141827383900,-4,-2,0,0,-13,-2,1,-17
1693678141828400600,1,0,0,7,89,-5,13,7
1693678141847337100,-1,-3,-4,-15,-118,-26,0,8
1693678141848335500,2,2,1,-2,69,44,-13,2
1693678141849335400,-2,-7,-6,-8,14,-4,2,8
1693678141850334800,0,2,3,-10,-2,31,-1,-16
1693678141861793400,3,-1,0,10,53,56,2,39
1693678141863797300,-5,-2,3,6,7,-3,9,-34
1693678141864796700,0,-2,-1,-3,-50,-34,-4,-4
1693678141865796300,-1,-1,-3,0,23,-8,7,0
1693678141884460400,0,1,1,-1,-15,24,-1,2
1693678141887460900,1,0,0,-3,-10,-30,6,3
1693678141889463600,-1,1,5,17,86,5,-7,-2
1693678141891459500,-4,-6,-9,-20,27,-64,-8,-7
1693678141907448000,0,1,2,11,57,20,-3,6
1693678141909469000,1,1,3,9,55,71,12,7
1693678141909469000,-4,-1,0,-11,-34,-22,-12,-5
1693678141910467700,-1,-3,-2,-4,-26,15,7,1
1693678141923385400,1,5,4,10,45,35,-2,-2
1693678141925405400,5,2,1,8,24,40,-5,71
1693678141927384800,-7,-5,-7,-13,3,-27,-3,-87
1693678141929381500,2,0,1,-6,-100,13,10,11
1693678141955898400,-1,-1,-4,-6,12,5,-7,-3
1693678141958890500,0,-1,-1,0,24,-17,-3,-2
1693678141960889000,3,-1,-1,1,-30,9,4,33
1693678141961888500,-3,-1,-3,-8,9,-48,-4,-7
1693678141962887700,-2,-3,1,2,3,-7,4,-4
1693678141963887100,1,0,0,-1,33,14,1,-4
1693678141974881400,1,1,0,4,48,3,0,10
1693678141976880900,-1,0,1,2,-54,-7,-7,-13
1693678141981880300,-2,-3,-4,-4,44,-43,-19,3
1693678141983876200,-4,-4,-5,-8,-37,-13,13,-42
1693678141988879000,1,2,-1,0,29,8,6,11
1693678141991873700,-3,-1,-2,3,51,23,-9,2
1693678142004866800,1,0,-4,-3,-8,-8,1,5
1693678142007863700,2,-2,-3,-5,-60,-74,3,77
1693678142009862900,-4,-1,-4,-10,15,0,-16,-80
1693678142010861800,2,-1,0,5,40,20,-16,24
1693678142026852200,-2,-3,-1,0,-38,23,-4,22
1693678142028850200,1,0,-1,-6,3,14,2,-22
1693678142029849600,0,2,0,2,-25,-1,8,49
1693678142029849600,-2,-3,-3,-2,-28,-35,-3,-9
1693678142041344200,0,0,0,1,1,0,20,-25
1693678142043343100,-2,-1,-5,-10,-32,-12,-14,-1
1693678142044343200,0,-2,1,4,14,80,9,13
1693678142045341700,0,2,2,-3,4,-28,5,-21
1693678142064498900,1,0,1,8,61,27,11,12
1693678142066499600,-1,0,-2,-10,-50,-10,6,-15
1693678142067497300,2,0,0,-10,-6,-15,-10,19
1693678142069496300,0,-2,1,8,10,23,23,-4
1693678142089597900,0,-1,0,-7,1,-23,3,7
1693678142091596000,-2,-2,2,6,19,-6,-12,-21
1693678142092598200,2,-2,-3,-2,-40,7,3,36
1693678142093595700,0,0,0,-2,-47,-16,-6,-43
1693678142101523100,3,0,0,-1,-25,6,-5,68
1693678142106519700,-6,-1,2,1,9,4,2,-79
1693678142109518100,-2,-4,-3,0,-13,-26,2,14
1693678142111515300,-1,-3,-1,9,64,-4,5,41
1693678142124508600,-6,1,2,1,-15,-58,-30,-67
1693678142126509800,4,-1,-2,-2,-69,9,-3,27
1693678142128508100,-8,-1,-4,-10,-45,-6,-13,-20
1693678142129504900,0,0,-2,-4,17,-12,-9,0
1693678142146495400,-2,-2,-1,7,16,23,3,-16
1693678142148493900,3,3,2,4,-2,8,-2,37
1693678142149493700,-2,-6,-8,-12,1,-52,-15,-8
1693678142150493700,-7,-2,-3,-7,-50,-41,0,-8
1693678142161488800,3,2,-1,-9,-79,14,8,19
1693678142163485100,-2,-1,3,10,44,13,-1,-37
1693678142165484900,2,2,4,10,37,10,12,31
1693678142166484000,2,2,0,-4,-40,28,2,-3
1693678142184471400,0,-2,2,4,15,43,10,-1
1693678142188473000,-3,1,0,-1,33,9,-1,3
1693678142190470300,0,0,1,0,13,27,-5,-16
1693678142191468000,-1,-1,-1,-3,18,-64,-1,5
1693678142207490900,-3,-4,-1,2,1,-2,2,-6
1693678142208491200,2,-3,-4,-9,-4,16,-1,10
1693678142209487700,-1,3,6,16,-22,-5,5,-6
1693678142210486900,1,1,1,2,40,21,2,5
1693678142222471000,2,-2,-4,-17,23,0,10,16
1693678142224491300,-5,-3,1,6,95,11,-27,-35
1693678142225467800,1,-2,-3,0,50,-5,20,40
1693678142226468800,-2,-1,-1,-2,-23,6,-17,-28
1693678142244390400,1,1,-1,3,25,12,39,32
1693678142246364100,-1,0,-2,-3,-34,39,-21,-13
1693678142251842800,1,2,0,-4,-27,8,1,30
1693678142256845600,-3,-4,-3,-1,10,2,4,-1
1693678142267398300,0,1,1,8,57,23,-6,-1
1693678142268415600,-2,-4,-6,-16,-104,-57,28,8
1693678142272394800,1,0,0,2,16,35,-4,-2
1693678142274395600,3,2,0,4,48,25,-5,7
1693678142281688500,-4,-3,-2,-4,10,-31,-8,-28
1693678142283661400,0,-2,-1,3,33,10,-1,5
1693678142284641600,1,-1,1,3,23,-51,2,-20
1693678142286638400,4,0,1,-3,41,33,1,29
1693678142305180200,-2,-1,-1,4,11,-30,-9,-84
1693678142306179400,-3,-3,-5,-11,-38,-17,-8,20
1693678142308181600,1,-2,-2,1,19,-23,0,45
1693678142309199600,-6,-2,-1,-6,-64,16,5,-93
1693678142327292100,4,5,6,6,-13,73,-18,39
1693678142329289600,1,-5,-5,-3,70,-4,15,41
1693678142329289600,-3,5,3,-2,-62,11,-14,-68
1693678142330297100,3,3,3,9,93,10,-2,33
1693678142342334800,-8,-8,-6,-5,-13,-62,4,-8
1693678142343355700,5,5,2,4,0,74,7,-3
1693678142344355500,0,-4,-2,3,62,2,14,18
1693678142345355000,-2,-5,-4,-15,-42,-30,-25,-4
1693678142364496500,-1,-1,-3,-8,-66,-19,-1,-19
1693678142366495600,-2,0,1,8,52,-11,1,4
1693678142367494800,1,1,1,12,80,19,-1,-5
1693678142368493600,-2,-4,-5,-13,-115,6,4,5
1693678142388289600,0,-2,0,0,43,-8,-1,13
1693678142391287000,0,-1,3,4,15,-20,12,-13
1693678142392286600,-3,-2,-1,-6,-12,7,-4,-18
1693678142393307800,1,-1,-2,5,-5,-34,5,26
1693678142410504600,2,3,3,0,-22,38,-4,2
1693678142411511500,3,2,3,14,59,20,5,11
1693678142413509700,-3,-4,-8,-33,-113,-49,-9,-3
1693678142413509700,0,-2,-1,-1,48,-24,8,21
1693678142424256100,0,2,0,6,87,37,-9,-16
1693678142425252100,0,1,5,20,-61,10,5,1
1693678142426275000,-2,-4,-7,-17,-21,-41,-14,-13
1693678142427273200,-1,-1,0,-30,-74,-21,-4,-2
1693678142447373000,0,-1,-2,-6,-42,15,-1,13
1693678142449370000,2,2,0,9,58,0,-3,-4
1693678142451369300,-1,0,3,21,34,18,0,-16
1693678142455367500,-3,-5,-5,-15,-45,-7,6,17
1693678142462364800,-4,0,-1,7,22,-25,-4,5
1693678142463364800,0,0,-3,-12,-18,-22,-19,-30
1693678142464364900,3,2,2,11,30,-25,31,53
1693678142465363600,-3,0,0,6,25,-3,-40,-46
1693678142484349000,2,1,3,5,-16,16,7,1
1693678142489348100,0,-1,1,-3,31,-27,-4,-1
1693678142491348100,-2,-4,-7,-18,114,41,2,-7
1693678142493346300,-1,0,3,20,62,81,-19,47
1693678142507344600,-7,-5,-4,-8,0,-23,19,-88
1693678142509338000,1,-2,-5,12,-66,3,-7,29
1693678142510336700,-2,1,1,1,-18,0,14,-15
1693678142510336700,2,-1,0,-20,22,-48,5,0
1693678142530503600,3,0,-5,-2,-12,-4,-4,30
1693678142532506500,-2,2,3,-4,59,12,0,3
1693678142533507700,0,-4,-4,13,-42,-3,-12,11
1693678142534505100,-1,1,-2,17,44,6,13,-5
1693678142544499800,3,3,4,4,4,3,-6,25
1693678142545499100,-3,-5,-8,-14,17,0,2,-2
1693678142547499000,-1,0,1,-11,-56,-12,-26,0
1693678142548497900,-3,-1,3,9,21,-3,1,-5
1693678142566368900,0,2,1,2,16,13,10,29
1693678142569371800,-6,-4,1,3,8,-23,-21,-5
1693678142573373500,4,10,6,5,9,-41,29,11
1693678142574372500,-4,-9,-6,-14,-66,8,3,-2
1693678142583472200,9,12,3,3,36,6,0,82
1693678142585473300,-3,-3,-1,-8,-13,2,3,-27
1693678142589470200,-3,-1,3,5,9,2,14,1
1693678142590469700,-1,-1,-1,6,-32,28,27,1
1693678142604488800,-3,-9,-8,-9,9,25,0,12
1693678142608488500,3,0,0,-7,34,-9,19,59
1693678142610484500,-3,-6,-4,-8,-3,25,-17,-32
1693678142611483100,1,6,1,9,24,-30,0,-12
1693678142627178900,-4,-4,0,-3,-23,1,-9,0
1693678142629179000,1,4,0,-4,21,-10,12,-7
1693678142634489400,0,-4,1,18,54,41,23,10
1693678142639485100,0,-1,1,2,28,-17,-10,-6
1693678142644480100,-2,-5,-5,-16,-31,-91,-22,-20
1693678142646481600,-2,1,0,6,49,18,-15,-28
1693678142647482300,0,2,3,-1,3,7,3,-3
1693678142648479400,2,0,3,10,30,10,6,25
1693678142664488700,-3,-4,-3,2,6,21,5,-13
1693678142666485900,-4,-3,-3,-4,-22,-17,-6,-7
1693678142667484800,3,0,-2,-7,-68,-18,-14,44
1693678142668484100,-1,-1,-1,-2,-16,1,3,-80
1693678142688497200,0,3,1,6,19,4,-3,-3
1693678142691496100,-4,-2,-4,-10,-39,-30,-11,-14
1693678142692495400,-2,-2,1,1,15,31,-5,10
1693678142693494100,1,0,-2,1,64,-21,22,30
1693678142701651800,3,-3,-1,-4,35,-10,-26,30
1693678142705652200,-7,-3,-1,-4,-70,2,13,-81
1693678142709322000,-1,2,1,1,34,16,-9,-14
1693678142711326300,0,2,-1,2,-5,-4,2,15
1693678142732506200,-5,-5,-1,5,33,18,3,-15
1693678142735505000,2,3,5,5,12,-13,-13,27
1693678142739503200,-4,0,0,0,-47,-30,-6,-24
1693678142742501000,-1,1,1,6,24,-13,-5,-2
1693678142746500000,-4,-5,-7,-16,-71,-31,5,-8
1693678142748499700,2,-1,1,1,6,3,4,9
1693678142749496900,-2,-3,-2,0,-3,3,-2,-10
1693678142750495700,2,3,2,7,-8,10,-4,37
1693678142762940700,1,3,2,8,51,12,-5,-30
1693678142763938100,-5,-4,-3,-11,-8,22,-1,-62
1693678142764937100,1,1,1,-2,-2,18,-11,6
1693678142765937300,-2,1,-1,-4,-23,-23,-8,-14
1693678142784521100,-3,-1,1,3,22,16,10,30
1693678142787520300,1,-2,-1,0,-8,7,7,24
1693678142790520500,-3,-2,-2,2,63,30,-3,-20
1693678142791518000,1,-1,0,-6,-77,-31,-3,-3
1693678142806511800,-2,-1,-3,-7,78,-18,-4,-12
1693678142809511700,0,1,1,5,11,-7,-4,17
1693678142811505900,-2,-5,-7,-11,-76,-21,-4,-6
1693678142813507700,-1,-3,-2,-2,21,28,3,9
1693678142838491500,-1,0,2,3,-27,8,1,-15
1693678142841489400,-1,0,1,3,7,-3,11,15
1693678142843489200,2,3,3,6,79,16,-6,3
1693678142844487100,-3,-1,-1,-6,-74,-12,-1,-10
1693678142846487100,1,-1,-2,-3,-14,5,14,-6
1693678142848487300,3,3,3,3,-15,-2,-1,67
1693678142849484800,-8,-8,-10,-26,-123,-63,-2,-7
1693678142851482500,0,1,3,8,99,17,-9,11
1693678142866474100,0,-3,0,2,16,36,3,31
1693678142868473100,-4,0,-2,-6,40,-33,-15,-58
1693678142872472900,-2,-1,-1,-2,-1,13,-12,-28
1693678142873471400,-1,-1,0,-1,-34,-42,-4,-13
1693678142881466100,1,-2,-2,-4,-19,8,-3,17
1693678142883465200,1,-1,1,1,29,10,-5,6
1693678142884464300,2,0,-1,5,11,-12,5,4
1693678142888467300,-1,-3,-2,2,49,40,-4,-15
1693678142905455400,-3,-1,-3,-8,-93,-17,2,-11
1693678142907453000,0,-2,-1,1,5,9,-2,4
1693678142912364400,1,1,2,11,75,10,6,-12
1693678142913361000,-1,-4,-3,-13,-8,29,-9,22
1693678142927355000,-1,1,1,3,6,-12,2,-14
1693678142928353200,-1,-4,-4,-6,-19,2,11,11
1693678142929352200,0,0,3,4,21,10,-25,5
1693678142930351700,-1,2,2,7,18,-6,6,-4
1693678142943344800,0,1,0,4,14,-14,-2,28
1693678142945345000,-3,-1,-2,-3,5,48,-6,-73
1693678142946343000,0,0,0,-2,-31,-78,21,53
1693678142948342000,0,-2,-1,2,24,29,-11,5
1693678142972337200,-4,-3,-1,-3,-50,-2,3,-9
1693678142974327800,2,1,0,1,36,15,8,33
1693678142976325900,0,-1,-3,-8,-27,17,5,1
1693678142977326800,0,1,1,0,-45,-1,3,-15
1693678142988319300,0,1,2,6,37,5,6,-4
1693678142991320300,1,-3,-2,-3,16,-20,-9,16
1693678142993315600,-3,-3,-4,-6,-12,-12,-8,-17
1693678142994315100,2,1,1,-3,-24,-11,4,15
1693678143010306300,0,-1,-2,6,31,10,-5,-20
1693678143012306800,-1,1,1,-2,-25,6,2,7
1693678143013305000,0,0,-1,2,25,-15,-6,-6
1693678143015304500,-2,0,2,16,80,6,7,-1
1693678143024298100,-3,-5,-8,-35,-87,-24,-13,-8
1693678143026299000,-1,-1,-1,-1,-9,-10,-2,4
1693678143028296900,0,0,-1,-1,3,24,6,-1
1693678143030295300,-2,-1,-1,1,13,5,13,13
1693678143046427400,3,4,3,10,12,0,-7,-9
1693678143048432000,-1,-2,-2,-3,-14,-6,-1,11
1693678143049429200,-1,-1,0,-2,-9,15,-3,-7
1693678143050428800,-2,-3,-6,-2,-4,-7,5,-3
1693678143063504700,-2,-1,3,3,21,5,-2,-6
1693678143065505500,0,-1,1,2,13,-8,1,7
1693678143066504200,1,2,3,1,-31,8,2,2
1693678143067505100,3,4,3,3,15,6,0,-8
1693678143084485700,-3,-7,-8,-1,3,-4,1,-2
1693678143089481100,0,-5,-3,-5,-4,-11,-4,3
1693678143090480900,1,3,9,2,-8,6,1,-3
1693678143092479200,2,1,1,-6,-12,-3,-1,-2
1693678143106504400,-1,0,3,2,21,6,1,-3
1693678143108503200,0,-2,-7,7,21,4,4,3
1693678143109502000,-5,-9,-12,-10,60,2,-4,-4
1693678143110500300,-3,-7,-13,-10,-12,-5,-4,-4
1693678143122422500,3,8,8,4,-4,3,2,1
1693678143124416500,3,6,12,3,16,-1,0,1
1693678143139499800,5,7,5,0,-14,-2,-2,-1
1693678143142495600,-2,-2,1,-2,8,1,-2,-3
1693678143144495200,-4,-8,-11,-7,12,-2,-3,-5
1693678143145493900,-4,-4,-6,7,-27,-2,-3,0
1693678143146493700,-2,-1,1,-2,5,7,0,-3
1693678143147494100,0,1,0,-3,12,-4,2,-2
1693678143168479700,2,-3,0,5,0,0,-1,-1
1693678143172481600,-1,0,-6,-7,-24,-5,-4,-1
1693678143175475600,-3,-3,-3,8,18,5,2,1
1693678143176476300,-3,-4,-4,3,-11,-2,-2,-4
1693678143182522200,3,7,13,-9,15,2,1,2
1693678143184521800,2,5,6,21,76,2,1,2
1693678143190519000,-7,-10,-15,-28,-83,-31,-10,-8
1693678143191516200,-3,-1,-1,3,24,1,0,-2
1693678143204373000,-4,-7,-13,-3,14,-2,-5,-4
1693678143207377900,2,1,2,0,21,7,4,1
1693678143209371700,2,6,9,9,2,10,4,1
1693678143210369400,1,3,-2,-9,-11,-4,-1,-3
