timestamp,EMG_s0,EMG_s1,EMG_s2,EMG_s3,EMG_s4,EMG_s5,EMG_s6,EMG_s7
1693678368275270700,0,-1,-2,-1,0,0,-1,1
1693678368276287200,-1,-1,-2,1,-2,-14,1,-4
1693678368283266400,0,0,0,-1,-2,0,2,4
1693678368287288900,-1,-1,1,-2,-1,0,6,7
1693678368288281000,0,0,0,0,-1,-5,-6,-1
1693678368289284400,-1,-1,-3,-1,-1,4,-3,-5
1693678368290284000,-1,0,-1,-3,-1,-1,-1,-4
1693678368291277600,-1,0,-1,-1,-1,-2,0,1
1693678368292276600,1,0,-1,-1,1,5,2,0
1693678368293259900,-1,1,0,-1,-1,0,1,-12
1693678368302279600,0,0,0,-1,0,0,-3,15
1693678368305254200,-1,-1,-2,-2,-1,0,-1,-5
1693678368306255700,-1,-1,-2,-1,-2,-1,0,2
1693678368307256200,0,-1,-1,0,2,1,-1,1
1693678368319646100,-1,-1,1,0,0,-2,-1,-6
1693678368320646700,0,0,-1,-1,-1,-2,-2,-2
1693678368322643600,-1,-1,-3,-2,-2,0,-1,-1
1693678368323663900,-1,-4,-1,-1,-1,0,0,3
1693678368338632500,-1,-1,-11,-9,-2,0,-1,-2
1693678368340632600,1,2,5,10,0,-1,1,14
1693678368354627300,-3,0,-3,-3,-1,-3,-7,-10
1693678368355645900,11,4,4,4,3,5,1,18
1693678368360621000,4,-2,4,3,1,0,3,-14
1693678368361622800,-15,-5,-5,-4,2,0,-6,-9
1693678368369616300,-3,2,-1,-6,-1,-4,5,12
1693678368371614300,49,2,-14,-7,-4,-3,1,-4
1693678368392601300,-20,-9,10,2,-4,-6,-2,4
1693678368394603500,-5,4,-8,-6,-1,-2,5,-27
1693678368395601800,-66,-16,-1,9,1,1,-1,-46
1693678368396621600,5,2,11,2,-1,-1,-6,38
1693678368423587000,27,15,17,-2,1,6,6,26
1693678368425586700,71,-3,-31,-19,-10,-29,8,-10
1693678368426582500,-61,-9,-6,13,0,-5,12,-29
1693678368427594300,-32,-1,7,-14,-3,-6,-34,7
1693678368428598500,-49,3,15,12,4,14,-7,-28
1693678368429602800,-3,9,30,13,-4,-40,3,38
1693678368436584700,107,9,-40,-16,-7,-22,-4,-17
1693678368438598300,-85,-31,11,7,3,21,27,-44
1693678368439597200,37,-1,-6,-1,-4,-19,-34,33
1693678368440575800,88,14,6,-3,6,24,60,95
1693678368443572200,-94,-33,-15,-19,-18,-30,-63,-8
1693678368444575400,-39,25,9,15,16,24,28,66
1693678368451569000,102,2,-15,-10,-4,0,82,-128
1693678368453591500,-128,-22,-6,-10,-11,-20,-98,15
1693678368469560000,20,29,6,17,28,61,111,27
1693678368476569800,-44,-20,-18,-16,-13,-19,11,11
1693678368477569100,-55,0,19,7,2,-5,-36,13
1693678368478554000,-46,-5,-7,5,1,-3,-35,-62
1693678368487548100,57,3,13,-5,3,14,-20,-23
1693678368489549600,80,2,-3,-5,-8,-12,-36,23
1693678368495542600,-42,-10,-22,10,1,10,15,58
1693678368496542100,-4,1,-3,-46,0,25,23,-30
1693678368518530300,-87,-4,28,49,1,-10,-35,-12
1693678368521550800,99,23,4,6,3,7,34,-7
1693678368523529000,-74,-20,-17,-12,-12,-27,-18,25
1693678368524525800,39,7,-1,4,9,30,5,-46
1693678368541516500,-113,-5,-1,-18,-4,10,25,-29
1693678368542516600,29,-1,-3,-1,-4,-20,-35,-3
1693678368543515700,-26,3,2,1,2,1,3,5
1693678368544515000,8,-3,-11,-8,-2,6,-12,-53
1693678368547514300,-24,-7,16,13,4,-4,17,72
1693678368548513400,-44,-11,-7,3,-2,-1,-24,-88
1693678368555509800,-7,-1,-3,-6,-3,-16,-2,24
1693678368557507400,-16,6,12,10,3,-4,52,19
1693678368570500500,33,-10,-16,-13,-18,-28,-51,6
1693678368572498400,-101,-9,2,-9,6,-4,-8,-82
1693678368573499600,83,11,-1,-3,-13,-7,15,24
1693678368574499300,8,-1,-4,9,-8,-42,-42,-3
1693678368595486000,5,-7,-7,-12,1,10,33,-43
1693678368598484000,65,9,-1,-9,-10,-6,-1,49
1693678368602491000,1,8,-2,5,8,8,-7,-57
1693678368603482300,-15,5,2,11,8,38,2,65
1693678368607479400,26,17,9,-10,-1,-4,8,-2
1693678368608479000,-25,-7,-7,6,2,-14,0,-40
1693678368615474100,78,4,4,1,-1,15,-12,67
1693678368619472400,85,25,5,8,6,33,38,24
1693678368630465000,-52,4,3,-3,16,27,-10,-30
1693678368631466100,-36,-14,-9,-12,-17,-31,16,127
1693678368634467000,-74,1,3,3,8,21,-7,-119
1693678368636462700,22,-3,1,10,-3,-18,5,23
1693678368655452400,39,-16,-11,-19,-26,-32,-48,-12
1693678368660449500,-50,-4,-1,6,8,11,27,77
1693678368662449100,-32,-12,-5,-5,3,-7,-40,-37
1693678368663446800,92,7,4,2,-5,3,-6,-6
1693678368669448200,127,28,10,8,12,5,17,-46
1693678368671442700,-56,-6,7,21,11,26,-4,-4
1693678368675439700,84,10,0,-21,-20,-34,3,55
1693678368678438600,-105,-9,0,2,5,9,17,49
1693678368690453900,4,-5,14,30,8,-1,-23,-37
1693678368692430400,43,23,1,-14,-4,16,-4,-29
1693678368694431300,2,27,6,5,3,13,1,82
1693678368696427600,-54,-11,3,10,8,-1,30,-11
1693678368713417900,35,14,4,-1,3,34,17,45
1693678368714440000,53,-33,-20,1,5,22,3,7
1693678368715439100,-77,-1,6,-5,-3,11,11,-8
1693678368720419600,21,9,-4,-6,-14,-26,-14,-20
1693678368727412400,-49,-5,2,-8,-11,-6,-2,12
1693678368729409700,30,17,6,23,15,14,-2,-51
1693678368737405500,58,-5,-27,-8,22,12,-7,-9
1693678368744416300,-27,-22,45,13,-22,-15,-19,-59
1693678368752398900,-3,-6,-12,-18,-6,-16,14,50
1693678368754397700,7,4,5,-8,-11,-16,-3,-14
1693678368755397300,-41,-31,-33,23,13,21,10,4
1693678368756396400,-2,7,-44,-2,24,8,-16,-32
1693678368781378900,1,3,32,9,-9,-22,0,6
1693678368784378600,8,9,-7,-24,-43,-7,5,9
1693678368787377300,-34,-23,-27,1,53,15,-3,-42
1693678368788394400,27,9,51,-73,-76,-52,-15,-1
1693678368790373600,-62,-14,-28,-2,-1,14,4,18
1693678368791380000,-10,-10,-5,2,32,-12,-9,-17
1693678368795370400,-48,7,8,-29,-60,-34,3,5
1693678368797370300,-39,-24,-28,31,41,15,-6,-9
1693678368812361200,-1,2,-4,-18,-19,-24,0,20
1693678368813363700,27,13,17,1,-21,-15,4,-3
1693678368814382600,-24,-25,2,26,44,40,-3,-22
1693678368815381500,9,64,49,53,48,42,33,-19
1693678368835349700,47,-10,-11,-16,-33,-45,-19,39
1693678368837371800,-43,-18,-15,17,20,12,-8,-11
1693678368838370400,37,-1,6,-2,-4,-1,13,38
1693678368839370100,34,10,-4,-11,-19,-5,-22,-12
1693678368847343500,-2,2,8,15,48,42,38,85
1693678368849342600,63,37,32,24,23,28,9,9
1693678368855337700,-70,-20,-2,-19,-37,-29,-16,-14
1693678368857338600,10,0,-8,1,4,8,11,14
1693678368870347900,9,-4,-13,-5,-2,6,-61,13
1693678368872327400,-57,-16,-10,-5,8,-4,15,-84
1693678368873326700,23,11,20,7,-3,-20,21,7
1693678368874326100,-28,-16,-18,5,13,16,-13,-4
1693678368893315200,-19,-7,-4,11,31,41,-4,-39
1693678368895314200,11,-2,-2,-16,-19,-26,-2,21
1693678368896313900,25,10,8,3,-7,-12,-2,5
1693678368898312300,-36,-22,-24,-16,-4,33,2,-18
1693678368907306500,-5,1,-1,-5,-2,-16,-3,11
1693678368909305300,27,15,14,9,15,40,21,-27
1693678368915324100,-4,4,9,0,-21,-12,14,12
1693678368920300300,-12,-27,-18,-5,-2,-24,-22,7
1693678368930296000,-5,3,1,0,5,15,23,-19
1693678368932310200,2,-6,-11,-4,3,9,-11,27
1693678368935295900,32,6,3,-1,-3,-6,-16,-13
1693678368937289400,-39,-13,-16,-21,13,5,7,-17
1693678368957280400,10,15,14,30,18,8,7,-1
1693678368959279300,53,12,18,-12,-39,-34,-3,6
1693678368961275700,-55,1,7,-4,-11,-11,2,-9
1693678368962276100,10,3,3,2,-18,-6,5,26
1693678368970272300,-18,-15,-25,-25,0,-12,-1,-31
1693678368972270300,2,-10,-14,-15,3,-3,-8,20
1693678368984263600,19,5,6,8,6,20,-4,-10
1693678368987262200,-6,-3,-6,0,4,-3,2,13
1693678368990258900,-12,-6,-6,-3,-7,-11,12,-14
1693678368992258800,-3,2,-2,-2,1,41,7,1
1693678368993258000,7,2,2,-12,-11,-31,0,9
1693678368994257500,-20,-6,-2,9,5,-6,-9,-6
1693678369013246200,14,3,6,-9,-17,-7,4,-7
1693678369014247200,-3,8,6,4,-3,13,4,16
1693678369020694000,-2,-9,-10,-5,-1,10,8,4
1693678369022694700,-1,-6,-3,0,-2,10,-1,3
1693678369039684200,0,-1,-10,-2,-3,-44,-1,-8
1693678369041683700,-20,-6,-1,0,5,16,-15,-1
1693678369042682100,2,2,6,-7,-4,9,-6,-2
1693678369044682900,7,1,-1,13,2,-8,4,-2
1693678369054674900,-3,3,4,8,8,12,-2,-1
1693678369056673800,-8,1,-12,-15,-19,-26,-6,4
1693678369058672400,11,3,7,8,2,3,2,-1
1693678369060671200,0,-3,-1,-12,-4,12,4,6
1693678369073663600,-9,-5,-10,3,0,5,0,-10
1693678369074663500,-7,-9,-5,-9,-8,-20,10,1
1693678369076661300,1,2,-1,1,19,-14,-13,-8
1693678369077661600,-4,-4,-9,-11,-17,-36,-1,1
1693678369096651200,4,13,31,8,-9,10,-1,2
1693678369098650900,-1,0,1,2,-4,-3,5,4
1693678369100649700,6,1,-2,-2,-1,17,10,3
1693678369103649000,-7,-4,-13,-15,6,-20,-17,-10
1693678369110644300,2,-6,-7,16,8,7,5,-1
1693678369112643400,-3,-1,8,5,-12,-6,-9,3
1693678369113642600,-4,-2,-10,-2,12,15,-2,-2
1693678369114641700,0,-4,-2,3,2,-19,12,5
1693678369135699400,-3,-3,-23,-12,25,-3,-10,-5
1693678369138697200,4,7,51,11,-39,-16,-4,3
1693678369141695300,-4,-6,-8,10,-16,-9,-6,-3
1693678369142694800,5,5,14,15,-3,12,6,0
1693678369155686400,0,0,-2,-25,-6,5,-1,0
1693678369157686600,-7,-8,-27,1,55,10,-7,-4
1693678369163681300,-1,-4,-7,-8,-7,-37,-3,-3
1693678369172676600,-1,-4,-1,-10,-8,-1,-1,0
1693678369176674900,-4,-1,6,2,-26,-8,-4,-3
1693678369178673900,-2,-4,-16,11,58,5,-1,3
1693678369180673000,3,3,9,0,8,17,-3,0
1693678369185676300,0,1,-6,3,11,11,-2,0
1693678369193666700,3,-1,5,4,-31,5,5,2
1693678369195663100,-4,-6,-9,-33,-97,-34,-6,-3
1693678369197663000,-4,-4,-8,4,45,2,-9,-5
1693678369202661600,-1,0,6,26,34,-3,3,1
1693678369218650800,0,-1,1,-10,10,9,-2,0
1693678369220649400,1,2,1,-1,-26,4,0,1
1693678369222648200,1,1,-5,5,24,2,4,1
1693678369224648900,-3,-2,-2,-18,-52,-10,-4,-2
1693678369230643000,-1,2,4,9,29,8,2,-1
1693678369231643000,-4,-3,-11,6,40,5,-3,-1
1693678369238638700,-1,-4,-1,-20,-42,-26,-7,-3
1693678369240637700,-1,-1,2,10,-9,14,1,-1
1693678369257629400,3,2,4,-4,0,-3,0,-1
1693678369260626100,0,0,-3,5,-3,-3,-3,-2
1693678369262624400,1,1,6,11,22,18,4,2
1693678369264625500,2,2,3,0,-31,8,2,3
1693678369277616700,-2,-4,-9,-10,-17,-6,0,-1
1693678369279615400,-1,-1,-3,3,29,0,-1,-2
1693678369281614100,-1,-3,0,2,-3,8,-1,-2
1693678369286611900,-1,-1,-1,-3,-24,2,-2,0
1693678369290608200,-1,-3,-4,2,-2,-57,-7,-3
1693678369292607200,1,1,8,-8,12,36,1,-2
1693678369312598400,0,-2,-2,6,48,-21,0,2
1693678369314595400,-2,-2,-4,-17,-68,0,-1,0
1693678369321591100,1,3,1,-2,55,12,-1,0
1693678369323590400,-6,-8,-15,-3,15,-40,-10,-5
1693678369325588600,-1,0,6,-1,-63,6,0,-2
1693678369327589000,2,1,-1,-2,22,5,2,0
1693678369339580500,-1,-3,-11,-7,-11,7,0,0
1693678369342581000,3,4,19,26,-1,-3,3,3
1693678369344578300,-1,-2,-5,-16,-14,1,-3,-2
1693678369346576000,-5,-6,-6,-11,-63,-13,-5,-3
1693678369352574100,-1,-1,-2,-5,0,12,2,0
1693678369355571600,-1,0,-6,-6,18,-5,2,1
1693678369358569800,1,2,4,6,11,12,-1,-1
1693678369360568900,1,1,5,-1,27,2,2,-2
1693678369372561500,0,-1,-1,2,2,-2,-2,-4
1693678369374560900,-1,-3,-7,-5,-11,3,1,1
1693678369380556800,1,1,3,4,-19,-1,1,0
1693678369382557500,-1,1,-3,-4,41,-5,-2,0
1693678369396550700,-2,1,5,10,-5,13,2,1
1693678369398546500,-2,-3,-5,-6,-50,-6,-5,-2
1693678369409540800,-1,-2,-6,-13,-6,-30,-3,-4
1693678369411539500,-1,1,3,7,35,7,1,-1
1693678369418640500,3,2,6,3,-39,0,3,-1
1693678369420635500,-3,-3,-6,-3,66,9,0,0
1693678369426632000,0,2,2,0,-68,17,-1,-2
1693678369427632000,1,2,5,7,61,-4,8,4
1693678369456614500,-11,-24,-4,-1,-41,21,-10,-2
1693678369458614800,-15,5,-11,-22,-61,-63,-22,-53
1693678369460613600,2,5,3,5,-42,28,1,26
1693678369461612400,3,-18,-6,-10,22,0,18,42
1693678369462611500,12,31,11,18,7,-15,-7,-12
1693678369463611100,-4,-1,3,7,23,19,-12,-7
1693678369465611600,-7,-12,-5,1,44,6,-4,-12
1693678369468611000,4,35,10,3,-15,-3,-10,-30
1693678369478603200,-10,-33,-11,-9,28,-2,15,44
1693678369480601400,5,4,0,-1,-15,1,7,-4
1693678369481600900,5,12,4,6,27,-8,-2,-14
1693678369486598200,-7,-8,-5,-1,6,9,-4,24
1693678369502590000,0,1,0,-5,-10,-5,-2,-21
1693678369504590500,2,-7,-1,3,25,9,-7,18
1693678369505586400,-9,-22,-7,-8,2,12,19,-11
1693678369507585600,-8,-2,-1,1,-17,-11,-20,-31
1693678369528576500,-2,10,4,2,-1,-2,3,-12
1693678369530575100,7,6,-1,1,17,-1,1,20
1693678369532575000,5,3,-1,3,37,25,3,20
1693678369536571700,2,-5,-1,-6,-29,-21,-9,-5
1693678369539567900,-2,2,3,4,1,3,6,-1
1693678369542567800,-1,-4,-1,2,0,13,12,-3
1693678369543565000,2,0,-4,-2,43,57,2,8
1693678369544565700,-5,0,3,7,-16,-73,-2,-1
1693678369561554600,2,2,-1,-10,7,14,-5,-3
1693678369562554800,-1,-4,-1,5,49,2,2,10
1693678369564556900,-1,-3,-3,-8,-79,-18,-8,-9
1693678369566553000,1,-1,-2,1,5,43,6,-6
1693678369575545900,0,1,-2,5,16,-33,-4,2
1693678369577549700,2,-1,1,6,-5,4,6,4
1693678369583543000,-3,2,1,-6,-54,-16,-3,-4
1693678369586542000,2,-1,1,10,102,24,3,-3
1693678369608527600,0,-2,-7,-16,-100,-11,-3,1
1693678369609529000,-3,-3,-5,-14,14,-17,-5,0
1693678369611527800,0,0,-2,-2,48,-13,-1,-4
1693678369612525500,2,-2,2,21,-16,14,4,2
1693678369620523200,3,5,7,-4,48,13,4,-1
1693678369622521400,-5,-3,1,13,-18,-5,-5,-2
1693678369628516400,2,4,4,-5,1,12,3,3
1693678369630514900,-2,-3,-5,-10,-18,-44,-8,-6
1693678369635518700,-2,1,-3,3,61,30,-2,0
1693678369637510700,2,2,2,-3,-41,4,2,-1
1693678369653502600,0,3,2,11,36,9,0,1
1693678369654501800,-1,-4,-4,-6,33,42,4,1
1693678369658499100,-2,2,2,1,-67,-29,-5,-1
1693678369660497700,1,-4,-4,-9,11,22,1,1
1693678369661499400,-3,-1,-1,2,75,-51,-7,-2
1693678369663496100,-1,-2,-4,-11,12,14,-4,-3
1693678369688482000,-2,0,0,-6,-21,5,-1,1
1693678369690481600,-2,1,6,17,-16,13,6,2
1693678369692480300,-2,-8,-11,-15,116,-8,-5,-4
1693678369693479800,1,4,2,0,-17,-5,1,0
1693678369695479500,-6,-6,-9,-14,13,-15,-11,-3
1693678369697491200,-3,-10,-4,3,28,5,2,1
1693678369704472900,-1,9,7,12,-50,-3,-9,-1
1693678369705472700,-3,4,-1,1,13,-2,2,-23
1693678369734525000,6,3,0,0,31,4,-2,10
1693678369738522700,-5,0,-1,-6,-15,-6,-5,-23
1693678369739520900,-41,-37,-1,7,-36,-8,15,-48
1693678369740520200,-12,11,-7,-9,-19,8,-1,69
1693678369742520100,-88,4,4,6,-3,14,9,-68
1693678369744519000,64,29,-3,-13,-26,-14,-5,44
1693678369746518100,-12,2,-5,-10,-35,-1,7,-1
1693678369750515000,-16,-5,1,6,13,3,10,-7
1693678369756512300,2,-17,-4,3,18,-5,-8,0
1693678369759508600,-51,-15,-2,-7,-9,-6,-3,-8
1693678369763507000,5,4,1,5,6,7,-15,15
1693678369768504500,25,-6,0,-7,-23,-3,-1,-9
1693678369778499100,-19,-4,-4,2,1,12,-4,6
1693678369780499900,-5,-1,5,9,4,21,9,-15
1693678369784494700,18,5,-4,-9,-30,-27,-17,13
1693678369787493500,-9,-4,-6,-18,-32,-23,-8,-13
1693678369808480100,29,5,0,8,9,-17,4,16
1693678369810480700,3,-2,-11,3,42,23,2,3
1693678369811479800,1,18,46,14,18,18,9,-2
1693678369813478200,-10,-9,-24,-1,-25,-22,-9,-5
1693678369814479000,15,3,22,1,-2,7,-1,-2
1693678369819478500,5,-3,1,3,-20,-37,4,6
1693678369831468900,0,0,-10,8,1,-7,2,5
1693678369835469000,0,-1,-1,-2,12,11,8,-9
1693678369839465300,12,-1,-17,-5,39,21,-2,10
1693678369841464300,-11,-3,-5,2,28,28,-3,-4
1693678369842462600,0,2,-4,-16,-103,-74,-3,3
1693678369843461200,3,4,17,-12,68,21,0,2
1693678369861451600,-1,-11,-11,-16,-49,-1,-17,-4
1693678369863449300,-6,0,2,4,0,13,3,-15
1693678369867447300,-4,-3,-28,-1,-46,-12,-2,-1
1693678369871444800,5,3,26,-1,-33,25,4,2
1693678369875443500,5,2,3,12,4,-23,5,6
1693678369876442000,-3,0,-2,0,14,-15,-9,-45
1693678369886437000,4,-5,-6,4,12,25,8,53
1693678369888436900,-6,-3,-3,-2,-23,-18,-3,-9
1693678369902429500,7,4,5,6,19,19,6,16
1693678369907424600,-8,-3,-4,-14,-71,-34,-6,-12
1693678369909424700,0,0,-5,-8,14,20,3,5
1693678369910424400,-1,1,2,4,19,6,-2,2
1693678369937407500,-5,-11,-13,-9,42,-15,-3,-8
1693678369939405800,-1,2,2,5,32,15,-3,13
1693678369940406300,4,6,13,10,-14,1,-3,-12
1693678369941404900,2,1,1,17,27,7,7,3
1693678369942404500,2,-2,-2,-12,-76,6,-3,-4
1693678369943403500,-6,-6,-8,-13,-19,-39,1,8
1693678369952407900,1,3,1,1,40,43,2,-3
1693678369954399900,0,-1,3,14,57,-9,-4,-5
1693678369958396900,2,0,-2,3,-44,3,7,5
1693678369960393600,-2,-2,3,-10,10,1,-14,-27
1693678369978383700,-2,-3,-5,-16,4,-3,3,38
1693678369980383000,-3,-12,-14,-10,-29,25,-4,-2
1693678369982381000,8,11,4,4,27,-52,-6,4
1693678369987379600,-1,1,6,2,-72,12,12,-7
1693678369989378800,5,2,6,26,97,52,-9,4
1693678369991376500,-4,-7,-14,-18,-28,-68,-12,-10
1693678369995374800,-4,0,1,8,64,52,10,22
1693678369997373400,1,-4,-3,-15,-103,-37,1,1
1693678370004368300,0,5,4,5,40,1,0,-20
1693678370005367800,-2,-2,-1,-1,48,-19,17,15
1693678370019362600,-3,5,6,2,35,83,-25,-29
1693678370021360200,1,1,-4,-12,-9,-63,-13,1
1693678370022359400,-3,-1,-2,8,54,25,-4,-25
1693678370024359800,-3,-4,-6,-34,-103,-55,-11,25
1693678370041348900,-2,-6,-5,-9,-12,-15,8,-6
1693678370043347800,3,3,5,17,81,53,8,15
1693678370044348000,-4,-8,-7,-17,-20,-21,-4,4
1693678370045347400,3,4,7,19,-15,24,10,-13
1693678370056340000,1,-2,-3,-2,-29,1,3,0
1693678370057339300,-1,-1,0,-5,42,-48,-6,13
1693678370064335800,1,-2,-2,0,37,-5,4,-17
1693678370065336200,-2,1,1,13,33,28,-3,-2
1693678370079326900,2,0,2,-4,-91,-5,4,6
1693678370080326300,2,1,1,4,18,66,20,-18
1693678370082327300,3,7,7,23,57,-38,-17,35
1693678370085329800,-6,-6,-12,-20,-49,-16,-9,-15
1693678370110309500,-1,-4,-4,6,16,-8,-1,8
1693678370112308100,-1,0,0,-8,-14,3,3,-6
1693678370113308900,-3,-4,0,-1,8,80,10,-13
1693678370115307100,2,3,6,5,-28,-2,0,-1
1693678370118486500,0,-4,-3,-1,15,-19,3,-8
1693678370120480500,-3,-4,-3,6,27,19,-4,13
1693678370139467400,1,-2,-6,-16,-49,-10,-2,-14
1693678370141468400,3,1,4,14,58,19,1,1
1693678370143465900,-1,2,1,-2,-27,23,6,-5
1693678370144465000,-2,-3,1,-3,-69,-33,-4,14
1693678370145464600,0,1,-1,7,40,-59,-3,-4
1693678370146463700,-4,-3,-8,-17,-79,4,-5,-14
1693678370162453700,1,2,5,4,59,4,4,4
1693678370163454100,5,3,1,2,11,4,-2,12
1693678370165452400,-7,-6,-7,-5,-32,-5,0,-14
1693678370169453800,2,6,6,17,47,13,3,3
1693678370186446400,0,-2,-4,-13,-61,-28,-5,-2
1693678370188441000,-2,-2,-4,1,31,13,-5,4
1693678370190440000,-5,-6,-5,-14,-49,-8,1,-9
1693678370191439800,3,3,2,9,43,28,4,2
1693678370199433200,-3,0,0,0,20,-19,-1,3
1693678370202435600,-6,-10,-5,0,9,-1,-3,-1
1693678370204431000,3,3,-1,4,60,48,6,-2
1693678370205429300,0,1,4,-9,-33,-85,-2,4
1693678370221420700,-3,8,-1,0,15,-58,-8,-19
1693678370223421200,1,5,2,8,20,23,10,-1
1693678370224419200,0,-6,-3,-8,-71,5,2,-2
1693678370225418700,-2,-1,1,6,20,39,3,3
1693678370245406400,-1,-9,-7,-8,47,-28,-10,-6
1693678370246408200,-7,-3,4,2,4,2,-5,11
1693678370248406600,-4,0,-1,-4,-28,-25,-3,0
1693678370252410600,3,3,-3,-1,11,26,-6,-17
1693678370258399000,7,0,5,11,28,12,10,-10
1693678370259400400,1,3,0,-1,-4,15,8,13
1693678370265395300,9,1,1,3,-48,-1,7,-1
1693678370269394200,-13,-6,-7,-5,8,-12,14,44
1693678370281385500,-27,-29,-7,-1,37,19,-33,-1
1693678370286385100,13,42,5,4,7,-5,17,-27
1693678370287383000,-30,-44,0,2,-23,-6,-5,3
1693678370289382300,74,30,-11,-3,83,8,-4,-2
1693678370295378200,13,0,-4,-7,-36,7,5,29
1693678370296377600,30,-31,-8,-9,1,10,-3,26
1693678370303374800,15,49,2,-1,2,-40,-11,-12
1693678370305373200,46,10,11,5,-11,28,-7,-13
1693678370319366400,-81,-52,-1,1,3,13,0,3
1693678370322363200,51,32,-9,-1,4,-14,-15,43
1693678370325361400,-36,-34,-5,-17,-58,12,6,-64
1693678370326360800,-38,-17,-2,-3,-43,-23,-8,21
1693678370341351500,39,37,-3,4,53,15,11,-58
1693678370343352300,-44,-28,5,8,21,7,4,19
1693678370344351700,5,8,1,-3,-12,-12,0,8
1693678370346349800,-11,-1,2,1,-8,15,2,-20
1693678370355346000,0,1,2,-3,-20,-2,0,11
1693678370356345200,-18,-4,-4,-2,0,-9,-5,-18
1693678370364339200,20,11,1,0,26,-4,-13,17
1693678370365338600,-18,-7,-1,2,9,-1,6,-13
1693678370379330100,15,6,2,2,10,-4,-14,7
1693678370380329800,-4,-4,-5,-6,-10,-7,-10,-12
1693678370390325500,10,12,-2,-4,-3,5,5,-6
1693678370391324600,-49,-43,-2,1,-6,-3,2,10
1693678370404317700,-20,5,1,2,-29,-7,9,11
1693678370405315900,79,62,9,4,-3,5,-5,-2
1693678370406315000,-4,-3,3,5,11,2,8,-10
1693678370407314500,-4,-1,-4,1,-3,-3,-5,-3
1693678370423304400,6,-5,2,2,6,-2,-3,7
1693678370425303200,-40,-20,-2,1,12,1,3,-22
1693678370426302900,2,2,-1,0,9,1,4,23
1693678370428304300,-7,1,-1,-3,17,-3,-6,-5
1693678370438295900,13,10,1,-3,-16,-3,7,-5
1693678370439296300,-11,-11,1,5,67,13,2,4
1693678370454290500,7,2,2,7,25,-5,0,6
1693678370456285600,-12,-7,-10,-27,-32,-20,-5,-31
1693678370461283000,11,7,1,-2,-85,-5,-4,21
1693678370463281900,-10,-8,-1,1,40,9,6,18
1693678370464282900,-5,-5,0,11,33,7,-1,-5
1693678370466281100,6,8,4,9,18,5,-2,-7
1693678370485271500,10,1,-3,0,13,5,5,4
1693678370487269100,-15,-11,1,-2,-21,-10,-5,-7
1693678370489273200,10,2,-3,-7,-22,0,-3,4
1693678370490267400,-10,3,1,5,14,17,-1,6
1693678370498262800,15,4,-1,-11,-33,-18,-1,-3
1693678370502262700,-25,-13,-2,4,-8,14,-4,-12
1693678370505258500,-2,-5,-4,-1,16,-21,1,7
1693678370506259300,9,6,0,3,-4,29,4,-8
1693678370524234800,-1,1,2,2,-16,61,0,2
1693678370525233900,-2,-4,-8,-17,-59,-103,-2,-15
1693678370526233100,2,-3,-13,-7,-26,38,-5,5
1693678370528232100,1,2,13,13,37,-3,6,9
1693678370544223700,0,-1,1,-16,-58,-6,-6,-10
1693678370545223300,-7,-12,-5,21,108,0,-8,-9
1693678370547223500,-1,0,-7,4,-80,3,7,3
1693678370548222600,-2,-2,1,-19,-5,-45,-9,-2
1693678370557215000,1,0,-1,-7,39,14,9,1
1693678370559214400,2,3,7,-1,18,12,-2,-9
1693678370569210300,-21,-5,0,10,76,-10,-3,-6
1693678370570208900,-73,-7,-6,8,46,41,3,-14
1693678370582200700,43,11,-4,-13,-34,-30,8,-9
1693678370587199200,-34,-4,1,0,24,16,-11,46
1693678370589197400,-53,-10,-3,-5,-40,2,-4,-13
1693678370590197000,82,8,-4,-12,-61,-3,-1,26
1693678370604188500,-24,-2,0,1,69,4,0,-19
1693678370606188700,5,-2,-4,1,0,32,-2,-17
1693678370610185100,19,-2,-2,-15,63,40,1,4
1693678370611183600,-28,-1,3,6,30,-90,-17,-15
1693678370618181200,-3,-3,-2,12,12,14,-3,19
1693678370621179500,7,0,-4,-6,-49,-15,-8,-18
1693678370626176900,-11,-2,1,-13,-46,9,-5,-18
1693678370628177600,4,0,-2,-3,3,23,18,26
1693678370646221900,-5,-1,0,12,73,-9,-2,1
1693678370648163500,0,2,9,5,-25,-13,5,5
1693678370653160800,10,3,4,1,14,-17,-5,-4
1693678370654161200,8,0,-2,2,-18,-2,3,-11
1693678370668154500,1,0,1,2,-19,-17,7,13
1693678370671152400,-13,-7,-8,-13,-20,43,0,-11
1693678370673151800,12,2,-1,4,-50,-103,-2,7
1693678370674149700,2,-2,-1,8,-1,69,-1,-11
1693678370677146200,-10,-1,3,2,4,-40,-2,19
1693678370679144900,7,3,2,1,-4,22,5,-10
1693678370686142200,5,2,2,-1,30,1,-4,9
1693678370688140900,-4,-1,-2,5,-10,-14,-7,-9
1693678370708128600,-6,0,-3,2,19,-5,-6,-14
1693678370710127200,6,0,-1,-8,-18,26,5,4
1693678370721122100,3,1,2,0,-6,-59,6,-8
1693678370732114800,-1,0,-1,-5,-9,13,-2,3
1693678370738114100,-3,-5,-2,0,3,17,0,-3
1693678370740112500,-2,-1,-3,-2,1,7,2,-2
1693678370741110300,-1,-5,1,3,39,-9,-2,4
1693678370743110200,3,-3,-4,1,82,3,-4,-1
1693678370744109700,-1,-1,-9,-28,-66,-46,-10,-4
1693678370745108900,-2,-1,1,2,29,3,0,-1
1693678370746106700,4,4,3,-2,10,33,26,-10
1693678370748107200,4,1,4,5,-8,-13,-3,18
1693678370761098600,3,-3,2,11,30,26,2,-19
1693678370763097100,-11,-6,-8,-11,11,-21,-11,4
1693678370764096600,-11,-17,-15,-4,9,33,-1,0
1693678370767095900,26,19,14,7,-24,-17,2,-19
1693678370784088000,-28,-34,-1,7,8,19,18,-68
1693678370786086900,-10,41,8,-1,-53,-22,-55,63
1693678370788085500,-85,-14,9,6,1,15,2,12
1693678370789084200,32,-30,-28,-12,-11,1,-2,-13
1693678370809071000,-23,21,-16,1,10,-13,-16,-13
1693678370810071000,-5,-56,-27,-22,25,-10,-1,-36
1693678370812069000,-8,48,62,40,-22,16,-6,3
1693678370814068800,39,2,-2,-4,35,-3,-11,-23
1693678370822064400,-27,8,-18,-11,-2,26,19,71
1693678370824062200,30,24,48,39,6,-44,-10,-26
1693678370826061900,87,58,-27,-29,-1,-11,-14,-7
1693678370828060000,29,-14,6,4,-88,-6,7,14
1693678370844051800,-10,8,13,-18,-9,-1,-17,-16
1693678370846049700,-52,-19,-23,-11,7,-22,16,-1
1693678370847049200,15,-24,-2,4,18,19,-2,23
1693678370848049400,-62,0,-6,-1,14,-28,-18,-22
1693678370857043500,-12,-18,-13,-4,18,98,-3,-1
1693678370859042300,10,-5,-1,-8,-72,-39,20,31
1693678370870037400,-19,-12,-2,7,-25,21,-1,-13
1693678370871035500,-9,5,-10,-10,-1,-5,2,12
1693678370881030200,26,-5,8,18,93,22,8,19
1693678370886030500,-33,-31,10,1,-5,19,43,-50
1693678370888027300,87,43,-20,-13,7,8,-9,46
1693678370889026900,-2,3,7,5,-18,23,4,34
1693678370904017900,19,2,10,13,-21,-40,17,3
1693678370906016700,-12,-1,-2,9,38,28,-41,-39
1693678370908013700,-6,-3,-2,-8,-14,-21,3,-27
1693678370909014000,-7,8,8,12,29,14,11,10
1693678370918524600,6,6,0,-10,-4,-27,-3,2
1693678370920518600,5,-6,-17,-13,-20,-10,8,18
1693678370926512500,-24,-31,-6,-10,21,12,2,-4
1693678370927514000,-24,5,-1,-2,-37,-13,-9,-13
1693678370947501700,12,8,4,5,9,-16,-3,4
1693678370949501100,15,22,5,4,-3,13,3,0
1693678370953497600,-12,-4,-3,-9,4,-7,-10,-10
1693678370955497600,1,-12,3,9,28,17,11,11
1693678370963491500,-7,-6,-5,1,-22,-18,-13,-5
1693678370965491800,13,10,2,-4,-10,9,15,7
1693678370969489700,8,-9,-5,-3,23,0,-18,6
1693678370971488900,-24,-6,-4,-6,-21,-2,7,-3
1693678370977484300,-10,-24,5,4,-15,-8,1,9
1693678370978483300,67,43,-1,1,7,2,10,3
1693678370986479000,-28,-23,-8,-4,6,-2,-3,-4
1693678370987478400,-32,-5,5,9,67,8,6,-7
1693678371010465200,25,15,0,-7,-65,-18,-13,-11
1693678371011464600,-23,-22,-9,-13,-26,5,11,22
1693678371012464500,-11,-13,-12,-7,-18,-4,6,-52
1693678371014462300,0,5,7,2,9,5,-10,66
1693678371023457200,7,23,22,19,17,1,24,-14
1693678371026456100,5,-4,4,6,11,-3,-21,8
1693678371027455200,-13,-13,-2,-2,-11,-6,13,7
1693678371028454800,-36,-6,-8,-11,-16,-5,-10,-38
1693678371038449600,11,-13,-16,-7,15,8,12,5
1693678371039449000,3,2,-6,-8,-12,-5,-16,-2
1693678371053441400,21,8,2,2,-2,-6,-5,7
1693678371054440100,-12,-12,-4,-8,2,3,-1,-9
1693678371075427300,14,26,7,16,14,-1,-8,7
1693678371077426600,4,-7,-3,-2,-20,-5,-4,9
1693678371078428200,-45,-12,-5,-10,2,2,-8,-28
1693678371079427200,-38,-5,2,1,-8,-9,-20,-7
1693678371091417800,12,13,-8,-9,-4,-2,1,11
1693678371092419000,8,-7,11,13,20,9,15,8
1693678371094416900,9,8,0,4,7,17,8,18
1693678371095416200,-81,-32,-10,-13,-21,-18,-12,-38
1693678371098415600,62,21,-8,-2,11,23,-19,-9
1693678371102417900,-4,-5,2,1,13,-17,2,-11
1693678371112406000,29,-9,0,1,-5,13,26,40
1693678371113405900,30,11,-5,-4,11,-7,0,-4
1693678371121401200,-43,-22,1,1,-9,-7,-4,-10
1693678371123401500,18,13,-4,-3,2,5,-8,17
1693678371124399700,-4,8,11,9,1,3,15,-12
1693678371125398300,36,10,0,0,1,11,-10,1
1693678371144388400,-22,-12,-2,-2,1,-6,-3,2
1693678371148389000,-1,-6,-2,-2,2,2,-8,-4
1693678371153383700,-19,-4,5,6,6,-13,14,3
1693678371155384100,15,12,-1,-4,-4,5,-18,-6
1693678371157381500,0,2,3,0,3,-7,-2,0
1693678371158379400,-24,-14,-3,0,5,4,5,-15
1693678371172371200,28,11,-2,-1,-1,-2,-14,8
1693678371174373800,4,-15,1,1,6,3,27,8
1693678371181366500,1,-3,-1,-7,-31,-10,-10,3
1693678371185370000,-8,6,-3,-1,6,4,6,-19
1693678371188363200,-17,-4,0,1,0,-2,-15,-3
1693678371189362400,24,3,2,0,-10,-4,1,-3
1693678371203355000,-53,-35,-5,0,18,-3,2,13
1693678371205353500,37,29,1,-1,16,11,-15,-16
1693678371206352900,5,0,2,-1,-6,-13,-3,-2
1693678371208353300,25,8,-2,-1,-1,4,7,1
1693678371218352300,-34,-10,2,5,22,3,9,22
1693678371221344800,-7,0,1,-2,-23,-2,-11,-32
1693678371226343300,-3,-6,-4,-6,-12,6,-16,-1
1693678371228341100,10,5,1,0,-9,-11,4,15
1693678371240332700,39,6,-2,-8,-7,-3,0,-2
1693678371242333600,-29,-10,0,10,29,14,12,7
1693678371247329700,-14,-3,-3,-2,3,-2,-6,-24
1693678371251329900,-14,4,-1,-5,-6,19,-7,-68
1693678371270317700,-12,-5,-6,-5,-6,8,6,69
1693678371273315500,16,0,-3,-8,-10,-59,9,11
1693678371274315000,13,2,3,14,70,11,-2,2
1693678371276313200,-6,11,10,4,-17,37,9,8
1693678371279314400,3,-3,-5,-7,82,-80,3,-20
1693678371280310200,-13,-16,-22,-2,-11,30,-33,-7
1693678371286308400,0,-2,-17,-20,-24,-20,-3,4
1693678371288306800,13,11,34,4,73,-2,6,5
1693678371301297600,12,9,52,47,-127,17,1,-4
1693678371303299000,-9,-1,1,4,61,14,10,8
1693678371307294200,-4,-2,-1,3,-29,-61,-7,-6
1693678371308294100,13,2,-13,13,24,-16,0,15
1693678371324154400,-11,-8,-19,-40,-40,11,-5,-18
1693678371326153100,-5,-1,2,13,3,12,7,-13
1693678371328151000,0,-1,3,-7,-3,9,-3,7
1693678371330151700,5,-3,-3,3,-13,0,2,15
1693678371354135800,0,3,-4,0,30,1,0,-8
1693678371356136700,-5,-3,2,8,0,12,5,-14
1693678371357135200,4,-1,-4,-14,8,10,1,7
1693678371358133100,1,-3,-7,-18,-93,-30,-1,8
1693678371361133700,-2,-1,-12,9,30,13,-6,-16
1693678371363132700,-2,-2,-4,-3,2,28,2,9
1693678371368128500,-1,-1,9,-9,-10,-19,-3,5
1693678371370126900,5,0,1,6,8,-3,1,4
1693678371403111000,-2,0,2,-7,4,9,-7,-16
1693678371404108700,-2,0,2,-8,-11,-15,2,9
1693678371405129100,2,-1,-1,7,12,14,2,0
1693678371406129000,-1,0,-9,4,16,5,-1,-4
1693678371408106800,1,-2,-5,-7,5,27,0,-6
1693678371409105900,-1,1,4,-2,16,-22,1,7
1693678371414101700,-4,-2,1,9,-27,16,-2,-4
1693678371415122700,3,-3,-5,-10,10,-8,0,4
1693678371421098000,-2,-4,-4,-4,-11,11,-2,-6
1693678371422097400,0,1,2,-4,-16,-6,1,4
1693678371428093800,-1,1,3,4,0,1,-3,-1
1693678371429115900,0,-3,-4,-4,22,20,4,3
1693678371444084300,0,2,0,6,63,-9,-6,-7
1693678371446085100,-4,-1,-3,-16,-88,-31,-2,-3
1693678371453079400,0,-3,-5,-3,4,-5,3,7
1693678371454078800,0,-3,-6,-5,9,0,-3,0
1693678371470074700,1,2,2,6,20,1,-2,-2
1693678371476088700,0,-1,5,2,4,-14,2,5
1693678371478093900,1,2,1,3,12,23,-3,-9
1693678371480064200,-3,-5,-7,-9,-23,-11,0,-7
1693678371484063000,-2,-1,-4,-1,-23,-44,-5,-3
1693678371486063800,-2,-3,2,0,25,17,-2,0
1693678371495055100,-2,-1,-1,3,2,5,1,3
1693678371496055800,2,-3,1,1,2,-7,1,4
1693678371504050200,2,3,-1,-5,-10,-11,-6,-4
1693678371506052000,-6,-3,-3,-4,0,29,3,2
1693678371507050100,-1,-1,-5,0,14,-11,-5,-2
1693678371509049700,1,6,6,7,24,25,7,1
1693678371526038100,-2,-4,-1,-8,-68,-12,-2,-1
1693678371529037700,2,-4,-4,3,10,11,-3,-8
1693678371531036600,-7,-6,-10,-6,-10,9,-1,5
1693678371534033600,1,0,10,3,-66,-47,-6,-1
1693678371545028700,-8,14,-4,-2,35,8,6,-6
1693678371547026600,-1,-10,-13,-19,-67,-25,0,2
1693678371552029700,2,-8,1,5,39,9,-4,-6
1693678371554025200,15,19,17,19,56,29,14,8
1693678371564015200,-4,-10,-8,4,39,-24,-12,-4
1693678371566016000,-14,-18,-34,-36,-42,-15,-12,-25
1693678371570013800,25,19,-2,13,25,6,-12,-24
1693678371571013000,-5,2,57,45,25,-2,7,37
1693678371586006500,14,16,-6,-11,14,10,2,24
1693678371588005200,13,2,39,40,97,20,42,43
1693678371594997400,-6,-20,-27,-20,51,-13,-8,-8
1693678371596000300,-87,-22,-18,-23,-60,-10,6,-31
1693678371600995200,63,62,1,-7,14,23,-32,10
1693678371603994400,-59,-55,-2,4,37,3,55,69
1693678371612990300,64,65,10,11,3,23,12,-26
1693678371614988800,98,10,-7,-6,-12,-7,-14,19
1693678371622984400,-66,-69,-26,-20,58,-13,-1,-14
1693678371623981300,16,29,6,2,-48,-21,-12,14
1693678371669955900,-14,-11,13,-8,-46,-10,1,-5
1693678371672954100,-32,-9,-14,-4,41,34,-3,-7
1693678371674952400,-19,3,2,8,-18,-16,8,-24
1693678371676950600,-30,-14,-57,15,53,-60,-37,-63
1693678371678950000,11,14,96,-3,-47,-16,22,35
1693678371680948300,-24,10,-5,-30,-50,8,-25,-37
1693678371684951400,-11,-20,-29,-24,-37,32,15,29
1693678371686946000,24,32,57,58,27,36,-4,-24
1693678371688944400,-17,-15,-38,14,87,2,-4,12
1693678371690943300,17,-7,-42,-34,-63,-53,-5,20
1693678371710931800,20,13,50,-51,44,-55,2,-8
1693678371713929900,16,9,10,2,-12,-52,-17,-10
1693678371716930400,-36,-14,-16,29,-43,-16,-9,-3
1693678371720927000,0,-8,3,-40,27,27,9,0
1693678371731919900,-22,-13,-37,33,46,68,15,-9
1693678371734919600,18,25,15,60,-88,15,-17,1
1693678371738915200,-8,-8,-2,-7,0,-6,-14,6
1693678371740914500,-7,-1,-9,37,56,31,2,-17
1693678371742914200,-2,-5,-10,-49,-31,17,-5,-6
1693678371745912100,1,-1,10,-31,70,-21,1,8
1693678371747910400,-2,-7,-13,-6,-38,-10,5,-1
1693678371751916200,-9,-13,-23,-6,74,-11,-13,-5
1693678371754910700,5,2,11,8,-19,19,2,1
1693678371756905600,8,2,8,-8,19,-4,2,1
1693678371759903800,-31,-19,-20,-14,-48,-9,-4,-13
1693678371760904100,4,15,-18,-24,-74,-45,-13,-59
1693678371786889800,14,11,26,44,68,9,8,84
1693678371789889200,3,-19,-38,-13,7,55,-11,-43
1693678371792884400,10,10,14,3,-65,-36,-22,52
1693678371794884100,-89,-42,80,36,77,39,34,-79
1693678371797883100,16,-63,-25,-7,-79,-29,8,69
1693678371802882400,92,46,-94,-128,9,8,46,39
1693678371805877100,-33,93,79,80,28,18,-50,6
1693678371807875600,-53,68,61,54,8,-10,-27,-70
1693678371808875500,1,36,9,32,18,-5,21,-2
1693678371809875000,50,-74,-108,-67,-25,8,58,9
1693678371810875800,18,-89,-128,-81,21,28,-61,-37
1693678371811875300,-35,-28,-50,-33,-42,-6,15,44
1693678371824979700,-88,-28,-17,-9,-31,-64,-1,-34
1693678371826980600,-96,-12,6,-31,-18,-51,-52,-27
1693678371834985100,-45,-20,-37,-54,10,-16,-3,-32
1693678371836976400,19,4,-11,100,84,-35,-53,36
1693678371839971800,36,31,74,29,-99,72,35,-7
1693678371840971700,34,35,36,6,-82,-63,-36,-2
1693678371855963500,1,-3,12,51,84,89,27,-8
1693678371857962200,46,11,8,-49,-10,61,23,53
1693678371866957300,27,3,-27,45,-64,-51,-13,-27
1693678371869957000,-33,16,72,108,-25,-3,-33,-11
1693678371872953700,-3,-6,-4,-38,-37,44,26,8
1693678371874952900,27,-16,-56,-59,-16,49,17,21
1693678371893943800,7,5,-16,-22,127,14,3,-21
1693678371894940700,-30,-3,9,-44,-55,8,-3,-4
1693678371896941600,5,-2,-7,-17,-7,-45,26,4
1693678371897940200,37,6,11,18,-86,-20,13,20
1693678371908932600,-16,1,16,10,48,1,-25,-24
1693678371909932300,-21,-11,-14,-2,50,12,1,7
1693678371911930400,15,-2,6,2,79,-10,13,6
1693678371912930200,2,-2,-4,1,-10,-18,-4,4
1693678371927046900,-9,-14,-14,-12,12,-6,-14,-9
1693678371929046500,4,30,22,38,-3,35,9,9
1693678371931043600,15,-8,2,-7,0,-12,21,5
1693678371935045100,-4,14,9,-1,36,-14,10,-16
1693678371946033700,-18,-43,-58,-22,-49,1,-40,7
1693678371949033200,-2,-32,-26,-27,57,37,23,78
1693678371953031500,20,26,77,65,-31,-7,-17,-58
1693678371954029900,98,38,-16,-53,19,-21,31,50
1693678371960026200,-101,15,101,99,-30,3,6,-56
1693678371961025500,120,-1,34,28,20,8,-3,47
1693678371977016900,66,91,-34,-43,-25,-25,3,89
1693678371978015800,64,28,-44,-40,-30,4,5,-77
1693678371984013800,-57,-54,-55,-57,-15,-16,-34,52
1693678371987012900,6,23,-18,-18,29,0,24,-82
1693678371988012100,-13,-83,-20,-8,-22,-3,27,9
1693678371989011800,-43,-35,-3,4,10,-4,-32,20
1693678372007003400,41,27,2,-8,4,10,3,7
1693678372008998600,-128,-41,17,23,30,19,-42,-76
1693678372009999400,-22,-1,-4,-39,-24,-4,8,9
1693678372011998000,-30,-15,-21,25,-17,-15,19,19
1693678372020038700,26,-16,-21,22,81,81,-7,-10
1693678372022038800,41,40,87,43,-98,32,-4,44
1693678372029032500,24,23,68,75,120,27,28,-21
1693678372030032200,-33,-26,-32,-61,-48,12,-20,21
1693678372044023900,25,18,44,42,6,-58,-2,-14
1693678372047023300,26,13,-6,13,77,45,18,-8
1693678372048022700,-38,-12,-17,-22,-99,78,-14,0
1693678372053021800,-19,-22,-5,-43,40,-20,-7,-4
1693678372085007200,32,14,-19,4,-21,28,11,-2
1693678372088000900,-14,-1,-20,-16,22,-53,4,-1
1693678372089998800,-16,-19,10,-4,-25,-21,-3,-4
1693678372090996800,-3,-4,-10,0,81,19,-6,14
1693678372091998600,19,15,-2,-28,-23,-12,13,-16
1693678372093997600,-17,-10,8,15,47,-32,-12,7
1693678372094996800,-12,-12,-26,-24,-33,-10,-7,-6
1693678372095995900,11,5,9,-14,-97,-27,-3,-3
1693678372102991600,3,18,26,48,20,-9,-2,3
1693678372104991000,-8,-7,-19,-30,48,6,0,-4
1693678372109987600,3,7,7,34,17,-22,-2,-1
1693678372111988200,-6,-8,8,23,-11,7,2,1
1693678372126997200,3,-6,-9,-37,-30,-10,-1,-2
1693678372127997000,-2,-4,-14,-11,-5,14,-2,5
1693678372130007800,-1,-11,-24,-9,16,-13,3,-6
1693678372135993700,-14,-8,19,22,18,-4,-8,4
1693678372151985600,20,2,-13,-32,-27,-1,8,3
1693678372152982500,9,5,-2,11,-5,0,0,-2
1693678372154982600,-4,8,14,10,38,-9,-5,0
1693678372155980500,-6,-6,4,23,-40,3,-1,-3
1693678372162975900,-6,-13,-23,-31,-61,-10,0,-1
1693678372164977900,2,-9,-22,-25,-18,-2,-11,-16
1693678372169973300,-7,-11,12,10,9,-11,-3,-2
1693678372170973400,-14,-2,4,14,44,10,7,21
1693678372186963900,13,33,27,17,17,10,10,-30
1693678372191960800,-15,-33,-10,-7,-32,-4,-5,-31
1693678372193960200,0,7,-23,-16,5,-9,-8,67
1693678372194960000,38,18,13,21,13,-3,1,5
1693678372201957300,-32,-5,-11,-24,-16,-4,10,-43
1693678372203954000,-17,-16,-10,-17,-11,-1,5,90
1693678372208950200,-5,-1,25,20,18,-6,-54,-56
1693678372209950200,-53,-8,5,14,21,12,2,94
1693678372222977400,101,35,-20,-13,15,7,-11,-82
1693678372224976800,-84,-87,15,31,47,24,-2,92
1693678372229972300,13,24,-14,-37,-80,-23,11,27
1693678372230983600,31,61,-5,-13,-24,-8,26,-44
1693678372254958600,-98,-52,14,4,15,7,-55,-42
1693678372256957800,56,115,-7,3,-10,-15,54,-48
1693678372258956400,73,3,-4,1,25,7,-57,-36
1693678372259956900,-85,-102,6,9,18,2,-3,-10
1693678372275946500,23,-12,-13,-8,8,-2,30,47
1693678372278944200,-50,-38,-10,-13,-21,-5,-11,-37
1693678372279943300,-54,-21,4,5,12,7,24,38
1693678372280944800,44,32,-6,-2,-7,-6,-18,-20
1693678372284947700,-29,-22,-9,-6,4,4,8,20
1693678372286940100,29,16,8,2,-7,4,-7,7
1693678372296934000,11,10,-5,6,40,10,16,-25
1693678372299933500,2,-7,-2,-8,-83,-17,-2,-21
1693678372305928700,3,4,-8,-12,20,-12,1,23
1693678372307929600,10,3,5,-11,-19,-10,-16,-19
1693678372308929200,0,2,-4,19,72,28,29,-3
1693678372309928100,-14,-27,-75,-66,121,24,0,-21
1693678372328955400,11,37,97,94,-74,17,13,46
1693678372329956000,25,9,-46,-31,-111,-39,-20,-21
1693678372331954200,-12,3,45,7,62,42,15,-11
1693678372334955700,7,-4,11,-31,57,-19,-4,6
1693678372358938900,9,6,4,12,33,58,10,9
1693678372360939200,-3,-7,3,39,-75,10,-4,-12
1693678372361938200,-9,-8,-9,-14,32,-28,5,-2
1693678372362938100,2,-7,-8,14,24,-10,-11,-6
1693678372380927400,2,-4,-36,-51,2,0,4,11
1693678372385923900,3,3,18,3,46,14,3,-8
1693678372386924900,-14,-10,-22,-10,-66,-14,3,6
1693678372388923800,17,18,21,25,5,15,-3,-3
1693678372389922200,-4,-5,-12,-4,18,-38,-1,4
1693678372391924300,4,-1,1,-13,14,15,-4,1
1693678372392920400,-4,-11,-17,-12,12,-30,1,-4
1693678372393919900,9,13,23,25,-64,8,-8,-33
1693678372402914800,-2,-8,-13,-16,-24,-25,-8,39
1693678372405915000,2,10,8,1,27,-6,-1,8
1693678372409911300,7,-1,-5,-3,-13,8,4,-7
1693678372410909000,-7,-18,-2,16,9,7,3,3
1693678372425902500,-5,5,-7,-12,-25,-18,-12,-13
1693678372427900900,28,21,24,19,48,17,4,-6
1693678372429899600,-30,-58,-35,-15,-17,-13,3,-7
1693678372430896900,2,6,3,-14,-29,-8,-7,-22
1693678372451888000,53,64,21,26,33,3,7,22
1693678372453887500,-62,-57,-19,-9,7,-9,-4,-32
1693678372454886600,63,54,4,0,-27,9,8,45
1693678372456884300,-53,-111,-44,-52,-17,-19,5,3
1693678372462878200,10,77,4,34,11,5,-1,-1
1693678372465878200,-24,42,73,36,23,13,3,18
1693678372478869500,-6,90,-6,0,-39,-2,56,56
1693678372479871100,-93,-60,-8,9,46,5,-93,-76
1693678372486868100,82,51,-63,-39,-2,-11,38,120
1693678372488867700,8,79,3,-7,5,-2,19,-128
1693678372489863400,0,-62,88,26,5,-1,-8,43
1693678372490865200,-26,47,17,51,-13,-7,-55,-47
1693678372508852900,-39,-114,12,-4,24,13,20,6
1693678372510852400,-75,-116,-59,-34,0,-7,-1,28
1693678372512851100,-29,19,-35,-26,-9,-10,-30,-60
1693678372513850400,-50,-18,7,1,-13,9,37,22
1693678372530839400,-86,-71,-28,-25,-13,-26,-37,-50
1693678372535839000,40,17,-7,-8,-50,-21,-3,31
1693678372537837900,-26,-44,-6,4,22,8,-10,-27
1693678372538837100,79,42,8,18,4,4,24,28
1693678372545830900,8,27,-1,-9,14,0,-1,-28
1693678372547830600,22,-17,7,1,32,6,-3,21
1693678372552828500,11,11,-7,2,-11,-10,-5,-22
1693678372554826500,30,32,-18,-19,-2,8,21,33
1693678372570817800,-5,-16,9,27,-56,-1,-9,-17
1693678372575814700,1,8,15,-1,-9,-4,-6,0
1693678372577814600,-19,-20,-15,2,-14,0,-13,-17
1693678372578812600,31,26,16,1,-9,-8,20,20
1693678372583811700,-34,-36,-33,-25,29,-2,-10,-26
1693678372586809500,12,5,-6,4,-11,-3,-3,6
1693678372591805100,-1,10,-10,-22,4,3,6,-2
1693678372592804500,6,-10,-11,-13,89,4,10,15
1693678372606798000,-2,8,31,17,-81,-15,-2,-16
1693678372607796500,6,12,0,12,17,16,3,13
1693678372609795200,-6,-11,-2,18,29,-16,-12,-6
1693678372610794500,6,11,5,3,34,-3,7,3
1693678372630782700,-13,-12,-14,-23,18,-6,-9,-13
1693678372639778000,7,3,4,-7,2,2,1,6
1693678372641776800,-10,-15,-8,0,-9,1,-1,-5
1693678372642775800,17,15,15,17,-6,0,8,6
1693678372645774800,-1,8,10,4,-25,3,-11,-5
1693678372646775200,-1,-14,-21,-18,25,-6,-4,3
1693678372657769400,0,-1,-4,-5,4,2,2,-4
1693678372658767100,5,9,8,14,-40,-8,5,9
1693678372667762700,2,-1,7,-3,14,7,1,-5
1693678372670761900,-9,-10,-17,-18,-15,-5,-5,-4
1693678372672758600,1,-1,6,11,-3,3,-1,0
1693678372674758300,11,19,32,19,-9,-1,3,6
1693678372688750500,-9,-10,-6,-13,-7,0,1,-2
1693678372690748800,2,-2,-3,2,19,-7,0,-1
1693678372691748400,-4,-6,-19,-13,-11,-3,1,-2
1693678372692747700,-1,-5,-6,4,-13,2,2,2
1693678372707739400,-1,-3,-1,3,27,6,2,-5
1693678372709739200,1,2,-3,-9,10,1,-2,2
1693678372711735900,-1,3,15,25,-31,-7,-5,-4
1693678372712736100,3,0,-2,-33,-17,-4,2,3
1693678372726238800,-7,-7,-16,3,26,4,-3,-4
1693678372729238400,7,5,16,8,-25,-8,0,2
1693678372736235300,-7,-8,-36,-25,5,7,-1,-4
1693678372739232800,7,11,58,75,-24,-12,2,5
1693678372752227600,-1,-1,2,16,96,13,2,-3
1693678372753224000,-1,-3,-12,-23,-52,-11,-5,-4
1693678372755224800,-1,0,0,-15,-18,2,1,-3
1693678372756223800,-5,-6,-22,-15,17,18,0,-2
1693678372764217900,0,-5,-19,-30,-31,5,5,0
1693678372770214400,4,9,28,51,0,-21,1,2
1693678372772214200,3,5,14,10,8,1,1,2
1693678372773214400,-7,-8,-26,-9,61,3,-6,-5
1693678372794201500,-2,2,18,2,-44,-6,-1,-1
1693678372796201000,-3,-9,-17,-11,48,15,-2,-2
1693678372797199900,5,8,14,2,-22,-4,7,1
1693678372800198300,0,-2,-2,0,23,-4,-2,-1
1693678372809192900,-5,-3,-6,-16,-7,1,-2,-4
1693678372811191000,-1,-1,0,-1,-6,3,-1,3
1693678372812192300,-7,-8,0,1,11,-4,-2,-3
1693678372814189500,-5,-16,-17,-18,-30,-5,-4,-5
1693678372822818000,15,18,18,9,25,9,4,4
1693678372823817900,1,7,1,3,-19,7,1,4
1693678372831812400,-12,-38,-14,-6,2,-25,-5,-19
1693678372834815300,10,48,10,-10,-35,1,27,22
1693678372846804100,-10,-11,-6,-4,-11,0,-43,-93
1693678372847804300,1,-19,-11,1,15,-1,18,84
1693678372851805300,-38,25,16,1,8,4,-15,-50
1693678372853803100,6,-19,-12,-12,-35,-14,-21,3
1693678372868792800,8,15,8,11,28,-3,38,37
1693678372870795200,1,19,9,7,28,15,-3,-24
1693678372872789700,-9,-24,-18,-18,-37,-5,-4,10
1693678372873789300,6,-18,-10,-10,-7,-11,-3,2
1693678372883783700,0,15,10,14,24,14,-3,-7
1693678372886783300,-13,-32,-22,-16,28,-14,-17,-20
1693678372891780000,23,12,6,7,-27,12,19,29
1693678372892779900,-9,4,-2,-23,15,10,-2,-15
1693678372906769700,1,-10,-4,16,59,6,5,22
1693678372908770100,-6,-3,-25,-17,8,-20,-1,-18
1693678372909768800,3,8,8,1,18,32,-4,-4
1693678372910768300,4,16,54,62,16,-19,1,3
1693678372928757900,-16,-19,-11,-23,0,26,-1,2
1693678372930756100,5,-3,6,11,-62,-6,3,-4
1693678372933755600,7,14,-13,-31,39,0,-8,3
1693678372935754500,-7,-19,-16,14,-42,-56,-3,0
1693678372952744500,2,-1,7,-2,12,-11,-3,8
1693678372953743900,3,11,7,0,25,10,2,-10
1693678372957740500,9,-5,-6,16,-8,-20,3,12
1693678372958741900,-2,1,-1,-13,-48,14,2,-5
1693678372967738200,-6,-6,-9,-20,-32,-36,-8,-3
1693678372970735500,1,10,6,2,32,13,-1,-3
1693678372971734800,-1,-2,2,-2,16,-3,1,1
1693678372972734200,0,-4,-9,-7,-19,11,1,-1
1693678372990723800,-1,2,2,5,-16,-2,-4,2
1693678372992722500,-6,-6,-3,-16,-3,7,-2,-5
1693678372993722800,2,-5,4,5,-36,5,2,0
1693678372996719600,2,1,-1,1,24,5,-3,-17
1693678373002715900,1,2,-1,0,8,0,7,15
1693678373004714900,-1,0,-1,-10,41,0,1,-8
1693678373011709700,-2,0,2,4,-9,-21,-7,-2
1693678373013709400,0,5,2,-4,11,13,0,-2
1693678373025711800,-3,-6,-1,-2,-14,-15,-5,-2
1693678373027711700,3,1,4,10,-4,6,5,4
1693678373034716700,2,2,2,5,19,3,-1,-4
1693678373036706000,-2,-4,-8,-9,-15,9,4,15
1693678373056694300,-1,-4,-5,-6,-20,7,-4,-13
1693678373058695200,-2,-1,-2,0,1,-6,-4,3
1693678373059694100,2,-2,-1,2,19,-3,0,-6
1693678373061691600,1,2,-2,4,25,9,-2,4
1693678373080680800,0,0,1,6,-36,-9,1,6
1693678373083680400,1,4,1,0,19,4,1,-1
1693678373085677900,-1,0,-2,-5,-40,-1,-1,0
1693678373087679900,-3,-3,-3,-6,-11,0,2,-1
1693678373089675800,0,1,3,6,34,6,-1,0
1693678373090676700,-3,-2,-3,-4,-20,-6,-4,-5
1693678373092674000,0,1,4,8,-14,4,5,-39
1693678373093675200,-1,0,-2,-4,43,5,-6,69
1693678373109664800,2,0,-1,-1,-27,1,2,3
1693678373120659400,2,2,6,7,-8,10,1,6
1693678373121657100,-2,-3,-5,-4,-41,-29,-5,-4
1693678373123657300,-2,-5,-2,-4,12,4,1,-24
1693678373124657500,-1,0,0,-6,-14,-1,-1,0
1693678373126655000,3,3,2,11,23,18,4,1
1693678373131651200,0,0,4,-1,-15,-6,-2,10
1693678373135649300,-2,-5,-10,-13,-41,-12,-6,-16
1693678373145643200,-2,-3,-1,-4,-16,7,-1,8
1693678373147644000,-1,0,2,7,33,0,-1,-13
1693678373152640600,2,3,1,1,33,25,3,14
1693678373154639000,-3,-3,-2,-6,-20,-45,-2,-8
1693678373169630100,-1,0,0,-3,-10,-3,2,-7
1693678373171630100,-2,-1,0,0,-6,-3,-2,-1
1693678373173628300,0,0,2,6,-15,6,-1,10
1693678373175627100,-1,0,-3,-12,-61,20,1,-8
1693678373185620900,-3,-4,-8,0,89,-11,-7,-5
1693678373187619600,0,-1,-1,0,-38,-19,-3,-1
1693678373191617200,1,1,0,8,96,-7,-1,9
1693678373193617400,-2,-1,-3,-16,-32,-7,-1,-12
1693678373206608300,0,1,0,5,-15,-14,-1,0
1693678373211606900,-1,-1,-3,-6,-48,6,-3,1
1693678373214606700,-1,0,-4,-1,43,24,2,1
1693678373219603200,0,-1,1,2,23,26,4,-2
1693678373227596200,-2,-1,0,1,14,-17,-4,0
1693678373229596700,1,2,-3,-6,-27,-18,-4,-2
1693678373236591700,-1,-4,2,-6,-13,1,-2,0
1693678373238590900,-6,-6,-9,-1,11,4,-2,-5
1693678373251586400,-3,-14,-2,-10,-59,-2,-2,2
1693678373252582800,-3,19,1,1,25,-2,-3,-7
1693678373258578900,-4,6,-18,-23,-19,0,-2,-3
1693678373259578300,5,14,23,23,47,7,-1,0
1693678373267574400,-6,-13,-10,-8,-49,12,8,-1
1693678373269572600,-14,-8,5,8,-1,-19,-15,-9
1693678373272571000,-2,-18,20,17,15,1,5,17
1693678373273571800,3,29,-82,-26,17,-6,-8,-5
1693678373287563600,-18,9,109,59,4,10,5,-8
1693678373289560500,-32,-36,-82,-65,13,12,19,-9
1693678373296557400,-3,-6,40,21,18,15,-37,-7
1693678373301556500,-48,36,41,42,-4,-1,7,11
1693678373311548100,77,-17,-38,-24,-8,-3,11,22
1693678373313548900,-35,-70,12,16,12,7,12,76
1693678373314547400,112,96,-48,-46,-41,-34,-16,-41
1693678373318547400,61,-86,-17,-3,8,17,31,23
1693678373335536100,-107,45,-7,-12,26,-9,-59,-87
1693678373337533900,8,-23,17,11,-23,3,37,21
1693678373338533900,-28,-43,-11,-5,23,-5,-2,21
1693678373340533400,-60,0,23,13,2,4,-30,-15
1693678373354524700,-30,-16,-4,23,124,-6,6,10
1693678373356522600,7,2,-24,-63,-42,35,-12,-32
1693678373357523000,-46,3,12,23,18,-38,0,15
1693678373360521000,20,0,-49,-74,-78,-41,4,-13
1693678373371513600,27,9,73,95,110,9,34,23
1693678373373513700,3,16,-47,-61,-44,40,-29,-18
1693678373375511000,13,26,91,19,-21,-65,23,14
1693678373376514300,3,8,73,91,69,-57,5,6
1693678373389505000,15,-22,-81,-96,13,84,-8,-3
1693678373391503300,18,33,25,35,47,-23,-35,-3
1693678373394501100,-20,-19,-7,23,-42,-35,14,-7
1693678373397501100,-3,-20,-29,-21,38,-12,-6,-10
1693678373409492900,0,11,-6,5,-55,-24,8,19
1693678373412492300,7,3,6,10,22,-34,6,-10
1693678373414491300,-15,-19,-28,-23,-27,68,11,1
1693678373418487800,-7,9,2,-3,63,7,-15,-8
1693678373438476400,6,-3,-17,-14,54,-25,0,9
1693678373441473900,-7,-4,3,-17,-17,-24,-5,-8
1693678373442474700,-8,-15,-11,17,60,31,-1,-3
1693678373444472800,-1,-17,-12,-14,-36,16,4,7
1693678373446472400,31,29,38,14,-56,-7,8,9
1693678373450470000,9,10,19,41,24,-4,2,-4
1693678373454466500,-16,-11,-13,-2,2,15,1,3
1693678373456465100,-7,-24,-29,-25,-35,0,-4,-8
1693678373476453600,6,2,-16,-16,7,1,-12,4
1693678373478452900,-59,-31,-2,16,7,-11,12,-25
1693678373481450600,37,-2,-1,3,15,11,-19,55
1693678373486449400,-29,-3,56,26,7,31,18,6
1693678373491445600,-23,62,2,5,-22,-11,14,-11
1693678373493444700,-28,-65,-59,-6,2,6,-7,-36
1693678373495444200,34,-29,21,-32,-20,-9,-14,59
1693678373497442700,-34,24,-59,-38,-11,-8,41,-4
1693678373505438700,46,-58,82,39,-18,13,28,127
1693678373506438300,21,85,-9,-9,1,-9,-30,-92
1693678373514432700,40,-15,-38,-27,-5,-9,57,-101
1693678373518432100,-87,-55,-6,11,13,19,-19,8
1693678373528423600,-85,-34,-35,-19,-19,-21,22,-55
1693678373530422600,-25,-45,7,-1,-20,-15,16,50
1693678373533422600,-69,-23,-4,15,18,10,-104,-18
1693678373535420400,54,50,29,26,97,26,5,3
1693678373554410200,-28,-26,-39,-46,-108,-26,-30,-15
1693678373556409400,30,25,39,40,95,34,-1,23
1693678373559406500,8,21,-9,-18,-64,-29,28,-3
1693678373560405900,11,-3,5,0,39,-1,-4,-10
1693678373566404200,7,-2,-24,-10,53,6,-8,0
1693678373570400800,19,18,18,17,78,14,-1,10
1693678373573398300,-19,12,-4,-5,26,7,21,-11
1693678373575398800,5,-11,-27,-22,-84,-6,-19,5
1693678373589389000,16,3,36,22,-44,-37,-20,-25
1693678373590390000,29,26,20,19,0,14,23,18
1693678373591388300,-46,-15,-9,-2,14,19,1,-1
1693678373593388100,14,-2,-11,-1,10,11,-12,-7
1693678373613377500,6,-1,-26,-8,19,15,3,-10
1693678373620372500,-13,-6,5,-9,-34,-16,-1,10
1693678373622371900,-12,0,-5,4,-1,4,5,9
1693678373624370500,12,3,13,-3,-17,-9,-10,-8
1693678373625370300,-4,-1,-15,-8,-4,9,3,-11
1693678373627366800,-6,1,14,5,-63,-13,-1,13
1693678373635366000,-1,8,1,9,20,6,-2,-7
1693678373637362400,16,16,27,12,-1,-3,6,-1
1693678373652353700,-7,-9,-15,-11,14,1,-6,-4
1693678373653354500,-8,-5,-3,-1,7,6,-2,3
1693678373655353000,-25,-12,-6,1,3,-2,6,1
1693678373656352000,22,14,-5,-5,-8,-3,4,-8
1693678373671343100,-10,-1,11,8,-3,6,-6,18
1693678373673341500,20,-3,1,-2,-13,-1,13,23
1693678373674340000,33,26,1,2,10,-1,-14,-7
1693678373675340300,-11,-10,-2,-5,-7,-2,-1,1
1693678373687334100,-7,-10,-19,-9,7,0,-13,-14
1693678373690333000,-9,-3,-2,-2,5,0,12,8
1693678373694329300,-3,1,12,8,4,6,9,9
1693678373696329300,3,-2,14,9,11,-5,-23,-4
1693678373717316200,6,6,-3,-4,-31,1,5,-7
1693678373719320800,-14,-7,0,4,0,-1,-12,-4
1693678373721318100,-8,-9,-10,-11,-20,-6,2,-2
1693678373722315100,-2,-7,-5,-7,11,0,-3,-4
1693678373731307000,1,4,1,5,11,3,4,-4
1693678373735306300,-3,4,1,-1,-14,-4,-4,-4
1693678373738304700,-14,-19,-4,3,9,7,5,0
1693678373739305400,10,10,16,9,2,3,10,9
1693678373746299400,0,-7,-9,-6,-1,-2,-5,-4
1693678373757294700,6,13,-2,-1,17,2,-1,-2
1693678373759293200,19,12,4,3,8,-2,5,-1
1693678373761292800,-10,-12,0,-6,-14,-7,-7,-1
1693678373773284500,4,-3,-9,-5,4,0,-3,-4
1693678373775282300,-3,1,2,-4,-10,-3,-2,-4
1693678373777284400,-17,-7,0,3,8,0,-2,0
1693678373778281800,-2,-2,0,-3,-16,-2,4,14
1693678373793273000,3,2,0,3,8,1,-10,-15
1693678373796271500,-4,-1,3,0,0,-3,0,0
1693678373802268000,-2,0,-5,-7,-3,0,0,1
1693678373804268700,2,-2,1,6,5,0,-6,-3
1693678373806266900,2,3,-1,-1,6,2,5,4
1693678373808264100,-3,-2,1,2,-4,-3,-4,-4
1693678373810262600,-7,-7,-4,-3,7,0,0,0
1693678373812261000,10,11,-6,-4,-7,-4,-1,-2
1693678373820256600,-9,-4,2,0,-1,-1,4,5
1693678373822256200,2,-2,-5,-9,-8,-3,-10,-12
1693678373829252200,5,9,15,18,4,1,-1,2
1693678373831251600,1,-8,-6,-3,8,-1,0,0
1693678373845243800,-2,0,1,2,0,-1,1,-15
1693678373859234700,1,-1,-3,-8,-6,-2,-1,18
1693678373860237300,-5,-1,-8,0,3,-5,-9,3
1693678373862234300,9,-2,-1,-2,-7,0,-7,-1
1693678373863232900,-9,2,-1,-1,0,-1,6,-16
1693678373867231000,-5,3,4,3,-2,-2,-13,-8
1693678373870232100,-13,-4,-1,-2,-3,-3,-2,-1
1693678373872227300,-5,-3,-3,0,-2,-1,2,7
1693678373880222200,17,0,-1,-2,1,-1,-2,6
1693678373881222500,-6,-2,0,0,-8,-6,5,-7
1693678373889217000,-2,-2,-5,-3,0,-2,-2,1
1693678373890217100,3,-1,-7,-21,-2,-2,0,-5
1693678373903208700,1,2,1,13,-5,-2,1,4
1693678373905209300,-5,-1,4,5,4,0,1,-6
1693678373910205100,1,-2,-5,-6,-3,0,2,-2
1693678373911205000,-5,0,5,9,-1,2,1,-7
1693678373918202900,0,-2,-9,-10,4,1,0,4
1693678373920202000,1,-2,-3,-9,-22,-7,-1,3
1693678373928195800,3,-2,-1,3,11,1,-1,-5
1693678373931194900,-6,1,0,3,76,7,3,0
1693678373940187800,-1,-1,0,1,-40,-1,-3,1
1693678373942188600,3,-3,-5,-11,-74,-14,-2,-3
1693678373951183400,-3,0,-1,-3,19,5,2,-1
1693678373953182200,-4,-4,-2,-7,-34,-14,-3,-2
1693678373964174900,0,4,10,21,57,12,2,4
1693678373967175700,1,-1,-3,-2,16,2,7,1
1693678373970170900,-3,-2,0,0,5,-1,-18,-26
1693678373972171700,-3,1,1,12,26,10,3,12
1693678373977167700,-3,-3,-7,-14,-28,-12,5,14
1693678373978166600,1,0,-1,-14,-54,-9,-7,-8
1693678373986162800,0,0,2,-2,0,1,3,13
1693678373988161300,-2,0,0,12,49,11,-1,-22
1693678374001160600,-5,-4,-4,-6,-10,-5,-6,-8
1693678374004153900,2,4,0,8,14,2,3,12
1693678374016145800,3,-1,1,-3,5,1,2,-9
1693678374019143600,-4,-2,2,2,-29,-5,-2,-2
1693678374023140500,2,1,0,-3,0,1,1,6
1693678374024141100,-2,-1,3,11,25,4,0,-3
1693678374030135900,-1,-3,-4,-3,-14,-2,1,2
1693678374031137600,-4,-6,-8,-9,-30,-5,-3,3
1693678374056122900,-2,0,-9,-6,0,-2,-1,1
1693678374058122400,-3,0,9,8,36,7,1,-7
1693678374059119500,5,4,4,4,-5,-1,2,5
1693678374060119600,-1,-2,3,-2,-29,-1,1,6
1693678374061120700,0,-2,-6,-7,-2,-2,-2,-10
1693678374062119900,3,2,0,3,2,5,0,0
1693678374070114400,-4,-4,-5,-8,-23,-11,2,5
1693678374072112400,-2,-1,2,2,17,2,-1,-4
1693678374083106600,2,-3,-5,-3,4,-4,-4,-18
1693678374087104600,0,-1,1,9,36,8,1,24
1693678374098097200,-1,-3,-4,-3,-27,-3,-1,3
1693678374103095200,1,5,6,5,11,2,2,-4
1693678374106094400,-2,2,6,-2,-2,-5,-3,3
1693678374108091700,-2,1,1,4,41,3,-1,-5
1693678374110091200,-3,-1,-4,-5,-44,-1,-1,-3
1693678374112090000,0,-3,-5,-5,-3,-5,-5,1
1693678374120596500,-1,-1,1,2,14,3,0,-3
1693678374122597000,1,0,-2,0,5,-3,0,-4
1693678374129591400,1,-1,1,1,5,2,-1,3
1693678374130591700,-1,-2,-7,-9,-25,-5,-1,-5
1693678374147581700,0,0,10,15,34,6,1,5
1693678374151580400,0,-6,-11,-13,-79,-12,-4,-5
1693678374152577900,-1,5,5,3,12,0,-1,1
1693678374153579300,-2,2,7,2,1,-2,1,1
1693678374166570600,-1,-5,-9,-7,-37,2,-1,0
1693678374169568000,0,-2,-3,-3,47,-2,0,-2
1693678374170567200,-2,0,1,10,17,0,-2,-3
1693678374171568800,-1,-2,-5,-11,-19,-1,-1,0
1693678374182562200,-3,2,7,17,48,4,-3,2
1693678374185559700,0,0,11,13,23,0,1,-1
1693678374188558200,-4,-7,-21,-27,-13,-13,-5,-4
1693678374190557600,1,5,25,11,23,1,0,0
1693678374204548500,-1,-5,-11,0,-6,-3,-2,1
1693678374205547700,0,3,-17,9,70,16,3,2
1693678374212545500,0,2,24,-10,37,-15,-2,1
1693678374213544100,-5,-8,-23,-12,-36,3,-4,-4
1693678374226023900,4,7,9,12,-12,17,8,2
1693678374228023000,-5,-6,-15,-44,-91,-40,-11,-6
1693678374229023100,2,-1,0,27,57,23,5,3
1693678374232021900,-1,-1,-10,-18,22,-5,-1,-3
1693678374240018800,-4,-1,-17,5,-23,41,1,-1
1693678374242015700,5,5,39,46,41,-44,2,3
1693678374252013500,0,0,-5,-23,-117,-2,-5,-4
1693678374254010300,1,-4,-7,13,77,75,8,2
1693678374263003300,-1,-1,-9,-21,-60,-90,-9,-2
1693678374266002400,-5,-3,-34,-32,-78,5,1,-3
1693678374271998400,3,3,49,57,109,9,-3,1
1693678374273997500,0,-2,-7,39,18,-48,1,1
1693678374290987300,-1,0,6,-27,-3,112,5,-2
1693678374296983900,-5,-9,-26,-52,35,43,-12,-5
1693678374301981900,4,7,11,47,33,-2,10,4
1693678374305979800,-6,-6,-18,-38,-60,-40,-11,-5
1693678374307978100,3,0,1,4,74,122,15,5
1693678374309977400,-5,-7,0,-15,-54,-17,-11,-6
1693678374313974800,1,1,-16,-1,74,70,9,3
1693678374319971800,0,7,16,-14,-60,-82,-5,0
1693678374322968700,-4,1,-6,5,-16,-28,-7,-8
1693678374324968000,-6,-11,-7,-9,-67,2,0,0
1693678374329964500,-3,18,20,34,57,-23,-4,-4
1693678374332967300,1,-11,-2,3,31,43,12,6
1693678374346955600,9,2,0,-13,0,-55,4,14
1693678374350956500,6,11,-6,6,44,-2,-8,-10
1693678374353953400,-14,-20,-12,-26,-38,1,-12,-37
1693678374355950500,-53,-5,-6,5,-69,-7,-1,16
1693678374359948700,58,15,3,1,27,-18,4,19
1693678374362946900,-103,47,57,41,45,18,-18,-70
1693678374368944200,73,-55,3,-6,-64,-6,65,86
1693678374370942700,96,14,4,-3,13,19,-42,57
1693678374383935100,-68,-5,-18,-15,-23,-51,-15,-103
1693678374386938200,2,7,-26,0,10,20,33,118
1693678374389931800,77,80,-12,-24,-17,-8,-72,-128
1693678374391931300,34,62,9,-13,-13,-25,18,20
1693678374411918300,28,-62,-9,5,10,1,4,98
1693678374412918900,-83,-62,8,2,-18,-11,10,-46
1693678374415917100,-10,-17,-4,5,14,19,50,48
1693678374418918600,-26,-35,13,-5,-24,-42,-28,-8
1693678374421913000,-56,18,0,-5,-7,7,-31,-24
1693678374423910900,-2,-20,2,-24,27,-1,7,3
1693678374428907900,-20,-1,-7,23,44,61,0,20
1693678374429908100,-31,-6,-32,14,-19,-47,5,-33
1693678374442899400,0,-5,-18,-24,-77,34,15,-3
1693678374444898500,48,27,27,49,40,26,1,9
1693678374450899500,-22,-15,13,-48,-89,-72,-28,0
1693678374454895200,3,9,6,45,104,122,3,-25
1693678374468887500,-10,8,14,-23,68,-43,26,6
1693678374470884900,60,-4,-3,28,-15,127,20,14
1693678374472887400,-24,21,18,62,46,-30,-17,3
1693678374473883700,-36,-43,-35,-14,75,93,-1,-18
1693678374491872000,13,-7,-12,-47,-74,-39,-23,-8
1693678374494871000,17,11,0,8,85,6,10,2
1693678374495870200,-25,-9,-20,-4,53,-33,4,5
1693678374497869000,-7,4,13,-11,-2,3,12,-1
1693678374503866600,7,-1,6,33,81,15,8,4
1693678374505865100,17,-15,-14,-14,-23,-71,-9,0
1693678374509860800,-15,11,-5,-37,-58,-17,-11,1
1693678374510861600,11,-7,-1,-19,24,-7,6,-3
1693678374525851800,-5,11,20,7,-18,-7,-8,-3
1693678374527851700,10,1,-1,-2,-71,-46,-5,5
1693678374529851900,-9,-20,-9,-1,64,25,-1,3
1693678374530851500,-31,2,14,5,-8,13,13,-17
1693678374549840500,-4,-39,-25,10,15,-29,-22,20
1693678374553839500,-114,-76,34,8,2,4,-20,-35
1693678374556838200,22,-72,-18,-10,-68,15,27,55
1693678374558834100,77,94,4,-2,-39,-5,40,-70
1693678374573827000,-116,-98,-7,-1,-12,-18,-66,-25
1693678374577823600,65,-55,-57,-50,-5,-23,-38,9
1693678374580823700,83,104,40,3,-10,30,67,-86
1693678374586818700,-119,-37,19,25,30,-17,-2,59
1693678374587818900,119,125,-3,-13,-8,-16,-23,-16
1693678374595812700,-107,-65,7,2,20,4,-81,7
1693678374624796400,-18,-15,-29,-25,-11,-12,-10,-3
1693678374627794700,-124,-53,12,17,-13,3,16,-4
1693678374629793400,-55,7,15,16,11,9,97,-21
1693678374633791900,57,33,-8,-1,0,-7,-10,31
1693678374636790700,-33,-16,0,-6,-12,-20,-33,4
1693678374639788700,49,16,-2,-13,-15,-3,-7,11
1693678374641786700,-1,-5,7,11,20,17,12,32
1693678374643786500,25,38,2,11,35,6,58,-4
1693678374672769700,-37,-10,-17,-18,-21,9,-10,3
1693678374675768000,18,-13,-3,-10,6,-2,-6,-6
1693678374678765000,-5,2,3,-1,-25,-6,-1,1
1693678374680765000,18,19,-1,5,25,4,3,-25
1693678374685762100,-10,6,-2,-4,-9,-1,-13,4
1693678374688760800,19,-4,15,1,-32,-16,-18,8
1693678374690760000,8,-10,3,9,9,10,-8,-12
1693678374693757400,15,33,0,-7,-8,-7,10,-6
1693678374695755700,-32,-17,-7,-10,-2,0,-8,14
1693678374698755300,7,-7,-5,-3,-9,-10,-2,-1
1693678374708749200,-6,-4,2,2,13,4,-3,-1
1693678374710747400,-3,11,2,-3,-7,1,14,-5
1693678374712747400,-20,-1,-4,1,10,0,-4,3
1693678374713745900,12,-10,-9,-10,-9,-8,-15,-8
1693678374759718900,7,4,6,7,8,7,-1,0
1693678374761718900,1,12,0,1,0,-8,5,2
1693678374763716700,-28,-15,3,7,1,1,-4,-4
1693678374767716600,20,-7,-2,-7,-7,-7,-9,-2
1693678374770712700,6,13,0,-2,4,6,2,7
1693678374772711700,24,-15,-17,-8,-11,-6,-15,-14
1693678374774710500,-29,15,8,3,3,0,-3,4
1693678374776709000,3,-7,7,3,0,0,13,6
1693678374778708300,18,13,2,2,4,-4,-28,-13
1693678374779708100,-23,-13,-5,-3,0,1,0,-7
1693678374783706300,-6,-6,-12,-11,-7,1,-8,-2
1693678374786709300,-3,-9,-19,-9,-7,-5,7,1
1693678374818690600,-14,-7,7,3,6,4,2,-4
1693678374820684800,-2,21,26,16,1,0,13,4
1693678374823682500,4,-10,-6,-4,0,0,-7,-2
1693678374825681300,-4,7,0,3,5,0,-4,-8
1693678374827680700,-2,-11,-13,-8,2,1,6,4
1693678374834680100,-2,6,-7,-6,2,-1,8,-3
1693678374837674100,9,4,10,6,0,-2,2,7
1693678374839673900,-1,-12,-7,-7,-2,0,-6,-1
1693678374841672500,8,15,3,3,9,0,2,-1
1693678374844670500,-43,-22,-4,-2,-5,-3,0,5
1693678374856666400,36,19,-6,-2,-3,-1,1,-2
1693678374859663300,10,0,4,0,-1,0,-6,-1
1693678374861663000,11,3,1,3,-2,0,3,2
1693678374863660900,-7,-2,-3,-1,-3,0,0,-1
1693678374866658000,-7,-4,-10,-7,-2,1,0,-2
1693678374884647800,-9,4,9,5,-2,2,14,-3
1693678374887646500,-7,-6,-1,0,-3,-5,-16,4
1693678374890644600,4,0,-3,-3,-2,-2,2,-1
1693678374893642800,-8,-6,-5,0,0,-1,2,7
1693678374895641100,7,6,-2,-6,-1,2,-3,3
1693678374898639900,-11,-9,8,9,1,2,8,-1
1693678374902638200,13,11,-2,-1,1,1,1,1
1693678374905636000,0,-5,-3,-2,-3,-1,-1,-4
1693678374908634700,2,2,0,-1,0,0,-7,2
1693678374910633400,-6,-4,-4,-4,-4,-1,2,1
1693678374912631600,7,9,6,3,0,-1,1,-2
1693678374915629700,-2,-3,-2,0,1,0,1,0
1693678374919630500,-3,-3,-5,-6,-1,-4,-6,0
1693678374921626500,-3,-5,3,5,3,-1,3,-6
1693678374922625500,14,9,-4,-3,-1,0,4,-2
1693678374923624800,-5,-7,-6,-3,-4,-3,-2,-3
1693678374924624200,-20,-3,-2,-2,0,-2,-8,-8
1693678374930265300,0,-1,5,3,-2,-1,3,4
1693678374935264900,-2,2,3,2,-4,-8,-1,0
1693678374937261500,7,-3,-5,-7,0,-1,-3,-3
1693678374939260600,-3,-10,-1,0,-3,-2,0,4
1693678374961248100,16,2,-11,-8,-3,-1,-2,-6
1693678374963246100,-7,6,9,4,2,3,2,1
1693678374964247300,8,5,6,0,-1,-4,-3,-1
1693678374969248100,-6,0,1,2,-2,-3,-3,0
1693678374971242200,-8,-7,-3,-4,-1,1,0,1
1693678374972241200,11,0,-1,0,0,0,-3,0
1693678374976238500,0,-2,-5,-3,-2,-1,-3,2
1693678374978238700,-8,2,0,3,-2,2,-1,-4
1693678374990231200,-7,-11,-1,-5,-3,3,19,-3
1693678374992230300,-6,7,-2,0,2,-3,-9,-6
1693678375002228700,-9,-1,3,-1,-14,-7,-17,-3
1693678375005222700,9,1,-1,0,1,1,-10,0
1693678375013217100,-5,-1,-3,-2,-3,-4,3,-3
1693678375022216500,3,-3,-1,-1,-3,3,12,6
1693678375023212600,12,-1,1,1,1,-3,6,-10
1693678375024212000,-10,-1,-3,-4,-3,-5,-34,1
1693678375027209600,2,-4,-1,2,-2,3,0,2
1693678375029209800,-1,3,1,0,2,5,11,2
1693678375036204600,-10,-4,3,-1,2,0,1,7
1693678375038204600,18,2,-9,-1,-3,-1,12,6
1693678375052195800,-1,2,3,0,3,3,3,-5
1693678375054195100,-15,-8,-3,-4,0,-4,-18,-3
1693678375057192700,2,-1,4,1,2,5,10,0
1693678375059191100,-2,5,4,-1,-2,1,12,-6
1693678375074183500,-7,-1,1,3,2,-1,0,7
1693678375075183200,14,-2,-8,-7,-5,-4,-12,0
1693678375077182500,-16,-5,-7,-2,1,-2,-3,-7
1693678375078181700,5,2,6,7,3,2,6,5
1693678375089174700,3,-1,-1,0,-1,-1,0,4
1693678375094171100,-6,-2,2,3,0,1,2,-14
1693678375103166500,-8,1,-5,-6,0,0,-1,3
1693678375104166600,-11,-3,3,2,-1,-3,0,-6
1693678375111161000,5,6,3,4,1,0,-3,3
1693678375112160200,3,-1,1,0,2,-2,-1,0
1693678375119157200,4,2,-1,0,1,1,2,3
1693678375121158500,11,0,-10,-7,-2,2,13,-7
1693678375136148100,-9,-3,3,-1,-11,-2,-22,8
1693678375138146700,-2,-2,2,0,16,-4,-6,2
1693678375140146000,-3,-3,1,1,8,0,2,0
1693678375142143800,5,1,-1,-3,6,-3,-3,3
1693678375157134400,-2,-4,-4,-2,-11,-3,4,-7
1693678375159135400,2,-1,-2,-1,10,0,5,5
1693678375161132400,0,-2,3,5,70,16,0,1
1693678375166130900,-1,0,-1,-5,-78,-20,-5,-3
1693678375179123100,-2,1,4,12,3,5,-2,-2
1693678375181121700,4,1,-2,-6,-83,-19,-2,-1
1693678375187118900,-5,-6,-19,-28,-8,36,-2,-4
1693678375189117900,0,-1,8,26,117,-14,5,3
1693678375194115800,2,9,20,10,48,-31,-3,-3
1693678375196114600,1,-6,-13,-15,107,-4,-6,-3
1693678375197111800,1,2,8,31,18,15,6,1
1693678375200111700,-2,-2,-7,-13,2,16,-1,-3
1693678375217101000,0,-1,-7,2,40,20,0,0
1693678375220102100,1,1,1,6,-9,20,4,0
1693678375223096700,-3,-3,-9,-12,-38,-56,-5,-1
1693678375224098700,-4,-2,-5,-6,53,15,-8,-3
1693678375239089300,0,2,1,8,38,10,1,1
1693678375241088400,2,4,5,-12,-15,-7,4,3
1693678375243086000,-2,0,-1,2,51,8,-1,-1
1693678375245086000,1,-1,5,5,-14,-2,-1,1
1693678375254080600,0,-3,-2,-13,-27,-3,-1,-2
1693678375256078300,2,5,2,9,38,12,3,-1
1693678375258077700,-1,2,9,10,-6,1,-1,0
1693678375259078400,-2,-3,-5,-8,-59,-21,-5,-2
1693678375276067000,-4,-6,-11,-8,-6,5,0,-2
1693678375278066600,1,-6,-8,3,-6,6,2,-1
1693678375279065400,3,4,11,3,26,-7,0,0
1693678375280064700,-1,0,-1,-15,-45,-7,-3,-3
1693678375290058300,-2,-3,0,3,13,4,0,0
1693678375291057600,-1,1,2,5,13,-5,0,1
1693678375302052600,1,-3,-2,-6,11,4,-2,-2
1693678375304051800,0,-1,-2,5,-3,10,3,0
1693678375314044700,-1,-2,-7,-7,-7,-7,-2,0
1693678375320042100,1,0,0,4,87,17,1,0
1693678375322041000,-6,0,3,0,-31,-6,-2,-1
1693678375324039900,-2,-4,-7,-17,-30,22,-1,0
1693678375342032400,-2,0,-1,4,85,-70,-8,-4
1693678375343031500,4,0,0,-6,-56,16,4,0
1693678375345029700,-2,-3,-2,2,28,-4,-6,-2
1693678375347029500,4,6,11,8,-3,1,0,0
1693678375353023500,0,-1,-3,-1,-72,60,4,2
1693678375355022600,-1,2,0,4,78,-25,-3,-1
1693678375359018700,-3,-4,-4,-19,-103,-25,-4,-4
1693678375360020300,-1,-2,-2,8,54,10,2,1
1693678375374010300,-2,-1,-3,-7,-7,9,-4,-2
1693678375375011600,1,1,2,6,-10,4,3,0
1693678375377010400,0,-1,-1,-6,-22,3,2,0
1693678375378008700,-2,-2,0,-2,9,-4,0,-1
1693678375405993000,1,-1,-3,-4,-23,-2,9,10
1693678375411988800,-1,-1,-2,0,-6,-7,-7,-15
1693678375413987800,-2,2,1,4,24,-3,0,-7
1693678375418985800,-1,0,-3,-6,-73,-12,1,-7
1693678375421984900,-4,-1,-2,-2,24,-9,2,-3
1693678375423981900,1,-6,0,1,0,2,7,29
1693678375424982400,-60,-51,3,5,26,13,23,-7
1693678375426981800,35,41,-25,-19,-4,-20,-39,3
1693678375435976800,-7,1,23,19,11,12,-6,-70
1693678375437974800,61,16,14,1,-47,-6,15,36
1693678375439972200,-77,21,-2,3,10,11,1,-12
1693678375440972500,94,-47,-20,-3,27,-6,44,72
1693678375455962900,-121,-106,-9,-1,9,7,-5,-55
1693678375457962700,79,119,8,-12,-53,-34,-32,11
1693678375458964000,110,36,11,2,-10,-15,-48,-15
1693678375459963000,-68,21,3,2,50,5,9,87
1693678375470956400,-9,9,-8,0,7,10,15,-94
1693678375471955000,-17,-117,-29,-14,-15,-7,0,26
1693678375478949900,-65,-48,-6,-4,-12,-2,-5,28
1693678375479950200,-42,-16,5,13,26,11,3,-70
1693678375493942700,-35,-2,-10,-10,-28,-13,0,61
1693678375495940900,-80,-21,-44,-36,17,4,-38,-35
1693678375497941300,42,32,30,15,27,11,22,9
1693678375502940700,33,7,7,2,0,12,-5,1
1693678375518929400,10,-1,-27,15,52,32,1,26
1693678375520927300,3,23,54,11,25,-18,15,-29
1693678375521926300,37,5,-50,-41,12,-3,-16,9
1693678375522927200,-30,0,96,92,-73,-60,-6,-21
1693678375529920400,35,37,13,-3,81,89,-5,21
1693678375532923200,-15,-16,-55,-83,-115,-63,4,-8
1693678375538916800,4,-4,5,-7,-52,-41,-7,5
1693678375539916000,-31,-15,-25,-35,17,69,-13,-28
1693678375554907100,32,10,-19,-11,-2,-48,-9,21
1693678375555906600,-8,-3,7,36,59,26,1,3
1693678375557906900,-23,-5,-12,-12,21,30,20,-2
1693678375558906400,3,-3,-10,-12,3,-6,18,-9
1693678375585890400,32,-19,0,-14,-69,-59,-11,35
1693678375587887900,-19,51,48,48,45,50,8,-11
1693678375589887300,-6,-3,-15,-36,-59,-46,1,-9
1693678375590888500,-2,-49,-4,21,3,-3,-4,3
1693678375592886900,30,37,23,7,0,4,4,16
1693678375593886100,-58,-58,-52,-8,-21,-9,-1,20
1693678375601881400,-8,27,32,24,23,13,-2,41
1693678375604879900,54,49,40,14,26,-6,7,-19
1693678375613873000,-115,-103,3,4,-15,12,55,107
1693678375618874700,113,110,21,10,-28,4,60,-26
1693678375620869700,-78,-127,-34,-6,1,-2,-42,-41
1693678375623869300,-85,-99,-50,-46,21,19,14,-2
1693678375642856400,-74,-88,-5,-1,-27,-14,44,82
1693678375644857400,52,52,0,-6,4,9,28,-93
1693678375645856600,127,-9,2,4,20,1,-39,-34
1693678375648854500,-64,-36,5,3,10,-7,-1,-52
1693678375653852300,-18,-38,-3,-1,-2,4,-16,-20
1693678375655850200,-89,-61,-2,4,-12,-4,-18,43
1693678375658847900,-69,44,9,8,4,4,3,-24
1693678375659847000,3,13,-1,2,9,-8,-14,-6
1693678375672839000,50,53,-8,-6,71,-2,-2,-21
1693678375673839000,2,-11,-1,-11,-53,15,-4,13
1693678375684842600,19,20,-12,-3,-62,-19,-1,-7
1693678375686831600,-3,6,-12,-4,78,8,14,28
1693678375703821300,37,47,13,17,-27,-23,-28,-30
1693678375705820500,-2,-18,20,46,48,5,-28,-7
1693678375707821400,-23,-17,-4,-40,-4,7,22,17
1693678375708820800,10,18,-13,-1,-7,0,-8,7
1693678375709819800,31,37,-9,-17,-36,-7,-20,-41
1693678375710818100,-22,-41,-9,-13,7,3,-9,-1
1693678375721812100,-11,-4,-7,18,9,17,24,17
1693678375726866600,12,21,2,-17,61,27,2,1
1693678375736852400,25,24,18,21,-103,-7,-10,-21
1693678375738850900,-33,-35,-15,-21,-10,-20,-6,12
1693678375739850700,-6,6,9,-7,-47,3,4,6
1693678375740849300,14,14,15,3,-18,-16,-19,-9
1693678375755841100,3,0,0,-13,1,13,-3,-9
1693678375758838900,-8,-11,7,21,38,11,0,8
1693678375763836200,6,13,7,25,9,13,8,-1
1693678375767836100,0,-2,-11,-17,-19,-13,-7,-5
1693678375778826900,6,6,-5,1,-21,-2,-3,-5
1693678375782826400,-8,-11,-7,-13,39,4,-3,1
1693678375794818400,3,4,6,2,36,-3,1,0
1693678375795817600,-6,-1,-1,8,-16,-3,1,4
1693678375798817200,8,9,-5,-7,5,5,0,-6
1693678375802816000,-2,-7,3,0,-36,6,-9,-4
1693678375804813700,-6,-6,1,-20,-19,-22,3,3
1693678375806811300,2,4,-10,-2,63,10,-1,2
1693678375821804000,9,16,51,53,-45,-12,-7,-9
1693678375823801300,-5,-10,3,16,34,8,0,0
1693678375827481200,-2,-1,8,27,21,10,3,1
1693678375829479300,0,3,-21,-25,-70,-49,-3,-2
1693678375834481800,2,-1,-14,-67,44,-25,-13,-10
1693678375838475600,-8,-5,17,25,34,10,0,2
1693678375840475700,1,3,2,9,7,3,6,3
1693678375841473900,2,0,-1,2,7,13,0,-1
1693678375862462800,-3,-3,-16,-2,9,18,-1,-2
1693678375863459600,0,1,2,-6,-59,-31,-3,0
1693678375869457600,0,3,1,-13,-40,-19,0,-1
1693678375871455500,-1,-3,-2,5,-15,-2,-2,0
1693678375876452000,0,-1,-5,0,0,11,-1,-2
1693678375878452900,-2,-6,-10,-24,3,74,-1,0
1693678375879453900,3,4,9,24,-17,-97,-3,2
1693678375880451500,-2,-1,-2,-10,-60,57,-4,-1
1693678375889445600,-4,-2,-4,-4,20,-11,-1,-3
1693678375891445200,-1,-9,-9,-2,31,19,-5,-3
1693678375906435100,-8,-1,-10,-5,33,14,2,-4
1693678375909433000,9,10,21,26,-8,-16,6,7
1693678375913430900,10,0,-2,0,41,8,2,13
1693678375918431100,0,-6,-3,-7,-40,-26,16,18
1693678375921428100,-54,-40,-7,15,26,27,-37,-78
1693678375922426400,-27,6,-10,-19,-8,-15,72,113
1693678375937417600,-71,-18,-16,-11,-10,1,-24,-85
1693678375938416900,89,15,44,38,7,-20,-59,-93
1693678375939417800,20,-10,17,1,24,18,27,101
1693678375941416300,-60,-22,-15,5,5,5,-89,-106
1693678375950413400,122,104,-2,-18,-14,-20,45,113
1693678375953410600,-108,-12,-28,-47,-61,-42,33,-75
1693678375958406200,39,78,11,9,36,22,4,3
1693678375960403900,101,-20,-11,12,37,10,-35,-25
1693678375973397400,-38,-29,-4,0,-5,2,-1,20
1693678375976395000,-82,-58,15,25,26,35,-18,14
1693678375980394500,-23,-35,1,-5,-12,-7,115,11
1693678375983391700,-64,-7,-9,-13,-11,-31,-47,-1
1693678375997384900,3,-22,-7,-3,5,0,-44,-29
1693678376002383700,24,16,-4,-2,6,5,15,45
1693678376004382500,-19,-8,-9,1,5,16,-33,-35
1693678376005380200,53,24,10,-7,-30,-13,12,22
1693678376010376700,-23,-9,-2,4,3,3,16,-40
1693678376011375300,9,9,1,0,4,-4,7,3
1693678376020370600,21,17,-1,2,7,3,-22,22
1693678376022370400,-26,-5,-6,-15,-8,-15,13,-31
1693678376034369600,-11,-19,1,2,-2,10,0,16
1693678376037361500,3,16,-6,-5,-20,-20,1,25
1693678376040358400,17,0,6,4,14,20,-17,-9
1693678376041358100,-20,-1,10,6,4,15,18,-2
1693678376056349200,-23,-14,-3,0,0,-6,6,-20
1693678376058349800,25,6,-10,-3,12,3,-6,22
1693678376060347300,-11,-6,-6,-6,-3,2,-5,-17
1693678376061346100,0,2,6,0,-7,-5,10,-8
1693678376079337400,7,3,1,2,7,4,-6,8
1693678376080336400,-10,-3,-7,-8,-29,-23,0,-4
1693678376085333300,-6,-6,-8,-16,-55,-17,-15,-1
1693678376087332400,-6,0,-1,-4,-13,1,11,7
1693678376093328400,-2,-3,-7,-3,15,4,-4,-6
1693678376095328400,3,2,6,16,61,3,1,9
1693678376100324700,-12,-10,5,7,7,6,4,-4
1693678376110318100,1,10,-1,1,6,4,-5,0
1693678376119314400,42,28,8,-2,-2,-1,2,-8
1693678376121313100,-6,-3,-13,-11,-8,-2,4,0
1693678376122311700,12,9,7,3,7,-4,-21,4
1693678376124309700,-27,-18,-1,2,3,2,6,-15
1693678376138303300,-11,-16,-1,0,-1,0,4,1
1693678376140301600,-2,12,-5,-7,-15,-7,-3,-2
1693678376141302400,-5,-6,-7,-2,-3,4,-6,1
1693678376142300200,8,-3,-3,0,4,4,7,10
1693678376153293900,-17,-3,-3,-1,-9,-6,-2,-9
1693678376155293700,42,2,11,1,-16,0,8,31
1693678376160290100,-18,3,-10,-1,7,4,-3,-68
1693678376161289700,-4,5,11,7,0,-2,4,82
1693678376176282200,-8,-6,-4,-7,-16,-14,4,-13
1693678376178280600,-6,-10,-7,-2,3,2,3,1
1693678376186276600,6,-5,-2,-4,6,6,4,18
1693678376190275600,51,24,-3,-3,-2,-3,-3,-32
1693678376201273200,-51,-14,-1,2,-4,-4,-6,-4
1693678376203266100,-6,3,7,0,-2,-1,0,12
1693678376205267200,-4,2,2,0,2,-3,-2,-9
1693678376206262700,-3,-5,0,0,-4,-1,3,-7
1693678376213259300,14,-1,-1,-3,-8,-5,-4,10
1693678376218259300,-5,-1,-5,-2,9,1,-4,-20
1693678376220256200,-13,-6,-18,-5,7,4,1,11
1693678376222255100,6,-4,5,2,-2,-1,1,-4
1693678376236249200,-1,2,7,17,14,9,-2,0
1693678376239246200,-12,1,11,-1,29,-3,-3,-7
1693678376240243900,11,1,3,-27,-74,3,4,13
1693678376241242300,-7,-8,-36,30,54,-4,0,-4
1693678376258234000,9,4,34,18,-8,24,5,-4
1693678376260234500,-6,-3,-20,9,47,-27,-4,-1
1693678376268231000,7,5,30,-16,-60,31,-3,8
1693678376271227600,-6,-2,0,-8,77,19,-5,-17
1693678376283219800,-3,1,8,-7,-88,-57,1,4
1693678376286218400,-1,-4,-16,5,70,75,2,-1
1693678376288217300,3,1,-12,-4,4,-37,0,4
1693678376290217200,-8,-4,2,10,23,-22,-1,-6
1693678376296211200,0,-7,-19,0,63,19,-13,-4
1693678376301213100,4,5,16,-12,-41,23,1,3
1693678376304209500,1,-1,-7,-2,-53,19,5,-1
1693678376305207900,-4,-1,9,0,67,26,2,-3
1693678376319199100,1,-3,-9,2,17,2,1,2
1693678376321197900,-4,-1,0,-17,-61,-12,-4,-5
1693678376322198800,-9,-10,-7,3,-21,-62,-11,-3
1693678376324195700,0,-4,-4,1,-33,-49,7,0
1693678376337189200,10,13,11,0,24,29,-3,3
1693678376339189700,-8,-8,-8,2,-21,7,-10,1
1693678376343186700,0,-2,-10,-5,67,9,0,0
1693678376346184200,7,4,10,7,-28,7,10,-41
1693678376356179800,-15,-11,-18,-17,-6,12,5,69
1693678376358176500,-30,-51,13,9,4,-24,-26,-47
1693678376360177500,35,39,17,23,39,17,-10,39
1693678376362175500,-56,58,3,-31,-48,-5,0,-100
1693678376379163200,21,-25,12,24,10,-12,-2,31
1693678376382163800,-49,-39,-23,2,-5,2,44,53
1693678376386162600,-25,-23,-26,-8,27,-4,-32,-24
1693678376387159100,57,-9,42,0,-17,26,13,34
1693678376392156000,-81,11,-34,-21,-24,-49,-22,-128
1693678376394157200,112,20,40,24,-8,-18,-52,32
1693678376403151600,62,62,2,-5,17,2,3,80
1693678376405150000,13,-25,-18,-8,-14,12,0,-29
1693678376417143900,-54,-13,3,-3,27,11,-24,-17
1693678376424138400,-27,-31,-31,-30,-48,-53,7,-31
1693678376426138000,-40,-10,4,13,9,12,28,-19
1693678376427136000,4,-4,6,0,-14,5,-18,22
1693678376439130700,17,-2,-2,-8,-13,-5,13,46
1693678376440129600,-27,15,-9,-7,1,-33,-4,-33
1693678376441129100,14,-12,10,12,21,8,9,0
1693678376443129100,1,8,0,2,-7,6,8,43
1693678376453121500,0,-21,-7,-10,-14,6,0,-28
1693678376454123500,20,35,8,5,2,6,7,20
1693678376470112100,-17,-6,2,-3,4,-1,6,-21
1693678376472111800,-21,-25,-9,0,-10,-10,-8,9
1693678376476108000,20,18,8,3,5,4,1,-1
1693678376478108200,-4,14,4,-1,-5,4,5,-5
1693678376479107100,-6,-17,-3,0,1,3,3,-3
1693678376480106600,-24,-11,-12,-6,-8,8,-7,-6
1693678376501096400,24,5,6,-1,-10,-9,4,12
1693678376503093400,-2,10,-4,1,32,17,11,5
1693678376505092400,-22,-16,2,10,-34,2,1,-25
1693678376506091400,1,-1,-3,-19,-77,-35,-10,17
1693678376512087900,7,5,2,-3,-11,0,5,0
1693678376514087300,-10,0,-5,0,4,3,2,-7
1693678376521082400,-8,-4,-3,4,37,9,-1,-9
1693678376522083200,-3,0,2,11,14,4,-1,7
1693678376537073600,10,-3,-1,-1,-13,-5,2,7
1693678376538073600,-7,4,-10,-7,-12,4,-1,-12
1693678376539074100,5,-1,7,2,19,-4,4,0
1693678376540073600,-6,1,3,3,4,-3,-11,3
1693678376567057100,6,-5,-14,-3,10,2,1,-8
1693678376570056400,-3,4,11,7,-1,2,1,3
1693678376572054000,-14,-6,-11,-10,-7,-6,0,-7
1693678376573053600,-7,-10,-7,-10,4,-1,-1,2
1693678376575052200,-1,-4,-1,5,5,10,2,0
1693678376576052300,-12,-8,-3,-6,-5,0,2,3
1693678376583049300,20,11,-15,-6,-6,-1,-5,-5
1693678376586049700,10,10,30,20,11,7,1,12
1693678376597040000,-28,-8,15,10,16,4,5,-57
1693678376599039700,25,23,-3,-1,-6,-2,-19,55
1693678376602037500,-14,-17,-9,-12,-6,-3,-3,-12
1693678376604036500,2,-2,-20,-8,4,1,10,9
1693678376620027900,13,9,5,5,-8,-8,0,-4
1693678376622026400,-11,-9,5,-1,-4,-2,1,-22
1693678376624024900,-6,-7,-5,0,5,1,0,1
1693678376626024200,1,2,-7,-3,0,-3,-4,-4
1693678376636018800,3,-3,-1,-5,-2,0,-1,17
1693678376639017300,1,0,-2,1,7,3,3,-12
1693678376641013800,-5,-1,3,4,1,-2,-4,6
1693678376642013900,-11,-5,-3,4,9,4,6,-7
1693678376656005800,1,3,-2,-7,-5,0,-2,10
1693678376658004200,3,-2,-8,-6,-2,-1,1,-1
1693678376659004300,-1,-6,-16,-7,38,11,3,-13
1693678376660003500,-3,3,44,-7,-73,-31,-7,-1
1693678376678993700,6,1,-5,57,41,-1,-2,10
1693678376679992600,3,4,0,-40,13,28,3,-8
1693678376685988900,-5,-3,8,13,-4,-37,0,0
1693678376687987900,-2,1,10,-38,-61,-47,0,-1
1693678376691983900,4,0,-14,-9,74,22,-5,8
1693678376693982900,-5,-4,-1,9,10,-8,8,-9
1693678376701980700,-6,-3,-6,0,54,20,-6,-5
1693678376704978300,0,-5,-23,9,-1,-12,3,5
1693678376717973100,6,5,12,-14,-48,-13,-1,2
1693678376719970500,-6,-4,-6,4,-9,3,-3,-7
1693678376722966700,-1,0,3,4,0,9,1,2
1693678376723967000,3,2,0,14,29,21,1,1
1693678376744954400,-5,-5,-9,-31,-66,-30,-9,0
1693678376748953500,-4,-3,-6,1,26,15,-1,-2
1693678376753949700,4,2,13,7,-11,-4,1,2
1693678376755949700,-1,4,9,20,59,25,2,0
1693678376758946000,1,1,-3,-4,27,2,2,3
1693678376761944700,0,-1,5,10,-34,-11,-3,-1
1693678376772939000,-1,-5,-4,2,65,-6,-3,-2
1693678376778936300,-3,-6,-14,-3,-30,10,-1,0
1693678376779936200,-3,-1,1,-16,-10,4,-4,1
1693678376785931600,-1,-4,0,-6,3,-25,-4,-4
1693678376787930300,-2,-1,-7,-8,-74,12,1,-3
1693678376788930100,-2,2,-5,-7,35,15,-1,-2
1693678376800924900,4,7,30,28,-24,5,4,4
1693678376803921200,-3,1,3,7,-1,-5,0,-1
1693678376804920700,0,-4,-2,0,25,20,3,-1
1693678376805921200,-1,-5,-15,-10,-11,-59,-4,-2
1693678376822912500,-1,-4,-14,-17,-49,-28,-7,-3
1693678376824909600,-4,-5,-1,5,61,20,1,0
1693678376826907600,3,5,4,-8,-60,-9,1,1
1693678376829906400,-7,-8,-17,-5,4,15,-3,-2
1693678376836903300,2,-9,0,1,52,21,11,5
1693678376839900900,4,18,14,5,-64,-20,-5,7
1693678376842899100,-14,0,6,-10,-34,2,-8,-51
1693678376844898000,31,22,3,12,28,24,-9,57
1693678376858888600,-80,-93,-26,-11,21,-5,10,21
1693678376859889800,18,24,-28,-35,-17,2,-17,-18
1693678376861887200,-46,9,58,56,-5,-9,19,21
1693678376862887200,73,60,-32,-25,8,9,-14,-28
1693678376872882100,-72,-79,27,33,21,11,30,40
1693678376874882500,92,77,-27,-16,-33,-13,16,-46
1693678376885875600,-65,-60,-20,-31,18,-10,-43,11
1693678376888872900,-102,87,22,31,10,0,-10,-17
1693678376894868000,127,35,37,7,-1,3,-2,71
1693678376896867600,59,16,9,-6,-19,-16,-25,-40
1693678376903864100,36,-22,-28,-27,-17,-22,-35,-68
1693678376905863500,-79,-128,-27,-21,-10,15,28,50
1693678376919855800,33,97,-22,-9,4,2,-34,-44
1693678376924851800,-58,-35,18,16,20,6,21,42
1693678376926850800,24,9,-11,-8,2,6,27,24
1693678376927850700,-53,-36,5,0,2,0,-12,-21
1693678376940841300,-33,8,2,9,43,11,2,-5
1693678376942842300,-9,-5,12,12,-52,-2,16,-7
1693678376943841000,12,10,-6,-5,-10,13,30,28
1693678376945839900,-2,-25,5,6,-23,-22,-11,-17
1693678376955833600,20,34,-4,-14,-11,-6,4,-27
1693678376956833800,-13,-17,-2,10,41,15,-4,25
1693678376962829800,-19,-20,5,13,8,0,-9,-7
1693678376964829500,46,34,8,-2,-17,3,9,-3
1693678376978820100,9,4,-12,-14,-8,-5,-7,-24
1693678376980819100,-39,-33,-6,1,7,2,-3,6
1693678376984817800,6,15,16,10,2,-2,6,16
1693678376986816500,26,10,2,-2,26,5,9,-19
1693678377001808200,-13,-5,3,-2,-16,-1,-6,-3
1693678377004806700,-35,-30,-3,5,16,4,-1,7
1693678377005805500,16,18,-4,-1,-5,-6,4,3
1693678377006804800,17,2,0,-3,10,5,-2,2
1693678377016800200,-17,-14,-10,-5,-23,-4,-5,-18
1693678377019799200,-5,1,2,0,-3,-3,1,6
1693678377022795000,15,11,-2,-1,24,8,0,2
1693678377023795000,-2,-9,1,0,-10,-10,-2,-5
1693678377038785800,-13,-3,-6,-2,-26,4,2,-3
1693678377040786100,7,3,7,2,10,0,-1,-3
1693678377041784700,-1,1,-5,-1,5,-2,-3,5
1693678377042784100,-7,-8,4,3,9,1,0,-1
1693678377062773800,8,7,0,-1,1,0,2,-9
1693678377065772000,-11,-8,-6,1,28,11,0,2
1693678377070769000,-5,-6,-10,-14,-58,-26,-9,5
1693678377072769900,0,-3,-22,-16,5,5,-3,-6
1693678377075764500,11,11,35,46,-3,4,5,4
1693678377077764700,-6,-4,9,-25,4,2,-2,1
1693678377083767600,-1,0,-2,-8,24,-9,2,-2
1693678377086759600,9,2,-5,-5,-84,4,0,-5
1693678377100752800,-10,-9,-41,-7,19,-42,-8,-6
1693678377102751300,-8,-6,29,18,15,13,0,5
1693678377104748800,4,6,6,9,11,13,1,2
1693678377105747100,3,-4,-10,-23,-68,-22,-7,-3
1693678377121737900,-4,-5,-8,0,20,13,-3,-6
1693678377122739700,-2,3,19,17,-11,22,4,1
1693678377124738700,2,-4,-9,-13,-63,-14,-1,-3
1693678377125737700,3,2,-2,-4,18,-7,0,-3
1693678377140098000,0,1,8,17,69,17,0,-2
1693678377142097700,-3,-2,-9,-15,-59,-20,-2,-1
1693678377143094800,5,2,2,10,25,12,2,3
1693678377145093900,0,-3,3,12,51,9,2,1
1693678377159084900,-5,-2,-8,-37,-85,-10,-3,-3
1693678377160085100,-4,-5,-10,2,9,-10,-3,-2
1693678377161084500,-2,1,3,4,-13,3,-4,-53
1693678377163083400,0,-3,3,9,30,11,3,69
1693678377183072700,0,4,2,-13,15,8,2,3
1693678377186069800,2,6,10,24,18,-10,3,2
1693678377188070000,1,-1,-1,2,7,3,-10,2
1693678377189069700,1,1,2,1,-32,0,3,-16
1693678377195064600,-4,-5,-11,-15,-22,4,-3,-7
1693678377196064100,-5,-9,-16,-7,0,-1,-1,15
1693678377209057300,5,4,0,3,29,-1,4,-8
1693678377210056300,7,14,35,24,29,4,0,-13
1693678377219051600,-1,-1,1,-2,-5,6,2,11
1693678377222050000,-7,-13,-12,-7,11,-9,-7,-15
1693678377224049800,-1,3,-9,-9,1,-2,-3,11
1693678377225048900,1,-2,-4,-1,3,4,0,-11
1693678377241038200,-1,-3,-2,-4,-15,0,2,-1
1693678377243040700,-2,2,1,-5,26,-4,-5,-8
1693678377244036800,-2,-1,5,1,-4,1,0,13
1693678377245036200,-4,-5,-3,4,34,0,1,-1
1693678377255029700,1,-3,3,5,-51,-4,-1,-12
1693678377256030400,-2,-2,-6,-3,26,-1,0,-7
1693678377275020400,1,3,3,-4,-47,3,-2,26
1693678377277018300,0,-1,-1,10,24,-12,-5,-15
1693678377279017000,-2,-3,-4,-20,-39,-9,-3,-1
1693678377284016100,-2,-3,-8,4,24,2,-1,2
1693678377288012800,-1,-2,0,-1,17,8,6,4
1693678377290013000,1,5,4,7,-9,-3,2,-9
1693678377302004300,-3,-1,7,4,31,-28,-1,4
1693678377304002700,1,0,1,-5,-15,9,-11,-1
1693678377306001200,0,-3,-2,-2,9,27,4,-4
1693678377308002600,-1,-4,-8,-10,30,12,0,-3
1693678377317996100,-2,-3,-3,1,43,-11,-4,-4
1693678377319994200,-1,0,-2,-5,-45,27,6,2
1693678377323990500,-5,-5,-6,-14,-56,-9,-6,-3
1693678377324992200,1,2,1,1,71,-67,-5,0
1693678377349977800,2,1,7,14,38,47,5,6
1693678377358970800,-13,20,14,-10,23,-73,3,3
1693678377359970600,-12,-15,-38,-13,1,22,-36,-26
1693678377360970600,-36,-57,9,26,-26,19,-9,-16
1693678377363968100,-59,14,7,-6,-30,-17,-26,-7
1693678377369965500,67,-8,-22,-1,6,17,18,2
1693678377371965200,-64,-19,33,16,21,-21,0,-2
1693678377372962900,116,114,9,-4,-7,19,33,-39
1693678377374961800,-87,-104,-38,-18,16,-2,-5,69
1693678377375961400,75,54,7,20,2,12,-29,20
1693678377384956400,106,-3,3,-1,15,-2,57,19
1693678377386956700,-128,3,-8,-12,-55,-33,4,-83
1693678377400947500,124,43,2,-4,-1,12,-43,11
1693678377402946900,70,46,8,-5,-7,6,59,19
1693678377404945000,-90,-28,-11,-5,1,-29,12,-37
1693678377405945600,-27,-43,2,-1,13,26,13,66
1693678377420935300,-42,-40,1,2,-3,-5,9,-18
1693678377422936000,-88,-53,-17,-12,-15,-19,-30,-13
1693678377423935900,24,27,11,19,35,11,8,16
1693678377425934000,-35,-7,1,-7,-7,15,-1,-4
1693678377438936200,10,24,0,-2,-5,-6,14,-16
1693678377439934100,-5,-10,5,6,4,12,-4,-3
1693678377443929200,-30,23,8,2,-22,-4,0,0
1693678377444929600,22,-16,-9,-9,-4,3,-12,18
1693678377458920700,33,21,4,4,-5,-3,0,-6
1693678377459920700,-25,4,0,-3,-11,5,5,-6
1693678377461920600,1,-11,0,3,11,-8,-16,-2
1693678377463920300,19,-8,-10,-11,-8,-5,-16,11
1693678377484909800,17,21,7,6,7,5,19,-12
1693678377485909000,-49,-19,-1,-5,8,3,0,-16
1693678377487904600,8,-1,-21,9,18,-2,-8,9
1693678377488904200,23,2,7,-23,17,16,-4,10
1693678377499899400,-27,8,-6,6,5,-16,7,-17
1693678377511890900,-18,-15,1,-4,-4,-6,-9,-2
1693678377515889500,17,-4,-23,3,-39,-16,-9,10
1693678377518889000,4,7,14,13,2,11,1,6
1693678377521887100,-3,1,5,-4,-33,39,10,-9
1693678377523883500,-9,-7,-14,-4,54,-39,-8,-5
1693678377526632800,6,6,8,-24,-67,-24,-9,-2
1693678377528615800,-11,-10,-26,0,49,13,2,-1
1693678377541606100,0,6,10,14,19,-1,1,-4
1693678377543606900,-5,-5,-3,-8,-65,20,1,-1
1693678377545604300,-7,6,2,8,-11,21,5,2
1693678377547603600,1,-6,2,-1,15,-22,-6,2
1693678377555598200,6,2,2,-6,19,16,2,-2
1693678377556597500,-5,2,2,17,48,14,2,1
1693678377565593200,0,-1,5,-9,-49,-14,-4,-2
1693678377569592500,2,-3,-1,1,-23,32,-3,3
1693678377578584500,-1,-1,-19,-28,-2,-76,-6,-7
1693678377580585100,-8,-1,10,16,42,32,3,-3
1693678377585582800,3,2,5,0,-6,-5,-1,3
1693678377587580600,3,-2,-1,2,8,32,-1,2
1693678377606569400,-4,4,-4,2,18,-45,1,-3
1693678377608568700,-4,-4,5,-5,-43,-10,-3,-1
1693678377610569100,2,2,0,-8,-7,-3,-3,-1
1693678377612567600,3,2,2,12,-1,1,3,-6
1693678377617564100,-2,-3,-3,-7,7,22,-6,5
1693678377619562300,-11,-11,-2,-4,2,-11,-3,-3
1693678377623558900,15,16,2,10,50,13,8,16
1693678377625560100,-11,-13,-13,-7,-9,-17,15,-65
1693678377638550400,-49,-39,-16,-13,-12,8,-42,27
1693678377640549900,12,47,30,31,-25,-7,10,-1
1693678377641551100,24,6,25,4,35,8,-23,-29
1693678377642550300,-89,-49,-29,-30,-26,-23,12,80
1693678377662537900,69,89,-1,26,8,3,-52,-86
1693678377667538700,-5,-28,8,1,-7,5,-38,56
1693678377675531200,-108,29,7,-5,44,13,55,55
1693678377676530700,92,4,-15,-12,-19,-25,-61,39
1693678377678530200,71,82,18,9,-2,-2,-28,-52
1693678377681527500,-91,-72,27,7,-3,-2,6,6
1693678377687524000,73,-15,-13,-6,21,5,-41,-18
1693678377689522500,-106,-63,-8,8,-7,-7,9,-14
1693678377701516200,-83,-61,-14,-16,-19,10,37,31
1693678377703516800,5,28,-24,-8,-4,-8,-16,-37
1693678377705513400,-35,-48,11,5,16,2,20,5
1693678377706512500,26,40,-11,-11,-12,0,11,-3
1693678377728499500,12,-21,5,8,6,10,4,-6
1693678377730498100,20,18,3,1,0,3,11,-6
1693678377735497000,-5,-4,-17,-12,-1,-7,-1,5
1693678377737495000,37,11,13,13,10,1,-11,-13
1693678377738493000,-7,12,14,10,-4,7,20,15
1693678377740494400,14,-24,-24,-18,-4,-6,15,21
1693678377754486400,3,9,10,6,1,-3,-5,-29
1693678377757483500,-41,23,13,6,-9,-5,-13,-24
1693678377759481800,-16,-34,10,5,6,6,29,24
1693678377761480000,-4,5,-21,-20,-11,0,5,-8
1693678377769477100,20,-9,-13,-1,11,2,-12,-13
1693678377771475900,7,8,-9,-2,17,5,4,-3
1693678377783472900,-13,-4,53,15,-42,-7,15,14
1693678377786467700,18,-5,-16,8,5,-2,-7,-7
1693678377789464600,7,15,9,8,8,-3,-2,2
1693678377790466100,-4,-9,3,-9,6,3,15,5
1693678377804459100,2,-8,-22,-13,-11,-2,1,3
1693678377805455600,4,13,-3,7,19,9,-4,-13
1693678377807456200,-19,-16,6,-15,-52,-32,-1,0
1693678377808455000,11,7,1,5,4,11,1,2
1693678377828442200,-1,-9,-7,-2,-26,6,3,1
1693678377830441200,-5,-2,5,-10,37,-15,-3,-8
1693678377837437500,-16,-8,-21,-5,3,9,0,-1
1693678377840441300,16,4,10,4,-38,-12,-2,1
1693678377842434500,-2,-1,-5,1,12,3,6,2
1693678377844434400,-10,-5,-6,-4,21,8,5,-2
1693678377845433600,7,3,1,9,48,11,1,4
1693678377846432100,13,11,13,20,0,9,3,0
1693678377855427700,-11,-14,-12,-25,-19,-12,2,2
1693678377856427400,-4,-4,-7,-3,21,-3,-4,-5
1693678377865421900,0,0,-2,-10,-60,-18,-7,-3
1693678377868420500,3,2,7,2,-6,-2,1,-3
1693678377878414000,-6,-2,-6,1,-1,7,5,0
1693678377879412700,3,-2,1,-2,-12,2,1,-2
1693678377885411000,1,3,1,6,-9,6,1,1
1693678377887410000,-1,0,4,5,11,2,2,-6
1693678377902401600,-2,-3,-3,1,13,-2,0,3
1693678377903400500,3,3,-3,-2,-17,-7,-2,-3
1693678377904399900,-3,-5,-4,-1,31,11,0,-2
1693678377906399300,1,-1,-6,-13,-11,-9,-1,2
1693678377924387000,1,-5,-4,0,31,1,-2,-3
1693678377926388000,-1,0,5,2,-27,0,0,-4
1693678377927385700,-3,-3,-8,4,8,1,2,3
1693678377928385400,2,3,5,-3,14,-1,-3,-3
1693678377937380700,0,-1,0,-1,12,3,0,1
1693678377939378500,-3,-8,-13,-7,-32,-3,-1,-2
1693678377946375600,2,10,13,9,2,3,1,2
1693678377949374000,1,0,4,1,-25,-7,-2,0
1693678377961365500,-2,-2,-4,6,86,16,2,0
1693678377963366600,0,-2,-2,-4,-48,-3,1,1
1693678377968364200,-3,-5,-10,-16,0,-14,-5,-4
1693678377969362800,2,0,-7,6,3,5,2,0
1693678377985352900,-3,2,6,-3,-38,-9,-1,-1
1693678377988351200,1,0,2,6,74,13,0,-1
1693678377989350100,0,1,0,5,66,5,0,1
1693678377991349500,-2,-3,1,-10,-33,-4,-3,-5
1693678378000346100,-2,-2,-2,1,-33,-2,0,5
1693678378002344400,1,1,-2,-1,7,1,1,16
1693678378004342300,-1,-1,7,5,16,6,0,-3
1693678378006340300,-2,-2,-6,-3,55,-4,0,8
1693678378021331900,0,0,-6,0,-4,3,0,-15
1693678378023333200,0,-1,-2,-12,-8,-13,-3,-7
1693678378027389500,1,3,4,16,19,21,5,11
1693678378028351400,0,-5,-4,-3,38,-28,-6,-10
1693678378047340100,-3,-3,-5,-7,-95,-27,-6,-2
1693678378052339200,-2,-2,-4,-2,-5,-2,-2,-2
1693678378055337400,4,7,11,7,83,8,3,1
1693678378057335600,2,4,10,31,-33,27,3,3
1693678378059334500,-3,-7,-4,-20,72,-16,-6,-1
1693678378060334000,-7,-8,-7,-10,26,-35,-10,-4
1693678378066356300,-2,-5,-13,-8,-115,8,-1,-7
1693678378069355200,2,2,-2,-8,8,20,2,3
1693678378083506500,-1,-1,2,4,-32,-25,2,7
1693678378086505000,-2,-4,3,11,33,15,4,-7
1693678378088502800,2,2,-10,-11,-37,-1,3,3
1693678378089502500,-7,-4,-1,-5,-35,-19,-9,-5
1693678378103400100,1,-3,13,9,25,18,2,0
1693678378104397400,6,0,-3,-3,-23,4,3,1
1693678378105396400,-30,-19,12,12,26,3,-19,17
1693678378106395300,-110,-12,-20,-14,-5,0,-14,-68
1693678378125564300,95,47,10,3,16,21,20,14
1693678378127566100,-110,-1,4,6,11,17,33,30
1693678378128568200,-75,52,3,-9,-31,-13,6,-35
1693678378132565100,102,-97,-11,-6,1,-35,-29,63
1693678378140504100,-25,95,18,18,35,26,15,73
1693678378142507300,117,-37,-9,-19,-72,-43,-3,28
1693678378143506800,19,-58,-3,9,31,20,82,43
1693678378144506300,-76,65,1,-10,0,3,-76,-3
1693678378163183600,-95,-26,-4,3,7,12,65,-113
1693678378169179800,-3,7,5,2,-14,4,-39,-5
1693678378171179900,101,-1,-3,-5,5,-21,-12,43
1693678378173177200,-60,-26,-4,3,24,6,28,-1
1693678378177174400,-54,-42,-11,-10,-21,0,-1,0
1693678378179175300,-86,2,-4,-5,3,11,-18,-47
1693678378185170600,-8,-1,-2,-5,-2,-10,-14,-9
1693678378187169200,31,15,-9,18,13,9,22,-2
1693678378201163000,8,0,65,24,7,-11,-11,-3
1693678378203160100,27,17,10,28,-32,0,14,20
1693678378208156000,-3,-3,-15,-3,78,-10,-24,-24
1693678378211155200,20,16,17,-28,-47,-16,8,-6
1693678378223147900,0,-15,-9,-14,-6,-3,-20,16
1693678378225146600,12,4,-2,4,8,7,-3,-7
1693678378227146100,-8,5,3,16,13,1,-8,-11
1693678378228145400,-5,2,-12,-9,7,10,21,-4
1693678378245518800,17,-17,-23,-6,6,-5,-19,10
1693678378249427600,0,2,-4,19,52,26,6,-7
1693678378251427400,-20,3,10,-24,-95,-24,-5,-16
1693678378253424800,15,0,5,16,9,-3,6,14
1693678378260505000,3,-14,-14,-2,-9,-8,-17,-1
1693678378262508000,-7,-1,-11,-25,33,9,0,-10
1693678378265509700,-15,-2,-3,-4,-15,2,-4,0
1693678378268504800,14,7,7,7,25,4,8,5
