timestamp,EMG_s0,EMG_s1,EMG_s2,EMG_s3,EMG_s4,EMG_s5,EMG_s6,EMG_s7
1693678070843425900,-1,-2,-10,-11,0,3,0,0
1693678070845422800,3,3,9,17,3,0,-3,1
1693678070846422800,-6,-5,-8,-8,-3,-2,0,-3
1693678070847422700,-1,-6,-37,37,20,2,3,-1
1693678070848421500,5,14,80,5,-23,-2,14,6
1693678070849420800,0,1,-8,-31,-3,-13,-34,-5
1693678070850420000,1,4,1,8,-4,3,8,3
1693678070850420000,-4,-3,5,7,2,9,-4,0
1693678070854508600,-1,-7,-28,-3,2,-2,-19,-8
1693678070855504700,0,-5,-12,5,-7,-2,17,3
1693678070860500800,-13,-11,-37,-104,15,4,5,-3
1693678070862499500,3,18,89,75,-42,-1,-1,3
1693678070868136200,-1,0,-12,-13,17,10,15,0
1693678070872129700,-1,-2,3,-5,-12,-18,-20,-5
1693678070888056500,4,-4,-17,-1,20,14,-8,-1
1693678070889057400,-1,-6,-19,-22,-16,-27,2,-2
1693678070890055400,-1,0,-3,-6,-12,3,-4,-2
1693678070891055200,0,-2,-6,2,2,13,8,0
1693678070916517100,0,7,16,16,-2,-5,-2,1
1693678070918507500,-3,-4,-27,-60,-5,2,-3,0
1693678070920488100,7,10,26,42,76,29,2,4
1693678070922487300,3,-8,-24,1,-83,-12,7,2
1693678070928137700,5,-3,14,11,-24,-10,28,-1
1693678070929150300,-18,-6,-1,7,-63,-56,-79,-16
1693678070967548600,110,17,-11,-20,-24,-1,10,19
1693678070971552500,-68,-15,-9,52,78,107,95,-9
1693678070972545700,-80,-21,-13,-1,9,-73,-47,-51
1693678070974548700,88,12,10,-30,28,-47,-39,66
1693678070975548400,-65,6,0,7,63,57,81,21
1693678070976546100,127,26,-14,5,9,-39,-117,-47
1693678070977544900,-91,-56,-9,-23,10,53,127,-3
1693678070978544000,-128,-34,53,16,72,-33,-91,-80
1693678070979543400,30,-23,-26,-30,-42,-104,-111,-29
1693678070981540100,105,34,16,-10,25,67,-33,26
1693678070988429200,127,38,-2,-29,-47,-6,86,87
1693678070989429300,-13,-3,-17,6,-27,-27,20,-89
1693678071004315800,3,-3,6,-56,16,10,-24,37
1693678071006318300,28,17,13,71,2,-58,64,53
1693678071009312800,48,-11,-45,-42,-50,-26,-102,-11
1693678071010334100,-6,12,71,66,-3,127,60,11
1693678071032573200,-69,-21,-3,0,57,-35,89,-31
1693678071033572800,-128,-37,-33,0,-88,-5,-57,-95
1693678071041424700,77,13,2,-50,81,-19,79,41
1693678071043422900,25,-3,-122,49,-67,75,66,52
1693678071045424700,82,46,102,105,18,17,108,58
1693678071045424700,38,-37,-43,-128,-16,-55,-71,-17
1693678071054492500,-128,9,127,127,-22,-83,-13,-18
1693678071055491600,-108,-42,-68,-18,-51,-57,108,-128
1693678071063292500,124,-7,-77,-112,104,55,-3,22
1693678071064291700,3,65,94,108,-69,11,127,72
1693678071077284600,104,-4,-64,102,71,120,-106,24
1693678071078302600,15,-8,-46,-105,-13,-83,-17,44
1693678071086816400,-49,-10,-23,82,-89,39,35,-21
1693678071088815200,-46,-8,11,-104,72,56,9,22
1693678071100504000,38,5,-24,-118,13,25,22,-57
1693678071103507800,94,46,38,36,67,90,-57,73
1693678071105528600,-128,-44,-45,54,-40,-53,41,-72
1693678071107510000,15,-13,-26,-41,-15,-63,127,48
1693678071114506100,-14,2,33,-20,-23,60,-45,-16
1693678071115520000,18,-17,-57,-32,29,-25,13,13
1693678071123292500,54,35,22,45,-21,40,-6,-26
1693678071124311100,13,-4,-53,-52,14,-7,2,25
1693678071137431400,-76,-16,-41,-9,-30,-51,-86,-36
1693678071139429300,20,20,49,-80,20,16,80,36
1693678071145446700,-25,-24,-61,50,15,-21,13,2
1693678071146445100,9,-5,16,-74,-11,-8,-60,-37
1693678071160215200,-2,6,-8,-83,-15,-75,-6,12
1693678071162192500,30,-1,-3,17,-4,17,-13,-6
1693678071163194600,-29,3,15,-44,29,25,30,23
1693678071164193400,1,-19,-24,15,-1,12,-31,-17
1693678071174265300,17,10,9,23,9,16,45,-3
1693678071175285500,-17,3,19,1,-14,-20,-41,-4
1693678071183292600,-9,-1,9,-21,-5,-6,-56,-5
1693678071184292500,-29,-11,8,48,8,-9,-33,-13
1693678071196463700,11,7,8,30,-2,10,5,6
1693678071198415200,-12,0,9,16,-1,-12,-1,-13
1693678071205388300,11,0,-3,-37,-16,-1,-56,31
1693678071207388700,0,-7,-9,14,-13,-8,-13,-8
1693678071221262000,-12,-4,-31,3,16,17,73,11
1693678071222259500,19,8,52,67,8,-3,-7,13
1693678071223260400,3,16,11,-17,-23,-12,-4,-22
1693678071225259400,-24,-9,28,4,9,-3,3,-4
1693678071243249100,5,1,-2,16,-2,7,13,-6
1693678071244267400,-5,2,-6,-4,25,-4,-19,0
1693678071245267400,-3,-10,0,-39,-22,-5,-41,-23
1693678071246266600,-11,0,-9,45,5,-12,31,43
1693678071256508200,-1,-4,-12,-31,1,-2,-17,-27
1693678071257486900,13,5,1,6,1,-3,-2,19
1693678071265790800,-5,1,6,1,10,5,0,-4
1693678071266794300,-6,-7,-21,-6,14,7,6,-23
1693678071280511700,2,8,16,15,-18,10,-19,-3
1693678071282539500,-5,-7,-10,-19,-14,-20,-3,-7
1693678071283538500,1,0,5,-6,4,2,-12,5
1693678071283538500,-8,1,-3,7,-18,6,26,-30
1693678071294429800,-2,-5,1,12,20,-12,9,25
1693678071295424700,-1,1,-5,-11,-20,9,9,-5
1693678071304342200,2,1,1,-1,-8,0,-17,-15
1693678071306343300,-3,2,5,15,16,1,-23,6
1693678071316485800,1,2,0,0,1,9,20,38
1693678071318511100,6,-9,-15,-27,-9,-5,-19,-52
1693678071325485200,0,5,6,12,-5,-5,8,-13
1693678071326501800,-4,0,8,-4,3,0,-11,29
1693678071340938600,3,8,14,24,6,4,22,-12
1693678071341938000,0,-4,2,-5,-11,-13,-35,60
1693678071343940000,-6,-7,-10,-15,1,-1,-22,-75
1693678071344959000,-2,5,9,22,3,0,-11,-8
1693678071378612400,3,-2,-13,-15,-6,-4,2,-20
1693678071380616000,-13,-6,-4,2,6,3,16,6
1693678071381617800,-2,-1,3,-3,-4,-7,-16,14
1693678071382617000,-2,-5,-8,-7,0,1,-1,0
1693678071383616000,3,-1,2,-2,-4,-8,-3,-5
1693678071384616000,0,-1,-3,5,-3,1,11,-11
1693678071387618600,0,-2,4,0,-2,-1,-12,29
1693678071388613300,-2,0,-1,-2,-3,0,2,-9
1693678071401007200,-1,-3,-3,0,0,7,-5,-1
1693678071404007900,2,1,-4,-5,-2,-2,5,-3
1693678071406007500,-1,1,7,5,-1,0,5,15
1693678071407006600,2,2,3,4,0,-7,-7,-4
1693678071422984400,-3,-2,-4,-11,1,5,-2,-10
1693678071424982000,-1,0,-3,-8,-4,-3,2,-2
1693678071425983100,-2,-8,-3,7,1,-1,5,11
1693678071426980600,3,10,5,-8,4,0,-5,-5
1693678071437569600,1,-2,5,6,17,6,1,3
1693678071439570400,-1,1,4,7,-26,0,5,-1
1693678071446020400,-2,-1,-8,-7,-27,-12,-8,8
1693678071447037900,-4,-7,-17,-17,25,11,-2,-8
1693678071460504200,-1,4,-21,-5,11,-8,-2,3
1693678071462509300,4,1,10,0,17,-3,-2,-1
1693678071463528400,-2,6,23,7,28,1,4,0
1693678071464527600,1,-3,-12,7,27,8,0,-1
1693678071483485300,-1,2,-11,13,13,10,-1,0
1693678071484489800,2,1,0,-13,-20,2,2,0
1693678071487492000,2,-1,25,41,30,4,5,6
1693678071488489000,-1,0,-1,10,30,-2,0,-1
1693678071496571900,-5,-13,-26,-42,-7,-7,-7,-3
1693678071498595200,-4,-6,-11,-20,19,-23,-4,-7
1693678071505487600,-5,-9,-45,-13,59,30,0,2
1693678071507508300,3,11,70,32,22,-25,1,3
1693678071521501300,1,3,27,37,-41,-6,-1,0
1693678071522496600,-2,-1,1,18,34,17,-2,-3
1693678071524497600,4,-1,-14,-26,-50,-24,2,3
1693678071525496500,-5,-7,-30,12,-11,23,-1,-3
1693678071543485700,-2,2,13,-11,-19,-24,0,0
1693678071545483300,-1,0,11,18,22,12,0,0
1693678071546482200,-2,-2,-27,-31,20,-7,2,0
1693678071546482200,1,-2,1,-2,-19,11,-1,0
1693678071556519300,3,5,27,-2,3,-11,0,-1
1693678071558517800,-2,-2,-14,12,35,-6,-2,-2
1693678071565530100,2,3,8,-8,-98,31,5,1
1693678071566532000,-9,-13,-39,-27,56,-65,-8,-15
1693678071580503400,-3,-1,-8,-19,52,53,-3,11
1693678071582507100,1,0,-1,1,-31,-36,-3,8
1693678071583506600,0,3,4,14,21,15,-1,-16
1693678071584505800,1,0,4,-14,-43,0,2,21
1693678071604489700,-5,-7,3,20,-24,-46,-3,-15
1693678071605490500,-1,0,5,5,-4,18,7,-11
1693678071607509000,-2,-2,7,3,-4,-4,4,23
1693678071608507500,2,-5,-19,-3,6,18,1,-11
1693678071616486100,1,3,5,0,13,8,1,-4
1693678071617512200,2,0,-8,-32,-18,7,2,1
1693678071625524300,1,-1,19,40,11,-19,4,23
1693678071626485500,0,-2,-1,3,-22,8,-16,-24
1693678071639450400,-5,-8,-41,-35,-28,-7,5,5
1693678071641428700,-2,0,1,-21,-5,25,16,32
1693678071646531300,0,7,15,-9,20,16,-11,-14
1693678071648557100,-1,0,-11,5,14,7,-1,14
1693678071662471500,6,7,21,12,-43,-3,-6,-14
1693678071664470100,-3,-4,-8,-22,-8,16,-9,-14
1693678071666467700,-1,-2,-6,-11,39,-34,-4,-4
1693678071667466900,-6,-5,-12,-7,-70,-12,2,-3
1693678071676461600,-4,-2,-5,0,-31,53,-2,-1
1693678071678461500,-1,1,9,-19,29,-39,-3,1
1693678071687455700,3,5,21,82,-20,-5,-1,-5
1693678071689456400,2,4,20,6,14,15,14,11
1693678071699448300,2,1,-5,-1,38,-6,1,1
1693678071701450300,7,-1,-13,-8,-37,5,-3,-3
1693678071706445500,-10,-11,-31,-29,22,18,-16,4
1693678071708445300,-9,0,6,17,11,-52,-14,-30
1693678071722945600,0,4,39,6,-5,-1,3,16
1693678071724941400,2,-10,-14,11,-8,3,-5,-7
1693678071725945800,-15,-3,-14,-21,4,-16,4,2
1693678071726943100,22,0,-3,-8,3,30,10,36
1693678071737953400,4,-1,-24,-35,-14,-34,-2,-20
1693678071738943600,-14,1,13,53,10,7,11,-15
1693678071745532300,4,13,31,19,-14,15,16,19
1693678071746551800,89,9,-2,-31,-58,-2,-11,50
1693678071760504700,-17,2,2,0,17,59,9,-51
1693678071762508800,-78,-32,-29,11,-5,-37,-23,-69
1693678071763529000,-12,-13,9,-61,-14,-46,-106,-27
1693678071764527900,-9,6,1,12,9,-35,-4,-2
1693678071783523900,36,2,-9,5,56,8,35,45
1693678071784522300,10,4,-1,13,8,-3,8,16
1693678071787523100,-2,1,-4,13,-5,25,43,-6
1693678071789520500,39,6,-5,-20,11,-6,-2,15
1693678071796514200,103,8,-6,0,5,2,15,85
1693678071797515300,-91,-28,8,25,7,1,-9,-84
1693678071805511700,10,-8,-7,-12,-20,-24,29,1
1693678071807510100,-25,-9,5,-2,42,20,-13,-15
1693678071820502300,10,4,0,1,-53,-39,-3,9
1693678071822506300,61,27,-1,-41,12,6,10,50
1693678071828497900,87,15,2,33,23,42,42,74
1693678071829497800,-8,-16,-6,10,1,12,71,-2
1693678071842489700,-109,-23,31,22,-28,-21,-84,-109
1693678071844488100,11,-2,-14,-22,4,3,-58,24
1693678071845488000,-12,7,8,-1,5,-27,2,-14
1693678071846486000,6,4,-10,2,31,-24,8,25
1693678071857397900,13,-8,-28,-33,-39,38,48,37
1693678071858400900,88,13,8,-3,-38,3,78,-5
1693678071865724500,-87,-9,-23,-3,31,-11,-96,-69
1693678071866723300,9,14,40,10,-35,17,14,-9
1693678071879043200,-33,-6,-3,8,31,-9,-14,-23
1693678071880943100,48,24,15,14,17,16,0,56
1693678071888430900,127,32,-57,-56,-12,43,56,83
1693678071889432200,-102,-38,88,55,0,36,85,-84
1693678071904572700,-88,-18,-21,-15,10,-38,-82,-91
1693678071905576500,7,-14,2,21,26,-71,-72,2
1693678071907574100,66,21,7,-17,-11,-34,7,52
1693678071908575700,-38,7,-28,-17,-12,11,47,-65
1693678071916487000,127,19,-3,-1,21,-9,-43,-64
1693678071918494400,-21,14,-19,-62,-18,12,7,-10
1693678071933481600,12,-23,12,74,-10,11,57,8
1693678071934484800,-96,3,21,30,-9,-18,-57,28
1693678071948538000,11,-25,-12,9,11,99,127,-66
1693678071949543400,-41,-19,27,-40,11,-90,-64,-19
1693678071950559900,82,2,-52,-119,18,-18,3,108
1693678071951563400,43,-11,-85,-6,-30,1,-55,111
1693678071961595700,16,10,84,58,8,79,96,-6
1693678071963556500,-100,-50,-12,-24,-51,-59,-60,-42
1693678071971097900,47,-10,-9,-45,1,46,96,-39
1693678071972096700,-47,67,88,29,-93,-128,10,-35
1693678071987266600,48,-8,-111,-106,61,51,-15,35
1693678071989267000,2,2,-51,52,38,101,55,36
1693678071991286500,-26,-14,-25,-6,34,-26,-44,-86
1693678071993262200,127,-17,-109,-97,61,69,32,56
1693678072008254800,-76,79,116,122,-26,-7,-1,22
1693678072010253100,-25,-37,-90,-107,18,-44,93,47
1693678072013251100,13,3,76,74,3,17,-45,41
1693678072014254300,-74,-16,18,7,-45,67,61,-97
1693678072021247500,96,-28,-51,64,105,-99,-64,3
1693678072023246200,95,64,72,-77,-50,40,7,66
1693678072030241300,-86,-66,-93,-51,27,-27,37,-42
1693678072032239800,-49,26,123,117,38,35,67,-70
1693678072045234800,-1,-39,-106,-128,-25,96,-54,60
1693678072047231200,67,13,4,-6,-67,-64,-128,-71
1693678072049230300,100,16,11,49,-54,7,116,-37
1693678072050229500,-78,-55,-68,-128,46,-55,-116,31
1693678072067905800,13,-5,-56,-119,-6,2,98,44
1693678072071907900,127,38,80,-10,111,76,108,10
1693678072072908300,73,7,-32,-28,-78,59,49,50
1693678072073906100,-30,0,47,-56,-56,60,-98,3
1693678072081556400,70,11,-11,-27,87,57,16,29
1693678072083575300,75,-23,-126,-110,-13,-58,-8,-19
1693678072090571800,-128,-10,21,-19,64,-46,66,-88
1693678072092445700,114,-4,-68,8,30,-47,-72,1
1693678072105531600,35,16,73,79,-6,-66,-128,56
1693678072107531200,-80,9,59,104,-39,115,127,17
1693678072108530600,-57,-6,-26,-87,86,11,-91,-127
1693678072110549600,-27,20,54,-45,-34,70,-10,124
1693678072128486900,-48,-29,-10,12,-22,-91,-59,-15
1693678072129507400,-52,20,39,77,-29,49,23,-41
1693678072130506500,21,4,25,-34,16,-53,-8,15
1693678072131505900,42,-9,-89,-72,25,8,-5,-34
1693678072141630900,-29,7,-11,-128,-30,33,16,-10
1693678072143629500,108,9,-38,99,17,73,86,17
1693678072150504600,-97,-4,38,59,-76,1,-110,-22
1693678072152507900,0,-13,-22,-4,24,33,93,-5
1693678072165483900,-21,-3,16,36,10,-38,8,6
1693678072167430800,-33,-7,-24,6,1,17,-25,2
1693678072168450300,10,10,11,11,-10,19,-12,2
1693678072170427900,49,8,-4,22,-23,-52,4,3
1693678072188427900,-32,-7,-14,-13,16,-19,1,-13
1693678072190426300,-14,-3,24,-16,50,20,-21,17
1693678072191425300,-7,11,15,12,-88,-23,-35,23
1693678072193424400,37,11,-8,-24,80,-6,-8,-19
1693678072204005800,-15,7,15,35,-4,-7,58,24
1693678072206004900,-23,-21,-13,-8,28,-33,-78,-34
1693678072211002800,14,12,23,4,-6,33,4,8
1693678072212025000,8,2,-16,45,37,-11,13,-48
1693678072226050700,6,-4,-3,-29,-31,-44,33,53
1693678072227040300,-26,-5,0,-3,-13,-5,-40,-25
1693678072229050600,6,7,-9,-24,-57,-15,5,104
1693678072229050600,22,-16,-6,-11,30,-3,-46,-67
1693678072248493700,-39,15,12,48,-8,26,12,-43
1693678072249491400,-8,-8,13,-11,65,-20,-14,4
1693678072250490900,27,4,4,52,121,51,-6,39
1693678072251490100,15,-5,-22,-50,-81,-64,-70,-73
1693678072261605300,-20,-5,2,-35,-98,-32,84,92
1693678072263573900,-16,3,0,34,108,1,-22,-70
1693678072270997200,2,8,8,-11,-4,12,46,26
1693678072272996700,13,-3,-1,16,-28,10,38,41
1693678072287253000,19,5,-3,15,55,20,-59,32
1693678072289273000,-11,-16,-20,-61,-118,-62,16,-52
1693678072291272000,-16,-7,2,9,-9,-7,0,71
1693678072292271400,11,7,3,18,23,10,-7,-38
1693678072308331000,-4,0,5,-5,37,12,17,-42
1693678072309331000,3,12,17,9,-78,11,2,-47
1693678072311351500,-10,-18,-14,-9,69,-25,-1,15
1693678072311351500,-2,3,-8,-16,39,-6,-1,58
1693678072321995300,13,-6,-3,3,39,2,-1,-49
1693678072322996500,9,5,14,36,88,39,25,69
1693678072330507000,-8,-2,-4,-17,-20,-13,6,-58
1693678072332512500,10,1,8,-1,-68,15,-6,55
1693678072345209000,0,1,3,39,105,11,-84,2
1693678072347213300,-5,-4,-7,-32,-94,-40,-10,-84
1693678072351594000,-7,1,-7,3,97,12,7,15
1693678072354557000,3,4,4,23,86,18,37,-58
1693678072370505500,1,3,8,23,17,4,14,50
1693678072372505100,-14,-6,-16,-63,38,-19,22,3
1693678072374506300,8,5,13,93,76,19,-23,-15
1693678072375506300,2,-6,-25,-101,-124,-61,-17,80
1693678072381740600,-4,-6,0,100,113,12,13,-39
1693678072382761500,5,2,4,53,113,5,-10,60
1693678072390426900,-1,2,5,-22,-102,-18,-4,-55
1693678072392427500,3,-2,6,30,62,39,16,19
1693678072413485400,-5,2,3,-29,38,37,-15,-63
1693678072414497200,-4,-16,-24,-59,-102,-54,-7,55
1693678072415495800,2,10,15,4,100,17,-21,-45
1693678072416494000,9,9,14,114,127,12,-3,-2
1693678072427956600,-6,-19,-38,-128,-128,-90,21,55
1693678072429960900,-3,3,9,78,111,25,-2,-64
1693678072430981700,-15,-24,-33,-81,-32,-34,-28,28
1693678072431980800,4,-4,-7,-27,-78,21,41,50
1693678072450504300,5,3,10,43,80,4,-8,-9
1693678072454512300,6,-1,-1,-53,-44,6,0,15
1693678072456508100,-4,-2,-19,-22,-93,-14,-31,-115
1693678072457506900,-3,3,11,18,-61,4,-1,69
1693678072465431900,0,2,10,4,-63,5,17,-8
1693678072467451800,17,9,13,13,-55,0,-2,125
1693678072468442400,-9,-2,4,26,29,-13,-13,-78
1693678072471431700,-4,-5,-9,-34,9,14,5,-16
1693678072488495500,1,0,2,-17,-108,-8,-43,-19
1693678072489497400,1,-2,5,45,91,46,9,18
1693678072490496600,-3,-2,-8,-30,-98,-1,0,-8
1693678072491497000,2,7,9,1,-11,-15,13,-11
1693678072502233600,-3,-4,-5,47,99,-2,14,-9
1693678072505234800,0,4,8,-10,-78,11,-6,-39
1693678072510505400,-1,-9,-8,-5,36,-9,13,72
1693678072511510700,-2,-3,-10,-19,-24,-23,-18,-38
1693678072524944500,3,3,6,16,-6,25,12,4
1693678072525965300,-1,-4,5,-8,9,15,1,12
1693678072533242700,5,7,10,8,-14,-17,8,15
1693678072535240400,-3,-2,-11,23,42,9,-4,-35
1693678072547933100,-3,-3,-26,-83,-18,-20,15,6
1693678072550958200,3,5,33,41,-4,-8,9,19
1693678072551957300,-3,-3,-2,4,9,26,-10,-17
1693678072554937200,-3,-3,-4,-2,16,-15,-3,-23
1693678072562538200,-4,-9,-26,-14,-34,16,6,-1
1693678072563534800,3,-3,-16,-23,-17,59,3,11
1693678072570935100,0,0,15,-3,14,-77,-7,11
1693678072571928600,1,2,5,23,47,-1,11,-8
1693678072584604600,-5,5,1,11,-34,25,-20,-9
1693678072588543900,-4,-7,-8,-59,-82,-19,-2,5
1693678072591540700,-1,0,-3,13,34,-28,3,0
1693678072593541800,-5,-4,-19,-10,35,-13,-3,-1
1693678072608531000,3,2,31,15,-6,11,11,-4
1693678072610530300,7,-6,-50,33,53,-2,18,57
1693678072612528000,41,23,57,9,-27,-1,10,17
1693678072613527400,-9,0,24,22,-23,-43,30,-18
1693678072621523400,-27,6,27,-30,-16,19,-63,-70
1693678072623522100,-26,-12,-8,28,21,-43,-28,-33
1693678072630517200,-38,-25,-59,-21,1,3,-3,-25
1693678072632517000,23,15,12,-8,12,2,-19,46
1693678072644511100,52,4,4,25,16,28,56,67
1693678072646508400,-12,7,19,-38,5,-33,17,9
1693678072651521600,-32,-16,-33,46,1,42,3,-38
1693678072655506900,-41,-19,-24,30,28,10,13,-64
1693678072667866900,4,21,45,-22,-41,-45,-24,15
1693678072671882100,27,-8,-34,-93,12,13,-19,19
1693678072673881200,60,22,46,-20,-27,-7,6,80
1693678072675879200,-14,-13,-23,47,4,6,-8,-29
1693678072681876000,-57,-21,-60,-56,40,-19,17,-14
1693678072682877900,73,23,23,6,1,-18,-23,-6
1693678072690871300,-30,-7,28,56,-15,41,35,86
1693678072692869100,37,25,58,-15,-23,59,52,-59
1693678072704863300,-99,-36,-44,46,-3,-83,-92,-86
1693678072706862400,36,7,-35,-101,-12,-55,3,65
1693678072711857900,27,1,-32,25,15,3,-20,-21
1693678072713857600,-46,-45,-64,-35,22,-10,-22,-45
1693678072727849200,41,63,20,18,33,40,84,116
1693678072729849000,-107,-11,53,39,-18,21,28,-128
1693678072733848500,-22,-71,-67,-49,19,-12,9,127
1693678072737846100,106,15,36,-32,-37,-108,-70,116
1693678072750706300,83,27,-44,47,15,90,28,78
1693678072754705700,104,10,87,-28,-20,-21,-26,35
1693678072756703200,-101,-7,7,26,8,-22,-63,-111
1693678072758700800,70,-34,-91,-122,10,106,52,79
1693678072764697400,-25,6,75,114,-20,-111,-69,-120
1693678072767696700,26,11,-24,34,18,-16,101,103
1693678072779689700,118,8,-86,-47,41,-67,-56,28
1693678072781688900,-128,-17,35,85,-4,44,-63,-30
1693678072788684200,127,33,5,-53,-10,18,97,60
1693678072790683200,25,44,8,83,2,113,-33,-74
1693678072793684300,-97,-74,-95,-128,3,8,66,-113
1693678072795680300,127,88,111,127,20,-88,-6,82
1693678072810671500,-128,-78,-1,56,-36,2,33,65
1693678072813669400,39,25,53,57,-13,74,53,45
1693678072814668700,-57,0,-26,100,-19,-13,-80,-109
1693678072816667600,-40,34,56,109,-8,72,70,32
1693678072837656000,-25,-33,-32,1,48,-39,83,-2
1693678072841652900,59,-12,31,89,19,-44,-117,94
1693678072844652800,16,40,-25,-44,63,127,127,-49
1693678072846651000,-63,-6,18,18,-58,40,58,79
1693678072849649800,5,9,20,-22,-45,-13,-128,-5
1693678072851648000,61,-30,-128,-71,99,105,127,32
1693678072853646500,56,80,125,77,-2,-21,84,38
1693678072854646500,-115,-101,-112,-19,-55,-128,-86,-128
1693678072870637400,11,9,58,21,111,127,32,47
1693678072873636100,23,4,-25,-90,-128,-65,46,28
1693678072875636300,47,7,3,-69,-44,-5,-67,35
1693678072877634200,32,23,-13,-86,89,45,83,-10
1693678072884715400,19,3,-3,-14,-51,-2,-11,-27
1693678072889719600,-86,-23,-34,46,45,-89,-25,-54
1693678072891715300,0,15,63,-2,5,23,2,29
1693678072893715300,3,5,0,-9,-8,-21,-53,-5
1693678072909137800,17,-12,-48,-38,16,-33,-43,-18
1693678072912136000,-53,2,16,-12,-42,6,-14,-80
1693678072915134400,-6,-3,13,-4,-21,-19,-22,35
1693678072916133900,42,18,-4,-25,-21,21,-4,23
1693678072930423600,5,4,-8,-18,55,-10,-38,-20
1693678072932421600,-33,-16,-21,-32,-31,-28,-11,-62
1693678072933421900,11,-9,8,24,-78,-5,-1,122
1693678072934420500,-61,-5,-30,-45,60,-6,66,11
1693678072944415600,93,28,3,34,49,28,-46,-47
1693678072945416100,-95,-87,-20,-54,3,-64,-128,-115
1693678072955520800,53,57,-2,20,56,30,46,42
1693678072957518400,66,-13,5,-62,-81,-4,-11,23
1693678072968510000,-43,-37,-19,-42,-78,-29,-20,-82
1693678072972508500,2,33,15,54,56,32,-9,82
1693678072974507000,-61,-28,2,-5,41,16,39,1
1693678072976505600,24,22,-2,5,-18,25,6,-60
1693678072990498700,-10,5,8,3,17,-20,-14,-89
1693678072992496700,-9,-22,-13,-19,-37,-13,29,50
1693678072993498000,-76,-1,0,8,73,9,-34,-33
1693678072995496600,43,-5,-14,8,88,-6,-37,79
1693678073005491000,7,-3,-4,-12,-24,0,7,-5
1693678073007488100,4,21,13,11,-31,27,40,127
1693678073039470800,12,-20,-8,-18,-4,-13,-16,-112
1693678073041470600,7,5,-8,-18,63,-8,-36,48
1693678073043468000,-11,-2,3,1,-91,-1,51,-4
1693678073046467000,-18,-6,-22,-22,1,-21,0,-7
1693678073048465400,19,3,11,8,12,-3,-21,27
1693678073050464000,-19,-3,-4,-26,-79,-2,-19,-69
1693678073059459000,11,1,-4,21,118,3,31,69
1693678073061457800,-3,17,9,8,-58,5,-3,-19
1693678073063456900,15,-11,-4,1,-38,-3,-22,-3
1693678073065455600,2,-1,1,3,42,14,8,-11
1693678073067453900,-26,-7,-17,-48,-72,-24,23,35
1693678073070452700,4,-2,-12,27,39,1,-16,-25
1693678073076449300,28,-3,-11,-54,-52,-3,-16,-18
1693678073078448700,-10,-2,26,20,74,2,13,8
1693678073091439900,-16,-2,-9,-30,3,-7,12,22
1693678073095438500,-4,-1,-8,17,1,-2,-16,-44
1693678073097436800,-3,-3,0,10,-5,13,4,13
1693678073099436400,21,8,4,-31,-125,-10,1,6
1693678073115426800,-2,-5,-8,7,-6,-5,-3,0
1693678073118425000,-5,6,-2,-13,67,12,8,19
1693678073121424500,22,0,7,-57,-22,0,6,-17
1693678073124421700,10,17,50,90,-6,-6,-4,33
1693678073146409900,-8,8,15,-24,-9,-1,4,-39
1693678073148408300,-36,-15,-14,20,3,-18,1,-20
1693678073151406400,51,3,-51,-61,21,2,0,45
1693678073156403700,-66,1,36,35,-15,-12,-2,-54
1693678073158401700,34,-14,-26,-21,-11,3,4,45
1693678073160401600,2,17,-2,52,4,-22,4,-41
1693678073162399900,27,12,36,-6,-9,51,-8,47
1693678073164398500,118,2,-57,-80,-7,-28,18,103
1693678073173393400,-65,-17,8,64,-7,57,11,-63
1693678073186389000,-61,-17,-7,-56,13,-1,-22,66
1693678073191384300,-68,-21,-2,23,-6,15,-27,-125
1693678073194383100,40,18,16,-24,8,-64,-3,74
1693678073200379000,56,-11,-42,10,-6,18,9,64
1693678073204376000,127,46,69,41,30,-33,23,48
1693678073207385900,82,39,26,0,-6,63,16,110
1693678073210373000,-79,-54,-37,-32,-28,-38,-32,-104
1693678073212371400,31,15,-33,-86,24,82,52,78
1693678073214370500,-80,-58,63,88,-31,-49,-36,-128
1693678073217369700,55,2,37,25,23,-31,-1,9
1693678073220367000,75,27,-32,-23,-29,0,-15,-17
1693678073248350600,-21,0,-2,40,15,-16,-63,80
1693678073250350800,127,68,16,-91,51,106,37,73
1693678073256350900,47,-28,-52,71,53,127,73,36
1693678073259347100,-15,-44,8,4,31,-38,-46,-26
1693678073261343400,83,52,-9,-102,9,84,26,61
1693678073263341000,16,-3,-24,33,14,-60,-50,76
1693678073265340700,-35,-2,-53,-69,27,-8,10,-68
1693678073266339800,-82,-8,19,81,-10,127,-9,-40
1693678073272336600,-3,-22,7,-3,-5,-69,4,-81
1693678073276336300,-98,-26,-29,-32,-9,8,43,-62
1693678073279333000,-25,15,-2,54,-44,-99,-85,-10
1693678073282331500,47,1,-12,-11,2,50,37,-2
1693678073290375800,112,106,31,37,2,10,17,99
1693678073292367500,-64,-88,-22,-19,-21,95,-42,-109
1693678073293366800,-3,-48,28,42,-45,-106,34,106
1693678073295365700,36,-15,-33,-14,30,115,-41,28
1693678073304521700,85,12,23,19,-45,-128,-28,18
1693678073306525400,85,43,-2,-29,19,-41,23,31
1693678073321711200,-7,14,10,8,-19,-26,9,-12
1693678073323709900,-44,1,10,-13,20,-21,21,-3
1693678073327707800,-62,-36,-1,-11,-12,20,9,-55
1693678073329705400,-54,-7,-13,-22,-4,-10,17,8
1693678073330706000,-77,-16,31,34,-14,17,-27,-30
1693678073331704700,109,75,4,-2,13,-6,13,18
1693678073350900900,-102,-30,17,4,-5,-15,-6,-43
1693678073353898600,75,10,-14,13,-15,8,15,58
1693678073355899800,-13,-5,0,-19,-11,-12,-14,-61
1693678073357896800,-34,-1,-3,-17,3,-17,34,50
1693678073364503200,-43,-18,1,10,-12,-14,-26,-58
1693678073365523800,-10,8,7,1,-59,7,1,10
1693678073373498200,-1,0,-14,-23,79,17,1,-30
1693678073374498200,-4,-7,-3,-41,-105,-21,21,-20
1693678073389401300,-19,-20,2,16,98,2,-3,3
1693678073392399100,-4,6,22,66,3,17,0,23
1693678073393399200,26,12,7,-21,-42,-16,-6,27
1693678073394398200,-37,-4,-6,17,95,4,8,-8
1693678073410508900,-7,-19,-4,-50,-128,-22,6,-16
1693678073412512400,19,13,-10,-16,110,13,-1,29
1693678073413511200,-44,-7,-16,12,109,-16,-7,-41
1693678073414510500,40,-14,10,11,-81,-12,4,3
1693678073423735200,-41,9,-2,-1,11,20,-3,-30
1693678073425708600,38,8,6,-20,-116,-10,-2,85
1693678073432554200,12,2,6,-16,-56,3,10,3
1693678073434572200,-49,-33,-22,-5,22,-12,-13,37
1693678073446469200,15,-6,-3,5,94,4,4,26
1693678073448490000,-61,-5,-9,-1,5,-1,-18,-58
1693678073461509400,51,5,8,-7,-64,16,9,40
1693678073463466400,-14,4,2,-15,-46,1,3,-29
1693678073471673900,-2,-10,-20,-1,78,-4,-7,26
1693678073474672600,-20,5,20,40,21,1,2,1
1693678073475671700,0,6,-2,-17,-94,1,0,2
1693678073477670900,12,3,6,2,11,-11,-2,12
1693678073484501300,0,-9,-24,35,16,19,1,-22
1693678073488505500,12,0,9,-31,50,5,-4,-13
1693678073493495000,-12,-2,-9,-3,2,-4,-3,2
1693678073494495000,-8,8,13,15,5,-4,4,3
1693678073507548200,2,1,2,14,-43,-11,-3,0
1693678073509546600,-2,-5,-12,-16,-18,2,1,-33
1693678073514543300,-8,2,13,12,-5,-9,4,23
1693678073515563400,-13,-7,-21,-8,64,1,-8,-10
1693678073530505600,58,1,8,-8,7,-8,-3,-25
1693678073532508300,-2,-5,-9,6,5,0,0,-4
1693678073533507600,19,8,3,-25,-10,0,1,5
1693678073537505400,-44,-4,-14,-10,15,-2,-3,7
1693678073544501000,12,5,18,43,-51,-2,1,-16
1693678073547500300,6,-3,12,3,-15,-13,-1,-2
1693678073554499300,-3,4,19,16,17,-4,-4,8
1693678073557494400,8,0,-4,-2,9,-3,1,-6
1693678073567527700,0,-3,-11,-12,-20,5,8,31
1693678073571530700,18,-2,-30,-59,-11,3,-6,4
1693678073574523100,48,7,8,8,20,29,2,-34
1693678073575544600,-68,-14,4,-20,6,-17,-19,-39
1693678073590356000,10,14,65,29,-45,7,7,31
1693678073591352900,61,7,-39,-8,4,-3,2,47
1693678073597865000,-54,-24,-55,-25,41,22,-2,-31
1693678073599856600,96,31,36,-9,-21,-13,2,47
1693678073603853200,-56,-13,-22,-14,-30,-71,0,-57
1693678073606856600,-40,-24,-6,5,-20,-46,0,-9
1693678073612867700,38,15,19,55,14,14,1,13
1693678073614867500,-14,-11,-10,10,2,27,-28,-13
1693678073627674600,99,48,0,-7,13,84,25,41
1693678073628674900,-88,-77,-38,-55,-10,-74,-33,-91
1693678073634529400,60,-15,-12,14,1,39,16,22
1693678073637527500,96,32,11,54,-21,-62,15,39
1693678073650464100,127,42,8,-15,19,19,62,87
1693678073653463900,-57,7,20,47,22,16,18,-58
1693678073656466200,-37,-40,-25,-35,16,49,10,-25
1693678073657464600,81,10,-64,-104,48,37,-6,19
1693678073673668700,-96,-22,9,-32,-35,-21,18,16
1693678073674664000,127,76,24,36,57,87,20,102
1693678073676663800,-128,-75,-22,-68,-120,-128,4,-108
1693678073677685100,78,-6,-45,39,56,71,-90,108
1693678073688328700,15,31,69,-6,15,-4,22,-20
1693678073690339500,19,-19,-55,-128,47,-6,-21,65
1693678073694325600,-54,-32,13,-3,-57,-27,21,-37
1693678073695346200,-118,-39,19,3,-32,-30,7,2
1693678073710977700,87,5,-55,-55,-122,25,-43,6
1693678073711992700,-42,-4,32,25,25,94,13,52
1693678073713995200,10,37,0,5,68,88,17,-33
1693678073713995200,-51,-6,-4,-23,-52,-7,40,-43
1693678073732645100,-89,-40,5,30,52,13,-25,-15
1693678073734644800,66,50,4,28,-23,-4,18,-26
1693678073738646000,22,37,17,12,16,2,-26,53
1693678073740642900,-55,-35,3,13,1,-4,10,-50
1693678073747637500,-4,1,-6,2,18,-18,-7,-13
1693678073748639600,-11,-9,17,33,-38,-24,-3,-33
1693678073754634600,47,17,-5,-4,-1,-85,-16,59
1693678073756635800,-28,8,1,2,18,44,20,-19
1693678073770437400,-20,-8,22,-9,-11,54,-3,-15
1693678073773436400,-41,-45,-3,-47,-77,-68,-10,-17
1693678073774435500,-6,72,51,38,32,42,-4,33
1693678073776435700,97,71,21,18,10,4,27,-26
1693678073792518100,-96,-33,-27,-5,11,-7,-20,-11
1693678073794516000,-1,17,-8,6,15,13,9,68
1693678073799040400,27,-19,-1,-14,-2,-16,-9,-12
1693678073800941700,-41,-13,7,1,-15,-18,0,2
1693678073807937800,-34,-1,-15,-11,-22,-11,11,-34
1693678073808936700,-40,-5,15,26,20,-14,9,-37
1693678073814437600,34,1,-18,10,26,30,-7,87
1693678073815434700,-3,0,3,-8,-10,-10,12,-16
1693678073830506100,-16,-21,-4,17,-20,-1,-9,-87
1693678073832520000,10,-5,-15,6,49,-29,-13,-6
1693678073833508300,30,9,-1,-2,-34,-4,-9,24
1693678073834508300,-14,-6,13,-3,-43,4,13,-6
1693678073854923800,-1,-4,7,-12,-89,4,9,55
1693678073856928400,56,0,-11,8,80,-11,-24,-30
1693678073858921900,-28,-7,-3,-8,-14,18,9,-18
1693678073859920700,5,-1,2,20,112,-13,-9,15
1693678073867340300,6,7,2,-3,-52,-29,-8,2
1693678073871341900,-11,-3,-1,8,-41,24,11,10
1693678073874335600,-40,-9,1,-20,-12,-21,-5,-49
1693678073875337600,88,-5,-3,-20,-27,12,17,69
1693678073890336000,-27,-16,-21,20,127,11,-16,-31
1693678073892326000,5,9,6,-2,-60,15,2,3
1693678073894326500,-12,-3,19,21,-71,-1,19,20
1693678073895326000,-36,-1,16,17,-16,-10,-13,-23
1693678073913510800,16,3,-5,-45,-85,-5,-13,-3
1693678073914510000,-24,-13,-8,43,99,13,-9,0
1693678073915510000,22,4,-22,-31,-23,-13,-1,21
1693678073916508600,-30,-1,23,27,5,-37,-10,-23
1693678073926607700,49,-2,0,-8,-45,-15,-2,27
1693678073928608300,-19,7,15,-7,-85,-54,-1,-24
1693678073937768600,15,1,6,29,29,3,-9,9
1693678073940767300,-10,-6,-9,-10,-13,-9,-2,-19
1693678073950506000,-26,-6,-1,-4,16,-52,-2,13
1693678073953509400,6,2,0,-3,-15,-49,0,-10
1693678073956532500,15,-7,-25,-19,46,-39,-23,4
1693678073958527300,-6,4,31,10,-19,44,5,-3
1693678073973210800,-8,0,6,35,18,-28,0,8
1693678073975209600,30,9,-1,30,-9,16,4,-18
1693678073976208700,17,6,-1,-51,10,63,-3,2
1693678073978231100,-62,-19,-3,4,-25,18,4,8
1693678073988258100,6,-8,-14,21,16,1,-4,-28
1693678073990261500,-37,-1,-2,-33,-1,11,-15,-25
1693678073994254300,46,17,28,62,5,-51,6,42
1693678073996275400,47,-3,-16,31,4,-6,8,-21
1693678074010247200,-26,0,-11,-39,24,5,4,-7
1693678074012243900,16,-14,-5,30,-26,77,9,4
1693678074013243500,-99,-25,-30,-66,-5,-92,-37,-57
1693678074014242600,111,32,-15,-91,35,77,13,60
1693678074033501000,-49,1,29,120,-28,-108,28,17
1693678074035503700,-63,20,40,-48,8,104,-15,-65
1693678074039503100,-102,-54,-90,-69,21,-46,43,22
1693678074040502000,28,-5,9,-4,-61,-96,-11,23
1693678074046815200,-14,50,10,44,53,127,-72,-11
1693678074048815700,-79,-82,-39,-35,2,-104,-49,-50
1693678074055809000,123,89,40,57,2,64,13,55
1693678074057812100,-128,-37,36,-32,4,74,-2,-89
1693678074070258400,127,54,-28,-48,5,1,65,124
1693678074074280500,-90,-13,2,39,20,14,32,-86
1693678074075277100,109,9,-15,13,-68,-40,-64,101
1693678074077277200,-13,-7,-63,-96,23,9,-4,-108
1693678074093229600,-79,-18,-7,56,61,-24,21,0
1693678074094232100,127,69,-4,-86,-30,38,18,108
1693678074096227900,-118,-63,73,-1,-41,73,15,-97
1693678074097226700,-87,-9,-1,6,2,84,-3,14
1693678074106884600,1,-52,-52,-52,-6,31,6,-61
1693678074108904200,26,-1,-3,-50,49,-66,18,84
1693678074115877800,80,58,-9,10,-1,-2,7,-13
1693678074116898600,-101,-87,-25,12,-3,-51,-8,-11
1693678074130504800,95,20,48,9,41,40,-17,4
1693678074132508400,74,9,-13,41,-29,-74,-14,15
1693678074133507800,39,37,37,21,38,35,6,0
1693678074134506800,39,33,11,48,-15,-39,3,7
1693678074154551600,-59,-32,-31,-57,-23,-23,-16,1
1693678074157552300,12,16,23,31,-5,28,6,11
1693678074159571400,-58,-29,-24,-25,-16,-71,-9,-6
1693678074160571400,16,18,5,2,3,-4,13,9
1693678074166230200,-22,-13,-7,-23,-23,-56,-7,-1
1693678074168250700,-39,-21,-3,1,-19,67,-15,-4
1693678074175229600,-39,23,6,22,47,90,-13,-23
1693678074177230800,40,26,16,41,9,-15,3,-5
1693678074190460400,47,4,21,-10,-5,41,11,11
1693678074192460200,36,9,4,22,-8,-37,-10,11
1693678074194480400,-16,-32,-23,-19,1,18,15,-20
1693678074195478900,17,16,3,6,-15,8,3,24
1693678074213002900,-37,-5,-3,-19,-38,-2,-1,-28
1693678074215027900,-21,-6,1,0,-1,16,3,12
1693678074216027000,-3,-14,-9,4,97,-55,-15,-21
1693678074217003700,11,3,-13,-10,-17,37,-12,14
1693678074226999400,2,5,26,11,-58,66,-4,-9
1693678074228001200,-12,-12,-18,17,18,-8,27,17
1693678074237993300,6,-4,1,0,-7,6,2,-24
1693678074238993000,5,2,-14,-2,24,-17,-2,11
1693678074250256900,-10,-2,25,14,-103,-50,-10,17
1693678074254257000,6,10,4,5,68,32,-2,-16
1693678074257251000,-5,-8,-8,-5,-16,-4,6,0
1693678074258248000,2,-5,-1,-2,2,19,-9,15
1693678074273240200,5,-6,-17,-9,72,-8,6,28
1693678074275238600,-19,15,11,-2,-8,24,-22,-58
1693678074278236900,21,-5,7,0,-16,-25,15,16
1693678074279236000,-28,-16,3,1,-44,-31,5,3
1693678074288233000,28,14,-5,-5,3,1,3,26
1693678074290233000,7,2,5,-7,-26,-11,-1,16
1693678074304222800,-34,-16,-17,-4,36,4,-8,-18
1693678074307220700,19,10,6,7,0,-7,26,16
1693678074310219000,-1,-7,-6,-22,-1,9,1,-22
1693678074312217100,-12,-4,-8,-9,14,3,6,18
1693678074314216400,8,5,10,12,-69,0,4,-1
1693678074316216400,-2,-3,4,11,82,-14,-10,-8
1693678074340204900,-9,-5,-7,3,53,24,-9,-11
1693678074342202300,5,-1,-7,-26,-64,-21,3,-20
1693678074355193200,-20,1,13,11,62,22,-3,13
1693678074358191900,62,10,-1,-6,14,-10,-6,4
1693678074359191300,-18,-12,-36,-13,-8,-41,-9,-13
1693678074361191800,8,-2,14,7,-41,-13,8,5
1693678074363187900,-5,1,1,26,5,32,2,1
1693678074364188400,-12,2,2,-13,38,-9,-8,0
1693678074371187800,-5,-3,-10,-11,-1,-4,-3,-7
1693678074373183700,-6,-7,-8,-2,-49,-1,3,-4
1693678074375184200,11,0,2,4,25,-2,2,8
1693678074376182400,0,4,-6,-8,-54,-29,-5,-8
1693678074393172400,-5,1,10,-6,20,39,-13,-8
1693678074395171100,-5,-2,-9,-2,36,13,0,-6
1693678074397169900,21,4,2,-18,-61,9,8,28
1693678074399171600,-6,-8,-20,-18,-2,-2,-2,-14
1693678074407165000,-15,4,20,12,3,-14,-1,-18
1693678074409163600,8,4,-3,-39,9,27,-5,14
1693678074423155000,18,8,3,22,-16,13,4,15
1693678074425154700,30,2,0,41,-20,-49,5,6
1693678074430150000,-101,-33,-22,-66,9,-7,-18,-64
1693678074432148500,47,7,-18,-12,4,21,13,50
1693678074433148900,65,6,4,21,19,25,-17,-13
1693678074439146600,2,18,65,49,-28,-35,-1,-13
1693678074455136000,34,-2,-38,-54,9,67,17,69
1693678074457135500,87,37,46,100,-13,30,21,63
1693678074459133800,-101,-66,-78,-92,-32,-128,-38,-70
1693678074461132500,63,-13,67,98,12,127,12,-74
1693678074467130200,60,16,6,23,-7,-124,-42,20
1693678074470127700,-107,-20,-22,-5,26,40,9,-64
1693678074475124700,37,12,-3,-39,-49,77,-13,70
1693678074477123500,58,41,34,62,-38,35,19,51
1693678074491116700,-40,-10,6,19,61,-28,-28,-45
1693678074493114600,0,-1,-7,-11,-21,64,21,19
1693678074497111700,-92,10,37,19,4,67,8,-53
1693678074498111600,21,-15,-59,-62,-69,-120,-13,62
1693678074513102100,-66,-17,45,46,-36,2,68,-24
1693678074515101800,49,-7,-24,-1,62,-58,48,8
1693678074516100300,38,1,-9,-75,-78,-55,-51,-17
1693678074517099800,76,15,-18,-78,-9,54,10,33
1693678074526095200,127,63,63,109,64,95,39,58
1693678074528094500,-112,-71,-1,-5,-90,58,-25,-73
1693678074537089900,34,3,-1,42,62,121,52,11
1693678074540088700,-80,-8,-25,-37,21,13,-20,-16
1693678074550082000,40,2,-32,-67,-15,24,-13,-2
1693678074553080800,-4,3,1,-5,11,-46,-49,3
1693678074557079100,49,22,37,30,30,-30,19,7
1693678074559078000,-49,-6,-26,-25,17,-23,0,-18
1693678074573208900,-37,-14,-13,1,-19,-8,-13,-12
1693678074575208700,23,2,13,4,-4,-66,5,20
1693678074577207600,-5,1,-18,6,1,-55,-3,0
1693678074579205300,-31,-11,-2,-10,-1,21,-1,-12
1693678074587500800,-52,-32,-4,-3,-23,-14,1,-3
1693678074589501200,58,37,6,2,5,-20,-36,-26
1693678074605557800,-4,-3,-3,-10,7,-18,2,5
1693678074607554500,-23,-9,-10,0,3,10,-1,6
1693678074609554100,23,4,6,0,-2,10,3,15
1693678074611556300,-8,2,-8,-9,15,-1,0,-8
1693678074616954900,-11,-2,7,15,-3,-3,3,-2
1693678074617954000,-9,-12,-6,3,-11,-11,2,18
1693678074633480600,3,4,-12,-2,5,-4,-11,-39
1693678074636483700,0,0,4,-4,-29,-30,10,27
1693678074639482800,-5,-6,4,4,58,3,-2,-25
1693678074640484500,-11,-3,-10,-6,-12,-1,-11,-11
1693678074656551800,6,7,10,25,-51,-7,-7,-2
1693678074658549700,-12,-3,5,-12,13,1,3,-6
1693678074659552200,9,-3,4,-6,-31,-8,7,20
1693678074660548900,-8,-4,-23,-40,-10,5,-2,-10
1693678074672065400,3,8,25,51,59,0,4,3
1693678074674062500,1,-7,-6,-7,-44,-15,-4,-7
1693678074677059600,-1,-1,-8,1,2,-13,4,11
1693678074678059200,-8,-5,-3,-5,22,59,-6,-15
1693678074693079200,2,-5,-17,-25,-29,3,5,9
1693678074694079100,0,1,2,0,45,-1,-8,-4
1693678074696077600,1,2,3,4,-10,-39,-4,1
1693678074697077100,-8,0,1,12,15,43,7,0
1693678074715389700,0,1,-5,-17,-23,-12,3,-19
1693678074717264000,-1,1,1,11,33,27,-10,7
1693678074720268000,-3,-4,-8,-9,-3,10,2,-20
1693678074722262700,-1,3,8,12,2,18,3,7
1693678074729052800,1,-1,-7,-7,25,20,0,8
1693678074730077400,2,5,4,-8,-36,-13,7,-12
1693678074738051900,-5,-1,-1,11,30,-5,-11,-4
1693678074740060000,-3,1,8,12,16,-86,-2,1
1693678074753782500,0,-6,-13,-21,61,-7,-5,2
1693678074756782700,-5,-2,-9,-1,4,-4,1,-3
1693678074757780900,3,-3,1,-3,-29,12,2,14
1693678074758779400,-1,4,7,16,-27,-10,-1,-11
1693678074783480800,-5,-4,-2,-26,-19,-3,-8,4
1693678074787492900,7,3,1,1,-9,-3,-3,1
1693678074789482500,0,-3,-9,6,31,-3,2,6
1693678074790485400,-2,0,16,-13,-7,-12,-2,-6
1693678074792483100,0,0,-7,-4,-27,2,1,4
1693678074793503100,-2,-3,-2,-2,18,6,-2,-3
1693678074798477600,-2,0,-4,0,-24,-7,-1,-1
1693678074799482400,0,-4,-10,-6,4,-10,-1,0
1693678074813529000,5,3,2,1,-31,4,-2,4
1693678074815468200,-5,-5,-5,0,38,1,-3,-7
1693678074816466300,-1,-2,1,-12,7,1,4,8
1693678074818465500,2,2,2,5,-17,-6,-3,0
1693678074837076100,-5,-5,-6,-7,-13,3,-4,-5
1693678074839082300,1,-1,-5,-6,-29,-3,-5,-4
1693678074841075000,-2,1,7,14,18,12,1,4
1693678074842074800,-2,1,-2,-6,-34,-35,3,-2
1693678074850465400,1,2,3,3,-5,15,0,-11
1693678074853464700,-17,-2,2,-1,12,22,-12,-21
1693678074856462100,27,2,-2,-15,-16,5,0,27
1693678074858460700,-6,-4,0,13,-2,-5,0,-5
1693678074873389400,-2,-1,-4,6,20,-9,-4,2
1693678074874389000,3,-2,-4,-8,-7,-12,1,-7
1693678074879105800,-8,4,6,0,-26,-3,1,-5
1693678074881128300,-1,-3,-15,-16,19,10,-6,-1
1693678074895456700,4,2,16,12,9,-7,-2,2
1693678074897307700,-3,-2,3,7,-3,24,2,6
1693678074898310800,-4,0,1,0,4,-5,-1,-3
1693678074899308800,3,-1,0,14,6,8,1,4
1693678074909399600,-7,-6,-18,-21,8,-7,-6,-2
1693678074910420300,1,1,1,-5,16,-7,3,2
1693678074924361500,-2,-1,5,2,-38,4,2,-1
1693678074925364700,-3,-3,-9,-3,59,4,-5,-8
1693678074932916800,5,1,-3,-2,-15,6,0,14
1693678074935910000,2,-1,2,-9,-13,-11,-4,-4
1693678074938907700,-5,-6,-8,-4,-3,-3,-1,-11
1693678074939907800,-3,9,12,5,-5,14,-4,1
1693678074955610700,-1,1,2,10,-3,-1,-6,-3
1693678074957607100,5,2,-1,-3,-2,-9,3,12
1693678074959606500,-3,0,-1,7,8,12,1,0
1693678074960628200,-3,-6,-4,-9,-2,-26,-3,-4
1693678074970541700,-2,-2,-3,-8,-8,-30,-3,0
1693678074972543900,-2,-3,-6,9,21,-10,2,-3
1693678074976537100,-4,-1,-4,-20,-16,-7,2,-2
1693678074977536600,0,-1,11,31,34,-2,-11,-1
1693678074993481300,1,-4,-14,-9,-23,-1,1,-1
1693678074995502900,1,2,21,7,-29,-3,3,2
1693678074996483700,-1,-2,-14,-19,28,6,0,0
1693678074998486900,4,4,9,13,-22,19,8,4
1693678075015936300,-4,-4,-5,1,15,-2,-5,-5
1693678075018940800,-1,-4,-13,-16,-21,-11,-1,0
1693678075021939000,4,5,13,23,29,52,0,2
1693678075023937900,1,-1,-6,-18,-16,2,1,0
1693678075030510500,-1,2,5,3,-8,9,-1,-1
1693678075032515900,1,-1,-5,1,28,-9,-5,0
1693678075039011300,0,-2,4,-1,-65,-21,-3,-1
1693678075040032600,0,-2,-6,-10,15,-6,2,1
1693678075053575000,0,-1,-1,10,46,62,6,0
1693678075055572100,-3,-2,-3,-2,10,-9,-2,1
1693678075057574900,-1,-3,0,2,-39,0,0,1
1693678075058576400,0,1,7,-5,-2,-2,2,0
1693678075075375900,2,4,1,-4,-35,24,-4,0
1693678075077353500,2,3,-2,3,9,3,3,0
1693678075078375100,-3,-3,-1,-3,7,-15,-2,-1
1693678075079374000,-4,-5,-2,11,-4,-11,0,-2
1693678075090019100,-3,0,3,2,8,-38,-1,0
1693678075092015900,-1,-5,-4,-3,-19,7,3,-1
1693678075097012900,0,2,-4,6,23,5,-1,-1
1693678075098033300,-3,-4,-2,-8,10,21,-5,-1
1693678075112574400,1,0,4,10,-4,-15,1,1
1693678075113568200,-2,-3,-9,-11,-19,-1,-4,-2
1693678075121388100,-1,0,0,12,30,6,1,-1
1693678075123404900,1,0,7,-14,-11,-24,-4,-2
1693678075137555700,-3,0,0,4,-14,-8,1,-2
1693678075139546500,-1,3,-2,-26,-13,14,1,2
1693678075141543500,-3,-5,-12,10,15,-73,-6,-3
1693678075142543700,-1,4,10,12,2,15,0,1
1693678075157736100,3,-4,-3,-4,5,-6,4,10
1693678075159733100,-4,2,-1,-2,-13,5,1,-16
1693678075161732300,-3,1,-1,-18,0,-5,-5,-6
1693678075163729500,-2,-4,-12,11,1,-1,-2,-3
1693678075173373500,-2,0,-3,-18,-10,-9,0,-2
1693678075174375900,4,-3,3,31,10,-9,1,7
1693678075175375100,1,3,7,-2,-6,-31,-8,1
1693678075177372500,0,-2,-14,-41,-1,3,-5,-4
1693678075195429600,4,4,20,28,5,12,1,6
1693678075197322700,6,-1,-4,-14,-5,-7,-6,0
1693678075198343900,-2,-3,-5,5,12,17,0,-8
1693678075199323800,-17,0,15,18,-12,-27,0,-6
1693678075209317300,-1,-1,-1,-12,-1,33,-1,-3
1693678075210317000,0,-4,-12,-34,24,53,10,5
1693678075225308300,-5,2,7,34,-22,-18,-3,2
1693678075227306000,9,0,-5,-20,-10,1,-1,4
1693678075233411900,-20,-3,-2,26,-1,-9,5,-3
1693678075235411000,30,-1,-10,-26,-1,2,1,4
1693678075238407800,1,-4,-2,-44,6,-6,3,1
1693678075239413500,3,-1,-31,-20,-3,3,-6,-1
1693678075254056400,27,10,39,70,-12,-62,30,8
1693678075256059700,-33,-8,-28,-28,8,7,-1,-5
1693678075263051300,5,0,11,15,1,-55,-25,-5
1693678075264051700,-60,-14,-16,-1,-7,3,-5,-36
1693678075270273800,9,-2,-8,-61,3,-24,0,16
1693678075273273000,0,-3,2,33,-6,-10,7,-10
1693678075278272800,-43,-17,-44,-59,14,42,26,-4
1693678075279270600,89,19,34,31,-8,22,-50,41
1693678075292502200,-56,-3,4,-8,4,18,2,-55
1693678075294501100,-41,-5,19,43,-7,66,13,18
1693678075295500600,43,6,-7,-30,-7,-69,-10,-3
1693678075296499600,-24,-11,-10,-21,19,28,10,1
1693678075315338400,75,14,1,42,-11,-32,-6,58
1693678075317326400,67,4,-25,-45,8,-42,-30,25
1693678075322324100,-8,5,32,70,7,1,-2,-62
1693678075323323600,-79,-23,18,-45,4,86,15,-11
1693678075337928500,9,-10,9,22,0,-11,-23,-30
1693678075340926500,-20,-6,-9,-48,35,-21,-3,1
1693678075341923300,70,23,27,76,-46,4,23,59
1693678075342922600,7,2,-56,-73,-18,-77,41,25
1693678075354511000,78,30,27,49,32,127,-49,33
1693678075356516700,-81,-44,-34,-92,-49,-124,-40,-46
1693678075358512100,28,-4,27,101,49,98,31,-30
1693678075360509100,-18,23,2,-20,-17,75,0,-11
1693678075375334700,-88,-64,-52,-76,-46,-53,42,1
1693678075377335200,121,67,42,103,36,89,-11,58
1693678075378335700,56,37,-13,-68,-34,-40,-40,44
1693678075379334100,-43,-49,-29,-32,19,67,-42,-79
1693678075389340700,55,33,-5,7,75,80,50,51
1693678075391341000,37,10,24,-12,-68,-53,4,17
1693678075398335500,-31,-50,-16,-38,48,91,-4,-27
1693678075400336100,127,65,18,64,36,76,57,86
1693678075413327000,-93,-17,-2,-31,-32,-67,-100,-62
1693678075415327600,-38,-9,14,39,71,18,59,-3
1693678075416327200,28,18,20,21,-44,4,-16,35
1693678075417326000,-44,-23,0,23,-6,-21,10,-22
1693678075437549300,24,14,-3,-10,8,-8,2,5
1693678075439540000,56,35,31,35,-6,65,1,-8
1693678075441539200,-73,-30,-15,-29,2,-33,-6,-4
1693678075442538400,-8,-7,1,18,18,29,10,-16
1693678075448956900,15,10,12,0,-9,-3,16,0
1693678075450941500,-10,-14,-13,-6,-19,-44,-11,-9
1693678075457937100,-21,-19,-13,-18,20,16,12,-6
1693678075459938300,15,22,11,-14,-8,-54,-3,10
1693678075472171200,-7,0,-13,55,-16,-10,0,-2
1693678075474166400,-21,3,33,36,-12,-9,-13,-18
1693678075479559100,-9,3,-18,-44,5,16,12,0
1693678075481557600,-6,-9,17,53,-13,-64,-9,11
1693678075494482000,-13,-12,-14,-11,-15,-20,-5,-11
1693678075496454900,-40,-34,-38,-19,1,11,5,-17
1693678075511776600,3,17,9,-6,-2,12,-6,5
1693678075512776000,-20,2,9,7,1,-56,-18,-11
1693678075514773900,49,-10,-23,-50,4,11,4,-2
1693678075515774600,-2,14,7,22,-36,20,13,-1
1693678075519770500,-1,-10,-8,0,31,8,0,2
1693678075521776300,-1,1,-6,-4,-18,-27,-14,-8
1693678075532437300,-20,-4,8,-4,-9,7,9,38
1693678075534432200,-10,-10,-8,-1,19,2,3,-85
1693678075540428800,-13,2,7,5,-7,-9,5,23
1693678075542427300,7,5,13,3,-12,-56,-2,12
1693678075556515300,-9,-7,-5,-14,0,22,0,-6
1693678075557513300,-2,-4,-1,8,19,-8,-23,-8
1693678075559510400,-8,3,-8,-21,3,1,14,-21
1693678075561517900,10,-4,6,5,-6,-13,0,-10
1693678075578766700,-10,-3,-5,7,12,6,8,6
1693678075580766800,0,1,1,-6,-42,-22,-21,13
1693678075581764700,-22,-1,0,20,52,38,3,-20
1693678075582763800,36,-2,-7,-29,-109,-2,-5,29
1693678075592868000,-8,2,6,-3,5,-16,-1,-15
1693678075593866300,-6,-4,-1,-5,16,5,1,38
1693678075598959500,-28,4,6,6,-14,-9,6,-48
1693678075600965800,47,-2,-9,-16,4,-9,4,58
1693678075615363500,0,9,1,11,33,12,-3,-40
1693678075617353100,-10,-5,-1,4,32,7,9,24
1693678075622351200,12,5,4,-20,-68,32,1,18
1693678075624352400,-36,-9,-11,8,27,2,-6,3
1693678075639332300,-8,-4,2,-18,-12,0,5,-35
1693678075641355700,21,0,-9,-5,30,14,0,17
1693678075643329800,-12,4,16,0,-26,-18,-3,8
1693678075644330100,-6,-4,-1,19,28,1,-1,-18
1693678075654511500,-14,-6,-13,-35,-3,-1,-1,3
1693678075656519300,-26,4,15,22,-14,12,5,-11
1693678075659508200,39,-7,-21,-25,6,-1,-10,8
1693678075660506200,-15,0,8,45,37,3,1,-9
1693678075675540100,7,4,9,-16,-14,0,-3,12
1693678075677537500,-3,-8,-10,-1,-15,10,4,-2
1693678075679536500,-7,1,-1,3,21,-16,-3,4
1693678075680535600,-4,-2,2,-14,3,2,-1,-8
1693678075697869900,-4,2,1,21,-6,-7,-1,-4
1693678075699872100,0,-1,-4,-38,-5,0,2,-3
1693678075700893200,-1,-1,0,26,-7,-12,-14,8
1693678075704896400,-2,-6,-5,0,10,-7,-1,-10
1693678075711509800,-1,-1,6,1,-11,3,1,-10
1693678075714507800,-3,1,4,-22,6,3,2,-1
1693678075728168600,7,0,-8,6,-5,-6,2,11
1693678075730189900,5,5,11,37,17,1,3,18
1693678075738162900,-13,-5,-8,-27,-24,-4,-7,-32
1693678075740168000,6,6,11,17,-11,-8,-3,7
1693678075741164600,-1,-4,-10,-32,1,15,-1,-3
1693678075742163100,12,2,-1,16,10,-2,-3,21
1693678075757555600,-3,-3,-10,-11,-5,5,1,-18
1693678075759550800,-59,-9,-2,46,35,0,-3,-43
1693678075761551600,-12,5,23,-9,-62,22,-5,-2
1693678075762551300,26,1,-1,-21,25,-10,-9,24
1693678075772339800,16,18,-12,-8,11,32,11,92
1693678075773337500,73,-8,-36,6,-4,-12,1,-58
1693678075780503900,36,10,79,27,-35,3,10,-19
1693678075782525700,-77,-17,-37,-68,-4,12,-22,-67
1693678075795372300,21,4,4,-3,-18,-49,7,53
1693678075797376000,57,10,-27,-57,5,11,9,42
1693678075798395400,-1,-24,-60,-14,-10,-85,-18,63
1693678075799395300,48,18,35,9,2,82,47,-65
1693678075820149400,-66,-35,-13,-1,-13,-66,-2,-54
1693678075823150200,25,33,48,67,17,40,-55,46
1693678075824150200,114,26,-23,-67,-8,-27,2,-42
1693678075825148900,-104,-93,-27,13,24,86,-21,-45
1693678075832437600,98,2,-46,-9,27,101,36,92
1693678075833436000,40,24,53,8,21,74,49,-67
1693678075839432700,-62,-7,15,-30,-18,35,-52,-70
1693678075841453600,-29,-13,-47,-44,14,-80,-19,0
1693678075855315800,78,35,34,38,-11,106,21,43
1693678075857310200,-97,-47,0,29,18,16,28,-13
1693678075859308800,-28,-10,-19,-15,-16,32,19,8
1693678075860307500,-33,22,-1,-50,11,13,-6,10
1693678075887963600,-12,2,35,52,-1,-128,-33,-81
1693678075889964700,17,21,-32,-51,30,20,29,28
1693678075890962700,95,37,20,29,17,66,43,41
1693678075892959800,-102,-79,-18,47,-68,-103,-24,-30
1693678075893982000,27,3,-5,-33,8,53,-3,9
1693678075894981200,53,15,8,-7,-25,7,-13,13
1693678075900955400,-58,-8,-15,22,43,13,-3,-29
1693678075904955500,60,34,9,2,6,49,17,60
1693678075915534300,-6,6,2,-12,-7,-8,-10,-33
1693678075917530100,-67,-27,2,5,-26,-44,-13,-24
1693678075922528400,-32,-10,0,18,27,-8,-2,40
1693678075924526500,71,47,20,-4,-18,-34,9,13
1693678075938787400,-72,-21,1,2,7,-8,8,-37
1693678075940809800,-83,-48,-17,-10,-33,-43,-14,7
1693678075942788800,49,80,3,13,13,-1,4,8
1693678075943785700,87,0,11,-7,-34,4,2,-18
1693678075953782300,-37,-5,-5,15,61,-19,-12,17
1693678075956802500,62,-11,-14,-11,-23,1,2,25
1693678075960775600,-46,-17,1,4,-11,-6,-3,16
1693678075962775100,-15,13,12,9,-8,-1,-17,-25
1693678075975113800,-21,-3,-2,8,38,12,-12,-10
1693678075977109800,-2,7,-4,-1,25,-20,-7,7
1693678075979131300,-44,-28,-2,3,-2,-38,0,-33
1693678075981129900,5,9,-15,12,62,-8,23,-17
1693678075997560000,5,-12,-2,-2,-1,1,-24,1
1693678075999561600,-2,13,7,-2,2,47,-1,-1
1693678076003559800,10,-6,-2,4,-51,-12,-1,-5
1693678076005559100,14,-6,2,13,55,12,-4,10
1693678076022102600,-12,4,-13,-27,15,10,-2,-12
1693678076024100600,6,-2,-11,-16,-62,-20,-1,3
1693678076026122000,-10,-4,28,64,53,1,-3,-3
1693678076028101500,-25,5,2,-15,-114,0,9,22
1693678076029098500,62,-3,-10,-8,29,-5,-6,-7
1693678076031099600,-11,7,4,3,-31,-14,-6,5
1693678076035094800,-6,-35,-21,-26,24,1,-1,2
1693678076038093700,13,41,4,1,17,-6,1,-5
1693678076050505400,-37,-34,8,13,-10,-6,5,-12
1693678076055508000,14,5,-12,-11,-60,-6,-5,11
1693678076057530400,-15,-19,-12,-8,42,1,-5,-33
1693678076059526300,25,-10,5,6,4,3,5,4
1693678076064501600,3,7,2,-23,-67,-1,2,0
1693678076065501500,7,5,8,8,25,-11,-2,4
1693678076073084300,-36,-14,-8,0,-12,-1,2,8
1693678076075084500,16,9,5,-2,-21,-2,-5,0
1693678076095376000,-2,6,2,5,5,1,2,-6
1693678076097379600,-16,-6,2,0,-3,-10,-1,-1
1693678076098400500,23,11,-4,9,23,-1,-2,5
1693678076099399500,-6,-3,-6,-3,24,4,-1,2
1693678076120425500,4,1,9,-15,-36,0,1,3
1693678076123422600,-1,5,1,16,49,1,0,-5
1693678076124423500,-14,1,12,11,-36,4,4,3
1693678076125422300,39,8,16,8,-23,-3,1,12
1693678076127443600,-21,-1,-10,-8,13,1,-1,0
1693678076128433200,16,-1,1,2,-14,-6,-1,-1
1693678076140741600,-22,-7,-14,-12,4,2,0,-15
1693678076142744000,52,-4,-10,3,19,1,0,11
1693678076155552800,27,11,-14,-27,-14,2,4,59
1693678076158570900,7,-1,4,-15,2,-7,-6,-49
1693678076161582500,-15,-2,-18,15,8,5,-1,-11
1693678076163548100,-37,0,23,-18,-3,-15,13,11
1693678076171542000,-36,-15,-31,11,-11,-5,-34,-84
1693678076174543000,56,12,35,33,-8,-34,13,127
1693678076175541500,35,8,-31,-67,14,39,-4,-62
1693678076176538400,-69,6,31,54,0,12,13,-4
1693678076185530200,80,-11,-49,-66,-8,-17,32,-7
1693678076189531500,-81,-11,3,-7,27,0,7,24
1693678076192525900,-76,-23,-3,-23,-48,-85,-32,-67
1693678076194547200,6,-2,-13,-26,34,94,35,86
1693678076207982000,101,78,67,60,-21,-14,6,81
1693678076208981000,-107,-65,-48,-88,-57,-73,25,-100
1693678076214483800,41,-17,-4,69,36,126,3,-8
1693678076215487500,97,62,48,-13,-2,38,-85,46
1693678076229738000,-128,-50,-39,-94,-35,-102,57,15
1693678076231547600,-17,8,28,43,-7,123,-17,-46
1693678076236526200,101,45,7,14,22,-43,38,80
1693678076238528300,-128,-79,-95,-86,-2,26,-32,-100
1693678076244522500,127,83,92,98,-22,40,37,101
1693678076245543000,-71,-40,-22,-12,16,-11,-47,-75
1693678076254461600,75,45,35,24,-15,-39,19,15
1693678076256466900,-48,-39,-35,-8,29,22,68,50
1693678076267475000,72,50,11,20,32,111,-13,-30
1693678076272471600,-95,-89,-61,-70,-17,-28,-54,-110
1693678076274467500,88,5,2,-35,10,51,22,56
1693678076275467000,102,49,19,23,-11,33,13,29
1693678076290457900,29,-7,-20,-3,-2,-1,-63,-18
1693678076291460400,103,90,40,60,20,24,81,114
1693678076296986600,-128,-95,-28,-25,15,-27,-43,-80
1693678076297985500,80,-16,18,17,-19,-47,-2,26
1693678076304985600,10,-54,0,-3,7,10,-7,-44
1693678076307005200,127,114,11,27,37,-8,25,53
1693678076321469800,-52,-9,-13,-44,-19,7,-11,65
1693678076324464800,-24,-2,11,31,-29,-36,11,-79
1693678076327463200,64,16,6,24,10,14,1,9
1693678076328464000,57,-7,2,33,4,14,-2,48
1693678076334459300,-87,-66,-12,-43,-22,-14,11,-74
1693678076339457800,-6,-16,-12,3,-8,-36,-19,-9
1693678076349712700,-17,6,-1,3,10,-21,-25,-36
1693678076353528400,17,48,8,-12,5,11,-3,38
1693678076356539300,-13,11,14,27,-3,25,6,24
1693678076358524800,-103,-4,0,7,6,-15,21,7
1693678076373466800,-52,-37,-13,-18,2,-4,-18,25
1693678076375464800,-36,5,3,-9,-1,5,15,-19
1693678076377486100,1,21,9,38,-4,-2,11,26
1693678076378462200,-32,-11,-22,-10,-4,-16,-13,-24
1693678076387683000,-45,-3,19,54,17,35,-17,0
1693678076390682500,-20,-20,12,2,-18,21,-10,-19
1693678076394680900,17,15,6,18,-4,-7,1,22
1693678076395680200,53,16,-11,-17,-3,9,-12,12
1693678076411670000,-43,-15,-14,19,4,36,4,-39
1693678076413691400,15,-16,-13,-40,0,-17,1,12
1693678076416666200,22,18,10,-11,-13,-55,-24,11
1693678076419666500,23,11,11,14,2,34,9,-13
1693678076432937100,-40,-7,-10,-19,-2,-61,-2,-14
1693678076436933700,-17,-16,-5,5,8,-11,-16,-3
1693678076439931100,34,17,2,-4,1,5,4,22
1693678076440955300,2,-1,1,-4,-6,-22,-13,-20
1693678076447239000,-36,-13,-3,-7,-1,-26,7,-7
1693678076449259000,9,1,0,6,3,16,-12,11
1693678076455238000,15,6,2,-6,0,14,8,-4
1693678076458236700,11,-1,8,19,3,-19,3,1
1693678076471002300,-20,-3,-8,-25,0,15,3,-5
1693678076474016900,-16,-10,-3,6,-5,-14,-5,-4
1693678076476993200,17,7,-8,-7,2,19,4,2
1693678076477993500,-3,2,2,-15,1,-19,-8,-6
1693678076493644700,-11,-6,-1,-8,-5,-9,8,-1
1693678076495644100,-6,-9,-8,1,-1,36,3,-5
1693678076496643600,3,3,7,0,0,-10,0,6
1693678076497665900,11,6,6,-2,0,-10,-13,-1
1693678076506643500,-15,-2,3,1,-4,11,0,-10
1693678076508636600,3,-4,-7,4,2,-13,3,0
1693678076515484100,7,7,3,15,12,11,-5,5
1693678076517504700,8,5,1,12,-10,-6,3,-5
1693678076529688200,-12,-5,-8,-14,5,3,5,-5
1693678076531552900,-3,-7,-7,-20,13,-43,-12,-4
1693678076536529300,4,-2,-3,3,4,6,1,2
1693678076539555500,-3,0,3,-4,-4,-10,-1,-5
1693678076553733100,-4,-2,1,-2,-19,-8,1,-3
1693678076556734200,7,2,-3,-1,-1,-1,-1,3
1693678076558751900,-3,0,-8,-9,-4,-2,-6,-1
1693678076559750800,3,1,-3,1,3,-2,0,1
1693678076566466600,-9,-3,-1,-4,4,0,1,0
1693678076571468900,5,0,1,3,2,-7,-2,-1
1693678076575465100,-1,0,1,-1,3,1,-3,1
1693678076576464500,-3,0,-2,0,-2,2,0,-1
1693678076589530500,0,2,2,-2,2,-1,4,-7
1693678076591548300,1,-3,1,3,-10,-2,-2,-6
1693678076596421900,3,2,-2,-4,-4,-4,2,40
1693678076598446500,-1,1,-2,-4,-4,-3,0,-46
1693678076612415800,-6,-4,-2,-3,-9,-4,-13,15
1693678076614436800,-10,-1,-1,5,8,3,4,-14
1693678076620413000,8,0,-2,-2,-1,0,-4,-2
1693678076623410500,2,2,-2,-2,-3,2,-1,23
1693678076637549600,-31,-4,-3,-7,7,0,0,-15
1693678076639575600,19,3,6,13,-14,4,2,-13
1693678076641548100,61,1,1,1,12,-3,-5,-16
1693678076642546800,-12,-2,-3,-3,25,-2,6,41
1693678076649513100,19,-2,-1,-11,-14,2,-4,8
1693678076654472200,-16,-4,-10,-7,-30,1,-1,-3
1693678076656490200,-18,1,4,2,5,1,0,-16
1693678076658484800,7,-2,4,18,-2,-3,-5,-6
1693678076673458100,2,0,9,6,-8,0,3,4
1693678076675454000,-1,1,-4,5,26,0,-1,7
1693678076677451600,-12,-3,-8,-11,-37,0,0,-6
1693678076679452500,4,-2,-6,-6,21,0,-3,-6
1693678076687446700,-12,-1,-4,-7,31,2,3,1
1693678076690445300,5,-2,3,11,-7,-3,-3,0
1693678076694443300,-10,-2,-1,-2,-12,-3,-1,-1
1693678076695444800,-3,-4,2,-8,7,1,-1,1
1693678076710434100,3,0,-5,-4,-70,-4,3,-9
1693678076712432100,4,1,8,3,47,-1,-2,6
1693678076716429200,-9,2,-1,-1,-27,0,-7,-5
1693678076722426900,-3,-4,-5,-3,11,-6,5,8
1693678076733421100,-1,1,1,4,20,1,-3,-7
1693678076738417900,3,-1,1,-3,-11,-1,-2,4
1693678076740415900,-10,2,1,0,-17,1,1,-12
1693678076742414500,1,-1,0,7,30,0,-1,19
1693678076746412200,0,0,-6,-2,14,-2,0,-3
1693678076748412600,-3,3,1,-12,-25,-1,1,9
1693678076756410300,-3,-4,-4,11,32,0,1,-10
1693678076758408800,2,-1,-10,-7,-36,-2,-2,-13
1693678076770716200,3,2,11,-3,-1,-2,2,3
1693678076772717200,-1,-3,-3,-5,-2,1,-1,-2
1693678076776713500,-4,-2,-2,-12,19,-2,-2,4
1693678076778712700,0,1,0,-2,-20,-2,-1,-6
1693678076792563100,-8,-6,-8,16,6,0,-4,2
1693678076794560300,1,4,6,-5,-20,-1,0,-4
1693678076795560600,-4,-1,-7,-8,37,0,0,2
1693678076796559200,1,-1,1,-3,-23,-8,-4,-2
1693678076807799200,4,-1,1,1,18,1,1,-7
1693678076809798000,-1,-3,0,-1,-20,1,-2,2
1693678076813797200,-8,-3,0,6,27,-2,0,6
1693678076816793400,2,1,-3,-8,-1,0,-3,-6
1693678076829785800,2,0,6,11,12,-1,-1,0
1693678076831786800,-2,-4,-6,-5,-4,-3,1,2
1693678076843778200,-4,1,5,8,-23,3,4,4
1693678076845778600,1,0,1,-7,28,-1,-2,-8
1693678076853772800,-3,0,-3,6,27,1,0,-3
1693678076856770600,-1,-1,-3,-2,15,1,0,2
1693678076858770200,-2,-3,-6,0,-23,-1,-1,1
1693678076860767900,3,6,16,-11,-13,3,2,1
1693678076866764600,1,-2,-4,14,13,-3,-2,0
1693678076869764700,-2,-4,-5,-12,-12,-3,1,-2
1693678076875759200,-1,-1,0,1,-6,1,-1,-1
1693678076877759000,-6,-4,-19,-12,-17,1,-3,-5
1693678076889753600,0,2,10,12,-8,-1,2,2
1693678076891752600,2,1,8,14,3,0,0,0
1693678076896422600,-1,-2,-2,-8,-3,-4,-1,1
1693678076898437700,-3,-3,-3,-3,-3,1,-1,-3
1693678076920866500,0,-1,-6,-14,-15,0,0,-4
1693678076923865800,0,0,-5,2,16,-2,-3,-2
1693678076924865000,-1,-1,-3,-5,-6,-5,-3,-1
1693678076925864100,3,3,10,3,0,1,0,-2
1693678076942518400,-1,-1,4,8,-2,1,7,1
1693678076944516200,-2,-1,-5,-6,-4,0,-7,-1
1693678076945515900,-32,-4,-8,-8,7,-2,-4,-8
1693678076946515000,25,3,14,30,-7,-2,-2,8
1693678076965136500,-21,2,1,-18,-9,1,-1,-2
1693678076968139200,10,-2,-10,-5,-21,-6,4,0
1693678076972138100,-77,-5,11,-2,24,2,-1,-24
1693678076973135900,93,5,-6,15,-18,-1,0,26
1693678076988497700,-48,-3,-1,-4,6,1,4,-18
1693678076990496300,-5,0,7,1,-10,0,-25,4
1693678076995491300,79,9,6,7,-9,4,6,16
1693678076998491600,-23,-3,-18,-41,-37,-4,4,-12
1693678077000488400,10,-4,0,39,70,-11,-5,19
1693678077006486200,-43,-1,15,-4,-15,12,4,-54
1693678077007485300,-14,-5,-18,-24,-12,1,10,9
1693678077008483900,-13,7,33,47,8,4,17,20
1693678077025477200,20,-5,-23,-20,-48,-4,-9,-12
1693678077028473500,77,16,11,3,47,-12,9,68
1693678077029472300,-70,-19,4,10,-8,-12,-10,-59
1693678077031471000,4,1,-3,22,8,-6,12,-16
1693678077040465900,28,0,-9,-79,-34,-18,-2,9
1693678077043464400,-12,-1,10,26,37,46,28,-2
1693678077045462600,63,5,-22,-5,-41,28,12,64
1693678077046462200,-107,-16,-14,-20,25,3,-65,-90
1693678077054458100,55,16,41,59,4,66,21,48
1693678077056455800,57,2,-41,-68,-1,-86,-50,-21
1693678077063452400,36,15,36,51,14,48,29,31
1693678077064451800,-95,-25,-49,-72,12,82,5,-35
1693678077078444600,94,28,18,41,-18,3,17,48
1693678077080441900,14,14,-6,39,12,109,-37,52
1693678077081441800,-79,-68,-30,-28,-25,-90,-36,-87
1693678077082441600,114,24,24,14,7,17,6,106
1693678077100504200,1,1,-44,-79,4,-40,-1,0
1693678077105507500,82,5,54,88,-49,-83,14,68
1693678077108018100,-45,-48,-30,-36,17,58,5,-46
1693678077109019600,105,48,9,20,22,-34,26,90
1693678077114027800,-97,-75,-17,-31,-2,20,27,-106
1693678077116014100,-62,26,18,10,71,28,-63,8
1693678077130504500,108,55,-18,37,-28,46,-9,79
1693678077131510100,-110,-102,-2,-65,-72,7,1,-111
1693678077138504000,127,68,50,73,26,-6,-60,127
1693678077141503500,-110,-51,-37,-38,-27,83,58,-100
1693678077142501700,60,7,2,0,15,13,5,-9
1693678077144502500,127,68,6,20,48,110,17,42
1693678077160520200,-94,-20,-9,-25,-73,-117,-29,-72
1693678077162517700,-1,-26,-17,-10,19,89,51,-23
1693678077163517400,3,33,26,3,-11,61,-3,69
1693678077164516100,-37,-15,-18,31,-6,-21,-20,-22
1693678077174511000,-90,-23,1,-14,16,26,6,-47
1693678077175511800,-11,-4,3,-8,-4,-106,4,25
1693678077190516000,63,28,16,-4,16,-13,10,35
1693678077192515800,-109,-15,3,9,-2,-56,-13,-38
1693678077206434400,-5,0,-7,4,-2,34,-5,7
1693678077208431800,-30,5,-4,-10,-6,4,0,20
1693678077210430800,-108,-42,-4,-10,-7,-40,10,-58
1693678077211430100,107,53,14,8,5,-14,-3,26
1693678077221717000,-115,-7,-1,9,9,4,3,-10
1693678077223713800,-53,6,-5,-14,-25,-20,-2,14
1693678077224713800,-20,-7,4,6,38,-32,-7,-7
1693678077226713100,-49,-14,-2,0,-21,-26,2,47
1693678077235183600,28,-2,-13,-4,18,32,4,-21
1693678077239181300,30,4,10,2,-35,-14,4,-21
1693678077243176900,-9,3,1,-2,3,-2,-9,-30
1693678077245178100,-11,-13,-13,-28,44,5,-11,18
1693678077258506900,32,10,4,24,-51,-2,3,12
1693678077259505300,21,-3,-5,-6,5,8,2,-13
1693678077261505100,14,7,-6,-4,-77,-15,-3,22
1693678077262505800,14,5,29,0,93,-7,6,6
1693678077280503500,7,-6,-11,-15,12,7,-3,-39
1693678077282506600,10,-5,-11,25,67,-13,-5,1
1693678077285506200,6,2,7,-14,13,-6,0,36
1693678077288506000,-7,0,-3,14,-38,-5,-4,-55
1693678077294500300,-5,-6,-5,-12,9,6,-2,24
1693678077295499000,-73,2,6,-1,-43,-1,0,-15
1693678077303482500,72,16,14,8,32,-8,-1,12
1693678077305483200,19,-19,-13,-11,-103,-17,-16,-20
1693678077325664100,51,13,0,15,116,3,10,77
1693678077327662200,11,-4,-7,-13,-57,-3,1,8
1693678077328662400,-34,-4,3,-10,-23,1,11,-26
1693678077329661500,-35,-5,-4,2,-6,-15,-3,16
1693678077347732200,19,8,-3,-1,-30,11,16,-10
1693678077349734100,28,7,6,-2,1,-8,-7,17
1693678077352733900,-18,1,-2,-8,-51,-16,-7,-19
1693678077355731400,0,-3,10,-2,-21,13,5,0
1693678077356730900,-83,0,8,1,6,1,1,-8
1693678077357729300,84,2,-7,28,127,-1,-3,6
1693678077363286600,-1,1,2,2,-78,0,-3,-10
1693678077364303500,-18,-2,-13,-9,-1,-10,3,6
1693678077377273400,-1,-8,-17,-42,-4,7,-3,-9
1693678077379273200,-15,8,43,47,-46,-5,2,-15
1693678077385270500,3,-4,-8,1,26,-33,-9,7
1693678077389270300,5,0,-5,-10,23,7,11,11
1693678077399935300,-12,0,6,22,4,-5,-10,-22
1693678077403939900,6,-10,-29,-48,-66,-6,-3,1
1693678077415937500,9,1,-2,-7,34,-10,-5,6
1693678077419940300,-21,-2,6,28,-27,-5,6,-2
1693678077422939100,19,-2,0,-18,-26,0,-7,-7
1693678077424936500,-7,-4,-11,-9,8,-2,-4,-6
1693678077425935900,31,6,-5,14,28,4,2,44
1693678077427935000,-73,-8,-15,-13,-11,-8,-14,-80
1693678077437551400,10,-2,10,33,1,17,1,8
1693678077439551700,65,13,-9,-56,-9,-8,13,74
1693678077445716500,-57,5,16,71,20,-69,-13,-75
1693678077447736300,66,5,58,50,27,58,19,62
1693678077460506700,-26,13,12,-17,-38,31,11,-21
1693678077462531900,55,10,1,26,6,38,-30,-38
1693678077463531700,42,-12,-28,-37,-31,-62,19,117
1693678077464530800,-23,8,-42,-59,50,104,-16,-112
1693678077483483600,-64,-43,7,22,-8,27,-16,-27
1693678077487493400,-35,15,69,20,-5,30,32,61
1693678077489485500,-7,9,-5,14,9,8,-58,-90
1693678077490484600,-35,9,-17,-44,3,35,-3,69
1693678077505552600,127,-3,-32,-32,30,-28,23,12
1693678077507521500,-73,-74,-12,32,-9,88,13,-67
1693678077510511700,112,73,8,-35,9,-50,82,127
1693678077511533700,-114,-100,-41,42,-70,-128,-95,-106
1693678077520750700,120,88,65,71,-21,100,22,114
1693678077522753500,-90,-2,-20,-28,20,-90,13,-48
1693678077524751900,-19,-57,-10,-7,27,127,50,-3
1693678077526748100,127,58,6,-19,13,-61,19,74
1693678077543500600,13,-14,-22,11,35,-18,-4,-6
1693678077545479200,127,52,-46,-25,51,78,24,87
1693678077546478000,-94,-46,9,-67,-41,-42,-63,-128
1693678077547499300,-20,-43,10,30,5,93,44,-5
1693678077556496400,84,4,-9,-65,-9,-69,21,-16
1693678077559472200,54,25,-3,23,2,57,-76,22
1693678077565468000,-70,-40,-20,26,10,-68,-38,-41
1693678077567468100,34,13,-7,0,-11,28,8,20
1693678077580508500,-36,1,-3,-13,5,-6,-6,-12
1693678077582512300,-15,-4,-12,5,-25,-48,6,-19
1693678077583511600,-30,9,19,9,14,44,-3,-4
1693678077586515600,13,20,27,25,-6,-50,-3,37
1693678077604521100,-80,-11,-3,10,-12,11,5,-8
1693678077607519100,-28,-8,9,-23,-14,-48,-10,-32
1693678077609516900,6,10,5,8,2,35,-14,30
1693678077611516100,-76,-8,-2,-37,9,-5,35,1
1693678077616512200,46,15,-22,-14,-5,-9,-28,-22
1693678077620516500,-88,-24,0,-8,-11,-6,-2,-26
1693678077625507900,127,25,5,0,10,3,9,11
1693678077627506700,47,7,-6,10,0,-6,15,99
1693678077640501100,-5,-21,-2,-7,-23,-6,-13,-75
1693678077643497700,0,-3,6,2,-13,-31,-4,0
1693678077645495900,-28,9,12,17,5,32,16,-5
1693678077646495300,-10,3,0,-8,2,-16,-30,-19
1693678077663486100,-22,-13,-6,2,21,-3,-12,18
1693678077665485000,-2,-3,-1,-29,-30,-6,19,-11
1693678077668483100,1,3,-5,8,19,15,4,19
1693678077671481900,14,-1,-11,-55,40,3,-10,-36
1693678077676477400,-31,-6,0,54,-11,-17,-5,4
1693678077678477700,9,0,-2,-32,-13,-10,1,-14
1693678077687472100,-13,-1,12,28,-30,9,3,8
1693678077689475900,22,12,6,-2,0,-9,3,1
1693678077701892600,-30,-15,-17,4,70,-3,-5,20
1693678077705889600,2,-6,-8,-21,-1,-10,-8,-10
1693678077707886900,-6,1,1,12,-8,9,-7,26
1693678077708888300,-13,6,8,10,-31,9,11,-30
1693678077722680100,-21,-9,-6,-35,-66,-15,0,18
1693678077724677700,19,7,2,26,34,3,0,3
1693678077725678100,-28,2,-5,-24,28,-3,-3,-28
1693678077726677400,67,7,6,25,-15,2,7,39
1693678077736518800,-33,1,5,-12,-23,0,5,-18
1693678077739519800,32,-4,1,-15,-96,-17,-15,-40
1693678077745742500,27,3,-2,-9,31,11,19,3
1693678077746740800,-20,1,4,12,65,2,-5,0
1693678077761518500,-21,-6,0,-2,-30,-5,-10,-14
1693678077763518900,21,2,1,-11,17,3,10,26
1693678077764517900,-13,-1,-8,-10,-42,4,-5,-4
1693678077765517300,2,2,-1,4,46,3,3,-13
1693678077782506700,11,3,8,10,0,3,5,30
1693678077788512600,-30,-9,-9,17,107,1,-10,-29
1693678077790503600,-25,-2,-1,-14,-87,-10,0,11
1693678077791501900,38,3,3,2,-8,1,6,21
1693678077797497600,2,-2,-9,-33,-29,-5,-6,-12
1693678077799496600,-11,-2,4,25,16,2,2,20
1693678077805494300,12,5,9,-10,-44,1,-3,-17
1693678077807491500,-25,-4,-6,-10,42,-5,-5,-8
1693678077822484000,-29,-4,-1,1,17,6,1,8
1693678077825482500,2,-2,-6,0,-12,-7,1,-1
1693678077827479700,41,1,-6,-11,7,8,-1,4
1693678077828479900,5,-1,-1,6,-47,-7,-1,-13
1693678077842472800,5,5,14,-34,17,4,1,-4
1693678077844471800,-13,0,2,22,-2,-2,3,7
1693678077845469900,-11,-2,7,-14,13,-2,-5,-1
1693678077847468600,31,1,-12,-11,-22,-4,4,26
1693678077856426100,-11,-6,-43,-36,29,10,4,-4
1693678077858425200,75,19,39,47,-26,2,14,42
1693678077865693700,-30,-1,45,26,30,-17,-7,-24
1693678077866691500,20,4,-35,-39,3,61,9,-16
1693678077880543600,119,28,-1,-3,-7,-29,29,32
1693678077882540800,-125,-54,0,28,-9,23,-22,-75
1693678077883539900,127,24,-38,-88,78,73,18,97
1693678077887538600,-128,-55,114,112,-116,-80,-46,-128
1693678077903520700,89,0,-59,127,76,-46,14,124
1693678077906520900,-35,14,-16,-119,-57,83,35,-33
1693678077908517600,-91,-75,-108,94,127,-28,-18,-106
1693678077909517000,51,65,103,107,-106,-62,-35,71
1693678077916428900,28,0,-98,-101,23,69,-13,-25
1693678077921429300,5,-31,-18,4,-51,-45,43,-11
1693678077925427700,97,19,-33,-81,25,49,-31,87
1693678077927426100,80,3,-72,-80,77,44,53,10
1693678077940418200,-54,1,68,32,-31,-6,-65,-95
1693678077942417100,127,57,20,18,18,-116,84,85
1693678077944415600,-85,-31,4,51,-7,70,19,8
1693678077945416400,-21,-19,-28,-77,-21,61,-44,-28
1693678077963520500,-18,16,26,0,-40,-19,-20,11
1693678077965514900,-51,-1,9,16,19,50,-15,0
1693678077966514000,55,30,17,35,-34,-72,39,-21
1693678077969513900,114,44,-4,-2,52,6,14,49
1693678077976508200,-98,-55,-4,57,-14,43,16,-85
1693678077978509100,60,-10,-37,-34,33,8,-26,-3
1693678077987503400,32,16,53,-46,-57,-41,-11,-7
1693678077989502200,-45,-26,-38,-3,17,20,17,34
1693678078000884100,37,13,20,-19,4,18,-38,-14
1693678078004883000,-6,1,2,12,2,-29,0,14
1693678078005881800,-2,3,15,34,-18,5,-17,10
1693678078007474000,-24,5,-31,-36,24,-22,26,-18
1693678078022610000,-24,-5,20,-5,0,-14,25,-2
1693678078025607700,-16,5,-4,-4,3,-5,-34,28
1693678078026607300,-28,-7,-15,-13,-2,-24,-3,-28
1693678078028605700,-35,-13,-7,6,1,13,-5,-23
1693678078037507100,0,-3,9,5,-12,-20,9,35
1693678078039511100,2,-10,-29,1,9,16,-26,-18
1693678078045501800,3,4,3,-13,2,14,4,-16
1693678078047502200,-7,-7,-8,-23,10,-24,3,6
1693678078060504900,19,7,44,60,-26,7,7,13
1693678078062510300,-1,1,-12,-17,19,4,-8,-8
1693678078063510000,-13,-6,-12,6,-14,-13,-1,-8
1693678078064508800,-9,-3,-21,-28,12,-15,-8,13
1693678078082836000,4,5,18,-58,-3,7,19,-4
1693678078087490300,-7,-5,1,34,-4,22,-41,-16
1693678078089485700,-5,1,-1,16,16,-12,-6,6
1693678078091482100,-1,-8,-4,3,-20,-46,-5,-8
1693678078096477800,100,28,-13,-34,1,13,3,18
1693678078098476300,-74,-38,9,21,-2,9,-6,-10
1693678078106475000,24,6,3,-23,3,15,15,3
1693678078108472900,-2,-3,6,16,-6,-8,-21,-13
1693678078120586100,0,4,6,5,1,-2,1,3
1693678078123585000,18,7,-11,-43,-1,-20,-2,11
1693678078124584500,22,2,-2,35,3,-4,-1,2
1693678078125586000,-58,-5,18,37,-3,20,13,-12
1693678078158518500,-25,-15,-14,-1,2,-7,-3,-2
1693678078160517300,14,9,7,-5,0,2,-6,-8
1693678078162518100,-16,-8,-3,-19,-12,0,-8,-38
1693678078163516500,24,3,-2,5,8,11,20,25
1693678078164516600,-16,-7,-4,-7,3,-3,7,0
1693678078165516000,-2,-1,-7,-22,-73,-14,-18,-29
1693678078166515500,4,-1,-1,3,34,0,-12,36
1693678078171512300,7,3,-3,-2,-25,-2,-17,-24
1693678078180508300,-21,-7,-8,0,20,-7,9,-16
1693678078182514400,16,6,7,13,4,7,17,12
1693678078183514000,-6,-4,-2,-2,-34,-4,-4,-4
1693678078188509600,4,-1,-1,0,10,-1,-8,4
1693678078203914500,-10,-5,0,7,51,10,-3,33
1693678078205921300,10,9,3,-12,-52,-16,5,-3
1693678078207490700,-4,-4,1,-6,-7,-2,-1,10
1693678078208477900,0,-3,-4,-20,-9,2,8,-7
1693678078216473500,-2,-4,-5,5,59,2,-2,1
1693678078220478000,5,4,2,15,-9,-3,-5,2
1693678078225467700,-10,0,6,-6,-17,-1,16,16
1693678078227467900,5,0,-4,5,11,3,-7,-2
1693678078240458100,-6,-5,-7,-6,0,-5,0,-5
1693678078242457500,3,1,-1,-6,9,5,-4,0
1693678078244457800,-5,-1,-4,3,16,4,-2,-12
1693678078245457100,9,5,3,-16,13,7,12,4
1693678078263480400,-4,-3,14,22,10,-7,-9,-7
1693678078265488200,-1,-3,-7,3,7,-2,0,2
1693678078266487500,2,1,1,-2,-75,-7,3,-7
1693678078270487700,-2,-3,-14,-1,37,-2,5,17
1693678078276481700,-8,-7,-16,-15,-19,-3,-12,-31
1693678078277482000,5,7,13,-22,15,4,4,14
1693678078287476400,0,1,6,1,40,-1,1,-5
1693678078290474400,1,-1,0,19,4,7,-1,-22
1693678078299660900,-6,-3,-5,-13,-91,-10,-1,11
1693678078304513900,6,-1,2,7,12,0,4,20
1693678078314502900,-9,-10,-40,-46,28,-1,-12,-17
1693678078315502900,8,9,51,-1,26,4,9,7
1693678078323497800,2,6,15,37,-49,-2,2,-6
1693678078325496700,-2,-1,-16,18,30,1,-2,-10
1693678078327496600,3,10,36,5,-6,-2,0,5
1693678078329495300,-7,-12,-25,-11,-5,-2,-4,-5
1693678078337491600,0,-4,-17,-38,17,4,1,-5
1693678078339488900,-7,-17,-51,-22,6,3,-4,5
1693678078346483900,6,20,93,102,-27,-7,1,-1
1693678078347482900,1,0,2,21,1,-3,0,-1
1693678078359477900,0,-1,-7,-18,-17,-2,-3,3
1693678078361475700,-1,0,-6,-12,20,6,0,-3
1693678078368472400,-6,-11,-37,-29,14,-31,-6,-9
1693678078372471400,1,3,-2,1,-18,31,6,8
1693678078382463300,-6,-9,1,-2,-19,-17,-9,-1
1693678078387466500,1,4,13,-5,6,-11,-8,-1
1693678078389459500,5,1,-4,-1,2,5,-14,-17
1693678078391458700,-2,-3,-1,11,-12,9,-2,32
1693678078405523500,2,0,-14,-16,0,-33,16,-14
1693678078407519900,-2,-1,16,19,22,4,1,-8
1693678078409518000,1,-1,-9,-13,-18,17,-25,10
1693678078411516800,-4,-1,-15,-4,5,10,13,-6
1693678078419416100,-11,-1,1,0,4,14,12,4
1693678078422414600,3,3,10,7,-11,-43,-10,-3
1693678078426411100,-42,-7,-3,-2,12,-28,-3,-29
1693678078428413000,65,23,0,-2,1,19,-18,30
1693678078442402800,46,2,5,5,-1,-47,28,16
1693678078443402000,-89,-7,10,8,1,76,62,-7
1693678078445400800,72,-10,-24,-17,-6,-71,-89,-19
1693678078446399900,5,-18,-6,-7,-13,-61,-23,34
1693678078464659800,-61,32,2,-1,-1,47,32,-40
1693678078466666400,120,10,12,12,9,-10,-56,47
1693678078471661100,-6,8,-5,-3,10,44,62,-14
1693678078473658300,-114,-29,-2,4,-1,-3,-31,-44
1693678078479009400,111,23,0,2,2,0,1,9
1693678078481013000,32,-14,-8,-12,-8,-2,14,36
1693678078487008500,2,0,-6,-3,4,37,18,-42
1693678078489010300,-33,-13,-6,5,2,-12,-18,15
1693678078504293700,-92,-7,9,3,18,54,-4,5
1693678078506291300,-103,-11,1,-3,-10,-9,40,-84
1693678078507811900,125,20,0,5,11,24,33,29
1693678078508801000,-53,3,0,-5,-9,-20,-25,21
1693678078524491800,-67,-30,-4,20,37,29,-10,-30
1693678078526489600,-27,23,9,4,-11,-63,-47,-4
1693678078527488400,28,-4,2,-18,-17,4,8,26
1693678078528488300,-32,-5,-5,0,-4,10,12,-77
1693678078539482100,66,20,4,0,-3,13,-40,74
1693678078541482800,10,-16,-3,23,35,54,40,59
1693678078546438000,-31,6,6,-6,6,18,4,64
1693678078548443100,-13,5,4,-1,-10,35,-40,-61
1693678078562432400,59,-28,-4,-1,6,13,21,-16
1693678078564431300,-6,24,-1,-5,-8,14,-13,-82
1693678078565430900,-93,-22,-4,0,-18,-43,-56,-43
1693678078566430400,-25,2,-7,-22,-17,-4,71,26
1693678078593440200,-47,-5,1,-2,8,-57,10,-70
1693678078595439800,-10,-31,-2,-4,-8,-1,-40,-8
1693678078596438600,-16,35,-6,-9,5,16,25,-73
1693678078597438900,30,-6,4,18,13,-34,-23,-24
1693678078599035100,50,3,-7,-6,-6,1,-8,-4
1693678078599935900,100,17,0,-12,-12,-15,30,91
1693678078614659600,-30,-2,-8,-9,-16,-19,-35,-5
1693678078616662100,-18,-25,-11,-12,-10,-9,20,-73
1693678078630503500,28,-1,-2,6,25,20,-7,79
1693678078632507900,-36,-3,-9,-17,-19,-19,-43,-19
1693678078635506500,-24,-15,6,33,44,50,49,-34
1693678078638504200,47,42,17,-1,-24,32,19,90
1693678078644638800,-7,-13,3,4,2,3,-29,-103
1693678078646644100,-33,-11,-16,-20,-24,-16,-34,-108
1693678078648641700,-45,5,13,22,22,22,25,11
1693678078649640400,8,-7,-8,-7,8,10,20,-17
1693678078660504600,-12,18,0,-24,-36,-23,-11,47
1693678078661511600,4,-3,0,-3,-1,-6,8,36
1693678078666505800,-6,-7,-5,-12,-18,-4,7,-3
1693678078671505700,52,4,-6,3,12,2,6,14
1693678078685938100,-21,-8,-14,-32,-48,-58,-14,-5
1693678078688937400,-8,-8,-21,-22,-8,14,7,-12
1693678078690934200,16,-7,7,14,2,-26,-2,18
1693678078691933900,16,16,1,19,-26,-10,3,3
1693678078713481500,-43,-29,-9,-17,32,-11,-22,-13
1693678078714484700,23,45,44,23,-4,35,41,16
1693678078715484800,-2,-20,-24,26,42,3,-16,24
1693678078716483700,28,30,41,13,-57,2,18,24
1693678078720486100,-28,-15,-31,-19,104,26,-2,-15
1693678078723480000,18,3,46,-79,-90,-11,4,8
1693678078726477800,2,-10,-24,-24,1,-5,2,6
1693678078728477000,2,-10,-15,27,62,41,-8,-14
1693678078742468600,-8,-6,-34,13,-2,-43,11,4
1693678078744469100,-18,-21,-33,104,91,-21,-12,-6
1693678078745467200,14,24,36,-55,-35,5,3,20
1693678078746466400,7,-2,70,-32,-101,-32,-5,-8
1693678078764516700,-5,5,-21,-83,27,96,9,11
1693678078767498400,-5,-2,53,127,2,-58,-15,-5
1693678078770500000,-1,-2,-20,-55,14,-10,4,2
1693678078772499000,-2,-14,-16,8,73,39,-1,-4
1693678078787503700,1,0,23,-42,-97,-93,-12,-2
1693678078789504300,-11,-10,-21,-107,32,93,-2,-9
1693678078791503900,1,-14,-23,-7,2,68,4,3
1693678078792500300,-2,-3,-33,-48,95,34,9,1
1693678078810285700,1,7,51,31,-105,-46,-26,-5
1693678078812284000,-13,-10,-28,103,113,105,-17,-13
1693678078813284100,21,20,16,-45,-97,-34,12,22
1693678078815282600,-10,-24,-62,15,127,-12,-7,-6
1693678078824277500,25,47,81,-14,-80,37,47,23
1693678078826276800,-2,-6,-49,-8,114,20,-12,-7
1693678078827276100,17,18,44,-19,-73,28,18,13
1693678078829275600,-13,-16,-38,7,-53,-104,-29,-21
1693678078847141300,-9,-14,-33,127,73,104,3,-3
1693678078849148000,-7,-16,-96,-128,25,-107,-5,-6
1693678078852143600,1,5,92,102,-79,-30,-1,5
1693678078855144200,-2,-15,-47,-87,81,-50,1,-3
1693678078871380000,-13,-25,-89,-92,-5,57,5,2
1693678078873377700,13,23,100,68,-110,-47,4,7
1693678078875375700,-12,-21,-78,42,127,88,-14,-11
1693678078877374900,20,35,57,12,-68,11,4,9
1693678078886500800,12,16,8,55,-28,-12,6,2
1693678078889499300,-10,-19,-41,-44,90,-11,5,-5
1693678078892497200,-14,-24,-77,-128,106,84,-13,-9
1693678078893496600,30,41,112,69,-128,14,5,19
1693678078915360000,-30,-32,-46,-72,127,20,-3,-11
1693678078919360300,-1,-34,-59,-76,-109,9,0,-1
1693678078923357000,14,82,97,125,-91,-113,-8,7
1693678078924360400,-9,-17,-88,-69,51,35,-3,-9
1693678078926355100,5,1,-11,-61,7,49,-10,0
1693678078928353900,1,-10,-36,-105,-10,87,12,3
1693678078929353700,-9,-21,-23,-12,79,2,1,-5
1693678078930352900,-2,-11,20,98,-82,33,-3,0
1693678078944346600,7,27,60,89,-1,-108,11,0
1693678078946343100,-8,-17,-8,-16,-32,-38,2,8
1693678078948344300,0,-3,-61,-105,72,-37,9,0
1693678078949343800,-22,-32,32,-28,-60,-13,-18,-6
1693678078971164700,-1,51,60,67,-22,77,-9,-18
1693678078973165900,25,30,15,11,50,-47,5,11
1693678078974161900,-1,-8,-16,16,-24,35,-10,-7
1693678078976161000,7,-3,-12,-48,44,-87,15,5
1693678078990503000,-18,-25,-17,6,17,-40,-22,-3
1693678078992502800,-6,-1,10,-18,-42,106,9,-5
1693678078993501800,-8,-13,-33,-5,6,-43,-18,-5
1693678078994500100,-3,10,56,70,-41,28,-9,-4
1693678079013482000,6,-11,-24,-33,19,10,7,8
1693678079014485700,9,25,15,1,26,-6,11,6
1693678079016485600,-5,-28,-8,19,-33,-18,-9,-3
1693678079018483900,-2,3,-23,-49,34,48,29,-3
1693678079038306700,-3,-11,-41,11,28,-6,-30,-4
1693678079040304900,1,14,52,65,-10,-37,6,1
1693678079042304400,-11,-20,-30,-67,46,72,-2,-3
1693678079044302500,-1,-7,-90,-111,49,-58,-11,-3
1693678079047301300,27,39,127,87,-49,-21,35,21
1693678079048300500,-7,-12,-32,-25,8,6,-9,-7
1693678079049300400,-3,-6,1,60,-22,-4,-29,-4
1693678079054300300,-7,-3,-20,-16,25,27,7,-1
1693678079064290500,6,-11,-39,-64,12,14,-4,0
1693678079066291300,-2,3,-20,-53,-13,30,15,1
1693678079089277400,4,15,63,100,-49,-15,3,3
1693678079092275800,1,-4,9,9,-5,-49,-2,2
1693678079095273900,-3,-10,-39,-26,-2,-5,8,4
1693678079097272800,-3,15,44,55,-8,-13,-14,-7
1693678079098271900,11,1,-6,-25,-4,24,17,7
1693678079099271200,-8,-10,-24,-11,5,58,-14,-7
1693678079112263600,-1,-5,-3,-18,-29,-90,-9,-1
1693678079113262700,-6,0,-3,-2,2,2,-2,-4
1693678079115263900,-6,-12,-17,-36,-3,22,9,-2
1693678079122259800,2,17,26,33,4,-4,5,2
1693678079124257100,-2,-9,-17,-12,20,27,5,-27
1693678079126256500,-7,-7,-15,3,-12,14,-8,22
1693678079127256100,-4,12,13,3,-12,-47,8,-7
1693678079128257000,6,0,2,13,-2,16,-10,7
1693678079147167600,3,1,-9,-10,1,13,-12,-3
1693678079149167400,2,4,9,10,2,19,21,-12
1693678079152165100,-2,-2,4,-13,-18,-65,24,6
1693678079155162800,-2,-2,-6,-4,31,37,3,5
1693678079163137800,-1,-3,-9,-11,7,23,1,-1
1693678079164137200,6,2,20,24,-12,2,-5,4
1693678079166135600,1,-3,-3,-10,3,1,6,-1
1693678079167134700,0,3,-4,2,5,23,5,-3
1693678079186519900,-11,-12,-4,-1,-6,-22,12,3
1693678079189519300,6,0,4,14,-8,-3,-24,-1
1693678079190518300,-1,-2,3,-22,-8,-1,-6,0
1693678079192516700,4,-4,-8,5,3,-18,-7,1
1693678079208037900,-2,4,10,1,-4,26,20,0
1693678079210037600,-1,0,-1,-2,-3,-34,-5,-5
1693678079212036600,-5,-5,-7,-4,-1,9,-6,-3
1693678079213035100,1,1,1,-1,-5,10,10,2
1693678079222030200,0,-2,-3,0,2,-2,-3,2
1693678079224028300,1,0,-2,-4,-4,-2,4,-2
1693678079225028400,-1,-9,-39,-66,5,-9,-14,-2
1693678079227027600,5,22,78,90,-14,3,6,0
1693678079247015600,-2,-6,-7,-4,2,-4,-10,1
1693678079249014900,-1,3,-1,-1,-2,-15,13,2
1693678079251013900,-2,-5,-4,-11,-7,1,-12,-5
1693678079255014700,-2,-10,-31,-28,3,-5,-9,-5
1693678079270170700,-1,1,1,-5,-4,0,-6,2
1693678079272170200,2,4,11,6,-6,-1,2,1
1693678079274167500,0,3,4,19,3,9,20,1
1693678079276169000,-1,-4,-17,-31,1,1,-4,-5
1693678079282210000,-2,-3,7,27,-3,-10,-15,0
1693678079286228300,0,0,-7,-14,-4,-1,14,0
1693678079288225600,2,1,14,16,-2,-4,-8,-1
1693678079290223600,-1,3,-3,-10,2,-4,-9,-3
1693678079312517900,0,-6,-10,-17,1,11,3,3
1693678079314515800,-1,1,2,-7,-1,-7,-5,-2
1693678079315515500,0,3,21,15,-2,-6,-21,-2
1693678079316513900,-2,-3,-3,9,6,9,-2,-1
1693678079327151800,0,-2,-7,-8,1,7,5,0
1693678079329150900,0,-5,-20,-15,-1,-3,-7,-2
1693678079330149700,0,3,32,15,-8,-1,-1,1
1693678079331149100,-7,-22,-73,-10,-1,9,9,-1
1693678079342143600,7,25,58,1,-15,-13,-10,1
1693678079343144300,-1,-2,-15,20,3,-5,-3,0
1693678079366123600,-3,-5,-38,-8,3,7,11,-1
1693678079371127400,0,-2,-3,-7,-5,-12,-20,-2
1693678079373125100,-7,-13,-35,-24,-3,-1,-3,-2
1693678079375123400,-1,-2,3,-4,-3,1,-3,-3
1693678079377122700,1,2,12,1,-4,-1,6,0
1693678079379122300,0,-4,-7,-13,1,-2,-1,-1
1693678079387116800,0,2,7,2,4,-4,-3,0
1693678079389119300,1,2,15,21,-2,1,4,-1
1693678079395113000,-3,-2,-11,-1,0,3,-2,-3
1693678079396112100,-2,0,-12,3,-1,-4,2,-1
1693678079410127700,1,-5,1,-59,6,10,-3,0
1693678079412126100,1,0,-12,31,-22,-1,-2,0
1693678079413125100,-1,6,39,10,6,-9,-4,-1
1693678079414124500,-1,1,16,11,3,-2,0,-1
1693678079427117400,1,-1,-14,-15,-3,-5,4,0
1693678079428116700,-5,-11,-24,-54,18,8,-2,-1
1693678079429116200,-1,4,16,62,2,-10,-6,1
1693678079431115900,1,6,17,13,-1,-2,3,1
1693678079447492300,-5,-9,-20,14,9,3,-3,-2
1693678079449488700,-3,2,8,-2,4,-5,-4,-2
1693678079451487800,4,1,-22,-28,0,3,2,0
1693678079454485800,1,1,10,-8,7,0,2,0
1693678079462480800,-1,-1,2,27,0,9,-1,1
1693678079463481000,-1,-1,-3,-16,-7,-18,-3,-2
1693678079465479000,-4,-7,-27,-14,-2,5,2,-1
1693678079466478100,-3,2,-15,-37,1,-6,-4,-2
1693678079486484300,3,9,38,47,-1,1,2,1
1693678079488494000,-3,-4,3,7,2,1,-1,0
1693678079492481000,-2,0,-7,-12,-7,-5,-3,1
1693678079494501500,1,-7,-20,-11,-3,-2,9,0
1693678079515334500,-2,-2,-16,2,15,-10,-18,-2
1693678079519136000,3,4,9,-3,-13,10,4,2
1693678079521132000,-2,-11,-13,-26,-19,-35,-3,-2
1693678079524131900,-3,3,24,32,5,13,-2,-2
1693678079526128900,2,-5,-4,7,2,2,5,0
1693678079527127800,0,6,8,7,13,9,2,0
1693678079528127000,-2,-3,-13,-21,7,13,1,0
1693678079529126600,-1,0,5,14,9,3,2,2
1693678079545304000,5,12,6,-1,-1,-4,2,1
1693678079547304300,1,-5,0,-2,16,2,-2,0
1693678079548302800,1,1,-1,10,36,19,6,-1
1693678079549302100,1,7,30,34,35,22,4,4
1693678079570332700,-2,-2,-5,4,-1,26,4,1
1693678079574329100,-4,-6,-48,-12,27,-23,-5,-2
1693678079576327100,-6,-9,-6,-51,-17,21,-4,-7
1693678079578327000,14,24,68,87,-83,-80,5,9
1693678079593317900,-12,-23,-42,-53,80,19,-12,-9
1693678079595317100,8,15,20,86,81,77,18,7
1693678079597315900,-18,-32,-53,-48,-38,-101,-43,-47
1693678079598314600,-9,-14,-37,-82,22,38,-5,28
1693678079605313100,4,6,12,7,-93,23,14,-2
1693678079607311400,-13,-22,-16,20,72,-47,-30,-25
1693678079609310500,26,31,64,90,-72,45,47,82
1693678079610310500,-16,-16,-36,-30,-80,8,-20,-114
1693678079627298800,-19,-23,-34,-71,-75,-64,-1,109
1693678079629297800,5,14,37,33,-65,-6,-49,-63
1693678079630296400,18,9,6,44,20,82,-1,111
1693678079631295900,-28,-17,-31,-30,-38,-128,-34,-100
1693678079642289700,25,21,42,14,-19,20,15,82
1693678079643289700,-18,-30,-45,-30,18,65,31,-10
1693678079644289100,5,29,55,-77,-111,-89,-9,-27
1693678079645288500,3,-18,-43,88,98,127,9,1
1693678079673222400,1,12,23,23,110,10,-14,-59
1693678079675221700,-8,-15,-22,-46,-91,-101,-37,-33
1693678079676220900,1,3,0,-26,12,-54,-2,66
1693678079677220000,7,10,30,115,114,125,5,-22
1693678079687506000,-19,-30,-57,-108,-128,-59,13,-30
1693678079690505800,27,32,72,81,5,56,59,110
1693678079691504600,-22,-25,-34,65,127,54,-34,-100
1693678079693503200,-7,-12,-18,-56,-19,-94,-23,36
1693678079703523300,0,-3,-21,-59,-58,-11,-13,-4
1693678079706524600,25,44,89,106,-17,27,35,4
1693678079707523900,-26,-33,-65,-43,89,-10,-18,-41
1693678079708523300,23,27,44,-46,-30,-42,22,86
1693678079724512000,-7,-14,-20,37,-49,-61,-23,-60
1693678079726512800,4,9,-4,36,115,82,28,15
1693678079727513200,0,3,-10,-81,-109,-5,0,-13
1693678079728512400,-11,-23,-7,65,-20,65,-18,-11
1693678079747171900,9,20,43,35,-34,-22,24,-11
1693678079749196800,-21,-37,-74,12,76,11,-26,-48
1693678079752174000,5,6,14,-2,-40,-35,-1,29
1693678079755171900,16,31,37,-22,-31,-4,30,16
1693678079762173200,-6,-7,-4,125,55,86,4,9
1693678079764187700,11,20,35,-49,-128,-19,2,20
1693678079765187500,5,6,1,66,-24,42,15,-34
1693678079766186200,-15,-29,-60,-113,-59,-78,-28,-37
1693678079785510100,-6,-10,-5,37,102,-37,-20,26
1693678079787510800,13,29,50,33,30,-12,22,-12
1693678079792511200,-26,-39,-65,-20,20,-43,-40,-8
1693678079794505200,18,25,53,70,113,108,31,30
1693678079809000400,-1,7,10,24,92,12,25,-11
1693678079811021200,-11,-27,-54,-128,-109,-76,-17,-39
1693678079812020300,0,7,24,127,118,-10,-5,30
1693678079813019100,1,1,-22,-68,-3,61,19,3
1693678079821992700,1,5,6,76,127,126,14,-9
1693678079822994700,-9,-18,-27,12,6,33,-8,-66
1693678079829734400,12,18,41,92,52,-17,21,25
1693678079831748900,-10,-17,-42,-107,21,-108,-27,65
1693678079844730100,4,16,53,54,-117,56,16,-14
1693678079846725400,-3,4,0,-52,-31,-55,21,25
1693678079847745200,6,9,32,79,64,86,41,2
1693678079848739200,22,26,29,127,87,53,-4,23
1693678079870176300,-25,-40,-92,-128,-59,-61,-49,-90
1693678079872176200,12,23,74,93,13,92,21,44
1693678079873175500,-2,-22,-25,28,90,13,-11,-28
1693678079875173900,7,18,41,66,-10,-30,5,-27
1693678079890545700,-9,-12,-19,-70,-16,31,-7,-57
1693678079892565600,-2,-9,-14,13,-36,38,-3,78
1693678079893564800,19,38,45,27,30,85,58,-1
1693678079893564800,-11,-13,12,42,-29,-61,-22,-20
1693678079904606400,4,-10,-13,22,116,-5,-21,3
1693678079906604500,-9,-8,-17,-15,-40,-1,-2,-26
1693678079907603000,-13,-23,-47,-128,18,-78,-31,-1
1693678079908603200,3,10,12,76,65,98,28,8
1693678079927213600,16,35,74,95,89,60,23,23
1693678079929209900,-17,-31,-50,-55,-21,-82,-49,-9
1693678079930232600,39,60,79,53,55,127,85,35
1693678079931208800,-41,-68,-117,-128,-128,-113,-93,-58
1693678079943206500,10,16,33,60,112,80,12,21
1693678079944206600,10,19,27,82,-14,52,19,21
1693678079950504100,-11,-14,-20,-84,-49,0,-43,-42
1693678079953508700,9,19,41,-39,4,9,18,7
1693678079965143600,-5,-5,-16,-3,-13,-73,-20,12
1693678079968140800,-2,-1,-23,-78,-37,-86,2,5
1693678079971138800,6,15,49,17,-5,56,7,-9
1693678079972138600,-5,-10,-13,64,127,-19,-7,4
1693678079996238500,7,7,20,38,15,-8,6,15
1693678079997236700,6,2,10,-23,56,33,7,0
1693678079998237200,-5,-3,-8,3,-26,-17,-6,-14
1693678079999235600,16,22,19,22,-80,127,59,28
1693678080002234300,-14,-33,-73,-22,-47,-95,-30,-12
1693678080004233200,-6,-9,2,89,75,-88,-21,-11
1693678080013228700,1,0,5,-84,-85,-54,-16,-3
1693678080015226600,-7,-10,-22,-32,65,-20,-11,-5
1693678080025221500,-1,1,-19,2,28,-4,9,2
1693678080026242400,-8,-13,-17,-38,12,-20,-15,-6
1693678080027242400,-8,-11,-14,29,45,-16,-6,-7
1693678080028236400,7,1,17,-45,-65,7,24,22
1693678080047171600,5,12,27,20,19,33,14,1
1693678080049173900,2,9,-4,-32,17,38,-5,-4
1693678080050193100,-10,-16,-23,-27,15,22,-8,-12
1693678080053173100,-4,-2,-12,-81,-62,-90,-25,-8
1693678080061208700,-2,-5,-19,18,96,13,-1,8
1693678080063163100,0,-7,-26,74,91,127,8,1
1693678080070158900,-3,-2,4,-15,-54,-81,-12,-10
1693678080072161500,1,5,3,29,36,26,8,-1
1693678080086484600,-2,-1,-5,-74,-128,-50,-14,-1
1693678080088484900,-6,-1,-3,-15,-12,-70,-12,-5
1693678080089483300,-3,-7,-2,26,26,-7,-14,-8
1693678080091483200,-10,-7,-20,-2,94,1,-4,-14
1693678080107505500,4,2,12,19,-7,-7,3,6
1693678080109507200,0,1,7,-3,1,29,9,3
1693678080110508100,-2,-6,-21,-8,-36,26,-1,1
1693678080111505300,-2,-2,15,46,41,16,0,-2
1693678080130503300,-2,-2,9,-14,-60,0,-6,-3
1693678080133510700,-1,-1,9,0,12,-5,0,1
1693678080137505700,-7,-4,-11,-3,-9,3,-6,-9
1693678080139503900,15,7,11,6,-27,1,10,11
1693678080144617200,-4,8,17,24,6,18,12,3
1693678080146640400,-16,-9,-11,-37,-20,-15,-23,-5
1693678080147619900,-23,-24,-13,17,24,7,-4,-9
1693678080148636100,-4,31,-2,0,-14,19,-10,-5
1693678080169950100,29,-23,-4,-19,-19,1,8,-2
1693678080171946400,-20,43,0,-6,3,-3,-12,-7
1693678080172945100,57,-8,1,3,1,18,0,-7
1693678080175964800,-64,-22,16,20,3,11,32,-5
1693678080181730600,-33,4,-2,-16,-11,-15,5,-32
1693678080182747400,73,24,13,5,7,2,-7,28
1693678080197229900,-64,-1,13,30,16,26,1,6
1693678080199254800,-41,-26,-6,-22,-30,-2,9,8
1693678080206227800,56,40,-6,2,15,10,-5,1
1693678080208227200,-59,-46,-7,-11,-3,-6,-7,-23
1693678080211226200,50,21,-7,-1,-5,-6,-24,16
1693678080212225500,-28,-5,9,14,4,3,24,-8
1693678080227215800,26,9,-3,-11,-13,-1,-39,14
1693678080229237400,-46,-7,5,8,12,4,17,-2
1693678080230236100,-5,-7,-2,-3,0,9,23,2
1693678080231235700,16,-35,-5,-1,-15,-8,8,34
1693678080242208600,16,17,3,0,-2,-7,-16,-21
1693678080244210000,28,15,6,-2,2,-1,6,-29
1693678080257516600,-88,-16,-18,-11,-9,6,-10,31
1693678080259516400,35,29,6,7,9,7,31,10
1693678080273174600,-51,-30,2,-2,-5,-6,15,7
1693678080274176400,36,-12,-7,-5,0,6,-4,22
1693678080277194900,-63,0,2,5,1,6,17,-21
1693678080278193700,59,5,-5,4,3,4,-24,-8
1693678080287528700,-64,-23,-7,-12,-7,-17,0,7
1693678080289550900,37,0,3,3,8,9,-45,-54
1693678080291548700,47,20,2,3,-5,-34,12,99
1693678080292525900,0,-3,-6,-7,0,17,79,-42
1693678080320193100,-20,-14,1,2,3,-13,-85,-4
1693678080322214000,-15,-14,-7,-7,-2,10,21,32
1693678080324192700,45,19,3,-2,-4,-63,-7,-49
1693678080326189200,-36,-18,-4,-1,5,23,-58,-82
1693678080328205700,-30,-4,-4,0,7,50,70,100
1693678080329209200,1,25,14,3,-8,-28,-23,-91
1693678080330203700,10,2,1,-1,2,21,-12,-8
1693678080331208000,34,8,-4,-6,-11,-3,-6,-36
1693678080347205500,-93,-67,1,4,6,27,12,-72
1693678080349204900,104,33,-20,-19,-17,10,-44,95
1693678080352202900,12,19,8,2,-4,33,51,101
1693678080354199500,-61,9,-2,2,22,31,-4,-19
1693678080371098000,127,-9,9,7,18,67,8,106
1693678080373099300,-23,45,-5,-9,-22,8,35,-43
1693678080374098900,-98,-87,-13,5,14,-37,-47,-128
1693678080376095600,110,78,5,5,6,36,4,17
1693678080386528700,59,37,5,-5,-4,39,64,-19
1693678080389526800,-47,-65,-3,6,14,-3,18,-5
1693678080390526100,-55,38,13,6,12,54,-55,42
1693678080392527200,4,-62,-8,-4,-17,2,55,-30
1693678080407505600,-28,-66,-14,-4,-6,-10,-2,-29
1693678080409504000,-18,-85,-19,-12,-12,-57,-23,112
1693678080411502400,58,79,20,6,-13,-18,47,-63
1693678080412504100,-55,-65,3,6,-5,-54,-23,127
1693678080430246600,-37,45,-1,0,-8,7,-16,-108
1693678080432243500,-64,-56,-7,-1,2,22,70,68
1693678080435241200,66,-41,8,21,44,119,14,96
1693678080438239800,-78,26,5,3,-14,-40,-14,35
1693678080453506900,2,-63,-6,-19,-23,56,35,50
1693678080455506500,73,116,-3,-1,19,-67,-113,92
1693678080457510200,-102,-58,-9,-20,-17,93,5,-91
1693678080458505500,10,-6,12,18,4,-33,-61,-108
1693678080483519600,-12,51,-4,-9,14,67,16,113
1693678080488517100,-64,-119,0,8,8,123,49,-128
1693678080490516300,1,9,-9,-1,-4,-71,-8,69
1693678080491515500,27,22,7,1,21,26,-55,-51
1693678080492514200,-91,-80,9,26,0,4,-9,-92
1693678080494513800,-79,29,-7,-24,0,88,-14,82
1693678080495512200,48,-5,-1,-1,3,25,37,57
1693678080497512200,-2,-54,-17,-4,-17,-60,-61,-40
1693678080504507700,101,75,-8,-11,-17,-36,-111,120
1693678080506505800,-30,52,10,5,12,36,98,20
1693678080508505800,-79,-64,-15,-14,-21,15,-54,-120
1693678080510504400,119,-13,-11,-23,-21,20,23,73
1693678080527286700,-34,108,11,6,5,-39,-49,-128
1693678080529286600,8,-15,-3,-6,-29,-45,-60,51
1693678080530285900,90,103,-2,-2,-6,-36,28,125
1693678080531284800,-53,-12,3,8,16,32,-10,-32
1693678080558506000,-19,-3,10,3,-5,-81,21,-114
1693678080559504200,0,-4,3,-1,2,17,47,58
1693678080560504300,26,-23,-8,-15,0,-15,-7,-41
1693678080561503300,-21,26,11,8,-4,-43,9,-38
1693678080564638200,-35,-21,-21,-13,-15,-13,-1,20
1693678080566642800,99,-6,4,14,25,60,-74,-34
1693678080570642100,18,-29,-2,-3,-13,71,83,84
1693678080572637700,-53,-26,-4,-11,-12,21,17,60
1693678080587496500,6,5,5,6,7,3,7,-30
1693678080589496000,23,34,9,8,-1,-59,9,-95
1693678080590494900,-20,-11,4,18,11,-91,-45,-85
1693678080591495000,14,43,9,-5,30,57,-15,-39
1693678080609729500,8,-26,12,20,-5,13,36,30
1693678080611728500,-48,-26,-1,4,5,-18,8,-75
1693678080612728100,22,32,4,3,12,16,-14,-26
1693678080613727300,-1,-2,-11,-19,-25,0,5,0
1693678080626337900,13,-15,-3,-10,1,-29,-1,-8
1693678080628344500,-22,-18,-1,5,-5,-22,5,-25
1693678080629342100,-6,7,-3,-3,0,-1,6,-31
1693678080631340800,-31,-23,1,5,7,14,7,8
1693678080648355800,-2,12,1,3,10,-11,11,41
1693678080649355500,-12,4,5,1,-15,5,6,-30
1693678080653355300,-11,-21,-14,-15,-10,-6,8,-17
1693678080655352100,4,5,0,14,4,-36,-3,14
1693678080671353200,8,-7,-1,-7,-7,13,1,10
1693678080673353700,-6,-2,2,-7,-6,-15,14,-25
1693678080677349100,2,-10,-4,-16,-2,-9,-22,-11
1693678080679351700,-15,2,-3,13,-1,2,7,20
1693678080686345500,2,3,6,24,29,7,-1,-2
1693678080688349700,18,-1,35,-27,-32,-2,6,-13
1693678080689342800,-6,-5,-11,0,-1,-4,-8,-7
1693678080690342900,12,13,6,-14,-19,8,2,13
1693678080707506800,1,-14,-14,-16,-17,2,12,1
1693678080708506300,-3,-12,-26,-9,22,-2,-6,-19
1693678080714517500,0,-2,21,-27,2,-9,-12,-1
1693678080718500900,-2,6,-4,28,-9,2,8,9
1693678080729937300,2,-9,-3,16,0,-11,-8,-1
1693678080731935400,-2,2,-1,-24,-6,-6,5,-8
1693678080732934700,-5,-5,-11,44,8,1,-7,-9
1693678080736932900,0,-12,-14,-1,13,6,-1,3
1693678080744927500,8,2,5,-45,-28,-11,5,5
1693678080746928500,2,1,-30,37,59,23,2,-6
1693678080747928800,-4,-6,0,-71,18,-18,-5,-4
1693678080749925400,-3,1,9,61,-30,-4,-9,-2
1693678080769176900,16,7,12,0,-17,-8,8,9
1693678080772177000,-3,-5,-19,-3,-6,-6,1,-9
1693678080773175200,-4,-6,-5,15,40,9,-2,-4
1693678080775174000,-6,-2,-16,-29,23,6,3,3
1693678080797853800,-5,-3,-2,-11,-13,0,-3,-2
1693678080799857400,1,-10,-14,28,27,10,2,-4
1693678080803856000,-4,-1,8,-79,-74,-42,-10,-3
1693678080805856900,0,4,0,-50,53,9,-6,-1
1693678080812808500,5,3,12,68,-26,-20,3,3
1693678080814488100,4,4,6,-2,2,-3,3,-1
1693678080815488500,-6,-4,-15,32,1,12,0,-4
1693678080818484900,-2,-4,-7,-19,-23,-3,2,3
1693678080827480000,-4,-6,-5,-30,38,6,-4,-3
1693678080829477700,-4,-7,-24,-33,9,24,1,-1
1693678080830479200,-5,-10,-31,-14,7,-59,-9,-4
1693678080831477500,9,15,61,84,-31,33,2,5
