timestamp,EMG_s0,EMG_s1,EMG_s2,EMG_s3,EMG_s4,EMG_s5,EMG_s6,EMG_s7
1693678018910504600,-1,1,-1,17,15,1,1,1
1693678018913530500,-2,-8,-8,-12,-38,-1,1,1
1693678018915508600,0,2,5,31,-4,-6,-3,0
1693678018917505400,0,-2,-6,-8,9,-1,-1,-2
1693678018918507200,-1,-2,-4,-3,-8,-2,1,-2
1693678018919504500,-1,2,3,16,11,-6,-3,-1
1693678018920506700,-2,-1,-2,-14,-6,6,0,-1
1693678018922505500,-2,-4,-4,-4,-4,1,0,-1
1693678018923502100,1,-2,-1,-1,-1,-2,-2,1
1693678018924501600,-2,-2,-1,-4,-6,-3,0,-3
1693678018930560700,0,-1,-7,-12,-1,0,0,-2
1693678018932516500,0,2,6,10,3,-2,-2,0
1693678018939003900,-3,-2,-2,-3,12,1,-3,-2
1693678018940002600,3,2,8,5,-11,8,-1,21
1693678018952574300,-4,-5,-12,-22,-48,-10,-8,17
1693678018953591500,-5,1,1,11,36,1,-1,-27
1693678018963592000,1,0,-1,-2,-33,-5,3,7
1693678018965566200,1,-1,-5,-9,-3,1,0,28
1693678018975915800,5,3,6,6,13,0,-5,-31
1693678018977891200,-6,-4,-9,-2,-15,-6,-11,5
1693678018983485300,-7,0,1,-3,17,7,10,6
1693678018984511400,-9,-1,-4,8,9,-3,-4,-28
1693678018996840000,2,-1,3,-13,-50,-2,6,21
1693678018998842000,5,1,3,5,21,9,-2,2
1693678019037852300,-1,0,0,-3,-28,1,-5,-2
1693678019039857600,0,3,3,5,10,29,4,-4
1693678019040857300,4,0,-2,-2,-5,-37,14,21
1693678019041856800,-5,-3,-3,-12,-36,5,-11,-21
1693678019042853200,-2,1,-3,12,-2,-8,-4,6
1693678019043855300,13,8,14,7,12,-9,39,7
1693678019044855100,6,3,-7,-11,13,100,28,1
1693678019045854100,-15,3,20,47,49,-30,40,-2
1693678019049360400,1,-4,-6,-11,-50,-16,-46,-20
1693678019051365700,-34,-18,-19,-19,-58,-35,-13,-23
1693678019058358900,15,7,9,2,11,-12,-92,2
1693678019059379100,7,0,-7,-5,18,34,39,33
1693678019065466200,-12,0,5,2,16,18,43,-11
1693678019066464700,-14,-18,-13,-7,-6,-61,-102,-26
1693678019081001700,5,-5,-2,-5,3,13,-21,9
1693678019083000300,26,15,6,5,0,28,93,25
1693678019086998600,-19,5,3,-2,-7,-47,-80,-42
1693678019088996300,-12,-4,0,9,26,31,16,-69
1693678019102054300,-53,13,9,-2,-13,6,16,81
1693678019103056600,72,-2,-3,1,-2,24,42,57
1693678019109270700,6,9,9,1,13,28,103,-26
1693678019111276900,18,-5,-4,-4,-4,-12,-55,-68
1693678019132567000,-33,-20,-25,-25,-35,-79,-39,29
1693678019134487500,-56,-4,4,4,4,26,72,-19
1693678019135485900,-70,-28,-26,-22,-2,-14,-71,6
1693678019135485900,99,41,7,-17,-56,-33,37,-63
1693678019148419000,35,36,21,25,7,-6,-13,81
1693678019149421300,-10,-31,-25,-42,-28,-6,-128,-106
1693678019150419700,46,12,7,16,11,-24,49,115
1693678019151418900,-114,-55,-13,20,53,50,77,68
1693678019162023800,66,51,36,23,-10,-23,35,40
1693678019163021600,-128,-57,-38,-48,-41,-53,-85,-27
1693678019169339800,126,26,3,-7,3,3,-42,-114
1693678019171381000,-26,-12,3,24,59,85,32,93
1693678019185275900,0,-7,-5,-9,-4,-7,127,36
1693678019187269200,45,16,8,18,15,7,-85,-11
1693678019188271400,-65,-14,3,5,2,-11,-25,-103
1693678019189270400,25,12,-7,-30,-47,-31,-19,127
1693678019207845000,-62,-33,-7,9,16,29,6,-128
1693678019209849500,65,27,3,-9,-22,-6,54,21
1693678019209849500,-23,23,14,2,-5,-14,-14,12
1693678019210848300,62,-1,-4,5,18,-7,55,52
1693678019222445800,-62,-3,17,31,40,87,55,-90
1693678019223444400,76,41,25,17,-7,5,20,42
1693678019229390100,10,-14,-12,-16,-18,-1,17,29
1693678019231393900,-6,6,-1,-10,-29,-14,-20,11
1693678019246420400,-52,-31,-23,-21,-20,-18,-54,-73
1693678019248425400,-6,19,16,12,5,-28,27,50
1693678019249424000,0,-9,-9,-1,22,35,29,44
1693678019250423100,16,20,2,-20,-55,-44,-32,-31
1693678019267836700,-35,-42,-30,-16,3,-6,-16,-1
1693678019268842300,-19,-1,-2,-2,0,-4,-37,-72
1693678019269840700,28,-7,-9,-7,-6,-14,41,117
1693678019270839500,-24,0,3,-13,-11,6,33,-42
1693678019282272600,35,5,-6,-7,-4,-4,-47,-3
1693678019283291100,13,-19,-12,-3,-4,-14,-11,-30
1693678019289389400,-38,24,18,12,5,-35,-1,-65
1693678019291412800,4,11,6,22,45,56,63,57
1693678019307523500,-10,-5,-5,-16,-22,-3,-39,-38
1693678019309522500,-27,-9,-2,14,35,-44,-32,-2
1693678019310521600,-18,0,-3,-7,1,50,-47,-64
1693678019311522100,-93,4,4,-13,-36,-5,16,-71
1693678019327835100,88,-26,-15,-2,24,-5,-5,31
1693678019329661600,11,28,15,16,0,-48,7,123
1693678019329661600,2,-8,5,7,-1,23,2,-17
1693678019330660600,-10,-7,-11,-7,8,-6,-27,-3
1693678019341683400,14,0,-3,0,10,31,7,-5
1693678019343709100,-3,10,9,-1,4,95,29,59
1693678019349535300,-9,-15,-4,11,30,-18,32,39
1693678019350534900,24,19,17,12,5,-3,-23,-33
1693678019365549700,5,19,8,-4,-38,-19,18,18
1693678019366568900,16,-14,-14,-15,6,35,-4,-7
1693678019367570100,-36,-6,-3,-8,-29,-9,12,73
1693678019368569200,-2,-24,-18,-8,-1,-55,-35,-8
1693678019387837400,-6,-9,-16,-13,4,-22,24,-24
1693678019389844400,0,29,27,23,16,21,4,-16
1693678019390842200,16,-18,-17,-9,1,17,13,-5
1693678019391841700,15,-1,4,10,15,17,-4,53
1693678019402005800,-10,-1,4,13,16,-23,42,-29
1693678019403026300,-13,-9,-10,-22,-37,-12,-19,-59
1693678019409366100,-1,-6,3,12,35,33,9,17
1693678019411369600,14,27,26,20,0,26,5,15
1693678019425041500,21,24,10,-4,-24,4,-18,-8
1693678019427045900,-25,-36,-16,23,54,-7,19,-12
1693678019428045500,6,9,0,32,32,40,-2,-27
1693678019429044200,4,0,30,-9,0,-3,-14,-24
1693678019447849800,-5,-9,-17,-9,-9,12,-13,6
1693678019449876600,-13,-11,-4,5,9,-1,6,-25
1693678019449876600,1,-4,-29,-20,-16,22,6,27
1693678019450875000,-5,-21,-9,89,87,-44,-19,-47
1693678019461718600,10,22,46,24,-15,-53,-4,26
1693678019463674400,3,16,11,-23,-68,27,13,16
1693678019469363600,9,5,4,-4,-18,-27,-1,-12
1693678019471370200,-6,-16,-25,-8,17,60,7,-11
1693678019485041400,-4,-5,-9,20,54,22,-6,-1
1693678019487063700,-5,-1,-5,1,13,-3,-5,-3
1693678019488046300,21,39,38,-10,-54,-11,4,3
1693678019489045000,-6,-11,-23,-28,-16,-8,-11,-21
1693678019507275400,1,0,1,-10,-12,-8,-2,22
1693678019509211000,-7,-9,-22,-15,48,-15,-7,-18
1693678019510210400,-4,-10,7,-85,-59,-5,0,2
1693678019511210100,-1,-1,-2,13,-15,17,-3,-2
1693678019521652900,5,0,22,11,-12,9,6,6
1693678019523651300,-1,4,-4,-75,-73,-17,4,-4
1693678019529434400,-13,-24,-50,9,66,4,-11,-17
1693678019531429100,3,8,27,-5,-33,-3,-8,-3
1693678019545066100,-4,-8,-15,-4,-3,11,-3,-1
1693678019547089100,-6,-5,11,29,19,-20,-7,-11
1693678019548068800,4,3,13,33,21,33,6,8
1693678019549071400,14,15,-14,12,31,-9,7,-2
1693678019567548100,-13,-22,-20,-49,35,7,-5,0
1693678019569510200,0,2,5,-94,-91,31,9,6
1693678019570508600,0,2,9,64,2,12,0,-5
1693678019570508600,-8,-11,2,-12,-16,-19,-9,-10
1693678019581576100,8,19,-8,4,25,-11,-2,3
1693678019582575200,-13,-21,-55,75,121,21,-17,-8
1693678019589389500,5,9,95,-88,-70,-7,11,4
1693678019591393000,-6,1,-19,23,21,39,-25,-10
1693678019604928600,15,3,14,-61,11,91,45,24
1693678019605908000,-29,-3,-4,4,-26,-73,-64,-38
1693678019606907500,3,5,-4,100,28,-54,-4,-2
1693678019607906700,-4,-12,-11,-76,8,32,10,0
1693678019627867200,-1,-2,-8,69,-7,20,-8,-1
1693678019630047400,1,-9,-26,39,43,85,28,8
1693678019630892500,-25,-19,-46,-58,49,46,-31,-22
1693678019631877800,34,42,82,-37,-118,-95,16,19
1693678019650179900,-20,0,-28,67,52,-30,-27,-20
1693678019652204100,7,-5,52,-62,-107,-47,15,11
1693678019653206500,0,-8,-54,-29,62,33,5,1
1693678019653206500,-7,-5,-26,-11,42,-22,3,-4
1693678019665177900,-10,-25,-59,22,82,-9,-17,-11
1693678019667177100,15,21,73,32,-70,-1,21,14
1693678019667177100,-10,-27,-16,1,-10,1,-6,-4
1693678019668175800,-2,17,-5,-1,16,116,6,-9
1693678019687848100,16,12,-29,-67,-9,-107,-11,2
1693678019689662500,-1,-24,-16,-39,6,59,-13,-4
1693678019690664500,13,24,65,105,-5,17,1,0
1693678019691665700,-8,-8,22,47,-13,-12,4,0
1693678019710421300,15,6,3,-56,-65,-18,-14,6
1693678019711420700,-36,0,-37,7,47,18,26,-22
1693678019712420000,3,-7,-29,-25,19,54,7,18
1693678019713419300,-3,-20,-10,-33,-20,7,-15,-4
1693678019725547600,21,-3,41,33,-10,62,8,5
1693678019726551000,5,10,-11,33,32,-13,6,8
1693678019727549000,-7,7,3,-15,11,76,2,-6
1693678019728547200,6,-22,-28,8,16,24,30,16
1693678019747765100,-19,0,8,-31,-67,-28,-29,-19
1693678019749765000,1,-12,-7,-4,31,14,13,11
1693678019750764200,10,15,20,25,-32,-23,1,9
1693678019751763200,0,-12,-18,-6,16,16,9,-2
1693678019770652200,-4,9,4,3,-11,-58,-1,-20
1693678019771673400,27,5,12,19,15,-20,-7,17
1693678019772673500,-8,8,-1,-5,-1,-49,-23,-28
1693678019773671600,-23,-12,-25,-12,4,79,48,19
1693678019784394200,-8,-1,11,-4,-10,15,-59,15
1693678019786394200,38,12,-10,4,2,-29,11,13
1693678019792297200,-74,-16,-15,-20,-9,-41,55,-29
1693678019793294600,10,-2,17,15,7,-57,-99,-11
1693678019807514600,30,-3,2,-3,-6,40,96,-8
1693678019809459100,5,17,8,9,8,19,-63,9
1693678019810458200,69,-20,-22,-15,3,-29,27,-23
1693678019810458200,-10,3,-9,-11,-4,-43,-13,2
1693678019830037400,-128,-15,8,12,-6,3,118,-14
1693678019832061200,12,3,-7,8,-8,-63,-88,10
1693678019833057800,80,-23,-10,-20,-13,16,78,-29
1693678019834063100,-62,31,13,10,31,50,19,-32
1693678019844556500,127,-9,9,3,-10,21,12,-35
1693678019845569200,-16,17,0,1,-11,-78,-51,99
1693678019851645800,-13,-40,-18,-19,8,58,-1,-107
1693678019852650900,-61,24,-5,-7,-16,-17,25,111
1693678019867264100,79,15,-4,-24,-25,-30,-1,-61
1693678019869207000,-128,-16,13,14,25,43,47,-111
1693678019870229600,79,5,-16,-24,-18,-42,-128,25
1693678019871227700,-85,-55,3,9,6,-20,85,-18
1693678019890438700,-30,-1,5,10,8,17,-85,-45
1693678019892439500,-19,-11,-5,2,-30,-10,-62,9
1693678019893438500,80,21,14,6,13,51,27,-18
1693678019894438200,-67,13,-2,-1,8,17,0,-128
1693678019904570100,-40,-28,-2,0,-14,-10,67,96
1693678019905547200,0,-13,-3,0,7,48,-30,14
1693678019912574100,-26,39,1,1,-14,-26,-47,79
1693678019913572200,58,-12,0,11,4,6,-41,50
1693678019928563100,-99,-21,7,9,13,11,51,81
1693678019932069900,48,8,4,-2,4,29,50,37
1693678019936067800,2,28,13,25,24,21,87,-33
1693678019943064200,-60,-48,-22,-20,-5,-16,-88,-57
1693678019958055600,83,70,23,15,27,27,-26,-89
1693678019960054100,-73,-49,-14,-12,-15,25,112,-96
1693678019963052600,-56,4,4,-9,-15,-59,-44,10
1693678019965050900,113,-17,-1,2,0,-16,-88,17
1693678019969050100,-36,13,1,12,17,28,-87,-128
1693678019972047100,46,38,-4,-31,-4,11,19,46
1693678019975047200,-71,-22,-8,26,10,26,93,-2
1693678019977044500,9,46,22,10,8,-28,-15,76
1693678019989039800,0,-9,-8,-14,-1,1,-69,29
1693678019991037000,3,-34,-11,-6,22,11,40,-96
1693678019993036400,-57,-1,-1,-8,-39,-78,-56,59
1693678019996034700,37,25,-5,-1,-12,-24,-2,-13
1693678020011024600,-51,-1,9,7,-2,5,106,-6
1693678020013023200,12,-36,-4,15,10,-12,-36,-26
1693678020016021800,-37,19,12,-3,2,0,-28,-45
1693678020019020100,-62,0,-8,7,13,30,18,-29
1693678020041009100,83,-10,-5,-13,-21,-28,-126,109
1693678020044006100,-8,24,-8,-16,-7,-2,50,52
1693678020046006400,-33,-28,10,13,19,7,-23,53
1693678020048003700,45,17,6,-4,16,59,-9,-73
1693678020055998800,-103,-7,-8,5,-13,-61,70,-52
1693678020058997100,96,42,12,-9,1,14,-4,0
1693678020060996100,-4,-58,-9,-7,8,-3,-34,52
1693678020062995700,127,26,-17,-13,-20,-4,55,-66
1693678020069994800,19,23,3,10,5,18,30,-25
1693678020071989700,-9,3,-1,-20,-25,-45,11,-117
1693678020073987800,-19,-16,-8,-21,-27,-35,8,-123
1693678020074987700,-52,-10,-9,-24,-31,-37,-2,106
1693678020092976400,34,-4,0,4,19,42,23,25
1693678020093976200,-42,-15,-6,11,0,-19,-64,10
1693678020094975600,104,45,5,0,-4,6,-77,52
1693678020095974900,-45,-63,-8,-8,-2,25,36,-39
1693678020115964300,41,10,-7,-2,3,-7,-27,-40
1693678020117963000,-9,3,2,-20,-29,-16,-8,-37
1693678020118962500,-27,-16,-5,13,27,21,32,26
1693678020120960800,38,18,-1,-18,-50,-40,16,17
1693678020130956400,-87,-12,16,26,27,31,16,4
1693678020133954300,103,24,2,13,18,16,21,10
1693678020135953900,-36,0,-15,-29,-26,-16,88,21
1693678020137953200,76,33,15,11,2,-29,40,-7
1693678020152942900,-2,-30,-10,-7,-3,59,-4,-57
1693678020154943400,-112,-23,-3,4,1,-34,-69,95
1693678020156941100,-23,40,16,8,-10,0,16,7
1693678020158940400,-11,-5,-1,7,20,15,-21,-39
1693678020175930000,33,-8,1,19,39,32,6,32
1693678020177929600,66,29,29,28,3,-1,-27,-70
1693678020179928200,11,-8,-12,-11,-2,-2,4,-86
1693678020182925900,-44,-18,2,9,5,-35,-5,70
1693678020190922000,27,41,15,-3,-17,-26,-45,4
1693678020192919900,-19,-16,-14,-12,-29,-11,-9,-48
1693678020194919400,-6,14,9,19,25,-6,-5,0
1693678020196917700,19,9,8,7,13,50,16,-28
1693678020212911000,-98,-2,-5,-24,-52,-54,-14,27
1693678020214907900,16,2,-1,12,37,18,-3,-4
1693678020216908400,0,6,10,-2,-14,6,27,13
1693678020217907800,-9,-12,-2,5,8,3,-15,19
1693678020235895400,-1,-9,-6,-4,-5,-19,-15,6
1693678020238894600,-33,7,1,-10,-23,-9,33,28
1693678020240893500,-1,-6,-4,-2,-6,-5,-37,-8
1693678020242891900,-36,-21,-18,-28,-35,-49,-6,-14
1693678020249887700,-11,-10,-15,-21,-27,-11,-13,-7
1693678020252886200,7,7,4,11,23,32,25,33
1693678020255885200,-2,-2,1,-3,5,9,-10,-2
1693678020257883100,6,-25,-31,-30,-38,-32,-22,-26
1693678020272874900,0,-7,1,-32,-17,-17,-5,21
1693678020274873900,-14,-15,-15,-22,-15,22,6,-5
1693678020276872700,-4,-9,-2,51,35,0,-11,10
1693678020278871600,-2,0,15,-64,-62,-28,-1,-16
1693678020295861500,33,6,-7,79,20,6,-2,9
1693678020297862200,7,-13,-8,-16,-3,4,13,7
1693678020299858900,9,-8,-10,39,37,-28,-11,-4
1693678020301858000,-10,11,-13,-16,0,-9,0,4
1693678020310852800,-23,0,27,5,-35,-1,-2,1
1693678020312853700,-30,-3,-10,4,23,6,-1,-3
1693678020314850900,-15,5,-14,-97,-45,21,5,15
1693678020316850000,-15,0,26,127,82,23,-2,-10
1693678020332840100,6,14,-8,-70,-56,-23,5,15
1693678020334839100,-30,-4,-8,23,49,0,3,-4
1693678020335838600,-8,3,11,-41,-29,2,-3,3
1693678020337837200,-10,8,1,-8,32,21,8,1
1693678020355827000,5,-4,-5,25,49,29,2,2
1693678020357825800,-2,0,19,32,-28,17,6,9
1693678020358825300,-8,-6,-22,-9,38,-32,-13,-6
1693678020359824300,9,8,9,-6,-14,-26,-5,-3
1693678020369820500,6,2,30,-52,-42,29,4,9
1693678020371818500,-4,-14,-55,6,75,-27,-3,-5
1693678020373817400,8,15,72,-27,-75,20,5,10
1693678020375816400,5,5,-11,10,-14,31,9,-1
1693678020392805900,-2,-12,-18,20,42,-12,-8,-4
1693678020394806500,1,8,0,-6,-19,2,11,4
1693678020397806900,-2,-11,-24,50,47,19,-1,-3
1693678020399803300,-3,0,10,-1,46,43,0,-2
1693678020415792400,3,-9,-8,-62,26,-70,-10,-3
1693678020417792400,9,13,6,53,-11,-11,-2,1
1693678020418791700,1,-6,13,2,-68,-18,-1,4
1693678020419790900,-6,-8,-65,-33,34,23,-5,-10
1693678020429680600,15,7,71,91,-3,62,16,11
1693678020432683900,-9,-12,-22,-53,30,-21,-13,-9
1693678020433683300,-1,18,32,100,17,6,-4,-6
1693678020434682700,19,16,28,-7,-23,1,12,10
1693678020452436300,-13,-23,-65,-78,-26,-69,-12,-7
1693678020454421600,12,-10,22,-31,5,-2,9,13
1693678020455420800,-24,-5,-30,91,21,30,-5,-14
1693678020456419900,6,-7,5,-58,10,1,9,5
1693678020475647100,-7,-24,-15,92,-40,16,7,4
1693678020477425400,-2,29,33,18,4,28,-12,-8
1693678020478424900,20,15,-10,-16,17,-22,-8,5
1693678020479424300,-6,7,9,39,2,2,6,3
1693678020490504100,-6,10,-12,-22,18,21,5,-12
1693678020491528700,-13,-39,-17,-35,-35,13,17,3
1693678020492530800,7,3,-1,-66,11,11,-17,-3
1693678020493530200,-4,19,29,38,-11,-89,-28,-15
1693678020512538500,9,11,-1,-18,32,96,21,9
1693678020514496700,-10,-8,0,20,-18,14,4,1
1693678020515499500,-3,-1,3,-25,-16,-18,4,-1
1693678020516497600,-4,-44,-15,5,-8,20,-5,3
1693678020535523000,6,25,3,29,30,-70,19,2
1693678020537499600,-1,-2,-4,-47,3,32,-18,-4
1693678020538499000,25,22,38,80,-11,-43,18,14
1693678020540500600,1,-3,30,11,-11,-12,-9,-3
1693678020550492200,-4,-6,-5,-11,-1,-52,-16,-3
1693678020551494900,2,-14,-23,-20,-14,30,28,6
1693678020552491300,-5,-20,-7,-36,-4,1,0,-3
1693678020553491600,3,15,2,14,0,22,3,2
1693678020572482400,1,6,0,0,3,-6,4,3
1693678020575479300,0,-2,6,-9,-16,-2,12,-4
1693678020576479400,-11,-4,-8,22,15,10,-51,-8
1693678020578477700,5,9,3,1,2,30,12,4
1693678020595487700,3,-3,-8,-20,-10,-52,30,0
1693678020598465300,-10,-4,-1,10,-16,-27,-58,-13
1693678020600463500,1,-6,-8,-33,9,29,11,6
1693678020601463400,3,4,-7,-6,1,2,75,6
1693678020610457500,-3,-7,4,6,4,18,-78,-2
1693678020611479100,0,7,3,-3,-7,-33,18,3
1693678020613477800,-4,-3,-15,-34,-3,-26,14,-12
1693678020615458400,-1,-5,-3,1,-6,-21,-44,0
1693678020632447800,-1,-9,-16,-22,17,39,-2,-1
1693678020634446300,4,12,10,25,-4,-10,31,5
1693678020636443800,4,1,8,-30,14,26,-27,5
1693678020638443100,-8,-9,-22,31,-24,-5,76,0
1693678020655434900,-2,4,22,4,2,3,-78,-13
1693678020657430700,1,4,-2,-6,-6,-7,-15,-9
1693678020659430300,-13,-12,-17,-18,10,12,38,19
1693678020661428600,8,4,-3,-14,-23,1,-20,10
1693678020669423200,-4,-1,0,6,0,3,16,-3
1693678020671422500,5,6,12,13,54,16,-1,-13
1693678020677421000,-3,-7,-3,8,-22,0,5,-24
1693678020679421100,-4,-6,-21,-71,-56,-24,-10,2
1693678020692410000,-8,-7,1,7,-18,6,-12,-6
1693678020694409200,7,8,-13,-5,-52,-3,4,0
1693678020695408400,1,2,49,41,34,-4,13,8
1693678020696407600,4,13,14,30,74,32,-19,-13
1693678020715397600,7,-3,-11,36,18,37,34,7
1693678020718397600,-14,-21,-65,-84,44,-66,-16,-1
1693678020720395200,-3,0,22,3,77,-19,-21,-6
1693678020722395700,2,8,8,11,65,0,-15,2
1693678020729840500,4,0,5,-11,64,10,11,-4
1693678020730829700,15,6,6,68,95,36,7,-4
1693678020737825500,-11,1,-18,-13,-128,26,6,-2
1693678020739826100,-6,-15,-29,-70,-19,-50,-14,-3
1693678020760812800,-13,-15,-32,-62,-23,-34,-1,9
1693678020762811300,6,8,31,8,-4,1,-2,-45
1693678020765810400,1,-12,-29,-20,-38,-10,-11,79
1693678020767808600,3,19,31,71,-1,40,17,-34
1693678020775805400,11,6,-1,-62,-99,14,14,-45
1693678020777802900,-1,6,16,19,45,-8,-17,72
1693678020779801800,-4,-10,-32,-62,-24,-24,9,24
1693678020781801000,-3,-2,4,24,51,17,5,23
1693678020789796900,1,1,9,51,43,25,-14,-1
1693678020790797100,2,5,11,-31,-8,-25,1,-15
1693678020797791200,6,16,40,107,111,45,15,-14
1693678020799790800,-7,-16,-36,-111,-125,-76,-27,-9
1693678020812782400,7,10,15,76,30,98,27,-18
1693678020814781800,-15,-15,-30,-85,-117,-88,-16,5
1693678020815781500,7,-7,-28,-4,84,-7,3,-34
1693678020816780700,-17,-8,10,37,-36,19,12,-53
1693678020834772400,-9,-6,-7,44,70,9,2,9
1693678020836772000,-1,-8,-6,-30,7,-22,-16,32
1693678020838769100,-10,-11,-24,-17,-99,3,16,-14
1693678020840768800,9,-1,0,-18,123,50,-11,-9
1693678020849761900,10,9,8,7,-45,1,45,96
1693678020851763700,-3,7,14,26,-41,-4,9,-97
1693678020858756600,6,1,19,23,114,-28,-18,15
1693678020859756200,2,1,3,33,-42,-22,1,-9
1693678020872748500,-12,-9,-10,-84,-122,-15,-29,-10
1693678020874747200,1,1,5,56,7,17,1,16
1693678020876747000,4,-4,-45,-19,4,70,33,-11
1693678020878747300,9,9,29,-48,-19,68,10,61
1693678020895736100,8,1,19,6,-9,-54,-59,-66
1693678020897734100,-12,13,38,36,-15,70,17,3
1693678020899733500,-7,-6,-16,7,-14,6,-37,-55
1693678020901733900,-4,-7,-15,1,-1,-10,33,56
1693678020909729700,-7,-15,-44,-27,41,-69,-38,5
1693678020911728200,4,8,28,47,-13,-15,13,-4
1693678020917722200,-1,5,15,-5,-23,10,-7,-6
1693678020919721100,2,-6,-27,-60,-58,-38,35,64
1693678020932714100,47,11,3,-15,32,67,13,68
1693678020934712700,-16,-9,-13,-6,-21,-63,71,-58
1693678020936711900,-54,-14,-7,-18,-30,-40,-100,-104
1693678020937713500,-28,6,38,86,73,68,-87,-15
1693678020954702100,-35,-11,-29,-32,-47,-54,-20,21
1693678020956700800,45,18,1,-11,48,38,31,121
1693678020957700100,127,28,-22,-43,45,52,127,114
1693678020959699000,-9,-15,-13,91,-40,-15,-58,-128
1693678020969693700,-85,-17,52,-61,9,114,76,32
1693678020971692000,14,-23,-15,5,-2,4,-128,78
1693678020977688700,-43,-1,11,-12,31,11,20,66
1693678020979688200,68,12,-35,-12,-4,8,28,127
1693678020992679900,48,10,5,29,-24,3,81,80
1693678020993678700,86,22,14,31,-80,11,28,5
1693678020995678200,-47,-15,-2,24,49,-4,-15,-88
1693678020996677600,-92,-11,17,-63,-73,-79,-31,-54
1693678021014666900,-3,-11,-20,-37,15,-57,-1,-39
1693678021016666300,31,12,-3,-23,105,109,12,76
1693678021018667000,17,3,11,33,-35,-12,55,112
1693678021020664800,-82,-11,12,27,21,14,70,-117
1693678021038653200,-6,-6,5,33,-9,-91,-93,-62
1693678021040653400,65,14,-24,-24,-69,-28,47,87
1693678021041653400,19,-1,18,-14,-1,-6,-17,-119
1693678021043650300,32,5,-7,16,110,52,3,77
1693678021052644900,-85,-11,9,9,-96,39,87,-46
1693678021054644600,32,-9,10,37,85,46,91,28
1693678021056643400,0,-5,-1,16,-76,-95,-97,-88
1693678021058641900,7,-1,10,-91,-85,-57,-10,85
1693678021074633100,-52,-42,-24,0,120,37,-126,-84
1693678021076632100,47,5,7,42,-13,-72,82,37
1693678021077631500,79,50,19,-3,-12,119,127,113
1693678021078630600,88,26,-6,-29,65,72,82,30
1693678021098619300,22,12,1,80,-46,-70,-85,-37
1693678021100618700,-73,-9,14,-5,80,127,14,-16
1693678021101617200,-89,-44,-10,-11,-98,13,-28,-101
1693678021103618500,29,6,-5,-30,89,-102,37,-15
1693678021112611100,0,24,0,4,8,-46,-20,28
1693678021114609900,39,-32,-68,-40,42,94,-15,7
1693678021115612200,-4,57,77,67,-4,-74,24,57
1693678021116611400,-6,-14,-31,3,50,116,-102,24
1693678021135588000,40,18,-20,-12,-2,-116,103,0
1693678021137586600,-48,-5,20,-51,2,10,-6,-97
1693678021138583800,-72,-27,-23,0,-12,-34,62,79
1693678021140582400,17,-14,-49,-12,17,77,103,8
1693678021157388200,104,-19,-40,83,-22,28,-128,-61
1693678021159387400,-40,18,52,-91,29,-94,-117,0
1693678021165381300,-75,-15,-12,-70,31,110,116,-94
1693678021166384300,15,2,-63,-60,32,-19,-42,39
1693678021172446400,127,73,73,65,21,127,127,76
1693678021174449700,-107,-83,-76,-51,-86,-110,-86,-125
1693678021175450200,69,45,47,88,-57,11,4,-24
1693678021176449800,-66,-26,-29,-23,52,50,32,53
1693678021194995100,-6,-8,6,-36,127,51,-89,-17
1693678021196999000,39,31,0,30,-69,-53,51,67
1693678021197998700,-27,-33,-41,-128,42,-31,-128,-69
1693678021198997700,74,54,86,127,-86,55,62,48
1693678021218422300,-82,-22,-26,-12,-93,-75,43,57
1693678021220440100,-81,-10,-48,-43,-17,-5,-111,-106
1693678021222442900,82,-40,-24,-23,94,82,-76,127
1693678021223442900,25,16,-24,26,33,0,97,-17
1693678021232540000,-69,25,21,60,127,90,62,-48
1693678021234480500,127,-4,-85,8,45,64,-79,24
1693678021235478900,-92,-35,-17,-40,-60,-117,-25,-23
1693678021237498000,-4,-26,5,-23,-28,4,18,-37
1693678021255037200,52,-2,3,-70,-40,73,127,52
1693678021256949400,11,25,46,127,31,90,127,37
1693678021257964900,54,53,44,113,-1,127,116,-4
1693678021258969000,-21,-27,7,-55,-86,-123,-128,-76
1693678021278490100,-28,-13,-57,-51,-9,-102,84,38
1693678021280506700,1,32,47,59,-4,-45,50,24
1693678021281491100,-71,-49,-86,-39,72,73,-57,-35
1693678021282510200,-22,-11,-8,-19,-35,31,-82,-85
1693678021292512700,24,18,67,81,-32,-90,-110,2
1693678021294508200,-23,0,-31,-108,-33,81,117,-85
1693678021295506800,27,6,21,48,23,-84,3,112
1693678021295506800,-1,-1,17,20,27,-10,32,9
1693678021316418100,-34,-6,-7,-47,77,54,14,22
1693678021318417100,14,-7,23,9,7,-28,-7,-21
1693678021322415000,39,31,15,8,93,-4,-11,41
1693678021324413200,9,-7,-1,-14,-50,-49,10,-47
1693678021338475100,-5,-36,-53,-48,-63,-46,3,28
1693678021340492600,24,26,33,33,14,4,-89,-74
1693678021341493800,6,-12,-26,-72,-46,-52,61,-79
1693678021341493800,29,20,37,127,127,34,12,94
1693678021353291700,-97,-34,-50,-107,-20,-44,-22,-68
1693678021355288200,55,15,40,91,122,32,94,-36
1693678021356287600,-20,-22,-40,-56,-95,-80,-60,43
1693678021358287300,-37,-7,-16,29,37,-21,-36,-120
1693678021375277500,15,14,28,103,-87,56,85,118
1693678021376276900,-52,-10,2,-17,70,-3,8,-25
1693678021377276500,11,22,17,-22,-92,-42,7,56
1693678021379275700,-11,-19,-22,-70,27,-54,-8,63
1693678021398263500,35,22,6,20,127,43,-69,-6
1693678021400275200,-45,-25,-16,15,-35,-20,-85,17
1693678021401265300,47,17,30,29,14,83,56,-5
1693678021402263900,-15,-10,-23,-36,-101,-31,-3,11
1693678021412485100,10,-17,-50,-86,-52,-82,-38,-54
1693678021414483300,-23,-4,12,11,67,12,30,35
1693678021416504300,-19,-5,-19,18,-18,-20,-26,-24
1693678021417481600,27,26,37,-14,-50,37,-1,10
1693678021435529100,5,6,10,33,13,45,23,-8
1693678021436525500,-33,-1,-2,-26,-51,-7,-14,24
1693678021438547000,17,-5,-22,-30,10,-37,-32,-14
1693678021439541800,-21,2,-1,43,32,-4,12,-15
1693678021458515000,17,0,6,-34,-37,29,16,5
1693678021459513600,-24,-3,-4,-24,-9,-17,-18,16
1693678021460512600,0,-4,-8,18,9,21,-1,-3
1693678021462511300,0,-2,5,12,-2,16,27,9
1693678021472575000,-3,-2,-7,-69,-22,-36,-16,-10
1693678021474587800,-13,-8,-13,30,59,-7,-27,18
1693678021475591900,0,-2,-1,-31,-48,8,5,5
1693678021475591900,-5,4,3,-16,19,5,6,-6
1693678021495062000,14,10,19,70,58,30,-6,-5
1693678021496964500,-24,-4,-7,-39,-30,7,-5,-34
1693678021497941800,2,-10,-23,-21,89,-22,-5,54
1693678021499939900,-5,0,-1,-1,31,-11,-1,-12
1693678021518298500,8,7,16,44,46,26,2,-2
1693678021520294700,-2,6,9,8,-36,27,11,19
1693678021521293600,0,1,0,17,33,-23,-8,-25
1693678021522292600,4,2,11,11,-76,17,0,5
1693678021532453600,1,0,2,3,-15,14,5,7
1693678021534410700,-7,0,-3,8,43,-54,-11,2
1693678021536389100,4,-1,-1,11,21,-12,-10,-3
1693678021537389000,-9,-6,-7,-12,7,-10,6,11
1693678021555000200,4,4,6,24,50,17,3,-9
1693678021557014400,-7,-4,-5,-13,8,6,6,10
1693678021557014400,-5,-1,-1,-5,-56,-9,2,-9
1693678021558013000,3,4,4,7,42,0,3,-5
1693678021578177300,0,-1,0,26,118,35,1,-8
1693678021580181000,-5,-7,-6,-34,-68,-19,-9,25
1693678021581185100,1,2,5,23,6,6,-2,-16
1693678021582202600,-1,-6,-25,-16,21,3,4,-3
1693678021592500700,-5,-7,-11,-32,39,-10,-7,33
1693678021594454800,0,6,18,18,-67,-5,4,3
1693678021595451200,5,7,9,17,23,43,6,3
1693678021595451200,3,1,3,3,-22,-33,-4,-23
1693678021615360900,2,-4,-11,-14,7,-1,-1,-1
1693678021616362100,-5,-6,-13,6,16,17,-1,9
1693678021617362300,0,-1,3,5,27,-4,-3,-14
1693678021618360900,0,-1,-4,3,18,18,1,10
1693678021638494600,0,-2,-4,-4,-18,-16,-2,-6
1693678021640503400,-1,-2,1,11,-1,5,0,2
1693678021640503400,-1,2,13,3,18,15,0,-4
1693678021641507600,-2,-3,-3,16,19,9,4,3
1693678021652516000,0,4,-2,-20,-94,-43,20,3
1693678021656548200,2,-3,-4,-22,-4,14,-21,-3
1693678021660509200,-2,-9,-17,12,9,2,8,-2
1693678021667506900,-3,-8,-10,-14,11,-12,-26,0
1693678021676501500,1,8,6,-2,-9,-13,11,-11
1693678021679506100,-2,-4,-9,-19,-29,-24,18,6
1693678021681496400,9,17,38,23,13,-7,20,14
1693678021683520300,-3,-6,-11,-6,-38,5,18,-6
1693678021698500900,-14,-4,33,5,-30,10,-67,-27
1693678021701519600,-4,-1,-7,4,13,-77,-38,-3
1693678021702519300,0,-3,-16,-8,24,17,-7,3
1693678021704517600,4,9,11,3,-24,20,38,3
1693678021712470000,5,6,-3,11,21,14,14,6
1693678021714464900,0,-1,-2,-11,7,13,8,2
1693678021720774100,-3,-3,-5,2,15,-10,3,-5
1693678021722769500,1,1,4,19,21,3,-13,2
1693678021735756300,-2,-5,-12,1,11,-10,1,0
1693678021738758700,-1,4,9,-32,-22,11,0,-3
1693678021740754800,0,-5,-10,-4,9,-4,0,-1
1693678021742753800,-3,0,6,-5,-18,-7,-6,-1
1693678021757743100,4,-5,-10,-24,-59,11,-10,3
1693678021759743100,-6,-1,2,-23,4,7,10,23
1693678021761743100,2,1,-5,15,22,-4,9,14
1693678021762742500,-4,-6,-13,-9,32,-4,-14,0
1693678021771735100,4,8,22,41,-12,9,14,-5
1693678021773735300,5,6,8,5,-4,45,10,-6
1693678021779882600,1,-1,0,-17,-49,-22,8,14
1693678021781879100,-1,5,12,10,8,-15,-30,-12
1693678021794852400,-5,-18,-37,7,10,26,-16,-8
1693678021796851800,6,-2,-3,-24,-21,-80,-22,-6
1693678021797850000,-2,6,7,8,16,40,40,39
1693678021799867900,1,0,-10,-9,10,48,46,-31
1693678021817839200,-38,-6,4,-6,8,-8,-4,-8
1693678021820838700,3,6,17,76,14,10,-60,-6
1693678021821837600,-10,-8,12,-31,-11,-35,-12,-9
1693678021823836000,13,4,-2,17,3,-2,-12,15
1693678021831831200,12,4,14,-22,47,74,25,11
1693678021834830700,11,3,-9,-27,17,35,89,3
1693678021839827100,4,-6,-11,23,-90,-69,-40,-9
1693678021841827000,-8,-2,7,11,31,-6,-21,-2
1693678021854817300,23,4,0,-7,-17,-5,24,-4
1693678021857816800,-30,-4,0,9,17,71,-30,-6
1693678021859815500,21,-1,-11,6,38,-36,4,14
1693678021861814300,-18,-3,14,-20,-12,-24,54,-9
1693678021878804300,4,-6,-8,4,-42,-34,-33,18
1693678021879805200,14,-1,-4,12,8,8,28,25
1693678021882801900,-45,-12,-15,-14,6,21,33,-82
1693678021884804700,31,5,-5,-3,-35,32,-113,16
1693678021892796700,24,15,22,5,16,16,109,24
1693678021894795300,5,-6,0,-20,-23,82,78,3
1693678021899791800,35,2,5,20,-7,-89,-102,14
1693678021902790800,-49,-24,-17,-22,-11,72,-2,35
1693678021914782700,-42,0,-7,-5,18,-128,-128,-95
1693678021916783300,49,-3,-17,20,38,26,33,38
1693678021918781500,30,17,21,-48,-55,39,48,-22
1693678021919781200,45,17,-33,-50,59,-31,78,39
1693678021939768800,-6,12,74,89,5,100,77,55
1693678021942767500,-83,-46,-36,-15,2,-109,-57,-83
1693678021945766500,-9,2,13,-27,5,-29,-80,-36
1693678021947765100,-2,-1,-1,-12,3,-128,-123,-9
1693678021972749900,32,-21,-100,-128,3,31,83,11
1693678021974750100,-10,20,82,92,-10,22,-61,7
1693678021976747700,11,5,41,91,-36,37,127,74
1693678021978747000,-52,-10,-6,-56,-41,13,-56,-83
1693678021981745700,15,-6,-20,-21,35,-80,7,-30
1693678021983744500,62,41,60,71,61,28,-26,20
1693678021986741900,-13,-8,-21,-54,127,46,20,87
1693678021989743100,-28,7,3,111,27,52,127,-72
1693678022002733000,99,32,19,-18,-1,-5,17,115
1693678022005732000,-101,-53,-77,-98,-63,-120,-71,-128
1693678022008728900,6,-23,19,-59,-58,-61,-104,-35
1693678022012727200,85,18,7,94,81,120,126,112
1693678022023721300,-18,5,43,-30,-51,62,13,-10
1693678022026719500,33,5,-90,14,84,82,56,26
1693678022028718200,103,73,73,48,1,30,122,53
1693678022033716100,-121,-52,-57,-126,36,23,-40,-33
1693678022036713500,-82,-11,72,127,88,-77,-100,-56
1693678022038712900,-23,-14,-20,-105,3,-49,73,-26
1693678022040712500,49,-6,-42,112,127,94,2,3
1693678022043710000,-21,-16,14,-70,-89,-100,-128,-64
1693678022059700000,91,29,-4,-34,46,127,127,86
1693678022061699200,-83,-7,47,-18,99,-3,51,-28
1693678022063698400,27,4,-10,7,-29,120,-79,-2
1693678022065698000,34,26,32,34,17,8,127,20
1693678022081687900,1,-35,-86,-14,-68,-101,-128,-24
1693678022083686200,-52,-30,-17,-91,-25,-46,-109,-42
1693678022084686000,-14,10,48,61,-34,61,32,-18
1693678022086686800,73,3,-26,21,-72,35,71,91
1693678022094680100,-67,-54,-52,-101,-3,8,-12,-109
1693678022097678800,127,39,-19,-83,-50,-2,127,124
1693678022099678500,-128,-32,-51,-57,43,-71,-8,-74
1693678022102676500,20,-22,-14,-57,-36,-15,-36,45
1693678022118666400,57,15,-20,-12,-20,5,93,53
1693678022120665400,23,10,8,-7,19,79,16,-4
1693678022123663800,19,-15,-73,-79,16,3,-12,-41
1693678022125662100,42,13,11,-48,34,127,87,6
1693678022148632900,-17,26,80,98,-57,-101,-19,7
1693678022150632800,-9,-17,-32,40,-21,-17,55,16
1693678022152631200,1,15,34,29,38,12,42,0
1693678022153630400,25,21,7,-16,-23,-38,-38,-13
1693678022155629200,-10,3,18,28,80,24,-9,18
1693678022156628700,-36,3,-24,20,25,2,-52,-19
1693678022158629600,28,-5,-9,-48,-75,-71,3,28
1693678022160626400,-22,8,39,91,51,-46,-61,-44
1693678022178615500,-41,-29,-29,-67,-37,-74,-67,47
1693678022179614900,60,33,43,65,-43,17,93,26
1693678022181613900,-60,-34,-32,-23,15,12,-31,-73
1693678022183612200,13,-10,7,-18,-15,-27,-64,18
1693678022200435500,-31,-5,-25,-6,28,37,6,52
1693678022202434800,15,4,31,67,105,7,-30,-95
1693678022203436700,4,-3,-7,-62,-77,9,29,127
1693678022205433500,-53,-15,-17,-1,-67,-56,52,-99
1693678022223422800,3,11,-1,12,92,55,-43,-38
1693678022225422100,-6,-8,3,4,-46,-48,-38,52
1693678022227421200,-17,-9,-16,4,63,34,16,43
1693678022230419200,0,2,0,-34,26,-51,-13,48
1693678022238414100,-5,1,2,22,-9,14,49,-56
1693678022240413500,18,15,9,-5,61,1,-40,51
1693678022242412100,7,0,1,50,127,37,-9,-61
1693678022244411000,-3,-3,-5,-18,0,19,-1,49
1693678022260400700,9,10,15,7,-44,-4,10,-23
1693678022262400200,-6,-4,6,16,15,39,-1,-5
1693678022264401600,-3,-4,-14,-28,19,-69,-1,7
1693678022265399200,8,6,3,-41,-70,-41,-19,-7
1693678022275393400,-20,-16,-52,-61,73,1,-4,-52
1693678022277392100,5,13,52,44,-72,6,-7,20
1693678022279390400,6,5,-3,13,12,-17,4,-8
1693678022283388600,-4,2,16,6,18,12,27,-30
1693678022298380200,0,-10,-26,-22,17,-13,-21,-8
1693678022300379200,0,2,3,-18,-47,-1,-8,24
1693678022302378100,0,-2,-4,-17,-107,-5,13,-31
1693678022304377100,-1,4,-1,39,43,40,1,-11
1693678022320366900,7,13,21,1,-94,-3,6,20
1693678022322366400,1,1,-2,41,65,17,-5,1
1693678022324365200,-9,-3,-1,-5,83,16,4,-27
1693678022326364600,-1,-8,-14,-28,18,-82,-14,-22
1693678022335358900,1,2,0,6,44,31,-2,60
1693678022337358300,-8,-11,-7,-53,-64,-27,-5,-22
1693678022339357700,3,3,2,32,126,31,19,-1
1693678022341357000,2,5,-1,1,-31,-7,-1,2
1693678022358344500,8,12,23,57,32,22,12,-29
1693678022360344900,-12,-17,-32,-64,-29,-17,0,6
1693678022362343000,1,6,10,5,-13,-1,1,4
1693678022363342500,2,-1,1,30,-8,-43,-6,41
1693678022381474800,-7,-3,2,-13,-79,23,-7,-53
1693678022382474000,3,5,-2,10,2,-15,7,6
1693678022383474200,-2,-2,-4,-7,9,-12,-6,-11
1693678022384473200,-2,8,18,34,-23,28,7,3
1693678022395498600,8,-4,-9,-5,127,-31,12,52
1693678022396497400,-11,-6,-13,10,110,-7,-12,-71
1693678022397497400,1,-1,-6,-23,-58,-12,-3,34
1693678022398496700,-2,4,6,42,36,30,1,-12
1693678022418182400,1,-3,2,-36,-16,-5,0,4
1693678022420184400,1,-1,1,9,-18,-1,-7,1
1693678022421205900,-3,-4,-6,-18,-8,-21,-9,-33
1693678022422205400,-4,1,4,20,64,26,2,15
1693678022440857800,1,-4,0,16,43,-6,-3,0
1693678022442857300,-5,-2,-3,-21,-48,-19,-5,2
1693678022443879300,-5,-5,0,8,-51,2,15,-28
1693678022444878100,0,2,-2,-8,2,18,0,1
1693678022455345700,0,3,8,11,-14,-10,-2,-15
1693678022456344500,3,3,2,22,44,14,5,19
1693678022457344300,0,-2,0,-10,-19,-11,-11,4
1693678022458343000,0,-2,0,1,26,21,-2,-14
1693678022478491100,0,-3,-12,-4,2,15,-5,-7
1693678022480487300,2,3,1,-34,-45,-12,1,10
1693678022481487100,2,-2,10,47,-38,-17,-7,-1
1693678022482486800,-1,-4,-14,-26,28,6,3,-1
1693678022500511200,0,4,17,28,4,35,0,-5
1693678022502438000,-4,-6,-18,-32,-35,-26,-3,8
1693678022503436700,0,-2,-7,-15,-1,4,2,-1
1693678022504435300,0,0,2,27,0,-15,-2,0
1693678022515548100,-5,-2,-10,-14,2,34,-1,-6
1693678022516569700,1,1,6,3,20,-10,4,0
1693678022517568200,0,7,25,17,17,21,-3,1
1693678022518567300,1,-6,-18,-31,-19,-34,-1,-3
1693678022538075300,-1,6,23,52,4,0,-7,-4
1693678022540015900,-2,-8,-7,-17,-33,1,15,5
1693678022542018200,0,-4,-13,3,3,-12,-18,2
1693678022542018200,4,6,-2,-31,-44,9,0,1
1693678022561454100,-9,-12,-12,-28,-55,-21,-24,-13
1693678022566486900,4,3,10,29,34,1,-1,6
1693678022569485500,-1,-1,-11,-23,-6,6,12,1
1693678022572459600,2,-4,-12,28,41,-4,5,2
1693678022576446200,3,7,16,-16,-36,22,24,3
1693678022581443100,-5,4,7,19,-23,-31,-18,-5
1693678022588448200,-1,-4,-9,-10,-5,12,5,-2
1693678022592437500,-8,-5,0,16,10,0,-35,-10
1693678022601432700,-2,-6,-13,-10,2,-21,17,1
1693678022606436400,2,-3,-7,-12,0,27,-3,2
1693678022610427200,1,3,2,8,8,-16,6,1
1693678022612422900,-1,0,2,-19,10,6,2,-4
1693678022620520600,-2,-5,-12,8,-2,-9,-2,-1
1693678022622522200,-1,0,6,-2,1,-49,-1,-1
1693678022623523800,-1,2,1,-3,12,8,-14,-1
1693678022624522400,2,-1,6,17,-26,-6,13,1
1693678022634542400,0,0,-2,-10,9,6,-4,0
1693678022638544800,0,-1,-5,-12,4,34,1,1
1693678022643479600,-3,-3,-2,-24,-31,-35,-7,-3
1693678022644484400,-2,0,5,7,0,1,5,-1
1693678022658444400,1,3,-4,8,-16,-39,-1,0
1693678022660462500,1,0,-1,6,18,21,3,8
1693678022661461600,-1,-5,-6,4,36,106,32,1
1693678022662461600,-4,-2,-8,-16,-35,-55,-31,-21
1693678022681886600,4,0,-3,-10,15,-9,11,2
1693678022683905600,0,-2,3,53,-35,35,13,7
1693678022684882400,3,7,5,-32,-3,-36,-24,8
1693678022685904200,-3,-2,15,14,28,17,15,-20
1693678022694577200,-5,-4,-1,1,11,0,-32,11
1693678022695572600,9,4,0,10,17,-1,-5,25
1693678022703438100,-2,3,-11,-9,-18,51,46,-26
1693678022704457000,-3,-7,-15,-14,-3,14,70,15
1693678022718235600,-11,3,36,8,13,34,-64,-41
1693678022720240200,-2,1,3,2,42,-71,8,3
1693678022721238700,2,-1,-1,13,-18,-45,-16,12
1693678022722237600,6,3,1,-26,18,47,34,4
1693678022740565500,6,-2,-19,-9,-4,-46,-9,5
1693678022742569100,-2,3,7,21,21,-19,15,-7
1693678022743586600,2,1,6,-23,-34,-10,-12,-4
1693678022744589900,2,-1,1,32,-10,-32,48,18
1693678022754391100,3,1,-12,-14,40,118,115,15
1693678022756389500,-8,-7,-2,-15,-43,-81,-76,-21
1693678022765109200,-5,-1,-3,8,2,-26,-63,-20
1693678022768142500,-8,-7,-4,-4,-41,-91,-121,-11
1693678022779102300,2,3,-3,-17,-15,-44,66,12
1693678022785099200,19,8,0,0,39,127,92,44
1693678022788096400,-14,-4,0,-1,2,17,127,-31
1693678022791093100,-29,-7,-1,3,39,-72,-124,-31
1693678022802118900,9,-9,-21,-22,-32,-42,40,6
1693678022805118600,2,6,1,-27,-47,-1,0,-10
1693678022808116700,17,4,2,23,41,18,-11,32
1693678022811115200,-27,-9,-5,-4,-9,8,-1,-11
1693678022815120200,21,12,-3,2,-21,-16,55,21
1693678022820111400,32,-2,10,3,78,80,77,40
1693678022824107900,-26,-14,-25,17,-84,-63,-55,-68
1693678022827105600,-21,8,43,31,-34,94,-71,-18
1693678022839500400,-13,-3,4,4,48,-46,-114,-5
1693678022842533700,2,-4,-14,-14,-76,31,84,20
1693678022845530700,34,15,6,34,6,23,75,28
1693678022849494300,5,-1,-11,-1,106,-59,-9,-11
1693678022860803700,13,-5,-20,-4,-97,-82,-110,-15
1693678022862774700,-8,-10,-1,-45,10,5,32,-29
1693678022865773600,-1,4,-22,-53,91,73,70,29
1693678022866772800,78,53,75,48,-9,123,35,65
1693678022874579500,-89,-40,-40,0,48,5,-108,-92
1693678022876578800,26,8,2,-17,-19,-38,-26,18
1693678022884570500,-46,-13,-30,-65,75,55,-70,-47
1693678022887574200,42,7,-40,-10,-56,-59,63,53
1693678022898561500,-27,17,40,-36,84,55,124,11
1693678022901563000,59,-5,-18,-8,0,-51,-7,8
1693678022904579800,-76,-21,-30,113,55,-26,-50,-20
1693678022906578900,-7,3,-7,-91,-28,120,-42,-32
1693678022920569700,-4,-7,-42,-64,86,-22,127,99
1693678022922546900,-22,-35,-31,1,-66,-110,-128,-128
1693678022924546100,20,12,79,41,121,14,87,50
1693678022925545300,1,9,-10,47,7,-82,-17,-79
1693678022943004300,17,-1,-24,-59,-69,-30,102,80
1693678022944982500,53,-3,-2,52,48,127,-90,20
1693678022945981700,-12,18,51,73,-9,-128,60,-89
1693678022948979500,-38,-63,-67,-43,66,78,-86,89
1693678022957994900,109,40,49,-12,56,119,88,8
1693678022960972200,-65,33,19,115,127,-36,-60,-25
1693678022961994000,16,-32,14,-56,-126,-29,-54,-77
1693678022963970400,63,3,46,60,46,-5,-35,96
1693678022980963500,109,-5,-25,-7,-53,49,-43,69
1693678022983959200,-27,-12,-116,-128,115,14,-90,-102
1693678022985960600,40,35,81,64,-56,-100,-128,43
1693678022987960100,-90,1,13,-97,127,98,126,-37
1693678023002948100,-85,-42,-42,-22,-122,-70,-128,-38
1693678023004947900,122,76,6,4,28,63,47,127
1693678023006948600,-100,-27,5,-19,-29,99,-29,-58
1693678023007946700,77,-36,-27,-10,-6,-25,6,71
1693678023017939200,65,16,31,33,11,-88,-105,-50
1693678023019938200,-128,-43,-5,-45,28,-36,108,-76
1693678023020937600,69,21,-42,-57,14,61,89,87
1693678023022936500,42,23,-1,-9,-6,27,119,35
1693678023040691000,-57,-1,28,83,2,83,-79,-82
1693678023042690800,-38,-5,33,57,-86,-49,28,26
1693678023044689600,-21,-14,-25,-20,28,-11,-83,8
1693678023045689100,-91,-3,-7,-7,-83,-42,26,-64
1693678023064485600,97,26,1,21,48,2,41,45
1693678023066483900,-55,4,29,-6,-33,-2,-21,0
1693678023068482600,20,-5,-9,-12,-1,33,7,45
1693678023069481900,-14,6,10,31,28,-23,13,-50
1693678023077822500,-50,-2,9,3,15,18,-17,-38
1693678023078826800,26,-19,8,-21,-78,4,15,77
1693678023084823800,-11,-1,-22,-37,-48,-12,-3,-63
1693678023086824300,49,14,-3,9,45,-19,34,42
1693678023100453600,-26,-17,6,2,25,-13,-23,2
1693678023102456500,15,-1,12,13,62,18,14,-32
1693678023103455800,-6,-1,-9,-24,-29,-4,55,60
1693678023104455100,40,11,17,75,74,19,-7,-107
1693678023123462400,-54,-21,6,-21,-100,-25,-3,-11
1693678023125461300,9,22,-2,-10,-22,5,28,104
1693678023126460700,89,6,-2,11,97,7,-12,18
1693678023127459900,-26,-13,-6,-22,-64,-3,-4,-114
1693678023136856300,8,10,12,32,11,18,33,4
1693678023138870100,-34,-15,-1,-24,-37,-12,-40,-58
1693678023145547900,-29,-10,-13,-2,-27,18,-9,4
1693678023147544400,2,-12,-28,-89,-4,-85,-12,97
1693678023161014500,-21,8,17,44,127,57,14,35
1693678023162013300,6,-7,8,-25,-128,-36,15,-80
1693678023163013100,-3,6,-3,37,74,26,4,88
1693678023165014400,3,-5,2,18,-23,10,19,-28
1693678023184512300,-15,7,-1,-7,-31,19,18,12
1693678023189510600,-1,-7,5,27,62,4,-18,-62
1693678023194500600,13,1,-11,-52,-88,-3,0,-22
1693678023198504900,-11,-6,-1,32,-49,4,-1,54
1693678023201503000,-6,-5,-27,-56,15,-21,-11,-23
1693678023204501200,19,12,39,39,-47,32,7,18
1693678023208499600,5,-9,-25,-15,43,6,7,8
1693678023210492300,-17,1,14,3,-2,10,0,-17
1693678023220513200,1,3,8,-23,-7,-7,-3,-17
1693678023223445800,4,-5,-6,0,24,9,2,2
1693678023226441600,2,-3,-9,-23,-53,-6,0,-5
1693678023228445200,-8,2,2,12,-4,4,-8,-1
1693678023243727500,6,-4,-8,-6,-87,22,-3,-60
1693678023245728000,2,0,6,19,127,20,7,59
1693678023247725500,-2,-4,-1,-6,-40,-16,-6,-26
1693678023248747800,3,9,4,13,15,28,-45,28
1693678023258019900,-3,0,8,25,-51,-26,19,1
1693678023260041700,-3,-5,-7,-8,12,18,-11,-7
1693678023264557200,3,0,-1,9,53,-15,13,-6
1693678023266576500,-8,-6,-13,-50,-65,-22,-15,-34
1693678023281511300,4,4,10,20,80,20,11,0
1693678023283508500,0,3,14,14,12,-5,-3,16
1693678023285530200,7,2,3,11,8,5,-1,-4
1693678023287529300,-2,-3,-5,-3,51,-1,8,0
1693678023303481500,-1,-5,-8,-6,9,-37,-22,-1
1693678023305486900,-7,-4,-4,-15,-89,-24,-1,-52
1693678023307485300,1,4,-2,-2,51,3,2,6
1693678023308484400,-1,0,-1,5,17,-8,9,-7
1693678023325547300,-1,4,3,36,49,12,3,6
1693678023328549900,2,-2,2,-18,37,-5,1,15
1693678023330543000,1,2,7,2,-15,1,-9,-2
1693678023331542700,-4,-2,-8,-26,-58,6,5,21
1693678023341268300,1,-2,-5,-6,-34,-39,4,3
1693678023342289900,0,0,-4,-10,-11,24,-2,6
1693678023343289400,1,0,8,8,-30,-9,-5,-4
1693678023344288100,3,0,-2,26,47,5,6,-4
1693678023362295900,1,1,3,15,12,21,6,9
1693678023364312900,-3,-1,0,-38,-45,-44,2,-11
1693678023370504100,0,0,-5,13,66,27,-14,1
1693678023372526400,-4,-1,3,-18,30,2,8,8
1693678023377548900,0,3,4,-5,-71,12,2,-1
1693678023379486600,-4,-14,-27,-16,14,-6,-8,-3
1693678023384501400,4,9,24,7,40,-6,11,5
1693678023386500200,-8,-5,-16,-5,-58,21,1,-9
1693678023400968000,-2,2,7,7,-6,-5,1,-6
1693678023402963400,-1,0,0,6,22,14,2,10
1693678023403961900,-3,-9,-15,-20,-42,4,-4,2
1693678023403961900,2,5,11,12,13,-40,1,-9
1693678023423435500,-3,-6,-10,-7,19,17,-2,-4
1693678023425435800,2,0,-4,0,-16,-4,-4,1
1693678023426439600,-3,1,-5,-7,12,-1,-3,1
1693678023428433500,-2,0,5,8,-22,-17,0,-7
1693678023436832300,0,-4,-18,-36,24,33,-2,1
1693678023438838000,2,4,26,73,-9,-15,3,8
1693678023446092500,2,0,5,-42,-24,-21,-1,-2
1693678023448091200,0,3,14,38,38,29,-2,-3
1693678023460558600,-4,-2,-2,-4,16,-11,-2,-4
1693678023462512500,-1,-3,-9,-6,14,-2,3,-1
1693678023463515500,0,-1,-8,-17,-4,2,-1,0
1693678023464534500,-2,-8,-18,-2,-32,-41,-4,-5
1693678023484135300,2,5,27,9,13,-7,2,1
1693678023490142800,1,0,-13,-7,-10,-24,1,1
1693678023493137800,4,-1,18,46,-18,7,-6,1
1693678023496137100,-1,0,-2,-9,8,8,1,-2
1693678023502160600,-2,-3,-11,6,19,-1,2,-1
1693678023507124300,1,-3,-16,-30,0,7,11,3
1693678023510120000,-1,-3,1,18,0,5,-4,0
1693678023511119200,-11,-10,-23,-23,-6,-18,-17,-8
1693678023521113300,4,9,23,19,-3,-6,-6,-2
1693678023524110600,1,5,11,14,19,9,-2,3
1693678023526115600,-6,-5,-13,-16,-31,-6,-13,0
1693678023527114200,4,3,8,-6,30,57,83,-2
1693678023543364000,-7,-8,-13,2,-35,-56,-30,-3
1693678023545362500,1,5,6,-11,-60,1,17,-1
1693678023548357900,-3,-1,-4,-6,28,-12,-11,-4
1693678023550356300,7,4,1,0,-19,8,25,10
1693678023557351100,-9,-8,-7,9,20,45,-85,-17
1693678023558374700,-1,-3,2,-6,18,7,26,-6
1693678023573485800,-3,-8,-19,-39,-17,-41,48,2
1693678023575512400,3,8,8,37,-18,-68,-75,0
1693678023581487300,9,6,28,12,6,60,40,16
1693678023584507500,5,0,-6,0,-20,-32,-37,17
1693678023586488700,-11,-4,-6,2,24,57,-17,-28
1693678023588483500,4,7,7,-13,13,16,122,13
1693678023603444000,-10,-9,-22,-11,-16,-3,-93,-36
1693678023605441700,28,8,7,12,37,25,42,38
1693678023607461000,-28,-4,-1,-8,-38,-94,95,-8
1693678023608460900,-10,-11,-2,-9,-8,46,-108,-11
1693678023616865400,6,8,1,2,12,-50,10,-8
1693678023618872900,-5,-3,-1,-7,16,22,45,1
1693678023626042000,22,12,3,-1,-1,-3,-86,11
1693678023628041500,4,-3,-3,0,37,4,65,12
1693678023648236800,18,-6,3,25,-50,50,57,11
1693678023650241100,-29,1,-3,-3,24,-20,-1,-16
1693678023652262100,21,12,20,29,1,15,51,55
1693678023653261800,32,8,-8,-6,39,88,72,6
1693678023664495000,-55,-23,-18,-43,-90,-97,-52,-77
1693678023666518400,35,-5,-4,6,21,24,48,14
1693678023668516300,-36,-14,-11,25,44,92,68,-4
1693678023669515600,-6,9,-2,-64,-27,-71,-65,-4
1693678023677494300,16,18,42,43,20,113,127,50
1693678023679491600,18,7,-8,0,-8,-16,62,10
1693678023685920800,-9,-17,12,-24,35,-36,-104,-55
1693678023687944900,-14,-16,-11,60,-80,35,60,11
1693678023701583000,24,7,-17,-23,106,-74,-98,18
1693678023703601300,21,20,41,-84,-76,44,43,43
1693678023705580600,-47,4,12,66,-4,111,92,-30
1693678023707578900,3,-9,-37,-37,49,-106,24,-12
1693678023723481700,66,17,41,22,-68,-21,-66,13
1693678023726487000,-114,-51,-31,8,18,83,108,-59
1693678023727485800,39,-10,-84,-99,39,-128,-92,34
1693678023729484400,30,18,57,51,-6,38,-10,-1
1693678023737479900,-72,-17,-42,7,-77,-78,-38,24
1693678023738479300,29,5,19,53,111,25,21,-48
1693678023745921000,-40,1,8,-74,-85,23,-16,-3
1693678023748919000,40,3,-19,37,14,93,-49,74
1693678023760447300,-30,11,-11,-99,121,87,127,-25
1693678023762451000,35,15,34,113,-128,-43,48,59
1693678023767447500,34,-13,-30,12,25,-96,52,-30
1693678023769446900,48,-2,0,-49,57,47,127,-15
1693678023783525400,-62,0,6,16,-10,-50,73,-9
1693678023785523000,71,20,-19,-12,55,19,-72,52
1693678023788540300,0,8,-29,-90,-65,44,12,-50
1693678023790515700,-72,-4,119,116,99,61,-107,-94
1693678023797420700,1,-21,-20,69,-84,-91,-29,-89
1693678023800423700,74,21,-18,-118,118,82,37,64
1693678023806073900,111,18,2,127,126,96,-128,28
1693678023808071100,-30,0,-33,-120,-90,-117,22,27
1693678023820504700,98,-12,18,74,-85,-8,31,64
1693678023822511500,-50,-19,-14,-70,-93,-1,-122,-98
1693678023827543100,29,22,47,33,54,113,127,127
1693678023828562300,58,-7,-89,44,94,-20,51,-54
1693678023843130600,-73,-43,7,9,35,68,-50,19
1693678023845126600,-24,-1,4,-30,-12,-18,-58,11
1693678023849275400,-19,8,-27,22,3,84,102,20
1693678023851284400,11,-24,-39,-88,-94,-121,-128,23
1693678023866426400,76,14,-74,-67,78,127,127,66
1693678023868437000,19,27,86,110,51,-128,-32,-94
1693678023870435800,25,19,58,57,-74,51,27,10
1693678023872434900,-4,-22,-13,-15,81,-63,-12,30
1693678023880498600,-16,-10,-81,-8,99,69,-60,-87
1693678023882516700,-43,-39,-1,-46,-14,-39,30,13
1693678023887441800,-19,-8,-3,9,-45,-11,-56,-10
1693678023889462500,50,45,29,-18,-59,-92,-4,25
1693678023903421400,-1,-6,-23,-25,1,10,102,-3
1693678023906441500,27,-8,-59,-30,39,-66,64,-17
1693678023907440900,13,1,-3,-120,-15,-119,69,43
1693678023910421100,-44,-11,25,103,-17,127,72,22
1693678023925600100,-51,2,22,-56,27,-128,-125,-63
1693678023928575500,-65,-6,-17,18,9,113,127,29
1693678023930551300,59,3,2,-39,-96,13,77,-11
1693678023932573100,-60,11,0,-23,-19,76,-34,-51
1693678023940891100,61,18,27,9,8,66,85,30
1693678023943890100,10,-6,-14,-15,9,-70,-110,15
1693678023944888600,-41,-20,-9,23,54,-35,-50,-30
1693678023947881400,-7,-7,7,12,58,9,-35,-57
1693678023964988300,11,23,23,-18,-63,-14,-3,69
1693678023966987800,-10,-13,-23,13,-19,-23,-104,-33
1693678023969988700,-30,1,12,5,90,-4,-41,-30
1693678023973983400,2,-1,-4,-15,-68,-1,44,3
1693678023986279500,-10,-21,17,-16,12,-16,-6,-24
1693678023989298200,18,30,-6,-3,-58,16,-65,-20
1693678023991296500,-15,-13,-4,12,80,-19,25,84
1693678023993295500,17,10,3,0,33,-29,14,-48
1693678024001470900,-9,-4,0,2,-17,32,38,20
1693678024003468400,-27,-5,7,32,28,-1,-76,-42
1693678024005467300,-2,-9,-14,-47,-111,-30,-13,-21
1693678024007442900,-22,-21,-22,-24,63,-30,1,-5
1693678024023486000,11,21,20,14,53,25,1,33
1693678024026508300,2,3,6,18,46,29,32,-19
1693678024028488200,-10,2,8,33,9,9,-35,-65
1693678024031482900,-15,7,3,-1,-8,19,1,76
1693678024046425900,-3,2,-2,-23,-22,-39,39,-41
1693678024049430400,8,-3,-5,2,34,16,-54,15
1693678024051434500,-11,-2,0,25,9,1,-17,-4
1693678024052433600,1,-4,-15,-60,-96,-26,-5,-18
1693678024060132900,14,7,20,15,70,-2,42,28
1693678024062117000,-9,-5,-2,15,24,8,-11,9
1693678024067110100,-7,-4,4,-7,-11,-47,-25,-25
1693678024069114000,-4,1,3,20,14,26,-11,0
1693678024083222000,1,-2,-11,14,-30,-1,22,7
1693678024086185700,-3,-3,-2,-62,-55,-2,35,18
1693678024088183000,-2,2,10,64,42,1,3,-21
1693678024089183000,7,5,4,12,28,11,-13,3
1693678024106421700,-2,-6,-10,-24,-13,-31,-24,4
1693678024108428000,-7,-9,-14,-19,-1,-16,9,-3
1693678024110426400,4,2,-11,-26,73,10,-23,-1
1693678024112424600,-1,3,29,29,30,14,16,6
1693678024121021000,4,5,8,21,45,55,-15,-5
1693678024123024700,0,4,7,-4,-92,-35,11,10
1693678024127018500,-4,-8,-14,-24,-25,-21,-1,-15
1693678024129039700,-6,-8,-10,14,69,4,17,16
1693678024143575700,2,5,6,-11,31,17,-22,-7
1693678024145598000,-1,0,0,17,-26,-5,22,3
1693678024148596100,-3,0,6,3,-10,2,-9,2
1693678024149595400,2,-2,-4,-33,-56,0,-6,9
1693678024166421600,-5,-4,-10,26,127,-45,-12,-11
1693678024168451000,0,1,6,-6,81,4,18,7
1693678024170448700,-10,-12,-11,-24,-55,2,-18,-10
1693678024171448500,2,4,4,7,12,-13,0,6
1693678024181111700,0,1,6,-6,-71,-17,-1,1
1693678024183115600,1,-1,0,-9,52,12,4,0
1693678024186537600,-5,-7,-11,-16,-38,-33,-14,-5
1693678024188565100,0,-1,1,23,57,23,9,-4
1693678024203481400,-1,-4,-8,-25,-14,-11,-5,-1
1693678024206489000,3,2,2,7,-34,3,0,-4
1693678024209491000,1,0,6,2,-4,24,5,-12
1693678024210489500,-3,1,-9,11,77,19,0,12
1693678024226424000,2,-1,7,-11,-40,-13,1,1
1693678024228433700,-2,0,-4,-2,-74,8,-15,1
1693678024230427600,-3,3,0,-4,45,-9,-1,-2
1693678024232431300,-1,-1,-4,2,-2,-22,-1,-11
1693678024240505500,3,1,2,-11,-29,6,3,-8
1693678024242512000,-3,-7,-6,3,-16,5,2,0
1693678024247428700,0,4,4,5,7,1,-2,-4
1693678024249427200,2,0,2,-19,-60,41,5,5
1693678024264041100,0,2,-4,2,-39,-23,-7,3
1693678024267064200,-5,-2,-4,30,32,0,5,-5
1693678024269041600,1,0,5,9,66,13,-1,0
1693678024271060600,-3,-2,-4,-19,-62,7,2,-4
1693678024286422000,0,-1,-5,-22,-43,-5,0,0
1693678024288432300,-1,-3,-5,1,21,-2,-1,-4
1693678024290430500,1,1,7,9,-24,-6,-1,6
1693678024292430000,3,1,-2,4,0,-3,-2,-4
1693678024300220800,-1,-2,-4,2,14,12,0,0
1693678024303218800,-3,-2,-10,-22,-8,-4,-5,-6
1693678024307215500,0,-1,-5,-12,6,1,2,14
1693678024309214400,-1,3,5,-7,-22,-13,0,-6
1693678024323390000,-2,-6,-1,9,82,16,-3,-4
1693678024325390000,0,-4,-9,-14,-55,-17,-5,2
1693678024327408100,-2,-1,2,-7,-6,4,0,-2
1693678024329406100,-1,-2,-7,-4,24,-10,-1,-5
1693678024346422800,-2,-6,-11,5,19,16,0,7
1693678024349428200,4,8,38,10,15,3,7,1
1693678024350427600,1,-3,-5,8,-54,5,-2,0
1693678024352426600,-3,-3,-6,-3,-14,-33,-8,-3
1693678024359567700,-2,-1,-2,47,28,15,1,-1
1693678024361539600,2,0,14,-26,28,11,7,1
1693678024368536600,0,0,-5,6,-28,-10,-4,-2
1693678024371539900,-1,-1,3,-7,47,21,3,-2
1693678024383480900,-2,0,-2,0,-49,-38,-12,-3
1693678024386486000,-4,-3,-9,12,32,11,3,-2
1693678024388484300,1,0,5,-8,2,-12,-3,3
1693678024390483500,1,-1,3,26,-4,39,17,1
1693678024406298000,1,4,2,-45,-34,-26,4,11
1693678024408298600,-8,-7,-17,6,7,51,7,-23
1693678024410296300,-7,-9,-11,-43,-16,-46,36,-1
1693678024412295500,5,-1,1,34,17,-43,-14,1
1693678024419334900,-5,-5,5,3,-9,36,-46,-16
1693678024421363400,3,9,2,3,-17,-54,56,13
1693678024428360100,-6,-6,-9,-1,25,74,-49,-15
1693678024431358900,-11,-2,-1,-8,-27,-25,-13,-20
1693678024443488300,4,3,-2,-15,-22,-57,18,10
1693678024446491000,4,-1,-5,23,35,15,1,7
1693678024448486600,9,4,4,-1,-23,-27,0,13
1693678024449507800,4,5,3,-6,7,10,87,11
1693678024466421400,-12,-1,1,-2,-2,69,-83,-16
1693678024468449700,-4,-5,-6,-5,13,-2,39,-3
1693678024470424100,2,2,2,5,-45,-13,21,2
1693678024471447800,17,-1,-3,-4,60,-19,-49,4
1693678024480420000,-11,5,2,-2,-31,-81,49,-1
1693678024482441700,-10,-3,1,22,70,-1,-63,0
1693678024488537000,-3,-2,0,-26,-21,0,-30,-5
1693678024490534900,-2,-1,-4,-19,-59,27,70,14
1693678024503573200,13,1,2,10,56,63,-10,-11
1693678024506570200,30,12,7,15,8,-9,4,21
1693678024508593700,-8,-8,1,10,6,-29,57,6
1693678024509593400,-25,-1,-1,1,40,48,4,-50
1693678024526421100,2,-11,-10,-28,23,-56,-52,43
1693678024528426500,-27,-10,-13,-30,-93,-6,-33,-57
1693678024531449600,31,13,8,20,49,72,9,35
1693678024532448100,21,13,10,9,14,13,60,24
1693678024539382900,16,1,7,16,27,13,25,0
1693678024541410600,-54,-16,-8,-4,-37,-76,-26,-6
1693678024548438900,-15,-16,-16,-16,-12,-32,-101,-31
1693678024550439300,-3,-5,-1,-5,-9,-23,-75,-1
1693678024565528100,31,12,4,1,-44,0,87,8
1693678024568525700,27,9,7,5,68,72,119,50
1693678024570530300,3,1,0,1,-6,56,27,-16
1693678024571529800,-30,-13,-11,-21,-45,-47,-114,-11
1693678024586426000,-22,-1,7,20,31,-60,68,-22
1693678024588455700,-49,-26,-36,-25,75,29,63,0
1693678024590453600,1,4,44,30,-15,-8,-55,-9
1693678024591453200,18,4,-15,-15,8,3,-4,-1
1693678024599535700,-19,-5,9,14,27,102,110,12
1693678024601536000,49,12,3,9,14,-36,-53,21
1693678024608417200,-17,1,-23,-13,21,-4,66,3
1693678024611416700,-28,-23,-43,-32,-21,-128,-40,-31
1693678024623484500,-18,22,81,77,-6,69,76,-2
1693678024625494200,-6,-6,-2,-32,-33,65,60,-8
1693678024627510700,60,12,-31,1,30,-75,-71,22
1693678024629510300,-21,-12,-3,-26,-103,22,-62,-45
1693678024646218300,-12,-22,-37,-29,23,-43,76,17
1693678024649213000,-19,-3,29,66,3,15,-128,-34
1693678024651211400,24,13,11,-44,-39,92,122,33
1693678024652211100,-27,-5,1,26,-31,-26,28,-40
1693678024659164400,-38,-16,-6,-93,3,23,5,-49
1693678024662169300,38,16,16,43,60,55,112,22
1693678024668896800,60,0,-38,-67,-16,-77,-90,-3
1693678024670899500,-65,12,40,69,93,28,59,20
1693678024683108500,-2,-16,-31,-39,-106,14,-128,-3
1693678024685105000,7,1,-28,19,17,2,118,42
1693678024689361400,-14,22,39,28,94,75,4,-3
1693678024691367000,121,10,-4,73,107,-1,-42,60
1693678024706295900,-20,14,17,73,80,25,64,5
1693678024709292800,-49,-43,-43,-83,54,-52,-115,-60
1693678024711296900,-37,-2,5,24,12,-117,127,-15
1693678024712296400,34,5,-44,-44,89,115,29,37
1693678024719338100,104,37,67,54,-71,-128,2,35
1693678024721310500,47,15,15,16,-46,45,54,0
1693678024728305700,-35,-23,-6,-6,25,-48,127,4
1693678024731305000,19,-12,-14,-79,70,7,-76,11
1693678024743274100,-31,-11,-50,27,113,-79,-103,-52
1693678024745273300,64,19,28,-5,-101,60,-5,3
1693678024749309100,45,27,23,56,-20,-32,-97,-23
1693678024751336700,-97,-50,19,7,-1,58,122,-13
1693678024766421800,10,22,-30,-51,-84,-6,-127,-88
1693678024768449600,64,-4,-9,-97,-84,-10,-72,61
1693678024770448800,-84,-41,-59,-42,83,37,-56,-96
1693678024771423400,76,9,61,113,-113,-85,-61,23
1693678024780368300,-12,-26,-27,-128,-70,125,108,-92
1693678024782389600,-8,-7,-21,43,80,-128,40,90
1693678024788361800,-55,-5,-35,-21,-83,127,88,30
1693678024790385300,50,32,41,48,26,39,-32,16
1693678024803492700,-49,-66,-77,-52,53,-70,-38,-34
1693678024805495600,76,13,-6,-21,-21,-2,127,28
1693678024807494100,-37,-9,30,80,81,122,-115,6
1693678024809512900,75,2,-92,-128,-88,-31,83,-70
1693678024826430700,60,29,0,127,127,49,65,122
1693678024828406000,-118,-78,62,-28,-40,-19,8,-128
1693678024830403700,98,33,-57,-107,57,8,-67,115
1693678024832407800,-128,-3,38,-29,44,97,96,-82
1693678024848459500,127,1,-63,-44,-71,-28,64,104
1693678024851476900,-121,-36,-22,20,42,-51,-76,-68
1693678024853475800,78,-19,-36,-61,-60,71,68,108
1693678024854474200,-19,36,61,81,69,12,-38,-37
1693678024864489700,7,-2,-17,-103,-61,-117,-6,23
1693678024866488800,29,24,-7,42,127,110,72,39
1693678024867488100,-58,23,36,-22,8,-7,98,-115
1693678024869486300,87,-13,-8,-7,-99,-85,18,81
1693678024886445400,-128,-35,19,4,31,78,90,-19
1693678024888474100,11,22,6,0,-39,-115,-117,-36
1693678024889455500,-1,-2,-11,-14,46,-35,55,-10
1693678024891471600,-35,-8,-19,-62,-83,-16,20,-12
1693678024908445700,7,19,37,42,17,64,-52,0
1693678024911441400,-6,24,-4,-16,-23,9,-8,17
1693678024914434800,-5,-2,18,33,34,-29,37,-27
1693678024917436800,-4,-7,-17,-27,-3,-1,-70,14
1693678024923428900,12,13,28,11,5,-26,-37,42
1693678024924428300,6,7,-29,-23,-75,40,-8,-10
1693678024926430600,-31,-20,33,40,15,-34,-48,0
1693678024927430000,24,22,4,-3,-18,0,17,-4
1693678024945438100,-26,-12,-15,-14,45,31,-24,-17
1693678024948436700,-16,12,1,-3,54,7,-40,4
1693678024950412700,38,13,19,21,-52,-35,1,1
1693678024951435100,-14,-5,-3,-19,-33,15,62,33
1693678024968402900,9,20,15,29,93,27,-72,8
1693678024970402100,-1,-19,-8,-11,29,4,47,19
1693678024971401500,-1,-7,-3,9,-47,-57,-68,-34
1693678024972400700,-8,-12,-30,-49,84,-33,10,71
1693678024982394500,-10,-1,3,-24,18,10,33,-55
1693678024983416100,12,20,31,62,-40,32,-39,-32
1693678024991390200,5,-3,1,19,127,-13,-13,8
1693678024993390600,-29,-7,-13,-35,-28,-23,-14,-62
1693678025006383900,5,4,10,39,93,27,-43,97
1693678025008380500,2,13,-1,-22,-78,-29,25,-74
1693678025009382300,-20,-16,6,-4,13,3,-11,102
1693678025011379300,-12,3,-5,-11,37,-25,7,7
1693678025027368800,19,12,11,-7,-89,11,34,33
1693678025028390400,33,17,-9,-16,32,3,27,-59
1693678025036363800,3,8,20,47,54,36,-5,-9
1693678025038363400,-6,-13,-4,2,-16,21,2,10
1693678025042363700,-25,-3,-13,-24,-5,-21,-9,-73
1693678025043382000,9,-2,0,-6,-3,-13,-18,41
1693678025050358800,-6,5,9,-5,3,7,14,-33
1693678025052384700,4,0,-9,9,-12,19,18,27
1693678025065393600,6,5,20,28,52,23,-11,-59
1693678025067349300,-14,-19,-39,-81,-71,-39,-31,54
1693678025068368000,-8,-7,-3,-10,81,-28,-5,-23
1693678025069366600,5,3,4,-12,-30,8,-4,-11
1693678025088333900,2,-6,5,12,-14,15,7,-7
1693678025090335900,-2,2,7,12,18,20,-13,5
1693678025091335500,-3,-1,-4,13,26,46,18,-2
1693678025092334200,8,4,-4,14,25,-5,-2,-8
1693678025102327400,-2,-3,14,2,-57,-24,-4,-4
1693678025103341600,0,5,7,12,42,48,9,32
1693678025110440300,-7,-9,-18,-24,-124,-58,-14,-13
1693678025112443300,1,2,9,19,31,3,1,-5
1693678025125450300,-1,-2,-2,-6,-21,-2,2,11
1693678025127433200,-2,-3,-6,1,6,-25,-12,5
1693678025128441500,-1,1,5,38,28,0,6,-9
1693678025129445900,-2,-6,-8,-39,38,27,-3,-4
1693678025148422000,4,8,2,-9,-56,-43,7,10
1693678025150420100,2,3,-2,0,70,4,-10,-5
1693678025151419500,-4,-9,-16,-14,-33,-20,-1,-7
1693678025152418400,1,1,8,46,30,46,7,10
1693678025162268900,5,5,18,15,10,18,6,-6
1693678025167294600,-6,-5,-7,-15,-19,-15,-7,11
1693678025171259100,-1,-3,-5,-17,-73,7,7,-3
1693678025174258400,0,-2,-10,-31,-72,-30,-7,1
1693678025186250000,-3,-9,-17,-9,78,20,-3,-2
1693678025190246800,0,2,14,29,18,-3,-2,2
1693678025192267400,2,1,-2,-21,-49,10,0,-1
1693678025193267100,2,1,3,13,13,2,1,-2
1693678025208861600,-2,-2,-7,-2,25,21,7,3
1693678025210882000,3,2,5,2,7,-8,2,5
1693678025212863200,-1,-2,-6,-9,-29,-4,-5,-5
1693678025214857800,0,0,5,13,23,5,3,-5
1693678025221583200,0,2,10,0,-17,-24,-4,1
1693678025224593400,0,-1,-8,2,-2,28,2,1
1693678025230505100,0,1,5,5,31,-13,1,-1
1693678025232533100,-3,-3,-9,-33,-43,-14,-5,-3
1693678025246421000,-3,-7,-8,13,20,-3,-2,0
1693678025248430000,2,2,7,-16,-48,-10,-3,-1
1693678025249430200,-1,4,0,-3,64,2,-2,-3
1693678025251427500,3,2,7,27,-2,6,5,6
1693678025268184800,-2,-6,-20,-35,11,-35,-12,-3
1693678025270190100,-3,-2,4,25,27,6,-2,-2
1693678025272210000,1,-1,-4,-18,-36,10,5,3
1693678025273208700,1,4,3,17,30,20,2,-1
1693678025281622600,0,2,-3,3,13,-23,0,0
1693678025283631500,-4,-7,-14,3,-5,38,-2,0
1693678025290732900,1,2,7,-32,-24,-26,-1,-2
1693678025292732000,-1,-1,11,13,14,-1,-1,-3
1693678025313481700,1,0,-3,-4,-3,8,1,1
1693678025315508900,-2,-6,-15,29,3,13,3,1
1693678025317508600,2,-1,21,-11,2,-3,-3,0
1693678025319506800,-3,-4,-6,-2,-41,-8,0,-2
1693678025328485900,-2,1,0,-12,-9,-4,-3,-1
1693678025331477800,0,0,1,-4,5,-8,2,1
1693678025333480700,1,-2,4,29,21,15,2,1
1693678025335475900,-2,0,-3,-9,43,-8,-5,-5
1693678025341490100,0,-3,-2,2,-26,-19,0,1
1693678025343471200,1,1,9,26,55,48,5,3
1693678025350508600,-3,-4,-12,-17,-47,-31,-7,-3
1693678025352530800,0,0,0,-15,40,14,0,0
1693678025367483900,0,0,-3,0,-13,-3,-1,0
1693678025369506300,0,0,-1,-18,25,17,1,-1
1693678025370490900,1,5,19,24,-31,-36,-1,2
1693678025372502800,-2,-2,-2,12,-9,9,-1,-1
1693678025388583000,0,-1,1,-3,28,6,-1,-2
1693678025390601500,2,0,0,-19,-62,-22,-3,-1
1693678025391598000,-6,-6,-16,0,12,15,2,-1
1693678025392602100,2,-2,2,12,-7,-19,0,2
1693678025402012300,-2,-1,1,6,1,9,-2,0
1693678025403016400,2,3,4,-21,0,-21,-2,0
1693678025410503600,-1,1,-1,11,6,1,-3,0
1693678025412509300,1,-2,-1,0,-16,3,3,1
1693678025425683900,0,-2,-2,-24,13,28,11,1
1693678025428468300,0,-3,-22,17,24,-10,23,0
1693678025429446300,-2,3,27,4,-42,-21,-33,-12
1693678025430446900,-3,-4,-4,-10,36,-14,-33,-5
1693678025448499000,0,1,1,-4,-8,-4,-1,0
1693678025450504500,-2,-4,1,0,4,-8,1,0
1693678025451507000,4,3,-9,6,33,44,29,6
1693678025452506500,-3,-2,-7,-2,-33,-33,4,-3
1693678025461638500,0,-1,-6,-14,-1,-11,-9,-3
1693678025464574000,1,5,13,12,17,-2,-2,1
1693678025470505200,-3,-7,-23,-6,-9,4,-2,-1
1693678025472511600,1,2,14,0,0,8,2,3
1693678025486417000,-1,-2,-9,0,-9,12,0,0
1693678025488416600,-1,-3,-2,-29,-14,-36,-8,-5
1693678025489415200,1,-5,-12,19,1,6,-1,1
1693678025491414000,4,5,6,3,3,-8,4,1
1693678025507869700,-3,0,6,18,-6,28,5,-1
1693678025509875600,-12,-10,-16,-34,0,2,-13,-8
1693678025515870700,5,4,25,43,-21,-28,-2,11
1693678025517892800,-2,-8,-11,-2,43,6,8,-9
1693678025521682900,-7,-8,-36,-21,28,12,-3,-2
1693678025523710100,13,15,59,46,-87,6,8,7
1693678025530506000,-23,-6,-3,1,46,2,-26,-8
1693678025532512800,1,-1,-7,-11,6,-9,1,1
1693678025545083900,1,-1,5,26,15,-16,-6,-4
1693678025548111300,1,-3,-19,-25,-5,2,0,-2
1693678025552085800,7,3,-3,-19,0,2,12,3
1693678025554085000,1,0,0,8,-14,11,2,0
1693678025568497300,1,4,6,1,-9,-7,7,1
1693678025570495100,-3,2,11,-8,0,-1,14,-1
1693678025572494100,4,-1,0,-14,36,14,-38,2
1693678025575510600,-3,-2,-4,4,-22,-6,14,-9
1693678025582483200,-8,-6,-10,-17,-9,-6,-12,-4
1693678025583482700,1,3,14,5,-30,-4,41,3
1693678025590505000,8,3,-7,-22,11,2,14,12
1693678025592521900,1,-8,-15,-4,22,17,-36,-12
1693678025606422600,11,5,24,13,-31,-38,-34,5
1693678025608450400,-9,-3,-8,13,29,-1,19,4
1693678025609450000,-17,-4,-3,-12,-7,30,59,-15
1693678025611448200,15,3,-1,-6,5,-37,-6,8
1693678025628521000,-1,1,6,11,-16,8,19,0
1693678025631520200,-10,-5,-5,-4,39,6,-35,-1
1693678025633518500,6,0,-5,15,-4,-7,11,-10
1693678025634517700,-3,0,2,-18,-14,18,24,-11
1693678025641999900,9,1,-5,1,6,-4,11,12
1693678025644013200,13,7,4,-23,-21,8,4,14
1693678025650509900,-16,-9,-5,34,40,-9,3,-17
1693678025652520000,-5,-5,-6,-5,-41,6,28,5
1693678025666426000,6,7,8,-1,7,1,-81,-14
1693678025668455100,13,-2,-12,-1,8,-23,-6,-1
1693678025669453700,4,3,2,-30,-21,28,62,21
1693678025671452200,13,14,10,1,7,5,-66,19
1693678025688897900,-67,-17,-2,8,-19,-8,104,-24
1693678025690892800,-7,-13,-15,-8,15,-36,-111,-65
1693678025691892000,21,6,0,-8,-49,-1,15,35
1693678025693890800,-14,1,0,20,26,23,59,-2
1693678025702273800,-25,-3,17,-21,-6,29,-65,27
1693678025704293300,-22,4,9,38,26,32,93,-18
1693678025710448300,-5,-8,-17,-35,0,-21,-68,-2
1693678025712463000,25,5,-22,32,12,-49,-77,-14
1693678025726424400,9,4,30,-14,-33,28,29,4
1693678025728434200,10,-2,-8,8,11,28,28,18
1693678025730429000,14,11,25,4,19,8,69,0
1693678025732450500,1,-12,-14,-9,-10,3,-15,14
1693678025748548100,16,3,-21,-10,-30,-42,-96,-10
1693678025750542100,30,5,0,-13,21,-8,-85,14
1693678025752540600,-55,-22,-54,-90,57,73,-16,-44
1693678025753539700,-5,26,95,44,-1,-44,55,45
1693678025761761800,8,-12,-24,-55,59,25,59,-32
1693678025764790400,85,15,-20,-12,60,15,44,6
1693678025770448700,-39,-9,58,38,-67,-34,-128,-32
1693678025772445100,11,8,-28,52,127,41,-15,27
1693678025785010500,-14,-16,-36,-82,-111,-27,107,28
1693678025787037500,40,-14,-70,-108,79,66,5,50
1693678025792574800,7,21,105,67,-2,-106,51,-54
1693678025793597100,-48,-25,-90,23,28,-8,-75,-47
1693678025808493200,95,11,6,7,41,28,27,21
1693678025810492500,-75,-8,2,-53,-117,-39,-94,-45
1693678025812490400,-10,-24,-68,-35,70,35,-77,60
1693678025815510700,13,19,81,33,-86,-85,-31,-75
1693678025830556300,-23,-13,-47,51,35,-5,18,-46
1693678025832561700,31,24,88,127,15,-23,127,41
1693678025834559400,33,-5,-62,-123,75,92,-91,-49
1693678025835558700,-12,6,20,-6,-128,47,115,34
1693678025845034500,43,33,28,127,127,87,-58,11
1693678025848060700,-128,-42,-47,-85,-122,-47,-3,-9
1693678025852036600,-2,-7,-4,-26,-18,52,35,21
1693678025854035300,54,10,8,-121,122,-8,33,28
1693678025868474700,-18,-3,-34,-106,-83,104,117,-48
1693678025870474500,103,53,65,103,127,-70,77,106
1693678025872472900,-65,-29,-68,-62,-58,-78,-58,-51
1693678025873472400,63,33,80,36,-103,28,11,32
1693678025890571200,-122,-43,-79,-30,60,42,69,30
1693678025892576500,-49,-6,0,-88,31,34,-42,-43
1693678025894574500,-29,-2,-34,-36,61,-46,-9,-23
1693678025895573600,73,16,-11,-81,23,15,-66,51
1693678025904568500,-81,-19,31,102,-16,-128,-19,-31
1693678025906566500,33,-10,-21,-101,-88,116,65,-59
1693678025920504800,41,24,83,127,32,-41,47,62
1693678025922526700,-6,-20,-24,18,-56,43,75,-6
1693678025928491600,91,31,34,-18,26,42,121,29
1693678025931512800,-30,-14,-22,68,-43,-49,-124,3
1693678025933489100,15,7,-5,4,-63,7,115,2
1693678025934488600,-25,-21,-79,-81,86,68,-56,10
1693678025959224600,81,38,127,-20,-111,10,-47,5
1693678025961234700,-50,-13,-4,12,15,-91,-102,-73
1693678025963228100,0,3,-11,-30,-9,-66,8,29
1693678025965230000,-48,-25,-26,-48,61,-17,67,-40
1693678025967249300,15,6,-24,-30,34,13,13,16
1693678025968248700,3,-1,-12,17,66,92,-13,19
1693678025972224700,27,3,11,47,-25,62,29,12
1693678025974245100,-30,-18,-21,-32,-13,-28,-8,-44
1693678025988454000,-1,8,9,13,15,-35,-82,2
1693678025991451700,-4,-6,7,38,14,3,27,63
1693678025992450600,5,3,-9,-16,-2,8,-11,-37
1693678025994451200,-2,6,16,41,34,-11,-11,28
1693678026011441300,-18,-7,-10,-6,-66,-48,-50,-16
1693678026014439600,-6,2,-5,-16,-27,-20,-30,-30
1693678026015438700,6,4,-2,5,3,10,44,1
1693678026017436500,-12,-11,-8,-28,-77,8,-43,-51
1693678026033483700,9,-5,-3,19,72,-43,-20,42
1693678026035510800,-13,-7,-12,-15,45,4,45,-49
1693678026035510800,18,8,12,4,-47,14,-11,25
1693678026036508600,-13,-4,1,7,-7,-4,26,-16
1693678026048492100,-7,-6,-6,-12,17,-16,-37,-28
1693678026050490800,0,1,9,11,-14,-7,16,12
1693678026051489700,18,5,1,11,60,28,-4,18
1693678026051489700,-94,-6,-1,5,-27,-7,10,-20
1693678026071436200,44,-3,-9,-20,-94,-26,53,43
1693678026072430200,-21,-4,-7,1,28,10,11,35
1693678026073433600,-26,3,2,0,-38,-8,-7,18
1693678026074429200,44,-2,-2,12,62,11,-10,-43
1693678026084551200,-19,-3,-1,-27,18,4,-18,18
1693678026085551300,7,-3,-10,-43,67,-36,-4,-80
1693678026093532500,-16,-4,-9,-14,-87,0,5,-22
1693678026094530400,-23,-3,1,8,101,-1,-1,8
1693678026108568300,0,-1,-4,14,80,36,-22,-22
1693678026110588800,5,2,-1,-22,-95,-10,7,27
1693678026111564400,7,-4,-7,-7,96,3,8,23
1693678026112586800,12,-1,4,10,-3,1,9,-14
1693678026130551400,-2,0,-2,-4,33,-9,-33,-49
1693678026132554300,-2,2,4,35,-8,34,30,60
1693678026134576100,8,-4,-11,-49,-90,-51,-18,16
1693678026135575300,4,0,4,16,4,13,11,2
1693678026146260300,-18,-1,3,5,-13,-28,-15,-37
1693678026148260400,-4,1,-1,11,96,9,-17,-29
1693678026153576200,25,7,11,13,-42,2,10,31
1693678026154594300,-1,-4,-5,-23,42,-10,-3,-35
1693678026168489800,-14,-5,-5,23,52,9,-10,34
1693678026170504300,11,4,4,-4,-96,-9,6,26
1693678026171507000,5,-3,-2,12,106,14,-5,-38
1693678026171507000,-3,-2,-5,-17,-128,-28,8,19
1693678026190568100,-11,-3,-11,-17,33,17,-11,-13
1693678026192573900,10,8,19,35,-59,11,1,-5
1693678026193572900,-7,-3,0,9,81,2,-1,-18
1693678026194571900,-8,0,-2,1,9,-20,9,-1
1693678026204551200,5,3,2,-15,-22,-6,-3,23
1693678026206550400,-4,-9,-21,-14,84,7,-11,-49
1693678026213430700,0,0,7,3,37,5,6,17
1693678026214432400,3,-1,-2,10,3,9,-1,28
1693678026228181200,-2,-4,-6,-6,40,-6,5,3
1693678026231184900,-2,3,3,0,-16,3,-4,-9
1693678026233206600,1,3,10,16,-7,-10,-5,-14
1693678026234205000,2,-3,-7,-12,37,8,2,24
1693678026250569400,-3,-3,-1,0,-93,-4,-8,-6
1693678026252573200,-9,-8,-11,-25,-1,-31,-35,-15
1693678026253572300,7,4,1,8,65,-2,21,17
1693678026254571000,0,0,-5,-6,-33,-4,-5,21
1693678026264325700,-7,-2,-1,-1,24,-4,-1,-30
1693678026266262600,7,3,8,7,-28,-5,-3,22
1693678026273433100,-1,-3,-5,-15,-61,10,3,-7
1693678026274433700,-1,-1,2,12,84,-27,-6,-5
1693678026288182000,-2,-4,-12,-4,-45,-15,-12,15
1693678026290187600,5,4,14,27,-15,19,12,5
1693678026291188400,-5,-8,-17,-91,-70,-18,-7,-19
1693678026292186800,2,6,28,57,-54,18,6,-3
1693678026310567800,0,1,5,13,24,2,-5,4
1693678026312571500,0,-2,-5,-6,18,-10,15,5
1693678026313573900,-2,-3,-10,-2,-1,10,-1,-15
1693678026314572600,-1,-3,-3,-9,-6,11,-5,9
1693678026324683800,-1,0,2,4,45,-8,-1,-4
1693678026325699900,0,0,0,1,-36,4,1,-15
1693678026333487200,2,0,3,9,67,6,-7,-10
1693678026334511800,-3,-6,-9,-10,-13,-10,-8,18
1693678026348664500,0,0,0,-2,8,-5,3,4
1693678026350667800,-1,0,-2,-2,75,10,-3,-7
1693678026351667700,1,1,2,22,-36,4,4,11
1693678026352666200,-4,-5,-10,-22,-32,-12,-10,-25
1693678026371931900,-2,0,3,-7,4,-2,-1,-17
1693678026373924600,-1,-2,0,3,46,-3,9,14
1693678026375922700,0,2,3,11,-26,1,-8,-14
1693678026377921700,0,3,2,-2,12,7,9,2
1693678026383939200,-1,0,2,-8,-43,-7,-4,9
1693678026385917300,-1,-3,-5,-12,-40,-25,0,-3
1693678026392911600,-2,0,3,31,7,17,6,2
1693678026394918900,-1,-3,-6,-16,-16,6,10,0
1693678026407903600,1,5,5,11,-6,-2,-19,-2
1693678026409903100,1,2,4,9,13,-2,0,-36
1693678026411901900,-4,-3,-8,-16,-49,-2,5,69
1693678026412901200,-1,-3,-3,-5,48,9,1,-8
1693678026430473600,-5,-5,-6,1,41,-17,-7,-8
1693678026432430700,1,1,3,5,-24,-1,-2,13
1693678026434430500,2,0,0,2,22,2,-7,-31
1693678026436428200,-1,-4,-16,-19,-12,1,-2,1
1693678026444423000,0,4,16,28,-8,8,14,-2
1693678026445423500,-1,-2,-2,-13,-11,6,-1,-4
1693678026453418100,-2,-4,-1,4,44,-16,-16,-3
1693678026455418600,-1,-1,-9,4,-24,-1,-1,0
1693678026468409600,-2,0,-18,-20,-15,1,1,-9
1693678026469411600,12,4,12,-15,4,2,3,34
1693678026471408300,-5,3,0,18,-28,7,40,-25
1693678026472408200,-8,-6,1,14,31,3,7,1
1693678026490567800,-9,-8,-17,-23,11,-6,-58,-22
1693678026492571000,-9,-5,2,-20,-3,-9,-16,3
1693678026493593100,10,4,13,24,6,-7,-23,-6
1693678026494592100,12,0,-1,-6,-7,-8,-4,5
1693678026513480900,-10,1,3,11,23,9,53,13
1693678026515505300,-11,-2,-12,-6,14,29,-15,-2
1693678026516502800,0,0,3,-1,2,6,-8,-9
1693678026517507300,2,3,7,7,17,9,3,0
1693678026528490500,11,3,10,-5,-59,-27,15,10
1693678026530489200,5,-1,0,21,37,10,-21,12
1693678026531488600,-5,-2,-4,-8,-30,-11,-37,-11
1693678026532487800,10,5,4,2,4,-21,-11,9
1693678026551435600,-14,-4,1,2,3,34,5,-8
1693678026552430200,0,-5,-7,-1,-14,-33,-12,-14
1693678026553432700,4,3,0,4,66,15,-17,12
1693678026554430900,-31,-14,-7,-18,-75,20,-2,-21
1693678026564911400,18,7,4,7,72,11,32,-6
1693678026565927800,-11,-2,-7,-3,-60,16,57,14
1693678026573488400,18,0,-3,-8,-14,-24,-59,11
1693678026575513700,3,5,7,9,47,7,7,-25
1693678026588180800,-15,-2,2,12,17,4,-20,-3
1693678026590184900,-3,-1,-3,-10,-21,-46,0,-63
1693678026591184900,1,-3,-4,15,39,35,10,76
1693678026592183500,8,2,0,-13,-6,-10,38,44
1693678026610506800,1,1,4,6,-74,11,17,-39
1693678026613432000,1,-1,-7,-20,68,39,97,6
1693678026615428700,3,-7,-6,-3,-4,-73,-59,-28
1693678026616431000,3,6,2,2,-19,-4,83,21
1693678026624431900,-18,-7,1,-4,-14,-4,-47,12
1693678026626426100,8,4,5,11,28,-46,-68,55
1693678026633570000,-17,-5,-8,-12,-15,-51,80,-122
1693678026634572700,-1,-9,-7,4,38,29,-104,75
1693678026648437100,7,1,4,-7,22,-19,4,-28
1693678026650439100,3,3,0,5,21,41,84,20
1693678026651437600,0,1,1,2,-61,-15,-67,54
1693678026652437100,-3,-6,-32,-69,81,90,44,-121
1693678026670568500,1,20,58,77,-116,-54,65,18
1693678026672571700,18,-9,-14,-18,18,-16,-112,-7
1693678026673575100,-4,-5,-6,0,16,47,97,30
1693678026674572700,-47,-9,-10,-20,-42,-32,-28,-30
1693678026684552200,5,7,18,-2,3,37,56,33
1693678026685568400,-4,0,-8,7,28,32,-45,-20
1693678026693483700,-1,8,18,20,-50,9,-47,8
1693678026694492800,8,0,2,10,44,0,17,0
1693678026708460200,5,-6,-23,-28,69,-8,-13,9
1693678026709460000,5,4,6,28,-12,-91,22,1
1693678026710482000,-4,4,-3,-11,90,21,-6,-23
1693678026711480300,2,-4,1,19,37,-40,-89,-4
1693678026730461300,3,-7,-16,-10,-14,12,3,23
1693678026732400000,-22,-4,2,-17,23,30,-8,-1
1693678026733396800,27,2,-2,0,-27,26,33,-17
1693678026734395500,-13,-1,3,10,31,-16,73,7
1693678026754430100,2,-7,-7,0,36,-39,-117,-39
1693678026758428400,18,5,0,-1,-65,28,56,47
1693678026761425700,-21,-12,-6,-31,-22,11,41,-17
1693678026768422300,-56,-11,-4,32,-66,-44,-108,-15
1693678026773426200,8,7,15,-28,17,28,107,1
1693678026778452600,6,-1,-5,5,18,-26,3,2
1693678026781413000,14,-5,-4,-17,56,-20,22,10
1693678026782411900,31,-2,-21,23,-13,-20,13,18
1693678026790409600,76,11,-3,-34,-32,-11,71,28
1693678026792406300,-99,-9,1,-23,39,56,111,-25
1693678026793408300,5,0,28,51,92,-24,-88,-11
1693678026795407600,-11,2,-6,-52,-72,-72,115,-16
1693678026813395000,4,-3,1,22,-54,76,42,19
1693678026815393900,60,4,-21,-6,19,-4,99,-2
1693678026816393200,-37,6,-3,9,-91,60,105,26
1693678026817392500,-1,-4,3,11,73,-52,-106,-6
1693678026828416600,-6,-7,-27,-4,59,-32,25,6
1693678026830418200,44,11,39,16,18,13,-88,-22
1693678026831417800,-81,-9,-3,30,50,-88,-62,-7
1693678026832417300,37,17,24,-3,-128,78,29,18
1693678026850512400,-4,-9,-62,-18,6,-23,39,14
1693678026852542400,-7,2,48,-13,17,-96,23,-11
1693678026853543200,2,-10,-2,-5,7,-2,95,-33
1693678026854543300,38,7,7,69,39,17,45,35
1693678026873549300,-2,-4,16,22,35,4,-128,-9
1693678026874549100,2,21,-2,27,58,100,126,38
1693678026875547600,-8,-10,-3,-8,56,27,-25,-10
1693678026876546700,47,22,31,-31,-73,105,48,16
1693678026887541800,-43,-9,12,-1,110,-70,-50,0
1693678026889488900,-9,-9,-1,74,-43,19,60,-33
1693678026894545500,82,26,13,10,33,-53,127,66
1693678026896544200,-88,-45,-52,-63,-28,48,-128,-96
1693678026910566400,1,16,32,7,32,81,106,37
1693678026912571400,19,-9,-13,-34,-128,20,-128,-10
1693678026913592800,11,5,-9,-38,68,-93,13,48
1693678026914591600,4,-1,1,-37,12,-40,-90,-53
1693678026933497500,-1,21,1,54,-128,23,104,14
1693678026935518800,-8,-10,-21,-31,97,-1,105,76
1693678026936522100,80,9,19,83,-37,127,-112,-56
1693678026936522100,-34,17,37,13,-18,-94,127,71
1693678026948465800,56,5,-5,-14,20,30,-128,46
1693678026949430500,-37,-2,-3,-13,69,32,-115,-105
1693678026955424000,13,-10,-44,-80,-110,-48,19,3
1693678026957426600,-12,13,24,10,127,114,127,86
1693678026978231000,42,-31,-60,-27,-95,-118,-128,-97
1693678026980235300,29,23,78,5,82,-88,69,124
1693678026981237200,-114,-59,-42,7,88,35,-84,-128
1693678026982233200,57,31,44,29,95,46,99,66
1693678026993285500,-28,-3,-19,-24,-38,-45,29,18
1693678026995287200,43,-9,-49,-40,-128,25,-71,-23
1693678026997283200,74,18,19,1,0,43,63,8
1693678026999282700,-7,11,0,49,43,56,61,56
1693678027007561700,-45,-39,-10,-24,-6,-73,-89,-93
1693678027009551000,-78,-3,-17,-7,24,52,94,17
1693678027014528500,28,28,33,13,-79,-38,-84,20
1693678027015526300,13,-11,-26,-20,-47,-22,-2,-36
1693678027030547400,5,5,-2,-46,-27,-14,109,18
1693678027032487700,-5,-12,-14,-45,11,-20,8,-38
1693678027033486500,-60,-2,1,29,-27,47,55,22
1693678027034485400,29,2,-5,11,-6,-4,-26,-14
1693678027053480600,-44,-13,-2,-18,32,53,-23,-104
1693678027054505600,25,12,-5,30,36,-50,-84,94
1693678027055506700,12,8,4,-17,-4,-12,-23,32
1693678027056506100,-5,-14,-8,-12,-27,-8,-56,-29
1693678027067818200,-22,11,26,32,37,-28,2,-50
1693678027069822900,1,-16,-18,-4,-29,-11,-91,-9
1693678027074552200,11,9,2,-22,9,29,59,2
1693678027076546300,-19,-13,-7,7,30,-30,-51,-18
1693678027090566900,16,10,15,33,56,94,44,43
1693678027092570100,-3,-4,-10,-2,-6,-56,-20,1
1693678027093571700,-31,-8,-10,-18,-16,-6,-31,-91
1693678027094571100,12,-9,-8,-13,28,-36,-24,23
1693678027114573000,3,9,15,16,80,57,18,90
1693678027118571200,-2,2,9,36,9,37,10,-36
1693678027121569600,-12,-4,-5,-22,-64,-13,5,29
1693678027125566900,10,2,0,16,95,11,-19,-59
1693678027130563600,-5,-2,0,-28,-26,-18,-25,7
1693678027135562600,0,0,-6,22,-1,6,-12,56
1693678027139559400,5,11,5,-27,-51,55,39,-49
1693678027140576900,5,-3,-5,11,81,-54,-6,-7
1693678027151426000,-7,-3,-3,2,-38,7,20,43
1693678027152428200,-28,-7,-5,-16,11,-8,0,-108
1693678027153424900,27,5,6,20,-44,8,-3,13
1693678027154422900,-8,-8,-12,-24,-7,-19,-22,-2
1693678027173480000,0,-3,-2,-8,19,22,35,12
1693678027174506000,8,5,6,11,48,-17,-7,-3
1693678027175505400,-10,-5,-7,5,93,2,4,32
1693678027176504600,-7,-2,1,6,5,-12,2,-17
1693678027187499700,5,6,6,6,-17,34,-21,-1
1693678027189488000,3,0,3,9,45,25,17,-15
1693678027194465200,-15,-15,-22,-47,-54,-40,-7,32
1693678027195486100,3,3,5,-5,19,-15,6,-13
1693678027210565900,-4,3,1,10,51,-12,4,-32
1693678027212568900,2,-3,5,11,93,33,-4,37
1693678027213568600,-8,-1,2,-10,-11,-28,7,-4
1693678027214568200,1,1,1,15,-124,-15,-21,-24
1693678027234573800,1,-2,-5,-30,8,25,3,11
1693678027237569400,0,0,1,3,-43,48,11,-16
1693678027242576200,-2,-1,-4,21,106,25,6,22
1693678027245572900,2,8,13,-11,6,-18,0,10
1693678027249598600,-3,0,3,47,120,13,-4,-2
1693678027254594700,-3,-11,-20,-53,-36,-19,-13,-25
1693678027259592300,-2,-1,1,-22,-16,-40,-11,10
1693678027262578100,-3,-5,-11,15,48,21,3,11
1693678027270574700,2,6,13,19,-114,9,8,0
1693678027273579700,1,-6,-16,-32,83,-43,-9,19
1693678027274578200,-9,1,9,31,54,12,25,-9
1693678027276576600,-1,-1,1,-17,-104,-6,-3,1
1693678027293491000,-3,-1,0,-7,29,-5,5,5
1693678027296496500,8,7,11,31,-61,5,-6,5
1693678027299493700,-7,-10,-14,-17,3,0,-4,4
1693678027302498600,-1,-4,-6,-20,-13,-4,-1,6
1693678027307489500,-2,-1,-1,8,1,-18,3,5
1693678027309494400,-5,-1,0,0,-80,7,-4,-22
1693678027316484500,-1,0,0,12,127,20,-3,4
1693678027319483000,-1,-2,-7,1,-56,-20,1,2
1693678027331475500,-2,-3,-2,-17,-26,-9,-6,-10
1693678027333475500,0,1,5,7,12,-4,0,-10
1693678027335474100,1,0,1,2,-8,8,-5,-3
1693678027337473900,0,-1,-3,14,48,2,4,5
1693678027353461700,1,4,1,-10,32,-15,-3,2
1693678027354462500,-3,-3,-5,-11,-25,-11,-4,-18
1693678027356461200,0,3,0,17,-8,6,-13,-34
1693678027357461100,-2,-2,-6,-22,30,1,0,49
1693678027366436700,-3,-1,-1,6,12,4,6,-8
1693678027368439000,-1,0,-2,4,21,-6,7,1
1693678027375436000,1,-1,0,-8,-59,8,0,0
1693678027377435600,2,3,6,6,22,20,0,-15
1693678027390520600,-1,0,-6,16,-6,-15,-4,1
1693678027392522000,1,3,16,7,-24,1,-4,1
1693678027394523600,-2,0,-1,4,8,-2,2,13
1693678027395521500,-1,-1,4,-19,-21,5,-5,-6
1693678027413481200,1,-3,-8,-10,9,13,-1,1
1693678027415488200,-2,-2,-4,2,-20,-5,-7,-12
1693678027416486600,1,-2,-3,0,40,-13,-1,14
1693678027417486000,-2,-1,0,4,-24,5,3,-7
1693678027426828300,-3,-3,-3,-9,9,-2,-7,-5
1693678027428850400,0,1,-2,5,-22,7,1,-1
1693678027436019100,1,2,5,-12,-6,-18,1,10
1693678027437015400,-1,-2,-8,0,21,-6,-7,-6
1693678027459613800,1,2,8,20,90,10,3,-1
1693678027460618300,-4,-5,-17,-34,-53,-20,-11,-8
1693678027464338300,1,1,-1,-5,-7,-33,-3,6
1693678027466272100,3,5,15,26,34,25,5,-8
1693678027473318600,-3,-5,-10,-7,-3,-13,-5,-2
1693678027475316700,-2,-3,-3,-4,-33,-12,-2,-3
1693678027476315700,0,-4,-12,-10,-1,20,0,2
1693678027477314600,-2,-1,-6,12,-3,-10,-2,-6
1693678027486567700,1,2,20,-8,-23,-5,-1,1
1693678027488567700,1,1,-2,17,9,8,0,1
1693678027496940900,-1,-1,0,-15,-13,3,-3,1
1693678027498938400,2,0,4,18,7,6,4,0
1693678027510567000,1,-1,-7,-10,-24,15,-2,2
1693678027512570400,0,1,2,12,32,5,1,-1
1693678027513593200,0,3,4,3,17,10,2,2
1693678027514591900,-3,-3,-3,-13,-12,-15,-4,-5
1693678027533468200,1,-1,-9,-3,17,4,5,2
1693678027535484100,0,-1,6,2,-22,-7,9,1
1693678027536483900,-1,0,-1,3,0,22,-16,-18
1693678027536483900,-1,-3,-1,-5,-19,-33,-16,26
1693678027547433300,-1,0,-7,-7,-11,-4,-10,-7
1693678027548452300,1,-3,-3,-9,23,-9,3,16
1693678027556089000,7,4,11,11,-62,3,7,-12
1693678027557088100,-9,-3,-2,4,10,-7,5,-16
1693678027571058000,-2,-2,1,-2,-39,-5,-5,6
1693678027572076000,-4,-5,-5,-6,-30,-11,-4,-17
1693678027573074200,3,-2,-7,-10,28,12,4,17
1693678027574077600,1,0,2,-6,1,7,-17,-7
1693678027593572700,-2,-1,0,0,-5,-11,3,3
1693678027595574700,26,6,3,11,34,-1,9,10
1693678027596572500,-16,-7,-8,-6,-24,7,-17,-9
1693678027598568300,-23,-6,-12,-1,-1,-11,1,-6
1693678027606551800,4,8,42,11,14,-1,2,-2
1693678027608575400,-2,-1,-4,-2,-5,3,-10,6
1693678027616038900,15,-2,-2,6,16,5,15,9
1693678027617038000,13,3,1,-4,19,-2,-6,-31
1693678027630513400,-14,-9,-23,-33,-22,7,-1,29
1693678027632454300,-5,1,6,40,4,-5,5,-5
1693678027633474000,0,4,16,-21,-12,-20,-2,9
1693678027634472700,0,-2,-1,11,15,21,7,-4
1693678027653486600,1,-5,-21,-17,4,-15,-9,-13
1693678027655493900,-4,-6,-19,-22,-1,10,-6,1
1693678027656492700,-6,8,15,24,-2,2,7,-1
1693678027656492700,5,1,-9,-31,-7,-22,-4,3
1693678027675655900,3,1,6,39,-16,10,8,7
1693678027677429600,-10,-10,-17,41,44,16,-7,-35
1693678027678431400,-5,-2,-32,-56,-27,-8,6,1
1693678027680447000,5,2,31,-12,10,0,4,7
1693678027690506300,-2,-3,-9,22,5,-22,-5,-1
1693678027692434500,-6,-1,10,10,1,6,1,1
1693678027693447700,-1,-10,-30,17,25,5,-3,0
1693678027694450200,5,2,-9,-21,11,18,7,2
1693678027714493600,25,7,16,-11,-21,-6,-1,3
1693678027717498900,-17,0,-2,-16,-21,-12,-6,-4
1693678027720497000,21,9,14,7,22,-2,7,43
1693678027723494700,-3,-7,-7,36,-12,8,4,-17
1693678027737314200,-7,-9,-41,-28,26,6,0,-10
1693678027740321300,15,7,-14,-1,-3,-2,-23,-20
1693678027743317000,-64,3,82,-1,-18,-11,-22,15
1693678027746307700,35,4,-10,-1,-6,-2,0,-6
1693678027751307400,20,5,-8,-10,13,8,15,47
1693678027754335900,52,9,2,14,3,23,41,-20
1693678027757334600,-25,-11,-27,-66,9,-28,-21,10
1693678027759334100,-27,-10,-23,-92,-5,29,-9,-22
1693678027774507800,-4,11,49,64,-14,-14,-18,-14
1693678027777514000,-39,-11,-7,-52,3,3,14,16
1693678027780505800,47,6,-12,74,4,-5,0,-8
1693678027783504100,91,10,19,2,-11,-8,-13,52
1693678027798431200,-99,-16,-1,-38,15,7,42,-70
1693678027802461400,91,15,-2,-34,3,-1,-12,73
1693678027805428700,-119,-28,-1,7,-3,9,-5,-115
1693678027807427400,76,25,-10,61,-17,15,-4,56
1693678027811425100,-8,-18,-8,-24,-2,-7,-7,-21
1693678027817429800,28,25,29,12,1,25,17,67
1693678027820426400,-47,-35,-20,-25,-18,-8,15,-64
1693678027823424300,32,-13,-33,69,28,48,-17,75
1693678027833571600,102,29,35,-15,-7,-33,-13,-70
1693678027835574900,4,-2,13,-7,-12,-22,-56,-22
1693678027837573800,122,38,2,27,7,52,60,58
1693678027839572400,7,-1,-5,-58,5,21,13,61
1693678027856425500,-111,-31,-24,63,-3,-25,-14,-28
1693678027858455000,-9,11,54,60,-3,-12,91,56
1693678027860453400,-108,-26,-20,-16,-17,-90,-118,-89
1693678027862452600,66,-1,-37,-20,18,20,57,65
1693678027870504800,-27,13,-7,-7,-3,5,-13,-17
1693678027872511700,-78,-30,-60,-114,-3,-26,28,-52
1693678027877599700,21,9,32,56,-7,20,8,54
1693678027878599300,29,30,12,-23,-2,-47,-12,-21
1693678027893585900,-18,-22,-31,-86,-7,-5,64,-13
1693678027896579100,29,-41,-26,27,5,23,-117,-71
1693678027898600000,117,2,35,71,34,74,58,18
1693678027900574700,4,-2,18,91,12,-47,-28,-66
1693678027916422200,35,6,0,22,-22,-23,-8,63
1693678027918433400,52,3,-28,43,80,-60,23,-21
1693678027920432400,-65,-5,-30,-128,-69,18,26,12
1693678027921431600,-15,27,112,127,4,-17,-9,-36
1693678027930384900,18,-9,-31,18,8,-10,0,30
1693678027932384300,2,0,-21,-127,-21,19,69,20
1693678027937383800,127,26,11,121,-41,-10,20,2
1693678027939403100,-128,-39,-32,-95,5,-65,-38,-73
1693678027953488700,-40,2,57,-51,-89,1,47,20
1693678027955498200,4,0,23,27,-7,6,-56,-64
1693678027957497600,7,-9,-63,-73,38,-11,115,30
1693678027959497300,-53,-24,-1,26,-95,-18,-61,-94
1693678027975939500,127,15,-54,-28,35,86,59,36
1693678027978950200,-58,5,4,-119,95,71,86,9
1693678027980966300,-46,-2,22,62,-1,33,121,30
1693678027982942400,-22,-19,22,73,83,39,94,13
1693678027990504900,46,-9,-43,20,-29,-82,-99,-15
1693678027992516000,23,22,-16,92,78,27,-3,-3
1693678027997433600,-88,-26,-84,-4,-24,-21,29,22
1693678027999433700,63,-22,-105,-128,50,9,127,32
1693678028013309700,54,36,1,50,99,13,-28,-5
1693678028017311800,-70,-11,55,87,-128,-104,-111,-26
1693678028028882700,44,7,6,-42,98,-47,17,7
1693678028030876500,17,-7,-28,-123,30,22,-51,-16
1693678028035879900,16,11,38,16,22,114,120,12
1693678028038872000,-31,-17,-27,-47,-88,-86,15,33
1693678028039870600,-13,4,6,-50,30,-27,-124,-23
1693678028041869700,42,11,10,-29,-27,1,102,3
1693678028050505200,-28,-7,-12,-65,52,1,47,-11
1693678028052517300,19,22,-6,20,-59,34,86,34
1693678028057016800,-13,-2,85,27,-61,-46,-72,-32
1693678028059022400,42,-5,-48,-28,-21,-2,2,13
1693678028073579000,-49,-13,60,29,7,-20,-60,-9
1693678028075581400,45,3,3,33,-33,40,-5,19
1693678028077580200,59,16,-32,27,54,24,12,6
1693678028080574700,-39,-9,-13,-19,-8,-1,-66,-16
1693678028096689700,-9,-11,1,-27,-27,3,3,18
1693678028098693900,0,18,12,-1,22,7,12,0
1693678028100690700,7,8,-25,-72,16,8,-17,-5
1693678028102690600,-26,22,42,43,-17,1,-28,17
1693678028110544900,-19,-32,-12,-18,-9,-20,-10,5
1693678028112564300,-14,-9,3,6,18,6,2,-24
1693678028117560600,35,33,-8,-36,5,13,-30,33
1693678028119535900,-23,2,14,-13,-19,8,23,8
1693678028133456400,17,11,-10,19,-6,-4,-3,0
1693678028135460300,-4,-29,-8,-1,24,8,-21,-6
1693678028137459400,-11,-14,8,-1,-7,13,17,-11
1693678028139458900,3,11,8,21,-1,-3,21,-21
1693678028155644700,0,3,3,7,33,6,-15,-12
1693678028158580000,-8,-8,-1,-15,-62,9,-19,56
1693678028160578100,7,-4,-3,-15,-14,-13,19,35
1693678028161577700,-23,-6,13,22,15,-4,5,8
1693678028169332000,-14,-9,-15,-27,-63,-1,-36,-37
1693678028171359900,-45,-62,-2,-21,87,2,22,-17
1693678028178543200,52,78,-1,11,-55,-13,-18,-13
1693678028180546500,-16,-28,-6,3,82,37,16,95
1693678028193486600,2,10,1,-6,-68,-19,-3,-59
1693678028196491800,13,8,-2,-6,-25,18,9,41
1693678028198495400,-20,-34,5,4,39,4,-5,-54
1693678028200494200,-19,8,12,21,-48,-21,-7,-72
1693678028215942200,10,3,-12,-34,19,9,-18,30
1693678028218956800,3,1,3,14,79,5,16,69
1693678028219957100,-21,-27,-10,-18,78,22,-22,-102
1693678028221954400,0,16,0,-14,-42,-38,12,62
1693678028230276700,-3,-9,-1,8,0,-6,-2,-8
1693678028232296500,12,15,2,13,41,-8,-6,-64
1693678028238269800,2,1,13,16,44,38,11,35
1693678028240273200,1,-5,-1,3,20,-22,-9,4
1693678028253483900,-2,1,-5,-3,7,-13,3,-1
1693678028256511300,4,15,3,10,14,15,-3,-44
1693678028257487100,6,-5,3,15,23,7,5,38
1693678028259491600,-15,-7,-1,-7,-43,2,-7,-28
1693678028276427500,0,-3,-7,-17,-46,-1,2,19
1693678028278438800,26,22,9,19,10,-8,0,22
1693678028280457200,-12,-21,-11,-39,-93,-23,-1,6
1693678028282454900,-10,2,7,17,78,34,-26,-63
1693678028289357100,2,3,-4,-9,-62,-10,9,28
1693678028291361400,3,6,2,20,60,8,-2,-19
1693678028297982000,4,-5,3,7,1,0,-8,46
1693678028300976100,-5,0,-1,0,-3,-18,0,-23
1693678028313579200,2,4,5,28,64,11,0,-10
1693678028315582800,5,-1,-3,-24,-36,-5,3,-21
1693678028317581800,-5,-2,3,14,-22,8,18,37
1693678028319581900,-1,6,2,-15,-10,2,-2,-21
1693678028336422100,2,-9,-8,-1,125,-10,2,24
1693678028338433300,1,9,9,14,28,3,-2,14
1693678028340432200,-5,-14,-23,-32,70,-9,-20,-36
1693678028341431500,1,2,7,10,52,10,-1,-9
1693678028349446800,12,11,12,26,53,19,24,51
1693678028351445000,-9,-6,-5,-24,-97,-27,-21,-17
1693678028358877900,-13,-2,5,5,-84,8,24,-67
1693678028360878000,-5,-5,-10,-5,17,-17,-6,-28
1693678028373481500,0,0,-1,-1,-67,-18,-5,-15
1693678028375487100,1,4,-2,3,76,37,-13,-15
1693678028377485400,10,0,8,-7,-24,-28,5,62
1693678028379483800,-7,-9,-8,9,-27,1,3,2
1693678028396421400,2,6,11,18,-1,32,3,13
1693678028399427400,2,-8,-18,-55,-55,-37,-14,-85
1693678028401426700,-6,0,5,48,41,25,15,76
1693678028403425500,4,-5,-9,-55,-85,-26,-22,75
1693678028410044400,-4,0,4,-7,12,-1,29,-10
1693678028411043500,-4,0,-1,17,33,29,7,12
1693678028418905400,6,4,5,8,-5,-7,-15,-88
1693678028419925400,0,8,12,10,-16,23,9,-46
1693678028433402100,3,-5,-6,15,43,-8,-17,59
1693678028436393700,1,-1,-1,-25,-84,-15,9,-10
1693678028438394100,0,1,-1,-1,-5,-14,17,-22
1693678028439391500,0,4,9,2,-84,-3,10,18
1693678028455940000,-1,-7,-15,-3,81,-4,-31,-56
1693678028457944000,-13,-1,4,18,56,10,7,-16
1693678028459967100,9,2,2,8,70,-2,9,61
1693678028461965600,-9,-3,-3,-5,8,-22,-16,-9
1693678028469332100,-1,1,-2,-36,41,10,3,-45
1693678028471360200,3,-3,1,27,93,0,-12,11
1693678028478491600,3,4,6,1,-12,16,0,33
1693678028480495500,-1,0,-1,19,-9,19,-6,-49
1693678028493482000,-6,-7,-8,-20,-66,-17,0,13
1693678028495510500,4,4,7,10,29,3,9,52
1693678028499485100,-8,-7,-9,-24,-14,17,-16,-51
1693678028502483700,4,3,-6,6,55,22,11,22
1693678028516422100,0,1,17,24,-33,-12,-4,4
1693678028518453700,-1,-2,-1,-11,-40,20,7,2
1693678028520452800,-3,-1,-4,-5,14,-72,-17,-47
1693678028521450900,-1,-4,-8,-27,-29,9,-1,36
1693678028529973400,-2,-5,-8,0,25,3,3,19
1693678028532002900,3,0,0,-4,-84,-7,1,-23
1693678028538975800,0,-4,-5,3,32,12,-4,14
1693678028539998800,1,1,7,19,28,2,4,-1
1693678028553578500,-3,-3,-16,-20,-27,17,-1,-25
1693678028555582000,3,6,25,-4,-9,-14,2,23
1693678028557580800,-3,-9,-37,0,23,8,-9,-6
1693678028559580700,3,5,38,15,-2,1,6,1
1693678028576426400,-1,0,-10,15,111,15,1,-6
1693678028578457400,-2,-5,-7,-23,-55,-12,-8,-4
1693678028581435200,2,4,14,31,23,-17,2,10
1693678028582434300,-4,-10,-30,-36,9,-44,-19,-14
1693678028589332300,-4,-5,-6,11,26,-2,7,7
1693678028591342600,-1,0,-22,-4,9,-1,11,4
1693678028605494700,1,-3,-4,-29,-23,14,-1,-5
1693678028607511000,5,5,12,48,7,15,1,9
1693678028613483000,-2,11,48,8,-67,-17,-11,-12
1693678028615494800,-7,-18,-35,-27,-33,-20,0,1
1693678028619945800,-4,-2,-5,-16,-11,12,-2,-2
1693678028620965900,-3,-19,-71,-59,21,4,13,2
1693678028635432900,14,27,80,51,16,20,1,11
1693678028637451500,5,18,33,24,-30,-1,34,-5
1693678028642424600,-1,-4,-7,3,46,-19,-13,7
1693678028643425000,-2,-1,-7,-12,3,15,6,-6
1693678028658549600,-9,-20,-55,-41,-41,-34,-67,-14
1693678028660552800,0,-1,-20,-32,36,12,21,6
1693678028663571800,1,9,27,23,-58,-12,-46,-3
1693678028664569500,5,11,30,-14,-25,5,27,11
1693678028673381500,-3,2,6,27,24,6,29,-5
1693678028674381100,-2,-3,-5,14,26,13,-17,1
1693678028679781300,-1,-6,-22,-39,-5,9,27,7
1693678028681783900,4,-1,-10,9,19,23,19,-5
1693678028696945000,-4,-4,3,-30,-43,-42,-18,-5
1693678028699944200,-2,3,26,0,-23,23,-28,0
1693678028701947200,31,10,19,56,95,-1,25,16
1693678028702946300,-10,5,16,-1,-87,0,29,-1
1693678028718913000,-19,-9,-16,-15,1,35,35,-1
1693678028721935200,-11,-8,-32,-44,-7,-31,-60,-26
1693678028722933300,-8,-4,6,8,4,-16,17,2
1693678028724932300,33,6,7,27,39,2,20,14
1693678028733195600,11,1,-15,-13,-7,29,-36,-16
1693678028735195400,-24,-5,5,23,34,11,93,9
1693678028739333300,1,-2,-2,-19,-57,3,-97,2
1693678028741361600,-39,-19,-5,10,63,-37,24,-27
1693678028756426400,18,7,-5,-1,-44,-20,19,24
1693678028758460400,17,7,-3,-13,17,74,30,22
1693678028760458100,45,17,20,96,19,53,-8,9
1693678028761457700,-45,-31,-16,-37,-6,-61,-66,-56
1693678028779014500,-28,-7,-15,-23,52,-17,-32,-3
1693678028782018400,13,11,14,29,18,-13,34,19
1693678028784017300,52,15,-9,-34,19,50,70,54
1693678028785016800,-44,-10,-11,21,-65,-50,-111,-51
1693678028792581300,15,8,35,11,-28,24,53,-13
1693678028794600200,4,-18,-26,-15,-6,41,19,-10
1693678028800577400,-39,-14,-3,-11,-39,-55,59,-20
1693678028802595000,35,19,4,-41,22,-52,-119,44
1693678028816421200,35,5,5,61,18,8,105,18
1693678028818450000,24,-3,-16,-46,15,47,12,11
1693678028820448700,-87,-20,-4,7,-4,-43,-69,-64
1693678028821447700,34,11,28,-57,6,94,82,27
1693678028838178000,-91,-1,20,-20,61,-13,-24,-23
1693678028841182000,23,-6,6,46,-65,-86,-92,-27
1693678028843180900,14,-9,-57,-30,-10,11,-40,-13
1693678028844179900,44,18,15,-10,14,104,87,72
1693678028851644600,-28,-26,-52,68,-54,-39,-33,-25
1693678028853602900,-17,-18,-17,-32,-63,-33,34,-9
1693678028861441100,69,23,13,33,42,83,85,74
1693678028863464700,-41,10,66,81,-13,-75,-38,-53
1693678028875599400,-14,-36,-31,-48,-52,-3,-23,-13
1693678028878575100,-22,7,9,-7,78,62,34,3
1693678028881572400,67,-4,-15,-72,-67,-80,103,36
1693678028884576100,5,24,-26,18,127,127,127,67
1693678028899561400,-41,1,70,-28,-37,20,-118,-76
1693678028902561200,-36,-17,1,-7,84,-72,-12,-36
1693678028904559500,8,18,32,82,94,115,77,23
1693678028906563300,66,12,18,4,-38,-18,45,25
