timestamp,EMG_s0,EMG_s1,EMG_s2,EMG_s3,EMG_s4,EMG_s5,EMG_s6,EMG_s7
1694670127476425100,6,34,39,-5,-10,7,1,2
1694670127488419100,-11,-35,-66,-14,2,-19,-11,-12
1694670127489418400,-3,0,3,7,-7,-3,1,-1
1694670127490417500,7,25,53,4,1,10,7,9
1694670127491416800,-9,-25,-46,-5,-1,-10,-5,-6
1694670127492415600,0,-5,-4,-1,22,10,-1,0
1694670127493417600,5,25,43,-8,-29,-6,0,6
1694670127495415600,-1,-4,-17,19,19,3,2,-2
1694670127497413400,-7,-24,-42,-14,2,-16,-3,-7
1694670127498413100,4,25,69,18,12,14,5,5
1694670127499411400,-1,4,-3,-11,-17,-1,-2,0
1694670127500411400,-4,-21,-41,-17,-16,-33,-12,-7
1694670127504410100,7,11,24,18,15,30,12,8
1694670127506408000,4,19,28,-15,7,-7,-5,0
1694670127508406700,-8,-22,-40,8,-29,-24,-9,-9
1694670127509407200,2,0,2,-10,44,15,4,3
1694670127524238100,2,11,19,-3,-26,-13,-1,3
1694670127527234700,4,6,4,8,-8,13,8,4
1694670127539884000,-1,-10,-14,-5,37,12,-3,-3
1694670127541884300,-6,0,10,-21,-58,-32,-18,-6
1694670127555844900,6,17,16,22,18,15,11,6
1694670127557870700,-8,-24,-17,-1,50,9,2,-1
1694670127586209800,24,41,86,20,52,56,19,17
1694670127587207900,-3,-13,-42,-18,-4,-18,-8,-4
1694670127588209300,-8,-19,-44,-10,-6,-11,-6,-9
1694670127590205800,-5,16,44,1,-11,-2,-1,4
1694670127592204900,9,5,-3,-10,-28,-19,-4,1
1694670127593227900,-9,-19,-34,3,18,0,-6,-10
1694670127599232900,-1,15,33,-1,5,4,-1,9
1694670127601201800,3,3,20,-8,-18,-3,0,-15
1694670127602222500,-22,-56,-80,-6,-4,-13,-4,-1
1694670127603198600,5,17,50,7,8,4,0,-5
1694670127607197100,20,20,39,-6,-10,3,2,20
1694670127609198000,-21,-12,-38,3,9,-2,-9,-25
1694670127613197200,-8,-8,-23,-4,-12,-9,-2,-2
1694670127614193600,0,-40,12,-8,-13,7,-5,-5
1694670127628213500,-14,24,-11,-1,1,5,16,-15
1694670127630229900,39,-20,-24,-1,9,-4,0,51
1694670127635211700,-13,94,25,4,10,-3,-4,-20
1694670127638212100,-4,-18,-1,4,-8,6,7,18
1694670127660266400,3,15,-7,5,8,-1,-11,-12
1694670127662265000,-32,-2,-3,-3,1,1,3,-28
1694670127663263600,22,-27,12,0,-3,-5,-12,-25
1694670127664263300,-17,-2,3,-2,2,-10,-6,-2
1694670127673531700,-28,-25,-6,8,-6,5,-1,-12
1694670127675535800,74,43,3,7,5,3,7,47
1694670127676533200,-23,-29,-4,-6,-2,2,-10,-1
1694670127677532700,28,65,13,-3,6,4,16,22
1694670127697276600,-13,-51,-13,1,-12,-17,-8,-24
1694670127698298000,-8,-33,-10,4,19,18,6,8
1694670127699291200,-43,-5,1,-9,-5,-2,3,1
1694670127700295400,53,50,5,2,-1,4,2,36
1694670127710312500,-65,22,-8,-1,-3,-6,-2,-25
1694670127712284100,17,41,4,-2,1,0,4,-7
1694670127719332600,-58,-66,-16,9,9,-5,18,16
1694670127721330800,-38,-13,-6,-8,-17,-6,-21,-43
1694670127733311000,52,7,-13,4,12,1,7,-22
1694670127737312700,0,-35,14,-7,-6,1,-2,58
1694670127739313700,19,36,-2,1,-13,-6,-7,27
1694670127740334800,-39,-17,-4,13,6,0,22,5
1694670127756103200,-35,-9,31,7,8,1,-28,-27
1694670127758116200,38,17,-47,-17,-7,-2,11,15
1694670127760104700,127,51,15,-9,-11,-8,6,-43
1694670127761106100,66,22,-13,-7,-5,-14,-18,30
1694670127779268400,9,21,10,-5,-13,-4,-3,20
1694670127781273500,-19,-26,-3,1,-7,-12,-11,-65
1694670127783892700,-5,-11,6,22,27,-4,-4,21
1694670127784916500,-25,17,-8,-16,-15,4,-5,-68
1694670127793576000,107,9,-19,-8,9,18,25,47
1694670127795612600,53,-7,17,6,-9,-12,-3,43
1694670127796611500,6,2,-17,-16,-16,12,11,48
1694670127797589900,-66,-22,19,27,34,1,9,-76
1694670127815983000,30,-29,-14,-25,-19,21,10,105
1694670127818014000,-53,-29,16,-13,-28,-18,-30,-20
1694670127819018800,-26,55,11,10,9,3,-1,6
1694670127819995200,54,-11,-27,3,17,-2,-6,24
1694670127839209100,-34,9,0,-8,-8,-12,-8,18
1694670127841175800,-104,-8,13,36,14,7,4,-85
1694670127842192800,50,-28,-3,-13,12,18,11,27
1694670127843200100,-81,18,16,21,-12,-32,-44,-12
1694670127854168600,87,-31,2,26,32,1,-6,-55
1694670127855170500,-31,11,-18,-59,-37,-28,-16,-55
1694670127857167800,-17,26,2,43,-3,-12,9,57
1694670127858166900,-24,-32,-19,-29,4,12,5,-23
1694670127876051300,-76,5,6,-21,-25,-11,-4,-35
1694670127878084700,19,-39,10,69,66,8,-6,-1
1694670127880069100,-41,-24,-29,-51,-53,-25,-11,-69
1694670127881065000,27,2,11,41,10,-5,-14,6
1694670127899226600,-50,-5,2,0,37,4,-4,-43
1694670127901204000,28,41,11,-19,22,30,27,56
1694670127902202300,-6,-18,-7,27,-12,-14,-22,-33
1694670127904201200,15,22,9,-25,7,28,32,40
1694670127913290300,19,3,10,45,6,-2,-9,-5
1694670127915289400,-21,6,-4,11,-12,-10,-8,-2
1694670127916285700,-1,-17,-29,-43,22,24,7,-4
1694670127917309000,51,-5,26,-26,-19,4,16,83
1694670127937198900,-21,-28,-9,45,-12,-14,2,-7
1694670127938222300,0,6,-24,-66,28,9,-3,1
1694670127939197700,-7,15,31,14,14,22,13,29
1694670127941196800,16,-18,2,25,-10,-13,-14,-39
1694670127959278100,-56,19,-19,-44,32,43,24,21
1694670127961277500,83,13,11,-7,-65,-55,-16,10
1694670127962277000,5,-32,9,1,-68,0,18,-11
1694670127963277100,-9,-3,-23,6,-17,-16,4,16
1694670127973302200,10,15,29,-2,4,-19,-1,10
1694670127975299500,-5,7,10,-45,-71,-31,-4,-6
1694670127981138200,-19,-12,10,114,43,-5,-14,-12
1694670127983150800,21,-3,-32,-109,-3,60,24,19
1694670127996235800,20,0,9,-77,-83,-26,0,53
1694670127998241400,-45,-20,11,-96,-113,-71,-36,-33
1694670127999240000,5,-21,-14,-10,74,-7,3,-3
1694670128000246100,-17,33,42,111,103,83,19,-14
1694670128027254400,16,9,18,18,-13,-19,-9,31
1694670128029259600,4,-2,-53,-83,-76,-25,-8,-14
1694670128030259000,3,18,46,81,45,11,-1,-16
1694670128031257900,-17,-21,29,-3,-99,-57,-21,-19
1694670128033254300,-3,-16,-27,124,108,101,44,1
1694670128034258300,27,30,-19,12,127,127,42,46
1694670128042188100,-25,-24,-1,-95,-105,-107,-55,-35
1694670128043193600,8,-12,-128,73,47,-11,8,9
1694670128056080400,5,17,-27,76,36,22,10,-8
1694670128058097200,-7,2,80,127,97,92,35,14
1694670128059096000,8,8,-31,-105,-70,-25,-17,3
1694670128060073600,-3,10,-4,-128,-2,-15,-11,-1
1694670128079272900,-7,-30,70,-128,-104,-91,-42,-22
1694670128081277000,-25,-12,3,99,-43,-13,2,-9
1694670128082292900,17,-4,-60,93,-9,27,21,11
1694670128083297300,6,9,127,-40,-40,19,-2,-4
1694670128093225600,7,23,11,-41,-46,-85,-32,3
1694670128094226100,-16,3,-23,34,-20,17,-2,-27
1694670128108240000,10,-11,11,18,14,-21,22,16
1694670128110245600,-5,5,28,-12,47,-16,-22,-8
1694670128116321400,-5,-34,36,105,75,71,24,-13
1694670128118318400,7,6,-1,-54,33,31,22,30
1694670128121326200,-14,10,54,-84,-11,-19,-26,-35
1694670128122338200,16,13,-6,-46,55,16,10,-7
1694670128139292000,-26,-74,-29,-93,-128,-97,-39,-14
1694670128141297000,-11,8,-40,29,-14,-26,-21,-11
1694670128142317500,20,44,17,13,84,92,35,29
1694670128144310800,-8,-25,-72,73,-122,-60,-6,-3
1694670128170287400,11,29,-19,55,60,28,1,-4
1694670128172288600,-10,-7,25,-89,42,-18,-9,-12
1694670128173288000,-7,-42,-60,45,-100,-58,-15,-4
1694670128174287100,-10,15,-4,16,-84,-17,-11,-9
1694670128176282200,2,-10,3,-19,-104,-31,6,-26
1694670128177282100,21,34,-11,57,83,50,23,16
1694670128178284300,-14,-6,-4,-128,11,-6,-35,-23
1694670128179283700,-16,-34,61,76,-90,-77,-16,5
1694670128200098200,11,25,-9,48,-41,39,29,5
1694670128201098000,-16,-43,-20,-127,24,-35,-30,-11
1694670128202096800,15,45,25,72,13,40,25,7
1694670128204095800,13,-31,-7,-8,49,16,9,38
1694670128213219900,3,6,-94,-84,-58,-23,-18,-33
1694670128215219100,-22,-4,1,-90,71,-47,-32,-21
1694670128221300500,17,23,25,98,-11,80,37,7
1694670128223302400,-12,-7,15,-97,81,13,-2,-6
1694670128236230700,12,33,7,-60,82,16,-8,1
1694670128239254000,-8,-18,50,-6,-51,-23,-7,5
1694670128240227800,-12,-12,4,-8,35,-21,-20,-12
1694670128241250900,2,13,-31,102,24,37,19,-9
1694670128259266000,4,-6,0,-88,76,-4,-10,-11
1694670128261270300,-1,0,3,62,1,-4,14,13
1694670128263269600,-2,-9,7,-17,127,37,7,12
1694670128265267600,2,-3,-7,-48,-13,2,2,4
1694670128273400000,-16,-28,6,-96,127,-13,-23,0
1694670128274418800,37,36,24,126,7,78,58,27
1694670128280926200,-15,-44,-10,-60,-20,-37,-15,-6
1694670128282925700,-15,2,-39,-76,18,-28,-19,-14
1694670128296024300,5,5,13,114,26,51,8,9
1694670128298021000,-7,6,-18,-31,7,-7,-6,-5
1694670128304017700,1,-9,-7,-20,-20,8,-3,-10
1694670128306015900,1,14,2,-88,-2,6,-6,1
1694670128319255700,10,-3,48,82,54,17,18,-4
1694670128323256700,-19,3,-3,6,-50,-34,-11,-8
1694670128324256500,6,11,8,-5,25,-8,-15,12
1694670128326259700,5,-6,32,38,-27,38,32,9
1694670128333250900,16,20,3,-32,50,25,20,14
1694670128334250400,1,17,78,-43,54,-8,-15,1
1694670128341844900,-9,8,18,-23,-54,-29,-13,-17
1694670128344866900,8,11,7,27,-103,-1,11,-3
1694670128356301500,-9,-11,-16,-38,61,12,-3,15
1694670128359299200,13,-15,-4,92,-49,3,16,13
1694670128361301400,-9,-22,-72,62,-110,-24,12,5
1694670128362300300,-8,0,3,-38,93,-12,-20,-6
1694670128378989500,9,14,17,68,-83,57,33,9
1694670128380960000,-4,-14,-25,-63,37,-15,-5,-5
1694670128381979400,-5,1,14,-79,31,-34,-13,-13
1694670128383664100,11,5,-87,61,50,31,12,4
1694670128393264300,-5,-25,-3,-46,-8,-17,-14,2
1694670128395261700,-3,0,-7,-5,11,-13,-3,-13
1694670128401081300,-10,-3,0,22,-43,20,1,8
1694670128403097200,2,5,9,-26,23,-13,-10,-22
1694670128416151100,-2,-8,5,-28,3,-43,8,8
1694670128418170800,-1,8,-18,8,48,8,-5,-6
1694670128419169600,1,-38,-20,-20,96,32,5,3
1694670128420145700,-7,-11,28,-18,-40,-13,-17,-2
1694670128439232400,-11,15,-8,2,-49,-19,-13,-13
1694670128442231300,4,-20,-25,11,-72,-16,-7,4
1694670128443231200,9,35,13,-9,3,22,15,2
1694670128444247600,-11,-20,24,13,25,9,8,1
1694670128454152200,-1,-17,9,-1,-17,-1,7,5
1694670128457149400,8,33,9,5,-13,0,6,-5
1694670128461146700,-2,-21,36,-19,25,7,-3,-5
1694670128463149500,0,-38,7,13,-1,2,4,5
1694670128476139300,-6,62,-13,10,-16,-11,-3,-18
1694670128478144300,-13,-49,-26,-21,-8,-12,-13,3
1694670128480138500,-15,-5,1,-8,-9,-1,4,-19
1694670128482159200,21,23,-15,7,2,24,9,5
1694670128499127000,7,31,4,4,-11,-13,1,9
1694670128501124300,-9,-24,-11,-6,-12,-2,-8,-6
1694670128505128700,-3,-15,30,5,17,1,8,1
1694670128507121600,2,8,10,14,11,-3,-3,7
1694670128522198600,6,-5,18,-3,6,2,-17,-5
1694670128524206200,17,26,10,5,-7,12,21,4
1694670128525210500,-13,2,-61,-12,3,-6,-15,-28
1694670128525210500,39,56,14,-1,4,-17,-9,16
1694670128536183000,-27,7,-7,5,-17,-14,-13,-59
1694670128539178900,-37,-62,-5,3,-8,14,20,95
1694670128541178400,35,52,5,11,1,-6,-2,-30
1694670128542179200,37,-14,-18,-3,14,7,12,12
1694670128567116500,-19,-1,-15,-7,0,3,2,-12
1694670128569121900,30,31,12,1,-4,-3,-28,-74
1694670128571116700,-35,-80,-19,0,5,1,-2,111
1694670128572113700,6,-19,-5,-10,-9,-10,-9,-38
1694670128582229100,-30,30,32,7,-6,1,10,12
1694670128585229400,13,-38,-30,-7,-1,-7,-10,10
1694670128587224400,67,97,38,-3,-2,-10,-15,-48
1694670128588226100,-27,-68,-32,-2,-12,-12,4,67
1694670128604146100,-45,-5,-15,2,12,11,8,-13
1694670128606143500,-23,27,4,-5,-11,-2,-11,-27
1694670128607142500,-56,-34,17,5,-3,-3,-4,-40
1694670128608141800,6,5,-1,-9,-4,-5,-20,-25
1694670128618138400,13,-41,-2,-5,-2,-6,17,19
1694670128619138900,4,17,5,5,-1,6,-10,67
1694670128627259000,56,28,-22,-3,2,-5,3,-16
1694670128628259000,-34,-37,10,6,-4,-8,-3,-31
1694670128642077200,11,-23,3,-2,6,5,4,-9
1694670128644081100,-11,48,-4,4,-15,-5,6,23
1694670128645083000,-13,-21,-12,-2,5,7,0,8
1694670128648082000,-97,-36,7,-5,-3,5,29,13
1694670128665068900,95,37,14,-5,-12,-6,-47,-31
1694670128666076500,-75,-18,-19,6,12,5,20,23
1694670128667067900,-9,42,2,-4,-6,-10,-14,7
1694670128668067000,29,-5,21,3,3,7,-18,-11
1694670128678061800,-47,-1,-39,-2,-1,-5,-2,18
1694670128680060000,-65,-38,-17,-6,2,-14,-20,-17
1694670128688057400,41,-23,17,-10,-16,-3,8,0
1694670128690057600,14,41,-11,3,10,7,-7,-34
1694670128702046900,-2,-53,-16,-7,-18,-15,-14,-14
1694670128704046300,62,-1,35,10,10,13,20,62
1694670128706044800,-64,-9,8,-2,5,8,0,-6
1694670128707044000,-63,40,-13,1,3,-10,5,-3
1694670128724149900,84,4,4,0,1,-4,-13,56
1694670128726149800,68,-25,11,0,2,-6,35,-1
1694670128730149500,-1,42,-6,6,0,7,6,41
1694670128732146300,-66,-59,-41,-18,-22,0,0,30
1694670128738141600,-76,-4,10,2,-2,-6,-13,-41
1694670128739165200,-30,-5,12,5,9,1,3,-49
1694670128746812000,-23,-28,-15,5,2,-6,7,-14
1694670128747812400,21,40,19,-4,5,-5,-30,-25
1694670128761067200,34,-8,9,18,12,16,22,-18
1694670128763073300,-11,17,-17,-12,-18,-7,-13,-49
1694670128767926500,31,-20,9,3,11,-7,-18,-54
1694670128769959500,21,-3,-4,-6,-4,-8,10,19
1694670128784191100,16,-24,-30,-12,-15,1,-33,-11
1694670128786192600,25,20,16,19,24,13,9,-19
1694670128788215900,-15,-4,-31,-18,-34,5,-10,-76
1694670128789214800,14,78,12,-5,-7,-17,-6,12
1694670128797877000,82,21,5,8,36,20,75,-1
1694670128799909600,-89,-23,-11,2,-11,-4,-53,-10
1694670128806889600,-74,16,19,7,-2,-6,-11,40
1694670128809884400,25,1,-7,9,23,25,45,63
1694670128829268500,8,-14,3,11,5,4,-11,57
1694670128831272400,-43,-18,-6,-12,-11,-9,-19,-101
1694670128832271200,22,19,4,-11,10,-16,21,46
1694670128833270300,19,15,20,12,-4,-2,-9,-20
1694670128844262500,-25,13,11,-9,-19,-2,-12,-10
1694670128846266500,51,34,-9,-20,-13,-8,-2,33
1694670128847287400,-63,-16,-16,-6,-10,-9,-11,-17
1694670128848287500,-17,-10,-12,-35,-15,-15,-14,-29
1694670128858104300,-43,-65,2,48,40,-2,2,-27
1694670128859125100,16,5,-9,-36,-27,-5,3,-3
1694670128867095900,37,10,-10,-17,-21,1,6,13
1694670128868116600,-37,-19,-2,5,44,11,-6,-36
1694670128881893400,-38,-22,13,-15,-7,6,8,-39
1694670128883893400,57,30,-1,-46,-18,-7,-16,-46
1694670128885401200,37,28,21,72,63,13,11,38
1694670128888399500,15,-23,7,-29,-23,10,10,1
1694670128903956500,4,31,29,50,21,9,-1,35
1694670128905957800,3,-33,-21,-17,0,1,18,-30
1694670128912085900,6,-32,13,-1,-1,-6,-7,4
1694670128913105100,4,20,32,34,-24,-5,-3,-14
1694670128918083300,33,70,9,-28,11,-10,-2,15
1694670128922082900,8,31,33,44,41,33,23,35
1694670128927197500,2,0,26,-2,3,9,8,6
1694670128928198000,2,-55,2,13,-51,-50,-16,31
1694670128942192500,-13,23,-33,-65,21,-6,-10,4
1694670128944190600,0,-2,48,-7,11,4,24,41
1694670128945189600,25,2,14,-35,-3,14,4,13
1694670128946189100,-27,-20,-37,38,3,-24,-22,-36
1694670128964111600,-9,3,3,95,-74,-7,9,-11
1694670128967079700,6,-10,15,-18,-24,9,-11,-36
1694670128969078500,-30,-8,-52,-32,-36,-15,-12,-56
1694670128971075400,23,0,-16,-66,-27,-5,4,-7
1694670128978074800,-12,15,27,61,33,11,9,25
1694670128979091900,14,13,-40,86,112,10,2,14
1694670128987065900,-12,-29,-4,-81,-107,-26,-3,-8
1694670128989088500,13,56,75,-32,-5,4,-2,-10
1694670129002199900,-9,-84,-45,-128,-77,-22,-14,28
1694670129004198200,-21,-5,-12,67,-20,-24,0,-12
1694670129006198000,37,27,108,13,127,91,31,48
1694670129007196400,-3,-3,9,-80,-56,-39,-22,-13
1694670129024226300,-7,4,-42,80,73,69,29,19
1694670129026241800,-14,-20,-20,-128,-122,-90,-44,-2
1694670129027251000,19,-5,-8,127,84,17,41,50
1694670129028255900,31,27,-86,-44,62,48,15,2
1694670129039322600,-32,-49,10,-31,-105,-97,-45,3
1694670129040324800,12,-3,34,27,64,33,11,1
1694670129047320200,0,32,-87,-86,-68,-56,-31,-15
1694670129049319500,-6,-27,5,127,34,38,30,12
1694670129061240700,-1,25,68,19,-89,1,-3,-8
1694670129065230400,-27,-40,7,-12,-22,-53,-29,-19
1694670129068224000,-8,-27,-17,-21,93,16,2,-9
1694670129069242400,11,6,25,-111,-80,-65,-18,7
1694670129092085600,-8,16,0,77,107,31,13,-34
1694670129094093600,13,-2,-54,-52,-19,45,30,54
1694670129096091000,9,-13,6,-46,15,0,-1,-23
1694670129097089800,-9,2,16,-48,-33,-42,-19,-11
1694670129107261400,25,29,-25,33,112,85,45,22
1694670129108284600,-9,5,7,-44,-118,-28,-11,-8
1694670129111265700,14,19,45,106,-27,25,46,56
1694670129113266100,9,16,2,-52,4,-11,-26,-37
1694670129121795500,-3,-34,-9,7,-114,-51,-6,12
1694670129123811600,13,35,-5,-42,84,23,6,0
1694670129137231400,-23,-12,-3,62,-128,-31,-21,-22
1694670129139229300,-19,-34,-30,-4,18,18,-10,-12
1694670129144226300,11,17,24,33,-9,34,32,20
1694670129146223400,14,13,14,35,72,14,5,-4
1694670129147245500,-18,-29,-8,-64,11,-36,-31,-28
1694670129148245000,3,9,3,-15,127,55,17,15
1694670129158181300,-18,-19,-3,-128,-78,-86,-32,-20
1694670129160161500,19,26,4,104,89,58,29,20
1694670129167142900,-7,-24,-10,-89,-26,-19,-14,22
1694670129168164100,19,20,70,43,103,62,37,-13
1694670129181101600,-11,-4,-5,-26,28,-21,-29,-11
1694670129183050200,-11,-18,-8,-1,-59,-12,-1,-14
1694670129188294200,4,1,15,96,116,38,15,1
1694670129191292100,-16,-2,-14,-37,-74,-33,-26,-12
1694670129205283500,9,-5,12,108,9,25,16,11
1694670129207281600,-16,3,10,-79,-18,1,-11,-12
1694670129210279800,-5,-10,-18,82,-63,-59,-18,-13
1694670129212282500,-13,-36,-7,17,-79,-7,4,7
1694670129227270000,7,22,-13,-30,98,32,13,5
1694670129229272200,1,1,21,-13,-26,-17,-16,-8
1694670129230269400,-6,10,6,-128,-24,-10,-18,-4
1694670129232270100,0,10,-16,86,13,-8,10,13
1694670129241263400,-6,-32,-13,-86,8,-32,-27,-6
1694670129243261700,13,6,7,113,58,67,29,16
1694670129247901600,0,-2,-57,4,-70,-24,-5,-13
1694670129249918500,0,-7,-8,-34,-19,-12,-5,4
1694670129264207700,-13,12,8,18,-66,-3,4,5
1694670129266210700,-5,-25,-34,-112,77,-45,-31,-14
1694670129267212400,3,6,7,-111,124,35,-14,-10
1694670129268232100,42,42,99,127,54,106,76,47
1694670129287269400,-16,0,0,-111,-24,-15,-17,-18
1694670129289291300,-9,0,-4,-96,59,-23,-31,0
1694670129290290600,8,-27,96,102,-88,-25,40,14
1694670129291289800,-15,-18,-21,-31,115,-46,-27,-7
1694670129302270000,16,54,-25,-125,127,8,-10,-1
1694670129305267200,6,-17,16,60,-6,36,29,8
1694670129315260600,-3,6,0,-17,46,-10,-19,4
1694670129318261300,-25,-55,-27,-1,-23,-23,-25,-25
1694670129324258300,26,27,5,96,36,-8,38,60
1694670129326255100,10,36,-35,52,92,23,11,6
1694670129328254000,8,-2,-15,36,-33,32,18,3
1694670129329253200,-11,-16,-20,-95,77,17,-13,-2
1694670129347243600,4,14,-1,59,-86,-14,-4,-8
1694670129348243900,-6,-28,14,47,-104,-43,-10,-11
1694670129352242200,-25,-29,-28,-104,102,-18,-41,-16
1694670129354239900,6,12,-14,-1,-14,-3,-14,2
1694670129361234900,23,6,5,27,-18,56,57,17
1694670129362234400,20,34,44,80,17,77,35,22
1694670129368230300,4,30,-7,-70,15,15,-4,-16
1694670129370230600,-1,14,-11,48,-34,-42,-19,-5
1694670129385221000,-27,-65,3,-73,-31,-51,-41,-31
1694670129387221000,-17,-7,-3,-55,-72,-33,-10,-11
1694670129389220800,-1,25,6,-16,-4,-12,-9,-11
1694670129390219800,20,-60,1,68,-112,3,39,-6
1694670129406209000,-10,35,84,26,91,11,-7,-6
1694670129407209800,-2,6,18,-33,-21,1,6,-8
1694670129414204800,2,-37,10,60,94,26,0,34
1694670129416204700,5,64,-8,-46,96,9,-10,-37
1694670129422200100,-5,-34,-12,32,23,16,3,-3
1694670129423200900,-16,-22,-12,-116,45,-45,-26,-15
1694670129428257900,16,41,-1,113,-1,21,25,7
1694670129429257100,3,8,3,-31,-42,60,39,30
1694670129444022500,1,6,-40,-87,39,8,-18,-5
1694670129447019800,3,-4,0,-23,6,-15,-8,5
1694670129449020400,-3,-2,-36,-67,-41,-21,-8,-8
1694670129450019100,-4,11,-4,7,32,-10,-1,13
1694670129467255300,-6,-1,-13,4,-98,-14,-1,-9
1694670129468259700,-5,-21,-29,18,-59,-58,-5,2
1694670129470257900,14,29,-3,-81,16,12,6,-2
1694670129471257200,-14,-17,32,15,42,-15,-16,-5
1694670129480252700,1,-1,-11,-34,13,-10,-7,-1
1694670129482250600,-13,-63,2,5,47,-21,-14,-9
1694670129489246900,4,56,3,33,40,17,13,-1
1694670129491246800,-5,1,-12,-18,-30,-6,-3,4
1694670129505238900,7,6,-33,18,8,5,-5,3
1694670129507238300,-2,-19,8,45,-40,42,25,10
1694670129508237700,2,-8,-7,-17,-5,-10,-7,-6
1694670129509237100,2,-6,32,7,-37,4,6,12
1694670129527226400,-9,-17,-3,-33,-4,-13,-7,-8
1694670129529227100,0,5,-30,-35,-6,-3,-6,0
1694670129531222700,-9,-7,-3,-8,-50,-34,2,-9
1694670129532222300,17,30,-18,9,-20,-2,-7,13
1694670129540233800,-11,-7,-12,-9,9,-2,-5,-14
1694670129543216200,14,16,-8,-8,17,-3,1,3
1694670129549215200,-19,-40,101,35,-28,-1,-6,-11
1694670129551213200,67,35,-8,-4,24,-9,-7,1
1694670129564242800,-64,14,-5,2,30,6,0,4
1694670129566251100,-11,-82,23,27,-15,17,6,-30
1694670129567262100,69,36,-26,-1,8,0,-2,22
1694670129568245800,-28,-33,-18,5,6,-2,-7,-32
1694670129587257300,-4,-10,12,-27,4,-7,-26,-25
1694670129589260700,48,24,19,14,1,3,10,-27
1694670129592258100,-92,-81,-31,-8,-18,-7,-1,35
1694670129593259700,-22,33,1,-3,10,-4,-12,-31
1694670129600328400,-68,-79,48,8,5,-7,-28,0
1694670129602305200,105,127,21,15,13,12,4,-17
1694670129625282900,-78,-113,-75,-24,-4,-1,13,50
1694670129626282600,78,84,16,-15,-16,-4,-19,-86
1694670129627281900,-37,41,-13,3,19,6,-20,110
1694670129628281500,45,58,12,-23,-13,-3,46,91
1694670129629280600,79,-56,8,-1,7,31,18,103
1694670129630279900,-98,-33,-23,1,4,-12,15,-51
1694670129647348900,3,47,5,7,15,26,-33,-58
1694670129649353500,80,-32,12,5,3,5,49,56
1694670129650351000,-12,58,-19,-4,-33,-42,-49,-128
1694670129651350100,30,36,77,30,20,14,20,70
1694670129660876800,88,-10,-21,-30,-10,-17,17,-123
1694670129661912600,26,1,-37,10,-8,-22,-15,108
1694670129669907600,-69,1,26,14,20,21,6,-107
1694670129672904500,-10,-33,-41,-12,6,-11,-16,-49
1694670129684271600,63,42,0,-12,-34,-9,17,-68
1694670129687271100,-118,-11,-1,18,13,8,-35,13
1694670129690292800,52,30,13,3,-1,10,-20,-92
1694670129691268400,-28,11,-42,-3,1,-6,20,79
1694670129706510400,68,-11,17,-2,0,-3,12,81
1694670129708261800,40,-53,-6,3,14,11,-3,-97
1694670129714278300,-73,20,-6,9,0,-5,22,35
1694670129716274500,-16,-81,-21,-9,19,-13,-26,-20
1694670129720806200,70,-4,8,11,-24,2,42,83
1694670129722829000,67,-5,10,-17,-13,-5,-34,35
1694670129729287400,-33,11,-50,10,15,2,-10,-7
1694670129730308800,127,39,7,-13,-16,17,4,13
1694670129744139100,-95,-54,-12,10,18,0,6,-33
1694670129746143400,-128,2,-28,-6,-2,-17,-48,-63
1694670129747163700,103,-52,11,4,2,18,56,31
1694670129748163000,59,13,-14,3,16,5,-5,40
1694670129767129800,-68,58,-14,-21,-42,-32,0,-31
1694670129770131800,-68,-12,-12,10,28,19,-26,6
1694670129771130000,-19,-31,0,-13,-10,-14,-11,-13
1694670129773130100,-70,-27,-28,-22,-15,1,-3,2
1694670129780138200,-21,-80,-15,21,41,24,21,-7
1694670129783120600,91,-27,-11,-6,-17,-14,13,-37
1694670129790131900,58,9,31,11,2,-1,0,19
1694670129791151800,-80,-18,-3,11,12,1,7,-5
1694670129804196400,74,12,6,-12,-19,-4,-21,12
1694670129807208300,-128,-37,-8,2,2,0,-8,-42
1694670129808207300,9,37,-2,-7,-3,6,15,13
1694670129809206500,91,-41,-4,-1,-10,-2,1,29
1694670129827255000,-45,-19,-3,24,44,10,3,24
1694670129829260700,2,18,10,-13,-17,-6,4,-58
1694670129830282100,-19,18,3,-4,-14,9,21,66
1694670129832258200,19,-18,3,2,-1,-4,-13,8
1694670129840211000,-35,-24,7,9,44,9,1,18
1694670129842200300,118,41,-1,-23,-43,3,1,-8
1694670129849249000,-9,27,6,21,14,-13,-32,-23
1694670129851249000,-120,-20,1,17,-7,5,2,-25
1694670129864236500,35,-58,-21,-15,-20,-3,10,34
1694670129866235800,-26,-4,-1,23,19,-17,-5,17
1694670129868237200,20,50,9,11,15,-5,-13,-10
1694670129870257900,-75,3,-9,-84,-56,5,9,-35
1694670129887223700,-17,28,-2,-4,-14,-9,-13,-21
1694670129889223100,-47,-7,-9,11,15,18,17,-2
1694670129890246300,12,-8,10,65,20,-30,-21,-8
1694670129891244900,-34,30,17,-14,25,27,11,3
1694670129900227200,-37,-11,-23,-4,-21,-9,-3,-2
1694670129902225100,-10,-7,-8,-12,20,16,3,10
1694670129909260800,-9,3,14,-13,-35,-25,-7,-5
1694670129911264700,23,16,9,7,-4,-9,-1,20
1694670129925255800,21,35,3,12,9,7,-4,-14
1694670129929253500,-13,5,25,0,-23,-8,9,7
1694670129931252800,-12,-7,-8,-58,-11,8,-5,-1
1694670129933250800,1,-16,-20,25,-9,-35,-9,-6
1694670129947326700,32,27,23,35,14,3,-11,-9
1694670129948347100,-6,-14,-3,-76,-31,-28,-10,-4
1694670129949345800,5,-2,-7,53,-36,29,15,4
1694670129950345600,16,-9,-6,6,65,-1,0,6
1694670129969258500,16,19,38,38,41,30,4,1
1694670129971270400,-23,-2,-31,-85,-71,-56,-18,-4
1694670129973255300,4,-7,-16,-65,28,37,15,7
1694670129975258000,9,30,99,106,-13,0,-3,0
1694670129985067500,-18,-23,-35,-90,-107,-49,-14,-12
1694670129987068000,9,15,-18,100,7,-10,0,7
1694670129989064200,7,-15,-63,4,44,60,23,8
1694670129991065700,9,-4,4,0,-15,9,4,6
1694670130014201800,5,-4,-95,-96,-36,5,-8,-8
1694670130016209100,-16,-29,-11,-31,-29,-34,-21,-10
1694670130017203300,21,33,29,-30,0,1,8,13
1694670130018202700,1,-3,-16,100,31,3,3,6
1694670130020218000,36,-19,10,-27,-28,-38,-8,-3
1694670130023200700,-23,4,55,-47,3,25,4,-6
1694670130029196300,4,18,-13,105,29,-8,-4,-1
1694670130031195200,-4,-7,-33,-120,16,19,15,16
1694670130044206100,-39,-20,-1,56,36,0,10,3
1694670130046187400,-13,-13,-4,1,24,26,-2,3
1694670130047186400,-45,6,42,17,-10,-26,-12,-32
1694670130048185600,116,0,-18,-72,-45,-11,-7,21
1694670130067255400,-63,-10,19,63,32,16,-3,-27
1694670130068259800,51,-3,22,24,22,0,13,14
1694670130070261100,-13,2,-10,-98,-33,-19,-15,-8
1694670130073256300,-25,-25,-29,27,-41,-12,-10,-13
1694670130080334200,3,20,17,45,69,45,14,3
1694670130082287400,14,18,-9,-38,-2,4,-5,-2
1694670130089265600,16,-26,-9,-23,9,3,-10,2
1694670130091269500,23,22,-5,55,13,15,6,-2
1694670130104211500,-23,21,4,-5,-24,-9,-7,5
1694670130106206600,11,-16,-3,-35,6,11,7,1
1694670130110202600,-17,21,-3,65,-16,-21,-14,-3
1694670130112200800,4,8,-21,17,10,9,0,-10
1694670130127030500,11,3,4,-28,-21,-7,-2,-4
1694670130129029200,10,12,-38,-35,-15,-6,-2,8
1694670130130029000,-8,3,-2,38,36,17,2,-7
1694670130131027900,-17,-18,-4,-85,-31,-45,-13,2
1694670130150239600,19,0,-54,30,19,54,24,10
1694670130154237300,10,16,-3,-5,9,5,1,-3
1694670130156237700,-3,-39,-12,24,-22,-18,-8,9
1694670130157236700,-54,-19,6,-25,1,3,-2,-16
1694670130163230900,-38,34,-1,-35,-3,-15,-3,29
1694670130164232400,-47,-61,-18,-23,31,7,9,-13
1694670130173053300,6,-6,-5,-75,-38,-8,-1,4
1694670130174076400,-5,7,11,14,15,-3,-8,-7
1694670130187190400,29,6,19,-6,23,9,4,-1
1694670130189190300,-11,3,5,42,24,11,3,0
1694670130191195300,-7,3,-16,-73,-73,-32,-13,-7
1694670130192211300,-9,-14,-1,65,45,-9,3,10
1694670130209295800,26,-6,13,-29,-26,3,2,-2
1694670130211298300,-4,19,10,127,-14,-5,20,5
1694670130212315600,20,-1,12,7,49,37,11,2
1694670130214297200,-1,7,-16,-36,-36,-26,-10,-5
1694670130224034000,11,-8,2,4,47,5,-10,-5
1694670130225057000,-5,7,-9,-19,-72,-47,-15,-6
1694670130231030100,-5,1,6,5,55,15,3,-1
1694670130233028400,-4,-8,5,28,25,37,8,6
1694670130247062900,9,3,29,22,-52,-39,11,1
1694670130249061900,-2,9,6,4,10,20,-6,-3
1694670130250085800,-8,-13,-3,-9,-6,-12,-9,-11
1694670130251084300,4,0,7,-20,-2,7,-1,4
1694670130269193600,21,12,3,-5,10,-3,-7,-2
1694670130271191500,0,17,-36,-9,-3,-4,-8,-4
1694670130273190900,-3,-2,3,-11,-71,-39,-3,-2
1694670130274190400,-1,9,19,28,101,65,18,4
1694670130283188500,-6,-33,-3,3,-66,-18,-7,-7
1694670130285185300,0,10,9,20,34,23,4,0
1694670130290255500,7,28,3,-3,-7,-10,-2,5
1694670130292276500,-2,-22,-3,-15,-39,-21,-5,-2
1694670130307245000,8,5,-7,-14,22,-7,-18,-2
1694670130309245500,-7,-13,12,3,43,21,19,4
1694670130311244500,13,9,16,21,-29,-8,12,5
1694670130313243600,-8,0,-11,-13,-15,-16,-6,-1
1694670130328976900,6,3,7,12,18,14,8,3
1694670130330961000,-5,-31,-38,-12,-6,-5,-13,0
1694670130331961000,-1,9,-6,-10,16,3,-6,1
1694670130332959500,20,18,-8,-3,-27,-24,1,-1
1694670130342953800,-6,11,69,0,7,1,-11,-4
1694670130345952000,15,-13,6,-2,-1,-24,-7,3
1694670130352316100,15,-14,12,11,23,28,5,-3
1694670130353313500,-19,-25,-4,-3,-3,23,-15,-2
1694670130367024700,-12,-33,-16,-2,-2,4,-9,-9
1694670130369026900,-10,36,19,5,-16,-12,-33,-40
1694670130371046700,17,-41,-10,-10,24,62,45,66
1694670130372045900,1,7,-6,7,-26,-43,-73,-30
1694670130390027700,-9,4,2,0,7,26,80,13
1694670130392028400,-16,18,18,15,3,-3,1,-53
1694670130394026700,-24,-48,-14,4,2,-10,-30,17
1694670130395026100,17,6,-33,-27,0,-12,-12,18
1694670130403171700,-1,39,58,38,5,13,14,-44
1694670130404188500,42,27,31,5,15,44,2,121
1694670130418159100,8,39,1,8,29,16,100,-111
1694670130419182600,-28,-56,6,-2,-17,-39,-58,117
1694670130427153700,6,-48,-19,6,-14,-40,-62,-26
1694670130428171100,9,20,20,2,0,5,-75,-39
1694670130429176500,9,95,26,-10,-16,-14,86,98
1694670130431152000,-25,-23,8,-1,6,40,-52,-99
1694670130457011200,28,19,-7,-1,-13,-46,-15,-52
1694670130458009600,33,-3,-5,15,23,9,12,60
1694670130465130900,1,-36,-33,-30,-20,22,0,-58
1694670130467131200,-9,49,-22,36,15,10,-8,-61
1694670130468128600,-71,-70,-34,-23,-2,8,-28,-51
1694670130469127900,-48,0,-22,-1,-8,7,19,-38
1694670130473124400,20,18,1,13,29,-3,-74,-79
1694670130474123800,-17,3,32,-21,-27,-13,60,4
1694670130486192600,21,33,-5,-3,-51,-29,-27,-46
1694670130489191200,39,7,20,4,30,7,44,63
1694670130494208600,-32,-40,-16,-79,13,-59,-53,38
1694670130496186700,8,10,34,64,-54,-49,41,-11
1694670130509336000,-19,-27,-29,-7,43,-17,-20,32
1694670130510337500,-35,-26,-14,-47,-67,-74,-21,-7
1694670130516983900,-10,3,24,52,47,44,-28,-46
1694670130518983700,38,15,-48,-21,40,53,49,21
1694670130523980300,8,1,-26,-93,-66,-39,-36,22
1694670130525003600,14,8,38,119,56,5,78,11
1694670130540130000,-12,-33,-37,1,-113,-72,-21,-12
1694670130541148600,15,11,2,45,-81,31,83,36
1694670130547242900,1,9,-9,41,126,50,9,12
1694670130549263400,-15,-11,-37,-128,-58,-22,-39,-44
1694670130551266100,-2,-15,-6,28,15,-39,-31,20
1694670130553236300,25,31,33,-14,75,73,72,22
1694670130570017500,32,43,12,58,-69,26,56,48
1694670130572036000,-19,-62,34,54,-53,-58,-10,-33
1694670130574034700,-22,-26,-10,-41,15,-49,-45,-3
1694670130575033100,-7,20,26,-82,-5,-30,-43,-19
1694670130583237400,-18,-28,-57,-79,-6,-68,-45,-27
1694670130586235300,28,33,7,81,52,65,73,36
1694670130592232000,8,12,-12,-75,-16,5,56,12
1694670130593231100,-7,-29,-2,-10,100,-18,-24,-7
1694670130606613400,-9,-5,-27,-60,-13,-45,5,6
1694670130608611300,-4,13,15,-3,109,63,-7,-21
1694670130609611900,-11,-9,17,-5,-58,-45,-54,-10
1694670130610633800,2,6,-16,15,-43,-4,8,-21
1694670130629121200,11,21,4,2,50,11,-10,31
1694670130633128900,-8,-6,-11,-35,5,-14,-28,-22
1694670130634146100,6,6,7,43,19,42,15,14
1694670130635145500,-18,-36,-22,-31,-93,-107,-40,-13
1694670130643188600,8,18,16,-6,102,29,-8,-6
1694670130645190200,0,12,-4,83,-128,-47,32,1
1694670130652183100,-3,-11,-17,-13,116,1,-21,15
1694670130653190300,-10,16,37,32,-22,4,-8,-21
1694670130667256100,-10,5,16,13,-11,3,-5,-34
1694670130669269200,10,-30,-30,-57,42,14,-7,54
1694670130670275500,14,17,5,21,-60,14,2,5
1694670130671275100,7,15,10,5,0,42,30,7
1694670130690271100,1,-5,-4,27,-21,14,13,2
1694670130691268700,-21,27,-16,-23,-1,12,-20,-43
1694670130692267900,-27,-59,-19,7,-22,25,-1,-19
1694670130694266400,8,4,2,-1,16,3,-2,5
1694670130703042400,9,-15,-6,10,-27,3,12,-13
1694670130705055100,-1,65,25,-7,-11,0,-32,-14
1694670130712032100,11,85,15,9,9,18,-17,58
1694670130714034300,-96,-118,-37,-25,23,0,13,71
1694670130726906900,90,127,27,3,-21,12,-2,-75
1694670130729905300,57,-43,1,-4,14,10,12,109
1694670130730905100,-110,7,1,14,15,-1,6,-128
1694670130731904200,-32,-7,0,10,23,13,-20,-81
1694670130749287400,-9,-71,-9,15,-16,5,0,70
1694670130751290500,-54,-71,-20,-18,-3,-21,-35,-95
1694670130752290400,23,37,9,6,5,6,36,49
1694670130753289400,97,20,-13,2,1,-7,-23,20
1694670130772022600,-51,-37,6,1,-12,-8,-20,-21
1694670130776025100,2,62,18,-8,7,3,21,-40
1694670130778023300,77,2,-15,4,0,4,24,84
1694670130779023000,-56,16,-3,-6,8,-2,-11,-109
1694670130802042800,52,5,-10,12,0,14,3,119
1694670130804066000,-31,-27,-26,-13,-2,-13,-33,-118
1694670130805068700,-21,-37,29,12,0,-1,15,-2
1694670130808043200,40,-20,-16,-5,4,3,40,68
1694670130810065700,-44,-95,-4,0,1,0,-48,-18
1694670130811041000,4,48,41,-1,-1,2,-7,-94
1694670130812064700,22,-6,-69,-9,-1,10,-24,103
1694670130813063500,-20,10,75,16,20,7,-15,-106
1694670130823177900,7,28,32,-15,-12,2,61,35
1694670130826175400,22,17,17,-3,11,-2,70,118
1694670130832172700,-24,-59,6,10,-6,-19,-97,0
1694670130834195500,-10,33,18,3,5,1,3,-36
1694670130846168700,-1,46,-27,18,7,-3,-33,-4
1694670130848164700,14,-17,-41,-8,-3,0,49,-4
1694670130854160300,-11,1,33,-3,-9,-21,-38,-19
1694670130858161100,24,-1,-30,-16,-20,-5,25,15
1694670130869151400,-20,-3,13,12,15,16,21,49
1694670130873150300,-49,-21,-13,-17,-19,-15,-20,29
1694670130876170800,122,83,25,7,5,-2,37,35
1694670130877170000,-50,-35,-35,-1,0,1,42,57
1694670130883143300,-4,-5,-5,5,7,9,-18,30
1694670130885166700,-30,-23,-16,-7,2,3,1,-60
1694670130892138200,-91,-38,-15,-7,-12,-7,-42,-7
1694670130893160000,-79,-2,-27,-3,10,4,-40,-58
1694670130906897600,125,72,32,13,5,23,96,83
1694670130908895800,-30,-19,-30,-18,-24,-28,-3,47
1694670130909894000,-11,-1,-1,2,-3,3,50,-96
1694670130910894600,82,7,-13,-11,-1,-3,-94,81
1694670130929291700,49,47,28,12,9,-4,-8,-28
1694670130931295400,-49,-16,-2,-14,-22,-2,-18,-66
1694670130932294100,10,-56,-28,2,16,-4,61,-27
1694670130934295200,37,7,44,16,1,9,17,45
1694670130943135500,-90,-54,-3,-5,-17,-16,18,-128
1694670130945133600,-57,40,7,16,13,17,-21,112
1694670130952131800,-58,-6,25,10,24,0,-11,-83
1694670130954131400,-69,-50,-28,-15,-19,-23,-15,-16
1694670130966140500,55,-37,-4,-10,-24,-10,-1,42
1694670130969121700,-36,-20,-34,-19,-1,-3,-29,-99
1694670130974138200,77,95,23,2,-9,1,31,66
1694670130975118300,-63,13,-4,-9,-4,2,1,-39
1694670130991288900,-17,-24,-3,-3,5,8,63,31
1694670130992293100,127,-24,24,16,6,-18,-59,44
1694670130994290200,24,-37,43,25,11,39,30,-55
1694670130994290200,94,-5,-26,-3,20,-7,-84,51
1694670131003086100,-54,-34,-7,-5,-6,5,16,-75
1694670131005108700,-47,-80,0,4,11,0,-18,-68
1694670131012095500,36,55,33,11,-9,-8,-1,75
1694670131013124400,59,34,12,-1,-2,18,30,5
1694670131026052300,-56,-36,-5,-9,6,8,-29,13
1694670131028084700,-30,55,1,2,-1,3,8,-57
1694670131033062900,16,-24,-11,6,17,10,15,46
1694670131035063600,-57,36,5,13,8,-9,11,-39
1694670131050202600,-43,29,-25,-7,-15,-11,-106,-128
1694670131052203000,-18,48,31,-6,7,26,73,44
1694670131053200200,50,-37,-46,16,-9,-2,-12,-3
1694670131055198200,-4,7,3,-53,1,9,14,-49
1694670131079185200,-53,-25,20,-3,5,6,-1,-22
1694670131082187500,-17,-26,-19,17,26,-12,-7,-25
1694670131084182900,-80,5,-5,-56,-60,-29,-33,-98
1694670131086181400,22,57,45,64,24,-8,16,56
1694670131087180700,-14,13,-55,-55,-29,-15,-19,-12
1694670131088180300,25,-39,-4,0,-13,4,3,3
1694670131093176900,-39,22,23,85,44,7,-12,62
1694670131094179200,34,-101,-13,-5,-9,9,32,-21
1694670131109191300,121,51,-12,-5,11,-16,6,61
1694670131112145900,-1,14,-6,9,8,-8,-49,-73
1694670131114142900,-105,-28,1,-20,-19,-14,-28,-78
1694670131115147200,22,-26,-10,48,9,-23,12,47
1694670131132132100,-28,11,41,-2,-5,9,-11,-10
1694670131133131600,22,15,20,38,-37,-19,38,61
1694670131135134100,13,24,8,27,57,36,24,6
1694670131136134400,2,-2,-27,-51,-32,-6,-4,-15
1694670131154119600,-16,-12,19,-28,-42,-31,-12,-10
1694670131157119100,-26,-2,29,95,15,-27,-21,-10
1694670131160117600,24,27,-23,-128,16,47,1,-37
1694670131162116000,14,23,55,3,-20,-4,-2,-23
1694670131169111600,-54,4,14,-7,19,24,16,-6
1694670131171111500,18,-52,-43,-34,-76,-53,-38,-1
1694670131172110100,-13,-36,32,-1,-48,-16,7,-11
1694670131174108800,-3,-1,8,32,33,-2,-14,-46
1694670131192127600,-25,-39,-71,-41,-67,-21,-10,-36
1694670131194127000,23,10,-14,-20,23,5,3,21
1694670131196127700,-2,1,8,44,53,14,-1,-14
1694670131197126100,-31,-26,-62,-101,-87,-33,-7,-4
1694670131208118300,-7,-14,8,79,-66,-16,16,15
1694670131211117300,26,26,78,-27,-6,51,26,32
1694670131213120300,5,-5,-51,-44,-106,-37,-17,2
1694670131214116800,2,22,-3,58,83,50,22,24
1694670131229268900,15,16,93,-38,-57,-25,0,4
1694670131231274200,-2,-15,-8,-27,-34,1,-6,8
1694670131232272700,6,-9,-48,3,-46,-5,-1,-5
1694670131233294600,-9,6,85,-26,36,7,1,4
1694670131252061600,-7,3,1,43,77,-6,-2,7
1694670131255062700,42,-34,-74,80,127,105,43,41
1694670131258061900,-9,-13,17,-69,-107,-43,-22,-11
1694670131260084100,-15,29,26,21,-74,-25,2,-2
1694670131266122600,27,35,-22,44,121,94,30,23
1694670131268143700,-26,-22,4,-12,-81,-33,-21,-13
1694670131274122500,27,4,86,79,-11,27,30,23
1694670131275123300,5,7,-7,-32,19,-10,-11,-3
1694670131290112500,-20,-8,-19,-35,-73,-26,-6,-19
1694670131292114900,9,30,2,-43,-2,6,-6,0
1694670131293113300,-4,23,0,-113,-35,-44,-16,-10
1694670131294112400,1,14,-53,65,48,19,10,7
1694670131312335100,2,15,33,36,-1,-1,8,2
1694670131313337600,3,7,24,-35,2,-33,-14,3
1694670131314336400,4,18,-41,27,83,21,16,6
1694670131315335600,-1,-13,1,-41,31,30,12,8
1694670131326425500,8,-11,-2,59,-42,-16,-2,0
1694670131328262800,-7,0,5,-62,4,-12,-5,-6
1694670131333028200,-1,-19,-8,46,2,7,1,-6
1694670131335027700,-18,-12,0,-50,-88,-56,-33,-17
1694670131349074700,12,4,-1,-25,41,44,21,8
1694670131351080200,4,15,-27,26,-24,18,14,9
1694670131357074900,0,-12,-3,51,41,6,-8,-5
1694670131358075100,2,7,4,-11,-30,2,5,5
1694670131372065200,-34,-20,-36,-59,20,-14,-14,-12
1694670131375067500,13,21,-1,-17,-11,4,13,15
1694670131376087300,-16,-32,3,-32,-20,-28,-15,-1
1694670131377086300,-21,10,-3,-30,-19,5,-8,-21
1694670131385335500,7,-55,-8,91,17,5,5,7
1694670131387330100,-6,14,-11,-57,-37,-17,-6,-3
1694670131394613800,-47,-15,-1,3,33,9,5,-11
1694670131395634500,54,10,25,2,-12,-4,-2,19
1694670131409264200,-38,41,-4,-73,-12,-18,-11,-10
1694670131411269000,30,-2,3,-66,6,7,6,22
1694670131412289300,15,-37,16,9,4,7,11,3
1694670131415268800,21,2,-15,-37,-6,0,0,-12
1694670131432320800,32,2,-54,49,6,3,-14,4
1694670131433318500,-30,-17,3,99,37,3,2,4
1694670131434300900,-10,-3,-4,-34,-21,-9,-16,-23
1694670131435322600,-23,0,-7,25,7,11,9,24
1694670131445296800,65,59,15,33,-4,-18,-6,-6
1694670131447300300,18,19,47,-53,-45,-10,-7,-29
1694670131462257100,-43,-28,-9,-37,-10,-23,-16,-5
1694670131464258900,-37,-55,-42,27,-10,7,5,-4
1694670131469262200,5,-5,27,44,19,10,-2,10
1694670131471253600,-7,-17,-12,-72,1,2,2,-11
1694670131473251200,45,32,-19,25,-10,-2,16,8
1694670131474250700,-9,23,-17,24,-8,-12,-26,-15
1694670131492263100,-46,-35,20,-57,-10,0,9,-9
1694670131494238900,34,-2,-17,30,3,-5,-5,13
1694670131497237100,6,14,-21,-2,14,6,-5,-6
1694670131498237200,-86,-43,30,45,-4,-3,2,-2
1694670131506234300,69,12,13,-19,2,-1,4,-7
1694670131508251500,4,-6,-50,20,-4,-6,-2,5
1694670131514638900,0,-10,-7,24,19,9,3,6
1694670131515660000,39,5,10,41,-26,-12,-19,-2
1694670131529274800,-49,-16,-21,-6,6,-3,-5,-13
1694670131531279900,-18,-27,-17,-9,21,11,2,7
1694670131532279000,27,15,22,46,13,-3,-4,2
1694670131533279700,23,15,-12,-104,-38,-4,3,4
1694670131560263700,-17,-25,-21,-3,-4,-5,3,-4
1694670131562265100,-7,22,22,41,2,-10,-3,-7
1694670131563265700,-12,-30,31,-15,-8,4,-4,24
1694670131564263900,24,19,-22,46,31,8,8,-2
1694670131565263600,-7,10,-5,-3,-19,-9,0,7
1694670131566263300,-18,0,21,19,-1,4,3,-9
1694670131574904000,-3,6,-15,-44,17,7,0,3
1694670131576903400,8,3,-4,16,-5,-1,12,-1
1694670131589972900,-12,-9,29,-8,4,3,-1,3
1694670131592972700,-4,7,-6,6,-9,-11,-11,-1
1694670131594992200,12,5,-22,-34,-17,4,2,-4
1694670131594992200,-20,-9,-22,0,18,2,-5,2
1694670131612246200,21,9,71,13,-17,2,4,1
1694670131614244500,-8,2,-9,-25,2,1,1,1
1694670131615246300,13,2,-25,-31,-23,-11,3,0
1694670131616241600,5,-4,3,29,14,6,7,-4
1694670131625800200,-2,-1,-29,-15,-8,-11,-5,1
1694670131626800400,-10,-6,-14,20,-4,7,1,-5
1694670131634795400,-2,7,17,8,-9,-1,-2,0
1694670131635813700,-1,-1,9,-39,-13,-3,2,-1
1694670131657891200,-3,-4,-19,-14,4,3,1,0
1694670131658914000,3,-1,10,-3,-4,-6,5,-2
1694670131659913300,0,8,-5,60,6,1,-8,-7
1694670131661889700,3,-2,-4,-36,16,3,0,-2
1694670131672030000,-3,-8,-13,4,-29,-8,-10,-1
1694670131675052200,2,1,5,5,-2,10,17,-2
1694670131676051400,6,10,3,3,28,9,2,-3
1694670131677030300,14,9,9,-1,-2,3,7,10
1694670131686025900,-15,-8,-19,-32,5,-16,-9,-4
1694670131688020900,1,8,47,60,86,44,20,9
1694670131694017200,-1,1,-4,15,-13,-12,-1,4
1694670131696035000,0,-3,0,-80,10,-2,-5,-9
1694670131709283800,4,0,-2,-9,6,5,8,-1
1694670131711262300,-1,1,-7,-18,-24,-16,-9,-7
1694670131712283900,-3,-1,-2,14,7,8,0,-3
1694670131714259100,6,1,13,16,8,4,4,-1
1694670131731871500,3,0,-12,2,-8,-6,-5,9
1694670131733874600,-6,-6,-23,-34,-55,-17,-12,-9
1694670131737912200,-4,1,13,32,23,4,5,-13
1694670131740870700,-5,3,18,17,-14,-12,-5,-2
1694670131745411600,18,4,-15,20,5,13,13,13
1694670131747427200,9,6,20,-11,31,8,1,20
1694670131754421100,9,-3,-20,-53,-7,-7,-5,9
1694670131756420200,-8,-4,8,53,-10,0,-1,-17
1694670131769234400,-8,-1,-3,-39,36,-2,0,-13
1694670131771200600,-1,6,20,48,-4,2,-7,-6
1694670131772223600,-7,-3,-5,-10,-29,-14,-4,-5
1694670131774198600,0,-2,-15,1,44,8,6,4
1694670131791306800,5,0,4,-13,-19,-3,-9,-3
1694670131793304400,-7,-3,-4,1,22,6,16,-4
1694670131794302200,6,9,-22,-53,-21,-1,9,1
1694670131795324300,3,-3,4,-10,-22,-16,-3,4
1694670131805412500,-5,-7,8,45,13,5,-8,-23
1694670131807425400,-4,-2,-13,8,-31,-13,-12,-26
1694670131814928500,6,6,14,11,29,9,8,46
1694670131816930700,2,-1,-8,-1,-22,2,3,10
1694670131828962600,4,-4,-17,13,22,-4,-9,-1
1694670131831972000,22,-1,-10,-45,-30,-13,-11,-5
1694670131833988600,-26,3,0,52,-34,-8,-11,-28
1694670131834987200,-5,-3,-12,-47,2,1,5,-1
1694670131851903100,-5,-2,27,-18,-6,2,5,-6
1694670131853906000,7,10,-24,13,4,-5,-7,1
1694670131854905400,-1,-5,20,26,15,2,20,6
1694670131855904700,7,9,-13,-31,-12,0,-7,-10
1694670131865301500,12,3,-7,-14,12,6,7,55
1694670131867288600,-2,1,8,5,-1,-2,-2,-3
1694670131874547200,-3,2,2,-18,-7,-5,-6,-12
1694670131875568900,-16,-13,-6,38,1,1,-16,-49
1694670131888986600,-12,6,-1,-36,-16,-9,13,-7
1694670131891962600,-5,-4,28,12,-9,-10,-11,39
1694670131893965000,-20,17,2,2,12,2,-34,-54
1694670131895962200,73,10,9,32,12,9,16,105
1694670131912256900,18,30,-9,34,4,2,-8,-36
1694670131915258600,-27,-26,-50,-1,-5,-5,-1,1
1694670131916257100,-6,-27,36,26,-7,-3,-4,-29
1694670131917256400,-13,-1,7,24,15,0,-3,-20
1694670131925279400,-4,-1,-5,-6,-16,4,3,0
1694670131928247700,12,9,15,17,15,4,10,13
1694670131933957600,5,5,-3,-3,5,1,-3,-7
1694670131935958300,-5,-42,-11,-40,-18,-4,5,-2
1694670131964252600,34,2,-17,-15,-15,-12,1,4
1694670131966267100,-2,-9,-18,-49,0,4,-4,-25
1694670131967288700,41,18,-9,20,17,11,4,34
1694670131968288000,-80,-24,52,18,-6,-7,-4,12
1694670131971936300,-27,-5,-6,-5,2,2,4,0
1694670131974939100,9,10,12,-9,-15,-1,10,-11
1694670131976943500,80,-12,-28,-16,-5,3,9,10
1694670131977937300,25,3,-19,-36,-6,-4,0,12
1694670131985401000,-3,0,-22,43,-2,1,-4,6
1694670131987426600,-21,17,49,8,5,-6,-5,-22
1694670131994400400,3,-43,-20,-19,1,1,7,13
1694670131995402200,-21,10,-11,6,-4,-15,-19,-20
1694670132009992700,20,0,10,0,-15,-1,-8,-3
1694670132012015400,-71,-19,-8,4,8,4,3,-1
1694670132012992300,56,13,8,7,-3,4,18,10
1694670132014013500,-31,0,-8,-24,-4,-7,-12,-23
1694670132032306100,-22,0,6,5,3,12,2,11
1694670132033327100,-10,2,-9,-22,-3,-4,1,7
1694670132034327000,-65,-3,13,-2,-17,-10,-12,8
1694670132035325700,21,5,-14,-74,3,3,-13,-14
1694670132055140200,-5,18,-31,-11,15,2,5,-6
1694670132057136500,18,-32,65,66,-9,-8,-2,19
1694670132059159200,-10,34,4,-3,5,1,-3,-8
1694670132060158000,59,7,-5,20,-10,-2,4,13
1694670132069256500,-15,14,18,-5,-6,0,10,17
1694670132071255000,5,11,-28,8,12,3,0,-9
1694670132075740900,-59,-75,-18,-12,1,-4,10,-13
1694670132076744900,-53,-3,22,15,-12,3,-20,-2
1694670132092197900,0,-22,14,-2,0,-1,7,27
1694670132093207400,24,3,-16,-5,-3,-8,-3,-13
1694670132094204100,16,23,13,-12,-11,-8,-6,9
1694670132095212500,-15,0,-14,8,11,13,18,-19
1694670132114206700,-1,-22,-3,-4,0,-4,3,-59
1694670132116182900,41,10,19,-12,-4,2,-8,70
1694670132117181700,0,39,-33,-7,-2,-6,-16,-28
1694670132119180000,-6,12,27,21,0,-4,14,16
1694670132129173400,0,-8,6,-5,-1,0,4,5
1694670132130174800,-13,0,-18,0,9,4,-5,-31
1694670132135170400,2,-5,-13,-45,-18,-14,-8,11
1694670132138171100,9,-3,-3,88,6,-18,6,-2
1694670132159258200,3,4,10,-57,7,6,-12,2
1694670132161235000,-9,-11,-19,48,4,9,35,-21
1694670132162234800,-6,-5,12,2,0,0,-21,9
1694670132163234100,24,16,-11,-48,-25,-7,-5,-2
1694670132174952600,-16,-12,8,-6,6,-3,-7,-6
1694670132176952500,14,2,-11,-22,-8,-12,10,-3
1694670132177951800,-3,3,16,-2,16,10,0,8
1694670132178951100,3,7,7,35,34,5,-5,-4
1694670132188324800,5,2,10,-4,-25,-9,-6,0
1694670132191291700,-2,-3,-23,-16,3,4,-11,-1
1694670132195315200,-12,-6,19,93,-41,-5,-8,-24
1694670132197319800,2,-5,-8,-35,34,23,15,7
1694670132211918800,-11,-9,-5,-6,-75,-38,-19,-8
1694670132213923800,7,2,-9,-35,11,-13,-6,-14
1694670132215919900,2,2,5,3,42,20,6,22
1694670132216942900,9,0,8,52,6,15,-11,-13
1694670132233909900,2,0,-24,-67,5,-24,-10,-4
1694670132235909300,-9,-4,-5,30,-70,-17,-13,7
1694670132238908000,-3,3,0,7,21,36,33,25
1694670132240906600,-8,-4,-5,-19,-34,-32,-30,-64
1694670132249901100,27,13,23,65,48,7,41,97
1694670132251902100,4,1,-6,-16,-27,15,-5,-12
1694670132262895000,-9,-8,-7,29,-30,-12,-12,-14
1694670132265891700,-5,-2,-17,-23,30,15,-2,-1
1694670132271888900,-17,-15,-3,57,-4,-14,-15,-48
1694670132274888000,13,3,15,-10,-33,-3,-4,11
1694670132276888800,-7,9,29,45,15,24,32,-17
1694670132278885000,-4,-13,-24,-43,-48,-21,18,29
1694670132294875700,-4,-14,-17,2,32,15,-36,-41
1694670132297874200,-3,14,14,-1,20,32,22,12
1694670132298872700,12,17,-16,-72,-14,-6,-2,6
1694670132300875100,6,4,3,46,24,-5,36,-9
1694670132307868900,23,8,9,-71,-38,16,-31,54
1694670132309867600,18,-1,-26,-76,36,-42,-8,46
1694670132316863100,-7,-9,-6,23,-49,-1,5,-40
1694670132317865100,-1,8,19,36,59,20,16,11
1694670132331853600,-10,-1,6,-7,-17,10,14,-33
1694670132333854600,-17,-7,-6,16,14,-19,-37,-45
1694670132334851900,-6,-6,-16,-68,7,-28,-23,19
1694670132335851400,-1,-3,-7,3,-53,-25,-18,-18
1694670132353841700,2,9,16,57,74,42,29,20
1694670132356840600,2,1,-1,-24,44,12,-10,-8
1694670132358839000,-1,-16,-13,-18,10,-7,11,13
1694670132361837800,-4,-8,-22,5,-4,10,-6,7
1694670132367859300,-5,1,19,-36,-19,-13,0,-16
1694670132369865000,3,-3,10,1,-9,3,12,14
1694670132376859600,-2,-7,22,-29,73,18,-3,-3
1694670132378859100,1,0,-9,-32,-4,1,-10,-1
1694670132392271700,-3,-9,-30,48,-52,-17,0,0
1694670132394270900,0,16,64,45,8,22,5,-7
1694670132395270300,4,9,-44,29,-33,-27,-8,0
1694670132396269900,-9,-22,77,4,-69,-18,-9,2
1694670132413955300,-2,-4,-4,-15,32,11,12,-3
1694670132415954500,-3,-6,-20,4,2,-1,-3,-6
1694670132417953600,3,3,-9,-33,-19,-13,-7,-2
1694670132418953300,2,7,-23,-23,-40,-2,2,12
1694670132436901900,-2,7,-21,31,10,-4,-4,-10
1694670132439900200,-6,-14,-12,-4,-10,1,-4,-9
1694670132442900000,-3,-5,-14,-18,31,-10,-10,1
1694670132443900600,5,4,-19,38,-11,27,12,7
1694670132452962000,-2,0,9,-12,29,6,3,-5
1694670132454960900,-7,-8,-47,4,-2,8,-3,-4
1694670132456960700,-1,0,35,-1,-7,4,6,3
1694670132458959000,5,14,-22,-3,10,-8,-10,0
1694670132475153100,-5,-18,-31,-20,-9,-1,1,-6
1694670132476151900,4,0,-1,-3,-2,-3,-2,1
1694670132477175500,2,-2,8,35,-26,-5,-2,0
1694670132478174800,-2,3,-59,-16,36,6,-5,-2
1694670132488234700,-1,22,0,16,-1,-5,-8,-4
1694670132491230200,-6,-14,16,-2,-5,-3,5,-8
1694670132497229500,13,8,-11,20,11,1,-9,-2
1694670132498246000,-18,48,83,-36,-6,-8,-4,-1
1694670132511581500,-11,-12,-111,-20,-4,-12,-9,-6
1694670132513547600,-33,-75,58,24,3,-2,-9,-17
1694670132514571200,-56,47,-12,-34,-5,2,40,60
1694670132515570000,54,-41,-14,34,16,15,-10,27
1694670132534378900,-95,-60,-42,-5,5,14,-7,-34
1694670132537398800,62,-52,-88,-10,13,-1,-16,-65
1694670132538399400,60,68,127,28,16,6,26,84
1694670132539397800,-108,69,-71,-28,-7,-15,9,-40
1694670132547877700,93,66,104,25,-9,7,-17,3
1694670132549881300,-109,-79,-11,-11,8,15,31,-2
1694670132557146900,72,42,-81,-34,-23,-11,-11,-69
1694670132559161400,32,36,-10,29,28,26,-30,124
1694670132572140000,3,81,-3,-13,-4,-2,5,-110
1694670132574138500,89,7,84,-6,-7,-15,-30,120
1694670132576158000,-26,8,18,18,11,16,37,0
1694670132578133600,72,-43,25,11,29,22,-3,-42
1694670132595074100,64,-16,-42,-11,-18,-9,29,21
1694670132596074100,-16,9,-38,1,-16,-16,-17,-17
1694670132597075400,-128,-66,-38,-16,-7,-8,-63,-88
1694670132599071500,-3,-45,-17,-14,-25,-27,10,62
1694670132609203400,-55,-21,36,14,14,-12,-40,0
1694670132610204300,-5,103,17,1,-12,15,42,45
1694670132623019700,18,-84,-40,-7,20,-10,-21,-31
1694670132625020800,-18,31,28,-10,-86,-26,12,-27
1694670132632014600,50,-27,56,39,90,50,21,34
1694670132634037100,-15,45,-22,-23,-2,-22,-2,-4
1694670132635036000,1,-8,-26,-22,-42,-29,-7,-6
1694670132636035600,23,-18,43,2,2,37,16,-29
1694670132654034000,-37,-18,-6,29,-72,-20,13,43
1694670132656002600,11,20,5,19,11,1,-7,-27
1694670132657999800,9,-3,35,-21,15,4,-4,-7
1694670132659001100,-28,-14,17,-60,51,-28,-24,-8
1694670132667852900,18,18,-2,37,-108,-47,-3,-1
1694670132669885100,-7,9,32,20,96,97,30,-10
1694670132676912800,12,4,-29,-22,-81,-44,-21,8
1694670132679926000,-19,-26,-7,58,-31,-45,6,5
1694670132691967100,-13,-5,-23,-61,6,4,-1,5
1694670132693989900,12,5,-20,-7,13,-61,-25,-4
1694670132696967100,-14,-10,-35,-11,-25,-34,-13,9
1694670132697966200,13,8,3,38,96,40,26,-19
1694670132715283500,-8,-2,45,3,88,27,10,6
1694670132716310300,-3,4,5,79,-42,70,35,13
1694670132718286900,13,3,3,-61,7,-60,-18,-1
1694670132719285400,3,12,-9,54,41,88,32,1
1694670132728018700,-4,-4,-2,-97,40,-31,-42,2
1694670132730017900,-10,8,7,48,-67,-92,-4,-11
1694670132744234300,-1,-3,2,36,41,77,26,14
1694670132746230100,7,-1,11,3,41,-30,-19,-19
1694670132767240000,1,11,13,43,-46,55,50,26
1694670132768246100,-9,-12,-37,-101,-22,-39,-59,-32
1694670132770265600,-8,-9,-14,-22,-2,-23,7,0
1694670132770265600,-5,-10,11,40,-95,-78,-6,-4
1694670132775240000,-7,-4,73,12,76,26,4,-1
1694670132777240100,-15,-4,-3,-10,46,-21,-1,-9
1694670132778240000,5,-15,31,69,-81,-25,1,-4
1694670132779239500,16,5,-2,-48,107,88,12,5
1694670132788295500,-4,-13,-32,70,-60,-100,-8,-3
1694670132789294100,3,6,1,-57,88,37,12,3
1694670132797287200,-14,-13,11,-32,116,41,-24,-11
1694670132798311200,-14,-7,-22,-14,-111,-23,-14,-12
1694670132813035900,-5,-13,-18,-84,-2,-78,-29,-24
1694670132814055300,19,29,27,92,-31,70,31,21
1694670132816057000,-8,-7,-45,49,92,18,14,-7
1694670132817033000,-4,3,-22,-122,70,-96,-27,-15
1694670132834193500,-5,-2,30,68,127,121,22,11
1694670132836171400,-10,-11,-42,-45,21,-38,-25,-14
1694670132837194200,7,4,-5,-3,-14,-3,18,15
1694670132838192800,1,4,19,10,100,6,-1,0
1694670132848163000,-4,3,-37,-38,-55,-10,-6,1
1694670132849163700,1,-2,-24,-15,-57,-29,8,2
1694670132857160200,-1,-2,38,14,-16,15,-7,14
1694670132859157800,-1,-1,1,-18,-63,-11,-2,-16
1694670132871152800,-1,-9,-10,-3,-71,-20,-10,0
1694670132875151000,-4,-1,-14,-13,-1,21,11,7
1694670132878150100,-9,-4,2,1,-2,0,-20,-1
1694670132879147300,-24,-1,6,17,-43,8,-5,-18
1694670132894204300,52,3,-2,6,2,3,9,6
1694670132896206900,-7,8,20,3,0,-13,16,64
1694670132897230100,81,39,9,-1,3,2,0,10
1694670132898229600,-104,-66,-23,8,-31,-8,0,-19
1694670132908867800,27,18,18,-8,4,-8,-19,-65
1694670132909866700,86,15,18,-6,-4,-18,-7,49
1694670132916911100,16,-36,-19,2,-8,20,37,39
1694670132918913400,32,29,-6,2,10,20,-23,-58
1694670132931077700,27,-12,7,-24,-8,-18,-20,-58
1694670132934034000,-14,25,5,22,5,31,18,68
1694670132946050500,94,61,18,16,20,14,29,-22
1694670132947049800,-52,17,13,6,-3,7,12,40
1694670132954046500,-31,39,-29,-20,-12,-19,-12,0
1694670132956022400,-9,-2,3,6,-4,-13,-45,-73
1694670132957021500,-32,36,38,0,-2,-3,10,37
1694670132959021600,-93,-83,-42,-7,2,4,-4,-22
1694670132977008600,73,2,-12,2,-7,2,8,19
1694670132979031100,-29,-17,-20,-13,0,-3,9,-59
1694670132980030600,14,3,12,5,7,11,-12,70
1694670132981030200,23,2,-2,-2,-10,-8,1,10
1694670132992979500,-26,-9,10,7,8,11,21,49
1694670132993979100,-11,-4,4,-7,-7,-12,-6,-71
1694670132997976800,-45,-33,-17,-2,9,6,-22,-92
1694670132999975300,84,41,42,2,-9,-2,15,31
1694670133022216900,0,-2,-18,-1,4,7,-1,72
1694670133024177100,-35,-63,-12,-4,-1,-2,12,-58
1694670133026197900,-5,52,22,-3,8,-1,12,6
1694670133027197300,20,-12,-16,-1,-35,-9,-1,-65
1694670133037254000,-23,5,-2,-6,24,6,14,14
1694670133039258800,0,8,1,8,-64,-17,-31,-37
1694670133043024200,-18,3,29,-2,50,12,3,-19
1694670133045023800,27,-22,9,-9,9,-7,-3,11
1694670133051052600,-42,-32,-15,-33,-7,-23,-5,-8
1694670133053020300,1,29,31,52,-8,2,14,31
1694670133058917000,-2,-17,-24,-73,-106,-41,-21,29
1694670133059916300,28,26,-2,88,-40,-1,37,35
1694670133074447600,-21,-9,34,-60,66,25,-42,-42
1694670133077443300,4,-10,-6,78,-76,-97,0,6
1694670133079447900,-4,-5,-15,23,-22,24,53,4
1694670133080449200,5,7,47,-12,46,59,-21,-1
1694670133096908300,-17,-13,-28,-26,-54,-87,20,8
1694670133098921800,-3,-4,-31,-103,-71,-77,-53,-11
1694670133099920900,-11,1,24,17,77,68,-10,-26
1694670133100920000,-8,-23,-25,-48,-35,-47,-10,27
1694670133112055900,7,64,40,127,-87,-14,46,-13
1694670133113067000,-12,-7,-50,-128,127,-1,-65,-12
1694670133117878600,-13,-37,-35,110,-40,-85,-6,-13
1694670133118914900,20,37,18,10,47,88,13,-3
1694670133135017700,-21,-38,-47,-92,-15,-82,-74,-17
1694670133136019500,20,26,40,113,49,81,69,36
1694670133140047000,-42,-59,-21,26,-120,-128,-41,-32
1694670133144018400,13,-21,-6,-8,65,27,-1,-2
1694670133157321100,-11,-22,-45,-97,112,4,-23,4
1694670133160316700,15,13,15,73,-29,10,31,14
1694670133162317400,14,18,61,17,78,54,18,18
1694670133163317100,-3,31,-8,-56,-60,-47,2,-14
1694670133171102900,6,-29,59,86,83,108,43,32
1694670133172983000,-12,-37,-17,-91,67,-3,-26,-44
1694670133177980100,3,6,-3,-37,101,29,-13,24
1694670133180002500,29,58,-13,47,16,10,22,16
1694670133194783000,-10,-28,19,4,7,25,10,-16
1694670133195798800,-24,-27,-24,-11,-41,-25,-7,-15
1694670133196802900,-13,-16,-12,-28,2,23,10,-6
1694670133197800700,6,13,-11,-6,-16,-30,-28,-35
1694670133217176300,-8,-18,-16,8,-69,-38,-14,7
1694670133218175900,32,59,26,36,7,33,21,22
1694670133220175300,-18,-59,-24,-33,-32,-28,-13,-31
1694670133222174900,-4,12,7,-17,-4,-19,-8,15
1694670133230191900,1,28,24,40,-23,28,11,-10
1694670133232170500,-1,-67,7,-23,20,16,2,17
1694670133239164100,3,59,-9,-17,2,19,-8,-6
1694670133243161600,28,-28,23,0,-15,-21,3,3
1694670133255156200,-87,34,-21,1,1,19,2,-27
1694670133257153500,-10,27,31,8,7,12,5,5
1694670133260151600,4,-18,-24,-11,-9,-9,-3,-6
1694670133261150500,35,-32,-20,4,-1,-11,-3,12
1694670133277280700,76,32,3,16,6,-1,2,-1
1694670133278280400,-21,12,-2,-19,-10,-3,-1,3
1694670133279278900,-43,34,18,-14,5,16,13,2
1694670133280277800,-4,-84,-14,-16,7,-15,-6,5
1694670133290476100,98,31,-11,-1,-5,0,-2,15
1694670133293472200,-62,-107,11,26,2,4,11,6
1694670133299470400,11,-35,14,14,7,-3,-11,-3
1694670133300469600,48,34,-1,-17,-1,-3,1,3
1694670133314228100,-128,-42,1,4,-8,-2,3,3
1694670133316244700,18,40,-18,-25,-4,3,0,12
1694670133317264300,21,18,-8,11,5,-3,-8,0
1694670133319241700,-100,-52,27,43,8,-3,8,3
1694670133353059700,67,12,-2,-22,-13,-1,0,0
1694670133354059500,-14,15,-12,-10,4,-6,-5,4
1694670133355056800,42,56,15,16,9,2,3,8
1694670133356058600,-9,5,0,14,-2,-6,-6,-3
1694670133357058000,-24,-6,-3,-14,2,3,2,4
1694670133360059700,38,-3,9,32,5,-7,-3,-1
1694670133361053100,89,-16,-10,-35,-20,-2,-1,-2
1694670133362077100,-105,-54,11,-7,18,8,2,-5
1694670133374165400,35,14,25,21,-14,-4,1,-2
1694670133377186600,14,-2,10,-59,7,3,-1,2
1694670133378193700,-23,-18,-5,-31,-8,-5,-1,-6
1694670133379190400,14,33,-18,26,2,-2,-4,-1
1694670133397314500,-7,4,-22,16,6,1,10,7
1694670133400322700,-6,0,28,7,4,3,0,-5
1694670133401336300,-2,1,-14,2,-10,-10,-6,-2
1694670133402335100,-2,14,-23,-77,-20,-1,-1,-4
1694670133410227600,-16,-14,22,93,16,-2,-2,-1
1694670133412248000,3,-1,-14,-25,-13,0,1,1
1694670133419241800,-20,-8,-17,-29,7,-5,-7,-6
1694670133421260200,3,17,5,73,-3,-11,5,7
1694670133434264800,9,0,-6,-43,-3,5,6,0
1694670133436268300,16,32,-2,58,2,-1,1,0
1694670133437266800,-37,-23,1,55,9,0,-5,-2
1694670133438266100,25,19,9,20,19,-7,-5,-1
1694670133457272800,-22,-9,-22,-53,-1,-1,-4,-6
1694670133460271700,9,1,3,39,-36,-16,3,3
1694670133464268900,-16,7,13,-14,1,16,8,5
1694670133465268100,25,3,-23,-34,-24,-21,-14,-3
1694670133470267100,6,-3,7,3,-25,-7,-3,-1
1694670133471267300,-9,5,2,-16,-5,-4,-4,-1
1694670133481261600,-7,4,4,59,25,8,4,0
1694670133483259600,9,17,3,-8,2,6,-3,2
1694670133495118200,-15,-23,1,-36,4,-5,-5,-2
1694670133498117400,-3,2,-10,1,11,10,5,0
1694670133499139400,3,6,-3,-18,-35,6,3,1
1694670133500139100,2,1,15,24,50,4,0,0
1694670133517127000,-1,0,2,-9,-18,11,2,1
1694670133518124700,12,5,-24,-24,6,5,-2,0
1694670133519123200,-4,1,11,16,-15,-11,0,-2
1694670133520122400,-6,-4,-6,23,-5,-2,1,-2
1694670133530161200,7,5,-11,4,10,4,2,-4
1694670133532116200,2,1,10,31,38,5,-4,-2
1694670133547106900,-7,11,2,-13,-44,-11,2,-4
1694670133548106400,-6,-3,-17,-43,-29,0,-2,-1
1694670133554113300,3,-4,-4,18,7,-8,-4,-5
1694670133556101100,2,2,-3,14,-21,-2,0,0
1694670133557103500,-4,0,-10,-34,42,3,0,-1
1694670133559100300,10,4,-2,25,5,6,3,1
1694670133577296400,0,3,6,-13,-24,-3,-2,-1
1694670133579298600,-4,1,2,-31,-4,-13,-3,-2
1694670133580318000,-4,-10,-7,20,6,10,-3,-1
1694670133581317100,-1,2,-7,-50,-62,-30,-10,-5
1694670133591289000,3,2,7,20,58,28,10,5
1694670133593286900,-1,2,18,9,11,23,10,1
1694670133599239900,-2,-6,-28,-14,4,-9,-4,-1
1694670133601266100,-1,-1,-6,19,-4,5,-5,-2
1694670133614214100,-4,-2,18,-61,0,-15,-6,-3
1694670133616217300,1,-3,-11,13,-21,-5,-6,-4
1694670133617216800,0,-2,6,14,36,2,-4,-1
1694670133618215900,1,1,3,-57,-12,6,4,0
1694670133637336000,-4,-7,-25,43,-18,-9,-7,-2
1694670133639312800,3,4,9,-3,47,17,4,1
1694670133641316900,-4,-1,12,1,-56,-14,-6,-2
1694670133643313200,-1,-1,-9,-11,56,8,1,1
1694670133659265400,1,-2,4,12,9,-4,-1,-1
1694670133661271500,2,4,4,-14,-10,-1,-1,1
1694670133662270800,-2,-4,-4,-37,23,11,4,-1
1694670133663271100,2,10,23,39,5,3,2,0
1694670133674050800,-3,-7,-22,-9,-4,-7,-2,-2
1694670133676046200,-4,-2,-6,-11,-12,1,-2,-2
1694670133680075700,0,0,0,-10,4,0,1,0
1694670133682062200,-1,0,6,20,33,3,1,0
1694670133697103100,-3,0,1,-15,-46,-9,-11,-5
1694670133699116300,-2,-4,-20,-27,-33,-12,0,-3
1694670133700115200,-1,-3,2,3,-14,0,1,-1
1694670133700115200,2,9,40,19,-6,9,5,4
1694670133710297100,0,1,-1,-1,45,8,0,-1
1694670133712271300,-1,-4,-17,7,-30,-1,-1,0
1694670133719171700,-2,-1,7,-24,-10,-15,-4,-3
1694670133721194100,1,-4,-18,-13,-4,1,3,0
1694670133735162600,0,2,4,12,10,5,1,0
1694670133737168800,-1,-1,1,-1,21,1,-4,-1
1694670133738184000,1,3,2,-1,-3,1,0,1
1694670133739183500,-3,-4,-13,-9,-16,-8,0,0
1694670133757242300,0,0,8,28,-9,0,2,0
1694670133759237500,1,-2,-9,-56,4,-4,0,2
1694670133760260700,-1,2,-2,14,4,5,-1,2
1694670133761259600,0,-4,-2,-6,-11,-14,-3,-3
1694670133770336500,0,2,10,4,9,7,1,-2
1694670133772339400,-2,-1,4,36,5,-4,-2,-2
1694670133780015900,-2,-4,-8,11,6,-5,-1,-6
1694670133785014900,-1,-3,-12,-44,15,1,-4,-1
1694670133797004800,2,3,17,46,-48,-4,4,8
1694670133801002500,-1,0,-7,-38,3,-2,-1,-2
1694670133804000500,-6,-5,-5,-1,5,-3,-12,-8
1694670133806001200,-3,0,8,36,18,5,2,-2
1694670133817993000,-1,-1,-14,-4,-6,1,2,0
1694670133820990900,0,-2,-5,29,-1,-9,-2,-1
1694670133822989900,-1,0,7,0,8,-1,-3,2
1694670133826988000,0,1,-4,-6,5,2,-5,-22
1694670133838981000,1,-5,-10,-15,-3,-5,3,29
1694670133840979300,-1,-1,4,9,-6,1,-5,-6
1694670133847976300,0,1,0,16,19,8,10,6
1694670133850974300,2,0,0,-13,-16,-1,0,4
1694670133856970700,-6,-5,-9,-25,-9,-8,-6,-19
1694670133857971200,0,1,8,-11,6,4,0,0
1694670133864966000,0,-1,-2,4,-8,-3,2,1
1694670133873961500,-2,-4,-10,-18,-11,2,-3,-3
1694670133894949200,1,3,13,33,19,-4,-5,-2
1694670133896947300,0,2,-5,8,-3,-2,-2,-3
1694670133899946000,-1,-3,-7,-8,-8,-9,-7,-3
1694670133901945000,3,2,2,12,-5,-5,1,6
1694670133913938000,1,-1,0,-18,-9,-1,3,-2
1694670133916936900,0,0,-4,36,31,9,2,2
1694670133917936000,0,3,3,14,-44,-1,1,-4
1694670133919935100,-3,1,7,1,2,-1,-7,-3
1694670133927941300,1,-3,-9,-16,-18,-19,-2,6
1694670133936924700,-2,-1,-4,-6,-4,3,1,-2
1694670133938924100,0,-3,3,-6,55,2,1,0
1694670133939923100,-1,1,2,24,-64,-4,-3,2
1694670133948917800,0,0,-4,-4,17,6,0,-8
1694670133950917500,-1,-2,3,-21,4,-6,1,0
1694670133951916100,1,0,6,-24,5,-4,-1,1
1694670133953915000,-1,-1,-1,18,25,8,2,-12
1694670133971904900,-1,-1,-4,-13,4,-1,2,12
1694670133972904800,3,1,9,11,-7,2,5,3
1694670133975903000,1,2,11,13,-20,-5,-2,-1
1694670133978902700,-1,-7,-21,-25,16,10,4,1
1694670133986896300,0,2,12,-32,-6,6,4,-10
1694670133988895600,-3,0,10,31,10,-4,-5,0
1694670133990893500,-4,-5,-20,14,-2,0,-5,0
1694670133994892300,0,1,5,20,-22,2,9,7
1694670134009882700,-1,1,7,-9,-4,12,0,-1
1694670134012882400,2,0,-6,-30,-21,-9,-3,2
1694670134015880500,-1,-4,-10,33,-4,-10,-2,-5
1694670134017880700,-1,2,5,-21,15,2,-2,4
1694670134018878300,-2,1,-3,30,13,0,-4,-3
1694670134021876800,-1,-1,-5,-12,-14,-11,1,0
1694670134032869800,0,-2,0,-16,-16,5,2,0
1694670134034869100,0,1,2,-7,11,-5,-1,3
1694670134037867800,-4,-3,4,41,7,3,0,-4
1694670134040867500,-3,-4,-13,-27,1,-4,-3,-4
1694670134043864900,0,2,9,5,2,3,3,-1
1694670134045862800,-1,-1,-3,-6,14,-3,0,2
1694670134056375700,-2,-2,-15,-54,-32,-4,-3,-4
1694670134058375200,-1,1,4,-8,0,4,-1,0
1694670134060374200,0,2,10,9,-5,-2,2,1
1694670134061373400,-1,-4,-13,-6,11,-2,-3,0
1694670134079237400,-1,-1,1,30,-3,-6,-4,-4
1694670134081253600,1,2,2,19,14,11,1,2
1694670134082251700,-2,0,-5,-6,4,-2,-4,-1
1694670134083251600,1,-2,-1,-7,-28,0,6,0
1694670134094244400,0,1,5,6,54,13,0,1
1694670134095245000,-1,0,-3,3,-35,-7,1,0
1694670134102240900,-1,-2,-2,41,-2,2,-3,0
1694670134104239300,-5,-5,-18,-32,-1,-9,-7,1
1694670134117302700,1,4,11,-5,-16,-5,-3,-4
1694670134120302500,-3,-2,4,29,9,-2,-4,-4
1694670134121301500,3,0,-1,-13,4,0,4,1
1694670134122300900,0,3,5,13,6,6,-1,-1
1694670134139200000,-1,-4,-10,-12,-20,-24,0,0
1694670134141218100,0,-1,-6,-33,-7,2,-2,-2
1694670134147097900,-1,1,5,24,5,0,-1,3
1694670134148117000,-1,-3,4,5,20,1,-2,-2
1694670134162243200,-2,-3,-10,34,-20,-7,-1,-2
1694670134163243500,0,-1,4,-5,3,3,2,0
1694670134165241500,0,-2,-7,-45,-5,-3,-1,-1
1694670134167240100,-1,-4,0,0,-3,-4,-2,0
1694670134177274200,-4,0,-2,9,12,-5,-3,-1
1694670134178294400,-1,-1,2,8,6,-4,-2,-2
1694670134179293200,0,-1,-8,-13,-2,0,0,-1
1694670134180292800,0,1,2,0,0,-3,-4,-3
1694670134207220400,0,-1,-7,-40,-2,7,0,0
1694670134208240700,0,1,7,9,-5,-4,1,1
1694670134210221300,-1,1,0,12,30,17,2,1
1694670134212219800,0,1,6,-6,-26,-6,0,0
1694670134213220200,0,-1,-3,3,18,7,-1,-1
1694670134216214600,-1,-2,-4,17,-4,-4,-1,0
1694670134220236000,-2,0,5,-67,6,-12,-2,-3
1694670134222213800,2,0,2,5,-13,5,2,2
1694670134237202200,0,-2,2,-8,17,-9,-1,0
1694670134239225900,-2,-1,-4,-2,-13,3,-3,-3
1694670134240224400,-1,3,2,-9,-12,-4,0,3
1694670134243199600,-2,0,-6,-3,2,3,-3,-3
1694670134260190100,0,-1,0,3,-3,-14,-1,-7
1694670134262214300,-1,-1,1,-6,3,-6,-5,-1
1694670134266186800,-1,-2,-3,8,-6,3,3,0
1694670134267185900,1,2,-1,-32,-17,-3,0,0
1694670134273205300,-1,-3,-5,9,8,10,1,1
1694670134275184100,1,3,7,-7,7,-4,-3,-1
1694670134281180200,-2,-4,-7,6,-8,-5,-3,0
1694670134283201200,-2,-2,-1,-1,-14,-6,-1,-3
1694670134297203500,0,2,1,-10,-2,9,1,0
1694670134299219700,1,-1,-1,7,6,-1,1,0
1694670134300225200,-1,-3,-4,-22,15,4,-3,-1
1694670134301224100,1,0,-2,8,10,1,5,1
1694670134319267900,-1,2,10,-5,-26,-6,-1,0
1694670134321270600,-3,-3,-9,27,8,9,0,-2
1694670134323269400,0,1,6,-3,-10,-8,-3,0
1694670134324268700,-1,-1,6,2,3,1,0,1
1694670134333289500,-3,-2,-3,14,43,6,1,-1
1694670134335266000,0,-3,-7,-32,-46,-2,0,0
1694670134340282600,1,1,9,-3,-3,6,3,-1
1694670134344263400,-1,-3,-5,6,15,0,-2,0
1694670134364228600,0,-1,-5,6,5,2,-1,1
1694670134366266600,-1,1,4,5,9,-14,-2,-1
1694670134367264800,1,0,0,10,-3,19,5,0
1694670134369241200,-1,-2,-1,3,-9,-6,-3,-1
1694670134379252200,-2,-2,-1,-6,10,6,0,0
1694670134381248800,-1,-1,0,12,-4,-4,0,0
1694670134382270400,-3,-2,-4,8,-16,-11,-6,-4
1694670134383263800,-2,-1,1,3,15,-2,0,-3
1694670134394246400,0,2,5,2,-18,2,-1,0
1694670134395263100,-1,-5,-18,-26,9,1,0,-1
1694670134408210600,-4,-2,3,-19,-10,-10,-9,-22
1694670134410205200,3,1,-2,31,-4,1,1,28
1694670134417203800,0,-1,-2,-6,-6,1,-2,-7
1694670134419199900,1,0,-3,20,5,8,9,8
1694670134420199200,2,-1,-2,-14,6,-5,-5,4
1694670134421199000,-3,2,12,35,-8,-6,1,-10
1694670134439318600,-2,-5,-13,-6,1,2,-4,-5
1694670134441317200,-2,-2,4,21,18,3,-2,-7
1694670134443316600,-2,2,2,0,9,0,3,10
1694670134444318500,-2,-3,-5,-10,-21,-5,-7,-13
1694670134453311200,1,0,1,7,-11,-8,1,5
1694670134455311800,-2,0,7,-13,6,4,-2,-8
1694670134462281400,-1,-2,-6,14,-3,-2,4,7
1694670134463280600,0,-4,-8,-22,4,1,-5,3
1694670134477314400,1,3,4,-38,-10,2,-2,-3
1694670134479337100,0,0,-2,-1,-5,-3,-3,0
1694670134480336200,0,-1,-4,34,-4,-2,-3,-1
1694670134481335800,-2,0,-4,0,4,-2,-2,-18
1694670134499250300,1,-5,-1,9,10,5,0,21
1694670134501247700,0,-2,-7,-14,-11,-4,-1,-9
1694670134505244100,-2,-1,1,-3,0,-1,1,2
1694670134506243300,0,-2,1,-34,-9,0,1,-3
1694670134513239800,-1,1,-1,-1,-12,-5,-6,-10
1694670134516243100,-1,-1,-2,3,-3,-3,-4,6
1694670134522235700,0,0,1,6,8,2,2,1
1694670134523232900,-2,-2,0,0,1,-2,-5,-3
1694670134537225500,-1,-1,-5,-1,9,1,3,0
1694670134538225400,0,0,3,-12,5,2,0,4
1694670134539224900,0,1,2,-9,-5,0,-2,-6
1694670134540223500,0,-2,0,22,20,3,-1,3
1694670134560212900,-1,-1,2,-26,-3,-2,0,0
1694670134562212100,0,0,4,14,-4,-1,0,-1
1694670134563211900,0,-1,-5,-2,-6,-1,-2,0
1694670134566213000,0,-2,-2,-6,-2,-1,0,3
1694670134573204400,0,1,9,37,-2,2,2,0
1694670134575223000,0,2,0,-12,-1,-2,0,1
1694670134582302100,-3,-7,-11,-1,3,1,-2,-1
1694670134584299300,1,1,2,3,0,0,1,1
1694670134597344800,1,1,2,-10,-14,-3,-1,-6
1694670134599347400,-2,-1,-3,10,4,-3,-3,-2
1694670134601364900,0,-3,-1,-7,-10,0,1,3
1694670134602364000,1,3,5,19,7,1,2,2
1694670134620227300,-2,0,-5,-9,-2,-1,-2,-3
1694670134622225600,-1,-1,1,4,24,0,-2,0
1694670134623224900,-1,-2,-4,-21,-37,-6,-1,-2
1694670134624225100,0,1,0,22,10,6,3,0
1694670134633224300,-1,-3,-5,-30,5,-5,-2,-2
1694670134635220900,0,0,3,3,-9,2,1,-1
1694670134648210300,0,2,1,-25,-10,-6,-2,0
1694670134649210200,-1,-3,-4,-13,-9,-7,-1,1
1694670134657254400,-1,-1,0,-7,-8,1,0,-4
1694670134658282900,0,1,6,-7,9,3,-1,0
1694670134664255400,-1,-1,-1,11,16,-7,-3,-3
1694670134667257400,0,1,0,-2,-4,9,6,2
1694670134687237900,1,1,4,-16,-9,0,-1,1
1694670134689241300,-1,-3,-3,26,-5,-4,-2,-2
1694670134690240600,-2,-1,-6,-4,7,0,-1,-2
1694670134691240000,0,-1,3,-13,6,-2,-3,-1
1694670134694238200,0,-1,-2,12,-13,-1,-2,-1
1694670134696250900,-1,-3,-6,2,2,0,1,1
1694670134702095600,-1,2,4,27,8,-2,0,0
1694670134704111600,-2,1,1,-31,6,1,-1,-2
1694670134717255100,-4,-2,-3,17,1,-2,-1,-1
1694670134718261200,-1,-1,-2,-2,-13,-3,-1,0
1694670134720260300,0,0,4,8,13,6,1,0
1694670134721259600,-2,-2,-1,14,-8,-6,-5,-2
1694670134740269600,-2,-1,-3,-1,1,1,-1,-1
1694670134743267600,-1,0,0,-4,1,0,1,-1
1694670134746264700,0,1,2,-21,-1,-3,-1,0
1694670134747267300,-2,-2,-7,24,-2,-3,-2,-2
1694670134753261000,0,0,-2,-6,11,-1,-1,-1
1694670134754261200,1,1,2,-12,-13,-2,0,0
1694670134761909600,2,0,0,-4,-9,0,2,0
1694670134762907900,-2,-2,-1,-13,-7,-2,-3,-2
1694670134777425600,0,-1,0,14,16,2,1,1
1694670134778420800,-2,-2,-1,2,2,2,-1,0
1694670134779445600,-3,-2,-5,-23,-11,-5,-2,0
1694670134780444700,0,0,6,23,-3,-4,1,2
1694670134799269700,0,0,2,8,5,4,-2,-2
1694670134801272000,-1,-3,-7,-9,3,-2,-2,-2
1694670134802295500,-1,-1,3,12,10,4,0,0
1694670134803294300,-1,-1,-2,-18,-3,-5,1,1
1694670134813257600,-1,-1,-4,16,-3,-3,-1,-2
1694670134814277200,0,0,1,-2,4,0,-1,-1
1694670134822302700,-1,1,2,16,-4,1,1,-2
1694670134824306400,0,1,1,-12,-3,-2,-2,-3
1694670134837315500,-2,-1,-5,-15,-11,-3,-2,0
1694670134840317200,1,0,-1,-29,3,0,-2,-1
1694670134841336200,0,0,-1,14,2,-1,-1,0
1694670134842311600,-3,-2,-6,-39,-4,1,-2,-4
1694670134859268200,0,1,2,10,-7,-4,-1,-1
1694670134862266500,1,2,3,9,1,2,0,1
1694670134864268000,-2,-3,-9,6,1,-2,-1,-4
1694670134866287800,-2,0,-2,6,8,2,0,-1
1694670134873261000,-3,-5,4,-13,-6,-4,-1,-2
1694670134875283800,-2,-2,-2,14,-7,-1,-2,-1
1694670134882255000,1,-2,-1,0,9,0,-2,0
1694670134884255600,-1,0,3,14,-13,-2,-2,0
1694670134897247000,-2,0,-4,-2,-6,3,-3,1
1694670134898248500,0,0,1,-4,15,-2,0,-7
1694670134900250000,-1,-4,-9,21,-18,-2,-3,-2
1694670134901244200,1,0,0,-49,-2,1,2,2
1694670134920481500,-1,-2,-2,-7,-2,-3,0,-2
1694670134921483500,-1,-2,-2,9,5,1,-1,1
1694670134923481900,1,1,9,-2,-3,-4,-11,0
1694670134924481200,-1,-1,0,15,13,5,16,3
1694670134942237100,-1,-1,-7,-7,-12,-2,1,-2
1694670134945240300,-2,0,2,-10,10,0,1,-2
1694670134946239700,1,4,10,2,-6,1,0,-1
1694670134947238800,-2,-9,-21,-15,-13,-3,-8,-3
1694670134955849800,1,2,4,-3,8,-2,-1,0
1694670134957870900,-2,1,3,2,-11,-7,0,-1
1694670134964292000,-3,-2,-6,-10,13,5,3,-6
1694670134966273500,0,2,6,59,5,-2,6,1
1694670134979904600,-1,-2,-3,-6,-39,-4,0,-2
1694670134981906400,1,-1,-3,-21,-9,1,-2,0
1694670134983901800,-3,-1,-3,16,10,0,5,-1
1694670134984903100,1,0,6,9,-6,-2,-5,-1
1694670135009267500,0,-3,-3,4,8,0,-2,-2
1694670135013269600,-2,-3,-3,4,1,3,1,2
1694670135015270500,0,1,1,-9,2,-2,-1,-1
1694670135017278100,0,2,2,-7,4,-1,-5,-1
1694670135018269100,-1,-2,-3,16,4,-1,1,0
1694670135019268700,-2,-4,-6,-15,-12,-5,-4,-2
1694670135020267800,1,0,0,-5,4,1,2,0
1694670135021268900,-3,1,0,3,11,-2,-5,-2
1694670135039245600,-2,1,0,3,-9,-3,-1,0
1694670135041248200,0,2,5,-2,-7,-3,1,-1
1694670135043250500,-3,-5,-3,6,-1,0,0,0
1694670135045245900,0,0,-6,-42,-7,-1,-2,-2
1694670135062297900,-1,-1,2,52,21,3,-1,-2
1694670135065297800,-1,-1,2,7,6,-1,0,-1
1694670135066296400,-2,-3,-5,-12,-18,-4,-4,-2
1694670135067296300,0,1,-1,-6,-2,-3,-1,0
1694670135076289600,0,3,6,6,8,3,1,1
1694670135080288200,-1,1,3,-9,-3,-3,-2,0
1694670135083286600,-3,-4,-13,6,3,-2,-3,-4
1694670135085290000,-1,0,4,17,4,2,-1,0
1694670135099276200,-1,1,0,-24,-9,-3,-4,-1
1694670135101276200,-1,-2,-3,32,-1,1,0,1
1694670135102275200,0,-1,0,-35,-6,-3,1,1
1694670135103274700,2,3,2,10,3,3,0,-2
1694670135122147800,0,-1,-7,2,2,-4,-2,-2
1694670135124154800,0,-1,-1,-11,-4,-2,-1,-1
1694670135125152700,-1,0,0,5,10,2,1,1
1694670135128154400,-1,-2,-2,1,-19,-2,-3,-1
1694670135136147700,0,-1,2,22,11,-1,2,0
1694670135138166600,0,-1,1,-5,-11,0,-2,0
1694670135145139200,0,0,4,-4,0,-4,-1,0
1694670135146162600,-2,-2,-5,2,2,0,-2,-2
1694670135159142600,1,-1,-2,5,7,4,3,2
1694670135162140400,1,1,3,-5,15,1,1,0
1694670135163140700,-2,0,-6,-14,-27,-2,1,-2
1694670135164139500,-1,-2,-1,-6,9,0,-1,1
1694670135182252500,0,1,5,-9,-28,-4,1,0
1694670135184255600,-1,-2,-9,-2,8,-1,0,-1
1694670135185253100,-2,-2,-3,20,3,-2,-3,-2
1694670135186253500,0,0,5,3,-2,-1,-1,2
1694670135196243300,-2,-1,-1,-22,4,-3,-2,-3
1694670135198244700,-1,-2,-6,-2,-18,-3,-2,-3
1694670135211235300,0,1,4,-1,-6,-1,-1,0
1694670135213234300,-2,-2,2,-2,2,0,1,-1
1694670135220232900,-2,-2,-6,-4,4,-3,-3,-2
1694670135223229200,0,1,-1,3,-8,0,0,2
1694670135226251400,0,1,3,-11,9,2,1,1
1694670135228225700,-1,-1,0,13,0,4,-4,-1
1694670135242241700,-1,0,1,-11,3,0,-1,-1
1694670135245219400,0,0,1,-3,12,3,-1,0
1694670135246215500,1,1,2,4,-12,-4,0,-1
1694670135247214100,-1,-1,-8,-11,-10,0,0,-1
1694670135255210400,-2,-1,1,5,8,1,1,-2
1694670135257210800,0,-1,3,-8,-5,2,-1,-2
1694670135264205100,-1,-3,-9,4,15,-1,-4,-1
1694670135265204200,-2,0,-2,1,-2,-2,0,-1
1694670135279198500,1,-2,3,-17,0,2,-1,3
1694670135281195800,-4,-5,-6,30,-8,-8,-3,-2
1694670135282195200,0,-1,-1,-22,1,-3,-1,1
1694670135283194500,1,4,5,19,5,0,0,1
1694670135302196300,-1,-2,-2,-9,-1,1,1,0
1694670135305192200,-2,-1,-4,-8,11,0,1,-1
1694670135307192600,1,-1,3,5,-2,5,0,-1
1694670135309190900,-2,-3,-1,-2,2,-4,-2,-1
1694670135316185700,-2,-1,-7,-5,1,-1,-1,-2
1694670135318185700,1,1,3,6,1,1,-1,0
1694670135323182200,2,-1,2,2,5,1,2,-1
1694670135324185100,-2,-2,-6,-11,-6,-4,-2,-1
1694670135347194400,0,-2,-3,-3,-7,-4,-2,-3
1694670135348209300,0,0,7,13,2,-2,0,-2
1694670135350188800,-1,0,-2,-6,6,1,0,-1
1694670135352187800,1,0,-4,-6,-23,-2,0,-1
1694670135362182000,0,1,2,26,3,-1,0,1
1694670135364184200,0,-1,-2,-22,3,0,2,0
1694670135365182400,-1,-1,1,11,0,-3,-2,-1
1694670135366181900,-1,-1,-2,-11,5,1,-1,-1
1694670135376281000,0,0,-1,-7,4,2,-2,0
1694670135378279000,0,0,2,-6,-24,-10,-4,0
1694670135382756200,-3,-3,-6,30,0,1,-2,-1
1694670135384770200,0,0,-1,-2,1,1,0,-1
1694670135399728800,-1,-2,0,11,-6,-1,0,1
1694670135401727500,-2,1,-7,-22,13,0,-3,-4
1694670135402726700,-2,4,4,-11,-4,-1,1,1
1694670135403725400,0,0,1,9,-14,-3,-1,0
1694670135422188800,-1,-4,-3,19,8,0,-2,-2
1694670135424209800,0,-5,-8,-29,-9,0,0,0
1694670135425215300,1,3,6,0,-1,1,0,0
1694670135426214800,-1,0,2,3,6,-1,0,-1
1694670135435232100,-3,-10,-16,-3,13,-1,-1,0
1694670135437206900,-1,1,8,6,-27,-1,0,0
1694670135445196700,0,0,-1,-3,15,1,-1,1
1694670135446216900,0,1,3,-31,-5,-1,-2,-1
1694670135459218000,-2,-1,1,14,1,-2,0,-1
1694670135462188200,-2,0,-3,11,13,-1,1,-1
1694670135465184700,-1,0,-6,-17,-14,-3,-1,-1
1694670135466182300,-1,-3,1,7,-1,-1,-1,-1
1694670135481315800,1,3,11,-3,-1,0,0,0
1694670135482327300,1,-3,-12,-54,-4,0,-1,-1
1694670135489285600,0,-1,-5,29,0,-2,-1,0
1694670135490310100,0,-1,8,13,4,1,-2,-1
1694670135495366100,0,1,1,-22,-5,1,0,0
1694670135497364400,-2,-1,3,24,4,1,0,0
1694670135504208300,1,0,-3,5,3,-2,-1,0
1694670135506206800,0,1,-4,-22,9,0,1,0
1694670135519263900,-3,-4,-6,14,-24,-6,0,-2
1694670135521268400,-1,0,-3,-32,-4,-2,-3,-1
1694670135522290200,-1,-2,-2,6,-5,-3,0,0
1694670135523265200,-2,-5,-15,-28,13,0,-3,-1
1694670135542190900,-1,4,16,2,-11,-2,-1,-1
1694670135546189000,1,2,5,29,0,0,0,1
1694670135547190800,-1,-3,-2,-11,-5,-1,-2,0
1694670135548190000,-1,1,-3,-3,9,-1,-1,-1
1694670135555382900,0,0,-6,-24,-2,-1,-2,1
1694670135556407300,-1,-2,5,17,5,1,1,-1
1694670135564639400,0,-2,-7,-14,0,0,-2,-2
1694670135565660000,0,1,10,36,1,1,2,-1
1694670135579222300,0,1,-6,16,-15,-3,-1,-1
1694670135581191600,-4,-7,-7,3,-1,-1,-2,-1
1694670135582202600,-1,2,3,4,-3,2,1,-1
1694670135583214600,0,1,3,-11,4,0,1,0
1694670135602270900,0,-1,-3,-10,4,0,-2,-1
1694670135603270700,-1,0,1,15,-9,-1,-1,1
1694670135604272700,-1,-4,3,-3,-3,-2,-1,1
1694670135607268500,-2,-3,-8,12,-13,-5,-2,-3
1694670135615262600,0,2,0,-15,-8,-2,-1,-2
1694670135616262700,0,1,1,5,3,-2,1,0
1694670135624715600,-2,-2,2,-11,9,0,0,-2
1694670135626712200,-1,-5,-14,-1,1,0,-2,-1
1694670135639780600,0,1,8,0,13,2,-2,-1
1694670135641781900,0,2,2,-12,-1,-3,2,1
1694670135642781400,-2,0,1,23,3,0,0,-1
1694670135643782100,-3,-1,-4,-55,-14,-4,-1,-1
1694670135662299200,-1,-5,-12,1,2,-2,-1,1
1694670135663299200,0,4,8,3,6,3,-2,1
1694670135664292300,-2,-2,-5,-37,-7,-3,0,-2
1694670135665297700,-1,-1,2,16,-5,3,1,2
1694670135675403000,-1,-1,0,-12,13,3,0,-1
1694670135678406400,0,-2,-2,18,2,-1,-2,-2
1694670135684171000,-1,-1,2,7,1,-1,1,-3
1694670135686171400,1,-3,5,18,3,0,-1,0
1694670135698163400,-4,-1,-2,-18,-14,-4,-1,0
1694670135699162600,1,1,-4,9,12,1,-2,0
1694670135707157000,1,1,2,1,4,-2,-1,0
1694670135708159300,0,0,0,6,-10,-3,1,-3
1694670135730144300,-1,-2,-1,6,11,0,-2,-2
1694670135732166800,-2,-2,-3,7,8,2,-2,-2
1694670135736141500,1,1,-1,-66,-31,-5,1,-1
1694670135738140100,-1,-2,0,1,21,2,-2,0
1694670135742139600,-1,-2,2,-12,-8,1,1,-1
1694670135745135900,0,1,3,-23,-23,-3,-1,-1
1694670135748137100,-1,-4,-4,21,15,2,-3,-1
1694670135749133700,-1,1,2,9,-7,-6,-2,-1
1694670135761170000,2,3,4,4,-24,-3,2,0
1694670135765167900,-2,-1,-2,2,8,0,-3,-2
1694670135769171300,-2,-4,-3,-18,2,-3,-1,1
1694670135772165600,-1,-4,1,18,-4,1,-1,0
1694670135782157900,0,2,1,15,16,0,0,-1
1694670135787156100,-1,-5,-8,-18,-23,-3,-1,-1
1694670135789154400,-2,1,2,24,-2,-1,0,-2
1694670135791155000,0,-1,2,6,0,0,-2,-1
1694670135796149900,0,0,3,1,7,0,-1,-1
1694670135797150400,-1,-2,-10,-14,13,2,1,0
1694670135804146600,1,2,2,-2,-4,-1,0,0
1694670135806143800,0,6,1,-2,-22,-1,0,0
1694670135821136500,-1,-1,-3,-1,6,0,0,-3
1694670135822136000,1,0,5,6,6,2,2,1
1694670135823134400,1,-2,-5,6,8,2,-2,0
1694670135824133600,-1,-1,7,-17,4,-1,1,-1
1694670135849146900,0,1,-1,13,-20,-2,-3,-1
1694670135851145600,-2,1,1,8,6,0,-1,-1
1694670135852146000,-2,1,-1,-8,-10,-4,-1,-3
1694670135853145100,-4,-5,-6,-20,9,2,-2,-1
1694670135864182700,3,2,0,-5,7,0,0,2
1694670135866181000,2,2,1,-3,-19,2,2,0
1694670135867180900,-2,-2,0,8,9,2,-1,0
1694670135869179500,-3,-3,-6,-1,6,-2,-2,-3
1694670135879171200,-4,-2,2,7,4,-1,-2,-1
1694670135882169200,-3,-3,-8,-46,-20,-5,-2,-2
1694670135884171000,0,-3,3,11,5,2,-1,0
1694670135885170300,-2,-1,1,14,-13,-2,1,-1
1694670135902161400,-1,-3,-8,-4,22,-2,-4,-2
1694670135904157000,1,-2,2,20,3,0,0,-1
1694670135905156300,-2,-6,-4,-5,-3,1,-2,-1
1694670135905156300,0,0,-1,-15,0,-2,-1,1
1694670135924224400,0,4,0,14,-9,1,1,-1
1694670135926190600,-1,-4,-7,8,22,0,1,-1
1694670135930190400,0,2,5,9,-2,-2,-2,-1
1694670135932190200,-1,-3,-5,-1,-12,-4,-4,-3
1694670135939281500,-2,-4,-2,-3,7,4,1,-2
1694670135941257800,-1,0,4,5,-4,0,-1,0
1694670135944256400,-1,1,-2,-3,-3,-5,-1,-1
1694670135946280600,1,-1,-5,17,16,3,0,0
1694670135961959700,1,1,1,-11,-12,-4,0,0
1694670135963975800,0,-1,1,5,12,-2,-1,-1
1694670135964981600,-1,-1,-7,-33,-1,0,0,-1
1694670135965980200,0,-1,1,-1,-24,-1,0,0
1694670135984207900,-1,-3,-1,-4,-12,-5,-1,-1
1694670135986213000,-1,0,1,15,10,0,-1,1
1694670135987234400,0,-1,-4,1,-8,-2,-2,-1
1694670135988232300,-1,1,-2,29,5,-2,1,0
1694670135999203900,-3,-4,1,-23,-10,-2,-2,-4
1694670136001202800,-2,1,3,11,-4,-5,-3,0
1694670136006199700,0,1,5,1,-4,1,0,1
1694670136009197600,-1,0,0,-7,19,0,-1,-2
1694670136021190500,-1,-4,-3,4,4,1,-1,0
1694670136023189400,-2,0,-4,-28,-22,-7,-3,-3
1694670136029185800,-2,-6,-7,12,2,0,-1,-2
1694670136031187000,-1,0,-6,-8,2,-1,1,-1
1694670136045280100,-1,1,1,2,10,-1,0,1
1694670136047301400,0,1,5,-2,-1,2,-1,-2
1694670136048306000,0,1,-2,10,3,1,0,-2
1694670136049305700,0,-5,-2,-18,0,1,0,2
1694670136059018700,-1,1,0,-8,-7,-2,-1,-2
1694670136060018900,0,0,-3,0,7,1,0,-1
1694670136065179200,-1,-2,-2,21,0,0,1,-1
1694670136067165200,3,1,1,-6,-4,-1,-1,-1
1694670136082224900,4,4,5,2,5,3,0,0
1694670136084227300,-4,-6,-16,1,2,-3,-1,0
1694670136085241400,-2,0,15,-6,-2,1,1,-1
1694670136087227500,-2,-3,0,9,-11,-1,-2,-1
1694670136105212300,-2,0,-11,-8,-5,-1,2,0
1694670136107208100,3,5,1,5,-4,1,1,1
1694670136109206800,-1,-2,-3,6,10,2,-3,-2
1694670136110207100,-2,-1,2,8,7,1,0,1
1694670136127196200,-1,-2,-3,-44,-2,-5,-3,0
1694670136130194900,-2,-1,2,4,4,0,0,-1
1694670136134216400,4,7,3,0,-4,-2,0,1
1694670136136193200,-2,0,-4,-13,3,-2,-3,0
1694670136142189800,-4,-5,-4,8,1,-1,-1,-3
1694670136143187400,1,2,7,1,-20,-2,0,0
1694670136146190300,-1,-2,-4,-1,-10,-2,0,-1
1694670136148184500,-1,-2,-13,-14,4,0,-2,-1
1694670136164218200,-3,-2,17,32,9,2,-1,-2
1694670136167216400,0,-4,-11,-32,3,1,-1,0
1694670136171214800,1,3,5,30,-7,-2,0,2
1694670136173217700,1,6,2,-11,1,1,1,0
1694670136179210000,-3,-5,-6,25,17,2,-1,1
1694670136181208900,-4,-4,-2,-4,-19,-7,-2,-3
1694670136186205400,0,1,-2,-6,-17,-5,-1,-2
1694670136187204900,5,5,6,1,-3,1,-1,0
1694670136204196900,-1,-1,-5,-13,-5,-3,-1,-1
1694670136206198600,-1,-5,-1,10,12,3,-1,-1
1694670136208199200,-3,-6,-2,-12,10,-1,-3,-2
1694670136209195500,-2,-2,1,10,-17,-5,0,-1
1694670136224200200,-1,2,0,-26,-5,0,-1,-1
1694670136226182000,-1,0,1,16,4,2,-1,1
1694670136227183200,-3,-4,-7,-10,-4,1,0,-3
1694670136229180900,1,-2,-2,15,3,0,-3,-2
1694670136238284000,3,-1,-9,1,14,0,0,3
1694670136240281400,1,4,11,-12,-20,-1,0,0
1694670136247277100,-1,0,-1,0,6,5,2,-1
1694670136249275700,-4,-3,-3,0,2,-1,-1,-3
1694670136262281500,0,2,4,6,-5,-1,0,-1
1694670136265280300,1,0,-2,10,8,-1,-1,-1
1694670136266278700,-1,-3,-7,-10,1,-5,-1,0
1694670136267277400,0,-1,4,2,-1,-4,-1,0
1694670136284211700,-1,1,0,3,-4,-1,-1,0
1694670136286228500,0,-3,-4,-3,24,0,-2,-2
1694670136287227300,0,1,3,-6,-27,-3,0,3
1694670136288226600,-2,-3,0,12,-4,-3,-1,-1
1694670136298226400,0,-3,-7,6,-9,0,-2,-1
1694670136300220300,-3,-4,-3,-7,11,0,-1,-1
1694670136313214900,1,1,1,-4,9,-3,-3,-2
1694670136315216400,-1,-1,-6,12,8,1,-2,-1
1694670136322208800,-1,-1,-2,8,-8,-3,-3,-1
1694670136324209000,-2,1,4,2,-1,-1,-1,-1
1694670136325208300,-1,0,-2,-12,-12,-1,2,2
1694670136326207400,-1,-3,-7,24,8,-2,0,-1
1694670136352302400,0,0,-2,-19,4,3,0,-1
1694670136353318100,-1,4,4,2,-8,-4,1,-1
1694670136354322900,-1,-5,-11,4,10,3,-1,-4
1694670136355322000,-4,-3,-2,-8,5,3,-3,-1
1694670136357745700,-1,0,1,-8,-8,-6,1,0
1694670136360746900,0,1,-1,5,-12,-1,-1,1
1694670136367123600,1,0,1,3,3,1,-2,0
1694670136368142400,0,-1,0,-27,-8,2,-1,-1
1694670136382117700,-2,-2,-8,-8,1,1,-1,-2
1694670136384113100,-5,-4,8,74,28,0,-8,-6
1694670136386113900,-2,1,-1,-71,-6,0,-3,0
1694670136387112300,1,4,15,-7,-4,0,5,1
1694670136404097800,-3,-7,-26,-17,-24,-8,-5,-3
1694670136407065300,1,0,-3,14,8,0,0,-1
1694670136409086500,0,4,18,-20,11,2,-1,-1
1694670136411062400,-2,-3,3,22,4,1,-4,-2
1694670136417879100,-1,1,-1,-15,2,0,-3,0
1694670136419916000,0,-4,-14,-9,1,9,3,0
1694670136434098000,2,6,14,73,13,-4,-2,1
1694670136436095500,-3,-4,-20,-20,-16,-7,-1,-2
1694670136442089900,0,0,9,27,36,12,3,1
1694670136444089600,1,-1,3,-11,-35,-12,-4,-1
1694670136445088100,0,-1,-1,11,25,16,5,2
1694670136446112100,-1,-1,-4,-27,12,-1,-4,-2
1694670136464172700,-2,3,17,36,9,-2,0,-1
1694670136466179200,-2,-2,-12,-18,14,-24,-12,-5
1694670136467191600,-1,-5,-14,-22,-33,13,9,1
1694670136468196700,3,7,21,-4,25,13,7,3
1694670136478875000,1,-3,0,18,-7,-9,-4,-1
1694670136479897200,0,3,-1,-20,20,13,0,1
1694670136486869000,-5,-5,-11,-7,-36,-31,-13,-7
1694670136489875400,1,0,-2,15,36,9,1,1
1694670136509855400,1,3,13,-52,-41,-2,5,2
1694670136511854200,-3,-8,-24,-55,25,-36,-9,-3
1694670136513856600,2,2,20,50,-24,24,1,2
1694670136515852400,2,0,1,-18,15,31,13,4
1694670136523846500,2,5,16,39,-22,1,1,-1
1694670136525845500,-1,-9,-28,-7,-43,0,3,-3
1694670136527845600,0,1,-5,-17,-5,-11,1,1
1694670136528844400,-4,-6,-12,-53,-42,-14,-12,-5
1694670136537887100,-1,-3,7,7,52,-7,8,3
1694670136539890600,6,10,30,58,-43,32,17,6
1694670136547286600,-4,-9,-19,-29,58,-4,-13,-6
1694670136548304000,1,0,1,49,-60,-27,12,2
1694670136563087100,-1,-1,-12,-32,10,9,0,-4
1694670136565110000,-2,-2,-2,-45,95,-25,-7,-3
1694670136568085700,-1,-2,-7,67,-53,-39,5,0
1694670136569085300,4,10,-5,14,117,67,14,6
1694670136584219300,-3,-3,15,-39,23,-46,-20,-6
1694670136586215200,-1,-3,-4,7,-44,-25,-3,-1
1694670136587214100,-1,2,1,-6,14,12,0,-4
1694670136588213400,4,0,-4,26,-69,15,21,10
1694670136598211300,-5,-5,-18,-11,68,8,-17,-8
1694670136600206300,-3,-7,-13,12,-100,-21,-3,2
1694670136607098000,3,2,33,-51,127,23,1,2
1694670136608115700,-4,-3,-2,33,-41,-28,-3,-3
1694670136630129500,2,1,3,19,40,33,19,6
1694670136633132400,-3,2,7,-43,84,13,-17,-8
1694670136636128900,-6,-2,-3,5,-64,-30,-13,-5
1694670136638124700,-4,-11,-25,-48,77,-34,-5,-2
1694670136644153300,-3,0,5,-42,89,26,-18,-8
1694670136647119700,11,16,10,89,-82,12,31,13
1694670136650141000,-2,-5,-28,-23,64,21,2,-1
1694670136651140700,-8,-8,-17,-22,76,-8,-37,-16
1694670136658272900,-2,-1,-11,17,-12,0,4,-1
1694670136659272100,-2,1,19,-17,-8,-4,-13,-2
1694670136667265700,10,9,-2,-7,-29,23,18,8
1694670136668267700,5,2,13,28,-109,-9,12,7
1694670136682030800,-2,-4,-23,-14,-39,-19,-3,-1
1694670136684034100,-1,4,29,49,27,45,2,-1
1694670136685033200,-2,-4,-4,15,-74,2,5,2
1694670136686033000,0,2,12,8,-55,-18,-1,0
1694670136704091400,4,3,-7,1,-63,-13,12,5
1694670136706108200,-5,-12,-25,-19,21,2,-7,-4
1694670136711087700,-7,-4,14,-3,4,-26,-18,-7
1694670136714093300,-2,1,25,-7,11,13,-2,-3
1694670136717855700,2,1,-10,31,-70,-4,-3,3
1694670136719876800,-1,1,12,-17,32,6,5,1
1694670136726858600,-4,-5,-8,14,-17,-10,3,-1
1694670136729852100,-3,-4,-16,-11,77,21,-8,-5
1694670136741269900,0,-1,-18,-5,-37,-15,2,0
1694670136745267400,-3,-3,10,2,5,-6,2,-2
1694670136748265700,1,-2,-2,18,11,7,-3,2
1694670136750266000,-1,6,-7,-24,19,-6,-5,0
1694670136772301100,2,10,20,-1,-9,0,2,0
1694670136773300900,0,-9,0,-5,-2,1,0,-2
1694670136776308600,1,6,-8,-18,29,-6,-3,-2
1694670136777298700,-8,-18,-7,7,-6,-4,-3,-3
1694670136788291700,-1,0,8,13,-2,6,1,-2
1694670136790291000,5,1,-22,-12,19,2,6,5
1694670136793288900,2,2,2,4,13,-3,-5,0
1694670136794312200,2,6,19,-2,-16,-12,-2,-2
1694670136800340000,-3,-7,-15,11,-1,7,-1,-5
1694670136801364600,-4,12,-13,-21,14,2,-2,1
1694670136816212700,-4,-27,-5,-2,-3,-4,-2,-9
1694670136818214400,1,20,1,7,-11,-5,-2,4
1694670136824209200,0,-8,-17,-8,15,2,-3,-4
1694670136826207500,-5,-2,11,0,5,0,-4,1
1694670136827206800,6,8,17,4,-2,1,3,1
1694670136828206100,-6,-8,3,0,-1,-2,0,-3
1694670136846285000,1,9,-8,3,10,4,-1,1
1694670136847283400,2,-12,-6,-9,9,0,-1,-3
1694670136848285300,-13,-4,-13,-8,9,-9,-7,0
1694670136849284900,5,5,-5,5,-22,-2,-3,-4
1694670136860331400,1,-2,18,4,-21,-8,4,5
1694670136863298100,-2,1,-6,-3,-2,4,2,-2
1694670136876291200,-1,0,1,-4,31,5,-2,-4
1694670136877290600,-3,-14,-10,-6,19,-1,-5,-1
1694670136885285700,3,15,15,-3,-12,-12,-6,-4
1694670136887307900,0,-3,3,8,-37,12,7,1
1694670136889307700,0,4,0,6,-8,-4,3,1
1694670136890300000,-5,-13,1,-6,-6,-2,1,0
1694670136907069200,-3,-10,4,10,14,7,1,-3
1694670136908073300,6,5,-5,-11,8,-3,-4,2
1694670136909072500,3,-2,8,2,-7,-2,2,1
1694670136910071700,1,8,-6,2,-16,-2,1,3
1694670136921192800,-5,-6,-7,-7,16,2,-3,-1
1694670136922216800,-5,22,12,-1,11,-3,-7,-25
1694670136928188700,0,-14,-3,3,-5,7,4,2
1694670136930190000,3,1,-1,-4,11,-5,-2,-1
1694670136944078400,-3,-6,2,4,5,2,1,2
1694670136946076000,-6,-11,-4,-4,10,-3,-3,2
1694670136947074700,-5,16,-5,3,17,5,-4,-44
1694670136948074400,13,-4,-1,-4,-16,-4,12,79
1694670136967031700,-3,0,-3,2,4,2,-1,-19
1694670136969032300,-3,-8,-5,-1,-5,-4,0,4
1694670136970053200,-5,-3,5,-1,3,-1,-3,-10
1694670136971052100,-8,-12,4,-10,16,-3,-4,0
1694670136980274400,5,24,9,18,11,15,5,-6
1694670136983240800,13,19,12,-5,10,-5,-1,12
1694670136987879700,-5,-8,5,-6,-26,-11,-7,-9
1694670136989912700,-13,0,-4,1,5,5,0,-31
1694670137003336200,9,7,1,-2,-10,0,5,27
1694670137005316900,-2,-10,-2,1,4,0,0,-11
1694670137006312700,13,4,-4,-2,-10,0,4,24
1694670137007336800,-7,-9,-5,7,-2,-2,-7,-17
1694670137026174700,-14,-21,-3,-12,-11,1,3,-3
1694670137028197600,4,13,3,3,-2,-2,0,9
1694670137030172900,12,10,-10,2,6,10,7,27
1694670137032173300,-1,-3,-6,-1,8,-3,-2,-9
1694670137040339100,-3,-3,6,-3,-10,-5,-7,-22
1694670137041363600,-4,2,-4,-2,7,2,-2,17
1694670137048340200,-11,-22,-10,-5,11,-1,-3,-9
1694670137049360600,4,29,15,3,-44,-4,1,-12
1694670137064104600,5,-4,8,1,12,5,2,18
1694670137066105700,-5,-24,-12,-9,17,1,1,3
1694670137067106000,-1,7,5,-1,-46,-23,-6,2
1694670137069104200,7,26,12,23,19,17,6,-14
1694670137086429800,-2,-9,-7,-10,5,-4,-2,-5
1694670137088243300,0,-12,10,3,-7,-1,-3,-10
1694670137094050900,-1,0,10,-8,0,-5,-10,-11
1694670137096048500,-22,-4,-12,-7,0,-14,-9,-8
1694670137109085700,-10,1,-1,-2,-10,-3,4,17
1694670137111092200,0,12,1,-2,12,8,-3,-16
1694670137113089100,-5,29,-11,-1,9,6,15,7
1694670137114112800,-31,-11,-7,-2,-7,2,-5,0
1694670137123232900,-37,-30,-4,9,9,-14,-12,-16
1694670137125232100,-9,28,-3,-13,-27,-4,-2,12
1694670137128227400,91,3,-14,13,13,-4,8,8
1694670137131227300,16,10,-1,-9,-5,16,8,-3
1694670137146217900,-19,-41,-10,-6,-1,8,-3,0
1694670137147218000,29,6,1,-3,-9,-6,-6,-39
1694670137153212600,-13,-62,-5,0,-9,3,3,33
1694670137155212800,32,-34,-3,-10,10,-9,-3,13
1694670137160210800,30,32,0,2,3,-1,-3,-22
1694670137164210600,-12,-35,-15,-5,-9,-12,-3,19
1694670137168209000,-16,18,12,2,10,9,-6,-15
1694670137169225300,-26,-2,1,10,9,9,17,17
1694670137183256800,-84,-28,-6,2,-1,-5,-7,-32
1694670137185255400,61,34,9,12,9,7,6,14
1694670137186254300,-18,13,-2,-6,-2,-9,-10,8
1694670137187253900,-39,-25,-12,-24,-12,-9,-9,-15
1694670137207246400,-60,35,9,15,24,6,4,-12
1694670137208255900,-11,-52,5,0,-5,1,19,12
1694670137209242400,-32,3,-2,-3,5,17,2,-16
1694670137210241500,35,1,4,8,5,7,14,-17
1694670137220235600,40,0,-13,-8,-4,0,6,31
1694670137222234500,43,32,2,-11,-15,-19,-14,10
1694670137228230400,-57,-6,-10,-7,-6,2,3,-28
1694670137230229700,1,-40,-7,8,12,0,-11,-7
1694670137243246600,23,-10,10,3,-7,-7,5,8
1694670137246221000,-35,2,1,-13,-1,9,0,-23
1694670137247220200,-1,-18,-4,17,6,-7,2,-1
1694670137249218700,20,41,2,-3,-3,-10,-4,20
1694670137266210300,-44,-6,1,-9,-6,9,0,-15
1694670137269209100,-31,-16,-8,11,1,-6,-7,-16
1694670137272206600,4,14,2,-14,-2,9,2,-2
1694670137275205400,46,12,2,1,-5,-4,3,36
1694670137281200900,46,-6,1,17,10,-5,-8,-5
1694670137283199400,-28,14,-23,-17,-11,-3,4,16
1694670137289198000,-8,4,12,19,-1,-8,-10,-1
1694670137292195400,-9,3,-2,-17,-21,-11,-15,-14
1694670137306187100,-4,13,-10,-16,-20,-16,-8,4
1694670137307185900,-12,11,-3,12,10,4,4,0
1694670137309187000,40,-9,-2,-6,1,-4,-12,-1
1694670137311186600,21,28,10,-2,-15,-1,8,19
1694670137334196300,-10,20,-10,-16,5,-1,-8,-10
1694670137337194200,-76,-12,12,-26,-22,-16,-13,-40
1694670137337194200,80,11,22,60,13,5,13,86
1694670137339193400,-29,3,-15,-46,-12,-13,-18,-50
1694670137348187300,9,0,12,30,30,21,2,7
1694670137350187200,13,11,5,2,6,-3,5,7
1694670137352192800,-50,-23,-25,-57,-17,0,-4,-42
1694670137354185800,62,-1,12,37,4,-2,11,29
1694670137363074500,36,4,27,24,-19,-6,-1,29
1694670137365073400,-32,-32,16,14,53,38,10,-4
1694670137367072200,-1,3,-24,-3,-4,-7,2,-8
1694670137368071000,-28,-15,19,3,13,-1,-15,-15
1694670137386033200,9,1,14,21,0,1,9,7
1694670137388037900,28,-31,-53,-26,-42,-20,-11,-2
1694670137389037200,-6,25,17,-14,-6,20,24,12
1694670137390036600,-9,-4,3,-59,14,14,4,11
1694670137408167300,2,-1,-30,-18,-37,-28,-16,-18
1694670137410121600,6,-8,-8,-28,52,17,0,3
1694670137411120300,0,0,25,-25,-79,-49,-11,2
1694670137413119500,-8,9,-3,41,37,17,0,-15
1694670137432164400,19,0,-31,7,46,6,4,7
1694670137434163900,6,7,64,71,54,54,19,-3
1694670137435163100,-9,-10,8,-81,-1,7,2,4
1694670137436162600,-18,-19,-34,-21,-21,-5,-6,-14
1694670137447155900,12,8,68,25,-1,5,4,5
1694670137450156400,-3,-2,22,-20,-83,-68,-34,-8
1694670137451157000,-11,-1,-37,2,17,5,-2,-17
1694670137452156700,-8,0,44,-20,-34,-10,1,5
1694670137468166900,13,-1,23,-9,2,0,10,10
1694670137470145200,5,4,-19,-42,-79,-29,-14,-3
1694670137471166000,-6,-7,35,126,-103,-17,-4,-13
1694670137472165400,-4,-2,31,-29,46,57,18,7
