timestamp,EMG_s0,EMG_s1,EMG_s2,EMG_s3,EMG_s4,EMG_s5,EMG_s6,EMG_s7
1693678098042503900,-13,-28,-97,-109,0,-25,-11,-8
1693678098044502400,1,5,43,-41,-8,-9,4,3
1693678098048501000,-4,-4,0,-77,76,15,-3,-2
1693678098052498100,12,29,48,-36,-33,32,3,5
1693678098054496800,-14,-42,-88,-54,21,27,17,-6
1693678098056495800,8,25,63,89,-38,-67,-8,-1
1693678098058495600,-10,-20,-64,-37,21,27,-22,-7
1693678098059495000,-4,-13,-68,-112,-24,-70,-2,-3
1693678098060494200,-2,-14,-41,84,70,24,-2,-4
1693678098061494200,-5,-11,-65,-52,75,9,7,-2
1693678098065490700,0,-1,-13,-87,4,22,0,-5
1693678098069488800,-22,-55,-128,-36,79,93,4,-9
1693678098077484400,16,49,39,27,-128,51,19,8
1693678098080483100,-1,-12,-27,89,35,37,-59,-6
1693678098085478800,8,43,99,51,-57,-70,-30,-5
1693678098086478900,2,-5,-25,-128,90,74,15,1
1693678098117483600,-9,-2,44,15,19,-64,-20,-10
1693678098119481800,-8,-25,-42,-8,-6,-18,35,0
1693678098121482800,10,36,75,127,-74,77,-16,3
1693678098123480600,8,19,22,-41,-48,-62,-8,2
1693678098125479300,-18,-49,-128,-108,9,48,10,-5
1693678098127477700,11,31,59,104,-40,-44,14,9
1693678098132475300,11,27,17,-4,41,58,-4,2
1693678098135474700,-10,-28,-112,-67,82,34,4,-3
1693678098144469900,7,2,-33,-40,-2,20,5,4
1693678098145467200,-4,-4,-9,-26,-55,-22,-11,-4
1693678098184509800,-6,5,5,8,-18,11,-5,-4
1693678098186507900,-2,-1,5,3,-2,16,5,0
1693678098188505600,-4,-8,3,1,8,27,7,0
1693678098189504800,4,11,14,4,-27,-12,-23,-3
1693678098191503900,0,-2,3,6,14,-1,2,-1
1693678098192502700,-1,0,4,3,1,2,0,-1
1693678098194503700,3,1,2,-1,-10,-7,-9,-12
1693678098196501500,0,-1,-2,1,19,10,7,23
1693678098200500800,-16,-3,1,-3,-3,-6,34,-13
1693678098201500100,-11,-7,-3,0,-7,-15,-61,-17
1693678098203499300,-21,-5,2,-4,-1,-5,13,-5
1693678098205497500,-106,4,11,10,4,0,-23,19
1693678098211492800,110,1,3,2,-4,-3,-10,-15
1693678098214491100,-81,-2,-5,-1,-1,3,18,-34
1693678098220488600,100,4,-10,-9,-7,-22,-38,95
1693678098222486200,-104,-9,8,7,6,12,32,-19
1693678098234479300,94,9,-2,-8,-4,-7,-21,111
1693678098236480600,-14,5,3,1,9,6,-12,-97
1693678098250173500,40,0,6,7,-1,4,17,31
1693678098252175600,-7,4,-3,-6,-5,-9,-21,78
1693678098253172100,-9,-17,-8,-7,-4,-8,-4,-94
1693678098255171200,-9,-12,-1,0,0,1,32,6
1693678098272159700,-106,5,7,4,-1,-8,-12,-65
1693678098274159400,-9,-12,-2,0,0,3,40,57
1693678098275158600,49,15,4,2,1,-5,-43,22
1693678098277159500,-14,6,5,-1,-5,0,-22,-44
1693678098286916200,-97,0,3,9,6,15,1,54
1693678098287915900,116,-6,-17,-10,-8,-13,-16,-128
1693678098294912200,-113,-4,0,-4,-1,3,44,127
1693678098297910900,71,19,5,4,-1,-5,-33,17
1693678098309903000,-46,-16,1,0,2,-7,6,-11
1693678098310902600,-67,9,0,2,2,8,2,-52
1693678098311902100,72,2,-3,0,5,10,-3,47
1693678098316902300,10,-7,-3,1,0,-6,46,55
1693678098333511700,-29,1,1,-1,-5,0,15,46
1693678098335512500,86,-3,1,6,1,2,0,-101
1693678098336509600,-67,6,4,1,-1,0,-11,-24
1693678098337508700,-46,2,0,-3,2,-2,23,-1
1693678098354202400,12,-8,-5,-6,-6,-6,-28,1
1693678098356200500,82,10,7,3,5,-10,27,49
1693678098362195500,-79,-9,-3,3,3,-1,-21,-72
1693678098368192600,36,5,2,-2,4,22,-6,67
1693678098370191100,-35,12,-2,-6,-18,-79,21,-25
1693678098372189500,4,-15,-6,-10,-4,13,-38,6
1693678098373188800,-128,-43,1,8,11,20,4,-85
1693678098374188300,69,17,-13,-7,-1,-4,-7,68
1693678098392179500,-27,-1,-2,-8,-6,35,53,47
1693678098394177700,-64,-6,-4,-4,0,-12,-44,-55
1693678098397176200,18,-9,-2,-9,-13,8,58,1
1693678098401174400,-51,-3,-4,5,9,30,-34,-18
1693678098408169400,-17,-25,2,7,4,3,-69,-80
1693678098410168400,49,28,-11,-12,-20,-31,2,127
1693678098416167600,-14,4,-4,-10,-7,0,32,29
1693678098418163800,-65,-70,5,14,6,27,38,42
1693678098434155700,103,96,0,-2,3,12,-3,-74
1693678098436153300,46,-61,-2,-3,2,-66,-45,127
1693678098438156100,-36,66,10,0,3,-14,21,-128
1693678098439153400,-56,-26,10,18,12,4,-64,19
1693678098454144100,114,34,2,-1,0,-5,35,88
1693678098456142600,-63,63,8,9,15,-12,119,-106
1693678098457141800,76,-51,-34,-28,-33,-18,-71,127
1693678098460140500,95,83,19,0,24,49,-19,-65
1693678098467139000,-64,-122,-15,-12,-25,-19,-24,-33
1693678098469134100,71,121,-9,-10,7,28,-116,-53
1693678098475130900,-40,-47,14,27,50,45,-3,-94
1693678098477131000,-118,-102,-12,-18,-27,-45,104,14
1693678098489125900,102,53,4,9,-6,-14,-57,-21
1693678098491122900,61,15,-4,-24,-25,13,75,-78
1693678098492122800,-11,13,15,33,40,27,-59,-112
1693678098493123200,48,29,-9,-29,-45,-59,-18,3
1693678098512109400,-128,-58,1,14,29,22,1,-105
1693678098517109100,-14,-93,-2,-11,-19,-8,-11,-14
1693678098519107600,21,67,17,30,16,-1,60,56
1693678098521105200,-34,24,2,-40,-33,-19,51,-128
1693678098526102500,-13,-27,1,2,-3,-9,-15,-9
1693678098528101100,-19,-26,-6,0,5,1,0,-4
1693678098534478100,-91,-37,-9,4,7,3,113,-97
1693678098536474900,55,43,-23,-25,-30,-42,12,42
1693678098550186100,44,32,19,9,18,38,55,18
1693678098552194300,-50,-23,-3,-11,-12,-8,-2,10
1693678098553183700,60,-40,-25,-32,-27,0,4,127
1693678098554184300,-72,4,8,30,20,-39,-15,54
1693678098572515700,-9,-1,-10,6,26,50,11,-19
1693678098573517000,2,30,14,11,-20,-2,-74,-28
1693678098575515200,-29,-30,-7,-3,-16,-29,-6,79
1693678098576514500,28,-10,4,-2,-9,-60,-26,-85
1693678098587476300,-75,-6,-26,-36,-59,-51,-78,20
1693678098589479200,-20,-34,2,21,26,21,41,31
1693678098594473400,67,49,0,0,2,19,-87,-64
1693678098598470300,-15,18,22,22,13,71,92,-18
1693678098609463900,-53,-8,1,3,6,-12,-14,-76
1693678098611465300,-23,-11,-8,-9,-7,-8,-7,2
1693678098615461400,33,20,9,-2,-18,-28,-6,-122
1693678098619458600,-8,-1,-5,-3,-29,-27,-27,38
1693678098632468800,2,-20,-7,4,10,33,20,-10
1693678098635468000,-47,-17,-3,14,40,46,24,27
1693678098637465300,15,31,21,-3,-23,-43,-6,22
1693678098638463900,32,8,16,29,39,33,-45,-9
1693678098648459800,33,12,12,3,-16,-27,37,62
1693678098651457900,0,-5,-16,-14,-6,-20,-11,-2
1693678098654454900,-36,-13,-20,-39,-35,-37,-24,-1
1693678098656454700,1,-25,-25,-23,11,1,-14,1
1693678098669447000,27,33,17,5,-1,16,7,9
1693678098671446600,-2,2,17,26,18,32,21,2
1693678098673444500,-27,-27,-15,1,16,8,-13,-2
1693678098674445400,-9,-11,-9,5,21,46,2,10
1693678098692433200,36,21,10,3,7,8,16,12
1693678098693435100,-11,-4,5,8,8,4,-7,8
1693678098697431800,-12,0,0,0,-6,-11,4,23
1693678098702428200,20,4,-1,10,18,18,-16,6
1693678098706424800,-1,-6,-13,-4,13,-16,-5,-6
1693678098708424000,-7,12,29,20,-19,-2,11,3
1693678098715420400,1,18,1,-19,-19,2,-6,9
1693678098718423000,-8,-16,-14,33,34,12,-4,-3
1693678098737407000,3,4,10,-22,-20,18,10,-2
1693678098739405700,-21,-19,-36,-76,-4,5,-3,-3
1693678098740407800,5,11,21,29,-11,-30,-7,8
1693678098742405300,-13,-23,-33,11,0,3,-14,-1
1693678098752402300,-1,-6,10,77,32,21,3,6
1693678098753399200,8,9,-10,-23,12,29,13,7
1693678098755397900,-6,3,-7,-12,66,20,4,7
1693678098756397100,2,-1,17,-4,-80,-26,-8,-1
1693678098766391300,-4,-9,-28,-52,2,-28,-14,-8
1693678098768404200,-2,-1,15,34,4,19,2,-1
1693678098774386900,-9,-7,-12,68,31,-38,-1,-1
1693678098776385700,1,4,-4,-43,-27,64,3,4
1693678098790377500,1,-9,-11,8,-41,-33,2,-1
1693678098792376200,-1,0,-8,36,42,-5,-1,2
1693678098793379200,1,8,19,-39,-31,-10,-9,5
1693678098794376600,7,11,30,33,4,-15,1,3
1693678098812367400,-5,-17,-25,15,11,9,-1,-4
1693678098816366800,0,4,-2,-60,-30,29,8,2
1693678098819360900,-11,-16,-29,38,63,68,7,2
1693678098821360500,2,8,8,-4,84,-32,-13,-3
1693678098835351500,7,19,37,-67,7,31,-1,3
1693678098837351400,-5,-4,23,38,-67,-10,8,3
1693678098839350100,2,-2,-7,-47,-30,30,0,0
1693678098841348700,-3,-11,-47,-9,35,-12,0,1
1693678098851343500,-6,-9,11,19,-50,-31,-1,-3
1693678098853342200,-8,-13,-59,-88,127,49,-6,-6
1693678098856339700,14,24,93,40,-110,-10,10,9
1693678098858338000,-4,-6,-14,48,30,-10,0,0
1693678098872330600,0,0,-7,-8,-27,20,-8,-5
1693678098873330100,-1,-3,4,-44,-47,-39,-2,-1
1693678098882326700,-6,-6,-23,47,47,14,-4,-3
1693678098885324800,-5,-12,-35,-82,52,1,0,0
1693678098895317000,19,33,87,96,-58,4,10,10
1693678098900318600,-2,-3,2,-7,28,-19,-7,-3
1693678098902315800,0,-10,-15,-11,-33,-8,0,-1
1693678098903316900,0,3,16,-33,11,15,6,2
1693678098909311200,-8,-9,-31,-79,-48,7,-3,-5
1693678098911308200,7,15,16,20,70,-10,-3,1
1693678098912307600,4,9,32,26,-20,-2,4,4
1693678098916306400,-6,-11,-48,-101,19,-14,-6,-3
1693678098932296300,4,3,21,55,-15,18,5,3
1693678098935294800,-4,-3,3,35,-24,-18,-1,-2
1693678098939292200,-11,-21,-90,-128,61,14,-4,-7
1693678098941291400,5,3,47,92,-68,-1,-3,4
1693678098955281700,-3,-4,9,88,34,-20,-4,-1
1693678098957282500,3,6,7,-32,-90,-1,1,3
1693678098959281600,1,4,-6,-78,3,-5,-2,1
1693678098960280000,-2,-6,-26,36,18,7,-3,-5
1693678098969275700,0,1,11,53,0,-17,3,2
1693678098971274900,-4,-6,-3,-72,-63,-41,-5,-2
1693678098973273200,-7,-20,-40,-87,22,36,2,-2
1693678098975272000,-2,8,21,-37,-116,-48,-2,-1
1693678098992261000,-2,13,30,75,5,-62,-11,-1
1693678098994262200,-6,-16,-73,-20,-4,-23,-12,-7
1693678098998259000,-9,-12,-76,-23,94,8,-12,-9
1693678099002256700,10,18,58,-34,-30,32,13,7
1693678099016249700,-12,-26,-58,-128,10,-4,-8,-8
1693678099019249200,-5,-9,-45,42,84,36,0,-3
1693678099021244800,12,24,70,52,-86,-61,4,9
1693678099022244700,-4,-12,-47,-125,60,47,0,-6
1693678099030240400,-6,-27,-110,-128,46,127,19,0
1693678099034244400,-5,2,25,46,83,-38,-22,-8
1693678099037235800,-4,-7,-59,-122,76,18,4,-1
1693678099039235300,16,35,108,127,-128,-6,11,9
1693678099052228800,15,26,50,-12,23,15,4,6
1693678099054225900,0,-6,-29,-44,43,-30,0,1
1693678099055226200,-12,-16,-29,-2,67,34,-4,-6
1693678099056225900,1,1,5,27,-93,-92,-9,-1
1693678099075215200,-7,-23,-63,-127,103,95,11,-4
1693678099077212600,0,3,-1,-59,24,-45,-5,-1
1693678099078213500,2,8,-17,-68,-48,-90,-18,-4
1693678099080211600,-3,-8,-61,-17,107,39,-2,0
1693678099089206300,6,6,30,-28,-51,-4,5,5
1693678099090207700,-2,-14,-51,-109,-16,7,12,2
1693678099100202700,4,14,68,35,-100,58,6,1
1693678099102199900,-7,-13,-38,-80,35,-46,-4,-5
1693678099112194000,-8,-5,-13,36,-21,-47,-7,-4
1693678099117193700,12,28,41,107,-14,48,6,5
1693678099120189100,4,3,24,84,16,7,7,4
1693678099121187500,-4,-8,8,2,-8,6,-3,-2
1693678099142333000,-11,-18,-77,-88,55,-5,-9,-7
1693678099145331400,14,39,95,103,-128,-28,4,8
1693678099150330500,2,-3,-24,-62,5,-4,1,0
1693678099151328200,0,5,43,-9,58,18,-6,0
1693678099166319200,2,-2,2,-40,16,-23,-4,-1
1693678099168319200,-6,-11,-10,-21,-12,3,1,-3
1693678099170318800,-2,-1,11,27,-17,1,-2,-1
1693678099172316700,-1,1,11,37,-5,8,3,1
1693678099173315700,3,4,-6,5,16,-25,3,1
1693678099174315000,-2,-4,17,-1,-31,-3,-9,-5
1693678099182325600,0,-2,24,42,-11,-8,2,1
1693678099185323900,-8,-14,-54,-59,23,10,-9,-4
1693678099194319700,-4,2,21,47,-9,-13,0,-3
1693678099198317100,0,-4,-10,-12,11,12,5,0
1693678099201315100,-5,2,8,12,-7,5,2,-43
1693678099203313400,3,1,-4,-8,-11,-4,13,65
1693678099218306900,-19,-1,9,12,-2,-12,-24,-20
1693678099220303600,12,-6,9,1,-10,17,3,-55
1693678099221302800,-24,-16,-4,-18,7,-4,-7,-57
1693678099223301700,-7,29,1,-4,-7,13,5,82
1693678099232297400,-71,-4,5,16,4,19,20,-41
1693678099235295300,10,-43,-20,-31,10,-35,-8,117
1693678099240292500,-45,8,-3,3,-10,-7,-30,-90
1693678099241292100,-71,1,6,1,16,26,12,-25
1693678099256282400,124,6,-7,-1,-15,-76,-7,98
1693678099258282200,-45,9,4,-6,-2,8,13,-40
1693678099261279500,-65,-40,-4,1,3,42,22,34
1693678099264279900,-1,0,1,-3,-4,-33,5,79
1693678099278269700,-4,-10,-2,-1,18,80,-27,-98
1693678099281269500,69,32,-6,-23,-50,-83,-22,48
1693678099284267200,68,4,7,11,4,36,2,-10
1693678099286265500,-57,-22,-28,-30,-9,-60,-15,-102
1693678099300256400,31,-6,-1,-3,-36,-112,-74,86
1693678099303257400,-5,-10,-6,0,37,95,54,1
1693678099304255500,-26,10,1,-6,-35,-4,-6,22
1693678099306253500,61,6,2,2,15,80,-9,-54
1693678099315249400,-49,-29,-15,-14,-29,43,-56,49
1693678099318255600,-36,7,10,2,-7,48,16,-75
1693678099321246200,1,2,6,8,27,55,21,126
1693678099323244200,-23,-4,0,-2,-13,-32,2,-110
1693678099345279900,18,13,5,10,13,40,30,-108
1693678099351278400,48,-3,-2,0,17,-12,-15,22
1693678099353276700,-112,-6,6,5,7,-1,23,25
1693678099355275400,11,-9,-7,-3,-3,0,-25,-62
1693678099360271700,-4,12,2,4,11,9,59,39
1693678099364271200,20,4,1,1,-5,-11,-31,-29
1693678099368268500,32,0,-4,-6,-9,-118,-5,94
1693678099370266800,42,-6,-6,-7,-3,14,5,31
1693678099375264100,-14,12,5,6,5,-22,33,38
1693678099378262800,-37,-16,3,2,-7,19,8,-101
1693678099383261000,86,14,1,0,5,54,-1,47
1693678099385257000,-53,-2,-3,-5,-1,2,4,101
1693678099399250600,-60,6,-1,2,2,14,8,-62
1693678099402251100,71,18,-3,-5,0,8,-37,-12
1693678099404247300,74,9,0,-1,2,-25,15,8
1693678099405247000,-65,-12,0,-1,-4,16,9,23
1693678099420485800,38,-14,-5,-4,0,-1,-18,90
1693678099421484800,13,-2,13,9,9,22,28,92
1693678099423483800,-11,5,-7,-6,-6,-21,7,-82
1693678099424484000,41,-7,-5,-4,6,26,-38,-75
1693678099434265000,-27,11,4,4,4,-20,-6,-66
1693678099435263900,-40,-15,-9,-7,-5,-59,22,111
1693678099450351000,-50,-29,3,4,3,39,5,-3
1693678099453348700,59,28,8,3,-14,-101,7,-22
1693678099457346700,79,33,-4,-7,-5,60,0,-64
1693678099459345200,-72,-37,-2,1,1,11,-1,66
1693678099460345000,63,17,5,2,0,37,-5,-96
1693678099463343100,-106,-8,-2,1,3,4,45,2
1693678099482943600,-82,-67,-5,-1,1,-36,75,-60
1693678099485938400,49,80,11,1,-4,-8,-70,-64
1693678099487939800,76,63,3,6,10,17,71,127
1693678099488937700,1,-54,-6,-6,-5,-27,-8,-3
1693678099494932900,-42,-21,-1,1,2,-19,-14,0
1693678099499935700,-27,-20,-4,2,12,8,38,-64
1693678099502931700,-14,24,4,5,-2,-15,-94,-27
1693678099503933300,-21,-36,-25,-20,-7,19,11,-23
1693678099518921100,19,19,9,10,3,-15,-17,-3
1693678099520920800,-4,-31,-8,-5,-2,8,22,37
1693678099521920400,-7,15,-6,-5,6,2,-6,-23
1693678099522919500,23,26,14,27,14,10,10,44
1693678099550391000,49,-14,-19,-34,-14,6,11,-29
1693678099553391500,-64,25,7,1,0,46,11,-39
1693678099554387500,-42,-45,-16,-20,-20,-50,-71,35
1693678099556387300,88,1,1,7,0,33,4,65
1693678099558386200,-36,7,7,-7,4,-62,-7,15
1693678099559385300,-51,5,-2,9,12,4,21,5
1693678099569382900,16,-19,5,34,1,-7,10,-1
1693678099570379200,-12,6,-13,-4,-27,-2,-5,0
1693678099578375400,18,45,36,6,28,-9,-16,43
1693678099581373300,-23,-35,-12,-14,31,17,-5,8
1693678099584371500,14,8,9,15,-15,-12,10,-25
1693678099585370000,-42,-6,0,7,0,25,-10,18
1693678099600361700,33,-5,-51,-16,-27,25,37,105
1693678099603360800,9,-12,-66,-28,-4,-17,-10,9
1693678099604360300,-37,8,87,88,10,-1,10,-25
1693678099606358700,21,24,-24,-1,-22,-16,-21,-15
1693678099622350300,7,29,20,-14,-16,23,18,30
1693678099625348500,-79,-5,-22,28,2,57,-17,-5
1693678099632344800,-15,-33,-46,-45,-9,-14,1,13
1693678099636340400,-6,-24,-70,-8,-1,-34,-2,10
1693678099646337600,16,15,91,-30,-2,20,-16,1
1693678099649857400,3,-6,-8,17,8,32,15,-8
1693678099651846000,-15,3,-60,-103,19,-41,-15,-29
1693678099653844800,36,32,76,100,-10,20,0,-1
1693678099660840300,-41,-36,-89,-35,67,20,-9,-11
1693678099662840300,50,38,105,-46,-61,-36,-1,3
1693678099665841500,-5,-25,-104,-26,-15,11,8,-5
1693678099668834900,-11,2,80,-39,33,-68,-26,-5
1693678099673833900,11,20,15,24,-31,-20,0,-4
1693678099676832800,9,-15,-46,-100,-29,-67,-13,3
1693678099683829800,-13,-12,-90,65,32,-36,-5,-10
1693678099684828700,11,17,32,-59,-2,91,21,5
1693678099697819700,-22,-10,-9,79,20,-10,-19,-10
1693678099701817300,18,12,-2,109,53,77,6,3
1693678099704815500,-13,1,50,-53,-27,91,6,-7
1693678099706813700,1,-11,-6,114,1,23,-4,-7
1693678099720805600,-7,5,28,10,24,31,-2,4
1693678099722805600,-1,-41,-119,-67,-6,71,2,0
1693678099723805400,9,29,113,96,18,57,1,0
1693678099724803600,4,8,-15,-9,-34,79,2,5
1693678099734211800,-14,-18,-53,-16,23,77,2,-2
1693678099736209300,2,0,-46,-107,-73,-128,-10,-5
1693678099743205300,9,22,75,64,3,29,21,9
1693678099744205400,-3,-39,-91,-128,-26,-22,14,1
1693678099758195700,-5,29,61,127,18,-11,-5,-3
1693678099760195400,2,0,-4,3,-1,-45,-8,-10
1693678099761193900,-30,-38,-109,-33,79,-3,-24,-18
1693678099765192100,16,12,4,-42,3,-33,10,12
1693678099782186900,11,11,63,-60,-114,-6,3,3
1693678099785186400,-15,-26,-39,86,52,-52,-12,-8
1693678099786186800,27,29,71,27,25,53,8,8
1693678099787186500,7,6,-35,-79,-19,-81,-3,-3
1693678099794179200,-43,-53,-122,40,87,70,-9,-15
1693678099795179500,25,31,115,66,-27,16,4,10
1693678099803173900,-1,8,38,11,-107,-33,-2,-4
1693678099804176200,-3,-8,-91,-43,115,80,5,-6
1693678099825481900,25,26,72,-46,-82,-24,-22,12
1693678099826483000,5,17,44,25,11,59,7,3
1693678099827482500,-18,-34,-79,-55,17,-19,1,-5
1693678099829480100,0,18,69,68,-26,-58,-4,4
1693678099849468500,-14,-21,-78,-38,-17,-18,-1,-3
1693678099852467300,-8,-5,-5,17,37,25,-22,-8
1693678099854466100,3,-5,12,63,-16,5,4,2
1693678099855465000,-8,6,-8,-3,7,17,-11,-5
1693678099857465500,-10,-14,-93,-48,73,-22,16,-1
1693678099859462500,15,19,52,75,-17,44,18,2
1693678099865460400,1,-4,-28,-25,-25,-80,11,1
1693678099867460600,-3,-4,-21,9,12,106,-14,-7
1693678099878452000,0,-3,-12,23,8,-33,-5,1
1693678099882452100,7,-2,-5,-29,-22,-26,12,4
1693678099884451600,-8,-4,9,-24,3,-30,-5,5
1693678099885448900,-2,-9,-9,32,21,1,53,-5
1693678099901940600,-2,2,16,-27,-36,-13,-83,-4
1693678099903936000,6,6,17,-12,18,34,5,0
1693678099904938900,-4,-9,-9,-31,3,-16,-28,-4
1693678099905938400,0,8,20,8,-18,-34,-10,0
1693678099914929900,-1,12,22,16,5,8,29,3
1693678099916928500,-1,-7,-13,-19,-3,-18,-11,-11
1693678099922924400,-5,-2,-15,-13,2,2,-4,27
1693678099923927600,-5,-1,12,12,-7,7,-17,-1
1693678099937916800,-5,0,0,2,-6,-20,17,-4
1693678099938916700,-9,-8,-18,0,12,4,2,-20
1693678099940915400,12,10,10,-23,-14,8,25,0
1693678099941916900,-7,-3,2,0,-3,-10,-29,22
1693678099960939200,53,14,12,7,5,4,39,-27
1693678099963936400,-58,-13,-5,-15,-34,-77,-65,-9
1693678099966936900,-42,-18,-7,-11,8,44,-23,-9
1693678099968932300,-4,7,-1,-1,-6,-52,0,-10
1693678099973929100,-8,-1,-5,1,8,29,15,14
1693678099975929100,30,5,-1,-8,-11,1,19,7
1693678099983140800,21,6,-1,-2,5,11,-2,-5
1693678099985136400,-12,-10,-7,6,-3,7,11,-9
1693678099998425700,-49,-17,0,-9,-10,-8,-45,11
1693678100001428800,30,16,11,5,16,20,-4,-5
1693678100003423500,-16,-15,-10,-11,-5,-24,-39,-10
1693678100004422200,8,3,11,7,-2,1,0,-8
1693678100020412500,-27,0,-8,-6,-7,-5,25,4
1693678100022412400,-20,-14,-4,0,7,19,-9,42
1693678100023411300,-10,8,-2,-2,-2,-26,21,-8
1693678100024411000,-2,6,8,4,2,14,-13,-18
1693678100034404600,-76,-11,-6,-6,-7,-11,-24,5
1693678100036403100,-38,-19,-17,-8,1,11,16,23
1693678100049737700,20,1,6,-6,-3,8,18,-73
1693678100051740500,-100,0,-1,-5,-2,-6,29,12
1693678100056731900,5,3,5,8,3,-3,5,-22
1693678100058732300,127,46,6,-1,2,-13,1,28
1693678100071723800,-91,-49,-7,-5,4,32,-28,-12
1693678100072724600,-19,23,5,6,-16,-72,28,-31
1693678100081718800,-5,7,-7,-11,-7,-13,-36,76
1693678100086716300,-105,-23,4,5,14,0,-14,-118
1693678100088714900,119,35,-11,-14,-12,1,20,120
1693678100090713600,-91,-39,6,11,14,11,-14,-119
1693678100103706500,73,34,9,7,-2,-3,10,65
1693678100105705300,-38,-4,4,8,14,25,75,33
1693678100107703900,-61,-36,-6,-4,-10,-47,-74,1
1693678100108705800,82,13,4,0,6,25,-45,93
1693678100125692800,-106,30,5,2,-3,-17,-9,32
1693678100127692900,-78,-39,-4,-1,4,27,-11,-82
1693678100133692100,115,54,18,17,9,-3,20,72
1693678100136687400,35,-7,-10,-2,2,28,33,-72
1693678100140685200,-107,-65,-4,-5,3,12,34,27
1693678100142684400,55,96,-4,-5,-4,-12,40,42
1693678100143682600,-128,-73,20,33,28,33,-86,-90
1693678100147680600,45,105,-9,-20,-20,-40,100,58
1693678100154677200,62,-76,10,13,23,33,103,-61
1693678100156675700,-109,-41,-31,-26,-22,-77,-6,119
1693678100167670200,91,11,4,-7,-10,-11,43,8
1693678100169668600,-25,28,10,11,6,33,71,-11
1693678100177662600,15,-27,-18,-12,-27,-55,-100,-24
1693678100180662500,-97,-2,12,9,39,39,45,-94
1693678100185658600,19,10,-24,-28,-19,-5,28,60
1693678100187657800,88,-4,-11,-5,-1,39,-53,102
1693678100200650900,-40,48,18,20,7,-53,-47,-24
1693678100202649900,12,-16,-21,-23,-24,-34,-84,66
1693678100203650100,-12,8,-6,-9,-14,1,-62,-121
1693678100205647500,-34,-30,9,2,5,31,-74,17
1693678100215432600,80,3,6,18,2,-6,-32,-94
1693678100218431800,126,23,3,-9,-20,-21,-102,56
1693678100222427700,-95,-26,5,13,2,9,127,38
1693678100224428000,65,51,5,-4,-3,-16,-35,46
1693678100237418800,-27,10,12,14,12,-6,-32,-73
1693678100239417500,-86,27,0,-23,-21,5,24,78
1693678100244414600,34,-14,-8,-9,-28,14,-22,-98
1693678100250412000,-111,-71,-8,14,15,7,56,-4
1693678100260406800,14,7,-7,-46,-50,-23,39,25
1693678100264403600,17,4,17,34,22,44,26,-60
1693678100268402400,-73,-9,6,3,21,18,46,-31
1693678100271398900,2,-5,2,1,-4,-22,-46,55
1693678100283392600,-17,2,-4,-14,-8,17,20,-23
1693678100286392100,33,-29,0,14,8,21,24,-13
1693678100288389900,68,60,12,-18,-21,-55,-30,19
1693678100291388300,2,-42,-4,-4,-7,-8,-32,-93
1693678100298386300,67,0,-12,5,13,35,27,104
1693678100301383600,2,-4,3,-14,0,10,6,-75
1693678100304379900,0,8,-5,10,34,-6,6,78
1693678100306378800,-14,-8,-11,-19,-7,11,-9,17
1693678100319373900,9,-8,1,-9,4,23,23,-21
1693678100321372700,34,-2,-1,-5,-19,-23,-2,-8
1693678100328366500,3,-20,-14,-1,1,9,6,-43
1693678100333367000,1,8,19,10,18,-12,-2,-9
1693678100342358800,33,44,13,21,2,-55,-47,41
1693678100343359200,6,-16,0,6,-2,24,62,-22
1693678100351354200,-49,8,4,13,31,55,-2,-13
1693678100353352300,-2,-11,-1,-5,-40,-101,-28,-46
1693678100357349600,-50,-11,-8,-13,-6,25,1,-26
1693678100358350500,-10,6,-7,-6,-11,17,-40,-18
1693678100364346500,6,-9,-4,8,13,10,19,38
1693678100369344200,-32,-7,5,-9,5,52,29,3
1693678100384334600,10,-8,-5,10,7,14,-8,9
1693678100386332800,3,-7,-1,-6,-18,-50,-16,-33
1693678100388332700,10,15,11,5,-11,-9,-3,13
1693678100389331200,1,-17,-11,7,8,9,-19,9
1693678100403325300,-7,0,-4,20,39,40,21,-32
1693678100405322200,24,-4,15,-12,-11,37,-3,23
1693678100406324800,-22,-8,-12,-7,-5,10,-4,-2
1693678100408322000,-18,1,4,3,-15,-1,3,-17
1693678100417339300,22,-5,-8,17,27,55,21,-10
1693678100419338300,1,3,3,-2,-9,-67,-15,-7
1693678100424335200,25,-1,-9,5,21,7,7,21
1693678100425334600,-6,0,3,-12,-35,3,-8,-13
1693678100440325400,-21,-7,-9,-20,-14,-2,10,2
1693678100442325900,6,-14,-18,4,28,28,4,0
1693678100444324000,-12,9,10,-4,25,-38,-6,-17
1693678100446323500,28,30,31,-27,-62,-6,16,9
1693678100465311800,-7,-2,2,-8,-26,-34,0,-7
1693678100469309100,7,3,-1,-37,-6,25,-9,-7
1693678100471308000,-20,-15,-28,16,-2,1,1,-7
1693678100473307300,-22,-31,-59,-60,63,11,-12,-4
1693678100476305700,16,35,86,-12,-92,-6,21,16
1693678100478304300,-11,-19,-36,-39,-13,10,7,-5
1693678100486301900,2,0,-46,-9,10,13,6,2
1693678100487300800,1,-7,40,57,25,10,-16,-7
1693678100501292000,1,-5,-21,6,-11,31,8,-8
1693678100503291700,7,4,-4,36,18,-1,18,6
1693678100514283900,-8,0,28,17,-53,-72,-22,-7
1693678100519280400,-11,-22,-36,-28,-14,14,-10,-12
1693678100523278000,-5,-8,-41,-40,46,50,4,-3
1693678100525277700,-7,-4,8,120,16,9,-4,0
1693678100531274700,-4,-1,-4,-86,-6,-14,-14,-3
1693678100535272400,8,8,-2,-35,-26,9,7,5
1693678100538270400,-6,-9,-9,61,46,-38,-1,-4
1693678100540270900,-4,-18,-27,-47,26,2,2,-3
1693678100546265600,-2,9,53,-30,-80,14,-6,-7
1693678100551263500,6,6,20,92,61,24,5,1
1693678100560256400,6,10,-16,4,4,-15,10,3
1693678100565254700,-4,-7,7,-93,36,-16,-6,-3
1693678100568257300,2,1,-22,22,42,10,14,8
1693678100570251800,2,8,28,-92,-60,88,11,6
1693678100584244100,-8,-1,75,80,26,-48,-21,-7
1693678100586242400,6,-3,-57,-58,-48,-89,7,5
1693678100588241600,-2,-2,4,75,66,84,4,-3
1693678100590241400,3,-1,25,73,-41,-107,-9,0
1693678100597236300,-23,-37,-128,-114,127,24,-8,-19
1693678100600235300,-2,3,127,83,-44,25,-7,-1
1693678100605232200,4,2,-14,94,33,-76,-4,-2
1693678100607230900,-6,-1,-30,-2,127,-4,4,-5
1693678100621222000,27,34,75,-108,-112,-9,21,17
1693678100623221800,-10,-4,-43,-62,74,4,-14,-9
1693678100624221300,-13,-27,-93,-9,97,37,-9,-8
1693678100625221200,40,80,95,8,-91,-75,21,25
1693678100642211500,-22,-37,-83,127,51,64,-21,-16
1693678100643210100,30,53,-11,-99,12,30,22,15
1693678100658202200,-11,-22,-83,-128,27,-69,-9,-8
1693678100660199400,-20,-33,-29,42,31,26,-21,-13
1693678100664198500,-4,-12,-67,-128,80,1,1,-2
1693678100668196500,-6,-7,-36,49,43,20,-5,-5
1693678100669195100,9,18,44,-79,-66,-20,3,7
1693678100671193600,-21,-51,-128,-128,70,66,-2,-15
1693678100682188900,15,42,112,123,-27,-67,-10,9
1693678100685187700,-1,1,-27,-22,2,8,7,-6
1693678100687185600,-1,-4,-49,-128,4,-6,-33,-3
1693678100690184900,0,-8,-18,-20,-34,25,-2,-2
1693678100703175100,-5,-2,39,18,-87,5,5,0
1693678100705176400,2,-1,15,-43,7,-6,3,4
1693678100709171800,17,40,117,61,-89,3,19,12
1693678100711172200,-4,-13,6,25,24,-8,0,-3
1693678100717168700,-6,-15,-67,-113,2,11,-2,-4
1693678100719166500,9,13,52,-4,-63,-4,1,6
1693678100734157900,-3,0,29,-30,-37,36,1,1
1693678100735157500,-13,-17,-17,56,15,-17,-11,-5
1693678100740154400,5,8,15,1,-43,-18,10,3
1693678100743152900,-6,-7,-26,-12,14,8,-5,-4
1693678100745152400,1,-1,8,48,18,26,9,0
1693678100750148400,1,4,-8,-84,-18,-17,1,-2
1693678100765140800,-2,-5,-9,21,-49,20,3,-1
1693678100767139200,-7,8,76,106,-15,8,-7,-2
1693678100769137600,-1,-2,-6,-59,-10,-62,3,1
1693678100771136100,7,-7,-28,-31,48,-19,2,-2
1693678100776133600,-12,-24,-8,-39,-9,9,-3,1
1693678100778132400,8,10,-22,-3,31,37,4,2
1693678100786128300,20,7,3,46,-17,-2,0,3
1693678100787127500,-16,11,17,38,-7,-11,9,0
1693678100801122000,6,-5,-25,-54,35,-4,5,4
1693678100803120700,-3,1,6,31,-20,-28,-13,2
1693678100804120000,-7,-21,-9,-13,30,30,7,-9
1693678100806116200,3,1,-8,-26,-12,8,-6,2
1693678100823271500,-1,5,13,10,-1,-16,-1,-4
1693678100825271400,3,-13,-26,-17,13,5,0,0
1693678100826270700,-2,9,9,24,-8,16,-6,-8
1693678100828272300,12,4,2,-10,-4,9,10,3
1693678100836263600,-11,3,1,1,-3,-5,-29,54
1693678100838264000,-15,-23,-11,-5,4,-21,-2,-30
1693678100849259000,-37,2,-12,-18,15,13,20,-1
1693678100852256000,-5,22,13,14,-13,-12,-31,-36
1693678100861251000,85,0,-3,-18,21,-13,-16,41
1693678100866254300,-10,-55,-21,-25,-7,-10,5,42
1693678100869251200,-44,41,2,13,0,6,-5,12
1693678100871245600,62,-20,-4,-8,-4,-3,-26,23
1693678100884237800,-26,77,15,5,6,4,20,-126
1693678100886235700,-95,-58,-12,-15,-4,-6,-3,41
1693678100887235500,109,50,10,11,5,15,12,25
1693678100889234900,-95,0,11,9,5,-3,11,49
1693678100898231000,28,-80,-19,-22,-1,-14,-27,-53
1693678100901229000,100,124,7,4,4,13,61,-45
1693678100905225700,-113,-68,-1,-5,5,0,-9,4
1693678100907224000,72,-53,-15,-13,-8,0,-8,52
1693678100920217100,-74,-3,5,1,0,-10,17,-90
1693678100921216300,-30,-4,-11,-4,-3,-12,-100,5
1693678100928211600,-43,-69,-2,4,-1,3,-18,15
1693678100931210500,43,111,5,-5,-2,1,-3,12
1693678100943204000,-105,30,6,3,5,12,61,91
1693678100945204200,-8,-25,-1,-1,0,-3,-5,-95
1693678100952198000,-14,-42,-3,-12,-5,-2,3,58
1693678100953202200,44,53,14,12,2,7,-13,89
1693678100956196400,11,-26,-6,-5,7,4,28,-31
1693678100958194700,-2,-13,1,-1,2,1,-10,-19
1693678100968189700,-13,14,0,1,-5,-6,34,62
1693678100970190500,-9,-39,-8,-9,-5,-1,-53,-81
1693678100982183900,-16,-6,8,7,5,-7,-6,9
1693678100985178700,95,24,-17,-13,-12,-11,-21,33
1693678100986179400,-86,-9,1,5,9,16,76,59
1693678100988180000,-20,-14,-3,-4,-7,-10,-24,-80
1693678101003169700,7,6,-2,-4,2,0,-23,22
1693678101005168600,-31,-54,-2,2,-3,-11,-24,32
1693678101008166500,24,30,-5,-1,-3,-7,-21,-101
1693678101010166400,55,14,-6,-5,3,8,49,31
1693678101019161400,-11,-40,0,-1,0,3,-12,13
1693678101022159400,11,49,7,6,3,5,-12,-4
1693678101025156800,76,-19,-14,-10,-12,-16,20,70
1693678101028156700,-85,-7,18,15,19,21,63,-121
1693678101042147000,68,27,-2,-7,-8,-11,-87,-60
1693678101044147200,36,-10,-9,-4,0,5,64,105
1693678101048144000,-36,2,3,0,-1,0,-24,-128
1693678101052140600,17,-22,-9,-7,-12,-16,-29,-52
1693678101070135400,-83,-63,2,6,10,29,80,126
1693678101073128600,-6,83,25,14,15,28,7,-128
1693678101075128100,-30,-41,-17,-13,-13,-60,-117,-42
1693678101077126800,-35,-25,-1,0,7,13,37,-19
1693678101086121400,34,-23,-24,-16,-20,-13,63,44
1693678101088121100,16,-12,9,4,-2,31,17,-86
1693678101090119400,76,58,11,4,0,33,-34,11
1693678101092121300,-80,-50,-16,-13,-10,-41,11,4
1693678101100114000,-20,-51,-17,-13,-10,-55,-77,-112
1693678101102113400,6,-19,10,13,14,32,25,-16
1693678101115105700,10,51,-12,-18,-10,11,59,-52
1693678101118105300,-23,15,22,22,18,-10,-14,-1
1693678101123100900,-79,40,8,2,2,25,-3,-35
1693678101125099000,18,-86,-15,-9,-8,-46,-55,41
1693678101127098300,127,13,-6,-4,-2,-6,-32,72
1693678101130097000,-72,-80,-25,-20,-13,-16,47,-51
1693678101136092800,-28,96,-6,-7,-12,57,36,63
1693678101138090800,-7,-38,-13,-14,-14,-98,-75,96
1693678101148087900,61,54,13,6,9,-44,10,-40
1693678101151088300,-51,-34,-9,-3,-13,6,-64,-29
1693678101160079700,49,25,13,10,7,2,21,32
1693678101163078200,-94,-39,1,-2,1,49,45,-18
1693678101166078300,47,68,4,-1,1,2,12,98
1693678101168075900,-54,42,10,8,-12,5,-52,97
1693678101182073000,-65,-8,3,1,7,9,32,-21
1693678101185065800,-18,21,7,10,8,-23,23,-17
1693678101190062200,-46,-23,-2,-3,1,12,26,-63
1693678101192060200,-55,-46,-16,-14,-10,8,-14,-16
1693678101205054200,70,12,18,30,11,14,-34,66
1693678101207052800,24,77,10,4,2,-21,-34,-5
1693678101209051700,-49,-49,-2,1,-1,-12,-2,-9
1693678101211049200,54,27,-17,-16,4,-23,41,33
1693678101220045400,67,-25,8,8,-5,-31,-44,-20
1693678101223043900,-116,-31,-20,-16,-13,20,28,-32
1693678101227041600,57,16,42,27,12,8,-38,-39
1693678101231039900,-10,-6,-6,-5,1,12,33,49
1693678101243031800,-23,-10,-6,-6,4,-7,11,-25
1693678101246030400,-16,-14,5,6,-1,-3,-26,-14
1693678101253029200,-100,-33,-22,-13,-6,-4,-16,-14
1693678101255024300,63,35,18,27,2,36,-2,-24
1693678101265020400,-4,-16,-10,3,16,-12,14,15
1693678101269017400,-5,2,4,12,10,38,1,21
1693678101271017000,-116,14,-11,-6,-5,0,59,-37
1693678101273016100,55,3,6,-14,-1,-1,5,-6
1693678101288005700,10,7,-1,14,17,18,-34,-10
1693678101290004400,22,16,29,-5,-29,-53,23,12
1693678101292003700,48,-18,-28,40,9,13,-18,8
1693678101293004200,-10,-4,40,8,-19,-5,-20,3
1693678101302996700,6,4,-41,-17,0,32,-36,-1
1693678101304997900,-27,-14,-2,-24,11,-43,-11,-34
1693678101305997700,1,-18,5,5,-35,16,19,22
1693678101306995100,-11,-3,-85,0,54,21,-6,-8
1693678101325985400,20,9,69,-27,-20,2,22,-3
1693678101327982200,27,22,19,19,-10,1,8,8
1693678101332988200,-7,-49,-89,-78,20,17,-20,23
1693678101334981100,25,23,116,41,-16,-6,17,4
1693678101339975700,-15,-18,-82,-15,5,4,-14,-26
1693678101341975000,15,6,10,13,-9,8,7,6
1693678101347971200,9,-2,-15,-20,8,5,-28,-21
1693678101351969000,-21,-17,-60,18,-2,-19,2,14
1693678101365961500,-2,-9,-48,-50,0,33,9,-31
1693678101368958900,-38,7,35,17,-10,-35,-39,27
1693678101369958500,66,27,52,70,-22,2,20,14
1693678101370958400,-25,-7,-36,-29,4,12,-3,14
1693678101384951100,-21,-4,-31,-3,-10,-13,-14,-77
1693678101387949700,28,-48,-128,-68,26,49,31,67
1693678101389948500,-67,-13,26,36,38,44,-11,16
1693678101390947200,23,12,33,-6,-11,-45,-11,10
1693678101401941000,64,68,38,17,-59,-40,46,20
1693678101403939500,-29,-15,-93,-34,33,98,23,-59
1693678101414932800,-52,-36,-36,-40,-16,-99,-15,9
1693678101418931900,99,-9,-61,26,32,50,10,-38
1693678101422927900,-67,-19,-89,-90,23,22,-18,3
1693678101424927300,74,113,127,113,-31,-73,0,36
1693678101426927400,3,-13,-81,-5,23,87,32,-37
1693678101427926200,-28,-33,-70,-63,-3,-102,-86,42
1693678101446914300,-5,-22,-19,25,14,-116,-31,-21
1693678101452912700,51,1,6,8,3,-36,10,-79
1693678101454910900,-35,5,67,3,-3,44,38,21
1693678101456909500,14,16,-22,-1,-18,28,54,-19
1693678101458910200,-19,15,75,49,-11,20,-49,10
1693678101459907600,-57,-34,-41,34,-2,-11,39,36
1693678101467902900,65,19,37,-41,-22,-31,-64,8
1693678101470901500,18,-6,-78,-69,17,32,-10,-49
1693678101489890000,-53,26,110,58,-30,20,6,46
1693678101491889400,-39,-34,-71,-108,-25,-62,-41,-67
1693678101493888200,55,-1,17,106,4,1,53,63
1693678101495887100,-61,18,12,40,10,-30,-6,-13
1693678101504881400,-5,-34,-87,-110,-20,28,9,-8
1693678101506881300,-16,-1,-32,-35,17,-5,-112,-18
1693678101514877300,-30,-13,-7,47,11,44,93,-20
1693678101518873900,75,61,111,-86,-43,-44,-93,23
1693678101519873800,32,-7,-9,118,37,4,48,6
1693678101521872400,1,0,-3,-53,-17,19,38,4
1693678101544858200,-53,-34,-104,-99,10,-22,-90,-12
1693678101550855200,0,6,48,83,-5,-1,52,13
1693678101552856300,-10,-18,-60,-118,32,51,70,-18
1693678101553855200,13,-8,-11,-86,-29,-6,-35,46
1693678101555851600,31,52,105,86,-32,-81,-62,-17
1693678101556852200,-27,-6,-37,-54,2,25,61,0
1693678101567844700,37,-2,8,28,4,-31,-41,11
1693678101568844000,-25,-15,-55,-99,29,72,75,8
1693678101570843200,-11,-18,-49,89,13,-70,-24,-18
1693678101571843300,-31,-2,83,-61,-47,85,18,-19
1693678101582839300,26,25,82,112,11,-19,-6,-8
1693678101584838000,13,-21,-50,7,10,4,59,2
1693678101587834200,24,14,-21,-128,55,66,-35,-5
1693678101589832200,1,-26,-85,-2,36,22,54,33
1693678101602824400,-2,-16,-64,36,-37,-10,-17,-18
1693678101604823700,20,47,127,-31,10,32,83,52
1693678101606825400,-91,3,46,46,-51,3,14,-33
1693678101607822500,-4,-15,-63,-45,-15,-100,-67,-12
1693678101625812800,19,2,22,67,35,110,79,17
1693678101632812400,-2,-11,31,13,-39,-12,-114,-13
1693678101636805000,35,27,25,-39,-66,23,127,-4
1693678101639804100,-4,6,32,127,-20,-44,-99,-4
1693678101642802300,-11,14,35,-83,-28,-95,51,-9
1693678101645801300,-2,-36,-128,-38,35,47,30,1
1693678101653795700,17,9,-2,26,79,-20,2,15
1693678101656795300,-19,5,51,68,-5,115,101,-5
1693678101664792600,26,29,66,57,-92,-87,-59,21
1693678101667787400,-1,-3,-55,-11,16,71,-21,-8
1693678101669787100,-8,-33,-65,22,30,29,45,-7
1693678101672785900,17,1,-19,-35,40,66,15,7
1693678101685778000,-12,8,33,-9,6,10,45,9
1693678101688775900,-20,-6,-44,127,8,-52,-103,-11
1693678101690775300,-15,-2,-32,-128,-43,-10,-30,-10
1693678101692773800,69,24,31,27,-26,-49,2,25
1693678101699770900,-56,3,45,35,28,31,26,-34
1693678101701769200,-24,-24,-35,-66,-2,-23,-6,-11
1693678101707767000,2,-11,-24,56,8,-18,22,4
1693678101708768100,-13,-5,-56,-44,11,-52,6,-7
1693678101722757100,24,-21,-104,-125,3,20,-63,12
1693678101724757400,7,36,45,96,1,73,16,0
1693678101725756900,-1,-2,7,11,-21,-34,4,-13
1693678101726756400,-9,-6,4,-46,13,-6,-8,0
1693678101748742700,4,-9,-11,2,9,-19,-28,-2
1693678101752740300,3,9,30,27,2,-15,29,3
1693678101754738600,17,1,12,-59,4,16,-4,10
1693678101755739700,-11,-3,-6,10,-10,1,-21,-12
1693678101758736400,-17,-19,-44,-54,14,-2,4,1
1693678101760735600,5,8,29,15,-9,-17,36,0
1693678101768731500,1,-5,-5,-41,-7,-9,-26,-1
1693678101770731000,-15,0,-1,-5,6,8,15,-3
1693678101784721300,10,-6,-18,-2,8,3,7,1
1693678101786719600,4,3,15,-16,0,-24,6,3
1693678101788722100,3,6,4,9,-1,11,-19,-2
1693678101790717600,-12,-4,-10,3,5,12,2,0
1693678101804709500,-43,17,4,-22,15,19,19,7
1693678101806708300,24,-13,-3,5,-9,-13,-66,-13
1693678101815704300,-35,4,-8,-31,-3,-12,2,4
1693678101819704000,95,-8,-5,-2,-2,7,11,15
1693678101821701700,35,-1,-20,-31,-1,-14,-47,-2
1693678101822699100,-56,-6,15,11,5,-6,27,13
1693678101827696300,-8,11,9,7,-3,3,-17,-33
1693678101831694700,41,-7,-13,-24,-3,5,-7,13
1693678101842688400,-42,-3,9,21,6,2,15,12
1693678101846686400,112,18,1,5,1,2,-14,0
1693678101849690800,-41,-20,-8,-23,-5,-5,0,0
1693678101851682700,-123,3,1,5,-2,-8,-2,-7
1693678101866674000,40,-26,-18,-21,0,-1,-14,-8
1693678101868673100,-44,17,11,5,-1,1,37,-14
1693678101870671800,-58,-9,-6,-11,-1,-1,-19,15
1693678101872670500,74,8,6,-4,0,2,9,27
1693678101882666900,-2,11,-1,4,-2,1,-14,-9
1693678101884663800,-30,-2,-1,-9,1,4,30,-16
1693678101887661700,-72,-10,-2,-2,-2,5,-49,-77
1693678101889661800,35,15,-11,-4,1,2,15,78
1693678101902652700,-31,-5,-3,-9,3,-9,13,24
1693678101905651800,-50,-4,2,0,-5,-20,-1,-30
1693678101907650000,-28,-5,0,-1,5,-5,-7,25
1693678101909649300,-84,-28,-4,-1,-2,-1,-4,-82
1693678101925640400,16,18,-4,-9,0,3,-4,-8
1693678101927639000,69,-14,3,3,2,9,-18,-1
1693678101931636700,-53,-28,-8,1,0,-7,0,9
1693678101934638900,-21,5,-5,-18,-12,-3,-23,87
1693678101948629700,-83,4,10,9,9,7,16,-88
1693678101951627100,73,12,-5,-10,-7,12,-42,28
1693678101953624100,-35,-45,13,15,11,-29,39,-31
1693678101956623400,90,62,-16,-15,-7,-6,-26,-58
1693678101964620200,-96,-45,-14,-15,-6,2,-5,123
1693678101967616600,-76,-15,7,0,-2,-3,7,-114
1693678101971614600,114,32,-1,2,6,22,-13,41
1693678101975612200,-128,-15,1,-1,-2,-3,44,-47
1693678101985606000,-22,-13,-6,-7,-9,-17,-55,28
1693678101987605000,47,9,-3,4,13,43,48,18
1693678101989606000,-26,-68,-13,-6,-16,-50,-3,103
1693678101991603800,76,64,18,7,6,12,22,-43
1693678101999603800,42,63,4,0,3,-2,-31,16
1693678102001600700,5,-1,6,12,7,13,99,8
1693678102008592300,17,45,3,-5,-3,-13,-13,93
1693678102010593100,-23,3,5,10,19,7,-1,-56
1693678102022585600,47,-25,0,5,5,13,14,-73
1693678102024583900,-16,20,2,-5,-9,-23,-18,122
1693678102027587700,33,4,-5,-5,4,46,33,-118
1693678102030580500,-23,-28,-3,-2,-11,-106,-11,27
1693678102049569500,22,-2,-3,-1,6,22,3,-28
1693678102051569600,-54,-13,-1,0,-2,-13,-18,-6
1693678102053568800,59,25,-2,-8,-5,8,-5,4
1693678102054568700,-51,-28,0,8,4,29,1,-5
1693678102058564700,80,8,-2,-2,-1,-4,8,-14
1693678102060563300,-53,-14,-4,-7,-15,-53,-25,9
1693678102068558200,24,10,1,1,5,18,4,-17
1693678102070557300,14,-9,0,6,15,47,0,-11
1693678102083552900,63,-11,-11,-14,-13,-47,-3,27
1693678102085549200,-83,-1,-5,-2,-12,-17,-2,-22
1693678102088546400,40,8,4,6,12,18,3,-13
1693678102090546100,5,-10,5,-13,-21,-7,-25,8
1693678102105536100,-14,0,2,5,4,7,9,-8
1693678102107536200,-30,-4,2,-1,0,3,1,-10
1693678102109537100,69,5,-20,-5,-16,-33,0,13
1693678102110536300,-19,-30,-18,-17,7,13,-4,4
1693678102127526100,-20,10,14,4,10,6,3,-7
1693678102134524500,22,14,11,-12,-7,-12,-6,-2
1693678102137519100,-34,-7,-11,35,4,-7,-10,-24
1693678102139517500,3,-7,19,-4,-4,27,29,17
1693678102141518800,-37,-17,-24,-5,-7,-9,-9,-11
1693678102143517000,-5,-5,-9,-28,0,3,-26,-1
1693678102154509100,2,4,-23,55,10,13,-6,-3
1693678102156507700,-18,1,63,-32,-8,-14,1,-4
1693678102165502900,-16,-3,-3,12,9,4,12,2
1693678102169501300,12,5,6,15,-2,12,3,11
1693678102181496000,35,-2,-14,-16,-10,5,-1,-4
1693678102184491700,39,-18,-74,19,-9,-2,-6,0
1693678102188489700,-13,1,12,-25,32,13,-4,-2
1693678102191488200,54,16,29,-24,-13,-4,-1,3
1693678102194487000,-46,-2,16,-15,6,2,-3,-13
1693678102198487200,-7,6,-9,6,3,5,1,-1
1693678102202482400,21,-7,-59,4,1,49,15,13
1693678102203480900,-20,-17,-41,-41,10,-37,-6,-15
1693678102210476800,-19,23,101,-13,-35,-7,3,0
1693678102213476200,-37,-41,-112,-9,-7,-2,-6,-10
1693678102225468700,4,31,116,82,32,-17,-16,-6
1693678102227467600,12,1,-108,-9,-28,-27,20,9
1693678102232464900,-12,3,13,22,-13,9,-3,-2
1693678102235463400,5,-5,-52,-34,21,23,3,5
1693678102249968400,-11,-41,-116,-23,-21,-56,-2,-8
1693678102250969600,4,21,117,91,23,23,-20,-4
1693678102252966100,11,3,-38,-99,-64,-64,0,9
1693678102254967100,-20,6,-8,62,18,18,-7,-7
1693678102265966300,-1,-1,-5,-93,16,19,5,0
1693678102267959400,-3,-13,-48,-64,-10,29,2,-1
1693678102270956200,0,17,74,66,36,14,0,3
1693678102271955700,0,18,94,-28,-41,9,6,4
1693678102284948700,-2,4,-8,-7,-24,82,7,2
1693678102287947200,2,-12,-25,12,16,66,1,-2
1693678102288946200,-23,-26,-79,-81,-9,-61,-25,-17
1693678102289945400,-6,-7,-44,53,50,0,-4,-2
1693678102307934400,4,19,96,-34,-18,12,-3,4
1693678102310934300,5,9,5,-70,10,17,7,1
1693678102313932900,-11,-17,-59,81,21,50,10,-2
1693678102317931000,-6,-2,-10,-94,-13,-34,-5,-1
1693678102321926500,-13,-26,-84,4,15,-39,-3,-8
1693678102322927800,17,20,91,36,8,39,10,11
1693678102333922200,-7,-9,-34,81,-21,-11,-3,-2
1693678102335920800,9,35,76,-48,-94,-9,0,0
1693678102347912500,1,-14,-26,35,24,-26,7,3
1693678102352910700,-13,-15,-62,-14,-50,4,-9,-8
1693678102354908200,12,7,-14,19,44,47,12,9
1693678102356909900,-6,-10,-60,-103,67,15,-5,-4
1693678102375895400,1,16,7,6,-100,-29,-8,-1
1693678102378894400,-11,-39,-128,118,116,-3,-2,-6
1693678102383892200,0,22,60,-128,-124,-38,-14,-4
1693678102385890500,11,16,89,127,126,37,10,9
1693678102387889400,0,-17,-49,-116,-68,-3,-1,-3
1693678102388888000,0,2,22,76,-3,-35,-9,-3
1693678102400882400,-5,-25,-92,-117,50,32,1,-4
1693678102402879600,-2,4,38,-36,-50,1,-2,0
1693678102404879900,1,10,29,127,-31,0,1,1
1693678102406877600,10,26,79,30,-74,24,15,8
1693678102408878600,-7,-10,-61,96,112,14,6,-2
1693678102410877200,-1,3,-21,-43,-77,-20,-24,-4
1693678102427866400,-6,-7,-64,-56,55,12,-2,-5
1693678102434862700,-8,-14,-65,-5,14,-36,-11,-7
1693678102435861400,6,13,70,-62,19,25,10,6
1693678102437861200,-4,-9,-19,-6,28,-27,9,-5
1693678102441858200,0,0,5,26,-5,-28,-16,0
1693678102442857500,-2,-4,-13,-58,0,-13,-1,-3
1693678102451852200,-2,2,-11,12,-10,6,-3,-3
1693678102452854100,-2,-4,-6,43,-14,-8,-4,0
1693678102472840200,2,11,27,-24,-3,-2,6,1
1693678102474839100,0,3,19,-10,1,0,2,0
1693678102476838700,-4,-6,-9,5,-5,-2,-3,-3
1693678102478838000,-1,-1,-1,14,-14,-8,7,0
1693678102498828500,0,-2,3,16,30,1,-16,-3
1693678102502823700,0,1,19,-34,3,-13,-3,-2
1693678102504824800,-1,-1,6,11,-15,3,0,0
1693678102507820300,-4,-5,-23,8,2,-17,-4,-3
1693678102508819400,2,8,15,-2,10,5,7,1
1693678102510820300,-1,-3,-4,-10,-8,-4,-2,-2
1693678102517814800,1,1,10,-9,-12,-4,-2,0
1693678102520813800,-3,-6,-3,17,2,8,3,2
1693678102525810400,-5,-8,-4,-1,9,4,15,-1
1693678102527809200,2,-3,3,-19,-11,-17,-16,-3
1693678102530808900,-3,8,5,10,6,4,5,-3
1693678102533808600,-8,-6,-8,-2,3,-7,-4,3
1693678102549797700,10,3,11,4,-1,1,4,-1
1693678102553795300,-48,-5,1,-11,1,0,5,-2
1693678102554794400,60,7,1,-1,-4,-1,7,8
1693678102556792400,-5,-6,-13,8,-2,-4,-14,-4
1693678102561789100,-5,0,3,-7,0,-3,-2,-1
1693678102565787200,0,-8,6,-2,1,4,4,0
1693678102570784200,-34,8,0,-1,-3,-8,-10,-8
1693678102573784500,10,-11,-1,-1,-5,3,12,5
1693678102584776100,18,-3,-18,-19,16,0,-2,-1
1693678102585777300,5,14,34,10,-6,-4,-2,1
1693678102598770300,-9,-2,1,-1,0,-1,3,-2
1693678102601769000,-15,-11,-8,6,-4,-2,1,-6
1693678102607763200,-11,-3,-14,-13,2,3,27,-1
1693678102609761900,2,-6,2,-13,-2,-15,-76,-4
1693678102610763000,-10,-3,9,2,-2,-1,1,0
1693678102615762000,4,13,4,1,-1,3,1,0
1693678102621755900,35,4,8,15,4,2,-1,10
1693678102622754600,17,5,-11,-12,-2,5,21,-4
1693678102630749600,-8,-4,1,1,-5,-8,-4,-10
1693678102637746600,-34,-2,2,3,5,10,-9,-28
1693678102646740300,-23,0,4,8,-1,1,-11,36
1693678102648741500,58,12,-6,-6,-7,-2,24,1
1693678102650741100,-18,2,-2,-9,3,4,-4,-4
1693678102652738800,-19,-5,-4,1,-1,-4,6,2
1693678102667728000,51,18,12,7,-3,-5,-2,-4
1693678102670727600,-19,-24,-9,-6,2,6,-7,-4
1693678102674725000,7,3,2,-1,-5,-2,2,-7
1693678102675724300,-39,7,2,2,-1,1,1,9
1693678102681720200,-48,-18,0,1,-5,-3,-7,-58
1693678102683724200,60,4,-5,-1,0,-3,5,60
1693678102699711800,40,3,-8,-4,-3,1,-2,15
1693678102701711000,-57,-2,4,8,5,3,16,8
1693678102705707500,-120,-27,-2,-8,-7,-9,-6,-30
1693678102707705200,18,5,-8,-3,3,3,10,-79
1693678102708705300,-128,-99,-5,5,2,5,-20,-57
1693678102709707500,127,113,13,10,7,8,27,127
1693678102736688800,-100,-96,-13,-11,-12,-7,-15,-95
1693678102738688700,84,49,12,7,3,9,35,69
1693678102739687700,-90,-57,3,6,3,-13,-9,-56
1693678102741685800,95,69,-11,-15,-8,-5,-4,-14
1693678102743685900,-38,-76,-7,-8,-5,-1,12,115
1693678102747683500,-46,-28,6,10,5,9,3,-65
1693678102751681200,127,51,-10,-9,-9,-10,0,104
1693678102753680500,-120,-128,4,2,4,39,-15,-128
1693678102765675400,13,113,-1,-5,-10,-66,-7,93
1693678102768673300,-128,-59,-4,-1,-4,-39,-22,-21
1693678102771670500,70,68,-13,-12,-1,50,-27,79
1693678102773668600,-101,-48,-7,3,-2,-47,14,-116
1693678102788659100,122,63,19,8,10,30,-24,-69
1693678102791658500,-128,-79,-13,-3,-4,-17,-4,12
1693678102793659500,35,20,13,13,9,5,22,-126
1693678102796655400,2,0,-23,-23,-11,-4,2,-13
1693678102810646900,-90,10,11,19,18,-20,45,32
1693678102815650400,60,-34,-2,-4,1,26,-11,-94
1693678102818642900,-50,4,9,6,7,-2,78,63
1693678102819640700,74,-30,0,-1,2,2,2,0
1693678102825638500,5,7,1,8,2,4,-22,105
1693678102827636900,6,12,-6,5,16,5,-43,-98
1693678102832636600,-100,-44,-6,4,-14,-15,13,57
1693678102834633600,45,1,12,14,14,26,0,127
1693678102847627500,-91,-97,-6,-14,-10,41,13,-118
1693678102850627700,42,112,-8,-13,-9,-60,-68,14
1693678102852623100,34,-27,-7,-8,-27,-36,26,71
1693678102854622200,-78,-10,-2,8,13,-37,-31,13
1693678102870612800,127,-20,-9,-19,-28,13,-11,1
1693678102873610300,-50,-8,5,5,12,26,75,-21
1693678102875609600,35,30,-7,-16,-17,-63,13,33
1693678102877608400,-30,68,10,16,15,-1,55,-34
1693678102886604500,29,16,0,-3,-4,22,52,98
1693678102888602000,18,-9,3,-10,-6,-10,-29,-4
1693678102890601400,-37,-8,-7,-17,-26,6,-39,-35
1693678102891600700,-19,-21,2,-1,4,12,-26,-60
1693678102907591300,21,18,8,13,24,22,7,23
1693678102909589900,61,13,-2,-3,-10,-17,15,19
1693678102912589200,-53,-34,-5,-3,25,-18,-4,-117
1693678102916586500,-1,14,-1,-31,-44,-33,-36,-67
1693678102921583500,127,6,-5,-7,-23,-23,-58,-118
1693678102924581800,-90,-56,-9,-3,-1,15,-48,-73
1693678102932580600,117,77,7,14,43,86,58,61
1693678102934576200,29,-21,-13,-10,-26,-49,-31,-17
1693678102946570400,4,22,6,5,9,0,-8,-81
1693678102950566900,-25,-18,-3,-4,-19,-8,-5,43
1693678102952566400,13,6,4,1,-6,20,-15,-50
1693678102954564600,-38,-15,-9,-6,2,-47,7,47
1693678102967556400,-28,-3,-6,1,7,4,-10,-13
1693678102970556000,21,6,2,8,12,20,19,20
1693678102972555200,-60,-17,2,15,30,38,1,10
1693678102974553400,6,-7,-2,-1,0,-69,-5,-10
1693678102982552900,-43,18,8,2,-7,37,10,13
1693678102984547100,-19,-19,-16,-13,1,8,25,33
1693678102990543300,-52,12,8,9,-2,21,-35,-29
1693678102993542900,26,-13,-8,-8,-25,30,-12,39
1693678103004536500,-19,7,-6,-5,5,-24,-1,-2
1693678103005535900,-8,-6,-6,9,27,0,24,22
1693678103014531000,58,10,22,11,9,3,-14,-29
1693678103017527800,-23,-15,-6,10,35,127,19,16
1693678103027523500,4,0,4,9,-11,-33,-12,-10
1693678103032525000,1,11,-5,-20,-51,-11,17,31
1693678103034519400,-10,-21,-8,-6,9,-11,-17,-24
1693678103035518800,6,2,-8,10,-14,-64,-16,-10
1693678103041513800,6,4,-1,-90,11,25,15,-5
1693678103043514200,-13,19,35,31,-71,-31,5,1
1693678103057505600,-15,-17,-11,-3,18,7,-10,-21
1693678103059504900,5,9,-9,4,40,9,14,3
1693678103065501300,-24,7,34,-64,-28,-58,1,4
1693678103068498900,6,11,13,74,30,15,-2,7
1693678103071496900,-14,-23,-11,20,-7,-71,-10,-9
1693678103073497900,11,0,-14,17,28,117,18,0
1693678103087488300,-4,8,2,76,46,9,15,1
1693678103090486500,2,1,4,-41,-27,-16,2,5
1693678103091488000,16,21,9,-17,-59,-40,-1,-2
1693678103092485300,-8,-15,-8,-45,-20,7,1,-6
1693678103110474000,-19,-20,-28,67,33,26,-1,-9
1693678103113476300,3,10,-16,-61,49,22,7,8
1693678103117472700,-6,-8,-1,79,23,100,3,-4
1693678103119470100,2,-1,11,16,-45,-56,-11,-5
1693678103133462400,6,19,40,63,15,36,7,4
1693678103136461200,12,6,-27,-42,-33,22,11,10
1693678103139460400,-14,-27,-48,73,115,66,-2,-11
1693678103140458000,8,13,77,-53,1,22,-1,5
1693678103149453200,1,-2,-29,-67,-91,-55,-14,-6
1693678103152452500,-7,-8,-39,90,127,60,10,1
1693678103154451000,4,15,83,38,-44,-76,-11,-2
1693678103156452100,-11,-19,-37,43,42,-41,-3,-7
1693678103170441300,-7,6,-2,49,17,13,-1,-3
1693678103172439600,3,10,6,-80,-38,3,3,3
1693678103174438600,1,-6,-13,-52,-17,-2,2,-1
1693678103175438200,-3,-12,-11,4,6,-29,-1,-2
1693678103184431100,-6,-11,-30,20,79,70,3,0
1693678103186431600,-1,1,48,-37,-87,-58,-24,-7
1693678103191428300,-7,-14,-29,-54,15,-47,-7,-7
1693678103193427100,14,24,29,33,-49,-15,16,11
1693678103216414000,-14,-15,-39,-65,28,38,-15,-12
1693678103218414600,1,5,7,17,-9,-40,-1,1
1693678103220411500,-1,1,-27,-28,66,25,2,-2
1693678103222412400,8,24,84,11,-96,32,6,7
1693678103231405600,-4,-10,-22,-31,-22,-123,2,-2
1693678103234405900,1,1,2,13,-17,90,2,-2
1693678103237402600,-5,-5,-23,-74,-75,-46,-18,-7
1693678103239402300,-3,-11,-50,26,92,16,-4,-3
1693678103244398700,1,7,27,16,-15,45,7,2
1693678103248399800,1,-3,-36,-20,27,-10,4,3
1693678103253393000,1,3,29,56,-73,-62,3,0
1693678103255392300,-9,-3,-4,106,100,-13,-26,-11
1693678103268384800,8,16,34,-59,-61,-39,4,5
1693678103270383600,-3,-9,-25,-66,-12,50,9,-1
1693678103273384300,-6,-5,-18,10,69,65,-3,-5
1693678103275381100,-1,-4,-1,11,-51,-86,-7,-2
1693678103290372600,-5,-8,-9,17,3,90,6,-1
1693678103292372200,-4,-3,-2,56,40,-70,-26,-8
1693678103293371800,2,0,-4,-45,-24,-58,5,2
1693678103298369700,-3,-6,-20,-33,28,70,-1,-5
1693678103304364500,0,1,-5,-40,-14,-40,-4,-1
1693678103307363700,3,4,31,69,-22,17,6,6
1693678103313359600,-7,-9,-7,19,78,103,-8,-7
1693678103316358400,10,18,22,-87,-121,18,0,5
1693678103327351300,-1,-4,-7,40,49,-17,-2,0
1693678103331349100,-1,5,8,13,40,31,6,-1
1693678103336346000,6,9,15,12,-4,-15,5,5
1693678103338346000,2,0,-6,17,50,29,8,3
1693678103349851200,-14,-18,-54,-38,56,-17,-27,-12
1693678103352848700,12,21,58,24,-71,-4,9,7
1693678103357845900,0,-3,-8,-49,-1,73,5,3
1693678103359845900,-4,-10,-42,-108,53,-9,4,-2
1693678103364842200,-1,-4,-5,3,17,-65,-2,0
1693678103367842200,-4,0,35,-62,-39,-53,-14,-4
1693678103383359000,6,14,53,71,-97,0,2,3
1693678103385354700,-7,-16,-31,-75,29,31,0,-5
1693678103387353900,3,8,26,127,-14,62,11,4
1693678103388354100,-14,-26,-82,-82,24,-80,-7,-9
1693678103401345200,13,20,90,-15,-18,55,9,9
1693678103403343500,-6,4,-2,-62,-60,33,-12,-4
1693678103410339500,9,10,24,-4,-33,-53,-3,3
1693678103415337400,-3,-8,3,21,-14,49,11,2
1693678103418335400,-2,-2,-26,60,-7,-22,-6,-2
1693678103420333900,-1,-5,-17,53,107,43,7,1
1693678103424331300,-4,-5,-10,-96,-59,23,-5,-3
1693678103426332000,-2,2,7,36,42,26,-4,-3
1693678103433326600,-12,-26,-82,-112,80,37,-13,-10
1693678103435325800,3,17,81,100,-119,-70,-13,-1
1693678103465829000,0,-7,-3,4,24,71,6,4
1693678103468820100,4,8,-6,-68,58,-31,1,-2
1693678103470818700,-12,-31,-96,-121,125,43,3,-1
1693678103472817600,9,31,90,18,-63,-41,18,11
1693678103473817400,15,36,19,-7,-82,-16,-11,-1
1693678103475818100,4,-7,-30,14,13,50,9,4
1693678103476817100,1,9,0,-117,-21,-49,-3,-4
1693678103479814300,-7,-25,-56,-70,42,37,2,-3
1693678103484810700,-6,-10,25,41,-38,-20,9,1
1693678103486811900,-1,1,8,11,4,19,1,0
1693678103493804900,6,8,10,34,-40,41,-3,-30
1693678103498808300,-4,-13,-26,-14,13,-59,-12,2
1693678103507797600,-8,-6,7,12,37,25,-2,25
1693678103509796000,-28,-6,-13,11,17,31,2,-47
1693678103514793400,43,10,22,42,-29,-24,4,-7
1693678103517793100,-9,-5,-38,-88,39,7,1,-3
1693678103531783300,3,1,11,6,21,8,3,-8
1693678103534782500,-11,4,9,-2,11,35,8,4
1693678103535783400,23,8,9,-1,-34,-70,2,-6
1693678103538780500,-43,-4,-8,5,12,32,-7,8
1693678103543776000,67,-2,-16,-15,25,10,-1,12
1693678103547776500,-7,3,7,-7,0,8,14,-8
1693678103552772500,-30,-8,11,24,-13,-18,-2,-7
1693678103554771100,27,6,-9,24,2,5,-21,31
1693678103567763300,-101,-47,-13,-13,13,6,6,-8
1693678103569762000,42,-15,6,14,-10,-9,-15,-35
1693678103570760600,107,104,18,10,-9,-5,26,109
1693678103572761200,-108,-34,-1,19,-1,14,-3,-51
1693678103590750700,6,-26,-11,-20,0,-6,0,29
1693678103592750000,-96,-15,2,-6,14,-7,-11,-37
1693678103593748000,39,-3,8,12,-8,-14,-13,27
1693678103598746400,73,12,-1,8,-9,7,44,26
1693678103603742300,-28,-1,1,-6,11,-10,-46,-72
1693678103605740300,-29,-24,-13,-3,-4,-25,15,57
1693678103615737600,-39,-22,6,12,1,-8,-16,18
1693678103617734600,-12,31,1,12,-7,-10,-36,-52
1693678103635724600,-35,-11,-4,-6,5,6,41,-78
1693678103637725200,54,8,-4,-5,-13,-19,-30,117
1693678103639721400,-25,-13,3,1,-6,5,-26,-75
1693678103642720300,27,-15,-2,-3,-4,6,2,-64
1693678103651715900,-86,8,5,2,14,29,8,-38
1693678103653713400,91,57,-6,-5,-4,15,-7,66
1693678103655713600,-83,-31,3,-2,-2,-9,76,18
1693678103656713900,-4,-3,-5,2,1,-8,0,-38
1693678103664711500,56,-2,-2,-9,2,4,-60,-68
1693678103667707400,-21,0,5,8,3,-3,33,23
1693678103672703600,-84,-24,-6,-1,-5,34,16,95
1693678103674702900,0,-65,4,4,-4,-39,1,-25
1693678103687694500,40,105,-1,0,6,5,-24,69
1693678103689692800,3,-29,-4,-1,5,8,16,-89
1693678103691694000,-25,-15,-6,-3,-9,-37,-47,49
1693678103692691800,82,4,1,-2,-7,15,-6,-33
1693678103710680800,4,-18,5,1,6,-1,53,59
1693678103716678600,-26,-3,-2,-1,3,-13,-18,-100
1693678103718680200,21,3,3,7,4,-3,-7,-56
1693678103720675000,-29,0,0,5,10,86,3,35
1693678103723675800,19,-8,-2,-5,5,-16,-1,98
1693678103725672800,16,18,3,1,4,-27,2,-6
1693678103732668800,-19,-16,0,0,-3,0,12,-65
1693678103736666000,-7,21,-1,1,-4,13,-4,93
1693678103747660300,29,-2,-1,-3,-7,-3,28,-36
1693678103750664600,-90,-19,-7,-4,-3,15,-13,-56
1693678103763650900,22,15,-3,2,2,12,-8,60
1693678103767648800,29,17,3,1,-4,-29,19,-82
1693678103770646600,-34,-6,-1,0,3,-4,5,83
1693678103772647800,-27,-28,0,2,4,32,-19,-20
1693678103773646500,90,31,1,-1,-10,-2,-32,22
1693678103775644200,-104,-20,-5,7,16,8,40,53
1693678103784638600,76,-11,-14,-6,4,30,-60,-114
1693678103787637900,-33,23,22,15,-3,-36,83,94
1693678103792633700,-2,-20,-12,-12,-10,35,66,-61
1693678103794635800,18,11,0,-4,-3,-5,-106,-36
1693678103807625400,-21,-18,1,1,7,6,14,-64
1693678103809625100,55,-12,-5,-3,-4,-5,-59,20
1693678103814622100,-79,12,5,-1,-6,-71,1,-9
1693678103816620800,-11,-29,-5,7,9,34,15,21
1693678103833612700,19,47,3,-1,-10,21,4,-64
1693678103836608700,61,15,-3,-12,-13,-9,-27,9
1693678103838607800,-12,-18,1,0,-5,24,41,22
1693678103839609100,11,-1,-7,-10,-22,-30,-26,-39
1693678103845604800,-21,-9,2,-1,-6,15,3,45
1693678103850602800,-5,-5,-5,0,18,32,15,-14
1693678103853598800,3,-9,1,-2,-6,-18,-20,-113
1693678103855599300,0,-2,-6,-1,10,1,-28,21
1693678103868283200,-34,-17,1,1,12,39,33,46
1693678103870283700,-1,11,0,-7,-8,5,8,-15
1693678103883432900,-20,-15,1,6,18,-28,-27,-37
1693678103885430400,19,22,5,3,-12,-37,12,-1
1693678103890425600,5,10,7,-3,-11,-19,25,9
1693678103892425100,-2,-5,-1,2,-4,1,-17,-13
1693678103893423300,21,4,-5,-12,2,18,-30,6
1693678103897702700,4,8,7,-7,-19,-8,25,26
1693678103916659100,1,-13,-11,4,2,-16,-7,19
1693678103918653000,-5,8,8,3,-4,-3,13,4
1693678103919653200,15,6,8,29,16,52,13,10
1693678103921654000,26,-7,-24,-44,4,-101,29,22
1693678103932645900,-48,-11,1,-33,13,49,-16,-12
1693678103934644000,5,3,25,87,-13,-77,-21,-10
1693678103936644500,-9,0,8,-2,-11,-56,3,-7
1693678103937645700,48,10,-1,-13,-45,40,19,14
1693678103985615400,-38,3,-7,27,16,-23,-1,0
1693678103987613900,4,-31,-35,-51,-6,11,-5,1
1693678103989612600,-32,-6,-20,-29,-14,96,0,-9
1693678103991612300,-40,-19,-22,33,107,96,5,-2
1693678103993610700,50,34,37,8,-96,-68,-11,10
1693678103998609300,-9,0,5,84,3,15,10,4
1693678104001605700,3,-11,-2,49,-23,-104,-13,-11
1693678104003604300,-11,-14,-43,-46,5,13,-9,-6
1693678104005603900,-7,-25,-56,-95,30,0,7,-3
1693678104008602700,15,35,94,51,-32,-41,-5,4
1693678104010601200,21,19,17,-112,-47,22,4,4
1693678104016598600,-6,13,19,72,49,6,29,12
1693678104035586800,10,-16,-34,-63,12,59,1,7
1693678104037585800,-15,-23,-57,1,60,94,0,-9
1693678104053094200,1,1,14,13,3,-42,-22,-3
1693678104056092000,-4,10,0,-62,-100,25,11,12
1693678104058091600,-4,-16,19,95,-7,-8,-6,-10
1693678104060091200,13,2,-18,-71,-1,127,37,14
1693678104068086300,-30,-31,-43,-10,38,90,-40,-23
1693678104071084800,14,32,37,59,-47,-86,-23,5
1693678104073083100,7,-7,-9,-27,-7,41,0,-1
1693678104075082300,7,12,-8,49,51,-34,5,3
1693678104077081000,1,-10,-19,-56,-78,-68,4,8
1693678104080081400,-22,-15,15,93,72,-117,-24,-13
1693678104084076500,11,13,48,59,-50,-126,-13,2
1693678104086075700,-1,4,-26,-76,-36,-24,-8,-4
1693678104089073300,4,0,-6,-54,23,-63,22,7
1693678104091072900,1,3,25,10,37,37,7,-1
1693678104119057100,-4,-12,-20,-4,32,6,6,1
1693678104121055800,5,11,5,-28,-9,-15,-1,-76
1693678104123054400,9,1,-7,-31,-4,5,5,94
1693678104125053900,1,1,1,15,2,43,6,-6
1693678104136047000,2,-5,-3,-29,-1,4,-1,2
1693678104138046100,4,1,-1,-37,-24,-1,3,2
1693678104140044700,-10,6,-3,32,24,127,-3,-10
1693678104143043000,-9,-5,-13,-46,7,58,-1,-8
1693678104150040800,22,10,23,51,15,36,8,10
1693678104152037900,-2,-10,-5,-43,-30,-2,-4,19
1693678104155035700,4,3,-29,-19,37,-39,-21,-43
1693678104159033800,-1,2,43,37,-68,-44,1,34
1693678104175024400,4,10,-3,35,38,13,21,-2
1693678104177023200,-2,-3,1,1,-12,59,-10,5
1693678104192013600,-4,-27,-22,-50,2,-83,1,-2
1693678104194013600,-31,15,-15,-66,1,54,-5,-33
1693678104201010100,10,9,12,46,24,-80,-20,9
1693678104204008300,5,-21,-5,6,6,-7,7,-15
1693678104206006900,-43,17,9,22,15,-39,-5,27
1693678104208005500,-5,-53,-20,-63,-13,82,-16,-11
1693678104216002500,-42,11,40,-1,-61,14,12,-3
1693678104217999500,80,98,-2,7,45,57,20,-12
1693678104220998000,-25,-32,-5,7,-10,32,-41,4
1693678104222997600,19,-17,-1,-26,9,-86,36,8
1693678104224995900,-34,-99,-62,-128,7,-39,-27,3
1693678104226995000,-45,4,53,61,6,79,17,1
1693678104231991700,-1,64,33,10,-36,67,-2,-46
1693678104233990700,38,85,20,23,42,13,8,14
1693678104236988200,-4,-84,-28,-45,-56,-21,-7,11
1693678104248981400,-24,35,-22,-13,24,-100,-8,7
1693678104251979900,37,10,23,38,20,-28,15,-16
1693678104254978400,15,-9,-52,-23,51,108,44,35
1693678104255980700,12,40,67,56,-32,-66,-12,-25
1693678104257988600,-18,-69,-32,-45,-27,-55,-52,-7
1693678104259988000,-37,6,12,50,15,65,23,3
1693678104264986900,99,8,-4,-13,-25,33,5,34
1693678104272570200,-27,34,-10,-1,41,52,16,-1
1693678104274568600,-35,-67,-22,-23,-18,50,-15,-1
1693678104276568400,48,36,41,52,5,-13,36,8
1693678104283564900,-40,5,-7,12,15,-32,1,10
1693678104316545200,-36,49,3,5,28,49,-4,-24
1693678104318543500,48,21,10,-6,-29,-79,-1,25
1693678104320543300,-35,-52,-20,-6,2,38,-29,-19
1693678104322542100,-37,-47,-2,-4,-27,35,6,11
1693678104324541600,-9,44,-2,4,9,10,-41,-19
1693678104326540900,6,-20,6,-24,23,-11,15,5
1693678104330538000,-13,-37,13,20,8,20,36,9
1693678104333535900,-32,95,23,21,-2,4,-82,3
1693678104335534500,-112,-45,-20,-22,-19,-32,52,-37
1693678104337533900,35,5,-8,9,21,-3,-17,20
1693678104338533000,-28,4,2,10,1,-27,-79,-29
1693678104340532000,-128,-48,2,3,-13,-12,61,41
1693678104346529200,111,-3,-33,-24,-7,-10,-61,-89
1693678104349528900,-75,-13,8,4,-6,-40,-28,121
1693678104355522400,64,43,22,42,20,22,23,-9
1693678104358521100,-44,-40,-14,-18,-37,-80,-5,-30
1693678104370514500,53,29,-4,-12,14,73,-33,66
1693678104372514700,-60,-2,12,28,-33,-116,1,-85
1693678104373514100,-90,-19,-8,-3,6,49,10,98
1693678104375510700,47,-22,-8,2,-9,-14,-92,-8
1693678104400498500,68,29,14,12,33,81,91,12
1693678104402497300,-108,-77,-19,-42,-24,-11,48,48
1693678104403495700,100,57,6,24,5,-19,59,-95
1693678104405495200,9,68,8,0,-4,9,12,-28
1693678104406492700,20,-12,-8,-8,-42,-29,37,101
1693678104408492700,37,24,17,26,47,46,77,-121
1693678104416488600,-65,-88,-52,-70,-65,-115,-65,59
1693678104418488300,33,26,14,8,2,45,-41,107
1693678104431265000,75,38,10,26,20,-7,24,-108
1693678104434264700,-94,16,-8,0,1,-20,-53,81
1693678104435262200,-44,-63,-8,6,8,14,32,118
1693678104437261900,111,60,-12,-19,-16,-19,-6,42
1693678104453252100,-128,-4,2,2,0,-2,-84,-60
1693678104455250200,63,-70,-2,10,11,2,34,87
1693678104457249900,-5,-8,7,-4,17,39,-15,-128
1693678104459248800,27,58,3,8,27,43,-34,22
1693678104466244200,74,48,-7,-22,-26,-33,-42,62
1693678104469244100,-98,-33,-1,9,-35,-8,-10,-127
1693678104475239100,127,-62,-8,9,13,5,11,90
1693678104477239300,-128,21,32,15,23,84,42,-76
1693678104490230400,-51,-53,-18,-25,-15,-69,7,92
1693678104492230100,93,101,2,-13,-3,1,61,43
1693678104493228800,29,5,-12,21,5,-13,-4,-38
1693678104497226800,70,23,-5,-9,-27,-81,-106,-36
1693678104514217100,-126,-50,2,10,27,39,93,106
1693678104517216700,-45,-43,-11,-28,-30,-6,1,18
1693678104519216000,-128,35,-5,11,36,19,55,38
1693678104520214100,5,-82,6,0,2,-22,37,-12
1693678104526209900,91,15,2,23,22,-21,-128,-80
1693678104530208200,66,83,12,-5,-12,49,29,-63
1693678104535205300,24,-4,14,-4,-12,-7,79,-120
1693678104537203800,-14,-103,-18,12,22,0,-20,-39
1693678104551196400,25,46,21,-19,-28,-32,89,-20
1693678104553196200,-25,-23,-10,5,30,28,-40,-121
1693678104555193200,-12,41,19,15,18,71,-35,-38
1693678104557192100,-73,-7,11,14,11,39,55,10
1693678104573182600,-126,-118,-1,18,30,21,9,86
1693678104575181900,100,111,-3,-27,-41,-23,-52,-58
1693678104577179700,-50,-26,-13,-22,-19,-9,-24,92
1693678104580179700,-52,-29,17,39,40,-1,57,-90
1693678104587175600,34,-78,4,2,-19,-38,-33,-128
1693678104589174500,-19,46,-10,10,36,59,-74,68
1693678104597170400,-2,8,0,-2,-6,-14,-46,-64
1693678104600170200,-16,0,-7,-17,-28,-48,-9,-72
1693678104609162700,-125,-48,-24,-13,-7,24,-22,-22
1693678104612161200,64,-2,9,-3,-31,-74,-50,19
1693678104618156900,76,33,-6,-7,-1,-17,12,-11
1693678104619156400,-90,-83,-16,-6,6,-17,35,51
1693678104641144300,44,68,7,-7,-13,21,-47,56
1693678104643144100,-27,-62,-12,5,40,34,11,11
1693678104647141000,-4,54,15,-19,-67,-59,-29,13
1693678104651138900,-38,-46,-11,4,22,10,46,-62
1693678104652139500,-48,45,-2,0,-14,0,-11,87
1693678104654137600,16,9,16,5,11,11,1,-26
1693678104656136000,-31,-12,-8,-5,-10,-19,14,-22
1693678104659135300,22,-29,-1,-11,-21,-13,-54,14
1693678104680315300,-14,5,0,21,36,14,17,-52
1693678104683313000,-98,-30,-1,-16,-40,-38,-50,17
1693678104685311500,-67,-26,3,21,47,34,-51,-112
1693678104686311100,-30,-5,-16,-25,-25,-12,70,36
1693678104700305700,-18,-16,-8,1,23,38,-34,-62
1693678104702301500,-59,-52,-11,-22,-36,-42,34,-9
1693678104704301000,65,32,15,1,-7,21,-15,52
1693678104705302000,42,1,-24,-6,-2,-12,-34,33
1693678104706300500,7,22,8,3,9,44,21,-33
1693678104708298600,14,-29,-27,-20,19,48,-19,5
1693678104716296600,20,28,12,5,-26,-10,-4,-57
1693678104718292300,10,8,-1,1,-1,28,-5,23
1693678104732285500,1,31,25,14,-20,-30,35,-45
1693678104734283300,-14,-23,-1,31,36,17,13,4
1693678104736282400,-13,-25,-29,-63,-42,-45,-6,13
1693678104738282600,-5,26,14,10,0,34,-12,-3
1693678104753272800,32,-7,-3,-4,-39,-34,5,28
1693678104755270400,8,5,5,20,88,58,39,-10
1693678104756272200,-18,-15,16,30,5,-2,3,16
1693678104758270800,6,46,7,-23,11,25,-3,-36
1693678104767265200,19,9,26,76,19,12,8,12
1693678104768264000,15,15,6,5,-18,8,26,35
1693678104775260500,-6,-10,-15,-17,45,24,6,22
1693678104783257400,7,5,-11,-103,-6,2,5,11
1693678104790251300,-1,-14,-6,9,-30,-37,2,-4
1693678104792249600,12,27,50,-16,-42,4,11,3
1693678104797248500,-16,-21,-17,2,10,13,1,7
1693678104800249100,19,24,8,28,-15,-29,-4,-15
1693678104814238800,-5,-25,-63,2,46,37,5,-5
1693678104817237300,6,-7,-2,-1,-25,-55,-16,-8
1693678104818237700,-4,0,-9,-42,-59,105,15,18
1693678104820236400,-9,-43,-59,25,-32,-108,-30,-18
1693678104827230700,16,16,39,-41,54,24,1,1
1693678104832232700,2,7,-13,-22,15,22,11,19
1693678104835226700,-3,-7,-13,100,13,25,16,13
1693678104837224300,0,-1,51,80,75,40,-6,-15
1693678104851216800,4,-4,-19,-58,-44,-82,-4,-6
1693678104853215400,-7,-6,-5,-42,10,68,-14,-8
1693678104854215200,-4,-12,-74,-103,45,38,15,9
1693678104856213400,10,11,85,45,-4,-42,-16,-12
1693678104873203300,11,2,-1,-79,-31,80,22,13
1693678104875204700,-21,-15,-14,6,8,-71,-21,-14
1693678104879201300,13,25,32,-87,-11,-32,-11,7
1693678104884197800,22,27,23,61,-114,101,31,19
1693678104886198700,-2,-7,-16,-76,37,-41,-7,-5
1693678104888195100,-22,-47,-99,38,-4,-27,6,-9
1693678104899189600,-16,5,55,75,127,-27,-48,-21
1693678104901190100,34,31,4,-119,-59,-79,15,12
1693678104909184800,0,12,54,60,59,47,10,3
1693678104913181400,12,-2,-25,-25,97,127,13,0
1693678104918177800,-2,3,-54,-67,-39,-91,16,10
1693678104919179700,-5,-11,51,69,-51,117,-17,-6
1693678104933170600,8,23,-7,44,29,-43,-13,-4
1693678104935171800,6,-29,35,69,2,65,9,13
1693678104937169600,-4,24,26,6,-43,19,22,8
1693678104938166900,6,41,29,-23,21,-15,-3,-6
1693678104950164700,8,8,-76,-62,-20,-48,8,-1
1693678104953157100,0,-8,18,-36,13,-15,3,4
1693678104955157300,24,26,54,98,-40,-56,3,7
1693678104958154600,-50,-128,-105,-128,-5,-113,-14,-16
1693678104970150900,17,47,29,96,59,-19,-4,5
1693678104972149000,3,66,-6,-125,39,66,35,2
1693678104976145000,0,3,7,51,36,56,24,18
1693678104980142800,1,-55,-49,-48,7,-91,-52,-20
1693678104993135700,-91,-26,7,-11,-56,14,-67,-21
1693678104998134700,101,48,24,3,-53,9,71,37
1693678105000131500,-34,-76,-9,-12,17,15,7,-17
1693678105002131400,-40,127,49,81,49,22,9,-40
1693678105016123200,61,-65,-20,-26,-49,-92,-29,-17
1693678105018121100,-59,-8,14,-5,-40,19,61,44
1693678105021119600,-35,0,8,55,38,76,47,-7
1693678105022118200,48,-23,-31,-32,32,127,29,32
1693678105031114300,-16,10,32,10,-32,39,-39,-9
1693678105035111300,5,-15,-8,28,1,25,12,-54
1693678105038108900,23,24,11,-46,-8,17,-19,14
1693678105039110000,-55,-10,-18,5,21,48,29,20
1693678105053100400,21,21,2,-6,10,61,31,30
1693678105055100000,-24,-30,-19,-3,-14,-73,-21,-63
1693678105057098400,30,-10,-1,-12,-21,-23,4,21
1693678105058098400,-50,-38,-21,-10,-4,-21,-58,-16
1693678105076088900,100,74,17,18,11,15,11,52
1693678105078086100,-47,-18,7,9,0,-71,-17,26
1693678105083083900,40,14,-17,-16,-9,-45,-3,-40
1693678105085082800,-37,23,21,27,28,18,-6,-17
1693678105090079300,-46,-68,-22,-45,-14,-18,99,14
1693678105091079400,66,35,31,52,23,4,-37,-55
1693678105097075900,-101,0,33,5,-3,24,55,42
1693678105101073500,127,-7,-24,-31,-10,-27,-72,46
1693678105114065700,-119,-27,8,4,4,44,2,-118
1693678105117065800,-104,-19,-13,-8,-25,-48,-9,71
1693678105119064700,88,-23,-26,-22,-11,-38,-70,28
1693678105120063400,36,3,-6,1,16,5,62,41
1693678105135054400,-75,3,-4,-9,-4,-14,-125,-60
1693678105137053000,69,9,11,-5,-21,-47,15,37
1693678105139050500,-78,-21,-13,-23,8,11,-13,-37
1693678105140050100,-26,9,2,11,-4,8,-22,52
1693678105149045900,104,2,-10,-11,7,34,67,-29
1693678105150046000,-128,-25,22,35,21,25,-45,10
1693678105166037800,60,40,-1,-14,-18,-33,13,4
1693678105167036800,-74,-31,-21,-18,-11,-9,30,63
1693678105173031100,-60,-5,-4,6,-5,15,-62,51
1693678105175031200,120,25,6,4,20,6,34,-61
1693678105176030100,-94,-86,-5,-6,-6,-13,-36,68
1693678105178028700,35,90,-3,1,0,-28,70,-12
1693678105198021500,13,15,-5,-23,-21,2,-70,55
1693678105201016900,-119,-40,12,32,-9,-21,-13,95
1693678105203014600,-42,-6,-3,-39,7,13,41,-113
1693678105204016300,4,24,16,26,6,-15,-18,-48
1693678105209010500,-73,-5,7,8,24,51,9,-71
1693678105211010300,75,12,-7,-2,5,6,-46,-29
1693678105234996100,93,-8,-3,19,20,27,80,66
1693678105236995600,-12,-55,1,-4,-19,-12,-84,8
1693678105238994800,83,5,0,-3,1,12,-24,49
1693678105239993700,-128,-89,-8,-14,9,-15,52,-115
1693678105241992400,-62,-16,-8,3,-3,16,-88,110
1693678105243991000,-116,-30,1,-4,12,27,46,-1
1693678105254984300,-88,-4,7,29,3,-10,5,-16
1693678105256983400,3,4,-25,-39,-18,-10,-93,47
1693678105258982300,70,68,12,11,-5,-2,-7,-127
1693678105260983600,-106,-87,-5,9,3,-13,-16,-113
1693678105268976600,-40,38,16,0,5,8,67,43
1693678105270977000,-3,-87,-3,-6,-6,10,55,-2
1693678105279970500,-60,53,-5,-16,-15,-25,75,-28
1693678105283968500,20,33,-2,11,20,33,5,-81
1693678105293962600,78,-83,-14,-7,-16,-45,9,-43
1693678105299959800,85,84,13,11,12,22,-8,-20
1693678105301958900,1,-71,-6,3,-5,-19,-121,85
1693678105303956700,13,-20,-7,5,8,-2,-2,-28
1693678105322946400,-12,-18,5,-19,-21,-36,19,56
1693678105324944600,16,31,-2,8,1,32,2,52
1693678105331941600,88,23,-4,-11,-12,9,-23,-5
1693678105333940100,7,-9,-13,-12,17,23,-79,112
1693678105335940500,-39,-6,-12,-15,-14,-12,42,-78
1693678105336939700,-33,-28,-5,1,3,-22,-41,-6
1693678105338935800,3,44,-5,-8,-6,-8,5,81
1693678105339936800,12,-28,-2,-2,-8,25,51,-81
1693678105352929100,118,77,9,22,18,23,-19,42
1693678105354927500,-72,-41,-9,-21,-15,19,93,66
1693678105355926200,76,53,-1,18,20,-11,-14,67
1693678105357925700,-9,48,2,-13,-21,-20,-63,-64
1693678105375916000,-56,-57,-10,15,27,36,-28,46
1693678105379914500,127,18,-5,10,2,-13,-51,-71
1693678105382910900,-115,-25,-8,-43,-53,-18,91,-43
1693678105384910900,37,33,19,-2,8,33,-11,18
1693678105388909100,-42,-32,-16,3,28,-50,-33,-46
1693678105390906900,86,42,23,-2,-27,71,-73,-11
1693678105413894700,17,-35,1,17,10,-74,-91,-44
1693678105415893800,52,1,5,3,9,65,127,93
1693678105417893000,-28,-26,-13,-22,-22,-27,-21,-26
1693678105419890500,5,10,2,15,32,64,6,40
1693678105420890900,-3,14,23,16,-3,-3,-1,45
1693678105421890800,-41,-6,6,-11,-37,-36,-16,30
1693678105434882500,19,32,-1,9,0,21,-8,14
1693678105437881300,-16,14,9,9,-1,-28,17,14
1693678105442877400,-36,-19,-12,-14,-12,-4,-15,-73
1693678105448875100,-34,-18,-2,9,21,-50,2,15
1693678105450871800,2,24,5,-7,-15,17,22,8
1693678105452872300,-10,11,1,-11,1,-36,-24,-49
1693678105457870000,-31,-21,-4,4,-1,36,-7,-38
1693678105459868700,44,-3,-12,-16,-8,-8,-6,2
1693678105481856100,21,-6,4,8,3,13,24,21
1693678105483853500,-30,1,1,-9,-15,-39,-52,9
1693678105485853300,8,0,1,6,0,4,-1,-4
1693678105486853900,10,10,2,16,17,-9,28,12
1693678105496847700,-9,-18,-7,-9,14,27,-12,2
1693678105499846500,-24,2,10,29,52,42,7,2
1693678105513836800,-1,17,10,0,-7,42,18,-15
1693678105515837600,12,2,-10,2,4,7,-7,-17
1693678105518833600,0,-1,7,-42,-23,-9,10,12
1693678105520832500,0,-6,-4,-9,-11,-53,-14,-7
1693678105521831600,-1,0,6,-4,-28,-22,-13,-16
1693678105522831500,2,8,7,26,52,19,3,8
1693678105531829900,13,9,2,36,8,21,12,18
1693678105533825100,4,33,6,13,62,12,13,12
1693678105538822100,-4,0,34,-47,-66,8,11,-6
1693678105539821600,-6,-4,-17,36,42,-25,-11,-2
1693678105555814400,-4,-7,26,9,-74,-11,-3,-2
1693678105557813000,-6,-14,-44,-74,20,-6,3,-11
1693678105559810200,-7,-1,29,3,-38,-9,-13,-11
1693678105565807300,4,-14,-7,-22,13,4,-11,-6
1693678105568806900,15,25,14,7,-28,-24,4,12
1693678105570805600,-6,-4,-18,-17,-63,-46,-3,2
1693678105581802900,-9,-21,-42,-12,64,20,-7,-8
1693678105584797500,0,5,6,-3,-40,-2,-3,2
1693678105592792200,-2,-7,-11,76,-34,-4,4,3
1693678105596789200,-5,1,0,-43,-13,7,-4,-1
1693678105599788200,-3,-7,-24,24,63,3,-5,-7
1693678105601785900,9,16,37,80,35,-10,-3,-3
1693678105615779300,0,-7,-14,-83,-33,9,10,5
1693678105617777000,-9,-16,-19,26,-12,-11,-6,-5
1693678105618776600,7,10,31,-57,13,11,2,-1
1693678105619777200,4,9,1,-2,25,17,11,4
1693678105629770700,-9,-33,-29,-94,6,0,-3,3
1693678105634767800,-4,11,-4,127,67,-6,-16,-11
1693678105650758200,-27,-32,-52,-124,-83,45,-14,-15
1693678105653758300,17,-15,36,66,-37,91,35,29
1693678105655755100,-47,38,-6,-93,-6,73,-3,-31
1693678105658755700,17,25,42,-51,-82,-62,-13,-59
1693678105660753400,-6,-15,-12,72,-44,82,0,61
1693678105665749800,30,-29,-47,-123,-110,-47,7,34
1693678105682740800,-88,-29,-24,17,-33,-95,-59,-46
1693678105685737500,60,85,42,57,65,124,46,-27
1693678105687736600,22,18,21,98,48,-55,27,81
1693678105689736400,19,-2,7,-46,-50,5,-47,-106
1693678105705727300,-24,-98,-52,-66,9,50,-8,90
1693678105707724900,-48,-122,-41,-46,-18,-56,-65,-44
1693678105709725000,24,107,60,63,7,41,48,-36
1693678105710724100,-7,-37,-18,-9,87,-35,40,101
1693678105716720000,102,78,38,65,-7,14,57,32
1693678105718719100,14,5,3,-39,23,127,-25,56
1693678105719719400,-16,-100,-28,12,3,85,41,13
1693678105722717300,-53,41,-3,-7,18,7,-93,-71
1693678105735709100,77,47,17,29,5,-63,-12,81
1693678105737708700,3,-24,7,28,-4,78,127,80
1693678105738707300,-25,4,-1,0,-17,-105,-112,-112
1693678105740707400,-44,-15,-20,-33,39,-52,-28,-38
1693678105750701700,74,12,33,40,39,-23,-5,61
1693678105753699300,-96,-16,-23,-26,-77,-128,-33,-14
1693678105757696900,105,0,-22,-24,55,-19,22,-3
1693678105760694600,-72,5,-7,-18,-45,33,-7,-1
1693678105771688700,22,-5,19,55,71,60,-12,-116
1693678105773688500,41,62,39,30,49,-2,39,-14
1693678105780684100,-106,-53,-43,-43,108,51,30,113
1693678105785681500,39,9,-8,2,56,-94,66,-109
1693678105797673700,-22,4,14,20,28,8,-54,82
1693678105801671900,4,-6,6,-2,15,2,58,11
1693678105803673300,-32,-9,-3,4,-58,2,-85,-110
1693678105805668900,16,1,-10,5,-13,67,-24,106
1693678105808667600,-128,-30,-7,11,60,71,58,-116
1693678105810666000,83,-7,-10,-38,-68,-30,-24,-36
1693678105817662600,17,17,-4,26,10,-32,27,-17
1693678105819661600,-57,5,15,-29,-5,76,67,16
1693678105833653500,61,10,17,57,96,102,-14,-54
1693678105835652200,-128,-89,-45,-68,-32,58,-94,-36
1693678105838650500,127,38,-12,-9,35,22,41,-39
1693678105840649600,-18,-1,4,5,62,-35,-73,-89
1693678105855641800,-60,-18,-32,-33,-76,32,87,57
1693678105857639000,-35,37,36,-30,38,-127,-128,5
1693678105858638800,-109,-41,-26,-33,27,-100,-7,-79
1693678105862637400,95,19,-10,33,52,84,64,82
1693678105868633600,-63,-15,-18,-8,-24,5,99,-128
1693678105870633300,-61,12,15,29,6,20,-32,7
1693678105885637300,24,1,7,22,-10,-44,4,64
1693678105886639000,-65,18,15,19,-40,-14,-70,18
1693678105892634900,78,-3,-3,-32,-27,4,15,127
1693678105894632500,-21,18,2,27,9,117,58,127
1693678105900630500,29,56,27,2,31,5,45,-53
1693678105902628800,-82,-37,-5,-9,-44,-33,-25,-72
1693678105922616800,-127,-42,-5,-2,20,-65,-80,-48
1693678105924615600,65,-5,-13,16,17,-27,67,94
1693678105928614200,46,-26,3,-6,-15,64,-62,0
1693678105933611000,89,57,14,-13,-11,50,55,47
1693678105937608600,-56,-4,1,-15,3,-64,-20,-93
1693678105939606200,11,51,-1,18,0,-18,87,11
1693678105940607000,-128,-22,1,19,4,25,3,-95
1693678105942607300,26,9,1,-26,-36,-10,-14,28
1693678105951600900,101,-3,-3,12,25,-9,-18,72
1693678105953600000,96,17,-2,22,19,23,-26,-69
1693678105975935400,-50,-27,14,4,-8,38,43,55
1693678105979938200,-85,-10,-12,0,-4,-25,-56,-59
1693678105982937600,-61,-8,14,3,4,6,3,93
1693678105983935900,-82,-1,-21,-13,-5,-22,-17,7
1693678105985935900,16,-5,12,-12,-13,-50,-7,-47
1693678105986935400,-34,2,-24,-16,-39,-14,17,16
1693678105997927100,15,-5,8,14,20,20,-11,10
1693678106000925800,-69,-51,-3,19,14,17,-30,-49
1693678106002925000,41,-8,-8,-17,6,20,-6,86
1693678106003924400,91,19,24,23,6,-13,-76,5
1693678106019913500,-6,31,-16,-22,-7,25,20,-58
1693678106021913000,62,18,1,-22,-15,-43,19,-64
1693678106023912900,-15,-23,-11,42,37,37,-85,75
1693678106025910900,23,29,18,-25,7,-2,31,-57
1693678106034907100,22,-6,1,23,89,-23,3,-36
1693678106036905900,-15,-4,9,5,-75,-23,-10,-17
1693678106043062100,-34,-10,-15,-51,-11,-51,-20,-13
1693678106046061400,94,-18,-2,40,92,59,26,2
1693678106074045600,-40,17,6,10,30,34,3,-24
1693678106076043300,10,25,26,-10,-20,11,4,0
1693678106077044700,-13,-1,-41,-29,-28,-19,-7,4
1693678106082042000,-51,-38,3,18,30,-3,14,32
1693678106085038200,8,6,-19,-58,-32,-52,-12,-22
1693678106086036900,1,-34,-8,2,75,19,6,20
1693678106088036600,9,34,11,-14,-51,16,14,13
1693678106089036100,-37,-24,-23,-10,8,-21,11,-18
1693678106103027400,20,-2,-8,49,27,35,-11,15
1693678106105027100,-17,-26,-17,-81,-5,-13,-19,-17
1693678106106026500,-13,39,62,-1,0,-8,4,1
1693678106107026300,-20,-13,-11,-17,-127,-37,7,9
1693678106117506000,14,10,-6,-41,-99,-21,-6,6
1693678106119504800,-9,-15,-36,26,90,-11,-36,36
1693678106120504300,-13,-6,9,-36,7,3,18,-14
1693678106122502900,0,13,31,44,-4,43,8,26
1693678106140693200,1,-8,7,-15,-63,-20,-19,10
1693678106142692800,0,-6,-18,-15,-31,36,5,-33
1693678106143691200,-3,-7,-21,2,21,-17,-5,-4
1693678106145691200,-13,-10,-19,38,7,-32,6,10
1693678106155684600,-3,6,32,-20,4,-52,-6,-13
1693678106156684900,4,3,-2,-2,2,47,22,-1
1693678106158684300,-9,-12,-26,85,20,-68,-12,-3
1693678106159683000,-8,-12,-23,-65,35,120,20,7
1693678106180483800,11,25,42,-1,-9,24,-1,-1
1693678106183481400,17,21,-10,-85,19,72,16,11
1693678106185480200,3,9,41,75,-95,-53,-3,7
1693678106186479400,-4,-27,-23,32,108,81,15,-1
1693678106192475800,-8,15,1,-57,-52,-50,-13,-6
1693678106193476000,15,9,30,119,-26,-81,5,5
1693678106200471700,-29,-50,27,-76,101,10,6,-18
1693678106202469400,67,102,12,19,-69,81,19,17
1693678106215462600,11,-56,-37,46,14,36,9,25
1693678106217461100,-89,-78,-70,37,47,-68,-1,-39
1693678106218460900,44,93,8,7,127,72,-15,5
1693678106219460800,-27,3,8,-20,-120,-34,-9,-2
1693678106237450300,14,-44,-9,-44,-15,8,-1,12
1693678106239448800,54,102,87,40,51,35,43,-30
1693678106242448200,-14,-119,-68,-47,-115,96,-6,50
1693678106243447400,-7,38,33,-32,98,-52,-7,-24
1693678106251441200,23,28,-32,38,-15,51,0,25
1693678106252441400,-18,-60,7,0,57,62,25,-36
1693678106260504000,-24,27,12,-20,-99,-35,-46,-66
1693678106265508200,0,-39,-24,-4,-28,-6,15,27
1693678106275499800,-35,-42,7,6,35,25,97,79
1693678106277499200,30,41,15,-1,-49,-91,-35,-52
1693678106281501000,-22,13,-17,-3,-4,95,-48,-37
1693678106283496000,-30,-54,-7,5,6,15,-86,-84
1693678106297487800,5,8,-4,9,9,3,-38,65
1693678106300488600,0,-10,0,-24,-45,25,18,17
1693678106301487600,46,62,33,49,21,-43,62,34
1693678106302485900,-80,-19,9,-6,20,13,72,66
1693678106313521900,14,26,12,17,31,-11,12,-50
1693678106316520800,69,-2,-14,2,-21,-13,74,40
1693678106320516100,-30,-29,-17,-12,14,-39,-48,45
1693678106321517000,-31,-16,-8,-14,-16,-51,-94,-17
1693678106342936500,-106,9,4,7,15,-88,-128,-76
1693678106347935700,39,32,-6,-8,-29,-8,60,2
1693678106349931000,-64,-10,-4,6,15,-18,-2,95
1693678106351928700,-65,-18,3,-6,-13,0,38,-67
1693678106357925900,62,2,-7,22,8,43,-94,-71
1693678106359925900,-51,-17,0,-11,-3,27,15,44
1693678106363922900,-26,19,13,26,31,20,88,11
1693678106366920700,-67,10,-4,-6,1,40,2,127
1693678106382658500,-31,-1,2,2,-4,-6,14,-128
1693678106384658700,-81,-45,-12,-12,-35,-53,-116,73
1693678106385657900,121,23,1,5,17,45,37,-115
1693678106386657300,-25,-3,-5,-10,-8,-43,107,76
1693678106397649800,-74,-16,3,18,26,22,-38,33
1693678106399648000,-21,36,7,9,-19,-57,44,63
1693678106401647100,-20,-22,-10,-8,-9,-24,28,9
1693678106403646300,54,-43,-8,-1,9,-6,-13,-128
1693678106417637700,21,32,-4,-22,-35,-81,-49,85
1693678106419635900,5,-12,5,16,22,59,25,46
1693678106421637600,28,-25,7,34,29,67,19,-120
1693678106422636500,64,-3,-1,-3,-10,-128,-24,51
1693678106431629300,-13,16,13,16,39,127,111,-15
1693678106433629200,-1,-34,-40,-42,-75,-66,-34,-128
1693678106440624500,-128,2,0,-15,-6,52,42,-27
1693678106442623500,77,-9,5,14,1,37,-122,95
1693678106455615300,79,23,9,7,-10,8,79,8
1693678106457614800,68,59,10,21,27,30,-92,74
1693678106459616100,-92,9,18,41,33,-32,-44,-90
1693678106463611300,27,45,-7,-38,-56,-63,93,-59
1693678106480138500,27,6,-20,-29,-23,-63,-78,127
1693678106483137900,-83,-69,-1,20,38,47,-9,-88
1693678106484136400,-70,20,8,18,-13,22,-3,15
1693678106485136100,64,35,3,-34,-40,-38,-82,92
1693678106492132900,-30,2,4,7,2,-29,40,-128
1693678106493131800,-111,-26,-1,19,70,98,14,13
1693678106500127700,127,4,5,11,29,52,30,-48
1693678106502127100,-94,-38,-1,0,-6,76,65,-31
1693678106515120400,-26,-50,-22,-26,-14,19,-46,54
1693678106517118300,-20,-6,4,-13,-13,-4,-42,-7
1693678106519116500,-38,-4,-20,-27,-20,-52,-11,26
1693678106521115100,-48,13,1,-23,-56,-53,21,-64
1693678106538105800,-17,-15,-13,4,15,34,78,1
1693678106539104700,38,70,38,7,-39,-41,-49,-28
1693678106541104200,15,2,-10,-28,-23,-51,-48,54
1693678106543103400,-30,-48,-25,40,85,41,-29,-39
1693678106551099300,20,56,48,44,34,37,40,12
1693678106553096900,21,-13,-8,-24,10,9,36,0
1693678106560505300,-20,-45,-33,-15,-17,-40,15,-19
1693678106565510800,32,58,53,56,38,38,-19,-23
1693678106576129000,-16,-22,-34,-1,12,7,5,-24
1693678106581130700,-20,-13,2,-61,50,29,34,-9
1693678106583129300,42,42,15,-2,-67,12,6,54
1693678106585128100,-32,-42,-23,-59,-40,-38,-16,-29
1693678106598124300,-2,16,-5,15,-7,8,-6,3
1693678106601119000,-5,-13,-44,-50,69,-16,-18,-4
1693678106602120500,8,9,60,-83,-73,2,-18,29
1693678106603119100,5,-5,-25,-70,-57,-24,-24,-26
1693678106614112300,-12,-5,-39,45,45,-40,4,-31
1693678106616115800,-7,-18,23,-91,-78,-76,-21,-13
1693678106620109400,-5,-23,18,127,123,92,0,10
1693678106622108000,11,40,55,-11,17,-23,30,0
1693678106635515500,-4,-10,-36,-36,6,-12,-2,-6
1693678106637514700,-7,-30,5,127,108,35,-10,3
1693678106638513900,0,21,-24,-111,-31,76,-6,17
1693678106639513500,2,13,31,5,55,-100,-10,-11
1693678106657503600,-6,-8,-6,-106,-94,67,18,0
1693678106661502800,6,-4,3,124,61,-15,-6,-4
1693678106665502100,-2,-8,-47,-41,4,-92,-15,-5
1693678106667497200,-12,-2,14,127,-23,49,0,-15
1693678106671494900,-2,-2,14,-38,-11,-4,-6,-10
1693678106672495600,-11,7,11,23,29,38,-8,-9
1693678106681951800,18,-25,1,-33,-93,58,24,28
1693678106682954100,-18,8,-97,-48,127,78,-7,-21
1693678106696497600,14,5,109,95,59,20,3,15
1693678106699497000,-13,64,23,-102,-128,80,-17,-26
1693678106701494700,13,-66,-18,-39,-5,-99,6,24
1693678106702493800,-22,24,-41,30,50,113,3,-21
1693678106717488900,0,41,35,-35,-84,-36,-27,-20
1693678106719484200,5,-10,-80,110,57,-62,-26,8
1693678106721483400,13,24,16,-71,-100,0,19,2
1693678106723481700,-27,-106,6,17,-63,-10,-16,-5
1693678106732479700,-27,-13,-52,2,23,-73,7,-6
1693678106733477800,25,65,59,10,-9,-58,9,10
1693678106740472200,-9,4,-33,-32,42,25,-14,-11
1693678106741472300,22,-10,3,12,2,-124,23,18
1693678106754464500,-5,-35,-95,-9,81,127,-11,-2
1693678106756463600,6,-26,84,-41,-128,-55,-11,5
1693678106763459400,8,101,10,45,27,-48,-14,-10
1693678106766458000,9,-15,-7,-54,2,69,1,6
1693678106780450200,-7,-24,-15,-27,7,-56,-1,-7
1693678106783447300,-10,-26,-37,-60,8,62,35,3
1693678106784446500,4,-4,3,60,47,-5,-9,3
1693678106786447400,13,25,13,-1,-22,-3,10,4
1693678106792442800,-35,38,65,38,-9,5,-14,-22
1693678106796442200,4,-17,-37,2,-3,-70,6,-4
1693678106800439000,-7,-17,5,34,27,-46,73,12
1693678106802437700,12,24,2,-26,-17,28,-69,-6
1693678106815433400,9,-13,-6,-7,-20,27,-39,-41
1693678106817428400,-5,-6,-3,-26,11,36,48,7
1693678106821425900,-6,8,4,22,35,21,-27,-12
1693678106823425300,-15,2,3,-13,-16,13,121,-12
1693678106837418600,31,0,8,15,8,19,59,49
1693678106839416700,11,12,1,4,4,55,58,-10
1693678106841414600,10,-34,-25,-9,-6,-20,-39,13
1693678106845413200,-15,12,13,25,9,-14,-42,-82
1693678106851407700,-11,14,15,2,-7,37,106,63
1693678106853408900,-71,-11,-14,-24,-5,-59,-106,3
1693678106868400100,60,18,7,19,18,17,51,-60
1693678106870398900,-60,5,0,-21,-19,-42,-62,-51
1693678106874394700,-34,-24,-6,-14,-13,7,-22,39
1693678106876396500,-12,-2,-2,-5,12,65,127,17
1693678106882392000,-8,2,9,16,18,1,-128,103
1693678106884389500,47,11,6,-1,-9,5,-12,1
1693678106898382800,-25,-10,2,2,-1,15,-78,-96
1693678106900382100,-35,-2,-10,-7,-4,-34,-33,30
1693678106901380500,53,-2,3,7,11,25,127,37
1693678106902380500,-29,0,2,0,-2,-4,-37,121
1693678106920516800,69,2,-4,-12,-13,-17,-19,-97
1693678106922516000,-25,3,0,-5,-2,-20,30,34
1693678106925513900,-51,-12,-13,-11,-3,-6,-120,-27
1693678106926512900,-78,-18,-1,-2,-2,30,94,-65
1693678106934509300,27,-2,-6,-5,-3,-51,27,126
1693678106936508800,14,9,1,-4,1,13,-128,-43
1693678106941524300,100,5,-7,-3,-6,-18,60,79
1693678106942522500,-81,2,15,17,21,56,44,-51
1693678106965512600,-16,6,2,1,-4,-24,-11,-100
1693678106968508200,-1,-2,-6,-10,-12,8,8,62
1693678106969509600,-128,-15,-8,-5,0,2,27,-45
1693678106971506400,127,6,-5,-5,-13,-11,-49,127
1693678106980502600,-47,-7,-2,1,-9,-39,42,-102
1693678106983500500,46,-11,6,15,41,2,-4,78
1693678106984500500,21,15,-4,-9,-17,14,18,-123
1693678106986497700,-28,-19,2,0,7,0,65,103
1693678106997492000,4,-11,-10,-8,-11,-30,-93,65
1693678107000490300,-99,2,8,4,-1,-28,15,-107
1693678107002488800,-17,12,6,18,18,32,34,75
1693678107004487900,-35,-33,-1,7,13,-1,11,29
1693678107018478800,-40,42,6,0,10,24,95,-60
1693678107020478100,-50,-17,-2,-6,-13,30,-26,19
1693678107022476200,-26,6,-10,-3,-10,-72,-13,-28
1693678107024475900,-13,23,16,13,8,16,10,-25
1693678107040467100,-27,-34,2,4,-2,3,49,-15
1693678107043465900,49,12,-17,-26,-28,35,-17,-38
1693678107047467500,-17,0,5,1,-2,8,-26,-17
1693678107049461400,6,-13,-13,-3,3,-23,-34,20
1693678107054457600,14,9,4,9,12,4,-23,12
1693678107055459400,27,-12,-10,-16,-6,12,9,-13
1693678107064454900,-14,-10,4,3,5,14,-14,-10
1693678107067454900,12,-4,-8,-11,-16,-6,14,-67
1693678107079443700,-2,6,6,2,-5,20,-8,57
1693678107083442300,26,8,-4,5,20,16,19,-30
1693678107084442600,-25,-12,5,7,7,16,2,0
1693678107085441900,-3,7,-2,2,10,-13,-16,-23
1693678107100433200,2,5,0,-17,-31,-20,-6,5
1693678107102430100,10,-6,-6,-7,-13,-22,-22,30
1693678107103431200,-10,-10,-5,2,7,1,9,-24
1693678107104430300,15,14,-1,-7,-18,-13,6,-15
1693678107115428100,20,7,5,1,10,53,30,30
1693678107117424600,42,1,-1,4,15,-14,-19,30
1693678107122419000,-12,4,0,-22,-10,2,16,24
1693678107124420300,8,-1,-5,-9,-15,1,-14,-21
1693678107148420700,-14,-13,-13,-23,-13,-14,6,15
1693678107150404500,5,-2,8,18,12,3,18,-43
1693678107151403600,-4,-6,-4,2,-1,-2,-16,-14
1693678107152401100,-3,-10,-16,-26,-34,-64,-10,-2
1693678107166883100,7,7,-6,1,18,19,-10,12
1693678107168881800,5,5,8,-57,-66,-8,19,8
1693678107175877300,-8,-14,-2,34,29,-18,-27,-12
1693678107178877000,-3,-6,-7,-37,-31,2,8,-20
1693678107181874800,13,22,26,2,29,21,-8,18
1693678107183875700,-11,-9,-8,42,-1,-14,-4,-21
1693678107190870700,-6,0,5,2,6,53,11,-4
1693678107191868300,8,-1,-4,15,14,4,0,-10
1693678107198864700,-11,-17,-33,12,61,10,-11,2
1693678107200864500,13,25,61,-58,-57,24,20,7
1693678107202864000,-2,-2,10,25,-11,-26,-2,-10
1693678107203862200,7,0,-17,-64,37,15,6,8
1693678107220851600,-4,-2,28,62,14,23,-7,8
1693678107222853500,-2,-3,-33,-24,18,-19,21,-11
1693678107225849300,-7,-8,8,39,55,56,-22,-11
1693678107226848300,16,16,8,-89,-99,41,11,7
1693678107233845900,-16,-16,-35,-13,-50,-42,-14,-5
1693678107235844900,0,-3,-40,66,-28,30,-1,-12
1693678107242839800,-8,-5,25,70,107,-33,-16,-8
1693678107244839300,31,33,-14,-4,-34,8,53,26
1693678107257830900,-11,-22,-33,74,90,21,-21,-8
1693678107258830500,-20,-13,-63,-10,58,-54,-39,-24
1693678107263828200,-2,6,28,0,-54,78,-4,-2
1693678107266826800,8,6,42,-27,10,72,14,3
1693678107280818800,-6,-15,9,-15,14,26,-23,0
1693678107282822000,9,-14,4,-33,73,55,34,16
1693678107284816300,-61,-6,-45,-64,70,-7,-17,-46
1693678107285816200,16,38,11,84,85,-64,-27,-5
1693678107294810300,6,-7,-34,12,-12,85,13,3
1693678107298809200,5,26,65,30,-49,-43,-2,4
1693678107302805400,-10,-33,-51,-10,49,-40,-13,-4
1693678107303804700,7,-14,91,-23,-73,-18,12,12
1693678107317517900,-40,-12,-62,-51,58,-95,-20,-28
1693678107319517700,14,27,7,-50,-56,26,-3,-4
1693678107321517100,36,16,14,-4,-91,-17,35,27
1693678107322515700,-28,-3,-3,127,90,2,-27,-21
1693678107340506200,15,-12,30,-3,-103,-106,2,16
1693678107341505300,-8,-14,-6,-2,-53,20,7,-5
1693678107343504100,15,11,-5,-64,-42,-80,7,8
1693678107346503600,-8,-15,-37,-4,-3,92,-1,-5
1693678107353498400,2,-3,-15,-106,13,-52,0,9
1693678107355497500,4,20,82,104,90,101,34,0
1693678107363506700,1,-6,-51,-61,12,-33,-38,-5
1693678107365516200,-11,-22,-17,17,-36,-26,-30,-9
1693678107381308900,-10,18,18,-44,-71,-50,-19,-18
1693678107383304200,7,2,-19,-13,24,12,3,3
1693678107385302200,9,1,13,38,-8,90,17,10
1693678107387300400,-2,-4,0,-21,22,54,25,0
1693678107400291700,2,8,20,22,-37,-50,-18,0
1693678107403292300,-5,-14,-25,6,47,7,-11,-1
1693678107404291600,5,3,34,22,-21,111,25,5
1693678107406290100,-3,-4,-33,18,9,-41,14,-4
1693678107414284500,9,1,4,10,38,62,-14,6
1693678107415290200,-9,-10,11,8,-42,-41,-18,-6
1693678107423282200,6,5,-4,-15,-9,-14,2,5
1693678107424279500,-4,1,-13,-11,28,-1,18,-1
1693678107438271300,7,5,19,33,-9,40,6,2
1693678107440269200,-8,-12,-28,-50,-4,-12,-6,-4
1693678107442269000,-4,0,-18,-12,-14,-7,-2,-4
1693678107443267700,4,11,37,33,-5,-25,-6,2
1693678107462507300,6,9,26,11,-5,7,26,5
1693678107466505600,-6,-9,-26,2,24,-10,8,-15
1693678107467505900,-2,-8,-21,-23,-14,-19,-25,25
1693678107469503000,-7,-10,-23,-3,17,19,-6,-7
1693678107474501600,2,4,9,1,0,33,18,10
1693678107477498700,1,0,-1,-4,5,5,20,-3
1693678107482496300,-2,0,2,-5,-13,-13,13,-9
1693678107484494200,3,2,2,-16,5,6,-56,-1
1693678107498487000,-7,-9,2,7,3,23,-18,-5
1693678107500485900,8,4,-4,4,0,-13,-19,-4
1693678107502483900,0,-5,9,18,-2,2,22,9
1693678107503485700,-1,1,-10,-6,10,-14,-14,-1
1693678107520479500,3,5,1,-9,-6,16,17,-2
1693678107522472500,-3,-1,0,13,-3,-13,-8,-1
1693678107524471200,-2,-9,-26,-31,0,3,-10,-8
1693678107528469500,-1,0,-15,4,8,3,13,1
1693678107533466500,6,11,17,27,-4,4,3,1
1693678107535466100,-2,-7,-21,-13,-12,2,29,4
1693678107542461300,-1,2,1,-1,-13,-18,-43,-10
1693678107548458500,-11,-18,-38,-21,9,0,3,-5
1693678107558451700,2,3,4,-8,7,7,11,3
1693678107560451700,-3,0,19,14,6,-3,-16,4
1693678107565452700,1,-4,0,26,17,21,31,-2
1693678107567447100,1,2,5,-14,-17,-15,-8,-34
1693678107582439900,-19,2,3,0,-2,-3,-24,-10
1693678107585436300,25,0,-7,-13,5,7,8,71
1693678107588437200,-9,-1,3,-4,-5,-24,0,-11
1693678107589435400,-3,1,10,15,9,3,2,-12
1693678107602427400,-20,4,-2,1,-5,13,6,31
1693678107604425900,60,9,-2,-2,0,-2,18,-27
1693678107606426100,-13,0,5,9,2,4,-10,2
1693678107608423800,1,-6,2,4,0,-11,4,7
1693678107617418500,-6,-9,-19,-16,-11,-2,1,-69
1693678107620417400,-32,0,4,12,7,-3,-35,94
1693678107622415800,15,10,12,-2,0,10,27,-49
1693678107624414900,-18,-3,2,7,5,4,10,52
1693678107639405400,-7,-10,-7,10,21,19,1,2
1693678107641406000,1,8,7,-6,-11,0,-5,-27
1693678107649399900,-14,-3,0,8,1,-5,-4,68
1693678107652397600,33,4,-3,1,0,0,-23,-94
1693678107664390900,-9,-9,-5,-12,-16,-39,4,109
1693678107666390400,47,11,0,7,9,27,20,-25
1693678107669388400,-7,-1,1,2,11,16,-6,55
1693678107671387600,8,13,9,1,-9,12,19,-27
1693678107681382800,41,7,4,12,16,18,-24,-74
1693678107683381000,-80,-30,-10,-11,-21,-28,11,7
1693678107686378900,112,20,1,-2,-10,-15,9,37
1693678107688378900,9,-9,-4,5,11,29,0,22
1693678107699371200,-74,-6,5,3,7,13,25,-43
1693678107701370000,51,18,2,5,11,55,-20,-19
1693678107703368600,-12,-23,-15,-18,-29,-66,2,-89
1693678107705368600,-14,-22,-10,-3,1,6,-10,2
1693678107722357700,20,10,13,19,32,81,-41,-105
1693678107723357300,-38,-6,-3,-4,-12,-75,23,23
1693678107730353800,-95,-19,-1,-1,-6,21,-9,46
1693678107733352500,75,35,3,-8,-4,29,61,78
1693678107736350700,5,17,20,21,24,-3,23,4
1693678107737350500,8,7,1,-2,-8,8,-19,24
1693678107748347700,18,-2,-1,1,24,69,-18,-83
1693678107750342700,-50,-21,-14,-17,-8,-15,-17,15
1693678107759338100,36,23,22,29,9,34,34,19
1693678107765333700,-27,-21,-13,-13,-9,-47,-15,-40
1693678107767334100,-16,-20,-15,-9,12,20,3,-25
1693678107769331400,82,49,27,25,3,5,-35,-36
1693678107783324100,-38,-17,-16,8,38,1,-6,111
1693678107785322400,22,1,5,2,5,-8,-23,-65
1693678107787322000,-4,1,12,5,-14,-30,2,-15
1693678107789320500,67,-20,-23,-18,-5,-18,-12,-3
1693678107798315600,5,-1,0,-17,-43,-29,-17,-41
1693678107800314100,-14,0,-4,5,18,7,3,-21
1693678107804310800,-8,0,-2,-2,-15,-20,-8,-3
1693678107807309800,-58,1,-4,-13,-5,-46,-10,-14
1693678107819302300,0,-26,-34,0,-13,-14,5,13
1693678107822301300,-10,-6,31,15,14,17,4,-9
1693678107824300100,2,9,-7,-3,-23,-12,3,6
1693678107825299000,-33,-1,12,17,32,19,-2,-4
1693678107842289000,3,-14,-21,-12,-38,-19,4,9
1693678107844288000,-5,5,11,37,21,15,-1,5
1693678107849284900,18,12,3,-33,-4,-25,-9,0
1693678107851287800,-38,-22,-29,45,47,-5,-1,7
1693678107856281600,17,9,45,-54,-53,18,8,3
1693678107858280000,-8,-1,-22,13,11,-43,-11,-12
1693678107873271400,2,2,1,-47,-23,6,3,7
1693678107875271700,-26,-15,-27,-60,2,16,4,-8
1693678107880267800,9,1,40,75,30,6,0,1
1693678107883268200,6,12,-3,-41,-56,2,4,2
1693678107884265200,-5,-3,1,4,-3,3,-1,1
1693678107885264900,-13,-4,-9,-4,-23,-2,2,5
1693678107902495600,9,-13,-52,-21,18,-3,1,0
1693678107904493400,-13,-7,-7,-85,-1,30,-5,-2
1693678107905493900,4,10,36,123,-18,52,-13,-2
1693678107907493100,-8,1,-26,-55,9,-91,2,-3
1693678107916489400,6,6,13,87,-59,-57,-10,4
1693678107917486300,-6,-13,-49,-44,9,28,-8,-7
1693678107924553800,-1,3,5,2,-22,-18,3,0
1693678107926557100,-6,-2,3,3,-5,40,5,0
1693678107939551000,-1,0,2,31,83,8,-15,-6
1693678107941549100,1,1,10,0,-63,-38,6,4
1693678107948544700,4,0,-29,-29,36,32,4,1
1693678107950542400,1,12,64,33,-27,40,-1,7
1693678107962535700,0,-6,-51,-83,-45,-16,5,1
1693678107965537700,-9,-15,-14,42,77,59,7,-1
1693678107969530800,-5,1,-12,-18,52,-53,-21,-6
1693678107971532000,6,17,37,-76,-36,-7,8,5
1693678107976527600,4,6,6,71,-4,1,7,2
1693678107983528000,4,10,39,-52,-33,40,4,0
1693678107985523000,-15,-23,-63,-15,49,-11,-11,-9
1693678107987523800,-9,-10,-5,34,-51,13,7,-1
1693678108007509700,4,4,33,51,29,-1,-7,-2
1693678108011508700,-13,-21,-67,-84,87,28,-5,-4
1693678108014506600,26,46,120,107,-85,-14,16,17
1693678108017504900,-3,1,-5,-94,53,-20,-2,-4
1693678108031496500,-7,-15,-45,-108,20,33,5,-3
1693678108035493800,-1,2,17,114,47,4,-1,-2
1693678108039492000,-7,-8,-8,-9,-7,19,-6,-5
1693678108042490100,7,10,20,15,11,-14,5,4
1693678108046487600,-3,-2,-1,28,-28,-32,-8,-4
1693678108050485100,1,3,-6,-69,-13,-40,-7,-1
