timestamp,EMG_s0,EMG_s1,EMG_s2,EMG_s3,EMG_s4,EMG_s5,EMG_s6,EMG_s7
1693678278308652100,-31,0,3,-1,2,-7,-28,-7
1693678278311649900,40,3,2,-2,-2,-2,-10,-17
1693678278327641300,-21,-3,-1,-6,0,10,-8,31
1693678278329640500,-5,2,1,-2,-2,-10,6,13
1693678278331638600,-25,-5,3,3,2,2,18,-1
1693678278335640000,-59,-4,3,4,10,11,11,-19
1693678278340633700,66,4,-1,2,1,12,-22,16
1693678278344632300,14,-2,-1,0,-2,1,55,-3
1693678278347629200,-67,-5,3,2,-8,-53,52,-23
1693678278350627700,-23,-4,-2,-2,1,10,-80,5
1693678278352626400,92,1,-2,2,-1,5,5,3
1693678278359622200,-24,4,4,1,-3,-15,-15,-16
1693678278362622900,23,2,4,10,9,4,82,22
1693678278373615500,28,4,0,-2,0,5,-27,-22
1693678278377611600,-53,-11,-9,-6,-1,5,-10,-28
1693678278379610600,71,6,3,-3,-10,-19,-26,15
1693678278382610500,60,6,-3,-2,4,0,7,-31
1693678278385608300,-51,-4,2,-1,-7,-1,34,110
1693678278390605300,37,1,-4,1,7,3,1,-94
1693678278394601900,71,-1,-2,-7,-4,14,-20,21
1693678278396601300,-38,-2,3,-2,-8,-21,-30,-100
1693678278399600300,-45,0,-1,4,16,-30,14,83
1693678278401598400,-53,1,3,0,-2,82,20,-76
1693678278406595600,-19,-5,-4,6,-8,-83,-10,1
1693678278411593800,88,3,-6,-15,-4,18,1,99
1693678278414590800,22,-2,4,11,24,35,5,-128
1693678278416589300,-4,-5,-6,-7,-16,-39,-4,-22
1693678278419588500,-45,-26,1,12,2,43,-1,47
1693678278429582000,-40,6,5,14,14,35,13,-13
1693678278432580600,68,-13,-19,-31,-28,-116,-49,-7
1693678278462563900,54,-9,-4,5,9,43,1,47
1693678278464561900,-91,9,6,-1,-10,-16,46,-111
1693678278466561100,62,-3,-5,-13,2,24,-15,59
1693678278468559900,-56,-3,0,21,26,41,6,-95
1693678278471559400,28,-5,-3,-3,-12,1,-93,83
1693678278475556300,15,8,5,-7,1,1,10,14
1693678278477554500,-45,2,11,26,17,29,7,-20
1693678278479554100,-9,7,1,-11,-4,25,43,-95
1693678278483551500,-7,-5,6,32,29,39,-28,-79
1693678278485550800,-13,-2,-9,-26,-35,-11,-23,-13
1693678278489548700,-38,11,3,-1,-9,-7,-13,-42
1693678278492546400,-23,-13,1,12,0,-58,-9,28
1693678278495545600,5,3,1,5,-2,-9,34,-18
1693678278497544300,22,-3,-2,-4,-10,4,-1,36
1693678278512535600,-43,-8,2,13,24,14,-3,-20
1693678278515534400,17,-11,-18,-22,-23,-49,-26,57
1693678278518531800,-16,4,-5,22,33,-14,33,-22
1693678278522529500,-30,-9,4,-13,-20,-21,-14,6
1693678278534522700,82,-3,-16,-31,-32,-28,-11,16
1693678278539519400,35,22,18,13,12,39,17,40
1693678278542517900,-39,-2,-9,-19,-27,-75,12,20
1693678278545515800,1,-26,-27,13,40,18,-14,-30
1693678278558508500,-22,10,14,16,13,33,-6,-57
1693678278560508300,-55,-24,-17,-14,-26,-61,-10,71
1693678278562506300,19,20,8,-13,3,72,2,41
1693678278564506200,-18,-1,-11,-8,-11,-14,29,-36
1693678278583495600,-44,-27,-22,-3,11,3,11,5
1693678278591489700,-7,15,37,21,2,-62,-37,-25
1693678278594488200,-10,12,1,-38,-58,-44,13,9
1693678278596488000,18,-3,5,17,18,14,-1,50
1693678278598486500,11,6,-7,0,-5,35,8,-8
1693678278608482500,24,-15,3,28,39,37,3,2
1693678278611477800,-21,-6,-7,-31,-11,-8,7,-29
1693678278613478000,44,39,28,-8,-28,-16,-6,10
1693678278615475600,-2,-1,-17,-9,-30,-57,4,2
1693678278617475900,14,-12,-29,7,50,66,-1,-11
1693678278619474900,-32,-4,36,-27,-26,-2,11,-14
1693678278623473400,-14,-11,-10,-1,5,8,-5,-32
1693678278632465700,12,5,-19,-47,25,16,8,12
1693678278635463900,-18,-9,44,43,-13,50,9,-4
1693678278641462700,0,26,20,49,41,44,9,-42
1693678278644459600,81,-1,-17,24,-7,-62,-12,106
1693678278646458200,6,-1,10,-29,-21,-24,2,-3
1693678278648457000,17,9,-14,-23,-4,24,7,-13
1693678278661450000,-3,-18,-23,0,-5,-4,-12,-13
1693678278663448000,2,19,31,6,-6,-8,-9,-9
1693678278675442800,-17,-12,-42,-4,-39,-52,-5,-7
1693678278677440700,13,2,7,58,23,27,3,19
1693678278684436300,-8,-15,-28,-13,17,-13,-2,-14
1693678278688434400,-2,20,22,-31,-38,17,2,-2
1693678278692431400,-8,-24,8,-5,1,-14,0,-3
1693678278694430100,10,23,1,23,-38,-30,2,-8
1693678278697429000,-11,-35,-79,-97,23,4,-5,-13
1693678278699428000,-12,-23,13,127,86,7,-11,-19
1693678278719417500,20,24,51,-94,-82,12,10,17
1693678278722414500,-12,7,-15,-54,-29,28,6,-32
1693678278725413700,-56,-24,-11,31,13,-85,-7,14
1693678278728411800,50,7,-26,4,39,33,7,8
1693678278731409600,-3,2,16,29,26,11,12,-5
1693678278733408500,-3,-6,-10,-24,7,-21,-8,-4
1693678278736405600,0,-1,-4,-20,-18,-46,-2,-11
1693678278740405400,-33,-16,-19,65,69,47,-8,-15
1693678278759393100,13,30,70,-51,-68,-13,6,12
1693678278762391800,10,-5,-21,-45,-22,-38,-3,-2
1693678278764391400,18,12,24,45,6,32,8,0
1693678278767389100,-8,-3,-19,-68,-5,9,10,2
1693678278769388500,-3,-11,-8,120,58,-44,-17,-6
1693678278774388200,-4,-6,-23,8,56,83,0,11
1693678278794373100,13,18,65,8,-37,-37,-18,-6
1693678278796710800,-9,-2,18,-128,-106,-31,0,-6
1693678278798688900,-4,-6,-22,50,14,17,1,-1
1693678278800688000,5,10,5,-36,4,11,1,6
1693678278812681000,-8,-9,-30,123,65,-6,0,-7
1693678278814679800,-6,-8,18,-36,-34,10,2,-2
1693678278817678300,-6,-7,-21,-30,17,47,-1,1
1693678278819678300,1,-9,-23,23,48,-20,-2,1
1693678278824674200,28,28,50,-25,-101,66,11,7
1693678278828673100,-14,-6,-9,34,70,69,18,-1
1693678278834668200,-3,-1,-26,-24,-7,30,-13,-3
1693678278839665900,-1,2,10,-40,-30,90,11,2
1693678278844662500,-3,-8,-2,36,24,-80,-21,-6
1693678278846662600,7,13,29,-44,-90,-27,-4,1
1693678278849659700,-5,-12,-60,33,45,5,2,-1
1693678278851659600,-3,-1,52,0,-33,-14,-3,0
1693678278858655500,8,1,-34,-111,-32,-6,16,4
1693678278861653900,-10,-18,-82,19,94,32,-16,-9
1693678278874648200,5,14,69,127,30,-16,1,3
1693678278876645200,4,6,-39,-128,3,10,18,6
1693678278885639400,5,4,77,126,-67,-42,-26,-3
1693678278891636700,-15,-25,-98,-50,92,25,25,-10
1693678278894633900,2,13,71,-75,-71,-84,-39,-1
1693678278897633300,-7,-19,-68,49,91,-16,-11,-7
1693678278899632800,11,15,37,-99,-41,33,28,9
1693678278901630500,-2,1,12,46,-54,11,-2,-4
1693678278908626100,-10,-14,8,69,13,-4,2,-1
1693678278910624500,0,-1,-26,45,3,-30,-9,-6
1693678278917620700,-9,-8,-46,-82,13,62,-1,-9
1693678278920618900,-4,7,4,-50,44,-39,-11,0
1693678278931614600,18,18,39,38,-65,26,26,12
1693678278934612700,9,8,64,21,-48,-71,-2,4
1693678278941607800,-10,-19,-44,18,29,91,-3,-8
1693678278944606000,14,29,100,-4,-109,-1,7,14
1693678278946606000,-21,-37,-110,-91,127,-29,-33,-25
1693678278948603900,7,9,31,66,-97,48,11,4
1693678278962595200,-10,-28,-58,-76,41,-67,-9,-6
1693678278964593700,4,25,92,127,-46,-19,4,3
1693678278969590300,-2,-11,-55,-121,2,64,12,4
1693678278974591400,-1,2,25,94,8,-49,1,2
1693678278985581900,3,-1,9,44,-2,24,5,0
1693678278989580200,-16,-28,-101,-40,76,21,-12,-11
1693678278992578100,19,23,27,1,-4,75,25,13
1693678278999575400,-11,-22,-37,-49,9,-58,-17,-5
1693678279010567500,-17,-20,-15,-12,2,82,12,-7
1693678279013566100,36,40,-2,0,53,9,14,16
1693678279019562100,2,17,72,127,-69,67,7,0
1693678279025560000,-1,4,-1,-31,18,13,-6,-5
1693678279028557400,-4,-33,-80,-103,95,14,-16,-1
1693678279030556500,-20,-33,38,-1,-106,-27,-15,-10
1693678279041551700,13,29,-57,-128,101,-25,9,3
1693678279044548600,11,-14,20,30,-57,42,0,10
1693678279046546900,8,48,65,119,3,-78,11,-2
1693678279048546100,-13,-35,-27,-37,12,-27,-31,-10
1693678279064536800,-5,-33,-44,-14,-2,-17,1,7
1693678279066536200,-46,-25,-38,-110,38,-21,-10,-26
1693678279069533400,50,14,11,43,-48,33,7,22
1693678279073532800,6,71,81,53,64,30,12,4
1693678279080527900,11,19,16,36,-18,-39,1,-4
1693678279083528200,0,-16,-28,-65,4,8,4,6
1693678279085526700,-8,-27,-38,-53,-10,-28,-4,-4
1693678279091524500,2,-4,31,-13,-47,8,-8,2
1693678279094518900,-16,-24,-27,-79,3,5,-5,-5
1693678279096519200,1,12,29,39,-13,-7,6,7
1693678279099516100,-19,-11,-75,-89,80,11,2,-10
1693678279103515000,13,5,14,47,-51,-14,8,4
1693678279112509500,-15,-1,2,13,-1,20,-14,-14
1693678279115507200,3,-12,-67,-109,66,-68,7,2
1693678279117508200,4,17,54,121,-59,2,6,2
1693678279120504800,-18,-34,-117,-95,48,20,-18,-10
1693678279141495400,2,-3,37,47,-26,-5,-1,2
1693678279144490700,-1,-6,-63,-75,16,15,-8,-4
1693678279147489300,2,26,89,11,-41,0,4,1
1693678279149488400,-4,-16,-21,9,-12,-4,8,2
1693678279162480200,-14,-20,-100,-116,17,-7,-4,-9
1693678279164479100,7,10,44,106,-11,16,3,2
1693678279168477400,0,21,43,25,-25,-14,-3,0
1693678279171476000,-5,-34,-72,-53,-31,-17,-1,-3
1693678279177472500,-1,42,51,56,61,-25,7,1
1693678279180471000,8,20,32,-70,-29,25,-22,2
1693678279183469300,3,15,48,84,-32,-7,-4,0
1693678279185468100,1,10,46,91,-24,-16,-5,-2
1693678279194461400,-7,-32,-63,-74,-21,-42,4,-3
1693678279200458700,-1,0,-54,-41,-11,-18,-1,-3
1693678279203456800,0,18,28,54,-6,26,2,0
1693678279208454900,-8,-10,-44,16,2,-41,-6,-3
1693678279211452300,-4,3,-4,96,7,16,-4,-2
1693678279213451400,11,14,85,88,-54,18,-2,-1
1693678279219447000,-13,-50,-119,-128,4,-26,-6,-7
1693678279224445700,23,69,127,110,2,21,9,12
1693678279247432400,1,-18,-21,100,-22,-1,-3,-1
1693678279250430500,-5,-13,-82,33,10,-24,-4,-6
1693678279252428800,2,6,13,-52,23,12,-1,-1
1693678279258425900,-9,-33,-91,-76,29,-8,-5,-3
1693678279269419600,1,0,7,-29,-4,5,17,1
1693678279278414100,2,9,32,44,0,12,4,2
1693678279281412900,-6,-18,-56,-26,33,-3,-34,-6
1693678279284410700,8,31,57,-99,-14,-8,3,5
1693678279286409200,0,-13,20,43,-38,-3,-2,1
1693678279294404300,-1,7,22,-28,-46,-5,7,-3
1693678279297403900,-11,-33,-104,26,51,-28,5,-6
1693678279299402900,-8,-9,-63,-56,0,13,-4,-6
1693678279302401300,-5,-11,-66,-109,36,-16,-6,-3
1693678279306397500,4,1,59,-27,-33,13,1,1
1693678279310395900,-7,-16,-68,-82,23,-8,2,-4
1693678279313393600,7,17,79,-38,-21,20,7,8
1693678279316392500,1,13,24,39,-5,-6,1,4
1693678279318392600,-9,-25,-73,-9,41,7,-8,-4
1693678279323390500,1,11,23,-36,-21,-5,2,3
1693678279327386600,-7,-21,-43,1,12,1,-1,-6
1693678279336381600,2,2,12,-34,-1,15,-4,1
1693678279341382100,6,23,64,53,-4,-8,1,5
1693678279345376200,5,12,37,39,-7,22,6,3
1693678279347373600,-3,-7,-17,-22,0,-18,-2,-2
1693678279367878200,-3,-2,12,1,-4,9,-7,-1
1693678279371876900,-3,-3,-26,8,3,-6,-1,-2
1693678279375874200,4,11,24,-19,2,9,5,1
1693678279377872200,-9,-20,-35,21,14,-1,-6,-5
1693678279379872000,1,4,7,-20,-17,-8,-1,0
1693678279383869500,-1,2,-5,-13,-1,-7,1,-4
1693678279385868300,2,1,14,3,3,11,2,3
1693678279391866000,-3,-5,-1,-13,-9,-14,1,16
1693678279395862200,3,3,17,6,1,17,10,15
1693678279398861300,-9,1,-3,-20,3,-19,-19,-37
1693678279412852000,0,4,9,9,-3,6,3,-42
1693678279415851400,33,-12,-20,0,0,-2,-17,12
1693678279418848800,-11,7,14,-6,5,5,12,11
1693678279421849300,-1,-10,-16,-4,7,6,34,8
1693678279425846300,-3,9,11,3,-2,-8,-6,19
1693678279428843300,37,-5,-9,5,4,13,-32,12
1693678279444834000,0,2,2,-14,-11,-2,51,-88
1693678279446833200,-3,2,3,-12,3,3,5,56
1693678279449831500,-2,1,7,7,-4,-3,-38,-47
1693678279451830400,-27,3,1,-3,2,-3,6,2
1693678279472818500,0,-7,-1,0,-2,0,-33,19
1693678279476816300,-1,2,-6,-8,-3,1,3,6
1693678279479814700,-6,0,5,1,1,2,11,11
1693678279481814200,-10,-4,-10,0,2,-1,-6,-20
1693678279485811300,1,-2,0,-6,-12,-37,-7,13
1693678279488809800,-1,0,0,-2,6,32,9,-11
1693678279492808700,4,-2,1,1,0,5,0,21
1693678279494806200,-9,-2,-1,-6,-3,-13,15,-15
1693678279496805900,4,2,3,2,1,7,-10,9
1693678279500804000,0,-2,-2,-5,-1,-13,-19,-6
1693678279502801000,3,0,0,0,-4,-4,9,6
1693678279509797000,-16,-2,-4,1,4,14,16,-3
1693678279518792500,-1,0,2,0,1,6,-10,2
1693678279522790200,4,-1,-1,-1,-1,-2,-5,-8
1693678279526787100,1,-2,-5,-8,-1,4,3,6
1693678279528786800,-5,0,5,8,1,-10,1,-9
1693678279540781100,0,0,6,2,-2,-8,-5,8
1693678279543777500,0,1,0,-1,-1,8,-1,-4
1693678279546776600,-4,-3,-2,-1,-4,-11,-12,3
1693678279548775000,-3,-2,-7,-12,1,2,1,2
1693678279552772400,0,-7,-24,-4,7,-3,-5,1
1693678279558769800,-1,-6,-9,-12,1,4,2,-1
1693678279560767400,5,19,73,16,-10,6,7,2
1693678279563766100,-1,2,5,14,-6,-10,0,-3
1693678279576759100,0,0,-4,-10,-6,-33,-11,3
1693678279578758300,-3,-3,-17,-22,2,0,-6,-4
1693678279581756300,-1,-3,-15,8,-1,-4,2,2
1693678279583755200,-5,-4,-1,0,7,8,3,-3
1693678279598745500,1,-3,-18,-9,12,32,3,1
1693678279601744500,3,10,44,0,-22,11,-9,1
1693678279604743200,-1,-4,-10,-5,-4,-45,-1,-1
1693678279608740400,-1,-2,-1,0,-3,6,0,0
1693678279615736600,-2,-1,-3,-5,-1,-3,3,2
1693678279617735100,-1,-3,-10,7,11,-27,-11,-6
1693678279622732300,2,-6,-16,-19,4,25,7,3
1693678279626729600,-4,2,7,16,-1,0,3,-1
1693678279646718600,-1,-1,4,-10,-4,9,-1,0
1693678279650715900,4,3,-3,0,-3,5,9,2
1693678279652715200,2,0,-3,8,0,-7,36,7
1693678279659710600,2,-6,-14,-17,-1,-19,-6,-6
1693678279674703400,-9,0,11,8,-4,-8,-19,-4
1693678279677701200,2,1,-4,15,14,25,-5,-4
1693678279679699700,-3,-4,-13,-19,-12,-25,-4,3
1693678279682698300,1,2,5,11,14,73,36,5
1693678279685697200,1,3,4,-5,-7,7,14,-2
1693678279690694300,-2,-2,-2,4,11,47,3,0
1693678279692695800,-1,0,-5,9,4,49,13,0
1693678279694691500,-1,3,15,-16,-10,-2,-7,-1
1693678279726671800,4,1,7,9,-2,-6,-6,1
1693678279729672300,1,-2,-10,7,3,-17,5,3
1693678279731669600,-1,-5,-11,0,7,-16,-12,-2
1693678279733668500,-3,0,-5,-11,-11,-33,-8,-3
1693678279781641500,1,0,1,3,1,1,-7,0
1693678279783640100,-1,-2,-3,2,3,-15,17,-1
1693678279785639800,-1,1,3,-20,-5,-4,-22,-3
1693678279790636300,-4,-4,-15,-8,-2,-8,-15,-3
1693678279794635600,5,8,37,-13,-13,11,13,5
1693678279797632100,-1,-1,-4,17,6,17,-9,-2
1693678279803629400,-6,-3,1,-9,-4,-35,-9,-4
1693678279809625000,-2,-3,-17,33,21,15,0,0
1693678279813623100,2,-2,-5,15,4,58,3,2
1693678279817621400,-3,-5,-10,-13,7,7,-11,-1
1693678279822617900,1,2,4,4,3,7,-1,2
1693678279827614900,0,-2,-7,-7,4,25,7,2
1693678279829614200,-2,-4,-1,39,4,-8,4,1
1693678279832611900,-3,0,-10,-42,-11,-30,-3,-2
1693678279834612400,1,1,11,-7,-15,-26,-11,-3
1693678279838609200,-1,-2,13,-64,-27,-6,-7,-1
1693678279908569700,-1,-2,-17,60,30,17,1,-2
1693678279911567800,-2,-1,-2,-4,-15,-26,-3,-2
1693678279951544200,0,4,11,-18,12,9,1,2
1693678279952543600,2,0,-2,5,13,0,-4,-3
1693678279961537600,-1,0,-23,-17,-20,15,-5,-2
1693678279964535800,3,10,37,29,6,-38,-8,-3
1693678279967535600,-5,-9,-15,8,-8,-19,-4,-4
1693678279969533900,-1,-2,-7,-13,-7,-28,6,3
1693678279983525200,-1,-5,11,-34,-42,-54,3,0
1693678279985524100,-2,0,-24,14,12,-49,-26,-5
1693678279989524700,-2,0,-3,-78,-47,-69,-15,-2
1693678279992520300,-6,-12,-18,0,26,22,20,5
1693678279995519800,-1,-4,24,2,42,-38,6,-2
1693678279998517000,0,-1,-8,-60,16,31,-7,0
1693678280013509300,-3,-4,-8,46,-19,2,18,3
1693678280015507500,1,1,-10,-97,24,86,-2,0
1693678280025503000,-2,-4,-4,8,-23,-70,-7,-3
1693678280028500000,3,5,29,-63,-9,50,-6,1
1693678280030499400,-5,-8,-45,-16,90,58,-4,-3
1693678280033496300,-4,-5,-61,34,33,27,19,0
1693678280036495100,9,14,60,-80,-74,11,1,2
1693678280040499400,-9,-11,-61,-16,41,-3,-16,-4
1693678280043491600,3,3,24,32,-57,-30,-1,1
1693678280046489300,-3,2,-15,-5,54,-52,9,-2
1693678280059482000,10,19,59,10,-32,33,-10,3
1693678280062479900,-7,-11,-29,82,78,-36,0,-1
1693678280064481500,-5,-7,-35,-50,52,-14,-23,-8
1693678280067477500,5,10,79,70,-48,-75,33,5
1693678280069477800,-8,-7,-70,-14,40,2,10,-5
1693678280074474200,9,4,85,117,-74,97,4,9
1693678280077471900,-5,-4,-18,-68,-25,-53,-15,-5
1693678280079470900,3,1,8,-38,-95,-22,-8,1
1693678280082469400,-5,0,-41,-42,71,10,14,0
1693678280084471100,2,4,20,84,-11,53,3,5
1693678280086466400,6,19,90,-12,-6,-26,14,6
1693678280090468200,0,-2,13,113,-34,-8,-13,-3
1693678280134438700,-3,-3,-6,-16,25,-6,-15,-5
1693678280139436200,-5,-5,-25,-44,-30,-48,-1,-8
1693678280143434300,2,2,-4,53,61,54,7,5
1693678280145433300,-2,7,9,-21,-39,-35,1,-2
1693678280148431700,3,-2,25,14,-24,-51,-4,3
1693678280150430700,3,7,-17,11,37,43,5,-5
1693678280183410800,-3,-5,-11,-16,-11,-52,-2,-1
1693678280185409500,1,-1,12,-75,-48,6,-7,-3
1693678280244376200,-2,-9,-30,17,0,25,-3,-1
1693678280246374900,-1,0,3,-4,20,7,7,1
1693678280248373400,-1,1,2,-5,-34,-26,-3,-2
1693678280250372800,0,-7,-17,-21,23,56,-9,0
1693678280252371400,1,3,2,18,13,58,3,0
1693678280259367100,-3,-2,-2,-15,15,-46,-22,-6
1693678280262365700,-2,-3,6,-10,-10,29,2,0
1693678280264364600,-1,-4,-12,31,42,3,-12,3
1693678280268362300,-3,-3,-7,0,-1,8,-11,0
1693678280271361100,-1,0,2,-6,-5,3,25,3
1693678280275358400,2,2,-1,-1,7,3,-32,-2
1693678280278356300,-2,-4,-4,-7,3,5,19,44
1693678280281354300,-4,-4,-1,-3,-8,10,-1,-63
1693678280283354000,-4,-1,-2,-8,-2,-8,-14,7
1693678280288350500,-2,-1,1,-4,-3,1,10,-4
1693678280292349300,-1,2,-2,8,13,18,18,8
1693678280295347100,0,-3,-2,-1,-6,3,-13,19
1693678280297345400,3,0,-1,4,-1,-22,-1,-5
1693678280300344900,-13,-7,-8,-5,-6,4,2,-1
1693678280302342500,-11,-2,1,2,5,4,-21,6
1693678280308339900,3,-2,-2,1,1,-9,-17,-2
1693678280311337500,12,1,-2,-4,-2,7,10,8
1693678280313337100,6,-2,0,-1,-3,2,2,11
1693678280316335200,-8,-2,1,-1,7,-1,16,-50
1693678280325330100,-17,1,1,-1,4,36,27,-5
1693678280327328200,-5,4,1,3,-2,-35,-51,18
1693678280330326500,-19,-2,-2,-2,-7,-12,-30,-75
1693678280332327700,108,5,-3,5,8,22,16,104
1693678280349317300,-41,-1,1,3,6,-5,15,-78
1693678280352315500,-55,-9,-3,-4,0,9,-40,-68
1693678280355313000,24,6,3,-4,-5,-7,-6,0
1693678280358311600,-85,-10,-11,-6,1,-4,-1,-36
1693678280379297900,25,17,10,13,-5,-9,-26,74
1693678280382296700,59,5,5,2,1,5,35,-19
1693678280384295900,-93,3,4,3,16,63,16,-39
1693678280388294500,13,1,-2,-3,-2,19,-18,12
1693678280392291600,-47,-12,-10,-10,-6,14,-6,69
1693678280395289700,-48,-8,-4,2,5,8,3,-32
1693678280397288400,36,7,3,3,-2,2,1,40
1693678280400286700,-9,-2,0,-2,-1,-2,-6,-12
1693678280403287400,-2,-6,-3,1,0,-12,17,-39
1693678280408282000,12,4,1,-1,-3,3,-22,36
1693678280411280600,12,-7,-5,-2,-2,-14,16,-3
1693678280413279400,-9,2,1,1,-1,-13,-4,-7
1693678280432270600,11,-3,-4,-2,-3,-12,-5,1
1693678280435266200,5,0,0,-1,-2,2,12,-2
1693678280441267200,9,-1,-6,-3,-3,-17,6,39
1693678280444261900,-18,1,6,4,-1,-6,-9,-36
1693678280448258700,18,4,0,4,3,8,-3,9
1693678280451257100,-8,-2,-2,-1,0,10,24,20
1693678280453255500,3,-5,-1,-1,-6,-17,0,-5
1693678280459254300,2,-3,-1,-1,0,5,-1,-1
1693678280462251300,-35,-4,-1,-2,-4,-7,0,-6
1693678280465250100,50,4,1,-1,7,7,6,9
1693678280495231700,-1,-1,-5,-4,-19,-9,9,35
1693678280498229900,-5,-6,-3,-3,1,-4,-1,-21
1693678280501228500,5,-6,-23,4,9,2,-5,11
1693678280504227400,-19,3,30,11,-9,-9,13,0
1693678280510223800,-7,3,1,-15,4,4,-19,-7
1693678280511223900,4,-1,-10,4,-11,6,29,0
1693678280514221200,1,-10,-37,26,27,-15,-52,-2
1693678280517219500,-22,-2,15,-47,-13,2,-20,-4
1693678280519218400,13,0,-21,4,29,2,30,1
1693678280523219600,-12,2,9,-2,-60,-11,-84,-5
1693678280526214800,12,8,54,-40,3,3,50,0
1693678280529213600,-8,-11,-37,53,-7,0,-23,1
1693678280530212700,-55,1,11,1,-12,-19,-29,6
1693678280533212100,36,-4,-38,-12,-22,14,3,-1
1693678280538207900,-62,-2,-37,-49,65,-16,24,3
1693678280542207600,23,5,47,84,42,48,-1,13
1693678280544204300,-63,11,61,-47,-72,-35,19,-6
1693678280546204500,-78,-5,15,98,96,32,22,-50
1693678280559195400,108,14,-32,-90,-127,3,-15,63
1693678280561195200,-73,-10,-36,105,92,-8,29,9
1693678280564193300,-36,12,-1,-71,-34,-84,-40,-7
1693678280566192200,-46,-1,1,36,52,85,37,0
1693678280583181400,-19,-4,33,-52,44,-98,-10,-18
1693678280586180400,1,1,-5,-115,-32,-18,-5,-5
1693678280591179000,49,-25,-44,10,41,107,29,6
1693678280594178100,24,4,-7,31,-3,-35,-38,8
1693678280597174700,11,8,-43,91,34,127,6,-12
1693678280600172100,19,-12,-65,-128,-63,95,6,11
1693678280602171900,-1,-15,14,80,-38,-43,16,-11
1693678280607171700,-4,13,-44,-9,39,43,-19,-2
1693678280619161000,0,8,54,107,66,-67,-13,-5
1693678280625157700,-13,-12,-65,-21,-64,-39,19,-6
1693678280627156600,32,24,65,49,-14,21,-19,7
1693678280630155400,13,-27,-44,-109,-11,26,28,20
1693678280649146200,-16,14,21,101,48,35,-9,-19
1693678280652143200,1,35,102,15,3,-56,-54,2
1693678280655141500,5,-34,-81,-44,57,-57,0,-2
1693678280658139600,8,4,35,61,8,17,12,18
1693678280661136900,-24,-5,-56,-27,23,-87,-4,-13
1693678280663135500,-4,20,36,-63,-36,105,26,6
1693678280666135100,50,-2,-21,82,-15,74,2,4
1693678280669133000,-6,9,-47,-58,38,74,-13,-8
1693678280682125000,3,-4,16,-24,-82,106,25,2
1693678280689121300,-103,-15,-12,88,53,-2,-8,-21
1693678280693119800,99,17,-30,3,70,-35,-24,17
1693678280695117900,-81,-39,-26,-45,-69,-47,-35,-14
1693678280701114500,97,50,80,127,-13,92,49,17
1693678280705112300,-65,6,28,118,-3,-53,-28,-2
1693678280708110300,52,7,-20,-64,-4,87,4,-9
1693678280711108700,-32,0,1,-23,30,38,42,1
1693678280725100100,-29,26,51,-128,-27,-52,-33,-10
1693678280727100600,24,-14,-29,-52,-27,85,3,-3
1693678280729099300,-32,57,110,85,-103,-41,32,13
1693678280732096500,29,5,-17,-23,40,-81,-1,-1
1693678280748087700,-41,-37,-119,-83,20,110,-2,-4
1693678280750086900,36,-19,-61,-91,32,-17,22,0
1693678280753086000,-34,-7,-1,109,41,-45,15,5
1693678280758081800,18,-6,-28,-50,17,-128,-30,-8
1693678280763078600,-29,-18,5,44,-44,-76,-38,-10
1693678280766077700,17,-15,-56,-64,10,14,-11,-1
1693678280768076000,-1,-14,66,89,3,-47,12,6
1693678280772074200,7,42,37,-66,34,50,9,5
1693678280778070300,0,-12,-12,57,15,-43,9,-2
1693678280780068900,28,8,-1,-17,-3,-23,-10,3
1693678280783067400,-44,-35,-122,-128,42,14,-6,-13
1693678280785066000,27,34,103,-13,-106,-32,11,6
1693678280800057600,-4,-7,13,-16,-11,12,1,4
1693678280802056600,14,2,-11,7,-5,17,-8,0
1693678280807058500,-34,-18,-42,-67,2,40,-3,-11
1693678280810051800,5,-11,3,52,0,-17,-12,-1
1693678280832039000,6,0,35,2,-6,-11,35,3
1693678280838036300,2,1,10,24,4,-31,-32,0
1693678280842033700,-17,-10,-27,-29,8,-14,-13,-11
1693678280845032700,8,-7,6,18,-11,12,-5,2
1693678280847031000,-5,-5,-14,-6,3,5,39,2
1693678280851028400,11,-3,-13,-23,9,-29,-16,1
1693678280855026500,-6,10,23,-11,18,56,-9,-3
1693678280859023800,2,-2,1,16,-20,-11,7,-1
1693678280892004700,-12,-10,-21,-41,-16,-19,-13,-4
1693678280895003400,1,4,12,17,12,2,11,2
1693678280898001300,-2,-1,-5,-15,2,15,-8,-2
1693678280901000200,-12,-11,-9,6,-13,-31,-3,-5
1693678280902999100,-1,-5,-14,-5,11,6,-6,-17
1693678280907998600,-32,0,13,9,-17,-24,7,-3
1693678280909995100,10,6,0,-5,8,4,16,3
1693678280912994100,36,-11,-18,-14,-13,-11,41,65
1693678280914991300,-6,-11,-7,-21,0,-11,-59,-43
1693678280917989900,-8,2,3,7,1,-23,17,24
1693678280921987200,-14,1,1,-15,-1,20,2,-45
1693678280925989600,-26,0,6,12,5,-33,8,-9
1693678280928983900,-25,0,-6,-2,6,30,-19,3
1693678280930983400,39,2,6,11,8,17,22,-10
1693678280943975000,-124,-11,-7,-8,9,24,14,-10
1693678280945973700,124,18,-2,1,-8,-17,2,81
1693678280949972400,-93,-3,-2,-3,-10,-46,-13,-3
1693678280951970300,-88,-6,0,-4,22,11,-30,21
1693678280956973400,59,4,3,-7,-15,11,18,-47
1693678280960965000,-82,-6,1,9,6,33,-10,-30
1693678280962963700,127,2,-10,-15,-3,35,10,25
1693678280965964100,-23,1,5,8,4,-22,50,1
1693678280967963900,-50,-6,-7,-11,-5,-15,-21,11
1693678280970959700,39,4,2,4,0,10,-66,-40
1693678280978954300,-87,-8,2,6,-4,-45,12,21
1693678280981954100,49,17,3,-7,2,35,-1,44
1693678280989954300,-100,-7,1,1,2,-10,1,-31
1693678280992948300,-95,-13,2,18,4,-22,2,-98
1693678281000945400,59,-10,-26,-44,-10,9,19,1
1693678281003941300,79,2,5,5,-2,8,18,13
1693678281007942900,127,12,0,-4,0,-7,-41,-46
1693678281010937100,-94,7,1,-2,7,34,16,84
1693678281021932200,-106,-8,9,21,9,5,-22,-78
1693678281032925100,3,-8,-4,0,32,42,29,-22
1693678281034923000,81,0,-16,-27,-78,-84,-16,23
1693678281038921900,-96,-35,0,0,7,33,-40,-38
1693678281043918900,42,38,8,18,-1,16,33,92
1693678281045916100,41,7,-5,-13,-4,-2,8,-70
1693678281050913600,-84,-16,-3,-2,30,12,-50,-57
1693678281054912400,36,19,9,2,6,1,-16,50
1693678281060908000,-86,-26,-7,-5,-26,-59,63,-58
1693678281063907200,-128,-29,1,9,2,-12,-26,-46
1693678281068903000,-12,23,22,12,6,14,-19,40
1693678281072902400,-77,-24,-33,-40,-16,-26,-50,-28
1693678281076898600,127,15,5,10,25,63,-26,-86
1693678281078898100,-119,-1,-1,-3,-10,-52,6,60
1693678281098886100,23,5,5,2,12,12,78,77
1693678281102885300,-54,6,3,14,18,28,60,-96
1693678281108881300,-128,-4,7,3,21,6,-96,-41
1693678281111878300,90,-16,-14,-15,-16,-1,-25,27
1693678281113877900,-71,23,13,20,31,-8,5,-10
1693678281116876400,121,4,1,-6,-35,-18,22,79
1693678281128869600,-37,1,0,8,10,21,19,63
1693678281131866800,37,4,-5,-16,-25,-33,-43,38
1693678281134865700,0,-1,6,20,37,56,71,1
1693678281138864100,-19,4,1,-9,-6,-3,21,-50
1693678281144859500,-29,-12,-5,-11,-13,-30,-23,42
1693678281146859700,14,8,10,14,5,10,-15,-13
1693678281149857900,-28,-10,-11,-10,-2,-1,-43,35
1693678281151856400,29,5,-7,-14,-5,-10,28,-13
1693678281158851900,37,2,-2,-16,-26,-21,25,-40
1693678281161852700,-29,12,11,24,16,25,13,-37
1693678281167846400,-37,-39,-28,-32,-24,-7,-31,12
1693678281169846000,-4,6,3,-5,1,-10,15,-23
1693678281223817900,1,-7,-7,-10,-2,36,41,1
1693678281225813200,-77,-6,-4,7,7,12,-4,-107
1693678281228812500,86,12,10,10,-5,-4,-2,94
1693678281231812800,30,4,1,12,21,28,-9,88
1693678281233809700,7,-9,-8,-4,0,-4,4,-19
1693678281235808600,22,4,6,6,1,0,10,18
1693678281241804600,-64,-10,-2,-13,-9,0,21,64
1693678281244802900,-32,-8,-1,12,-4,-7,4,97
1693678281247801300,42,21,16,11,2,17,15,-44
1693678281250799100,6,-6,-3,-6,-6,-22,3,-16
1693678281269788000,-32,-11,-10,-9,-1,8,-9,97
1693678281275787400,1,1,-3,0,17,4,26,-33
1693678281278784200,23,12,3,2,10,5,-9,-66
1693678281281783300,-28,-6,3,-3,-18,0,-17,-61
1693678281294774500,10,0,1,6,11,-8,-15,-15
1693678281297772400,-10,0,4,13,21,21,-3,15
1693678281310764400,-7,-3,-5,-9,-3,15,3,-83
1693678281313763200,10,-1,6,5,-11,-48,11,-36
1693678281317760800,-2,-5,3,19,20,4,2,32
1693678281323757800,-19,15,9,-15,-45,-37,-1,4
1693678281326759700,69,20,-5,-14,-5,77,-2,3
1693678281328754800,27,-18,-16,-20,-31,3,10,-20
1693678281330754000,-42,8,-2,-19,-18,-5,20,-3
1693678281333751400,4,-5,-3,4,11,5,-33,-37
1693678281334753300,-45,6,7,15,0,-54,11,-22
1693678281340749300,19,-10,-8,6,15,74,77,-5
1693678281343746100,-3,0,-12,-20,-4,-45,-91,-21
1693678281345745100,1,1,-6,-23,-29,-9,-18,-29
1693678281348743700,14,-8,-2,19,27,-13,-18,35
1693678281350741600,4,-16,-13,-20,-6,-45,-37,-11
1693678281352740000,-1,13,6,-10,-25,13,54,10
1693678281357739000,-8,-41,-41,-41,-24,-32,-4,17
1693678281361738200,48,61,50,31,2,15,19,7
1693678281363734900,-3,-12,-13,-8,4,-18,-15,-12
1693678281366732500,36,-7,-1,14,30,48,7,25
1693678281368733200,-16,7,5,3,-4,5,-4,15
1693678281392718400,-28,-36,-25,-18,2,8,28,25
1693678281399713900,6,21,24,17,5,35,7,-11
1693678281402711700,0,0,-5,4,8,21,-18,-5
1693678281406709800,16,15,15,13,-3,-8,19,28
1693678281410707600,-40,-10,8,15,16,-8,15,-29
1693678281413706800,13,27,12,-5,-38,1,-18,3
1693678281416704700,-7,-20,-22,-22,-9,-3,-2,0
1693678281418704400,6,-14,-16,6,33,-20,4,3
1693678281422700300,4,13,41,-30,-78,-12,5,-14
1693678281426698000,3,3,5,22,27,-4,-10,4
1693678281435693100,1,3,3,11,-3,-43,-9,-12
1693678281440691500,-15,-12,-18,-19,-1,-27,19,4
1693678281445687500,16,-7,-23,-15,14,27,4,-12
1693678281447685900,-11,-21,-22,-28,38,11,-30,-11
1693678281450684600,-1,6,32,35,-50,-54,4,-4
1693678281454683000,18,17,20,-3,1,43,11,18
1693678281458680600,7,-7,-7,16,-8,-89,-12,-9
1693678281459678800,2,-7,-7,5,5,78,8,-7
1693678281468674000,-12,-11,-26,-21,31,55,7,-8
1693678281472672300,-3,-5,5,0,-22,-70,-13,-1
1693678281475670800,18,11,14,28,18,20,6,-2
1693678281478669200,-1,9,6,9,2,18,31,5
1693678281490662000,-5,-9,-10,-30,-24,-33,-33,-6
1693678281493659600,6,1,-11,5,71,127,19,6
1693678281495659400,-8,-17,-49,-128,-66,-48,-33,-20
1693678281498657400,4,10,88,111,52,4,-14,6
1693678281511650500,25,32,66,-56,-93,24,29,15
1693678281515648000,-1,-7,-42,-43,8,19,7,-1
1693678281517645700,2,0,8,33,18,28,2,-3
1693678281518645400,-10,-14,-57,-44,13,-35,-11,-7
1693678281522644000,3,-6,-21,73,84,30,31,7
1693678281526641000,-4,4,14,29,5,29,-22,-4
1693678281528639800,7,3,12,-106,-66,23,-4,3
1693678281530638900,1,2,47,117,-51,12,-11,-5
1693678281541632500,16,14,-1,19,-12,-25,13,9
1693678281543631400,2,-14,-19,-6,-2,55,15,12
1693678281546629700,-20,1,-26,46,103,116,-13,-22
1693678281549628900,-9,-76,-61,-55,7,-33,-5,8
1693678281576612300,29,48,16,-7,39,-2,-12,16
1693678281579611400,-19,-3,70,78,-43,-101,-2,-7
1693678281581609300,38,40,24,-2,-115,23,20,15
1693678281584607700,-14,5,-82,-98,79,59,2,-5
1693678281588606100,6,50,80,119,-20,19,17,-2
1693678281593602600,38,-54,-43,-128,-59,-19,6,25
1693678281595602000,-32,-52,-19,-22,80,-28,-6,-6
1693678281597599700,-19,62,-11,-31,9,-45,-10,-21
1693678281608595000,-2,-28,-37,-17,54,-74,-23,-12
1693678281611592900,46,99,18,72,37,-16,26,22
1693678281616590300,2,-23,22,8,-33,12,-9,-10
1693678281618590500,11,-81,-67,-75,19,63,12,22
1693678281632580700,-32,7,56,54,-16,22,-2,-19
1693678281634579100,-3,-7,24,-2,-44,-5,-15,-1
1693678281637577900,-2,-7,-40,-36,42,-2,-8,-7
1693678281641576200,26,43,58,82,-40,8,10,16
1693678281647572100,-17,10,-2,-22,6,46,-5,-15
1693678281649570600,-23,-46,-22,-16,7,70,9,-6
1693678281655567600,2,4,-13,29,25,-4,0,5
1693678281658565000,3,17,29,-6,-25,-4,-11,-9
1693678281662563000,-1,-36,-35,-55,-15,4,5,5
1693678281666561500,-17,7,0,26,18,-2,-7,-10
1693678281669558800,1,3,6,23,-4,-20,-7,-1
1693678281673558800,2,12,7,-5,-23,-48,-2,-2
1693678281683550500,-5,-22,-18,-8,5,26,6,3
1693678281688549200,-3,4,2,-8,3,-21,-10,-7
1693678281692546600,2,4,-4,26,-3,-8,1,2
1693678281694546800,7,-9,9,-4,-22,-28,0,0
1693678281698543300,-22,-2,-3,-3,31,25,-8,-10
1693678281701541200,-6,-2,-9,-8,-4,-9,-5,-8
1693678281705539000,-1,-3,3,14,-3,4,0,-2
1693678281709536100,-3,11,22,17,1,-31,5,-1
1693678281724528300,0,-22,-29,-29,-15,-22,-11,1
1693678281726527500,-4,6,3,1,6,-13,11,-1
1693678281728525300,-1,2,0,19,17,56,20,-6
1693678281731525200,-3,-2,-8,-31,-7,-3,-11,-5
1693678281755510700,5,-4,-7,6,-8,11,-18,2
1693678281759508300,-3,3,3,3,3,10,-3,-19
1693678281761505700,-5,-3,-8,3,-3,-49,21,31
1693678281766503500,-14,7,3,-5,-23,-16,17,-10
1693678281768502400,53,-6,-2,-11,-9,-41,10,18
1693678281773503100,-3,6,7,13,13,24,43,20
1693678281776498000,0,-5,-5,-8,-6,5,-91,-45
1693678281778497400,-5,2,8,10,-5,8,-7,-19
1693678281791488800,-14,-10,-17,-16,-5,13,7,-6
1693678281794488100,-4,-3,-5,-6,-9,-34,-32,-26
1693678281796487000,-2,-1,-2,4,13,0,20,24
1693678281799486700,0,1,3,-1,-2,14,-7,32
1693678281813476700,8,-6,-9,-10,-5,4,5,-39
1693678281817474400,5,5,3,1,15,35,38,7
1693678281818474600,-18,-2,2,6,-6,-21,-16,-2
1693678281824470900,-52,-3,5,2,-3,-4,-31,-27
1693678281827469300,0,-7,-10,-12,3,1,32,36
1693678281829468800,32,1,1,0,0,-2,-40,-17
1693678281832466200,-65,-6,-6,6,-2,-17,50,-33
1693678281835465000,93,21,7,1,0,7,-19,66
1693678281842460400,-60,-8,-6,-9,9,17,-2,-70
1693678281845458300,-51,-1,0,-1,7,28,13,-40
1693678281848456200,35,2,3,-1,-31,-48,-12,89
1693678281850456800,-57,1,6,8,13,19,18,-53
1693678281864446900,-10,0,-6,-3,-4,-14,-54,-22
1693678281867445800,89,12,5,6,3,38,20,45
1693678281869445800,-80,-3,-3,-1,3,-39,-8,60
1693678281872442700,-44,-18,-5,-6,-7,-3,-1,30
1693678281878438800,47,-2,-5,-9,-8,-2,64,54
1693678281881437900,-117,-11,-3,1,-7,-24,-91,-122
1693678281884435000,126,41,5,7,11,22,-38,-51
1693678281889434600,6,0,12,13,12,21,72,4
1693678281901426900,-78,-12,-8,-13,-9,-15,-19,-39
1693678281904425100,-13,-4,-5,-4,-5,-12,8,12
1693678281908422200,-20,-7,0,-1,-3,-13,2,-37
1693678281910421200,-3,2,-6,-5,-14,-41,-32,17
1693678281924413300,74,10,11,22,24,41,17,2
1693678281934408200,23,9,1,-6,-9,-15,26,23
1693678281941403400,-17,-12,-3,-3,-1,3,4,1
1693678281944404200,16,-6,-7,-1,1,5,-10,-21
1693678281947400300,1,-1,2,6,11,-4,4,15
1693678281949398500,-61,-10,-15,-32,-45,-35,-11,0
1693678281952396800,-26,7,8,7,9,14,16,1
1693678281955395900,53,2,0,0,10,15,8,25
1693678281976383100,-42,-6,-3,-6,-9,-20,-3,-25
1693678281978382300,72,3,2,6,14,24,-2,46
1693678281992373900,-27,-9,-3,-5,-6,-10,3,-52
1693678281995373000,0,3,-6,-19,-29,-23,-26,-24
1693678281997372000,-31,-30,-10,11,14,10,-30,-2
1693678282000371700,-18,37,14,-22,-33,-40,21,-18
1693678282002368200,41,0,5,14,8,5,34,75
1693678282006370300,-29,-27,-14,1,-3,-8,-74,-31
1693678282009364800,2,24,9,-14,-30,-11,1,17
1693678282011364300,19,-20,-11,9,18,13,-22,94
1693678282014361700,-29,-14,-20,-35,-29,8,22,-48
1693678282017359400,55,14,12,24,21,39,30,33
1693678282024355700,-16,-11,-11,-9,-8,-56,11,-19
1693678282026354300,3,-12,-3,8,15,5,2,-1
1693678282028353600,35,0,1,7,21,27,2,8
1693678282031352500,-67,16,10,-4,-11,2,-24,-94
1693678282043345000,88,8,-9,-25,-21,62,26,105
1693678282046343600,-46,-13,0,13,23,-34,17,-58
1693678282049341900,-29,-13,-1,10,21,15,-20,-49
1693678282051341200,-53,4,-4,-17,-18,-21,-3,-34
1693678282058338300,42,41,27,18,-3,-26,-7,19
1693678282061334100,-27,-9,-4,-3,-13,16,-14,-8
1693678282066331700,15,-3,8,23,28,17,-2,12
1693678282068330400,16,-13,-14,-21,-19,-19,22,30
1693678282091317500,-52,-24,-13,15,35,49,-3,-13
1693678282094316200,39,15,1,-8,-14,-21,0,5
1693678282097316800,-14,5,20,-13,-30,-26,-12,-25
1693678282102310900,13,0,0,34,28,23,24,16
1693678282113304000,-25,-9,5,-5,6,7,-8,-30
1693678282116302600,-22,-1,15,2,13,13,-9,-18
1693678282120300400,15,6,-11,-24,-28,-14,3,14
1693678282124298600,5,12,8,7,12,24,21,9
1693678282127296700,-37,-32,-33,-2,-11,-76,-28,-17
1693678282129295800,9,-26,-22,-12,-3,-57,-5,10
1693678282142287800,-10,-19,1,14,25,114,23,20
1693678282144288200,0,8,-9,-14,-14,-45,-30,-24
1693678282149286200,10,71,49,36,9,24,-5,-17
1693678282152282000,26,3,5,-16,-15,13,15,11
1693678282155281100,7,22,-6,-7,12,20,-3,-14
1693678282158280200,-8,-86,-42,-22,-10,-65,15,10
1693678282164274800,-34,18,-10,8,-5,78,-19,-21
1693678282166274800,-14,-3,-25,22,41,-1,-15,-6
1693678282168273300,-15,9,33,-5,-42,-42,-31,-20
1693678282172271200,21,-1,-7,-10,22,126,43,28
1693678282191260100,-13,-37,-4,-9,23,-94,-12,-1
1693678282194258400,9,11,20,-85,-57,114,42,17
1693678282196256500,-7,11,-56,56,50,13,-35,-17
1693678282199255300,-9,-9,31,-18,-9,2,10,4
1693678282218244000,3,-48,-89,106,6,-49,-3,5
1693678282221243700,14,64,80,-73,-43,47,-1,-6
1693678282224243000,19,-3,4,-22,33,5,21,12
1693678282226239900,-7,29,53,40,-98,-22,-6,-8
1693678282229241200,-8,-38,-20,-34,90,57,-5,-4
1693678282231237800,-20,-30,-54,30,42,-3,-12,-9
1693678282233237400,-3,-8,-6,-29,-31,-48,3,1
1693678282235235000,1,16,4,-8,5,-66,2,-3
1693678282240232200,-3,9,13,-5,7,51,0,-5
1693678282243230000,2,0,8,35,-8,-25,-5,2
1693678282246229200,1,1,10,2,18,36,1,0
1693678282249227000,-7,5,-8,42,30,39,12,1
1693678282261222300,9,18,32,-43,-25,-39,3,3
1693678282264218700,-8,-8,-15,1,-18,-24,-11,-6
1693678282276211400,-2,-11,-9,-3,-92,-46,1,4
1693678282278210600,-9,1,-12,8,40,37,-8,-4
1693678282292202200,0,6,12,-21,-58,-16,0,-4
1693678282295201000,-1,-3,4,16,0,7,-5,-1
1693678282298198900,-9,-7,-2,15,-50,13,5,-3
1693678282300198300,4,13,15,-5,-73,-34,-5,-4
1693678282315189400,4,4,7,-11,75,52,4,-6
1693678282317188800,-6,-9,-18,14,-54,-2,6,14
1693678282319188800,-1,1,11,15,100,4,-1,8
1693678282323185100,-10,-12,-20,-51,-38,-34,-13,-4
1693678282326182600,1,2,-1,15,43,-17,3,-8
1693678282329184700,-4,-4,6,34,-3,-11,-3,-14
1693678282331180100,6,5,1,-1,0,-17,8,6
1693678282333178700,5,5,3,5,25,30,4,5
1693678282347170200,2,3,7,6,17,9,11,9
1693678282350169800,-5,-3,4,25,87,17,6,1
1693678282355167200,-8,-12,-18,-56,7,-43,-17,-14
1693678282359164800,-4,-3,-6,9,78,2,0,-7
1693678282398141600,8,15,22,35,24,48,7,-30
1693678282406137700,-2,-6,-10,-35,18,5,-2,34
1693678282409135400,-4,-4,-4,-41,-45,-48,-4,-6
1693678282411133300,-5,-7,-27,32,100,-9,-9,-2
1693678282414132200,-6,-12,-10,-31,-86,30,3,-7
1693678282416131700,5,12,21,31,-11,-29,-2,-14
1693678282417130000,0,4,15,6,80,20,9,7
1693678282420130100,2,2,-9,-25,-90,7,2,-3
1693678282424127700,0,4,17,1,-46,0,-4,11
1693678282426127400,-9,-8,-9,35,124,-6,-4,-11
1693678282428125400,-5,-12,-10,-26,-53,1,-5,-1
1693678282431122400,0,8,9,16,127,3,1,-1
1693678282433122200,0,12,12,2,28,8,7,7
1693678282435120800,5,0,-9,21,-17,-7,1,4
1693678282439120600,-23,-8,-17,-31,-3,-66,-25,-25
1693678282442116700,9,3,15,45,44,16,6,5
1693678282445115000,-6,-17,-23,-68,-120,-68,-12,-4
1693678282447112700,-9,13,6,5,94,32,2,-4
1693678282450111200,8,6,14,42,96,51,11,7
1693678282451111800,-11,-11,-17,-24,7,-53,-16,-7
1693678282463103300,4,5,0,17,9,-24,1,9
1693678282465103300,1,-7,-8,-1,-12,-17,-4,-7
1693678282473098300,4,4,13,-1,-33,49,5,4
1693678282476098200,0,3,8,-7,-62,-37,0,4
1693678282495086700,7,4,3,9,11,-36,-2,4
1693678282497084600,1,-6,-9,-21,-40,-4,-5,-6
1693678282499083700,2,4,4,18,-45,12,6,4
1693678282502081800,1,4,4,-5,27,-36,-5,-5
1693678282510076800,-7,-11,-17,-25,-78,-13,-5,-1
1693678282512076800,2,-1,-4,10,48,14,2,2
1693678282515074700,2,2,5,-8,-76,-3,4,3
1693678282517073500,-2,-6,-6,8,74,56,-3,-4
1693678282525069000,-1,-2,-5,-16,-19,18,7,6
1693678282527067500,2,3,7,-7,-11,-11,-5,-51
1693678282529066000,2,1,3,47,-32,3,1,45
1693678282532067100,0,-2,-1,-18,12,41,1,1
1693678282547056300,-2,-2,-1,7,-2,-8,3,3
1693678282549056200,2,0,1,5,36,36,1,3
1693678282551053800,-1,-1,-1,16,59,9,-2,-19
1693678282555051000,1,2,-1,-18,-1,18,9,11
1693678282572041500,2,3,6,8,59,11,-16,-5
1693678282576038700,-4,-4,-2,-3,-45,-4,15,25
1693678282578039100,5,-2,-4,-15,-30,7,-16,-35
1693678282580037200,-4,-1,-1,8,71,-7,2,66
1693678282592030800,3,4,7,17,39,8,17,-5
1693678282601025200,-6,-8,-10,-29,-88,-24,3,-8
1693678282606026300,4,2,-1,-9,-4,-7,-22,-12
1693678282609021900,-1,-1,2,-1,-55,10,22,-24
1693678282615016100,-13,-7,-3,-4,19,16,4,32
1693678282617015300,3,3,1,2,16,-1,-3,12
1693678282619015300,5,1,5,14,29,-26,35,-94
1693678282622012600,5,-2,-4,-20,25,6,-20,80
1693678282626010400,2,1,-1,0,-7,-10,17,3
1693678282629009300,-2,-2,6,16,17,-7,-9,9
1693678282631008800,-6,-4,-6,-1,22,9,-23,-3
1693678282633006400,3,2,-3,-8,-46,-10,16,-27
1693678282644999600,1,-3,0,-10,-1,1,-17,-26
1693678282646998100,-2,0,-3,8,32,-4,4,14
1693678282648996800,1,6,9,26,114,17,22,17
1693678282649996500,-10,-8,-12,-39,-123,-25,-47,-53
1693678282667986000,-4,-1,-4,-10,57,-1,-17,13
1693678282671985200,5,-4,-9,-13,-12,-4,-3,-23
1693678282674983000,-1,1,2,10,-22,-12,8,26
1693678282676981300,6,17,28,39,102,52,22,-3
1693678282690973500,-5,-14,-26,-25,57,-62,-16,-14
1693678282692972000,-6,-9,-12,-26,-24,-6,-15,-6
1693678282695970900,-4,-4,-19,3,41,18,6,14
1693678282697969100,5,9,34,15,-17,23,3,-3
1693678282705964800,-3,-5,-6,12,-42,-8,-5,-8
1693678282709963100,-5,-9,-25,-23,-12,28,-3,-3
1693678282711961600,8,12,23,5,62,2,7,31
1693678282713960500,-2,1,7,13,-37,-54,-8,-21
1693678282726952100,-3,-7,-24,60,119,33,7,-2
1693678282729950500,-1,7,32,-53,-32,-39,-5,1
1693678282731949300,-3,-13,-32,16,26,24,2,2
1693678282733948600,0,5,11,-6,-36,32,-1,-7
1693678282746942400,4,6,10,-28,-25,17,8,1
1693678282749939100,-4,-10,-27,36,-46,-13,-5,1
1693678282758934600,-5,-8,-10,-34,-40,-16,-6,-1
1693678282765930500,-5,-6,-10,-23,-3,-10,-15,-11
1693678282774929300,0,-6,-20,-36,-47,-8,-3,3
1693678282776924700,4,11,20,20,24,21,6,1
1693678282780921200,2,6,14,-18,-54,-26,-5,-36
1693678282782923600,-6,-14,-27,28,33,-4,2,49
1693678282796912600,2,4,17,-6,-43,10,-1,-3
1693678282798911500,0,2,3,-4,5,-12,-4,-5
1693678282800910000,-2,-1,4,6,-8,-13,-2,7
1693678282805912600,0,-4,-10,2,78,6,3,-18
1693678282808907800,1,4,15,4,-89,-23,1,-2
1693678282811904800,3,3,7,23,50,5,8,12
1693678282813903400,-3,-8,-17,-29,-62,-19,-6,3
1693678282816901200,1,1,-2,-7,-50,-2,-4,-19
1693678282830892700,-1,2,5,1,57,47,4,9
1693678282833892100,-2,-2,-5,9,17,-58,-3,-13
1693678282841887300,-1,1,4,5,3,5,1,13
1693678282844886000,0,-1,1,14,59,0,13,-17
1693678282852880900,-2,-3,-3,-8,27,11,-10,4
1693678282857879500,5,3,5,10,36,9,4,-1
1693678282860876400,0,3,4,8,43,9,-4,7
1693678282862876100,-2,1,-1,-7,5,14,7,-3
1693678282873869600,-5,-3,-4,1,-3,2,3,-3
1693678282875868100,-2,-2,-1,4,-30,17,-3,1
1693678282878864900,-4,-6,-10,-17,6,-13,-7,7
1693678282880864400,-1,-3,-6,-7,19,4,-1,-4
1693678282883862500,4,5,8,0,-25,-12,17,8
1693678282888860300,3,0,0,-5,-6,-2,-24,-10
1693678282891857900,-2,-2,0,6,-22,6,-8,-5
1693678282894857100,-8,-11,-9,-7,-33,-8,-7,-2
1693678282930835900,-4,8,5,-1,15,-4,-7,-3
1693678282933834300,2,5,3,1,2,9,18,12
1693678282940832400,-1,-2,-3,9,23,-6,-19,-3
1693678282951823500,-30,-20,-5,-10,-30,6,14,3
1693678282955822600,43,18,-4,0,-3,-11,3,-3
1693678282957820600,3,-5,-5,-3,-8,8,4,-13
1693678282960819100,-13,-10,15,10,-3,-2,4,46
1693678282964816900,-30,29,1,-2,-17,2,-25,-22
1693678282967814100,57,4,3,7,10,2,31,-17
1693678282970814300,4,-1,-5,-11,16,4,-29,-15
1693678282975811300,9,0,1,-1,-9,-5,1,-22
1693678282977809100,3,-10,-6,-10,-18,-14,9,-1
1693678282979806900,-30,-5,1,4,5,1,6,1
1693678282981806300,-31,-16,-7,-4,-6,-1,6,-5
1693678282983805200,2,14,5,2,16,2,2,11
1693678282985803800,27,-4,-4,-1,-26,31,6,-2
1693678282990803300,-5,-7,-8,-14,-16,-21,-68,-5
1693678282994800300,4,-5,3,4,14,-9,17,4
1693678282997797200,-39,-1,6,16,86,30,-12,1
1693678282999796000,9,-2,-16,-30,-82,-7,3,0
1693678283008792100,-8,-4,0,-5,60,27,-12,4
1693678283010790400,-18,-6,1,8,11,-5,9,9
1693678283012789000,13,4,0,5,-7,8,14,-3
1693678283014788300,21,13,8,12,53,-1,-18,-51
1693678283029779600,-19,-13,-3,-6,-33,-22,9,55
1693678283031777900,-8,0,-7,-10,-3,13,-9,-1
1693678283033776400,30,9,-3,-8,-40,-8,8,2
1693678283037775000,-5,-5,8,12,2,-14,4,-1
1693678283042772300,-29,-9,-1,3,-15,-4,-1,-15
1693678283044773200,28,13,1,2,12,5,12,23
1693678283079750400,5,-8,-11,-8,-18,-18,-13,-29
1693678283081750200,-6,3,-1,1,-8,-14,-3,12
1693678283088746100,-7,1,9,22,48,18,3,-6
1693678283091743900,0,-3,-9,-30,-105,-26,-1,9
1693678283108735600,-2,-3,0,6,61,50,9,-2
1693678283111732800,-9,-10,-10,-12,-28,-41,-11,7
1693678283115729800,1,-3,1,7,45,24,13,3
1693678283117728800,4,12,4,-12,-72,-14,-12,-17
1693678283124724900,-7,4,11,16,-4,4,8,5
1693678283127723200,5,6,2,7,32,8,-10,7
1693678283131721600,7,3,-4,5,-6,5,10,-5
1693678283134718600,-5,-5,-5,-6,8,-7,-7,-5
1693678283142714000,-3,-4,-3,-4,-66,-12,0,4
1693678283147710600,3,4,4,4,60,8,9,13
1693678283152708400,-5,-2,-1,-14,-8,-17,4,-9
1693678283158706700,0,-4,1,10,15,17,-4,-7
1693678283161706400,-5,-3,-5,-4,-6,-22,-3,5
1693678283163703000,4,0,0,0,-30,-3,-5,5
1693678283164703000,-2,2,2,2,26,5,-5,-5
1693678283166702000,-3,0,2,4,46,9,0,2
1693678283168701300,5,0,-1,2,37,19,6,-4
1693678283174696700,-5,-8,-9,-20,-45,-49,-8,-2
1693678283177694600,-5,2,2,-4,6,27,3,-1
1693678283179692800,1,-2,-3,9,24,-32,1,5
1693678283180692300,-5,-9,-15,-11,-27,-50,-12,-8
1693678283182691000,3,5,12,33,78,63,12,4
1693678283184690100,3,2,-11,-23,-52,-41,-5,-3
1693678283193685300,1,-1,11,7,123,19,1,-1
1693678283196683400,2,7,33,22,-12,10,5,0
1693678283199682100,1,-3,-1,4,-34,0,5,2
1693678283207677600,0,-3,-13,10,77,-5,2,-1
1693678283209676100,2,0,-8,-8,-53,6,5,3
1693678283211674500,-4,-4,-17,-17,100,-2,-2,0
1693678283213673000,-1,-2,2,-13,-2,-9,-3,1
1693678283229664500,-2,-4,1,-12,-76,-22,-5,-4
1693678283231663100,0,-2,-4,19,67,41,4,1
1693678283233662900,1,-1,-1,3,52,-72,-9,-3
1693678283236661100,1,2,1,2,-1,23,5,2
1693678283251653000,0,4,5,-4,-95,20,3,-2
1693678283256649500,-1,-2,4,4,-66,-41,-8,-3
1693678283258648500,0,0,-2,-9,-8,-4,3,2
1693678283261649200,-2,-4,-12,-22,32,14,5,4
1693678283274638300,-3,-2,4,-1,-13,-8,-13,-86
1693678283276639800,-1,3,4,4,-7,14,-4,72
1693678283277638700,2,-1,0,5,-8,13,2,1
1693678283279637300,-1,-1,1,9,20,47,9,0
1693678283298625100,2,4,7,15,11,23,4,8
1693678283300625600,-2,-4,-3,-27,17,-32,-4,-24
1693678283304622100,-6,-6,-11,-21,-98,-47,-13,-7
1693678283308620000,-1,0,4,4,-5,23,23,4
1693678283310618700,-3,0,2,2,24,-1,-4,12
1693678283312616300,1,1,-2,19,43,23,-14,-15
1693678283318612900,-5,-10,-8,-9,-28,-6,-2,13
1693678283323612900,0,10,9,9,32,-23,8,-10
1693678283328607700,2,2,7,0,-30,5,13,17
1693678283331606800,0,-1,-1,-7,-38,-10,-12,-7
1693678283342599400,-1,-1,-1,5,35,28,4,-8
1693678283345598700,1,-5,-4,-3,-44,-11,-17,9
1693678283348596100,-12,4,-3,1,34,-5,26,6
1693678283350595400,-17,-32,3,1,-3,8,15,-23
1693678283358590200,29,32,-10,-4,-10,11,-65,-27
1693678283361589000,-55,-47,-11,-9,-2,-15,-16,3
1693678283365586900,18,23,7,-1,-10,-13,16,5
1693678283367586900,-56,-7,1,6,0,1,-19,-41
1693678283371584800,75,-23,-10,-17,-12,10,-36,103
1693678283374583800,49,43,2,-2,2,-9,21,-92
1693678283389578500,56,26,8,11,-12,-4,-13,82
1693678283392572600,-13,-12,-4,-4,-5,9,-12,-16
1693678283395570800,-49,-17,6,13,30,24,47,-53
1693678283397568400,-34,-19,-13,-11,-59,-27,-57,33
1693678283440545400,-67,-27,-8,-7,10,-2,-3,-27
1693678283446540100,10,17,4,8,45,16,28,7
1693678283448538700,-16,7,7,-4,-28,7,11,17
1693678283451536900,1,2,1,7,25,-9,-4,2
1693678283458532800,-9,1,0,2,51,9,8,-15
1693678283461533100,17,-3,-3,0,-17,3,-8,21
1693678283465528900,20,9,2,-4,-52,2,16,7
1693678283476525400,-12,1,1,4,3,-2,10,-24
1693678283485519500,1,-12,0,9,14,-1,-15,2
1693678283491514400,19,1,-8,-7,-10,-4,-1,-1
1693678283494513300,-34,-1,3,4,33,2,10,-14
1693678283497514100,16,8,5,2,-7,-11,7,16
1693678283506506700,-1,-10,-2,7,64,8,-13,1
1693678283511504000,5,8,-3,-9,-70,-17,15,5
1693678283514501400,-9,-1,-5,-10,39,1,9,-7
1693678283517500200,5,-4,-2,2,69,-1,-9,7
1693678283523497200,3,1,-4,-4,3,1,-1,-9
1693678283526495000,5,10,8,7,12,6,7,7
1693678283529492600,-5,0,6,10,31,8,6,-8
1693678283531491500,2,1,1,5,16,3,10,7
1693678283533489700,-7,-8,-5,-4,-61,-10,-6,-52
1693678283540487300,3,-3,-33,-35,-67,-13,1,41
1693678283543488400,-4,6,33,34,1,2,-6,13
1693678283546483400,1,3,5,2,13,6,9,7
1693678283550482600,4,5,9,-15,42,22,2,5
1693678283556478000,3,0,-13,18,-23,-20,0,-12
1693678283559475700,0,0,5,-30,4,34,3,-13
1693678283563473500,-2,-3,-12,35,57,3,-3,7
1693678283565474200,3,3,16,-3,-32,-22,3,10
1693678283568472200,0,0,3,-1,74,38,-2,-9
1693678283571470200,-6,-4,-6,-19,-72,-20,5,1
1693678283576466700,4,3,5,-2,87,25,5,-1
1693678283580463300,0,-5,-12,26,-61,-3,-10,-2
1693678283583461500,-1,3,0,-17,-6,-9,15,15
1693678283588458700,-5,-1,-9,12,14,18,4,-11
1693678283596456200,2,0,4,1,-5,-23,-8,9
1693678283599452300,-5,-6,-14,-17,76,19,2,-3
1693678283601451000,1,5,16,17,88,-6,1,-3
1693678283609447000,0,1,-2,13,49,8,1,-3
1693678283612446000,-1,-4,-3,-18,-85,-19,-3,1
1693678283616444000,-3,-3,2,-1,6,-6,-2,13
1693678283620441400,1,-1,4,5,-22,7,-5,-20
1693678283625437900,-2,-3,-10,-1,7,-13,0,-2
1693678283630435900,1,0,-3,-6,-4,-6,1,-1
1693678283634434600,-6,-5,-7,-7,-31,-22,7,-1
1693678283645428500,1,1,6,2,43,4,-7,-1
1693678283648424400,-6,-3,-14,-17,-59,-15,-3,-8
1693678283650424400,0,2,5,3,-1,7,10,5
1693678283658418800,2,-1,4,2,-1,-11,-10,3
1693678283662419100,2,5,2,6,-11,-1,-3,-4
1693678283666414500,-3,-9,-4,-10,-35,-21,-5,0
1693678283668413700,-2,0,-8,-16,-27,20,3,-2
1693678283683405300,1,-7,-3,2,71,5,3,6
1693678283687402600,0,12,6,4,-4,-1,-11,-8
1693678283692401700,1,3,1,5,40,-2,1,-2
1693678283695399100,-7,-5,-5,-13,-73,-6,-2,2
1693678283701394400,-72,-9,-8,-1,3,4,1,-9
1693678283718384000,-41,2,9,6,23,-12,12,-28
1693678283724382800,-49,-22,-7,-8,-16,12,3,33
1693678283727378900,96,-36,-22,-9,17,0,11,-56
1693678283744370200,50,44,15,12,-4,-13,-18,101
1693678283747369700,-28,-3,-2,-13,-10,-5,6,-59
1693678283749366200,-113,-28,-12,0,23,3,8,-49
1693678283751365400,74,4,-8,-6,3,-10,-4,29
1693678283760360800,58,25,-7,-2,-13,1,12,37
1693678283763358900,4,-10,19,10,5,13,3,38
1693678283769355800,9,40,16,4,-33,-11,-1,4
1693678283796341500,-24,-20,-5,-2,13,-5,0,-11
1693678283799338400,-80,-25,-16,-13,-23,4,-27,-72
1693678283804335900,-6,14,-3,1,18,3,-6,18
1693678283814329300,16,-14,-11,-11,24,-12,-17,-8
1693678283818327100,-63,-3,4,-10,-49,-3,-9,6
1693678283823325100,26,0,2,-6,-31,-6,22,-4
1693678283825324400,-3,-5,-3,4,28,10,3,3
1693678283828322500,19,-6,-5,10,51,-3,-12,-2
1693678283831321000,-17,24,8,16,6,3,4,10
1693678283833320100,10,-6,-2,-7,-28,-8,-2,-5
1693678283840317100,-16,-12,-9,-10,-3,-1,-4,1
1693678283845311900,46,17,2,4,-13,4,3,0
1693678283847315600,-28,0,11,5,27,-1,6,38
1693678283849309300,-15,-10,-9,-8,-13,-4,-26,-33
1693678283852307600,36,14,-1,-5,-17,-12,-1,11
1693678283857305800,22,-2,-1,-1,16,4,9,-4
1693678283860303500,-18,0,-3,-7,-20,-3,-3,-10
1693678283863301600,-10,-12,13,16,8,7,6,4
1693678283865301000,-4,-1,-6,-6,-8,-3,-2,-3
1693678283868298900,20,10,3,5,6,2,1,8
1693678283874297000,-26,-10,3,4,0,1,-5,-8
1693678283877294300,-13,-6,-10,-5,16,1,1,-6
1693678283880292200,12,-2,-6,-1,0,-1,-3,5
1693678283882291000,-7,-1,7,9,-14,6,7,0
1693678283885289100,-15,1,0,-2,52,1,-8,2
1693678283891286500,9,4,1,-7,-33,-14,4,-8
1693678283895284000,6,8,-2,-6,-9,1,-1,2
1693678283897282700,-9,-7,-5,-5,1,6,-3,2
1693678283899281600,-7,3,0,3,2,-2,-1,-5
1693678283910275100,-39,-12,-1,3,17,-1,11,-2
1693678283913273700,47,34,6,-2,-11,-5,-8,4
1693678283915271900,8,-9,-3,-2,6,1,3,2
1693678283917271900,36,15,2,0,-6,-2,-2,6
1693678283923267900,-21,-12,0,-1,3,3,-4,-8
1693678283926267100,-24,-20,-5,-2,-13,1,-1,1
1693678283928265400,1,5,0,2,6,-2,4,0
1693678283930264200,-49,-20,-2,-7,-19,-5,-5,-3
1693678283957248900,43,36,6,7,6,3,9,5
1693678283961245700,11,-4,-4,-2,0,-2,-10,0
1693678283964244000,11,7,2,1,-2,-3,-6,0
1693678283966242500,-14,-5,-2,-3,-8,0,1,-3
1693678283970240300,-11,-16,-6,-4,-2,-4,-4,-3
1693678283974238500,-9,-3,0,-1,3,-1,-3,-2
1693678283978235600,-24,-13,1,0,-5,0,13,-1
1693678283980238000,7,15,-1,0,-4,-1,-31,-47
1693678283983234200,10,-3,0,1,17,3,19,36
1693678283987231000,-6,-9,0,-5,-15,-6,1,-5
1693678283992228100,9,10,-3,-4,-3,1,9,4
1693678283994227100,17,6,3,6,-1,0,2,-3
1693678283997225000,7,3,1,7,38,3,-7,-11
1693678283999223200,-23,-23,-6,-13,-13,-6,-6,-7
1693678284001222100,-26,-5,-4,-6,-15,-6,0,-3
1693678284004221400,3,-14,-1,0,-6,-2,10,7
1693678284013215300,-9,17,0,-2,4,0,-35,-18
1693678284015214900,-22,-1,-3,2,5,4,6,3
1693678284017212500,15,4,-2,-3,0,-4,-11,-6
1693678284020212900,-9,-1,-1,1,-2,0,14,11
1693678284032203700,14,-17,-3,-1,-7,3,15,-4
1693678284034203300,-53,10,2,1,3,-2,-27,28
1693678284039207000,24,-12,-6,-6,-12,-11,-19,7
1693678284042202400,-39,-5,-2,-1,1,7,-1,-13
1693678284046195800,30,1,2,-2,-7,-5,8,-8
1693678284048195000,-38,-10,0,1,-6,-3,-5,-25
1693678284050193600,-10,-10,0,6,19,8,-10,-10
1693678284052192600,22,19,6,-4,-6,-7,-4,21
1693678284071183700,-21,1,1,-2,18,-6,1,-6
1693678284075180400,31,-1,-1,4,14,13,12,2
1693678284077177800,16,-1,-1,-4,-52,-13,-8,0
1693678284079177200,-11,8,0,-3,35,23,2,-4
1693678284084174700,-10,-5,-3,-5,-62,-18,-2,-2
1693678284088174000,22,-5,-3,-4,0,-41,-2,-4
1693678284116155900,-15,3,8,8,26,62,7,2
1693678284120155100,1,-1,-2,3,12,-51,2,4
1693678284124152700,-6,-6,-4,-3,-11,-24,-4,0
1693678284127150400,15,-4,-2,1,0,12,3,4
1693678284129148900,-7,4,-8,-4,-3,22,8,1
1693678284133146300,6,3,11,5,-27,-33,-9,2
1693678284135148000,2,-7,-12,1,19,-49,-9,-2
1693678284140143300,-2,3,9,14,11,-2,10,-4
1693678284143141700,-3,7,15,-7,30,5,-4,1
1693678284145139200,2,-7,-7,-10,-62,27,-4,-12
1693678284147143900,-9,-6,-7,-25,-100,-28,-8,2
1693678284149136700,6,-4,-11,6,48,23,11,20
1693678284168126100,-4,1,-5,1,10,-25,-2,-3
1693678284173127000,6,1,-2,-14,26,13,7,20
1693678284176122200,-8,-1,-9,19,39,45,2,-14
1693678284179120000,11,8,25,26,10,12,0,-1
1693678284181119200,5,1,-4,-8,4,-8,-1,4
1693678284183118000,-5,-2,-3,8,68,24,3,7
1693678284195111500,-4,-1,-7,-16,35,-20,-13,-11
1693678284198109400,5,0,-5,-16,-20,-3,-1,0
1693678284201108400,-5,2,10,13,-13,-15,0,-1
1693678284206106900,-1,-1,-7,1,11,6,3,-3
1693678284213101000,2,-2,3,2,20,22,8,-40
1693678284216099300,0,-2,-5,-7,-2,8,-7,50
1693678284218097500,-2,0,-1,0,-7,-10,1,-4
1693678284224097400,4,-1,-4,-2,-21,-11,-2,10
1693678284234088200,-3,-3,6,0,4,25,2,8
1693678284239090500,-1,0,-3,1,-20,-18,-1,-23
1693678284243083700,2,-2,-5,-6,8,13,2,-5
1693678284245083500,6,1,1,6,11,12,-3,2
1693678284250079000,-2,5,7,0,-26,-36,5,-17
1693678284253078600,-4,-6,-7,-16,-50,-14,-4,17
1693678284257076700,1,4,0,2,24,26,-4,0
1693678284260075300,2,0,3,7,21,-10,-2,-8
1693678284272070200,-1,-1,2,9,61,34,3,12
1693678284275066400,1,0,-3,-6,14,-2,3,-16
1693678284279062300,0,-3,-5,-2,-26,4,-1,-2
1693678284280062700,-6,0,0,2,-10,-6,0,-2
1693678284294055300,-1,0,1,1,12,39,-1,22
1693678284298054000,3,0,0,-1,-11,-30,0,-7
1693678284300051200,4,-5,1,3,5,20,9,8
1693678284301051000,-2,3,-2,-4,-10,-32,2,-24
1693678284309046100,-14,-22,-14,-7,-11,14,-13,42
1693678284311044000,3,13,2,3,-1,19,28,-24
1693678284313043500,0,7,10,16,47,1,-13,19
1693678284315042500,3,-1,-2,-14,-67,-22,4,-7
1693678284332033100,7,4,4,0,24,17,-8,1
1693678284334031500,-24,-26,-24,-22,-26,-43,-27,-23
1693678284339030600,11,8,-3,4,45,8,-12,-14
1693678284341028600,-52,-57,-1,2,-5,5,-1,17
1693678284346024200,59,73,25,25,49,9,30,-44
1693678284348023800,37,-1,-6,-16,-56,2,0,84
1693678284349022600,10,20,25,15,7,-21,-7,-45
1693678284350022200,-20,-9,-26,-25,-28,2,-15,50
1693678284378012300,36,-20,-6,-12,-94,-30,22,-55
1693678284389001300,-59,-18,-9,-6,26,20,-6,64
1693678284392000500,32,-23,3,2,-24,-21,-23,-59
1693678284393998500,1,43,18,14,41,34,30,-29
1693678284395996000,-30,-17,-7,-5,11,-39,-14,39
1693678284397994900,-37,17,2,-1,-43,11,6,-28
1693678284407988900,36,-6,-7,-2,-6,-16,-3,55
1693678284410989100,-16,-8,0,4,8,51,1,-9
1693678284412987100,-45,5,7,21,76,-79,2,-12
1693678284413987200,45,-19,-8,-21,-53,24,-6,-63
1693678284414986600,-85,17,-6,-9,-9,-22,17,-2
1693678284416983600,-26,13,12,24,-38,20,-8,-45
1693678284439971500,94,-1,-13,-37,23,-10,-7,104
1693678284440971200,-21,-8,6,21,59,8,8,4
1693678284443968300,-50,-27,-11,-16,-28,-20,13,-15
1693678284444968000,35,32,-2,-6,8,-7,-28,-40
1693678284464957900,-73,-32,-6,5,-23,32,7,18
1693678284465957300,32,43,9,4,13,-15,-24,-25
1693678284467954100,12,2,3,1,7,13,7,18
1693678284469954400,-25,-42,1,6,5,-17,5,18
1693678284474950500,12,2,-5,-5,-24,18,-8,-12
1693678284476950500,60,36,-1,-3,3,-14,2,-18
1693678284478948400,-2,-3,-4,5,-3,10,4,-2
1693678284479949300,17,-4,-5,-7,-3,-19,-6,18
1693678284489942400,-18,-14,-1,-2,-28,6,-6,-18
1693678284491942500,-22,-9,6,14,50,21,8,-15
1693678284492942300,3,8,-4,-11,-39,-16,-15,-10
1693678284494939000,10,-15,-2,-4,-25,-7,17,27
1693678284511929400,-7,14,4,7,19,20,0,-17
1693678284513928000,-5,-2,2,-1,-8,-10,-6,5
1693678284514927900,-22,-25,-6,-6,1,0,0,5
1693678284516927800,30,10,-6,-9,0,-10,6,1
1693678284538921700,-3,13,6,6,-16,8,-13,-22
1693678284543912800,0,-10,4,5,9,1,15,8
1693678284544910300,11,3,-5,-4,-1,-2,-13,-7
1693678284545911400,20,16,1,3,19,2,-4,2
1693678284548907900,-12,-4,-1,-2,-13,5,-2,-3
1693678284550908600,-13,-11,1,4,14,0,-4,-1
1693678284552906400,-10,-8,-4,-2,-4,1,3,8
1693678284556904800,6,6,-2,3,18,-5,-10,-1
1693678284572895200,-13,1,1,0,-19,3,0,-4
1693678284574894500,-11,-10,-5,-3,4,0,2,8
1693678284576892300,14,2,-1,0,11,3,0,11
1693678284577893400,-8,-1,6,3,1,-3,-10,-1
1693678284588887600,2,-1,-4,-5,5,5,24,2
1693678284590886000,8,5,-1,-1,-12,-3,-27,-20
1693678284592883500,18,23,6,4,-5,-3,12,21
1693678284593883700,-1,-2,0,0,11,-3,4,-46
1693678284613871600,-13,-16,-3,-3,-2,4,-5,53
1693678284614871100,-3,-2,0,2,3,1,14,-6
1693678284616870600,-4,-4,-2,-3,-3,-2,-1,-1
1693678284617870700,-3,-16,-5,-5,-13,-6,-9,3
1693678284639856900,6,17,1,3,6,4,19,-26
1693678284642855900,19,19,2,1,3,-4,-36,-12
1693678284643855100,18,-2,-3,-4,-3,-1,9,25
1693678284644854200,-23,-18,-3,-1,1,-3,-1,9
1693678284646851700,28,17,1,4,-3,0,-4,-8
1693678284648851500,-30,-7,0,0,5,-1,8,-2
1693678284649850400,-6,-7,-6,-4,0,1,-3,-18
1693678284650849800,7,14,0,-5,-2,0,5,20
1693678284672837800,-5,-6,4,5,-3,0,-18,-12
1693678284673839600,-10,-17,-1,0,6,2,13,-9
1693678284675837300,-9,7,0,2,5,0,-2,14
1693678284677836400,32,5,-7,-10,-8,-5,5,6
1693678284694825300,-15,-11,1,2,-4,-3,-3,-18
1693678284695824300,8,-3,-2,1,6,4,24,3
1693678284697823600,-2,1,-1,0,-2,0,-16,-8
1693678284698821700,-7,-1,0,2,2,-3,-12,-1
1693678284713813100,3,2,0,-5,-5,-3,-12,-2
1693678284715812600,-6,-10,0,0,2,3,4,10
1693678284716812300,0,-1,-5,-2,0,0,-5,-12
1693678284718809900,4,5,-1,-1,-3,-3,-1,3
1693678284738802000,-11,-5,-1,-1,3,2,-5,0
1693678284742798400,-5,3,1,1,0,-2,7,-35
1693678284744797000,-2,-4,-4,-5,-6,-6,-9,45
1693678284745796700,-4,-3,1,3,7,3,0,-6
1693678284752791300,-1,-2,-2,-5,-5,-3,12,23
1693678284756790900,-2,-6,0,1,6,0,-12,-5
1693678284758790200,0,-3,2,0,-1,0,4,-12
1693678284760787900,8,2,0,1,0,2,6,10
1693678284767783500,-22,-9,-2,0,-1,-1,-3,-16
1693678284774779000,-8,0,-1,1,3,2,-3,14
1693678284778777300,-3,3,1,-3,-5,-5,2,-14
1693678284779776500,-3,-5,-2,1,5,-1,-5,8
1693678284791769800,12,6,1,-1,-17,-3,-1,10
1693678284793770200,12,-5,-4,0,8,4,1,2
1693678284796766100,-1,1,-1,2,3,0,2,-13
1693678284797765600,-8,-1,-4,-4,-3,1,14,4
1693678284821752200,13,-4,-1,-1,-14,-3,-2,0
1693678284824751400,-8,2,1,2,19,4,16,27
1693678284826749100,-1,-7,-4,-6,-2,-3,-9,-20
1693678284827748800,1,5,1,-2,-16,-1,-2,-3
1693678284829748100,-3,-6,-2,-3,6,1,-11,1
1693678284830747900,0,0,1,2,-7,38,8,1
1693678284841741100,-2,-2,-2,0,2,-68,2,2
1693678284843741000,-5,1,-1,-3,3,-10,-11,-9
1693678284847738100,-9,-1,1,3,5,6,4,-4
1693678284848736900,4,1,0,8,75,23,-10,-1
1693678284864726500,0,0,-2,-12,-54,-36,7,2
1693678284865727900,1,0,0,7,45,-5,-6,-1
1693678284872723300,-4,-7,-1,-9,-94,27,2,-2
1693678284875721100,0,-1,-11,-2,-54,-22,-7,1
1693678284877719600,1,0,5,19,41,40,1,-3
1693678284879720600,0,2,4,10,73,-13,12,2
1693678284885715900,1,0,3,-12,-16,-16,-3,1
1693678284889713500,-3,-3,-4,-13,-46,0,-4,-2
1693678284894709800,-1,3,-1,-1,32,31,10,1
1693678284895709900,1,1,0,16,41,35,-6,-2
1693678284909702800,-2,-1,-2,-9,20,-8,-3,0
1693678284912701300,1,-1,-9,-4,12,-2,0,-3
1693678284916697400,-1,0,4,0,-32,9,6,2
1693678284917697500,-3,-3,-3,-5,18,-13,-6,-1
1693678284940684800,-3,-5,-10,-6,-33,-6,-3,-5
1693678284942682700,0,-1,4,3,19,-16,-4,-3
1693678284944681400,-2,-3,-2,-8,-41,-1,-1,1
1693678284945680300,1,2,6,0,-63,7,3,-1
1693678284947680000,-2,-4,-3,-5,41,-5,0,1
1693678284950679500,-4,1,3,-2,-19,-6,-5,-4
1693678284956675900,1,2,5,23,92,8,-8,-11
1693678284958672900,0,1,-2,-4,-5,-1,-4,7
1693678284968667200,-1,-2,-1,3,46,-9,3,-10
1693678284979661900,2,-2,-2,-9,-28,-9,-1,1
1693678284981660400,-2,-2,-2,0,-7,9,2,-1
1693678284982659600,0,0,-2,1,35,-2,1,-3
1693678284992653700,0,1,2,-2,54,6,-2,2
1693678284994653900,1,0,7,9,31,2,2,4
1693678284995653600,-2,0,-2,6,39,13,5,5
1693678284997652900,-7,-10,-20,-55,-124,-41,-17,-10
1693678285014640800,2,2,5,15,50,4,2,2
1693678285017639600,2,0,4,5,40,0,1,-1
1693678285021641000,-2,1,1,0,21,9,2,1
1693678285024637000,2,3,8,16,46,-6,4,-1
1693678285027633200,2,2,-1,-17,-102,-16,-1,-2
1693678285029632500,-9,-15,-20,-9,85,-13,-11,-4
1693678285038628200,1,2,3,0,28,3,0,2
1693678285041628200,-2,-2,3,9,-18,12,5,-4
1693678285055620500,-2,1,1,-2,10,23,3,-1
1693678285064612100,11,15,21,16,-21,-17,5,8
1693678285066613100,-1,-4,-3,6,79,6,-1,-2
1693678285068609900,-3,-4,-8,-25,-82,-12,1,-1
1693678285074607100,-3,-5,-5,8,90,0,-5,-12
1693678285076605800,1,-1,-3,-5,43,7,10,7
1693678285077605700,-2,-3,-2,-3,-23,-1,0,-3
1693678285079603300,1,0,3,3,1,-3,11,15
1693678285089599500,-7,-4,1,11,0,3,-4,-7
1693678285091598000,-1,-5,-3,-12,-13,-10,-6,-4
1693678285095594700,7,2,-3,-6,-29,-9,-1,7
1693678285097597100,2,5,1,4,15,16,0,-4
1693678285111585200,-5,1,-2,-1,-73,-9,2,4
1693678285113585000,3,-10,-3,5,16,6,-3,-4
1693678285115584200,-4,1,-6,-14,-64,-8,-1,0
1693678285116584200,1,15,5,3,23,2,-10,-10
1693678285125578100,3,-2,2,8,42,6,-1,1
1693678285127578300,0,2,1,-4,-63,13,6,4
1693678285144568400,0,-8,-6,-4,6,-20,-6,-5
1693678285145567300,-3,-3,-2,8,61,18,-2,-2
1693678285148565000,-8,-2,-4,-16,-72,-24,-5,2
1693678285150563400,-4,0,-2,-4,-44,4,2,-2
1693678285162556000,0,-1,-2,0,12,40,4,0
1693678285164555500,-7,-7,-2,-8,2,-20,-9,-5
1693678285179545800,8,3,0,4,37,4,6,-1
1693678285182546300,1,-5,-3,2,-3,3,-4,-11
1693678285183544500,-6,5,-4,-16,-7,8,6,1
1693678285184545200,-8,-15,8,16,10,-9,-7,-2
1693678285194539100,22,9,3,13,-22,8,7,10
1693678285196537500,-22,-4,0,-10,48,-6,-10,-7
1693678285197537900,18,15,6,10,31,-14,-32,-5
1693678285198537700,12,1,-3,-7,5,13,25,19
1693678285217525600,0,-9,-9,-4,-16,20,-11,-31
1693678285227522400,-57,-25,7,11,-14,-73,-11,0
1693678285229520300,30,18,-2,-2,-7,-12,-12,6
1693678285230518800,-4,-16,-5,-2,2,9,13,14
1693678285232518000,-36,-2,1,-3,32,-28,-2,6
1693678285234516800,8,9,-1,-4,-23,32,22,-66
1693678285235514600,-7,-22,5,1,-24,-1,0,2
1693678285240513200,108,29,-6,-1,15,2,9,96
1693678285255503300,30,2,-2,-2,-35,0,4,-59
1693678285257502200,-57,-8,-8,-9,2,8,6,70
1693678285273494000,-11,-36,0,1,11,11,22,15
1693678285275491700,20,5,-1,5,32,25,9,-13
1693678285276491500,-1,-7,-1,-2,18,-8,-19,-27
1693678285278491700,-9,-4,-5,-8,-34,-14,-15,1
1693678285280489100,-1,13,-1,-7,-28,4,16,-4
1693678285281488200,-43,-15,1,4,13,-5,-24,-9
1693678285292482600,-10,-5,-6,-4,-19,-4,2,20
1693678285293481000,29,6,-2,3,26,-1,-6,-7
1693678285295480700,-10,3,-1,-5,-31,-13,-2,7
1693678285296480200,-31,-11,1,-1,-23,-6,-5,-40
1693678285314469400,9,8,3,5,49,8,-1,18
1693678285316468600,27,11,-3,-6,-32,12,12,12
1693678285323465600,-27,-13,1,3,26,-3,-4,-9
1693678285325464300,-67,-6,1,2,-14,-4,-7,-74
1693678285328461400,99,43,1,-6,-29,6,7,91
1693678285330461400,27,7,1,4,-15,-5,-15,-2
1693678285343452400,1,-7,-8,-3,-13,-11,-11,-13
1693678285344454600,-15,-1,2,5,-28,1,7,11
1693678285351448800,-44,-14,4,6,30,2,-25,-31
1693678285356448200,2,5,6,13,53,10,7,0
1693678285359443600,10,11,0,-3,-21,-4,0,-14
1693678285361443200,-5,-4,-5,-15,-31,-5,4,3
1693678285374434900,-25,-14,-6,-19,-60,-22,-7,2
1693678285377433300,22,10,-3,-1,23,4,0,3
1693678285380431800,-15,-7,2,3,-31,0,11,-7
1693678285381430400,-5,1,0,2,57,7,-20,9
1693678285389428900,7,-3,0,3,13,-4,4,-2
1693678285392427200,-11,-12,1,-4,-31,-4,-2,-9
1693678285397422100,13,14,-3,-2,16,1,0,7
1693678285399421100,6,0,2,0,-14,-1,0,-4
1693678285426406300,-22,0,3,10,21,5,4,6
1693678285429404400,15,-12,-2,-3,-16,1,3,-12
1693678285430404600,21,9,-1,-7,-39,-2,1,16
1693678285431403600,4,5,4,3,-30,-1,5,1
1693678285442395400,-9,-5,-3,0,39,4,2,-1
1693678285443394800,-9,-2,-2,-3,-5,-3,1,4
1693678285445395500,-17,1,4,6,42,1,-2,-10
1693678285446393200,6,2,0,1,-9,-9,-21,-11
1693678285448392400,7,-2,-4,-7,-52,-8,4,-9
1693678285449392700,-34,-1,4,5,8,3,1,-10
1693678285465383000,54,20,0,-1,1,-1,-6,16
1693678285467382000,-5,-10,3,10,33,11,28,-7
1693678285476377500,-19,-6,-2,-3,61,-2,-10,8
1693678285479374500,11,14,0,-3,-8,-1,11,-3
1693678285482378700,-21,-16,-24,-1,-14,1,7,17
1693678285483375100,-6,9,7,3,-17,2,9,5
1693678285494365400,10,8,20,-5,-30,-2,4,10
1693678285496365300,18,-1,-1,1,-4,-3,-5,-7
1693678285498364900,-19,-12,0,0,23,-1,-16,-23
1693678285499363800,4,-2,-14,-7,-15,-2,5,5
1693678285508358900,-5,1,-6,5,7,2,1,-15
1693678285509358000,-5,-2,-1,-6,8,-4,-8,1
1693678285516354800,-15,-19,-1,-3,-8,-8,-38,-26
1693678285518354200,-26,4,1,-4,1,-2,-8,11
1693678285532345500,38,20,4,1,-3,1,3,-7
1693678285533347100,-18,-13,0,0,0,1,3,9
1693678285537342500,22,19,4,2,-1,-3,2,15
1693678285540343200,-17,-12,-3,-9,-3,-5,6,-7
1693678285556331900,-1,-9,-2,4,-11,9,5,17
1693678285560330600,29,10,-1,4,-11,-9,-19,-12
1693678285561329600,-17,-7,-1,-5,-8,-2,23,30
1693678285562328500,5,8,3,1,9,0,-22,7
1693678285568323600,-33,-20,-4,2,0,5,22,23
1693678285572324200,-8,15,-1,-2,2,1,4,-24
1693678285577319500,14,-15,0,-4,4,-8,-36,-44
1693678285578317800,-14,2,-2,-2,-5,0,11,14
1693678285591311100,29,14,-3,0,16,0,-6,-23
1693678285593309000,-6,-26,-4,-1,0,-1,0,20
1693678285598306400,6,13,9,7,11,1,18,19
1693678285599306300,15,-9,-3,-4,-6,-1,-10,-16
1693678285623295800,-37,-3,-1,1,4,1,3,-52
1693678285625292700,-16,3,1,-1,5,-4,-12,13
1693678285628289400,-8,-13,-2,-1,-5,1,19,23
1693678285630288200,54,8,-3,-3,-1,-4,-2,-2
1693678285632287100,-30,-10,-1,2,10,-1,-3,-31
1693678285633287000,-6,-5,-2,0,-4,4,5,3
1693678285656274000,-8,-9,0,-1,-1,2,5,46
1693678285658273100,58,30,5,2,-2,0,-4,-17
1693678285661272500,-1,4,1,3,10,0,0,13
1693678285662270800,-21,-4,-4,-4,-5,-6,-1,-22
1693678285663268800,3,4,2,-4,-12,-3,7,-58
1693678285665268600,-10,-1,0,1,9,6,6,16
1693678285674264200,-55,-21,-9,-10,-5,-6,-23,19
1693678285676263100,70,-5,2,4,0,4,11,19
1693678285691254200,-36,12,4,3,9,2,-6,16
1693678285693252700,122,21,4,-4,-6,10,28,61
1693678285696250700,-102,-26,-9,-3,-3,-6,-18,-103
1693678285697250600,69,10,1,0,-2,2,5,109
1693678285714239900,25,-12,-4,-2,0,-10,-31,-65
1693678285716239900,-122,-24,-8,-3,-3,-6,-7,-15
1693678285717238900,58,13,6,8,2,9,17,59
1693678285721236600,23,12,5,-1,-23,1,5,-9
1693678285725234500,-7,9,0,4,0,11,-4,-12
1693678285727233100,-11,-1,1,-8,-6,-7,-9,-3
1693678285734227900,2,-5,0,5,41,6,10,2
1693678285737227600,-21,-5,-8,-23,-30,-20,-7,-22
1693678285741226200,24,10,11,21,37,23,17,42
1693678285743225300,-28,-11,-9,-35,-117,-36,-14,-37
1693678285749219800,25,1,-5,16,61,9,-3,15
1693678285750220300,6,11,5,13,14,2,4,-4
1693678285757215500,-18,0,10,14,88,-4,8,-1
1693678285759214700,-17,-13,-6,19,124,13,-13,-21
1693678285779204200,39,13,12,-3,22,-7,9,23
1693678285781201000,-26,-9,-21,-14,-15,21,-12,-4
1693678285782201700,-19,-4,6,6,52,-24,3,-65
1693678285783200600,-3,-8,-12,-31,-6,2,8,53
1693678285794193300,19,1,4,-2,-80,-35,-21,16
1693678285796194300,-23,2,1,20,90,30,8,-39
1693678285797193900,-11,-7,-10,-13,-72,1,6,15
1693678285798193900,5,-9,-14,-13,-40,-38,-16,-15
1693678285809186700,6,4,1,2,12,13,6,8
1693678285812186600,-15,-4,3,-14,-91,-14,-7,-12
1693678285825177500,7,0,-4,-11,-21,10,5,14
1693678285827175200,-2,0,-1,5,32,3,-4,-28
1693678285832172100,0,-1,-1,-4,-20,6,3,12
1693678285834171200,-3,0,6,4,-3,-5,-1,-26
1693678285837171200,0,-2,-3,-3,-42,-9,-4,34
1693678285841168200,-13,-1,7,18,9,16,2,-8
1693678285861156900,16,9,-1,-4,-13,0,-2,-4
1693678285864154800,0,2,4,5,49,-3,-1,0
1693678285866155100,-8,-7,-12,-18,-31,-5,-4,-1
1693678285870152500,0,-1,5,3,-48,0,-2,-3
1693678285884141900,3,-2,1,-5,-39,2,1,3
1693678285890140700,-5,-1,-4,8,79,-2,-2,6
1693678285892139800,-4,-1,-2,-8,-69,-8,0,1
1693678285894137600,1,1,1,11,-15,2,-3,-7
1693678285899133300,5,1,3,-1,31,8,5,3
1693678285901132900,-7,-3,-2,-3,-48,-2,-1,-3
1693678285906130800,5,-3,-1,1,7,-4,-7,3
1693678285909128200,13,3,3,5,31,4,-3,-3
1693678285929118300,-22,-4,-3,-4,58,2,12,-2
1693678285931116300,-4,-2,-1,-11,-87,-16,-18,-35
1693678285933114600,-2,1,-1,0,33,15,14,47
1693678285935113800,24,5,2,-1,2,-12,8,11
1693678285940111900,-17,-2,-2,3,23,2,-8,-24
1693678285943108900,-25,-5,1,-2,-1,20,5,15
1693678285945109200,-9,-4,-5,-6,-12,-40,-4,-11
1693678285947108800,5,3,5,9,31,20,-8,-6
1693678285951104300,19,0,-2,-5,-87,-6,22,30
1693678285956104300,5,1,-1,-2,17,6,8,-4
1693678285959100600,1,-3,-1,1,2,7,-3,-8
1693678285960098800,-3,-1,0,1,-4,4,0,2
1693678285975090500,1,1,2,10,-2,0,-6,-7
1693678285977090600,-1,-4,-8,-16,30,-16,-8,3
1693678285979088100,1,0,0,8,47,6,14,-5
1693678285981089100,-5,-1,1,1,-9,-2,-19,-3
1693678285998077700,-1,-1,0,3,-18,7,-3,-1
1693678286001077100,2,0,-1,2,-10,2,7,15
1693678286006073900,8,1,0,-3,11,-18,-10,-10
1693678286009071500,-22,-8,-6,-4,6,14,13,8
1693678286013068800,4,4,0,-3,43,-41,-23,-15
1693678286015068800,7,-1,4,-2,-28,2,-11,24
1693678286026061800,-2,7,-1,0,5,-6,5,-13
1693678286028060600,5,-3,3,6,-12,8,-12,-11
1693678286035055700,-28,-8,-4,-10,-31,-6,-11,-24
1693678286040056900,2,6,8,21,47,28,6,-2
1693678286043051700,-43,-43,-8,-21,-14,-9,-33,-27
1693678286045050200,-12,33,-12,0,-5,-19,9,57
1693678286081030000,84,-23,-14,-15,-32,5,-25,-65
1693678286083028400,-76,12,15,12,6,-6,-14,-15
1693678286084029400,13,8,5,14,54,35,20,-40
1693678286090025500,-4,3,10,15,-41,-2,18,74
1693678286093025100,66,27,-4,-10,-3,-50,38,21
1693678286094022100,0,-54,-23,-45,-102,-59,2,10
1693678286096023300,-46,36,-6,-10,-40,-8,-16,-53
1693678286098019700,-91,-48,-1,-1,28,115,11,-40
1693678286106016700,-46,-20,-10,-7,-24,-45,5,24
1693678286109015000,77,24,12,39,39,40,-19,2
1693678286111013700,-44,-8,-4,-29,-2,41,4,31
1693678286113013300,39,11,-8,-58,-96,-25,-12,-30
1693678286125005800,-15,2,10,2,39,50,6,50
1693678286127003100,-12,-4,-5,14,120,-18,12,-12
1693678286129002300,41,-2,-9,7,18,-3,-12,16
1693678286132001100,-25,-1,13,28,50,-17,-4,-29
1693678286132999900,-9,2,6,-4,-3,3,-21,-8
1693678286135000300,-100,-80,-5,-3,-27,-6,34,-10
1693678286139997400,63,81,8,9,-60,3,-23,51
1693678286141995200,77,30,0,-4,-25,-22,56,10
1693678286155989900,-52,-15,-4,4,1,11,-23,6
1693678286158988000,14,7,-8,-6,1,4,-10,6
1693678286160985600,-42,-47,-5,1,1,-3,15,-1
1693678286162984200,3,8,10,13,27,-7,-20,-30
1693678286178974300,22,25,12,11,27,21,14,28
1693678286192965700,-18,3,-8,-17,-26,-9,1,0
1693678286195964200,17,-16,1,-2,-1,-7,8,8
1693678286198963300,13,2,-6,-5,20,-14,-13,0
1693678286199961300,-30,-15,-6,1,-20,11,6,-25
1693678286203960300,13,16,4,-3,-18,0,-9,4
1693678286208956700,-25,-19,1,2,10,-1,12,30
1693678286211954400,65,35,0,1,14,-1,-8,-23
1693678286216952200,-25,-28,-8,5,34,5,3,-3
1693678286219951500,18,16,2,-15,-58,0,-19,4
1693678286224947800,15,12,9,9,32,9,23,-16
1693678286227946200,-100,-45,-11,-5,-7,-16,-7,-15
1693678286240939400,38,17,-1,0,6,5,-8,-2
1693678286243935900,13,19,0,-6,-39,-2,5,15
1693678286245936700,-6,-15,2,8,12,5,11,-16
1693678286247935000,4,-8,-1,-1,5,1,18,-29
1693678286250932300,-3,16,-5,-3,-6,-11,-31,31
1693678286256929100,-38,-11,-1,5,29,2,-27,-26
1693678286259928400,-10,-6,7,6,11,20,15,-21
1693678286262925400,42,18,0,4,-7,-37,-14,36
1693678286281914600,-1,-13,2,3,-3,9,6,-25
1693678286284913000,-32,8,0,1,21,8,7,-8
1693678286289911000,30,16,-4,-5,-12,0,4,14
1693678286292909000,-46,-36,-8,-3,17,-2,-26,-17
1693678286296905900,36,21,5,6,6,5,13,10
1693678286297907000,32,8,-2,-6,7,-4,-6,12
1693678286304902800,8,-5,-7,-5,-17,-14,-4,0
1693678286307900100,-8,6,5,5,17,8,5,-2
1693678286310897900,-21,0,-3,-4,-6,-4,-5,0
1693678286311896900,7,-11,-1,3,15,4,0,10
1693678286333886000,-32,-22,-4,-2,-12,-6,9,2
1693678286336883200,34,21,2,-2,3,7,-14,-9
1693678286347877700,-21,-4,-1,-3,-4,6,17,3
1693678286350874700,15,8,0,5,15,3,10,0
1693678286359871900,8,1,2,3,2,-5,-9,0
1693678286361869000,-17,-13,-5,-8,-10,-1,-1,9
1693678286363868700,-4,-3,-2,-1,0,-1,1,-10
1693678286365867500,16,8,1,-1,2,-4,1,2
1693678286367865100,-16,-9,-5,-3,-4,-1,31,6
1693678286370865400,17,10,4,4,8,-3,-17,-12
1693678286379858300,-3,-4,-2,0,0,-6,6,7
1693678286381857200,4,4,1,-1,10,5,9,-1
1693678286383855800,-1,-3,-2,-8,-24,-9,-17,-5
1693678286385855700,-3,-4,-2,0,6,7,10,12
1693678286407843500,-18,-11,2,2,7,5,4,-1
1693678286410841900,5,4,0,2,-5,-7,7,0
1693678286412840200,56,22,1,1,1,-3,-10,21
1693678286414839000,-68,-18,-3,-5,-2,6,0,-72
1693678286416837300,1,-11,-7,-4,-3,-6,5,61
1693678286420835800,-19,-5,-4,-3,3,-2,5,-14
1693678286423833400,9,0,6,4,1,1,-13,12
1693678286426831900,43,5,-2,-3,-4,-5,6,21
1693678286448819500,-28,-10,-1,-4,-1,1,8,-54
1693678286458813900,8,1,-2,3,10,2,-3,5
1693678286461812000,1,-3,-3,0,10,-5,-3,-12
1693678286463811200,-10,-5,0,12,1,14,-1,17
1693678286467808400,13,4,1,-12,-4,-20,-2,-1
1693678286472807100,18,4,0,1,27,5,-10,-6
1693678286475804700,31,5,2,14,-4,23,-5,-8
1693678286477802100,-106,-20,-4,1,31,-8,-7,-16
1693678286479802400,0,8,4,17,26,-1,0,1
1693678286481799700,3,-6,-10,-20,-30,-29,-12,-12
1693678286483800000,-11,-7,-2,-10,-46,3,-19,-1
1693678286486800000,39,7,1,2,-12,-11,-4,21
1693678286491794900,4,-5,-3,11,54,23,8,-14
1693678286493795300,-1,9,1,2,32,88,5,12
1693678286499790100,-12,-1,2,-3,8,-97,-9,-8
1693678286500789300,12,-4,-6,-16,-76,53,8,10
1693678286513781200,-1,11,8,28,5,-23,-7,-6
1693678286515780700,3,-13,-5,-10,-19,7,-3,0
1693678286516780100,-3,11,8,29,111,54,13,11
1693678286517779600,7,-7,-2,-32,-101,-99,-6,-4
1693678286537768200,-5,-11,-18,-23,-51,29,-6,-1
1693678286540767100,0,5,24,1,33,-10,-6,-4
1693678286542765400,-13,-8,-16,-14,26,-5,2,-6
1693678286543764600,6,9,15,54,18,4,0,12
1693678286550760600,6,7,18,-10,-31,42,3,4
1693678286554760700,-3,0,-8,-1,11,-26,6,-13
1693678286559756100,-16,-6,-8,3,28,20,-15,-4
1693678286560755800,12,2,-10,-11,-24,26,8,8
1693678286581742300,-5,-5,-12,-24,2,-32,-11,-1
1693678286583741400,1,4,5,13,3,23,4,-11
1693678286584740900,-6,-2,-2,-9,-33,-8,-5,-3
1693678286588741500,4,-5,-3,8,69,12,24,7
1693678286610726100,-1,2,0,-10,-29,-16,-18,-8
1693678286612726200,-2,3,2,7,-11,-10,3,8
1693678286613726300,-2,0,2,12,51,23,1,-2
1693678286614723500,5,0,-2,-20,-55,-23,4,7
1693678286615722700,-3,-1,-3,-5,51,5,-12,-9
1693678286617722800,0,-2,-6,7,20,0,2,2
1693678286626716500,-3,-3,-1,-10,-25,-13,-3,0
1693678286628717200,0,-1,5,3,27,12,-3,-3
1693678286634713600,0,1,2,8,27,16,3,4
1693678286637711100,2,0,-3,-3,-22,-4,-4,3
1693678286640709600,-3,-2,0,-5,-49,-55,-3,-6
1693678286642709300,-2,-4,-4,-9,33,10,-2,13
1693678286656699600,-1,-2,-3,1,-21,7,-8,-8
1693678286658699700,-2,0,2,4,26,-9,2,3
1693678286659698300,-3,1,1,-6,-51,14,-1,-7
1693678286660696900,2,-2,-3,-5,42,4,0,11
1693678286680685800,0,0,-4,-11,-54,-24,9,3
1693678286682685300,1,0,-3,-2,-20,0,-11,-5
1693678286683684600,-6,-2,-1,-3,13,1,-8,-2
1693678286684683900,4,2,2,14,14,-7,-2,-8
1693678286694679100,0,0,0,-14,11,7,3,-1
1693678286695679100,-1,0,0,6,-11,-12,2,-22
1693678286697678700,-3,-4,-5,-24,-34,10,-2,51
1693678286698677300,2,1,0,11,36,15,-13,-18
1693678286717665900,-4,-3,0,-1,-4,-38,1,1
1693678286720664100,2,6,0,2,24,18,3,9
1693678286723661500,-4,-4,0,-1,-16,-45,-3,-25
1693678286724662300,-2,0,-2,-6,12,-1,-22,-7
1693678286730656800,4,5,4,19,39,13,4,12
1693678286731657500,-4,-5,-4,-12,-38,11,0,-6
1693678286744649600,-1,-3,-3,0,22,-17,-4,-11
1693678286745650100,-1,-3,1,-1,0,32,9,10
1693678286754647000,1,-2,-5,-3,-25,-41,-4,-11
1693678286756642800,2,1,-1,10,38,-7,-1,10
1693678286757642300,2,4,2,-10,-8,30,8,-2
1693678286758641300,-1,0,1,1,-1,-6,-3,1
1693678286777630900,-4,1,1,-1,10,24,0,-4
1693678286778630900,-2,-7,-5,-2,-26,-13,2,-1
1693678286780630400,-5,-4,4,28,96,16,6,8
1693678286781628300,1,-4,-8,-36,-101,-37,-19,-24
1693678286790622700,-15,-2,-10,-9,82,12,-4,-11
1693678286791622900,6,1,1,-3,-5,-16,4,-5
1693678286806614800,-7,6,1,-3,-7,15,5,-50
1693678286808614200,17,26,15,23,37,-1,14,68
1693678286814609300,-31,-9,2,6,-18,16,-32,-3
1693678286815609100,-1,-20,-6,-9,-11,2,10,12
1693678286816608400,-2,-6,-12,-12,-54,-5,48,22
1693678286817607600,-19,5,5,16,30,2,-47,-49
1693678286836597300,83,25,1,-10,-42,-18,-23,13
1693678286840597100,-4,10,2,-8,5,-9,52,-23
1693678286841593900,18,-12,-3,5,-15,1,-29,13
1693678286843592200,-43,-30,-5,1,13,-2,42,13
1693678286860584100,15,21,1,0,-17,4,-5,-14
1693678286862583000,-38,-4,-1,-2,-13,-5,-27,-8
1693678286864581500,3,3,2,-2,0,2,-3,-13
1693678286865582100,-27,-11,-3,-2,9,3,9,-2
1693678286881570100,-21,-9,3,9,0,8,9,3
1693678286883569600,10,-1,-3,-6,0,-1,3,24
1693678286884569400,-2,0,0,1,-5,-1,-7,-6
1693678286887567700,22,4,-4,6,48,3,-11,6
1693678286896561500,-11,-10,-4,-18,-71,-9,15,10
1693678286898560900,17,-1,-1,4,14,9,-13,-7
1693678286899560800,-9,7,4,-2,-25,5,-8,4
1693678286901560800,9,4,0,-2,-7,0,0,-9
1693678286910554300,7,-7,-3,4,8,-1,12,-3
1693678286911553400,-10,-2,1,5,1,5,-6,6
1693678286924546800,-4,0,-1,0,-14,4,-6,0
1693678286926546700,10,2,-1,0,40,2,12,5
1693678286933541000,-10,-8,-4,-8,-36,-10,3,-4
1693678286936540900,2,5,4,2,7,5,-9,5
1693678286940538500,-4,-4,-7,-19,-9,-18,-7,1
1693678286942535900,10,2,-4,-7,34,-3,0,-9
1693678286957527600,-9,4,17,32,-13,52,12,10
1693678286959526300,-4,-9,-28,-27,29,-51,-12,-4
1693678286962526000,4,0,0,4,37,16,-4,-4
1693678286963525600,-2,-4,-2,-3,-24,-47,-2,-1
1693678286970522500,-4,-4,-1,4,64,37,3,-2
1693678286972519600,4,4,-1,20,-29,-40,2,4
1693678286979514900,0,7,15,-18,116,31,5,2
1693678286980516900,-4,-9,-8,7,-94,-17,-11,-2
1693678286993506200,-4,-2,3,-2,29,-39,-1,-2
1693678286996504900,4,0,-5,-7,26,-1,-1,-1
1693678287008497400,-8,-4,-3,-11,2,-24,-2,-2
1693678287009498900,2,3,5,6,50,26,1,-3
1693678287016493100,3,2,5,6,-28,3,11,5
1693678287018492000,-8,-6,-7,-19,-101,20,-14,-5
1693678287022490700,-3,-3,-2,15,28,11,0,0
1693678287023491800,5,6,8,-5,-11,-12,8,4
1693678287041479500,-5,-6,-12,3,22,-2,-6,-5
1693678287046476500,3,4,12,9,2,-11,3,6
1693678287048477400,1,1,-3,6,8,19,1,-1
1693678287049473900,2,-2,3,8,-56,-16,0,-1
1693678287056471500,-6,-8,-14,-25,-45,-4,-3,-2
1693678287058469300,-1,7,21,24,66,14,-6,4
1693678287060468900,-1,-2,-7,-16,-78,-9,-1,-1
1693678287061469100,-2,0,-4,-5,60,24,2,-3
1693678287084454300,0,1,-1,-3,-1,-9,1,0
1693678287088457500,1,-1,3,2,56,26,2,1
1693678287090451300,-4,-4,-7,-2,-83,-13,-1,-4
1693678287091450900,-3,-1,-1,-19,-49,7,-3,-1
1693678287107441800,-4,0,0,9,46,6,-1,-3
1693678287108441000,-3,-6,-6,-6,-4,-16,-6,-2
1693678287110441100,4,-2,1,4,44,-63,-2,0
1693678287111440400,5,5,0,2,30,12,7,11
1693678287113438500,-3,-1,3,-1,39,-5,-8,8
1693678287115437000,-4,-16,-12,-20,-22,3,-26,-50
1693678287137424900,16,4,9,16,35,15,31,52
1693678287140424900,-8,0,2,-7,-26,-7,-1,-6
1693678287141443800,-91,-73,-4,4,39,12,-20,-58
1693678287142424200,29,54,-11,-4,-8,4,28,30
1693678287143424000,-26,-34,12,11,-14,9,-7,10
1693678287144423400,-78,-12,-11,-9,-8,-15,-16,37
1693678287163411000,83,40,7,2,-5,15,47,-86
1693678287165411100,12,-8,10,7,-8,3,-45,-2
1693678287167406700,34,-56,-8,-9,-21,-2,-1,12
1693678287169407000,123,97,-6,-3,25,8,36,53
1693678287173403500,-117,-102,-1,-2,-8,-11,-22,34
1693678287175403900,6,64,3,-1,-22,-8,-65,-46
1693678287180399100,-38,2,-8,-5,5,-2,32,-5
1693678287181401700,-19,-32,5,7,21,8,-30,-15
1693678287196392600,5,20,-3,2,5,-5,4,55
1693678287198388500,-11,-24,-1,-8,6,15,38,-18
1693678287199389900,-70,-16,-16,0,11,27,-7,-32
1693678287200389100,-30,-7,18,12,-9,-8,0,-25
1693678287224376300,41,37,-18,-3,53,22,-2,15
1693678287228373300,-19,-17,45,45,56,-16,33,19
1693678287229374200,23,26,-4,-22,-84,-52,-33,-29
1693678287230373900,4,-19,-41,-48,97,35,9,14
1693678287233372300,29,18,37,4,-109,-51,-5,-1
1693678287234369200,2,-14,17,22,18,20,13,15
1693678287242363800,0,25,15,28,18,6,0,19
1693678287244364900,12,-10,-8,5,-70,-18,-10,-21
1693678287257357300,-21,-11,-45,-37,60,20,4,-7
1693678287258356600,-18,-14,-30,14,-11,11,13,18
1693678287259355800,28,33,67,29,-84,43,7,11
1693678287260354800,-25,-32,-22,-45,104,-55,-25,-25
1693678287288339300,16,22,12,16,-61,11,-1,5
1693678287291336600,-3,-14,-14,-55,6,-2,-1,19
1693678287293335200,9,5,-16,4,19,2,-1,-8
1693678287294337300,-7,-4,14,31,10,10,4,-7
1693678287296333400,5,9,-1,-12,5,-3,-3,21
1693678287297335500,0,-4,-3,-8,37,8,1,-3
1693678287309327400,-7,-3,-6,0,9,-9,-4,-4
1693678287310327700,-6,0,12,11,23,11,6,-5
1693678287320320800,6,4,-7,3,-19,-30,-5,2
1693678287327314900,-7,-3,0,-4,-34,4,10,5
1693678287329315900,1,1,-8,-6,79,10,-8,-7
1693678287330317000,3,-1,1,4,-83,-5,5,3
1693678287339309000,5,1,2,-7,4,-3,1,1
1693678287341308500,-8,-5,-2,1,23,-10,-5,1
1693678287345304200,-3,-4,-12,-7,-20,-8,-5,2
1693678287346305500,3,5,8,17,7,23,4,-7
1693678287361296500,1,2,-1,0,-24,-7,2,3
1693678287363294800,-6,-6,-1,-1,-3,4,4,3
1693678287365296600,9,3,-9,-1,17,-9,-7,-1
1693678287366296600,-2,-2,2,-4,-19,9,3,1
1693678287378286000,3,7,4,3,-13,3,-1,-1
1693678287383284300,0,-1,0,-2,-1,-15,0,3
1693678287387282600,-4,-2,-2,-5,33,16,-1,-4
1693678287389284000,-4,-5,-2,0,-77,-1,2,-3
1693678287399273800,3,3,3,7,5,-8,1,2
1693678287401275900,-4,-6,-5,-7,-25,0,-3,7
1693678287405277200,-6,-1,-4,-7,-45,-5,-19,-21
1693678287406272700,0,-1,2,0,14,4,2,1
1693678287413265900,3,0,0,11,69,4,0,2
1693678287414266500,0,-3,-3,0,-12,4,1,2
1693678287422261900,-2,0,-3,-6,15,-2,0,2
1693678287425258900,-2,-1,-1,3,-5,-4,-3,2
1693678287438256500,-2,-2,0,-3,-7,1,-4,-6
1693678287441252700,-1,0,1,0,1,0,4,-1
1693678287455243700,4,1,-2,-3,-2,11,7,2
1693678287458243100,3,1,1,7,55,-5,-10,11
1693678287460240300,-15,-5,-1,-4,-63,3,16,-13
1693678287462237900,4,0,-2,-9,-52,-18,9,-4
1693678287464239100,2,-2,-3,3,26,4,-13,2
1693678287465236600,-2,0,0,1,56,5,15,14
1693678287473232100,-21,-15,0,-10,-12,-1,-9,-2
1693678287476229900,-2,-14,-8,0,-1,-1,-21,-31
1693678287489222900,10,32,9,11,4,5,-26,60
1693678287491221200,9,-8,-7,-12,-1,2,76,-22
1693678287497218100,-50,-25,3,6,21,-4,-16,-8
1693678287499217200,80,56,3,0,-7,1,35,31
1693678287501216000,-21,-26,-6,0,7,-10,-23,-18
1693678287504214100,10,3,-3,-5,-27,4,-35,-1
1693678287522204600,-66,-28,-5,-3,18,4,17,9
1693678287523202600,77,27,0,-1,-2,-2,32,-17
1693678287525203600,-9,-1,-4,-12,-5,-18,-35,-18
1693678287526202500,-16,-9,-5,-2,-12,-5,-20,-10
1693678287536196300,16,0,-1,1,5,1,0,-22
1693678287540193700,-61,-21,0,4,25,9,-15,16
1693678287549188300,21,10,5,10,27,14,44,4
1693678287551189200,-5,-15,-6,-24,-63,-12,-28,11
1693678287565180100,13,12,-5,8,66,-6,-18,-6
1693678287567179700,-18,-7,1,0,-1,0,-1,2
1693678287571177100,-3,-3,1,8,83,13,32,0
1693678287573191000,-15,-3,1,0,-37,-2,-14,-10
1693678287595163100,33,19,1,1,22,5,2,21
1693678287597161100,-17,-7,-1,-5,53,-7,-5,24
1693678287611153300,-2,-8,-6,-3,7,3,2,-31
1693678287614152600,-11,4,4,4,-5,-3,-5,-7
1693678287616150300,31,16,-2,-11,2,-9,-7,10
1693678287618148500,-27,-18,1,7,9,5,5,-10
1693678287622148600,-35,-43,-7,-8,-42,-5,-11,10
1693678287626144100,52,57,10,8,-12,2,32,-5
1693678287628143500,38,9,-1,2,-3,-4,-23,4
1693678287630143100,-17,-13,-3,-3,-24,-1,-21,-21
1693678287631141500,-11,1,-3,-8,-31,-5,31,-11
1693678287632140900,-16,-15,-1,1,22,0,-9,3
1693678287639139200,7,5,1,0,-10,4,14,2
1693678287640136200,-14,-14,-7,-8,-13,-4,-1,-4
1693678287647131600,0,15,2,-2,4,-5,-4,2
1693678287648133900,-3,-5,3,10,12,10,7,1
1693678287662122900,1,10,1,-3,-35,-6,7,-5
1693678287663123100,-9,-8,-2,0,15,-3,-3,-4
1693678287665124200,7,0,-5,-6,-28,-13,-7,-6
1693678287666122400,-2,-7,-4,-2,44,3,-3,-19
1693678287677115200,2,-1,2,4,18,4,-7,30
1693678287678114900,-26,-11,-1,-3,-11,-6,-23,-5
1693678287680113300,26,19,1,3,10,2,11,3
1693678287681112600,-8,-5,-2,0,9,0,-15,-23
1693678287698102000,-19,-11,-3,-8,-52,-3,-4,-6
1693678287700102700,20,9,0,3,11,1,-8,15
1693678287713094100,0,2,0,-2,-8,-1,10,-10
1693678287715093200,-15,-13,-2,1,-18,0,-5,15
1693678287716092400,0,1,-2,-2,38,1,6,-5
1693678287718092700,-13,-5,-1,1,-13,2,8,-4
1693678287724088700,-11,-1,1,-2,-14,-8,-13,0
1693678287726088200,-12,-13,-1,-1,-1,-2,10,7
1693678287738081200,14,10,-1,1,5,2,3,-6
1693678287741079200,-10,0,0,0,-11,2,-8,-1
1693678287743076400,24,12,-1,-2,-4,-2,-7,-19
1693678287744076900,8,3,3,4,15,2,0,22
1693678287763065400,7,3,3,0,-2,2,19,9
1693678287765065200,-14,-9,3,-2,-3,0,5,-6
1693678287775060000,5,0,-3,-3,2,1,-1,11
1693678287777081700,-16,-8,-7,-6,-3,-4,-19,9
1693678287778059200,7,8,7,7,-3,0,7,-20
1693678287779057700,11,4,2,0,-2,1,8,20
1693678287782055200,-16,-2,1,3,11,0,0,-13
1693678287784053800,-3,0,-1,-4,-32,-1,16,-2
1693678287797047100,3,-2,-7,-5,-3,-4,-11,3
1693678287799045800,-8,-1,-1,0,2,0,9,-1
1693678287820034700,3,-2,-1,0,3,3,0,5
1693678287823032900,5,4,-1,0,8,-2,-13,-8
1693678287827028700,-13,-7,-1,-1,4,2,5,10
1693678287830027500,15,5,-1,1,-10,-4,-2,-12
1693678287832026400,-7,-10,-4,-5,-5,-7,-21,15
1693678287834025000,-7,1,-1,-2,3,-1,3,-3
1693678287842020200,-16,-11,-4,-2,0,-2,-11,12
1693678287851016500,16,12,3,2,2,1,2,-6
1693678287857013200,28,12,-2,-5,-6,1,26,10
1693678287860012100,-5,-3,-2,-1,3,-6,-42,-24
1693678287865006700,-16,-4,2,2,4,-1,13,-13
1693678287868006400,-11,-5,-3,-4,-5,-3,-15,3
1693678287874003000,7,1,1,2,-2,3,5,8
1693678287876000500,-11,-5,1,0,1,3,3,-46
1693678287878999700,30,16,0,1,6,3,-1,36
1693678287880997600,12,-4,-2,-3,-16,-9,6,22
1693678287888995500,-11,-6,0,2,3,0,3,-6
1693678287891993900,-7,-1,-3,-1,2,-3,15,-7
1693678287894992600,-17,-12,-4,-6,-6,0,-5,-25
1693678287895989800,24,6,-4,1,-4,-4,2,-10
1693678287906983900,-27,-2,-1,-1,-3,-2,-11,-2
1693678287909982500,7,2,2,2,4,2,12,13
1693678287915977800,-1,-1,0,-2,1,-3,-8,-13
1693678287919976500,7,0,2,1,12,2,-5,21
1693678287925973100,9,-4,-2,-3,-20,-1,-13,-27
1693678287927972700,-13,1,-3,0,37,2,2,4
1693678287947961600,5,-1,-1,-1,42,2,4,4
1693678287958955900,-10,-2,-4,-10,-59,-7,2,1
1693678287960952500,-1,-5,1,1,12,3,-14,-5
1693678287961953300,6,0,-1,0,6,-3,5,11
1693678287972945700,4,2,3,13,67,14,-3,0
1693678287974944300,-10,-2,-2,-9,-48,2,-3,-10
1693678287978941800,-8,-4,-5,-9,-31,-44,3,4
1693678287980945100,11,5,2,1,10,9,2,12
1693678287982940800,-2,-6,-12,-10,-75,-2,-5,-9
1693678287983941000,-6,3,16,32,8,-11,-4,-7
1693678287990938500,-3,-1,-1,-5,71,11,5,7
1693678287991935600,8,-2,-2,13,-29,-3,0,1
1693678287998931300,-3,-3,1,-26,75,-33,-5,-5
1693678288003928000,-8,-3,-12,-5,76,15,-2,-8
1693678288005927300,-1,2,-5,-9,33,2,0,4
1693678288007925100,6,5,29,36,57,2,2,7
1693678288022917100,1,3,8,2,-31,2,3,-2
1693678288024915600,-4,-4,-7,2,17,2,-5,-6
1693678288027913900,-1,-4,-5,-7,-35,4,2,1
1693678288029912400,0,-3,-21,-31,-56,-4,-3,3
1693678288038908300,-1,-1,1,14,29,3,-1,-1
1693678288049902100,-1,2,2,-11,-19,-3,-1,-6
1693678288050900800,0,0,1,13,-29,7,3,4
1693678288054898600,0,-3,-3,-9,41,-2,-2,-1
1693678288066819000,0,1,1,-1,-33,-6,-2,-2
1693678288071817100,-6,-6,-9,-23,-10,5,-1,-3
1693678288081534200,1,-1,4,5,6,-48,-10,-5
1693678288083518900,2,0,-1,-10,-11,-21,0,9
1693678288097498200,0,3,5,13,42,22,3,-7
1693678288099495400,-2,2,-1,2,-3,6,-1,-2
1693678288102494200,-2,-1,-1,-2,-11,7,2,0
1693678288104492900,2,-1,0,-3,-18,4,-1,1
1693678288106493900,0,-1,-5,-1,-14,-2,1,2
1693678288108490300,-2,2,3,3,3,-5,0,-2
1693678288109489600,-1,-2,0,-1,-23,19,3,1
1693678288110489800,-1,-1,-5,3,30,1,-4,-1
1693678288122470600,-1,-3,-5,-5,-30,7,1,1
1693678288125470700,-1,3,4,1,45,0,-1,-5
1693678288126467300,0,-2,1,2,-42,5,2,2
1693678288128470000,-3,-3,-3,0,13,6,1,0
1693678288141459300,2,1,-1,-14,-68,-8,-3,0
1693678288143460400,0,-3,0,1,-20,-5,0,0
1693678288144458500,-1,3,2,3,24,5,1,-1
1693678288145457700,0,0,3,6,-4,10,1,1
1693678288155521500,-6,-8,-6,-11,-27,-24,-7,-3
1693678288157520100,5,1,0,8,14,0,0,0
1693678288164516100,-3,-4,-2,-4,14,10,2,0
1693678288165516500,-1,3,1,4,16,4,1,0
1693678288179163700,1,-2,-1,1,-16,-6,-1,2
1693678288181166300,-1,3,2,3,22,4,14,1
1693678288183164900,2,0,2,2,-12,-4,-25,-2
1693678288184165700,0,0,-2,-5,23,-1,0,0
1693678288204941300,1,-2,-3,3,22,9,3,1
1693678288206935200,-8,-11,-8,-5,-4,-9,8,9
1693678288208934300,11,11,7,4,14,10,6,-40
1693678288209933600,1,-6,-5,-4,-30,-10,-15,42
1693678288215935500,-4,4,-3,-6,-21,1,7,-1
1693678288216941200,7,2,10,9,12,5,11,6
1693678288224935900,-4,3,-2,2,22,4,-6,8
1693678288226935000,-2,-8,-4,-3,-16,18,3,-15
1693678288239091900,-33,-27,4,8,-19,-26,3,13
1693678288241091100,41,33,-1,-9,-26,5,-17,-17
1693678288247086200,-18,-11,-7,-4,-20,-4,19,6
1693678288250086200,57,25,-2,-4,10,5,-6,1
1693678288270436400,-8,1,2,0,21,8,19,-23
1693678288272441200,-16,-8,1,1,-3,-1,7,-32
1693678288275434500,-10,-4,-2,-12,-10,-8,-31,58
1693678288276433300,-9,-13,-2,-1,-5,-5,21,-23
1693678288278431200,-21,-5,-1,4,21,5,-23,23
1693678288279430800,-7,5,-2,-2,-43,-6,-3,12
1693678288290455500,5,-6,-3,-1,30,2,23,-41
1693678288292455500,-25,-8,2,8,89,10,-22,-18
1693678288299163800,11,16,-5,-15,-66,-15,42,-16
1693678288305167100,-10,-7,-3,-1,19,0,-32,-35
1693678288307165200,-8,-6,1,3,-5,-4,-6,37
1693678288309162900,18,4,-2,-4,-21,5,27,13
