timestamp,EMG_s0,EMG_s1,EMG_s2,EMG_s3,EMG_s4,EMG_s5,EMG_s6,EMG_s7
1693678170737359600,-1,0,13,-41,-2,2,8,-4
1693678170739357400,-1,-4,-20,-29,-13,15,2,-3
1693678170746712500,-2,-3,0,24,-17,-41,-2,0
1693678170747745400,-2,-3,-8,54,6,-2,-6,-2
1693678170749747100,1,-1,-7,-25,-9,-3,2,1
1693678170750746500,0,2,-8,-30,-4,1,0,1
1693678170751746100,-2,-3,1,27,2,-3,0,-1
1693678170752745900,-4,-6,-3,-16,6,2,6,-1
1693678170759741000,3,2,3,2,-3,-5,-1,0
1693678170761718100,-4,-8,-17,-6,0,4,-4,-2
1693678170767346100,-4,-1,-9,-20,2,4,-2,-2
1693678170769363300,-3,-3,4,52,8,-9,-1,0
1693678170774888300,-3,-6,2,-47,-7,27,3,0
1693678170776913300,-4,-3,-3,72,6,-13,-2,-2
1693678170792574700,1,3,5,10,9,9,-13,-2
1693678170794590800,1,8,44,21,-22,-25,1,0
1693678170812370700,-14,-17,-46,-21,6,3,0,-5
1693678170813369900,13,17,76,37,-14,-4,-3,3
1693678170820548400,-2,-2,-34,-35,6,2,-4,-4
1693678170822578400,1,11,30,-21,-12,-1,-6,-3
1693678170823575900,-3,-13,-36,66,10,-13,-5,-1
1693678170824575300,-5,-11,-30,-21,-3,1,7,1
1693678170843480500,1,-1,14,-9,10,30,7,0
1693678170844485900,3,3,10,-43,-11,-7,9,0
1693678170846505900,-5,-8,-54,-30,34,-5,-13,2
1693678170847500900,-1,9,52,84,-19,11,20,-2
1693678170860901000,0,-4,-4,-25,1,22,-7,-3
1693678170862895500,-2,-8,-43,-15,-13,14,-12,-4
1693678170864894600,-2,-4,-40,-104,25,-54,-1,-2
1693678170865893700,6,28,80,88,5,29,16,5
1693678170886732800,-4,-4,18,-1,-50,-13,-25,-5
1693678170887735700,-5,-10,-43,-81,12,-47,-2,-4
1693678170948679100,2,15,47,-44,-27,11,2,1
1693678170950682200,-7,-22,-97,-41,49,7,-1,-3
1693678170951682300,6,11,66,-27,4,4,5,5
1693678170952681300,-1,19,36,103,-35,-33,-7,-4
1693678170953680500,6,14,45,-31,-14,7,8,5
1693678170955680200,-12,-28,-73,-68,-5,12,-4,-6
1693678170955680200,11,23,64,70,-35,22,7,6
1693678170956678600,-11,-25,-102,-74,58,15,-1,-6
1693678170963681200,1,3,44,14,9,4,-2,2
1693678170964700600,2,-4,-9,-3,-83,64,12,4
1693678170965699300,-26,-71,-128,-122,89,-45,-25,-18
1693678170966699300,-1,3,32,59,69,38,5,0
1693678170969227700,9,51,7,119,122,-2,6,1
1693678170971250300,-21,-51,-80,-80,-68,-55,-2,-8
1693678170985254500,-4,21,23,67,53,-23,4,0
1693678170986270000,13,10,45,71,72,61,20,6
1693678170987267300,-21,-55,-111,28,-11,-55,-22,-14
1693678170988266400,5,-4,-7,-40,37,49,17,4
1693678171015569300,7,29,34,40,-4,-14,19,5
1693678171017507800,-7,-22,36,-78,33,-19,-26,-1
1693678171019510100,4,9,-3,-18,-72,-26,-18,-5
1693678171020528000,4,20,60,127,114,0,6,0
1693678171021507200,-11,-19,-24,-92,-127,-20,-24,-8
1693678171022506600,4,14,-7,7,-1,19,9,6
1693678171030230200,-2,-9,-23,-22,-64,-14,2,3
1693678171031232200,12,37,88,17,15,-20,22,8
1693678171044588500,-10,-31,-41,-24,-6,9,-50,-5
1693678171046592400,11,27,24,21,-48,0,1,3
1693678171047608600,-11,-24,-33,-7,9,-1,-9,-5
1693678171048612900,13,18,40,55,20,7,8,6
1693678171068341500,4,7,5,-3,-2,7,17,0
1693678171070339700,-1,-11,-38,-33,-14,4,0,-1
1693678171072339100,-4,-7,8,-11,-16,2,0,0
1693678171073360100,-2,2,24,8,21,-7,3,1
1693678171088979400,3,1,-16,-18,-3,-6,-8,-4
1693678171090983900,-1,10,14,-5,2,-8,0,-2
1693678171096927000,0,-13,-17,-3,-5,13,24,3
1693678171098944500,1,21,40,27,6,-8,9,-2
1693678171104485500,-14,-27,-35,-27,11,1,-39,-2
1693678171106485900,-35,25,-11,4,-7,4,7,-5
1693678171107483900,-31,-10,15,14,-6,-3,11,8
1693678171108483000,54,12,3,-5,8,-4,57,-10
1693678171127402900,85,14,3,-7,9,24,11,36
1693678171130401900,-40,-6,-3,0,5,-7,-64,-13
1693678171131414600,-66,-2,-1,1,-7,-1,-6,12
1693678171132413400,-106,-18,0,-15,-3,-35,-92,-34
1693678171141138800,41,-14,-12,-5,-1,-4,31,2
1693678171143134000,42,-7,-2,-2,-13,-8,4,50
1693678171149279500,-28,-5,-14,-8,0,4,16,-69
1693678171151303200,28,4,6,13,9,10,17,9
1693678171164493700,-50,1,-3,-8,1,9,-39,-3
1693678171166492800,-97,-4,6,12,9,10,32,-43
1693678171167491900,100,-9,-5,-8,-9,-2,4,54
1693678171168491000,17,-4,12,10,7,-7,-5,29
1693678171189186300,-1,-7,-9,-13,-8,-21,-74,-30
1693678171191184800,-76,-9,1,-9,-2,-5,10,35
1693678171192206700,13,1,-14,-8,-4,2,3,-35
1693678171193205900,13,11,14,16,7,8,-26,-2
1693678171218939300,13,6,-1,5,6,7,43,19
1693678171220933300,-15,-3,1,5,1,4,-6,-4
1693678171221955400,-33,1,2,-7,-7,-6,-14,0
1693678171223932300,40,-1,-6,-7,2,8,15,15
1693678171248835100,-128,-8,1,4,4,7,10,-65
1693678171250837900,127,11,-1,-3,-5,-16,23,20
1693678171251837500,-13,-2,-5,-1,-1,0,21,13
1693678171252836700,-32,-2,3,0,2,-8,-11,-13
1693678171253836100,-38,-4,-4,-2,-1,4,38,20
1693678171255835600,27,0,3,4,5,24,-19,-19
1693678171256834700,-15,-4,1,3,1,-11,-6,-22
1693678171257834200,57,3,-2,-5,-5,-19,-54,36
1693678171260887700,-34,4,0,-1,2,21,21,-11
1693678171262834100,80,1,-8,-7,-8,-26,18,41
1693678171270402800,-68,-3,9,7,3,11,4,-49
1693678171271423800,-57,-5,-3,-4,0,-2,9,47
1693678171292339800,-5,9,0,-3,-2,-4,22,-74
1693678171294342800,-94,-18,-1,-1,-7,-13,-53,59
1693678171295364700,-79,4,8,4,8,13,-32,-47
1693678171296343700,92,41,2,-2,-11,-25,7,-57
1693678171315439700,-82,1,-8,-6,-4,-1,66,127
1693678171317438600,15,5,0,0,-1,-4,3,-83
1693678171318436900,-115,-49,-12,-6,1,4,-8,59
1693678171319435900,-90,15,4,5,10,29,5,-51
1693678171321435900,29,16,11,17,22,56,54,49
1693678171322438900,34,-39,-25,-34,-39,-38,-70,8
1693678171330216200,124,39,7,-7,-8,-9,88,57
1693678171332216900,13,-3,-4,-8,-5,5,39,-121
1693678171343567500,-20,-78,-2,-3,6,-36,-64,38
1693678171344586600,31,68,-8,-15,-32,-88,44,19
1693678171352137200,-27,-32,12,20,22,30,-7,-35
1693678171354152900,-23,-37,-15,-15,-6,27,85,-21
1693678171367565100,-53,-1,12,8,3,-25,-39,-115
1693678171369564000,-96,-17,8,9,10,37,2,7
1693678171370564900,123,25,-10,-9,-28,-34,-60,-71
1693678171371565400,-111,-16,6,15,28,12,3,-84
1693678171391521000,127,30,-10,-5,10,13,9,115
1693678171394541700,-112,-12,12,3,-6,-10,58,-128
1693678171396517900,-26,22,6,14,3,-9,-5,-15
1693678171397517300,-103,-40,-12,-15,-18,-31,-69,28
1693678171403545700,-15,-11,2,3,5,20,7,-20
1693678171405563500,48,9,-1,-3,6,20,10,80
1693678171412794600,3,-11,-8,-18,-10,-18,-24,50
1693678171413793000,7,-7,-4,12,19,17,-32,93
1693678171443200000,34,32,7,7,-15,-20,53,-88
1693678171446175300,-59,-10,5,-4,-11,0,28,-30
1693678171447197300,2,0,-2,-16,-6,-17,0,25
1693678171448191100,13,0,-2,-3,-1,17,1,52
1693678171449195500,9,2,-4,8,15,12,-14,-25
1693678171450172400,-54,-11,3,11,26,45,-10,-12
1693678171451194600,19,8,-3,-7,-17,-7,6,-18
1693678171452193800,7,6,3,7,5,1,-6,19
1693678171463306100,60,-15,-18,-17,-22,-21,-6,22
1693678171465304200,-43,1,4,25,32,30,6,17
1693678171503544900,10,8,11,-4,-10,8,-3,5
1693678171505548000,24,5,-4,-7,-3,-18,-13,50
1693678171507547300,-116,-4,18,-2,-21,-17,-38,-107
1693678171509545800,39,8,-19,-23,-13,0,-27,64
1693678171511544100,-70,-7,7,12,10,10,14,4
1693678171512543500,29,5,9,15,34,60,18,86
1693678171514543400,-5,6,-2,-34,-49,-54,-8,-38
1693678171515543100,2,-8,-10,-18,-23,-16,-8,-6
1693678171525911300,3,5,2,11,14,21,-12,-21
1693678171527909800,9,2,2,-1,-22,-33,-8,-56
1693678171528909800,-3,-9,-6,13,35,62,11,115
1693678171529909400,38,-7,-7,0,17,19,-6,-6
1693678171532575900,-5,0,-4,0,8,0,2,-19
1693678171534490200,-58,-9,-9,-8,-16,-24,-8,-24
1693678171546395200,-7,16,5,6,12,24,4,-18
1693678171548397400,20,12,20,15,2,-9,25,-35
1693678171555377000,-35,-11,-5,-15,-29,-14,-42,10
1693678171556380200,25,-10,-8,-4,14,17,-10,-18
1693678171570398400,16,4,3,-10,-17,-20,-12,1
1693678171571398000,49,32,-5,-9,-11,0,43,4
1693678171573396200,39,-27,-25,-9,9,0,-64,13
1693678171573396200,8,20,19,17,25,6,19,-6
1693678171584108900,-26,-33,-34,-42,-54,-18,-16,-14
1693678171585110000,18,26,15,-8,-26,-27,-24,3
1693678171593383400,54,-1,-8,0,12,1,52,6
1693678171594382300,-104,-47,-16,-22,-21,-41,-111,-80
1693678171607319400,-3,0,1,10,17,22,14,30
1693678171609256000,24,-41,-9,12,28,42,13,-27
1693678171610277700,-3,11,2,3,5,10,19,26
1693678171611278000,10,6,12,7,-8,0,42,5
1693678171631012800,-1,0,-6,-1,0,-15,-13,-13
1693678171633029500,-6,-6,4,6,9,4,-14,-2
1693678171634027800,-9,-3,2,5,8,0,10,-11
1693678171635027300,25,9,-1,0,-4,5,15,10
1693678171644002500,18,7,4,4,-1,-6,1,-5
1693678171646000600,0,-1,-3,5,12,13,8,3
1693678171652135200,-1,1,2,3,2,19,-5,-1
1693678171654152000,11,1,-7,-11,-27,-27,-13,-1
1693678171667415700,13,9,1,2,9,30,3,6
1693678171669411500,3,-13,-2,2,-3,8,-4,-11
1693678171670431900,8,6,2,1,-3,-9,3,3
1693678171671430400,19,12,2,-1,-3,1,11,18
1693678171688861700,-15,-8,-3,5,13,11,3,-10
1693678171690887700,-15,0,6,6,1,-13,-12,-7
1693678171697348200,-5,2,-3,-2,2,8,24,3
1693678171699367700,6,4,6,2,-5,-9,-28,4
1693678171703453800,2,-1,-2,6,11,17,7,0
1693678171705451800,-8,-6,-3,1,4,-5,-4,-6
1693678171712615000,-1,-6,-8,-6,-2,-6,2,10
1693678171714613800,-13,-14,-5,-3,0,18,16,-8
1693678171728005900,15,25,18,16,5,-79,-3,1
1693678171730004000,7,2,-8,-11,3,40,-7,5
1693678171731003600,-10,-2,-7,0,1,45,0,-6
1693678171732021700,7,-2,-19,73,37,6,19,6
1693678171757430000,-3,-11,-5,-99,-30,30,-21,-12
1693678171759400200,4,4,33,61,-4,-84,19,6
1693678171760402300,-13,1,5,-12,-26,-55,-15,-5
1693678171761398600,34,3,-27,20,24,38,16,7
1693678171763397800,-14,22,10,41,20,52,-14,-11
1693678171764396900,-6,-14,-43,-43,72,21,30,3
1693678171772573400,-1,11,27,-16,-39,-7,-37,-3
1693678171773573400,6,9,45,4,-46,-39,42,9
1693678171788400500,-17,-68,-57,-15,-5,-13,-23,-4
1693678171789400000,33,65,55,-23,-5,34,-41,-13
1693678171790421400,-11,-6,-44,65,51,-27,23,-4
1693678171791420400,10,6,-16,-44,7,21,-9,-2
1693678171817180000,14,7,-14,69,2,-12,17,10
1693678171819184000,-42,-36,-59,71,48,3,-7,-17
1693678171825312400,25,27,71,-95,-52,2,7,11
1693678171826320600,1,22,62,-89,-54,-13,-6,5
1693678171833165800,-15,-6,10,115,-13,-18,12,-9
1693678171834165500,35,-9,-40,-119,61,62,-1,19
1693678171836163500,-13,6,57,100,-16,0,-11,-11
1693678171836163500,-6,15,90,-47,-95,-35,12,1
1693678171847444400,-21,-11,-80,23,71,18,3,-4
1693678171849441700,3,20,75,103,13,-4,2,1
1693678171855439000,18,26,53,-1,21,0,10,11
1693678171856457500,-21,-60,-121,-98,61,31,-9,-14
1693678171870505100,24,52,127,93,-42,-9,2,10
1693678171871530700,-25,-37,-128,55,-4,-40,-14,-14
1693678171872527700,-11,1,-4,-88,5,20,5,9
1693678171873531500,19,6,-58,127,-34,10,-2,2
1693678171892408000,7,6,47,-87,-23,58,2,-5
1693678171894379800,-26,-41,-25,15,-59,-35,1,-1
1693678171895401500,29,-3,-39,11,0,-6,6,6
1693678171897401600,-38,14,13,-69,16,8,-19,-18
1693678171922439300,-1,-13,-18,6,3,-9,2,6
1693678171924438100,-12,6,6,-16,-76,-92,-20,-12
1693678171926439000,-7,-46,-128,-40,63,30,4,-5
1693678171927436200,9,17,76,109,-7,42,-3,8
1693678171929435600,13,2,-6,-11,4,-72,-2,4
1693678171930434300,8,8,26,-74,-13,37,21,12
1693678171946562500,-1,-10,-68,-12,-2,-45,-3,-21
1693678171947549400,0,2,52,-51,6,-10,2,-4
1693678171952408200,3,22,13,-15,-9,14,-7,2
1693678171954414300,4,1,-35,-58,-2,46,7,4
1693678171955428800,2,-14,-40,-1,-2,-15,2,-2
1693678171956410300,-12,-11,-91,-52,45,4,-6,0
1693678171974880000,8,-3,41,-95,-21,-17,-7,-1
1693678171976885000,-5,-2,9,-67,-7,-6,-14,-7
1693678171977881700,-1,15,66,41,-2,17,16,2
1693678171978883300,12,-12,-59,-67,14,-14,1,15
1693678171989444500,5,-8,-28,16,31,32,14,-12
1693678171991445200,-15,2,10,39,-43,-57,-13,-8
1693678171997410900,-5,1,4,-45,-4,17,-3,3
1693678171999410100,3,5,8,33,20,17,0,-3
1693678172019539500,13,-10,-38,-24,3,-22,-13,2
1693678172021537100,-5,17,63,29,1,35,10,-2
1693678172023535500,-16,-14,-14,20,-7,-4,10,-12
1693678172024535500,2,-3,-7,-21,-6,-19,-7,4
1693678172026557300,-5,2,6,8,5,12,-1,-2
1693678172027551300,24,1,-18,-24,12,20,3,5
1693678172034530200,-36,-9,1,7,-8,-11,-17,-7
1693678172036550700,-9,2,2,38,4,-1,19,18
1693678172048378300,4,-1,-10,-30,5,-16,-12,-28
1693678172050399900,5,-4,3,7,-3,-2,26,14
1693678172057856400,4,2,6,1,0,4,-56,0
1693678172058858900,4,5,20,29,-2,-4,46,0
1693678172073308700,-8,-8,-23,-16,-1,-3,-52,-15
1693678172074308000,-8,-1,5,0,6,-9,13,3
1693678172075307700,-10,-3,13,18,1,12,12,-2
1693678172076306900,-1,0,-18,1,6,13,42,1
1693678172086521900,1,-12,-22,-18,-6,-24,-13,25
1693678172087520700,20,7,16,17,5,9,-95,-50
1693678172094516800,21,10,17,1,-1,8,16,5
1693678172096518500,-34,-20,-4,13,-5,-26,13,9
1693678172109509600,-17,1,-17,-16,-3,2,42,9
1693678172110530300,-31,-17,3,3,0,2,4,14
1693678172116504100,49,12,0,6,1,13,25,4
1693678172117507500,25,-5,-4,9,1,9,-38,-7
1693678172132980900,-16,3,3,-4,-5,-28,21,-26
1693678172135002900,0,1,5,6,7,17,-9,9
1693678172136000800,-50,-3,-4,-1,-2,-3,38,-15
1693678172136979700,76,5,-5,2,-6,-5,-79,-3
1693678172154577400,-6,-3,0,-4,8,15,-17,31
1693678172156584700,17,5,-2,-6,-3,-2,10,12
1693678172157580100,-38,-10,-1,4,2,1,14,-9
1693678172158579300,-82,-11,3,19,24,23,15,-27
1693678172169630200,93,22,1,2,-1,0,-42,-10
1693678172171510100,-81,0,1,-2,1,9,13,26
1693678172177379000,45,1,4,1,-3,-6,12,14
1693678172179377200,-24,0,-6,-3,-1,-14,-12,-40
1693678172199961200,-72,-8,-7,1,7,11,-13,25
1693678172201968900,36,2,4,7,-3,-6,5,97
1693678172202967400,33,15,2,-2,5,7,-5,-66
1693678172203966100,-56,3,8,-1,-9,-13,-4,-11
1693678172221515600,78,0,-3,-4,-1,15,29,-11
1693678172222517000,-12,1,0,-5,-16,-19,32,38
1693678172230945800,-128,-25,-9,-11,-6,-31,-59,9
1693678172232940300,127,40,12,13,9,-1,-20,-36
1693678172233939700,-46,-11,-5,-14,-22,-11,59,55
1693678172234938900,-60,-13,-17,-15,-3,4,-16,-86
1693678172243389500,81,-4,-3,1,-4,-4,-9,31
1693678172245328400,-110,-5,0,-8,-13,-24,11,26
1693678172252375800,86,5,-6,-12,-16,-11,22,67
1693678172254379200,22,2,1,5,9,5,-29,-91
1693678172255377900,-73,-10,-6,-22,-23,-11,10,-47
1693678172256399700,5,-3,3,8,9,-3,-4,35
1693678172273588500,-110,-19,-12,-2,9,8,-24,16
1693678172275568600,24,3,-1,1,10,32,44,81
1693678172321572000,3,1,5,15,16,-4,-30,-33
1693678172323584500,67,6,-7,-10,-13,-6,36,97
1693678172324588800,-59,-24,2,-5,-6,9,-19,-116
1693678172325572500,91,24,0,-1,-7,-4,12,15
1693678172327567600,-16,-16,2,26,40,41,-2,-47
1693678172329566800,87,15,8,10,7,19,-16,-37
1693678172330586100,-2,-5,-1,3,17,19,17,16
1693678172331587700,20,-8,-4,-6,-15,-27,-31,87
1693678172335564000,42,13,4,-5,-25,-29,-19,-70
1693678172337562300,-45,-3,7,15,26,21,12,-26
1693678172338584100,9,25,11,0,-10,-24,10,49
1693678172339563000,-16,-5,-6,-1,-5,-4,-31,-34
1693678172348110200,-13,-12,-5,-1,4,10,11,34
1693678172350135500,-20,-2,6,-3,-4,1,35,-33
1693678172357328600,21,15,3,-4,-11,12,-5,-6
1693678172359310000,-18,1,-1,-13,-3,-16,-3,48
1693678172374484000,12,29,16,-1,-16,-21,-37,-33
1693678172376485500,-8,-17,-15,-9,-2,-5,-14,-18
1693678172379487400,-10,3,0,-19,-37,-34,-18,7
1693678172380492900,17,-6,-8,5,5,-7,6,22
1693678172394776300,-20,6,13,31,45,48,60,28
1693678172396730400,-18,-22,-3,7,11,14,4,-40
1693678172397728700,20,24,14,10,1,3,2,17
1693678172398751000,-23,-2,2,5,7,-13,-1,20
1693678172408554300,2,-7,-6,-1,12,8,-19,-16
1693678172410580100,0,5,-1,4,13,17,6,-6
1693678172417248000,8,0,-2,0,-2,0,6,2
1693678172419264000,-14,-14,-13,-16,-6,-17,-18,4
1693678172432908600,-9,-14,-5,-2,-2,-3,4,11
1693678172434910200,3,10,8,9,0,-7,-9,-16
1693678172435928000,7,3,1,3,13,20,3,13
1693678172436927500,-15,-1,1,-5,-22,-14,2,6
1693678172455121100,-2,-10,-2,9,12,-12,-13,-4
1693678172457142300,-3,11,-1,-14,-21,-15,6,-2
1693678172458122700,7,-15,-11,-5,8,2,-5,-9
1693678172459121800,-4,13,12,13,1,-9,4,12
1693678172477108900,-2,5,-1,-3,-4,-13,8,-5
1693678172480129400,42,10,3,-9,-16,-16,-45,-7
1693678172481107700,-39,0,3,3,11,27,14,11
1693678172482127900,5,3,1,-8,-6,-7,-13,8
1693678172499703400,-19,-9,2,16,19,10,-10,0
1693678172501524400,25,28,23,-5,-40,-25,6,-1
1693678172506517700,16,-13,-11,-8,-5,-10,-1,2
1693678172507517700,-7,-7,-6,-3,3,14,3,3
1693678172514513200,2,6,3,-4,-8,14,6,5
1693678172516513300,-20,-17,-16,1,29,-2,-2,-9
1693678172518511500,13,2,2,2,-5,-9,-10,-3
1693678172520510300,-1,-5,5,8,-3,-5,2,-3
1693678172537502700,-13,3,-4,-10,-13,25,4,-26
1693678172539499500,-3,-11,-9,-6,-7,-73,1,35
1693678172541501100,2,-3,-8,-11,-7,25,-4,-1
1693678172542501400,-2,-7,-4,-3,1,8,4,-4
1693678172560505400,4,25,11,4,-3,-2,1,-8
1693678172562511400,-22,-13,-6,-1,1,2,11,-4
1693678172563510800,110,21,3,5,1,15,0,32
1693678172564527000,-96,-15,-2,4,20,69,30,-40
1693678172582499200,0,-14,-9,-21,-31,-84,-16,15
1693678172584498500,-69,-1,3,9,-1,-62,-2,-81
1693678172585498200,-1,-3,-8,-10,-8,7,-14,96
1693678172586497500,25,-9,-4,-16,-2,-1,10,-9
1693678172615480800,42,26,17,33,33,127,67,22
1693678172616480400,-10,15,1,1,-7,-67,-36,-21
1693678172619479700,-66,-41,-18,-15,-25,16,-14,-68
1693678172621479000,28,17,-2,0,-1,-10,-58,19
1693678172636351900,-23,-18,-18,-12,-1,6,-4,-17
1693678172638348400,31,13,18,13,13,47,26,17
1693678172640346300,6,11,12,11,8,30,22,-19
1693678172642368400,65,-1,-8,-14,-16,-68,-9,2
1693678172643362100,-91,-29,-39,-15,18,-19,31,12
1693678172643362100,45,13,14,17,-3,12,-45,-6
1693678172650503100,-105,-21,-18,-6,-2,-51,-7,-14
1693678172652508800,5,-6,18,4,-15,4,10,11
1693678172664835300,40,15,9,36,3,-30,-19,2
1693678172666837600,-22,1,12,-1,-17,127,16,9
1693678172667854500,10,-11,-53,-40,32,-49,-10,-29
1693678172668859300,24,25,47,8,-38,-13,-5,13
1693678172671834900,-27,-2,16,-4,-11,40,21,-3
1693678172672855100,28,-18,-11,10,13,8,-43,16
1693678172680387900,50,-11,-35,-23,32,-74,19,-7
1693678172681409100,-61,2,-50,-23,22,95,2,-15
1693678172702399400,24,3,7,2,-4,-22,-23,8
1693678172704403100,-21,5,70,24,-22,43,33,6
1693678172705405100,-9,17,65,101,-59,-18,9,9
1693678172706403700,31,2,-5,-38,11,-45,-27,-1
1693678172708550700,-10,-10,-42,1,-17,-90,-24,-15
1693678172709574700,-12,-1,-31,-76,31,23,28,3
1693678172718008300,26,-16,-89,17,18,19,-1,6
1693678172719008900,-20,38,114,102,-41,42,24,-5
1693678172732426400,18,-12,-49,-38,1,-90,-51,2
1693678172734430500,7,-8,-59,-55,27,101,13,1
1693678172735431300,-7,-1,13,-55,-7,32,-8,-20
1693678172737430700,-1,-18,-27,-29,-4,-35,-1,10
1693678172755418500,19,5,16,7,7,92,12,11
1693678172757440400,5,-2,-1,31,-6,-88,19,0
1693678172758418700,9,6,-35,-94,3,104,-47,20
1693678172759417500,-47,-6,36,79,36,66,34,-32
1693678172768433600,-15,4,41,-22,-65,-80,-46,-18
1693678172770458800,-9,-6,0,75,16,36,0,9
1693678172777454500,-5,-15,-46,2,103,-54,25,-5
1693678172779430800,10,10,7,39,-40,-61,-19,5
1693678172792424700,34,21,76,-41,27,70,47,41
1693678172794424600,10,5,39,62,-26,93,-24,-23
1693678172795423300,21,13,10,-74,80,-48,25,21
1693678172796444100,36,-9,-73,48,-81,20,64,-2
1693678172815411200,-5,-30,-102,-55,6,-36,-82,-27
1693678172816412300,-49,-29,-54,97,26,52,54,14
1693678172818411900,-13,42,123,-58,8,104,-18,15
1693678172819410500,4,-45,-104,-128,6,-93,-36,-13
1693678172829403500,84,28,38,105,-55,2,49,27
1693678172830404700,-37,-2,-50,-85,-48,47,-98,-41
1693678172837401000,-56,-9,-47,-12,-23,-88,-39,-50
1693678172839419500,-41,-27,22,-84,35,-28,-3,22
1693678172852390900,23,26,53,-9,27,-109,37,-37
1693678172854391600,2,-34,-61,44,43,-107,38,8
1693678172855411100,-2,-7,85,109,-66,-18,-37,-18
1693678172857409600,2,7,-22,-52,26,-39,-43,-6
1693678172875377300,10,21,9,-60,47,127,47,35
1693678172876397800,-20,-8,13,-89,-45,-128,4,-32
1693678172877397300,11,3,-34,23,1,119,-24,-3
1693678172879396300,41,-45,-16,16,23,11,23,10
1693678172888382400,-75,-17,-25,45,-26,71,-32,-24
1693678172890387400,5,9,8,-15,6,16,25,9
1693678172897368200,13,-9,-6,-14,-60,-107,-36,-19
1693678172899380900,-14,6,15,25,-2,10,35,-8
1693678172912355600,-4,-30,-52,-37,3,-10,-86,-29
1693678172914354100,26,27,31,-28,11,25,103,6
1693678172918414000,-24,-28,4,31,-32,16,52,11
1693678172920352800,57,23,6,1,27,-34,-4,24
1693678172935346100,-56,-8,-1,19,7,33,73,-22
1693678172936363800,21,10,-3,-15,-14,-33,-44,9
1693678172937363800,12,-2,-19,-64,0,22,-20,15
1693678172939339800,-28,14,14,94,-5,40,20,1
1693678172948334900,1,-9,-2,-19,-11,-35,-19,1
1693678172950333100,57,2,3,-9,2,67,92,16
1693678172957335300,-62,-14,-47,-59,-17,-59,-19,-22
1693678172959345600,-7,21,42,34,-3,17,-128,-5
1693678172980359700,7,9,12,17,10,54,100,29
1693678172981358800,-13,-16,-3,-12,13,32,-115,16
1693678172982358000,24,8,5,24,-2,-21,7,-1
1693678172983357200,31,10,-13,-14,17,49,90,0
1693678172995524900,-44,-4,7,10,-15,-50,-98,-28
1693678172996524500,-25,-7,5,-17,-7,3,85,27
1693678172997524000,-10,-4,9,16,-22,17,91,-7
1693678172998523000,-26,15,-5,-16,1,-9,-56,13
1693678173008554700,39,-1,-11,-4,7,43,23,30
1693678173010566400,82,11,0,-12,7,-42,6,2
1693678173017565100,-55,-5,14,31,-9,18,-60,1
1693678173018572000,-6,-9,-7,-10,5,10,68,12
1693678173031542200,-7,1,-7,-5,-2,47,18,-35
1693678173033541600,-43,-14,-8,-8,-4,-102,-128,-33
1693678173038549000,63,43,35,43,8,47,127,27
1693678173039538100,-87,-36,-20,-24,-10,-39,-42,13
1693678173054531900,32,5,3,-2,4,11,-57,1
1693678173056527800,75,25,15,6,3,48,79,12
1693678173058527100,-81,-24,-4,13,7,14,-75,3
1693678173059529700,127,23,-18,-31,-22,-61,45,-12
1693678173068521100,-97,-35,-8,-5,-5,38,-85,-95
1693678173070520200,39,38,14,11,-1,-80,57,10
1693678173077518300,-71,-1,19,23,13,81,124,64
1693678173079519000,2,-18,-2,-16,-8,-44,-84,112
1693678173091294000,-7,-64,-13,-8,-7,1,27,-69
1693678173093294700,60,57,-3,-22,-11,9,-26,17
1693678173106286500,-10,-31,-3,5,-5,2,-16,47
1693678173108282000,40,67,11,14,18,94,81,-38
1693678173115279000,1,-43,1,5,11,-6,-26,-36
1693678173117277600,-109,-29,-16,-10,-3,21,-5,107
1693678173119276300,123,44,8,34,15,-6,-9,75
1693678173120274900,-16,-41,3,-19,1,5,-32,-77
1693678173137267600,106,40,-8,0,1,-26,-26,73
1693678173139264500,94,14,11,8,-6,-37,26,-128
1693678173140286300,45,8,-7,-2,-7,-14,2,27
1693678173141285800,-3,12,7,2,11,32,-7,-128
1693678173151513300,-9,-14,2,6,3,-8,35,118
1693678173153511600,11,-44,-11,-20,-17,-15,-45,-98
1693678173159937700,-58,-23,7,15,10,4,-61,-128
1693678173160967400,53,27,-21,-24,-29,-28,6,127
1693678173182732900,-17,50,11,2,3,10,53,-116
1693678173184733400,-29,1,8,12,0,2,7,-41
1693678173185752600,-21,-22,-10,-16,-3,-16,1,-37
1693678173186751900,-49,-46,-5,4,7,12,-41,-11
1693678173198313200,-37,-3,-8,11,7,-17,20,99
1693678173199309600,-34,12,9,18,13,49,77,95
1693678173204304000,50,17,17,21,6,-2,11,-31
1693678173205302300,-33,-3,11,4,-2,-3,-29,65
1693678173211575600,43,21,-1,-5,-5,-31,49,-23
1693678173213574000,5,-4,7,-7,-20,-27,-77,125
1693678173219906700,10,9,2,-4,4,16,38,12
1693678173221883700,-6,2,-10,-4,-3,-37,-15,-14
1693678173234549700,-38,-9,-3,-8,-8,5,-17,26
1693678173236544300,-44,-25,-10,2,15,12,-21,-10
1693678173237544400,-11,-14,-17,-23,-20,-26,-45,-25
1693678173238543500,-35,8,11,4,-3,19,11,-96
1693678173258003600,22,12,-2,-5,-12,-50,36,-28
1693678173260002100,25,-13,-1,0,9,34,-2,-81
1693678173261003700,90,12,-3,5,17,35,-9,37
1693678173262010900,-17,-11,-4,1,1,25,62,-61
1693678173271509100,0,-2,1,-8,-22,-73,-74,-59
1693678173272507800,-29,-22,-13,-10,-7,43,-36,48
1693678173286279600,-4,2,2,4,3,-6,18,-25
1693678173288284900,-15,-18,-10,7,26,38,21,-8
1693678173310504800,20,44,38,21,0,10,24,-16
1693678173312512600,-21,-3,-10,-21,-24,-25,-1,-20
1693678173313511400,-17,-1,-4,-12,-19,-40,-34,-10
1693678173314525300,-38,-11,-7,6,13,38,14,-25
1693678173317506600,11,-13,-15,-1,9,9,-10,49
1693678173319506500,-19,5,13,26,39,24,4,-38
1693678173320507000,3,20,20,11,2,29,-39,-69
1693678173321506200,6,-7,-2,20,41,25,6,20
1693678173331708000,16,27,24,11,-12,7,29,8
1693678173333697700,-13,-4,-4,-8,-9,-8,-30,0
1693678173339697900,-18,-20,-15,-6,-7,-11,22,9
1693678173341697500,9,11,7,1,-10,-13,1,10
1693678173354928400,-25,-22,-21,-8,-1,-11,-11,-3
1693678173356932400,-3,17,20,17,8,14,33,-6
1693678173357953600,12,11,4,-2,-30,-45,1,13
1693678173358933300,-3,8,1,-22,-31,-28,-8,-9
1693678173377282600,4,-13,-18,-8,22,24,19,13
1693678173379269100,-16,-7,-10,-23,-52,-51,-6,7
1693678173381267600,-12,-22,-24,-21,1,1,-8,-24
1693678173382266800,11,14,18,24,7,3,-4,21
1693678173391878900,12,36,28,12,12,41,21,24
1693678173393878700,-1,4,11,8,11,-4,-2,-7
1693678173399958400,1,3,8,21,59,62,12,10
1693678173401963100,17,45,29,8,-18,6,25,16
1693678173414513800,-11,-34,-25,-22,7,12,-12,3
1693678173416510700,-17,-14,-19,-18,-9,-24,-12,-19
1693678173421511000,10,22,22,-2,-26,-24,15,11
1693678173422508500,-5,-24,-19,-4,32,20,-15,1
1693678173445255300,9,21,12,8,-15,-2,14,3
1693678173447253100,3,-3,-13,-35,26,34,5,11
1693678173449251400,1,-12,-7,13,7,-14,-10,-9
1693678173451250400,-11,-15,10,5,-32,5,33,-3
1693678173452253000,-5,-14,-14,-6,23,-9,-25,-4
1693678173453252100,-10,2,14,5,-14,7,-1,-8
1693678173460245200,-1,3,-24,27,54,4,-6,2
1693678173462243900,1,-2,44,8,-85,-23,-3,0
1693678173475235500,1,-5,-25,-27,23,12,8,2
1693678173477236000,6,16,2,-24,-5,-1,-1,3
1693678173480255600,-5,-5,2,16,-17,0,1,-7
1693678173481235900,1,-11,-35,11,62,-6,-4,4
1693678173497377200,8,15,47,52,-13,-4,2,7
1693678173499380100,-7,-15,-60,-93,5,20,-2,-6
1693678173500380000,-14,-11,20,0,-37,-3,-1,1
1693678173501379700,-5,-8,-34,-13,47,27,-6,-7
1693678173511512900,3,6,49,6,-42,10,-10,4
1693678173513512700,10,7,7,47,16,8,16,4
1693678173520289800,-10,-11,-54,-81,17,-7,-4,-4
1693678173521303600,-8,2,45,55,-65,-2,-8,0
1693678173542440400,-8,-22,-44,-36,30,-13,-8,-10
1693678173545432000,5,12,40,75,-6,24,-2,-1
1693678173546453300,0,1,-13,-23,-12,-50,-6,-2
1693678173547433700,4,-5,-9,-24,15,8,-8,2
1693678173557464700,-2,1,-18,-22,11,-6,6,-3
1693678173559490700,1,-7,2,-1,-1,-19,4,2
1693678173563526700,-19,-15,-2,17,0,11,1,0
1693678173565465500,8,-4,-31,-82,8,-14,-15,-7
1693678173571571900,0,6,14,62,-30,-12,5,6
1693678173572571000,-4,-19,-27,-34,4,0,-1,6
1693678173597296500,10,27,12,19,32,6,3,-5
1693678173599296300,-8,-23,18,72,-59,-18,-1,-3
1693678173600295700,-12,-14,-16,-20,6,9,-8,-3
1693678173601317300,44,34,40,-9,-20,3,9,12
1693678173608396700,-34,-30,-15,7,-14,-1,5,-15
1693678173610422500,5,12,-14,-19,11,-8,11,9
1693678173617423600,-9,-7,-15,-1,7,-2,-33,1
1693678173619359200,7,-6,-6,-3,8,-7,1,-14
1693678173620358500,-27,-5,8,-23,-16,-11,-41,-6
1693678173621357000,17,14,-3,3,16,20,11,-4
1693678173639923900,-18,1,8,3,-19,-2,6,-16
1693678173641923000,-22,-6,-8,7,21,0,-2,28
1693678173642921900,27,0,4,-5,-34,-12,11,3
1693678173643921500,-7,14,-9,2,15,1,43,-8
1693678173670504100,38,13,4,-13,11,-11,-79,16
1693678173672508500,-44,-28,-7,23,-3,-6,0,-12
1693678173673530800,13,3,7,6,-6,-2,7,12
1693678173674530500,67,28,10,-11,8,2,8,-6
1693678173677403700,-29,-18,-19,-9,-9,0,28,-5
1693678173679416900,30,-10,5,22,6,-1,-62,-34
1693678173680409500,-31,6,7,2,-3,-3,6,68
1693678173681408100,-9,-1,-7,-15,17,5,-14,8
1693678173691515700,-12,-3,9,9,-4,6,40,-10
1693678173693533800,2,6,-1,15,-2,-3,-7,3
1693678173700965800,1,-11,-9,-25,-12,4,43,-34
1693678173701983800,-97,29,26,29,18,-13,-91,0
1693678173715524200,97,18,-9,-3,-2,19,-12,69
1693678173717524300,90,-7,-8,-2,-2,-16,43,-100
1693678173721521100,-61,39,22,5,0,-24,-64,115
1693678173723542100,-97,-56,-16,-13,0,24,21,0
1693678173745655300,-36,-22,-1,2,-3,-14,88,-23
1693678173747653100,16,5,-13,-11,-7,-10,-57,23
1693678173749651900,47,16,8,1,0,8,-87,-2
1693678173750653000,49,-11,-6,-5,-3,-5,-6,-63
1693678173751650500,-122,-23,-2,-6,2,23,60,-29
1693678173752652800,27,17,16,21,8,17,69,8
1693678173759610600,94,24,7,5,4,-21,-3,-43
1693678173761629500,-20,-22,-13,-11,-2,-3,4,63
1693678173776302100,39,6,-2,-7,0,4,14,-20
1693678173777307900,-52,-24,-16,-21,6,19,50,35
1693678173779329100,-57,-11,4,33,-7,9,19,-25
1693678173780308300,73,-1,-5,-10,-8,-12,-7,10
1693678173798234500,81,28,15,24,13,1,-69,-8
1693678173799234300,-3,-3,-8,-18,-1,9,35,47
1693678173800232700,-19,-5,-17,-18,30,24,52,-37
1693678173801231800,24,-3,-23,-18,-22,-5,-31,-18
1693678173811230700,-32,17,52,29,-39,-20,-14,26
1693678173813226900,-77,-24,21,60,-3,-2,18,-4
1693678173820256900,-29,-7,-3,-20,-18,-21,69,-8
1693678173821256900,-72,-2,-43,0,25,7,-76,-31
1693678173834875200,30,-16,-6,-8,3,-20,-62,11
1693678173836879600,6,16,-4,23,31,26,83,28
1693678173837877900,58,-29,-76,-100,-15,22,-88,-42
1693678173839880000,-93,7,75,108,13,17,80,6
1693678173865129600,51,-8,-80,-110,27,-37,-65,-17
1693678173867126400,-122,-15,-25,-69,-38,-16,-97,-31
1693678173868125500,52,20,48,64,-50,-78,69,16
1693678173869147700,50,-22,-62,-59,26,-19,30,28
1693678173871123300,-41,3,49,5,-3,92,87,2
1693678173872122000,21,8,-8,12,6,27,-31,-14
1693678173887579500,8,-1,-45,-57,30,7,-47,-17
1693678173888548000,-13,16,34,78,-14,2,-16,27
1693678173894550000,-14,-2,64,5,-2,-38,93,6
1693678173896553400,13,-4,-32,16,-7,-33,-117,2
1693678173901571600,-32,-3,-9,-44,8,49,55,-13
1693678173902573500,53,-4,8,23,28,47,75,20
1693678173917380500,-9,4,-18,-22,-14,-23,-69,-25
1693678173919376900,-4,5,23,-16,-17,6,-5,5
1693678173920379500,-1,-5,-6,20,18,39,31,1
1693678173922378300,25,0,20,-40,-36,-35,17,-5
1693678173940380600,-15,-11,-45,-45,8,-43,-12,4
1693678173941398200,20,15,21,73,6,-8,60,-1
1693678173942396100,5,-17,6,22,-2,23,-55,-1
1693678173943400500,11,21,16,-23,-45,-86,-43,-8
1693678173954570100,-2,5,-22,-9,6,48,71,14
1693678173955590100,11,-11,-1,-13,15,20,-26,-3
1693678173961035600,-5,6,27,66,-6,-57,32,12
1693678173963003900,17,-3,2,-8,41,33,41,-1
1693678173994569600,4,-10,-32,-23,-23,3,-94,-13
1693678173996568200,13,9,3,1,-5,18,-3,11
1693678173997567000,5,6,-16,-30,17,20,-39,4
1693678173998565800,13,-3,-7,-46,-11,-82,-13,-2
1693678174000565900,-14,-5,10,68,2,54,3,1
1693678174001587700,10,-17,-20,-54,16,-6,-8,0
1693678174002584400,4,10,33,26,6,41,0,7
1693678174003585400,-30,-17,-11,-11,-26,77,7,-28
1693678174014392400,3,9,0,11,0,-5,52,12
1693678174016387200,-16,-14,-16,-27,-63,-75,-8,-24
1693678174021573200,10,2,8,-25,-22,2,105,42
1693678174022573100,-3,3,24,-1,-5,-12,-105,-38
1693678174037416600,24,9,-15,-1,21,10,-6,-6
1693678174039391200,-17,3,11,2,20,36,-5,-6
1693678174041391200,-10,-12,-10,-11,-62,-80,113,36
1693678174042389700,18,-1,-43,-37,-10,14,4,-15
1693678174060504600,-20,-2,27,35,21,48,-3,3
1693678174062508900,68,27,20,5,20,13,-51,21
1693678174063511300,-110,-22,7,19,29,64,-36,-23
1693678174065509500,20,-2,-29,-31,-13,-68,-67,-23
1693678174074578900,11,2,47,27,-13,-49,72,14
1693678174075575900,-13,-7,-10,3,2,-16,53,15
1693678174081570800,38,14,12,11,1,-4,40,-15
1693678174082577800,4,-2,-10,-5,12,44,-35,17
1693678174097185200,8,6,-11,-4,-1,-13,23,2
1693678174099188400,-24,2,0,-10,-3,-6,30,-3
1693678174100211000,18,-11,1,2,14,39,-35,-34
1693678174101209400,0,8,6,-1,6,1,64,33
1693678174119939700,-8,-6,-15,-8,-11,-45,-10,-41
1693678174121966300,-22,-3,14,12,-3,-4,-15,35
1693678174122965800,10,0,-5,-1,-1,-5,33,-17
1693678174123965000,-1,4,-4,-1,-3,-9,-29,20
1693678174134549000,12,2,-7,1,-2,16,4,21
1693678174135567500,31,10,4,6,14,5,1,-33
1693678174141576800,19,-8,-2,-2,0,-10,-50,-1
1693678174142598200,-54,-14,1,1,4,40,121,18
1693678174157418100,69,-6,-17,-16,-16,-25,-46,-9
1693678174159381500,-98,-18,-7,-6,-13,-43,23,-28
1693678174160381100,63,4,8,6,3,9,30,19
1693678174162379700,2,8,3,-1,-9,4,-56,-11
1693678174180471100,-20,2,-5,9,14,12,-69,18
1693678174182471100,29,-14,-11,-17,-3,23,23,-8
1693678174183491300,-32,9,13,12,-6,-34,-41,-14
1693678174184467900,53,3,3,8,9,24,37,0
1693678174193422100,-122,-21,-11,-4,-11,-17,-10,-16
1693678174195360800,74,8,2,0,1,12,-1,-2
1693678174202964400,-43,-6,-6,-4,7,11,-7,31
1693678174203964100,-12,-1,0,6,7,-2,14,-4
1693678174218005000,2,10,7,3,-8,-32,-1,11
1693678174219004500,7,-2,0,2,5,16,26,6
1693678174220006000,40,3,-2,1,2,0,-34,-15
1693678174221007900,-32,-9,-2,0,-4,-14,12,-9
1693678174240504400,2,0,-5,-1,20,44,13,0
1693678174241509700,-40,-4,0,3,-6,-7,-26,-60
1693678174243509300,-32,1,3,1,4,-1,-3,34
1693678174245508000,68,15,3,0,-4,7,-3,45
1693678174262126500,-23,-11,-3,11,14,17,13,-58
1693678174264144700,24,16,4,-9,-9,-7,9,17
1693678174268554800,-43,-13,-5,5,2,12,-8,-15
1693678174270576600,-10,-1,-1,-7,-11,-3,9,36
1693678174277986900,27,-6,-7,1,0,-6,6,21
1693678174279984900,-33,-8,-3,2,6,5,4,-20
1693678174280985000,19,4,2,5,5,-5,-11,-6
1693678174281984500,-13,-6,-4,-7,-6,6,0,-3
1693678174300504200,18,9,4,-17,-35,-26,13,-19
1693678174301514700,-9,2,-1,-2,-2,4,10,19
1693678174302534900,-2,-1,-5,-5,-2,-13,-30,0
1693678174303533300,10,2,4,9,9,9,5,-26
1693678174313575900,-22,-8,-2,-3,0,9,26,13
1693678174314595800,-6,-4,-2,4,7,11,-73,1
1693678174330208200,6,7,2,-4,-5,6,6,8
1693678174331228700,-3,-1,1,-3,1,-8,35,-31
1693678174336379500,2,-6,-8,-7,-3,-30,-24,29
1693678174338312900,-3,5,6,-2,5,5,38,31
1693678174345475800,14,3,4,2,8,13,-12,-25
1693678174346495500,-11,1,-3,-4,-2,3,0,-53
1693678174367332300,26,4,4,4,4,6,-17,37
1693678174369332200,-15,-9,-9,-8,-3,-4,17,10
1693678174370330800,29,17,10,2,-3,-9,-4,-1
1693678174371330200,-24,-21,-8,9,13,-7,-7,-9
1693678174373475000,-19,6,4,-1,4,14,2,-17
1693678174375435000,-10,-4,-4,1,-1,-10,1,3
1693678174382530300,-17,-2,-4,-7,-7,-15,-12,-23
1693678174383529100,20,12,6,-2,-21,-13,-6,11
1693678174397104200,3,-2,3,2,3,5,-5,-13
1693678174399101500,10,7,8,6,7,-7,1,12
1693678174400123900,13,-5,-4,6,14,16,12,8
1693678174401122400,-4,8,6,0,-5,-9,-17,2
1693678174420508400,-11,-8,-12,-11,-4,2,8,-1
1693678174421515200,32,11,3,3,11,8,0,-11
1693678174422529900,-51,-19,-7,-8,-20,-17,-2,0
1693678174424512200,8,-5,-1,9,16,1,10,11
1693678174442753700,17,-8,-6,4,3,-21,-40,-11
1693678174445752600,-31,2,6,3,-8,-9,10,-5
1693678174446752800,10,7,7,11,15,5,-2,-1
1693678174447753800,54,14,1,-10,-20,-3,3,10
1693678174458008500,-26,-24,-14,11,26,6,7,-1
1693678174459007500,-43,-11,9,5,12,12,-2,-13
1693678174461006300,15,3,8,3,-13,-1,12,9
1693678174462005100,-48,-18,-9,-1,17,10,-3,-3
1693678174479677200,49,8,1,-5,-8,-18,3,-6
1693678174481527400,-13,-41,-53,-53,-38,3,-14,9
1693678174493396100,13,28,23,31,18,18,7,-3
1693678174495392100,11,-12,0,-2,0,-22,-12,11
1693678174502386800,-24,24,21,1,-15,21,8,-3
1693678174504386400,-10,-14,-17,7,11,-12,4,-1
1693678174505385800,1,-26,-27,-28,-24,-54,-17,-17
1693678174506387900,13,28,2,-2,12,66,23,26
1693678174517381000,2,1,19,2,34,23,4,-8
1693678174519378000,62,28,9,-10,-55,-44,6,15
1693678174521399000,-13,-22,-4,22,45,46,5,9
1693678174522377600,-83,-6,-15,-17,11,-19,-17,-21
1693678174540508800,-80,-32,-23,5,5,5,6,-2
1693678174541515100,88,53,93,-13,-64,-9,5,4
1693678174542534700,29,17,-5,-16,14,-13,-6,-8
1693678174543510900,78,1,-36,-25,-4,15,-11,-12
1693678174553572900,60,-16,-22,-22,-65,-36,-1,12
1693678174555570500,-110,-20,24,44,23,10,-32,-7
1693678174562130200,33,2,6,-11,-44,22,3,1
1693678174564144900,-38,10,39,-26,-52,13,43,13
1693678174578419700,127,9,-40,12,21,-37,-75,-15
1693678174579418500,2,10,-30,-57,44,43,19,3
1693678174581417200,-97,3,16,51,-47,-66,5,7
1693678174581417200,3,-18,-51,-15,58,0,-22,9
1693678174599682000,-2,12,51,-26,-55,-6,8,-11
1693678174601680700,-30,-21,-98,19,113,-34,-29,-2
1693678174605680800,20,11,65,-65,-65,-36,20,45
1693678174608679900,26,11,12,66,40,-17,-37,-23
1693678174623480800,-89,8,20,-59,-37,2,51,21
1693678174625488200,25,4,-23,84,78,113,-36,-25
1693678174626487300,22,-13,-33,66,81,13,19,-13
1693678174627487200,24,-4,-22,-59,72,73,16,15
1693678174645386300,-86,18,74,68,-75,-66,2,-21
1693678174648403800,24,-11,-67,-85,24,83,20,5
1693678174649382100,29,12,55,108,29,-30,-18,-3
1693678174650406300,-24,-21,-65,-109,52,71,-6,-7
1693678174658975200,43,-2,32,127,27,-38,-57,-6
1693678174660981800,-47,10,45,-128,-87,-98,29,10
1693678174667417300,-32,-18,-21,35,-52,2,8,-31
1693678174668416800,14,17,31,-65,-122,-1,12,4
1693678174673488400,9,-12,-69,-103,96,23,-27,1
1693678174675431100,0,-3,50,127,-8,-2,-13,-10
1693678174682451600,15,-19,-65,-128,15,29,5,2
1693678174683483000,63,6,14,16,3,-23,68,4
1693678174704569200,-75,-15,-67,-128,109,13,19,15
1693678174706566500,19,36,79,39,-69,-23,51,10
1693678174709565400,-47,0,12,-21,-79,8,-58,7
1693678174710587000,10,-16,18,-8,-46,86,21,5
1693678174720506100,-7,1,2,-75,-21,-15,70,-3
1693678174722511200,27,-16,8,15,-62,-26,-88,-31
1693678174723508700,22,28,-18,-11,62,-28,26,0
1693678174724530000,13,5,-29,-30,77,69,-69,12
1693678174733450300,-35,21,23,8,-18,127,118,-12
1693678174735396900,-40,-35,-32,-113,-30,-128,76,40
1693678174742482900,45,9,-1,-83,3,127,-5,1
1693678174745481000,-36,-24,13,92,-31,-128,-65,-28
1693678174757374200,15,12,-5,-30,-2,35,-65,11
1693678174759376900,49,14,16,40,27,127,119,10
1693678174760376200,-96,-23,-26,-50,-4,-92,-86,-25
1693678174762379900,3,10,-4,18,35,55,17,15
1693678174787408900,32,-7,-8,39,11,-40,67,4
1693678174789427700,-13,-5,9,-13,1,59,-119,-22
1693678174794457000,-5,-20,-32,17,13,-21,-77,-7
1693678174796458200,-41,8,24,29,-27,-33,96,-16
1693678174797458000,6,-17,-16,18,-2,-46,-70,-12
1693678174798453700,20,-1,-26,-32,41,73,37,17
1693678174802548600,68,25,2,32,36,39,109,-13
1693678174803546100,-78,-18,18,-39,-36,-73,-112,21
1693678174816526900,10,-7,6,77,6,40,-10,8
1693678174818506800,11,12,-8,-2,27,2,48,3
1693678174824502300,47,-10,4,2,-4,26,-21,5
1693678174826521700,-23,11,28,36,-17,-19,27,2
1693678174839964200,31,6,1,-4,-4,25,106,26
1693678174841973600,-4,-12,-15,-24,-1,-128,-128,-45
1693678174842974000,-4,-1,11,4,24,47,127,16
1693678174843971200,-1,2,-9,18,-1,42,61,-5
1693678174853952300,-1,-11,1,3,-5,-19,-94,-11
1693678174854950700,-28,0,3,8,-1,-18,8,-1
1693678174862583600,-17,-6,-12,-25,8,10,-29,10
1693678174863582700,20,1,-3,12,6,28,46,-4
1693678174884877300,-24,12,12,12,-8,12,127,21
1693678174886882400,44,2,-5,-3,-10,-6,19,13
1693678174887880300,-91,-15,-14,-28,4,-27,-117,-29
1693678174888882400,110,10,11,9,-11,-18,-8,2
1693678174900317100,-30,8,7,31,-7,13,12,4
1693678174902252900,33,-9,-16,-16,-2,2,58,22
1693678174903252500,10,-7,-2,8,-14,-43,127,19
1693678174905254400,-69,-20,-8,-21,-15,-62,-106,-84
1693678174913586800,23,13,-2,-17,17,48,14,42
1693678174914572900,66,21,9,7,15,11,-70,16
1693678174922964400,-85,-24,-13,6,-5,29,52,-15
1693678174923964600,4,4,5,5,-5,17,38,-36
1693678174937040100,115,-8,-7,-1,-4,-18,-94,4
1693678174939035400,-120,-22,-3,12,21,23,-27,-48
1693678174944102300,127,35,13,26,-4,3,61,87
1693678174946032200,-11,-10,-11,-9,-4,-10,82,44
1693678174960398100,-74,-4,-4,-7,-10,-87,-24,-74
1693678174962418400,102,13,3,-1,25,45,32,42
1693678174963417000,-33,-1,5,14,-6,-33,11,-35
1693678174964415900,-62,-7,0,-2,1,-13,67,-15
1693678174982349300,103,14,4,-3,-3,6,-36,84
1693678174985354400,-26,-10,3,11,7,-6,-27,-45
1693678174986374000,11,24,4,5,-8,12,-11,20
1693678174986374000,38,-3,-5,10,12,-28,-29,-17
1693678175005005400,-66,3,2,-4,-26,-18,35,-84
1693678175008004500,70,15,2,-7,-13,12,106,19
1693678175009005800,-52,-13,4,12,-1,15,-40,18
1693678175010004500,-25,-1,5,12,16,-15,54,80
1693678175019626400,34,-7,-5,-14,1,28,-5,-45
1693678175021511200,-38,7,1,0,-8,12,84,-9
1693678175026346500,110,1,-7,-4,13,8,34,-10
1693678175028350600,-67,1,6,8,-4,6,-69,-1
1693678175057769400,-22,0,7,25,31,50,11,-1
1693678175059773300,-28,2,-1,-26,-25,-56,-6,-1
1693678175060772000,-1,5,11,19,12,0,21,-17
1693678175062793600,0,-10,-10,-13,-13,-13,-128,-23
1693678175071981200,-31,5,-2,6,15,18,41,17
1693678175073901600,-67,-16,-6,2,15,-3,14,-5
1693678175080300600,-8,17,16,-5,-13,-12,-101,-17
1693678175082280600,50,-2,-6,-7,-7,21,103,31
1693678175103553600,-111,-24,-17,-19,-12,-15,-50,-46
1693678175105531600,20,-11,-4,-6,-11,-8,-44,29
1693678175106528400,6,2,4,-3,1,-4,-42,-20
1693678175107527700,41,12,9,3,-4,18,41,3
1693678175108527000,-24,-14,-27,-36,-21,-38,-18,-16
1693678175110526700,-64,-11,-5,41,36,7,-16,-28
1693678175111525600,-23,-12,-2,-37,-38,-2,24,28
1693678175112527600,1,24,7,10,11,6,-43,-54
1693678175125300100,18,-4,11,11,-4,22,27,64
1693678175127304200,28,1,-19,-13,-5,-27,-44,-13
1693678175131301600,6,12,-6,40,50,13,7,-41
1693678175132331300,70,7,23,-14,-41,2,-8,34
1693678175140504300,-79,8,3,8,24,31,3,18
1693678175141509200,-100,-60,-13,-11,-12,-16,123,44
1693678175142530400,56,-8,-29,-2,8,-11,-63,-28
1693678175143531600,20,9,14,-1,-2,-14,-27,1
1693678175162497600,60,10,5,-4,-13,-6,34,1
1693678175164500400,35,26,8,-3,-27,-1,-42,-3
1693678175165517900,-43,-19,-15,-41,-32,-4,44,2
1693678175166494300,-35,-23,-39,-1,69,20,-30,-14
1693678175176531800,42,34,56,-6,-66,-3,71,15
1693678175177528000,-16,-14,-28,-67,-15,-44,-12,-21
1693678175185520400,3,1,-8,-58,-8,13,17,17
1693678175186520600,-28,-1,70,61,-23,-19,-8,-3
1693678175200129000,20,-10,-24,30,64,13,8,-2
1693678175202130800,62,40,27,-5,-24,16,32,16
1693678175203129300,-57,-1,-7,-2,-8,6,13,2
1693678175204128400,-32,-37,-55,-59,14,-30,-87,-20
1693678175230504500,3,-14,-8,-22,18,-26,-16,-10
1693678175231512200,-17,-5,-2,62,-29,-10,11,-26
1693678175232532700,-9,-11,-13,73,98,26,-59,1
1693678175233531800,-7,-3,-54,-37,11,20,66,0
1693678175236518400,14,7,99,93,23,-26,-65,-2
1693678175237536000,2,8,-54,-46,44,8,-19,5
1693678175262571700,21,9,8,21,92,59,83,9
1693678175263592900,-8,21,52,-95,-104,-19,-2,0
1693678175264592600,31,-11,-53,6,-10,-34,-54,7
1693678175265592100,25,13,58,110,64,50,86,14
1693678175273609800,-69,-9,-53,-94,-53,-75,-56,-36
1693678175275610400,9,-12,15,103,14,26,-9,24
1693678175282398700,19,-10,11,52,-16,0,44,-13
1693678175284404700,-49,-10,-13,-103,42,-17,-59,-17
1693678175285424700,6,4,9,90,-18,74,-15,17
1693678175287422800,25,9,-14,24,90,-12,86,10
1693678175296395300,-9,-6,-12,-89,-51,-14,-45,0
1693678175297393800,-3,-28,-74,-100,63,-3,7,6
1693678175311521500,22,42,93,17,-68,57,57,-14
1693678175312521200,-6,11,-1,-67,-78,-39,-76,10
1693678175318952000,-12,-10,-14,-4,76,32,-11,-8
1693678175320962400,20,-5,11,-61,-30,-66,5,7
1693678175327416900,-11,4,-5,-71,-43,28,-20,-9
1693678175329414700,13,1,-14,28,17,69,68,11
1693678175343363600,18,-2,-75,-128,65,61,61,-7
1693678175344363400,-56,13,76,74,-43,-23,-128,-33
1693678175348478000,53,-28,-16,-65,39,-55,92,51
1693678175350402100,-69,-49,-27,-77,19,9,-25,-49
1693678175356344400,9,19,-27,-64,-2,-34,14,-2
1693678175358351000,4,8,-29,10,42,61,30,0
1693678175371577800,11,5,21,23,-35,-66,-51,-2
1693678175372569300,-12,-17,-40,-62,66,-95,-66,-6
1693678175380227900,5,15,54,42,-94,76,92,28
1693678175382223700,15,11,15,-47,-33,62,-74,-32
1693678175383241200,-4,-9,-15,-3,-15,-89,11,3
1693678175384245100,1,1,-24,-50,-11,92,42,-6
1693678175403484700,-11,-21,-9,60,6,2,-113,-21
1693678175404489900,16,20,22,23,-31,23,81,20
1693678175405506800,-4,-24,-21,-23,-7,6,-86,0
1693678175406490200,-10,15,-4,22,35,-18,39,3
1693678175415999300,40,17,14,11,-17,23,-1,-1
1693678175418005900,-23,0,21,53,-31,10,2,-10
1693678175425550700,-36,-24,-39,-29,50,66,-31,0
1693678175426548700,0,-2,23,38,-48,-82,21,0
1693678175439882900,-7,6,0,7,15,53,20,6
1693678175441877300,15,-10,-29,-45,-19,-35,-34,-8
1693678175442899200,11,12,21,38,20,11,23,1
1693678175443897500,6,7,12,28,-14,46,-10,-2
1693678175462335100,-11,-4,-11,-30,-3,-6,5,-1
1693678175464337900,11,-4,-9,15,27,-76,25,21
1693678175466359200,-7,-2,10,-6,-19,-32,8,-18
1693678175466359200,12,14,15,30,-10,40,26,12
1693678175476346900,-13,-14,-25,-30,10,-70,-28,-2
1693678175478346100,9,-3,2,5,-9,25,22,11
1693678175485459700,1,3,5,7,-5,8,-3,-16
1693678175486478900,6,7,0,-3,6,-8,-7,1
1693678175500510900,-8,0,10,14,1,-19,5,-1
1693678175501517300,53,11,3,0,-8,-2,9,12
1693678175502532800,-67,-17,-7,-11,-10,5,11,-9
1693678175503536700,-13,-2,-5,9,11,24,-2,-6
1693678175530364900,4,1,1,-7,-11,-23,0,4
1693678175531358800,-8,-3,-5,2,-5,18,5,-3
1693678175532382100,37,6,6,1,6,-2,-13,-8
1693678175533380700,-24,-3,-1,10,-2,19,26,-6
1693678175536357100,-50,-6,-5,-10,-13,-27,-33,28
1693678175537378900,-1,-1,-9,-9,0,12,10,-14
1693678175545567100,-10,-2,-2,2,6,-9,17,11
1693678175546567800,27,-7,-1,-1,-5,-6,-10,-15
1693678175559959300,-57,-5,-3,-5,-4,29,-4,-3
1693678175561963200,-23,-18,-12,-7,10,-37,28,30
1693678175562984800,-5,10,15,6,-20,-60,4,-4
1693678175563983800,43,10,3,5,0,-6,-10,-23
1693678175582980000,32,9,-1,-2,4,2,-3,52
1693678175583978000,42,-7,1,5,27,33,40,-9
1693678175585996800,-92,-16,-12,-4,-13,0,-7,-6
1693678175586995800,11,10,8,-3,-6,-7,-4,5
1693678175595886100,-85,0,-2,3,7,20,-4,-41
1693678175597832200,81,8,4,-2,-22,-16,2,34
1693678175605566600,7,9,6,10,20,26,5,-31
1693678175606569900,-36,-4,-7,-5,-3,1,5,57
1693678175620506800,63,-1,-7,-6,10,-39,-12,-41
1693678175621515200,-107,-10,10,5,-14,-23,-10,-16
1693678175622534200,38,0,-4,-1,20,53,15,14
1693678175623533000,79,10,1,0,-4,-45,-11,-37
1693678175642348100,-82,-10,4,0,-3,-26,17,-21
1693678175644353900,58,13,-1,-2,-5,27,-15,22
1693678175646350400,25,-8,-8,-10,-8,-12,-43,12
1693678175646350400,-92,-12,-2,2,12,19,30,24
1693678175656548500,59,-3,-1,-2,-7,-12,-7,21
1693678175657566100,-43,-1,1,-1,-1,13,5,-56
1693678175665534400,-9,1,0,-2,-13,-52,-1,-15
1693678175666530300,41,-1,4,3,-6,16,2,-2
1693678175680507000,-38,-2,-8,-1,-2,-18,-12,16
1693678175681511200,-40,4,1,1,-10,-2,4,11
1693678175683510700,25,1,0,6,11,31,6,6
1693678175684511600,-25,0,-1,-8,-11,-18,-20,-8
1693678175702400900,40,7,2,-3,-7,-1,45,-7
1693678175704406600,28,-1,3,7,11,-2,-16,11
1693678175705426200,-5,-3,-5,-6,-4,-14,28,-5
1693678175706426100,-4,-2,-1,4,8,-3,-9,-4
1693678175716330800,21,6,1,-7,2,27,13,7
1693678175718335200,-30,4,4,2,-5,11,-2,-10
1693678175725331600,7,1,-1,2,-20,-5,-18,6
1693678175726330700,-23,-12,-15,3,11,7,-4,2
1693678175739678800,6,-11,-16,-11,15,2,-1,-12
1693678175741677400,-9,4,34,41,19,-4,-5,-2
1693678175743681800,9,9,13,-13,14,5,-4,8
1693678175744676200,8,-1,-9,-19,-25,7,4,3
1693678175762370200,-10,-25,-28,3,33,22,-7,-10
1693678175764373100,4,8,8,32,40,8,-7,-5
1693678175765395900,6,0,-6,5,18,4,7,8
1693678175766394100,-13,-1,-5,10,-45,3,0,-1
1693678175786376600,4,0,14,-48,-1,-11,-1,-2
1693678175788375800,-5,-8,-11,1,-22,1,-2,0
1693678175789397200,5,7,5,-1,2,10,2,4
1693678175790396200,-6,2,-4,12,10,-23,-1,8
1693678175799124400,-8,3,-11,-15,-22,3,-9,-25
1693678175800982500,19,-4,-4,-13,-10,-4,-4,17
1693678175806351700,-3,1,4,6,1,-4,-4,2
1693678175809378600,12,4,-2,-32,-16,-14,-8,-9
1693678175830508100,-2,-1,-14,25,4,10,8,18
1693678175831519800,-22,-3,17,31,4,0,-8,-20
1693678175833513100,-25,-10,17,29,-1,-8,3,5
1693678175834533000,-6,-9,-12,-7,9,23,-5,-17
1693678175868748500,7,11,23,21,6,4,21,1
1693678175870756400,20,-9,-33,-30,-12,-18,-16,-3
1693678175871773800,9,1,-17,6,10,14,10,-1
1693678175872772800,24,2,3,-19,-5,-15,0,18
1693678175873773100,-20,-3,16,33,4,-3,4,-10
1693678175874771800,2,0,-1,-26,3,13,3,8
1693678175890506500,47,4,10,-12,-22,14,8,-20
1693678175891523800,-75,16,22,13,16,-21,-12,16
1693678175904527000,1,-28,-20,-14,3,20,36,2
1693678175905526600,-23,-6,-12,-10,-9,-31,-71,-6
1693678175914854900,33,4,-4,-11,3,0,-6,-13
1693678175915854700,8,-3,5,29,34,40,7,2
1693678175916854200,4,4,7,1,-12,-1,-8,12
1693678175917854000,-25,-17,-6,-7,-1,-11,32,-14
1693678175936447800,85,12,0,-7,-7,13,-42,0
1693678175938446500,-36,1,-27,-45,12,-20,44,-12
1693678175939445800,-34,14,2,64,23,-33,-105,1
1693678175940445300,-42,-25,24,47,-35,14,25,7
1693678175943448500,95,5,-8,-22,-9,-3,13,8
1693678175945444700,-90,4,15,17,4,2,8,14
1693678175946445000,127,14,-19,-29,-7,-7,-20,-24
1693678175947834000,13,17,-34,-35,39,50,70,-14
1693678175948822100,-107,-47,23,32,-38,-67,-69,10
1693678175949821500,88,-6,-12,39,17,-2,-10,-14
1693678175972553000,-20,15,18,-17,-25,21,0,-11
1693678175974567800,127,4,-19,-29,17,-7,1,54
1693678175975567100,-126,5,22,-3,-38,17,50,22
1693678175975567100,-14,-17,-8,-10,-13,-6,18,-13
1693678175979249500,-7,1,1,6,-7,-5,9,0
1693678175981274600,-19,-1,-28,-58,24,-2,-47,-31
1693678175993520600,93,31,-8,54,29,5,1,-19
1693678175995478000,-70,-26,-9,-84,22,53,22,48
1693678176002400400,-2,-3,70,32,-90,-55,29,-9
1693678176004406600,40,2,-7,-13,-14,3,-12,-4
1693678176005403900,-28,-12,-25,-8,2,-10,5,-7
1693678176006402400,90,21,-7,-28,3,32,-38,-5
1693678176024615400,67,-1,-36,51,82,9,55,8
1693678176026552600,-88,-18,17,-37,-32,-66,11,-4
1693678176028550100,-1,-3,-25,-21,-44,11,-29,-16
1693678176029570800,6,8,33,70,-19,-3,23,-7
1693678176039201100,-46,-9,-14,-48,5,34,-14,6
1693678176041973400,1,7,-4,11,37,-72,0,0
1693678176046941000,4,3,-21,-28,96,49,56,14
1693678176050370000,-10,5,76,9,-104,-27,-20,-3
1693678176065587800,-2,-7,17,86,8,-16,-46,16
1693678176068606200,13,13,-4,-41,-32,-23,-51,-33
1693678176070589000,-21,4,-15,-64,-36,64,-28,-16
1693678176072583500,-5,-20,-26,-46,9,-101,-36,-11
1693678176085486400,-33,-16,-38,-66,85,36,-34,3
1693678176087484900,-8,6,35,67,-48,25,50,0
1693678176089506200,-48,-6,-11,-27,31,-3,60,10
1693678176090505600,94,7,14,73,23,4,17,0
1693678176098549600,-31,-2,17,5,-44,11,92,10
1693678176100576400,-12,12,-28,-13,18,17,-97,-12
1693678176108255300,15,5,16,20,-39,-35,-37,-8
1693678176110276700,11,-10,-88,-128,98,64,29,-1
1693678176123061400,-1,17,76,68,-102,-48,20,21
1693678176125060700,12,-8,-15,-49,35,79,62,15
1693678176126059400,-2,-18,-45,-87,88,-56,54,-8
1693678176129062200,-33,6,44,63,-70,-11,-128,-24
1693678176145255700,23,2,-33,-62,18,12,-5,-1
1693678176148253300,-5,6,16,45,23,71,-33,0
1693678176149252400,2,1,26,21,-60,-94,-9,7
1693678176152273600,27,-38,-45,-37,17,23,24,6
1693678176158852100,-47,-2,0,-42,6,-74,30,-12
1693678176161855200,16,44,32,77,-20,13,-18,12
1693678176167430700,-15,-7,4,-8,-5,34,6,7
1693678176169418900,16,10,-7,32,-8,-74,-23,4
1693678176183385600,90,4,19,63,11,35,39,-11
1693678176185407700,-73,-24,0,-30,-41,-60,-35,12
1693678176186405700,6,-4,1,8,6,0,-44,1
1693678176188405600,-15,5,-9,-43,6,11,45,-2
1693678176205552200,12,-1,-19,-45,-2,25,-18,-5
1693678176207551200,-6,-9,-20,-58,-2,-34,12,-9
1693678176209549500,18,10,33,16,-5,47,4,6
1693678176210548700,-1,7,10,42,11,31,24,6
1693678176218502400,-20,-5,9,4,8,-25,69,2
1693678176220529500,10,-10,-16,-71,11,-3,-49,-8
1693678176228502900,-13,-14,-1,46,-60,-23,-5,3
1693678176229526000,0,12,34,9,33,36,23,-7
1693678176242349200,-4,0,-2,56,-12,1,-10,-4
1693678176245353100,-3,-24,-40,22,16,-1,35,3
1693678176247352800,0,23,62,51,4,60,-46,-6
1693678176249375100,-12,-14,-67,-63,-1,-53,5,-1
1693678176265519700,-5,2,14,33,-8,20,-108,-10
1693678176267517900,2,-16,-28,-76,-4,-21,-18,2
1693678176271516000,-2,9,14,60,26,36,70,-5
1693678176273518600,7,15,21,-31,-17,-2,-27,4
1693678176287370600,-16,-8,-22,-109,9,3,4,3
1693678176289333500,2,-10,-61,-76,34,21,30,-4
1693678176291331200,-1,10,56,68,-9,3,14,5
1693678176292331200,-11,-5,-17,-44,-11,37,-34,-10
1693678176302399800,-2,-10,-26,-40,-20,-8,-43,-11
1693678176304405000,1,11,41,77,5,-25,25,1
1693678176306426100,-10,-19,-91,-75,22,-6,-18,-5
1693678176307425500,14,25,71,127,-18,33,34,7
1693678176324801300,2,-11,-13,9,7,-23,-11,1
1693678176327809600,8,17,30,11,-10,42,73,6
1693678176329827400,-6,-21,-80,5,36,5,-38,1
1693678176330825900,-16,-22,-56,-100,1,-50,-50,-19
1693678176338524800,6,17,42,-108,-23,75,21,7
1693678176340532000,-5,0,24,-18,-31,-76,1,-4
1693678176347423800,7,5,3,2,0,-10,-2,7
1693678176349430600,-4,-19,-68,-19,22,31,76,1
1693678176363011400,-5,1,6,66,10,-25,-73,-9
1693678176365011800,2,4,35,23,-15,24,10,1
1693678176367005300,-6,-7,-22,-84,-7,-33,-41,-7
1693678176368011300,1,3,-4,10,3,-19,3,6
1693678176385007600,3,14,30,25,-8,5,33,4
1693678176387001500,0,-6,-25,-61,-4,25,26,1
1693678176389022200,5,5,21,39,-2,-23,-7,6
1693678176390021000,-3,4,32,32,-23,-22,-15,-6
1693678176398376100,3,-6,-42,-27,15,-5,49,5
1693678176400403700,-6,-14,-34,-12,6,4,-39,-7
1693678176407440900,-4,-9,-5,18,-9,-4,19,-1
1693678176409441200,7,19,30,25,-3,-1,7,1
1693678176422364800,-3,-8,-26,-33,4,3,-44,-5
1693678176424370000,6,8,24,60,7,20,43,4
1693678176426391100,-3,-8,-11,-30,-6,-16,56,-7
1693678176429389500,4,2,12,-9,-7,-20,-38,-2
1693678176445126400,-5,-7,-38,-12,10,-3,-6,-1
1693678176447129200,4,10,35,37,-8,0,48,7
1693678176449330700,0,4,10,-53,4,18,90,6
1693678176451348800,-9,-9,-13,37,-11,-21,-97,-16
1693678176458551000,5,9,25,-9,7,18,33,3
1693678176460578100,2,-6,-3,23,-8,-4,-3,-9
1693678176467437300,-3,0,-8,-29,-1,-15,-26,-1
1693678176469440300,-5,1,6,28,9,29,67,6
1693678176482377000,-2,-1,4,-3,-3,-26,-69,-6
1693678176484381700,1,3,1,16,1,23,6,6
1693678176486402700,3,-1,6,0,-4,-3,7,1
1693678176487402900,-3,-9,-41,-27,8,15,-42,-6
1693678176512521800,3,1,13,24,-8,-12,64,11
1693678176514520900,1,-1,0,2,1,16,-31,-7
1693678176516561300,1,0,0,-7,4,-7,-58,0
1693678176517562200,-3,-4,-1,-27,-7,-11,23,6
1693678176519562500,-8,-4,-13,-29,0,-7,8,-14
1693678176521538500,-2,2,5,18,-2,-3,-16,1
1693678176527762500,0,-2,-4,-18,-3,-3,-9,0
1693678176529783400,4,7,23,-12,2,17,-46,1
1693678176542899000,3,0,-5,39,-1,-6,41,4
1693678176545919700,-15,-3,14,45,-14,-8,-25,-11
1693678176546918900,-3,-7,-34,-17,9,4,-9,3
1693678176549918200,8,18,82,37,-13,-3,10,0
1693678176564850200,0,-3,-18,-21,-8,5,-17,0
1693678176566855300,1,2,10,17,10,3,1,0
1693678176570856700,1,2,13,8,-1,4,-13,1
1693678176572874300,-2,-8,-13,0,2,0,26,-1
1693678176587843500,5,3,-10,-26,4,-1,-3,-4
1693678176589845800,-11,-13,-29,-43,-9,-3,-18,-2
1693678176592862600,-2,4,27,94,-17,-5,47,-3
1693678176595838700,2,10,27,81,6,-18,-36,1
1693678176602833900,-3,-4,-26,-8,11,7,20,1
1693678176604833400,2,0,-2,-53,-7,-3,-9,0
1693678176607832100,-1,-7,-15,-28,0,-4,-8,-2
1693678176609829600,-5,-9,-30,-46,-3,3,30,1
1693678176624842100,-1,2,3,41,-1,-5,-20,1
1693678176626819700,1,1,-7,23,4,-2,-5,-2
1693678176628821200,-1,3,5,-34,-2,0,-16,-1
1693678176629820800,1,-1,-6,-6,-4,4,28,2
1693678176638479800,-3,-3,-1,-40,0,-1,-16,-3
1693678176640505900,-1,0,13,8,11,2,2,-1
1693678176647501000,-1,-1,-7,-15,4,10,4,-1
1693678176648480400,2,11,44,14,-9,-15,18,2
1693678176661569000,-2,-4,-4,-13,-3,3,-23,-2
1693678176663567600,1,-3,-11,-3,1,-11,5,1
1693678176668523500,1,-2,-6,-24,6,9,-13,-2
1693678176670527800,0,-3,-4,39,-3,5,14,0
1693678176686375200,-4,-6,-15,-30,2,-5,-3,-2
1693678176688379500,4,8,19,22,-8,-4,3,1
1693678176689401700,0,3,8,3,-1,-4,-10,0
1693678176690400000,-4,-7,-21,-39,6,4,7,-1
1693678176698375800,-4,2,15,19,-1,-3,1,0
1693678176700381300,-1,-3,-17,7,1,1,-5,-2
1693678176715433800,3,3,9,-1,0,-2,-1,-1
1693678176716452300,0,-1,-6,-11,2,8,7,0
1693678176721658900,0,-3,-3,-5,-2,-5,-6,-3
1693678176722666600,-1,-3,-2,-6,3,0,0,0
1693678176728448100,-2,-2,0,4,3,-3,-4,-1
1693678176729467100,-1,0,-2,3,8,2,4,0
1693678176752403400,2,-1,-1,-9,-23,-4,-1,-1
1693678176754406200,1,-1,2,-5,0,-3,0,-1
1693678176756421800,1,3,6,2,-2,-1,-2,1
1693678176757421300,-3,-6,-13,-5,19,4,-1,0
1693678176767454000,-2,-2,-4,9,6,-1,2,0
1693678176769465400,0,-2,-2,-9,-19,1,1,0
1693678176770464800,-1,1,-1,3,5,-1,-5,-2
1693678176771464300,-1,1,0,-16,-4,3,1,0
1693678176790505100,0,1,6,7,5,1,-1,0
1693678176791510100,-1,0,1,2,8,-1,-2,-2
1693678176792509600,0,-1,0,3,-5,-1,-3,-2
1693678176793508900,-2,-5,-13,-22,-6,0,3,-2
1693678176804898300,3,2,19,21,12,-1,3,1
1693678176806902800,4,5,3,9,12,0,0,2
1693678176807918900,1,1,2,-4,-12,-8,-7,0
1693678176808922400,-1,-5,-9,-25,-35,2,2,0
1693678176818473600,-5,-5,-8,-10,-1,0,-1,-1
1693678176819471400,-5,-5,-6,-4,-3,1,0,0
1693678176827457700,2,3,8,23,30,0,-3,1
1693678176829459100,-2,-2,-4,-44,-16,-3,4,-2
1693678176841942000,2,2,12,10,0,0,8,0
1693678176842938400,-1,-1,-1,-4,-4,-8,-21,-3
1693678176848501100,-4,-5,-10,3,-3,1,1,0
1693678176850437200,1,1,9,9,8,1,18,2
1693678176865537300,-4,-3,-12,-12,-4,-1,7,-4
1693678176867534400,1,9,21,28,13,1,-11,-1
1693678176868533600,10,1,1,-8,-7,1,-1,2
1693678176870534100,-3,-2,-6,16,1,-5,-2,1
1693678176887454000,-2,-2,-4,-15,-14,2,12,-3
1693678176890445300,-8,-14,-23,-20,-1,0,4,-5
1693678176891444800,-12,11,11,-6,11,-3,-8,-5
1693678176893442700,7,2,7,-12,-4,3,4,2
1693678176901646200,-1,-3,-9,-3,-1,-4,-8,0
1693678176903651300,1,-3,0,-10,1,2,20,2
1693678176916378600,-2,-7,-14,-2,-9,0,17,0
1693678176918405900,-2,-6,-7,-19,16,-11,-83,-6
1693678176925382300,4,8,12,27,6,3,-5,2
1693678176927401000,1,5,-1,-5,-8,-1,-6,0
1693678176929377000,-1,-4,-2,-1,-2,3,46,4
1693678176931376000,-2,0,-2,9,3,-3,19,1
1693678176947411700,-3,-8,-14,-23,-18,-10,-26,-2
1693678176950409200,0,-2,-3,-6,-6,3,7,1
1693678176951406100,0,0,5,11,13,-4,-19,-4
1693678176953407800,-3,-1,-2,-7,-15,7,21,-1
1693678176970505300,-1,0,-3,4,12,5,-10,-1
1693678176972535200,0,1,3,10,1,-1,24,1
1693678176973532800,1,-1,2,-3,-7,1,-19,-9
1693678176975513400,-7,-9,-10,6,-1,-31,-11,16
1693678176984549600,6,11,9,5,4,4,26,-13
1693678176985549800,-1,-1,-1,-7,-4,36,-43,-8
1693678176992910900,2,-1,0,4,15,-17,31,21
1693678176994910400,-5,5,8,13,-9,-11,-21,-58
1693678177007233100,29,-3,-6,-10,-23,-8,51,52
1693678177010241400,29,3,4,5,13,76,76,5
1693678177012258600,-52,-6,-9,-13,-26,-52,-103,-31
1693678177014256300,-85,-16,-3,2,15,71,-8,-11
1693678177030509300,45,15,6,6,16,55,86,-2
1693678177032537000,-120,-10,-8,-14,-32,-60,-71,-42
1693678177033513100,-34,-2,3,0,2,7,5,-75
1693678177035535000,15,7,4,6,12,3,-5,-20
1693678177045551600,-30,-8,-1,2,4,5,-32,27
1693678177047553000,41,1,-3,4,5,13,39,56
1693678177049550300,38,3,1,10,-7,6,-13,19
1693678177050550000,-8,1,7,-3,4,-19,6,17
1693678177067445300,4,-3,-7,-13,1,2,-16,5
1693678177070437200,22,6,22,29,4,-35,-10,-10
1693678177071435700,-9,-26,-30,-24,-33,4,0,-5
1693678177073435100,20,1,-68,-38,18,14,5,16
1693678177081002300,-23,24,49,37,3,-18,-19,-25
1693678177082957700,6,9,33,-17,14,-11,-18,-23
1693678177090257800,2,-1,-20,38,21,23,18,23
1693678177092279200,15,2,12,-19,-18,-3,17,14
1693678177105508700,-16,-18,-41,-58,10,-17,-38,-24
1693678177107507000,-9,14,45,114,-3,-14,-5,-2
1693678177110529100,10,-11,-38,-62,-20,23,19,20
1693678177112505500,4,-10,4,-30,-28,-17,3,-4
1693678177128496300,-13,-1,-4,-12,0,-11,-20,-16
1693678177130495300,7,-11,-31,-53,-17,12,3,10
1693678177132493400,2,4,7,12,34,2,15,7
1693678177135513800,3,-1,-4,35,7,-4,-3,-10
1693678177141488000,-7,-4,12,0,-15,-2,-1,0
1693678177144486600,6,-1,-23,-18,10,1,33,-2
1693678177150504300,15,6,7,13,-13,12,26,19
1693678177151503900,16,13,31,24,13,82,11,-25
1693678177165475100,0,5,-2,20,20,-7,2,22
1693678177166475300,-41,-16,-20,-16,0,0,-61,33
1693678177168475300,-76,6,15,0,-18,-11,81,102
1693678177169474100,-18,-18,-4,-18,-28,-34,-34,-73
1693678177186394300,-17,18,14,34,45,60,80,24
1693678177188401200,-21,-15,-20,-13,-19,-55,-50,62
1693678177195393100,-77,-1,6,-25,-24,-42,68,-53
1693678177196409900,-88,4,11,28,33,10,41,54
1693678177201513700,-32,-31,-31,-16,-32,-42,22,-12
1693678177202512700,38,11,9,-6,7,6,112,31
1693678177210206800,18,-2,-2,-2,4,11,-90,3
1693678177212224800,-12,4,6,11,6,-18,14,34
1693678177224764600,35,-7,-10,-7,-17,1,-44,-33
1693678177228769300,14,0,-16,-11,-2,14,2,1
1693678177230771500,7,8,31,12,24,3,-14,-23
1693678177232770400,16,4,7,39,-15,3,-8,-29
1693678177248404800,0,-24,-63,-60,9,-14,-19,6
1693678177250408800,-23,3,16,18,-5,2,-27,-34
1693678177252406600,42,26,87,39,-22,16,-12,-23
1693678177253405300,17,-6,-3,5,7,-13,-7,8
1693678177261574400,-9,2,8,12,-14,-6,-31,6
1693678177263594800,5,-5,-30,-17,3,-1,27,-18
1693678177270258000,1,-10,-36,-43,-8,6,-30,-17
1693678177272279900,18,0,-4,-25,-6,-5,11,36
1693678177284874500,-22,-6,1,32,13,-6,-9,-5
1693678177286879200,-7,-1,-20,-51,-11,5,-15,-34
1693678177288900300,25,3,9,18,-10,2,-1,16
1693678177290876700,-3,-1,-14,-23,-11,-7,-9,5
1693678177307869900,-3,2,-2,-6,2,3,-9,-13
1693678177310871700,-4,4,19,29,12,3,-7,-11
1693678177313886300,10,-2,-8,-6,7,4,-10,5
1693678177316884800,7,-1,-13,-1,0,-7,6,10
1693678177321859700,-1,3,15,10,0,2,1,-6
1693678177322859200,-6,1,13,2,-2,3,22,4
1693678177329875700,-4,-10,-24,-3,9,12,-23,-4
1693678177331874700,14,5,3,-1,4,1,1,1
1693678177344854900,-3,4,19,11,-12,-8,5,1
1693678177346845200,-3,-4,-9,-7,-2,-2,4,-5
1693678177347844600,7,-7,-16,-8,13,7,2,-6
1693678177348843700,4,8,13,14,-1,-2,-8,-1
1693678177367335400,1,2,10,-4,-6,1,-4,5
1693678177369333900,0,-3,-11,-6,-2,-2,14,-5
1693678177370355600,-3,-4,-9,-3,11,-10,11,-5
1693678177371354900,10,8,15,7,0,30,-48,7
1693678177381575100,-9,1,0,0,-1,-9,-16,-15
1693678177382573700,-1,-4,-2,1,5,15,0,-5
1693678177390179700,3,3,-3,8,-3,-3,8,2
1693678177391176400,-8,-7,-3,-12,1,-3,27,1
1693678177405259400,5,0,1,7,0,11,1,1
1693678177406258600,0,2,8,14,1,-6,-9,-3
1693678177408257500,6,2,3,-14,-7,0,15,2
1693678177408257500,0,-4,-12,-10,-4,-5,-6,-1
1693678177429396600,-6,0,-8,7,16,2,-10,0
1693678177434394900,-4,-6,0,-35,-45,-12,-6,-4
1693678177437356800,0,5,8,17,1,0,-7,5
1693678177440391400,1,-2,-5,-6,1,-9,30,-3
1693678177443353300,-4,-1,-4,1,-7,-8,-36,-3
1693678177447352000,-3,-6,-14,-13,11,-2,-11,-2
1693678177450353900,2,1,-1,0,-3,4,-1,-2
1693678177452353000,1,2,6,-1,-2,-6,26,1
1693678177465513400,-2,-1,1,-6,-4,-1,-19,1
1693678177467537400,-1,1,-1,10,13,8,-9,-4
1693678177469535100,-3,-6,-6,-7,-6,-7,-13,-3
1693678177471533900,4,1,-2,5,6,-7,22,5
1693678177488365100,-2,-4,1,-6,-6,11,26,3
1693678177490385400,1,4,5,6,4,-2,-49,-6
1693678177492383800,-3,-2,-10,-4,-1,-6,5,1
1693678177495363700,-2,0,-1,2,1,1,-15,-3
1693678177501580900,4,2,5,0,-6,2,12,2
1693678177503578900,-4,-5,-6,-7,6,3,5,-3
1693678177510576200,0,0,12,18,3,2,1,-3
1693678177512599000,-2,3,10,8,-2,-6,-11,-1
1693678177525537500,-4,-2,-3,-6,-4,3,2,0
1693678177528528800,2,2,4,10,5,-4,11,1
1693678177530527300,-1,-2,-7,-5,2,-3,-8,-2
1693678177532526500,-3,-4,-6,-8,-7,-2,-7,-1
1693678177548046200,0,-4,4,0,2,-3,30,4
1693678177550042000,1,0,-2,1,0,-2,-55,-7
1693678177552040100,0,-3,-2,-3,1,-4,-26,-1
1693678177553039700,-1,-2,-4,-1,-2,-1,-9,0
1693678177562010900,-1,3,2,-1,-6,-5,8,-1
1693678177564034600,0,-1,1,4,1,0,18,1
1693678177570261000,-2,0,0,-3,1,5,6,-1
1693678177572259300,-2,-5,-4,-1,1,1,-4,-1
1693678177585554000,-2,0,3,-3,-5,-4,-8,1
1693678177589577200,0,-1,2,4,2,3,13,1
1693678177592554000,0,0,-2,-4,-1,-6,-3,-2
1693678177595548600,0,-3,-9,-4,-5,-9,-1,-2
1693678177608234800,-3,0,1,2,-2,2,8,-2
1693678177612234700,1,-1,-3,0,0,-5,-7,2
1693678177615231400,0,0,-1,-4,1,0,7,1
1693678177617230000,-1,1,-2,1,5,13,-3,0
1693678177621227400,-1,-1,-3,-2,-8,-9,-4,-1
1693678177624231200,0,-2,-2,-1,0,2,34,2
1693678177630220700,1,0,-2,-1,-2,-3,-19,-2
1693678177632242600,-1,0,0,-1,-1,-7,-17,-4
1693678177645214600,-1,-4,-7,-7,1,2,11,0
1693678177646212000,-3,2,-1,-3,-1,-4,-9,-3
1693678177649209500,0,1,1,0,-1,1,12,0
1693678177650212400,0,0,5,4,-1,-3,0,0
1693678177667473600,1,1,1,-2,-1,0,-5,0
1693678177669494700,-1,-2,-8,-3,0,2,11,0
1693678177673478200,-2,-3,-4,-3,-1,-8,-30,-5
1693678177675472400,0,-3,-2,-1,1,-1,-3,0
1693678177681530200,0,0,-3,-2,-1,0,1,-1
1693678177682546400,-1,-2,-1,-2,0,1,-12,1
1693678177690240500,0,-1,5,2,1,5,8,2
1693678177691239700,-1,-3,0,1,2,5,15,0
1693678177704479500,-3,0,-1,-1,-7,-21,10,-1
1693678177706479500,-1,1,0,-1,-1,-2,-47,-4
1693678177712396000,-1,-3,-5,1,0,7,17,0
1693678177713395300,0,-1,-2,-4,-3,-3,1,2
1693678177719937000,0,-1,0,-3,0,3,-18,-8
1693678177720940100,0,-3,1,2,0,2,13,3
1693678177726249400,0,1,-1,-1,0,-4,26,-1
1693678177728255000,0,-1,1,0,1,3,-17,-1
1693678177742572200,-1,-2,-5,-1,0,3,-3,0
1693678177745570300,0,0,5,4,0,-4,6,0
1693678177746572000,0,-2,-3,-3,-2,1,6,2
1693678177747570600,1,-1,-4,-2,1,1,15,2
1693678177757301200,-2,-1,-1,-2,0,0,-8,-2
1693678177758303300,0,3,2,-1,3,6,25,1
1693678177763471900,0,1,2,1,-3,-17,-20,-1
1693678177765421200,0,0,-3,-1,-3,-8,-12,-3
1693678177779259900,-1,-5,-1,0,4,1,-3,-1
1693678177781269700,0,1,3,-1,-5,0,17,1
1693678177786246300,0,-1,-2,-4,4,-3,6,0
1693678177787263500,-1,-2,0,-1,-6,9,-28,-3
1693678177803000100,1,2,5,3,4,4,-8,-2
1693678177805001300,0,0,-3,0,2,-3,7,-1
1693678177805997900,-1,-1,0,0,-2,3,15,0
1693678177806997200,0,-3,-2,-3,0,-7,0,-1
1693678177816549900,-2,0,-2,1,1,-1,2,1
1693678177818564700,-3,-3,6,1,0,5,-8,-1
1693678177823534000,-2,-2,-1,-2,-3,-4,7,-2
1693678177825538300,0,1,-3,0,0,-5,9,0
1693678177839222100,1,2,3,2,0,5,-12,-4
1693678177841245600,1,1,-1,-7,-3,-6,5,3
1693678177846282300,1,1,5,7,3,12,14,0
1693678177847291800,-2,-2,0,-1,-2,-10,-2,-3
1693678177870505800,0,1,-4,-3,0,3,-10,-1
1693678177871532300,-2,-3,-8,-4,-2,-4,11,0
1693678177878071000,-1,-2,-3,-1,2,5,-7,1
1693678177879066500,-2,0,2,3,0,0,-19,-4
1693678177881067100,-1,0,0,-3,-6,-7,8,1
1693678177882087300,0,1,1,6,2,1,2,-2
1693678177883066100,-3,-3,-1,-4,-2,3,20,0
1693678177885080000,-1,-1,-7,-2,-2,-4,-35,-4
1693678177898945200,1,1,3,3,2,-2,-8,1
1693678177900968800,-1,1,-1,-3,0,-6,-1,-1
1693678177908125200,1,-1,-5,-2,2,15,-1,1
1693678177909144100,1,1,4,2,3,14,11,2
1693678177923361100,0,-2,0,-1,-7,-14,2,-3
1693678177924360800,0,-2,-7,-2,-4,0,-12,-3
1693678177929357300,-4,-3,-2,-3,-1,1,-12,-2
1693678177931355900,0,3,-2,0,0,1,14,-1
1693678177936354300,0,3,1,2,3,8,7,2
1693678177939353900,0,-2,4,-1,0,3,4,2
1693678177951544200,-2,-3,-3,-4,-8,-13,-10,-2
1693678177952561800,-1,-1,-1,-4,-4,-19,-14,0
1693678177959274400,-2,-1,-2,-3,-1,4,2,0
1693678177961273000,0,0,-3,-1,0,3,-1,-1
1693678177966271000,1,0,-1,-3,-2,-4,-2,-2
1693678177968291100,0,-1,3,3,0,-1,19,2
1693678177982347500,1,-2,-1,0,5,13,1,-1
1693678177984352300,-3,-2,-2,-2,-4,-7,-7,-2
1693678177985373300,-1,1,0,0,1,1,-9,-1
1693678177985373300,1,6,7,6,1,6,14,-2
1693678177996570800,-2,-3,-4,0,-3,-19,-12,1
1693678177998528900,-2,-3,-6,-2,0,8,0,-2
1693678178003541700,-1,1,0,-4,-2,-6,-11,-2
1693678178005527700,-2,-3,2,1,0,3,12,-1
1693678178018920800,-1,-3,-6,0,1,1,1,-1
1693678178020947300,-1,1,0,2,-2,-3,-14,-2
1693678178028309500,1,-4,-2,0,0,-3,-4,-1
1693678178029311400,-1,-1,-3,-1,-1,3,7,1
1693678178042351300,0,1,-1,-4,0,-1,5,0
1693678178044351000,-1,-7,-2,1,-1,-3,10,2
1693678178045348600,0,3,2,0,7,18,-12,-3
1693678178047348000,-11,-4,-3,-8,-9,-20,5,-5
1693678178056342500,-1,-1,2,5,0,-9,-2,0
1693678178058341500,1,2,2,0,-1,9,7,-3
1693678178072333300,-5,-5,-8,-1,2,-4,-18,-5
1693678178074331900,1,3,4,0,3,2,3,0
1693678178079328900,1,-2,1,6,0,-3,-7,-2
1693678178081328800,-1,-4,-8,-2,-2,4,22,3
1693678178086325000,-2,-5,-1,1,0,-8,-12,-1
1693678178088326200,5,7,2,5,12,5,0,1
1693678178103500700,-5,-4,4,-6,-17,2,-6,-4
1693678178106499200,3,1,3,-1,1,-6,-9,-2
1693678178108500100,3,-2,-5,-3,-3,-1,9,3
1693678178109497100,0,0,-5,2,4,-2,-2,1
1693678178116494000,0,1,0,5,9,4,20,0
1693678178118492000,-2,-4,-2,-14,-7,-8,-10,-3
1693678178125491600,-3,-2,-13,-2,2,-1,1,0
1693678178126488100,5,2,25,-9,3,7,3,3
1693678178139479600,1,2,8,28,2,-16,12,-1
1693678178142479000,-1,1,0,-5,-18,-1,-3,-1
1693678178153472500,0,0,-5,1,3,-1,-6,1
1693678178155471600,0,-5,-11,0,-7,-2,2,-1
1693678178162467200,-2,-1,-6,-22,-2,5,-8,-3
1693678178164466700,2,3,9,2,14,2,-4,1
1693678178165466500,3,10,12,11,-1,-1,-1,0
1693678178167465100,-1,-4,-7,0,2,8,-1,0
1693678178176061400,-1,-2,-11,-2,6,-4,-9,0
1693678178178061700,-4,-6,-3,-8,-25,-19,-6,-4
1693678178185057500,-1,-3,-8,-3,7,8,15,1
1693678178186056200,1,1,4,-4,-8,13,-5,-1
1693678178199135000,1,2,0,1,0,1,11,0
1693678178200940800,3,7,3,18,21,-4,-11,0
1693678178206307600,3,-8,0,-26,-34,-4,8,2
1693678178208313700,-3,-5,-8,-4,3,-3,6,-2
1693678178230315400,-1,-2,-4,-10,-2,7,-2,2
1693678178231315100,-1,0,-2,-1,6,-2,18,2
1693678178233313600,-1,3,6,23,9,12,-8,-2
1693678178234312900,-1,-3,-10,-12,-10,-9,-5,-2
1693678178236311800,2,1,8,-8,0,3,3,1
1693678178237334200,-3,-2,2,12,-1,0,-16,-1
1693678178252573800,-2,0,2,-1,-1,-7,11,1
1693678178255552500,-1,-3,2,8,-10,-5,-3,-2
1693678178259548500,-1,-3,-5,2,1,0,-8,-2
1693678178261547700,0,1,-5,-14,4,-1,0,1
1693678178266308900,-1,1,4,-5,-3,14,-3,-2
1693678178268330800,1,-1,2,4,3,0,14,1
1693678178282367800,-3,-3,-8,-10,-5,-12,-30,-4
1693678178284370500,-2,-1,-1,8,0,-7,9,-2
1693678178285393100,1,1,3,5,23,34,13,2
1693678178286391400,-1,-1,-4,-6,-19,-48,-7,-3
1693678178304571100,-1,0,-2,1,1,5,-23,0
1693678178306546300,0,-1,-1,0,-1,65,0,-32
1693678178307563900,-5,-6,-5,-10,-9,-58,18,42
1693678178308565900,8,3,4,16,53,31,28,17
1693678178319170200,1,4,0,0,-15,-19,67,-11
1693678178321197100,-2,-5,-3,0,24,8,-21,-37
1693678178326336700,-12,0,-2,-7,-40,-33,-60,70
1693678178328345800,5,3,2,1,-6,-53,-7,-31
1693678178350510400,-7,-3,-1,-2,-1,-85,-58,16
1693678178351515100,6,0,-1,-7,-37,-41,29,67
1693678178353537800,-13,0,5,13,53,-5,12,-110
1693678178353537800,-38,-19,-18,-28,-67,2,4,-6
1693678178356341100,12,4,7,5,4,65,-24,-18
1693678178357346400,1,-2,-1,3,-2,-34,21,-3
1693678178364528200,8,1,-2,-8,0,-16,-38,2
1693678178366526600,-2,4,14,22,2,22,12,9
1693678178379218900,-8,-4,-7,-12,10,-4,20,-15
1693678178381242100,-7,-11,-21,-29,-2,33,-33,12
1693678178386531700,4,-15,-19,1,-11,13,36,1
1693678178387532400,16,38,19,20,19,22,-18,-5
1693678178402372200,6,4,17,9,-3,15,10,27
1693678178404378500,-2,-9,-13,34,25,-15,-5,-6
1693678178405377800,4,-5,-44,-78,11,19,-1,-8
1693678178406376600,11,9,83,87,-36,-20,1,6
1693678178416529400,3,11,27,36,-14,-14,-26,0
1693678178417529400,-1,7,4,-2,14,8,7,-2
1693678178425566600,-3,-12,-15,9,-24,-6,7,-12
1693678178427543900,-4,-15,-45,-37,17,18,-20,6
1693678178439347700,-6,-8,-30,-45,4,13,18,-2
1693678178440350400,-1,3,23,17,4,7,-6,-5
1693678178446347100,3,10,14,24,15,4,2,8
1693678178448343100,2,-8,-17,-19,4,-10,-5,-33
1693678178462571900,1,-1,-1,-13,-9,9,9,38
1693678178463571600,0,-2,-11,-1,2,12,10,-12
1693678178468495600,-29,2,23,5,-6,-37,36,-7
1693678178470501900,-7,-5,-19,-16,-12,-40,-97,43
1693678178492252400,-56,-7,1,17,10,-45,6,-104
1693678178494248500,-7,6,1,-10,-16,41,38,117
1693678178495250700,-83,-7,11,15,24,81,-43,-73
1693678178496271100,56,8,2,-7,6,37,65,-24
1693678178500253200,-65,-1,-4,16,61,113,36,82
1693678178501253100,-36,5,12,0,19,0,97,26
1693678178506250100,93,6,-3,-13,-24,97,-81,77
1693678178508251200,-56,-15,-17,-15,-1,-60,33,-16
1693678178521605800,3,4,8,1,4,18,-21,-33
1693678178522605700,-2,-10,-8,-10,-10,-34,-90,-34
1693678178528496100,-2,8,11,15,8,-4,-12,14
1693678178530502000,7,4,2,1,15,24,-4,-5
1693678178544365100,29,0,2,-2,-23,-35,12,30
1693678178546357500,-11,-3,-2,-5,-4,-3,-12,-34
1693678178547381000,27,5,7,12,-17,-51,25,-17
1693678178548373600,-16,-7,-7,-20,-9,-4,-19,13
1693678178559877500,-13,-7,-14,-10,-8,-10,0,-14
1693678178561874000,25,-2,-4,-6,-12,-11,-20,-23
1693678178566117500,-15,7,11,4,5,0,22,-3
1693678178568107600,-20,-6,-4,0,12,21,14,9
1693678178581534200,30,1,-1,2,-3,6,-1,6
1693678178582553100,4,-2,-2,3,-3,5,-3,-16
1693678178588600900,-7,-3,-5,-7,-9,-24,28,9
1693678178589609400,-12,-1,0,-3,5,13,-41,-1
1693678178611498200,20,-4,-8,1,-13,-17,-40,-10
1693678178613500200,-9,-1,1,-8,-11,-20,-35,-10
1693678178614496700,-16,4,4,6,4,-6,21,-6
1693678178615518400,9,-3,-7,-2,-2,6,16,4
1693678178626379400,-2,-5,-6,-4,-4,8,6,-1
1693678178628396000,-3,6,4,2,-8,-17,2,-5
1693678178629404500,5,0,-1,3,-3,-10,2,2
1693678178630403200,0,-3,-4,-2,4,10,7,-2
1693678178649197500,7,-1,0,-5,-12,-10,1,6
1693678178651223800,-9,1,4,3,9,16,5,-6
1693678178652203100,-3,-4,-4,-2,-4,2,5,-6
1693678178653202000,-6,-3,-3,-5,-4,-6,10,3
1693678178671472800,-6,1,1,-3,1,-19,-19,-7
1693678178673469600,10,-1,0,-2,2,15,-15,-3
1693678178678998500,-3,-1,-6,-5,-11,-50,-1,-3
1693678178680984200,0,1,2,3,11,23,2,3
1693678178686321800,-7,-3,-2,-3,-1,7,21,-2
1693678178688329200,6,-1,5,7,6,15,4,0
1693678178694326100,-19,0,2,-2,-3,-17,-16,-4
1693678178696344800,0,0,-5,-3,-3,4,11,2
1693678178708945000,1,-2,-5,-7,-6,-7,7,-3
1693678178710949000,-1,-1,-9,-6,-2,-3,-16,0
1693678178717406000,3,-1,0,0,0,-5,3,-1
1693678178718406100,-1,2,6,3,4,-1,-8,0
1693678178731470600,7,0,-1,0,-3,8,31,2
1693678178733400000,-5,0,0,-4,1,6,-41,-6
1693678178734398800,6,-3,-2,-3,1,7,-2,5
1693678178735394900,-2,0,-1,-3,0,-5,-11,-4
1693678178754096900,2,3,3,2,2,-2,2,2
1693678178755097300,-7,-2,-1,-1,-7,-10,25,-4
1693678178762256100,1,-3,-2,2,3,27,15,0
1693678178764254800,-4,-6,-6,-6,-6,-19,-8,-4
1693678178769252700,-1,-1,-3,-4,-5,-15,-18,-2
1693678178771273600,0,1,-3,-1,0,-5,9,-1
1693678178771273600,-3,-1,-1,-1,5,11,4,1
1693678178773272100,1,-2,0,1,-1,7,8,1
1693678178791514000,5,-1,1,1,2,2,-5,1
1693678178793532700,2,1,2,0,3,-4,4,-3
1693678178794510100,5,0,1,-2,-4,-7,-1,2
1693678178795511700,-7,-2,-2,-2,-2,7,-1,-1
1693678178807486700,-4,-5,-7,-6,-1,12,37,-4
1693678178809488000,6,1,0,-1,0,-2,-59,-1
1693678178810483200,-5,0,3,1,-13,-34,-17,-6
1693678178812483300,-5,0,-3,1,1,4,1,-1
1693678178829170800,-4,-3,-1,0,2,22,2,3
1693678178831193500,-2,-2,-3,-3,-1,5,23,0
1693678178832190700,6,0,0,1,2,2,4,1
1693678178833195100,2,-2,-3,-3,-1,1,-7,-1
1693678178851629300,3,0,3,1,0,-14,-17,0
1693678178854567700,-2,-1,0,-1,-2,1,19,-2
1693678178854567700,1,-1,-1,-3,-1,7,-8,-1
1693678178855567700,-1,0,-3,-1,-1,-7,12,2
1693678178867368000,-1,1,2,1,-1,0,-6,0
1693678178869366900,0,-1,-1,0,-2,4,-4,-2
1693678178870365400,-2,3,5,3,2,1,24,1
1693678178871364700,0,-1,-2,-2,3,4,-16,-1
1693678178889170900,0,-1,-3,-3,-8,-9,-4,-2
1693678178891196500,-4,-5,-2,-2,-1,-2,10,-2
1693678178892175500,0,-3,-8,-4,-4,0,-10,-1
1693678178893173700,0,1,7,2,2,9,16,-1
1693678178911571600,3,0,1,-1,4,6,-10,2
1693678178913572100,0,0,-2,-2,-4,-17,23,1
1693678178914568100,-3,-2,-2,-3,0,8,2,-2
1693678178915567200,2,0,-1,0,-1,-4,1,1
1693678178927248100,0,-3,-2,0,-1,-6,-14,-2
1693678178928247300,2,1,-1,-2,0,-1,4,-1
1693678178929268500,-2,-1,0,0,1,4,0,0
1693678178930267700,-1,-1,-3,0,-1,-6,-3,-1
1693678178948970600,-1,2,3,2,-1,0,26,0
1693678178950996900,0,1,3,2,4,9,-67,-2
1693678178957349800,-4,-3,-6,-4,0,-12,1,-3
1693678178958343400,-2,-4,-2,-4,-10,1,0,-1
1693678178971512500,-2,-4,-4,-1,1,1,4,-2
1693678178973513400,2,1,1,2,1,-5,0,0
1693678178974512800,1,1,2,2,5,13,-1,0
1693678178975512400,-1,1,-1,-3,0,-2,0,-2
1693678178996394200,0,0,-4,0,3,4,4,1
1693678178998376900,1,0,-1,-1,-12,-21,12,0
1693678178999397500,1,0,-4,0,-1,-12,-10,-2
1693678179000395900,-5,-1,2,1,2,16,15,-1
1693678179001372900,1,1,1,0,-4,-1,-21,0
1693678179002395900,-4,-1,-4,-3,1,5,8,0
1693678179009437400,3,-3,1,-2,-2,3,3,1
1693678179011428600,1,-2,-5,-2,-1,-13,-12,-4
1693678179025129500,-1,3,2,1,1,1,4,0
1693678179026129100,-3,1,3,3,1,6,26,0
1693678179028128000,2,0,1,-1,-6,-9,-12,2
1693678179029125800,20,2,-3,-1,3,0,4,-2
1693678179039845600,-34,-8,-4,-3,2,0,-1,3
1693678179041850400,-3,-3,-2,-3,2,10,17,-1
1693678179046140300,21,1,-4,-2,-2,-13,-3,3
1693678179048141500,-45,-1,8,1,-1,0,10,-9
1693678179061526400,22,0,-2,0,-5,-9,-34,-8
1693678179062541300,-21,-3,1,1,0,-3,12,1
1693678179068495900,-16,1,3,1,5,6,2,1
1693678179070499500,17,-1,-2,1,6,15,-12,5
1693678179084546600,8,2,-1,-2,-5,-6,4,-2
1693678179085547300,1,-2,-6,-4,-1,-2,1,-3
1693678179087545900,11,0,-5,0,1,18,-10,-4
1693678179088544000,-5,1,4,2,-1,-1,29,5
1693678179100225900,-4,0,1,0,2,13,-31,-1
1693678179101244900,10,1,-1,3,-3,-21,-6,-1
1693678179106381900,-7,-7,-4,-7,-11,-10,-13,-1
1693678179107407300,4,-3,-6,-1,-2,-7,-10,-2
1693678179121573500,-6,0,4,1,5,9,11,2
1693678179122573600,4,-1,-4,-4,-7,-2,1,0
1693678179128481500,-2,-1,-1,1,4,12,6,-3
1693678179129450800,-6,-2,-1,-3,-3,-20,5,1
1693678179144985700,7,-2,-4,-4,-2,-6,-16,-3
1693678179145984600,-2,-1,0,-2,-1,0,-4,-1
1693678179147006500,-4,-3,1,2,6,12,14,1
1693678179148001300,6,0,0,-4,-6,7,-9,0
1693678179160977100,1,-3,-7,2,3,12,19,2
1693678179162975500,-3,-2,3,-5,-2,-9,-5,0
1693678179165973400,-7,1,-3,-4,-3,-4,24,-3
1693678179167972700,2,-1,0,-2,-1,-6,-60,-1
1693678179180965500,20,-2,-2,-3,-4,-7,0,0
1693678179182963500,-28,-6,-9,-3,-1,9,-2,-4
1693678179188960300,-4,-1,7,9,11,7,11,1
1693678179189960100,1,-1,4,3,-9,9,8,-1
1693678179203950900,0,1,-4,-3,0,-10,18,-2
1693678179205952900,15,-2,2,-1,1,-2,-18,-1
1693678179206950200,-5,-1,-1,-4,-1,-3,1,-1
1693678179207948800,-3,4,-1,1,1,-12,1,-1
1693678179220157400,-6,-3,-2,-1,-2,1,-2,-1
1693678179221154400,6,1,0,-1,2,13,15,1
1693678179226392800,-3,0,-2,-2,-5,-10,-9,-1
1693678179228397700,4,-2,-3,1,2,1,4,1
1693678179240953100,-5,0,5,-5,-5,-12,2,-2
1693678179242973600,1,-1,-2,3,3,0,0,-1
1693678179249127600,0,5,4,3,-2,0,-5,-5
1693678179250126600,0,1,-6,-1,2,0,20,4
1693678179264218400,-3,1,4,-3,3,1,-12,-4
1693678179265217600,0,-1,0,12,0,1,8,0
1693678179266220500,1,-12,-12,-26,-5,-6,-1,1
1693678179268234600,-8,-3,1,19,-1,0,15,-6
1693678179286601600,1,9,16,5,0,-4,3,2
1693678179288542600,2,-2,-2,3,-1,-1,-12,-1
1693678179290564700,3,2,4,7,3,3,8,0
1693678179291563400,1,-4,-4,-7,3,-5,-4,-1
1693678179309670100,-7,-7,-14,-7,-4,-1,-28,-2
1693678179311692900,-2,-2,-8,-11,-3,0,-3,-2
1693678179312695300,-1,-6,-5,1,-7,2,-1,0
1693678179313694500,0,1,-3,-4,0,-4,-8,0
1693678179324491100,-1,4,4,9,9,3,3,-1
1693678179325486400,0,-1,2,-9,2,11,14,1
1693678179327485300,-3,-1,-7,2,-8,-12,-9,-1
1693678179328502500,-3,-2,2,-4,-4,-6,-17,-3
1693678179347357400,-1,0,-7,-4,5,4,34,1
1693678179348352800,-1,-5,-2,5,5,-2,-14,-2
1693678179349352800,-4,-9,-12,-4,-6,4,0,-6
1693678179351354400,3,2,-7,10,2,1,-1,0
1693678179362591500,-2,1,9,-2,-6,-1,11,-1
1693678179363577800,2,-2,-3,-1,2,-2,1,1
1693678179368525600,2,7,-3,-16,17,2,-7,1
1693678179370467300,2,-6,24,57,-5,-2,10,-1
1693678179385553500,-6,-9,-41,-19,-5,-1,-12,-7
1693678179387530700,-1,15,46,23,-3,-6,2,7
1693678179388529500,0,1,5,-4,7,5,-2,0
1693678179389529100,-3,-5,-17,-19,13,-1,-8,-3
1693678179406605600,-2,-1,-1,-3,-15,-12,-5,0
1693678179408563900,-1,-1,-4,-7,4,7,-4,-2
1693678179409567000,-1,3,6,23,-2,-18,2,-1
1693678179410565900,0,2,3,-21,0,4,0,3
1693678179422353800,-1,-1,11,5,6,-7,-4,0
1693678179423352100,1,1,-2,-27,-9,10,13,0
1693678179428517300,0,6,25,34,1,2,-8,-2
1693678179429542800,-1,-6,-22,-19,-1,2,0,-1
1693678179444414100,0,1,6,14,1,-13,-2,-1
1693678179445433100,3,-3,-8,-13,14,15,-2,1
1693678179451570500,0,4,7,6,-12,0,29,4
1693678179452569700,1,3,14,5,-21,4,-55,-4
1693678179467482200,-1,-5,0,-13,-6,-5,-6,-1
1693678179468485900,-1,-1,-4,13,11,3,5,-1
1693678179469483400,-1,-4,-18,-30,-8,11,-7,-2
1693678179470482500,1,2,4,7,12,-15,19,3
1693678179482573300,-2,-1,3,9,-2,40,28,1
1693678179483574200,-4,-6,-17,-14,-11,-29,-42,-5
1693678179488247800,-1,1,4,-4,-1,-8,-19,-3
1693678179490251200,-2,-2,-11,-6,-7,-2,10,-1
1693678179503312200,2,4,17,1,0,-22,-4,1
1693678179505272400,2,2,3,12,9,39,32,-21
1693678179511247600,-1,-3,-2,-4,4,3,15,24
1693678179512266000,3,0,-1,-3,-2,-8,-20,9
1693678179527498900,-10,-5,-12,-4,-2,48,-27,-20
1693678179529508400,13,5,5,11,5,-4,79,31
1693678179530500400,33,2,2,4,14,20,-83,-59
1693678179531498500,-104,-15,-9,-14,-7,-66,25,-17
1693678179542512700,-95,11,2,4,23,53,35,53
1693678179544533600,42,-4,-6,-2,-23,-53,-20,66
1693678179549100500,-58,2,-1,0,7,28,27,0
1693678179550114900,-16,-17,-9,-12,2,-29,-1,5
1693678179563499000,-79,-6,8,2,-12,-35,-67,-88
1693678179565473100,-64,12,2,9,22,30,48,23
1693678179571376100,4,-19,-14,-14,-25,-1,-17,14
1693678179572393300,52,8,1,-7,7,50,10,-6
1693678179586722700,41,-3,2,22,-1,-24,25,32
1693678179588736100,-18,-3,-9,-61,0,-11,-38,-52
1693678179588736100,7,8,16,81,-12,-7,5,0
1693678179589734200,8,7,17,15,-4,18,9,7
1693678179602375900,45,-3,-28,-64,-5,-12,8,1
1693678179604393100,7,-15,-46,-45,5,-1,-26,-14
1693678179608434300,-18,12,50,51,0,-21,-4,-11
1693678179610393600,12,1,-23,31,4,7,16,11
1693678179623500900,16,-2,-7,-86,-16,-20,-11,-1
1693678179625509600,-21,-2,29,63,7,-2,-22,-21
1693678179631567100,0,1,5,-71,-33,-4,26,17
1693678179632566900,-3,2,12,22,2,-2,-7,-16
1693678179646465600,13,-4,-17,28,3,3,3,1
1693678179649495800,-8,-17,-47,-46,5,-1,-6,-7
1693678179650482500,8,-5,-26,-25,4,-14,8,3
1693678179651467700,5,9,26,20,-10,1,-7,-2
1693678179662509700,5,-10,-11,-16,-16,-1,1,0
1693678179663509700,14,8,14,8,-10,-4,1,2
1693678179668495400,-7,-5,-10,23,8,-6,4,-1
1693678179670502100,1,0,-7,-30,6,8,-4,-1
1693678179683469600,5,3,13,36,10,-5,5,6
1693678179685431100,-4,-3,2,16,-6,-3,-9,-11
1693678179691508700,3,3,-5,-32,10,5,4,1
1693678179692526300,-3,-6,-15,-18,-12,-36,6,0
1693678179706480800,8,7,19,18,6,43,34,-41
1693678179708503900,6,8,15,26,-8,-12,-36,17
1693678179709500900,-19,-3,-12,-4,13,16,-96,-35
1693678179709500900,-82,-12,4,-9,3,58,-33,105
1693678179722399000,26,1,-7,15,-24,-87,78,111
1693678179724377300,73,14,7,5,6,12,-22,-101
1693678179728417300,-78,-27,-3,5,19,10,127,-54
1693678179730384800,92,31,3,-7,14,27,-4,44
1693678179743505700,-128,-17,3,-5,-35,-44,43,21
1693678179746531100,50,7,-6,-6,-12,-13,-105,12
1693678179751516900,-21,-5,2,-5,-10,-64,74,-2
1693678179752519400,78,-5,4,0,-9,-39,-51,-53
1693678179767405000,1,-4,-11,3,16,25,0,17
1693678179768407400,-39,5,12,13,-4,-14,6,19
1693678179769404500,-11,-1,-6,5,7,14,-42,4
1693678179770404500,-24,-3,-9,-6,-6,5,14,9
1693678179791508400,38,13,3,3,9,17,-40,-23
1693678179792506600,-27,-7,-3,-29,-12,-15,-5,-19
1693678179797247300,40,18,18,16,4,15,-3,31
1693678179799263300,-9,-16,-49,-38,-10,14,25,-8
1693678179804243400,29,23,88,60,23,-8,-57,-36
1693678179806243100,-30,2,21,72,4,15,61,4
1693678179819181100,22,-2,-40,-41,-7,-6,-14,34
1693678179821216200,-13,0,-2,28,0,-4,8,-28
1693678179827301600,-5,-4,-9,-20,1,8,-18,-23
1693678179828297900,-16,-14,-30,-52,-2,-2,16,24
1693678179829296900,10,-3,-5,3,4,3,-12,7
1693678179830295900,-19,3,28,61,3,-14,-5,-30
1693678179849105600,10,-7,-10,-29,-7,13,-7,-3
1693678179851113100,-2,0,7,10,-1,5,17,18
1693678179853107900,4,-5,-15,-35,-30,-8,-25,-5
1693678179854110000,-18,-2,-1,-14,8,3,21,-15
1693678179863412300,9,1,-5,12,16,7,-7,7
1693678179865351900,-10,-2,10,2,-8,-1,10,2
1693678179871422300,-4,1,-3,1,1,2,-1,0
1693678179873442800,-4,7,15,0,7,0,16,4
1693678179894551400,7,-1,-6,10,3,4,-44,-5
1693678179895571600,-9,-8,-18,-16,0,13,5,-4
1693678179896573500,3,4,2,6,1,-3,-2,3
1693678179897551300,-4,-1,8,-14,2,5,17,4
1693678179909169900,2,-3,-15,1,7,3,4,-6
1693678179911195400,28,1,5,3,-4,5,-9,8
1693678179912194500,-39,0,9,1,3,-7,-5,5
1693678179913194000,-22,-4,2,-10,5,6,7,-10
1693678179932504700,2,-4,-16,-3,-13,-19,-4,-7
1693678179933501900,-21,-4,-3,-12,-6,-12,9,5
1693678179935500800,28,0,8,16,1,12,-5,-1
1693678179936500300,10,2,-9,-15,0,-13,11,-2
1693678179954501400,-6,-1,-5,10,0,10,25,1
1693678179955521300,-3,-3,-11,-5,-1,-9,-62,-4
1693678179956520600,8,-2,-6,3,-7,-3,-6,-1
1693678179957500600,-10,0,1,-9,-1,6,1,-6
1693678179969117600,9,1,-5,-4,3,6,8,2
1693678179971140400,-3,0,20,-7,-9,-10,23,1
1693678179972142300,0,1,7,29,8,7,-2,2
1693678179972142300,1,-1,-2,-6,-5,4,-13,1
1693678179991418500,-1,-6,-11,-18,-9,-5,-5,-5
1693678179994376700,-8,-1,-11,-5,4,7,6,-3
1693678179995396100,1,-1,6,-5,-1,-2,-4,4
1693678179996395500,5,4,11,4,0,-9,0,-1
1693678180014356100,-4,-1,-7,-1,0,1,-9,-3
1693678180016355700,-9,0,2,10,-1,-3,12,-2
1693678180017354700,8,1,-4,-16,-8,1,2,4
1693678180017354700,-2,0,2,8,-2,-4,-5,-4
1693678180030173800,-4,-6,1,3,19,9,29,0
1693678180031175900,-1,3,-9,4,-10,-4,-53,-4
1693678180033189400,4,7,15,-7,0,-6,8,1
1693678180034193400,1,-1,5,-23,-2,2,-8,-3
1693678180051750500,-2,1,0,27,-3,2,6,0
1693678180053771900,2,-6,-13,-13,12,4,29,4
1693678180054749400,-1,-5,-17,10,20,5,-7,-3
1693678180056774600,-1,1,-5,-5,-15,-20,-5,-1
1693678180074504700,4,3,20,10,0,1,-13,0
1693678180075499000,-3,1,-1,0,2,3,16,-1
1693678180077507000,-5,-6,-7,-28,-10,-3,-11,-1
1693678180078499300,0,-1,-10,14,11,4,4,-1
1693678180089403300,0,0,-8,-8,1,2,-9,-1
1693678180090403500,-4,2,8,9,-6,-5,5,-2
1693678180091402500,1,0,-1,10,8,-2,4,2
1693678180092402400,-5,-5,-12,-16,-20,0,-6,-2
1693678180111573500,1,4,8,16,31,0,-10,0
1693678180113515000,-5,-5,-5,-61,-37,8,9,-1
1693678180114513300,3,4,7,46,-22,-12,1,1
1693678180115512500,0,-2,10,0,6,2,-2,-4
1693678180134421500,-1,-1,-4,-11,-11,-4,-8,-2
1693678180135441400,-2,-1,-2,14,21,4,16,0
1693678180141651500,0,0,0,-11,13,0,-10,-2
1693678180142657900,-3,0,-1,8,-4,-3,-6,-3
1693678180149076100,0,-1,-3,-5,-5,3,1,0
1693678180151081700,1,0,6,10,-8,-4,5,-1
1693678180152078700,0,-1,-1,-12,-6,-1,3,-1
1693678180153078200,-1,0,2,5,7,2,-3,-1
1693678180172546200,-1,-1,-6,-7,-1,0,-1,-1
1693678180173546500,-1,0,-4,11,1,2,25,0
1693678180174545300,0,-4,0,-12,-1,-5,-39,-4
1693678180175544600,0,1,-1,-3,2,0,1,-1
1693678180194499300,-2,-2,-3,-7,-9,-3,-4,-3
1693678180196500500,-4,1,4,8,2,0,15,0
1693678180197497600,0,-1,0,-3,5,8,1,2
1693678180198516500,-2,-1,0,-1,-3,-13,0,-4
1693678180217043100,-3,0,0,-7,-8,-20,35,4
1693678180219065900,8,-2,-3,13,9,29,-88,-36
1693678180220067800,1,2,7,-4,-1,-5,53,51
1693678180221067600,-10,-6,-1,2,1,13,9,-15
1693678180231537200,-52,-4,-6,-9,-18,-23,-19,-47
1693678180233537400,-44,-6,-6,-4,1,-15,-16,53
1693678180234536100,-39,-14,-14,-7,-5,-21,21,21
1693678180235535300,-22,7,3,-5,8,41,51,-9
1693678180254546700,87,6,9,11,4,9,-29,2
1693678180255545500,10,5,6,9,1,-10,-26,-7
1693678180256565600,-16,2,3,1,6,20,-3,-20
1693678180257564200,8,-5,-10,-11,-7,-16,-17,18
1693678180269170500,-8,-7,-10,-7,-2,2,-4,-4
1693678180271173900,1,8,5,9,1,2,29,-11
1693678180273173200,44,3,6,-2,1,-2,-13,1
1693678180273173200,4,-3,-6,-2,-2,-8,-13,-9
1693678180291872400,-18,0,1,-3,-2,9,9,6
1693678180294892500,20,-5,-2,-5,-1,-9,13,4
1693678180294892500,-21,-3,-9,-4,-1,-1,-4,-17
1693678180296871900,-4,1,8,4,-1,-6,-5,4
1693678180314222400,4,-1,-1,-2,0,15,-5,9
1693678180316210900,-18,-2,1,2,0,-4,13,1
1693678180317233800,8,1,-1,-6,-4,-3,-11,-14
1693678180317233800,5,1,-2,-3,-1,2,-10,1
1693678180328470700,-2,0,0,-1,-5,-19,-2,13
1693678180329506300,3,-2,-1,-1,-1,2,13,-8
1693678180336417900,7,4,1,-1,0,1,0,-8
1693678180338425100,-1,-8,-6,-3,-4,-6,-1,4
1693678180351445300,-11,-3,-4,-3,0,6,-9,2
1693678180353424800,-1,2,4,2,3,0,9,3
1693678180355424600,5,-2,-6,-1,-2,-8,-2,-5
1693678180355424600,-4,-3,0,2,4,7,12,2
1693678180374506900,-1,0,-1,0,1,-1,7,-1
1693678180375527900,3,0,-2,-1,0,1,-1,1
1693678180377505900,1,-5,-3,-2,0,4,-4,-2
1693678180378504500,2,-1,-3,-12,-2,-6,8,-1
1693678180388494800,-4,3,12,14,3,2,2,1
1693678180390519200,7,-1,-1,0,-2,-5,11,-1
1693678180397418100,-6,0,-1,-3,-2,2,4,-4
1693678180399436700,3,2,-2,-1,-3,-5,-17,1
1693678180411514500,21,-2,-10,-7,-3,3,4,0
1693678180414505300,-23,-2,5,3,1,1,4,-2
1693678180419220300,3,3,1,-1,1,0,-26,-5
1693678180422240500,-2,-1,1,4,1,-2,-6,0
1693678180434501100,5,2,-1,-4,2,6,2,5
1693678180436505200,5,-3,-7,-4,-1,-3,0,-4
1693678180437500800,-3,-1,-5,-3,-1,2,4,-3
1693678180438500000,7,0,1,0,0,-1,-1,2
1693678180457345600,-16,-3,-1,4,0,5,19,1
1693678180459348400,4,2,0,-1,-1,-2,3,2
1693678180461350800,-10,-4,-3,-5,-3,-4,-6,-4
1693678180462349200,3,2,3,3,1,0,-12,-2
1693678180471632400,-3,0,-5,-3,0,0,12,-1
1693678180473594800,1,0,4,1,0,-5,-2,-4
1693678180474570000,6,-1,-2,3,1,3,-3,5
1693678180475569500,-2,-1,0,-1,0,1,14,-2
1693678180494373700,-4,-1,-3,-4,-2,-3,-23,-1
1693678180495372100,3,1,1,0,0,-4,-3,-1
1693678180496375600,-2,-1,-4,-3,-2,1,4,-1
1693678180497393100,-3,0,-1,-2,0,-1,0,-1
1693678180510415400,-5,0,7,1,3,2,4,2
1693678180512418100,2,-1,0,0,0,-4,-26,0
1693678180516470700,0,2,4,5,0,2,15,0
1693678180518430700,-2,-4,-11,-13,-8,-7,-4,-1
1693678180531624800,0,2,2,-1,1,-2,10,-1
1693678180533651100,0,0,6,3,0,0,-17,-4
1693678180534649600,-1,0,0,1,-1,-1,2,1
1693678180535627800,1,-1,-2,0,0,-5,-11,1
1693678180554330400,-3,-3,-6,-3,-2,0,18,-1
1693678180556332700,-2,0,0,-6,2,9,-46,-4
1693678180557329000,2,4,5,3,-2,-3,1,-1
1693678180559328100,-2,-2,1,5,0,5,-5,-1
1693678180578317300,-2,-1,0,1,-2,-3,-4,-1
1693678180579319500,-2,-3,-13,-5,-3,0,25,1
1693678180580318100,2,0,3,2,1,1,-5,-1
1693678180581317600,-1,2,12,14,1,-4,1,-1
1693678180591633300,-2,-3,0,6,-2,-4,-22,-2
1693678180594573200,1,2,5,1,0,-1,13,2
1693678180595571300,-1,-2,-7,-8,-1,-1,0,-3
1693678180596570800,0,-1,-9,-4,-2,0,11,-1
1693678180614562800,-1,-1,-4,-11,1,-4,-13,-2
1693678180615548000,0,-1,3,9,0,2,19,0
1693678180616564000,-1,-5,-5,-1,-2,-6,-14,-2
1693678180617544100,-2,1,2,-4,1,2,2,-1
1693678180628371300,1,3,3,4,1,6,16,0
1693678180629373100,-3,-5,-6,-7,-4,-6,-42,-3
1693678180637366300,-2,0,-7,-6,-2,1,6,1
1693678180639365100,0,-4,1,-8,6,9,-11,-3
1693678180651380400,1,4,4,12,-6,-11,7,1
1693678180653357500,-1,1,2,4,-1,0,22,1
1693678180654356800,0,0,1,4,-1,1,5,-1
1693678180655356100,-1,-3,-9,-8,-1,3,2,2
1693678180674344500,0,1,-1,-7,2,1,-16,-3
1693678180675346600,0,-4,-5,-4,-2,-8,-16,-4
1693678180677343100,0,-2,-7,-8,-6,-8,-9,-2
1693678180679341600,1,1,0,-2,0,-3,7,0
1693678180697951900,-3,1,11,13,1,4,11,0
1693678180699969200,-1,-3,-11,-4,-1,-5,-12,-1
1693678180700950500,1,-1,7,1,1,2,6,0
1693678180701952300,-2,-4,-6,-2,-5,-3,-6,-1
1693678180711871400,0,-1,-3,2,0,3,15,2
1693678180713873100,0,5,3,-6,0,-1,-47,-4
1693678180714871900,-2,-3,-3,-2,-1,2,5,0
1693678180715870700,-1,-3,-1,8,-2,-1,-7,0
1693678180734427200,-3,-5,-2,-17,2,2,-11,-5
1693678180736424600,0,2,-2,6,-3,-3,37,3
1693678180737422600,1,1,6,-3,2,7,-3,-1
1693678180738422100,2,4,9,14,-7,-26,-10,-1
