timestamp,EMG_s0,EMG_s1,EMG_s2,EMG_s3,EMG_s4,EMG_s5,EMG_s6,EMG_s7
1693678310234166100,-1,1,1,1,-2,-1,0,0
1693678310236166500,2,0,0,2,4,1,0,1
1693678310238162600,-1,-2,0,-1,-3,-3,0,0
1693678310239162400,0,-1,-1,0,-1,-2,-1,1
1693678310253154300,-5,-4,-5,-9,0,2,1,-2
1693678310254153900,6,9,10,18,10,7,0,1
1693678310256151800,-2,-1,-4,-7,-9,-6,-2,-2
1693678310258151400,1,-2,-3,-2,2,-4,-1,1
1693678310259151200,17,5,3,-2,-3,0,1,13
1693678310260150600,10,-1,-8,-17,-10,-2,-1,-9
1693678310268147200,-44,-14,1,16,15,3,-2,-8
1693678310270144600,0,6,-1,-7,-16,0,-2,-2
1693678310271144400,-2,-4,-9,-5,-2,-9,1,5
1693678310272143900,25,2,7,17,23,11,2,25
1693678310274144200,31,4,-4,-11,-22,-3,0,-9
1693678310276141400,-66,-8,-13,-11,3,-5,-10,-48
1693678310278141200,-10,4,25,14,-8,-5,4,5
1693678310281139200,-11,-4,-7,-5,-34,-5,1,-5
1693678310299130800,-2,-6,-27,-13,38,4,-3,16
1693678310309121700,27,19,68,19,-21,7,7,17
1693678310310121800,0,-9,-22,-23,-40,11,-6,-17
1693678310311121300,-13,4,12,-8,-78,-32,2,2
1693678310319118100,13,10,35,24,73,-45,1,4
1693678310320115500,8,-4,-5,5,-17,53,-1,1
1693678310321115400,-4,1,4,22,99,10,2,-3
1693678310322114900,-1,-5,-9,-8,-65,-39,-5,-5
1693678310342103500,-2,-2,-11,-7,-63,-41,-2,-3
1693678310343102600,6,-2,-3,3,87,50,3,2
1693678310345103100,-2,0,7,7,35,39,3,2
1693678310346100700,-5,-3,-10,0,21,-19,1,-4
1693678310366092700,2,3,3,5,-4,45,3,-3
1693678310369088400,-3,-9,-16,-13,80,-37,-6,6
1693678310370088000,-1,-5,-13,-25,-128,-1,-6,-6
1693678310372086000,-5,0,0,2,82,15,1,-5
1693678310386078100,-3,0,7,1,-24,4,-2,1
1693678310387078300,7,-2,-7,-1,9,-12,4,-20
1693678310419059400,2,-9,-7,10,59,3,1,0
1693678310421058300,-10,-2,0,-7,15,-12,-5,-10
1693678310423058800,0,19,4,5,16,7,6,11
1693678310424058100,-1,5,10,18,10,4,-5,-15
1693678310425056900,-2,1,-4,-8,-28,-11,-2,-3
1693678310427054400,5,-4,-4,5,94,13,5,2
1693678310428054600,3,-2,-4,-10,-39,-11,-20,10
1693678310431053900,-2,2,1,-5,26,1,2,2
1693678310435051100,-4,-2,3,0,-7,-5,4,-4
1693678310436049300,-25,-16,-6,0,-11,3,-3,-14
1693678310446044700,5,2,-3,3,28,9,22,18
1693678310450045500,22,9,7,5,-17,-10,-35,-19
1693678310461035700,-40,-33,-1,4,1,3,3,-32
1693678310467032200,-32,-24,-7,-19,-102,-2,-13,-15
1693678310470029800,58,46,-10,-1,78,-26,-5,66
1693678310472029000,-43,-38,-9,-10,-49,5,23,10
1693678310477028200,-41,43,-2,-3,41,5,6,13
1693678310478026800,78,47,27,16,-7,9,12,-22
1693678310492018700,-97,-98,-18,-5,3,14,-6,-15
1693678310494016700,52,46,4,14,55,19,-6,-2
1693678310495016300,-18,37,4,8,-52,-41,-39,-31
1693678310499014600,16,-25,-11,3,22,44,-36,72
1693678310521000700,-3,15,11,-3,-56,31,59,13
1693678310522999100,34,-11,-34,-2,-66,45,33,30
1693678310539989900,-106,-57,55,19,78,-67,16,-17
1693678310540989500,51,74,-8,-25,-29,-36,24,94
1693678310541990700,69,20,3,9,-5,9,-79,-72
1693678310542988200,-128,-81,-23,-15,27,-13,26,-43
1693678310545986000,16,42,-21,-9,-14,6,-45,-24
1693678310549986500,-61,-23,16,17,43,48,28,69
1693678310551983600,-24,-15,-13,-14,-34,18,-24,-41
1693678310553981900,94,42,-7,-12,6,-33,73,40
1693678310555981100,77,-16,-25,-20,-39,85,0,-2
1693678310557981000,-46,-28,44,26,0,-90,-20,-44
1693678310565977100,-35,6,0,16,71,34,-35,19
1693678310567975400,-24,0,4,-12,-11,-1,-16,-18
1693678310573969900,13,-21,-23,-4,12,15,35,34
1693678310575969400,17,12,-20,-3,24,9,-12,-40
1693678310582968300,-22,-29,30,11,17,-11,34,-16
1693678310584965400,-83,-47,-4,8,-37,-5,-19,6
1693678310589961900,107,91,3,-14,-20,-1,-14,21
1693678310590960800,-19,-41,-14,-5,-23,-5,11,-9
1693678310604958300,-44,3,-3,-8,-30,-30,2,-39
1693678310606951200,-42,-14,15,6,26,-11,-37,-1
1693678310608952500,-17,-7,8,10,11,14,20,-14
1693678310609951300,12,12,-8,-10,-67,6,-6,-12
1693678310617945200,3,-8,-7,-8,-14,-27,6,1
1693678310619946600,4,10,1,-11,20,-2,-24,-24
1693678310626940500,-7,-25,4,2,-18,1,9,15
1693678310628939500,15,24,-3,5,32,2,-1,-13
1693678310642931000,37,-8,-3,-4,-2,4,20,-24
1693678310644930100,-12,13,3,-5,-25,-17,-16,33
1693678310651926300,53,-2,0,-2,-10,-10,3,51
1693678310655927700,-4,-14,-4,-6,-1,4,15,-38
1693678310672913700,-28,5,-7,-6,-10,-5,18,-16
1693678310674913500,13,16,6,5,30,2,-40,-43
1693678310675912300,-28,-19,-6,-1,-17,-5,10,15
1693678310678910700,7,-17,-16,-15,-33,13,7,-15
1693678310681909600,23,23,17,20,29,7,-19,25
1693678310685907100,17,10,-1,-17,-70,-39,-4,9
1693678310694901200,-34,-23,-3,-5,33,19,-2,-11
1693678310698900300,5,7,5,20,50,93,23,-11
1693678310703895900,5,0,-4,5,28,-55,-8,50
1693678310706895500,-22,-11,-8,-16,-36,54,5,-69
1693678310724883900,4,-3,-2,-8,-94,-85,-14,-2
1693678310726884000,-8,4,4,0,28,-29,-15,-24
1693678310732880900,-3,2,-1,6,96,90,20,4
1693678310736877700,16,0,-2,7,2,-47,10,53
1693678310737876700,1,-4,-2,-15,3,55,11,-24
1693678310738875700,-21,-7,-7,-15,-9,5,-11,3
1693678310749872400,-6,0,-3,7,-49,-13,-4,-15
1693678310751868600,24,11,-2,20,68,1,5,1
1693678310753867600,-6,5,25,35,69,76,11,9
1693678310754866200,-20,-14,-16,-32,-60,-68,-14,-10
1693678310769860100,5,-1,-10,-26,-50,-9,-2,-3
1693678310771857400,10,5,-3,-12,-40,27,12,4
1693678310773856600,-5,-1,-2,5,17,-47,-8,-6
1693678310775856400,-2,3,6,-6,-6,24,5,6
1693678310791846600,3,-5,-2,14,20,-25,5,-4
1693678310792846800,2,1,-4,6,33,4,1,7
1693678310807838900,2,6,11,14,84,29,9,5
1693678310809835000,1,-3,-2,-12,-42,-44,-30,-36
1693678310811833400,-4,6,-3,-8,20,15,9,20
1693678310812833600,-5,1,11,13,44,-25,-2,-4
1693678310816831600,-1,-5,-7,-9,-55,3,-1,6
1693678310818831700,1,2,-6,4,61,-1,6,3
1693678310821828700,-3,-4,1,-10,-34,-43,-9,-8
1693678310823828400,6,3,6,2,-7,5,-1,-7
1693678310859806700,-3,-4,-7,1,35,0,-7,-7
1693678310861805300,-6,2,2,8,11,-7,-3,33
1693678310864805400,-2,-4,-3,-6,-19,21,-1,-8
1693678310867802500,4,1,5,2,34,22,5,7
1693678310869802000,-4,-6,-8,-10,-15,-11,-6,-9
1693678310871800000,-1,2,3,11,-55,-2,1,-2
1693678310882794100,1,0,0,-8,64,22,3,1
1693678310885793800,2,-1,-2,-3,7,12,-2,1
1693678310904780800,-2,-6,-5,-3,-20,-7,-5,-3
1693678310906781600,-3,2,2,10,38,2,1,-2
1693678310908778500,2,1,5,16,-15,1,7,-20
1693678310909777500,8,0,0,-16,-73,-9,-1,23
1693678310911776400,-7,-8,-8,-4,23,-14,-6,-13
1693678310916776700,-4,-1,-2,-1,6,42,6,9
1693678310918774700,-1,-2,-4,-10,-39,-10,2,-22
1693678310920771600,1,-1,2,6,39,7,-6,-6
1693678310935764600,0,-1,1,6,42,37,-2,3
1693678310936764200,1,-2,-3,-14,-100,-86,-4,-2
1693678310938760300,-2,0,-3,-1,20,14,8,-6
1693678310939760900,-2,-3,2,5,97,1,-34,-45
1693678310950754100,0,0,-7,-6,-63,-26,0,33
1693678310951753400,-6,-7,2,4,36,32,6,6
1693678310952753500,2,2,2,3,4,4,6,3
1693678310953752800,-1,5,5,6,-23,-41,20,-2
1693678310971742300,-6,-8,0,-3,-20,-8,-17,1
1693678310973740900,3,-4,-13,-7,52,16,-5,-18
1693678310975741400,-37,-4,8,6,-30,-14,-15,15
1693678310976741100,76,7,-2,13,35,24,11,-5
1693678311004723500,-92,-54,-13,-23,4,-23,-4,44
1693678311007722500,94,75,19,22,26,25,12,-25
1693678311009721800,-104,-46,-10,-6,-39,-11,0,-76
1693678311011720700,91,70,2,4,38,14,3,39
1693678311013719600,69,28,21,15,-83,-20,-7,77
1693678311017719000,-128,-58,-30,-41,34,-4,26,0
1693678311026711000,127,1,3,17,2,-3,-28,-48
1693678311027710500,13,6,22,-2,-21,8,31,127
1693678311028710100,24,5,-10,5,42,6,48,-22
1693678311033707700,-28,-8,13,26,-1,31,-11,-11
1693678311034708000,-36,18,10,6,38,17,19,75
1693678311036706600,-29,-17,-31,-64,-118,-75,-5,-34
1693678311063690000,-34,-11,35,25,127,22,-11,-78
1693678311067687800,-25,28,4,32,-36,29,-16,-6
1693678311069686400,55,-10,37,1,65,-3,5,12
1693678311070685800,-31,-22,-19,6,-25,5,-30,17
1693678311078681600,-24,-21,-24,-29,42,-22,-12,-62
1693678311084678600,26,-23,-26,-1,99,18,28,23
1693678311085678500,-51,-13,-16,-24,-34,-20,-21,-19
1693678311087677000,-55,1,9,9,19,14,3,-7
1693678311088675400,107,43,-8,-4,-45,2,5,32
1693678311089674500,50,-16,8,5,18,-13,-8,-12
1693678311100670700,-49,2,-14,-9,-23,-4,-10,-10
1693678311101667800,-47,-2,-16,-3,46,2,9,-32
1693678311106664700,-43,17,22,23,-10,10,-14,-19
1693678311108663700,15,23,30,-2,-37,-22,-5,18
1693678311109663100,94,5,-5,-9,-10,-14,19,84
1693678311111661900,-49,-29,0,0,-12,10,6,-33
1693678311136648100,-107,-8,-26,-15,-10,-7,-16,-28
1693678311138649500,81,-16,8,3,-2,4,4,5
1693678311141645800,69,55,-2,-3,-21,-5,-5,59
1693678311143646100,-50,-2,-3,5,65,-2,-9,-17
1693678311145643600,-5,-7,-6,-16,-103,0,1,11
1693678311150644200,-91,-8,4,-2,2,-13,-9,-16
1693678311153638400,-35,-11,-9,-3,13,4,-3,-25
1693678311155637600,6,-21,-2,2,-1,-2,-6,-24
1693678311181623900,116,38,12,12,55,4,0,32
1693678311182622700,-45,-16,-6,1,43,1,-1,-29
1693678311199611900,-1,-16,-21,-30,-30,-22,-5,-9
1693678311201612600,58,7,14,13,5,4,-4,43
1693678311202611600,-40,-28,-2,-2,3,-2,14,-18
1693678311203610800,33,14,-2,4,35,1,-8,11
1693678311204608400,-35,6,1,6,-48,9,20,-18
1693678311205610200,-29,-16,2,-2,15,-3,-36,-45
1693678311207609400,-19,-7,-4,-5,-49,-4,8,10
1693678311209606300,19,6,-7,-7,-45,-7,-5,4
1693678311211607200,-8,-4,-1,0,55,3,2,9
1693678311216602700,-16,-11,0,-5,-43,-4,10,-4
1693678311226595200,19,6,1,1,10,0,-7,6
1693678311228595600,-24,10,0,-3,-19,0,0,8
1693678311230594400,-17,-7,6,11,37,5,-7,-17
1693678311234592500,17,14,3,-3,-66,5,6,5
1693678311250591200,-3,-4,-3,-1,63,-17,-5,-10
1693678311252581700,-37,-7,-5,-8,-24,-7,-2,-2
1693678311253580700,4,4,3,13,42,17,7,-45
1693678311254580500,1,-1,-5,-21,-61,-16,-2,44
1693678311265578100,-12,-5,-1,4,2,23,1,0
1693678311267572700,16,0,0,-8,-36,-24,-4,15
1693678311269573500,-5,2,-1,9,39,14,0,-9
1693678311271570400,-11,-1,0,5,14,6,5,-13
1693678311286563100,-9,-3,-3,-1,-16,-21,-7,-17
1693678311288561000,7,3,-3,-2,32,18,4,29
1693678311290559000,-2,6,5,8,-11,-31,-4,0
1693678311291559000,-1,-5,-2,3,88,34,10,4
1693678311300554300,-4,-2,0,1,7,-20,-16,-12
1693678311302553800,2,1,-4,-2,20,1,5,-9
1693678311318544200,-12,-5,-2,-9,-34,7,-4,9
1693678311320542900,-8,0,6,18,3,46,1,-14
1693678311324541300,8,3,-1,-7,-60,0,7,9
1693678311325540900,-5,-5,-1,9,23,-10,-3,-2
1693678311327538700,-9,-4,-2,-7,-2,10,-1,3
1693678311328538100,7,3,-1,-12,-19,16,5,-5
1693678311354521900,1,-2,-2,-5,-34,-18,-6,1
1693678311356521700,-6,0,1,-1,36,8,2,9
1693678311357521600,-4,-1,-9,-16,-65,-16,-8,-5
1693678311358520300,5,5,8,9,-37,-19,4,-3
1693678311360519400,-5,-5,-3,3,31,4,2,1
1693678311361519200,-5,2,-3,-4,-41,4,-4,4
1693678311377510000,-1,-2,-3,-3,61,-19,-5,-3
1693678311380509500,1,3,9,18,105,8,6,0
1693678311391501300,1,7,4,-11,6,7,6,9
1693678311392503100,-4,-10,-6,16,127,0,-10,-12
1693678311406493800,-6,-4,-5,-13,9,2,-1,-1
1693678311408492400,-4,-3,-9,-27,-104,-33,-10,-2
1693678311416489600,1,6,10,15,27,30,7,3
1693678311418486900,0,1,5,10,34,7,1,-17
1693678311419486900,-2,-1,0,-2,9,-11,0,31
1693678311420486800,-4,-6,-4,0,-43,-13,-4,-18
1693678311436475000,-9,-15,-17,-18,53,-19,-7,11
1693678311438474600,5,6,4,-1,-48,17,0,7
1693678311440473800,-1,4,4,15,33,7,8,-16
1693678311441473300,4,6,9,17,24,9,6,3
1693678311451467100,2,2,5,-1,-51,8,0,6
1693678311453467800,-6,-8,-7,-10,-52,-23,-4,-10
1693678311457463700,-1,2,2,1,-10,14,2,-13
1693678311459462800,1,-1,-9,-13,-22,-23,-8,20
1693678311477452500,0,3,5,13,30,3,8,23
1693678311481452400,0,0,1,-11,-14,4,-2,0
1693678311484450400,-1,-2,-1,8,40,11,-1,-2
1693678311486448700,-6,-7,-12,-27,-44,-39,-11,-10
1693678311489445500,0,-2,-2,-13,-33,-24,-5,-12
1693678311491445000,2,4,6,9,6,16,9,6
1693678311493444100,0,-4,-3,1,24,-1,-7,1
1693678311494442900,0,-1,0,-1,-18,-2,4,-2
1693678311511432200,-1,-1,-3,6,36,12,5,-2
1693678311515430500,-2,5,3,-6,-37,32,-9,-33
1693678311518428700,-1,-2,-1,-2,-22,-43,-3,37
1693678311520428600,0,0,3,7,23,18,3,2
1693678311525424500,2,-1,-3,6,13,3,1,-6
1693678311526424700,-3,-5,-6,-24,-85,-27,-4,1
1693678311558407700,-1,3,0,4,32,19,1,-19
1693678311560405400,0,3,3,10,84,3,0,-2
1693678311561405700,0,-2,0,-1,-2,4,-1,3
1693678311565403500,-4,-1,0,-1,4,14,4,-2
1693678311567401700,0,0,4,-2,-9,-14,-5,-3
1693678311569401700,2,2,7,15,44,7,9,5
1693678311582396900,-4,-9,-16,-25,14,-1,-10,-12
1693678311585390700,-1,1,-5,-1,-64,-2,-2,8
1693678311587390200,0,0,1,-2,-14,-28,-4,-6
1693678311589390200,-1,1,2,17,127,20,2,-3
1693678311590387400,3,2,1,-8,-87,0,2,7
1693678311592387900,-2,-5,3,-1,58,3,2,7
1693678311601382700,-2,-6,-9,-18,-82,4,-4,1
1693678311603380600,-2,-3,-3,-12,-19,-22,-5,-7
1693678311608378700,-2,3,8,17,61,18,0,-3
1693678311610377000,2,-1,-6,-3,-41,-25,1,5
1693678311655356600,2,2,1,10,79,30,-1,-2
1693678311657350400,0,-2,-1,-8,-54,-2,-1,0
1693678311659348200,4,9,10,2,-10,-9,5,0
1693678311660347500,-7,-10,-15,2,-27,-36,-13,-1
1693678311661347100,-1,0,3,14,58,6,5,-4
1693678311665348200,3,2,5,24,92,35,6,3
1693678311667343700,1,7,7,-5,21,-11,3,0
1693678311668343500,-2,-3,-7,-27,58,-11,-3,-3
1693678311676338900,5,11,28,73,99,37,13,2
1693678311677337400,4,7,18,21,-9,9,12,9
1693678311708320200,-7,-12,-25,-49,-76,-5,-17,-8
1693678311710319300,-3,0,0,22,34,-56,-4,-1
1693678311711320500,-1,-1,-13,5,76,32,-1,-4
1693678311713318500,-3,-8,-29,-49,-50,-29,-8,-2
1693678311718315500,16,31,82,-1,49,8,21,17
1693678311720314600,-1,-4,-3,47,91,62,9,-2
1693678311721314500,-11,-19,-31,-48,-128,-111,-38,-17
1693678311723313300,-6,-11,-21,54,127,43,-4,-4
1693678311724312200,16,25,35,59,35,100,48,19
1693678311725311700,-16,-24,-48,-114,-116,-72,-39,-18
1693678311730307800,2,5,-12,96,118,69,11,4
1693678311734306900,12,27,92,115,49,107,28,14
1693678311737304000,-14,-30,-50,-51,57,3,-31,-17
1693678311738303200,6,11,22,-19,-53,8,8,6
1693678311751295400,-2,-6,-16,-10,83,-9,4,-1
1693678311753294000,-5,-13,-46,-76,-59,-18,-2,-4
1693678311754294200,-3,3,43,116,116,-6,-17,-7
1693678311756292800,7,9,14,28,100,47,20,9
1693678311765287700,1,2,6,-47,-62,47,2,1
1693678311768287900,-6,-12,-26,62,2,-61,-12,-3
1693678311786275500,1,4,4,-96,-78,-6,11,2
1693678311787274800,-12,-18,-32,-43,-59,-101,-32,-13
1693678311788274200,9,20,50,22,-13,68,23,13
1693678311790273500,-9,-11,-10,-47,77,-85,-25,-13
1693678311804264700,-2,-7,-33,-20,-92,-2,-1,0
1693678311805265000,4,12,24,32,5,110,14,4
1693678311811260500,-3,-1,8,24,106,-98,-3,-2
1693678311817258500,1,6,13,2,5,39,6,2
1693678311819258000,-7,-10,-25,-52,-72,-77,-23,-8
1693678311820255700,0,-5,-9,-37,-10,-41,-4,-3
1693678311833250800,1,0,-12,12,15,107,9,-3
1693678311835248300,0,-1,12,-48,-68,-34,-16,-10
1693678311842243900,0,5,-6,8,-50,-22,8,24
1693678311843243300,7,11,21,15,-4,103,26,4
1693678311856236300,-15,-24,-43,2,40,-47,-30,-12
1693678311859234100,-1,-6,-6,-12,-44,-14,3,0
1693678311860232600,1,-2,-4,0,30,55,-1,-10
1693678311862233800,8,8,12,40,26,-11,7,3
1693678311878222400,1,-2,7,-26,-74,5,24,37
1693678311884220200,-7,-4,8,14,41,15,7,20
1693678311894215200,-8,-5,-7,11,-54,-5,-30,-35
1693678311899216700,-78,-10,-6,17,35,-7,-13,-50
1693678311918199600,-79,28,17,3,3,1,3,-73
1693678311920199500,93,61,11,8,24,10,22,96
1693678311922199100,-1,0,-15,-17,2,18,-47,-67
1693678311923197800,-52,-44,-6,11,11,1,48,123
1693678311925195900,6,83,14,-12,-31,-5,57,-27
1693678311927194400,47,-101,8,1,-5,14,-15,27
1693678311943185600,68,103,-16,-9,2,-33,-35,-97
1693678311944184800,28,58,5,12,13,-21,13,43
1693678311948184000,-87,-65,-4,-21,-20,-22,-65,-40
1693678311950181500,112,48,-17,-22,-13,-53,-10,-24
1693678311952180800,-85,-71,-11,0,24,-14,25,17
1693678311954180000,120,79,33,39,29,54,50,79
1693678311956179700,-81,-62,-28,-34,-23,-11,-33,-100
1693678311958177300,47,7,9,4,20,49,72,101
1693678311959176500,-127,-70,-3,31,95,-34,-43,-9
1693678311960175900,-70,-25,-27,-64,-85,-47,37,44
1693678311969170900,108,36,16,-7,55,19,22,116
1693678311971170900,-128,-18,-8,7,78,25,-40,-115
1693678311972170700,-38,-3,9,19,115,-22,43,0
1693678311974167700,-22,-19,-10,27,103,27,-60,-89
1693678311992157600,44,-5,-4,0,4,-9,2,33
1693678311994158000,-26,0,-5,-8,8,10,4,-29
1693678311995157600,64,28,9,4,-23,22,40,33
1693678311999154700,0,-5,10,15,36,-11,-42,-36
1693678312005150300,20,-28,-13,-31,-81,-29,-6,7
1693678312006149900,-29,17,9,18,24,15,10,-32
1693678312018143800,11,8,0,-7,-49,0,16,40
1693678312020144600,6,-23,-1,3,-4,-11,-19,-19
1693678312028137200,-9,-2,-5,-2,-8,-9,1,-10
1693678312031136300,-19,5,-7,-15,-23,3,-2,-3
1693678312038131100,18,-16,-3,-8,0,1,-13,31
1693678312040131000,6,-1,-4,-10,-77,-23,-7,-29
1693678312059118100,17,11,3,14,14,6,2,10
1693678312061118700,-27,-5,2,3,29,6,-18,-8
1693678312064117900,14,-13,-11,-24,-64,-23,5,19
1693678312067119800,0,1,5,15,35,7,2,-26
1693678312070114100,-19,-2,6,3,12,20,-4,8
1693678312071112500,14,16,1,1,14,-25,-9,0
1693678312083106500,-43,-7,-4,2,17,-7,5,-10
1693678312086104800,7,13,-4,-20,-66,-9,11,-19
1693678312089101500,66,-8,2,-6,1,-4,-51,63
1693678312090101300,-55,-27,-6,-5,2,3,7,-22
1693678312095097900,-12,4,1,8,15,15,-13,-9
1693678312101097200,-13,-3,3,9,9,-9,18,1
1693678312112090000,-4,-16,-7,-6,4,-4,5,-35
1693678312114089700,6,14,0,2,-3,16,-20,-9
1693678312118087100,-53,-18,-5,-1,0,-6,24,1
1693678312119085800,38,13,5,7,20,-11,-25,3
1693678312142071700,-6,7,-1,-1,-16,3,9,5
1693678312143071000,10,-3,-2,1,15,-6,14,-1
1693678312145069800,19,-1,-1,-5,-23,31,3,15
1693678312150069200,-37,-18,3,8,28,-1,-15,-10
1693678312153065700,13,11,1,4,6,-13,11,-2
1693678312155065000,8,6,-2,-8,6,8,-1,5
1693678312157065500,-3,-10,-3,-8,-51,-25,8,11
1693678312158064400,25,1,0,4,48,15,-45,-54
1693678312172054900,7,-3,3,5,4,-1,13,-11
1693678312174053500,5,-6,-9,-7,-6,1,24,26
1693678312177051800,79,23,2,1,52,4,10,31
1693678312179051400,-7,-9,2,-1,-62,-7,2,3
1693678312186047000,-7,-6,-1,0,3,-1,-3,-11
1693678312189045100,-15,-6,0,-5,-11,-4,-13,-23
1693678312204037100,-2,6,-3,-2,3,-13,-17,5
1693678312206035300,-11,-12,-6,-3,2,4,8,16
1693678312210035200,5,11,2,1,7,-3,-2,13
1693678312212031900,-28,-10,-2,-3,-13,-8,4,-7
1693678312218028500,4,4,-3,-4,-7,-1,-7,3
1693678312219028000,-8,3,5,9,22,6,-5,-1
1693678312242014400,-14,-7,-3,2,37,2,4,7
1693678312245014100,10,-12,-5,-15,-85,-32,-18,6
1693678312250009700,10,17,6,2,12,2,0,-16
1693678312254008300,2,-10,-3,3,11,5,8,3
1693678312256007100,-16,0,-1,-3,5,-5,-4,-11
1693678312259005400,13,10,1,-1,7,0,7,27
1693678312261003600,-6,-4,-4,-3,-7,-1,-4,-24
1693678312262003900,0,1,-1,0,3,-1,10,0
1693678312268999800,-17,-2,3,4,-4,21,-8,-7
1693678312270998500,-7,7,3,1,0,-6,-16,22
1693678312283990600,9,-7,-3,-3,-1,3,-1,0
1693678312286991700,16,7,1,1,-41,-5,20,19
1693678312290986200,-16,-10,-5,-5,-2,4,2,-21
1693678312292987400,2,0,3,3,8,8,-3,-21
1693678312306976800,-8,-5,-2,-2,-4,-6,-1,10
1693678312308975800,-16,-2,-1,3,15,9,-3,-15
1693678312316972600,1,2,-1,-3,-13,-13,-5,7
1693678312318971800,-18,-1,1,1,0,0,0,-9
1693678312319972000,19,1,-1,-1,9,1,5,7
1693678312321968200,-6,-5,-3,0,16,0,-7,-4
1693678312335963100,3,-2,0,-3,-29,-11,1,7
1693678312337961200,10,-1,0,1,22,5,3,-1
1693678312338961100,-16,-11,-4,-4,-7,-2,-1,-8
1693678312339960000,4,-8,-5,-4,6,10,1,4
1693678312351951800,12,21,9,6,-3,-20,1,9
1693678312353951600,-12,-6,-2,0,7,2,2,-9
1693678312354951000,3,6,2,0,-4,5,-3,0
1693678312355949900,-4,-5,1,0,7,-26,-2,0
1693678312373937300,9,-3,-9,-5,9,31,2,2
1693678312375937500,-7,1,5,6,-2,-27,2,-5
1693678312376937100,6,0,0,-2,-13,30,-1,3
1693678312378936200,5,10,5,7,34,15,2,3
1693678312389928900,-5,-6,0,-1,-1,-6,0,-1
1693678312400924800,-3,2,-3,-3,-22,13,-1,-5
1693678312403924400,-2,1,-4,-2,10,-10,-3,0
1693678312405921800,-3,-4,-2,-2,5,0,-3,-4
1693678312411916600,-3,-4,-3,-2,-8,-10,-3,0
1693678312414916100,2,0,-1,0,9,4,-1,-2
1693678312417913800,0,-4,0,-3,-16,-16,1,-1
1693678312419911800,-3,0,0,3,45,9,-2,-1
1693678312464887600,-4,1,0,-2,-58,-7,1,-1
1693678312467885200,0,0,-3,-3,50,-4,-3,-2
1693678312482883400,-3,-1,-2,-6,-48,-3,-3,-4
1693678312485876500,-1,-2,-1,-3,-3,1,-2,1
1693678312488872900,1,-2,-1,0,4,-1,-1,-1
1693678312491871100,-5,-2,1,3,10,5,-1,-2
1693678312492870500,2,1,3,8,34,6,3,2
1693678312494869300,2,7,3,14,71,-8,-1,-42
1693678312499867900,-3,-3,-5,-28,-92,-16,-3,48
1693678312501865800,0,-2,-3,4,91,12,-2,-3
1693678312502865100,1,3,3,12,49,10,1,-16
1693678312504863600,-1,-1,4,2,-34,1,3,3
1693678312505862800,3,3,1,1,-4,-9,1,10
1693678312506862300,-5,-6,-9,-3,57,23,-3,1
1693678312507862800,-1,-1,-3,7,14,-40,-3,-9
1693678312508861200,1,-1,0,4,13,-22,-4,2
1693678312517857400,-1,-2,-12,-17,-11,-13,-1,-4
1693678312519855500,0,0,9,3,-100,-3,1,8
1693678312543842700,-1,-2,-1,-15,-6,-4,0,-3
1693678312550838600,0,-1,3,12,52,20,-1,-3
1693678312552836600,-5,-3,-1,0,15,15,1,1
1693678312554836200,-1,-5,-21,-10,-5,-29,-2,7
1693678312561830600,3,5,23,15,19,14,2,-4
1693678312566829200,0,2,3,8,-27,-16,1,-2
1693678312569827200,-8,-10,-21,-19,-15,-6,-6,-2
1693678312571825400,2,2,14,-5,-23,19,2,8
1693678312572826500,-1,-3,-10,-2,6,-10,-2,-11
1693678312574823600,0,1,1,4,46,7,0,0
1693678312576822300,1,-1,3,0,-11,-1,4,6
1693678312578716400,-2,0,-4,5,54,-4,-4,0
1693678312591708000,-3,-2,-3,-7,-42,8,5,1
1693678312594707300,-1,1,-2,-7,-31,7,-15,-5
1693678312599713200,2,1,5,5,-7,-7,1,2
1693678312603702800,-2,-1,1,-2,8,-3,-3,-1
1693678312619692300,0,-1,-2,14,64,14,3,1
1693678312621691600,-4,-3,-9,-23,-114,-14,-1,0
1693678312623689800,2,3,8,5,-17,-2,0,1
1693678312625688900,0,-2,-2,-3,-8,2,-3,1
1693678312638682500,0,-3,-6,-4,4,-2,-4,-3
1693678312639682800,0,2,3,7,29,7,5,1
1693678312641679400,1,5,10,5,-33,45,-5,-59
1693678312642679200,-1,-6,-6,-12,3,-26,2,69
1693678312668667200,-6,-2,-7,-7,-19,-3,-5,-9
1693678312670664600,2,-4,-1,-4,2,8,6,9
1693678312673662100,2,0,-1,9,37,11,-3,-4
1693678312676661800,0,1,0,4,-29,-20,3,-19
1693678312678660000,-2,-2,-1,-6,-29,0,-8,-7
1693678312680658400,-3,-2,-2,-3,28,3,1,2
1693678312685655400,-2,0,-1,-1,12,-10,-2,3
1693678312687653700,0,0,-2,2,7,0,1,-4
1693678312689651900,3,0,0,0,-10,-6,2,8
1693678312689651900,1,1,0,-2,-13,6,1,-7
1693678312700647800,0,0,2,-2,5,-17,3,15
1693678312703644900,-4,-1,-4,-6,-45,1,-8,-27
1693678312711639900,0,0,0,0,-12,7,0,-3
1693678312716643700,1,-1,-2,-2,10,4,0,-3
1693678312718636100,-2,-3,0,-9,-27,-11,2,11
1693678312720633900,-1,-3,-2,17,55,9,-3,-5
1693678312734626300,2,-1,0,6,34,5,0,-1
1693678312736626000,-2,-2,-2,-14,-85,-10,-3,-5
1693678312740622900,-2,-2,-2,2,23,-4,5,12
1693678312741622800,-2,-1,-2,-3,-6,6,-3,-23
1693678312758612100,0,-3,-5,4,54,26,4,27
1693678312760612000,1,-1,0,-6,-77,-56,-1,-4
1693678312766610700,-1,-3,0,1,5,7,6,16
1693678312768607000,3,4,2,-5,-11,7,1,-15
1693678312771604200,-1,-2,2,2,-18,-10,-3,-11
1693678312773604600,0,4,3,4,41,18,-1,6
1693678312775602400,0,-1,-1,2,-11,-8,2,4
1693678312776601700,-1,-3,-2,-7,-29,11,-5,-10
1693678312801587300,-3,-4,-1,-2,18,0,-2,3
1693678312803587800,-4,0,-4,2,28,-19,-3,0
1693678312805585300,1,-1,0,2,-19,12,-2,-2
1693678312807584400,8,0,2,-1,-3,-17,4,19
1693678312809586600,-5,-2,-2,4,31,5,-1,-8
1693678312811582400,-11,-3,-5,-6,-24,13,1,-14
1693678312816580800,0,1,2,8,41,15,-6,7
1693678312819577500,-14,-5,-4,-8,-27,3,-2,-17
1693678312832572700,3,0,0,-7,-7,-6,-4,-23
1693678312835570100,6,-2,1,7,35,2,-4,23
1693678312839566000,-1,4,-1,-4,-11,-5,-7,-7
1693678312840565300,4,-1,-3,1,39,18,5,9
1693678312860553500,-3,0,0,0,-20,47,-2,-5
1693678312861553800,1,-4,-10,-10,-25,-55,1,2
1693678312869549500,-3,0,9,7,-12,-1,-5,-7
1693678312871548200,2,-1,3,1,-3,2,5,28
1693678312873546800,-9,6,-2,-5,-20,4,12,-35
1693678312874545900,33,3,4,8,23,22,4,29
1693678312876544500,8,-1,-6,2,35,-3,-2,52
1693678312877544500,-69,-36,-5,-4,-29,-11,15,1
1693678312891536400,38,25,-3,-2,4,-17,-5,-19
1693678312893536600,15,-1,1,-3,-9,23,-7,-50
1693678312895534100,-29,-16,3,5,5,2,8,79
1693678312900533100,-21,10,-5,-15,-82,-26,-3,46
1693678312922518900,47,7,12,26,97,56,25,-24
1693678312925518200,-74,-10,-10,-8,-16,-50,18,36
1693678312932523900,53,-16,-14,-36,-65,20,-38,-65
1693678312935512000,-30,-3,5,9,42,-17,-47,-53
1693678312937510200,5,3,-11,-11,24,-15,-4,109
1693678312940509500,-35,0,3,12,17,-4,-11,-123
1693678312941509800,-32,-23,-2,2,11,9,56,-80
1693678312944506600,3,18,2,0,-16,0,-22,-84
1693678312952502100,-6,28,11,9,7,30,26,2
1693678312955500000,45,-4,4,8,30,19,9,55
1693678312957499000,-74,11,-8,-6,-38,-11,-12,54
1693678312959499600,20,-8,-3,-6,-2,-15,45,-9
1693678312974489800,-29,-13,6,17,21,-11,-41,6
1693678312976488400,-41,3,-9,-13,-26,6,-4,13
1693678312979486800,1,-4,8,7,22,-27,-7,-27
1693678312983486100,-12,12,1,4,49,24,32,26
1693678312987481400,-26,-41,-4,-5,-33,-22,0,4
1693678312989481900,21,19,6,3,-41,5,-16,0
1693678312998476600,32,2,-10,-3,-10,-7,-12,-16
1693678313000479900,15,4,3,6,21,14,-1,10
1693678313011467400,-8,-19,-11,-11,-40,-40,-6,-31
1693678313017469900,-19,-7,-2,-3,6,25,6,-4
1693678313019464700,-1,14,8,21,116,15,23,28
1693678313021463100,36,4,2,-12,-108,-16,-43,-66
1693678313041449700,-4,4,0,-4,73,-6,23,35
1693678313044451200,-1,1,-1,-12,10,7,-5,31
1693678313046448200,-7,-2,-6,-6,-8,-14,0,-6
1693678313050446200,-38,-40,2,8,32,12,-10,0
1693678313052444900,-41,30,-1,-7,-34,-19,-10,-16
1693678313053444000,110,18,3,3,-12,12,-8,-48
1693678313056442800,-14,1,-5,-9,2,-17,-10,29
1693678313057441700,-62,-18,-4,-2,4,9,12,-2
1693678313071432700,41,11,-2,-1,-17,-7,-48,13
1693678313072434100,-58,-13,1,3,17,1,35,-1
1693678313077430600,6,-6,-2,1,-19,6,-8,-40
1693678313079428200,34,17,-3,1,20,-10,-3,62
1693678313103416500,-16,-23,-12,-11,-27,-5,3,-15
1693678313105413400,-19,-6,3,7,6,6,6,14
1693678313108412600,33,15,3,-2,-9,-8,-24,-24
1693678313109412600,-18,-3,-6,-4,7,9,3,-37
1693678313117408900,-12,-7,-2,-4,-14,-13,8,57
1693678313119406000,-12,8,4,4,2,2,-5,2
1693678313121404100,-14,2,4,5,0,3,10,8
1693678313122403600,9,12,2,3,14,2,-9,4
1693678313131399700,-2,-3,1,0,-8,4,45,-22
1693678313134399600,33,-3,-3,-3,-28,-6,-31,-15
1693678313137394900,-25,-8,-1,-3,-5,-2,8,68
1693678313139394200,49,9,-3,-2,5,2,1,-57
1693678313154385500,-17,-20,0,2,-2,-1,-22,-16
1693678313156385200,-60,-13,-3,0,8,-4,-15,-10
1693678313157384500,-17,10,2,3,-8,-3,19,21
1693678313158383400,23,-13,-3,2,9,3,-8,20
1693678313168378700,-3,15,6,-1,-55,5,11,-8
1693678313171377100,-7,-10,-4,-2,17,-3,7,-9
1693678313177372900,-18,-5,-5,-6,-9,-4,-21,-3
1693678313179371500,20,15,4,3,3,2,26,27
1693678313193364800,-2,-8,1,4,10,7,-16,-4
1693678313197361600,-30,-4,-1,-1,-1,8,7,-4
1693678313201359800,19,-5,-5,-5,4,-21,-19,-12
1693678313204357700,-19,0,1,-1,-8,22,24,60
1693678313221347600,29,10,2,2,8,-12,10,-43
1693678313224346600,-1,-7,-2,-5,7,-16,-55,32
1693678313226344000,10,2,1,3,13,30,71,-14
1693678313227344400,9,5,-3,-1,6,-15,-2,-11
1693678313237338700,-17,-16,-6,-6,-14,-19,-58,-4
1693678313239338100,-1,-3,-4,-3,5,-9,-44,-17
1693678313240336700,7,10,6,7,3,5,-1,-3
1693678313242334900,15,4,1,-2,-4,-4,-4,24
1693678313252330100,-23,5,1,0,0,26,60,-2
1693678313253328900,25,9,-4,-2,4,-8,-9,-1
1693678313266325300,6,-6,1,0,-3,10,3,-2
1693678313269321300,-12,-4,-5,-4,-9,-2,-40,-7
1693678313275316400,-27,-21,-2,-2,15,-25,-5,-15
1693678313287459900,34,20,-2,-4,-6,17,39,21
1693678313290458600,-3,-6,0,2,-4,-1,-9,-10
1693678313292456700,9,4,-1,0,1,-3,-10,3
1693678313299454400,2,4,3,3,4,2,-5,3
1693678313301451600,-17,-13,-1,-1,-5,9,18,2
1693678313304449800,5,-1,-5,-7,-11,-19,8,-25
1693678313305449800,-1,-1,-1,-1,0,-5,-16,25
1693678313319441600,1,-6,-4,-7,-3,0,-13,2
1693678313320442900,-22,1,2,2,0,6,18,-16
1693678313325436700,-7,2,0,0,6,-8,-15,-28
1693678313326436500,-4,1,1,3,2,3,25,33
1693678313335432600,-1,-1,-2,-5,-1,-2,-34,-21
1693678313338429600,11,5,-1,-2,-1,-4,5,2
1693678313339428600,9,3,-1,-2,-9,-5,-20,-58
1693678313340427400,-27,-6,-2,-2,2,0,13,33
1693678313357418700,8,1,-2,-1,1,3,18,40
1693678313369412300,12,-4,2,4,1,-1,10,3
1693678313371413000,8,3,-1,1,2,4,-15,-1
1693678313373410100,-33,-6,-4,-6,-9,-9,-4,-32
1693678313374408700,17,4,-2,-4,4,-6,2,-7
1693678313376407300,-7,-1,0,0,6,15,-8,6
1693678313378407200,-4,-3,-3,-3,-33,-4,5,21
1693678313380406700,11,-1,-1,2,7,-3,5,-8
1693678313394398800,-14,-2,-2,-2,-11,-6,2,-15
1693678313397397700,13,5,4,-1,25,9,8,15
1693678313401395200,5,2,1,1,11,1,17,4
1693678313403392900,0,-1,1,7,12,14,-20,0
1693678313417386300,-6,-9,-7,-13,-30,-26,-15,-12
1693678313419385200,-9,-8,-7,-6,24,-4,-1,-25
1693678313420383200,8,5,0,-3,-1,0,8,26
1693678313422381900,18,5,4,3,-34,-1,-6,-10
1693678313433377200,-18,-2,-3,2,28,3,0,3
1693678313437373800,5,-2,2,6,6,15,-2,1
1693678313443369800,-4,-1,-2,-1,-21,-44,-8,-5
1693678313445368400,4,-3,-6,-7,6,5,4,-6
1693678313454362800,11,5,-3,6,1,13,6,6
1693678313456363200,-4,1,11,3,52,5,5,0
1693678313457361700,-11,-6,5,-5,-44,-32,-18,-3
1693678313459360500,3,2,4,16,61,3,8,0
1693678313476349800,5,9,11,-22,-91,-11,-2,0
1693678313478354300,-6,-5,-8,7,40,10,3,2
1693678313483353800,3,2,-4,3,17,12,-1,10
1693678313484351400,3,-2,1,3,16,-8,-7,-12
1693678313490347200,1,-3,-6,8,63,12,3,0
1693678313492347300,1,-2,-7,-4,-102,-12,1,5
1693678313500342700,-3,-1,-1,-14,20,11,1,1
1693678313502342400,-2,-2,4,1,-65,-18,4,-8
1693678313521329000,5,3,4,12,94,22,-2,4
1693678313523329500,-2,-3,-3,-20,-107,-28,-2,-1
1693678313524327600,-3,-4,-6,4,43,10,-7,-3
1693678313525326600,-3,0,-2,-7,17,7,15,-4
1693678313536321500,1,1,3,11,-4,0,-15,4
1693678313538318800,1,0,-1,11,49,22,-5,-3
1693678313539319100,-4,-5,-4,-11,-19,-12,-6,-4
1693678313540317900,2,1,-4,-12,-38,3,3,1
1693678313550313100,1,0,-1,-4,-20,-8,8,-2
1693678313552312000,1,2,1,0,31,4,2,4
1693678313559306800,-2,-1,2,9,15,16,-10,-1
1693678313560306700,-4,-1,-6,-11,2,-17,-5,-2
1693678313586293000,-1,-3,-5,-7,-21,-1,0,-1
1693678313587291600,-1,-1,1,-2,-33,-7,-1,6
1693678313589290900,0,3,3,5,9,5,9,-4
1693678313589290900,0,-2,-2,-2,8,0,-8,-3
1693678313598286000,1,0,0,-1,-12,-3,1,-2
1693678313600289400,-2,-3,-2,-2,27,-11,4,3
1693678313603284000,2,1,0,-1,6,2,1,-6
1693678313605282100,-2,-1,-4,3,31,6,-10,4
1693678313610277100,-1,-1,-2,-3,-10,-4,-1,0
1693678313611279500,0,-1,1,2,-7,-9,-3,-1
1693678313619272500,0,-2,-4,-5,-30,3,-1,2
1693678313620272700,-1,0,2,1,3,5,5,-4
1693678313634264900,1,1,3,3,-3,-3,3,1
1693678313637262900,0,-2,-3,-5,12,-7,-3,-2
1693678313638262600,-2,1,0,1,-5,3,-5,-5
1693678313639261200,0,-3,-1,-3,-9,-3,1,-2
1693678313657252300,-4,0,3,0,13,-2,4,0
1693678313658251200,-1,-2,-1,0,6,-6,-1,-3
1693678313660251100,0,0,0,0,-7,8,2,5
1693678313663249300,0,-2,-1,2,19,3,-3,-6
1693678313672243800,1,0,-4,-14,-71,-19,-2,6
1693678313673242300,-3,-3,-5,-11,-46,27,-3,-5
1693678313689233300,2,1,2,5,43,-31,-1,3
1693678313691234300,-2,-3,0,1,19,-3,-5,-2
1693678313694229700,-1,0,1,6,14,9,0,-3
1693678313698228100,2,0,1,5,15,5,1,3
1693678313702227500,-2,-1,-1,-4,-8,5,22,-1
1693678313704226500,-1,2,0,-2,-51,0,-4,-7
1693678313731210200,-3,-3,-3,-3,25,0,1,-5
1693678313735207900,2,0,2,9,53,-6,1,6
1693678313739206900,1,1,2,-2,-67,5,-2,-2
1693678313740206000,1,1,1,-3,24,9,10,6
1693678313743201800,3,0,-1,6,30,1,-7,2
1693678313744202700,-8,-4,-6,-13,-73,-16,-6,-13
1693678313752198000,-1,2,2,3,-47,6,-1,5
1693678313755195800,-2,3,3,6,30,4,-14,-58
1693678313757194600,-2,-5,-5,-11,15,1,4,54
1693678313759194600,0,-1,-2,-1,7,-6,1,0
1693678313760192700,-1,-3,-1,0,11,-3,-3,4
1693678313764191600,0,1,1,-3,-51,2,-10,0
1693678313777182100,-3,-1,1,10,34,3,3,-25
1693678313781180600,3,1,2,1,23,7,0,-1
1693678313784180600,-4,-2,-4,-5,-7,-29,-8,1
1693678313786177800,-1,-1,-3,-1,24,-3,0,6
1693678313800170500,-1,-2,-2,3,-6,-16,1,-1
1693678313803167700,-2,-2,-2,-1,1,-14,1,1
1693678313805166000,2,1,-1,1,31,27,1,2
1693678313806166800,2,0,-1,1,-47,-7,-2,15
1693678313816164100,-7,-4,-5,-6,-21,-28,-3,-3
1693678313818160200,0,2,2,3,3,7,1,-1
1693678313820157800,-1,-3,0,4,59,3,0,-3
1693678313822158800,-3,0,0,-2,-23,0,3,10
1693678313852140600,0,-3,-3,-6,7,8,-5,-8
1693678313854138500,-2,0,-1,-6,-39,-20,-2,-5
1693678313856136700,2,-1,-1,1,7,32,7,8
1693678313857136600,-1,-3,-2,-3,22,-1,30,8
1693678313858136000,-1,1,2,6,3,-5,-44,-13
1693678313860136400,1,4,4,3,-4,-3,-3,-4
1693678313861135600,-1,0,-1,0,11,15,7,2
1693678313864133400,3,2,-1,0,-3,1,-13,4
1693678313874127500,4,-2,-2,-2,-22,25,19,-3
1693678313876126200,0,-5,-4,-2,8,4,-5,-1
1693678313877125100,-18,-2,-3,1,2,-2,-5,-6
1693678313878124600,-6,-3,-1,-2,10,0,-2,3
1693678313900112600,7,-1,1,2,-2,38,13,-2
1693678313908107600,3,2,0,-2,-21,-59,-18,3
1693678313910105700,-4,-5,-1,-2,11,9,20,-13
1693678313912107600,-10,-9,-7,-2,6,4,15,2
1693678313916105600,33,18,4,6,1,-33,-40,-5
1693678313919103100,5,-2,3,1,1,37,15,-2
1693678313921100700,-6,-8,-5,-7,42,-13,-5,-4
1693678313922101200,-4,0,-1,-3,-73,2,-12,-37
1693678313934094300,-14,-8,1,0,5,-2,21,45
1693678313936092500,-49,-55,-12,-16,-78,-35,-12,2
1693678313938090300,10,59,11,13,69,2,-24,-3
1693678313939089500,-16,-17,-3,-4,38,7,42,32
1693678313957081100,5,-8,0,0,-9,11,22,-18
1693678313958079200,114,80,6,6,29,18,-2,-30
1693678313961077100,-38,-32,-16,-18,-75,-18,34,18
1693678313963077000,-82,-26,8,17,-29,-16,-70,-57
1693678313970074100,66,13,12,-11,-50,-9,39,79
1693678313972071300,-31,2,-5,3,12,4,-22,-3
1693678313982068700,-10,-1,0,0,-6,-8,6,-16
1693678313984065700,84,21,-6,-1,48,25,0,-13
1693678314003053100,-41,-14,-6,0,12,-9,-49,-25
1693678314005052500,-30,-26,-3,1,23,10,59,43
1693678314008050800,7,8,0,-5,-53,-15,-40,-26
1693678314010050000,15,14,5,3,45,-11,8,4
1693678314027040100,-34,-11,-6,-6,-21,7,7,-27
1693678314031039400,-5,11,7,12,67,5,0,37
1693678314035035800,-88,-51,-3,-4,-34,-1,-27,-29
1693678314037033700,9,10,-3,-3,-10,9,2,32
1693678314042031300,74,66,-1,-3,-24,-16,20,-37
1693678314044031700,1,-12,-9,-10,10,3,-55,-34
1693678314047028300,42,10,6,14,16,4,15,46
1693678314050027600,-19,-27,-1,-3,-6,21,-8,19
1693678314062020200,-38,1,1,6,33,7,-7,-22
1693678314067017100,4,9,-2,-6,-31,-11,19,14
1693678314070015300,20,-12,1,-3,28,26,9,38
1693678314072015200,4,1,-4,-7,-22,-25,-4,-8
1693678314077011300,-22,-14,-6,-5,32,-1,10,6
1693678314080010500,-3,-2,1,-4,-12,8,8,-8
1693678314084008000,6,-2,0,0,0,-4,-8,-15
1693678314086006200,4,16,-1,2,20,-4,12,17
1693678314090003200,-23,-16,-1,1,-3,-2,-26,-17
1693678314092003400,9,-2,1,5,2,1,-10,2
1693678314099999200,19,3,-7,-7,-51,-1,5,-7
1693678314102996500,5,13,0,-4,-1,-11,0,-26
1693678314130980800,-5,-20,0,3,0,7,14,34
1693678314133980600,-4,-1,1,4,15,3,-10,-12
1693678314136975600,-30,-8,0,1,13,-9,-3,-2
1693678314138975400,37,14,-1,-3,-7,-1,-7,4
1693678314139973600,-18,-11,0,-1,-13,3,0,-9
1693678314140974100,-18,-4,-5,0,5,1,-1,-1
1693678314141973200,8,0,1,1,-8,-2,8,-24
1693678314142972600,-3,-3,1,0,5,-8,0,24
1693678314158962600,7,8,3,3,9,-1,4,-3
1693678314160961800,-28,-8,-1,-3,-13,-7,-15,-26
1693678314162962300,29,13,0,-1,10,0,2,0
1693678314165960300,-32,-30,-5,-4,-10,-4,-4,3
1693678314172955600,15,27,1,3,-1,-1,-6,0
1693678314174955800,11,-2,1,2,3,4,14,-1
1693678314180951100,-8,-14,-2,-3,-6,-6,3,-1
1693678314183951200,0,30,0,-4,4,-3,2,-1
1693678314199940800,-19,-13,-1,1,2,1,0,-6
1693678314200941500,-13,-9,1,2,-8,1,-2,1
1693678314202940500,-2,-3,3,8,18,3,-6,4
1693678314203939600,16,6,-5,-8,25,-2,11,8
1693678314218928300,-16,-16,-3,-1,-5,0,-2,7
1693678314219930300,-9,-16,-7,-5,-13,-7,-5,-10
1693678314221929600,45,21,7,6,9,-3,-10,-8
1693678314222929300,1,1,-5,-3,-8,-1,9,5
1693678314233921600,-10,-15,-2,0,-5,1,0,-6
1693678314235921800,2,1,2,2,19,-1,1,15
1693678314239916900,14,15,2,-1,-18,0,14,-4
1693678314241919100,7,7,-5,-7,-16,-6,-3,3
1693678314257907200,15,8,3,4,10,-2,-16,-4
1693678314259905800,-22,-22,0,-2,-4,0,15,6
1693678314260905300,0,-8,-3,2,7,1,-1,-8
1693678314261904500,-40,3,-1,-2,-18,-2,3,-10
1693678314282894000,-11,-23,-5,-4,-5,-6,-8,-34
1693678314284892900,26,9,2,1,2,-4,-6,32
1693678314286890000,-35,6,-4,-4,-4,-3,-14,2
1693678314288889500,28,-14,0,3,5,1,18,15
1693678314301882500,-5,7,-6,-7,-2,-6,-27,-27
1693678314303880900,-4,4,-1,0,-4,2,-5,-26
1693678314304879200,-51,-22,-5,-3,6,-1,6,29
1693678314305879600,5,-15,-1,-1,-7,-4,-43,-37
1693678314325867400,30,20,1,4,1,0,-6,11
1693678314327867200,-29,-8,-5,-3,-7,1,10,7
1693678314331867300,32,6,-1,-2,2,-4,-21,-13
1693678314333865100,-39,-22,1,4,2,3,7,19
1693678314338859400,47,42,8,1,-4,1,4,15
1693678314340858900,1,-15,2,2,0,-4,-15,-14
1693678314341858900,-36,-19,-5,-3,1,0,9,-40
1693678314342858100,10,29,1,4,2,1,10,38
1693678314353852600,-9,-26,-5,-2,3,3,0,9
1693678314354852900,-19,3,0,-5,-6,-6,24,-8
1693678314359847400,68,45,6,-1,3,-2,-27,27
1693678314361847300,-43,-27,-4,-2,-2,0,12,-32
1693678314376858400,-11,-2,1,0,1,2,13,15
1693678314377839700,25,14,1,2,3,7,7,-40
1693678314383836300,-37,-30,-4,0,1,2,12,36
1693678314385833800,26,24,5,3,1,0,-15,0
1693678314400825800,-102,-35,-8,-4,-3,-1,-4,-21
1693678314402823900,83,47,0,-1,1,0,10,15
1693678314406823600,-14,-9,-4,-5,-6,-7,-6,-1
1693678314407820900,18,-7,-2,1,0,1,-11,-4
1693678314415819400,-18,-15,-4,-3,-4,-2,13,-2
1693678314417816300,-16,-4,0,2,3,3,-4,2
1693678314419813300,0,-3,-3,-2,-4,-4,-4,11
1693678314421812200,-6,-3,2,0,0,1,11,-11
1693678314436805400,27,6,1,-3,-6,-4,7,4
1693678314438805700,-6,-1,-1,0,1,2,3,13
1693678314439804300,20,6,1,0,4,-10,-14,-27
1693678314441802400,-22,-16,-1,3,2,2,-1,-3
1693678314458791600,8,12,-2,-3,-1,2,11,-2
1693678314460790200,-9,-4,0,-1,1,-3,0,7
1693678314463790300,0,-1,0,1,2,7,9,-3
1693678314467787800,7,-1,0,3,6,-6,-10,4
1693678314492772500,11,4,-1,-2,-16,-4,-2,4
1693678314497770700,-7,-4,1,1,-4,20,-2,-1
1693678314502768000,2,2,3,-1,16,-12,4,11
1693678314505765700,0,-3,-4,-4,-20,-24,-4,-16
1693678314507765700,-10,-1,3,5,34,19,6,-6
1693678314509763900,-11,-5,-5,-3,-9,10,0,4
1693678314511760700,2,0,-4,-9,-12,-18,-4,-4
1693678314515764100,9,2,0,13,92,17,4,9
1693678314526752400,6,-6,-2,-16,-65,-32,-6,-4
1693678314527752300,-9,-2,2,3,22,-4,-6,5
1693678314533748600,4,6,7,22,-21,22,10,2
1693678314535747900,2,0,1,-4,66,20,-10,-2
1693678314536746400,0,-6,-9,11,0,-27,-1,2
1693678314537747800,-7,-10,-23,-53,-86,-34,-12,-5
1693678314541743200,3,0,5,29,30,6,-1,-4
1693678314542743900,-4,-1,3,-3,-50,3,-4,-4
1693678314565730700,1,-4,-13,-3,58,3,-3,2
1693678314569728400,2,2,4,5,-118,12,0,8
1693678314571726700,-2,2,2,-4,48,4,8,-26
1693678314572726500,-1,-1,2,5,63,29,4,26
1693678314577723600,1,-2,-2,-8,-32,-42,-9,0
1693678314582722200,-2,-3,-7,12,75,23,6,0
1693678314587718600,-5,-2,-6,-14,-32,-13,-7,-5
1693678314588717200,0,2,3,2,-17,2,4,-3
1693678314601709900,6,3,-1,-5,3,20,1,2
1693678314603709900,-4,0,8,12,47,-12,2,-1
1693678314605708700,-2,-1,-1,-7,-11,4,-2,3
1693678314606708300,-2,-4,-5,-12,-61,-18,-2,-5
1693678314616702500,0,0,3,-2,1,11,1,3
1693678314619700900,2,4,8,9,-36,-2,-4,-52
1693678314621699300,-4,-3,-4,-11,70,1,1,70
1693678314622698100,-1,-2,-6,-3,-41,-15,8,5
1693678314640687400,-3,1,3,3,29,6,-15,-8
1693678314644685100,3,2,7,6,55,3,0,5
1693678314647684500,2,-2,-7,-12,5,3,-7,-18
1693678314650682300,-4,-4,-2,6,20,-7,4,-4
1693678314652680500,-1,3,4,5,11,15,22,9
1693678314654679100,0,1,1,2,94,-7,1,14
1693678314661676100,1,0,-4,-9,-63,-3,-12,-50
1693678314665676100,-2,-3,-2,-4,-27,-20,-7,15
1693678314677666800,0,-2,-1,-4,4,13,1,-10
1693678314680665200,0,-2,-3,-1,9,3,1,10
1693678314684663900,1,0,-1,0,2,-5,6,-2
1693678314686663000,-1,1,1,-2,-12,10,2,-10
1693678314710647600,2,1,6,5,-45,1,3,1
1693678314715648600,-5,-4,-4,1,26,-12,-13,2
1693678314718645800,0,2,1,3,4,11,2,8
1693678314721640900,2,2,3,-2,-35,-5,-2,-16
1693678314723639500,-3,-2,0,6,68,5,-13,5
1693678314724639500,-1,-1,-3,-4,-39,-2,0,-2
1693678314726638200,-1,-3,-1,-1,-25,-1,4,-3
1693678314727638000,1,0,-1,1,19,0,-3,-1
1693678314736632400,0,2,1,1,2,1,-1,-3
1693678314738631700,-1,-3,-3,-6,-34,-4,1,0
1693678314742628300,-1,2,0,3,21,1,2,-3
1693678314744628800,0,-2,-1,-6,-3,-8,-12,28
1693678314760619300,3,-1,-1,-2,10,3,10,-3
1693678314763618600,-2,-2,-3,-4,-28,-6,5,-4
1693678314767616900,-1,-2,0,-4,-18,2,3,-45
1693678314769616000,-2,-3,-1,-3,-56,2,-1,45
1693678314781607600,-2,2,-1,-2,0,3,3,19
1693678314784609800,-1,0,-1,-2,12,-8,-5,8
1693678314786605500,-3,-3,-3,4,61,15,-3,-2
1693678314787604700,-1,2,1,2,5,-18,1,-21
1693678314799600400,0,-2,-2,-5,-43,4,12,-8
1693678314802596100,2,2,1,2,-12,0,-19,1
1693678314803594000,2,3,2,6,20,5,3,15
1693678314805592300,-2,-7,-6,-8,15,-4,-7,-22
1693678314819585300,1,4,3,2,-1,2,0,7
1693678314822585700,-1,0,1,3,32,5,6,-5
1693678314823585300,1,-1,-3,-8,-82,-14,-4,7
1693678314824583800,1,1,1,4,21,9,1,-5
1693678314832579800,-1,-8,-1,-1,-26,-8,-3,-7
1693678314834576800,2,4,1,0,-27,-4,9,2
1693678314841571500,0,-3,0,4,32,8,-16,6
1693678314842571900,-1,-1,-3,-4,-37,-5,10,-12
1693678314855563700,-4,-5,-6,-13,-42,-12,-15,-6
1693678314857563100,0,-2,-1,-3,25,35,-3,-12
1693678314867559100,0,-3,-2,-3,-12,-60,4,7
1693678314869556800,-1,4,3,2,36,9,1,-7
1693678314882552900,-4,-2,-1,6,22,-1,-6,-6
1693678314884550200,0,-2,-1,-1,-8,2,1,5
1693678314885549200,1,3,0,-1,3,8,2,5
1693678314887547100,1,-3,-2,-2,-8,-4,-2,-1
1693678314892542600,5,3,1,1,10,0,-4,-7
1693678314894541900,-8,-2,-2,6,54,5,-1,-1
1693678314907535800,-4,-8,-5,-5,-55,-3,9,-1
1693678314908533900,1,2,-1,-5,10,1,-16,-20
1693678314916534300,2,10,1,2,-11,-15,-1,20
1693678314918530000,-6,-3,-3,-5,2,-9,17,19
1693678314922524700,13,3,3,8,26,11,-24,-9
1693678314924524500,0,-4,-6,0,34,66,7,-2
1693678314939517100,-18,-7,7,10,-18,-15,-8,-21
1693678314942516800,7,-1,-2,-13,-85,-22,18,10
1693678314944515300,-9,4,0,-3,-30,11,9,24
1693678314946515600,-16,0,1,-6,14,-49,-5,-26
1693678314952509600,4,9,0,12,58,56,3,37
1693678314954506900,16,-6,3,20,81,-17,-3,-9
1693678314961503400,-76,-14,-3,-18,-28,-3,-1,-5
1693678314966502100,79,-3,-9,-10,90,8,-16,4
1693678314984490300,-84,-36,6,17,65,5,-2,-41
1693678314986488900,73,60,1,0,8,33,18,18
1693678314988487700,44,14,2,0,20,-21,-35,24
1693678314988487700,-105,-28,3,16,31,17,16,-16
1693678315006477200,94,22,-7,-34,-122,-62,-8,-16
1693678315007479400,-81,-62,-8,-1,27,100,-16,12
1693678315016474400,-77,-23,-1,-1,44,-8,20,-72
1693678315018471600,74,72,-2,-1,-38,-51,8,4
1693678315021469400,-13,-28,1,0,-1,2,-3,64
1693678315023467900,30,29,7,3,-11,-8,0,-24
1693678315024469500,7,-10,-10,-8,-44,6,25,10
1693678315026486800,-64,-24,18,27,8,13,2,-14
1693678315036462500,40,9,0,1,48,40,26,-7
1693678315037462500,12,18,-11,-24,-46,-106,-20,2
1693678315055450800,47,7,26,34,40,31,7,17
1693678315057451000,-111,-65,-10,-4,-5,-7,14,-79
1693678315060447500,61,60,0,-4,-9,2,-41,73
1693678315065445800,61,13,-10,-13,-35,-12,14,12
1693678315073438700,-7,-16,-17,-15,2,-5,-9,6
1693678315075437800,35,18,-9,-9,-23,-5,9,32
1693678315089429800,-97,-63,11,15,13,7,0,-27
1693678315091430100,-70,8,14,11,5,-13,-33,-47
1693678315093428500,70,24,-3,-3,61,9,14,-20
1693678315096426700,13,13,12,10,-17,30,13,68
1693678315101424000,-13,-12,-23,-34,-56,-40,-7,-21
1693678315104421500,-39,-34,3,6,14,12,-15,8
1693678315106420300,17,8,0,1,16,5,-12,-19
1693678315108419600,23,18,-7,-12,-19,-4,-16,20
1693678315119412400,0,-4,-2,3,10,1,20,-11
1693678315121412300,19,25,5,2,12,-9,20,-32
1693678315123411400,11,-9,-1,-3,-37,-5,-22,15
1693678315125409700,3,11,-3,-7,-9,-9,12,-17
1693678315147398400,-42,-13,-1,8,26,11,-27,5
1693678315150397300,-26,-8,1,2,6,10,5,9
1693678315151395800,-7,8,1,3,7,-15,25,41
1693678315153393900,78,13,5,-3,-10,6,-18,26
1693678315156391500,22,16,3,-1,23,-1,5,-35
1693678315157391800,-55,-30,-6,-7,-5,-5,-1,-1
1693678315165391100,-28,3,3,8,-8,15,1,15
1693678315167385800,21,-7,1,2,7,-28,-25,-9
1693678315181378500,-8,7,-8,-9,-13,-3,5,-23
1693678315183377300,10,-9,-3,-1,4,-1,2,0
1693678315185377000,-46,-18,0,2,7,3,4,-1
1693678315187373400,56,26,-1,-7,-35,-3,-10,5
1693678315201366100,-28,-25,-6,-3,6,-3,23,21
1693678315203364200,14,0,-2,1,24,3,-9,-48
1693678315204364400,36,7,-3,-7,-11,-8,1,72
1693678315206364000,-44,-8,2,5,18,2,1,-5
1693678315221356500,33,6,-2,-11,-33,-3,10,-10
1693678315223352900,-13,-6,1,3,5,-3,-8,19
1693678315224352800,-40,-10,-3,-6,-17,-5,-3,-36
1693678315226352200,-19,-13,-2,-5,15,8,-6,-3
1693678315239344100,5,28,4,8,5,-19,9,-4
1693678315240343800,15,-16,-3,-6,-19,-3,-20,31
1693678315241343400,-5,-1,-6,-3,-1,-1,13,-23
1693678315242342400,10,8,-1,0,-1,1,0,3
1693678315260331900,4,-4,3,6,24,13,-3,-10
1693678315264330400,-11,8,-1,-3,8,1,-7,6
1693678315269327700,35,4,-4,-3,-63,-7,6,17
1693678315270326300,0,3,0,-1,0,5,5,-1
1693678315276322400,-44,-18,-7,-6,5,9,-1,-13
1693678315277323800,16,11,2,2,-8,-18,-8,7
1693678315283320500,2,-5,0,2,21,9,1,6
1693678315291314600,-30,-16,-5,-5,-5,-1,11,-7
1693678315300310500,28,16,1,5,2,5,-15,-2
1693678315303309000,5,-12,0,6,2,12,10,11
1693678315304308500,-21,1,-1,-3,10,-10,-18,-35
1693678315305306500,4,-3,-1,-1,-17,-9,0,-39
1693678315321297200,-46,-14,-5,-7,10,5,12,46
1693678315323296500,20,4,0,-2,-3,11,15,11
1693678315324297200,57,55,4,2,3,-4,-2,-24
1693678315325294500,-15,-16,-4,-1,-5,-3,-6,-11
1693678315352281300,22,-2,-3,0,0,1,-1,1
1693678315354278800,-34,-16,-3,-1,-2,-3,3,-12
1693678315355277800,-18,0,0,0,-3,2,-9,3
1693678315357277000,-3,4,-1,-4,0,-1,-4,11
1693678315359275700,0,1,2,5,9,11,-9,-20
1693678315361275600,12,-1,-5,-4,-19,-47,-10,-4
1693678315366272100,4,0,1,0,14,2,10,33
1693678315368272800,-10,-7,1,0,1,7,-11,-2
1693678315389258300,4,0,4,2,-3,-7,0,2
1693678315391258500,1,6,-4,-1,-1,11,8,-7
1693678315393261300,-29,-18,-4,-3,0,-2,-14,-17
1693678315394257200,2,2,2,3,-1,3,6,17
1693678315404249100,16,11,2,0,6,-1,-12,-15
1693678315405249400,-12,-3,0,-2,18,20,7,-7
1693678315407247700,1,-8,-1,-2,-22,-19,1,-5
1693678315408247300,-7,-8,-3,0,2,6,-4,7
1693678315424238400,21,10,0,1,6,-3,2,-5
1693678315425239600,0,0,1,0,-3,-2,0,8
1693678315426237000,-32,-12,-2,0,8,7,-7,-23
1693678315429236700,-9,3,-2,-1,-5,-5,16,-1
1693678315441228300,8,2,-3,-3,-2,-2,-12,-20
1693678315443226900,3,-1,1,0,0,-1,-14,9
1693678315444227100,11,1,0,-2,-6,-1,-4,4
1693678315449224500,5,3,1,1,-1,-9,-6,-2
1693678315467213700,2,-3,-2,-3,-3,-4,18,17
1693678315469213600,-5,1,0,-2,-7,8,4,1
1693678315470214300,9,-2,-2,-3,2,-6,-6,-3
1693678315472212300,-10,-2,1,4,13,26,0,-10
1693678315482206300,-4,-2,-1,-3,-9,-44,-7,-3
1693678315484205000,3,2,1,0,-12,-1,4,-2
1693678315486203700,-7,-4,-2,1,10,8,-1,-7
1693678315487203400,5,0,1,0,7,7,4,4
1693678315509189300,0,0,-1,2,-7,9,8,6
1693678315510189300,-4,-1,-1,-7,22,3,-7,-8
1693678315514189600,-3,0,-5,-14,-12,-8,7,-4
1693678315517186800,2,0,5,19,71,5,-4,6
1693678315519185600,-1,-2,-5,-9,-83,-2,-2,3
1693678315520184600,-5,-4,-6,2,-44,-7,1,-9
1693678315524181100,1,-3,-2,-14,19,24,0,1
1693678315526180100,-2,-7,-12,-1,-83,-12,-5,6
1693678315549167800,-2,5,15,0,-14,29,1,-2
1693678315551169200,-1,0,-4,11,100,-13,0,-6
1693678315553165700,1,-2,-18,-11,-44,-2,-2,3
1693678315555163900,-7,-3,11,-11,-20,-15,-8,-2
1693678315571155900,-3,-2,0,25,29,3,-1,-7
1693678315572153600,4,1,1,-4,-55,3,3,2
1693678315576151700,-20,-5,1,13,57,1,1,-6
1693678315578149500,2,0,-9,-10,-4,-7,-3,6
1693678315582149800,-12,-4,-4,-6,6,-3,-2,-6
1693678315584148300,-1,3,2,-8,2,2,2,10
1693678315586147200,-3,0,5,14,6,-3,-2,-3
1693678315587144600,-22,-2,-8,-14,-15,2,-2,-4
1693678315599139100,-4,-5,-3,-20,-44,-18,0,-70
1693678315601136900,18,-2,-1,3,10,2,-13,80
1693678315603137900,-7,1,4,4,-5,10,2,-1
1693678315605134600,14,1,3,5,18,-4,1,-1
1693678315637117200,-5,2,-1,2,-33,6,2,4
1693678315641114100,-7,-1,-3,-9,-8,-3,2,-33
1693678315649110600,9,0,4,10,17,-7,1,7
1693678315652109500,8,-1,3,7,62,8,0,4
1693678315654106600,6,-1,-5,-2,49,-2,1,13
1693678315655105800,-13,-5,-2,-2,-1,2,-1,-14
1693678315656104800,12,3,3,0,28,-1,2,8
1693678315657105100,-5,-2,-4,-1,3,-6,1,-9
1693678315659103900,0,6,1,3,49,15,-3,10
1693678315661105100,1,1,3,2,-16,-7,-2,-6
1693678315667101100,-6,-5,-2,-4,-15,-20,-4,-7
1693678315670098500,1,1,-1,1,33,0,4,-1
1693678315674095100,6,-2,-2,-9,-40,-4,5,20
1693678315675095100,-4,-6,-1,0,-14,5,3,-24
1693678315689085900,3,4,2,-1,6,1,-4,14
1693678315690085900,-5,-1,-1,-1,-2,-2,5,3
1693678315692086000,4,-3,1,6,-8,1,0,10
1693678315693085700,-5,-1,-6,-11,-55,-10,2,-11
1693678315699082200,-5,-6,-4,-4,-25,8,-2,-8
1693678315701080700,4,3,4,-1,-17,-2,-3,7
1693678315720069600,-3,1,0,1,39,16,-4,2
1693678315725065600,-1,-2,-1,5,14,20,0,-29
1693678315726065800,0,-1,-2,-6,-42,-45,5,29
1693678315727065300,3,1,1,-6,-17,1,-3,26
1693678315741056300,0,2,4,7,31,6,6,-14
1693678315743055800,-2,-2,-3,-8,-47,7,-1,8
1693678315745054600,0,-1,1,3,3,6,8,-28
1693678315749055400,-2,-4,-3,0,-12,-5,-13,-10
1693678315751051900,-2,-5,-3,-1,6,-21,-2,16
1693678315753049700,2,6,-2,7,83,1,0,-24
1693678315757046900,-2,1,4,0,37,20,-6,14
1693678315759046500,-2,-2,-1,-4,-3,-31,-2,-1
1693678315789029400,0,-2,-2,-4,4,25,-5,-2
1693678315791028000,1,1,3,1,13,-56,-5,7
1693678315793027600,1,0,-2,0,25,9,7,-8
1693678315795025600,1,2,-1,-2,12,11,-16,4
1693678315799024600,1,-1,1,4,19,-3,-1,-7
1693678315803022200,1,4,3,7,-25,-2,3,9
1693678315805019800,0,-2,-4,-3,44,7,-5,-2
1693678315806018900,-2,-2,-1,-2,-25,-6,7,-7
1693678315828008900,1,-1,-1,0,26,-3,1,4
1693678315831008600,-1,-2,1,2,-4,7,-11,4
1693678315834004500,-1,0,2,7,51,14,8,8
1693678315836002500,3,3,0,-5,-66,-7,-10,-26
1693678315839000300,-2,-5,-5,-8,-26,-4,-6,14
1693678315841000000,-1,-1,0,1,54,23,12,6
1693678315842998100,1,1,0,-4,-59,-12,-5,-1
1693678315844999000,-3,-3,-2,3,41,6,5,-3
1693678315853992800,-2,1,1,2,20,-5,-2,-3
1693678315854993100,-1,0,0,0,13,-2,1,2
1693678315859987300,-1,-2,-4,-6,-31,7,-3,-10
1693678315860988000,-3,-7,0,2,1,0,2,2
1693678315867984600,5,3,-3,-7,-2,-10,-3,-3
1693678315869983200,-2,-1,0,0,-9,5,3,4
1693678315876567200,-2,3,2,3,1,17,-8,-12
1693678315877548100,1,0,1,1,16,0,8,6
1693678315891540200,-3,-1,-2,0,33,-7,-5,0
1693678315893539400,-3,-2,-4,-9,-30,-4,4,-3
1693678315899536700,2,-2,-2,-3,0,-2,-2,-3
1693678315901535100,-1,2,0,2,-14,6,2,0
1693678315914527700,0,0,2,4,14,-1,1,-1
1693678315917527600,0,-1,0,1,2,2,-3,1
1693678315920522900,-5,-1,0,4,25,-1,-6,2
1693678315921523000,1,-4,-5,-1,-53,1,17,-16
1693678315951508900,-21,-1,2,2,9,-4,1,14
1693678315953504600,-12,1,-1,2,82,8,14,-40
1693678315955504100,14,-2,3,-8,-118,-15,-5,58
1693678315957501500,-6,9,-3,7,61,1,-11,-7
1693678315958501700,31,3,1,-9,-47,1,-22,25
1693678315959499800,-12,-27,-4,1,28,5,0,-11
1693678315966498300,41,41,0,5,65,14,22,-20
1693678315969497900,-5,-25,1,4,-40,22,16,-11
1693678315973493600,-15,5,4,-8,-58,-48,-18,-7
1693678315975492200,24,16,7,14,9,-8,-13,35
1693678315987485000,-70,-42,-10,-10,9,-5,-7,-44
1693678315989484000,49,16,-5,-1,13,-4,-2,41
1693678316004475400,-12,10,-4,-12,-10,21,17,-10
1693678316006474900,-4,2,20,15,-18,7,16,19
1693678316008475500,-10,-11,-1,2,61,-5,0,5
1693678316009473800,-12,-2,-15,-23,-112,-35,-18,-11
1693678316019466900,0,1,7,13,39,25,10,15
1693678316021466300,-28,14,-5,-6,-16,-20,-1,6
1693678316023465600,56,17,5,4,-10,0,-16,-46
1693678316025464700,-62,-85,-5,-3,35,13,11,40
1693678316035458600,68,69,-3,-2,-2,-3,-20,4
1693678316038455700,44,2,-14,-12,-39,-2,15,2
1693678316040454000,-15,-9,-14,-18,-30,-1,3,6
1693678316042454300,-2,9,12,9,34,-1,-4,-8
1693678316071437100,-21,-23,4,23,9,1,13,-4
1693678316073437400,-28,-11,16,15,72,20,-12,-17
1693678316080434100,8,10,0,-17,-100,-32,-7,21
1693678316083430800,2,9,2,9,78,15,8,3
1693678316084429000,-26,-29,-13,-24,-25,-12,-9,-33
1693678316086428400,20,10,-13,-14,-15,-1,-12,11
1693678316087427500,-14,-17,-4,5,27,5,4,-4
1693678316088427500,-18,10,2,-2,-23,0,-2,-26
1693678316093423900,-25,-23,-4,2,9,0,-24,-10
1693678316097422300,30,16,-3,-7,-20,-3,-5,-14
1693678316100421200,-31,-19,-1,5,-2,0,3,18
1693678316102418700,-27,-9,1,-1,-14,-1,2,-16
1693678316116410600,74,46,-1,3,8,-1,-2,-5
1693678316119410200,-43,-27,-7,-9,-34,-3,13,3
1693678316132402900,-22,1,7,8,9,2,-5,3
1693678316135401000,22,29,5,-1,3,-5,9,-3
1693678316136399200,-52,-49,-5,0,1,0,15,-28
1693678316137401400,-19,5,-7,-10,-13,-3,1,17
1693678316148399800,27,1,-1,2,-7,0,6,13
1693678316149392300,-10,-6,-1,3,49,0,-17,-46
1693678316153388800,18,7,7,4,-30,2,25,42
1693678316154388800,23,7,0,-5,-24,-6,-32,-23
1693678316167381100,-11,-20,-8,-5,22,1,11,22
1693678316169382400,-19,-13,-1,0,-9,-5,-1,-22
1693678316175376600,17,0,2,1,20,1,-16,38
1693678316177379400,54,28,2,0,-12,2,10,-44
1693678316192367300,-17,-10,-2,-1,-1,-3,21,-22
1693678316194365900,-12,2,0,-5,10,-6,-33,6
1693678316196365900,-20,-12,-8,-5,6,-1,10,-2
1693678316199364200,-37,-24,0,1,-8,-3,14,35
1693678316200363200,33,30,5,3,7,-2,-3,-8
1693678316202362900,2,1,0,0,-11,4,10,10
1693678316221350000,-25,-19,-9,-5,-1,-7,-6,-21
1693678316223349700,5,3,3,3,2,2,-1,19
1693678316224351100,-9,-1,1,2,2,1,-4,-15
1693678316225350600,34,19,1,1,-7,-2,-13,17
1693678316244338300,5,-6,-4,-3,-2,2,24,-19
1693678316249340200,-9,-8,0,3,27,2,-3,-3
1693678316252334800,-49,-10,-2,-5,-61,-11,-11,-5
1693678316254333500,61,15,-4,-3,-8,-1,-6,46
1693678316255333000,-18,-7,6,2,-2,-5,-3,-38
1693678316256331600,2,11,3,5,6,0,-12,4
1693678316266326700,-8,-3,-7,-3,16,-3,-5,-18
1693678316268323100,-16,-8,-1,-3,-10,-5,-6,-7
1693678316273320100,0,-3,-6,-1,-1,5,4,6
1693678316275321700,-17,-6,0,-3,-5,-2,-3,10
1693678316283317000,17,1,1,-2,-3,-6,-37,-34
1693678316285314900,-11,11,3,1,-14,-2,8,19
1693678316299307600,4,-5,4,6,8,2,-1,8
1693678316301306100,-37,-23,-10,-6,-5,1,9,-21
1693678316304305200,39,20,2,2,2,-3,-38,26
1693678316305303100,-2,12,-2,-1,2,0,19,-11
1693678316320295900,-1,-10,-1,-2,-1,0,-2,4
1693678316321294300,-14,-9,-1,-1,-7,0,-3,-4
1693678316324292000,16,10,8,8,12,4,12,3
1693678316325291000,2,2,1,-1,1,-1,3,-3
1693678316340281600,-11,-2,-5,-7,-6,-3,-15,1
1693678316343281300,-4,-10,-3,-3,-7,-1,-2,-6
1693678316349277800,-5,11,3,4,10,5,14,-3
1693678316350277700,21,5,1,3,13,2,-12,-5
1693678316357274400,-19,-4,-1,-2,-26,-5,7,30
1693678316359272200,30,6,-2,0,-2,-3,-33,-4
1693678316361272700,-10,-9,-2,-2,4,4,15,2
1693678316364272800,-16,-10,-5,-4,-5,-2,3,4
1693678316370264500,3,7,4,-3,4,-4,-19,-30
1693678316371265400,7,-3,-2,0,-4,-2,-2,0
1693678316383260400,-3,-2,0,2,4,3,6,29
1693678316384257600,-21,-18,-3,-3,1,0,-1,-21
1693678316393252600,16,21,2,2,6,2,5,-17
1693678316396251400,-26,-9,0,-2,-5,-1,-6,20
1693678316408243600,25,11,1,1,6,2,9,-1
1693678316409243200,-2,-6,-2,-2,-6,-2,10,20
1693678316432230400,0,-3,-1,1,2,2,10,-8
1693678316434229300,-7,-1,0,0,-4,-1,-1,2
1693678316436229800,-4,-5,-1,0,0,-3,-5,-6
1693678316437229600,4,4,-3,-4,-6,-1,1,-16
1693678316439227800,3,1,0,1,0,-2,0,23
1693678316440225200,7,4,0,0,3,-1,-1,-15
1693678316447222300,-12,-10,-2,-1,2,-1,-2,2
1693678316449222100,5,1,-1,-1,-3,-2,-1,-6
1693678316453216900,-1,-2,-1,1,4,0,1,1
1693678316455216800,1,-1,0,0,1,2,5,-2
1693678316468209000,-5,0,0,2,-8,-5,2,-12
1693678316469208900,1,-2,-1,-1,3,-1,-7,8
1693678316476203600,-10,-2,1,1,-11,-4,-3,-4
1693678316478582600,4,0,-1,-3,4,4,4,5
1693678316482580900,7,0,0,2,7,4,3,6
1693678316484579600,-2,8,2,1,2,2,-1,-6
1693678316499570500,3,-5,-3,-1,-1,-3,-5,3
1693678316501571100,13,-2,-3,-4,-8,-5,8,20
1693678316502571000,-26,-8,-3,-1,0,-1,-16,-30
1693678316504568600,3,4,1,1,0,0,0,5
1693678316521557600,-10,-3,-1,-2,3,1,1,-1
1693678316523557900,-7,-2,-1,3,-1,-1,-4,-3
1693678316524556600,13,-1,-4,-5,-5,0,8,10
1693678316525556000,-1,1,1,2,-1,3,1,3
1693678316550542100,-6,-3,0,-3,15,2,-3,-7
1693678316552541300,5,-1,-5,3,-17,-2,2,-2
1693678316553541800,3,2,-1,-6,-18,0,3,6
1693678316554541300,1,-1,-2,-3,-3,-5,-4,-8
1693678316557540300,3,-1,-1,1,9,6,5,2
1693678316559535900,-1,4,0,-1,27,0,1,-5
1693678316574527100,2,1,7,5,-31,0,3,5
1693678316576527300,-3,-4,-10,-10,-5,-8,-4,-1
1693678316581525000,1,-1,2,10,54,5,-3,0
1693678316583523700,0,-2,-9,-6,-21,-4,0,-3
1693678316584521700,-6,-2,-4,20,38,19,0,-1
1693678316586521100,4,9,39,-16,-80,-38,0,5
1693678316606509200,-1,-5,-9,-3,32,2,-3,-3
1693678316608508400,0,3,9,18,61,14,4,-4
1693678316610507400,1,-1,-10,-16,-33,-19,3,4
1693678316612506300,-3,-9,-16,6,120,23,-3,-6
1693678316626575500,-2,-1,-1,-3,-24,-12,-3,-1
1693678316629497500,-2,-1,-2,-13,-44,-10,-2,-3
1693678316632494800,-1,0,2,7,35,8,2,11
1693678316633494400,0,-2,-3,4,5,4,4,-7
1693678316649487500,0,2,5,5,-29,2,-8,-1
1693678316651483600,-1,-2,-6,-1,25,7,-1,-1
1693678316652483300,0,1,6,3,74,17,0,-1
1693678316653482500,-1,-1,-6,-5,-4,-15,4,-48
1693678316665476300,1,-1,-4,-6,-47,-6,-9,64
1693678316667475100,-1,-1,4,0,-18,9,2,-4
1693678316670473500,3,1,0,-9,3,-16,-8,-1
1693678316671473400,0,-3,-5,5,-8,7,2,6
1693678316677467400,0,0,2,2,32,10,1,-23
1693678316681467800,-1,-1,0,-6,-10,0,1,-4
1693678316686463200,-3,-1,0,0,-15,-8,-4,6
1693678316688462700,0,-1,-5,3,-3,10,-4,1
1693678316701454400,-1,2,0,-3,-17,-16,8,-9
1693678316703454400,1,0,3,6,7,1,-11,-4
1693678316704453500,-4,-3,-2,-6,28,1,0,0
1693678316705452000,-2,-2,-4,-3,-31,-12,-3,15
1693678316724441400,0,0,2,-1,-25,8,5,0
1693678316726495400,3,3,2,4,72,-2,5,-9
1693678316727441500,-1,-2,-2,-5,-56,-4,-3,-6
1693678316730440400,-1,-1,1,2,5,6,-3,7
1693678316737434900,1,-1,-3,-1,17,2,0,-2
1693678316739433100,1,2,-1,0,-19,-3,2,0
1693678316748429300,0,-2,-2,0,11,-7,4,2
1693678316750428000,-4,-3,0,2,-11,1,0,12
1693678316763420000,-1,5,1,3,34,4,-2,-16
1693678316766417900,0,-2,0,-6,-30,-11,5,5
1693678316768417900,-3,-2,-6,-5,24,-3,-5,-5
1693678316770415800,0,1,-2,0,43,2,-1,2
1693678316787406700,-5,-1,0,1,7,4,8,0
1693678316789403800,1,1,2,5,-1,-5,-5,-3
1693678316790404100,-2,-2,0,-2,-20,0,-1,-1
1693678316791403200,1,1,-1,0,-26,12,5,8
1693678316797400000,-1,1,-1,-4,0,-23,-4,-19
1693678316799399100,-2,-1,-1,2,6,2,2,28
1693678316806394300,-2,-4,-4,-10,-42,-8,-6,-12
1693678316808393100,-1,-1,0,1,-5,0,2,4
1693678316832380100,1,-2,-2,-4,-20,3,-2,8
1693678316833379600,-2,-2,-1,2,29,4,10,-17
1693678316835378100,4,2,2,3,-10,9,0,-3
1693678316836377400,-3,-4,-4,-5,10,-11,-8,-2
1693678316851368300,-2,-1,0,-1,11,6,-1,-1
1693678316853367100,-2,-3,-3,-7,-12,-10,-4,-5
1693678316854367400,-1,0,0,5,39,10,0,3
1693678316855366700,0,2,-3,-2,-20,-5,0,-2
1693678316857365100,2,-1,0,-1,-2,-1,-2,-3
1693678316858365200,6,-1,-1,0,-5,-2,-1,1
1693678316866360400,-1,-1,0,1,-19,-3,1,-3
1693678316868358900,-1,-3,1,1,0,2,-1,2
1693678316891348500,-13,-4,-4,-3,-1,-2,-2,-3
1693678316893346000,-5,1,0,-3,-16,3,3,1
1693678316895344300,10,2,1,-2,-8,-5,-2,2
1693678316902341300,-2,1,3,7,14,2,1,-3
1693678316904338800,14,-8,-5,-6,-16,0,-1,2
1693678316906337600,-14,3,5,-7,-45,-3,1,-2
1693678316908336400,-3,-21,-18,-6,49,-2,-8,-8
1693678316909335900,-5,12,-11,4,6,-3,-9,-7
1693678316926324600,40,24,21,17,44,8,20,13
1693678316929325400,-20,-6,-5,-19,-72,-7,-4,13
1693678316932322700,-24,16,22,17,15,3,-8,-57
1693678316933322400,-12,-31,-13,-18,-26,-5,-32,0
1693678316951312300,54,10,-33,-22,-31,-4,19,67
1693678316954310300,7,25,32,33,51,7,12,-2
1693678316955310900,16,-17,-6,-21,-30,-2,19,15
1693678316960307700,-9,5,-18,-4,19,-1,-17,-14
1693678316965304200,-37,-35,24,14,-5,-3,-25,-39
1693678316967302900,-4,9,-25,-22,8,-6,-1,7
1693678316969302000,-10,-1,7,14,-2,-1,5,10
1693678316970300800,-4,19,10,-6,8,2,6,-12
1693678316986290700,-110,-29,7,10,-2,2,19,-10
1693678316988290000,115,43,-7,-8,9,-6,-29,11
1693678316989291700,-57,-37,1,6,-14,-8,-10,6
1693678316991290400,0,-2,-7,-2,-1,0,28,-5
1693678317001283400,21,35,-3,-7,-12,0,-5,-47
1693678317002283000,-54,-28,4,10,5,2,0,35
1693678317007278700,-6,0,-22,-17,0,-3,3,26
1693678317009283500,-85,-58,23,15,13,7,-10,6
1693678317024269600,-22,18,-7,-7,-17,0,0,-45
1693678317026268000,36,83,3,13,7,4,6,28
1693678317027268200,40,-2,-11,-32,-8,-8,-8,28
1693678317030267600,-18,21,28,41,9,4,5,4
1693678317054252000,-31,-43,-3,-4,4,0,4,33
1693678317055253600,-54,-45,-4,3,0,2,0,-32
1693678317057273400,-1,31,3,2,1,0,2,-17
1693678317058250400,21,-7,-1,-12,-12,-1,14,9
1693678317061249100,4,1,-4,-3,-8,-8,-18,-5
1693678317065249500,12,-19,-11,-11,19,-2,0,-8
1693678317075240300,-5,1,4,5,-57,-2,-4,-17
1693678317076242100,16,-7,-7,-6,2,-1,-9,11
1693678317084242500,13,0,-5,-4,-18,-1,3,17
1693678317086242300,25,10,-2,-4,35,-5,5,-15
1693678317087241400,-5,7,7,7,14,-1,-16,1
1693678317088240900,1,12,3,2,-6,3,14,1
1693678317106229400,12,17,-4,-5,3,0,6,-40
1693678317108228800,-7,-39,-3,0,-30,-5,1,36
1693678317110228500,6,20,17,14,17,5,-2,-21
1693678317111227500,32,11,-9,-12,-12,-6,-6,13
1693678317133215400,-7,-16,-8,-10,10,0,-1,10
1693678317134214000,-76,-48,-4,9,-8,0,-10,-32
1693678317136213300,39,33,9,7,14,5,12,21
1693678317137212400,-13,-9,-4,-6,-3,-7,-15,-36
1693678317143209300,25,6,-4,3,7,0,5,34
1693678317148210600,-20,-6,-4,-12,-6,-3,3,-31
1693678317150206400,-33,-27,-10,5,-1,0,2,20
1693678317152205600,9,-5,-16,-26,-2,-1,-6,-8
1693678317166197500,-14,7,18,36,8,-2,-13,-5
1693678317168196500,39,36,2,-8,-1,0,4,2
1693678317169195600,-3,-6,16,19,36,1,-4,-8
1693678317170197300,-4,-12,-14,-16,-14,-3,-1,2
1693678317180194400,-18,-5,-5,-15,-14,-14,9,11
1693678317182217600,-7,-3,7,14,-15,4,-3,-4
1693678317190187000,-4,4,8,4,12,1,2,-6
1693678317197187300,-26,-7,-3,3,-4,-1,3,6
1693678317205180200,35,10,-10,-13,5,0,-7,6
1693678317206177600,-25,-28,-12,-14,-7,0,-4,-8
1693678317208176200,5,2,-9,-5,-18,-6,-2,-14
1693678317209195700,47,8,1,3,5,3,6,20
1693678317226166000,-18,-5,-2,0,-3,2,7,2
1693678317227166200,11,-24,0,1,1,-3,-6,-6
1693678317230166600,0,11,-5,-13,-1,3,10,4
1693678317233162800,-13,17,21,19,-4,-4,-7,-2
1693678317242156400,-6,-12,0,5,7,1,-12,-11
1693678317243179500,16,15,-1,-1,-3,-2,-4,-1
1693678317256150000,4,-25,-9,-8,0,4,5,11
1693678317257171800,15,34,-3,-3,-2,-2,9,-26
1693678317264152000,-23,-19,1,-2,1,2,-13,9
1693678317266144600,-7,16,21,16,10,0,8,10
1693678317268142400,6,-1,-8,-11,-17,-3,-1,2
1693678317269142000,14,8,0,0,0,2,17,17
1693678317286157900,-4,-8,-12,-12,-8,-4,-16,-42
1693678317288157600,-28,-4,-2,1,2,2,7,14
1693678317290155000,6,-5,2,0,-1,-4,-9,1
1693678317291155400,8,-3,-7,1,-1,1,-7,5
1693678317300149900,-2,5,13,5,3,2,8,-2
1693678317302148700,29,11,0,-2,-2,0,-5,-9
1693678317317140300,3,-10,-3,4,-4,-1,-4,15
1693678317319138900,46,-6,-3,-5,0,0,8,27
1693678317323136400,-38,0,-4,0,-2,-1,-5,-36
1693678317324138300,-85,-23,0,3,2,4,-10,-9
1693678317333131600,-26,11,-9,-11,-5,-5,7,-12
1693678317336129300,8,1,5,2,2,-1,4,13
1693678317354118100,51,-4,1,1,-3,-1,-1,28
1693678317356117600,14,13,0,-3,-2,-1,-13,-10
1693678317357117200,-2,-14,-6,0,0,-2,5,15
1693678317358116100,-36,12,1,0,1,-2,-36,-38
1693678317360116400,48,-4,-1,-6,0,-1,-10,23
1693678317363114700,0,9,1,1,-2,-4,-19,-34
1693678317368111200,22,-5,6,6,4,1,-9,11
1693678317370110100,-24,-9,0,-1,-4,-4,6,-8
1693678317384108400,-8,0,-1,-4,2,3,-6,11
1693678317386105400,57,9,-6,-4,1,3,10,2
1693678317387104700,-33,-9,-4,-2,-3,-4,-11,-6
1693678317388104000,-5,6,0,0,-2,-1,-22,-20
1693678317407092300,17,9,6,3,2,1,25,15
1693678317408094700,-62,-23,-9,-7,-4,-9,-39,-31
1693678317409092100,10,0,1,1,-1,1,-8,-12
1693678317410091600,-23,-28,-4,-3,-1,2,9,14
1693678317432080500,24,33,-3,-1,-2,12,10,26
1693678317438075400,58,-16,0,0,-3,-26,-7,-40
1693678317440074100,-105,0,-2,-4,-2,1,0,-38
1693678317441074900,45,-28,-6,-2,-1,-2,-17,-3
1693678317444072100,19,32,3,3,2,0,10,2
1693678317448072700,22,-6,-2,-4,0,7,19,44
1693678317449069400,39,10,0,0,-1,-2,4,-20
1693678317450068400,-15,1,3,1,1,2,13,19
1693678317466059300,-21,-19,-4,1,-1,-5,-11,-1
1693678317467059100,21,17,1,-2,1,7,20,9
1693678317469058800,-22,-3,3,2,0,-2,-2,5
1693678317470058000,-10,2,0,3,1,4,11,3
1693678317493045900,-10,1,-1,-2,-2,-5,-13,-17
1693678317494042700,-39,-5,-6,-5,-1,1,2,-3
1693678317498043500,21,3,-2,-1,0,-1,-2,5
1693678317500040900,-3,2,-2,-2,-1,-5,-1,8
1693678317514033400,-9,-16,-1,4,14,3,-4,-7
1693678317516031000,5,6,2,-5,-17,-2,8,14
1693678317518030600,18,7,1,4,11,6,2,-18
1693678317519029000,4,3,-1,-11,-33,-21,2,27
1693678317535020200,-18,-1,3,0,-4,-6,-3,-12
1693678317536019500,-8,4,2,1,6,5,0,13
1693678317538017700,16,-2,-1,0,0,-1,7,-2
1693678317539017400,-20,-3,-4,3,8,3,-4,-33
1693678317557007500,-3,-3,-3,0,-1,0,-13,13
1693678317559007400,-3,-2,-3,-3,-5,-6,31,-18
1693678317560006500,9,-4,-15,-18,13,7,3,17
1693678317563005300,5,4,0,21,13,1,8,-1
1693678317568001500,-3,3,8,0,-25,-4,-3,1
1693678317569999300,-3,-7,-1,3,4,-2,-9,-9
1693678317571001200,-2,-3,2,4,-6,5,2,4
1693678317572998000,0,2,-7,-4,25,11,7,7
1693678317585991800,-3,-3,-6,-3,38,-2,8,-13
1693678317587991500,-6,-4,-2,-16,-60,-18,-23,1
1693678317589988800,5,5,8,5,3,1,-1,9
1693678317591987800,-1,3,1,-4,-1,2,0,-7
1693678317624969500,-7,0,6,8,10,4,2,-6
1693678317627966800,-3,-7,-14,-14,27,10,4,8
1693678317631965300,1,-5,-20,11,-9,-4,-4,0
1693678317633962900,12,12,31,8,-15,2,5,-6
1693678317645957000,5,-2,0,-3,-13,-5,2,-1
1693678317648955600,-32,-5,-3,1,6,0,0,3
1693678317650953800,1,-1,-3,-9,-11,-3,-3,-6
1693678317652953200,-3,-2,-11,-1,12,5,2,-1
1693678317654952000,2,2,-6,-2,-10,-2,1,1
1693678317656950300,8,1,7,6,4,0,-2,3
1693678317673942200,1,4,4,6,62,6,-1,-1
1693678317675939200,0,-2,-7,-9,-70,-8,0,0
1693678317677937900,-5,-4,-18,-17,-2,4,-3,-2
1693678317699925200,6,3,14,15,40,0,0,-1
1693678317702924300,-1,1,4,23,-9,-4,0,1
1693678317704922500,0,3,18,-12,14,11,1,1
1693678317724910900,-2,-3,-8,-14,9,5,4,-3
1693678317729909100,0,-6,-10,44,-25,6,-5,2
1693678317732907900,1,-2,6,-3,13,-33,1,3
1693678317735907000,-5,-6,-11,-38,-95,-52,-12,-8
1693678317738903500,-5,-3,-4,21,23,16,0,-3
1693678317740902600,3,2,3,-18,92,10,3,2
1693678317742901800,1,0,-13,-29,-74,23,-2,0
1693678317747904700,-4,0,13,19,-3,21,2,-3
1693678317771884400,1,5,11,9,66,-3,2,0
1693678317774883400,-2,-5,-9,-23,-99,-27,-7,-2
1693678317782878600,0,0,-5,10,76,5,2,-1
1693678317784877900,-1,-2,-10,-5,76,15,0,0
1693678317787875600,2,2,10,1,-24,25,1,0
1693678317790874100,2,-4,0,6,26,5,-1,2
1693678317791874300,-2,5,1,-2,-12,8,0,-1
1693678317793872900,1,3,1,13,54,6,3,4
1693678317798868900,-7,-11,-8,-4,47,-17,-9,-5
1693678317800867900,1,0,-11,-14,-97,-9,2,0
1693678317802866500,4,2,23,-18,25,-6,-1,1
1693678317804865700,5,3,0,17,-7,25,6,2
1693678317840845400,0,0,4,-5,-98,-2,1,1
1693678317843844800,-2,-2,-9,0,112,-8,-1,-1
1693678317847850000,-4,-9,-6,6,34,-3,-2,4
1693678317850839400,-3,1,-3,7,28,14,0,-1
1693678317852839300,0,-2,3,-14,-99,-9,0,-1
1693678317854837000,1,2,1,-4,-13,-5,-1,0
1693678317855835600,3,-5,1,6,38,15,6,0
1693678317857834600,1,4,1,-3,-59,-3,0,-3
1693678317858833600,-3,-3,-5,2,71,-50,-6,-3
1693678317859833300,-2,-1,6,3,-23,12,4,-1
1693678317860832700,1,3,-2,0,-37,17,-2,-1
1693678317864836600,-2,-11,-9,-5,34,-31,-1,-1
1693678317866830000,-8,7,-1,2,42,9,-2,-3
1693678317867829400,0,2,3,-4,3,-11,-3,1
1693678317868828400,-2,-4,-12,-9,-56,3,0,-3
1693678317869827600,2,3,6,16,81,16,4,3
1693678317871827800,7,5,32,36,-40,-20,-2,1
1693678317872827500,4,-12,-2,3,14,11,-1,1
1693678317873826400,-2,12,2,-5,-4,-16,-1,-1
1693678317874826200,-7,-5,-8,1,21,19,3,-2
1693678317886818500,0,-5,-14,-9,27,-15,2,2
1693678317893816400,5,7,2,-7,-20,2,0,0
1693678317895814600,8,-1,2,5,-24,-13,-3,0
1693678317898812400,-18,-8,-8,-9,4,-7,-2,-5
1693678317908805100,-7,-5,-5,-11,-5,16,2,9
1693678317909806200,-10,-4,-1,0,-45,-5,-16,-33
1693678317911803800,5,-3,2,1,20,1,16,61
1693678317914803000,19,14,-4,-4,13,-18,-17,-25
1693678317924796300,-19,-25,-4,-6,-13,6,11,7
1693678317926794400,-58,9,4,8,20,7,-32,-44
1693678317931793200,40,-47,-1,1,-26,-5,37,31
1693678317933792600,15,60,1,-14,-30,-7,-6,33
1693678317947787500,-70,5,-11,-3,-7,-1,27,16
1693678317949783600,18,-79,-1,2,28,11,4,18
1693678317951780900,-118,94,-7,0,-5,-4,-54,-55
1693678317952781100,85,3,12,0,-20,-11,4,10
1693678317983769100,-58,-69,-12,-17,-3,10,29,-104
1693678317985768100,-76,-76,1,-4,-25,-18,-4,-39
1693678317987766300,-43,18,6,5,11,1,-6,26
1693678317988765500,67,93,-10,-9,-26,-25,4,10
1693678317993762200,89,38,10,8,16,23,-33,10
1693678317998760800,-64,-71,-22,-16,7,-12,-27,26
1693678318000759700,90,-12,6,9,-8,-4,31,20
1693678318002757400,-128,-102,11,17,30,13,19,-86
1693678318005755600,127,112,2,-2,-8,-14,-55,34
1693678318007754600,-61,-59,-13,-12,-2,6,14,43
1693678318014755900,114,38,7,-1,-12,-2,-5,-128
1693678318016750000,-49,8,-7,-5,-13,5,3,79
1693678318036738300,34,-52,-14,-4,-1,-7,-4,-76
1693678318038736900,-45,54,9,7,18,8,7,20
1693678318040735400,-90,-33,-9,-5,0,0,-4,20
1693678318041737200,26,-10,1,0,-6,4,-19,-45
1693678318061730800,-65,-13,-8,0,-4,5,59,88
1693678318064730000,13,22,-9,-12,3,6,-24,-32
1693678318065728100,-82,5,27,15,2,3,28,46
1693678318067726700,-24,-51,-18,-12,-6,-8,-23,-46
1693678318069725800,61,52,11,4,-2,-7,-20,31
1693678318070725100,40,31,-3,-1,3,11,31,-38
1693678318072725300,-71,-61,-15,-10,2,-5,-1,-3
1693678318073725400,3,-20,9,11,7,6,-38,52
1693678318089716800,-91,54,7,5,0,3,19,-109
1693678318091713100,127,29,-5,-4,-8,-12,42,117
1693678318092712800,82,-3,-1,-13,0,-14,-119,-81
1693678318093711800,64,65,13,13,0,-6,8,94
1693678318115700100,-87,-93,-5,-3,3,12,72,-77
1693678318116699400,76,65,20,16,9,-4,-7,70
1693678318117699100,-90,-32,-9,-10,-8,-4,-10,75
1693678318118697700,-17,6,-9,-4,-6,5,63,-26
1693678318141684200,-11,11,-6,-7,-9,-12,-104,-77
1693678318143683500,-128,-27,2,8,13,1,-33,-33
1693678318145683200,42,-10,-5,-10,-17,-9,-12,38
1693678318149683200,-31,17,3,10,-1,-4,-46,-62
1693678318150679700,76,-8,2,-5,-10,-9,-13,28
1693678318152677700,59,45,-1,1,1,2,45,-34
1693678318153677600,2,-9,-8,-5,2,-12,-40,-16
1693678318154676300,-6,-38,-3,-4,1,53,92,112
1693678318164671900,-60,-37,-9,-6,-2,-23,3,-69
1693678318165671200,-14,8,3,3,8,41,7,79
1693678318170666900,38,-2,1,8,13,22,3,17
1693678318171667700,-15,-8,-1,-7,-16,-20,-16,-51
1693678318198653100,-15,5,12,7,4,20,7,127
1693678318199653300,-8,-14,0,-1,-3,-6,9,-125
1693678318200652400,-19,19,1,6,0,-15,34,-40
1693678318202650800,-9,-28,-9,-7,7,16,-4,-21
1693678318208645500,-15,-2,2,5,15,7,-9,32
1693678318209645900,12,19,4,5,-6,-15,-17,-17
1693678318211644900,59,35,0,-7,-9,6,18,-48
1693678318214649100,58,-30,-16,-19,-7,-15,-29,20
1693678318223637100,-2,7,12,16,-11,13,19,43
1693678318225636700,-12,13,2,3,26,-30,-6,-31
1693678318227636600,-28,-8,-3,-7,0,6,14,-5
1693678318231636300,-16,-8,2,8,-1,-5,1,-1
1693678318246625100,-4,-6,-8,-4,-6,-6,-8,-18
1693678318249622900,9,-3,-2,-3,4,18,9,12
1693678318250621800,-5,-1,0,3,-7,1,9,22
1693678318251621700,-15,-4,-6,-14,-7,-16,-14,-49
1693678318268456600,1,-2,-2,4,5,9,5,65
1693678318270455000,-4,10,4,5,-2,5,-6,-5
1693678318272453600,-5,-2,8,4,8,-1,9,2
1693678318273453200,-16,7,0,5,7,-14,-4,-14
1693678318292442900,-2,-4,-8,7,12,6,-5,-14
1693678318295443400,10,3,-2,-18,-49,2,3,19
1693678318298443200,-11,-6,-12,21,64,23,13,2
1693678318300437200,-12,-11,-36,-6,-65,-11,3,-9
1693678318315430000,4,8,57,-2,71,-10,-14,0
1693678318317427300,9,8,26,-31,-41,-9,-3,-1
1693678318318427100,-1,3,4,0,-10,-2,10,2
1693678318319425900,-12,5,9,18,21,26,1,-5
1693678318336417400,0,-12,-42,-8,-29,-22,3,-4
1693678318338416500,-4,-2,-9,32,98,60,6,2
1693678318341414300,-8,-6,1,-26,-91,-64,-9,-4
1693678318348410400,-3,-7,-7,-2,78,33,5,7
1693678318350409100,-9,4,-5,-22,-35,10,-10,-16
1693678318352407600,-1,-2,-7,4,35,0,-10,-27
1693678318354405600,-2,-4,-17,-8,-3,14,-8,48
1693678318355405700,-11,-5,32,12,-14,-13,9,0
1693678318366399800,-9,0,-33,-46,-41,-16,-18,-5
1693678318368399400,16,37,39,56,14,3,-6,2
1693678318373396100,-7,-31,-10,0,52,8,-2,-64
1693678318376394000,11,27,16,-5,-55,-49,-38,18
1693678318389385500,0,-11,4,1,60,30,32,4
1693678318391385100,-12,-17,-47,-29,-8,-18,12,24
1693678318392385200,-11,-6,-1,-3,4,13,3,-22
1693678318395384400,-5,-35,3,-7,20,3,-46,-37
1693678318403378100,13,29,14,12,-67,17,4,4
1693678318405379000,12,-6,0,7,-20,-35,2,5
1693678318407376400,4,11,14,14,67,11,6,31
1693678318409374700,-7,-9,-14,-16,-74,-4,14,-16
1693678318426365400,-6,-32,-4,14,57,2,-4,3
1693678318431366000,-10,2,-13,-27,-27,-20,-6,6
1693678318433361400,22,51,22,39,45,38,11,-9
1693678318436359500,1,25,-4,-18,-26,-22,-4,-17
1693678318457347900,13,-6,-9,44,-64,-29,1,4
1693678318465346100,6,-23,8,30,125,103,30,15
1693678318467342000,-26,-21,-3,-101,-54,-89,-28,-17
1693678318469341400,-3,-12,-33,29,127,66,16,12
1693678318473338400,-11,-5,-26,17,-74,-67,-24,-2
1693678318475337400,-15,-8,38,-48,-2,-4,-23,-25
1693678318477335700,-2,-3,-4,13,-128,-30,5,9
1693678318483333600,-10,-14,-19,-3,-4,19,-4,-4
1693678318486331500,15,26,3,-65,55,102,39,5
1693678318488329700,-4,-3,-33,5,71,23,-5,-9
1693678318490329200,11,14,65,-19,-84,16,9,9
1693678318492327200,8,19,42,70,-69,29,25,13
1693678318508317600,-29,-54,-85,-70,115,-81,-55,-39
1693678318510318900,20,42,40,63,-15,39,34,19
1693678318515315000,-11,-22,-49,-45,27,-39,-26,-3
1693678318518313500,-12,-22,-50,-74,81,-26,-15,-13
1693678318523310400,11,24,36,33,-43,42,19,11
1693678318524309900,-1,-4,-2,-74,-128,7,3,5
1693678318532309800,-13,-18,-42,106,127,1,-6,-9
1693678318534305000,3,7,64,-103,-100,30,7,3
1693678318549296400,-8,-6,4,64,103,-55,-28,-13
1693678318551294700,-1,4,16,37,-91,8,3,0
1693678318553294200,12,9,-12,19,103,73,30,14
1693678318554293500,-10,-7,-27,-24,-45,-65,-25,-10
1693678318583275900,5,9,29,-11,-121,-31,6,6
1693678318585275200,-5,-13,-34,-21,120,0,-13,-10
1693678318587273900,6,11,22,121,112,75,22,11
1693678318590272200,5,8,1,-89,-29,-72,-2,4
1693678318594271500,-16,-30,-31,25,102,6,-22,-16
1693678318599268000,9,24,13,-2,-64,-25,9,4
1693678318601266400,-10,-19,-29,-118,-71,-20,-20,-11
1693678318602266000,11,20,36,127,28,47,30,14
1693678318606262800,16,29,51,26,-2,-25,19,14
1693678318608262600,-10,-18,-44,2,127,46,-7,-7
1693678318610259800,13,20,31,44,-6,83,29,16
1693678318618257500,-20,-42,-78,-105,37,-27,-36,-19
1693678318633247100,6,14,14,20,-88,13,2,-1
1693678318635247300,-1,-3,23,69,71,22,-2,-2
1693678318637245000,-11,-19,-51,-103,-88,-69,-9,-8
1693678318639243200,8,15,16,-16,91,-40,6,6
1693678318646240800,-1,-5,-12,27,62,51,6,-2
1693678318650237300,-4,3,15,35,3,-34,-6,2
1693678318653235300,-2,-7,-2,-24,-74,-16,-4,-4
1693678318655234000,7,21,21,96,90,61,28,13
1693678318667227300,-11,-20,-15,-128,-66,-102,-34,-13
1693678318669227600,-6,-9,-4,-4,-21,14,-7,-31
1693678318671224600,5,12,22,56,-63,27,21,18
1693678318673225000,-1,-2,7,23,58,26,-2,15
1693678318688214800,9,12,21,16,43,38,23,5
1693678318691213300,-2,-6,-5,-10,28,-85,-11,-5
1693678318693213200,-10,-12,-9,-9,-31,-51,-28,-16
1693678318696211700,4,5,12,19,-44,31,20,-4
1693678318720197000,-7,-2,-3,1,-11,20,-1,49
1693678318725194300,4,1,-9,-38,-87,-93,-13,-50
1693678318729193700,7,8,10,30,56,30,2,2
1693678318735189500,7,-8,-18,3,-67,-3,24,50
1693678318737189000,-20,10,18,10,-29,14,7,-87
1693678318739186600,-44,-6,-6,4,-21,13,6,94
1693678318742184800,-49,6,6,-6,11,7,63,52
1693678318745183900,-3,-13,14,33,24,1,-94,-77
1693678318750181700,3,12,-17,-4,-15,5,-1,94
1693678318752180600,51,-26,-2,-5,-6,10,27,92
1693678318754177000,-123,-65,6,10,31,-5,10,-104
1693678318756176500,116,98,-2,-7,-16,-16,39,15
1693678318771168300,-122,-81,9,25,44,28,17,-62
1693678318774166700,-29,-19,-19,-22,-44,-8,-21,-52
1693678318783161700,120,31,27,27,58,25,28,127
1693678318786159800,-110,-5,1,19,-9,1,-23,-50
1693678318789157600,123,70,-1,-3,-12,7,87,88
1693678318791156500,-17,27,-24,-30,-16,-27,-57,-85
1693678318803150200,-96,-87,-7,-3,8,5,55,4
1693678318805148200,62,6,11,14,42,-4,-47,74
1693678318817143200,-73,-47,19,11,0,6,-41,26
1693678318820139700,92,52,-23,-18,-15,-10,10,97
1693678318822139700,96,110,2,-14,-6,-10,27,-100
1693678318824139400,-49,-47,3,10,14,-11,-14,42
1693678318827135700,-120,3,-9,-9,2,18,-6,-85
1693678318831135000,-85,-34,4,5,21,18,-1,-4
1693678318839130100,-50,29,20,29,10,-1,-34,36
1693678318841128500,17,-17,-13,-26,-31,0,70,44
1693678318854119100,0,2,-1,6,29,3,-47,-23
1693678318856119300,-95,-8,8,12,-32,13,16,-60
1693678318858191000,20,11,-7,-1,28,-4,-35,-5
1693678318860189100,-40,-6,6,2,-14,-7,13,-22
1693678318876181000,46,-4,-9,-4,-7,11,-7,-14
1693678318878178800,-63,-85,-7,-11,-10,-10,0,78
1693678318881180200,99,86,24,14,-9,10,-16,40
1693678318883175200,-128,-88,-9,-2,-10,-9,-7,-55
1693678318891170400,-74,-52,-2,3,25,10,-22,-37
1693678318892170800,-24,42,1,0,-14,-12,-4,-53
1693678318899169700,-90,-53,-10,-12,-5,2,-11,47
1693678318900167500,117,28,-1,1,5,11,106,10
1693678318906162100,-26,27,4,-1,5,-2,-31,127
1693678318908162300,-46,-66,-5,2,1,-4,44,-123
1693678318909160400,-25,4,-3,1,-6,-10,-30,92
1693678318910160400,26,49,3,2,5,-1,-35,-113
1693678318931150100,-13,-10,0,-8,-16,3,-4,119
1693678318937144500,127,99,14,9,8,-7,-51,-49
1693678318939143000,-56,-39,-20,-18,-3,-9,27,-92
1693678318940143300,-107,-45,5,5,0,12,4,4
1693678318951136300,74,18,2,6,-3,-7,9,-66
1693678318952136700,20,-16,11,17,22,41,-8,108
1693678318954134600,-41,-6,-4,-9,-26,-48,-30,-3
1693678318955135000,-46,13,-7,2,3,5,-20,24
1693678318966466400,-4,-14,-12,-16,-26,-17,15,-50
1693678318968466100,-12,7,0,-1,3,9,14,12
1693678318973461700,-41,-54,-20,-21,-6,5,-2,-12
1693678318975460000,79,7,17,29,6,3,-25,-36
1693678318999448000,38,57,4,5,11,6,42,45
1693678319000446200,-20,-19,3,1,2,2,-3,27
1693678319002445100,27,-1,1,-3,-4,0,-29,-16
1693678319003445100,-34,-17,-11,-10,-4,-12,-12,17
1693678319019434600,2,-1,2,1,0,8,4,-41
1693678319021434900,-15,-1,0,-3,-8,-7,0,-31
1693678319024432700,17,-6,-4,-2,-1,3,-2,55
1693678319026431900,-10,6,0,-2,5,-1,-14,22
1693678319030430300,7,-5,-3,-1,-10,-3,23,-38
1693678319033430200,-10,-3,1,-3,-5,-10,14,30
1693678319035426700,0,2,-2,-2,1,3,-71,-45
1693678319037425600,-10,-7,-1,0,3,9,23,63
1693678319048419000,2,4,2,3,5,0,-7,-2
1693678319050418900,-1,0,3,9,7,1,0,-2
1693678319052417100,-45,-7,-3,-6,-7,0,-9,-57
1693678319054414800,79,7,-5,-8,-9,-7,9,-54
1693678319071407300,4,-15,1,3,1,0,7,-16
1693678319072405100,-46,-7,3,1,3,18,-9,-23
1693678319074403900,17,22,1,-2,4,-31,19,75
1693678319075404500,3,-4,-11,-2,-1,20,-25,-36
1693678319095391800,-9,0,6,-2,5,-14,0,-2
1693678319099389600,7,0,0,1,0,10,-2,-1
1693678319101388400,16,-12,-1,2,-1,2,-9,-50
1693678319103386700,-35,-7,-3,-7,-3,-2,1,41
1693678319109384400,11,2,-6,1,9,13,-6,7
1693678319110382600,-5,3,-1,2,7,-5,-3,11
1693678319123375100,3,0,12,7,-12,-5,1,-11
1693678319125374000,-15,5,0,-4,-4,-12,3,8
1693678319131371500,-2,-8,-9,-6,-5,2,-13,-8
1693678319134369000,-6,-4,-5,-1,5,-13,-29,-67
1693678319135368600,4,-10,-17,-12,2,-22,17,35
1693678319137367100,-17,1,9,12,42,2,-17,0
1693678319148361300,5,8,13,2,-61,0,-4,-4
1693678319152359400,6,-4,-12,-14,-38,-22,-8,2
1693678319154357700,13,-24,-5,3,45,23,12,-7
1693678319157356700,-16,0,-6,-2,-4,-9,8,15
1693678319168349600,-20,1,1,-3,102,27,-9,-13
1693678319170351000,5,9,3,-7,-65,-21,7,15
1693678319172348300,14,22,13,23,21,61,10,-19
1693678319174346500,5,16,-8,-33,-12,-50,-2,8
1693678319204329700,1,-9,-41,27,121,24,-6,-11
1693678319206328000,6,-74,33,-91,0,-44,8,30
1693678319208327800,-10,-23,2,-13,-95,4,-7,-20
1693678319213325100,38,94,64,73,82,57,18,12
1693678319219322600,19,13,-15,42,-63,-27,2,10
1693678319221321500,14,30,63,53,-16,119,34,22
1693678319224317500,-6,-59,-37,19,97,-69,-7,-2
1693678319226317700,-57,-41,-39,-67,-127,-31,-42,-35
1693678319236318800,3,13,18,-5,-128,83,4,-1
1693678319239309000,-19,-14,-16,118,127,-43,21,13
1693678319243306700,34,30,17,-34,-101,-32,12,-5
1693678319247304000,-4,5,14,69,105,11,16,8
1693678319251301700,-22,-31,-43,-56,-64,-122,-55,-20
1693678319253300700,-1,17,-17,-36,-62,80,4,0
1693678319255301000,-3,5,15,2,47,50,-18,-11
1693678319256299400,-4,-19,-22,-9,46,-5,6,2
1693678319274289700,4,0,34,15,-4,-36,15,13
1693678319276288100,2,1,-13,30,68,34,-1,2
1693678319280286800,2,15,-2,12,-29,-11,0,-6
1693678319283286500,-8,-18,-4,-25,-44,12,3,3
1693678319299274900,4,2,14,5,33,10,11,4
1693678319302273900,-12,-4,-30,-32,-60,-48,-10,-8
1693678319304271200,-3,12,3,-10,5,9,-2,-6
1693678319306270000,-9,-20,-3,7,-21,-19,-4,-36
1693678319322262400,-1,-2,1,-12,25,11,4,41
1693678319324260100,7,14,-6,-19,-33,-38,-6,-2
1693678319326259600,-8,-14,-5,12,29,4,-4,-15
1693678319329258700,-7,-20,-5,-6,9,26,16,11
1693678319332255700,-10,13,12,16,15,0,-11,-7
1693678319334255400,-36,8,-3,-15,-16,-16,-4,48
1693678319335255100,12,-11,3,14,11,19,-2,-87
1693678319336255100,9,7,-7,-13,-27,-8,29,57
1693678319357242700,-56,-15,-13,-18,38,9,48,14
1693678319358241500,78,27,9,0,-21,-33,-69,64
1693678319360240200,-8,-16,-12,5,18,4,54,68
1693678319363241800,76,65,17,-3,-25,9,-47,-48
1693678319371232900,-56,-79,-10,-6,7,-11,2,34
1693678319372233600,-3,120,-6,-21,-15,-19,-8,-127
1693678319374231800,-105,-106,-25,-11,-8,-12,-21,111
1693678319375231200,99,87,51,38,22,15,36,79
1693678319397220300,100,77,-5,-1,20,9,-7,-72
1693678319399219600,3,-60,-4,0,-3,-10,9,66
1693678319400218900,-38,-44,-13,-17,-4,3,-16,-27
1693678319401217900,-24,-11,-19,-1,9,15,6,-16
1693678319408212100,-54,-22,17,2,-6,19,-7,-10
1693678319410211300,-31,-19,-14,-22,-26,-4,8,-29
1693678319412210200,17,40,11,4,5,13,6,-21
1693678319414208800,-67,-54,-18,-14,-17,-15,-16,-10
1693678319431198600,28,28,3,-12,-3,-22,-5,-1
1693678319432199400,14,3,0,-8,-23,30,9,-6
1693678319433197900,24,21,-18,1,30,-35,-6,-3
1693678319435196900,-33,-24,15,-6,-53,11,-8,-8
1693678319451188100,19,-10,-71,-19,76,-3,-10,-2
1693678319453186900,5,5,97,63,-71,44,29,14
1693678319454186800,7,21,-35,-6,-23,-12,-16,-14
1693678319456184400,-9,2,44,38,70,70,12,0
1693678319468179600,-7,-15,-9,42,-28,-49,-3,-1
1693678319470177300,-8,-5,22,4,-19,92,16,5
1693678319472175200,24,41,44,-3,90,33,-2,-3
1693678319473177900,-27,-29,-28,6,54,-76,-20,-12
1693678319500162400,2,10,14,-3,-89,10,8,6
1693678319505156300,-14,-22,-51,-23,30,-11,1,-6
1693678319507159200,19,26,11,9,-4,49,13,4
1693678319508157700,-25,-32,-42,-51,2,-58,-5,-3
1693678319510153900,7,4,15,-6,70,14,-3,4
1693678319514152000,-13,9,-12,12,52,-44,-12,-20
1693678319521146600,8,18,3,-12,26,-9,4,-5
1693678319522149600,-14,-16,-7,2,-71,4,-4,0
1693678319530142300,0,-8,9,5,-30,16,6,6
1693678319532144600,13,0,-3,0,13,-30,-5,-2
1693678319534144900,2,3,10,20,-17,4,3,0
1693678319535140400,-11,-3,-6,0,-40,5,-3,-2
1693678319551131000,1,-6,11,-8,-29,1,0,4
1693678319553132500,-8,0,-20,5,89,-16,-6,-4
1693678319554130100,-3,4,-8,-31,-87,-11,-14,-11
1693678319556128100,1,-7,-2,-3,16,-12,3,2
1693678319575117500,-5,-8,-14,-9,56,39,2,1
1693678319577117500,-75,-59,-21,-19,-37,-10,10,-24
1693678319580114600,-13,12,16,41,-11,-9,-49,-10
1693678319582119600,-29,1,-5,-29,-30,4,13,39
1693678319588110300,-62,60,21,8,25,6,26,-53
1693678319590109100,-35,-66,-32,14,27,6,7,3
1693678319592110900,84,-6,4,-19,-29,-12,30,-26
1693678319595105600,67,29,-45,-34,-8,-4,-61,-25
1693678319612096300,-83,-17,38,37,1,-2,35,46
1693678319614094900,127,127,14,-1,16,-25,-33,69
1693678319616095200,-121,-119,-22,-20,-27,-4,16,-51
1693678319618095800,-88,-58,-3,7,-3,-16,-33,16
1693678319636084500,48,-61,-24,-21,7,15,53,51
1693678319637082000,-56,-13,5,0,-2,-6,18,-5
1693678319639079900,-73,1,8,11,2,-15,-76,7
1693678319641079300,-13,33,-2,11,46,13,-7,16
1693678319648077300,10,-3,-4,-12,31,-15,-62,-38
1693678319650074800,23,-11,-1,0,-6,8,21,15
1693678319651074000,34,28,0,-6,-45,-3,35,-14
1693678319652073400,-4,-13,2,13,23,8,16,-11
1693678319671061100,-26,5,5,2,-16,-4,-11,-9
1693678319673061100,51,9,4,6,18,4,11,-23
1693678319674060800,-12,10,-6,-1,40,5,-17,-7
1693678319675060600,-70,-52,-4,-9,-65,-32,21,-1
1693678319685054600,114,82,-3,-6,-11,1,2,57
1693678319687054800,-50,-35,5,-7,-11,-6,-8,-63
1693678319701044500,-18,4,6,13,-9,-3,-6,23
1693678319703043200,-4,-7,12,4,3,9,13,-8
1693678319708040500,-29,-23,-7,-6,-4,-7,-10,-28
1693678319710040400,4,-3,-3,2,-4,-10,-21,14
1693678319714037200,21,1,-12,-15,9,1,24,17
1693678319715037300,17,14,12,14,76,15,14,-20
1693678319734026200,4,-8,-1,-12,-69,-12,2,3
1693678319736026400,0,3,-7,-8,18,-7,-13,-1
1693678319738023200,2,7,7,12,-1,2,14,16
1693678319740022400,8,-4,1,-1,7,7,1,-11
1693678319754012700,3,-10,-4,-4,-3,-2,-10,8
1693678319756013000,-3,20,-2,5,17,5,19,-16
1693678319757601000,22,26,-6,-16,-9,-15,-43,-22
1693678319758598400,54,10,3,-1,-19,-4,14,25
1693678319776588200,2,-6,-2,-2,1,-1,-17,0
1693678319780589900,-24,-17,-1,-1,-6,3,18,9
1693678319781586600,0,8,12,14,19,7,14,11
1693678319782586200,-29,-22,-3,-3,-13,6,-7,-39
1693678319798578600,26,24,-10,-7,10,-3,-30,-26
1693678319800575900,-47,-40,1,3,-13,-4,4,11
1693678319801575100,-27,-15,-8,-7,-4,-1,5,15
1693678319803573300,100,67,8,1,-8,-1,-8,-6
1693678319806571600,-18,-24,0,2,24,2,13,-5
1693678319808574000,5,4,-3,-5,2,-10,-2,2
1693678319830558200,13,0,5,13,23,4,-12,-11
1693678319833556300,-44,-19,-2,-7,-17,-4,-4,39
1693678319834557300,-22,-7,0,2,8,4,9,-43
1693678319836557800,12,13,-6,-4,5,1,-23,30
1693678319837556600,39,10,-2,-7,-5,-1,16,-15
1693678319839556300,-8,-14,1,3,4,3,5,-9
1693678319850547100,-40,-9,-1,4,3,-1,-9,10
1693678319852548600,3,-11,5,-3,-8,-1,-16,-44
1693678319853547600,61,41,-8,-4,-5,-8,-5,78
1693678319854547400,-1,-17,-1,-3,-11,0,5,-79
1693678319874533600,-4,-10,7,0,-13,-1,6,19
1693678319876532900,-21,-12,-8,-3,-7,-5,-17,-16
1693678319880530900,-32,-13,-1,0,-1,6,18,2
1693678319883528400,6,-1,-3,-1,-1,-5,-21,3
1693678319888525400,-2,8,6,2,-8,-2,-6,-4
1693678319891524800,-13,-1,-1,-1,-19,3,3,-5
1693678319894522500,18,5,-4,-5,6,-1,-35,-36
1693678319898520200,-17,-5,1,0,-10,2,33,60
1693678319913513500,-32,-46,-6,-3,7,1,-26,-16
1693678319915510500,28,76,5,8,7,4,2,18
1693678319916509300,-54,-44,-4,-8,-10,-5,-7,-29
1693678319917508600,43,15,4,2,3,-3,1,11
1693678319934500300,42,18,-2,-7,-4,-2,-5,3
1693678319936499900,-69,-41,-5,-2,0,-1,-7,11
1693678319938496100,60,7,-2,-2,-4,0,34,-1
1693678319939495900,-17,8,3,1,3,-1,-9,7
1693678319952489700,39,4,2,2,-2,-5,6,-5
1693678319955486800,-41,-15,-2,0,12,-1,-21,-29
1693678319956486600,29,13,3,-2,-12,-3,12,15
1693678319957484800,5,5,-2,0,-2,3,-4,-6
1693678319980472500,22,-2,2,-3,-6,-3,6,24
1693678319982472600,-20,-8,-4,-4,-1,-5,12,-40
1693678319983470800,-18,-4,0,0,3,15,-8,14
1693678319984470200,-3,-6,-4,1,-1,-36,-1,-5
1693678320006459000,-7,8,3,3,11,21,13,12
1693678320008457300,39,7,0,-3,1,9,-4,5
1693678320010455700,-19,-8,-8,-11,-63,-48,-2,3
1693678320022448500,-8,-16,-4,3,4,-27,-4,-6
1693678320024448300,0,28,12,-1,-2,30,5,-8
1693678320026446400,18,-5,-4,-2,8,-72,-3,14
1693678320033443200,-2,7,5,3,31,-8,-4,-6
1693678320037440700,-18,-9,-6,-1,13,-21,2,-8
1693678320042437100,-8,-12,-9,-7,34,14,-5,-7
1693678320050433200,19,1,7,6,20,80,13,14
1693678320053431600,-17,-1,0,-5,66,-33,3,3
1693678320057429400,-10,-9,-4,-3,-55,34,2,-6
1693678320064424900,6,17,9,17,55,-21,8,1
1693678320067422800,11,-3,1,-2,-59,-17,2,12
1693678320071421100,-5,3,3,7,17,6,8,-2
1693678320073419600,-2,2,-1,-1,-66,21,0,-1
1693678320078416600,-5,-15,-11,-10,-9,-8,-5,-7
1693678320081415500,4,-4,-3,-5,1,6,5,5
1693678320083415000,-4,3,-4,-7,-89,-1,-5,-4
1693678320086413200,-1,2,-12,-16,76,-14,-3,-2
1693678320092407900,-9,-9,-14,-15,32,-21,2,0
1693678320097405700,6,4,18,-1,-20,-30,-5,0
1693678320100403600,-5,-3,-2,21,79,4,-2,-3
1693678320102404100,5,8,9,3,46,33,7,4
1693678320114396200,-11,-12,-15,-32,-61,-54,-14,-11
1693678320118394300,2,-5,-16,-6,37,39,7,4
1693678320119392600,-4,-2,-1,-6,-22,26,-1,0
1693678320121392400,-5,3,-2,-3,-84,-45,0,-4
1693678320129387500,1,2,-1,16,45,31,3,1
1693678320132385300,3,-1,3,-5,-5,-8,1,2
1693678320136382900,1,3,10,11,22,-10,5,2
1693678320137382600,-1,1,2,7,33,36,0,-3
1693678320151375100,-6,-3,4,-5,-41,0,1,0
1693678320153374800,0,-3,-4,-3,-26,-12,-3,-3
1693678320156372100,-3,-3,0,5,79,32,4,-1
1693678320158372400,-1,1,-2,-3,8,-3,-2,-1
1693678320181357700,8,6,9,12,40,9,5,3
1693678320184357000,2,-2,-3,3,21,-26,-4,1
1693678320185356200,1,-1,-3,-4,39,-24,-1,-1
1693678320188352900,-4,2,3,1,10,19,2,-2
1693678320189352700,-6,-3,1,8,5,12,0,0
1693678320191351600,2,-1,-2,1,-20,16,-1,-2
1693678320192352600,0,1,-1,-9,-17,15,0,1
1693678320197349500,-2,-1,-3,-3,14,-33,-2,6
1693678320214339200,-1,1,4,6,-43,4,-12,-23
1693678320217337100,-1,1,-4,-4,32,2,0,-49
1693678320220335800,0,1,8,9,-10,10,4,84
1693678320222335100,2,-2,3,5,31,12,3,-2
