timestamp,EMG_s0,EMG_s1,EMG_s2,EMG_s3,EMG_s4,EMG_s5,EMG_s6,EMG_s7
1692755970382889600,-2,-8,17,39,24,8,-1,-1
1692755970384889700,-2,-13,-21,13,18,2,0,-2
1692755970386887400,-1,20,-1,-15,-23,-14,-4,-2
1692755970388885800,-4,-5,-8,-17,-41,-2,-5,-3
1692755970390886000,-2,4,-4,-50,-3,0,1,-1
1692755970391887100,0,-2,11,81,27,3,-2,2
1692755970393883900,-6,-4,-7,-14,-22,-8,-4,-3
1692755970396882200,-4,-7,-14,-83,-18,-8,-3,-4
1692755970397881000,5,9,23,46,-2,7,3,2
1692755970398881100,9,26,-6,82,-12,3,0,0
1692755970399880200,-8,-9,6,-70,-45,-12,-3,-4
1692755970401881500,0,-18,8,114,43,15,3,2
1692755970403878300,-1,11,-12,-32,-14,-7,-1,1
1692755970404877600,-4,-9,0,-54,-24,-7,-1,0
1692755970416869800,5,0,-10,1,18,2,0,2
1692755970418872600,5,21,4,-39,-27,-10,-4,-1
1692755970422866500,-10,-16,-10,-18,-14,-6,-5,-4
1692755970423866900,2,-5,-2,-10,-5,3,2,1
1692755970438858000,2,19,1,3,9,6,3,1
1692755970441857100,2,-14,29,49,74,17,3,2
1692755970449852500,3,-5,-36,29,4,-4,-2,-1
1692755970452851800,-5,-6,-1,-90,-30,-13,-4,-4
1692755970487830700,-1,3,12,14,-24,-14,-5,-3
1692755970488829400,-6,-35,2,-88,-71,-4,-2,-3
1692755970489828800,3,0,-7,92,56,23,7,2
1692755970490828100,2,29,8,-55,-10,0,-2,2
1692755970491827700,-5,-38,-11,-10,-4,-4,-6,-7
1692755970492827400,9,18,-8,24,0,-8,-2,-1
1692755970495826000,-11,-2,-3,-47,-33,-15,-6,-1
1692755970496826100,-4,-9,-2,-11,-11,-4,-1,-2
1692755970499823400,2,-9,-12,35,22,7,5,3
1692755970500822900,3,44,14,24,4,0,-2,-1
1692755970505819500,2,-46,-9,-2,2,1,-1,-2
1692755970506819200,-6,-31,-6,-3,-11,-15,-4,-3
1692755970514813700,-2,17,9,-26,-27,1,-1,-1
1692755970515815600,-3,17,4,39,46,8,1,0
1692755970528807100,12,29,12,57,2,-4,0,1
1692755970529806900,-11,-21,-4,-68,-2,-4,-5,-6
1692755970538801700,0,16,1,0,11,6,0,1
1692755970547796100,1,-11,6,68,27,10,1,3
1692755970559787900,-6,-8,6,-89,-24,-13,-3,-3
1692755970561788600,3,2,-21,6,6,-1,-1,1
1692755970563786100,2,-2,-8,6,-16,-1,-2,1
1692755970563786100,-5,-18,-1,12,3,0,0,0
1692755970573779900,1,21,-6,-2,-14,-7,-1,-1
1692755970574779500,5,9,11,49,28,16,5,1
1692755970580777100,0,-10,6,23,37,4,5,1
1692755970581776200,0,-15,-8,-36,-12,-8,-6,-2
1692755970598766400,1,2,-6,-28,1,6,0,2
1692755970599766100,-2,3,24,109,-9,-3,-1,0
1692755970600764300,2,1,40,-53,-15,-2,0,-1
1692755970601765000,-2,1,-20,-59,-7,-6,-1,-1
1692755970610759300,-2,-8,-9,-11,-3,-4,-1,0
1692755970612759400,-1,-5,5,0,7,5,1,0
1692755970619754400,1,18,9,30,7,1,-1,-1
1692755970621753400,1,-7,-18,2,-5,-1,0,-1
1692755970633747200,-3,-10,-2,-26,-1,2,-2,-2
1692755970634745800,4,12,-4,12,15,4,2,1
1692755970640741500,-4,-3,-7,17,-10,-6,-1,-4
1692755970641741700,-4,4,13,-26,-9,-2,-1,-3
1692755970658732300,0,-1,5,69,29,9,2,-1
1692755970659731400,1,2,-12,-47,-27,-6,-1,-2
1692755970661730700,0,-13,4,26,16,1,0,0
1692755970662730100,-3,-4,-24,-70,-17,-3,-1,-1
1692755970670725600,-4,5,-2,27,-8,-1,-2,-1
1692755970672725200,0,-7,-28,-40,-14,-6,-1,-3
1692755970679720100,-2,-4,5,-2,8,6,1,1
1692755970680719800,-2,4,11,30,11,3,1,1
1692755970696710900,-4,1,3,-13,-23,-6,-2,-2
1692755970697710900,-4,-6,5,-10,-11,1,-2,-2
1692755970700707400,2,7,-3,-18,-5,-5,-2,1
1692755970702706600,2,-1,-6,18,10,0,-1,1
1692755970748680800,-2,-6,-12,-18,-3,0,-1,-2
1692755970750679700,3,-9,6,14,-5,-3,-2,0
1692755970752678700,-5,1,-31,-78,-26,-8,-3,-2
1692755970754677600,-4,1,19,38,10,0,-1,-2
1692755970756676100,0,0,-19,-5,-18,-4,0,-1
1692755970758674800,0,-3,7,-11,8,3,-1,2
1692755970761674400,-4,17,-5,14,0,-3,-2,-2
1692755970764672600,-2,-6,-18,-24,0,-2,0,0
1692755970790656500,1,-1,9,-23,-5,3,0,0
1692755970792655500,-1,3,7,50,7,-2,-2,-1
1692755970794654600,2,-10,8,19,35,10,4,1
1692755970796653400,-1,0,-4,-6,-22,-4,-1,-3
1692755970797653100,1,11,19,13,9,-1,1,0
1692755970799651700,0,2,-4,-1,-8,0,1,-1
1692755970802650100,-1,-6,0,-3,-8,-9,-3,-1
1692755970805648000,0,4,7,4,-1,0,-1,0
1692755970807647100,-2,-10,-14,0,6,2,-1,-2
1692755970809645900,0,-2,-7,15,12,0,-2,0
1692755970814643500,1,-1,-12,-48,-17,-2,1,-1
1692755970817642500,6,8,27,64,10,2,-1,-2
1692755970836631000,-48,-14,-12,-38,11,-3,-2,-5
1692755970838629000,19,-15,17,46,54,12,4,4
1692755970840627400,19,-1,-28,-70,-21,-3,0,5
1692755970850623600,13,3,11,72,30,8,4,3
1692755970853620300,13,20,31,6,12,2,-2,-2
1692755970855618700,-19,6,-51,-16,-16,-12,-7,-7
1692755970858617800,-13,-3,4,-2,-2,-4,0,-1
1692755970859617600,9,2,1,-36,1,4,2,2
1692755970868611200,6,-6,-7,10,-4,-5,0,0
1692755970870610000,-10,-36,-3,8,19,9,2,2
1692755970873609200,1,0,0,20,-6,-2,-2,-2
1692755970875608500,-10,9,-15,-44,-31,-12,-4,-3
1692755970888600300,5,16,-3,14,2,-1,0,-3
1692755970890600600,2,8,13,-16,-21,-3,-1,-1
1692755970892598500,-2,-13,0,13,8,1,-1,-2
1692755970894597300,-4,1,3,-9,-1,-3,-4,-2
1692755970897595100,-4,-18,-13,-15,7,1,-1,1
1692755970898596500,7,15,23,17,-16,-4,1,-2
1692755970900592500,-14,-5,10,20,3,3,-1,-2
1692755970901592100,22,9,-16,-9,1,-7,-3,-2
1692755970921581800,-19,-22,-18,14,-14,-1,0,2
1692755970923580200,13,32,6,-39,-26,-10,-1,0
1692755970924579400,-11,-12,21,44,27,6,1,-4
1692755970925578700,7,24,0,-19,9,6,1,0
1692755970939571000,-32,-31,1,-23,-36,-13,-4,-7
1692755970941571300,10,37,-17,22,32,15,3,0
1692755970950577600,7,-12,9,-30,-12,-3,-1,7
1692755970952565100,5,-32,-6,22,-34,-5,-1,-2
1692755970957561400,22,32,54,64,3,1,1,0
1692755970959560000,-21,-7,1,-26,12,2,-4,-7
1692755970961560300,-17,23,-7,-6,-15,-4,-4,-6
1692755970963558000,-31,-24,27,-5,25,5,2,4
1692755970987544400,69,50,-12,4,22,10,2,10
1692755970988542700,-7,58,11,34,-2,-1,3,5
1692755970990542500,-20,-32,-38,-45,-21,-9,-8,-14
1692755970991545000,-8,71,15,15,-3,0,-4,-5
1692755970995542100,-19,28,27,-19,-2,-5,0,-3
1692755970997538300,19,-6,-14,-12,-12,4,5,4
1692755971000534900,53,45,3,17,21,6,5,14
1692755971001537100,20,-42,-8,24,0,-3,0,3
1692755971017526300,41,22,-45,-9,2,-4,-1,6
1692755971018527600,-19,-68,23,-25,-17,-7,-8,-9
1692755971020525000,-56,10,-13,32,-11,-10,-4,-15
1692755971022524700,-1,-31,22,-13,48,15,1,1
1692755971039514200,-52,4,3,-5,-13,2,-1,-9
1692755971041512300,86,36,33,39,-5,-4,4,-8
1692755971043511700,-85,-47,-8,-20,-2,2,-4,2
1692755971046510000,8,52,-29,-38,-28,-17,-7,-2
1692755971054504900,79,49,6,20,38,25,21,40
1692755971056504400,-105,-62,-9,9,-9,-4,-11,-23
1692755971063500600,94,62,5,23,17,10,5,-12
1692755971065497600,29,-17,-38,-33,-28,-9,2,18
1692755971079494400,-10,-45,-15,-41,-16,-13,-10,17
1692755971089485600,-31,41,8,15,8,13,37,26
1692755971091483300,35,-56,-25,-28,16,10,21,22
1692755971093483600,-102,-51,-1,31,-50,-23,-40,-54
1692755971099478100,-54,-36,29,18,43,6,-21,-78
1692755971101478600,-18,13,-53,-88,-29,-17,-11,7
1692755971102478800,57,50,58,81,17,16,46,83
1692755971104481300,-2,-118,-19,32,-2,-4,-35,-2
1692755971113470900,-82,0,-8,-79,-61,-10,34,-14
1692755971115469800,60,60,-8,97,73,14,-49,-35
1692755971120467800,-56,-101,18,-22,-36,-25,3,31
1692755971122467300,50,-1,-8,-21,46,30,88,28
1692755971137457600,-5,47,11,-52,-77,-36,-76,-57
1692755971138456300,-92,-41,-38,-43,-25,-12,-28,-71
1692755971139456200,92,-6,17,42,30,4,1,-41
1692755971140455400,-115,-12,34,60,43,9,25,72
1692755971159444800,122,49,-29,-83,-26,-12,25,83
1692755971162443600,3,44,-2,-11,-10,-1,11,-89
1692755971165443300,-120,26,7,52,29,-11,-102,-21
1692755971166441800,124,-43,-67,-66,-83,8,49,-21
1692755971173436200,14,-89,24,36,31,-5,-50,66
1692755971174435800,-38,105,52,-33,-28,-12,52,75
1692755971182431400,-45,69,45,-48,29,-17,2,32
1692755971183431100,19,124,-73,39,31,20,49,-101
1692755971197422700,-128,-10,81,45,-43,-10,-35,-92
1692755971199421600,53,20,-31,28,39,-11,-91,-48
1692755971200421000,-119,-78,-76,58,4,4,45,38
1692755971202420400,-16,123,18,-128,-75,-51,-59,86
1692755971220411000,104,-23,-11,127,57,50,106,5
1692755971221410700,13,-128,-45,-5,36,16,-53,127
1692755971227405400,12,36,-19,-93,-72,-1,-19,-128
1692755971230405300,44,85,10,127,38,32,75,11
1692755971234401900,-128,37,9,-128,-59,-50,46,40
1692755971236400200,-18,108,32,-128,-40,5,30,-96
1692755971249393000,127,-107,-81,79,-5,36,83,124
1692755971251393300,71,103,108,-115,-56,-47,-104,66
1692755971257387600,-37,39,-43,-7,60,32,-21,-104
1692755971258387700,-124,48,45,98,-79,7,60,-58
1692755971259387500,90,11,41,-78,50,13,-83,45
1692755971262386300,76,12,-13,62,-72,35,53,11
1692755971280375300,-23,-68,-67,-97,22,-29,-43,-11
1692755971281374600,-90,-29,-67,-46,-26,-35,72,-83
1692755971283374600,-31,120,61,-20,-78,-26,-37,18
1692755971284374200,-98,43,-104,-69,109,50,-85,100
1692755971293367600,104,48,52,50,-35,-9,44,-29
1692755971297365800,-69,10,41,-40,95,19,-23,-69
1692755971302362300,29,47,-33,-127,-128,-104,106,-54
1692755971304362600,85,-78,19,9,110,39,48,53
1692755971324351200,-55,127,-50,100,19,-7,10,-5
1692755971326349200,-45,-95,-60,-31,-52,-11,-78,-5
1692755971329349700,7,126,-29,-54,-72,-27,-4,-12
1692755971331346400,-75,-61,91,-34,21,-17,-8,0
1692755971339341500,-15,-61,-11,-2,-14,12,-23,-27
1692755971341340900,127,2,17,57,-37,-7,12,36
1692755971343339800,-56,-47,43,3,47,46,-14,-52
1692755971348336100,-49,-68,-29,30,-28,-59,-89,-107
1692755971353332700,19,23,53,12,3,7,3,40
1692755971355333100,17,-27,-16,-21,9,39,23,72
1692755971374322400,-17,-22,15,86,33,35,8,2
1692755971376321100,-55,14,-49,-19,-15,-14,-52,-36
1692755971385315700,85,-13,63,-39,-9,-34,-36,18
1692755971386315400,37,11,3,12,14,-8,-67,42
1692755971389313900,-31,6,63,48,26,20,-39,-37
1692755971392312600,-46,-2,-4,-43,-15,-2,71,-65
1692755971400307000,58,-12,-52,38,-15,8,17,35
1692755971402305700,63,-22,73,-57,20,-62,10,100
1692755971404305900,58,19,7,77,1,63,-39,25
1692755971405304700,-53,-29,40,41,27,-52,-98,-87
1692755971414299000,-102,-30,-100,-53,0,75,27,-23
1692755971415297700,39,40,78,41,-75,-22,31,117
1692755971422293300,-25,8,-83,-57,29,-15,27,9
1692755971424295100,126,34,37,41,5,35,-5,-41
1692755971437285900,76,17,-43,-20,22,-10,-35,27
1692755971440284700,-63,0,-59,-14,18,8,39,-83
1692755971443281100,11,9,81,-4,12,-4,-24,-5
1692755971445280900,-53,-38,33,-66,-25,-3,22,15
1692755971458273200,-5,8,5,20,13,-21,-42,-2
1692755971460272000,23,-4,-12,8,5,13,2,19
1692755971467267800,12,7,12,38,13,-4,-3,-20
1692755971469268700,-11,10,-35,-58,-4,3,29,-2
1692755971482261600,-5,-27,58,66,-7,4,12,4
1692755971484258100,10,-31,-11,-10,10,18,-2,25
1692755971485257400,-22,-42,-44,-24,16,-4,17,-22
1692755971486256500,17,16,56,4,-7,4,-1,-6
1692755971506246600,-47,-24,-52,36,-25,-10,-5,7
1692755971508244900,-5,8,-60,-4,-3,14,17,25
1692755971509243700,52,31,-3,-43,18,-2,-20,-67
1692755971510242700,-26,-10,-7,77,-5,3,18,-1
1692755971521239300,4,21,27,1,5,7,7,18
1692755971526234100,-11,-1,13,10,3,-7,-4,-26
1692755971527233400,-9,-9,-14,-5,-5,-10,2,18
1692755971531231500,1,9,-6,-5,-9,10,8,16
1692755971542224200,16,-2,5,-32,3,6,15,-11
1692755971543225600,11,13,13,13,8,3,-11,-16
1692755971546223400,-24,-7,-57,-12,0,-3,-2,12
1692755971549220600,-20,-10,35,41,-3,3,11,-27
1692755971564213900,-4,8,37,7,9,-2,-4,25
1692755971566212100,12,-4,-1,-23,-9,0,-1,-2
1692755971568209900,-12,-4,10,-5,7,3,2,9
1692755971572208200,-4,-6,-11,-19,-6,-3,8,9
1692755971579205500,17,22,-17,-25,-1,-1,1,-6
1692755971581203800,-1,-4,24,25,11,3,-1,3
1692755971591196200,-14,-13,-32,-30,-12,-6,3,-7
1692755971592195600,6,5,1,-7,-16,-10,-5,-14
1692755971602189800,0,3,17,19,7,4,2,0
1692755971605189700,33,-12,12,-1,2,3,2,0
1692755971607187300,-17,13,8,64,12,-2,-5,-3
1692755971608187300,1,8,-4,-77,-24,-5,3,10
1692755971624176900,-4,-19,34,8,-1,2,2,3
1692755971626176400,2,8,-9,-12,5,3,0,-3
1692755971627176400,-7,12,29,15,-12,-4,-3,-1
1692755971629174800,-1,-7,-35,25,24,7,4,8
1692755971639168600,3,3,-4,4,14,-1,2,-5
1692755971640168500,0,-3,-7,17,-34,-15,-7,-6
1692755971648165300,-5,-12,4,7,35,28,7,1
1692755971650162200,6,8,-8,21,18,5,5,6
1692755971663156100,-8,-3,30,-41,-10,-7,-1,-3
1692755971664155500,5,5,2,26,4,0,1,-1
1692755971668151600,-1,-2,-1,-41,-22,-15,-4,0
1692755971669153700,-7,-7,-16,12,-5,-3,1,0
1692755971684142400,-4,-9,-2,2,13,8,2,1
1692755971686141900,2,7,33,-37,-8,-2,-3,-1
1692755971688144400,-1,-8,-29,26,-3,-3,-1,-3
1692755971689141600,-4,1,9,-1,5,-4,-2,-1
1692755971704133300,2,-3,-14,-37,-35,-9,-4,-2
1692755971705131100,-12,2,-3,-22,-24,-1,-1,-3
1692755971713127100,6,7,5,37,73,14,2,2
1692755971715124700,3,-3,6,15,13,4,3,4
1692755971722122500,-5,-9,-19,13,6,3,-1,-2
1692755971724120200,6,14,6,-11,-7,-8,-1,-2
1692755971725119400,-28,-23,5,-31,-42,-11,-6,-7
1692755971726118800,4,-9,-18,-30,-13,-1,0,4
1692755971748106900,11,30,15,15,10,0,2,1
1692755971750106400,6,-6,-37,-9,3,1,-3,-1
1692755971753106300,-1,10,16,21,-21,-8,-3,0
1692755971756107100,-9,-11,8,-15,-7,-6,-5,-7
1692755971758101800,-28,-2,-8,-10,-4,-3,-3,-7
1692755971759102300,10,21,-3,10,-34,-6,3,3
1692755971768094700,22,-40,3,22,52,14,5,10
1692755971776093700,12,46,-28,-31,17,-4,-4,0
1692755971791082000,14,25,15,27,-7,3,1,2
1692755971793080100,7,-8,12,-2,15,-1,-3,-7
1692755971796079700,-47,21,-20,-38,-40,-14,-1,0
1692755971799077300,23,-18,11,-22,-19,5,2,2
1692755971805073600,-9,-97,-28,35,13,-4,-6,-8
1692755971808072200,23,46,11,-43,51,14,3,4
1692755971809073100,-51,-21,-5,-14,-14,-5,-7,-16
1692755971810071700,-9,42,24,32,21,9,7,-3
1692755971818065500,100,17,18,7,4,-1,-3,10
1692755971819066000,-107,-65,-11,34,-8,4,14,-18
1692755971833057500,27,18,-1,16,8,1,-33,-14
1692755971834057600,86,-71,-34,-71,-87,-30,9,19
1692755971843051800,101,26,-22,15,27,10,-2,59
1692755971846057700,-74,30,8,13,21,4,6,-7
1692755971849055600,-92,124,0,-22,-13,-8,25,-56
1692755971851049800,69,74,0,-8,-33,-8,-74,-78
1692755971865039800,4,110,15,14,5,11,43,93
1692755971867038300,109,-75,-2,8,3,7,2,54
1692755971869038700,-84,-10,-24,-20,-10,-30,-51,-75
1692755971870037900,70,58,20,9,29,27,31,61
1692755971879031800,-15,-31,-10,-31,11,-2,-4,-73
1692755971881030300,-18,76,-16,-66,-26,-11,-6,-6
1692755971887028900,-42,-9,41,68,14,13,-4,9
1692755971889026200,10,-37,-37,32,6,-1,16,72
1692755971905020100,-100,26,3,-3,-48,-25,-20,-51
1692755971906016000,82,-52,-13,-6,-8,-15,-14,70
1692755971910014200,13,-59,2,-42,-7,-7,13,24
1692755971915011400,-64,57,-3,105,48,28,8,39
1692755971926004900,-84,-48,-63,-103,-60,-33,-8,91
1692755971929005300,36,89,43,127,100,54,-6,1
1692755971932002300,127,13,-7,-24,-16,-1,50,16
1692755971933001400,-82,-61,32,-78,-28,-29,1,-10
1692755971939000400,-50,-91,30,77,21,-3,-78,-88
1692755971940996900,-128,-87,-35,-73,-118,-77,-65,-22
1692755971948990900,127,44,3,-16,26,62,8,-28
1692755971949990600,-71,0,30,27,31,-14,12,36
1692755971963983100,77,84,-3,58,66,73,127,40
1692755971965981400,-65,-76,-23,16,-88,-66,-85,-93
1692755971968979500,-115,116,10,-10,102,33,49,40
1692755971969979200,107,-69,-76,117,-56,-44,-2,-85
1692755971984970100,-19,36,43,-92,37,36,16,92
1692755971985970300,-15,-22,-65,117,0,0,21,-99
1692755971988967600,39,-69,10,-77,0,-34,-41,-31
1692755971989967400,-128,41,47,-81,-34,-9,-69,-30
1692755971998963100,4,42,-80,-84,-103,-56,49,12
1692755971999962300,127,127,-20,93,56,40,-19,101
1692755972006957900,35,11,-19,-4,-15,0,-35,10
1692755972007957600,28,52,44,-127,-26,4,-47,-88
1692755972021951600,-87,-84,-55,113,-12,-19,27,-72
1692755972022950500,-54,-103,-31,-73,-65,27,-64,-104
1692755972030946200,69,-26,-86,-78,-128,-78,-52,119
1692755972036942500,84,-12,39,87,106,42,75,26
1692755972044937800,-31,44,76,51,-18,24,74,-94
1692755972049937200,-72,-112,13,14,64,-1,81,-57
1692755972055930800,-8,47,20,-61,-39,22,76,81
1692755972057931400,-101,-12,-6,18,50,19,-21,-53
1692755972059927600,126,-5,-52,-104,-24,-53,-55,-93
1692755972061926200,101,-2,96,-5,74,14,39,123
1692755972067925000,-9,-51,-12,-8,-57,-9,57,-91
1692755972070922300,-109,26,-43,-128,-98,-51,63,-45
1692755972084914500,-36,-6,122,26,-65,-19,-91,-111
1692755972085913000,76,23,43,83,11,14,81,38
1692755972098905700,-104,68,-3,127,60,53,74,119
1692755972099906600,101,58,-83,-113,-116,-39,49,-53
1692755972104902200,-27,93,97,99,127,45,-128,111
1692755972105901600,-73,0,-54,-128,-97,-49,-64,-60
1692755972106902600,38,-3,24,115,11,9,92,101
1692755972107899900,-85,-14,20,-3,-71,-1,-39,-74
1692755972117893800,-90,-7,-68,-38,-26,-5,127,-71
1692755972119892500,42,127,-65,-96,56,27,-32,-6
1692755972126890600,44,19,93,16,2,-19,-60,-5
1692755972128888300,-58,-42,-55,-53,-63,-38,-93,-39
1692755972148876900,20,-71,54,71,107,73,92,51
1692755972149875800,-18,-27,77,77,61,89,127,-5
1692755972150875500,-13,-2,-68,-60,-1,-37,-126,8
1692755972151875200,-18,101,103,6,-16,3,24,-22
1692755972164867700,6,7,-59,-128,-84,-46,-70,14
1692755972166866400,-49,91,38,-73,-56,-26,7,-50
1692755972167865500,-31,-81,-1,-5,20,21,37,23
1692755972168864900,62,77,-20,50,55,29,6,39
1692755972186853400,-12,93,10,6,-22,-16,-51,-38
1692755972188855300,13,-7,-7,35,0,-12,-43,-17
1692755972190853200,-8,19,20,7,-17,-4,-32,-77
1692755972191851800,28,-63,18,1,16,-14,-10,70
1692755972202845900,-19,-71,-76,-21,-15,17,23,-8
1692755972203844700,2,28,-27,-34,-15,-14,-1,69
1692755972206843500,2,-32,26,81,20,-13,-16,-65
1692755972207844000,-23,-66,-60,-34,7,-68,-55,-75
1692755972224832100,127,23,77,23,11,94,83,120
1692755972226832800,-64,-3,-16,11,-6,-5,46,-49
1692755972228831200,-3,-15,-1,-37,-37,-3,10,-108
1692755972231829800,118,-10,-66,82,56,20,-58,-66
1692755972247820400,-14,7,74,12,-25,-51,-86,29
1692755972248819500,7,-22,-78,-9,-61,-27,-34,75
1692755972250819500,-45,10,39,101,40,26,-3,-8
1692755972251818700,49,17,-44,-75,-51,-17,71,117
1692755972261811400,2,19,41,96,28,-69,-66,28
1692755972264815000,-14,5,61,-67,5,95,51,75
1692755972267808600,53,37,-14,-19,-6,-22,17,-95
1692755972269808700,-84,-29,63,28,63,123,24,92
1692755972284797900,56,-9,4,-30,-27,-32,-6,-61
1692755972286797700,-42,-21,-35,-111,-3,-46,-36,-26
1692755972288798800,6,-10,-22,-16,-45,-26,-30,40
1692755972290798000,16,-10,-16,5,19,-9,-1,-25
1692755972307786500,-79,-71,40,-20,-2,-13,-12,-19
1692755972314785100,22,-31,43,105,2,-12,-12,-31
1692755972321777500,0,-14,-16,-81,-24,6,-15,-17
1692755972323778300,-7,18,-57,-37,24,16,32,24
1692755972324777000,-21,-32,24,67,-5,11,10,-17
1692755972325776300,61,39,-36,-29,-13,-17,-8,-1
1692755972327774300,-33,16,51,30,7,-3,-4,-5
1692755972331772700,-38,-13,78,34,-1,2,14,25
1692755972344763100,4,13,-95,-46,0,17,9,15
1692755972348764100,63,28,22,6,1,-14,-6,-22
1692755972349761000,-72,-27,-18,10,3,3,-5,-4
1692755972350760700,-10,-3,0,26,10,4,10,2
1692755972377746500,5,-5,-41,-43,-8,5,1,-5
1692755972381743800,-35,23,104,61,7,-5,-1,-6
1692755972382742900,32,-7,-55,-43,5,2,1,-2
1692755972384741000,18,-2,12,52,10,11,5,18
1692755972385740300,-72,4,-28,-46,-9,-8,4,1
1692755972389738500,-16,-20,-39,-20,-7,-7,-9,-9
1692755972391736200,23,15,25,-32,-8,7,-3,20
1692755972391736200,-40,-25,24,14,6,3,11,-1
1692755972407728800,10,2,-38,-21,-6,-4,-5,-12
1692755972409727700,10,2,31,-49,0,-3,-4,19
1692755972412725900,-15,0,38,55,-9,0,-5,-9
1692755972416724700,12,-3,-35,22,4,-4,-3,-1
1692755972426715900,13,4,-12,4,6,4,2,2
1692755972428717400,10,4,17,68,4,6,4,-8
1692755972432714400,-14,-14,-28,-60,-3,3,-5,-9
1692755972433712900,-11,-16,21,14,1,1,2,8
1692755972440708300,13,15,28,-1,1,0,1,-1
1692755972441710200,16,9,33,15,2,0,0,7
1692755972457699300,11,-13,-78,-91,-4,-11,-2,-14
1692755972458699400,-14,0,27,99,-4,-6,0,10
1692755972466693700,8,3,13,16,11,16,0,-14
1692755972467692800,-43,-3,-55,-73,-7,-3,-3,2
1692755972468694300,23,-1,24,-2,2,-2,0,-2
1692755972469693900,-7,1,2,-13,0,-1,2,9
1692755972486682400,5,-1,-36,-21,-10,-6,-2,-14
1692755972488681700,-2,-13,-16,99,3,-3,1,-6
1692755972489680600,-2,10,40,-12,-6,2,0,8
1692755972490680200,-25,4,-5,-7,4,-2,1,8
1692755972501673400,18,0,-19,2,-7,-4,-2,-6
1692755972502673600,12,-3,-16,-18,0,1,-2,0
1692755972508669500,-1,12,-12,4,-3,-3,-2,-3
1692755972509669200,4,-4,-17,-19,1,1,-2,2
1692755972524660500,0,-1,77,33,7,-1,0,1
1692755972526660700,-5,-9,-33,-43,-13,-6,-4,-10
1692755972531657700,-36,-11,29,12,6,-4,-5,-1
1692755972533657400,46,14,-4,-12,-8,-6,-2,2
1692755972547655200,-4,2,-31,-26,3,0,3,2
1692755972549648900,-1,9,28,2,0,-1,-3,-8
1692755972551645200,2,-18,-19,45,5,3,3,5
1692755972554643300,-20,-12,20,5,2,0,-1,-1
1692755972560640700,34,7,-20,-40,-8,-6,-3,-15
1692755972561640100,-15,4,-9,-8,2,3,3,4
1692755972569634300,-7,-6,-29,4,-1,-2,-2,3
1692755972570634500,-5,15,50,14,4,3,2,-2
1692755972584626800,3,-29,-98,-39,4,1,-1,4
1692755972585625400,-11,-6,49,6,-15,-12,-6,-11
1692755972587624600,9,5,-33,-20,-7,-2,-3,6
1692755972588624500,-4,0,20,40,-1,0,-4,-20
1692755972607614900,-3,8,-5,-64,1,1,2,1
1692755972608614200,29,4,-9,-20,4,-1,2,2
1692755972609613600,4,7,10,14,0,0,1,2
1692755972610612900,0,-9,4,-6,-3,-3,-2,4
1692755972621605300,-21,-2,-28,22,5,-4,-6,-4
1692755972623604000,-13,-3,-29,-11,3,2,-1,-5
1692755972635598300,5,4,3,-3,-7,-6,0,0
1692755972637595800,11,-1,-30,-51,6,6,3,2
1692755972644591200,-2,0,99,87,2,4,4,3
1692755972646591800,13,19,29,1,10,7,1,2
1692755972648591200,-11,-7,-32,41,-6,-12,-8,-7
1692755972649612300,-7,5,-4,-26,-8,-1,-2,-2
1692755972667580300,0,14,-1,-5,-2,-1,0,2
1692755972668590300,-2,-13,-3,6,1,2,2,2
1692755972671579600,-1,7,24,-6,4,4,2,1
1692755972673577000,2,0,-7,0,-4,-5,0,0
1692755972694566100,-11,-7,-30,-1,-6,-2,-4,1
1692755972697562200,6,0,37,-1,1,-2,-1,3
1692755972699560500,3,1,0,-9,-3,4,0,-8
1692755972700560400,3,-9,-8,7,4,-3,-3,-2
1692755972712552500,0,-1,6,0,-5,1,0,0
1692755972714553300,-3,7,16,-14,8,3,1,2
1692755972715552000,-13,-18,-60,-30,-10,-6,-7,-6
1692755972716551400,-5,-5,-5,2,1,0,-2,0
1692755972727545000,4,0,20,-16,-7,-4,0,4
1692755972729546700,34,7,-27,25,2,0,-2,0
1692755972732541200,-9,-1,10,22,7,0,4,1
1692755972733541000,-1,14,-5,-83,-9,-2,0,-5
1692755972740537300,-6,-8,-3,32,5,-1,-2,-2
1692755972742538700,-10,-10,-13,2,-4,-2,-1,0
1692755972750531100,4,-4,-1,-32,-2,0,0,2
1692755972752530400,-7,5,-6,28,-2,-3,-1,0
1692755972773519800,-6,2,37,16,0,-1,1,-2
1692755972774518800,-1,-10,-53,-3,-1,-3,-2,0
1692755972776517300,5,10,20,-21,-5,-1,0,2
1692755972777515900,3,4,31,2,6,3,2,0
1692755972787510600,4,-3,-19,1,-2,-1,-2,1
1692755972789509400,-5,-15,-27,19,3,2,-1,-5
1692755972790507700,4,16,18,-26,0,0,-1,2
1692755972791507400,4,-7,-15,92,0,0,0,1
1692755972800501700,-1,2,10,-87,-12,-4,-1,-2
1692755972802500900,-20,0,-28,-21,-5,-3,-2,-3
1692755972809497700,9,-2,8,23,8,4,3,2
1692755972811496300,2,-9,14,8,1,-2,0,-1
1692755972824488000,4,7,-32,4,-2,0,-1,0
1692755972826487300,-7,0,49,28,1,0,-3,-4
1692755972828486500,2,7,5,-39,-2,2,2,7
1692755972831485300,-6,-23,78,1,1,-4,-4,-6
1692755972849476000,-4,-4,-24,3,-5,-1,0,-3
1692755972856470200,-6,-12,-22,-16,2,1,0,-3
1692755972858471000,9,9,14,18,-3,-2,-1,4
1692755972859468700,9,13,15,-5,2,3,1,-3
1692755972861471300,1,-1,-9,37,6,2,0,0
1692755972864466100,-8,-9,-26,-32,-15,-10,-5,-6
1692755972870463000,-7,-3,-20,21,7,7,0,-2
1692755972871463900,-4,-2,-22,-21,-5,-3,-1,5
1692755972884453500,-1,-7,-3,3,1,-4,0,0
1692755972886453300,1,11,-5,2,-1,0,1,-1
1692755972888452100,3,-5,-5,13,5,-2,-2,-1
1692755972890450600,-5,-7,-55,-35,-7,-3,-1,-2
1692755972917436100,-7,-3,45,58,-2,-3,0,0
1692755972920433900,7,9,39,-21,1,2,-1,-2
1692755972923432400,-1,-7,33,17,-3,-1,1,1
1692755972924433000,-1,-4,-37,-16,4,-1,-1,-3
1692755972925432300,-6,3,11,22,1,0,-2,2
1692755972927431200,11,5,13,7,-4,-2,-1,5
1692755972930428500,1,-8,-10,6,4,1,-2,-4
1692755972932428100,1,4,-24,-16,-2,1,2,2
1692755972944420600,1,1,-14,-19,1,1,0,-1
1692755972947417900,-9,-5,9,7,2,0,-1,-1
1692755972949417400,-3,-1,-18,-20,-9,-1,-1,0
1692755972951416400,10,6,20,30,4,0,-2,2
1692755972967406300,25,4,-23,-33,3,3,-1,-3
1692755972968406300,-3,-9,-9,2,-6,-4,-2,-3
1692755972970405000,-10,-2,14,9,-2,-4,-1,-3
1692755972971403500,-2,2,34,21,-1,-1,-3,2
1692755972982398000,-23,-4,6,-6,-4,-6,-2,-4
1692755972983397700,1,7,-45,-17,-1,1,2,-1
1692755972990394400,-8,-7,5,4,4,3,-1,1
1692755972992394700,3,0,5,-1,1,-1,-1,-4
1692755973004384600,4,-1,-3,-4,-2,0,0,2
1692755973007384400,5,1,8,14,0,-1,0,4
1692755973010382400,6,7,36,-5,-4,-5,-3,1
1692755973011381600,-5,-4,-7,23,7,6,2,1
1692755973029374000,5,5,5,-39,-4,0,-1,0
1692755973034391900,-4,-3,3,-12,-4,0,0,-3
1692755973035391200,-2,-6,-17,8,3,-1,0,0
1692755973037366100,-1,-3,20,29,-1,-1,0,-9
1692755973041366600,-14,1,17,11,-2,-2,-1,0
1692755973042387000,14,-2,-6,14,-4,1,1,1
1692755973049360500,4,-3,-45,-38,-2,0,-2,-2
1692755973051358100,-8,4,6,-12,-2,-1,0,0
1692755973064353400,0,-7,-21,12,0,1,-2,-2
1692755973065351100,-3,1,40,13,6,-1,0,-3
1692755973071346900,3,1,-32,-7,-2,-2,-3,-1
1692755973073346600,-7,6,-22,-27,0,0,1,4
1692755973088337800,4,-10,-6,-1,-11,-5,-1,-1
1692755973093334300,-7,0,-7,-9,4,3,0,1
1692755973096333700,-1,6,48,34,2,-2,-2,-3
1692755973099330800,-44,-1,-37,-10,-1,-3,0,-1
1692755973109327000,37,0,-14,-8,4,2,1,3
1692755973111324400,18,5,30,26,2,-1,-1,-5
1692755973113325000,-10,-8,-12,-24,-6,-5,-2,-3
1692755973116321000,4,-3,-15,2,-3,-1,-2,1
1692755973124316000,-8,3,-19,-25,0,-1,-1,-1
1692755973126314800,-8,-3,55,26,0,-3,-3,-1
1692755973128313300,2,-1,1,4,3,4,4,0
1692755973130313400,15,1,13,7,0,-3,-1,-1
1692755973147304500,-4,0,-38,-32,-2,1,0,-1
1692755973150301600,-10,-9,26,-28,-10,-7,-5,-3
1692755973151300800,-9,-6,4,-16,5,0,0,0
1692755973152300300,11,-1,9,11,-7,-5,-3,-1
1692755973170290500,-5,-1,5,10,5,1,1,0
1692755973173288400,-5,-1,-18,2,2,1,1,0
1692755973174290000,6,8,20,-2,2,2,0,1
1692755973176288100,2,-13,-8,-6,-1,0,-2,-2
1692755973184282100,-6,-1,-29,-3,0,-2,-4,-4
1692755973186280000,-4,1,-22,1,-2,0,0,1
1692755973190278000,-9,-4,-4,19,5,0,-2,-2
1692755973192277100,7,-3,32,-14,-3,0,-1,-1
1692755973207269500,-20,-4,9,3,-2,-3,-2,-6
1692755973209268800,9,3,-7,6,4,1,1,7
1692755973210269200,15,2,-35,-23,-4,-3,2,-1
1692755973212265300,-2,10,34,17,-4,-4,-1,-2
1692755973233253500,-4,-11,12,14,1,2,1,-2
1692755973234252800,0,-2,-31,-16,-1,-2,-1,2
1692755973235253400,-36,-3,17,13,1,1,0,-1
1692755973237251600,15,3,-22,-11,2,1,0,-4
1692755973244481900,4,3,15,9,-1,-4,-2,-2
1692755973246485700,-2,-3,-1,-9,-3,4,-1,-3
1692755973248484500,0,-4,0,2,2,1,-1,1
1692755973249483600,-4,-2,-4,3,0,1,-1,0
1692755973266947200,-4,-4,5,-3,2,-2,-2,0
1692755973268929600,0,1,4,-4,1,1,1,-2
1692755973269930500,10,5,29,48,3,1,2,-1
1692755973270929100,-2,-6,-46,-13,0,2,0,0
1692755973297328800,2,2,43,-21,-1,-2,-3,-2
1692755973300326200,-4,3,3,-3,2,0,-1,0
1692755973301324000,9,2,-20,-7,-1,-2,-2,-1
1692755973302323600,0,-3,6,4,-2,0,-1,0
1692755973303322900,-1,1,-4,21,3,1,-1,2
1692755973306322200,-2,1,-6,1,1,-2,0,-4
1692755973310350400,-4,-6,1,-34,-6,-3,-2,-4
1692755973312336100,7,-2,7,27,3,3,1,6
1692755973327479400,-1,4,-8,1,-1,1,0,0
1692755973328458900,-4,-1,13,7,-1,-2,-2,-3
1692755973331456200,0,-3,-45,-20,-2,-1,-2,-3
1692755973332455000,-2,6,2,-13,1,-4,-2,-1
1692755973349434500,-1,1,21,14,-8,2,1,4
1692755973351401200,8,-3,-18,14,1,0,-2,-2
1692755973352404200,7,-4,10,-8,-1,-1,0,-1
1692755973353402500,-10,0,-2,-7,-1,1,0,-1
1692755973364061900,-4,-8,-17,-25,-6,-7,-3,-1
1692755973366077300,-3,-4,-4,11,5,1,1,0
1692755973371059400,-6,7,31,12,-6,-2,-2,0
1692755973372057300,4,-4,-33,-5,-4,-1,-1,-2
