timestamp,EMG_s0,EMG_s1,EMG_s2,EMG_s3,EMG_s4,EMG_s5,EMG_s6,EMG_s7
1689140534321118600,2,-4,-3,1,2,1,-1,-2
1689140534323117400,4,5,-9,-3,-4,-2,1,1
1689140534324118200,0,-4,-4,-1,0,-2,-1,0
1689140534325118500,-7,0,-10,-5,1,0,0,4
1689140534327114800,2,-5,19,6,-3,0,2,-3
1689140534328114100,-2,4,3,0,0,-1,-5,-16
1689140534329114300,0,-4,-16,-2,2,-1,-1,3
1689140534331115400,3,-4,7,-1,0,-1,-2,0
1689140534332115400,-3,1,-7,-4,-6,-1,0,0
1689140534334111100,-3,-22,16,5,12,2,-2,8
1689140534344107700,-1,-9,-29,2,-3,-2,-2,-2
1689140534348103600,0,1,-7,-2,-4,0,3,-2
1689140534350103000,-3,-1,-12,-7,-1,-2,-3,-1
1689140534352102300,2,-3,9,-3,-4,1,2,-2
1689140534362095500,-1,6,-2,0,-1,0,-4,36
1689140534364094300,-14,-4,5,0,-1,-1,-1,-54
1689140534374088000,0,11,-1,12,5,-2,-2,-1
1689140534376088800,7,-38,-38,-12,-3,0,2,4
1689140534377088400,-12,20,32,1,0,0,2,-10
1689140534379085600,37,-2,-14,0,0,0,-2,8
1689140534392079600,0,-2,-9,-14,-4,0,1,3
1689140534394076500,0,15,32,14,2,0,0,-19
1689140534441051000,-6,-42,22,-4,-5,-1,0,0
1689140534443049000,1,12,14,-1,-4,-2,-4,8
1689140534444049400,-1,8,-4,-1,3,1,4,8
1689140534445048500,-13,-39,-24,-3,0,-1,-12,-47
1689140534447046900,2,18,16,1,-1,1,0,15
1689140534448047700,7,-3,-42,-2,0,-3,-1,35
1689140534450046100,-4,8,58,10,0,-1,-3,-8
1689140534451044300,15,19,-18,-3,1,2,6,14
1689140534453043800,-7,-6,50,6,-1,-3,-2,-5
1689140534455042000,-6,10,75,3,3,0,-5,17
1689140534459544200,30,17,-84,-19,-6,0,-1,-51
1689140534461543900,-16,6,71,11,-3,-1,4,10
1689140534468540500,-24,-12,-33,-4,-2,-2,7,57
1689140534470537900,26,8,-9,5,4,2,-10,-15
1689140534482531900,4,-10,-17,2,0,1,1,28
1689140534483531400,22,56,51,-11,-3,-1,-4,-5
1689140534491526700,-36,-35,4,12,3,4,3,-17
1689140534492526000,-26,-38,4,-10,-10,-8,-2,-29
1689140534497523400,8,59,-21,3,3,0,0,14
1689140534499523400,8,-26,-14,1,-3,-2,1,51
1689140534512518000,17,69,-2,1,2,2,-3,-79
1689140534513513900,-60,32,24,0,2,4,11,9
1689140534519510400,32,11,49,20,9,6,2,-14
1689140534521509700,2,18,-94,-22,-12,-11,-23,-13
1689140534528505800,-16,-54,-6,-16,-5,-5,-9,-33
1689140534530504000,3,-2,-9,-3,-3,1,22,49
1689140534543497000,-6,-31,-12,2,2,0,-13,-26
1689140534545497600,-36,6,-1,9,3,4,8,6
1689140534552493900,-9,32,2,1,1,-1,-2,-2
1689140534553491200,34,-30,-50,-10,-3,-3,-7,-4
1689140534560632000,-43,-11,7,-2,-7,-4,11,-23
1689140534562630500,25,-11,18,4,7,3,4,-79
1689140534572626100,-8,7,-35,-7,-1,-2,5,64
1689140534574623500,2,-44,31,6,-2,-3,-2,-29
1689140534579620800,-2,8,23,-6,-5,-1,-8,44
1689140534581621000,4,-18,43,16,4,-2,-9,-10
1689140534588615600,-27,42,-24,-2,0,-1,16,42
1689140534590615900,1,81,-6,5,8,7,0,43
1689140534602607700,55,24,3,6,0,0,1,-88
1689140534603609200,-25,-27,-24,-14,-7,-5,2,26
1689140534611602600,21,-9,-4,5,-1,-2,-11,23
1689140534613602000,1,38,-17,-7,2,0,-5,-60
1689140534617599700,-36,-88,-21,0,-3,-1,7,72
1689140534619598700,-34,43,21,6,0,1,-1,-62
1689140534659577200,30,-38,-24,-2,-3,-7,-25,-81
1689140534661576500,-2,-21,-30,-1,0,-1,-3,-13
1689140534663574900,3,-7,-22,-8,-1,-2,-5,1
1689140534666571900,-27,7,40,12,-3,1,1,14
1689140534668571400,-13,-16,-13,-27,-5,0,-3,-82
1689140534670569800,-30,-21,-3,-4,-1,-2,-4,-36
1689140534672568500,3,-16,2,3,-3,-4,-25,-84
1689140534675566100,1,18,-33,-14,3,1,6,78
1689140534709547400,1,88,12,25,3,2,5,-21
1689140534711546300,19,20,-18,-22,-7,-6,-3,-4
1689140534712546000,-15,-12,27,-10,-2,-2,7,26
1689140534714545500,-8,12,-20,9,0,-4,-5,-22
1689140534716543600,36,19,10,1,5,4,0,75
1689140534718542600,-2,-20,-16,6,1,-4,0,-3
1689140534720540500,12,-43,7,3,2,3,8,25
1689140534722539400,70,9,-5,1,5,0,7,123
1689140534725537500,10,-20,22,0,-1,-3,-6,-22
1689140534726537000,-8,31,8,-2,-4,-2,-3,38
1689140534747524800,-6,-61,-1,13,4,-4,0,-50
1689140534749524500,8,-9,15,-13,0,4,-2,-13
1689140534751524200,12,-30,-25,0,-2,-1,-16,-63
1689140534753522100,-17,-17,-17,18,2,1,1,35
1689140534755520800,32,9,22,-20,-4,-1,-7,-2
1689140534757519500,-54,35,-14,9,-3,-13,-4,-51
1689140534765515000,-16,12,10,-16,-3,-2,0,0
1689140534784503900,43,-21,19,13,2,-4,-13,-53
1689140534786504600,7,49,9,15,11,15,3,95
1689140534787501600,7,-74,-9,-4,-6,-8,-30,5
1689140534789500200,20,4,-10,-1,0,1,3,12
1689140534791500000,-2,-52,2,5,-2,-2,-6,37
1689140534793500600,-21,14,1,-17,-11,-15,11,125
1689140534794500400,25,30,-2,-8,4,11,9,-42
1689140534797497100,5,-57,-1,15,-3,-13,-11,54
1689140534799494600,-26,-27,-56,-22,-9,8,-7,-10
1689140534801493900,-26,2,15,-7,2,-1,-2,-4
1689140534803494100,-30,-39,-79,-9,-3,6,13,20
1689140534829486600,9,29,12,18,0,-17,-3,102
1689140534831484100,-5,6,44,-8,2,27,28,17
1689140534833482300,-26,34,-24,2,0,-1,-16,-51
1689140534835482000,54,1,25,6,3,3,-1,-38
1689140534843477700,-71,-84,-2,2,4,6,10,-8
1689140534845475700,16,11,9,8,0,-8,5,12
1689140534846474400,-9,-3,-20,-14,-1,1,0,5
1689140534847475200,-1,-35,46,14,0,-1,1,-8
1689140534851471600,-30,-24,-25,-40,-9,-5,-7,-85
1689140534853474300,18,38,15,14,0,-11,-15,74
1689140534857468500,-8,-91,-37,-10,-10,-4,6,-29
1689140534859467300,-27,4,17,-7,-2,-5,0,19
1689140534872460000,32,39,16,12,-2,3,11,32
1689140534873461400,13,-5,10,-8,-3,-1,14,60
1689140534879455800,27,26,-37,-7,1,-1,-8,28
1689140534881455700,-5,3,50,8,-2,-2,-3,-55
1689140534888450600,-10,-4,-8,1,2,5,2,-14
1689140534890449700,-3,1,-17,-11,-3,-5,-13,-36
1689140534902442300,-19,-11,-6,2,-3,-8,3,-29
1689140534903442300,-19,8,-19,-6,-3,1,1,-21
1689140534911442800,-2,34,36,5,7,0,4,28
1689140534912443800,-16,-23,35,10,4,21,1,-33
1689140534917438300,11,34,1,4,0,-3,-6,-36
1689140534918438000,27,1,9,17,3,5,-3,-74
1689140534932429700,18,13,-17,-34,-4,5,4,14
1689140534933429500,10,3,14,6,-1,-11,-17,-64
1689140534939425200,-9,9,3,-9,-3,0,-1,-34
1689140534940425900,-8,11,-21,-4,-2,0,5,53
1689140534948422200,18,-3,6,13,2,2,7,2
1689140534950419400,14,30,-16,-1,0,-4,3,-100
1689140534962412300,-9,23,18,14,1,3,6,12
1689140534963413700,-19,27,-12,-12,-3,-6,-6,-7
1689140534971407300,-3,-8,-14,-1,-4,-3,1,22
1689140534972406900,-10,6,13,4,3,-1,-5,-67
1689140534981402500,-49,8,-5,6,2,2,9,-72
1689140534982403100,13,-26,-10,-8,-2,0,5,76
1689140534992395500,42,-15,-12,13,2,-1,1,-1
1689140534994394300,-1,8,-25,-60,-11,-3,6,49
1689140535000394100,-1,-44,17,8,-5,-3,-6,28
1689140535002390600,-10,-23,-20,-2,0,-2,10,43
1689140535008386200,1,5,4,6,1,5,0,38
1689140535010386900,-18,-26,-14,18,4,-12,-1,30
1689140535022377600,-15,16,10,-9,1,3,4,36
1689140535023378500,45,1,-21,-8,-1,-1,0,-31
1689140535031372900,-12,26,38,15,-3,0,-5,-9
1689140535032374300,3,-21,19,13,-2,-4,3,22
1689140535045365900,25,7,-11,-4,3,1,9,71
1689140535046365400,-12,54,9,1,0,3,-1,-14
1689140535052362600,-33,-22,-14,-3,4,0,-1,-22
1689140535053361200,-5,-35,-23,-11,-5,0,-1,-16
1689140535060357200,-18,6,-4,3,-4,-3,0,32
1689140535061357900,-13,-26,-33,-10,2,1,-3,-2
1689140535069352100,6,5,22,12,0,-2,-3,-14
1689140535070352900,6,50,17,-12,-2,-1,2,13
1689140535082343700,-3,-8,-1,11,-1,3,7,56
1689140535083345200,52,5,13,6,1,-1,1,48
1689140535091340700,1,10,-20,-3,2,2,2,-18
1689140535092339600,-13,-14,-19,3,0,-1,5,40
1689140535105352400,7,12,31,9,2,-3,-8,-105
1689140535107005500,-20,11,-10,-6,-3,1,-3,23
1689140535111997700,22,-9,-23,-10,-6,-2,-1,-5
1689140535113019800,2,43,62,30,6,4,-1,7
1689140535119993700,3,0,-39,-40,-4,-3,-4,-19
1689140535121004700,-23,-24,44,11,1,-1,0,-20
1689140535151975400,-30,21,-26,-12,-1,0,-1,44
1689140535153976800,22,13,-18,-1,1,-3,-5,5
1689140535155974600,12,-8,15,27,-3,-4,-3,-17
1689140535156973900,-8,-20,-13,-14,-4,-4,-4,-31
1689140535157973700,-18,4,9,-7,-2,0,1,15
1689140535159971200,9,-24,-12,-7,1,1,-2,-25
1689140535165969100,-3,-4,19,3,4,-2,-4,17
1689140535166968500,-3,-18,-37,-1,-2,-1,-14,-43
1689140535171963100,5,-13,19,4,-1,-1,-2,-51
1689140535172986300,-15,11,-4,3,-3,-4,-1,7
1689140535188954400,5,4,-5,-10,-7,-6,-13,-15
1689140535189956700,-9,2,-10,-5,-2,-3,6,20
1689140535191955400,-8,-23,19,2,-2,-2,-3,-10
1689140535192952200,-18,5,-15,-7,-3,0,6,41
1689140535203947400,69,15,2,-3,1,0,-5,-46
1689140535205946800,1,6,-7,7,1,0,-1,20
1689140535233943800,22,-12,-10,-8,-1,-1,0,41
1689140535236927800,-6,-21,17,8,-5,-4,-11,-43
1689140535237926300,-17,-8,-23,-3,-3,-2,0,3
1689140535238925200,-8,-1,32,11,2,0,0,-20
1689140535239940300,28,25,-26,-12,-5,-5,-3,-49
1689140535241925300,-18,-2,-3,2,0,-1,-2,-2
1689140535248920200,0,8,-2,-7,-1,0,3,17
1689140535250920600,-2,0,1,2,0,-8,-5,-35
1689140535251917700,-24,14,-3,-1,0,9,1,19
1689140535252918100,-8,-25,-4,-2,-2,-1,-10,-88
1689140535261927700,-10,0,2,-5,-2,-4,-3,28
1689140535263917000,3,-8,7,6,-1,-1,5,50
1689140535281902100,-5,-20,14,3,0,-5,-6,-70
1689140535284899900,25,22,-4,-4,0,5,11,43
1689140535287899100,6,-7,1,9,5,5,2,-12
1689140535289900700,11,-21,5,-2,-5,-3,-4,-6
1689140535292895700,5,2,-3,-4,2,-1,2,-36
1689140535293894400,-6,0,-3,6,5,6,-3,-13
1689140535299891500,-16,-3,-21,-2,2,-1,-10,-72
1689140535301889500,0,1,22,-1,-2,1,7,58
1689140535308886300,-5,-3,13,5,-2,-2,0,27
1689140535310886300,11,-11,-17,-2,-1,-3,1,-10
1689140535321877300,-10,23,17,3,-2,1,1,20
1689140535323877300,5,1,-28,-8,-2,-6,-6,-30
1689140535330873100,5,-10,5,-1,4,13,8,11
1689140535332872000,-15,-13,-2,3,0,-3,1,16
1689140535353859700,-7,3,11,-2,-4,-2,1,32
1689140535354860100,-8,-17,-9,2,0,4,21,75
1689140535360855300,-10,2,-9,0,4,1,1,18
1689140535361856700,72,6,32,6,-4,-3,-2,-19
1689140535362855800,-3,37,-2,-2,4,3,-3,-17
1689140535363854800,11,-4,4,0,-1,0,0,28
1689140535382842400,6,0,-12,0,-1,-3,-4,-9
1689140535384841500,-10,-6,-10,-3,-2,0,-5,-55
1689140535386841900,2,5,2,-1,-2,-4,3,14
1689140535387862300,15,17,14,0,3,2,-1,-37
1689140535390840900,-20,8,-5,-6,-1,-3,-1,-28
1689140535392837900,-31,-5,-13,-3,-1,-2,-3,6
1689140535405836900,0,0,12,-1,-3,-2,10,68
1689140535407829900,-18,5,0,4,-1,3,-3,-34
1689140535412826700,-11,36,4,9,-5,-10,-4,-6
1689140535413825700,-12,-11,-7,-19,0,4,5,26
1689140535427816600,-23,-13,-7,-4,-1,5,13,83
1689140535428817000,19,-14,8,0,3,4,8,79
1689140535434815200,45,2,3,2,-2,-5,-5,-18
1689140535435814500,12,67,-18,2,0,-4,0,13
1689140535450804400,-17,7,39,0,-1,1,-2,-6
1689140535452803600,-7,4,-21,-5,-4,-4,-7,-26
1689140535454802900,3,-10,1,2,-2,0,0,27
1689140535455800900,-11,15,-13,-4,-2,-3,0,0
1689140535465795700,8,-63,1,4,0,-1,1,-15
1689140535466795300,-11,-2,0,-2,3,-1,-3,-14
1689140535471791600,10,32,12,-6,-4,-3,-6,-16
1689140535473793100,-18,-9,-10,6,1,2,1,10
1689140535487783500,-12,-2,-13,-17,-5,-7,-10,2
1689140535490782000,15,-16,3,4,-1,-7,-10,-76
1689140535494779300,8,-21,-34,-8,2,14,5,40
1689140535496778100,1,-18,26,5,0,-5,-2,-16
1689140535510769400,11,-6,0,8,4,4,-1,23
1689140535512768800,-17,10,-21,-1,-4,-5,-6,4
1689140535514768000,-33,-6,5,-4,-4,-7,3,8
1689140535515767900,16,-41,-1,2,3,-1,-6,-7
1689140535525761200,10,-3,-5,4,0,-1,0,-9
1689140535526760500,-8,24,24,2,-1,2,-2,-18
1689140535534756600,-9,10,-15,-5,-2,-3,2,0
1689140535536755600,-17,-37,-17,-2,-1,-1,8,84
1689140535548748200,4,7,10,1,0,-1,-15,-67
1689140535549747900,-1,-5,-24,-5,-5,-3,-4,46
1689140535554744200,-5,-12,18,6,2,-4,-1,6
1689140535555746100,10,13,0,-8,-2,5,7,8
1689140535570735200,2,6,-7,4,3,2,4,41
1689140535572733700,15,-6,-10,-6,0,4,-2,-25
1689140535573737100,16,15,15,-5,-2,-6,-17,-45
1689140535575735900,15,35,18,19,5,12,-2,-8
1689140535585726900,-22,-92,-42,-30,-4,-1,-1,1
1689140535586727600,3,12,16,6,2,0,-1,-2
1689140535592722400,-18,-14,-18,-5,-1,-3,8,-3
1689140535593723900,10,-26,5,7,1,-6,-8,11
1689140535607570300,13,18,1,7,-3,-2,0,14
1689140535609574900,2,6,0,-3,0,-1,-9,-12
1689140535614557900,13,-2,29,2,-1,-2,-8,-19
1689140535615560600,-27,-19,-9,-8,-1,-3,1,-17
1689140535631551600,2,27,-21,-2,-2,-2,3,-10
1689140535632550500,-13,-10,20,2,1,-3,5,9
1689140535634549800,9,-11,-7,8,3,2,2,65
1689140535635548700,8,7,6,-5,-6,-5,-11,-83
1689140535645544800,-18,0,-2,1,-2,-1,-1,-32
1689140535646541000,16,1,-8,-2,0,3,5,6
1689140535661531600,4,28,0,5,-1,0,-1,-5
1689140535662531000,-18,-29,-4,-14,-5,-4,2,19
1689140535675524200,0,-2,3,22,4,1,0,-12
1689140535676524600,8,-7,-15,-46,-11,-4,-2,-12
1689140535683519000,-10,-4,4,6,0,5,5,39
1689140535685520500,1,8,-5,-1,-2,-3,-1,-38
1689140535691516200,3,6,-16,-4,0,-3,-2,-20
1689140535692516200,-26,5,10,17,-1,2,2,33
1689140535694515200,-12,-32,39,0,0,-1,-4,-76
1689140535695511700,-6,10,-8,-5,2,0,2,9
1689140535705505700,11,5,32,4,0,3,1,7
1689140535706505700,-9,21,-14,1,-4,-5,-7,-48
1689140535712501700,4,-17,-24,-10,-1,-2,-1,36
1689140535713502600,9,1,-5,5,-1,0,4,52
1689140535728494200,-20,14,-1,-3,-1,-4,-3,-50
1689140535729493400,-28,-23,7,5,4,2,0,-10
1689140535734489700,14,40,0,-2,-3,-3,4,18
1689140535736489000,-1,-15,5,-2,-1,-2,-2,-8
1689140535751481100,-2,0,-5,-2,-3,-3,-1,7
1689140535752479800,-3,6,4,0,-3,-2,-2,-2
1689140535754480000,-3,-12,-25,0,2,1,3,11
1689140535755479000,-12,26,27,6,0,0,5,18
1689140535765473800,22,13,7,-1,0,3,-4,-5
1689140535766473400,-8,-16,-5,3,2,-1,0,2
1689140535772467600,5,3,-7,-3,-2,0,2,21
1689140535773470300,13,-13,-17,-5,-2,-2,-1,10
1689140535789460400,-9,29,11,-1,-2,0,3,9
1689140535791460700,3,2,1,6,9,3,1,-2
1689140535794455600,-6,-16,9,-4,-3,-3,0,-19
1689140535795458500,-17,8,3,3,3,3,-8,-9
1689140535811445200,16,17,-21,-1,-1,-1,1,-3
1689140535812467300,17,17,38,-2,-4,-3,-2,11
1689140535814447000,-3,-9,0,0,2,-3,-3,-37
1689140535815446200,-29,-13,5,2,-2,-3,-3,17
1689140535833433600,41,-4,10,-1,-1,-3,-2,37
1689140535836432600,-12,-48,-22,-2,-1,0,-4,-36
1689140535838431700,-8,14,-8,-2,1,2,1,10
1689140535839429700,-3,-16,-1,-2,-4,-4,1,-15
1689140535848425900,-8,-9,-10,-10,-1,-1,-1,-7
1689140535849423400,-2,13,-7,1,0,-1,4,18
1689140535854438900,-5,-16,7,7,-1,1,-3,-6
1689140535856420800,11,6,-16,-6,-3,-5,-2,6
1689140535878429100,-15,3,16,2,0,1,0,-1
1689140535880407600,8,-27,-19,1,2,2,-6,-75
1689140535881427500,51,0,-4,-1,-3,-3,1,24
1689140535883404900,6,19,5,-1,-1,-1,3,16
1689140535884425500,4,3,2,1,0,-2,-1,-5
1689140535886405600,-7,6,-4,-5,-2,0,3,3
1689140535893399600,-14,5,8,4,1,1,0,13
1689140535895398400,6,2,-17,-4,-1,-3,-4,-27
1689140535908392600,-34,-24,52,1,0,1,1,-74
1689140535909392200,31,-31,-12,1,-1,-1,-6,-26
1689140535914408400,-11,-10,-34,-9,-3,-1,-1,21
1689140535915389000,-8,7,19,8,7,3,3,18
1689140535931377000,-10,12,-8,3,-1,-1,0,27
1689140535932379100,-2,26,-7,-8,-7,-11,-2,8
1689140535934377900,-1,6,21,6,3,7,4,7
1689140535936374600,10,-5,25,-1,-3,1,3,14
1689140535945371800,16,-10,-19,6,-2,1,3,49
1689140535946390100,-3,7,3,-1,3,-2,2,76
1689140535953364300,-11,17,-10,-6,-7,-4,-3,4
1689140535954386500,6,-3,0,21,6,4,-3,-17
1689140535968354900,-15,0,-4,-29,-5,-2,-1,-4
1689140535969355400,-14,-13,-26,-5,0,2,4,44
1689140535974353700,-8,25,11,0,-4,-5,-6,44
1689140535976353300,-7,-2,-12,0,1,-2,-3,-24
1689140535991342100,15,-19,-9,3,0,-1,0,25
1689140535993341800,-9,22,30,9,-1,4,4,5
1689140535995341700,4,-31,-4,-2,6,5,-1,-37
1689140535996347200,9,21,-7,-5,-4,-4,-2,-4
1689140536005337600,-4,-11,-30,-23,-6,-4,-4,-4
1689140536006334200,-11,9,-3,-5,-4,-1,2,-6
1689140536015350500,-7,-16,6,7,6,0,0,14
1689140536017327300,8,3,-7,2,-1,2,-3,-29
1689140536028323400,-4,13,-1,4,2,3,2,-34
1689140536029321200,-7,-30,0,1,-1,-2,-1,8
1689140536034340000,8,-12,-2,-5,-4,-3,-3,-15
1689140536036318000,-14,-34,-12,-6,0,1,1,-14
1689140536051308000,-3,23,4,7,2,0,0,9
1689140536053308600,16,92,14,-2,0,-1,0,-4
1689140536054328300,-10,-35,16,9,2,2,0,-22
1689140536055328000,-12,-41,-14,-20,-8,-6,-2,37
1689140536064316600,-22,-11,7,4,-5,-4,-1,-3
1689140536066302100,50,-3,3,10,7,5,-1,11
1689140536073297600,-5,-23,-13,-6,-1,1,3,-1
1689140536075294000,13,43,22,-2,3,1,-1,16
1689140536089308600,-5,-42,-27,3,1,2,2,8
1689140536091305400,-6,-17,6,-9,-4,1,-2,-6
1689140536095283000,-5,17,-1,0,-4,-1,0,-15
1689140536096283400,5,-2,0,12,2,0,-1,-4
1689140536111273100,-5,7,7,-14,1,1,-1,-39
1689140536112274300,-12,-12,-1,5,-1,0,-2,4
1689140536114274600,3,11,-5,-2,3,-1,3,-6
1689140536115283100,-19,21,-5,-3,-4,0,5,34
1689140536124288100,16,21,11,13,2,-1,-4,46
1689140536126266700,-9,-26,-13,-2,0,1,1,-16
1689140536141256400,-3,14,-14,-12,-7,-4,1,13
1689140536142257000,3,14,8,-5,-1,1,2,-6
1689140536148253100,-3,-21,4,5,-1,-2,1,-1
1689140536149274900,19,3,12,-6,2,-3,-3,-7
1689140536159248700,7,6,1,16,-2,0,-3,-1
1689140536160262800,2,-18,-8,-1,2,2,0,-1
1689140536171239100,6,8,-55,-38,-5,-1,-3,-18
1689140536173240800,22,4,41,15,-2,-2,0,9
1689140536175236700,-10,-37,-25,-13,-1,1,1,-8
1689140536176238600,11,9,10,4,0,-2,-5,8
1689140536185230700,-7,-3,1,12,0,-1,-1,-8
1689140536186230600,-12,-1,-8,-2,-3,-2,4,43
1689140536193226000,0,-10,6,-2,-2,-2,-8,-51
1689140536195247200,3,7,2,0,1,2,-3,-7
1689140536208217800,18,-18,6,6,2,-1,-1,8
1689140536209222800,-12,34,-20,-7,-3,-2,7,33
1689140536215214900,3,5,32,0,-5,-4,-2,9
1689140536216213000,6,21,-12,-6,-2,-3,-1,37
1689140536231204500,-11,11,22,19,4,0,0,-29
1689140536234203600,-4,-8,-24,-24,3,3,0,-42
1689140536235204200,-5,47,13,1,-2,0,3,10
1689140536237204400,-1,-15,0,6,3,6,2,27
1689140536245196500,0,12,7,14,1,0,-1,13
1689140536246198800,-39,-40,-24,5,2,2,-4,-12
1689140536254191000,8,15,42,3,3,0,0,-13
1689140536255191500,-22,1,-21,-10,-6,-9,-8,-7
1689140536268183800,-1,0,3,9,7,0,-4,-6
1689140536270204900,-2,-4,2,2,-2,1,-3,-17
1689140536275179200,-3,-31,-21,-6,2,3,-2,7
1689140536276179200,1,20,14,8,-3,-5,-3,-19
1689140536290170700,-16,-18,1,-4,-2,-5,2,2
1689140536292170100,0,-18,-15,3,-3,7,1,-10
1689140536302164500,13,18,6,3,4,-4,-7,-2
1689140536304163200,4,-40,-7,9,4,4,10,30
1689140536306162800,1,34,-7,-32,-18,-11,-3,-7
1689140536307161800,3,5,12,3,-8,0,4,9
1689140536313157200,-8,-59,-56,-25,-3,-7,-7,0
1689140536315156900,1,10,21,4,-7,-3,3,-7
1689140536328149600,10,21,9,0,20,14,-6,5
1689140536329149500,4,25,29,36,26,15,0,0
1689140536342141000,-13,-37,-29,6,4,4,3,2
1689140536344140600,3,22,4,25,-18,-16,-1,-19
1689140536351137100,8,-53,-25,-62,-2,9,2,30
1689140536353135200,-9,18,10,2,-18,-27,-14,-26
1689140536357131700,-25,42,5,-23,-6,11,6,5
1689140536359131800,4,-26,-17,9,2,3,-11,-17
1689140536365128500,2,-50,-4,-14,-36,-25,0,2
1689140536366129300,3,41,19,15,9,14,5,9
1689140536382117900,-6,-37,-6,8,5,3,5,-3
1689140536384119700,-8,2,-4,-10,6,4,-4,-11
1689140536388114800,-4,50,19,22,-9,-7,0,-5
1689140536390113300,10,-45,-25,-42,-1,-1,-4,13
1689140536395112200,7,19,12,8,-15,-10,0,-3
1689140536396116000,2,-23,-11,-19,-11,-7,2,-6
1689140536410102300,0,-8,-16,13,11,7,3,1
1689140536412100800,-3,-9,3,-9,-15,-15,-3,-7
1689140536417097800,7,37,15,13,11,7,3,7
1689140536418100000,-9,6,-6,-9,7,5,-1,-38
1689140536434091500,-5,-31,6,10,11,9,2,-15
1689140536435090800,5,-10,-12,1,0,0,5,24
1689140536437088100,9,17,7,1,-6,-12,-4,3
1689140536439088300,2,1,2,-10,7,5,5,6
1689140536448080200,0,-9,-1,12,6,0,-3,-12
1689140536450079200,0,7,2,-1,-2,-8,0,-2
1689140536458077800,2,6,-7,-6,-7,-2,-1,3
1689140536459096600,0,-12,3,-2,0,-3,2,1
1689140536471068100,-3,9,15,10,6,6,2,12
1689140536473066100,-4,9,6,-2,-10,-5,-4,-2
1689140536477078200,-1,13,-23,-9,14,4,-2,-4
1689140536479065200,-1,-15,1,-1,-1,-1,-4,-4
1689140536494053600,0,11,33,3,-2,-2,2,2
1689140536495055900,-3,3,6,1,-3,-2,-2,-1
1689140536497055100,-17,-12,3,-3,-7,-1,0,-42
1689140536498052000,-4,4,-11,2,3,-2,2,-2
1689140536508046400,1,16,1,0,1,-3,-6,1
1689140536509046300,-7,-27,-20,3,4,2,-2,14
1689140536515044400,23,1,6,13,5,2,0,-6
1689140536516042700,-12,47,-1,3,7,3,1,0
1689140536534032600,2,-31,-4,-23,-6,-7,-1,-6
1689140536535033500,-5,-11,-13,-18,-4,3,0,-5
1689140536537029200,-7,-6,-43,6,1,1,1,7
1689140536538030600,0,8,57,23,6,-1,-4,-3
1689140536554021700,-5,4,7,19,-2,-2,-2,-2
1689140536555021800,12,7,15,18,4,2,5,-16
1689140536556021100,29,0,-23,-64,-14,-3,0,20
1689140536557020200,6,-1,-29,-19,-3,2,0,0
1689140536568014700,4,-28,-23,-2,-3,-3,-4,2
1689140536569012000,-3,4,8,6,3,1,-1,-11
1689140536575007800,-9,-6,18,13,-1,0,0,1
1689140536576030300,14,33,-13,-11,-3,0,0,32
1689140536590998400,-20,-5,4,8,-2,-3,2,-23
1689140536591998900,-8,7,-3,1,4,2,3,-1
1689140536596994200,3,-3,1,8,-2,-5,-3,19
1689140536598017000,-9,-14,-15,-16,-5,0,-1,-8
1689140536613985400,6,27,84,26,4,2,0,1
1689140536614987700,5,-23,-24,-6,-2,0,-2,-25
1689140536616987000,-21,33,-1,4,0,-1,-1,39
1689140536617986800,53,-13,-7,-8,-1,-1,-1,-24
1689140536627976800,-21,8,-23,1,-4,0,6,43
1689140536628977400,36,-19,30,-1,1,2,-7,-64
1689140536634973100,-7,30,12,-4,-2,0,7,20
1689140536635972900,-6,-13,-14,0,0,2,1,2
1689140536650965400,2,15,-22,-6,-8,-7,0,18
1689140536651986100,-2,-49,-20,-8,0,-4,-5,4
1689140536656983800,-18,12,10,16,4,3,0,-14
1689140536658962300,-6,-17,7,-6,-4,-3,-2,5
1689140536673951100,19,3,-22,3,-1,0,-5,-14
1689140536675951000,-7,13,1,-20,-5,-5,2,26
1689140536676951700,-6,-20,7,10,8,1,-1,1
1689140536677952600,-87,-17,-22,-9,-6,-4,22,96
1689140536686943800,-5,5,11,3,4,4,-6,-42
1689140536688942800,-19,6,0,11,1,2,13,81
1689140536695938300,-6,-19,5,8,6,1,-9,-38
1689140536696941000,12,16,-19,-6,0,-3,-1,6
1689140536710932100,5,-3,-60,-10,0,2,-1,13
1689140536711931800,-9,12,28,5,-2,-1,-2,15
1689140536716948200,-9,-17,2,-2,-1,1,2,5
1689140536717928600,47,11,17,11,0,0,-5,-9
1689140536733916500,-12,26,6,0,0,0,0,-34
1689140536734938900,47,12,-14,-4,-1,-1,-1,-10
1689140536736917700,15,-5,-18,-9,-2,0,-2,-17
1689140536737915700,-1,5,33,3,-1,-3,-10,-61
1689140536746909500,16,5,-3,-1,6,8,3,13
1689140536748909200,-38,1,10,-2,-2,-3,-5,-24
1689140536755905200,-10,-18,-4,7,-2,-4,-9,-88
1689140536757904100,0,-6,5,13,1,-2,-1,11
1689140536770899700,-5,-5,-18,-22,4,0,3,8
1689140536771917200,-8,20,31,0,0,1,-5,-12
1689140536776891100,3,-11,10,-4,-4,-2,3,25
1689140536778890800,-22,-14,-6,5,1,0,-4,-24
1689140536793884800,0,0,-12,5,-1,0,-3,-25
1689140536795882700,-7,-8,-16,-1,-1,-1,-13,-67
1689140536796882200,4,-2,3,0,1,0,1,19
1689140536797881400,-13,2,0,-10,2,2,-2,11
1689140536806873800,8,-23,29,9,-4,-6,-5,-10
1689140536808880500,-6,19,-11,-11,-1,-4,1,30
1689140536816875100,-13,15,5,1,-5,1,6,17
1689140536817875000,6,1,0,4,6,7,-3,-4
1689140536829867000,-15,-14,-10,-8,-1,-2,7,37
1689140536831867000,-8,-7,-8,6,2,-2,-9,-26
1689140536836865400,20,-3,-5,-3,-1,-3,-1,20
1689140536838862800,19,59,13,-5,-7,-4,-1,-2
1689140536853855200,-18,-11,-8,-2,2,0,-4,-32
1689140536854854000,-20,0,20,6,1,2,10,39
1689140536856856400,28,7,2,0,0,-2,-3,-13
1689140536857852500,5,-30,-9,-8,-6,-2,1,-10
1689140536867845700,16,17,5,1,0,-2,-1,-11
1689140536869844700,-33,4,-11,-2,0,3,4,33
1689140536874842800,45,-14,-9,-3,-1,-2,-11,-83
1689140536875842700,-6,-13,4,2,-2,-1,24,71
1689140536898828200,24,-3,21,9,4,3,-4,73
1689140536899828600,18,-17,-16,-3,-2,-1,4,37
1689140536901827200,-23,2,0,-2,-1,-2,2,30
1689140536902834900,7,-12,-7,-1,2,3,2,-4
1689140536913906000,0,39,6,5,-1,-3,-4,-55
1689140536915905500,-7,-27,-15,-7,-2,-1,0,20
1689140536916904500,-11,-11,11,13,6,0,3,23
1689140536918904400,-7,20,0,-14,-5,0,-4,-9
1689140536927899100,-12,-25,-7,-4,-6,-6,-1,20
1689140536928897300,17,7,-10,6,1,0,-15,-66
1689140536935892800,-22,-12,3,-2,-2,-2,-4,-17
1689140536937892400,9,-25,3,2,2,1,13,93
1689140536950884000,2,-3,-11,-2,2,3,-12,-29
1689140536951884500,10,18,16,0,-3,-1,6,10
1689140536956880600,-21,10,-13,-4,-3,-2,-1,25
1689140536958881600,-2,-3,4,1,-1,-4,-11,-42
1689140536972872000,-4,-6,-3,-9,-2,0,4,-44
1689140536973871800,-5,-4,-19,2,3,1,2,-7
1689140536982866500,-8,14,25,20,0,0,2,-1
1689140536983867700,-16,-19,-25,-23,1,2,-6,-18
1689140536987866100,-31,22,21,13,-5,-7,-9,-8
1689140536989861900,3,-2,-43,-14,-3,0,-3,-24
1689140536996859400,-11,9,15,-2,3,2,4,21
1689140536998858000,35,-2,8,14,0,-2,-7,-22
1689140537010563000,-3,-11,-36,-7,1,4,6,35
1689140537013562100,1,-2,21,3,0,-4,-2,13
1689140537017559600,-22,28,20,7,-2,-2,1,22
1689140537019559200,-17,-12,-17,1,2,1,-5,-24
1689140537033549300,-2,17,9,-2,-2,1,1,14
1689140537034549200,17,4,-18,1,0,-1,0,52
1689140537036550400,7,-18,-10,-10,-1,0,-1,-94
1689140537037548500,-31,30,18,5,-6,-7,-6,-31
1689140537047543100,15,-14,-8,-12,1,0,-2,18
1689140537048542600,-2,39,14,6,0,1,4,-3
1689140537056536100,11,31,24,-6,-1,2,-4,8
1689140537057536500,-24,-5,3,-1,2,-1,2,12
1689140537073528300,33,-12,-20,5,-1,3,-1,-2
1689140537075526000,-4,5,10,0,2,3,0,-23
1689140537077525100,3,-27,-32,-10,-6,-4,2,44
1689140537078523500,-23,-20,22,6,0,-1,-5,-31
1689140537093516700,-1,2,4,-2,2,0,9,20
1689140537095514200,-11,-9,18,4,0,-1,-2,-4
1689140537096514500,30,-27,-22,2,-2,-3,2,48
1689140537097514400,-21,7,-17,-8,-1,0,-6,-54
1689140537107507400,-8,-8,11,-9,-7,-4,-2,10
1689140537108508500,5,-23,4,6,1,0,3,5
1689140537116501900,1,-19,-3,-2,1,0,3,56
1689140537117501600,15,23,2,8,3,1,-1,-35
1689140537130493900,-2,0,-6,1,-1,-1,-3,-25
1689140537132492500,-27,-3,-10,-8,-5,-3,1,16
1689140537137491500,-5,-29,3,1,4,4,-3,-5
1689140537138491100,19,0,-12,0,-4,-4,1,22
1689140537153481600,-2,-6,5,-5,0,4,4,24
1689140537155481000,1,-15,7,6,1,-1,-1,-17
1689140537156480800,24,16,-11,-8,-2,0,1,-8
1689140537157487900,5,-5,6,3,0,2,4,66
1689140537167473000,-1,-5,-19,-17,-4,-4,-5,-32
1689140537168473900,14,20,17,17,1,1,1,33
1689140537176467600,-12,-5,-16,-20,-12,-8,-5,-58
1689140537177467300,8,29,24,-6,-1,3,-1,35
1689140537190460400,8,-8,20,12,1,-3,1,28
1689140537192459400,0,3,-9,-10,-2,-3,-2,-39
1689140537213450800,-3,1,-2,5,3,1,0,-17
1689140537215445900,-2,-18,-2,5,3,3,-1,0
1689140537217460300,-4,9,0,1,2,2,0,-9
1689140537218446100,7,-19,-11,-6,-4,-4,-2,-6
1689140537220443400,-8,-10,26,9,3,-2,-3,0
1689140537221464200,6,-20,-11,-2,0,-2,-4,-19
1689140537227438300,14,25,14,7,-2,-1,-1,17
1689140537228439600,19,-14,-40,-19,-3,0,2,74
1689140537236433600,18,6,0,-1,-1,0,-8,-60
1689140537237433300,-15,-18,-4,5,10,2,-3,-19
1689140537250425300,-14,45,9,0,-3,-2,-2,-8
1689140537251424800,6,4,5,2,-1,-1,1,19
1689140537257421300,-6,19,-3,-1,1,3,-1,-42
1689140537258422400,2,-37,-3,2,-3,-3,0,8
1689140537273414400,-2,-19,-7,2,1,-1,-3,-6
1689140537274414300,-25,22,10,0,4,3,6,-24
1689140537279431400,-7,1,-2,1,-2,-3,2,20
1689140537281410500,0,12,-17,-12,-2,-3,0,4
1689140537288408500,-9,-69,6,5,2,2,1,3
1689140537289405200,0,1,7,2,1,1,-3,-41
1689140537296399700,2,-12,-14,2,-1,1,2,1
1689140537297420500,18,-15,-62,-13,-6,-2,2,3
1689140537310390700,-29,24,64,3,3,4,6,17
1689140537312390600,14,37,16,12,-3,-9,-17,-57
1689140537317390200,-9,3,-15,-1,3,2,-1,-14
1689140537318409200,13,13,20,10,1,-1,0,19
1689140537332379200,-3,-5,-48,-19,1,1,1,11
1689140537334399400,-21,-24,-17,7,0,2,2,0
1689140537340373600,-10,10,27,-10,-4,-1,-1,4
1689140537341374200,-8,-3,-14,-21,-6,-3,-3,-6
1689140537356364600,17,0,8,7,-1,-2,-2,-3
1689140537360368800,-9,-8,2,-3,3,4,-1,3
1689140537364376100,0,6,-3,6,2,-1,-2,42
1689140537365363400,12,-29,-4,2,-6,-5,0,-11
1689140537370379200,-13,29,-11,-5,-10,-3,0,-5
1689140537372357200,4,-4,20,3,2,0,-4,-1
1689140537377352500,-16,10,-15,-7,7,7,0,16
1689140537378356200,0,-1,27,9,5,3,-1,-7
1689140537392343300,3,-32,-10,16,2,-5,-1,-9
1689140537394347200,0,-32,-21,-22,1,6,4,6
1689140537400341800,11,12,-2,-20,-31,-16,-2,29
1689140537401341600,-25,29,10,-44,-39,-9,-4,-45
1689140537416330300,9,-8,-4,81,53,21,2,-4
1689140537418330500,-15,-10,5,7,17,2,-3,-5
1689140537419329600,13,-8,-4,-18,-3,-3,-1,24
1689140537420343200,0,36,-6,-86,-62,-13,-4,2
1689140537438320300,-26,24,-6,13,-28,-10,-2,-3
1689140537440316900,27,-32,-1,-7,26,9,0,1
1689140537442315900,-16,16,13,58,25,8,2,-11
1689140537443314800,17,-5,-4,28,9,-5,-8,1
1689140537453312300,58,9,-4,-48,-30,-6,7,26
1689140537454309100,-17,-11,-10,-31,-30,-14,-10,-4
1689140537459304800,-19,-4,-12,-25,-27,-11,-3,-4
1689140537461304000,17,-1,-6,-55,-12,-2,-4,-6
1689140537476296200,-86,4,16,54,27,10,7,-4
1689140537477317300,33,-12,-5,17,8,0,-2,-12
1689140537478298300,32,20,0,-19,-4,0,3,23
1689140537479295300,-15,-9,1,34,18,6,7,-6
1689140537498285900,8,-16,1,-30,-14,-3,-14,-11
1689140537500283000,-9,12,-15,-24,-17,-14,-19,-4
1689140537501303600,-5,-19,-9,-37,-21,-2,23,15
1689140537502281900,-69,6,1,36,6,6,6,-7
1689140537513275900,81,-8,-10,-9,20,-2,-9,13
1689140537515275800,-54,25,11,12,2,8,-2,-19
1689140537519270900,96,-5,-4,0,0,-5,7,-1
1689140537521270100,-57,-33,-4,1,4,2,14,27
1689140537535262900,-68,-43,-7,-20,-10,-7,-22,-40
1689140537536263900,-27,42,4,-2,-11,-6,12,12
1689140537543258000,56,6,-1,-12,-7,1,-4,-25
1689140537545258000,41,30,22,77,56,14,-11,11
1689140537549254700,0,-49,-13,-14,-18,-10,31,32
1689140537551253000,96,-1,-31,-61,-35,-26,-69,-9
1689140537582237700,-125,-25,-9,-88,-77,5,-39,-37
1689140537583237200,23,54,86,95,94,39,32,-32
1689140537584237700,66,-34,10,-12,29,28,44,72
1689140537585255600,-74,32,16,-13,-10,15,51,2
1689140537586254800,34,50,-2,-31,-16,-23,-44,-26
1689140537588232200,-65,-75,-51,-82,-69,-41,-32,-39
1689140537597229000,86,-12,2,-22,-17,5,-18,57
1689140537599225900,-35,-19,-13,57,48,-11,19,19
1689140537601226800,92,12,9,34,24,15,5,-17
1689140537602226400,-50,-34,-31,-36,-13,-1,-14,-42
1689140537610219200,-128,8,-7,-12,-9,-24,-68,-128
1689140537611219000,-13,10,6,1,-12,21,72,-13
1689140537619214800,65,-64,-2,5,3,-23,-18,82
1689140537621213500,123,86,-1,12,7,7,47,65
1689140537633206700,-83,18,-1,-8,3,10,-33,-34
1689140537635205700,121,-65,-11,-4,-17,-16,-20,18
1689140537647200300,-128,19,25,65,52,17,-4,38
1689140537649197700,-69,54,3,-75,-32,7,-9,-65
1689140537656194500,124,8,-16,90,12,-40,35,86
1689140537658192400,-128,39,42,12,27,34,-18,-108
1689140537660190700,112,-5,-5,36,25,0,-26,83
1689140537661189800,-80,-75,-48,-35,-13,13,75,71
1689140537670184900,13,33,1,-77,-45,-22,-70,-9
1689140537672183500,-75,63,12,-2,-11,8,26,10
1689140537678180000,-118,-54,-6,45,26,8,-44,-32
1689140537680179100,115,32,15,-12,11,-9,-21,-42
1689140537693171500,28,-40,-12,9,-7,-15,8,-73
1689140537695171900,70,10,-11,-25,-19,11,83,90
1689140537700168300,19,-17,15,-13,-3,25,-26,-22
1689140537701169500,-78,-5,-21,-17,-24,-11,45,2
1689140537723155200,-91,5,8,10,20,23,-21,56
1689140537725153300,37,12,26,12,1,-11,-13,-34
1689140537727152900,20,-48,-11,7,2,-31,-31,35
1689140537728152500,67,-11,5,10,-28,-28,21,69
1689140537730150700,127,95,29,5,8,39,19,82
1689140537731149700,-84,-67,-10,27,40,5,7,-39
1689140537739147000,-38,63,3,-22,-30,-21,-45,-95
1689140537740146100,86,-7,-14,-94,-41,-19,42,57
1689140537753137200,-40,-8,-2,66,-1,13,27,-40
1689140537755138200,85,64,84,94,93,27,-59,63
1689140537760134200,45,2,5,-97,-20,-21,20,-31
1689140537761133300,93,17,8,20,55,25,-58,-16
1689140537784119700,-20,-59,-83,-128,-124,-69,-50,-115
1689140537786118900,19,-54,-44,-128,-118,-47,-5,-7
1689140537789116600,30,-16,11,108,71,18,16,12
1689140537791116500,-30,30,18,5,-9,2,8,-44
1689140537792115100,-56,-7,5,-55,8,6,-1,-16
1689140537794114800,-1,0,-88,-80,-86,-33,-37,8
1689140537806108500,-100,41,28,-121,-37,28,107,34
1689140537808106000,-128,-46,82,109,86,15,-78,-53
1689140537813102400,77,-20,-71,-105,-5,2,57,1
1689140537815103900,127,34,-79,-107,-84,-12,23,93
1689140537821098700,-100,-17,72,76,68,32,16,-47
1689140537823099500,-28,45,24,20,45,45,25,65
1689140537836091300,111,-34,-54,-54,-29,-19,1,-30
1689140537838089700,25,5,63,58,56,10,-28,1
1689140537841088800,12,46,46,43,69,54,52,-13
1689140537842086500,-44,14,-82,-81,-105,-68,-42,21
1689140537850083300,-2,31,127,58,78,43,5,16
1689140537851080900,30,-69,-123,-128,-99,-10,-5,-8
1689140537859076500,-27,-35,42,124,80,23,17,7
1689140537860077100,-3,12,-2,-66,-64,-11,-2,13
1689140537881063500,-68,28,-67,21,-90,-51,-18,-6
1689140537883063700,10,31,-88,-66,-72,-44,-16,-34
1689140537885062900,-53,22,84,84,63,36,-7,-39
1689140537886062300,127,-19,-17,-18,-6,24,4,-23
1689140537896055500,-9,-51,-48,-74,-66,-32,-4,31
1689140537898054100,15,3,80,84,74,28,5,6
1689140537900054200,-1,-11,-128,-128,-113,-57,-17,-9
1689140537902052700,71,-60,-73,-83,-88,-27,-34,-15
1689140537909568600,-20,50,92,47,80,77,70,58
1689140537911567600,-39,-42,69,110,52,17,15,-4
1689140537926560500,63,-27,-98,-128,-121,-44,-10,1
1689140537927559600,-128,-20,-47,-70,-53,-16,-27,-35
1689140537932554800,42,24,-35,13,55,-1,-2,-8
1689140537934555200,38,-57,34,-95,-57,-32,-101,-87
1689140537939550800,-64,-13,66,71,92,81,100,38
1689140537941550200,113,45,-10,13,-75,-39,83,75
1689140537956543500,-35,-27,42,20,-11,14,-14,-2
1689140537958543200,-122,-25,-96,-92,-72,-74,-16,15
1689140537959540400,73,53,32,13,-15,17,-54,-40
1689140537960541700,-13,-12,-8,14,53,42,-24,-7
1689140537969534100,18,83,-105,-128,-75,-22,-3,-1
1689140537971533400,-128,40,115,25,30,54,47,0
1689140537978530900,103,-106,-113,-128,-128,-64,-30,-10
1689140537979530800,127,75,-68,37,-9,-25,-2,55
1689140537994521600,89,45,110,127,124,56,32,25
1689140537996520200,-115,-17,-119,-103,-82,-25,-25,-56
1689140538000519400,4,111,-6,-88,-104,-42,-12,6
1689140538002517000,-128,55,127,120,127,98,32,-29
1689140538039495000,54,-52,-128,-128,-128,-88,-55,-19
1689140538042493100,-58,-98,12,57,77,47,51,57
1689140538044492700,120,53,34,16,27,-7,4,43
1689140538046490900,1,-38,-47,17,-1,1,-24,20
1689140538048489800,-111,-51,43,4,19,19,3,-55
1689140538049489200,-35,95,-128,-128,-72,-42,-61,-24
1689140538051488100,65,-128,49,-71,-27,18,87,65
1689140538053486900,-115,42,70,-21,56,-10,-22,-14
1689140538080471400,-78,-3,-55,-90,-14,-23,-14,4
1689140538082471400,22,-21,30,31,14,-8,-50,-53
1689140538084469900,-125,51,-52,53,-19,25,-16,-8
1689140538086469500,30,13,116,50,-12,1,2,-5
1689140538089467300,13,-111,-100,-16,4,14,12,-6
1689140538091465400,115,-11,48,127,116,52,52,47
1689140538094464500,55,0,57,68,-16,-39,-17,18
1689140538096462700,-84,-76,93,57,58,58,20,-32
1689140538098461500,52,21,-73,-51,-94,-45,-32,-21
1689140538101459200,127,35,104,53,79,-5,19,55
1689140538103459400,-127,-5,-128,-75,-38,21,34,-30
1689140538106457400,31,-27,-60,-74,34,29,-47,-30
1689140538113453800,58,127,77,-79,-47,-43,32,74
1689140538115451400,83,60,80,85,71,71,43,29
1689140538119448900,-73,-31,6,-113,-29,-7,-23,-23
1689140538122448300,-53,29,61,-11,-80,-99,-62,-33
1689140538136439100,-77,46,-10,-60,-18,74,31,5
1689140538138440200,-7,27,-106,-62,-82,-12,36,34
1689140538139436600,-95,-5,-3,108,39,-25,-48,-59
1689140538140438000,105,15,-128,-82,7,24,38,88
1689140538160425300,10,-96,-13,15,-53,-54,-9,-38
1689140538161427000,0,53,78,-16,-20,25,-34,-63
1689140538163427500,54,28,-128,-119,-21,12,-10,7
1689140538165422800,-47,-52,-95,-92,-69,-74,-44,-64
1689140538172418600,38,121,127,127,127,127,85,61
1689140538174417600,42,-88,-13,-84,-73,-49,-2,-2
1689140538187409800,121,-50,-80,-67,-52,-26,-19,2
1689140538189410400,92,103,83,-30,17,-17,-13,22
1689140538195405900,-83,-45,-68,34,44,-7,-32,-47
1689140538196406800,-128,79,30,-91,-93,-15,-14,-43
1689140538202400900,-115,61,-24,-64,-3,-17,-85,-92
1689140538203400300,109,-6,-128,-92,-24,-14,-8,-20
1689140538209397500,-44,30,-1,-48,-49,-23,92,97
1689140538210396900,-25,-1,-31,-26,-84,-81,-37,-64
1689140538218391500,55,107,83,47,55,35,43,123
1689140538219391700,-71,97,5,-28,-73,-1,-12,-30
1689140538234384500,98,-18,1,-40,-41,-20,-36,-7
1689140538235384200,-103,53,-33,-33,64,32,-12,-11
1689140538239380100,94,89,49,26,29,-13,-6,-43
1689140538241378700,-128,-128,-13,-13,20,-4,-62,-77
1689140538255370500,80,-31,16,-50,-23,-15,-108,-124
1689140538256371100,112,94,12,16,24,-14,69,127
1689140538262366200,26,44,-89,-69,-78,-35,-110,-56
1689140538263368700,123,4,59,63,38,53,127,83
1689140538286352800,-128,-36,60,107,35,-9,44,95
1689140538287352000,-75,-122,-21,69,83,19,-82,-104
1689140538289351800,16,106,102,127,89,74,28,70
1689140538290350700,-50,-23,-68,-50,-73,-33,-69,-98
1689140538293350000,20,-33,-62,-68,-25,9,-47,-28
1689140538295350500,22,99,-5,19,6,0,-78,15
1689140538299348800,81,-128,-4,-17,-31,-6,127,4
1689140538301348200,-65,47,22,35,-9,21,14,11
1689140538323353800,54,43,-10,1,15,6,-67,47
1689140538325330700,-68,39,-12,-9,-32,-3,97,-43
1689140538326330400,75,28,-91,-105,-66,-72,-18,34
1689140538327332300,-64,-14,4,-64,-2,-13,-83,-66
1689140538338322800,-52,127,54,10,30,-3,33,-7
1689140538340321900,88,62,-6,4,31,44,16,68
1689140538344321600,-15,-49,-18,-16,-56,-53,-61,-66
1689140538346320900,98,-21,-37,-30,-35,2,80,65
1689140538353316300,61,50,28,29,22,17,62,58
1689140538354313600,-6,-21,-12,34,27,25,44,2
1689140538359312800,-128,75,-22,-38,-36,-2,-45,-107
1689140538361309600,-31,-97,40,112,58,27,39,11
1689140538384298900,20,-70,58,17,87,31,74,42
1689140538386296200,9,37,-20,-29,13,13,45,6
1689140538388295200,-31,84,31,14,15,16,32,31
1689140538390297900,-88,-78,-47,-77,-64,-46,-121,-74
1689140538398290100,-13,23,-36,-26,-10,-17,-66,-128
1689140538400287800,108,-46,-94,-96,-64,-25,-49,34
1689140538401288400,12,-6,92,-8,47,39,-11,70
1689140538402287600,22,-20,-35,-25,60,26,-58,-80
1689140538428273700,-78,-69,-37,-64,-50,-77,35,8
1689140538430270600,116,-3,76,45,49,53,62,78
1689140538431271300,-87,-78,-44,-54,1,12,-69,-26
1689140538432268900,25,72,9,1,0,7,1,34
1689140538435267800,-95,-8,3,1,-18,-2,-54,-72
1689140538436267900,-80,33,41,65,11,23,-75,-3
1689140538442263500,9,-72,-83,-78,-52,-79,-26,-72
1689140538443266400,32,36,7,12,18,45,-36,63
1689140538460253300,-81,4,19,11,-22,-18,59,-128
1689140538461275100,-88,73,64,-110,-4,54,-71,69
1689140538463252400,92,-34,8,-5,58,22,127,76
1689140538464254600,-62,81,7,-16,1,-1,6,39
1689140538473245800,43,8,-125,-128,-83,-33,-116,-98
1689140538474248100,0,-19,49,90,48,-31,32,-76
1689140538479244300,58,10,79,13,30,27,55,61
1689140538481242700,-50,-71,-103,-100,-102,0,49,-51
1689140538495233700,-32,-25,106,91,97,77,-15,45
1689140538497232400,74,-60,-25,-50,24,3,-38,-62
1689140538502234200,-128,22,-45,-56,-73,1,-9,-55
1689140538503250800,127,-32,-44,-77,-56,-103,78,127
1689140538518219400,-4,96,45,74,31,39,-64,95
1689140538520220000,-92,-93,-67,-68,-79,-37,-108,-96
1689140538522218000,-96,-60,5,31,69,21,-111,-108
1689140538524218300,36,74,3,-32,-29,13,-11,-54
1689140538539233200,95,-9,-6,24,37,-13,53,127
1689140538541207900,-34,-57,-26,1,-17,-32,41,-56
1689140538543229400,-73,-18,-9,6,-58,-21,-104,73
1689140538546204500,-6,-14,-33,-61,-59,-70,82,-85
1689140538556200000,63,24,-52,58,30,13,-112,77
1689140538557197900,-49,56,-19,-33,22,18,127,63
1689140538562196600,108,-2,27,-16,-76,-74,-80,-13
1689140538564193100,79,43,81,65,127,67,58,2
1689140538578207500,66,-8,-38,-128,-121,-23,-22,-35
1689140538580184000,-39,75,-7,-48,-31,0,28,-39
1689140538582185100,37,-35,-64,-28,-53,-49,-65,-44
1689140538583184400,7,83,76,87,93,29,-128,21
1689140538592177200,-7,-4,41,26,-17,-8,127,4
1689140538594179100,-20,-17,-31,-27,-47,-73,-116,0
1689140538601174400,-55,46,40,29,33,39,127,12
1689140538602171700,26,31,10,33,-13,-3,-85,50
1689140538615164400,-122,38,-22,-7,-9,-42,-56,-87
1689140538617185500,-32,36,46,58,56,59,-21,11
1689140538635175100,10,86,-24,17,6,19,-66,53
1689140538636155400,51,-41,0,20,56,44,124,-54
1689140538639151400,19,-93,-92,-128,-75,-38,-83,60
1689140538641151800,-60,-37,-52,-11,14,-6,-1,-27
1689140538643151000,66,51,18,-26,-11,-7,-77,-38
1689140538644169400,-80,17,27,85,41,-36,-55,-36
1689140538652142100,-74,-47,116,83,20,3,112,-6
1689140538654142100,86,-74,-21,-22,-17,4,45,19
1689140538661139500,-69,-126,-31,-71,-33,-71,-40,-31
1689140538663138400,-108,-9,-24,-94,-79,1,69,-12
1689140538675151600,-31,106,-86,-102,-29,14,-55,-49
1689140538677131600,5,41,78,74,52,47,-20,-25
1689140538682127200,-100,45,69,48,29,-9,117,100
1689140538684125000,42,83,-5,-28,6,12,-124,-41
1689140538698119000,0,115,-23,-45,-11,0,50,57
1689140538700117000,85,-95,-13,-46,-23,-15,-46,-15
1689140538702116600,1,116,19,10,29,29,21,-10
1689140538704115800,-13,40,1,66,27,30,-22,45
1689140538712108200,-56,-111,-65,-106,-14,-21,42,-49
1689140538714108800,105,10,46,75,79,22,-11,95
1689140538729099500,-12,-33,-96,-118,-79,-13,44,-35
1689140538731098400,-13,-31,53,22,17,-14,29,78
1689140538735096900,113,48,95,127,127,76,-21,52
1689140538737095100,30,-120,-43,-38,-53,-32,-64,-96
1689140538742091200,83,60,13,-28,63,36,76,54
1689140538744091300,-112,-86,-52,-79,-52,-14,-51,-36
1689140538758081700,-33,20,-36,-26,-41,-16,-30,-49
1689140538760082900,-13,89,5,-10,-17,0,37,35
1689140538762081900,32,-76,28,48,37,36,-18,-5
1689140538764081000,-21,-14,-34,-29,-44,-18,-7,-21
1689140538772074400,10,11,24,23,0,4,-6,-4
1689140538774074300,-98,-48,-34,-35,-39,-41,-3,-5
1689140538781071400,22,-3,-68,-48,-8,9,-15,-15
1689140538783069700,-31,-14,51,-21,3,7,24,17
1689140538804056400,17,16,80,81,91,38,12,-8
1689140538806056800,38,-11,-24,-81,-23,-16,-3,45
1689140538808053500,11,11,10,-26,-3,-11,-13,-26
1689140538810053000,20,25,-38,-14,-6,19,28,25
1689140538819047900,-11,-26,8,8,-37,-17,-31,-16
1689140538820049500,-69,33,-91,-81,-51,-37,-19,-27
1689140538821048100,-19,-76,50,89,67,59,33,30
1689140538823046300,20,-28,7,-87,-65,-46,-5,11
1689140538832040300,-41,-23,-17,19,16,13,-21,-26
1689140538834039300,-15,27,-18,-38,47,8,1,-6
1689140538841035300,-13,16,42,-23,-56,-44,12,8
1689140538843035400,25,-32,-94,27,7,33,-5,-1
1689140538856027200,-19,10,87,18,13,26,3,-18
1689140538858025200,-29,-83,-74,-94,-76,-54,0,3
1689140538862022900,28,21,-38,50,80,46,-4,5
1689140538864022800,-65,-31,26,-89,-24,-40,-15,-24
1689140538879013800,45,-78,57,30,11,26,23,29
1689140538881014500,16,98,3,-31,-54,-16,-3,3
1689140538883011800,-57,32,102,39,36,0,-16,-44
1689140538884011200,-3,-81,-69,24,23,7,-3,23
1689140538926985600,6,-97,-58,-56,-44,-25,1,10
1689140538928985500,-2,115,39,38,78,56,-8,-27
1689140538930983900,34,10,-70,27,2,13,30,10
1689140538932983000,-8,32,127,-17,-18,-32,-16,29
1689140538934981800,-38,61,-46,-25,-17,-6,-7,-53
1689140538935981100,-15,16,-30,-11,-31,-26,-13,62
1689140538937979500,-26,-104,-52,-9,-4,-6,-15,-31
1689140538939978900,35,88,-1,29,2,14,4,18
1689140538963964800,-25,6,-70,-21,4,3,-16,-80
1689140538965963700,16,-57,68,-3,-43,-28,5,75
1689140538967962500,-3,33,6,13,19,14,-1,5
1689140538969961800,48,-50,-77,-8,-63,-26,5,70
1689140538970961200,-43,-2,55,26,66,14,4,-26
1689140538972960100,-41,-104,-2,10,-24,-19,2,-74
1689140538974958900,31,116,100,15,7,-2,25,59
1689140538976957700,15,7,6,69,100,81,20,37
1689140538978956500,-4,9,-62,-55,-55,-30,-9,4
1689140538980955300,26,31,10,53,22,29,21,9
1689140538982955800,-36,1,-15,-22,-17,-4,-6,-50
1689140538984953000,-9,35,-58,24,36,-2,5,10
1689140538998946100,-2,37,-43,-26,-3,7,3,14
1689140539000943300,2,27,94,34,35,21,-9,-20
1689140539002942400,-4,3,-25,-18,-6,-8,-7,-11
1689140539004940700,21,39,42,-3,-13,-7,9,-28
1689140539012202200,7,-47,-10,-3,11,35,-12,-6
1689140539014201000,-13,35,-36,-5,-31,-16,0,-19
1689140539021197400,-16,-22,2,-14,-16,-1,3,11
1689140539023196600,-35,-1,28,6,-16,-18,-19,-69
1689140539035188900,3,32,-28,-9,15,-10,5,-7
1689140539037189100,80,47,9,8,-21,-14,4,113
1689140539045183700,-53,-68,-12,5,34,66,9,-95
1689140539048182400,13,-10,-6,-10,-24,-11,-7,25
1689140539058176700,-31,-21,-5,-29,-56,-37,-11,35
1689140539060174700,-14,-14,-7,14,29,32,31,-35
1689140539061175000,15,-14,-25,-3,-11,-23,-7,19
1689140539062174300,11,6,-3,1,9,-10,-9,-20
1689140539073168300,2,52,35,-5,-10,-4,6,-31
1689140539074167300,-82,-55,-13,9,-14,-15,-32,-91
1689140539081162100,92,50,18,6,6,6,1,48
1689140539082162700,-9,-37,-2,0,0,16,33,16
1689140539095155200,-12,76,-25,-9,-5,-6,-10,25
1689140539097155600,20,-50,46,11,-7,-2,2,-50
1689140539102150100,-4,-27,-36,-15,-18,-25,-42,-47
1689140539103152400,-89,31,46,33,36,42,21,24
1689140539118142000,87,-4,-38,-39,-54,-95,-14,63
1689140539120143000,-54,59,-8,19,45,73,28,-15
1689140539125138800,-10,74,30,1,-15,-10,-23,103
1689140539126137900,-86,-47,-20,-5,3,14,2,-103
1689140539132411000,76,-17,8,10,7,21,58,76
1689140539133416500,28,-23,-63,-19,-13,-34,-17,13
1689140539141373600,9,7,26,7,-2,0,-50,-45
1689140539142374300,-17,93,43,-12,-22,-18,5,57
1689140539155365300,-128,-64,56,14,11,2,-67,-119
1689140539157364300,127,8,-33,4,21,44,84,37
1689140539162361700,86,-11,-4,52,36,-4,42,66
1689140539163359600,-21,-73,-70,-7,-16,-34,2,-95
1689140539178148500,-62,41,-1,-47,4,39,-60,-40
1689140539179148600,0,15,-17,-81,-72,-60,69,32
1689140539185145800,-104,25,-9,-59,6,-20,-83,-57
1689140539186144400,86,-9,69,104,77,61,-34,-10
1689140539192410700,-94,-24,19,8,-54,-41,-68,-60
1689140539193415000,70,20,40,99,86,59,25,41
1689140539208405500,-38,-23,-21,-45,-29,-4,50,55
1689140539209405300,83,32,-14,-40,-45,-53,-27,2
1689140539215401200,-9,-74,-80,-105,-53,-17,74,22
1689140539216404200,77,47,20,-64,-39,22,-58,18
1689140539222397600,-49,-83,-27,-53,-19,-19,-50,-91
1689140539223397900,-61,23,-14,-47,-28,13,41,8
1689140539238388100,127,47,87,106,84,54,24,86
1689140539239388600,-128,-25,16,83,79,-51,48,-64
1689140539244384400,92,106,22,-13,-4,33,-31,119
1689140539245385700,-89,-69,-79,-124,-88,-55,37,-97
1689140539261376100,-75,20,-20,-67,-41,-6,-3,-37
1689140539262376100,-46,30,-43,-34,-17,-13,-61,-23
1689140539264374300,-31,15,-78,-112,-98,-36,-14,-123
1689140539264374300,83,86,91,75,96,77,86,84
1689140539275404400,4,14,-56,-93,-113,14,25,111
1689140539277405500,-62,-83,-32,-40,-43,-65,-11,-2
1689140539282111900,-128,-1,-16,-84,-51,-18,-57,-38
1689140539283098700,127,-84,-90,-78,-59,-22,-63,12
1689140539298134000,-100,-2,-22,-55,-17,-32,-29,-103
1689140539299153800,-82,-34,-29,-1,-47,7,-26,-5
1689140539304538000,90,-31,59,88,54,33,73,64
1689140539306481500,-59,21,44,39,56,1,12,30
1689140539321338200,17,43,19,-8,21,38,-10,-47
1689140539323337100,32,-82,-76,-127,-84,-68,-27,-1
1689140539325358000,-85,-24,-28,-26,-3,-2,102,3
1689140539325358000,15,-20,-11,-128,-100,-20,-128,-45
1689140539335282900,-19,-5,17,79,74,-46,94,30
1689140539338267800,84,51,39,-62,43,95,69,101
1689140539350260600,-100,6,44,116,67,-9,-62,-20
1689140539351278300,87,20,-24,-47,-28,-23,-61,9
1689140539358252100,-94,-7,-12,-22,-8,16,86,54
1689140539359273900,51,-13,15,23,-14,-6,-34,6
1689140539364247900,37,38,-13,-11,-4,4,45,45
1689140539365270100,-29,-11,35,91,55,12,19,41
1689140539381239100,-29,25,8,-61,-27,-28,-88,23
1689140539382260900,-23,20,33,45,67,73,20,6
1689140539385236900,-90,22,-50,-128,-88,-62,-13,-95
1689140539386237100,70,27,29,47,13,-12,-55,-70
1689140539396230100,-44,-3,36,95,79,82,99,56
1689140539397230400,-15,3,-28,-101,-42,-30,-59,-23
1689140539407276200,-26,49,61,-6,12,20,-78,-74
1689140539408225200,-89,-43,-89,-128,-90,-67,-98,-94
1689140539418218200,127,4,10,-40,5,-15,26,84
1689140539419219400,-24,30,8,-18,10,12,-42,3
1689140539424229200,-41,-51,-19,28,-9,-9,-19,28
1689140539426214100,-66,68,32,-12,6,9,25,10
1689140539448467200,116,2,-24,-6,9,-4,-9,-41
1689140539450463900,-77,-71,-72,-73,-81,-57,-110,-73
1689140539451466200,79,48,37,12,7,48,127,118
1689140539452462900,-77,-62,-63,-93,-39,-24,81,-15
1689140539454462300,-60,26,59,70,62,-9,32,-66
1689140539456463400,99,45,35,-40,52,70,44,24
1689140539463705200,-47,-58,31,14,3,-20,-24,-46
1689140539465704300,-67,40,-10,-8,-7,23,-33,62
1689140539477696400,-27,-63,-79,-128,-128,-89,-96,-67
1689140539479697100,25,71,102,96,116,80,-19,38
1689140539484693000,-57,-29,-43,-111,-57,-64,11,9
1689140539486691800,127,61,13,-61,41,44,79,43
1689140539501684200,-73,41,-6,-10,-44,3,-77,-12
1689140539503684500,32,-43,-39,-25,-23,-8,112,-9
1689140539505681200,44,10,-16,22,10,12,-84,-16
1689140539506681800,87,10,-18,-58,0,-18,21,26
1689140539523671300,74,2,33,54,88,50,47,39
1689140539524670100,-111,86,-13,-108,-58,-9,-56,-41
1689140539526668000,103,-84,58,127,65,7,47,29
1689140539527669800,-120,-25,12,25,16,6,45,-47
1689140539538662500,84,-84,-34,-105,-22,-9,-24,13
1689140539540662700,-103,7,14,56,-25,-32,-29,-4
1689140539544657500,-45,50,-45,-92,5,30,-38,-75
1689140539546656000,-22,-64,-17,6,-1,-53,-62,-44
1689140539560651800,-5,54,4,-3,7,15,53,-8
1689140539561650200,-73,-87,40,79,48,25,57,14
1689140539563647500,-53,-4,-30,-105,-31,-27,-7,16
1689140539564647000,-51,40,45,123,36,34,28,16
1689140539582635100,14,4,26,63,46,21,-57,-36
1689140539584635200,-78,57,8,-18,-4,-38,-49,-19
1689140539585634200,92,-22,-51,-66,-10,-9,-16,-29
1689140539585634200,96,-4,-1,-62,-8,39,-3,54
1689140539598627700,59,-33,45,-32,-55,12,-3,-12
1689140539599627000,47,35,-36,-45,-10,-61,-5,46
1689140539604623300,-13,26,-53,-70,-64,-13,102,50
1689140539605625500,-26,9,78,0,68,32,9,-12
1689140539620614400,-122,-6,-49,-113,-13,26,-14,11
1689140539622613700,50,-18,17,-37,-64,-20,28,-24
1689140539623613800,14,97,-53,-95,-43,21,34,33
1689140539625612200,28,-77,-18,35,-51,-39,-16,28
1689140539642601100,35,46,10,26,-10,-6,6,24
1689140539644601400,-99,30,-19,-73,8,-1,-9,-31
1689140539646599100,120,15,43,56,42,15,-6,36
1689140539647598700,-119,21,5,-35,3,22,18,-24
1689140539666588100,-12,-32,-42,24,3,-18,-60,30
1689140539668588700,-23,9,35,66,-17,-2,28,-15
1689140539669587700,-14,-60,16,8,25,29,8,7
1689140539671587000,-9,39,-58,-95,-88,-46,-39,-21
1689140539692574400,65,37,6,51,61,10,4,23
1689140539694572700,-58,-47,11,42,7,10,-36,-59
1689140539696571500,78,19,-47,-32,-60,-11,28,73
1689140539697570500,-128,-71,29,-74,-36,-2,-37,-90
1689140539728553200,-34,111,-102,-128,-128,-45,35,67
1689140539730552000,119,-32,-16,17,64,52,96,59
1689140539732551800,-2,-37,23,-46,28,23,10,-25
1689140539734551000,-24,39,-128,-128,-128,-63,-37,16
1689140539735549600,-22,26,108,109,55,-2,-36,-40
1689140539737548300,-80,-35,78,-98,-69,-21,-63,-85
1689140539739546300,15,13,-100,-100,-51,-19,1,73
1689140539741545700,65,-26,113,127,127,79,49,-17
1689140539743544300,19,-45,-24,7,15,19,4,-4
1689140539745545100,-98,114,-41,-113,-98,-42,-13,18
1689140539747542800,70,-89,121,127,127,25,-36,-75
1689140539749541900,6,73,-40,-69,-18,-11,8,75
1689140539765532000,-10,16,-13,-87,-47,-8,-10,-60
1689140539768531100,63,-29,-68,-54,-21,-22,-20,31
1689140539769529500,-119,32,-94,-112,-56,1,9,34
1689140539771527600,-79,-1,105,126,66,5,5,-4
1689140539778523500,-10,-100,18,-102,-62,-37,-33,-65
1689140539780522500,44,25,-101,-36,56,33,10,5
1689140539784520400,-128,5,85,-42,-29,5,-21,-16
1689140539786519100,22,84,-14,58,77,63,64,68
1689140539800513500,-14,-43,-128,-128,-64,-57,-38,24
1689140539802510800,64,43,121,123,78,65,47,71
1689140539803509700,-125,-50,-75,-52,-74,-93,-67,-105
1689140539805508200,52,64,7,33,33,4,29,44
1689140539823498400,2,46,93,127,127,92,7,-12
1689140539824497700,-15,28,-82,-57,-63,-42,9,65
1689140539826496700,-35,32,86,113,127,72,22,13
1689140539827497200,99,-30,-123,-128,-61,-56,-32,1
1689140539838489200,-121,0,-68,-104,-87,-53,-14,-48
1689140539840488300,3,2,-2,-128,-15,-32,-25,-47
1689140539844487100,19,82,-71,-17,-55,12,27,33
1689140539846484300,-59,-19,104,59,32,55,5,-10
1689140539867472500,-70,22,-6,-20,109,44,16,2
1689140539869472200,-83,-83,-109,-128,-124,-69,-34,-40
1689140539870471500,51,10,15,3,10,-16,-14,-4
1689140539870471500,21,31,-29,-128,-56,-25,-15,-5
1689140539882465200,-16,23,-125,-121,-112,-50,-21,-33
1689140539884465000,0,25,99,103,74,80,19,-1
1689140539885463800,-42,-68,-87,-105,-95,-42,-20,-44
1689140539886462100,-5,25,-89,-74,-7,41,30,87
1689140539899456300,121,6,44,49,84,6,20,-4
1689140539901454500,127,-44,-71,-64,-75,-113,-77,-67
1689140539905451600,-12,48,74,26,83,82,12,-26
1689140539907451700,-26,-63,-89,-50,-18,27,30,17
1689140539920443200,-46,-7,100,30,21,-30,-20,-2
1689140539922445100,-24,-26,56,-15,2,45,23,18
1689140539927439900,52,4,60,25,9,18,15,27
1689140539929437800,-71,-78,-36,-52,-38,-47,-60,-101
1689140539942430000,115,-45,-34,-38,-64,-8,6,20
1689140539944429200,24,98,20,79,81,11,1,-5
1689140539946428600,-49,55,24,4,18,7,16,46
1689140539948428300,59,-93,-48,-120,-126,-110,-64,-89
1689140539958422400,76,77,-60,2,34,42,34,38
1689140539959421400,-83,-58,13,5,-7,41,35,53
1689140539964416800,127,76,-128,-95,-71,-31,-17,7
1689140539966417500,-92,-49,72,85,35,14,0,1
1689140539980408300,-60,5,-123,-65,-90,-55,-5,17
1689140539987403800,-63,-76,25,-124,-71,-40,-16,-48
1689140539988405700,113,46,5,-68,106,99,28,32
1689140539990404000,-50,-53,-70,-81,-103,-89,-38,-31
1689140540002395900,-87,-29,48,83,88,30,1,3
1689140540004395000,-51,12,-112,-70,-81,-33,-7,5
1689140540005394400,-41,-66,127,127,111,46,2,-24
1689140540006393600,100,106,-22,11,56,35,24,33
1689140540018387600,-76,-26,-30,-51,-81,-15,3,-21
1689140540019386300,99,-33,19,-20,59,-10,-30,-30
1689140540024384500,-52,24,-25,-3,-37,-21,4,-4
1689140540025382400,116,-24,-72,-71,7,-11,-10,21
1689140540040373700,22,79,127,127,112,51,19,10
1689140540042373100,66,97,-128,-76,-34,-47,-5,18
1689140540044371900,13,3,70,88,13,-27,-3,-5
1689140540046370400,-96,29,-36,-39,30,26,18,-12
1689140540063360300,-52,-24,65,-87,-83,-12,-7,-21
1689140540064360100,-9,-1,87,57,2,25,8,13
1689140540066359300,121,-6,-29,-46,-2,1,1,18
1689140540068357700,87,127,-26,6,14,40,15,4
1689140540078353000,-27,38,6,-93,-41,-1,5,-11
1689140540080353000,117,21,69,-3,57,22,0,4
1689140540085349800,1,-53,-70,79,69,23,30,17
1689140540087347000,-79,34,127,43,-6,26,44,31
1689140540099340800,127,-30,-127,-23,33,23,-21,-16
1689140540101339300,-119,-57,-83,-73,-73,-48,-10,-14
1689140540107335400,-26,-57,-29,-110,-128,-38,-4,-6
1689140540109334600,-35,-26,-45,-58,52,-6,-20,-7
1689140540123325800,71,48,104,89,18,-20,8,21
1689140540125326400,-39,-44,-17,71,127,91,19,7
1689140540126324700,-6,-73,-107,-128,-128,-112,-15,-4
1689140540127324100,14,29,80,65,83,71,8,-6
1689140540138318200,-60,-24,44,-59,-57,-27,12,19
1689140540140317800,17,-33,37,52,30,-5,-16,-12
1689140540144314200,0,45,75,42,5,38,-7,-16
1689140540145313400,85,53,-47,-77,-114,-24,12,30
1689140540161304400,5,-107,-105,-128,-79,25,-33,-8
1689140540162305000,57,127,-90,-3,33,-14,33,30
1689140540167301000,-64,34,95,0,115,93,17,-14
1689140540168302500,-14,13,42,-4,-85,-54,-2,-6
1689140540183293200,4,-56,-55,16,-42,-52,-18,-14
1689140540185291000,1,-5,-61,-75,-55,-25,5,3
1689140540186290100,-11,13,-40,-56,-47,-16,-4,5
1689140540187289000,-4,-22,-61,-16,-72,-100,-43,-32
1689140540198284300,-11,-10,-60,-51,0,-3,9,5
1689140540200283500,-16,-5,97,37,-9,10,-5,-4
1689140540204279600,-5,-38,-29,-44,-41,-50,-14,-7
1689140540206279700,-14,-13,-42,-93,-68,-62,-7,-5
1689140540220271500,8,18,-7,17,35,25,10,1
1689140540221270900,14,92,100,39,55,45,7,6
1689140540227268500,-9,-15,-122,-8,-4,-3,-19,-12
1689140540229267900,8,2,79,114,48,14,4,0
1689140540243257800,10,-7,86,62,68,56,28,24
1689140540244257500,7,-14,7,-12,-47,-13,-10,-7
1689140540245257100,-16,21,6,20,-31,-46,-7,-3
1689140540246256200,-23,-24,-20,7,33,37,8,-3
1689140540260247800,-3,46,-56,-10,-19,-17,-15,-4
1689140540261247700,-2,-42,-80,2,-17,-15,-2,0
1689140540264247100,-24,-32,10,-42,-40,-24,-14,-14
1689140540265246200,5,-1,27,31,28,26,2,2
1689140540279593200,16,12,48,-2,10,-5,4,7
1689140540280598000,1,-26,-34,1,-1,0,-5,-3
1689140540287593400,-8,10,5,26,21,4,-1,-1
1689140540288593000,3,-20,-38,-19,6,13,2,-4
1689140540302515600,-10,21,20,-6,-18,-25,-9,-8
1689140540304515300,-6,19,16,17,9,18,0,-9
1689140540305514500,-17,3,3,7,1,-2,-7,-2
1689140540306514700,19,-3,43,10,2,9,2,7
1689140540318637000,10,-7,-18,-6,-5,-8,-4,8
1689140540319641700,-4,5,-2,7,30,43,9,-16
1689140540324635800,33,21,0,8,-1,-6,-18,37
1689140540325638500,-9,19,13,3,22,14,11,1
1689140540339928200,13,3,-8,-5,8,1,-5,-24
1689140540340930200,-28,-25,4,-5,-11,-2,7,-28
1689140540346946600,55,2,11,0,-11,-9,17,47
1689140540348928400,-51,-8,16,10,17,17,7,-8
1689140540362915000,86,19,-14,-15,-13,-5,2,5
1689140540364914900,-65,1,18,11,1,-11,13,49
1689140540366912800,-45,-2,-6,2,4,0,-22,-47
1689140540367912800,48,-7,4,3,4,13,-9,-6
1689140540378906500,-48,-8,-2,2,8,5,8,19
1689140540379905900,37,-5,-13,-10,-8,-1,2,19
1689140540384902500,-23,-5,7,8,9,1,16,-16
1689140540385902300,24,5,0,-7,-5,1,-7,16
1689140540399689400,-27,-12,0,-2,3,0,5,-23
1689140540401711700,-4,2,0,-2,-10,-3,-14,-26
1689140540407545200,-8,-3,0,3,5,2,2,1
1689140540409543000,1,2,15,2,0,-6,-5,-29
1689140540423047700,-70,1,-11,-3,4,10,13,-77
1689140540425066200,90,10,-2,0,0,1,18,115
1689140540426065100,-9,-4,6,5,5,1,0,-22
1689140540427064200,26,-6,-6,-7,-3,-3,-2,4
1689140540438467500,-58,-1,-3,-1,1,-1,-15,-88
1689140540441451400,-48,-8,-5,-6,-8,-4,6,-17
1689140540444470400,7,-4,1,-1,-4,-4,-23,23
1689140540445450900,4,2,4,3,4,6,1,-21
1689140540459639000,19,0,-2,-2,-3,3,-14,23
1689140540461469000,21,5,5,4,2,2,-2,-41
1689140540467473700,-25,-4,-6,-6,-8,-9,-12,-54
1689140540468466700,-13,-2,0,-2,-1,-2,12,23
1689140540483575600,20,0,0,2,4,2,-4,42
1689140540484596400,-5,-5,-5,-8,-8,-8,-13,-69
1689140540485577100,14,3,3,1,3,1,13,70
1689140540487576000,-2,-5,0,-1,2,2,-3,7
1689140540505564600,13,-1,0,0,0,-1,3,3
1689140540507562600,15,-1,-3,-2,-1,1,-8,45
1689140540508564600,-43,-6,-2,-3,-4,0,-7,-64
1689140540509570900,1,-2,-1,-7,-6,-1,-8,-10
1689140540521556400,10,4,2,4,1,-2,19,42
1689140540522553600,-2,-5,-4,-6,0,8,13,7
1689140540527550300,-1,-3,1,6,6,-2,11,-36
1689140540528553200,-2,0,0,0,5,6,-10,15
1689140540542563900,9,2,0,-4,0,1,9,6
1689140540544562800,-19,-12,-12,0,-2,-1,-7,26
1689140540545542800,28,7,4,0,-4,-2,9,13
1689140540546561000,-26,-2,0,1,-2,-3,1,-36
1689140540558533400,5,-2,-1,1,0,-2,-1,15
1689140540559536300,-16,1,2,-6,-7,-4,-13,-31
1689140540564590000,12,1,-2,-1,1,4,7,41
1689140540566552000,-17,-5,-4,-2,-3,-4,4,-13
1689140540579639000,5,-3,-1,-1,2,1,-4,32
1689140540581642700,17,2,2,1,0,-3,-4,64
1689140540587544300,30,-8,1,1,-1,1,2,-33
1689140540589542500,4,27,5,-3,-1,0,1,19
1689140540603497500,-2,-6,-4,-2,-3,-1,0,-7
1689140540604495400,-2,-2,2,2,3,0,-2,-1
1689140540605497900,-17,-1,-1,-3,1,-4,-5,-27
1689140540606495700,9,-11,-1,-1,3,2,-2,41
1689140540626689900,12,-1,-2,-2,-5,-2,-5,15
1689140540628690500,-7,1,-1,2,-1,-2,0,-37
1689140540630687200,7,7,3,3,2,2,4,39
1689140540631686800,-22,-6,-2,4,2,1,-5,-34
1689140540639684300,-24,1,0,-4,-3,-3,0,0
1689140540641685300,8,-4,-1,-1,1,3,-3,-18
1689140540647676800,-7,0,-2,-4,-1,-3,-1,3
1689140540648694400,11,-2,-1,-1,-4,-1,3,16
1689140540670665600,-4,-2,0,3,4,2,0,3
1689140540671663800,-15,2,2,0,-5,-4,-3,-14
1689140540672663100,2,3,0,1,2,2,-3,-24
1689140540673662700,-13,-8,-2,-1,-1,-3,0,-2
1689140540678659300,4,3,1,0,-1,0,-5,-9
1689140540679662400,2,0,0,1,1,-1,0,-17
1689140540684655400,-4,-1,-1,-1,-6,-1,-2,2
1689140540685677300,-2,1,-1,-1,0,-1,0,-3
1689140540703645900,8,-4,-23,-70,-35,-12,-4,0
1689140540704647200,6,-3,-4,-48,-31,-3,-2,0
1689140540707645000,-2,-2,5,19,27,5,0,6
1689140540708647800,-8,3,10,19,29,9,2,-3
1689140540723096200,14,3,8,-1,11,7,5,13
1689140540725096600,-8,-10,-41,-77,-67,-22,-12,-15
1689140540726095300,-12,-3,9,-2,31,8,-1,-5
1689140540727094400,-1,1,1,40,-42,-6,-2,-4
1689140540738554800,12,-2,42,91,103,35,10,6
1689140540739556000,1,-15,-36,-33,-2,-2,3,0
1689140540744576300,-14,-6,-29,-88,-99,-23,-12,-10
1689140540746532900,18,-6,15,65,91,37,11,15
1689140540759431700,-2,5,-2,-80,-45,-13,-7,-4
1689140540760409800,-3,50,64,-27,-6,4,0,-5
1689140540784723600,2,-13,-60,-60,-38,-20,-9,0
1689140540786718600,-13,-2,-13,-116,-57,-17,-7,-8
1689140540787717400,-14,-15,-18,60,-14,5,1,-7
1689140540788720200,3,0,-6,22,56,6,-4,-10
1689140540790718800,-7,-13,28,39,3,7,6,1
1689140540791716100,11,-1,-33,-1,33,6,12,26
1689140540806709000,-3,11,32,5,-10,-8,-5,-9
1689140540808709700,21,5,15,15,-17,-10,-6,-1
1689140540809708000,-36,12,-5,-8,-4,-3,-8,-13
1689140540810707400,12,-5,-8,20,16,6,3,-2
1689140540819698600,1,-25,-6,12,-1,1,6,14
1689140540820702000,12,-2,-6,-7,-4,2,-2,-4
1689140540826694500,-35,10,13,28,25,7,2,0
1689140540828709500,-1,-4,-9,-46,-39,-11,-3,-17
1689140540850357300,5,25,28,27,42,8,3,-4
1689140540852383700,19,-2,-8,37,12,-2,-3,3
1689140540853382000,2,5,11,13,12,11,9,18
1689140540853382000,0,-11,-54,-43,-31,-15,-6,-5
1689140540858511900,-14,19,71,-24,-22,-10,-9,-15
1689140540860512600,-5,-16,-11,19,5,2,2,4
1689140540864509800,-23,-10,2,-3,5,-5,14,-2
1689140540865512100,15,11,-1,-4,-15,-3,-45,-9
1689140540879624500,18,12,-30,-12,-16,-5,17,28
1689140540881648100,10,-10,-12,15,13,5,-20,32
1689140540887490900,57,17,38,5,-6,-4,-13,-44
1689140540888496800,-29,-36,-32,-11,-10,-9,3,-2
1689140540902781600,-50,-7,-24,-10,-10,-10,-8,-12
1689140540904780000,-5,-18,14,-15,-3,5,9,-11
1689140540905779200,-8,-20,-89,-59,-37,-20,-10,23
1689140540906778500,46,68,102,88,70,22,23,22
1689140540918771900,-15,26,38,32,15,-1,-11,-28
1689140540919794300,8,14,10,3,-2,-1,25,4
1689140540924770500,21,-6,-49,-47,0,-4,-14,1
1689140540925790000,-55,-28,-13,-60,-53,-26,-7,-24
1689140540939760000,-31,-27,36,60,11,17,4,9
1689140540940765300,13,-13,-32,23,56,11,9,-24
1689140540946757300,-23,48,10,-31,-3,2,9,9
1689140540948774100,25,-51,-31,-38,-30,-11,-8,0
1689140540963748100,-40,20,-65,-27,-28,-11,1,-8
1689140540964746300,-17,-52,26,-32,-30,-12,-18,-15
1689140540965744800,6,17,7,30,-4,2,-14,-10
1689140540967746300,-44,46,22,19,19,16,19,18
1689140540978737000,58,-77,-42,-28,-12,-10,-11,-14
1689140540980735400,16,26,-8,-21,-10,-7,-9,1
1689140540984734100,18,40,38,35,33,12,12,9
1689140540985733100,-6,-1,-2,-43,-41,-18,-10,-11
1689140540999724900,-35,4,43,59,31,8,-1,-5
1689140541000728600,-27,14,-32,-54,-11,-11,-2,-4
1689140541007721100,43,-65,32,123,57,24,13,22
1689140541008721200,20,10,-9,-40,-15,-12,-10,-11
1689140541022410800,-12,24,-65,-88,-48,-11,3,10
1689140541024415300,-9,-19,57,108,-3,17,12,7
1689140541029572900,-46,-4,-12,-69,-27,-8,-4,-16
1689140541031542800,53,23,16,-26,-13,-1,4,-10
1689140541038812400,20,-46,-7,-43,-3,-2,-14,-10
1689140541039811500,24,19,-30,-16,-46,-19,-14,1
1689140541044807900,-9,-32,19,-12,-11,-4,-3,-4
1689140541045805800,46,13,5,57,16,5,7,18
1689140541059796500,28,6,-31,-35,9,2,-1,4
1689140541061799100,39,53,31,46,35,20,10,7
1689140541066793700,-31,10,5,-4,-1,-1,-1,-4
1689140541068791300,5,-22,4,23,34,7,0,5
1689140541083782900,-30,-56,-20,-19,-46,-23,-7,-11
1689140541084782400,-16,20,-13,-21,-4,-4,0,4
1689140541089778900,10,14,-7,-44,-6,2,-4,2
1689140541091778300,-41,13,11,-51,-57,-18,-5,-11
1689140541098774400,43,26,17,32,71,25,14,22
1689140541100794700,-2,-4,-3,-17,-14,-3,-2,-4
1689140541112773600,-19,-11,25,57,22,5,4,-1
1689140541114768300,6,-4,-16,-27,8,-1,0,-2
1689140541119761900,-3,2,-22,-62,-3,-9,-3,3
1689140541120761800,-63,-41,13,67,-7,-4,-7,-17
1689140541127505800,85,39,-17,24,35,9,6,17
1689140541128522900,-56,-82,12,25,28,21,0,-6
1689140541142111600,39,58,20,29,-11,-32,1,6
1689140541143124500,-76,-35,-26,-54,4,14,0,-6
1689140541157772200,54,-59,-36,-32,-46,-7,-2,6
1689140541159777500,-1,65,7,20,10,5,3,-1
1689140541165331400,23,1,-1,32,-11,-5,-4,0
1689140541167340200,-22,28,3,-67,6,0,2,1
1689140541168350300,-37,-19,24,67,16,18,8,2
1689140541169333900,-32,-6,-17,-21,-44,-14,-9,-13
1689140541179613300,-16,11,-9,-107,-55,1,1,4
1689140541181631100,51,16,7,-60,-34,-6,1,11
1689140541187615300,-51,-1,10,1,13,0,-4,-12
1689140541188613100,-3,6,-17,30,-12,-3,2,6
1689140541202614900,-22,17,-19,-44,-5,2,-8,-10
1689140541203614100,34,-1,22,-5,-9,-9,6,5
1689140541209598600,-39,26,16,-12,-38,-24,-14,-20
1689140541210601700,96,27,-7,-6,44,5,11,19
1689140541225590100,-20,-71,-38,-29,-34,-9,-2,2
1689140541226590600,27,-9,-11,-26,-16,6,-2,-6
1689140541227599100,17,8,-52,-56,-18,-9,-2,-5
1689140541228606000,18,36,7,32,63,26,14,11
1689140541239581400,-6,28,6,63,63,16,-6,-2
1689140541240603700,-40,2,52,7,-3,6,7,0
1689140541249575900,13,-10,70,93,21,34,9,10
1689140541250598400,-52,-23,5,-6,-24,-10,-8,-17
1689140541262411400,82,35,-37,-101,-25,3,0,11
1689140541264415300,-107,-68,-97,26,-42,-7,-20,-21
1689140541269676300,36,25,-8,-17,-6,-17,-5,1
1689140541271702400,-23,-31,49,61,44,39,12,5
1689140541285165400,0,6,50,127,58,14,1,-8
1689140541287191700,13,12,27,-53,-83,-40,-10,-16
1689140541288169600,56,2,34,-8,30,5,12,27
1689140541289189600,-47,-41,-44,-25,-30,-5,-8,-12
1689140541300264800,21,-32,-23,-109,-119,-44,-11,-12
1689140541301282300,60,26,17,86,54,25,-1,1
1689140541307264900,-27,-34,-72,-128,-100,-41,-16,-8
1689140541309256800,10,1,88,104,91,56,18,13
1689140541322338200,0,0,-11,-6,-6,5,-3,-1
1689140541324337500,-19,-42,-41,-53,-34,-52,-13,-9
1689140541330337400,17,2,50,-13,-17,-29,2,-2
1689140541331348500,15,51,-89,-128,-108,-48,-22,-12
1689140541345323700,60,43,59,73,17,17,9,8
1689140541346321500,-30,-61,-9,29,87,27,2,3
1689140541348320300,13,-23,-91,-53,-78,-28,-15,-4
1689140541349319400,-31,41,41,45,46,-38,-3,-10
1689140541361312700,19,5,55,27,63,28,17,14
1689140541362313600,19,59,-49,-51,15,27,4,0
1689140541367308600,31,7,65,71,40,54,12,10
1689140541368308900,97,-43,-29,-64,-31,-14,-4,10
1689140541382301600,-79,-30,64,60,55,72,15,-1
1689140541384299500,48,-2,-35,-54,39,-26,0,5
1689140541390296500,-118,68,-101,-54,-42,-28,-14,-29
1689140541392295600,5,-12,12,2,20,63,13,2
1689140541405287900,71,-29,-87,-94,-48,-52,-12,1
1689140541408286400,-123,-44,-51,-78,-70,-34,2,-12
1689140541410284900,86,45,17,29,23,17,-13,0
1689140541412284200,-45,17,-39,-6,-23,-40,-4,7
1689140541420283800,21,35,65,95,71,52,5,-8
1689140541425276800,37,-33,40,-46,-76,7,5,14
1689140541428275700,-37,-26,32,30,42,-21,-11,-13
1689140541431273900,-76,-32,-30,-66,-49,-14,-7,-10
1689140541442272100,-23,-8,8,85,81,1,-6,-11
1689140541444265800,127,84,1,-58,-16,23,10,16
1689140541449263200,6,-72,87,118,78,12,10,7
1689140541451261800,10,-28,-19,-73,-28,20,3,-3
1689140541466252500,-42,12,-93,-95,-77,-51,6,6
1689140541468252300,-48,-8,54,66,41,7,-10,-10
1689140541470250500,-11,33,-35,-21,1,-3,12,7
1689140541472249500,46,-11,4,22,-2,-14,-61,10
1689140541480244500,114,54,-10,-18,-32,-18,0,23
1689140541482245100,-107,-59,-51,36,23,-5,-14,-34
1689140541487239500,82,-23,36,-9,49,37,17,10
1689140541488240400,49,93,49,-21,-53,-34,9,3
1689140541502231300,10,-117,44,15,22,41,11,-2
1689140541503231800,37,60,-20,62,4,-11,-6,4
1689140541509229100,-39,48,-78,-98,-106,-78,-3,5
1689140541511228600,-57,-2,-50,-20,-33,-50,5,-14
1689140541525219100,61,96,49,37,11,47,9,19
1689140541526218400,-81,-17,-53,-39,1,-9,-3,-29
1689140541527220100,-9,-6,35,88,83,25,2,-4
1689140541529218400,46,19,-3,5,50,2,5,0
1689140541541209300,-80,-39,-10,-128,-128,-44,-3,14
1689140541543207600,123,-13,-54,-47,-20,-18,-4,23
1689140541550206000,-88,-1,-34,-21,-36,-21,-5,-15
1689140541552203400,70,4,111,127,105,91,30,21
1689140541562622800,-68,-71,-42,-81,-4,4,6,0
1689140541563622100,-13,-6,52,-5,5,-13,10,9
1689140541569630000,68,-13,-73,-128,-119,-39,-10,3
1689140541570655300,6,16,-32,-28,-58,-12,1,-15
1689140541585727800,-30,20,-7,1,26,4,-2,-12
1689140541586730100,-49,-22,4,-32,-23,11,9,10
1689140541587729800,-3,9,-5,-43,-23,-51,-25,-23
1689140541588729700,96,-62,-55,-12,-10,-14,-2,10
1689140541608785900,14,-11,-56,-69,-59,-28,-11,-4
1689140541610784100,37,30,90,74,93,41,8,1
1689140541611783700,-62,-19,17,-40,-6,24,-4,-11
1689140541612782200,-42,19,28,-25,0,20,8,2
1689140541621884500,-23,-12,-36,-13,-19,-47,-20,-12
1689140541623908400,2,18,10,28,-6,-3,5,-5
1689140541629884800,7,0,17,13,1,13,9,16
1689140541630886200,42,-19,-7,-9,-10,-14,-10,-3
1689140541644892800,-11,-3,-18,3,10,7,-6,-17
1689140541646878700,20,15,-4,15,-10,6,-8,7
1689140541647879100,6,4,11,13,27,28,34,-3
1689140541648877500,-105,-18,-13,-24,-14,-8,7,7
1689140541659867400,-7,15,-14,2,-15,-25,-8,-21
1689140541660889800,49,10,25,20,3,8,8,25
1689140541666885900,-6,-9,3,1,22,27,0,5
1689140541668865600,-17,-16,-13,-6,-10,-15,4,-9
1689140541681854600,-2,-1,8,13,6,1,-8,1
1689140541683866800,2,11,3,5,8,12,12,-4
1689140541690849600,1,-16,-7,-10,5,9,-3,-2
1689140541692849400,-20,-12,-13,-11,2,10,2,2
1689140541713480300,-8,7,6,11,1,-3,-9,-5
1689140541714496800,-12,0,2,-6,-8,-2,-5,-15
1689140541715499200,28,2,-9,-9,3,10,-2,2
1689140541716498200,-13,-11,2,0,0,-9,-2,-15
1689140541721368000,-17,2,1,8,1,-1,-8,8
1689140541722367100,-14,2,-4,2,-5,-6,-1,13
1689140541727894800,43,-5,1,2,9,6,5,-18
1689140541728892800,-28,-17,0,-2,-3,16,-4,-4
1689140541742411400,-17,-7,-1,1,2,-5,-2,-7
1689140541743417700,15,-18,-1,2,-5,0,-10,1
1689140541750413400,-14,-17,-1,-1,8,4,-2,14
1689140541751412400,-15,-16,-7,-10,-15,-16,-14,-1
1689140541765015700,-12,0,-2,4,6,7,9,-8
1689140541767014600,13,3,4,2,-4,-3,1,-14
1689140541768014100,-45,8,0,4,5,12,11,-23
1689140541768991600,22,8,-6,-4,-4,-2,-25,16
1689140541780984800,29,14,5,8,8,5,10,34
1689140541781987300,0,8,-1,-2,-6,-6,-8,-6
1689140541787004000,-18,2,-3,-2,-1,5,7,-1
1689140541787983400,-26,3,-3,-4,-5,-5,5,-21
1689140541801972000,0,3,-1,2,1,-2,-11,1
1689140541802994800,-12,5,1,-1,1,0,0,-14
1689140541809968300,-3,-3,0,-1,3,1,-8,7
1689140541810967900,-8,-3,2,2,3,1,2,1
1689140541825962400,7,0,0,0,-6,-6,12,-22
1689140541827959200,5,6,1,2,6,4,-12,29
1689140541828961400,21,-4,-1,-1,1,1,-4,8
1689140541829959700,10,3,1,-2,0,0,-1,-6
1689140541841078400,13,-4,-2,2,2,-1,8,18
1689140541843082500,-21,6,-3,-1,-3,3,16,-17
1689140541847144100,-8,-4,1,1,1,2,-6,2
1689140541849079400,5,-1,-3,-3,1,1,-1,3
1689140541862413900,-15,-5,0,0,2,0,1,-1
1689140541863438800,10,-1,-2,1,0,-3,-4,-3
1689140541869658400,15,8,-1,-1,-4,-1,0,20
1689140541870667700,-4,-3,-3,-2,-1,-6,3,5
1689140541885708200,-33,-2,-1,0,3,4,-2,-19
1689140541887709800,21,-5,-4,-2,-1,-8,-4,12
1689140541888709000,-4,-4,0,-1,0,2,0,-17
1689140541890710800,-11,-2,1,-3,0,-2,0,16
1689140541916185700,-12,-2,0,3,-1,2,2,-6
1689140541918184400,9,1,-1,-1,-3,-1,-4,3
1689140541919182100,2,0,0,3,2,0,-2,6
1689140541920182500,2,-1,2,3,1,4,3,-8
1689140541922179000,7,-1,-7,-3,-5,-6,-5,1
1689140541923201200,-13,0,4,1,2,1,7,-2
1689140541930176800,0,-2,-3,-2,-2,-4,-4,-8
1689140541931176100,9,-3,-7,-1,-6,-7,-3,3
1689140541945166800,9,10,8,3,-1,-1,1,0
1689140541947167600,-5,0,16,6,14,7,3,3
1689140541948167200,3,4,7,0,7,4,-2,3
1689140541949166800,-11,-9,0,-4,-1,4,-1,-12
1689140541961160300,0,0,-5,-32,-13,-5,-6,3
1689140541962157800,6,0,3,42,15,1,2,3
1689140541971153900,4,-3,-5,-4,-3,-5,-4,-2
1689140541973151700,-6,0,1,-5,-3,1,3,-1
1689140541990264700,-2,-4,-1,4,5,0,-3,-6
1689140541992267100,-5,-4,-9,-25,-15,-4,-1,-5
1689140541993289600,-5,-4,-5,3,-5,-1,2,4
1689140541994288400,2,2,1,4,6,1,-1,-4
1689140542004282700,1,-1,-3,-12,-3,1,-5,-5
1689140542006259700,1,0,-3,-2,-1,-3,1,3
1689140542021249700,3,-2,-1,4,2,3,1,7
1689140542022250600,-4,-1,-12,-6,-2,-1,0,-14
1689140542024250200,9,2,11,11,4,1,0,9
1689140542025249300,-7,1,10,-7,-3,0,-1,-2
1689140542027249100,2,0,0,-4,-1,-3,-1,1
1689140542028266600,-4,-9,-36,-3,-3,0,-1,-4
1689140542042410200,-5,-1,4,4,8,2,0,-2
1689140542044416900,-6,-17,-44,-12,-7,-6,-2,-5
1689140542049413600,3,-4,5,-8,-3,1,0,-8
1689140542050425100,0,1,-6,-1,-3,-2,0,11
1689140542065047200,-3,2,1,6,-1,0,-2,-4
1689140542066046600,1,2,0,-4,-3,-2,1,-15
1689140542072065300,-1,5,5,3,0,0,0,22
1689140542073043600,-1,2,17,2,4,1,2,-3
1689140542088034300,-2,-2,-11,-38,-21,-7,-3,-3
1689140542089037200,1,0,4,22,15,6,1,1
1689140542090036300,-2,-3,-10,-36,-5,-1,0,-5
1689140542091035300,-1,9,42,83,19,1,0,-1
1689140542102025800,-3,-9,-11,10,-2,0,-1,2
1689140542103047900,-4,-1,-8,-33,-15,-7,-3,-2
1689140542115021000,0,0,-7,-12,-3,-2,-1,-1
1689140542116021800,0,1,-5,-30,-7,-1,-3,0
1689140542125015000,0,-4,-1,-11,-9,-2,-1,-2
1689140542127016500,1,1,5,1,6,2,-1,4
1689140542132417800,-3,-3,4,25,12,3,1,2
1689140542134426700,7,1,2,-11,-4,-3,-3,-6
1689140542147760000,-3,-1,-2,19,4,1,0,-3
1689140542149712800,-4,-5,-8,-48,-20,-4,-2,3
1689140542150711500,3,2,15,69,29,6,0,-1
1689140542151710700,-2,-2,-3,-16,-6,-5,-2,-1
1689140542162212100,-3,-4,4,20,22,10,2,0
1689140542164188000,3,3,3,0,-11,-3,0,5
1689140542169647700,-4,-1,-3,-37,-16,-5,-2,-7
1689140542171651700,0,-1,12,60,23,7,3,5
1689140542184722600,1,0,-8,-9,-8,-6,-2,-1
1689140542186717700,-1,3,3,-6,-9,-4,-1,-1
1689140542192714100,-3,-2,-8,-29,-7,-3,-3,-3
1689140542194713800,1,1,0,65,15,5,1,3
1689140542207705100,-1,0,9,6,5,0,-1,-3
1689140542209706800,-3,-1,-11,-25,-24,-6,-2,-1
1689140542211726000,4,2,-5,-16,26,1,-1,0
1689140542213703800,-3,-1,-20,-128,-59,-14,-6,0
1689140542222698700,11,15,78,105,112,47,16,10
1689140542223695900,2,-2,-17,-55,-4,1,1,0
1689140542229694300,-2,-31,-5,4,-19,-6,-4,-3
1689140542230692600,-4,0,-19,-54,-20,-10,-4,-3
1689140542244683600,-5,-1,-20,-35,-37,-11,-5,-4
1689140542246682700,0,-1,7,19,5,-1,0,4
1689140542252680200,-1,9,5,9,6,6,2,1
1689140542254678300,-4,-9,-6,-4,-12,-5,-4,-3
1689140542270669300,-1,-7,-18,-12,-17,-8,-2,-1
1689140542271668900,-4,2,11,39,17,3,1,-2
1689140542274666700,-3,-2,-15,-17,-27,-9,-4,-4
1689140542276666400,-3,1,12,17,18,8,6,1
1689140542283662300,-4,2,1,-23,-8,-4,-4,-3
1689140542284661800,-7,-10,-1,4,14,7,-2,-4
1689140542289658700,3,7,7,10,-3,-1,0,1
1689140542291657700,-1,-1,8,-2,-2,-5,-4,-2
1689140542304650700,-8,-8,-20,-13,-8,-11,-6,-6
1689140542305650400,13,2,0,9,-11,-13,-8,1
1689140542311644700,-29,-2,12,13,16,19,18,1
1689140542313645700,30,14,4,8,8,1,-4,9
1689140542327636900,9,-4,-17,-28,-23,-10,-10,-35
1689140542329635500,-6,3,10,13,5,3,4,-5
1689140542331636000,-25,5,-12,-16,-18,-10,0,-51
1689140542332636100,-71,-10,7,4,-2,-1,3,36
1689140542342628200,84,2,-4,-2,3,6,3,34
1689140542344626500,-5,-3,11,13,0,-8,-3,38
1689140542349627400,88,36,4,6,16,9,-12,10
1689140542351625900,-3,46,6,-3,14,14,1,-2
1689140542364615200,30,-37,-6,-4,-14,-12,-26,21
1689140542365616100,-9,5,1,-9,2,12,33,-54
1689140542372610900,66,3,-12,-10,-10,-11,-40,126
1689140542374610000,16,-81,-20,-17,-11,0,29,110
1689140542387601400,72,97,21,8,17,13,57,-35
1689140542389602500,59,-8,-12,-7,-22,-19,-96,-110
1689140542390600700,15,-65,-9,-4,6,1,-35,-76
1689140542392599500,-69,70,1,-18,-8,-11,30,-26
1689140542402595900,-9,-106,-40,-13,-38,-26,-78,-7
1689140542403594600,-50,-8,6,12,11,11,124,102
1689140542409590400,-128,72,21,14,17,8,-48,28
1689140542411589000,-35,-102,-32,-22,-39,-42,-45,-39
1689140542424580700,70,82,44,29,43,-7,31,20
1689140542426581000,-128,18,0,9,13,14,-100,-120
1689140542432577500,101,10,-2,-6,-14,19,107,78
1689140542433577100,127,61,13,10,20,16,66,-101
1689140542447567700,-98,-58,-7,-6,-18,-12,-36,-29
1689140542449567200,-60,27,11,3,15,19,-25,40
1689140542450568000,13,25,-6,2,3,-2,-8,-89
1689140542451566400,14,-19,15,19,15,12,-44,108
1689140542462560000,80,-60,-4,-10,-6,-3,-16,47
1689140542464558200,-5,24,1,-5,-4,-7,-11,10
1689140542469555300,-82,-6,-1,-2,-10,1,60,-32
1689140542471554100,-1,48,5,10,3,-6,-55,-9
1689140542484546700,20,6,-17,-14,-8,2,35,-8
1689140542486546300,105,-41,-10,-14,-18,-24,-39,-9
1689140542492542300,-33,-10,5,9,20,27,3,55
1689140542494540700,92,-29,-15,-13,-11,-12,28,-33
1689140542507533200,-4,53,19,-55,-4,25,22,30
1689140542509532800,-59,-1,0,72,30,-13,-50,-24
1689140542511530800,51,-13,-9,6,-4,-24,56,-37
1689140542512529900,-81,37,23,-21,3,39,58,-21
1689140542531520100,-104,-65,-34,11,13,-5,-34,12
1689140542534519600,127,45,-10,-60,-13,16,73,101
1689140542535518300,-47,-4,4,9,-14,-10,-74,-37
1689140542537516100,-92,49,29,-50,-28,-6,0,-39
1689140542552507100,63,-32,-16,74,34,-32,-51,-38
1689140542554506800,-69,-45,-1,-40,-17,-19,-26,-101
1689140542556505300,127,42,-14,-44,-11,-3,-93,113
1689140542557504600,-114,-1,-35,-68,-5,-26,-16,-91
1689140542567498400,-74,55,40,-3,36,56,77,40
1689140542569500100,66,-57,5,63,11,-3,45,27
1689140542570499600,-21,-15,-47,-59,-9,-6,-8,-11
1689140542571498400,-88,-27,16,56,13,9,-79,-40
1689140542582490100,9,60,-28,-128,-54,-40,75,9
1689140542583490500,83,19,-6,79,48,34,3,54
1689140542589485900,-11,48,21,-74,-27,-17,13,-44
1689140542590487100,67,10,18,98,75,30,-39,-48
1689140542613472300,48,-20,-15,-24,-46,-4,92,9
1689140542615471500,-108,60,9,-65,-40,-16,3,5
1689140542629463200,-95,-95,-38,-39,-7,-17,-7,-33
1689140542631462800,51,-40,-61,-128,-68,-16,-90,7
1689140542634463100,-21,12,47,127,62,30,-78,-53
1689140542636461300,-17,53,3,-41,-23,-9,49,16
1689140542638459100,39,5,86,110,69,43,2,-68
1689140542640457400,-57,-22,-5,-25,12,-6,-39,30
1689140542642456800,39,-35,-32,-71,-35,-6,76,-58
1689140542644457300,-24,-26,-32,-79,-21,26,22,-20
1689140542650452500,-12,-41,-12,-18,-4,0,0,73
1689140542651453600,105,36,63,109,41,58,45,-34
1689140542664446300,-41,14,-43,-128,-65,-7,-98,50
1689140542666441500,13,-2,39,127,97,39,14,-110
1689140542672438600,-103,10,21,-1,-9,19,71,47
1689140542673438300,127,-45,-71,-79,-37,-3,109,35
1689140542688430700,-128,61,-33,-98,-44,-3,-37,-19
1689140542690428200,-14,-36,17,34,22,-17,-110,-83
1689140542691428500,-54,2,17,17,16,13,-60,-58
1689140542693427900,-12,36,16,-68,-2,-19,-101,24
1689140542705421700,55,3,35,73,36,16,70,62
1689140542706420700,64,13,-43,-112,-46,-6,-1,43
1689140542709417800,-45,-62,-74,-82,-60,-60,-55,-70
1689140542711418500,16,13,17,99,60,78,-33,-12
1689140542725080800,59,-58,18,102,36,-23,12,10
1689140542726079100,-56,-8,-10,-67,-15,-11,-30,23
1689140542732098200,57,63,1,4,-32,-24,105,44
1689140542734102500,-85,37,16,-47,-14,-26,-9,67
1689140542747412000,-88,-29,-46,-13,-27,-33,-128,-66
1689140542749411100,-26,28,27,74,1,46,121,127
1689140542750410800,-75,22,-2,31,29,-27,-89,-101
1689140542751409900,-27,-13,19,25,33,21,-36,80
1689140542762403500,32,17,16,36,28,11,30,-40
1689140542763403500,-35,11,-31,-72,-48,-56,-29,26
1689140542769400200,-59,30,-57,-119,-94,-7,-34,-52
1689140542770400000,99,-78,86,106,85,22,43,-36
1689140542784412900,-60,-2,-25,-113,-36,-21,-67,-105
1689140542785390300,127,-5,-31,-122,-52,-18,-64,66
1689140542792385400,-96,-15,89,81,107,49,22,-5
1689140542793407400,-77,33,-23,-71,-8,10,87,-17
1689140542810377500,73,-67,-6,-41,-5,19,33,72
1689140542811375500,-99,-27,-47,-78,-53,-52,-81,-66
1689140542812374700,64,21,6,-21,-18,-22,-45,57
1689140542813374200,-128,13,-31,8,-32,-18,-63,-95
1689140542822432600,86,37,-5,-71,2,-2,79,63
1689140542823450400,-14,-36,64,114,56,20,90,-19
1689140542829628200,85,18,-19,-15,14,30,15,45
1689140542831652500,-29,17,17,-10,-22,-5,42,74
1689140542845138100,-38,8,1,66,-19,-4,-13,-69
1689140542846140400,-15,15,-5,11,6,-3,-37,-23
1689140542852410500,13,3,20,20,12,12,8,-1
1689140542853436800,-29,31,-6,-6,-15,-21,13,-12
1689140542868055200,-51,-6,-3,-9,-11,7,-39,0
1689140542870054100,-5,-10,14,14,15,2,11,13
1689140542870054100,32,-9,0,30,-6,-7,-6,-16
1689140542872053200,75,-17,-31,-51,-28,-19,8,16
1689140542882169700,-30,8,18,34,8,-8,-39,6
1689140542884164600,20,-6,4,6,14,28,1,-29
1689140542889629800,14,-7,-9,-22,-3,-8,16,9
1689140542891662300,44,-24,-20,-13,-17,-22,-6,2
1689140542904660900,-20,14,22,23,14,2,-9,-4
1689140542906625900,-25,11,-2,-6,-4,0,-4,-13
1689140542912623300,23,-19,-7,-16,-12,2,7,12
1689140542913621500,15,-3,-7,-3,-4,-9,-4,5
1689140542927614400,-19,21,11,14,18,13,-9,-7
1689140542928612200,10,-3,-7,-20,-8,-8,-3,5
1689140542935607100,4,-7,-6,3,-1,-12,-12,3
1689140542936608800,20,-10,3,5,-14,-8,1,-20
1689140542942606600,-22,-11,-3,-4,1,0,-2,28
1689140542943603400,13,-18,-4,-8,-2,1,-4,0
1689140542949615100,8,-28,-7,0,-6,7,3,-2
1689140542951598600,-11,6,-4,-14,-6,-19,-3,-3
1689140542967612100,-13,44,4,-8,-8,3,-8,-13
1689140542969593300,2,-2,16,24,13,12,4,8
1689140542973609500,8,10,9,14,12,8,-1,-2
1689140542975588400,8,-33,6,-9,-11,-7,1,2
1689140542987084700,-9,-50,-8,0,-6,-11,-13,-3
1689140542988088500,3,-2,15,-2,4,-6,-1,-6
1689140542995437900,2,40,-39,-19,-16,-13,-2,-4
1689140542997435900,12,28,-34,-5,-4,1,3,1
1689140543002410800,-4,17,37,10,9,16,0,3
1689140543003436400,-7,45,40,6,-3,-3,-3,-13
1689140543009608100,-7,6,-35,-22,-17,-10,-5,-5
1689140543011630200,11,2,17,-6,5,-6,-1,3
1689140543024640300,-7,5,-36,-11,0,12,0,-5
1689140543026578900,3,5,-21,15,5,9,4,8
1689140543032415400,-4,-58,48,13,-4,-5,1,2
1689140543033439100,0,-32,-35,-9,-3,-4,-5,-10
1689140543047581500,-4,6,13,-8,4,0,-2,-9
1689140543048581900,3,-15,-12,-6,-2,-6,-1,10
1689140543055425700,2,-4,4,-17,2,-2,-4,-3
1689140543057427400,0,0,-5,15,6,2,0,-4
1689140543070419100,0,-2,15,-15,-12,-1,2,1
1689140543071416100,-2,7,-19,2,16,3,-1,1
1689140543073416200,-2,-14,-35,-6,-12,-8,-5,-7
1689140543074415200,-1,-4,-21,-38,-23,-7,0,0
1689140543084410000,-5,-12,59,14,14,5,-9,-5
1689140543086409100,3,13,40,44,16,1,0,-1
1689140543092404500,-6,-17,-26,-32,-17,-2,-1,-1
1689140543094406000,12,-1,-18,14,5,-5,1,3
1689140543107396100,0,13,2,83,18,-1,2,1
1689140543110395000,-4,-23,1,-45,-12,2,-3,-3
1689140543115390900,0,-15,-1,15,16,3,-3,-3
1689140543117390500,2,44,38,-9,-7,-1,1,1
1689140543135380400,-4,-7,-3,-44,-19,-9,-8,-3
1689140543139378200,-3,17,-29,16,17,3,1,0
1689140543141378200,12,-15,12,24,0,-3,7,11
1689140543143375800,-14,-24,-26,-86,-37,0,-7,-11
1689140543147374300,6,10,6,71,46,11,8,9
1689140543149373800,-11,-1,-32,-2,-25,-17,-9,-11
1689140543160366600,3,-3,-10,-79,-2,10,0,0
1689140543162365200,-1,5,10,-11,-18,-12,-6,-3
1689140543167361400,-13,-25,-58,-33,-48,-10,-8,-8
1689140543169364400,1,4,57,-15,-7,1,0,-2
1689140543175356300,-5,6,-47,77,14,-1,-2,-2
1689140543177358900,5,-4,14,-8,-14,2,2,5
1689140543190348200,3,23,-13,-88,-47,-11,-2,-3
1689140543193347500,-5,-32,41,-12,27,7,1,-1
1689140543195345600,-5,14,27,32,16,5,-2,-4
1689140543196346400,4,16,5,25,41,6,-1,1
1689140543213335500,2,-1,-16,-35,-7,1,3,4
1689140543215334600,3,1,-27,-25,-32,-4,3,0
1689140543216333800,0,9,7,-22,-8,-6,-4,-2
1689140543217334100,-4,-23,-29,40,-5,-3,0,-1
1689140543227326900,6,10,-3,14,33,13,3,1
1689140543229326100,-8,-28,43,32,26,14,1,-1
1689140543235322100,3,14,-57,-64,-46,-18,-5,-1
1689140543237321300,-5,-4,30,59,31,29,3,-2
1689140543250313400,-1,-5,-20,-75,-43,-11,-1,-2
1689140543252312800,-2,-9,-16,-36,-27,-16,-6,-5
1689140543254311200,4,13,36,67,52,27,11,6
1689140543255310600,-1,-19,-23,-49,-31,-7,-6,-4
1689140543264306700,-1,15,81,53,6,-4,1,1
1689140543266305900,0,-11,-103,-2,22,-10,-2,0
1689140543280296800,-4,-6,87,-54,-42,-4,2,-3
1689140543282295400,8,31,7,48,74,19,6,5
1689140543287292400,-14,-34,-40,4,-2,-20,-9,-7
1689140543288292700,9,11,-28,-48,-30,4,9,8
1689140543294288100,5,11,54,89,79,6,9,4
1689140543296289300,-6,-2,-6,-30,-35,-25,-5,-6
1689140543310279100,7,-18,-33,28,39,21,7,7
1689140543311278700,10,3,19,-2,-92,-12,-8,-2
1689140543312280800,-4,-10,-72,-73,-37,-8,-5,-3
1689140543313279500,-3,13,38,-20,-41,-18,-3,-3
1689140543324271100,3,3,-41,-48,-7,0,-4,0
1689140543326270600,-6,-2,-4,2,4,7,3,-3
1689140543332266500,6,15,38,-69,-83,-15,-3,2
1689140543334266300,15,-12,-31,49,97,59,18,13
1689140543347259400,-14,-14,-21,-85,-105,-4,-14,-12
1689140543349256900,10,22,67,17,10,14,9,8
1689140543355256000,-5,26,-39,-106,-15,-9,-6,-4
1689140543356255400,-2,26,54,-37,21,-2,-2,1
1689140543370244200,9,-15,56,103,36,-13,5,4
1689140543372243600,6,0,-60,-69,1,43,-7,0
1689140543374242300,-5,3,27,3,-32,14,0,-5
1689140543376242000,6,-36,-88,-128,-89,-58,-13,-3
1689140543385238600,3,26,40,-26,-10,16,1,-1
1689140543386238100,-4,2,26,32,23,-16,-3,-3
1689140543392232400,-2,-13,-43,79,17,-16,-5,-1
1689140543394233100,-20,-85,58,0,-58,15,2,-5
1689140543407223500,9,83,-35,-97,-48,-31,-6,-1
1689140543409222600,-7,-20,-39,-22,8,-17,-14,-8
1689140543414219400,10,-1,44,107,47,11,-5,4
1689140543416219000,6,10,-14,-32,-16,-17,-6,-2
1689140543438206300,-9,27,54,107,79,19,13,-2
1689140543440204600,-10,0,-18,-127,-64,-35,-14,-7
1689140543441205800,-4,-12,-15,30,17,15,0,4
1689140543442203700,15,18,7,63,6,-23,-15,-5
1689140543444203200,5,-30,-54,-10,21,15,0,3
1689140543446203500,-4,-30,-22,-64,-9,13,22,-4
1689140543452199100,-1,-19,11,-15,25,-2,-2,-14
1689140543453198800,4,-6,19,-23,21,17,18,18
1689140543467189000,-5,51,-15,-28,13,9,-8,9
1689140543469189300,-3,-16,-5,5,-21,-29,-7,1
1689140543475185700,7,-13,4,-14,-11,-3,32,5
1689140543477184000,-10,-9,4,31,8,6,-6,-18
1689140543490175500,-8,-22,-21,7,-5,-3,9,-10
1689140543492174900,-21,8,21,62,21,-8,-17,18
1689140543494174400,2,16,-9,-26,-5,7,17,-32
1689140543496173600,13,41,-8,11,15,7,25,82
1689140543505169400,2,-39,21,7,-15,-20,-36,-39
1689140543506167300,-21,16,-11,22,24,8,9,20
1689140543512163000,-14,-26,1,-23,-8,-4,-40,-66
1689140543514163800,18,26,-11,-16,-17,-9,5,10
1689140543527156400,73,22,-27,-1,4,3,10,48
1689140543529156800,-31,-14,33,28,22,-3,49,-48
1689140543535150500,-13,0,-16,-17,-8,29,-60,74
1689140543536152500,-10,8,3,21,6,2,12,-76
1689140543550141700,-42,-14,5,-8,6,-2,7,25
1689140543552142000,20,34,-3,9,-1,-9,19,51
1689140543553140100,-24,-5,5,-2,23,3,8,53
1689140543555139200,-49,-40,-22,-7,-2,16,-46,22
1689140543571130000,-9,1,6,0,-1,-1,20,-88
1689140543573129200,-43,-18,1,3,1,8,1,1
1689140543574128100,22,36,15,2,6,13,-30,-74
1689140543578126500,29,-22,-4,0,-2,-12,22,90
1689140543587120100,-1,57,16,5,7,12,-36,9
1689140543588121700,54,6,1,9,3,1,8,-4
1689140543594116300,-3,-24,-12,-10,-11,-22,21,-49
1689140543596116700,-12,57,-1,2,2,-2,-1,-53
1689140543611108500,-39,3,9,-9,-12,-14,-43,-28
1689140543612106300,7,-11,-2,9,2,4,17,39
1689140543613107000,-49,31,-4,-3,2,-3,-2,-4
1689140543615106200,22,2,5,2,-1,-6,8,5
1689140543625102500,25,-13,-9,-8,-8,-8,18,37
1689140543626099800,-3,-41,-2,-8,-7,2,-32,-46
1689140543632095200,20,-24,-19,-16,-11,-6,3,96
1689140543634093500,-116,8,-4,3,4,1,15,-63
1689140543647087300,34,-27,5,7,7,3,-17,-60
1689140543649086800,20,-5,4,1,2,3,-8,8
1689140543655084300,-62,40,10,3,-3,-12,23,-1
1689140543656084200,-17,-10,-6,-4,2,-1,-30,-17
1689140543672073900,14,-47,-5,-1,-4,-5,91,21
1689140543674070800,-16,-5,-6,0,2,15,-86,7
1689140543675070100,4,-24,0,-4,-7,-17,-39,-44
1689140543676069400,8,10,-9,-9,-9,-5,65,11
1689140543687064500,6,-2,6,7,5,12,15,57
1689140543689065700,-54,6,2,7,6,-3,-1,-57
1689140543692061600,70,-10,-7,-10,-8,-3,-8,-42
1689140543694062400,44,-9,0,6,2,4,-24,2
1689140543707052300,16,-22,2,6,6,6,4,0
1689140543708052200,26,13,-4,-8,-9,2,4,26
1689140543715047700,18,18,1,-1,-2,-7,29,69
1689140543716047400,-58,-14,1,-1,0,5,-1,-101
1689140543730039900,-13,-29,-9,-7,-5,-5,7,-82
1689140543732040400,-5,38,3,4,7,13,-77,91
1689140543732040400,55,-5,-1,-6,-4,-5,74,-30
1689140543733038500,-32,-18,1,0,-4,4,-25,-83
1689140543753024900,-27,12,9,8,6,2,16,-25
1689140543755026000,-28,-11,-1,6,4,-2,31,-98
1689140543756023300,100,23,3,1,1,11,8,46
1689140543758025100,73,-1,0,-1,-2,-7,-17,25
1689140543767019700,-85,1,2,-2,-2,-6,-28,12
1689140543769016200,52,-2,-1,-4,-6,-8,11,-108
1689140543775013200,-90,3,7,2,6,15,9,121
1689140543776012100,-28,1,-8,-5,-6,-6,-17,15
1689140543790004700,-1,-5,-3,-3,2,2,-43,-39
1689140543792006400,-2,0,-7,-5,-4,-7,94,31
1689140543793005200,-14,2,1,5,3,-2,-24,35
1689140543795004600,21,-12,-11,-8,-4,3,-38,24
1689140543804995500,2,-3,-6,-7,-8,-11,14,28
1689140543805994900,53,31,5,11,12,2,-2,-61
1689140543820364000,-6,-11,4,-2,5,16,-1,21
1689140543822007000,-33,8,3,5,5,-5,36,-19
1689140543835239700,6,7,-1,1,-4,-5,-6,-16
1689140543837255800,-8,-3,1,1,5,-2,-70,-15
1689140543837255800,-46,-30,-19,-16,-17,-5,7,15
1689140543838255000,49,0,3,1,0,5,6,6
1689140543850239800,50,-4,-4,-2,3,3,40,113
1689140543852256100,-14,4,-2,4,-4,-13,-75,-40
1689140543852256100,-17,-14,-9,-3,-1,-16,-15,-88
1689140543853254500,0,-5,-4,-2,-5,1,44,127
1689140543864248700,23,8,1,-3,-6,-8,-15,-21
1689140543866251700,-19,-20,-4,0,-6,-14,62,92
1689140543872244700,71,-3,-11,-4,-4,0,-8,85
1689140543873244800,-6,-10,-8,-6,-7,-4,-17,21
1689140543887422700,-2,6,0,5,5,2,-20,37
1689140543888426500,16,19,4,-1,0,4,28,51
1689140543894555200,-11,-16,1,2,-2,-13,-28,-56
1689140543896578700,-51,1,2,3,2,9,15,-61
1689140543909903600,54,17,11,5,12,19,29,83
1689140543911913300,-16,1,2,-3,7,11,53,19
1689140543917899100,-8,24,8,10,5,4,3,-83
1689140543919899000,-4,-17,4,-3,1,5,-7,-5
1689140543924895500,17,5,-9,-5,-11,-8,62,-43
1689140543925899700,43,-17,-5,-3,-1,-6,21,3
1689140543931912900,-47,-6,6,4,2,-7,3,1
1689140543933892700,77,6,-1,-7,-2,-6,-25,-25
1689140543946905000,-50,-12,-8,-7,-11,2,-52,13
1689140543948884000,-38,-2,-7,-8,0,4,64,-29
1689140543954878200,50,2,-3,-2,3,3,17,-47
1689140543955899100,47,20,9,8,-6,-9,-53,20
1689140543973867800,-65,-19,-9,-10,-5,-12,18,-73
1689140543975867400,6,6,-5,-5,-2,1,72,51
1689140543978865400,-12,-3,0,-3,-11,-19,-41,-27
1689140543979871600,35,9,-3,-1,7,13,-7,-62
1689140543992474100,70,-7,-3,-1,8,11,6,87
1689140543995495600,-86,20,5,1,-5,-8,-58,10
1689140543996498600,76,-14,4,7,3,8,-21,-22
1689140543997475200,29,1,-5,-1,-6,-27,41,-10
1689140544007637800,-106,-7,0,5,-7,-20,-55,-68
1689140544008632100,34,-9,-18,-15,-10,-1,-25,-18
1689140544014657800,-55,-3,3,3,7,14,-40,13
1689140544015651900,-18,-15,-6,-14,-11,-2,-1,-28
1689140544029692300,5,-2,-5,0,7,10,-13,-7
1689140544031700200,-38,-8,6,-1,-9,-2,-62,-117
1689140544037713300,24,6,3,2,0,-14,-5,28
1689140544039692500,-21,-8,-12,-8,-5,4,27,63
1689140544052705800,21,15,4,4,5,6,-18,-14
1689140544054686400,41,-3,4,1,-1,1,5,14
1689140544055682400,-30,0,10,12,7,8,4,-23
1689140544057680900,-33,3,1,7,9,7,39,4
1689140544067675300,14,8,8,4,5,1,10,27
1689140544069674400,23,-8,-1,2,-6,-9,-11,4
1689140544074673800,-15,9,8,5,5,7,-12,29
1689140544076669200,5,3,8,13,9,-3,14,-25
1689140544089661400,-27,-11,2,-4,-10,-2,-16,-15
1689140544091682800,16,-5,-2,-6,-2,6,6,91
1689140544097656700,-6,-13,-17,-7,-3,-6,5,32
1689140544099656800,9,1,1,-3,-3,-6,-23,5
1689140544113648500,2,0,2,-3,3,2,12,-38
1689140544115648600,13,7,4,-6,-11,-11,-18,14
1689140544116648300,-19,2,2,14,0,-1,15,-24
1689140544117647200,33,5,2,5,9,4,-22,28
1689140544128640600,17,-3,3,1,-5,-6,-39,-29
1689140544130642000,-1,5,1,-1,4,0,-19,1
1689140544134635800,1,1,-7,-11,-1,5,29,-32
1689140544135636600,-18,-9,-5,-2,0,-1,-21,-1
1689140544150627500,-11,2,2,6,1,-8,7,-33
1689140544152625200,14,-1,1,8,8,8,4,-14
1689140544157623300,-40,1,5,-6,-1,-1,7,4
1689140544159623200,14,-4,-1,-1,-1,2,6,-4
1689140544172613600,15,0,-5,-7,-4,-2,4,6
1689140544174614500,-24,-11,-3,2,1,-2,-1,4
1689140544175612700,12,0,-4,-5,-1,-4,6,-29
1689140544177612600,-28,1,3,-5,-4,-3,-3,-7
1689140544187606800,18,1,-1,0,2,6,9,78
1689140544188605800,4,3,-2,1,-1,-1,3,-4
1689140544194601200,-19,-2,-2,1,3,3,5,-22
1689140544195602200,16,-3,-1,-3,-6,-12,-19,9
1689140544209593500,10,-10,-4,0,-3,3,7,28
1689140544211592900,-27,-1,0,2,4,12,21,-23
1689140544218588900,-4,-1,1,-2,-1,-7,-17,23
1689140544220588300,-4,10,-1,-2,-5,-1,10,-14
1689140544232580400,4,1,-1,-2,2,7,5,-13
1689140544234579800,-1,1,-1,-2,0,-7,-15,-19
1689140544236580000,6,0,-4,-5,-3,5,27,5
1689140544237577600,-8,0,3,2,1,-3,-19,-14
1689140544247571300,-26,-2,1,2,1,-1,1,21
1689140544248571100,14,-7,-4,-4,0,2,-13,-15
1689140544263565400,2,-5,-4,-4,-5,-5,9,-2
1689140544264561800,-32,-3,2,2,-4,-2,5,-7
1689140544278553500,17,-2,-4,-5,-1,-1,1,-10
1689140544279553900,-1,3,0,1,1,-1,-22,0
1689140544280553000,6,1,1,-3,-3,1,13,-7
1689140544282552900,-11,-3,-4,-8,-4,-1,-5,9
1689140544292545300,-43,5,3,16,5,-3,8,-33
1689140544294545900,51,-2,1,-2,-1,-3,5,7
1689140544296543500,2,-3,-1,-1,-5,6,10,-1
1689140544297543500,-8,-3,-4,3,0,-9,-25,6
1689140544306537600,-5,0,1,-5,-4,1,12,-26
1689140544308537400,-6,3,-2,0,-1,-4,17,5
1689140544314555900,-4,3,0,-6,-4,-3,0,17
1689140544315533300,17,-2,-2,0,6,8,-39,1
