timestamp,EMG_s0,EMG_s1,EMG_s2,EMG_s3,EMG_s4,EMG_s5,EMG_s6,EMG_s7
1688396585.971039,-1,-1,-5,-8,-3,1,-1,-1
1688396585.9740388,0,2,9,1,-3,-5,-2,1
1688396585.9760356,-1,-2,-10,-9,0,1,2,0
1688396585.9770367,-2,1,2,1,2,3,0,-1
1688396585.9780357,-2,-1,14,13,3,-3,-1,2
1688396585.9800346,0,0,6,-3,2,1,1,1
1688396585.9810343,1,-1,3,2,-1,3,0,-2
1688396585.982031,-2,-6,-27,-31,-6,-7,-4,-4
1688396585.9850328,2,7,25,20,2,-10,1,1
1688396585.98603,-2,-5,-10,-1,-2,4,-2,-5
1688396585.9910262,1,7,12,3,1,-3,-1,1
1688396585.9920266,2,2,10,1,1,7,-1,1
1688396585.999022,-1,-8,-39,-23,7,1,1,2
1688396586.0010214,-3,-2,-17,-18,-44,-6,-1,-3
1688396586.0200126,0,1,3,-2,18,-4,-1,1
1688396586.0479958,4,7,34,35,-1,1,4,4
1688396586.051998,3,2,1,-4,3,10,-1,0
1688396586.0589943,-2,-5,0,8,23,6,1,-2
1688396586.0629904,-2,-5,-24,-12,-18,-6,-1,-2
1688396586.063986,-2,-1,-10,-21,13,5,0,0
1688396586.0659854,-1,-4,-11,-2,-11,-6,-1,-2
1688396586.067988,3,6,14,-5,9,-1,-1,0
1688396586.069983,-2,0,8,14,-2,9,8,0
1688396586.073985,0,-4,-4,-8,-5,-16,-15,0
1688396586.090971,-2,-2,-14,9,2,-5,8,-2
1688396586.0929692,3,3,6,6,4,1,3,2
1688396586.0939682,2,4,24,8,5,6,2,0
1688396586.0949674,-1,-2,3,5,-3,-6,-1,-1
1688396586.0969658,0,-1,-1,2,1,-1,-3,2
1688396586.0979662,-3,-4,-18,-7,-3,1,-1,-2
1688396586.0989642,-2,-5,-5,-16,0,3,0,-1
1688396586.1029654,-2,-7,-26,-7,-2,-2,-4,-1
1688396586.1069655,1,3,21,-16,-5,0,-1,-3
1688396586.1099617,2,4,6,24,3,1,3,0
1688396586.1119587,2,0,11,24,3,-5,-3,0
1688396586.1129582,-2,-7,-37,-70,-5,1,-1,-2
1688396586.1189554,-1,-1,3,43,-5,-2,-5,-1
1688396586.1199532,1,5,39,25,4,0,-2,-1
1688396586.1319466,-1,-6,-15,-13,-6,-4,1,-3
1688396586.133946,-2,-2,8,-12,-2,2,-2,-4
1688396586.1409423,-3,-11,-46,-33,-6,-1,0,-1
1688396586.141942,-5,-7,-57,-39,-3,-3,-1,-1
1688396586.146937,7,19,66,45,11,3,4,4
1688396586.1479373,-3,-9,-33,-39,-12,-3,-2,-2
1688396586.1629298,7,22,111,97,20,4,1,3
1688396586.1679292,-4,-9,-19,-29,-7,-1,-2,-1
1688396586.1709263,-2,-8,-37,-7,-3,0,3,-1
1688396586.1759214,-2,0,8,-7,-1,-3,-10,-2
1688396586.2139003,-3,-6,-18,-26,-3,0,5,-1
1688396586.215899,5,14,43,34,14,-2,-4,2
1688396586.2218957,-7,-5,-10,-6,-9,-17,-4,-4
1688396586.224894,1,0,10,20,2,9,-1,1
1688396586.2318902,-2,-4,-23,-19,-3,1,1,0
1688396586.2368937,1,-2,1,-4,-3,2,1,-1
1688396586.240885,-1,-5,-20,-19,-5,-1,-2,0
1688396586.2418842,1,4,17,31,6,4,4,-1
1688396586.2438848,-4,-4,-13,-19,-3,-17,-9,1
1688396586.2458823,2,-1,1,-3,-2,2,-1,-6
1688396586.2468827,-13,-2,-2,-5,2,1,0,-3
1688396586.2478812,-3,10,15,24,9,1,1,8
1688396586.2488809,17,-5,-4,-10,-6,4,-7,2
1688396586.2518783,-7,-6,-1,-6,-5,-12,11,5
1688396586.255877,2,-5,-13,-6,-4,-2,-4,-11
1688396586.256877,-14,0,6,10,2,-13,-2,-12
1688396586.260874,1,2,-6,-10,1,-3,-13,-4
1688396586.2628713,4,-7,-6,-1,-7,4,14,17
1688396586.2678726,8,6,5,5,0,4,-4,-2
1688396586.2708738,-4,-2,-1,0,3,-1,1,4
1688396586.2818599,-14,-4,-6,-8,-2,4,-5,-12
1688396586.2858596,1,-1,-6,-2,-2,1,0,-14
1688396586.289856,-2,-18,-6,-3,-4,0,4,20
1688396586.2918546,7,17,8,9,-1,4,1,-11
1688396586.2988508,-6,-10,-15,-6,-12,-9,-8,1
1688396586.3008504,-2,9,13,1,8,8,-9,-10
1688396586.3128426,3,0,-4,-6,1,-14,-5,-8
1688396586.3138425,-2,2,-3,5,-6,-8,-7,18
1688396586.3218377,-8,1,2,0,1,6,2,18
1688396586.3228369,-13,-7,-6,-5,-6,-6,0,-8
1688396586.326834,14,11,-2,0,-3,1,-5,9
1688396586.328835,8,-2,3,5,4,0,2,-11
1688396586.341825,-8,0,-2,2,-3,5,13,-5
1688396586.3438263,-5,-10,-5,2,-2,-6,-18,-1
1688396586.3917975,-3,1,5,-7,3,3,34,-4
1688396586.3937974,-13,-12,-7,-2,-2,9,4,5
1688396586.397795,-7,1,2,4,22,11,38,0
1688396586.4057925,45,-3,1,0,-5,-14,-33,2
1688396586.4087906,-14,-12,-14,-3,-12,9,33,-25
1688396586.409789,24,43,23,12,16,-1,26,-33
1688396586.411786,-9,-18,-16,-17,-14,-6,-51,-1
1688396586.412786,-2,24,17,9,15,0,-1,7
1688396586.413785,5,-22,-11,-6,3,-31,-25,-42
1688396586.4147842,-42,-15,-5,-6,-25,11,3,18
1688396586.415784,30,11,7,-3,5,-13,-17,18
1688396586.4227862,4,-15,-4,4,12,-4,-12,27
1688396586.4237807,-49,1,-8,-5,-26,-1,33,-32
1688396586.425778,51,25,12,14,18,0,32,81
1688396586.4267778,12,40,7,-7,-14,3,34,60
1688396586.427777,47,13,-12,-13,-17,-41,-76,-13
1688396586.4317756,7,40,0,-8,11,23,0,73
1688396586.4337733,17,-40,-12,-6,-19,-31,-12,-17
1688396586.4407709,-34,1,-4,1,-13,21,12,-3
1688396586.4427698,17,-2,0,-1,8,3,38,-36
1688396586.455764,9,8,2,-2,9,43,-23,49
1688396586.457761,9,4,2,1,-12,-25,-30,-111
1688396586.4617567,15,-29,-23,-26,-2,-18,3,65
1688396586.4637578,-21,-2,-2,-3,-10,3,40,-43
1688396586.4697552,20,-10,9,17,6,-7,-24,14
1688396586.4707527,-58,-5,7,-2,13,22,-17,46
1688396586.4787478,-8,-2,3,13,-6,-2,34,-25
1688396586.4807475,-23,-10,-10,-5,8,1,5,10
1688396586.491762,16,5,-1,10,-15,-17,-4,12
1688396586.4937403,41,-5,-13,-15,-1,9,12,4
1688396586.500735,-9,12,6,6,25,14,-10,12
1688396586.502736,-26,-11,-6,-3,-6,44,24,-10
1688396586.5167263,-1,-3,3,5,14,9,1,-20
1688396586.5197263,7,-3,-5,10,10,66,-11,-23
1688396586.5557053,-4,-16,-4,-7,-5,-58,-14,8
1688396586.5587032,-1,11,1,-2,-5,16,11,-6
1688396586.562701,-13,-6,4,0,11,4,-19,-29
1688396586.564703,-6,-3,-3,-8,-10,9,0,-18
1688396586.567698,15,2,3,1,5,22,-7,-56
1688396586.5756927,-33,-7,-5,8,5,-2,4,25
1688396586.5776913,-11,-5,0,0,-9,-22,7,-7
1688396586.5796907,15,9,-3,-3,-8,-33,3,28
1688396586.5826893,-21,-23,-3,1,1,20,6,-33
1688396586.586687,21,13,9,8,-3,-11,1,33
1688396586.5916839,-5,-9,-10,-7,1,-45,-11,-18
1688396586.5936844,-13,-4,-2,-1,3,5,9,0
1688396586.5976794,5,3,4,3,-18,-57,-21,-28
1688396586.6026816,-29,-11,-5,6,6,5,-5,-75
1688396586.605681,-9,-5,-13,2,0,15,5,17
1688396586.608676,-4,-7,8,0,-2,-33,3,38
1688396586.6106737,6,4,9,14,8,18,9,-5
1688396586.6116726,3,-4,-2,-17,-39,-68,-20,6
1688396586.6156693,10,5,10,-3,-7,29,7,-11
1688396586.6196713,-12,-5,1,4,8,38,7,-2
1688396586.6246665,7,-6,-24,-26,8,25,-7,-8
1688396586.6266625,-5,-3,-3,27,18,2,0,19
1688396586.6366634,-7,6,10,-11,-2,10,3,1
1688396586.6396616,0,10,22,-4,-2,6,4,-1
1688396586.6426551,3,2,-8,8,2,-15,-7,-2
1688396586.6436572,-1,3,2,-26,-16,11,7,9
1688396586.6496494,0,-7,-23,-18,21,7,2,-3
1688396586.6536512,-16,-20,-21,-36,-18,-31,-7,-13
1688396586.658646,8,11,27,27,-6,-1,9,-5
1688396586.6596477,4,7,22,60,15,24,2,15
1688396586.6726372,2,-4,-2,-1,-7,8,-7,-1
1688396586.6736364,-6,-11,8,-9,5,-11,-3,-5
1688396586.6806319,1,2,-40,-5,-20,24,-4,-4
1688396586.6826327,-6,-15,-34,-67,-27,1,-4,2
1688396586.6956232,-2,-7,-71,-34,-13,6,1,2
1688396586.696624,6,11,25,54,16,-13,-6,-6
1688396586.7026205,-11,-18,-13,-45,4,9,2,-9
1688396586.7056205,-6,-22,-71,-72,-24,3,1,4
1688396586.744597,6,18,42,82,46,-41,-4,-3
1688396586.7475939,-2,-6,-59,-81,-34,-4,-8,-3
1688396586.7545903,-8,-12,-64,-36,23,18,-17,-12
1688396586.7585893,17,24,78,39,28,-9,15,21
1688396586.7635903,-18,-43,-112,-128,-21,4,-3,-10
1688396586.7655845,14,41,112,127,35,64,13,9
1688396586.7695818,3,-1,-17,27,4,-44,-7,-2
1688396586.7715821,-13,-18,-39,-79,-24,-36,-5,-3
1688396586.7755806,-23,-54,-84,-124,-62,2,-10,-13
1688396586.7775805,5,19,19,26,12,32,-6,-4
1688396586.7795773,23,46,53,-63,41,-36,17,16
1688396586.7815778,22,45,78,104,20,65,13,16
1688396586.7825763,-21,-44,-59,-31,-25,20,-12,-14
1688396586.783576,5,4,14,-12,2,-66,16,9
1688396586.786574,-35,-65,-58,-9,-64,-13,-26,-24
1688396586.7895718,39,90,87,112,112,33,2,19
1688396586.7925727,5,-7,38,-22,-52,-71,20,11
1688396586.7935698,-20,-22,-60,55,-13,55,-37,-22
1688396586.8015642,19,35,40,-82,-19,65,16,13
1688396586.8045633,-16,-37,-37,1,47,-63,-6,-6
1688396586.814555,7,27,-55,-24,-82,-34,-8,-3
1688396586.816554,3,2,25,-31,12,23,16,11
1688396586.82455,-12,-21,-31,52,-19,-80,6,-4
1688396586.8255498,-18,-13,-56,-128,-25,4,-31,-26
1688396586.829546,15,33,115,41,43,49,3,9
1688396586.8305485,-11,-39,-85,-89,-63,-33,-2,-4
1688396586.8445385,6,22,77,58,-29,-9,0,4
1688396586.8455386,-17,-43,-89,0,-49,-45,10,-3
1688396586.8525336,21,35,114,52,28,55,-5,6
1688396586.8535333,-2,1,-41,58,-26,-67,4,0
1688396586.8615282,5,9,-32,14,16,24,-12,-4
1688396586.862528,4,-2,1,-77,19,16,7,6
1688396586.8755229,-3,4,-25,-25,28,62,3,-1
1688396586.8875153,-18,-28,-41,-90,-16,-10,-3,-7
1688396586.8905127,-7,3,27,-1,-51,-70,-12,-9
1688396586.8925116,14,20,4,56,48,41,3,5
1688396586.8935118,6,10,26,15,17,22,6,3
1688396586.8955102,-3,-4,-8,-85,-1,-53,-5,-6
1688396586.9304893,-10,-7,-7,-1,44,22,5,-2
1688396586.9364865,-5,-12,-18,-90,-53,-28,1,0
1688396586.944483,-2,3,9,81,4,37,-9,-5
1688396586.9494796,-1,-7,-69,-77,53,-71,-10,-3
1688396586.952478,8,-2,-15,-94,6,-36,2,4
1688396586.9554763,4,4,26,42,-3,66,2,3
1688396586.9594738,-4,-4,-14,-20,-13,-83,-3,2
1688396586.9764633,-2,1,0,-2,2,-2,1,-2
1688396586.9794633,1,-5,-22,-5,-13,88,-6,-3
1688396586.9814603,-10,-13,-18,-38,-34,45,0,-5
1688396586.9854622,4,4,5,15,7,-49,4,3
1688396586.991455,4,7,21,-6,19,6,-6,3
1688396586.9934537,4,7,7,6,0,6,7,3
1688396586.995453,-5,-11,3,11,-21,37,-3,-1
1688396586.9994502,-3,7,10,6,10,-40,-3,-8
1688396587.0024483,8,6,8,18,11,25,18,8
1688396587.0074527,3,3,9,10,-5,0,11,-1
1688396587.0084457,-10,-10,-18,-9,-20,-128,-13,-5
1688396587.0104437,3,4,0,-5,8,43,-6,3
1688396587.0114434,-1,-2,11,2,-1,23,-17,-8
1688396587.013442,0,-1,-3,5,12,-19,10,6
1688396587.015442,-6,0,-6,-17,-15,73,-26,-13
1688396587.0164435,7,-2,-6,-7,26,70,15,6
1688396587.0224395,-8,8,15,3,-44,-56,-3,-1
1688396587.0264347,0,-5,-1,-4,5,19,-34,-5
1688396587.0304317,0,-2,-1,6,10,21,-4,-6
1688396587.0324311,1,0,-3,1,3,-22,2,1
1688396587.0354333,5,0,3,3,1,33,3,4
1688396587.0424328,-5,-2,-2,-5,6,32,9,-9
1688396587.0434248,1,-2,2,-2,-3,-16,9,6
1688396587.0544178,-1,-2,-5,-2,-2,-6,-7,-3
1688396587.056419,0,-2,4,-5,6,30,-3,-2
1688396587.0634143,5,10,-2,-7,3,-4,-11,2
1688396587.0654116,-4,-4,7,7,1,0,14,-3
1688396587.0784047,-2,-2,-3,-4,-5,-19,-5,2
1688396587.079406,3,-3,-1,2,-2,23,4,-2
1688396587.0854013,1,-10,-4,-3,4,8,4,1
1688396587.0864012,0,6,-4,-2,-9,-13,-2,6
1688396587.101392,-4,-5,2,2,-3,-3,7,-5
1688396587.1023932,1,3,10,-23,7,11,-9,-1
1688396587.1043928,-20,-40,-1,3,-2,16,9,-2
1688396587.1053889,4,10,-4,-8,-7,-12,-22,-7
1688396587.123381,11,43,19,17,5,-4,20,-3
1688396587.1613576,8,4,-4,4,-2,22,28,16
1688396587.165356,9,-8,1,-8,0,-5,2,5
1688396587.1703537,-79,-41,-2,-2,-8,-9,1,-6
1688396587.1723535,29,18,-3,-3,-2,0,-7,0
1688396587.1763496,2,0,0,-1,3,2,-23,-7
1688396587.1783519,37,43,12,12,9,22,4,1
1688396587.1803455,-11,-18,-10,-2,-1,-9,-17,-3
1688396587.181348,20,-109,-23,-15,-4,-9,22,6
1688396587.1823478,-67,72,9,9,9,28,21,-15
1688396587.183345,-10,42,4,2,2,-9,7,49
1688396587.1863465,14,9,4,0,-3,-2,7,-3
1688396587.1893415,-1,-35,-9,0,-2,-7,-18,-1
1688396587.1933417,28,-11,-7,6,-11,-1,0,-41
1688396587.1943412,-90,0,-1,-15,-3,-8,-43,-6
1688396587.1953409,57,28,12,10,3,12,53,35
1688396587.1973383,-63,-27,-7,-10,3,-6,24,-15
1688396587.1993384,35,14,-5,-9,-11,-5,-16,12
1688396587.205335,11,-12,-1,3,2,1,23,-20
1688396587.2073317,14,-29,-16,-7,-7,-15,-15,-8
1688396587.2223234,53,29,8,7,-10,10,-42,12
1688396587.2243268,-13,-42,-13,-8,-4,5,59,34
1688396587.2263224,-11,-20,-2,-14,19,7,-32,-24
1688396587.2273216,-14,-77,-28,-10,-13,4,-65,-30
1688396587.2433121,75,41,9,-4,9,-16,-39,74
1688396587.2453094,-45,9,8,5,-9,-31,39,-6
1688396587.24631,60,19,2,20,1,8,17,-52
1688396587.2473085,-53,1,17,-1,7,22,5,-7
1688396587.2573044,24,32,-5,-16,1,-22,-86,-2
1688396587.2593024,-6,-40,-1,10,42,-68,-2,-25
1688396587.2642975,-33,-18,-16,-11,-52,-9,-15,35
1688396587.2663,67,24,1,-7,-6,16,100,34
1688396587.3002803,-27,21,11,15,14,24,39,-7
1688396587.314271,-51,20,3,0,10,7,-37,-15
1688396587.3282628,0,-58,-4,13,25,33,15,-49
1688396587.3302612,49,22,-8,-21,-13,-44,-21,122
1688396587.3312612,-50,43,9,8,0,66,20,-63
1688396587.333262,5,-5,-6,-13,-4,46,32,10
1688396587.3372574,-11,-5,1,11,13,-6,-39,-30
1688396587.3402557,6,23,16,21,8,7,34,-13
1688396587.3422573,-32,-18,-3,-16,-6,-58,11,-6
1688396587.3442543,12,-22,-33,-33,-33,2,-19,-14
1688396587.3452535,4,1,-70,-71,-14,-8,14,40
1688396587.3472552,-13,19,45,91,15,1,-12,-49
1688396587.3492513,-11,-26,-76,-98,-30,-5,10,-10
1688396587.3502514,30,33,103,115,58,-29,-29,12
1688396587.35125,6,-37,-95,-127,-50,-20,13,7
1688396587.3552475,-14,-7,-24,1,7,57,-19,-11
1688396587.357247,-40,-95,-83,-51,-29,9,15,-10
1688396587.3592489,31,29,-59,-5,-7,33,-30,14
1688396587.3632429,18,22,-57,-25,21,-19,17,17
1688396587.3652406,-31,-52,-128,-128,-38,-9,-15,-36
1688396587.3782341,14,53,118,127,96,69,11,19
1688396587.3802335,-15,-53,-86,-126,-3,10,-3,-15
1688396587.3852289,9,15,33,-8,52,95,12,8
1688396587.38723,-11,-5,45,-32,-85,-88,-19,-15
1688396587.4012194,-1,1,10,18,16,-21,0,-5
1688396587.4032204,10,-15,10,-100,-86,-2,-1,14
1688396587.4042199,14,40,57,127,20,32,1,5
1688396587.4052193,-2,-11,-61,-112,9,27,6,5
1688396587.4142115,-21,-19,-87,-102,-75,-14,-9,-10
1688396587.416213,6,-6,-53,53,-29,-13,-7,-7
1688396587.4232068,20,50,99,99,80,-29,6,21
1688396587.425206,3,8,-11,-53,-25,-6,3,-8
1688396587.4471965,-7,-22,-78,-65,-25,-9,-4,-5
1688396587.4821732,6,2,2,16,1,33,-2,6
1688396587.4871728,-21,-52,-113,-128,-61,-26,-6,-9
1688396587.4911695,9,38,24,4,58,-8,0,6
1688396587.4961672,0,-1,-41,98,-54,-5,3,3
1688396587.5041618,19,28,31,-51,-40,-15,8,15
1688396587.5081596,-6,-10,79,-3,76,15,5,1
1688396587.5101576,1,21,87,127,53,23,2,-4
1688396587.5111585,-6,8,-11,21,76,-14,-12,-7
1688396587.5141573,-10,-33,-108,-56,-39,-22,-10,-9
1688396587.5211577,8,16,-11,25,-88,-8,5,3
1688396587.5231512,-15,-39,-116,-114,-52,-12,-7,-10
1688396587.5261483,6,12,0,48,9,10,7,3
1688396587.5281475,7,7,16,10,7,-16,2,3
1688396587.531146,-4,1,60,82,4,15,2,-2
1688396587.534144,-8,-16,-60,-58,-35,1,-6,-7
1688396587.5381453,5,16,55,27,24,-5,-1,-1
1688396587.5411415,-3,-5,-15,-67,52,-29,-8,-4
1688396587.5431392,2,6,1,13,3,-22,0,4
1688396587.5451388,-9,-17,-22,-36,-55,-14,-9,-6
1688396587.546137,25,42,123,59,19,6,37,21
1688396587.5481377,-2,-5,44,127,63,59,-1,-2
1688396587.5501423,-26,-48,-108,-118,-85,-42,-18,-16
1688396587.5541391,11,38,97,81,-88,6,8,8
1688396587.5591297,8,21,20,60,89,13,-4,0
1688396587.5611298,1,-5,8,82,-63,-4,4,5
1688396587.5651257,-6,-12,-1,-37,-22,-4,0,-3
1688396587.5661273,16,33,16,127,72,34,8,3
1688396587.5811167,-9,-22,-94,-128,-82,-18,-8,-6
1688396587.5821166,-5,-17,3,9,-57,0,1,-3
1688396587.5841148,-4,5,31,-12,76,12,-6,-5
1688396587.585117,-2,-6,-9,13,5,-17,-2,0
1688396587.5941086,-5,-4,-3,-49,-44,2,-1,-3
1688396587.596109,0,-6,-108,-89,32,-6,-9,-3
1688396587.6031036,0,-8,-41,-22,-100,-19,-1,2
1688396587.6051037,0,2,6,43,115,-18,-2,-2
1688396587.6180956,-3,-10,5,-34,-88,0,-6,-4
1688396587.6190963,-10,-10,14,-27,90,19,-4,-7
1688396587.6260934,4,2,-16,3,-3,-12,4,4
1688396587.6330872,1,-1,12,-8,43,9,0,-2
1688396587.6580837,1,4,13,10,-15,-11,-2,1
1688396587.6600757,2,-2,-5,-6,-17,-8,1,4
1688396587.675081,4,10,9,28,9,16,3,2
1688396587.6790617,-6,-9,-13,-11,3,-5,-5,-7
1688396587.6820602,-3,-7,-16,-22,-3,-8,-3,-13
1688396587.6860611,4,7,17,7,-1,32,1,11
1688396587.6880577,-1,2,9,16,27,-1,-3,-6
1688396587.6910582,-6,-8,-3,-19,-32,4,-13,4
1688396587.6930578,-8,-6,-6,1,9,12,72,23
1688396587.6950545,-24,-19,25,24,10,-3,-2,-42
1688396587.696054,22,-88,-17,-4,-9,-7,7,37
1688396587.6970532,-6,51,11,-12,-5,-2,-31,-9
1688396587.700049,-14,-83,1,17,10,-2,3,7
1688396587.703051,-54,-44,-9,-4,-4,-9,-2,-9
1688396587.7080457,80,3,1,-11,-9,-2,-33,12
1688396587.7100499,-40,-18,-18,-13,-16,-4,-2,-50
1688396587.7150414,36,12,-6,0,20,-2,37,49
1688396587.71604,13,28,25,7,-12,2,18,4
1688396587.7240393,-46,-20,-14,2,-3,0,42,11
1688396587.726042,36,41,12,0,2,-4,-84,-25
1688396587.7380276,-10,9,-2,2,-2,-1,-14,-25
1688396587.7410324,-1,-49,-8,-10,-7,-15,2,-6
1688396587.7450247,-4,35,8,9,4,8,8,0
1688396587.746023,13,-20,-5,1,0,3,22,19
1688396587.7600138,-17,-10,-5,-10,-8,-18,-24,-28
1688396587.7620156,24,51,15,9,2,1,-5,24
1688396587.7670097,-27,-29,-8,-22,-2,-6,-3,-12
1688396587.7690117,-13,12,19,12,-1,5,20,10
1688396587.7840018,20,49,3,-1,9,-6,-38,-6
1688396587.7939954,0,-11,5,10,-4,0,14,10
1688396587.829974,9,43,3,3,-1,-4,-19,-14
1688396587.8319747,-7,-53,-20,-16,-4,-2,19,3
1688396587.8349721,-8,-33,-7,-6,4,1,-13,-8
1688396587.8489654,-22,8,3,0,0,-1,2,1
1688396587.850963,-9,-2,0,4,-2,1,3,-8
1688396587.852967,20,-28,-19,-13,-13,-10,10,12
1688396587.8579621,-23,-11,-2,18,6,4,6,1
1688396587.859965,36,34,13,2,5,1,-26,-3
1688396587.8619578,-28,-22,-3,-4,-6,-8,-8,-13
1688396587.862956,38,19,1,7,-2,1,13,8
1688396587.8639553,-34,-13,-11,-15,-3,0,-28,-32
1688396587.8659542,35,-11,-4,-9,-5,-10,26,2
1688396587.866954,-26,18,16,11,1,6,-40,39
1688396587.8689525,31,-8,-7,-13,-4,-10,57,10
1688396587.8709517,22,-3,-3,-10,-2,-3,-14,-34
1688396587.8729515,17,14,3,5,0,4,-1,17
1688396587.8749516,-17,19,1,3,1,-2,-14,-29
1688396587.8769488,-16,-48,-8,-7,-5,0,-6,39
1688396587.8799462,10,10,10,7,1,1,-13,-14
1688396587.881945,-88,-23,-13,-1,0,-6,3,-12
1688396587.886955,87,87,25,7,3,2,31,40
1688396587.8899407,-13,-29,-9,-4,5,14,-21,-65
1688396587.9039323,-17,17,5,3,-6,-7,-5,68
1688396587.904932,64,15,2,0,0,5,-12,-22
1688396587.9069307,-111,-21,-10,0,0,-3,14,-13
1688396587.9079313,17,5,-3,0,3,-2,-4,-46
1688396587.9169242,43,-3,1,-2,-6,19,49,106
1688396587.9189239,-28,-9,2,1,5,-39,-15,-27
1688396587.92592,6,-20,-10,-5,-4,-13,-4,-26
1688396587.9269211,-42,19,9,1,-7,-13,-17,-14
1688396587.941911,-3,20,-1,2,1,17,-30,-62
1688396587.94391,22,-38,-10,-6,3,-34,18,54
1688396587.947908,52,-24,-9,1,-5,5,9,23
1688396587.9499059,-9,0,-12,-10,1,25,3,33
1688396587.9638984,-3,6,9,7,32,-8,0,-26
1688396588.0068731,5,18,8,5,-27,-4,-5,-20
1688396588.0108724,-23,-4,-7,-7,1,-88,-18,-86
1688396588.0288618,6,11,-7,-19,-22,64,-5,36
1688396588.0308592,13,-3,-19,-48,-7,3,2,18
1688396588.0328588,5,18,13,-5,6,-3,-17,-2
1688396588.0338588,2,-14,6,21,3,18,9,20
1688396588.0368567,-33,-4,4,22,7,0,-21,-35
1688396588.0398602,13,2,-8,-25,-15,-17,24,-21
1688396588.0418556,-19,-17,-27,-33,-1,20,-6,-3
1688396588.043852,-8,0,-2,1,-7,6,-3,14
1688396588.0448523,20,7,-3,-15,1,5,2,-8
1688396588.0458522,9,-15,-2,6,7,-12,-48,-90
1688396588.04785,-21,4,6,13,13,-1,21,27
1688396588.0488493,-18,-20,-6,-1,9,121,68,-63
1688396588.0498507,2,43,22,21,5,-25,10,-32
1688396588.0508497,-8,-11,5,14,-1,5,1,-4
1688396588.0528483,26,-23,-7,2,-33,-101,-11,-4
1688396588.055846,14,19,-7,-9,5,69,31,-20
1688396588.0578465,17,-33,-3,-10,-1,19,10,-66
1688396588.0608432,31,6,8,6,-9,5,-18,48
1688396588.0628426,11,-3,-14,-5,-6,-42,36,-26
1688396588.0668385,-47,-10,4,0,0,-63,-24,-20
1688396588.069842,-11,-3,-15,-11,-9,-128,-38,-2
1688396588.083829,62,10,16,12,6,9,6,15
1688396588.0858288,-11,-1,9,4,0,40,-21,-21
1688396588.0878272,-13,-5,1,-3,0,4,-24,33
1688396588.0888267,-40,10,9,13,22,19,2,0
1688396588.0968213,-35,2,-7,-8,-10,-2,13,9
1688396588.0988219,19,9,14,16,13,26,21,-2
1688396588.1058183,17,2,-3,-12,9,31,-18,-5
1688396588.1068163,6,4,-3,-30,7,40,15,38
1688396588.1208096,-13,5,9,57,-12,0,17,0
1688396588.1218083,-5,-4,5,15,5,18,-13,-8
1688396588.126804,15,3,-5,-2,-13,-20,-7,3
1688396588.128806,-7,-26,-60,-98,-7,4,19,34
1688396588.145795,-16,14,60,63,40,78,2,7
1688396588.1467962,-12,14,38,-78,3,43,-18,-15
1688396588.1877718,25,14,73,114,-29,-27,1,22
1688396588.1937678,4,-15,-44,-43,32,-29,5,16
1688396588.1997674,-14,31,71,54,17,-21,-4,-16
1688396588.2027626,3,-1,-21,-67,68,6,0,10
1688396588.2047622,17,-1,-85,-128,-87,-15,10,12
1688396588.2077596,1,-5,-30,-93,3,-21,0,8
1688396588.2117615,-21,-17,-7,0,54,-24,-4,-15
1688396588.2137558,-17,-24,-81,-44,-44,2,-13,-6
1688396588.2147543,30,38,4,-64,87,51,17,27
1688396588.215755,-11,-10,-58,-21,-33,-31,-15,-9
1688396588.2177541,-22,-26,-89,-65,-104,-32,-12,-10
1688396588.2197533,0,-17,-96,-95,-79,-2,-2,6
1688396588.2227519,-4,-16,39,-101,94,-3,-8,-7
1688396588.2257543,16,21,98,127,2,9,20,22
1688396588.2287483,-20,1,-18,-22,84,43,-8,-23
1688396588.229745,31,53,99,22,-28,21,12,18
1688396588.230745,-7,-20,-27,47,11,-44,-10,-8
1688396588.2317452,-2,-18,-61,-65,-51,-15,12,8
1688396588.2407396,-14,-23,-43,-11,7,-41,-8,-3
1688396588.2417402,11,26,27,-8,-95,2,8,8
1688396588.247736,-16,-24,-54,-94,21,0,-20,-14
1688396588.249734,-7,-28,-47,-93,-42,-45,-4,4
1688396588.2637262,21,27,-46,29,-67,-2,4,11
1688396588.265731,4,21,-15,-73,-36,-66,-19,-4
1688396588.266725,6,13,-3,37,12,-19,3,1
1688396588.2677236,-13,-16,-21,-49,70,37,-6,-4
1688396588.2777188,-28,-48,-89,-50,-105,78,-10,-15
1688396588.2787194,5,4,-4,-31,-24,-60,2,9
1688396588.286717,-15,-19,-67,-79,-57,47,-14,-13
1688396588.2897136,5,23,81,67,-120,2,-7,-1
1688396588.300706,15,28,44,-39,-23,-25,10,12
1688396588.3037062,-6,-10,-14,44,-28,-38,1,3
1688396588.307703,-1,-17,-36,-103,-14,22,0,2
1688396588.3097048,-7,7,25,3,48,78,5,-9
1688396588.3306875,5,1,17,-14,70,-53,9,15
1688396588.3326883,5,-2,-15,12,93,-36,12,5
1688396588.3336868,1,4,69,45,-111,14,-12,-2
1688396588.335688,10,25,15,84,98,33,1,6
1688396588.3376853,2,-6,-5,-60,-63,-89,-15,-11
1688396588.3386838,-36,-28,-103,-49,54,127,17,-14
1688396588.3536751,3,1,3,-27,-16,79,-7,4
1688396588.3546765,14,4,39,55,9,-92,-22,3
1688396588.3636699,0,9,2,-46,-1,-2,-5,-3
1688396588.3986504,-2,12,44,127,127,6,-29,-14
1688396588.4036515,12,-2,-71,-69,-95,-16,9,13
1688396588.4086456,-10,-6,15,80,-15,-36,-4,-5
1688396588.411645,2,-14,-53,-128,-86,-19,9,12
1688396588.4146414,-9,-11,43,-13,15,74,-11,-12
1688396588.4166405,-12,-3,24,80,127,-121,-14,-12
1688396588.4176402,13,9,-22,-99,-62,-2,10,12
1688396588.4186397,-5,-3,10,127,26,24,20,0
1688396588.4216383,-6,-19,-35,-27,-107,95,17,5
1688396588.425637,11,41,64,82,118,-37,-4,-3
1688396588.427636,-3,1,7,32,-86,-10,8,5
1688396588.4286335,3,5,-1,45,127,28,7,-21
1688396588.4306335,-5,-15,-6,-97,2,13,5,7
1688396588.4326313,3,3,-10,-45,-96,28,-4,14
1688396588.4336295,8,4,-22,-49,56,-14,-2,-2
1688396588.443626,-7,4,34,4,-11,-1,-17,-1
1688396588.4456244,0,-2,-13,-4,-4,-44,10,-9
1688396588.4476225,11,9,-2,7,-75,-41,36,8
1688396588.448622,-3,5,20,85,-7,36,-19,-14
1688396588.4576194,-5,-7,-2,-26,-59,3,-29,17
1688396588.4596183,12,6,-4,-7,82,-57,0,49
1688396588.4666102,-17,-14,-7,11,-33,56,-4,-64
1688396588.4676101,-6,-8,-2,-13,-54,16,15,27
1688396588.4806027,-10,-4,-4,-41,-1,8,48,-90
1688396588.4816031,23,-33,1,48,-59,-54,-103,76
1688396588.486599,-41,-80,-21,26,-19,-94,63,11
1688396588.4885979,14,-14,8,-31,61,121,25,-25
1688396588.5035887,97,97,32,9,33,13,27,81
1688396588.5055895,-39,-46,-13,-17,-5,-46,-46,22
1688396588.506589,20,-106,-21,-22,0,-28,-71,-14
1688396588.5075886,-10,-10,-36,-46,-8,-48,-26,-28
1688396588.5275772,-28,-3,27,-27,4,7,-34,-5
1688396588.563555,-23,18,-1,34,16,47,-14,-19
1688396588.5685532,51,-44,-37,3,-2,7,-37,87
1688396588.5745497,92,72,18,-14,-10,-12,-18,-74
1688396588.5765488,-17,15,25,16,21,50,62,35
1688396588.5785477,-72,-40,4,9,8,-35,-68,5
1688396588.581545,-53,-33,5,10,44,-19,31,-40
1688396588.586547,-34,-41,-28,-21,-4,13,-92,24
1688396588.5905411,59,-56,-32,-29,0,-6,41,23
1688396588.5925386,-40,18,0,-10,13,8,48,-52
1688396588.5945375,-46,30,8,18,-4,-1,61,17
1688396588.5955389,23,-26,4,12,75,-8,-57,-26
1688396588.5975358,-80,18,-4,-45,-63,-17,71,-99
1688396588.6005347,52,31,5,15,-48,33,78,18
1688396588.6065333,42,40,19,6,-31,20,-45,42
1688396588.609531,-21,18,-7,7,59,-21,46,12
1688396588.61153,-29,-69,-27,-21,-52,-68,-74,-5
1688396588.6155262,2,-15,-5,11,22,21,4,-29
1688396588.617525,9,62,11,-1,-33,22,19,-23
1688396588.6185236,15,3,21,-7,-48,64,52,69
1688396588.6235223,-20,-31,-31,-28,-3,-67,-106,-45
1688396588.6255202,28,9,6,4,75,23,28,15
1688396588.6305163,11,41,20,20,56,63,-14,3
1688396588.6325166,-54,-46,-18,11,23,-49,32,-40
1688396588.638516,18,-10,-3,-29,-70,49,-2,53
1688396588.641511,13,12,-52,-48,-13,-3,0,-28
1688396588.6455076,24,23,52,21,127,-21,23,-9
1688396588.647507,-29,-19,-48,18,-83,-43,-8,-4
1688396588.660499,-2,-6,-24,-91,-60,1,-7,3
1688396588.662498,21,5,-72,-29,-57,18,27,-10
1688396588.6674955,-9,3,2,-75,69,-22,-4,-4
1688396588.668495,10,8,-14,20,-24,23,31,27
1688396588.682486,-5,2,9,21,-56,-40,-15,13
1688396588.6844862,-4,-23,-9,-42,12,9,10,-18
1688396588.6894822,15,4,-23,82,-22,45,-3,4
1688396588.6904826,-1,7,-5,-91,-66,-36,2,20
1688396588.7084758,-5,-26,-50,-37,63,21,-15,-13
1688396588.7274618,0,4,76,86,-78,2,19,-6
1688396588.7464523,8,15,22,106,-94,-27,7,1
1688396588.7494495,-8,-21,-55,-82,127,-16,2,1
1688396588.7524476,-2,18,37,-5,10,12,16,11
1688396588.7564452,6,2,60,70,-94,-23,-12,-7
1688396588.7594454,-3,7,0,-90,-67,-25,-7,-5
1688396588.764442,-13,-9,-1,-27,-30,51,18,0
1688396588.766439,3,-10,-52,-111,74,-29,1,6
1688396588.771442,-4,-7,-11,82,119,7,-12,-17
1688396588.7744355,-4,1,60,-2,-128,-50,-2,-3
1688396588.7784343,-6,-2,37,79,107,48,2,-5
1688396588.780433,7,9,42,24,20,39,20,12
1688396588.782431,8,8,-37,9,-10,11,12,3
1688396588.7834291,4,3,3,-97,107,27,0,-3
1688396588.7844286,12,4,9,4,-67,-44,5,17
1688396588.7864285,-3,-3,-11,127,32,-52,-1,5
1688396588.7884285,9,4,50,-100,-66,26,-4,50
1688396588.7924256,-20,-11,-44,34,101,95,1,-88
1688396588.7944267,7,18,30,14,52,-53,25,18
1688396588.8034186,-6,-13,1,13,69,90,4,-25
1688396588.8064172,5,3,-8,-41,-87,66,1,50
1688396588.8094153,-9,-9,-21,19,40,-73,-29,-15
1688396588.8114166,-3,-4,-6,-87,31,3,-1,-17
1688396588.826404,0,9,39,41,-88,28,-10,-7
1688396588.8274062,13,5,-25,-71,13,-30,-11,-21
1688396588.8294044,-20,-15,-4,19,-98,-21,-8,-5
1688396588.8304038,-7,-2,-7,0,61,37,6,3
1688396588.8393962,8,11,0,18,-84,-21,-14,13
1688396588.8413968,7,-1,15,-4,14,-59,33,-18
1688396588.8483918,-5,-5,-26,-30,-8,56,5,-4
1688396588.8493931,-6,-8,-6,7,-43,56,18,6
1688396588.8673837,7,1,0,10,62,-30,-3,7
1688396588.8753786,-4,0,9,12,19,0,-20,-13
1688396588.911373,-3,-7,-34,-2,-3,-16,33,38
1688396588.9143553,-9,1,26,27,-41,-31,12,-25
1688396588.9223568,-3,4,9,-15,-18,-48,9,-24
1688396588.9263499,-7,-15,-25,-19,5,-98,-32,-9
1688396588.931344,-2,7,2,-4,26,20,-58,-31
1688396588.9323468,22,3,-5,10,-37,6,92,82
1688396588.9343486,15,-19,1,18,2,22,-69,22
1688396588.9363418,-69,-41,-3,-12,45,41,52,-41
1688396588.9403408,23,36,-11,-1,115,45,-25,35
1688396588.9423409,-45,-42,18,10,-85,-6,2,-35
1688396588.943339,-10,-37,-14,16,49,41,45,55
1688396588.9453368,102,126,34,12,20,38,-21,-53
1688396588.9463387,-51,-116,-9,2,-7,-36,48,-18
1688396588.949336,-75,-85,-43,12,13,-12,-79,3
1688396588.9503365,41,99,29,-35,-3,6,49,-65
1688396588.951336,-52,-128,-22,28,36,-16,13,96
1688396588.9533346,63,127,43,-27,-29,-13,-55,44
1688396588.9573314,4,37,-2,-5,-22,-3,-49,-128
1688396588.9613273,41,79,-9,-24,-9,-43,-34,109
1688396588.9633293,-52,-62,-18,23,20,-1,-15,50
1688396588.9693224,-47,-86,-11,-35,-19,-13,-57,-28
1688396588.9723318,81,12,6,25,8,1,61,36
1688396588.9833148,18,-12,1,-39,12,2,-12,-100
1688396588.9853153,-78,36,-14,-2,-8,-20,2,-33
1688396588.9903138,25,-43,-18,25,-22,-6,34,-16
1688396588.9933114,19,-8,-22,-58,21,3,43,-39
1688396589.0063052,12,11,15,39,9,-4,47,17
1688396589.0093014,44,-37,-16,-24,5,-6,-71,-49
1688396589.011301,-15,29,8,25,-11,4,47,13
1688396589.013299,21,6,1,12,10,3,-93,68
1688396589.0242915,-44,-118,-37,8,-27,-16,-68,-26
1688396589.0262902,-10,50,32,3,5,5,30,-27
1688396589.0292912,54,0,-22,-21,28,-5,-17,49
1688396589.0312872,-16,8,10,-5,21,-5,-25,-62
1688396589.0432801,-34,25,8,13,27,20,-17,14
1688396589.0442832,34,-11,3,34,29,-4,67,-24
1688396589.049277,21,11,-2,-29,-42,-5,7,42
1688396589.051278,-31,16,19,34,38,12,-24,3
1688396589.0662673,-10,-35,-5,-10,-68,-6,14,27
1688396589.0672688,-18,33,3,-34,70,14,4,-57
1688396589.0692673,-42,-7,-18,-8,-8,-65,22,-23
1688396589.0712643,-5,-15,-13,-3,-37,11,-1,19
1688396589.0812664,-11,19,4,-4,-60,17,17,-4
1688396589.1182382,59,14,-12,-38,-57,-11,8,46
1688396589.1232357,-19,-26,9,-19,-3,1,-22,-19
1688396589.1262336,26,40,98,80,-70,-3,8,15
1688396589.1282337,2,-22,-104,-103,10,-14,7,12
1688396589.132231,2,19,40,-30,-8,7,-12,7
1688396589.1352324,11,8,70,84,-79,7,16,-11
1688396589.1382308,-8,3,-53,-50,96,6,-2,12
1688396589.1432242,-14,0,7,-84,85,-8,16,-10
1688396589.1452274,0,-19,-21,14,82,11,-2,9
1688396589.147222,-11,4,0,-34,85,3,-3,-8
1688396589.1482224,23,14,20,51,-81,-11,11,21
1688396589.1492205,0,-6,24,17,-71,4,6,-2
1688396589.1502194,-19,-13,-48,-26,93,1,-23,-35
1688396589.1522188,12,-3,-25,-2,-75,4,16,20
1688396589.153218,-5,-2,-54,9,85,40,-7,2
1688396589.1632133,-8,-9,48,52,-50,-23,-8,-25
1688396589.1642118,33,37,61,3,-128,11,34,39
1688396589.1702082,-21,-10,-42,69,96,25,-38,-19
1688396589.1732087,-2,-6,-24,-128,19,-37,-34,-20
1688396589.1871982,-1,-24,-88,64,5,76,12,15
1688396589.1891978,7,14,62,46,79,-54,-14,4
1688396589.1901963,-5,-7,-50,-60,-108,16,-10,-10
1688396589.1911967,-9,-13,4,25,65,83,13,3
1688396589.2011905,6,1,9,-30,13,-60,-2,10
1688396589.20319,-2,-6,-35,-38,50,63,-5,-3
1688396589.2081857,0,1,-12,-5,-96,55,37,4
1688396589.2101848,-4,5,52,15,31,-89,-13,-1
1688396589.2231784,2,14,9,41,66,12,1,3
1688396589.2241774,-33,-20,-1,-3,10,1,28,-59
1688396589.232175,18,11,-15,-87,-58,15,-29,7
1688396589.2421687,-3,-3,-4,15,33,-7,18,-1
1688396589.2791464,-14,-16,-15,-16,-47,22,11,-9
1688396589.283144,18,11,46,44,-77,-16,-22,21
1688396589.2881453,11,22,75,113,-54,-41,15,13
1688396589.2901402,4,3,-17,-10,-21,-24,13,2
1688396589.2931392,-9,-17,-18,-47,105,19,-15,-6
1688396589.296136,1,-5,-34,-21,-128,0,-47,7
1688396589.297135,-15,-20,-20,-22,125,-77,37,-7
1688396589.298136,13,13,1,-56,-37,44,0,28
1688396589.3001351,-3,0,15,102,67,-68,-15,-13
1688396589.3011343,9,8,9,11,-12,-13,-3,15
1688396589.3041348,-5,-4,-1,2,124,28,-1,-8
1688396589.3071306,-4,-12,-24,-47,-102,-18,-14,0
1688396589.3091295,0,8,23,53,31,30,8,1
1688396589.3121276,4,4,-19,-49,-59,-4,12,0
1688396589.3131282,-1,-2,-5,-79,-89,-17,-10,-2
1688396589.3141274,-8,-10,-19,-56,-28,0,4,-3
1688396589.3201227,-4,-3,-1,-14,22,-64,-8,-6
1688396589.3241222,-2,-14,-25,-2,-10,25,-4,9
1688396589.328117,1,5,6,36,7,22,15,1
1688396589.3301182,2,1,1,45,-28,6,-18,-1
1688396589.3431098,0,-3,-1,-54,-99,5,13,-6
1688396589.3451083,-3,-7,-16,13,114,-34,4,2
1688396589.3491044,11,8,0,-13,23,-15,33,49
1688396589.3511033,3,5,23,43,31,14,-49,-46
1688396589.3660965,5,3,6,-15,-4,-3,5,52
1688396589.3680966,-16,-18,-23,-15,-21,13,-95,-61
1688396589.370095,12,-2,-10,-9,-22,88,47,-51
1688396589.3730917,31,8,11,7,21,-63,-46,74
1688396589.379088,1,17,27,30,74,48,61,85
1688396589.3810887,-29,-15,-31,-29,-61,-28,-76,-97
1688396589.3890834,22,-2,3,6,-4,36,37,1
1688396589.3910842,-52,-63,-16,11,-22,52,47,33
1688396589.4060745,37,7,-1,-38,-15,-116,-100,24
1688396589.431058,-22,4,8,28,-47,59,127,127
1688396589.4490497,56,-15,-31,-33,11,-92,-80,-118
1688396589.4640412,-33,18,19,20,11,23,100,82
1688396589.4680371,-48,-62,14,-7,-78,-28,1,114
1688396589.4690392,48,102,4,-26,61,-35,20,-78
1688396589.4720385,-1,-29,10,-21,102,-15,99,117
1688396589.475034,-2,2,6,19,-7,17,50,-118
1688396589.4780376,-38,43,-11,-24,-50,7,-53,-88
1688396589.4800308,36,-52,-17,-26,-50,-32,-83,75
1688396589.482031,-116,-20,3,8,-14,-12,-101,-40
1688396589.4840276,0,-36,-22,2,4,-30,-14,-101
1688396589.4850278,102,88,54,27,66,77,36,19
1688396589.48603,-70,-100,3,26,26,-26,36,-18
1688396589.4890268,-25,115,19,-2,-14,9,27,38
1688396589.4910269,19,-102,-10,-4,-27,-28,-67,16
1688396589.494025,-92,-38,0,36,-15,18,-4,-101
1688396589.4960237,72,-51,-11,-37,-19,-7,-16,55
1688396589.4970226,-51,22,7,18,15,21,-56,76
1688396589.4980218,6,31,-10,-41,-23,-37,-50,-64
1688396589.5000198,-23,-32,-19,2,-5,8,3,74
1688396589.5010202,34,51,16,20,28,-15,81,-16
1688396589.5110166,99,27,10,8,-23,8,-84,-49
1688396589.5130124,22,38,7,7,7,-14,-12,18
1688396589.5250058,10,-49,-1,6,-6,8,1,97
1688396589.5290048,-111,-66,-7,-3,26,58,118,-127
1688396589.532001,94,82,21,29,-35,-20,60,118
1688396589.5340009,55,-34,7,-20,7,-3,0,63
1688396589.5449927,19,26,-15,-20,-14,-25,70,-73
1688396589.5469925,-78,21,4,10,-4,-18,-56,116
1688396589.5519903,-65,-115,-14,17,-5,7,-28,-42
1688396589.5539896,-63,53,1,-8,-6,18,-77,-20
1688396589.5599844,4,-22,-14,-9,8,-13,42,-2
1688396589.5609848,9,-31,-11,4,1,-72,14,-58
1688396589.5689795,-55,-21,-9,-13,11,11,-41,46
1688396589.5699792,-39,8,4,9,-21,-32,79,95
1688396589.5859704,46,30,-2,-8,16,11,-70,-117
1688396589.5919704,6,11,-8,-10,-10,42,-105,-72
1688396589.6029608,-96,-42,-8,-19,-28,-12,44,19
1688396589.6089578,53,-9,-1,18,5,20,95,30
1688396589.6329427,12,-17,-9,-24,-9,14,-24,15
1688396589.6389453,-25,24,20,38,-33,32,36,1
1688396589.641939,19,1,-5,-32,-73,-19,25,-39
1688396589.6449378,-45,-27,-16,-9,60,21,-55,-63
1688396589.6499338,-3,-15,-3,-2,-40,2,22,-22
1688396589.6519332,7,-16,-17,-13,71,-1,-27,50
1688396589.6559315,-5,-52,-30,-42,6,-9,12,-38
1688396589.6579287,7,39,17,27,-17,5,18,-6
1688396589.659929,2,-5,22,54,-87,-10,4,-1
1688396589.683915,1,-17,-77,-96,38,-7,-18,9
1688396589.6869128,41,47,9,93,-68,5,5,-2
1688396589.6899111,22,27,55,52,23,-12,9,14
1688396589.6929116,-15,1,-87,-98,-46,-59,-5,-1
1688396589.695909,15,9,73,20,-34,90,-17,20
1688396589.697906,-4,-48,-80,-125,2,-53,2,-20
1688396589.6999063,-8,-2,-63,102,18,46,-6,7
1688396589.7248926,-26,-34,-50,-76,109,39,9,-20
1688396589.7268894,34,38,22,52,-97,-12,19,20
1688396589.7298884,16,6,32,31,-59,71,-4,-3
1688396589.7318873,-11,-6,-22,-32,-71,-18,-7,-5
1688396589.7338865,-5,3,1,21,87,-53,0,-5
1688396589.7358854,12,-8,-42,-34,124,57,1,9
1688396589.7388828,6,2,-1,-20,127,27,10,1
1688396589.7418814,-2,-4,5,-86,-15,-48,-8,5
1688396589.7608705,-4,-5,5,38,-8,25,5,-10
1688396589.7638683,16,12,21,-33,-38,-36,3,26
1688396589.7658677,-25,-4,19,100,49,-11,11,-75
1688396589.767866,-1,2,-28,-112,-62,-26,2,0
1688396589.770864,-1,5,24,97,58,3,-19,-13
1688396589.772863,11,21,42,-29,-112,-9,11,12
1688396589.7818584,-3,-17,-21,-21,20,28,-14,1
1688396589.7848587,5,-3,0,28,88,-24,-5,2
1688396589.7878578,-16,-11,-14,33,-72,44,3,-14
1688396589.7888556,0,-8,-64,10,4,-23,-8,-3
1688396589.7908545,25,21,33,22,-52,-12,8,26
1688396589.7928522,-22,-20,-21,-28,27,13,-12,-18
1688396589.7958503,12,16,78,-3,-89,-10,6,15
1688396589.797849,7,14,13,43,18,6,20,13
1688396589.8018463,7,-3,10,12,-29,-53,-26,29
1688396589.8038456,-2,9,-7,-56,110,46,24,-25
1688396589.8258324,25,-2,-8,-30,-107,7,5,-20
1688396589.8278317,-15,2,12,93,77,-22,6,8
1688396589.828833,5,2,12,68,83,8,-2,1
1688396589.8308308,2,1,6,-55,-78,3,-2,12
1688396589.8328314,3,1,7,-40,97,35,47,15
1688396589.8338287,5,-3,-20,-35,72,-51,-37,-13
1688396589.8358314,-4,-15,-38,-61,41,46,-2,-2
1688396589.8368282,4,3,18,105,-46,-8,-9,1
1688396589.845821,-7,2,-5,-65,-92,15,12,5
1688396589.8468208,7,2,-3,34,69,-20,0,4
1688396589.851819,-6,2,23,96,7,-17,-5,-4
1688396589.8538165,8,1,-21,-68,-118,-19,10,15
1688396589.9027898,-28,-22,-42,34,10,1,-39,-21
1688396589.9067898,0,6,17,22,1,6,0,0
1688396589.9127884,3,-13,-27,-80,-69,-9,-1,-7
1688396589.9167824,13,16,34,53,-89,6,5,9
1688396589.918781,6,8,-10,-4,-23,-15,5,13
1688396589.9197798,-4,-6,-8,-4,-9,7,0,-11
1688396589.9247777,-8,-5,3,-50,-91,-27,-27,-20
1688396589.9267795,-2,-6,-7,-17,-70,-70,-23,31
1688396589.9297755,7,2,10,15,125,4,-3,-3
1688396589.9317722,1,6,12,17,-61,3,19,-3
1688396589.9327703,2,0,-9,-21,-35,1,35,10
1688396589.933771,-3,-10,-5,-3,-16,23,-26,-9
1688396589.9347703,-5,-3,2,-21,-35,-9,-29,2
1688396589.9357698,1,-11,-63,-35,-103,-15,21,0
1688396589.9367692,20,28,69,-23,82,19,2,5
1688396589.9397695,-3,-2,1,5,11,12,8,-5
1688396589.9427686,13,0,-2,21,5,-3,25,6
1688396589.9447696,-14,-6,-5,-38,-11,19,16,5
1688396589.9507613,-17,-50,-91,-53,-83,-39,-51,1
1688396589.9527617,18,26,58,87,48,-5,8,3
1688396589.9657524,21,34,74,10,68,-46,-8,7
1688396589.9667535,-1,3,4,32,-2,5,-11,-7
1688396589.9727507,5,-1,-3,-3,-4,13,22,7
1688396589.97375,-5,-18,-28,-18,5,6,2,3
1688396589.9887414,-32,-19,-27,29,-74,-1,-17,-15
1688396589.9897404,-24,-35,20,-4,34,2,1,1
1688396589.991737,72,26,-4,20,-16,-12,-5,-38
1688396589.99274,27,-31,-17,-5,30,11,6,16
1688396590.0017314,-8,102,30,-13,-59,4,0,22
1688396590.00373,8,-14,-15,-47,-24,-10,27,4
1688396590.0107286,-30,-19,19,39,27,-7,-48,-9
1688396590.0127282,-31,-49,-2,40,-2,21,17,-34
1688396590.0287173,-31,-102,-22,-2,28,-12,-16,-18
1688396590.0427134,71,36,-15,-31,-25,-1,-1,-5
1688396590.0557024,75,-35,-34,-36,-7,-18,7,6
1688396590.0726948,-34,11,10,-24,14,4,9,21
1688396590.0786896,-48,-110,-10,-6,30,15,-29,26
1688396590.0806885,18,42,-3,2,-44,2,1,-51
1688396590.0836852,-58,104,38,16,26,-38,-1,43
1688396590.0856845,-47,-69,-34,-28,0,7,-2,-3
1688396590.0886843,66,92,8,-11,3,26,57,0
1688396590.0926862,19,9,11,35,8,7,-21,-13
1688396590.0966794,29,14,16,5,11,20,3,-34
1688396590.0976794,-8,19,6,4,-1,-14,-13,-19
1688396590.0986788,-71,-67,-31,-19,10,16,34,40
1688396590.1006775,-7,-39,-2,9,-21,-19,-30,31
1688396590.1026747,-72,-38,-1,-10,12,6,59,11
1688396590.1036754,-23,11,-3,-7,7,-10,-82,-70
1688396590.1096766,82,9,12,18,-20,-1,-13,52
1688396590.1116688,-53,-59,-12,-29,-27,-6,23,-53
1688396590.11267,-55,28,-5,9,1,10,21,23
1688396590.1136699,72,20,16,13,4,5,22,64
1688396590.1226647,-12,35,3,2,32,8,-49,-47
1688396590.1246636,-31,-11,8,-6,7,-15,20,-11
1688396590.1306581,-7,6,11,5,37,14,-1,1
1688396590.1326587,34,-27,-11,-3,-18,-7,-10,12
1688396590.1456492,6,27,-5,-2,4,-5,-2,-37
1688396590.1476507,-12,5,16,24,-19,17,-2,20
1688396590.1516457,-11,-31,-26,-40,63,6,-17,-27
1688396590.1536467,3,53,42,41,39,1,14,14
1688396590.1686358,22,-25,-17,-8,-13,-8,6,-15
1688396590.1696367,-48,12,-6,-51,-26,13,-7,8
1688396590.1716344,35,-2,28,2,17,6,11,34
1688396590.1736343,-10,-11,1,34,-24,-27,-9,-30
1688396590.1826293,-8,5,-3,-6,-5,1,6,-6
1688396590.184628,26,6,5,6,-57,-8,-7,25
1688396590.1956224,-6,-13,-1,24,63,36,-4,-9
1688396590.2316031,-10,13,-14,-115,1,-27,16,4
1688396590.2345994,13,26,91,97,115,84,12,-1
1688396590.2386024,7,16,10,-65,-85,-27,-19,15
1688396590.242595,-6,-27,-25,13,61,44,0,-5
1688396590.2455938,-6,2,-16,0,-35,-38,-2,-7
1688396590.2495952,-8,-12,-74,-63,78,-11,12,1
1688396590.2525911,9,2,80,42,-60,-6,-13,-5
1688396590.25359,-2,-3,-80,-49,-56,10,-9,-7
1688396590.2565866,3,3,-67,-13,47,13,15,8
1688396590.2585871,-3,0,-2,38,58,-26,-7,-1
1688396590.262587,-9,-16,-57,-81,-3,11,-7,-1
1688396590.2645833,-10,-32,-61,-56,-5,-43,-12,-16
1688396590.266581,-2,-2,-43,-92,-57,31,11,5
1688396590.2675798,2,15,77,83,-69,-20,0,-2
1688396590.2685795,6,3,-24,35,127,8,-3,4
1688396590.2725801,4,0,24,-20,0,-11,5,4
1688396590.275579,-11,-18,-19,-26,6,3,-6,-13
1688396590.2975638,-16,-30,-89,-128,-128,-22,-10,-7
1688396590.299564,10,15,15,-12,36,2,-1,5
1688396590.3005626,8,14,57,79,-78,-8,7,6
1688396590.301562,7,15,56,50,78,31,10,6
1688396590.3035607,-13,-12,-18,-116,34,-31,-16,-14
1688396590.3055606,6,2,-17,10,-30,10,6,8
1688396590.3105567,12,23,77,73,-85,-3,3,4
1688396590.312555,-5,-8,-2,31,38,0,5,1
1688396590.3255465,-7,-12,-27,-108,-81,8,5,4
1688396590.3265467,12,23,10,86,6,-12,-10,0
1688396590.3315432,-12,-34,-32,-121,70,15,0,-6
1688396590.3335419,16,39,18,67,-91,-14,2,7
1688396590.3535335,-36,-74,-91,-128,-33,-5,-16,-19
1688396590.3985052,2,-7,-101,98,109,12,9,7
1688396590.4015067,17,38,-12,127,74,7,0,4
1688396590.4055037,-16,-28,-75,-84,-92,-1,-7,-9
1688396590.4084997,23,47,30,80,-23,4,16,14
1688396590.4114985,9,6,57,-117,48,-8,2,8
1688396590.4174953,-10,-22,-32,-79,-47,-6,-5,-5
1688396590.4194937,-6,5,39,9,25,18,6,-4
1688396590.4224937,7,13,-12,-44,18,-35,-3,1
1688396590.4254932,-19,-37,-105,27,53,38,-17,-13
1688396590.4284918,-16,-7,44,-113,-98,2,-17,-17
1688396590.4304874,4,4,-56,27,-16,-6,1,5
1688396590.4314892,2,-4,-8,-1,-107,10,15,8
1688396590.4324863,-9,-17,-46,-76,53,-11,-2,-5
1688396590.4344873,26,30,-18,8,-64,-3,16,16
1688396590.4354868,5,15,24,-41,37,38,-17,-6
1688396590.4364865,-9,-8,23,36,-13,21,-7,-10
1688396590.4384835,1,4,-6,31,-21,15,1,-1
1688396590.4404824,-15,-31,-58,-20,-117,-34,-2,-6
1688396590.4424806,-1,0,25,38,22,57,18,2
1688396590.4464781,-6,-2,38,-94,-53,-54,-4,0
1688396590.4474773,12,35,122,62,-42,-28,-3,4
1688396590.4524734,0,2,6,67,-6,-9,-10,-4
1688396590.4534738,-9,-9,-14,-62,22,-19,-50,-13
1688396590.4674652,-6,-10,-21,-10,-2,21,40,0
1688396590.4704652,-4,-6,-6,13,-83,-33,-24,-1
1688396590.4714634,3,0,-5,0,-12,-1,15,6
1688396590.4734626,3,4,20,-22,29,-53,5,3
1688396590.490453,-1,4,-18,79,30,33,-25,-7
1688396590.491453,5,1,7,-45,-15,4,17,1
1688396590.4924514,3,8,5,0,83,19,12,-1
1688396590.49445,-1,-7,-8,-6,-2,-72,-58,-40
1688396590.5064433,9,13,15,51,39,72,28,17
1688396590.5074427,-2,-4,-1,1,9,-1,45,22
1688396590.5124397,-7,-11,-2,-46,40,48,-21,-4
1688396590.5134394,14,1,12,40,-15,-23,54,19
1688396590.53143,-25,5,-9,40,-17,-33,-67,-92
1688396590.5354276,15,11,14,-46,-7,12,50,44
1688396590.539428,10,-9,-16,6,10,-23,-35,6
1688396590.5804024,-27,-21,-14,-16,-35,76,27,-3
1688396590.5824003,21,16,-6,6,39,-45,-16,27
1688396590.5893965,-69,-37,-29,-47,45,-40,-25,-38
1688396590.5953932,31,39,16,-18,28,-34,42,19
1688396590.6013894,15,-35,8,21,9,-9,-31,-4
1688396590.6043897,-17,35,11,12,-8,-10,18,29
1688396590.6073868,15,53,2,13,-22,-2,-28,-59
1688396590.6123867,-4,-48,-14,-14,-33,-20,3,14
1688396590.613389,-77,13,-3,-13,-5,-18,51,12
1688396590.6153812,96,62,24,5,5,41,69,68
1688396590.6163805,-72,-59,9,2,-34,-40,-71,18
1688396590.61738,69,92,2,8,8,39,-33,-91
1688396590.6183796,-16,-34,-11,-3,-16,-21,4,-15
1688396590.621378,-34,-95,-16,16,27,26,92,24
1688396590.6243782,-64,-3,2,-9,-14,31,-56,46
1688396590.6283772,-45,-92,-23,-21,-14,-113,-69,-22
1688396590.6303744,-1,-16,3,3,-4,55,26,-49
1688396590.6343706,72,99,-8,-8,-7,-45,-48,-19
1688396590.63637,49,10,9,7,20,34,57,36
1688396590.6383696,-28,-81,-20,-27,-21,91,47,57
1688396590.6413672,-58,-48,-16,-2,-2,-28,-74,-29
1688396590.6473625,-15,-88,-16,4,-13,14,45,-32
1688396590.6483622,19,-68,-16,-5,-31,-30,-59,-11
1688396590.6543574,11,71,3,6,18,8,39,-10
1688396590.6563623,39,7,-3,0,6,25,53,2
1688396590.670349,-79,-18,3,-2,-1,-8,-128,-108
1688396590.6723492,15,79,15,23,53,24,107,90
1688396590.673348,17,10,3,11,-62,-28,-27,-81
1688396590.6743493,19,49,15,-6,50,24,82,66
1688396590.6863408,-23,-1,0,-1,18,-7,-38,-40
1688396590.6873412,61,-9,9,5,-14,-46,-97,-25
1688396590.692338,-128,-44,-1,12,-2,-6,24,16
1688396590.6933372,114,-18,6,8,-24,5,51,37
1688396590.7073288,-28,82,15,8,-6,13,-30,29
1688396590.71033,9,20,-2,-2,6,15,112,-1
1688396590.7143257,2,-57,-14,-20,-10,-17,-108,48
1688396590.7163253,0,44,8,-5,-2,-10,19,-66
1688396590.730315,-25,-41,-26,-8,-9,-5,68,127
1688396590.7323153,11,11,13,-5,-38,28,-2,-128
1688396590.7333152,12,9,-3,12,37,-10,7,16
1688396590.7353137,-28,-53,6,11,-11,-11,-40,-45
1688396590.7463074,23,-9,16,33,-42,5,-10,-10
1688396590.7483046,13,-25,-17,-49,13,-14,-20,14
1688396590.7682936,4,5,-12,-3,-47,16,24,-1
1688396590.7702935,-3,32,41,34,94,7,-22,45
1688396590.7722926,23,-32,-91,-72,71,7,5,-28
1688396590.7732916,-38,-15,37,62,-83,4,-6,-20
1688396590.7742898,13,3,-9,-48,-24,-5,16,11
1688396590.7762892,-17,-21,-13,-38,-85,-39,-46,-1
1688396590.8072727,-3,6,-42,-8,-50,13,-2,-17
1688396590.82327,26,-11,-36,-59,-42,-9,-3,22
1688396590.8292618,8,19,7,-22,1,-32,16,0
1688396590.8332572,9,17,10,-8,-128,28,-15,8
1688396590.835257,3,4,76,87,90,-6,-3,-6
1688396590.837255,-11,-13,-61,-87,81,-11,6,-10
1688396590.838254,16,-2,-30,-46,-119,2,23,0
1688396590.8402536,-30,-8,-69,-53,91,-1,-27,-10
1688396590.845258,8,0,68,54,-18,-13,2,0
1688396590.8472488,-1,-5,-25,20,104,-5,-4,-3
1688396590.8482502,-3,4,-5,-47,39,37,10,-3
1688396590.8492484,7,-16,-112,-97,-87,-28,-15,21
1688396590.851247,-3,-8,-48,45,69,-7,-4,-9
1688396590.8532453,20,30,68,34,-115,19,13,7
1688396590.8542461,-6,-9,-55,-80,127,13,0,-4
1688396590.8582442,9,29,67,81,27,6,3,10
1688396590.875233,4,-20,-56,-91,-108,-20,11,-1
1688396590.8782341,-13,-3,19,109,5,0,-7,-10
1688396590.8802304,4,17,69,45,58,10,2,1
1688396590.8812284,11,19,46,3,47,-18,-4,12
1688396590.892223,-128,-44,-1,12,-2,-6,24,16
1688396590.8932223,114,-18,6,8,-24,5,51,37
1688396590.8972187,-28,82,15,8,-6,13,-30,29
1688396590.898219,9,20,-2,-2,6,15,112,-1
1688396590.9002185,2,-57,-14,-20,-10,-17,-108,48
1688396590.9032164,0,44,8,-5,-2,-10,19,-66
1688396590.9052155,8,18,69,127,55,22,9,3
1688396590.9072142,-2,-6,-46,-61,90,-1,-8,0
1688396590.9102125,5,5,46,-25,-63,-28,-3,4
1688396590.912213,5,6,-15,48,99,23,13,4
1688396590.9132118,-2,-1,-32,13,37,-2,-2,-6
1688396590.9142115,-5,-2,11,-58,-128,1,-2,2
1688396590.9262033,-10,-21,11,25,61,5,-7,-10
1688396590.9272032,10,5,-71,-128,-94,-29,3,6
1688396590.9321992,6,17,96,127,68,8,3,2
1688396590.9331994,-14,-18,-35,-64,2,8,-10,-7
1688396590.951189,1,-5,-29,-15,8,16,4,0
1688396590.991168,-4,-9,3,30,-57,3,0,-2
1688396590.9961636,11,18,42,-65,-53,-36,1,7
1688396590.9991636,7,18,62,120,-39,2,1,1
1688396591.00216,-9,-18,-49,-128,65,3,-2,-8
1688396591.005159,-1,19,101,126,-17,7,-3,-3
1688396591.0071578,-10,-43,-128,-42,0,-6,6,4
1688396591.0101569,-5,6,78,-66,-28,6,-4,-6
1688396591.0121539,15,16,16,66,-28,-50,3,10
1688396591.018153,-3,-7,46,57,78,-2,-11,-5
1688396591.0201519,-11,-8,0,-37,51,13,-2,-7
1688396591.0211508,8,7,-28,-27,-84,-13,7,9
1688396591.0241497,8,12,26,-64,-35,14,6,4
1688396591.0261486,-9,-18,-32,3,-98,-2,1,-4
1688396591.0291445,13,23,64,8,-64,3,4,5
1688396591.0311434,-9,-15,-38,8,-12,10,-7,-8
1688396591.0371444,-4,1,13,-45,99,-5,-1,-2
1688396591.0401397,-5,-10,-50,-50,22,13,-10,-4
1688396591.0431387,-6,-10,-1,-106,-89,-14,3,-4
1688396591.0451374,5,18,-1,125,127,1,-3,2
1688396591.0531301,0,7,9,48,64,3,-2,-4
1688396591.054132,-9,-18,-21,-57,93,4,2,-5
1688396591.0571306,1,-4,-12,20,-54,-3,-3,0
1688396591.060135,12,14,14,11,0,4,9,10
1688396591.068122,-11,-16,-31,25,-52,9,-1,-6
1688396591.0701213,9,9,20,-8,-52,-15,2,4
1688396591.0751188,-4,3,-14,8,21,-11,-17,-7
1688396591.0771177,-7,-10,-19,8,-22,-3,11,-1
1688396591.0911088,1,8,21,8,-21,39,2,1
1688396591.0931082,-7,24,3,-22,12,-7,-9,-9
1688396591.0951068,32,-15,-22,-22,-23,-31,27,8
1688396591.0961072,-39,-15,5,18,10,2,15,16
1688396591.113096,-41,-87,-26,-22,13,-19,-74,-16
1688396591.1140969,-9,80,27,13,-3,31,35,-8
1688396591.1150954,7,-18,6,48,-12,-8,-10,-8
1688396591.116094,82,90,39,-11,36,21,25,16
1688396591.1320853,-56,-97,-34,-6,-36,-11,-48,-25
1688396591.167067,47,37,2,8,7,43,40,42
1688396591.171064,-34,29,10,12,5,7,4,8
1688396591.177061,43,-77,-26,-8,19,-16,-32,-15
1688396591.184057,9,38,-8,-28,-25,-5,-36,-32
1688396591.1860561,-121,-65,-7,-14,-3,-15,2,35
1688396591.1870563,-30,-38,-30,5,11,12,-10,-61
1688396591.1880538,13,31,11,-3,12,14,96,64
1688396591.1940506,117,127,49,84,14,49,27,-8
1688396591.196053,60,-91,-9,-55,-9,-42,-59,-46
1688396591.1990483,-69,-65,-28,-13,-7,-83,-44,37
1688396591.2000465,-39,-67,-28,-24,-27,-29,7,-58
1688396591.2010458,-16,-19,6,25,-2,8,26,-41
1688396591.2020452,127,-3,-12,13,8,22,34,9
1688396591.2040443,-83,-26,-6,-1,7,50,3,-19
1688396591.2050433,67,-66,-6,4,-1,2,6,16
1688396591.2110412,16,66,12,-16,5,-67,67,-19
1688396591.2130435,-7,-2,-19,-21,-20,13,-75,28
1688396591.2140393,26,7,-2,13,-11,-12,-81,49
1688396591.2150397,-81,-8,-18,-3,11,-3,30,-15
1688396591.233027,66,-60,-15,-27,-27,20,56,28
1688396591.2340279,-9,73,33,34,38,-12,37,11
1688396591.2350273,20,10,4,4,-20,5,-19,22
1688396591.237029,-48,-8,-20,-17,-18,-10,1,3
1688396591.2490199,-15,-39,-5,-2,12,2,-36,-47
1688396591.25002,-89,-6,0,5,2,25,39,2
1688396591.2550159,68,44,1,-8,-12,34,60,8
1688396591.2560146,67,-20,-8,-9,16,-1,-111,-38
1688396591.270008,-116,3,6,3,27,-62,-38,46
1688396591.2720091,66,-40,-13,5,-27,41,32,26
1688396591.273022,60,16,14,-3,-33,-67,28,-47
1688396591.2740219,-27,5,7,13,28,-52,-23,-24
1688396591.3229809,-30,13,-2,-5,-15,41,1,31
1688396591.326974,-11,5,-3,-14,-30,-9,26,-13
1688396591.329973,-40,-10,4,16,18,60,3,-33
1688396591.3339722,-7,26,11,1,-20,19,-21,56
1688396591.3379686,44,4,-3,-2,-19,-14,24,28
1688396591.3399684,-34,-18,-4,-9,-28,-23,-40,-22
1688396591.3429656,8,-5,-6,11,51,25,17,-15
1688396591.3449652,2,13,-35,-65,1,-54,4,-10
1688396591.3489618,-3,29,93,80,61,29,29,30
1688396591.3519623,-8,-33,-72,-100,-38,-19,-7,-24
1688396591.3559582,24,46,104,98,-90,19,-4,13
1688396591.3589566,-9,15,-38,-107,95,-47,4,4
1688396591.3609552,16,-3,31,-23,-10,9,6,9
1688396591.3619545,-18,-27,-65,-78,-77,-51,-25,-24
1688396591.3639538,22,24,36,65,24,-25,5,10
1688396591.3669527,-15,2,28,-47,-29,30,-9,-5
1688396591.3689508,4,-10,-74,-104,-89,10,5,-4
1688396591.3699508,3,-4,-23,57,22,37,4,-3
1688396591.3749492,-18,-17,-116,-128,69,1,7,3
1688396591.377946,6,16,61,113,80,48,-1,-8
1688396591.39194,-9,-27,-99,-123,-98,-20,-9,-2
1688396591.3959355,1,12,27,-19,1,-10,13,8
1688396591.3969336,35,50,76,82,8,-8,20,23
1688396591.3989346,-7,-2,-60,-76,21,14,-9,-12
1688396591.4129255,-4,-12,-26,-47,-3,-13,-11,-7
1688396591.4139256,0,9,41,81,67,14,1,4
1688396591.415925,-14,-33,-54,-127,-72,-6,1,-7
1688396591.416924,20,45,92,127,8,27,7,6
1688396591.4289165,-6,-12,-49,-77,126,10,0,2
1688396591.4299152,-14,-22,-40,-110,7,-19,-14,-13
1688396591.4349115,7,18,7,74,-26,3,-6,0
1688396591.4359133,-2,-10,-92,-48,-113,-33,7,10
1688396591.4499042,-2,-9,-31,-35,-91,-1,-1,-5
1688396591.4509046,10,8,-22,57,-90,2,4,3
1688396591.4579,-25,-34,13,3,68,6,-20,-21
1688396591.4599001,6,15,60,37,19,15,10,11
1688396591.4738958,1,6,20,14,-85,-3,1,-1
1688396591.47589,0,-13,-66,-128,106,-8,-10,-6
1688396591.4788888,-5,1,52,44,48,-16,-1,-3
1688396591.481886,11,5,-23,-83,-128,11,10,6
1688396591.4968762,-30,-30,-27,116,62,-3,-31,-30
1688396591.4988759,2,14,40,127,-69,-1,3,2
1688396591.4998748,10,-9,-86,-128,-128,-3,13,13
1688396591.5008745,-4,9,42,57,-74,-11,-6,-6
1688396591.5398552,7,-10,-26,-27,83,-7,10,11
1688396591.5538468,-8,-5,-19,-33,100,-1,-25,-22
1688396591.5588427,-3,10,-13,-39,31,19,3,-5
1688396591.5638397,2,-8,-21,-36,-70,39,8,3
1688396591.5688372,8,9,28,30,3,-1,11,1
1688396591.5718336,0,13,63,84,-106,-53,-10,-3
1688396591.5738387,-2,-18,-43,-102,-5,-1,3,10
1688396591.5758324,-18,-9,13,-73,-26,10,2,-22
1688396591.579833,19,16,23,81,96,-21,12,1
1688396591.5828283,4,6,-20,-128,-75,14,-24,-89
1688396591.5848262,19,-9,9,75,62,10,58,83
1688396591.5868263,-10,-1,-40,40,52,76,13,85
1688396591.588824,35,18,31,7,-43,74,-19,-35
1688396591.591826,-36,-4,11,7,80,10,-69,127
1688396591.5948226,-10,-7,-12,28,-32,-104,-92,17
1688396591.596822,-72,-23,-12,21,-63,-50,47,51
1688396591.5988193,74,3,-16,-88,-32,-20,-15,99
1688396591.599819,-56,-15,22,57,63,41,-27,0
1688396591.6008186,19,26,15,21,87,-26,14,-82
1688396591.602817,-20,-22,8,15,-46,34,-28,81
1688396591.6088138,2,0,-2,22,-35,47,-47,122
1688396591.6108148,29,2,4,-11,10,7,55,-77
1688396591.614811,19,-21,-21,-23,-126,-36,-20,-32
1688396591.6158109,-28,-1,-9,-6,35,77,31,-62
1688396591.6297996,35,18,22,20,68,44,60,-11
1688396591.630801,51,17,31,15,-52,-1,75,7
1688396591.6377962,-42,-4,-8,6,21,127,-30,114
1688396591.6397953,20,-7,-19,17,80,76,-123,-128
1688396591.6527867,-16,3,16,-13,8,-14,28,17
1688396591.6547878,48,15,13,23,76,95,99,66
1688396591.6557875,47,2,-12,-10,7,-72,-93,-61
1688396591.6577852,-38,18,17,8,85,63,14,97
1688396591.6687813,21,-12,10,20,-46,-86,83,23
1688396591.670783,-30,-9,-13,-32,-78,-82,-111,-66
1688396591.6827707,-8,10,8,13,44,64,33,-71
1688396591.6847699,-17,-14,-4,8,46,-56,-54,83
1688396591.6907718,-3,22,0,-8,-40,21,58,-61
1688396591.6927652,3,-21,-11,7,3,-43,46,-16
1688396591.696763,-1,12,29,12,-52,8,-10,10
1688396591.6987612,-23,-12,-7,-14,-8,-121,-51,-6
1688396591.7127528,-10,36,15,7,-33,23,41,62
1688396591.7147517,-8,-17,-18,-1,30,-13,-88,11
1688396591.7157526,-50,6,23,65,61,13,-32,-117
1688396591.7167513,22,-42,-42,-89,-72,15,90,30
1688396591.7287443,12,-44,-13,0,-26,-22,-53,-80
1688396591.7307444,59,92,32,30,-31,-6,32,127
1688396591.7347403,-76,-93,-30,-42,-14,41,114,65
1688396591.7357416,126,126,34,45,15,-83,-5,28
1688396591.7527306,-50,-72,-12,-41,12,-20,-117,-34
1688396591.762724,24,-59,11,-2,-14,-21,1,-106
1688396591.7987037,-1,-22,-12,-4,-24,-7,39,36
1688396591.801703,98,8,-7,6,-14,-3,41,-45
1688396591.8047028,-13,38,5,3,-13,-30,-27,17
1688396591.8126965,56,-11,12,12,27,18,8,24
1688396591.8156962,-54,-17,-17,-32,-27,5,-19,-49
1688396591.8186936,-53,-14,-1,11,22,4,77,-79
1688396591.8206918,5,-12,-6,15,10,-22,-51,13
1688396591.8216913,-32,-31,-8,2,12,-30,-34,-124
1688396591.824692,41,25,-7,-38,-17,-30,-83,48
1688396591.8296869,37,6,-4,-7,-2,8,49,45
1688396591.8316853,-128,11,-2,18,-10,-4,-20,-78
1688396591.8326843,75,-15,13,-8,16,5,-16,-30
1688396591.8336842,49,78,6,11,-10,5,-20,83
1688396591.8356845,2,-20,-7,18,-11,-15,-122,108
1688396591.8366823,-19,15,8,-34,14,8,-20,-82
1688396591.8376813,35,-53,-20,-3,-30,-23,-54,-64
1688396591.8396878,-42,-45,-31,0,12,-17,92,43
1688396591.8436797,-43,15,51,33,40,57,93,64
1688396591.8486755,-8,-87,-37,-11,-61,-10,103,70
1688396591.8496754,-27,106,34,23,26,106,23,-34
1688396591.8545675,107,-21,-6,-28,-15,-111,-93,27
1688396591.8585715,-74,-34,-36,-21,-42,35,3,-27
1688396591.8778362,123,107,4,-17,11,-33,27,-115
1688396591.8798358,-128,3,-10,-6,3,-59,91,127
1688396591.880834,68,-5,6,11,-7,99,-80,-119
1688396591.8818336,94,-28,-23,-10,4,-80,31,20
1688396591.8931637,5,-19,18,20,24,49,82,-70
1688396591.8941636,-74,-19,-9,-12,-20,-3,67,99
1688396591.896162,-74,-4,-4,-1,10,-6,20,-76
1688396591.8971617,-17,-15,-8,-12,1,-40,9,-113
1688396591.9085677,-29,-2,-2,35,8,21,-59,-30
1688396591.9105701,0,-9,-8,-29,21,-18,-61,-16
1688396591.9145675,8,0,-6,-36,-12,6,60,33
1688396591.9165685,-12,2,-3,-8,-42,-16,-49,-55
1688396591.9296513,4,-25,-2,9,1,11,-27,28
1688396591.9316735,-10,-13,-12,15,14,4,-15,-15
1688396591.9371922,1,19,15,9,-97,-2,8,-6
1688396591.9391859,-12,-12,-7,-32,-4,-17,-57,-42
1688396591.9522111,-10,7,5,28,110,12,-11,49
1688396591.9542344,16,-2,-3,9,-95,-10,4,7
1688396591.9606395,-13,3,-9,-39,-46,8,31,23
1688396591.96164,-15,-26,-42,12,6,-54,-21,-49
1688396591.9688456,10,5,58,-54,-12,5,9,35
1688396591.969846,4,6,-47,16,26,30,4,-23
