,timestamp,left_data_Ac_X,left_data_Ac_Y,left_data_Ac_Z,left_data_Gy_X,left_data_Gy_Y,left_data_Gy_Z,left_data_flex_1,left_data_flex_2,left_data_flex_3,left_data_flex_4,left_data_flex_5
0,1690861075746057700,0.543483794,-0.093373865,9.287108421,-0.105785601,0.023448698,-0.012257273,339377.5938,339377.5938,299902.3125,204234.75,298346.2813
1,1690861075747057700,0.541089594,-0.090979666,9.287108421,-0.106052071,0.023448698,-0.012257273,331962.0,342702.75,307868.5625,200881.7188,304244.75
2,1690861075748057700,0.541089594,-0.090979666,9.289502144,-0.106052071,0.023182238,-0.012257273,334713.3438,339377.5938,294129.0,201546.4063,297959.1875
3,1690861075749057700,0.545877993,-0.090979666,9.29189682,-0.105785601,0.023448698,-0.012257273,320000.0625,360112.4063,296802.3125,199342.0625,299122.9063
4,1690861075750057700,0.548272192,-0.093373865,9.294290543,-0.105785601,0.023182238,-0.012257273,325675.5625,343662.0,292994.1563,207894.7656,304644.2188
0,1690861075793658600,0.550666392,-0.090979666,9.284713745,-0.106052071,0.023182238,-0.012523737,342224.6563,349506.0313,310320.6563,203333.3281,296802.3125
1,1690861075794658600,0.550666392,-0.090979666,9.289502144,-0.106052071,0.023182238,-0.012257273,347541.0,358053.625,306653.3438,206053.7813,298346.2813
2,1690861075795658600,0.550666392,-0.090979666,9.289502144,-0.106052071,0.023448698,-0.012523737,336567.125,357541.9688,291866.0625,196739.1094,298734.1563
3,1690861075796658600,0.550666392,-0.090979666,9.289502144,-0.106052071,0.023448698,-0.012523737,328795.8125,349506.0313,307462.7188,203783.375,303051.25
4,1690861075797658600,0.550666392,-0.088585466,9.294290543,-0.106052071,0.023448698,-0.012523737,339377.5938,334252.3438,311144.5938,199780.4063,303051.25
0,1690861075820645600,0.541089594,-0.086191259,9.272743225,-0.106052071,0.023981623,-0.012523737,334252.3438,357541.9688,296802.3125,203783.375,305044.5625
1,1690861075821645600,0.541089594,-0.088585466,9.267954826,-0.105785601,0.023981623,-0.012523737,324352.375,339377.5938,312802.4063,206053.7813,299902.3125
2,1690861075822645600,0.538695395,-0.088585466,9.267954826,-0.105785601,0.023715161,-0.012790199,349506.0313,360112.4063,303051.25,202437.2188,305445.5938
3,1690861075823645600,0.538695395,-0.090979666,9.267954826,-0.106052071,0.023715161,-0.012790199,325233.6875,343181.8438,309500.0313,204234.75,304244.75
4,1690861075824645600,0.541089594,-0.088585466,9.270348549,-0.106052071,0.023715161,-0.012790199,334252.3438,364812.7188,302654.8125,204460.9531,298346.2813
0,1690861075841476200,0.538695395,-0.08379706,9.287108421,-0.106052071,0.023448698,-0.012523737,322165.0,333333.2813,310732.0938,200000.0156,304244.75
1,1690861075842476200,0.536301196,-0.079008654,9.287108421,-0.106318533,0.023448698,-0.012523737,342224.6563,345108.7188,299902.3125,204008.9063,303051.25
2,1690861075843476200,0.533906996,-0.079008654,9.287108421,-0.106318533,0.023715161,-0.012523737,335638.375,348521.3438,296034.8125,205597.0,296034.8125
3,1690861075844476200,0.531512797,-0.076614454,9.284713745,-0.106318533,0.023715161,-0.012523737,330147.0625,339377.5938,311557.7813,200219.9688,299122.9063
4,1690861075845476200,0.533906996,-0.076614454,9.282320023,-0.106318533,0.023981623,-0.012523737,349506.0313,351488.4063,311971.8438,201324.5156,299122.9063
0,1690861075861473300,0.536301196,-0.090979666,9.272743225,-0.105785601,0.023715161,-0.012523737,330147.0625,333333.2813,294129.0,204687.4844,296034.8125
1,1690861075862473300,0.536301196,-0.090979666,9.277531624,-0.105785601,0.023715161,-0.012257273,332418.125,349506.0313,314473.6563,206971.4844,299902.3125
2,1690861075863473300,0.533906996,-0.093373865,9.272743225,-0.105785601,0.023715161,-0.012257273,340796.5938,360629.9688,304644.2188,204687.4844,304244.75
3,1690861075864473300,0.533906996,-0.095768064,9.272743225,-0.106052071,0.023715161,-0.012523737,351986.875,357541.9688,313218.9688,204234.75,299902.3125
4,1690861075865473300,0.533906996,-0.095768064,9.272743225,-0.106052071,0.023715161,-0.012523737,331962.0,342224.6563,305847.4375,197385.5938,304644.2188
0,1690861075881462000,0.541089594,-0.090979666,9.275136948,-0.105519146,0.022915773,-0.012523737,347052.4063,336102.1875,306653.3438,204234.75,297959.1875
1,1690861075882462000,0.541089594,-0.093373865,9.275136948,-0.105785601,0.022915773,-0.012523737,334252.3438,335638.375,298346.2813,206053.7813,304244.75
2,1690861075883462000,0.538695395,-0.090979666,9.275136948,-0.105785601,0.022915773,-0.012790199,327453.0313,347541.0,306653.3438,199342.0625,303846.0938
3,1690861075884462000,0.536301196,-0.090979666,9.277531624,-0.105785601,0.023182238,-0.012790199,338906.6875,339849.6875,307057.6875,205369.1719,299512.1875
4,1690861075885462000,0.538695395,-0.088585466,9.284713745,-0.106052071,0.023182238,-0.012523737,324792.5625,341747.4688,306653.3438,205597.0,299902.3125
0,1690861075901512500,0.531512797,-0.086191259,9.272743225,-0.105785601,0.022915773,-0.012523737,333792.3438,347052.4063,294508.6875,197601.7813,299902.3125
1,1690861075902512500,0.529118598,-0.086191259,9.279925346,-0.105785601,0.022915773,-0.012523737,322165.0,346078.4375,309090.9375,206053.7813,296802.3125
2,1690861075903512500,0.531512797,-0.086191259,9.279925346,-0.105785601,0.022915773,-0.012523737,344625.4375,336567.125,310320.6563,204234.75,297959.1875
3,1690861075904512500,0.531512797,-0.08379706,9.282320023,-0.105785601,0.023182238,-0.012523737,328347.2813,367465.75,308682.5313,205369.1719,304644.2188
4,1690861075905512500,0.533906996,-0.086191259,9.282320023,-0.105785601,0.023182238,-0.012523737,331052.625,351986.875,302654.8125,205369.1719,305044.5625
0,1690861075925668100,0.536301196,-0.081402861,9.284713745,-0.105519146,0.023715161,-0.012257273,328347.2813,327453.0313,306249.9375,207894.7656,299902.3125
1,1690861075926668100,0.536301196,-0.08379706,9.282320023,-0.105785601,0.023715161,-0.012257273,349506.0313,334252.3438,311971.8438,204914.3594,304644.2188
2,1690861075927668100,0.541089594,-0.081402861,9.279925346,-0.105785601,0.023715161,-0.012523737,336567.125,354495.0938,294129.0,199780.4063,299902.3125
3,1690861075928668100,0.541089594,-0.079008654,9.279925346,-0.105785601,0.023448698,-0.012523737,346564.75,360112.4063,296802.3125,205597.0,299122.9063
4,1690861075929668100,0.543483794,-0.076614454,9.277531624,-0.105785601,0.023448698,-0.012523737,326118.6563,348521.3438,318711.5938,199342.0625,303448.3438
0,1690861075945686100,0.529118598,-0.088585466,9.279925346,-0.105785601,0.023448698,-0.012523737,321296.2188,349506.0313,308682.5313,202660.75,303846.0938
1,1690861075946686100,0.531512797,-0.08379706,9.275136948,-0.105785601,0.023448698,-0.012523737,327007.3125,367465.75,294129.0,202437.2188,305445.5938
2,1690861075947686100,0.531512797,-0.081402861,9.272743225,-0.106052071,0.023182238,-0.012523737,342702.75,341747.4688,302654.8125,206053.7813,299512.1875
3,1690861075948686100,0.533906996,-0.08379706,9.275136948,-0.106052071,0.023448698,-0.012523737,341271.4688,358053.625,293750.0,201324.5156,299902.3125
4,1690861075949686100,0.533906996,-0.08379706,9.272743225,-0.106052071,0.023448698,-0.012523737,322600.6563,334252.3438,306653.3438,204460.9531,305445.5938
0,1690861075964800800,0.543483794,-0.08379706,9.282320023,-0.105519146,0.023715161,-0.012790199,323913.0625,334252.3438,313636.375,199342.0625,304244.75
1,1690861075965800800,0.543483794,-0.08379706,9.279925346,-0.105785601,0.023715161,-0.012790199,342702.75,344143.0625,295270.2813,204460.9531,299902.3125
2,1690861075966800800,0.538695395,-0.086191259,9.282320023,-0.105519146,0.023715161,-0.012790199,341271.4688,335638.375,309090.9375,202660.75,304244.75
3,1690861075967800800,0.541089594,-0.086191259,9.277531624,-0.105519146,0.023715161,-0.012790199,335175.4375,344143.0625,306653.3438,202884.6094,304644.2188
4,1690861075968800800,0.543483794,-0.08379706,9.277531624,-0.105519146,0.023448698,-0.013056661,343181.8438,358053.625,306653.3438,201546.4063,299512.1875
0,1690861075985779100,0.543483794,-0.086191259,9.277531624,-0.106318533,0.023182238,-0.012523737,325233.6875,334252.3438,307868.5625,202884.6094,304644.2188
1,1690861075986779100,0.543483794,-0.088585466,9.279925346,-0.106318533,0.023182238,-0.012790199,328795.8125,349013.1563,306653.3438,204234.75,304244.75
2,1690861075987779100,0.545877993,-0.088585466,9.279925346,-0.106052071,0.023182238,-0.012523737,334713.3438,359596.0313,296802.3125,201768.5625,299902.3125
3,1690861075988779100,0.543483794,-0.088585466,9.284713745,-0.105785601,0.023182238,-0.012523737,322165.0,360112.4063,299512.1875,200660.7344,297959.1875
4,1690861075989779100,0.541089594,-0.090979666,9.282320023,-0.105785601,0.023182238,-0.012790199,331962.0,344143.0625,299512.1875,197818.2188,303846.0938
0,1690861076004778400,0.533906996,-0.098162271,9.299078941,-0.105785601,0.023448698,-0.013056661,322600.6563,338906.6875,309500.0313,206053.7813,296418.1875
1,1690861076005778400,0.533906996,-0.095768064,9.296685219,-0.106052071,0.023715161,-0.012790199,324792.5625,359080.625,309090.9375,206971.4844,305445.5938
2,1690861076006778400,0.536301196,-0.098162271,9.294290543,-0.106052071,0.023715161,-0.012790199,315314.5,338906.6875,295270.2813,206053.7813,305847.4375
3,1690861076007778400,0.536301196,-0.098162271,9.29189682,-0.106052071,0.023715161,-0.012523737,335638.375,334713.3438,304644.2188,196954.2969,299902.3125
4,1690861076008778400,0.536301196,-0.098162271,9.296685219,-0.105785601,0.023715161,-0.012523737,338436.75,327007.3125,302654.8125,203783.375,303051.25
0,1690861076023769700,0.541089594,-0.088585466,9.270348549,-0.105785601,0.023182238,-0.012257273,375609.8438,339849.6875,288519.875,203558.1875,303846.0938
1,1690861076024769700,0.538695395,-0.088585466,9.270348549,-0.105785601,0.023182238,-0.012257273,348030.625,337033.0313,305847.4375,202884.6094,296802.3125
2,1690861076025769700,0.536301196,-0.093373865,9.270348549,-0.105785601,0.023182238,-0.012523737,340322.625,337500.0625,296418.1875,207663.4531,296802.3125
3,1690861076026769700,0.536301196,-0.090979666,9.270348549,-0.105785601,0.023182238,-0.012790199,320000.0625,356013.3125,297572.8125,201324.5156,296802.3125
4,1690861076027769700,0.536301196,-0.090979666,9.267954826,-0.106052071,0.023182238,-0.012790199,323037.0938,336567.125,295270.2813,205597.0,305445.5938
0,1690861076043312500,0.541089594,-0.081402861,9.277531624,-0.105785601,0.023448698,-0.012790199,327453.0313,351488.4063,309090.9375,204234.75,306249.9375
1,1690861076044312500,0.541089594,-0.081402861,9.277531624,-0.105785601,0.023448698,-0.012523737,326118.6563,352486.1563,296802.3125,204914.3594,299122.9063
2,1690861076045312500,0.543483794,-0.079008654,9.279925346,-0.105785601,0.023448698,-0.012523737,340322.625,340322.625,294129.0,199561.0469,304244.75
3,1690861076046312500,0.541089594,-0.079008654,9.282320023,-0.105785601,0.023448698,-0.012257273,347052.4063,359596.0313,311144.5938,204234.75,298346.2813
4,1690861076047312500,0.543483794,-0.081402861,9.287108421,-0.105785601,0.023448698,-0.012257273,347052.4063,341271.4688,299512.1875,205597.0,302654.8125
0,1690861076063300100,0.538695395,-0.081402861,9.282320023,-0.105785601,0.023448698,-0.012523737,344143.0625,349506.0313,304244.75,204460.9531,293750.0
1,1690861076064300100,0.536301196,-0.081402861,9.282320023,-0.106052071,0.023448698,-0.012523737,334713.3438,349013.1563,294129.0,204687.4844,303051.25
2,1690861076065300100,0.536301196,-0.08379706,9.284713745,-0.106052071,0.023448698,-0.012523737,331052.625,331052.625,290000.0625,204687.4844,298734.1563
3,1690861076066300100,0.541089594,-0.086191259,9.284713745,-0.106052071,0.023182238,-0.012257273,347052.4063,332875.375,309090.9375,200440.1563,302259.2813
4,1690861076067300100,0.541089594,-0.086191259,9.284713745,-0.106052071,0.023182238,-0.011990812,322600.6563,360629.9688,295652.1875,196309.6875,298734.1563
0,1690861076082311700,0.531512797,-0.095768064,9.272743225,-0.105785601,0.023182238,-0.012523737,330147.0625,334713.3438,304244.75,196309.6875,299512.1875
1,1690861076083311700,0.529118598,-0.098162271,9.275136948,-0.106052071,0.023182238,-0.012257273,317431.2813,345108.7188,299902.3125,203333.3281,299512.1875
2,1690861076084311700,0.529118598,-0.093373865,9.272743225,-0.105785601,0.023182238,-0.012523737,327453.0313,350495.0313,305445.5938,205597.0,302259.2813
3,1690861076085311700,0.526724398,-0.095768064,9.270348549,-0.105785601,0.023448698,-0.012523737,335175.4375,347052.4063,313636.375,204460.9531,299122.9063
4,1690861076086311700,0.529118598,-0.093373865,9.267954826,-0.105785601,0.023448698,-0.012257273,352986.6875,337500.0625,295652.1875,201324.5156,303846.0938
0,1690861076104302000,0.541089594,-0.086191259,9.296685219,-0.105519146,0.022915773,-0.012257273,328347.2813,338436.75,315314.5,198905.1406,295270.2813
1,1690861076105302000,0.543483794,-0.086191259,9.287108421,-0.105785601,0.022915773,-0.012257273,327007.3125,355000.0938,311971.8438,198905.1406,298734.1563
2,1690861076106302000,0.541089594,-0.08379706,9.284713745,-0.105785601,0.023182238,-0.012257273,341271.4688,342702.75,294129.0,201546.4063,304244.75
3,1690861076107302000,0.538695395,-0.08379706,9.289502144,-0.105785601,0.023448698,-0.012257273,342224.6563,336567.125,305044.5625,200000.0156,296802.3125
4,1690861076108302000,0.536301196,-0.081402861,9.294290543,-0.105785601,0.023448698,-0.012257273,325675.5625,341271.4688,315736.0,201324.5156,304644.2188
0,1690861076136102300,0.536301196,-0.081402861,9.267954826,-0.105519146,0.022382848,-0.012790199,327007.3125,349506.0313,290371.8125,196309.6875,306653.3438
1,1690861076137102300,0.541089594,-0.081402861,9.267954826,-0.105519146,0.022382848,-0.012523737,338436.75,336567.125,311971.8438,201102.9531,303846.0938
2,1690861076138102300,0.541089594,-0.081402861,9.267954826,-0.105519146,0.022382848,-0.012257273,347052.4063,329245.2813,311144.5938,206053.7813,299122.9063
3,1690861076139102300,0.545877993,-0.081402861,9.26556015,-0.105519146,0.022649311,-0.012523737,329695.6875,333333.2813,314054.5938,201324.5156,299122.9063
4,1690861076140102300,0.543483794,-0.076614454,9.26556015,-0.105519146,0.022649311,-0.012523737,331962.0,349506.0313,312386.6875,199342.0625,299902.3125
0,1690861076170084100,0.550666392,-0.086191259,9.272743225,-0.105785601,0.023182238,-0.012523737,332418.125,361148.5625,306653.3438,198905.1406,302259.2813
1,1690861076171084100,0.548272192,-0.086191259,9.275136948,-0.105785601,0.022915773,-0.012790199,344625.4375,357031.3125,298734.1563,207894.7656,299902.3125
2,1690861076172084100,0.545877993,-0.086191259,9.275136948,-0.106052071,0.022649311,-0.012790199,337500.0625,336102.1875,307462.7188,197601.7813,304644.2188
3,1690861076173084100,0.545877993,-0.088585466,9.270348549,-0.105785601,0.022915773,-0.012523737,316158.5,338906.6875,295270.2813,206282.6875,305044.5625
4,1690861076174084100,0.543483794,-0.090979666,9.267954826,-0.105785601,0.022915773,-0.012790199,333333.2813,332875.375,299902.3125,198034.9063,303051.25
0,1690861076208387500,0.538695395,-0.086191259,9.272743225,-0.106052071,0.023981623,-0.011990812,331052.625,352986.6875,312386.6875,202660.75,304644.2188
1,1690861076209387500,0.538695395,-0.08379706,9.272743225,-0.105785601,0.023981623,-0.011990812,327007.3125,358053.625,309090.9375,205369.1719,307868.5625
2,1690861076210387500,0.538695395,-0.081402861,9.272743225,-0.105785601,0.023981623,-0.011724349,331962.0,334252.3438,299902.3125,201102.9531,299512.1875
3,1690861076211387500,0.541089594,-0.079008654,9.275136948,-0.105785601,0.023715161,-0.011990812,344625.4375,350495.0313,304644.2188,198251.9688,298346.2813
4,1690861076212387500,0.541089594,-0.079008654,9.277531624,-0.105785601,0.023715161,-0.011990812,341271.4688,327899.5625,306653.3438,202884.6094,299512.1875
0,1690861076245110800,0.536301196,-0.088585466,9.284713745,-0.105785601,0.023448698,-0.012523737,338436.75,350495.0313,303051.25,201546.4063,299122.9063
1,1690861076246110800,0.538695395,-0.086191259,9.282320023,-0.105785601,0.023448698,-0.012523737,320000.0625,349506.0313,296418.1875,201324.5156,299512.1875
2,1690861076247110800,0.538695395,-0.086191259,9.282320023,-0.106052071,0.023448698,-0.012790199,329245.2813,337033.0313,287051.0,196954.2969,296802.3125
3,1690861076248110800,0.538695395,-0.088585466,9.284713745,-0.106052071,0.023448698,-0.012523737,345108.7188,355506.0625,294129.0,202660.75,305445.5938
4,1690861076249110800,0.538695395,-0.088585466,9.284713745,-0.106052071,0.023448698,-0.012790199,337033.0313,335175.4375,303051.25,204234.75,298346.2813
0,1690861076271781600,0.538695395,-0.08379706,9.279925346,-0.106052071,0.023182238,-0.012257273,345108.7188,346564.75,306653.3438,196739.1094,299902.3125
1,1690861076272781600,0.538695395,-0.086191259,9.282320023,-0.106052071,0.023448698,-0.012257273,344625.4375,346564.75,306653.3438,204234.75,299902.3125
2,1690861076273781600,0.543483794,-0.086191259,9.284713745,-0.106052071,0.023448698,-0.012257273,346078.4375,352986.6875,294129.0,200881.7188,299902.3125
3,1690861076274781600,0.541089594,-0.086191259,9.282320023,-0.106052071,0.023448698,-0.011990812,341271.4688,364812.7188,306653.3438,200000.0156,298734.1563
4,1690861076275781600,0.541089594,-0.086191259,9.284713745,-0.106052071,0.023182238,-0.012257273,339377.5938,357031.3125,305847.4375,206053.7813,297959.1875
0,1690861076293534300,0.536301196,-0.095768064,9.287108421,-0.106318533,0.023715161,-0.012257273,330147.0625,343181.8438,314054.5938,196739.1094,298734.1563
1,1690861076294534300,0.533906996,-0.095768064,9.289502144,-0.106318533,0.023448698,-0.012257273,334713.3438,341747.4688,296802.3125,206971.4844,299122.9063
2,1690861076295534300,0.533906996,-0.095768064,9.289502144,-0.106318533,0.023715161,-0.012257273,342224.6563,348521.3438,302259.2813,200000.0156,299902.3125
3,1690861076296534300,0.533906996,-0.095768064,9.282320023,-0.106318533,0.023715161,-0.012257273,326118.6563,360112.4063,309500.0313,208126.4375,304644.2188
4,1690861076297534300,0.533906996,-0.093373865,9.272743225,-0.106584989,0.023715161,-0.011990812,320863.25,331506.8125,299902.3125,204008.9063,299902.3125
0,1690861076323985300,0.533906996,-0.081402861,9.275136948,-0.106052071,0.023448698,-0.012257273,333333.2813,344625.4375,296418.1875,199123.4063,298346.2813
1,1690861076324985300,0.536301196,-0.08379706,9.277531624,-0.106052071,0.023448698,-0.011990812,331052.625,338436.75,308682.5313,203783.375,302259.2813
2,1690861076325985300,0.531512797,-0.086191259,9.277531624,-0.106052071,0.023448698,-0.012257273,334713.3438,340796.5938,299902.3125,197601.7813,297572.8125
3,1690861076326985300,0.533906996,-0.086191259,9.279925346,-0.106052071,0.023182238,-0.012523737,336567.125,365340.9375,299902.3125,203333.3281,305445.5938
4,1690861076327985300,0.533906996,-0.088585466,9.284713745,-0.105785601,0.023715161,-0.012523737,326562.5,355000.0938,299122.9063,200000.0156,295270.2813
0,1690861076354405300,0.533906996,-0.086191259,9.267954826,-0.106052071,0.024514547,-0.012523737,320431.1563,358053.625,313636.375,197818.2188,296802.3125
1,1690861076355405300,0.533906996,-0.08379706,9.267954826,-0.106052071,0.024248086,-0.012523737,334252.3438,346564.75,293750.0,198034.9063,299902.3125
2,1690861076356405300,0.533906996,-0.08379706,9.272743225,-0.106052071,0.024248086,-0.012523737,323913.0625,350495.0313,307057.6875,197818.2188,304644.2188
3,1690861076357405300,0.531512797,-0.079008654,9.26556015,-0.105785601,0.023981623,-0.012523737,335175.4375,361148.5625,296034.8125,199342.0625,297959.1875
4,1690861076358405300,0.533906996,-0.079008654,9.26556015,-0.105785601,0.023981623,-0.012790199,325675.5625,358053.625,311144.5938,204460.9531,299902.3125
0,1690861076380391500,0.541089594,-0.081402861,9.279925346,-0.105785601,0.023448698,-0.012523737,343181.8438,340796.5938,302654.8125,202437.2188,298346.2813
1,1690861076381391500,0.538695395,-0.08379706,9.277531624,-0.105785601,0.023448698,-0.012523737,327453.0313,337500.0625,312802.4063,199780.4063,298734.1563
2,1690861076382391500,0.533906996,-0.08379706,9.277531624,-0.105785601,0.023448698,-0.012523737,332875.375,334252.3438,299122.9063,204914.3594,299902.3125
3,1690861076383391500,0.533906996,-0.081402861,9.282320023,-0.106052071,0.023448698,-0.012257273,320431.1563,349506.0313,299902.3125,202660.75,302654.8125
4,1690861076384391500,0.536301196,-0.076614454,9.287108421,-0.106052071,0.023182238,-0.012523737,346564.75,353991.0938,306249.9375,200219.9688,296802.3125
0,1690861076401378200,0.538695395,-0.088585466,9.275136948,-0.106052071,0.024248086,-0.012523737,337033.0313,352986.6875,306653.3438,200660.7344,294889.0
1,1690861076402378200,0.536301196,-0.086191259,9.272743225,-0.106052071,0.024248086,-0.012523737,342702.75,341747.4688,299122.9063,200660.7344,299122.9063
2,1690861076403378200,0.538695395,-0.086191259,9.267954826,-0.105785601,0.023981623,-0.012790199,321730.2188,344143.0625,313636.375,205597.0,299122.9063
3,1690861076404378200,0.541089594,-0.08379706,9.267954826,-0.106052071,0.023981623,-0.012790199,328347.2813,337033.0313,309090.9375,197169.7969,302654.8125
4,1690861076405378200,0.541089594,-0.086191259,9.26556015,-0.105785601,0.023981623,-0.012790199,327007.3125,352486.1563,292241.4063,197601.7813,304244.75
0,1690861076428363300,0.533906996,-0.086191259,9.284713745,-0.105785601,0.023448698,-0.012257273,340796.5938,365870.3125,303051.25,196739.1094,294129.0
1,1690861076429363300,0.531512797,-0.086191259,9.287108421,-0.105785601,0.023715161,-0.012523737,321296.2188,360112.4063,306249.9375,203333.3281,298346.2813
2,1690861076430363300,0.536301196,-0.086191259,9.287108421,-0.105785601,0.023981623,-0.012523737,327453.0313,340796.5938,315736.0,202214.0313,299122.9063
3,1690861076431363300,0.538695395,-0.088585466,9.289502144,-0.106052071,0.023715161,-0.012523737,323474.5625,335638.375,299902.3125,204687.4844,305445.5938
4,1690861076432363300,0.538695395,-0.088585466,9.287108421,-0.105785601,0.023715161,-0.012523737,322165.0,343181.8438,308682.5313,205141.5625,298734.1563
0,1690861076455346600,0.543483794,-0.08379706,9.277531624,-0.105785601,0.023715161,-0.012790199,323913.0625,337500.0625,306653.3438,201768.5625,299902.3125
1,1690861076456346600,0.541089594,-0.08379706,9.277531624,-0.105785601,0.023715161,-0.013056661,324792.5625,338906.6875,316158.5,203558.1875,299122.9063
2,1690861076457346600,0.541089594,-0.08379706,9.277531624,-0.106052071,0.023715161,-0.013056661,341271.4688,331962.0,316158.5,201324.5156,299902.3125
3,1690861076458346600,0.536301196,-0.079008654,9.275136948,-0.106318533,0.023715161,-0.013056661,344625.4375,338436.75,313636.375,199342.0625,302654.8125
4,1690861076459346600,0.531512797,-0.081402861,9.277531624,-0.106318533,0.023715161,-0.012790199,324352.375,356013.3125,312802.4063,202884.6094,303051.25
0,1690861076478333300,0.529118598,-0.081402861,9.287108421,-0.106318533,0.023448698,-0.012523737,329245.2813,348521.3438,290744.1875,202884.6094,303051.25
1,1690861076479333300,0.529118598,-0.081402861,9.284713745,-0.106052071,0.023715161,-0.012790199,348030.625,338906.6875,294129.0,198034.9063,296802.3125
2,1690861076480333300,0.526724398,-0.081402861,9.287108421,-0.106052071,0.023448698,-0.012523737,341747.4688,349506.0313,307057.6875,201324.5156,299122.9063
3,1690861076481333300,0.529118598,-0.08379706,9.287108421,-0.106052071,0.023448698,-0.012790199,326118.6563,340322.625,296802.3125,197818.2188,303846.0938
4,1690861076482333300,0.529118598,-0.08379706,9.287108421,-0.106052071,0.023448698,-0.013056661,327453.0313,353991.0938,309500.0313,201324.5156,299902.3125
0,1690861076500321500,0.541089594,-0.079008654,9.267954826,-0.106318533,0.022382848,-0.012790199,334252.3438,349506.0313,306653.3438,205597.0,299902.3125
1,1690861076501321500,0.541089594,-0.081402861,9.279925346,-0.106052071,0.023182238,-0.012790199,315314.5,337500.0625,297187.1875,204008.9063,296418.1875
2,1690861076502321500,0.536301196,-0.079008654,9.289502144,-0.106052071,0.023448698,-0.012790199,330147.0625,338436.75,312802.4063,202884.6094,299902.3125
3,1690861076503321500,0.536301196,-0.081402861,9.282320023,-0.106052071,0.023182238,-0.012790199,334252.3438,343181.8438,297959.1875,206512.0156,296802.3125
4,1690861076504321500,0.536301196,-0.081402861,9.279925346,-0.106052071,0.022915773,-0.012790199,320000.0625,357031.3125,296418.1875,198905.1406,303051.25
0,1690861076522307100,0.545877993,-0.079008654,9.279925346,-0.105785601,0.023448698,-0.012523737,334252.3438,349506.0313,311144.5938,200219.9688,298346.2813
1,1690861076523307100,0.541089594,-0.079008654,9.275136948,-0.105519146,0.022915773,-0.012523737,323913.0625,348030.625,308682.5313,204914.3594,298346.2813
2,1690861076524307100,0.541089594,-0.076614454,9.267954826,-0.105785601,0.022915773,-0.012523737,327453.0313,334713.3438,305847.4375,201324.5156,298346.2813
3,1690861076525307100,0.541089594,-0.08379706,9.279925346,-0.105785601,0.023448698,-0.012790199,327453.0313,342224.6563,303051.25,198687.1094,304244.75
4,1690861076526307100,0.541089594,-0.086191259,9.29189682,-0.105785601,0.023715161,-0.012523737,341271.4688,356013.3125,294889.0,202214.0313,303051.25
0,1690861076548293800,0.541089594,-0.081402861,9.279925346,-0.105785601,0.023715161,-0.012523737,327007.3125,336567.125,311557.7813,198905.1406,299122.9063
1,1690861076549293800,0.536301196,-0.081402861,9.282320023,-0.105785601,0.023448698,-0.012523737,331962.0,328347.2813,299902.3125,198687.1094,302654.8125
2,1690861076550293800,0.533906996,-0.081402861,9.282320023,-0.105785601,0.023448698,-0.012257273,331052.625,328347.2813,294129.0,204687.4844,296034.8125
3,1690861076551293800,0.536301196,-0.081402861,9.279925346,-0.105785601,0.023448698,-0.012257273,320000.0625,361148.5625,307868.5625,201324.5156,296034.8125
4,1690861076552293800,0.533906996,-0.08379706,9.284713745,-0.105519146,0.023448698,-0.012257273,328347.2813,349506.0313,294129.0,201546.4063,303051.25
0,1690861076572391000,0.531512797,-0.088585466,9.287108421,-0.106318533,0.023448698,-0.011724349,334252.3438,360629.9688,312386.6875,202437.2188,302654.8125
1,1690861076573391000,0.526724398,-0.08379706,9.282320023,-0.106052071,0.022915773,-0.011990812,341271.4688,350495.0313,296034.8125,203783.375,298734.1563
2,1690861076574391000,0.531512797,-0.08379706,9.270348549,-0.106318533,0.022382848,-0.011990812,337500.0625,337500.0625,307057.6875,204914.3594,299902.3125
3,1690861076575391000,0.536301196,-0.086191259,9.270348549,-0.106318533,0.022915773,-0.011990812,327007.3125,359080.625,295270.2813,205597.0,297959.1875
4,1690861076576391000,0.536301196,-0.086191259,9.275136948,-0.106052071,0.023448698,-0.011990812,320863.25,335175.4375,299122.9063,204687.4844,299512.1875
0,1690861076598376900,0.543483794,-0.088585466,9.26556015,-0.105785601,0.023182238,-0.012790199,327007.3125,331052.625,314473.6563,190838.0313,297959.1875
1,1690861076599376900,0.545877993,-0.086191259,9.263166428,-0.105785601,0.023182238,-0.012790199,326562.5,361148.5625,303051.25,201324.5156,299902.3125
2,1690861076600376900,0.543483794,-0.090979666,9.263166428,-0.105785601,0.022915773,-0.012790199,330147.0625,337967.9688,312386.6875,200000.0156,299902.3125
3,1690861076601376900,0.543483794,-0.088585466,9.267954826,-0.105785601,0.023182238,-0.012790199,321296.2188,351986.875,303051.25,200219.9688,305847.4375
4,1690861076602376900,0.541089594,-0.090979666,9.270348549,-0.105785601,0.023448698,-0.012790199,332875.375,339377.5938,298346.2813,198034.9063,296034.8125
0,1690861076618413900,0.541089594,-0.088585466,9.287108421,-0.106052071,0.023981623,-0.012523737,348030.625,344625.4375,297572.8125,205369.1719,299512.1875
1,1690861076619413900,0.541089594,-0.088585466,9.296685219,-0.106052071,0.023981623,-0.012790199,347052.4063,343662.0,298734.1563,204687.4844,302259.2813
2,1690861076620413900,0.538695395,-0.088585466,9.308655739,-0.105785601,0.023981623,-0.012790199,334252.3438,357541.9688,304644.2188,201991.1563,294508.6875
3,1690861076621413900,0.541089594,-0.090979666,9.308655739,-0.105785601,0.023715161,-0.012790199,324352.375,349506.0313,311144.5938,206053.7813,303051.25
4,1690861076622413900,0.543483794,-0.093373865,9.30386734,-0.105519146,0.023448698,-0.012790199,320000.0625,360629.9688,296034.8125,204687.4844,304244.75
0,1690861076642409400,0.543483794,-0.079008654,9.275136948,-0.106052071,0.023448698,-0.012523737,324352.375,352486.1563,305044.5625,201102.9531,295652.1875
1,1690861076643409400,0.545877993,-0.079008654,9.287108421,-0.105785601,0.023448698,-0.012523737,332875.375,347541.0,311144.5938,201324.5156,299902.3125
2,1690861076644409400,0.548272192,-0.079008654,9.29189682,-0.105785601,0.023448698,-0.012257273,327899.5625,339377.5938,309090.9375,201324.5156,299902.3125
3,1690861076645409400,0.550666392,-0.079008654,9.294290543,-0.105785601,0.023448698,-0.012523737,334252.3438,350495.0313,309090.9375,198034.9063,303846.0938
4,1690861076646409400,0.548272192,-0.081402861,9.296685219,-0.105785601,0.023448698,-0.012523737,321296.2188,341747.4688,291866.0625,202660.75,299512.1875
0,1690861076664576100,0.538695395,-0.086191259,9.289502144,-0.105785601,0.023182238,-0.012257273,320000.0625,362189.6563,294129.0,202437.2188,297572.8125
1,1690861076665576100,0.538695395,-0.081402861,9.284713745,-0.105785601,0.023182238,-0.011990812,343181.8438,339377.5938,309090.9375,204234.75,299122.9063
2,1690861076666576100,0.541089594,-0.079008654,9.279925346,-0.105785601,0.023182238,-0.012257273,320000.0625,357031.3125,296418.1875,203783.375,306653.3438
3,1690861076667576100,0.538695395,-0.08379706,9.284713745,-0.106052071,0.023182238,-0.012257273,327899.5625,345108.7188,293371.7813,204687.4844,296418.1875
4,1690861076668576100,0.541089594,-0.08379706,9.284713745,-0.106052071,0.023182238,-0.012523737,346078.4375,348030.625,318283.9063,203558.1875,305445.5938
0,1690861076684814300,0.543483794,-0.090979666,9.275136948,-0.105519146,0.023715161,-0.013056661,337033.0313,349506.0313,299512.1875,198905.1406,299902.3125
1,1690861076685814300,0.545877993,-0.093373865,9.277531624,-0.105519146,0.023448698,-0.013323124,335175.4375,337033.0313,294129.0,204914.3594,303051.25
2,1690861076686814300,0.545877993,-0.090979666,9.275136948,-0.105519146,0.023182238,-0.013056661,347052.4063,353991.0938,294129.0,204460.9531,299512.1875
3,1690861076687814300,0.545877993,-0.090979666,9.272743225,-0.105519146,0.023182238,-0.013056661,343181.8438,334713.3438,304644.2188,201546.4063,295652.1875
4,1690861076688814300,0.548272192,-0.095768064,9.275136948,-0.105785601,0.023182238,-0.012790199,335638.375,351986.875,294508.6875,197601.7813,299902.3125
0,1690861076844482700,0.553060591,-0.088585466,9.284713745,-0.105785601,0.023448698,-0.013056661,341271.4688,355000.0938,303448.3438,206053.7813,299902.3125
1,1690861076845482700,0.548272192,-0.090979666,9.289502144,-0.106052071,0.023715161,-0.012790199,334252.3438,339377.5938,306653.3438,203108.8125,305044.5625
2,1690861076846482700,0.545877993,-0.088585466,9.287108421,-0.106052071,0.023715161,-0.013056661,342702.75,332875.375,303051.25,198469.3438,297959.1875
3,1690861076847482700,0.543483794,-0.090979666,9.284713745,-0.106052071,0.023981623,-0.013056661,321296.2188,334252.3438,315314.5,199123.4063,296034.8125
4,1690861076848482700,0.545877993,-0.088585466,9.284713745,-0.105785601,0.023981623,-0.012790199,340322.625,342702.75,312802.4063,201324.5156,296034.8125
0,1690861076886173000,0.541089594,-0.074220255,9.279925346,-0.105785601,0.023981623,-0.012523737,331506.8125,357031.3125,316158.5,203783.375,294889.0
1,1690861076887173000,0.543483794,-0.074220255,9.275136948,-0.105785601,0.023981623,-0.012523737,327007.3125,332875.375,304644.2188,204914.3594,297959.1875
2,1690861076888173000,0.543483794,-0.074220255,9.277531624,-0.105785601,0.023981623,-0.012523737,320000.0625,344625.4375,299122.9063,200000.0156,297959.1875
3,1690861076889173000,0.545877993,-0.074220255,9.277531624,-0.106052071,0.023981623,-0.012790199,331506.8125,324352.375,307462.7188,201324.5156,297959.1875
4,1690861076890173000,0.545877993,-0.074220255,9.275136948,-0.106052071,0.023981623,-0.012790199,339849.6875,351488.4063,299902.3125,198251.9688,303051.25
0,1690861076928927000,0.543483794,-0.088585466,9.277531624,-0.105785601,0.024514547,-0.012523737,332418.125,358566.5313,294129.0,202214.0313,302259.2813
1,1690861076929927000,0.543483794,-0.088585466,9.279925346,-0.105785601,0.024248086,-0.012523737,329245.2813,361148.5625,301864.5313,204234.75,304244.75
2,1690861076930927000,0.543483794,-0.090979666,9.279925346,-0.105785601,0.023981623,-0.012523737,327899.5625,344143.0625,294129.0,198469.3438,296802.3125
3,1690861076931927000,0.545877993,-0.088585466,9.279925346,-0.105785601,0.023981623,-0.012523737,322600.6563,338906.6875,308682.5313,205825.2344,294129.0
4,1690861076932927000,0.548272192,-0.090979666,9.287108421,-0.105785601,0.023715161,-0.012790199,322165.0,334252.3438,307868.5625,206971.4844,298346.2813
0,1690861077045642300,0.541089594,-0.095768064,9.287108421,-0.106052071,0.024248086,-0.012790199,349013.1563,338906.6875,304244.75,204460.9531,297572.8125
1,1690861077046642300,0.541089594,-0.098162271,9.287108421,-0.106052071,0.023981623,-0.012790199,334252.3438,348521.3438,308275.1875,198251.9688,298346.2813
2,1690861077047642300,0.538695395,-0.098162271,9.287108421,-0.106052071,0.023981623,-0.012523737,331052.625,349506.0313,309500.0313,198034.9063,295270.2813
3,1690861077048642300,0.538695395,-0.098162271,9.289502144,-0.106052071,0.023981623,-0.012523737,325233.6875,327899.5625,304244.75,205141.5625,296034.8125
4,1690861077049642300,0.536301196,-0.098162271,9.289502144,-0.105785601,0.023981623,-0.012523737,329695.6875,339377.5938,310732.0938,200881.7188,299902.3125
0,1690861077158961000,0.541089594,-0.074220255,9.279925346,-0.106052071,0.023715161,-0.012523737,334252.3438,341747.4688,303846.0938,197385.5938,294889.0
1,1690861077159961000,0.538695395,-0.069431849,9.282320023,-0.106318533,0.023715161,-0.012523737,331052.625,343662.0,299902.3125,200000.0156,297572.8125
2,1690861077160961000,0.538695395,-0.069431849,9.287108421,-0.106318533,0.023715161,-0.012523737,343181.8438,354495.0938,305445.5938,198034.9063,303051.25
3,1690861077161961000,0.538695395,-0.071826048,9.284713745,-0.106052071,0.023448698,-0.012257273,348030.625,360629.9688,310732.0938,202660.75,310732.0938
4,1690861077162961000,0.538695395,-0.071826048,9.287108421,-0.106052071,0.023448698,-0.012523737,349506.0313,355506.0625,308682.5313,203333.3281,299122.9063
0,1690861077313387900,0.550666392,-0.079008654,9.287108421,-0.106052071,0.023981623,-0.012257273,329695.6875,351986.875,299512.1875,200000.0156,299902.3125
1,1690861077314387900,0.550666392,-0.079008654,9.29189682,-0.106052071,0.024248086,-0.012523737,321296.2188,333333.2813,295270.2813,198034.9063,299512.1875
2,1690861077315387900,0.548272192,-0.081402861,9.29189682,-0.106052071,0.024248086,-0.012523737,339849.6875,356521.6563,297959.1875,204914.3594,299122.9063
3,1690861077316387900,0.550666392,-0.079008654,9.294290543,-0.106052071,0.024514547,-0.012523737,323037.0938,338436.75,307868.5625,201768.5625,299122.9063
4,1690861077317387900,0.553060591,-0.079008654,9.294290543,-0.106052071,0.024514547,-0.012257273,319569.75,352986.6875,314473.6563,200660.7344,296802.3125
0,1690861077374402300,0.543483794,-0.090979666,9.294290543,-0.106052071,0.024514547,-0.012523737,335638.375,360629.9688,296418.1875,202884.6094,299512.1875
1,1690861077375402300,0.543483794,-0.088585466,9.29189682,-0.106052071,0.024248086,-0.012790199,339377.5938,357541.9688,292241.4063,197169.7969,297959.1875
2,1690861077376402300,0.545877993,-0.088585466,9.282320023,-0.105785601,0.023981623,-0.012790199,344625.4375,341271.4688,302259.2813,198034.9063,296034.8125
3,1690861077377402300,0.545877993,-0.088585466,9.277531624,-0.106052071,0.023981623,-0.012523737,327007.3125,338906.6875,313218.9688,201991.1563,295270.2813
4,1690861077378402300,0.548272192,-0.086191259,9.277531624,-0.105785601,0.023715161,-0.012790199,347052.4063,329245.2813,308682.5313,201991.1563,302654.8125
0,1690861077442568600,0.533906996,-0.093373865,9.275136948,-0.106052071,0.024514547,-0.012523737,326562.5,349999.9688,292994.1563,203558.1875,304644.2188
1,1690861077443568600,0.531512797,-0.093373865,9.275136948,-0.105785601,0.024514547,-0.012790199,344625.4375,334252.3438,303051.25,201102.9531,297959.1875
2,1690861077444568600,0.531512797,-0.093373865,9.275136948,-0.105785601,0.024514547,-0.012523737,333333.2813,349506.0313,306249.9375,200881.7188,298346.2813
3,1690861077445568600,0.533906996,-0.093373865,9.270348549,-0.106052071,0.024514547,-0.012523737,342702.75,359080.625,298346.2813,203783.375,304244.75
4,1690861077446568600,0.533906996,-0.093373865,9.270348549,-0.106052071,0.024781011,-0.012523737,348521.3438,331506.8125,312802.4063,201991.1563,302654.8125
0,1690861077482362300,0.538695395,-0.081402861,9.282320023,-0.106052071,0.023448698,-0.012257273,337033.0313,340796.5938,303051.25,204234.75,294129.0
1,1690861077483362300,0.538695395,-0.081402861,9.282320023,-0.106052071,0.023448698,-0.012790199,342224.6563,357031.3125,299122.9063,198251.9688,304244.75
2,1690861077484362300,0.538695395,-0.079008654,9.279925346,-0.105519146,0.023448698,-0.012523737,345108.7188,357031.3125,292994.1563,200000.0156,298346.2813
3,1690861077485362300,0.538695395,-0.079008654,9.277531624,-0.105785601,0.023448698,-0.012523737,338436.75,339377.5938,307057.6875,207432.4063,294508.6875
4,1690861077486362300,0.541089594,-0.076614454,9.279925346,-0.105519146,0.023448698,-0.012523737,327007.3125,346564.75,299902.3125,201324.5156,299902.3125
0,1690861077521160600,0.538695395,-0.086191259,9.275136948,-0.106052071,0.023981623,-0.012257273,332875.375,357541.9688,307057.6875,207201.7656,299512.1875
1,1690861077522160600,0.536301196,-0.08379706,9.272743225,-0.106052071,0.023715161,-0.012257273,339377.5938,337033.0313,312802.4063,201324.5156,306249.9375
2,1690861077523160600,0.531512797,-0.08379706,9.272743225,-0.106318533,0.023981623,-0.012257273,335638.375,334252.3438,294508.6875,203783.375,295270.2813
3,1690861077524160600,0.531512797,-0.08379706,9.277531624,-0.106318533,0.023981623,-0.012257273,333333.2813,328795.8125,297959.1875,204460.9531,297572.8125
4,1690861077525160600,0.529118598,-0.079008654,9.282320023,-0.106052071,0.023715161,-0.012257273,342702.75,334252.3438,303846.0938,199123.4063,297959.1875
0,1690861077553389700,0.529118598,-0.076614454,9.282320023,-0.105785601,0.023715161,-0.013056661,325675.5625,345108.7188,307462.7188,201324.5156,305445.5938
1,1690861077554389700,0.529118598,-0.079008654,9.284713745,-0.106052071,0.023715161,-0.012790199,334252.3438,346078.4375,313636.375,197385.5938,298346.2813
2,1690861077555389700,0.531512797,-0.076614454,9.282320023,-0.106052071,0.023448698,-0.012790199,334713.3438,361148.5625,314473.6563,205141.5625,299902.3125
3,1690861077556389700,0.536301196,-0.079008654,9.282320023,-0.106052071,0.023448698,-0.012790199,325675.5625,348521.3438,317006.0625,199780.4063,296034.8125
4,1690861077557389700,0.538695395,-0.08379706,9.284713745,-0.105785601,0.023182238,-0.012523737,341747.4688,341271.4688,299902.3125,205597.0,299902.3125
0,1690861077580075900,0.538695395,-0.076614454,9.277531624,-0.106318533,0.023182238,-0.012790199,342702.75,361148.5625,307868.5625,204008.9063,298346.2813
1,1690861077581075900,0.543483794,-0.076614454,9.277531624,-0.106584989,0.023182238,-0.012790199,337033.0313,358566.5313,304644.2188,198034.9063,299902.3125
2,1690861077582075900,0.545877993,-0.079008654,9.275136948,-0.106318533,0.023448698,-0.012790199,345108.7188,335175.4375,297187.1875,201546.4063,297572.8125
3,1690861077583075900,0.543483794,-0.08379706,9.275136948,-0.106318533,0.023448698,-0.013056661,331962.0,334252.3438,293750.0,200219.9688,302259.2813
4,1690861077584075900,0.545877993,-0.086191259,9.277531624,-0.106318533,0.023448698,-0.013056661,341271.4688,334252.3438,310320.6563,200000.0156,297959.1875
0,1690861077628406600,0.526724398,-0.074220255,9.296685219,-0.106052071,0.023715161,-0.012523737,335175.4375,337033.0313,302654.8125,195881.5,299122.9063
1,1690861077629406600,0.526724398,-0.079008654,9.29189682,-0.106052071,0.023715161,-0.012523737,316158.5,340322.625,312802.4063,198469.3438,298734.1563
2,1690861077630406600,0.529118598,-0.076614454,9.287108421,-0.106052071,0.023715161,-0.012523737,327007.3125,350495.0313,294129.0,200219.9688,298346.2813
3,1690861077631406600,0.531512797,-0.079008654,9.287108421,-0.106052071,0.023715161,-0.012790199,329695.6875,335638.375,305847.4375,202437.2188,297572.8125
4,1690861077632406600,0.533906996,-0.079008654,9.284713745,-0.106318533,0.023981623,-0.012790199,328347.2813,352486.1563,311144.5938,202660.75,298346.2813
0,1690861077661096800,0.541089594,-0.086191259,9.277531624,-0.105785601,0.022915773,-0.012790199,328347.2813,357541.9688,303846.0938,201102.9531,296802.3125
1,1690861077662096800,0.543483794,-0.088585466,9.282320023,-0.105785601,0.022649311,-0.013056661,329695.6875,339377.5938,298346.2813,197169.7969,296034.8125
2,1690861077663096800,0.543483794,-0.086191259,9.275136948,-0.105785601,0.022382848,-0.012790199,347052.4063,340796.5938,296034.8125,200881.7188,299122.9063
3,1690861077664096800,0.541089594,-0.086191259,9.277531624,-0.105785601,0.022382848,-0.012790199,331962.0,341271.4688,298346.2813,199123.4063,306653.3438
4,1690861077665096800,0.541089594,-0.086191259,9.279925346,-0.105519146,0.022382848,-0.013056661,329245.2813,352986.6875,309090.9375,207432.4063,298734.1563
0,1690861077691854300,0.545877993,-0.088585466,9.287108421,-0.106318533,0.023448698,-0.011990812,337500.0625,336567.125,296418.1875,201324.5156,297572.8125
1,1690861077692854300,0.545877993,-0.088585466,9.284713745,-0.106052071,0.023448698,-0.011990812,334713.3438,349999.9688,294129.0,203108.8125,299122.9063
2,1690861077693854300,0.548272192,-0.088585466,9.284713745,-0.106052071,0.023448698,-0.011990812,323474.5625,356521.6563,313218.9688,198034.9063,299902.3125
3,1690861077694854300,0.550666392,-0.086191259,9.287108421,-0.106052071,0.023715161,-0.011990812,340796.5938,352486.1563,296034.8125,203333.3281,296802.3125
4,1690861077695854300,0.553060591,-0.08379706,9.287108421,-0.106052071,0.023448698,-0.011724349,334252.3438,365870.3125,310320.6563,199123.4063,297959.1875
0,1690861077721506400,0.545877993,-0.086191259,9.29189682,-0.106052071,0.023448698,-0.012257273,336567.125,334252.3438,314473.6563,205141.5625,299902.3125
1,1690861077722506400,0.543483794,-0.08379706,9.284713745,-0.106052071,0.023448698,-0.012257273,327007.3125,334252.3438,296802.3125,202884.6094,299902.3125
2,1690861077723506400,0.545877993,-0.086191259,9.279925346,-0.105785601,0.023448698,-0.012257273,341271.4688,359080.625,315736.0,201324.5156,296802.3125
3,1690861077724506400,0.545877993,-0.086191259,9.277531624,-0.105785601,0.023182238,-0.011990812,323037.0938,340796.5938,298346.2813,199342.0625,298346.2813
4,1690861077725506400,0.548272192,-0.08379706,9.277531624,-0.105785601,0.022915773,-0.012257273,337500.0625,331506.8125,295270.2813,198905.1406,297959.1875
0,1690861077751378500,0.538695395,-0.088585466,9.277531624,-0.105785601,0.023448698,-0.012257273,340322.625,337500.0625,296418.1875,204234.75,296418.1875
1,1690861077752378500,0.543483794,-0.088585466,9.270348549,-0.105785601,0.023448698,-0.012257273,345108.7188,353991.0938,311144.5938,203558.1875,302259.2813
2,1690861077753378500,0.541089594,-0.086191259,9.275136948,-0.105785601,0.023715161,-0.012257273,325675.5625,352486.1563,313636.375,198469.3438,304644.2188
3,1690861077754378500,0.541089594,-0.088585466,9.282320023,-0.105785601,0.023715161,-0.012257273,332875.375,353991.0938,312386.6875,204687.4844,298346.2813
4,1690861077755378500,0.538695395,-0.090979666,9.282320023,-0.106052071,0.023715161,-0.012257273,331962.0,364812.7188,307868.5625,203333.3281,299122.9063
0,1690861077803740800,0.538695395,-0.081402861,9.272743225,-0.105785601,0.023448698,-0.011990812,321296.2188,349013.1563,295270.2813,202884.6094,297959.1875
1,1690861077804740800,0.538695395,-0.08379706,9.267954826,-0.105785601,0.023448698,-0.012257273,324352.375,355000.0938,311144.5938,206971.4844,296418.1875
2,1690861077805740800,0.541089594,-0.08379706,9.263166428,-0.105785601,0.023448698,-0.011990812,333792.3438,346564.75,311144.5938,203783.375,302654.8125
3,1690861077806740800,0.538695395,-0.086191259,9.263166428,-0.105785601,0.023448698,-0.012257273,323037.0938,335175.4375,294129.0,197385.5938,297187.1875
4,1690861077807740800,0.538695395,-0.086191259,9.267954826,-0.106052071,0.023182238,-0.012257273,320000.0625,334252.3438,296034.8125,200881.7188,303051.25
0,1690861077848171100,0.543483794,-0.08379706,9.294290543,-0.106052071,0.023448698,-0.012257273,332418.125,349506.0313,297959.1875,205597.0,303846.0938
1,1690861077849171100,0.541089594,-0.08379706,9.294290543,-0.105785601,0.023448698,-0.012523737,335638.375,362189.6563,306653.3438,200219.9688,302654.8125
2,1690861077850171100,0.541089594,-0.086191259,9.294290543,-0.106052071,0.023715161,-0.012790199,340322.625,334713.3438,289258.5,202214.0313,298734.1563
3,1690861077851171100,0.543483794,-0.086191259,9.299078941,-0.106052071,0.023448698,-0.012790199,332418.125,350991.1563,313636.375,202884.6094,299902.3125
4,1690861077852171100,0.541089594,-0.088585466,9.299078941,-0.106052071,0.023448698,-0.013056661,345108.7188,335638.375,299512.1875,204914.3594,302654.8125
0,1690861077939386100,0.538695395,-0.088585466,9.284713745,-0.105519146,0.023448698,-0.012523737,320431.1563,341271.4688,313636.375,204914.3594,299902.3125
1,1690861077940386100,0.538695395,-0.090979666,9.287108421,-0.105785601,0.023448698,-0.012257273,334252.3438,335175.4375,309090.9375,200881.7188,298346.2813
2,1690861077941386100,0.541089594,-0.090979666,9.287108421,-0.105785601,0.023182238,-0.012257273,331962.0,359596.0313,314473.6563,199780.4063,294889.0
3,1690861077942386100,0.543483794,-0.088585466,9.284713745,-0.105785601,0.022915773,-0.011990812,326562.5,334252.3438,299122.9063,207432.4063,299512.1875
4,1690861077943386100,0.543483794,-0.090979666,9.284713745,-0.106318533,0.022915773,-0.012257273,340322.625,355506.0625,315314.5,203783.375,299902.3125
0,1690861078099272800,0.538695395,-0.090979666,9.277531624,-0.106318533,0.023448698,-0.011990812,328795.8125,338906.6875,295652.1875,201324.5156,299122.9063
1,1690861078100272800,0.538695395,-0.086191259,9.277531624,-0.106052071,0.023448698,-0.012257273,349506.0313,348030.625,304244.75,198034.9063,302654.8125
2,1690861078101272800,0.538695395,-0.08379706,9.279925346,-0.105785601,0.023715161,-0.012257273,334252.3438,337500.0625,302259.2813,206512.0156,296034.8125
3,1690861078102272800,0.541089594,-0.081402861,9.275136948,-0.105785601,0.023448698,-0.011990812,331052.625,360629.9688,295270.2813,201324.5156,303846.0938
4,1690861078103272800,0.541089594,-0.081402861,9.272743225,-0.105785601,0.023715161,-0.012257273,331506.8125,353991.0938,299902.3125,197385.5938,296802.3125
0,1690861078127254600,0.543483794,-0.086191259,9.270348549,-0.105519146,0.023182238,-0.012790199,338436.75,326562.5,305445.5938,202437.2188,303051.25
1,1690861078128254600,0.541089594,-0.08379706,9.270348549,-0.105519146,0.023182238,-0.012790199,326118.6563,349506.0313,307462.7188,206512.0156,299902.3125
2,1690861078129254600,0.538695395,-0.08379706,9.270348549,-0.105519146,0.023182238,-0.012523737,322600.6563,352986.6875,306653.3438,201546.4063,299902.3125
3,1690861078130254600,0.541089594,-0.088585466,9.272743225,-0.105785601,0.023182238,-0.012523737,326562.5,332875.375,309500.0313,202884.6094,302654.8125
4,1690861078131254600,0.538695395,-0.088585466,9.272743225,-0.106052071,0.023182238,-0.012790199,334252.3438,356521.6563,299512.1875,201324.5156,297572.8125
0,1690861078186463400,0.529118598,-0.086191259,9.26556015,-0.106052071,0.023182238,-0.012523737,331052.625,358053.625,296418.1875,205369.1719,296802.3125
1,1690861078187463400,0.529118598,-0.086191259,9.270348549,-0.106052071,0.023182238,-0.012257273,331506.8125,338906.6875,306653.3438,201768.5625,303051.25
2,1690861078188463400,0.531512797,-0.086191259,9.270348549,-0.106052071,0.023182238,-0.012523737,340796.5938,349999.9688,310732.0938,201768.5625,296802.3125
3,1690861078189463400,0.531512797,-0.086191259,9.270348549,-0.106052071,0.023182238,-0.012523737,340796.5938,354495.0938,294129.0,198469.3438,299902.3125
4,1690861078190463400,0.531512797,-0.088585466,9.270348549,-0.106052071,0.023182238,-0.012257273,328795.8125,334252.3438,314054.5938,201546.4063,305044.5625
0,1690861078271074500,0.541089594,-0.08379706,9.284713745,-0.105785601,0.023448698,-0.012523737,341747.4688,356521.6563,294508.6875,201546.4063,299122.9063
1,1690861078272074500,0.541089594,-0.08379706,9.279925346,-0.105785601,0.023448698,-0.012523737,329245.2813,357031.3125,299122.9063,206971.4844,297959.1875
2,1690861078273074500,0.541089594,-0.08379706,9.277531624,-0.106052071,0.023715161,-0.012523737,329245.2813,341271.4688,296034.8125,201324.5156,299512.1875
3,1690861078274074500,0.541089594,-0.081402861,9.284713745,-0.105785601,0.023448698,-0.012523737,329695.6875,335175.4375,309500.0313,200881.7188,304244.75
4,1690861078275074500,0.541089594,-0.079008654,9.284713745,-0.105785601,0.023448698,-0.012257273,318711.5938,352986.6875,296802.3125,201324.5156,294508.6875
0,1690861078365660100,0.541089594,-0.081402861,9.277531624,-0.105519146,0.023448698,-0.012257273,321296.2188,333333.2813,303846.0938,205141.5625,294129.0
1,1690861078366660100,0.538695395,-0.081402861,9.267954826,-0.105519146,0.023448698,-0.012257273,337500.0625,365870.3125,307462.7188,202437.2188,299902.3125
2,1690861078367660100,0.538695395,-0.081402861,9.270348549,-0.105519146,0.023448698,-0.012523737,337500.0625,357541.9688,302654.8125,198469.3438,299122.9063
3,1690861078368660100,0.541089594,-0.08379706,9.267954826,-0.105785601,0.023448698,-0.012523737,344143.0625,365870.3125,309500.0313,203333.3281,297572.8125
4,1690861078369660100,0.543483794,-0.079008654,9.26556015,-0.105519146,0.023715161,-0.012523737,324792.5625,357541.9688,297959.1875,198034.9063,296418.1875
0,1690861078468096600,0.545877993,-0.086191259,9.277531624,-0.106052071,0.023182238,-0.011990812,349506.0313,355000.0938,304244.75,204234.75,303448.3438
1,1690861078469096600,0.548272192,-0.086191259,9.284713745,-0.106052071,0.023448698,-0.012257273,327007.3125,343181.8438,306653.3438,199342.0625,306653.3438
2,1690861078470096600,0.548272192,-0.088585466,9.29189682,-0.105785601,0.023448698,-0.012257273,348521.3438,348030.625,296802.3125,201324.5156,303846.0938
3,1690861078471096600,0.545877993,-0.086191259,9.287108421,-0.105785601,0.023448698,-0.012257273,344143.0625,353488.3438,294508.6875,201324.5156,299902.3125
4,1690861078472096600,0.545877993,-0.086191259,9.284713745,-0.105519146,0.023448698,-0.012257273,334252.3438,334252.3438,292241.4063,197601.7813,294508.6875
0,1690861078520087100,0.536301196,-0.090979666,9.289502144,-0.105785601,0.023448698,-0.012523737,348030.625,340796.5938,299902.3125,203333.3281,295270.2813
1,1690861078521087100,0.538695395,-0.088585466,9.287108421,-0.105785601,0.023448698,-0.012523737,335638.375,349506.0313,311971.8438,201324.5156,296802.3125
2,1690861078522087100,0.536301196,-0.090979666,9.289502144,-0.105785601,0.023448698,-0.012523737,331962.0,332875.375,299122.9063,205597.0,305445.5938
3,1690861078523087100,0.538695395,-0.090979666,9.287108421,-0.105785601,0.023448698,-0.012523737,334713.3438,337500.0625,307868.5625,201102.9531,296418.1875
4,1690861078524087100,0.538695395,-0.093373865,9.287108421,-0.106052071,0.023448698,-0.012257273,342702.75,334252.3438,304244.75,201324.5156,303846.0938
0,1690861078610293600,0.541089594,-0.081402861,9.296685219,-0.106052071,0.023715161,-0.012257273,349506.0313,357031.3125,308275.1875,204460.9531,297572.8125
1,1690861078611293600,0.543483794,-0.081402861,9.299078941,-0.106052071,0.023448698,-0.012257273,324352.375,351986.875,297959.1875,198905.1406,297959.1875
2,1690861078612293600,0.545877993,-0.081402861,9.296685219,-0.106052071,0.023182238,-0.012523737,349506.0313,339849.6875,298734.1563,199123.4063,299902.3125
3,1690861078613293600,0.543483794,-0.08379706,9.296685219,-0.106052071,0.023182238,-0.012523737,322165.0,341747.4688,312802.4063,197169.7969,294508.6875
4,1690861078614293600,0.543483794,-0.08379706,9.299078941,-0.106052071,0.023448698,-0.012257273,347052.4063,349999.9688,294129.0,202660.75,299512.1875
0,1690861078714198800,0.541089594,-0.081402861,9.275136948,-0.105519146,0.023448698,-0.012257273,329695.6875,344143.0625,312802.4063,205597.0,296418.1875
1,1690861078715198800,0.543483794,-0.081402861,9.282320023,-0.105785601,0.023981623,-0.012257273,327007.3125,338906.6875,296034.8125,202884.6094,296802.3125
2,1690861078716198800,0.545877993,-0.08379706,9.284713745,-0.105519146,0.023715161,-0.012257273,335175.4375,344625.4375,299122.9063,204234.75,304644.2188
3,1690861078717198800,0.548272192,-0.08379706,9.277531624,-0.105519146,0.023448698,-0.011990812,334252.3438,349506.0313,293750.0,198469.3438,304244.75
4,1690861078718198800,0.550666392,-0.086191259,9.282320023,-0.105519146,0.023715161,-0.011990812,346564.75,349999.9688,316158.5,201546.4063,296802.3125
