,timestamp_leitura,right_data_Ac_X,right_data_Ac_Y,right_data_Ac_Z,right_data_Gy_X,right_data_Gy_Y,right_data_Gy_Z
0,1688394070.7791228,0.361524463,-0.090979666,10.65659142,0.106318533,0.011457887,-0.016254211
1,1688394070.7791228,0.366312861,-0.090979666,10.65898609,0.106318533,0.011191424,-0.016520673
2,1688394070.7791228,0.368707061,-0.090979666,10.66856289,0.106318533,0.011191424,-0.016520673
3,1688394070.7791228,0.368707061,-0.090979666,10.66616821,0.106318533,0.011191424,-0.016787136
4,1688394070.7791228,0.366312861,-0.095768064,10.66616821,0.106584989,0.011191424,-0.016787136
5,1688394070.7791228,0.366312861,-0.098162271,10.66377449,0.106584989,0.011191424,-0.016787136
6,1688394070.7791228,0.368707061,-0.098162271,10.66616821,0.106318533,0.011191424,-0.016520673
7,1688394070.7791228,0.368707061,-0.10055647,10.66377449,0.106318533,0.010924961,-0.016787136
8,1688394070.7791228,0.37349546,-0.10055647,10.66377449,0.106318533,0.010924961,-0.016520673
9,1688394070.7791228,0.375889659,-0.10055647,10.66137981,0.106318533,0.010924961,-0.016520673
10,1688394070.7791228,0.375889659,-0.10055647,10.65419769,0.106318533,0.010924961,-0.016787136
11,1688394070.7791228,0.378283858,-0.098162271,10.65419769,0.106318533,0.011191424,-0.016787136
12,1688394070.7791228,0.378283858,-0.098162271,10.65659142,0.106318533,0.011191424,-0.016787136
13,1688394070.7791228,0.375889659,-0.098162271,10.64940929,0.106318533,0.011191424,-0.016787136
14,1688394070.7791228,0.37349546,-0.098162271,10.6446209,0.106052071,0.010924961,-0.016787136
0,1688394070.8271167,0.356736064,-0.086191259,10.6398325,0.106318533,0.011457887,-0.016254211
1,1688394070.8271167,0.359130263,-0.086191259,10.6398325,0.106318533,0.011457887,-0.016254211
2,1688394070.8271167,0.359130263,-0.088585466,10.6398325,0.106318533,0.011457887,-0.016520673
3,1688394070.8271167,0.356736064,-0.086191259,10.6398325,0.106318533,0.011457887,-0.016520673
4,1688394070.8271167,0.359130263,-0.086191259,10.64222622,0.106318533,0.011191424,-0.016520673
5,1688394070.8271167,0.359130263,-0.088585466,10.6446209,0.106318533,0.011191424,-0.016520673
6,1688394070.8271167,0.359130263,-0.088585466,10.65180302,0.106052071,0.011191424,-0.016254211
7,1688394070.8271167,0.359130263,-0.088585466,10.64940929,0.106318533,0.011191424,-0.016520673
8,1688394070.8271167,0.354341865,-0.088585466,10.64701462,0.106052071,0.011191424,-0.016520673
9,1688394070.8271167,0.354341865,-0.086191259,10.64701462,0.106318533,0.010924961,-0.016520673
10,1688394070.8271167,0.354341865,-0.086191259,10.64940929,0.106052071,0.011191424,-0.016520673
11,1688394070.8271167,0.356736064,-0.088585466,10.64940929,0.106052071,0.011191424,-0.016520673
12,1688394070.8271167,0.359130263,-0.090979666,10.65180302,0.106318533,0.011191424,-0.016254211
13,1688394070.8271167,0.361524463,-0.093373865,10.65180302,0.106318533,0.011191424,-0.016520673
14,1688394070.8271167,0.361524463,-0.093373865,10.64701462,0.106052071,0.011191424,-0.016520673
0,1688394070.8650732,0.356736064,-0.093373865,10.65659142,0.106052071,0.011191424,-0.016520673
1,1688394070.8650732,0.356736064,-0.095768064,10.65180302,0.106052071,0.011457887,-0.016520673
2,1688394070.8650732,0.356736064,-0.095768064,10.64940929,0.106052071,0.011457887,-0.016520673
3,1688394070.8650732,0.356736064,-0.098162271,10.64940929,0.106052071,0.011457887,-0.016520673
4,1688394070.8650732,0.359130263,-0.10055647,10.6446209,0.106052071,0.011457887,-0.016520673
5,1688394070.8650732,0.359130263,-0.10055647,10.64701462,0.106052071,0.011191424,-0.016520673
6,1688394070.8650732,0.359130263,-0.098162271,10.64701462,0.106052071,0.011191424,-0.016520673
7,1688394070.8650732,0.356736064,-0.098162271,10.64940929,0.106318533,0.011191424,-0.016520673
8,1688394070.8650732,0.356736064,-0.095768064,10.64940929,0.106052071,0.011191424,-0.016520673
9,1688394070.8650732,0.354341865,-0.095768064,10.64940929,0.106052071,0.011191424,-0.016520673
10,1688394070.8650732,0.351947635,-0.095768064,10.64940929,0.106052071,0.011191424,-0.016520673
11,1688394070.8650732,0.351947635,-0.095768064,10.65419769,0.106052071,0.011457887,-0.016520673
12,1688394070.8650732,0.354341865,-0.098162271,10.65419769,0.106052071,0.011457887,-0.016254211
13,1688394070.8650732,0.356736064,-0.098162271,10.65419769,0.106052071,0.011457887,-0.016254211
14,1688394070.8650732,0.356736064,-0.098162271,10.65419769,0.106052071,0.011191424,-0.016520673
0,1688394070.942032,0.363918662,-0.090979666,10.6398325,0.106318533,0.011457887,-0.016254211
1,1688394070.942032,0.363918662,-0.090979666,10.64701462,0.106584989,0.011457887,-0.015987748
2,1688394070.942032,0.363918662,-0.090979666,10.64940929,0.106584989,0.011457887,-0.015987748
3,1688394070.942032,0.363918662,-0.090979666,10.64940929,0.106584989,0.011457887,-0.016254211
4,1688394070.942032,0.361524463,-0.093373865,10.64940929,0.106318533,0.011191424,-0.015987748
5,1688394070.942032,0.363918662,-0.093373865,10.65180302,0.106318533,0.011191424,-0.016254211
6,1688394070.942032,0.363918662,-0.093373865,10.64701462,0.106318533,0.011191424,-0.016520673
7,1688394070.942032,0.363918662,-0.093373865,10.6446209,0.106052071,0.011191424,-0.016520673
8,1688394070.942032,0.363918662,-0.093373865,10.6446209,0.106052071,0.011457887,-0.016520673
9,1688394070.942032,0.361524463,-0.093373865,10.6398325,0.106052071,0.011724349,-0.016520673
10,1688394070.942032,0.361524463,-0.090979666,10.6398325,0.106052071,0.011724349,-0.016520673
11,1688394070.942032,0.361524463,-0.090979666,10.6398325,0.106052071,0.011457887,-0.016520673
12,1688394070.942032,0.361524463,-0.090979666,10.6398325,0.106052071,0.011457887,-0.016520673
13,1688394070.942032,0.363918662,-0.093373865,10.64222622,0.106052071,0.011457887,-0.016254211
14,1688394070.942032,0.361524463,-0.093373865,10.64222622,0.105785601,0.011191424,-0.016254211
0,1688394070.9820065,0.354341865,-0.088585466,10.6254673,0.106318533,0.011724349,-0.016520673
1,1688394070.9820065,0.356736064,-0.088585466,10.62786102,0.106052071,0.011457887,-0.016254211
2,1688394070.9820065,0.354341865,-0.088585466,10.6254673,0.106318533,0.011457887,-0.016254211
3,1688394070.9820065,0.356736064,-0.093373865,10.6254673,0.106052071,0.011457887,-0.016520673
4,1688394070.9820065,0.356736064,-0.095768064,10.6254673,0.106052071,0.011191424,-0.016520673
5,1688394070.9820065,0.354341865,-0.095768064,10.6254673,0.105785601,0.011191424,-0.016520673
6,1688394070.9820065,0.351947635,-0.093373865,10.62307262,0.105785601,0.011191424,-0.016254211
7,1688394070.9820065,0.356736064,-0.095768064,10.6254673,0.105785601,0.011191424,-0.016254211
8,1688394070.9820065,0.356736064,-0.095768064,10.62786102,0.105785601,0.010924961,-0.016254211
9,1688394070.9820065,0.359130263,-0.098162271,10.63264942,0.105785601,0.011191424,-0.016520673
10,1688394070.9820065,0.359130263,-0.098162271,10.6398325,0.105785601,0.011191424,-0.016520673
11,1688394070.9820065,0.359130263,-0.098162271,10.64701462,0.105785601,0.011191424,-0.016254211
12,1688394070.9820065,0.361524463,-0.10055647,10.65180302,0.105785601,0.011457887,-0.016520673
13,1688394070.9820065,0.359130263,-0.10055647,10.66137981,0.106318533,0.011457887,-0.016254211
14,1688394070.9820065,0.359130263,-0.10055647,10.66856289,0.106318533,0.011724349,-0.016254211
0,1688394071.0099897,0.349553436,-0.10055647,10.64222622,0.106318533,0.011724349,-0.016254211
1,1688394071.0099897,0.351947635,-0.10055647,10.6446209,0.106052071,0.011724349,-0.016254211
2,1688394071.0099897,0.354341865,-0.10055647,10.64701462,0.106318533,0.011724349,-0.016254211
3,1688394071.0099897,0.356736064,-0.10055647,10.65419769,0.106584989,0.011724349,-0.016520673
4,1688394071.0099897,0.354341865,-0.10055647,10.66137981,0.106318533,0.011724349,-0.016520673
5,1688394071.0099897,0.356736064,-0.10055647,10.66856289,0.106584989,0.011724349,-0.016254211
6,1688394071.0099897,0.356736064,-0.098162271,10.66856289,0.106318533,0.011724349,-0.016254211
7,1688394071.0099897,0.354341865,-0.098162271,10.66616821,0.106052071,0.011724349,-0.016520673
8,1688394071.0099897,0.356736064,-0.093373865,10.66377449,0.106052071,0.011724349,-0.016254211
9,1688394071.0099897,0.356736064,-0.093373865,10.65898609,0.106052071,0.011724349,-0.016254211
10,1688394071.0099897,0.359130263,-0.090979666,10.65659142,0.106318533,0.011724349,-0.016254211
11,1688394071.0099897,0.359130263,-0.093373865,10.65180302,0.106318533,0.011457887,-0.016520673
12,1688394071.0099897,0.356736064,-0.090979666,10.6446209,0.106584989,0.011457887,-0.016520673
13,1688394071.0099897,0.359130263,-0.090979666,10.6398325,0.106584989,0.011191424,-0.016254211
14,1688394071.0099897,0.361524463,-0.090979666,10.63743782,0.106318533,0.011191424,-0.016520673
0,1688394071.0379744,0.349553436,-0.098162271,10.65419769,0.106318533,0.010658499,-0.016254211
1,1688394071.0379744,0.347159237,-0.095768064,10.65180302,0.106318533,0.010658499,-0.016520673
2,1688394071.0379744,0.344765037,-0.095768064,10.64701462,0.106318533,0.010658499,-0.016520673
3,1688394071.0379744,0.344765037,-0.095768064,10.6398325,0.106318533,0.010658499,-0.016520673
4,1688394071.0379744,0.344765037,-0.095768064,10.6350441,0.106318533,0.010924961,-0.016520673
5,1688394071.0379744,0.351947635,-0.093373865,10.6398325,0.106318533,0.010924961,-0.016520673
6,1688394071.0379744,0.354341865,-0.093373865,10.64222622,0.106318533,0.011457887,-0.016520673
7,1688394071.0379744,0.354341865,-0.093373865,10.64701462,0.106318533,0.011457887,-0.016520673
8,1688394071.0379744,0.354341865,-0.093373865,10.6446209,0.106318533,0.011457887,-0.016520673
9,1688394071.0379744,0.354341865,-0.090979666,10.6446209,0.106318533,0.011191424,-0.016254211
10,1688394071.0379744,0.356736064,-0.088585466,10.64940929,0.106318533,0.011457887,-0.016520673
11,1688394071.0379744,0.361524463,-0.090979666,10.65180302,0.106318533,0.011457887,-0.016520673
12,1688394071.0379744,0.361524463,-0.095768064,10.65419769,0.106318533,0.011191424,-0.016520673
13,1688394071.0379744,0.359130263,-0.095768064,10.65898609,0.106318533,0.011457887,-0.016787136
14,1688394071.0379744,0.356736064,-0.10055647,10.66137981,0.106318533,0.011457887,-0.016520673
0,1688394071.0659573,0.366312861,-0.098162271,10.64701462,0.106318533,0.011457887,-0.016254211
1,1688394071.0659573,0.363918662,-0.095768064,10.64940929,0.106052071,0.011191424,-0.015987748
2,1688394071.0659573,0.359130263,-0.095768064,10.64701462,0.106318533,0.011191424,-0.015987748
3,1688394071.0659573,0.356736064,-0.098162271,10.6446209,0.106052071,0.011191424,-0.015987748
4,1688394071.0659573,0.356736064,-0.095768064,10.64222622,0.106052071,0.011191424,-0.015987748
5,1688394071.0659573,0.356736064,-0.093373865,10.64222622,0.105785601,0.011457887,-0.015987748
6,1688394071.0659573,0.359130263,-0.090979666,10.6350441,0.106052071,0.011457887,-0.015987748
7,1688394071.0659573,0.359130263,-0.088585466,10.6350441,0.106052071,0.011457887,-0.015987748
8,1688394071.0659573,0.361524463,-0.086191259,10.63743782,0.106052071,0.011724349,-0.015987748
9,1688394071.0659573,0.363918662,-0.088585466,10.63743782,0.106052071,0.011724349,-0.015987748
10,1688394071.0659573,0.366312861,-0.090979666,10.6350441,0.106318533,0.011724349,-0.015987748
11,1688394071.0659573,0.366312861,-0.090979666,10.6398325,0.106052071,0.011724349,-0.015987748
12,1688394071.0659573,0.368707061,-0.093373865,10.6446209,0.106052071,0.011990812,-0.015987748
13,1688394071.0659573,0.366312861,-0.090979666,10.64701462,0.106318533,0.011990812,-0.015987748
14,1688394071.0659573,0.363918662,-0.093373865,10.64701462,0.106318533,0.011990812,-0.015987748
0,1688394071.0949414,0.361524463,-0.093373865,10.63264942,0.106052071,0.011457887,-0.016254211
1,1688394071.0949414,0.361524463,-0.093373865,10.6398325,0.106052071,0.011457887,-0.016254211
2,1688394071.0949414,0.363918662,-0.093373865,10.6398325,0.106318533,0.011191424,-0.016254211
3,1688394071.0949414,0.363918662,-0.093373865,10.64222622,0.106584989,0.011191424,-0.016254211
4,1688394071.0949414,0.361524463,-0.098162271,10.64701462,0.106584989,0.011191424,-0.016254211
5,1688394071.0949414,0.361524463,-0.098162271,10.64940929,0.106584989,0.011457887,-0.016254211
6,1688394071.0949414,0.361524463,-0.098162271,10.64940929,0.106584989,0.011457887,-0.016254211
7,1688394071.0949414,0.361524463,-0.095768064,10.65180302,0.106318533,0.011191424,-0.016254211
8,1688394071.0949414,0.363918662,-0.095768064,10.64940929,0.106584989,0.011191424,-0.016254211
9,1688394071.0949414,0.361524463,-0.095768064,10.65419769,0.106584989,0.011191424,-0.016254211
10,1688394071.0949414,0.363918662,-0.098162271,10.64940929,0.106584989,0.011191424,-0.016254211
11,1688394071.0949414,0.366312861,-0.095768064,10.6446209,0.106584989,0.011191424,-0.015987748
12,1688394071.0949414,0.366312861,-0.093373865,10.6350441,0.106584989,0.010924961,-0.016254211
13,1688394071.0949414,0.366312861,-0.090979666,10.6350441,0.106584989,0.010924961,-0.016254211
14,1688394071.0949414,0.361524463,-0.093373865,10.62786102,0.106584989,0.010924961,-0.016254211
0,1688394071.1229248,0.356736064,-0.093373865,10.6302557,0.105785601,0.011457887,-0.016787136
1,1688394071.1229248,0.356736064,-0.095768064,10.6302557,0.105785601,0.011191424,-0.016520673
2,1688394071.1229248,0.356736064,-0.098162271,10.6350441,0.105519146,0.011457887,-0.016520673
3,1688394071.1229248,0.351947635,-0.093373865,10.6398325,0.105519146,0.011457887,-0.016520673
4,1688394071.1229248,0.351947635,-0.090979666,10.64222622,0.105785601,0.011191424,-0.016254211
5,1688394071.1229248,0.351947635,-0.088585466,10.6446209,0.106052071,0.011191424,-0.016254211
6,1688394071.1229248,0.354341865,-0.088585466,10.64701462,0.106052071,0.011457887,-0.016520673
7,1688394071.1229248,0.359130263,-0.086191259,10.65180302,0.106052071,0.011191424,-0.016520673
8,1688394071.1229248,0.361524463,-0.090979666,10.65419769,0.105785601,0.011191424,-0.016520673
9,1688394071.1229248,0.356736064,-0.090979666,10.64940929,0.105785601,0.011191424,-0.016520673
10,1688394071.1229248,0.359130263,-0.090979666,10.64701462,0.106052071,0.011191424,-0.016520673
11,1688394071.1229248,0.359130263,-0.088585466,10.64701462,0.106052071,0.011457887,-0.016520673
12,1688394071.1229248,0.359130263,-0.090979666,10.64701462,0.106052071,0.011191424,-0.016520673
13,1688394071.1229248,0.361524463,-0.090979666,10.64701462,0.106052071,0.011191424,-0.016520673
14,1688394071.1229248,0.363918662,-0.088585466,10.64701462,0.106052071,0.010924961,-0.016254211
0,1688394071.148915,0.344765037,-0.088585466,10.66616821,0.106584989,0.010924961,-0.016520673
1,1688394071.148915,0.344765037,-0.086191259,10.66137981,0.106584989,0.010924961,-0.016520673
2,1688394071.148915,0.344765037,-0.088585466,10.65659142,0.106584989,0.010658499,-0.016520673
3,1688394071.148915,0.349553436,-0.090979666,10.64940929,0.106851459,0.010392036,-0.016254211
4,1688394071.148915,0.349553436,-0.088585466,10.64222622,0.106851459,0.010392036,-0.016520673
5,1688394071.148915,0.349553436,-0.090979666,10.63264942,0.106851459,0.010392036,-0.016520673
6,1688394071.148915,0.347159237,-0.088585466,10.6206789,0.106584989,0.010392036,-0.016254211
7,1688394071.148915,0.344765037,-0.086191259,10.60870743,0.106584989,0.010658499,-0.016254211
8,1688394071.148915,0.342370838,-0.088585466,10.60391903,0.106584989,0.010658499,-0.016254211
9,1688394071.148915,0.339976639,-0.090979666,10.60391903,0.106851459,0.010658499,-0.016254211
10,1688394071.148915,0.339976639,-0.090979666,10.60631371,0.106851459,0.010658499,-0.015987748
11,1688394071.148915,0.339976639,-0.093373865,10.61349583,0.106851459,0.010658499,-0.015987748
12,1688394071.148915,0.342370838,-0.090979666,10.6158905,0.106851459,0.010924961,-0.016254211
13,1688394071.148915,0.344765037,-0.088585466,10.62307262,0.106851459,0.010924961,-0.016254211
14,1688394071.148915,0.347159237,-0.090979666,10.6302557,0.106584989,0.010924961,-0.015987748
0,1688394071.1798918,0.347159237,-0.093373865,10.6446209,0.106318533,0.011457887,-0.016254211
1,1688394071.1798918,0.347159237,-0.093373865,10.6446209,0.106052071,0.011457887,-0.016254211
2,1688394071.1798918,0.344765037,-0.093373865,10.64940929,0.106052071,0.011724349,-0.015987748
3,1688394071.1798918,0.344765037,-0.095768064,10.65898609,0.105785601,0.011457887,-0.016254211
4,1688394071.1798918,0.349553436,-0.093373865,10.66616821,0.105519146,0.011191424,-0.016254211
5,1688394071.1798918,0.347159237,-0.095768064,10.66377449,0.105519146,0.011191424,-0.016254211
6,1688394071.1798918,0.349553436,-0.098162271,10.65898609,0.105519146,0.011191424,-0.016254211
7,1688394071.1798918,0.349553436,-0.098162271,10.66377449,0.105519146,0.011191424,-0.016254211
8,1688394071.1798918,0.349553436,-0.098162271,10.66616821,0.105519146,0.010924961,-0.016254211
9,1688394071.1798918,0.351947635,-0.10055647,10.66856289,0.105519146,0.010924961,-0.016254211
10,1688394071.1798918,0.351947635,-0.10295067,10.66137981,0.106052071,0.010924961,-0.016254211
11,1688394071.1798918,0.351947635,-0.105344877,10.65659142,0.106052071,0.010924961,-0.016254211
12,1688394071.1798918,0.349553436,-0.10295067,10.65659142,0.106052071,0.011191424,-0.016520673
13,1688394071.1798918,0.347159237,-0.10055647,10.65898609,0.106052071,0.011191424,-0.016520673
14,1688394071.1798918,0.347159237,-0.098162271,10.65659142,0.106052071,0.011191424,-0.016254211
0,1688394071.2098775,0.359130263,-0.088585466,10.65180302,0.106318533,0.011724349,-0.016787136
1,1688394071.2098775,0.356736064,-0.086191259,10.65180302,0.106318533,0.011457887,-0.016787136
2,1688394071.2098775,0.356736064,-0.086191259,10.65180302,0.106318533,0.011724349,-0.016787136
3,1688394071.2098775,0.356736064,-0.086191259,10.65659142,0.106318533,0.011457887,-0.016520673
4,1688394071.2098775,0.359130263,-0.088585466,10.65659142,0.106318533,0.011191424,-0.016520673
5,1688394071.2098775,0.359130263,-0.088585466,10.65419769,0.106318533,0.011457887,-0.016787136
6,1688394071.2098775,0.361524463,-0.088585466,10.65419769,0.106052071,0.011457887,-0.016787136
7,1688394071.2098775,0.361524463,-0.088585466,10.64940929,0.106052071,0.011457887,-0.016520673
8,1688394071.2098775,0.356736064,-0.090979666,10.64940929,0.106052071,0.011457887,-0.016520673
9,1688394071.2098775,0.359130263,-0.088585466,10.64940929,0.106052071,0.011457887,-0.016520673
10,1688394071.2098775,0.359130263,-0.090979666,10.64701462,0.106052071,0.011724349,-0.016254211
11,1688394071.2098775,0.354341865,-0.093373865,10.6446209,0.106318533,0.011457887,-0.016254211
12,1688394071.2098775,0.351947635,-0.095768064,10.64222622,0.106052071,0.011457887,-0.016520673
13,1688394071.2098775,0.351947635,-0.095768064,10.64701462,0.105785601,0.011457887,-0.016520673
14,1688394071.2098775,0.351947635,-0.095768064,10.64701462,0.105785601,0.011457887,-0.016520673
0,1688394071.2418575,0.359130263,-0.093373865,10.6446209,0.106318533,0.011457887,-0.016520673
1,1688394071.2418575,0.359130263,-0.093373865,10.64701462,0.106318533,0.011191424,-0.016520673
2,1688394071.2418575,0.359130263,-0.093373865,10.64940929,0.106318533,0.011191424,-0.016520673
3,1688394071.2418575,0.356736064,-0.093373865,10.64940929,0.106052071,0.011191424,-0.016254211
4,1688394071.2418575,0.356736064,-0.093373865,10.65419769,0.106052071,0.011191424,-0.016254211
5,1688394071.2418575,0.356736064,-0.095768064,10.65419769,0.106318533,0.011191424,-0.016520673
6,1688394071.2418575,0.356736064,-0.095768064,10.65180302,0.106318533,0.011191424,-0.016254211
7,1688394071.2418575,0.356736064,-0.098162271,10.64940929,0.106584989,0.011457887,-0.016254211
8,1688394071.2418575,0.356736064,-0.098162271,10.64940929,0.106584989,0.011191424,-0.016520673
9,1688394071.2418575,0.354341865,-0.098162271,10.64940929,0.106584989,0.011457887,-0.016254211
10,1688394071.2418575,0.354341865,-0.095768064,10.64940929,0.106584989,0.011457887,-0.016254211
11,1688394071.2418575,0.356736064,-0.095768064,10.64940929,0.106584989,0.011457887,-0.015987748
12,1688394071.2418575,0.359130263,-0.093373865,10.64940929,0.106318533,0.011191424,-0.015987748
13,1688394071.2418575,0.359130263,-0.090979666,10.65180302,0.106584989,0.011457887,-0.016254211
14,1688394071.2418575,0.359130263,-0.088585466,10.65180302,0.106584989,0.011457887,-0.015987748
0,1688394071.3198116,0.356736064,-0.095768064,10.63743782,0.106052071,0.011457887,-0.016520673
1,1688394071.3198116,0.356736064,-0.095768064,10.63743782,0.106318533,0.011724349,-0.016254211
2,1688394071.3198116,0.361524463,-0.095768064,10.6350441,0.106318533,0.011990812,-0.016254211
3,1688394071.3198116,0.361524463,-0.098162271,10.63264942,0.106318533,0.011990812,-0.016254211
4,1688394071.3198116,0.359130263,-0.098162271,10.6302557,0.106318533,0.011990812,-0.016254211
5,1688394071.3198116,0.356736064,-0.10055647,10.6302557,0.106318533,0.011990812,-0.015987748
6,1688394071.3198116,0.359130263,-0.10295067,10.62786102,0.106052071,0.011724349,-0.016254211
7,1688394071.3198116,0.359130263,-0.10055647,10.62786102,0.106052071,0.011724349,-0.016254211
8,1688394071.3198116,0.361524463,-0.10055647,10.63264942,0.106318533,0.011724349,-0.015987748
9,1688394071.3198116,0.361524463,-0.098162271,10.63264942,0.106318533,0.011724349,-0.015987748
10,1688394071.3198116,0.359130263,-0.10055647,10.6398325,0.106052071,0.011457887,-0.016254211
11,1688394071.3198116,0.359130263,-0.10055647,10.64222622,0.106052071,0.011457887,-0.016254211
12,1688394071.3198116,0.359130263,-0.098162271,10.6398325,0.105785601,0.011457887,-0.016254211
13,1688394071.3198116,0.359130263,-0.095768064,10.63743782,0.105785601,0.011191424,-0.015987748
14,1688394071.3198116,0.351947635,-0.093373865,10.63743782,0.106052071,0.010924961,-0.016254211
0,1688394071.3487957,0.363918662,-0.090979666,10.64940929,0.106584989,0.011457887,-0.016520673
1,1688394071.3487957,0.366312861,-0.093373865,10.64940929,0.106584989,0.011191424,-0.016520673
2,1688394071.3487957,0.368707061,-0.093373865,10.64940929,0.106584989,0.011191424,-0.016520673
3,1688394071.3487957,0.366312861,-0.093373865,10.64701462,0.106584989,0.011191424,-0.016520673
4,1688394071.3487957,0.366312861,-0.093373865,10.64940929,0.106584989,0.010924961,-0.016254211
5,1688394071.3487957,0.368707061,-0.093373865,10.6446209,0.106584989,0.010924961,-0.016254211
6,1688394071.3487957,0.368707061,-0.093373865,10.64222622,0.106584989,0.011191424,-0.016254211
7,1688394071.3487957,0.363918662,-0.095768064,10.63743782,0.106318533,0.011191424,-0.016254211
8,1688394071.3487957,0.363918662,-0.095768064,10.63743782,0.106584989,0.011191424,-0.016254211
9,1688394071.3487957,0.361524463,-0.095768064,10.6350441,0.106584989,0.011457887,-0.016520673
10,1688394071.3487957,0.359130263,-0.095768064,10.6398325,0.106584989,0.011457887,-0.016520673
11,1688394071.3487957,0.356736064,-0.093373865,10.6398325,0.106584989,0.011457887,-0.016520673
12,1688394071.3487957,0.354341865,-0.090979666,10.6398325,0.106318533,0.011457887,-0.016520673
13,1688394071.3487957,0.356736064,-0.090979666,10.64222622,0.106318533,0.011457887,-0.016520673
14,1688394071.3487957,0.359130263,-0.088585466,10.64940929,0.106584989,0.011457887,-0.016520673
0,1688394071.377779,0.347159237,-0.076614454,10.64940929,0.106318533,0.011724349,-0.016254211
1,1688394071.377779,0.344765037,-0.076614454,10.64940929,0.106584989,0.011724349,-0.016520673
2,1688394071.377779,0.344765037,-0.076614454,10.65180302,0.106584989,0.011724349,-0.016254211
3,1688394071.377779,0.344765037,-0.079008654,10.65419769,0.106584989,0.011457887,-0.016254211
4,1688394071.377779,0.344765037,-0.079008654,10.65659142,0.106584989,0.011457887,-0.016520673
5,1688394071.377779,0.344765037,-0.079008654,10.65898609,0.106318533,0.011457887,-0.016254211
6,1688394071.377779,0.342370838,-0.079008654,10.65898609,0.106584989,0.011457887,-0.016520673
7,1688394071.377779,0.344765037,-0.079008654,10.65419769,0.106318533,0.011457887,-0.016520673
8,1688394071.377779,0.347159237,-0.081402861,10.65419769,0.106584989,0.011724349,-0.016520673
9,1688394071.377779,0.347159237,-0.079008654,10.65659142,0.106584989,0.011457887,-0.016520673
10,1688394071.377779,0.349553436,-0.079008654,10.65898609,0.106584989,0.011724349,-0.016254211
11,1688394071.377779,0.347159237,-0.081402861,10.65898609,0.106584989,0.011457887,-0.016254211
12,1688394071.377779,0.349553436,-0.086191259,10.65898609,0.106584989,0.011457887,-0.016254211
13,1688394071.377779,0.351947635,-0.086191259,10.65898609,0.106584989,0.011457887,-0.016254211
14,1688394071.377779,0.351947635,-0.086191259,10.65659142,0.106318533,0.011457887,-0.016520673
0,1688394071.4057636,0.354341865,-0.090979666,10.64222622,0.106318533,0.011191424,-0.016254211
1,1688394071.4057636,0.356736064,-0.090979666,10.64222622,0.106318533,0.011191424,-0.016254211
2,1688394071.4057636,0.354341865,-0.090979666,10.63743782,0.106318533,0.011191424,-0.016254211
3,1688394071.4057636,0.354341865,-0.090979666,10.6350441,0.106318533,0.010924961,-0.016254211
4,1688394071.4057636,0.354341865,-0.088585466,10.6350441,0.106052071,0.010924961,-0.016254211
5,1688394071.4057636,0.351947635,-0.088585466,10.6350441,0.106318533,0.010924961,-0.016254211
6,1688394071.4057636,0.351947635,-0.086191259,10.6350441,0.106318533,0.010924961,-0.016254211
7,1688394071.4057636,0.351947635,-0.086191259,10.6398325,0.106318533,0.010658499,-0.016254211
8,1688394071.4057636,0.351947635,-0.086191259,10.6350441,0.106318533,0.010658499,-0.016254211
9,1688394071.4057636,0.349553436,-0.086191259,10.6350441,0.106052071,0.010658499,-0.016254211
10,1688394071.4057636,0.351947635,-0.086191259,10.6350441,0.106052071,0.010658499,-0.016254211
11,1688394071.4057636,0.349553436,-0.086191259,10.63743782,0.106318533,0.010658499,-0.016520673
12,1688394071.4057636,0.349553436,-0.088585466,10.63743782,0.106318533,0.010658499,-0.016520673
13,1688394071.4057636,0.347159237,-0.088585466,10.6350441,0.106318533,0.010924961,-0.016254211
14,1688394071.4057636,0.349553436,-0.086191259,10.63743782,0.106318533,0.011191424,-0.016520673
0,1688394071.4357686,0.354341865,-0.088585466,10.6398325,0.106318533,0.011191424,-0.016254211
1,1688394071.4357686,0.354341865,-0.088585466,10.64222622,0.106584989,0.011191424,-0.016254211
2,1688394071.4357686,0.354341865,-0.088585466,10.64701462,0.106584989,0.011191424,-0.016254211
3,1688394071.4357686,0.354341865,-0.088585466,10.64701462,0.106584989,0.011191424,-0.015987748
4,1688394071.4357686,0.351947635,-0.088585466,10.64940929,0.106584989,0.010924961,-0.015987748
5,1688394071.4357686,0.356736064,-0.086191259,10.64940929,0.106851459,0.011191424,-0.016254211
6,1688394071.4357686,0.356736064,-0.088585466,10.64940929,0.107117914,0.011191424,-0.015987748
7,1688394071.4357686,0.354341865,-0.088585466,10.64940929,0.106851459,0.011191424,-0.015987748
8,1688394071.4357686,0.354341865,-0.088585466,10.65419769,0.106851459,0.011457887,-0.015987748
9,1688394071.4357686,0.351947635,-0.088585466,10.65180302,0.106851459,0.011457887,-0.015987748
10,1688394071.4357686,0.354341865,-0.088585466,10.65659142,0.106851459,0.011457887,-0.016254211
11,1688394071.4357686,0.354341865,-0.088585466,10.65419769,0.106851459,0.011191424,-0.016254211
12,1688394071.4357686,0.351947635,-0.090979666,10.65419769,0.106851459,0.010924961,-0.016254211
13,1688394071.4357686,0.354341865,-0.090979666,10.65659142,0.106851459,0.010924961,-0.016254211
14,1688394071.4357686,0.354341865,-0.090979666,10.66137981,0.106851459,0.010924961,-0.016254211
0,1688394071.4667325,0.349553436,-0.10295067,10.65180302,0.106318533,0.011191424,-0.016520673
1,1688394071.4667325,0.351947635,-0.10295067,10.65419769,0.106584989,0.011191424,-0.016520673
2,1688394071.4667325,0.351947635,-0.10055647,10.65419769,0.106584989,0.011191424,-0.016520673
3,1688394071.4667325,0.354341865,-0.098162271,10.64940929,0.106584989,0.011457887,-0.016520673
4,1688394071.4667325,0.354341865,-0.098162271,10.64701462,0.106584989,0.011457887,-0.016787136
5,1688394071.4667325,0.354341865,-0.095768064,10.64940929,0.106584989,0.011457887,-0.016520673
6,1688394071.4667325,0.356736064,-0.095768064,10.64940929,0.106318533,0.011724349,-0.016787136
7,1688394071.4667325,0.356736064,-0.095768064,10.65180302,0.106318533,0.011724349,-0.016787136
8,1688394071.4667325,0.359130263,-0.098162271,10.64940929,0.106052071,0.011724349,-0.016787136
9,1688394071.4667325,0.359130263,-0.095768064,10.64940929,0.106052071,0.011457887,-0.016787136
10,1688394071.4667325,0.359130263,-0.098162271,10.64940929,0.106052071,0.011457887,-0.016787136
11,1688394071.4667325,0.361524463,-0.095768064,10.65180302,0.106052071,0.011191424,-0.016520673
12,1688394071.4667325,0.359130263,-0.095768064,10.64701462,0.106052071,0.011191424,-0.016520673
13,1688394071.4667325,0.356736064,-0.093373865,10.64940929,0.106318533,0.011191424,-0.016520673
14,1688394071.4667325,0.359130263,-0.093373865,10.64940929,0.106318533,0.011191424,-0.016254211
0,1688394071.511705,0.354341865,-0.090979666,10.63743782,0.106318533,0.011191424,-0.016520673
1,1688394071.511705,0.354341865,-0.093373865,10.6398325,0.106318533,0.011457887,-0.016254211
2,1688394071.511705,0.351947635,-0.093373865,10.64222622,0.106318533,0.011191424,-0.016254211
3,1688394071.511705,0.354341865,-0.088585466,10.6398325,0.106318533,0.011191424,-0.016520673
4,1688394071.511705,0.354341865,-0.088585466,10.63743782,0.106584989,0.011191424,-0.016254211
5,1688394071.511705,0.354341865,-0.090979666,10.6350441,0.106318533,0.011457887,-0.016254211
6,1688394071.511705,0.351947635,-0.088585466,10.6350441,0.106318533,0.011191424,-0.016254211
7,1688394071.511705,0.351947635,-0.090979666,10.63743782,0.106318533,0.011457887,-0.016254211
8,1688394071.511705,0.351947635,-0.088585466,10.6350441,0.106318533,0.011457887,-0.016254211
9,1688394071.511705,0.356736064,-0.090979666,10.63264942,0.106318533,0.011724349,-0.016254211
10,1688394071.511705,0.356736064,-0.090979666,10.6350441,0.106318533,0.011724349,-0.016520673
11,1688394071.511705,0.359130263,-0.086191259,10.63743782,0.106584989,0.011724349,-0.016520673
12,1688394071.511705,0.359130263,-0.088585466,10.63743782,0.106318533,0.011724349,-0.016520673
13,1688394071.511705,0.356736064,-0.08379706,10.6398325,0.106584989,0.011990812,-0.016520673
14,1688394071.511705,0.356736064,-0.08379706,10.6446209,0.106318533,0.011990812,-0.016520673
0,1688394071.5396893,0.356736064,-0.090979666,10.64222622,0.106584989,0.011724349,-0.016787136
1,1688394071.5396893,0.356736064,-0.090979666,10.6398325,0.106318533,0.011724349,-0.016787136
2,1688394071.5396893,0.356736064,-0.093373865,10.6446209,0.106318533,0.011724349,-0.016787136
3,1688394071.5396893,0.359130263,-0.095768064,10.6446209,0.106318533,0.011724349,-0.016520673
4,1688394071.5396893,0.356736064,-0.098162271,10.64940929,0.106318533,0.011724349,-0.016520673
5,1688394071.5396893,0.359130263,-0.095768064,10.64940929,0.106318533,0.011724349,-0.016520673
6,1688394071.5396893,0.356736064,-0.095768064,10.64701462,0.106318533,0.011724349,-0.016520673
7,1688394071.5396893,0.356736064,-0.095768064,10.64701462,0.106318533,0.011724349,-0.016787136
8,1688394071.5396893,0.356736064,-0.093373865,10.65180302,0.106318533,0.011724349,-0.016787136
9,1688394071.5396893,0.356736064,-0.093373865,10.65180302,0.106318533,0.011724349,-0.016520673
10,1688394071.5396893,0.361524463,-0.093373865,10.65180302,0.106318533,0.011724349,-0.016520673
11,1688394071.5396893,0.361524463,-0.093373865,10.64701462,0.106318533,0.011724349,-0.016520673
12,1688394071.5396893,0.356736064,-0.093373865,10.64701462,0.106318533,0.011724349,-0.016787136
13,1688394071.5396893,0.359130263,-0.093373865,10.6446209,0.106318533,0.011457887,-0.016787136
14,1688394071.5396893,0.359130263,-0.090979666,10.6446209,0.106584989,0.011457887,-0.016520673
0,1688394071.5676708,0.363918662,-0.093373865,10.6398325,0.106318533,0.010924961,-0.016254211
1,1688394071.5676708,0.361524463,-0.090979666,10.64701462,0.106318533,0.010924961,-0.016254211
2,1688394071.5676708,0.361524463,-0.093373865,10.6446209,0.106052071,0.010924961,-0.015987748
3,1688394071.5676708,0.361524463,-0.093373865,10.64940929,0.106318533,0.010924961,-0.015987748
4,1688394071.5676708,0.361524463,-0.093373865,10.64701462,0.106052071,0.010924961,-0.015987748
5,1688394071.5676708,0.363918662,-0.095768064,10.64701462,0.106052071,0.010924961,-0.015987748
6,1688394071.5676708,0.363918662,-0.093373865,10.64701462,0.106318533,0.010924961,-0.016254211
7,1688394071.5676708,0.363918662,-0.095768064,10.64701462,0.106052071,0.010924961,-0.016254211
8,1688394071.5676708,0.361524463,-0.093373865,10.64940929,0.106052071,0.010924961,-0.015987748
9,1688394071.5676708,0.359130263,-0.095768064,10.65419769,0.106052071,0.010924961,-0.015987748
10,1688394071.5676708,0.356736064,-0.095768064,10.65419769,0.106318533,0.011191424,-0.015987748
11,1688394071.5676708,0.354341865,-0.093373865,10.64940929,0.106318533,0.011191424,-0.015987748
12,1688394071.5676708,0.354341865,-0.093373865,10.64701462,0.106318533,0.010924961,-0.015721286
13,1688394071.5676708,0.351947635,-0.093373865,10.64701462,0.106318533,0.011191424,-0.015987748
14,1688394071.5676708,0.351947635,-0.093373865,10.64701462,0.106318533,0.010924961,-0.015987748
0,1688394071.6316338,0.356736064,-0.088585466,10.6446209,0.106052071,0.011191424,-0.016254211
1,1688394071.6316338,0.356736064,-0.090979666,10.64222622,0.106318533,0.011191424,-0.016254211
2,1688394071.6316338,0.356736064,-0.088585466,10.64222622,0.106318533,0.011191424,-0.016254211
3,1688394071.6316338,0.356736064,-0.090979666,10.6446209,0.106052071,0.011191424,-0.016254211
4,1688394071.6316338,0.354341865,-0.093373865,10.6446209,0.106052071,0.011191424,-0.016254211
5,1688394071.6316338,0.351947635,-0.095768064,10.64940929,0.106052071,0.010924961,-0.016254211
6,1688394071.6316338,0.349553436,-0.090979666,10.64701462,0.106052071,0.011457887,-0.016254211
7,1688394071.6316338,0.347159237,-0.090979666,10.65180302,0.106052071,0.011457887,-0.016254211
8,1688394071.6316338,0.349553436,-0.090979666,10.65659142,0.106052071,0.011191424,-0.016254211
9,1688394071.6316338,0.354341865,-0.088585466,10.65659142,0.106052071,0.011191424,-0.016254211
10,1688394071.6316338,0.354341865,-0.090979666,10.65898609,0.106052071,0.011191424,-0.016254211
11,1688394071.6316338,0.351947635,-0.093373865,10.65898609,0.106318533,0.011457887,-0.016254211
12,1688394071.6316338,0.354341865,-0.093373865,10.66377449,0.106318533,0.011457887,-0.016254211
13,1688394071.6316338,0.354341865,-0.090979666,10.65898609,0.106052071,0.011457887,-0.016254211
14,1688394071.6316338,0.351947635,-0.090979666,10.65659142,0.106052071,0.011724349,-0.016254211
0,1688394071.6856034,0.351947635,-0.090979666,10.64940929,0.106318533,0.010924961,-0.016254211
1,1688394071.6856034,0.354341865,-0.090979666,10.64701462,0.106052071,0.010924961,-0.016254211
2,1688394071.6856034,0.356736064,-0.090979666,10.64701462,0.106318533,0.010924961,-0.016520673
3,1688394071.6856034,0.359130263,-0.093373865,10.6446209,0.106318533,0.011191424,-0.016520673
4,1688394071.6856034,0.359130263,-0.10055647,10.64701462,0.106318533,0.010924961,-0.016520673
5,1688394071.6856034,0.356736064,-0.098162271,10.64940929,0.106318533,0.011191424,-0.016520673
6,1688394071.6856034,0.354341865,-0.095768064,10.64701462,0.106318533,0.011191424,-0.016520673
7,1688394071.6856034,0.359130263,-0.095768064,10.64222622,0.106318533,0.011457887,-0.016520673
8,1688394071.6856034,0.356736064,-0.093373865,10.63743782,0.106584989,0.011457887,-0.016520673
9,1688394071.6856034,0.354341865,-0.093373865,10.63743782,0.106584989,0.011457887,-0.016520673
10,1688394071.6856034,0.356736064,-0.098162271,10.63743782,0.106584989,0.011191424,-0.016254211
11,1688394071.6856034,0.356736064,-0.098162271,10.64222622,0.106584989,0.011191424,-0.016254211
12,1688394071.6856034,0.356736064,-0.10055647,10.6446209,0.106584989,0.011191424,-0.016254211
13,1688394071.6856034,0.359130263,-0.10055647,10.6446209,0.106584989,0.011191424,-0.016254211
14,1688394071.6856034,0.356736064,-0.098162271,10.6398325,0.106584989,0.011191424,-0.016254211
0,1688394071.7105892,0.363918662,-0.105344877,10.65419769,0.106318533,0.011191424,-0.016254211
1,1688394071.7105892,0.366312861,-0.10295067,10.65898609,0.106318533,0.011457887,-0.016254211
2,1688394071.7105892,0.363918662,-0.10295067,10.66137981,0.106318533,0.011191424,-0.016254211
3,1688394071.7105892,0.361524463,-0.10295067,10.66137981,0.106318533,0.011191424,-0.016520673
4,1688394071.7105892,0.359130263,-0.105344877,10.65419769,0.106318533,0.011191424,-0.016520673
5,1688394071.7105892,0.356736064,-0.105344877,10.65180302,0.106318533,0.011457887,-0.016520673
6,1688394071.7105892,0.359130263,-0.10295067,10.65419769,0.106318533,0.011457887,-0.016520673
7,1688394071.7105892,0.361524463,-0.10295067,10.64940929,0.106318533,0.011191424,-0.016520673
8,1688394071.7105892,0.359130263,-0.098162271,10.6446209,0.106318533,0.011457887,-0.016520673
9,1688394071.7105892,0.361524463,-0.098162271,10.6446209,0.106052071,0.011457887,-0.016520673
10,1688394071.7105892,0.359130263,-0.098162271,10.64940929,0.106318533,0.011457887,-0.016520673
11,1688394071.7105892,0.356736064,-0.095768064,10.64940929,0.106318533,0.011457887,-0.016520673
12,1688394071.7105892,0.354341865,-0.093373865,10.6446209,0.106052071,0.011457887,-0.016520673
13,1688394071.7105892,0.354341865,-0.093373865,10.64701462,0.106318533,0.011457887,-0.016520673
14,1688394071.7105892,0.354341865,-0.095768064,10.65180302,0.106318533,0.011191424,-0.016520673
0,1688394071.7365773,0.359130263,-0.090979666,10.6446209,0.106052071,0.011457887,-0.016520673
1,1688394071.7365773,0.359130263,-0.088585466,10.64940929,0.106318533,0.011724349,-0.016520673
2,1688394071.7365773,0.361524463,-0.090979666,10.65419769,0.106052071,0.011724349,-0.016520673
3,1688394071.7365773,0.363918662,-0.090979666,10.66137981,0.106052071,0.011724349,-0.016520673
4,1688394071.7365773,0.363918662,-0.090979666,10.66137981,0.106318533,0.011457887,-0.016520673
5,1688394071.7365773,0.363918662,-0.093373865,10.65898609,0.106318533,0.011724349,-0.016520673
6,1688394071.7365773,0.363918662,-0.093373865,10.65898609,0.106318533,0.011724349,-0.016520673
7,1688394071.7365773,0.363918662,-0.095768064,10.66377449,0.106318533,0.011724349,-0.016520673
8,1688394071.7365773,0.363918662,-0.095768064,10.66137981,0.106052071,0.011724349,-0.016520673
9,1688394071.7365773,0.366312861,-0.093373865,10.65898609,0.106318533,0.011990812,-0.016520673
10,1688394071.7365773,0.366312861,-0.090979666,10.65659142,0.106318533,0.011990812,-0.016520673
11,1688394071.7365773,0.368707061,-0.090979666,10.65659142,0.106318533,0.011990812,-0.016520673
12,1688394071.7365773,0.368707061,-0.090979666,10.65659142,0.106052071,0.011724349,-0.016520673
13,1688394071.7365773,0.366312861,-0.090979666,10.65180302,0.106052071,0.011990812,-0.016787136
14,1688394071.7365773,0.363918662,-0.088585466,10.64701462,0.106052071,0.011990812,-0.016520673
0,1688394071.7625813,0.354341865,-0.093373865,10.65659142,0.106318533,0.010924961,-0.016787136
1,1688394071.7625813,0.356736064,-0.093373865,10.65659142,0.106052071,0.010924961,-0.016787136
2,1688394071.7625813,0.359130263,-0.093373865,10.66137981,0.106052071,0.010924961,-0.016520673
3,1688394071.7625813,0.361524463,-0.090979666,10.66137981,0.106318533,0.010658499,-0.016520673
4,1688394071.7625813,0.359130263,-0.090979666,10.66137981,0.106318533,0.010658499,-0.016520673
5,1688394071.7625813,0.359130263,-0.095768064,10.65659142,0.106318533,0.010658499,-0.016787136
6,1688394071.7625813,0.359130263,-0.093373865,10.65419769,0.106052071,0.010924961,-0.016787136
7,1688394071.7625813,0.356736064,-0.090979666,10.64940929,0.106318533,0.010924961,-0.016520673
8,1688394071.7625813,0.356736064,-0.090979666,10.64701462,0.106318533,0.010924961,-0.016520673
9,1688394071.7625813,0.354341865,-0.090979666,10.6446209,0.106052071,0.010658499,-0.016520673
10,1688394071.7625813,0.356736064,-0.093373865,10.64940929,0.106318533,0.010658499,-0.016520673
11,1688394071.7625813,0.359130263,-0.093373865,10.65180302,0.106318533,0.010658499,-0.016787136
12,1688394071.7625813,0.356736064,-0.093373865,10.65180302,0.106052071,0.010924961,-0.016787136
13,1688394071.7625813,0.359130263,-0.093373865,10.65419769,0.106052071,0.010924961,-0.016787136
14,1688394071.7625813,0.359130263,-0.090979666,10.64701462,0.106052071,0.010924961,-0.016787136
0,1688394071.7855685,0.354341865,-0.093373865,10.6350441,0.105785601,0.010924961,-0.016520673
1,1688394071.7855685,0.356736064,-0.090979666,10.63743782,0.105785601,0.010924961,-0.016254211
2,1688394071.7855685,0.354341865,-0.090979666,10.64222622,0.105785601,0.011191424,-0.016254211
3,1688394071.7855685,0.351947635,-0.090979666,10.64701462,0.105785601,0.011191424,-0.016520673
4,1688394071.7855685,0.354341865,-0.090979666,10.64701462,0.106052071,0.011191424,-0.016520673
5,1688394071.7855685,0.354341865,-0.090979666,10.64701462,0.106052071,0.011191424,-0.016254211
6,1688394071.7855685,0.354341865,-0.090979666,10.64940929,0.106052071,0.011191424,-0.016254211
7,1688394071.7855685,0.354341865,-0.090979666,10.64701462,0.106052071,0.011191424,-0.016254211
8,1688394071.7855685,0.354341865,-0.088585466,10.64701462,0.106052071,0.011191424,-0.016254211
9,1688394071.7855685,0.351947635,-0.088585466,10.64940929,0.106052071,0.011191424,-0.016254211
10,1688394071.7855685,0.354341865,-0.088585466,10.64701462,0.106052071,0.011457887,-0.015987748
11,1688394071.7855685,0.354341865,-0.090979666,10.6446209,0.106052071,0.011191424,-0.016254211
12,1688394071.7855685,0.354341865,-0.093373865,10.64701462,0.106052071,0.011191424,-0.015987748
13,1688394071.7855685,0.351947635,-0.090979666,10.64701462,0.106052071,0.011457887,-0.015987748
14,1688394071.7855685,0.354341865,-0.090979666,10.64940929,0.106052071,0.011457887,-0.015987748
0,1688394071.810554,0.354341865,-0.098162271,10.65659142,0.106584989,0.011191424,-0.015987748
1,1688394071.810554,0.354341865,-0.095768064,10.66137981,0.106584989,0.011191424,-0.015987748
2,1688394071.810554,0.354341865,-0.098162271,10.65898609,0.106584989,0.011191424,-0.015987748
3,1688394071.810554,0.354341865,-0.10055647,10.65180302,0.106584989,0.011191424,-0.015987748
4,1688394071.810554,0.354341865,-0.10055647,10.64940929,0.106584989,0.011191424,-0.015987748
5,1688394071.810554,0.351947635,-0.10055647,10.64940929,0.106584989,0.010924961,-0.015987748
6,1688394071.810554,0.351947635,-0.10055647,10.65180302,0.106584989,0.010924961,-0.015987748
7,1688394071.810554,0.351947635,-0.098162271,10.64940929,0.106584989,0.010924961,-0.016254211
8,1688394071.810554,0.354341865,-0.095768064,10.65180302,0.106584989,0.010924961,-0.015987748
9,1688394071.810554,0.356736064,-0.093373865,10.64940929,0.106318533,0.010924961,-0.016254211
10,1688394071.810554,0.359130263,-0.095768064,10.64701462,0.106584989,0.011191424,-0.016254211
11,1688394071.810554,0.359130263,-0.095768064,10.6446209,0.106318533,0.011191424,-0.016254211
12,1688394071.810554,0.361524463,-0.098162271,10.6398325,0.106584989,0.010924961,-0.016520673
13,1688394071.810554,0.361524463,-0.10055647,10.63743782,0.106318533,0.010924961,-0.016520673
14,1688394071.810554,0.359130263,-0.098162271,10.6398325,0.106318533,0.010924961,-0.016520673
0,1688394071.8415139,0.356736064,-0.088585466,10.66137981,0.106584989,0.011457887,-0.016254211
1,1688394071.8415139,0.356736064,-0.095768064,10.66137981,0.106318533,0.011457887,-0.016520673
2,1688394071.8415139,0.354341865,-0.095768064,10.66377449,0.106584989,0.011457887,-0.016520673
3,1688394071.8415139,0.351947635,-0.095768064,10.66377449,0.106584989,0.011457887,-0.016520673
4,1688394071.8415139,0.347159237,-0.095768064,10.66377449,0.106584989,0.011191424,-0.016520673
5,1688394071.8415139,0.347159237,-0.095768064,10.66377449,0.106584989,0.011191424,-0.016520673
6,1688394071.8415139,0.347159237,-0.095768064,10.66137981,0.106318533,0.010924961,-0.016520673
7,1688394071.8415139,0.349553436,-0.095768064,10.66137981,0.106052071,0.010924961,-0.016787136
8,1688394071.8415139,0.354341865,-0.095768064,10.65898609,0.106052071,0.010924961,-0.016787136
9,1688394071.8415139,0.354341865,-0.095768064,10.65898609,0.106052071,0.010658499,-0.016520673
10,1688394071.8415139,0.354341865,-0.095768064,10.66137981,0.106052071,0.010924961,-0.016520673
11,1688394071.8415139,0.356736064,-0.095768064,10.66377449,0.106052071,0.010658499,-0.016520673
12,1688394071.8415139,0.356736064,-0.088585466,10.65898609,0.106318533,0.010924961,-0.016520673
13,1688394071.8415139,0.359130263,-0.088585466,10.65659142,0.106318533,0.010924961,-0.016787136
14,1688394071.8415139,0.356736064,-0.093373865,10.65419769,0.106318533,0.011191424,-0.016520673
0,1688394071.8794954,0.363918662,-0.095768064,10.65659142,0.105785601,0.011457887,-0.016520673
1,1688394071.8794954,0.359130263,-0.098162271,10.65419769,0.105785601,0.011457887,-0.016520673
2,1688394071.8794954,0.359130263,-0.098162271,10.65419769,0.106052071,0.011191424,-0.016520673
3,1688394071.8794954,0.361524463,-0.10055647,10.65180302,0.106052071,0.011191424,-0.016520673
4,1688394071.8794954,0.361524463,-0.10055647,10.64701462,0.106052071,0.011191424,-0.016254211
5,1688394071.8794954,0.361524463,-0.098162271,10.65180302,0.106052071,0.011191424,-0.016520673
6,1688394071.8794954,0.363918662,-0.098162271,10.64940929,0.106318533,0.011191424,-0.016254211
7,1688394071.8794954,0.363918662,-0.098162271,10.65180302,0.106052071,0.011191424,-0.016254211
8,1688394071.8794954,0.361524463,-0.095768064,10.65419769,0.106052071,0.011457887,-0.016520673
9,1688394071.8794954,0.361524463,-0.098162271,10.65659142,0.106052071,0.011457887,-0.016520673
10,1688394071.8794954,0.361524463,-0.095768064,10.65659142,0.106052071,0.011191424,-0.016520673
11,1688394071.8794954,0.363918662,-0.095768064,10.65180302,0.106318533,0.011191424,-0.016520673
12,1688394071.8794954,0.363918662,-0.10055647,10.65419769,0.106318533,0.011191424,-0.016520673
13,1688394071.8794954,0.361524463,-0.098162271,10.65898609,0.106318533,0.011457887,-0.016520673
14,1688394071.8794954,0.361524463,-0.095768064,10.65659142,0.106052071,0.011457887,-0.016520673
0,1688394071.919471,0.351947635,-0.086191259,10.65419769,0.106052071,0.011990812,-0.016254211
1,1688394071.919471,0.354341865,-0.086191259,10.65180302,0.105785601,0.011990812,-0.016520673
2,1688394071.919471,0.354341865,-0.086191259,10.64940929,0.106052071,0.011724349,-0.016520673
3,1688394071.919471,0.349553436,-0.08379706,10.6446209,0.106052071,0.011724349,-0.016254211
4,1688394071.919471,0.349553436,-0.08379706,10.6446209,0.106052071,0.011990812,-0.016254211
5,1688394071.919471,0.349553436,-0.08379706,10.64222622,0.106052071,0.011724349,-0.016254211
6,1688394071.919471,0.351947635,-0.081402861,10.64701462,0.106052071,0.011724349,-0.016254211
7,1688394071.919471,0.349553436,-0.081402861,10.64701462,0.106052071,0.011724349,-0.016254211
8,1688394071.919471,0.349553436,-0.081402861,10.6446209,0.106052071,0.011990812,-0.016254211
9,1688394071.919471,0.351947635,-0.079008654,10.64701462,0.106318533,0.011724349,-0.016254211
10,1688394071.919471,0.354341865,-0.08379706,10.64940929,0.106318533,0.011724349,-0.015987748
11,1688394071.919471,0.354341865,-0.08379706,10.64940929,0.106318533,0.011724349,-0.015987748
12,1688394071.919471,0.351947635,-0.088585466,10.6446209,0.106318533,0.011724349,-0.015987748
13,1688394071.919471,0.354341865,-0.086191259,10.64701462,0.106318533,0.011457887,-0.015987748
14,1688394071.919471,0.354341865,-0.086191259,10.64940929,0.106052071,0.011457887,-0.015987748
0,1688394071.9584467,0.354341865,-0.098162271,10.64701462,0.106318533,0.011457887,-0.016520673
1,1688394071.9584467,0.351947635,-0.098162271,10.64701462,0.106318533,0.011724349,-0.016520673
2,1688394071.9584467,0.349553436,-0.098162271,10.6446209,0.106318533,0.011457887,-0.016254211
3,1688394071.9584467,0.349553436,-0.095768064,10.64701462,0.106318533,0.011191424,-0.016254211
4,1688394071.9584467,0.351947635,-0.095768064,10.64940929,0.106318533,0.011191424,-0.016520673
5,1688394071.9584467,0.347159237,-0.095768064,10.64701462,0.106318533,0.011191424,-0.016254211
6,1688394071.9584467,0.347159237,-0.093373865,10.6446209,0.106318533,0.010924961,-0.016254211
7,1688394071.9584467,0.344765037,-0.093373865,10.64701462,0.106318533,0.010924961,-0.016254211
8,1688394071.9584467,0.342370838,-0.093373865,10.6446209,0.106318533,0.010924961,-0.016520673
9,1688394071.9584467,0.344765037,-0.090979666,10.64222622,0.106052071,0.010924961,-0.016254211
10,1688394071.9584467,0.347159237,-0.090979666,10.6398325,0.106052071,0.010924961,-0.016254211
11,1688394071.9584467,0.351947635,-0.090979666,10.6398325,0.106052071,0.010924961,-0.016254211
12,1688394071.9584467,0.349553436,-0.093373865,10.6446209,0.106052071,0.010924961,-0.016254211
13,1688394071.9584467,0.349553436,-0.090979666,10.6446209,0.106052071,0.010924961,-0.016254211
14,1688394071.9584467,0.349553436,-0.093373865,10.64222622,0.106052071,0.011191424,-0.016520673
0,1688394071.990429,0.351947635,-0.095768064,10.64222622,0.106318533,0.011457887,-0.016254211
1,1688394071.990429,0.351947635,-0.093373865,10.6446209,0.106318533,0.011457887,-0.016254211
2,1688394071.990429,0.351947635,-0.095768064,10.64701462,0.106318533,0.011457887,-0.016254211
3,1688394071.990429,0.351947635,-0.095768064,10.64701462,0.106318533,0.011457887,-0.016254211
4,1688394071.990429,0.354341865,-0.093373865,10.64701462,0.106318533,0.011457887,-0.016520673
5,1688394071.990429,0.351947635,-0.093373865,10.6446209,0.106318533,0.011457887,-0.016520673
6,1688394071.990429,0.351947635,-0.093373865,10.6446209,0.106318533,0.011457887,-0.016254211
7,1688394071.990429,0.347159237,-0.093373865,10.64701462,0.106318533,0.011457887,-0.016254211
8,1688394071.990429,0.347159237,-0.093373865,10.64701462,0.106584989,0.011724349,-0.016254211
9,1688394071.990429,0.349553436,-0.095768064,10.65180302,0.106584989,0.011457887,-0.016520673
10,1688394071.990429,0.349553436,-0.098162271,10.64940929,0.106318533,0.011457887,-0.016520673
11,1688394071.990429,0.351947635,-0.095768064,10.64701462,0.106318533,0.011457887,-0.016520673
12,1688394071.990429,0.351947635,-0.098162271,10.64701462,0.106584989,0.011457887,-0.016787136
13,1688394071.990429,0.354341865,-0.098162271,10.65180302,0.106584989,0.011191424,-0.016787136
14,1688394071.990429,0.354341865,-0.10055647,10.64940929,0.106584989,0.011457887,-0.016787136
0,1688394072.0234108,0.354341865,-0.088585466,10.64940929,0.106052071,0.011191424,-0.016254211
1,1688394072.0234108,0.354341865,-0.088585466,10.65180302,0.106318533,0.011191424,-0.016254211
2,1688394072.0234108,0.354341865,-0.088585466,10.65180302,0.106318533,0.011457887,-0.016254211
3,1688394072.0234108,0.354341865,-0.08379706,10.65180302,0.106584989,0.011457887,-0.016254211
4,1688394072.0234108,0.354341865,-0.081402861,10.65419769,0.106584989,0.011191424,-0.016254211
5,1688394072.0234108,0.354341865,-0.079008654,10.64940929,0.106584989,0.011191424,-0.016254211
6,1688394072.0234108,0.351947635,-0.081402861,10.64701462,0.106584989,0.011191424,-0.016520673
7,1688394072.0234108,0.354341865,-0.08379706,10.64701462,0.106318533,0.011191424,-0.016520673
8,1688394072.0234108,0.351947635,-0.086191259,10.64701462,0.106318533,0.011457887,-0.016520673
9,1688394072.0234108,0.354341865,-0.088585466,10.64222622,0.106318533,0.011191424,-0.016520673
10,1688394072.0234108,0.351947635,-0.088585466,10.6350441,0.106318533,0.011191424,-0.016254211
11,1688394072.0234108,0.349553436,-0.088585466,10.6350441,0.106584989,0.011457887,-0.016254211
12,1688394072.0234108,0.351947635,-0.088585466,10.63743782,0.106584989,0.011457887,-0.016254211
13,1688394072.0234108,0.349553436,-0.086191259,10.63743782,0.106584989,0.011457887,-0.016254211
14,1688394072.0234108,0.351947635,-0.086191259,10.63743782,0.106584989,0.011457887,-0.016520673
0,1688394072.065387,0.363918662,-0.093373865,10.64940929,0.106318533,0.011457887,-0.016520673
1,1688394072.065387,0.361524463,-0.093373865,10.64701462,0.106318533,0.011457887,-0.016520673
2,1688394072.065387,0.356736064,-0.093373865,10.64940929,0.106318533,0.011457887,-0.016787136
3,1688394072.065387,0.354341865,-0.095768064,10.65180302,0.106318533,0.011724349,-0.016787136
4,1688394072.065387,0.354341865,-0.095768064,10.65898609,0.106318533,0.011457887,-0.016787136
5,1688394072.065387,0.354341865,-0.093373865,10.65659142,0.106318533,0.011457887,-0.016787136
6,1688394072.065387,0.354341865,-0.093373865,10.65898609,0.106052071,0.011457887,-0.016787136
7,1688394072.065387,0.354341865,-0.093373865,10.66137981,0.106052071,0.011457887,-0.016520673
8,1688394072.065387,0.354341865,-0.090979666,10.66137981,0.106052071,0.011457887,-0.016787136
9,1688394072.065387,0.354341865,-0.088585466,10.65898609,0.106052071,0.011191424,-0.016787136
10,1688394072.065387,0.354341865,-0.090979666,10.65180302,0.106052071,0.010924961,-0.016787136
11,1688394072.065387,0.354341865,-0.095768064,10.65180302,0.106052071,0.010924961,-0.016787136
12,1688394072.065387,0.356736064,-0.098162271,10.65419769,0.106318533,0.010924961,-0.016520673
13,1688394072.065387,0.354341865,-0.095768064,10.65419769,0.106052071,0.010924961,-0.016520673
14,1688394072.065387,0.356736064,-0.093373865,10.65180302,0.106052071,0.010924961,-0.016520673
0,1688394072.1883168,0.356736064,-0.095768064,10.65180302,0.106318533,0.011990812,-0.016520673
1,1688394072.1883168,0.354341865,-0.098162271,10.65180302,0.106318533,0.011724349,-0.016787136
2,1688394072.1883168,0.349553436,-0.098162271,10.65659142,0.106318533,0.011457887,-0.016787136
3,1688394072.1883168,0.349553436,-0.10055647,10.65419769,0.106318533,0.011457887,-0.016787136
4,1688394072.1883168,0.351947635,-0.10055647,10.65180302,0.106318533,0.011457887,-0.016520673
5,1688394072.1883168,0.351947635,-0.098162271,10.64940929,0.106318533,0.011457887,-0.016787136
6,1688394072.1883168,0.349553436,-0.098162271,10.64701462,0.106318533,0.011191424,-0.016520673
7,1688394072.1883168,0.349553436,-0.098162271,10.6446209,0.106318533,0.011457887,-0.016520673
8,1688394072.1883168,0.347159237,-0.095768064,10.64222622,0.106318533,0.011457887,-0.016520673
9,1688394072.1883168,0.347159237,-0.093373865,10.6398325,0.106318533,0.011457887,-0.016520673
10,1688394072.1883168,0.347159237,-0.093373865,10.63743782,0.106318533,0.011457887,-0.016520673
11,1688394072.1883168,0.344765037,-0.093373865,10.64222622,0.106318533,0.011457887,-0.016520673
12,1688394072.1883168,0.347159237,-0.093373865,10.6398325,0.106318533,0.011457887,-0.016520673
13,1688394072.1883168,0.351947635,-0.095768064,10.6350441,0.106318533,0.011457887,-0.016520673
14,1688394072.1883168,0.347159237,-0.095768064,10.6398325,0.106318533,0.011457887,-0.016520673
0,1688394072.3399107,0.351947635,-0.086191259,10.64222622,0.106851459,0.010924961,-0.016254211
1,1688394072.3399107,0.351947635,-0.086191259,10.64222622,0.106318533,0.010924961,-0.016254211
2,1688394072.3399107,0.354341865,-0.088585466,10.64222622,0.106584989,0.011191424,-0.016520673
3,1688394072.3399107,0.351947635,-0.090979666,10.6446209,0.106318533,0.011191424,-0.016520673
4,1688394072.3399107,0.349553436,-0.088585466,10.64222622,0.106318533,0.011191424,-0.016520673
5,1688394072.3399107,0.351947635,-0.086191259,10.64222622,0.106318533,0.011191424,-0.016520673
6,1688394072.3399107,0.354341865,-0.088585466,10.6446209,0.106318533,0.010924961,-0.016520673
7,1688394072.3399107,0.349553436,-0.086191259,10.64701462,0.106318533,0.011191424,-0.016254211
8,1688394072.3399107,0.347159237,-0.086191259,10.64940929,0.106318533,0.010924961,-0.016254211
9,1688394072.3399107,0.344765037,-0.086191259,10.6446209,0.106318533,0.011191424,-0.016254211
10,1688394072.3399107,0.347159237,-0.081402861,10.6446209,0.106052071,0.011191424,-0.016254211
11,1688394072.3399107,0.347159237,-0.079008654,10.6446209,0.106052071,0.011191424,-0.015987748
12,1688394072.3399107,0.347159237,-0.079008654,10.6446209,0.106052071,0.011191424,-0.015987748
13,1688394072.3399107,0.351947635,-0.081402861,10.64701462,0.106052071,0.011191424,-0.015987748
14,1688394072.3399107,0.351947635,-0.081402861,10.6446209,0.106052071,0.011191424,-0.015987748
0,1688394072.5581744,0.354341865,-0.093373865,10.64222622,0.106318533,0.011191424,-0.016520673
1,1688394072.5581744,0.354341865,-0.093373865,10.6446209,0.106318533,0.010924961,-0.016520673
2,1688394072.5581744,0.356736064,-0.093373865,10.6446209,0.106318533,0.010924961,-0.016520673
3,1688394072.5581744,0.354341865,-0.093373865,10.64701462,0.106318533,0.011191424,-0.016520673
4,1688394072.5581744,0.356736064,-0.093373865,10.65419769,0.106318533,0.010924961,-0.016520673
5,1688394072.5581744,0.356736064,-0.090979666,10.65419769,0.106318533,0.010924961,-0.016520673
6,1688394072.5581744,0.359130263,-0.090979666,10.64940929,0.106318533,0.010924961,-0.016520673
7,1688394072.5581744,0.359130263,-0.090979666,10.64701462,0.106584989,0.010924961,-0.016520673
8,1688394072.5581744,0.361524463,-0.093373865,10.64940929,0.106584989,0.010924961,-0.016520673
9,1688394072.5581744,0.361524463,-0.095768064,10.65180302,0.106584989,0.010924961,-0.016787136
10,1688394072.5581744,0.359130263,-0.093373865,10.65180302,0.106318533,0.010658499,-0.016787136
11,1688394072.5581744,0.356736064,-0.093373865,10.65180302,0.106318533,0.010658499,-0.016787136
12,1688394072.5581744,0.356736064,-0.090979666,10.65180302,0.106318533,0.010924961,-0.016787136
13,1688394072.5581744,0.356736064,-0.088585466,10.65180302,0.106318533,0.010924961,-0.016787136
14,1688394072.5581744,0.356736064,-0.088585466,10.65180302,0.106318533,0.010924961,-0.016787136
0,1688394072.6572123,0.356736064,-0.086191259,10.66377449,0.106318533,0.011457887,-0.015721286
1,1688394072.6572123,0.356736064,-0.088585466,10.66377449,0.106318533,0.011457887,-0.015721286
2,1688394072.6572123,0.356736064,-0.086191259,10.66137981,0.106318533,0.011457887,-0.015987748
3,1688394072.6572123,0.359130263,-0.086191259,10.66377449,0.106318533,0.011191424,-0.015987748
4,1688394072.6572123,0.356736064,-0.086191259,10.66137981,0.106584989,0.011191424,-0.015987748
5,1688394072.6572123,0.359130263,-0.088585466,10.65898609,0.106318533,0.011191424,-0.015987748
6,1688394072.6572123,0.361524463,-0.090979666,10.65659142,0.106318533,0.011191424,-0.015987748
7,1688394072.6572123,0.359130263,-0.090979666,10.64940929,0.106318533,0.011191424,-0.015987748
8,1688394072.6572123,0.359130263,-0.093373865,10.64940929,0.106318533,0.011191424,-0.015987748
9,1688394072.6572123,0.356736064,-0.090979666,10.65180302,0.106318533,0.011457887,-0.015987748
10,1688394072.6572123,0.359130263,-0.090979666,10.65180302,0.106052071,0.011191424,-0.015987748
11,1688394072.6572123,0.359130263,-0.093373865,10.65419769,0.106052071,0.011457887,-0.015987748
12,1688394072.6572123,0.356736064,-0.095768064,10.65419769,0.106318533,0.011457887,-0.016254211
13,1688394072.6572123,0.354341865,-0.098162271,10.65898609,0.106318533,0.011191424,-0.016254211
14,1688394072.6572123,0.351947635,-0.098162271,10.65898609,0.106318533,0.011457887,-0.016254211
0,1688394072.7781608,0.361524463,-0.08379706,10.6398325,0.106318533,0.011457887,-0.016520673
1,1688394072.7781608,0.361524463,-0.081402861,10.64222622,0.106318533,0.011457887,-0.016520673
2,1688394072.7781608,0.359130263,-0.081402861,10.64222622,0.106318533,0.011457887,-0.016520673
3,1688394072.7781608,0.359130263,-0.086191259,10.64701462,0.106052071,0.011724349,-0.016787136
4,1688394072.7781608,0.361524463,-0.088585466,10.64222622,0.106052071,0.011724349,-0.017053599
5,1688394072.7781608,0.361524463,-0.088585466,10.64222622,0.106052071,0.011724349,-0.017053599
6,1688394072.7781608,0.361524463,-0.088585466,10.63743782,0.106318533,0.011724349,-0.016787136
7,1688394072.7781608,0.359130263,-0.086191259,10.63264942,0.106318533,0.011724349,-0.016787136
8,1688394072.7781608,0.359130263,-0.086191259,10.6302557,0.106052071,0.011724349,-0.016787136
9,1688394072.7781608,0.356736064,-0.088585466,10.62786102,0.105785601,0.011457887,-0.016520673
10,1688394072.7781608,0.351947635,-0.088585466,10.62786102,0.105785601,0.011457887,-0.016254211
11,1688394072.7781608,0.349553436,-0.086191259,10.6254673,0.105785601,0.011457887,-0.016254211
12,1688394072.7781608,0.349553436,-0.086191259,10.6302557,0.105785601,0.011457887,-0.016254211
13,1688394072.7781608,0.347159237,-0.086191259,10.6302557,0.105785601,0.011191424,-0.016254211
14,1688394072.7781608,0.347159237,-0.086191259,10.63264942,0.105785601,0.011191424,-0.016254211
0,1688394072.9255407,0.354341865,-0.093373865,10.65659142,0.106851459,0.011457887,-0.015987748
1,1688394072.9255407,0.354341865,-0.093373865,10.65659142,0.106851459,0.011457887,-0.016254211
2,1688394072.9255407,0.354341865,-0.090979666,10.65419769,0.106851459,0.011457887,-0.016254211
3,1688394072.9255407,0.354341865,-0.088585466,10.65180302,0.106851459,0.011191424,-0.016254211
4,1688394072.9255407,0.356736064,-0.088585466,10.65419769,0.106584989,0.011191424,-0.015987748
5,1688394072.9255407,0.356736064,-0.086191259,10.65419769,0.106851459,0.011191424,-0.015987748
6,1688394072.9255407,0.356736064,-0.086191259,10.65898609,0.106584989,0.011191424,-0.015987748
7,1688394072.9255407,0.356736064,-0.088585466,10.65898609,0.106584989,0.011191424,-0.015987748
8,1688394072.9255407,0.359130263,-0.088585466,10.65898609,0.106584989,0.011191424,-0.015987748
9,1688394072.9255407,0.356736064,-0.090979666,10.65180302,0.106584989,0.011191424,-0.015987748
10,1688394072.9255407,0.354341865,-0.088585466,10.65180302,0.106584989,0.011457887,-0.015987748
11,1688394072.9255407,0.354341865,-0.088585466,10.65180302,0.106584989,0.011457887,-0.015987748
12,1688394072.9255407,0.356736064,-0.093373865,10.65180302,0.106584989,0.011457887,-0.015987748
13,1688394072.9255407,0.356736064,-0.090979666,10.64940929,0.106584989,0.011191424,-0.015987748
14,1688394072.9255407,0.359130263,-0.090979666,10.64940929,0.106584989,0.011191424,-0.015987748
0,1688394073.0771272,0.359130263,-0.088585466,10.64940929,0.106318533,0.011191424,-0.016520673
1,1688394073.0771272,0.356736064,-0.088585466,10.65419769,0.106318533,0.011191424,-0.016520673
2,1688394073.0771272,0.356736064,-0.088585466,10.65659142,0.106318533,0.011191424,-0.016520673
3,1688394073.0771272,0.354341865,-0.088585466,10.66137981,0.106318533,0.011191424,-0.016520673
4,1688394073.0771272,0.351947635,-0.088585466,10.65898609,0.106318533,0.011191424,-0.016520673
5,1688394073.0771272,0.349553436,-0.086191259,10.65898609,0.106318533,0.011191424,-0.016520673
6,1688394073.0771272,0.347159237,-0.088585466,10.65898609,0.106318533,0.011191424,-0.016520673
7,1688394073.0771272,0.347159237,-0.086191259,10.65898609,0.106318533,0.011457887,-0.016520673
8,1688394073.0771272,0.349553436,-0.086191259,10.66137981,0.106318533,0.011191424,-0.016520673
9,1688394073.0771272,0.349553436,-0.08379706,10.66137981,0.106318533,0.011191424,-0.016520673
10,1688394073.0771272,0.344765037,-0.08379706,10.65898609,0.106318533,0.011457887,-0.016520673
11,1688394073.0771272,0.344765037,-0.086191259,10.65659142,0.106318533,0.011457887,-0.016520673
12,1688394073.0771272,0.344765037,-0.086191259,10.65898609,0.106318533,0.011457887,-0.016520673
13,1688394073.0771272,0.342370838,-0.08379706,10.66137981,0.106318533,0.011457887,-0.016520673
14,1688394073.0771272,0.344765037,-0.081402861,10.66377449,0.106052071,0.011457887,-0.016520673
0,1688394073.2137756,0.351947635,-0.093373865,10.65898609,0.106318533,0.010924961,-0.016520673
1,1688394073.2137756,0.354341865,-0.093373865,10.65898609,0.106318533,0.010924961,-0.016520673
2,1688394073.2137756,0.354341865,-0.095768064,10.65659142,0.106318533,0.010924961,-0.016254211
3,1688394073.2137756,0.351947635,-0.098162271,10.65419769,0.106318533,0.010924961,-0.016520673
4,1688394073.2137756,0.349553436,-0.098162271,10.65180302,0.106584989,0.010924961,-0.016520673
5,1688394073.2137756,0.351947635,-0.098162271,10.64940929,0.106584989,0.011191424,-0.016520673
6,1688394073.2137756,0.351947635,-0.095768064,10.64701462,0.106584989,0.011191424,-0.016787136
7,1688394073.2137756,0.349553436,-0.095768064,10.64940929,0.106584989,0.011191424,-0.016787136
8,1688394073.2137756,0.351947635,-0.093373865,10.64701462,0.106318533,0.010924961,-0.016787136
9,1688394073.2137756,0.349553436,-0.093373865,10.64940929,0.106318533,0.010924961,-0.016787136
10,1688394073.2137756,0.347159237,-0.095768064,10.65180302,0.106318533,0.011191424,-0.016787136
11,1688394073.2137756,0.347159237,-0.093373865,10.65180302,0.106052071,0.011191424,-0.016520673
12,1688394073.2137756,0.347159237,-0.093373865,10.65180302,0.106052071,0.011191424,-0.016520673
13,1688394073.2137756,0.347159237,-0.095768064,10.64940929,0.106052071,0.011191424,-0.016520673
14,1688394073.2137756,0.344765037,-0.095768064,10.65180302,0.106052071,0.011191424,-0.016787136
0,1688394073.3627484,0.354341865,-0.093373865,10.6350441,0.106584989,0.011457887,-0.016254211
1,1688394073.3627484,0.354341865,-0.095768064,10.6350441,0.106318533,0.011191424,-0.016520673
2,1688394073.3627484,0.354341865,-0.093373865,10.63743782,0.106584989,0.011191424,-0.016520673
3,1688394073.3627484,0.356736064,-0.095768064,10.6398325,0.106318533,0.011191424,-0.016520673
4,1688394073.3627484,0.354341865,-0.098162271,10.6446209,0.106318533,0.011191424,-0.016520673
5,1688394073.3627484,0.356736064,-0.095768064,10.64701462,0.106318533,0.011457887,-0.016520673
6,1688394073.3627484,0.359130263,-0.098162271,10.64222622,0.106052071,0.011457887,-0.016520673
7,1688394073.3627484,0.356736064,-0.10055647,10.64222622,0.106318533,0.011457887,-0.016520673
8,1688394073.3627484,0.354341865,-0.10055647,10.6398325,0.106318533,0.011457887,-0.016520673
9,1688394073.3627484,0.356736064,-0.098162271,10.63743782,0.106318533,0.011191424,-0.016520673
10,1688394073.3627484,0.356736064,-0.10055647,10.6398325,0.106052071,0.011191424,-0.016520673
11,1688394073.3627484,0.356736064,-0.10295067,10.64222622,0.106052071,0.011191424,-0.016520673
12,1688394073.3627484,0.359130263,-0.10055647,10.6398325,0.106052071,0.011191424,-0.016520673
13,1688394073.3627484,0.359130263,-0.098162271,10.63743782,0.106052071,0.011191424,-0.016520673
14,1688394073.3627484,0.359130263,-0.095768064,10.63743782,0.106052071,0.011191424,-0.016520673
0,1688394073.5218437,0.351947635,-0.090979666,10.64701462,0.105785601,0.010658499,-0.016254211
1,1688394073.5218437,0.354341865,-0.090979666,10.64940929,0.105785601,0.010658499,-0.016254211
2,1688394073.5218437,0.354341865,-0.093373865,10.65419769,0.105785601,0.010658499,-0.016254211
3,1688394073.5218437,0.354341865,-0.093373865,10.65898609,0.105785601,0.010658499,-0.016254211
4,1688394073.5218437,0.356736064,-0.095768064,10.65898609,0.105785601,0.010392036,-0.016254211
5,1688394073.5218437,0.356736064,-0.095768064,10.66137981,0.105785601,0.010658499,-0.016520673
6,1688394073.5218437,0.356736064,-0.095768064,10.65898609,0.105785601,0.010392036,-0.016520673
7,1688394073.5218437,0.351947635,-0.093373865,10.65898609,0.105785601,0.010658499,-0.016520673
8,1688394073.5218437,0.354341865,-0.090979666,10.65659142,0.106052071,0.010658499,-0.016520673
9,1688394073.5218437,0.354341865,-0.090979666,10.65180302,0.106052071,0.010658499,-0.016520673
10,1688394073.5218437,0.351947635,-0.090979666,10.64940929,0.106318533,0.010658499,-0.016520673
11,1688394073.5218437,0.354341865,-0.088585466,10.65180302,0.106318533,0.010658499,-0.016787136
12,1688394073.5218437,0.354341865,-0.088585466,10.65419769,0.106318533,0.010924961,-0.016787136
13,1688394073.5218437,0.356736064,-0.086191259,10.65180302,0.106318533,0.010924961,-0.016520673
14,1688394073.5218437,0.356736064,-0.090979666,10.65180302,0.106052071,0.010924961,-0.016520673
0,1688394073.6347883,0.351947635,-0.090979666,10.64222622,0.106318533,0.011191424,-0.015987748
1,1688394073.6347883,0.351947635,-0.088585466,10.64222622,0.106052071,0.011191424,-0.015987748
2,1688394073.6347883,0.351947635,-0.093373865,10.64222622,0.106318533,0.011191424,-0.016254211
3,1688394073.6347883,0.349553436,-0.093373865,10.6398325,0.106318533,0.011191424,-0.016254211
4,1688394073.6347883,0.349553436,-0.093373865,10.64222622,0.106318533,0.011191424,-0.016254211
5,1688394073.6347883,0.354341865,-0.093373865,10.64701462,0.106318533,0.010924961,-0.016254211
6,1688394073.6347883,0.349553436,-0.088585466,10.64701462,0.106318533,0.010924961,-0.016254211
7,1688394073.6347883,0.351947635,-0.088585466,10.6446209,0.106318533,0.010924961,-0.016254211
8,1688394073.6347883,0.351947635,-0.088585466,10.64701462,0.106318533,0.010924961,-0.016254211
9,1688394073.6347883,0.354341865,-0.088585466,10.64940929,0.106584989,0.010924961,-0.016254211
10,1688394073.6347883,0.354341865,-0.090979666,10.64701462,0.106584989,0.010924961,-0.016254211
11,1688394073.6347883,0.351947635,-0.093373865,10.64701462,0.106584989,0.011191424,-0.016254211
12,1688394073.6347883,0.351947635,-0.090979666,10.64701462,0.106851459,0.011191424,-0.016254211
13,1688394073.6347883,0.351947635,-0.090979666,10.64940929,0.106584989,0.011191424,-0.016254211
14,1688394073.6347883,0.351947635,-0.093373865,10.65180302,0.106584989,0.011191424,-0.016254211
0,1688394073.7688682,0.359130263,-0.095768064,10.63743782,0.106052071,0.011457887,-0.016787136
1,1688394073.7688682,0.361524463,-0.095768064,10.63743782,0.106318533,0.011457887,-0.016787136
2,1688394073.7688682,0.359130263,-0.098162271,10.63743782,0.106052071,0.011457887,-0.016787136
3,1688394073.7688682,0.354341865,-0.095768064,10.63743782,0.106318533,0.011457887,-0.016787136
4,1688394073.7688682,0.356736064,-0.095768064,10.6398325,0.106318533,0.011724349,-0.016787136
5,1688394073.7688682,0.354341865,-0.095768064,10.6398325,0.106318533,0.011457887,-0.016787136
6,1688394073.7688682,0.354341865,-0.093373865,10.63743782,0.106584989,0.011457887,-0.016520673
7,1688394073.7688682,0.354341865,-0.093373865,10.6398325,0.106318533,0.011457887,-0.016520673
8,1688394073.7688682,0.354341865,-0.093373865,10.6446209,0.106318533,0.011457887,-0.016787136
9,1688394073.7688682,0.351947635,-0.090979666,10.6446209,0.106318533,0.011457887,-0.016787136
10,1688394073.7688682,0.351947635,-0.088585466,10.64701462,0.106318533,0.011457887,-0.016787136
11,1688394073.7688682,0.351947635,-0.088585466,10.6446209,0.106318533,0.011191424,-0.016787136
12,1688394073.7688682,0.351947635,-0.090979666,10.64222622,0.106584989,0.010924961,-0.016520673
13,1688394073.7688682,0.351947635,-0.093373865,10.64222622,0.106584989,0.010924961,-0.016520673
14,1688394073.7688682,0.354341865,-0.093373865,10.64701462,0.106584989,0.010924961,-0.016520673
0,1688394073.9311795,0.354341865,-0.08379706,10.64701462,0.106052071,0.010924961,-0.016787136
1,1688394073.9311795,0.356736064,-0.086191259,10.64940929,0.106052071,0.010924961,-0.016787136
2,1688394073.9311795,0.356736064,-0.08379706,10.65180302,0.106052071,0.010924961,-0.016787136
3,1688394073.9311795,0.356736064,-0.08379706,10.65180302,0.105785601,0.010924961,-0.016520673
4,1688394073.9311795,0.359130263,-0.086191259,10.65180302,0.105785601,0.010924961,-0.016520673
5,1688394073.9311795,0.354341865,-0.090979666,10.65419769,0.105785601,0.011191424,-0.016520673
6,1688394073.9311795,0.354341865,-0.090979666,10.65419769,0.105785601,0.010924961,-0.016520673
7,1688394073.9311795,0.356736064,-0.088585466,10.65659142,0.105785601,0.010924961,-0.016520673
8,1688394073.9311795,0.359130263,-0.086191259,10.65898609,0.106052071,0.010924961,-0.016254211
9,1688394073.9311795,0.361524463,-0.08379706,10.66137981,0.106052071,0.010924961,-0.016254211
10,1688394073.9311795,0.359130263,-0.086191259,10.66137981,0.106052071,0.010924961,-0.016254211
11,1688394073.9311795,0.361524463,-0.08379706,10.65898609,0.106052071,0.010658499,-0.016254211
12,1688394073.9311795,0.363918662,-0.08379706,10.65898609,0.106052071,0.010658499,-0.016520673
13,1688394073.9311795,0.363918662,-0.08379706,10.66137981,0.106052071,0.010658499,-0.016520673
14,1688394073.9311795,0.363918662,-0.08379706,10.65898609,0.106052071,0.010658499,-0.016520673
0,1688394074.0781515,0.361524463,-0.10055647,10.66377449,0.106318533,0.011191424,-0.015987748
1,1688394074.0781515,0.359130263,-0.10055647,10.66137981,0.106052071,0.011191424,-0.015987748
2,1688394074.0781515,0.359130263,-0.098162271,10.66137981,0.106052071,0.010924961,-0.016254211
3,1688394074.0781515,0.359130263,-0.098162271,10.66137981,0.106052071,0.011191424,-0.016254211
4,1688394074.0781515,0.361524463,-0.098162271,10.65898609,0.106052071,0.011191424,-0.016254211
5,1688394074.0781515,0.361524463,-0.098162271,10.65898609,0.106318533,0.011191424,-0.016254211
6,1688394074.0781515,0.359130263,-0.098162271,10.65659142,0.106318533,0.011191424,-0.016520673
7,1688394074.0781515,0.359130263,-0.098162271,10.65898609,0.106318533,0.011457887,-0.016520673
8,1688394074.0781515,0.361524463,-0.090979666,10.65898609,0.106584989,0.011457887,-0.016520673
9,1688394074.0781515,0.363918662,-0.088585466,10.65898609,0.106318533,0.011457887,-0.016520673
10,1688394074.0781515,0.363918662,-0.090979666,10.65898609,0.106584989,0.011457887,-0.016520673
11,1688394074.0781515,0.363918662,-0.088585466,10.65659142,0.106318533,0.011457887,-0.016520673
12,1688394074.0781515,0.363918662,-0.088585466,10.65659142,0.106318533,0.011457887,-0.016520673
13,1688394074.0781515,0.363918662,-0.086191259,10.65419769,0.106318533,0.011191424,-0.016787136
14,1688394074.0781515,0.359130263,-0.086191259,10.65419769,0.106584989,0.011457887,-0.016520673
0,1688394074.2251847,0.356736064,-0.095768064,10.65659142,0.106052071,0.011457887,-0.015987748
1,1688394074.2251847,0.361524463,-0.098162271,10.65898609,0.106318533,0.011457887,-0.015987748
2,1688394074.2251847,0.359130263,-0.095768064,10.66137981,0.106052071,0.011191424,-0.015987748
3,1688394074.2251847,0.359130263,-0.095768064,10.66137981,0.106318533,0.011191424,-0.015987748
4,1688394074.2251847,0.354341865,-0.095768064,10.65898609,0.106318533,0.011191424,-0.015987748
5,1688394074.2251847,0.354341865,-0.095768064,10.65419769,0.106318533,0.010924961,-0.015987748
6,1688394074.2251847,0.354341865,-0.095768064,10.65419769,0.106584989,0.010924961,-0.015987748
7,1688394074.2251847,0.354341865,-0.095768064,10.65180302,0.106584989,0.011191424,-0.015987748
8,1688394074.2251847,0.351947635,-0.095768064,10.64940929,0.106584989,0.011191424,-0.015987748
9,1688394074.2251847,0.351947635,-0.095768064,10.64701462,0.106584989,0.011191424,-0.015987748
10,1688394074.2251847,0.351947635,-0.095768064,10.6446209,0.106318533,0.010924961,-0.015987748
11,1688394074.2251847,0.347159237,-0.093373865,10.64701462,0.106584989,0.011191424,-0.015987748
12,1688394074.2251847,0.349553436,-0.093373865,10.64701462,0.106584989,0.011191424,-0.016254211
13,1688394074.2251847,0.347159237,-0.090979666,10.64701462,0.106318533,0.011457887,-0.016520673
14,1688394074.2251847,0.347159237,-0.090979666,10.64701462,0.106318533,0.011457887,-0.016520673
0,1688394074.3675838,0.351947635,-0.090979666,10.64940929,0.106052071,0.011457887,-0.016520673
1,1688394074.3675838,0.354341865,-0.093373865,10.64701462,0.106052071,0.011191424,-0.016520673
2,1688394074.3675838,0.354341865,-0.093373865,10.65180302,0.106052071,0.011191424,-0.016254211
3,1688394074.3675838,0.356736064,-0.093373865,10.64701462,0.106318533,0.011457887,-0.016254211
4,1688394074.3675838,0.359130263,-0.090979666,10.6446209,0.106318533,0.011457887,-0.016520673
5,1688394074.3675838,0.359130263,-0.090979666,10.6398325,0.106318533,0.011457887,-0.016254211
6,1688394074.3675838,0.356736064,-0.088585466,10.64222622,0.106584989,0.011457887,-0.016520673
7,1688394074.3675838,0.356736064,-0.090979666,10.64222622,0.106584989,0.011457887,-0.016520673
8,1688394074.3675838,0.354341865,-0.090979666,10.6398325,0.106318533,0.011457887,-0.016520673
9,1688394074.3675838,0.349553436,-0.090979666,10.6398325,0.106318533,0.011457887,-0.016520673
10,1688394074.3675838,0.349553436,-0.090979666,10.6398325,0.106318533,0.011457887,-0.016520673
11,1688394074.3675838,0.349553436,-0.093373865,10.6398325,0.106318533,0.011724349,-0.016520673
12,1688394074.3675838,0.347159237,-0.088585466,10.64222622,0.106318533,0.011457887,-0.016520673
13,1688394074.3675838,0.349553436,-0.088585466,10.6446209,0.106318533,0.011457887,-0.016520673
14,1688394074.3675838,0.349553436,-0.088585466,10.64701462,0.106318533,0.011457887,-0.016520673
0,1688394074.5178373,0.349553436,-0.088585466,10.64940929,0.106052071,0.011191424,-0.016520673
1,1688394074.5178373,0.344765037,-0.088585466,10.64940929,0.106052071,0.011457887,-0.016520673
2,1688394074.5178373,0.344765037,-0.086191259,10.64940929,0.106318533,0.011457887,-0.016254211
3,1688394074.5178373,0.344765037,-0.088585466,10.65659142,0.106052071,0.011457887,-0.016254211
4,1688394074.5178373,0.347159237,-0.090979666,10.66137981,0.106318533,0.011724349,-0.016254211
5,1688394074.5178373,0.347159237,-0.090979666,10.66377449,0.106318533,0.011724349,-0.016520673
6,1688394074.5178373,0.347159237,-0.090979666,10.66616821,0.106318533,0.011724349,-0.016520673
7,1688394074.5178373,0.347159237,-0.090979666,10.66616821,0.106318533,0.011990812,-0.016520673
8,1688394074.5178373,0.347159237,-0.088585466,10.66616821,0.106318533,0.011990812,-0.016520673
9,1688394074.5178373,0.349553436,-0.090979666,10.66856289,0.106318533,0.011724349,-0.016520673
10,1688394074.5178373,0.351947635,-0.093373865,10.66616821,0.106318533,0.011990812,-0.016520673
11,1688394074.5178373,0.351947635,-0.088585466,10.66856289,0.106318533,0.011990812,-0.016520673
12,1688394074.5178373,0.354341865,-0.088585466,10.66616821,0.106318533,0.011990812,-0.016520673
13,1688394074.5178373,0.354341865,-0.088585466,10.66616821,0.106318533,0.011724349,-0.016520673
14,1688394074.5178373,0.354341865,-0.088585466,10.66616821,0.106318533,0.011724349,-0.016520673
0,1688394074.6121914,0.354341865,-0.095768064,10.65659142,0.106584989,0.010924961,-0.016254211
1,1688394074.6121914,0.354341865,-0.093373865,10.65419769,0.106318533,0.010658499,-0.016254211
2,1688394074.6121914,0.351947635,-0.093373865,10.65419769,0.106318533,0.010658499,-0.015987748
3,1688394074.6121914,0.347159237,-0.095768064,10.64940929,0.106584989,0.010924961,-0.015987748
4,1688394074.6121914,0.347159237,-0.095768064,10.64701462,0.106584989,0.010924961,-0.015987748
5,1688394074.6121914,0.349553436,-0.093373865,10.6446209,0.106584989,0.010924961,-0.016254211
6,1688394074.6121914,0.349553436,-0.093373865,10.6398325,0.106584989,0.010924961,-0.016254211
7,1688394074.6121914,0.349553436,-0.093373865,10.64222622,0.106584989,0.010924961,-0.016254211
8,1688394074.6121914,0.349553436,-0.090979666,10.6446209,0.106584989,0.010924961,-0.016520673
9,1688394074.6121914,0.354341865,-0.090979666,10.64701462,0.106318533,0.010658499,-0.016520673
10,1688394074.6121914,0.354341865,-0.093373865,10.64701462,0.106318533,0.010658499,-0.016254211
11,1688394074.6121914,0.359130263,-0.095768064,10.64940929,0.106318533,0.010658499,-0.016254211
12,1688394074.6121914,0.359130263,-0.095768064,10.64701462,0.106318533,0.010924961,-0.016254211
13,1688394074.6121914,0.359130263,-0.093373865,10.64701462,0.106318533,0.010924961,-0.016254211
14,1688394074.6121914,0.356736064,-0.093373865,10.64701462,0.106318533,0.010924961,-0.016520673
0,1688394074.7668982,0.356736064,-0.10055647,10.65419769,0.106318533,0.011457887,-0.016520673
1,1688394074.7668982,0.356736064,-0.098162271,10.64940929,0.106318533,0.011724349,-0.016520673
2,1688394074.7668982,0.361524463,-0.095768064,10.64701462,0.106318533,0.011724349,-0.016520673
3,1688394074.7668982,0.363918662,-0.098162271,10.64940929,0.106318533,0.011990812,-0.016787136
4,1688394074.7668982,0.361524463,-0.093373865,10.64701462,0.106318533,0.011724349,-0.016787136
5,1688394074.7668982,0.361524463,-0.093373865,10.64701462,0.106318533,0.011724349,-0.016520673
6,1688394074.7668982,0.361524463,-0.093373865,10.65180302,0.106584989,0.011724349,-0.016787136
7,1688394074.7668982,0.361524463,-0.095768064,10.64940929,0.106584989,0.011724349,-0.016787136
8,1688394074.7668982,0.361524463,-0.095768064,10.65180302,0.106318533,0.011724349,-0.016787136
9,1688394074.7668982,0.361524463,-0.098162271,10.64701462,0.106318533,0.011457887,-0.016787136
10,1688394074.7668982,0.359130263,-0.095768064,10.64701462,0.106318533,0.011457887,-0.016787136
11,1688394074.7668982,0.359130263,-0.098162271,10.6446209,0.106318533,0.011457887,-0.016520673
12,1688394074.7668982,0.356736064,-0.10055647,10.64940929,0.106318533,0.011191424,-0.016520673
13,1688394074.7668982,0.356736064,-0.10055647,10.64940929,0.106318533,0.011457887,-0.016254211
14,1688394074.7668982,0.356736064,-0.10055647,10.64940929,0.106052071,0.011191424,-0.016254211
0,1688394074.8977509,0.351947635,-0.093373865,10.65419769,0.106584989,0.010658499,-0.016520673
1,1688394074.8977509,0.349553436,-0.098162271,10.65180302,0.106584989,0.010924961,-0.016520673
2,1688394074.8977509,0.351947635,-0.098162271,10.64940929,0.106584989,0.010924961,-0.016254211
3,1688394074.8977509,0.351947635,-0.095768064,10.64701462,0.106584989,0.010658499,-0.016254211
4,1688394074.8977509,0.349553436,-0.098162271,10.64222622,0.106584989,0.010658499,-0.016520673
5,1688394074.8977509,0.349553436,-0.095768064,10.6446209,0.106584989,0.010924961,-0.016520673
6,1688394074.8977509,0.347159237,-0.098162271,10.64701462,0.106318533,0.011191424,-0.016254211
7,1688394074.8977509,0.347159237,-0.098162271,10.64701462,0.106318533,0.011191424,-0.016520673
8,1688394074.8977509,0.349553436,-0.098162271,10.64701462,0.106318533,0.011191424,-0.016254211
9,1688394074.8977509,0.349553436,-0.098162271,10.64940929,0.106318533,0.011191424,-0.016254211
10,1688394074.8977509,0.354341865,-0.095768064,10.64940929,0.106052071,0.010924961,-0.016254211
11,1688394074.8977509,0.356736064,-0.095768064,10.6446209,0.106052071,0.010924961,-0.016254211
12,1688394074.8977509,0.356736064,-0.093373865,10.64222622,0.106052071,0.011191424,-0.016254211
13,1688394074.8977509,0.356736064,-0.093373865,10.64222622,0.106052071,0.011191424,-0.016254211
14,1688394074.8977509,0.356736064,-0.093373865,10.64222622,0.106052071,0.011191424,-0.016254211
0,1688394075.0475423,0.351947635,-0.095768064,10.63743782,0.106052071,0.011457887,-0.016787136
1,1688394075.0475423,0.354341865,-0.095768064,10.6398325,0.106052071,0.011457887,-0.016787136
2,1688394075.0475423,0.351947635,-0.095768064,10.6446209,0.106052071,0.011191424,-0.016787136
3,1688394075.0475423,0.354341865,-0.098162271,10.6446209,0.106052071,0.011191424,-0.016787136
4,1688394075.0475423,0.356736064,-0.098162271,10.64701462,0.106052071,0.011457887,-0.016787136
5,1688394075.0475423,0.356736064,-0.095768064,10.65180302,0.106052071,0.011457887,-0.016787136
6,1688394075.0475423,0.359130263,-0.098162271,10.65180302,0.106052071,0.011457887,-0.016787136
7,1688394075.0475423,0.359130263,-0.098162271,10.64940929,0.106318533,0.011191424,-0.016787136
8,1688394075.0475423,0.356736064,-0.098162271,10.65180302,0.106052071,0.011457887,-0.016787136
9,1688394075.0475423,0.359130263,-0.098162271,10.65180302,0.106052071,0.011457887,-0.016787136
10,1688394075.0475423,0.359130263,-0.10055647,10.64701462,0.106052071,0.011191424,-0.016787136
11,1688394075.0475423,0.361524463,-0.098162271,10.64940929,0.106052071,0.011191424,-0.016787136
12,1688394075.0475423,0.361524463,-0.098162271,10.64940929,0.106052071,0.011191424,-0.016787136
13,1688394075.0475423,0.363918662,-0.095768064,10.6446209,0.105785601,0.011457887,-0.016787136
14,1688394075.0475423,0.361524463,-0.095768064,10.6446209,0.105785601,0.011457887,-0.016787136
0,1688394075.1781962,0.351947635,-0.090979666,10.65659142,0.106584989,0.011457887,-0.016520673
1,1688394075.1781962,0.351947635,-0.093373865,10.65180302,0.106318533,0.011457887,-0.016520673
2,1688394075.1781962,0.351947635,-0.090979666,10.65180302,0.106318533,0.011457887,-0.016520673
3,1688394075.1781962,0.351947635,-0.088585466,10.65180302,0.106318533,0.011457887,-0.016520673
4,1688394075.1781962,0.351947635,-0.088585466,10.64701462,0.106318533,0.011457887,-0.016520673
5,1688394075.1781962,0.351947635,-0.086191259,10.6446209,0.106584989,0.011457887,-0.016520673
6,1688394075.1781962,0.351947635,-0.086191259,10.6446209,0.106584989,0.011457887,-0.016520673
7,1688394075.1781962,0.351947635,-0.086191259,10.64701462,0.106318533,0.011724349,-0.016520673
8,1688394075.1781962,0.354341865,-0.086191259,10.64940929,0.106318533,0.011724349,-0.016520673
9,1688394075.1781962,0.354341865,-0.088585466,10.65419769,0.106318533,0.011724349,-0.016787136
10,1688394075.1781962,0.354341865,-0.090979666,10.65180302,0.106052071,0.011724349,-0.016787136
11,1688394075.1781962,0.354341865,-0.090979666,10.65180302,0.106318533,0.011724349,-0.016520673
12,1688394075.1781962,0.349553436,-0.088585466,10.65659142,0.106318533,0.011457887,-0.016520673
13,1688394075.1781962,0.351947635,-0.090979666,10.65419769,0.106584989,0.011457887,-0.016787136
14,1688394075.1781962,0.351947635,-0.088585466,10.65180302,0.106584989,0.011457887,-0.016520673
0,1688394075.3338063,0.361524463,-0.093373865,10.64701462,0.106318533,0.011457887,-0.016787136
1,1688394075.3338063,0.359130263,-0.093373865,10.64701462,0.106318533,0.011724349,-0.016787136
2,1688394075.3338063,0.354341865,-0.093373865,10.6446209,0.106318533,0.011457887,-0.016787136
3,1688394075.3338063,0.354341865,-0.090979666,10.6446209,0.106318533,0.011457887,-0.016787136
4,1688394075.3338063,0.354341865,-0.090979666,10.64940929,0.106318533,0.011457887,-0.016787136
5,1688394075.3338063,0.351947635,-0.093373865,10.65180302,0.106584989,0.011457887,-0.016520673
6,1688394075.3338063,0.356736064,-0.090979666,10.65419769,0.106584989,0.011457887,-0.016520673
7,1688394075.3338063,0.359130263,-0.090979666,10.65419769,0.106584989,0.011457887,-0.016520673
8,1688394075.3338063,0.359130263,-0.090979666,10.65659142,0.106584989,0.011191424,-0.016520673
9,1688394075.3338063,0.356736064,-0.090979666,10.66137981,0.106584989,0.011191424,-0.016520673
10,1688394075.3338063,0.354341865,-0.088585466,10.66137981,0.106851459,0.011191424,-0.016520673
11,1688394075.3338063,0.351947635,-0.086191259,10.66137981,0.106851459,0.010924961,-0.016520673
12,1688394075.3338063,0.349553436,-0.086191259,10.66137981,0.106851459,0.010924961,-0.016520673
13,1688394075.3338063,0.351947635,-0.08379706,10.66137981,0.106851459,0.010924961,-0.016520673
14,1688394075.3338063,0.349553436,-0.08379706,10.65898609,0.106851459,0.010924961,-0.016254211
0,1688394075.5121415,0.354341865,-0.093373865,10.64701462,0.106318533,0.011724349,-0.016254211
1,1688394075.5121415,0.356736064,-0.093373865,10.65180302,0.106318533,0.011724349,-0.016254211
2,1688394075.5121415,0.359130263,-0.093373865,10.65419769,0.106318533,0.011724349,-0.016520673
3,1688394075.5121415,0.356736064,-0.090979666,10.65419769,0.106318533,0.011724349,-0.016520673
4,1688394075.5121415,0.356736064,-0.088585466,10.65180302,0.106318533,0.011724349,-0.016520673
5,1688394075.5121415,0.351947635,-0.088585466,10.65180302,0.106318533,0.011724349,-0.016787136
6,1688394075.5121415,0.349553436,-0.088585466,10.65180302,0.106318533,0.011724349,-0.016787136
7,1688394075.5121415,0.349553436,-0.088585466,10.65180302,0.106318533,0.011724349,-0.016787136
8,1688394075.5121415,0.349553436,-0.088585466,10.65180302,0.106584989,0.011724349,-0.017053599
9,1688394075.5121415,0.351947635,-0.088585466,10.65180302,0.106851459,0.011457887,-0.016787136
10,1688394075.5121415,0.349553436,-0.090979666,10.65180302,0.106584989,0.011457887,-0.016787136
11,1688394075.5121415,0.347159237,-0.090979666,10.65659142,0.106584989,0.011457887,-0.016787136
12,1688394075.5121415,0.344765037,-0.090979666,10.65419769,0.106584989,0.011457887,-0.016787136
13,1688394075.5121415,0.344765037,-0.086191259,10.65419769,0.106584989,0.011457887,-0.016520673
14,1688394075.5121415,0.344765037,-0.086191259,10.65419769,0.106318533,0.011457887,-0.016520673
0,1688394075.6288896,0.354341865,-0.095768064,10.64701462,0.106318533,0.011457887,-0.016254211
1,1688394075.6288896,0.351947635,-0.090979666,10.64701462,0.106318533,0.011457887,-0.016254211
2,1688394075.6288896,0.349553436,-0.090979666,10.64940929,0.106318533,0.011457887,-0.016254211
3,1688394075.6288896,0.349553436,-0.090979666,10.64940929,0.106052071,0.011457887,-0.016254211
4,1688394075.6288896,0.347159237,-0.088585466,10.6446209,0.106318533,0.011191424,-0.016254211
5,1688394075.6288896,0.344765037,-0.090979666,10.6446209,0.106318533,0.011191424,-0.016254211
6,1688394075.6288896,0.349553436,-0.088585466,10.64701462,0.106052071,0.011457887,-0.016254211
7,1688394075.6288896,0.347159237,-0.088585466,10.64940929,0.106318533,0.011191424,-0.016254211
8,1688394075.6288896,0.349553436,-0.086191259,10.64940929,0.106318533,0.011191424,-0.016254211
9,1688394075.6288896,0.347159237,-0.088585466,10.64701462,0.106318533,0.011191424,-0.016254211
10,1688394075.6288896,0.349553436,-0.088585466,10.6446209,0.106318533,0.011191424,-0.016254211
11,1688394075.6288896,0.347159237,-0.088585466,10.64701462,0.106318533,0.010924961,-0.016520673
12,1688394075.6288896,0.349553436,-0.086191259,10.64940929,0.106318533,0.010924961,-0.016520673
13,1688394075.6288896,0.351947635,-0.086191259,10.6446209,0.106318533,0.010924961,-0.016520673
14,1688394075.6288896,0.351947635,-0.08379706,10.6398325,0.106052071,0.010924961,-0.016520673
0,1688394075.7992668,0.351947635,-0.090979666,10.64222622,0.106318533,0.011191424,-0.016254211
1,1688394075.7992668,0.349553436,-0.090979666,10.6446209,0.106052071,0.010924961,-0.016254211
2,1688394075.7992668,0.347159237,-0.090979666,10.6398325,0.106318533,0.010924961,-0.016254211
3,1688394075.7992668,0.347159237,-0.090979666,10.6398325,0.106052071,0.011191424,-0.016254211
4,1688394075.7992668,0.349553436,-0.086191259,10.64222622,0.106318533,0.011191424,-0.016254211
5,1688394075.7992668,0.351947635,-0.086191259,10.6446209,0.106318533,0.011191424,-0.015987748
6,1688394075.7992668,0.351947635,-0.086191259,10.64701462,0.106584989,0.011191424,-0.015987748
7,1688394075.7992668,0.351947635,-0.08379706,10.65419769,0.106584989,0.011191424,-0.016254211
8,1688394075.7992668,0.351947635,-0.081402861,10.65659142,0.106584989,0.011191424,-0.015987748
9,1688394075.7992668,0.354341865,-0.081402861,10.65419769,0.106318533,0.011191424,-0.015987748
10,1688394075.7992668,0.354341865,-0.081402861,10.65419769,0.106584989,0.011191424,-0.015987748
11,1688394075.7992668,0.354341865,-0.081402861,10.65180302,0.106584989,0.010924961,-0.016254211
12,1688394075.7992668,0.354341865,-0.081402861,10.65419769,0.106584989,0.011191424,-0.015987748
13,1688394075.7992668,0.356736064,-0.081402861,10.65659142,0.106584989,0.011191424,-0.015987748
14,1688394075.7992668,0.356736064,-0.081402861,10.65659142,0.106318533,0.010924961,-0.015987748
0,1688394075.9211845,0.349553436,-0.090979666,10.65180302,0.106584989,0.011191424,-0.016254211
1,1688394075.9211845,0.349553436,-0.090979666,10.65659142,0.106584989,0.011191424,-0.016254211
2,1688394075.9211845,0.349553436,-0.090979666,10.64940929,0.106318533,0.011457887,-0.016254211
3,1688394075.9211845,0.347159237,-0.088585466,10.64940929,0.106318533,0.011191424,-0.016254211
4,1688394075.9211845,0.347159237,-0.088585466,10.65419769,0.106318533,0.011191424,-0.016254211
5,1688394075.9211845,0.351947635,-0.090979666,10.65419769,0.106584989,0.011457887,-0.016254211
6,1688394075.9211845,0.349553436,-0.088585466,10.65180302,0.106318533,0.011457887,-0.016254211
7,1688394075.9211845,0.349553436,-0.090979666,10.65180302,0.106318533,0.011724349,-0.016520673
8,1688394075.9211845,0.351947635,-0.090979666,10.65180302,0.106318533,0.011724349,-0.016520673
9,1688394075.9211845,0.354341865,-0.090979666,10.64701462,0.106584989,0.011724349,-0.016520673
10,1688394075.9211845,0.354341865,-0.093373865,10.64222622,0.106318533,0.011724349,-0.016254211
11,1688394075.9211845,0.356736064,-0.090979666,10.6446209,0.106584989,0.011724349,-0.016520673
12,1688394075.9211845,0.359130263,-0.093373865,10.64701462,0.106318533,0.011724349,-0.016520673
13,1688394075.9211845,0.356736064,-0.093373865,10.64701462,0.106584989,0.011457887,-0.016254211
14,1688394075.9211845,0.356736064,-0.093373865,10.64940929,0.106318533,0.011457887,-0.016254211
0,1688394076.0499616,0.368707061,-0.098162271,10.63264942,0.106052071,0.011191424,-0.016520673
1,1688394076.0499616,0.366312861,-0.098162271,10.6350441,0.106052071,0.011191424,-0.016520673
2,1688394076.0499616,0.368707061,-0.098162271,10.6350441,0.106052071,0.011191424,-0.016520673
3,1688394076.0499616,0.37110126,-0.098162271,10.6302557,0.106052071,0.011191424,-0.016787136
4,1688394076.0499616,0.37110126,-0.095768064,10.62786102,0.106052071,0.011191424,-0.016787136
5,1688394076.0499616,0.37110126,-0.095768064,10.6302557,0.106318533,0.011457887,-0.016520673
6,1688394076.0499616,0.368707061,-0.095768064,10.62786102,0.106318533,0.011457887,-0.016520673
7,1688394076.0499616,0.366312861,-0.095768064,10.62786102,0.106318533,0.011724349,-0.016520673
8,1688394076.0499616,0.366312861,-0.090979666,10.62786102,0.106318533,0.011457887,-0.016787136
9,1688394076.0499616,0.366312861,-0.090979666,10.6254673,0.106318533,0.011457887,-0.016787136
10,1688394076.0499616,0.363918662,-0.090979666,10.62786102,0.106318533,0.011457887,-0.016787136
11,1688394076.0499616,0.366312861,-0.090979666,10.6302557,0.106318533,0.011724349,-0.016787136
12,1688394076.0499616,0.363918662,-0.095768064,10.63264942,0.106318533,0.011724349,-0.016787136
13,1688394076.0499616,0.361524463,-0.095768064,10.6350441,0.106584989,0.011457887,-0.016787136
14,1688394076.0499616,0.359130263,-0.095768064,10.6350441,0.106318533,0.011724349,-0.016787136
0,1688394076.1829107,0.359130263,-0.088585466,10.64222622,0.106052071,0.010924961,-0.016520673
1,1688394076.1829107,0.356736064,-0.090979666,10.6446209,0.106052071,0.010924961,-0.016520673
2,1688394076.1829107,0.356736064,-0.093373865,10.64222622,0.106052071,0.010924961,-0.016520673
3,1688394076.1829107,0.356736064,-0.088585466,10.64701462,0.106052071,0.010924961,-0.016254211
4,1688394076.1829107,0.351947635,-0.086191259,10.64701462,0.106052071,0.011191424,-0.016254211
5,1688394076.1829107,0.349553436,-0.086191259,10.6446209,0.106318533,0.011191424,-0.016254211
6,1688394076.1829107,0.347159237,-0.088585466,10.6398325,0.106318533,0.011457887,-0.016254211
7,1688394076.1829107,0.344765037,-0.088585466,10.64222622,0.106052071,0.011457887,-0.016254211
8,1688394076.1829107,0.344765037,-0.090979666,10.64222622,0.106052071,0.011457887,-0.016254211
9,1688394076.1829107,0.349553436,-0.093373865,10.6398325,0.106052071,0.011191424,-0.016520673
10,1688394076.1829107,0.351947635,-0.090979666,10.63743782,0.105785601,0.011191424,-0.016254211
11,1688394076.1829107,0.354341865,-0.093373865,10.6350441,0.106052071,0.011191424,-0.016254211
12,1688394076.1829107,0.354341865,-0.090979666,10.6302557,0.106052071,0.010924961,-0.016254211
13,1688394076.1829107,0.354341865,-0.090979666,10.6302557,0.106052071,0.010924961,-0.016254211
14,1688394076.1829107,0.351947635,-0.090979666,10.63264942,0.106052071,0.010924961,-0.016254211
0,1688394076.3624527,0.354341865,-0.095768064,10.65419769,0.106052071,0.011191424,-0.016254211
1,1688394076.3624527,0.354341865,-0.093373865,10.65180302,0.106052071,0.011191424,-0.016520673
2,1688394076.3624527,0.351947635,-0.093373865,10.65419769,0.106318533,0.011191424,-0.016520673
3,1688394076.3624527,0.351947635,-0.090979666,10.65419769,0.106318533,0.011191424,-0.016520673
4,1688394076.3624527,0.349553436,-0.090979666,10.65419769,0.106318533,0.011457887,-0.016520673
5,1688394076.3624527,0.347159237,-0.093373865,10.65419769,0.106318533,0.011457887,-0.016254211
6,1688394076.3624527,0.344765037,-0.093373865,10.65659142,0.106318533,0.011457887,-0.016520673
7,1688394076.3624527,0.347159237,-0.098162271,10.65659142,0.106052071,0.011724349,-0.016254211
8,1688394076.3624527,0.347159237,-0.098162271,10.65659142,0.106052071,0.011724349,-0.016520673
9,1688394076.3624527,0.344765037,-0.10055647,10.65898609,0.106052071,0.011724349,-0.016520673
10,1688394076.3624527,0.347159237,-0.10055647,10.65898609,0.106052071,0.011724349,-0.016787136
11,1688394076.3624527,0.347159237,-0.10055647,10.65419769,0.106052071,0.011724349,-0.016787136
12,1688394076.3624527,0.347159237,-0.095768064,10.64940929,0.106052071,0.011724349,-0.016787136
13,1688394076.3624527,0.347159237,-0.095768064,10.64940929,0.106052071,0.011724349,-0.016787136
14,1688394076.3624527,0.349553436,-0.095768064,10.64222622,0.106052071,0.011990812,-0.016787136
0,1688394076.4921596,0.356736064,-0.093373865,10.66377449,0.106318533,0.011191424,-0.016254211
1,1688394076.4921596,0.354341865,-0.090979666,10.66616821,0.106052071,0.011191424,-0.016254211
2,1688394076.4921596,0.356736064,-0.090979666,10.66616821,0.106052071,0.011191424,-0.016254211
3,1688394076.4921596,0.356736064,-0.095768064,10.66377449,0.106318533,0.011191424,-0.016254211
4,1688394076.4921596,0.356736064,-0.093373865,10.66856289,0.106318533,0.010924961,-0.016254211
5,1688394076.4921596,0.356736064,-0.093373865,10.66856289,0.106052071,0.010924961,-0.016254211
6,1688394076.4921596,0.351947635,-0.093373865,10.66856289,0.106052071,0.010924961,-0.016254211
7,1688394076.4921596,0.351947635,-0.090979666,10.67095661,0.106052071,0.010924961,-0.016254211
8,1688394076.4921596,0.351947635,-0.093373865,10.67095661,0.106052071,0.010924961,-0.016254211
9,1688394076.4921596,0.351947635,-0.093373865,10.67095661,0.106052071,0.010924961,-0.016254211
10,1688394076.4921596,0.351947635,-0.093373865,10.67095661,0.106052071,0.010924961,-0.016520673
11,1688394076.4921596,0.351947635,-0.093373865,10.66856289,0.106052071,0.010924961,-0.016254211
12,1688394076.4921596,0.354341865,-0.090979666,10.66377449,0.106052071,0.010924961,-0.016254211
13,1688394076.4921596,0.354341865,-0.090979666,10.65898609,0.106318533,0.010924961,-0.016254211
14,1688394076.4921596,0.354341865,-0.090979666,10.65659142,0.106052071,0.010924961,-0.016254211
0,1688394076.6242404,0.354341865,-0.081402861,10.64940929,0.106318533,0.011191424,-0.016254211
1,1688394076.6242404,0.356736064,-0.08379706,10.64701462,0.106318533,0.011457887,-0.016520673
2,1688394076.6242404,0.356736064,-0.08379706,10.64940929,0.106318533,0.011191424,-0.016520673
3,1688394076.6242404,0.354341865,-0.08379706,10.65419769,0.106318533,0.011191424,-0.016520673
4,1688394076.6242404,0.354341865,-0.081402861,10.65659142,0.106318533,0.011191424,-0.016520673
5,1688394076.6242404,0.354341865,-0.08379706,10.65659142,0.106052071,0.011191424,-0.016254211
6,1688394076.6242404,0.354341865,-0.08379706,10.64940929,0.106052071,0.011457887,-0.016520673
7,1688394076.6242404,0.349553436,-0.08379706,10.64940929,0.106052071,0.011457887,-0.016520673
8,1688394076.6242404,0.349553436,-0.08379706,10.64940929,0.106052071,0.011457887,-0.016520673
9,1688394076.6242404,0.349553436,-0.08379706,10.64222622,0.106052071,0.011457887,-0.016520673
10,1688394076.6242404,0.349553436,-0.086191259,10.64222622,0.106318533,0.011457887,-0.016520673
11,1688394076.6242404,0.347159237,-0.088585466,10.64222622,0.106318533,0.011724349,-0.016520673
12,1688394076.6242404,0.342370838,-0.088585466,10.64701462,0.106584989,0.011724349,-0.016520673
13,1688394076.6242404,0.342370838,-0.086191259,10.64701462,0.106318533,0.011724349,-0.016520673
14,1688394076.6242404,0.344765037,-0.088585466,10.64940929,0.106318533,0.011457887,-0.016520673
0,1688394076.7751963,0.361524463,-0.086191259,10.65180302,0.106584989,0.011724349,-0.016254211
1,1688394076.7751963,0.361524463,-0.08379706,10.65180302,0.106318533,0.011457887,-0.016254211
2,1688394076.7751963,0.359130263,-0.08379706,10.64940929,0.106584989,0.011457887,-0.016520673
3,1688394076.7751963,0.359130263,-0.086191259,10.65180302,0.106584989,0.011457887,-0.016520673
4,1688394076.7751963,0.359130263,-0.081402861,10.64940929,0.106318533,0.011457887,-0.016254211
5,1688394076.7751963,0.359130263,-0.079008654,10.6446209,0.106318533,0.011457887,-0.016520673
6,1688394076.7751963,0.361524463,-0.081402861,10.6446209,0.106318533,0.011457887,-0.016520673
7,1688394076.7751963,0.359130263,-0.08379706,10.6446209,0.106318533,0.011724349,-0.016520673
8,1688394076.7751963,0.354341865,-0.08379706,10.6446209,0.106318533,0.011724349,-0.016254211
9,1688394076.7751963,0.354341865,-0.086191259,10.64701462,0.106318533,0.011724349,-0.016254211
10,1688394076.7751963,0.354341865,-0.088585466,10.64701462,0.106584989,0.011724349,-0.016254211
11,1688394076.7751963,0.356736064,-0.090979666,10.64940929,0.106584989,0.011457887,-0.016254211
12,1688394076.7751963,0.356736064,-0.090979666,10.64701462,0.106584989,0.011457887,-0.016254211
13,1688394076.7751963,0.359130263,-0.088585466,10.64222622,0.106584989,0.011457887,-0.016520673
14,1688394076.7751963,0.359130263,-0.088585466,10.6446209,0.106318533,0.011457887,-0.016254211
