timestamp,left_data_Ac_X,left_data_Ac_Y,left_data_Ac_Z,left_data_Gy_X,left_data_Gy_Y,left_data_Gy_Z,left_data_flex_1,left_data_flex_2,left_data_flex_3,left_data_flex_4,left_data_flex_5,right_data_Ac_X,right_data_Ac_Y,right_data_Ac_Z,right_data_Gy_X,right_data_Gy_Y,right_data_Gy_Z,right_data_flex_1,right_data_flex_2,right_data_flex_3,right_data_flex_4,right_data_flex_5
1692755970187000900,0.119710088,-3.881000996,8.549694061,0.704526782,0.430736601,-0.389434904,-10,34,-11,13,47,1.810016513,0.144849196,10.38604736,0.030776417,-0.024248086,0.033973966,-54,-63,-5,-22,38
1692755970188000900,0.073023155,-3.822343111,8.544905663,0.704793274,0.423142403,-0.386237353,-10,25,-17,13,47,1.800439715,0.142454997,10.37168217,0.029577335,-0.025313934,0.032774884,-56,-55,-21,-18,35
1692755970189000900,0.02873042,-3.760093689,8.541314125,0.703727424,0.413150072,-0.384238869,-8,26,-11,13,48,1.807622313,0.134075299,10.36090755,0.030243492,-0.02571363,0.031709034,-54,-52,-5,-14,39
1692755970190000900,-0.026336219,-3.672705412,8.549694061,0.700396657,0.396762639,-0.383173048,-13,25,-15,13,46,1.818396211,0.126892686,10.36809063,0.031709034,-0.026113322,0.031709034,-51,-51,-4,-11,39
1692755970191000900,-0.079008654,-3.587711334,8.566453934,0.693868279,0.378376722,-0.383705974,-13,29,-16,13,47,1.82079041,0.125695586,10.38125896,0.033041347,-0.026113322,0.032108728,-54,-60,-3,-18,37
1692755970333916400,-0.432153404,-3.108870983,9.305065155,0.535323083,0.151483908,-0.272990793,-10,26,-9,13,46,1.881842494,0.14724341,10.49857426,0.063151613,-0.051560488,0.03757121,-55,-46,-4,-18,38
1692755970334916400,-0.465672225,-3.076549292,9.315838814,0.520667672,0.145488501,-0.257935673,-14,25,-12,13,46,1.879448295,0.155623108,10.48420906,0.061286367,-0.050361406,0.037304748,-55,-55,-5,-15,39
1692755970335916400,-0.492008448,-3.044227362,9.33020401,0.505612552,0.138826951,-0.244212866,-12,24,-18,13,46,1.877054095,0.164002821,10.48061752,0.059954058,-0.04969525,0.037171517,-55,-45,-7,-15,38
1692755970336916400,-0.515950441,-3.01190567,9.334992409,0.489491582,0.132298619,-0.232355282,-13,28,-17,13,46,1.868674397,0.174776718,10.47104073,0.058355279,-0.048229709,0.037038282,-55,-48,-5,-16,36
1692755970337916400,-0.551863492,-2.979583979,9.33618927,0.471905053,0.122972436,-0.221563548,-15,27,-16,12,48,1.865083098,0.183156431,10.46505547,0.056889739,-0.046764165,0.037171517,-55,-48,-3,-17,39
1692755970391883400,-0.342370838,-2.837129116,9.582792282,0.141624808,-0.242747322,-0.195050538,-12,22,-17,13,49,1.912967205,0.240617275,10.53089619,0.008260337,-0.016254211,0.03956968,-53,-49,-4,-15,39
1692755970392883400,-0.308852017,-2.870647907,9.599552155,0.116177641,-0.250208259,-0.190520674,-14,25,-18,13,46,1.910573006,0.238223076,10.52131939,0.0042634,-0.01398928,0.03996937,-53,-42,-2,-17,36
1692755970393883400,-0.269347697,-2.904166698,9.623494148,0.090996936,-0.254604906,-0.184791744,-12,22,-17,13,47,1.903390408,0.238223076,10.51653099,0.000399694,-0.011591119,0.040502299,-53,-48,-4,-15,38
1692755970394883400,-0.226252064,-2.946065187,9.655815125,0.067148544,-0.255670756,-0.177863702,-15,23,-13,12,46,1.903390408,0.237025961,10.50575733,-0.003464012,-0.009059724,0.040901989,-54,-48,-6,-18,39
1692755970395883400,-0.187944829,-2.991554976,9.691728592,0.045298621,-0.25300613,-0.169470131,-16,32,-12,13,48,1.900996208,0.231040463,10.50336266,-0.007460949,-0.006128637,0.041168455,-51,-43,-8,-24,44
1692755970472836400,0.278924495,-3.394978046,10.47702694,-0.384105653,-0.125903517,-0.034640122,-12,23,-19,12,47,1.808819413,0.010773907,10.44470501,0.012257273,-0.01718683,0.038370594,-57,-65,-8,-16,40
1692755970473836400,0.323217243,-3.438073635,10.50575733,-0.403823912,-0.132565081,-0.037437979,-13,22,-18,13,46,1.802833915,-0.002394202,10.42315674,0.015188362,-0.019318528,0.037970904,-54,-56,-5,-21,39
1692755970474836400,0.356736064,-3.466804028,10.51892471,-0.414349139,-0.137361407,-0.039436448,-16,18,-19,13,46,1.799242616,-0.004788403,10.41717148,0.018918836,-0.021849923,0.037970904,-58,-52,-2,-18,40
1692755970475836400,0.416591108,-3.511096716,10.53328991,-0.426606447,-0.144822344,-0.04276723,-15,21,-18,6,45,1.793257117,0.007182605,10.40879154,0.022382848,-0.023981623,0.037970904,-55,-55,-9,-18,39
1692755970476836400,0.475249052,-3.552995205,10.53927612,-0.434866786,-0.152416542,-0.046098009,-15,18,-17,8,46,1.789665818,0.017956512,10.40759468,0.02571363,-0.026113322,0.037837673,-57,-57,2,-15,37
1692755970544797300,1.256955862,-4.007893562,9.628282547,-0.450321585,-0.241681471,-0.061286367,-16,22,-21,12,46,1.818396211,0.081402861,10.50695419,0.061286367,-0.044499233,0.039303213,-51,-47,-4,-18,37
1692755970545797300,1.308431268,-4.037821293,9.597157478,-0.448989272,-0.230356812,-0.057022974,-17,19,-20,13,46,1.82198751,0.08379706,10.50695419,0.063551299,-0.045431852,0.039169986,-57,-55,-3,-14,40
1692755970546797300,1.353921056,-4.071340084,9.562441826,-0.446591109,-0.21663399,-0.052359879,-15,17,-21,13,47,1.831564307,0.079008654,10.51413631,0.065949462,-0.046897396,0.039169986,-58,-44,-7,-16,38
1692755970547797300,1.394622445,-4.106055737,9.528923035,-0.443393588,-0.201045945,-0.047430322,-11,22,-21,13,47,1.835155606,0.074220255,10.51892471,0.067548238,-0.047963247,0.039303213,-55,-53,-8,-18,39
1692755970548797300,1.430535555,-4.143166065,9.490615845,-0.438730478,-0.183992341,-0.041568145,-13,22,-24,8,46,1.835155606,0.070628949,10.52850151,0.070346095,-0.049562022,0.039702907,-58,-49,-7,-16,39
1692755970600763700,1.370680451,-4.570530891,9.498994827,-0.126303226,-0.042633995,0.031975497,-18,19,-27,10,46,1.904587507,0.294486821,10.50815105,0.031709034,-0.025180703,0.032774884,-56,-43,-3,-19,39
1692755970601763700,1.362300754,-4.552574635,9.508571625,-0.108583458,-0.04769678,0.03130934,-6,21,-25,12,49,1.902193308,0.288501292,10.51293945,0.025180703,-0.021316998,0.032108728,-55,-45,-5,-14,38
1692755970602763700,1.359906554,-4.528632641,9.518148422,-0.092062794,-0.0528928,0.030643184,-11,20,-27,11,46,1.89620769,0.277727395,10.51772785,0.019851454,-0.017986218,0.031575806,-57,-44,-5,-17,38
1692755970603763700,1.358709455,-4.497508049,9.513360023,-0.076474734,-0.057555895,0.03011026,-16,21,-26,11,46,1.887827992,0.263362199,10.52012253,0.01612098,-0.015321592,0.03130934,-58,-45,-11,-20,37
1692755970604763700,1.361103654,-4.461595058,9.503783226,-0.062085759,-0.061686065,0.029710567,-18,18,-27,11,46,1.884236693,0.248996973,10.52251625,0.014122511,-0.013589587,0.031042879,-58,-49,1,-14,38
1692755970661727600,1.211466074,-3.961206675,9.524134636,-0.008926493,-0.043033689,0.050627869,-19,21,-29,12,46,1.866280198,0.035913024,10.4973774,0.026246555,-0.020784073,0.029710567,-54,-57,-5,-14,39
1692755970662727600,1.197100878,-3.963600874,9.534908295,-0.008393568,-0.042500768,0.050494641,-16,22,-25,6,46,1.854309201,0.032321721,10.4782238,0.026513018,-0.02051761,0.028644716,-56,-57,-5,-17,39
1692755970663727600,1.185129881,-3.962403774,9.538499832,-0.007993874,-0.042234302,0.050094947,-18,32,-29,8,47,1.842338204,0.023942016,10.46026707,0.027179174,-0.021450229,0.028511487,-57,-57,-4,-16,40
1692755970664727600,1.176750183,-3.962403774,9.539696693,-0.007460949,-0.042234302,0.049562022,-14,21,-29,7,46,1.829170108,0.016759412,10.44590187,0.028511487,-0.022782542,0.028644716,-58,-53,-5,-20,40
1692755970665727600,1.167173386,-3.961206675,9.534908295,-0.007194487,-0.042500768,0.048762634,-16,23,-25,12,46,1.818396211,0.015562311,10.44231033,0.030509954,-0.024114855,0.029310873,-58,-57,-3,-17,39
1692755970782659000,1.244984865,-4.013879299,9.410409927,-0.023715161,-0.060886677,0.035306279,-24,18,-31,4,46,1.814804912,0.051475335,10.43991661,0.055823889,-0.034773353,0.031975497,-55,-55,-5,-15,41
1692755970783659000,1.250970364,-4.0090909,9.421183586,-0.022249617,-0.061019909,0.035039816,-18,28,-27,7,46,1.82079041,0.055066638,10.43632507,0.056356817,-0.03543951,0.032241959,-54,-52,-6,-13,40
1692755970784659000,1.255758762,-4.0090909,9.43315506,-0.020384381,-0.061419602,0.034506891,-22,9,-29,8,45,1.82198751,0.063446343,10.43752193,0.056756508,-0.035839204,0.03237519,-54,-56,-2,-15,41
1692755970785659000,1.259350061,-4.010287762,9.446322441,-0.018519141,-0.062218986,0.033840735,-19,21,-27,10,46,1.824381709,0.067037649,10.43632507,0.057022974,-0.036105666,0.032641653,-51,-52,-2,-15,39
1692755970786659000,1.26413846,-4.0114851,9.455899239,-0.015987748,-0.063284837,0.032774884,-20,27,-33,7,46,1.823184609,0.075417355,10.43512821,0.057022974,-0.036372125,0.032908116,-55,-53,-5,-18,39
1692755970923578100,1.291671872,-3.912125587,9.472659111,0.012523737,-0.083269522,0.018918836,-21,10,-29,10,46,1.853112102,0.126892686,10.48540592,0.043300152,-0.049162328,0.035039816,-59,-43,-2,-11,40
1692755970924578100,1.291671872,-3.897760391,9.482235909,0.011191424,-0.083402753,0.017586524,-18,19,-28,11,45,1.845929503,0.134075299,10.49019432,0.04276723,-0.049428791,0.035039816,-55,-49,-5,-12,40
1692755970925578100,1.296460271,-3.890577793,9.484629631,0.009192956,-0.083003066,0.01612098,-26,9,-34,6,43,1.849520802,0.138863698,10.48899746,0.041834611,-0.049828485,0.034906585,-53,-43,-2,-23,45
1692755970926578100,1.304839969,-3.879803896,9.484629631,0.006661562,-0.082603365,0.014788668,-17,21,-35,7,45,1.850717902,0.140060797,10.49618053,0.040768761,-0.050228179,0.034640122,-58,-43,-4,-17,40
1692755970927578100,1.313219666,-3.867832899,9.484629631,0.004130168,-0.08207044,0.013189893,-22,10,-32,10,45,1.851915002,0.137666598,10.50336266,0.039036751,-0.050494641,0.034506891,-55,-34,-1,-14,37
1692755971016525000,1.37786305,-3.885789394,9.478644371,-0.024514547,-0.075142421,0.0021317,-26,5,-35,7,46,1.811213613,0.05865794,10.40879154,0.041568145,-0.059954058,0.024381317,-53,-22,-7,-18,45
1692755971017525000,1.389834046,-3.895366192,9.485827446,-0.024381317,-0.073277183,0.003064318,-23,6,-29,9,44,1.805228114,0.047884032,10.40400314,0.046364475,-0.062485453,0.022249617,-55,-20,-8,-20,39
1692755971018525000,1.404199243,-3.907337189,9.491812706,-0.023315467,-0.070479326,0.003996937,-24,17,-33,8,44,1.804031014,0.039504327,10.40520096,0.051160797,-0.06461715,0.019718224,-53,-21,-3,-17,41
1692755971019525000,1.417367458,-3.918111086,9.493009567,-0.021050537,-0.06674885,0.005462481,-22,9,-29,7,44,1.799242616,0.026336219,10.40520096,0.055823889,-0.067015313,0.016653905,-54,-22,-3,-18,40
1692755971020525000,1.426944256,-3.926490784,9.490615845,-0.018119449,-0.062485453,0.007194487,-26,23,-29,9,46,1.798045516,0.01436521,10.40400314,0.060886677,-0.069679938,0.013189893,-51,-18,-2,-19,40
1692755971093482800,1.41018486,-3.828328609,9.434351921,0.004929556,-0.012124043,0.026113322,-23,5,-33,7,43,1.865083098,0.067037649,10.51653099,0.22489433,-0.109649308,-0.041168455,-54,-13,-2,-15,39
1692755971094482800,1.408987641,-3.815160513,9.440337181,0.003064318,-0.011457887,0.02571363,-24,9,-33,1,43,1.867477298,0.10295067,10.50216579,0.229290962,-0.109915771,-0.039836142,-55,-12,-2,-18,38
1692755971095482800,1.41138196,-3.809175014,9.443928719,0.000666156,-0.011058193,0.025047474,-24,18,-34,9,46,1.868674397,0.138863698,10.49378586,0.234353751,-0.110049009,-0.038370594,-56,-16,-2,-18,40
1692755971096482800,1.41257906,-3.804386616,9.447520256,-0.001598775,-0.010525269,0.024381317,-28,0,-36,7,44,1.868674397,0.162805721,10.49378586,0.237284839,-0.109915771,-0.03757121,-55,-15,-3,-20,39
1692755971097482800,1.41018486,-3.798400879,9.448717117,-0.004529862,-0.009992342,0.023448698,-23,2,-33,6,46,1.868674397,0.20350714,10.49019432,0.239949465,-0.109249614,-0.036238898,-54,-13,-4,-16,39
1692755971164438900,1.380257249,-3.828328609,9.465476036,-0.034906585,-0.004663093,0.005995406,-26,17,-34,6,45,2.04584527,0.391451985,10.50216579,0.114312403,-0.075275652,0.012656967,-53,-14,-2,-16,40
1692755971165438900,1.37786305,-3.831919909,9.467870712,-0.034640122,-0.004130168,0.005595712,-23,10,-29,6,45,2.038662672,0.385466486,10.50575733,0.105385914,-0.072211333,0.015321592,-56,-13,-3,-15,39
1692755971166438900,1.37786305,-3.829525709,9.461885452,-0.033840735,-0.003597243,0.005196018,-26,4,-32,7,45,2.033874273,0.380678058,10.51293945,0.097125575,-0.069147013,0.017852986,-53,-19,-1,-16,36
1692755971167438900,1.373074651,-3.823540211,9.459490776,-0.033041347,-0.003330781,0.004663093,-27,1,-35,12,43,2.023100376,0.37349546,10.51533413,0.089664623,-0.066615619,0.020251149,-55,-15,-2,-15,41
1692755971168438900,1.369483352,-3.82713151,9.458293915,-0.032508422,-0.00319755,0.004396631,-24,6,-36,6,46,2.00873518,0.368707061,10.52251625,0.083269522,-0.063817769,0.022516079,-54,-17,-2,-16,38
1692755971234400000,1.424550056,-3.846285105,9.459490776,-0.03437366,0.005062787,0.011724349,-27,11,-33,4,42,2.030282974,0.294486821,10.59913063,0.003597243,0.001865237,0.07794027,-57,-16,0,-14,60
1692755971235400000,1.424550056,-3.836708307,9.459490776,-0.034640122,0.005196018,0.011724349,-23,10,-37,8,45,2.027888775,0.292092621,10.58955383,-0.001465544,0.004663093,0.080604896,-60,-17,-2,-15,38
1692755971236400000,1.428141356,-3.834314108,9.458293915,-0.035039816,0.005329249,0.01185758,-24,7,-31,8,44,2.025494576,0.284909993,10.57399178,-0.006261868,0.007860643,0.08313629,-57,-17,-2,-22,39
1692755971237400000,1.426944256,-3.831919909,9.458293915,-0.035972435,0.005728943,0.012124043,-26,17,-35,8,45,2.023100376,0.283712894,10.56561184,-0.009326187,0.009859112,0.084735066,-60,-23,-2,-12,39
1692755971238400000,1.428141356,-3.828328609,9.461885452,-0.037038282,0.005862175,0.012124043,-28,5,-36,10,44,2.021903276,0.281318694,10.55962658,-0.014122511,0.012656967,0.086999997,-58,-17,-2,-17,34
1692755971295365000,1.388636947,-3.807977915,9.437943459,-0.063151613,0.002664625,0.013722817,-23,17,-33,10,43,1.999158382,0.337582439,10.54885292,-0.116310872,0.040635526,0.109649308,-57,-7,-3,-8,34
1692755971296365000,1.391031146,-3.811569214,9.44512558,-0.064350687,0.0021317,0.013189893,-27,9,-35,6,44,1.997961283,0.336385339,10.55483818,-0.121906579,0.04103522,0.111381322,-63,-7,-2,-13,39
1692755971297365000,1.393425345,-3.811569214,9.453505516,-0.064750381,0.001332312,0.012523737,-21,9,-35,7,45,1.993172884,0.33399114,10.55603504,-0.127369061,0.041168455,0.113379791,-60,-4,1,-14,40
1692755971298365000,1.392228246,-3.823540211,9.455899239,-0.065016843,0.000799387,0.011724349,-22,17,-36,10,41,1.987187386,0.33279404,10.56561184,-0.133098006,0.04103522,0.115245022,-62,-9,0,-7,39
1692755971299365000,1.392228246,-3.830722809,9.457097054,-0.065683,0.0,0.011457887,-24,17,-36,11,46,1.978807688,0.328005642,10.56920338,-0.13975957,0.040635526,0.116977029,-57,-5,-1,-8,39
1692755971378317000,1.398213744,-3.82593441,9.457097054,-0.058621746,-0.009059724,0.000932619,-28,10,-37,6,45,1.881842494,0.246602774,10.57878017,-0.166139349,0.112846859,0.037171517,-67,30,0,-12,40
1692755971379317000,1.394622445,-3.82713151,9.459490776,-0.058888208,-0.009725881,0.000266462,-30,9,-34,8,40,1.885433793,0.238223076,10.59434223,-0.165606424,0.121506892,0.026379786,-60,20,0,-18,36
1692755971380317000,1.391031146,-3.82593441,9.463082314,-0.059421133,-0.010392036,-0.000532925,-24,10,-38,6,40,1.885433793,0.231040463,10.61469364,-0.164274111,0.130433381,0.01505513,-64,29,-1,-8,39
1692755971381317000,1.391031146,-3.82473731,9.460687637,-0.059687596,-0.011324655,-0.00106585,-28,3,-37,12,42,1.886630893,0.22146365,10.63743782,-0.163607955,0.139892802,0.002797856,-64,28,-2,-11,39
1692755971382317000,1.388636947,-3.819948912,9.463082314,-0.06008729,-0.012124043,-0.001732006,-30,-2,-36,5,41,1.89740479,0.20470424,10.66377449,-0.163341507,0.150418073,-0.010258805,-65,30,3,-11,39
1692755971460270500,1.361103654,-3.885789394,9.431957245,-0.057555895,-0.032108728,-0.008660031,-29,5,-38,8,44,1.768117905,0.130484,10.95826149,-0.212637067,0.4264732,-0.02384839,-71,-69,-1,-12,36
1692755971461270500,1.367089152,-3.884592295,9.430760384,-0.057555895,-0.033707503,-0.008260337,-28,6,-33,10,46,1.713051319,0.122104287,10.92713642,-0.202777937,0.409153163,-0.016920367,-66,-64,-2,-14,36
1692755971462270500,1.367089152,-3.885789394,9.431957245,-0.057022974,-0.035572741,-0.008260337,-35,9,-37,6,41,1.696291924,0.095768064,10.9055891,-0.198114842,0.395696759,-0.012523737,-70,-73,-2,-11,36
1692755971463270500,1.370680451,-3.884592295,9.436745644,-0.056223582,-0.03757121,-0.008260337,-26,32,-27,10,46,1.687912226,0.037110128,10.8660841,-0.197448686,0.376378268,-0.004529862,-69,-71,-2,-12,36
1692755971464270500,1.371877551,-3.883395195,9.436745644,-0.055823889,-0.038770292,-0.008393568,-30,11,-38,4,43,1.668758631,-0.016759412,10.82179165,-0.202111781,0.360390514,0.0042634,-70,-75,-2,-12,37
1692755971529229400,1.442506552,-3.82593441,9.424775124,-0.062352221,-0.059421133,-0.001332312,-28,9,-32,8,46,1.736993313,-0.360327363,10.35851383,-0.364787132,0.144689128,0.096859112,-71,-72,-2,-12,39
1692755971530229400,1.444900751,-3.823540211,9.422380447,-0.063684531,-0.060220521,-0.000932619,-30,10,-35,12,43,1.763329506,-0.40821138,10.34654236,-0.366785586,0.137894332,0.103787132,-70,-70,-7,-11,32
1692755971531229400,1.44968915,-3.82473731,9.430760384,-0.064750381,-0.061019909,-0.000532925,-33,17,-35,11,44,1.788468719,-0.457292527,10.34175396,-0.366785586,0.130699843,0.11191424,-71,-61,-2,-14,38
1692755971532229400,1.455674648,-3.823540211,9.435548782,-0.065150075,-0.061686065,-0.000266462,-33,5,-34,9,43,1.800439715,-0.486022949,10.33816338,-0.365719765,0.125903517,0.117909648,-73,-63,-2,-12,34
1692755971533229400,1.460463047,-3.82473731,9.437943459,-0.065283306,-0.062352221,-0.000266462,-32,0,-33,12,46,1.816002011,-0.527921498,10.33696556,-0.360523731,0.11817611,0.128035218,-66,-66,-2,-11,36
1692755971606186600,1.48799634,-3.82713151,9.434351921,-0.069280244,-0.065283306,-0.000399694,-33,10,-28,9,45,2.310404539,-0.16639702,10.64581776,-0.101122513,-0.0063951,0.328681469,-75,3,0,-11,33
1692755971607186600,1.48799634,-3.82593441,9.435548782,-0.070346095,-0.066349156,0.0,-32,11,-29,6,46,2.329558372,-0.10295067,10.68891335,-0.098724343,0.003064318,0.341071963,-72,1,-1,-8,34
1692755971608186600,1.490390539,-3.831919909,9.436745644,-0.071278714,-0.0678147,0.000266462,-30,6,-25,12,45,2.34033227,-0.032321721,10.723629,-0.099656969,0.015987748,0.352796346,-74,11,-2,-12,33
1692755971609186600,1.497573137,-3.839102507,9.434351921,-0.071678407,-0.069413476,0.000532925,-31,10,-31,11,43,2.336740971,0.038307227,10.763134,-0.102454826,0.031575806,0.363721281,-71,-2,2,-8,32
1692755971610186600,1.507149935,-3.842693806,9.435548782,-0.072611026,-0.070346095,0.00106585,-31,11,-27,10,45,2.319981337,0.094570965,10.7918644,-0.107517615,0.049428791,0.372647762,-74,-5,-2,-10,34
1692755971652159800,1.531091928,-3.933673382,9.422380447,-0.051294025,-0.050361406,0.005862175,-33,25,-23,10,44,1.502361536,-0.1316811,10.6111021,-0.07820674,0.339606434,0.535856009,-74,-17,-2,-8,32
1692755971653159800,1.528697729,-3.93965888,9.423578262,-0.048229709,-0.050761104,0.006661562,-33,6,-23,4,43,1.41257906,-0.1316811,10.58716011,-0.07820674,0.331079632,0.54225117,-75,-15,-2,-8,30
1692755971654159800,1.528697729,-3.938461781,9.429563522,-0.044765696,-0.051160797,0.007194487,-32,19,-28,10,45,1.351526856,-0.132878199,10.57159805,-0.079672284,0.32361868,0.546248078,-75,-18,-2,-10,39
1692755971655159800,1.52510643,-3.932476282,9.425971985,-0.041301683,-0.051693719,0.007327718,-40,18,-27,8,43,1.26413846,-0.143652096,10.54047298,-0.082603365,0.309496164,0.552243471,-76,-22,-2,-13,30
1692755971656159800,1.520318031,-3.938461781,9.421183586,-0.037704438,-0.052359879,0.007727412,-33,18,-24,9,43,1.182735682,-0.162805721,10.50575733,-0.085667685,0.292176098,0.558105648,-75,-18,-3,-12,30
1692755971704129900,1.59932673,-3.8654387,9.431957245,-0.023448698,-0.029577335,0.004130168,-31,10,-22,8,46,0.623689532,-0.687135875,10.32978344,-0.198114842,-0.075275652,0.61033231,-77,-24,-2,-8,33
1692755971705129900,1.601720929,-3.8654387,9.435548782,-0.023049004,-0.027445635,0.003597243,-31,17,-25,7,46,0.585382342,-0.726640224,10.29746151,-0.206908107,-0.090863705,0.603137791,-75,-27,-4,-8,32
1692755971706129900,1.602918029,-3.8642416,9.43914032,-0.022915773,-0.025313934,0.003597243,-32,18,-23,7,45,0.55904609,-0.769735873,10.26753426,-0.216500759,-0.105385914,0.596609473,-75,-23,-3,-7,33
1692755971707129900,1.604115129,-3.860650301,9.440337181,-0.022915773,-0.023049004,0.003597243,-33,10,-25,11,47,0.539892495,-0.823605359,10.23521233,-0.225693718,-0.118442573,0.590747297,-75,-25,-2,-11,33
1692755971708129900,1.605312228,-3.860650301,9.43914032,-0.023182238,-0.020917306,0.003730475,-30,11,-25,11,43,0.541089594,-0.885854602,10.19929886,-0.234486982,-0.128967836,0.585684538,-76,-27,-2,-12,29
1692755971776096300,1.521515131,-3.928884983,9.488221169,-0.025313934,0.019185297,0.021450229,-32,17,-21,11,43,0.599747539,-1.315613866,10.14782429,-0.243147001,0.039702907,0.476434916,-77,-28,-3,-14,29
1692755971777096300,1.520318031,-3.934870481,9.495404243,-0.02358193,0.02158346,0.022516079,-32,18,-22,9,46,0.598550439,-1.303642869,10.14303589,-0.248209804,0.050894335,0.45551762,-76,-34,-3,-12,27
1692755971778096300,1.515529633,-3.93965888,9.507374763,-0.020384381,0.024381317,0.023315467,-33,18,-21,8,43,0.590170741,-1.30124867,10.12388229,-0.255803972,0.059687596,0.432335377,-76,-21,-21,-12,32
1692755971779096300,1.505952835,-3.936067581,9.510966301,-0.016653905,0.027312404,0.024114855,-31,22,-23,12,45,0.573411286,-1.325190663,10.0951519,-0.2669954,0.068747319,0.399294019,-76,-28,-3,-6,32
1692755971780096300,1.504755735,-3.922899485,9.514557838,-0.01292343,0.030243492,0.024514547,-30,8,-25,12,44,0.566228688,-1.345541358,10.08318043,-0.271924943,0.072877489,0.382107198,-76,-21,-2,-12,30
1692755971849047200,1.756146908,-4.182670593,9.781511307,0.08726646,0.138294026,0.066882081,-30,9,-23,7,45,0.439336002,-1.914164305,10.62187576,0.089131698,0.246344566,0.090730481,-76,-98,-4,-8,33
1692755971850047200,1.760935307,-4.155137062,9.81143856,0.100056656,0.148686066,0.070079632,-33,21,-23,8,45,0.444124401,-1.847126603,10.64102936,0.117643185,0.257003069,0.08313629,-76,-92,-3,-11,32
1692755971851047200,1.769315004,-4.119224072,9.842563629,0.113246553,0.159477785,0.072611026,-30,17,-27,11,45,0.434547603,-1.78368032,10.64342403,0.14388974,0.265263379,0.07474272,-76,-93,-5,-9,32
1692755971852047200,1.775300503,-4.078522682,9.867702484,0.125770286,0.170003071,0.074476264,-33,7,-27,12,45,0.420182407,-1.734599113,10.63863564,0.170269519,0.268993855,0.066349156,-76,-95,-5,-11,32
1692755971853047200,1.780089021,-4.030638695,9.878476143,0.13762787,0.179995403,0.075941809,-30,17,-23,10,46,0.401028782,-1.719036818,10.6254673,0.197315469,0.268460959,0.058621746,-76,-93,-3,-10,33
1692755971993963800,1.750161409,-3.898957491,9.36252594,-0.048895866,-0.041434918,0.014655436,-38,19,-10,13,46,0.356736064,-0.565031588,10.12029076,-0.029977029,0.298437983,-0.765413463,-80,-44,-4,-4,29
1692755971994963800,1.74776721,-3.895366192,9.367314339,-0.049828485,-0.041967839,0.014921899,-35,17,-11,12,44,0.360327363,-0.541089594,10.10592556,-0.037437979,0.303101093,-0.748626351,-76,-40,-3,-4,23
1692755971995963800,1.74776721,-3.891774893,9.364919662,-0.050894335,-0.042367533,0.014921899,-33,9,-8,7,45,0.360327363,-0.531512797,10.0951519,-0.040901989,0.305765688,-0.736768782,-76,-39,-5,-4,25
1692755971996963800,1.752555609,-3.889380693,9.372102737,-0.052226644,-0.042367533,0.01505513,-33,0,-9,10,45,0.357933164,-0.515950441,10.08198357,-0.043166921,0.309096456,-0.71784991,-75,-34,-6,-8,23
1692755971997963800,1.756146908,-3.888183594,9.375694275,-0.053026035,-0.042234302,0.015188362,-34,20,-8,10,43,0.360327363,-0.506373644,10.0556469,-0.040635526,0.312294006,-0.698264897,-77,-43,-3,-1,23
1692755972084915800,1.789665818,-3.992331266,9.378087997,-0.055024505,-0.028777948,0.019052068,-38,18,-8,12,45,0.119710088,0.284909993,10.37766743,0.081137821,-0.07993874,-0.031442571,-77,-36,-5,-50,23
1692755972085915800,1.789665818,-3.989937067,9.373299599,-0.053292494,-0.027712099,0.018785605,-34,20,-8,7,46,0.112527482,0.304063618,10.40280628,0.071145482,-0.115911178,0.002797856,-76,-43,-5,-52,23
1692755972086915800,1.790862918,-3.982754469,9.370905876,-0.051560488,-0.026646247,0.018119449,-38,7,-6,10,45,0.124498487,0.312443316,10.42555141,0.061419602,-0.150950998,0.035039816,-76,-44,-4,-54,23
1692755972087915800,1.792060018,-3.973177671,9.373299599,-0.049562022,-0.025846859,0.017320061,-39,19,-9,12,46,0.144849196,0.328005642,10.44949341,0.052626338,-0.184125587,0.065549769,-76,-36,-2,-63,23
1692755972088915800,1.793257117,-3.962403774,9.37449646,-0.047830015,-0.025047474,0.016520673,-36,21,-8,13,45,0.16759412,0.336385339,10.4734354,0.042500768,-0.21503523,0.093794793,-76,-47,-5,-62,22
1692755972149873800,1.799242616,-3.914519787,9.370905876,-0.069147013,-0.014788668,0.006528331,-39,22,-14,10,46,0.611718535,0.02873042,10.60511684,0.002264931,-0.263264924,0.319222063,-76,-36,-3,-100,23
1692755972150873800,1.799242616,-3.921702385,9.367314339,-0.069946401,-0.014255743,0.005995406,-43,18,-9,10,46,0.618901134,0.008379706,10.59673691,0.003996937,-0.251540571,0.314159274,-76,-37,-2,-98,19
1692755972151873800,1.798045516,-3.925293684,9.364919662,-0.07087902,-0.01385605,0.005462481,-39,1,-6,6,47,0.622492433,-0.017956512,10.57997704,0.006261868,-0.240082696,0.308696777,-76,-38,-5,-102,20
1692755972152873800,1.800439715,-3.928884983,9.364919662,-0.071545176,-0.013456355,0.004929556,-36,25,-7,12,46,0.622492433,-0.051475335,10.56321812,0.009059724,-0.229290962,0.302701384,-79,-41,-3,-104,21
1692755972153873800,1.802833915,-3.931279182,9.366117477,-0.072211333,-0.013323124,0.0042634,-34,22,-9,7,45,0.629675031,-0.096965171,10.54765606,0.013589587,-0.219298616,0.296306252,-76,-34,-5,-103,23
1692755972205842300,1.796848416,-3.973177671,9.361329079,-0.080338441,-0.020917306,-0.0021317,-40,13,-6,12,46,0.976834297,-0.489614248,10.87685871,0.333877474,0.02358193,0.230623275,-76,-36,-2,-155,34
1692755972206842300,1.799242616,-3.975571871,9.367314339,-0.080338441,-0.021849923,-0.002264931,-38,26,-8,12,46,0.986411095,-0.477643251,10.92234802,0.348266453,0.047030624,0.228225112,-76,-41,-2,-157,17
1692755972207842300,1.804031014,-3.973177671,9.366117477,-0.080071971,-0.022382848,-0.002531394,-40,18,-8,9,44,1.006761789,-0.477643251,10.96185207,0.363188356,0.073943339,0.226093426,-76,-45,-3,-159,18
1692755972208842300,1.808819413,-3.969586372,9.364919662,-0.079539053,-0.022382848,-0.002664625,-44,21,-6,10,45,1.016338587,-0.454898328,10.96424675,0.380641639,0.105519146,0.224761114,-76,-35,-2,-160,22
1692755972209842300,1.811213613,-3.968389273,9.358934402,-0.079006128,-0.022382848,-0.002797856,-38,10,-6,12,45,0.995987892,-0.414196908,10.94988155,0.394098014,0.136029094,0.222629398,-76,-45,-2,-161,16
1692755972259815100,1.82079041,-4.004302502,9.355342865,-0.072877489,-0.014655436,-0.005728943,-46,23,-6,12,47,0.451307029,-0.256179571,11.0528326,-0.217566609,0.08313629,0.113246553,-75,-40,-2,-161,16
1692755972260815100,1.82079041,-4.01507616,9.349357605,-0.071411945,-0.01398928,-0.005728943,-38,27,-6,7,46,0.440533102,-0.337582439,10.97980881,-0.223162323,0.070079632,0.108983152,-76,-37,-3,-161,14
1692755972261815100,1.82198751,-4.022258759,9.348160744,-0.069546707,-0.013456355,-0.005728943,-42,22,-9,10,47,0.429759204,-0.41060558,10.88523769,-0.220364481,0.058355279,0.104186833,-76,-43,-2,-160,14
1692755972262815100,1.82198751,-4.027047157,9.340977669,-0.067681469,-0.013189893,-0.005595712,-45,17,-9,12,45,0.420182407,-0.48123455,10.79066753,-0.209839195,0.046897396,0.098857582,-75,-41,-2,-160,13
1692755972263815100,1.817199111,-4.025850296,9.339780807,-0.066082694,-0.01292343,-0.005462481,-44,6,-6,7,45,0.404620081,-0.549469292,10.7044754,-0.191986218,0.035705972,0.093395106,-76,-41,-2,-167,12
1692755972329770700,2.005143881,-3.955221176,9.300276756,-0.0528928,-0.01079173,-0.013722817,-49,51,-3,13,46,0.40940848,-0.676361978,10.61229897,0.053159267,-0.274323106,-0.062352221,-76,-37,-2,-77,18
1692755972330770700,2.005143881,-3.949235678,9.305065155,-0.053292494,-0.010125575,-0.013722817,-53,51,-1,12,46,0.421379507,-0.699106872,10.59194851,0.04769678,-0.288312376,-0.059954058,-76,-37,-2,-68,17
1692755972331770700,2.006340981,-3.946841478,9.312247276,-0.053425729,-0.009725881,-0.01398928,-37,54,-4,14,47,0.417788208,-0.691924274,10.56561184,0.044765696,-0.300836146,-0.056090351,-76,-37,-2,-63,19
1692755972332770700,2.012326479,-3.943250179,9.320627213,-0.053825419,-0.009192956,-0.014522205,-49,53,0,13,47,0.440533102,-0.671573579,10.54885292,0.041967839,-0.312693715,-0.052359879,-76,-37,-2,-62,18
1692755972333770700,2.014720678,-3.93965888,9.321824074,-0.054758042,-0.009192956,-0.014788668,-52,53,-1,13,47,0.495599747,-0.684741676,10.58476543,0.032774884,-0.325483918,-0.048762634,-76,-39,-3,-56,20
1692755972383739500,2.34033227,-4.707000732,8.900444984,-0.403290957,-0.106984682,0.07474272,-65,43,4,14,62,0.134075299,-0.804451764,10.66736603,-0.016653905,-0.07301072,0.08020521,-76,-66,-2,-48,23
1692755972384739500,2.318784237,-4.787206173,8.911218643,-0.407687575,-0.104986221,0.051826954,-65,45,4,16,62,0.129286885,-0.81761986,10.65539455,-0.016787136,-0.069546707,0.075941809,-71,-61,-2,-43,25
1692755972385739500,2.284068346,-4.868608952,8.911218643,-0.408753455,-0.103787132,0.030643184,-58,41,0,13,64,0.125695586,-0.831985116,10.6446209,-0.016387442,-0.066482387,0.071678407,-73,-66,-5,-44,23
1692755972386739500,2.252943754,-4.934449673,8.907627106,-0.407287896,-0.103787132,0.010924961,-63,45,8,13,62,0.124498487,-0.847547412,10.63384724,-0.016254211,-0.063284837,0.067415006,-76,-66,-7,-46,24
1692755972387739500,2.23259306,-4.984727859,8.908824921,-0.40355742,-0.105519146,-0.008127105,-65,43,4,13,64,0.125695586,-0.858321309,10.62427044,-0.016254211,-0.060353752,0.063151613,-73,-66,-2,-47,23
1692755972455698100,3.029862165,-4.373009205,8.894459724,-0.074875958,0.021050537,0.012656967,-27,22,-68,22,104,0.459686726,-0.448912829,10.32379818,-0.029977029,-0.103387438,0.139626339,-77,3,-6,-44,23
1692755972456698100,3.031059265,-4.3921628,8.889671326,-0.073810108,0.020251149,0.012656967,-28,18,-67,24,103,0.453701228,-0.462080926,10.33457184,-0.017453292,-0.096859112,0.140292495,-75,-2,-5,-43,23
1692755972457698100,3.035847664,-4.405331135,8.883685112,-0.071811639,0.019052068,0.012390506,-27,19,-69,26,101,0.447715729,-0.475249052,10.34654236,-0.004796324,-0.091396637,0.140958652,-76,-2,-5,-43,23
1692755972458698100,3.038241863,-4.417302132,8.876502991,-0.068880551,0.017986218,0.011990812,-31,17,-69,18,96,0.442927301,-0.488417149,10.36449909,0.007727412,-0.086999997,0.141891271,-76,-9,-6,-49,22
1692755972459698100,3.041833162,-4.430470467,8.870517731,-0.066349156,0.016920367,0.011457887,-32,11,-67,22,103,0.436941803,-0.502782345,10.38125896,0.020117918,-0.083802447,0.143356815,-76,-2,-6,-44,23
1692755972518662400,3.611653328,-4.815936565,8.306682587,-0.213436455,-0.186656967,0.248742729,-18,37,-12,26,111,0.725443125,-0.171185419,10.62905884,0.052626338,-0.029710567,0.047563553,-67,-21,11,-33,36
1692755972519662400,3.616441727,-4.809951305,8.316259384,-0.216367543,-0.195450217,0.264464021,-19,30,-16,26,110,0.725443125,-0.174776718,10.62905884,0.053292494,-0.030909648,0.046897396,-67,-25,14,-29,30
1692755972520662400,3.616441727,-4.806359768,8.32463932,-0.220364481,-0.204243496,0.279252678,-17,32,-17,25,110,0.731428623,-0.174776718,10.62786102,0.053825419,-0.031575806,0.04623124,-69,-24,11,-30,28
1692755972521662400,3.617638826,-4.803965569,8.339004517,-0.224228173,-0.213169977,0.29244259,-13,37,-13,26,110,0.735019922,-0.173579618,10.63384724,0.054091886,-0.032108728,0.045431852,-66,-21,9,-30,28
1692755972522662400,3.615244627,-4.808753967,8.355764389,-0.227958649,-0.222496167,0.304699838,-22,34,-13,28,110,0.739808321,-0.173579618,10.63264942,0.054091886,-0.032241959,0.044898927,-67,-20,9,-38,27
1692755972587626200,3.932476282,-5.597643375,7.754819393,-0.036638591,0.022116385,-0.014655436,-11,17,74,50,142,0.377086759,-0.057460841,10.51293945,0.209306285,-0.118975498,-0.18385911,-89,-35,-9,-56,9
1692755972588626200,3.927687883,-5.592854977,7.759607792,-0.036105666,0.022382848,-0.015454824,-16,17,71,52,142,0.375889659,-0.06584055,10.50934792,0.211837664,-0.120174579,-0.187056661,-87,-35,-11,-59,9
1692755972589626200,3.918111086,-5.591658115,7.770381451,-0.035306279,0.022116385,-0.015987748,-10,21,74,52,142,0.37349546,-0.068234749,10.50575733,0.214635521,-0.121107198,-0.18905513,-87,-38,-11,-55,8
1692755972590626200,3.915716887,-5.591658115,7.776367188,-0.034906585,0.021716693,-0.01612098,-12,19,74,48,141,0.368707061,-0.071826048,10.50455952,0.219698325,-0.12337213,-0.192252681,-87,-35,-12,-58,9
1692755972591626200,3.913322687,-5.592854977,7.775169849,-0.034640122,0.021183766,-0.015721286,-15,17,72,47,142,0.367509961,-0.071826048,10.50695419,0.22542727,-0.126569673,-0.195716694,-87,-34,-12,-52,9
1692755972636596300,2.722207308,-4.3921628,8.882488251,-0.138826951,0.003064318,0.029843798,-19,17,-38,35,113,0.906205356,0.591367841,10.62307262,0.301502287,-0.106451757,-0.186390504,-79,-39,-2,-43,20
1692755972637596300,2.71502471,-4.399345398,8.860940933,-0.134830013,-0.003597243,0.026113322,-18,18,-38,33,112,0.896628559,0.616506934,10.62666416,0.295906603,-0.113246553,-0.181860641,-80,-38,-5,-35,17
1692755972638596300,2.707842112,-4.404133797,8.838195801,-0.130033687,-0.009725881,0.022782542,-17,19,-38,32,112,0.883460402,0.63326633,10.6302557,0.290710568,-0.120973967,-0.176664621,-77,-41,-4,-33,18
1692755972639596300,2.703053713,-4.406527996,8.82263279,-0.125637069,-0.015588055,0.019718224,-16,17,-37,33,113,0.876277804,0.645237386,10.63145256,0.285381317,-0.130166918,-0.170935676,-76,-40,-5,-35,21
1692755972640596300,2.700659513,-4.407725334,8.823830605,-0.122972436,-0.021316998,0.016520673,-15,17,-38,38,115,0.879869103,0.657208383,10.64102936,0.279785603,-0.139626339,-0.164540574,-79,-44,-2,-40,14
1692755972698558100,4.493916512,-6.090848923,6.98508358,-0.035306279,-0.211437985,0.144156188,-9,36,285,94,193,1.010353088,0.720654726,10.54406452,0.0976585,-0.082736596,0.400359869,-71,-46,-7,-41,17
1692755972699558100,4.508281708,-6.086060524,6.983886242,-0.03237519,-0.189321592,0.141491577,-4,35,285,97,194,1.009155989,0.720654726,10.54645824,0.091130167,-0.086733535,0.398228168,-70,-41,-8,-39,18
1692755972700558100,4.519055843,-6.082469463,6.997054577,-0.029577335,-0.167071983,0.138294026,-8,36,283,94,196,1.006761789,0.718260527,10.55124664,0.083935678,-0.090064317,0.394364446,-67,-45,-5,-33,18
1692755972701558100,4.523844242,-6.081272125,7.010222435,-0.027045943,-0.152150065,0.135629401,-13,37,283,96,195,1.006761789,0.711077929,10.56082344,0.076741189,-0.093661562,0.389301687,-71,-45,-7,-35,23
1692755972702558100,4.529829502,-6.083666325,7.026981831,-0.022116385,-0.129633993,0.131765693,-11,39,282,98,193,1.007958889,0.700303972,10.56800652,0.069546707,-0.096725874,0.382906556,-70,-45,-7,-38,20
1692755972776515000,4.104858875,-5.382165432,7.850587368,-0.026513018,0.015588055,0.009992342,-13,36,145,74,179,0.718260527,-0.815225661,10.52371311,0.046098009,0.359591126,-0.609799385,-69,-43,-22,-55,20
1692755972777515000,4.115632534,-5.380968094,7.844601631,-0.024381317,0.015588055,0.010392036,-11,35,145,76,178,0.681150377,-0.78050977,10.6158905,0.040102605,0.360124022,-0.612996936,-67,-47,-21,-47,21
1692755972778515000,4.12401247,-5.377377033,7.837419033,-0.022249617,0.015854517,0.011058193,-12,33,145,74,179,0.623689532,-0.748188019,10.65419769,0.030509954,0.363987744,-0.617660046,-66,-45,-19,-50,22
1692755972779515000,4.12640667,-5.374982834,7.826645374,-0.019718224,0.01612098,0.011191424,-13,34,142,73,180,0.581790984,-0.694318473,10.63145256,0.021983154,0.368517607,-0.625920355,-66,-47,-19,-48,18
1692755972780515000,4.134786129,-5.379771233,7.824251175,-0.017453292,0.016787136,0.01185758,-11,32,146,75,176,0.574608386,-0.689530075,10.57279491,0.017986218,0.370249629,-0.63471365,-69,-45,-21,-49,22
1692755972860466100,2.165555477,-4.377797604,9.063250542,-0.080338441,-0.009059724,0.003730475,-27,0,-47,14,81,4.87579155,4.586093426,7.650671482,1.312727332,-1.885621786,1.309263349,-15,-23,17,13,167
1692755972861466100,2.163161278,-4.370615005,9.065644264,-0.08313629,-0.008793262,0.002264931,-23,5,-45,16,78,4.945223808,4.558559895,7.536946774,1.311128616,-1.862306356,1.341771841,-13,-22,20,14,165
1692755972862466100,2.159569979,-4.361038208,9.064447403,-0.086067379,-0.008926493,0.000799387,-23,30,-45,16,80,5.013458252,4.53342104,7.435193539,1.310728908,-1.83925724,1.375079632,-13,-21,20,15,169
1692755972863466100,2.158372879,-4.352658749,9.06205368,-0.089264929,-0.009192956,-0.000799387,-24,5,-45,14,80,5.082890034,4.514267445,7.354987621,1.309929609,-1.816075087,1.408653855,-12,-20,20,17,177
1692755972864466100,2.157175779,-4.345476151,9.066842079,-0.092329249,-0.009592649,-0.002797856,-30,9,-45,16,78,5.151124954,4.497508049,7.286752701,1.307664633,-1.792759657,1.441562057,-13,-20,16,20,177
1692755972929426500,1.110909581,-4.225766182,9.507374763,-0.123238891,-0.29603982,0.056490045,-11,25,-35,8,55,0.386663586,0.178368032,10.51653099,0.042633995,0.005595712,0.050627869,-66,-44,-13,-34,23
1692755972930426500,1.106121182,-4.253299236,9.465476036,-0.117509954,-0.293241978,0.053958651,-18,29,-38,10,56,0.387860686,0.18555063,10.51054573,0.042234302,0.003996937,0.051027562,-63,-48,-17,-38,23
1692755972931426500,1.107318282,-4.274847031,9.427168846,-0.112047479,-0.290177643,0.051693719,-8,27,-31,10,55,0.391451985,0.193930343,10.49857426,0.041301683,0.001465544,0.05142726,-63,-47,-20,-33,21
1692755972932426500,1.110909581,-4.289212227,9.391256332,-0.105918832,-0.28777948,0.049162328,-14,21,-33,12,57,0.393846184,0.20350714,10.49618053,0.03996937,-0.001199081,0.051693719,-62,-48,-15,-36,23
1692755972933426500,1.11569798,-4.299986362,9.372102737,-0.101655439,-0.286180705,0.04729709,-12,25,-31,6,56,0.397437483,0.213083953,10.492589,0.038637057,-0.004130168,0.052093416,-63,-48,-16,-34,22
1692755972981396600,3.453635931,-7.630321026,9.507374763,0.256070435,0.447656959,0.403957129,-26,17,0,20,64,-1.034295082,2.027888775,11.00734234,0.371049017,-0.317756504,0.377577305,-80,-49,-27,-43,29
1692755972982396600,3.408146143,-7.65426302,9.533711433,0.317490041,0.429537535,0.381707519,-22,17,-1,18,66,-1.054645896,2.149993181,11.04205799,0.381441027,-0.425540596,0.417813152,-77,-50,-23,-39,29
1692755972983396600,3.365050554,-7.663839817,9.552865028,0.374246567,0.410218984,0.361056656,-23,18,0,23,62,-1.070208192,2.258929253,11.09233665,0.386370599,-0.532658458,0.458715141,-78,-50,-23,-36,27
1692755972984396600,3.320757866,-7.612364292,9.564835548,0.422209799,0.390900433,0.342537522,-24,17,3,22,63,-1.074996591,2.37744236,11.12824917,0.385704458,-0.636045933,0.500816226,-77,-47,-22,-36,29
1692755972985396600,3.287238836,-7.533355713,9.562441826,0.457382828,0.372514546,0.323352218,-24,17,-1,16,63,-1.072602391,2.462436438,11.15338898,0.381707519,-0.702794731,0.529061258,-76,-46,-20,-33,28
1692755973036365600,3.835511208,-4.807557106,8.482656479,-0.01825268,0.007061256,-0.016520673,16,42,31,27,165,5.122394562,2.272097349,9.293093681,0.45764932,-0.401292503,0.128168449,450,607,706,464,1060
1692755973037365600,3.843890905,-4.79678297,8.480262756,-0.021983154,0.003064318,-0.017453292,9,43,33,27,165,5.086481571,2.236184359,9.269151688,0.402358323,-0.414748847,0.110049009,448,607,703,463,1054
1692755973038365600,3.848679304,-4.79079771,8.480262756,-0.024381317,0.000932619,-0.017719755,16,43,31,28,163,5.033809185,2.207453966,9.252392769,0.346001506,-0.43007046,0.089531392,445,606,699,461,1053
1692755973039365600,3.860650301,-4.783615112,8.479064941,-0.028777948,-0.001865237,-0.017453292,6,37,29,26,163,4.963180065,2.185906172,9.236829758,0.28777948,-0.448056638,0.068880551,441,604,702,462,1047
1692755973040365600,3.869029999,-4.781220913,8.479064941,-0.031975497,-0.002664625,-0.016653905,2,38,26,26,161,4.865017891,2.184709072,9.222464561,0.22596018,-0.471372128,0.050094947,437,605,692,461,1047
1692755973094337600,3.690661907,-4.756081581,8.341399193,-0.069280244,0.011591119,0.04729709,4,42,26,24,150,5.230133533,1.181538582,7.95593214,-1.389468551,-1.694967747,0.226093426,269,561,501,448,987
1692755973095337600,3.676296711,-4.764461517,8.349778175,-0.07301072,0.008127105,0.048362937,8,37,26,22,153,5.531803131,1.094150186,7.88171196,-1.467675447,-1.689372063,0.213569671,249,560,492,447,981
1692755973096337600,3.666719913,-4.776432514,8.361749649,-0.077807046,0.004529862,0.049295556,5,34,29,23,153,5.838260651,1.007958889,7.80509758,-1.538287878,-1.666189909,0.192652375,235,563,481,448,973
1692755973097337600,3.663128614,-4.79079771,8.383296967,-0.083003066,0.00106585,0.050094947,17,45,32,23,151,6.139930248,0.92775315,7.720103264,-1.604903579,-1.624755025,0.161343038,216,561,476,446,967
1692755973098337600,3.663128614,-4.811148167,8.408436775,-0.087932616,-0.002797856,0.050627869,5,33,26,16,145,6.405686855,0.849941611,7.639897823,-1.664591074,-1.566666126,0.119774885,197,564,471,447,962
1692755973165290800,3.749319792,-4.917690277,8.404845238,-0.242214397,-0.125903517,-0.002398162,1,39,24,7,111,5.846640587,0.385466486,4.780023575,-2.337808609,-0.359324634,-1.142990828,-43,363,318,298,577
1692755973166290800,3.743334293,-4.918887615,8.394071579,-0.245278716,-0.133630931,-0.006261868,5,37,20,6,110,5.826289654,0.366312861,5.125985622,-2.358059645,-0.382506907,-1.167238832,-44,344,304,285,551
1692755973167290800,3.748122692,-4.917690277,8.385691643,-0.247676879,-0.140958652,-0.009725881,4,35,25,6,109,5.843049049,0.225054964,5.663484097,-2.357393503,-0.385970891,-1.189621806,-44,318,287,269,519
1692755973168290800,3.75650239,-4.912901878,8.373720169,-0.249542102,-0.146820813,-0.013456355,8,34,19,2,108,5.916072369,-0.061052144,6.364984989,-2.33274579,-0.357725888,-1.196949482,-47,300,274,252,487
1692755973169290800,3.766079187,-4.904522419,8.36294651,-0.251140893,-0.152016848,-0.016653905,9,38,17,2,105,6.045359135,-0.328005642,7.155071735,-2.286114693,-0.286447167,-1.183493018,-49,281,261,234,452
