timestamp_leitura,right_data_Ac_X,right_data_Ac_Y,right_data_Ac_Z,right_data_Gy_X,right_data_Gy_Y,right_data_Gy_Z,left_data_Ac_X,left_data_Ac_Y,left_data_Ac_Z,left_data_Gy_X,left_data_Gy_Y,left_data_Gy_Z
1688388203.2923944,0.330399841,-0.095768064,10.68053341,0.103920363,0.010658499,-0.016520673,,,,,,
1688388203.2923944,0.328005642,-0.093373865,10.67813969,0.104186833,0.010392036,-0.016520673,,,,,,
1688388203.2923944,0.330399841,-0.093373865,10.67813969,0.104186833,0.010392036,-0.016520673,,,,,,
1688388203.2923944,0.330399841,-0.093373865,10.68053341,0.104186833,0.010392036,-0.016520673,,,,,,
1688388203.2923944,0.33279404,-0.093373865,10.67813969,0.103920363,0.010392036,-0.016520673,,,,,,
1688388203.2923944,0.33279404,-0.093373865,10.67813969,0.103920363,0.010392036,-0.016254211,,,,,,
1688388203.2923944,0.33279404,-0.093373865,10.68053341,0.103920363,0.010392036,-0.016520673,,,,,,
1688388203.2923944,0.33279404,-0.093373865,10.68292809,0.104186833,0.010392036,-0.016520673,,,,,,
1688388203.2923944,0.33279404,-0.090979666,10.68292809,0.104186833,0.010658499,-0.016520673,,,,,,
1688388203.2923944,0.33279404,-0.088585466,10.68292809,0.103920363,0.010658499,-0.016520673,,,,,,
1688388203.2923944,0.33279404,-0.090979666,10.68292809,0.103920363,0.010658499,-0.016254211,,,,,,
1688388203.2923944,0.33279404,-0.090979666,10.68292809,0.104186833,0.010658499,-0.016254211,,,,,,
1688388203.2923944,0.337582439,-0.090979666,10.68292809,0.104186833,0.010658499,-0.016254211,,,,,,
1688388203.2923944,0.33279404,-0.086191259,10.68532181,0.103920363,0.010658499,-0.016254211,,,,,,
1688388203.2923944,0.33279404,-0.086191259,10.69011021,0.104186833,0.010658499,-0.015987748,,,,,,
1688388203.2923944,,,,,,,1.034295082,0.138863698,9.277531624,-0.103387438,0.02158346,-0.012790199
1688388203.2923944,,,,,,,1.036689281,0.138863698,9.277531624,-0.103387438,0.02158346,-0.012790199
1688388203.2923944,,,,,,,1.034295082,0.136469498,9.279925346,-0.103387438,0.02158346,-0.012790199
1688388203.2923944,,,,,,,1.034295082,0.138863698,9.277531624,-0.103387438,0.02158346,-0.013056661
1688388203.2923944,,,,,,,1.034295082,0.138863698,9.279925346,-0.103387438,0.021316998,-0.013056661
1688388203.2923944,,,,,,,1.034295082,0.141257897,9.275136948,-0.103387438,0.021316998,-0.013056661
1688388203.2923944,,,,,,,1.036689281,0.143652096,9.275136948,-0.103387438,0.021050537,-0.013056661
1688388203.2923944,,,,,,,1.036689281,0.141257897,9.275136948,-0.103387438,0.021050537,-0.013056661
1688388203.2923944,,,,,,,1.039083481,0.143652096,9.272743225,-0.103120975,0.021050537,-0.012790199
1688388203.2923944,,,,,,,1.039083481,0.146046311,9.279925346,-0.103120975,0.021316998,-0.012790199
1688388203.2923944,,,,,,,1.04147768,0.146046311,9.277531624,-0.103120975,0.021316998,-0.012790199
1688388203.2923944,,,,,,,1.039083481,0.146046311,9.277531624,-0.103120975,0.02158346,-0.012790199
1688388203.2923944,,,,,,,1.039083481,0.143652096,9.277531624,-0.103120975,0.02158346,-0.012790199
1688388203.2923944,,,,,,,1.039083481,0.143652096,9.277531624,-0.103120975,0.02158346,-0.012790199
1688388203.2923944,,,,,,,1.036689281,0.141257897,9.277531624,-0.103387438,0.02158346,-0.012790199
1688388203.4922793,0.344765037,-0.081402861,10.69489861,0.103920363,0.010392036,-0.016254211,,,,,,
1688388203.4922793,0.344765037,-0.081402861,10.69489861,0.103920363,0.010392036,-0.016254211,,,,,,
1688388203.4922793,0.342370838,-0.079008654,10.69489861,0.103920363,0.010658499,-0.016520673,,,,,,
1688388203.4922793,0.342370838,-0.076614454,10.69250488,0.103920363,0.010658499,-0.016254211,,,,,,
1688388203.4922793,0.342370838,-0.076614454,10.69489861,0.103920363,0.010658499,-0.016254211,,,,,,
1688388203.4922793,0.342370838,-0.076614454,10.69489861,0.103920363,0.010924961,-0.016254211,,,,,,
1688388203.4922793,0.342370838,-0.076614454,10.69489861,0.103920363,0.010924961,-0.015987748,,,,,,
1688388203.4922793,0.339976639,-0.081402861,10.69489861,0.104186833,0.010924961,-0.015987748,,,,,,
1688388203.4922793,0.337582439,-0.081402861,10.69250488,0.103920363,0.010924961,-0.015987748,,,,,,
1688388203.4922793,0.337582439,-0.079008654,10.69250488,0.104186833,0.010924961,-0.015721286,,,,,,
1688388203.4922793,0.339976639,-0.079008654,10.69489861,0.104186833,0.010924961,-0.015987748,,,,,,
1688388203.4922793,0.339976639,-0.079008654,10.69250488,0.104186833,0.010658499,-0.015987748,,,,,,
1688388203.4922793,0.339976639,-0.081402861,10.69011021,0.104186833,0.010658499,-0.015987748,,,,,,
1688388203.4922793,0.342370838,-0.081402861,10.69011021,0.103920363,0.010658499,-0.015987748,,,,,,
1688388203.4922793,0.342370838,-0.081402861,10.68771648,0.103920363,0.010658499,-0.016254211,,,,,,
1688388203.4922793,,,,,,,1.048660398,0.141257897,9.279925346,-0.103653908,0.021316998,-0.013323124
1688388203.4922793,,,,,,,1.051054597,0.143652096,9.277531624,-0.103653908,0.02158346,-0.013056661
1688388203.4922793,,,,,,,1.051054597,0.143652096,9.277531624,-0.103653908,0.021849923,-0.013056661
1688388203.4922793,,,,,,,1.053448796,0.146046311,9.279925346,-0.103653908,0.021849923,-0.013056661
1688388203.4922793,,,,,,,1.053448796,0.146046311,9.284713745,-0.103653908,0.021849923,-0.013056661
1688388203.4922793,,,,,,,1.053448796,0.14844051,9.284713745,-0.103653908,0.02158346,-0.013056661
1688388203.4922793,,,,,,,1.053448796,0.14844051,9.287108421,-0.103653908,0.02158346,-0.013056661
1688388203.4922793,,,,,,,1.055842996,0.14844051,9.287108421,-0.103653908,0.02158346,-0.013056661
1688388203.4922793,,,,,,,1.055842996,0.14844051,9.282320023,-0.103387438,0.02158346,-0.013056661
1688388203.4922793,,,,,,,1.053448796,0.146046311,9.279925346,-0.103387438,0.02158346,-0.013323124
1688388203.4922793,,,,,,,1.053448796,0.14844051,9.282320023,-0.103387438,0.021849923,-0.013323124
1688388203.4922793,,,,,,,1.055842996,0.146046311,9.282320023,-0.103387438,0.02158346,-0.013323124
1688388203.4922793,,,,,,,1.055842996,0.143652096,9.287108421,-0.103120975,0.021849923,-0.013056661
1688388203.4922793,,,,,,,1.055842996,0.143652096,9.287108421,-0.103120975,0.021849923,-0.012790199
1688388203.4922793,,,,,,,1.053448796,0.143652096,9.287108421,-0.103387438,0.021849923,-0.013056661
1688388203.6481934,0.347159237,-0.076614454,10.68292809,0.104453288,0.010392036,-0.015721286,,,,,,
1688388203.6481934,0.342370838,-0.076614454,10.68532181,0.104719758,0.010658499,-0.015987748,,,,,,
1688388203.6481934,0.339976639,-0.074220255,10.68771648,0.104719758,0.010658499,-0.015987748,,,,,,
1688388203.6481934,0.339976639,-0.076614454,10.68532181,0.104719758,0.010658499,-0.015987748,,,,,,
1688388203.6481934,0.337582439,-0.076614454,10.68532181,0.104719758,0.010658499,-0.015987748,,,,,,
1688388203.6481934,0.339976639,-0.076614454,10.68292809,0.104719758,0.010392036,-0.015987748,,,,,,
1688388203.6481934,0.339976639,-0.074220255,10.68292809,0.104719758,0.010392036,-0.015987748,,,,,,
1688388203.6481934,0.342370838,-0.074220255,10.68053341,0.104453288,0.010392036,-0.015987748,,,,,,
1688388203.6481934,0.342370838,-0.074220255,10.68292809,0.104453288,0.010392036,-0.015987748,,,,,,
1688388203.6481934,0.342370838,-0.074220255,10.68532181,0.104453288,0.010392036,-0.015987748,,,,,,
1688388203.6481934,0.339976639,-0.074220255,10.68532181,0.104453288,0.010392036,-0.015987748,,,,,,
1688388203.6481934,0.337582439,-0.076614454,10.68532181,0.104453288,0.010392036,-0.015987748,,,,,,
1688388203.6481934,0.337582439,-0.076614454,10.68532181,0.104453288,0.010392036,-0.015987748,,,,,,
1688388203.6481934,0.33518824,-0.079008654,10.69011021,0.104453288,0.010658499,-0.015987748,,,,,,
1688388203.6481934,0.33518824,-0.079008654,10.69011021,0.104453288,0.010392036,-0.015987748,,,,,,
1688388203.6481934,,,,,,,1.039083481,0.155623108,9.282320023,-0.103653908,0.02158346,-0.012523737
1688388203.6481934,,,,,,,1.039083481,0.158017308,9.284713745,-0.103653908,0.02158346,-0.012790199
1688388203.6481934,,,,,,,1.04147768,0.160411507,9.287108421,-0.103387438,0.02158346,-0.012790199
1688388203.6481934,,,,,,,1.04147768,0.158017308,9.284713745,-0.103387438,0.02158346,-0.013056661
1688388203.6481934,,,,,,,1.043871999,0.158017308,9.284713745,-0.103120975,0.02158346,-0.013056661
1688388203.6481934,,,,,,,1.046266198,0.158017308,9.284713745,-0.103120975,0.02158346,-0.013056661
1688388203.6481934,,,,,,,1.046266198,0.158017308,9.284713745,-0.103387438,0.02158346,-0.013056661
1688388203.6481934,,,,,,,1.046266198,0.155623108,9.284713745,-0.103387438,0.02158346,-0.012790199
1688388203.6481934,,,,,,,1.046266198,0.158017308,9.287108421,-0.103387438,0.02158346,-0.012790199
1688388203.6481934,,,,,,,1.043871999,0.155623108,9.289502144,-0.103387438,0.02158346,-0.013056661
1688388203.6481934,,,,,,,1.04147768,0.155623108,9.287108421,-0.103387438,0.02158346,-0.012790199
1688388203.6481934,,,,,,,1.04147768,0.155623108,9.29189682,-0.103387438,0.021316998,-0.012790199
1688388203.6481934,,,,,,,1.036689281,0.153228909,9.289502144,-0.103387438,0.021316998,-0.013056661
1688388203.6481934,,,,,,,1.036689281,0.150834709,9.29189682,-0.103387438,0.021316998,-0.012790199
1688388203.6481934,,,,,,,1.036689281,0.150834709,9.289502144,-0.103387438,0.02158346,-0.013056661
1688388203.8200917,0.337582439,-0.086191259,10.69250488,0.104719758,0.010658499,-0.016254211,,,,,,
1688388203.8200917,0.339976639,-0.088585466,10.69011021,0.104719758,0.010392036,-0.016254211,,,,,,
1688388203.8200917,0.339976639,-0.088585466,10.69011021,0.104453288,0.010658499,-0.016254211,,,,,,
1688388203.8200917,0.337582439,-0.086191259,10.68771648,0.104453288,0.010658499,-0.015987748,,,,,,
1688388203.8200917,0.337582439,-0.08379706,10.69011021,0.104453288,0.010392036,-0.015721286,,,,,,
1688388203.8200917,0.337582439,-0.086191259,10.69250488,0.104453288,0.010392036,-0.015721286,,,,,,
1688388203.8200917,0.339976639,-0.08379706,10.69729328,0.104453288,0.010392036,-0.015721286,,,,,,
1688388203.8200917,0.337582439,-0.08379706,10.699687,0.104453288,0.010392036,-0.015721286,,,,,,
1688388203.8200917,0.337582439,-0.086191259,10.69489861,0.104453288,0.010392036,-0.015721286,,,,,,
1688388203.8200917,0.339976639,-0.088585466,10.69250488,0.104453288,0.010392036,-0.015987748,,,,,,
1688388203.8200917,0.339976639,-0.088585466,10.69250488,0.104186833,0.010392036,-0.015987748,,,,,,
1688388203.8200917,0.339976639,-0.090979666,10.69250488,0.104453288,0.010392036,-0.015987748,,,,,,
1688388203.8200917,0.344765037,-0.086191259,10.69250488,0.104186833,0.010392036,-0.015987748,,,,,,
1688388203.8200917,0.342370838,-0.086191259,10.69011021,0.104186833,0.010125575,-0.015987748,,,,,,
1688388203.8200917,0.342370838,-0.088585466,10.69011021,0.104186833,0.010392036,-0.015721286,,,,,,
1688388203.8200917,,,,,,,1.046266198,0.14844051,9.284713745,-0.103120975,0.02158346,-0.013056661
1688388203.8200917,,,,,,,1.048660398,0.146046311,9.282320023,-0.103387438,0.02158346,-0.012790199
1688388203.8200917,,,,,,,1.046266198,0.146046311,9.277531624,-0.103387438,0.021316998,-0.012790199
1688388203.8200917,,,,,,,1.046266198,0.143652096,9.279925346,-0.103120975,0.021316998,-0.012790199
1688388203.8200917,,,,,,,1.046266198,0.146046311,9.279925346,-0.103387438,0.02158346,-0.013056661
1688388203.8200917,,,,,,,1.043871999,0.14844051,9.277531624,-0.103387438,0.02158346,-0.013056661
1688388203.8200917,,,,,,,1.043871999,0.146046311,9.277531624,-0.103120975,0.02158346,-0.013056661
1688388203.8200917,,,,,,,1.046266198,0.143652096,9.275136948,-0.103120975,0.02158346,-0.013056661
1688388203.8200917,,,,,,,1.048660398,0.146046311,9.277531624,-0.103387438,0.021316998,-0.013056661
1688388203.8200917,,,,,,,1.051054597,0.150834709,9.277531624,-0.103387438,0.021316998,-0.013056661
1688388203.8200917,,,,,,,1.051054597,0.14844051,9.275136948,-0.103387438,0.021316998,-0.013056661
1688388203.8200917,,,,,,,1.053448796,0.14844051,9.275136948,-0.103387438,0.021316998,-0.013056661
1688388203.8200917,,,,,,,1.053448796,0.150834709,9.279925346,-0.103387438,0.021316998,-0.013056661
1688388203.8200917,,,,,,,1.053448796,0.150834709,9.277531624,-0.103387438,0.021316998,-0.013056661
1688388203.8200917,,,,,,,1.051054597,0.150834709,9.279925346,-0.103387438,0.021316998,-0.013056661
1688388203.99999,0.344765037,-0.08379706,10.70687008,0.104453288,0.010392036,-0.016254211,,,,,,
1688388203.99999,0.347159237,-0.081402861,10.7044754,0.104453288,0.010392036,-0.016254211,,,,,,
1688388203.99999,0.347159237,-0.081402861,10.699687,0.104186833,0.010392036,-0.016254211,,,,,,
1688388203.99999,0.347159237,-0.081402861,10.699687,0.104453288,0.010392036,-0.016254211,,,,,,
1688388203.99999,0.344765037,-0.08379706,10.70208168,0.104453288,0.010392036,-0.016254211,,,,,,
1688388203.99999,0.347159237,-0.086191259,10.69729328,0.104453288,0.010392036,-0.016254211,,,,,,
1688388203.99999,0.344765037,-0.086191259,10.69489861,0.104186833,0.010392036,-0.016254211,,,,,,
1688388203.99999,0.344765037,-0.086191259,10.69250488,0.104186833,0.010658499,-0.016254211,,,,,,
1688388203.99999,0.347159237,-0.086191259,10.69489861,0.104186833,0.010658499,-0.016254211,,,,,,
1688388203.99999,0.344765037,-0.08379706,10.69489861,0.104453288,0.010658499,-0.016254211,,,,,,
1688388203.99999,0.347159237,-0.08379706,10.69489861,0.104453288,0.010658499,-0.016520673,,,,,,
1688388203.99999,0.347159237,-0.08379706,10.699687,0.104453288,0.010392036,-0.016254211,,,,,,
1688388203.99999,0.344765037,-0.08379706,10.7044754,0.104453288,0.010392036,-0.016520673,,,,,,
1688388203.99999,0.344765037,-0.08379706,10.70208168,0.104453288,0.010392036,-0.016520673,,,,,,
1688388203.99999,0.342370838,-0.08379706,10.699687,0.104453288,0.010658499,-0.016520673,,,,,,
1688388203.99999,,,,,,,1.04147768,0.14844051,9.279925346,-0.103653908,0.02158346,-0.013056661
1688388203.99999,,,,,,,1.039083481,0.146046311,9.279925346,-0.103653908,0.02158346,-0.013323124
1688388203.99999,,,,,,,1.036689281,0.14844051,9.279925346,-0.103387438,0.02158346,-0.013323124
1688388203.99999,,,,,,,1.036689281,0.14844051,9.282320023,-0.103387438,0.02158346,-0.013323124
1688388203.99999,,,,,,,1.036689281,0.150834709,9.284713745,-0.103387438,0.02158346,-0.013323124
1688388203.99999,,,,,,,1.036689281,0.155623108,9.282320023,-0.103387438,0.02158346,-0.013323124
1688388203.99999,,,,,,,1.036689281,0.160411507,9.282320023,-0.103387438,0.02158346,-0.013323124
1688388203.99999,,,,,,,1.031900883,0.160411507,9.279925346,-0.103387438,0.02158346,-0.013056661
1688388203.99999,,,,,,,1.034295082,0.160411507,9.284713745,-0.103387438,0.02158346,-0.013323124
1688388203.99999,,,,,,,1.036689281,0.162805721,9.287108421,-0.103387438,0.021316998,-0.013323124
1688388203.99999,,,,,,,1.034295082,0.162805721,9.284713745,-0.103387438,0.02158346,-0.013056661
1688388203.99999,,,,,,,1.031900883,0.160411507,9.282320023,-0.103387438,0.02158346,-0.013056661
1688388203.99999,,,,,,,1.031900883,0.160411507,9.279925346,-0.103653908,0.02158346,-0.013056661
1688388203.99999,,,,,,,1.031900883,0.155623108,9.279925346,-0.103653908,0.021849923,-0.013056661
1688388203.99999,,,,,,,1.031900883,0.158017308,9.279925346,-0.103653908,0.021849923,-0.013056661
1688388204.1589005,0.347159237,-0.090979666,10.68292809,0.103920363,0.010658499,-0.016254211,,,,,,
1688388204.1589005,0.347159237,-0.093373865,10.67813969,0.103920363,0.010392036,-0.015987748,,,,,,
1688388204.1589005,0.347159237,-0.095768064,10.67813969,0.103920363,0.010658499,-0.015987748,,,,,,
1688388204.1589005,0.347159237,-0.098162271,10.67813969,0.104186833,0.010658499,-0.015987748,,,,,,
1688388204.1589005,0.349553436,-0.095768064,10.68292809,0.104186833,0.010658499,-0.016254211,,,,,,
1688388204.1589005,0.351947635,-0.095768064,10.68532181,0.103920363,0.010658499,-0.016254211,,,,,,
1688388204.1589005,0.351947635,-0.093373865,10.68292809,0.103920363,0.010924961,-0.016254211,,,,,,
1688388204.1589005,0.354341865,-0.093373865,10.68053341,0.103653908,0.010658499,-0.016254211,,,,,,
1688388204.1589005,0.351947635,-0.093373865,10.68053341,0.103920363,0.010658499,-0.016254211,,,,,,
1688388204.1589005,0.349553436,-0.093373865,10.68532181,0.103653908,0.010658499,-0.015987748,,,,,,
1688388204.1589005,0.351947635,-0.090979666,10.69011021,0.103653908,0.010658499,-0.016254211,,,,,,
1688388204.1589005,0.351947635,-0.088585466,10.68771648,0.103920363,0.010658499,-0.016254211,,,,,,
1688388204.1589005,0.351947635,-0.088585466,10.68532181,0.103920363,0.010392036,-0.016254211,,,,,,
1688388204.1589005,0.347159237,-0.086191259,10.68771648,0.103653908,0.010658499,-0.016254211,,,,,,
1688388204.1589005,0.347159237,-0.088585466,10.68532181,0.103653908,0.010392036,-0.016254211,,,,,,
1688388204.1589005,,,,,,,1.051054597,0.136469498,9.270348549,-0.104986221,0.02051761,-0.012790199
1688388204.1589005,,,,,,,1.048660398,0.136469498,9.267954826,-0.104986221,0.020784073,-0.012790199
1688388204.1589005,,,,,,,1.048660398,0.134075299,9.275136948,-0.104986221,0.020784073,-0.012790199
1688388204.1589005,,,,,,,1.043871999,0.136469498,9.277531624,-0.104719758,0.020784073,-0.012790199
1688388204.1589005,,,,,,,1.043871999,0.136469498,9.277531624,-0.104719758,0.020784073,-0.012523737
1688388204.1589005,,,,,,,1.04147768,0.138863698,9.279925346,-0.104719758,0.02051761,-0.012523737
1688388204.1589005,,,,,,,1.04147768,0.138863698,9.282320023,-0.104719758,0.020251149,-0.012257273
1688388204.1589005,,,,,,,1.04147768,0.141257897,9.282320023,-0.104719758,0.020251149,-0.012257273
1688388204.1589005,,,,,,,1.039083481,0.141257897,9.284713745,-0.104719758,0.02051761,-0.012257273
1688388204.1589005,,,,,,,1.039083481,0.143652096,9.284713745,-0.104986221,0.020251149,-0.012523737
1688388204.1589005,,,,,,,1.04147768,0.141257897,9.29189682,-0.104986221,0.019984685,-0.012257273
1688388204.1589005,,,,,,,1.04147768,0.143652096,9.289502144,-0.104986221,0.019984685,-0.012790199
1688388204.1589005,,,,,,,1.04147768,0.143652096,9.289502144,-0.105252676,0.020251149,-0.012790199
1688388204.1589005,,,,,,,1.04147768,0.138863698,9.284713745,-0.105252676,0.019984685,-0.012523737
1688388204.1589005,,,,,,,1.04147768,0.136469498,9.284713745,-0.105252676,0.02051761,-0.012523737
1688388204.3527865,0.344765037,-0.081402861,10.68292809,0.104186833,0.010924961,-0.016520673,,,,,,
1688388204.3527865,0.347159237,-0.079008654,10.68292809,0.104186833,0.010924961,-0.016520673,,,,,,
1688388204.3527865,0.344765037,-0.079008654,10.68292809,0.104186833,0.011191424,-0.016520673,,,,,,
1688388204.3527865,0.342370838,-0.079008654,10.68771648,0.103920363,0.010658499,-0.016254211,,,,,,
1688388204.3527865,0.344765037,-0.079008654,10.68771648,0.104186833,0.010658499,-0.016254211,,,,,,
1688388204.3527865,0.344765037,-0.079008654,10.68771648,0.103920363,0.010924961,-0.016254211,,,,,,
1688388204.3527865,0.344765037,-0.081402861,10.68771648,0.104186833,0.010924961,-0.016254211,,,,,,
1688388204.3527865,0.342370838,-0.081402861,10.68532181,0.104186833,0.010658499,-0.015987748,,,,,,
1688388204.3527865,0.342370838,-0.081402861,10.68053341,0.104186833,0.010658499,-0.015987748,,,,,,
1688388204.3527865,0.339976639,-0.08379706,10.68292809,0.104186833,0.010658499,-0.015987748,,,,,,
1688388204.3527865,0.339976639,-0.086191259,10.68771648,0.104186833,0.010924961,-0.015987748,,,,,,
1688388204.3527865,0.337582439,-0.086191259,10.68771648,0.104186833,0.010924961,-0.015987748,,,,,,
1688388204.3527865,0.337582439,-0.086191259,10.68771648,0.103920363,0.010924961,-0.015987748,,,,,,
1688388204.3527865,0.339976639,-0.08379706,10.68532181,0.103920363,0.010924961,-0.015987748,,,,,,
1688388204.3527865,0.339976639,-0.08379706,10.68532181,0.103920363,0.010924961,-0.015987748,,,,,,
1688388204.3527865,,,,,,,1.04147768,0.136469498,9.282320023,-0.103653908,0.02158346,-0.012790199
1688388204.3527865,,,,,,,1.043871999,0.136469498,9.284713745,-0.103653908,0.02158346,-0.012790199
1688388204.3527865,,,,,,,1.043871999,0.136469498,9.277531624,-0.103653908,0.02158346,-0.012790199
1688388204.3527865,,,,,,,1.046266198,0.138863698,9.277531624,-0.103387438,0.02158346,-0.012790199
1688388204.3527865,,,,,,,1.043871999,0.138863698,9.282320023,-0.103387438,0.021316998,-0.012790199
1688388204.3527865,,,,,,,1.043871999,0.138863698,9.277531624,-0.103387438,0.021316998,-0.013056661
1688388204.3527865,,,,,,,1.043871999,0.141257897,9.275136948,-0.103387438,0.021316998,-0.013056661
1688388204.3527865,,,,,,,1.046266198,0.143652096,9.270348549,-0.103653908,0.021316998,-0.013056661
1688388204.3527865,,,,,,,1.043871999,0.143652096,9.267954826,-0.103653908,0.021316998,-0.012790199
1688388204.3527865,,,,,,,1.04147768,0.146046311,9.267954826,-0.103920363,0.021316998,-0.012790199
1688388204.3527865,,,,,,,1.043871999,0.146046311,9.260771751,-0.103920363,0.021316998,-0.012523737
1688388204.3527865,,,,,,,1.043871999,0.14844051,9.260771751,-0.103653908,0.02158346,-0.012523737
1688388204.3527865,,,,,,,1.043871999,0.146046311,9.26556015,-0.103653908,0.021316998,-0.012790199
1688388204.3527865,,,,,,,1.043871999,0.143652096,9.267954826,-0.103653908,0.021316998,-0.012790199
1688388204.3527865,,,,,,,1.043871999,0.146046311,9.267954826,-0.103653908,0.021316998,-0.012790199
1688388204.5226893,0.349553436,-0.081402861,10.69729328,0.103653908,0.010658499,-0.016787136,,,,,,
1688388204.5226893,0.349553436,-0.081402861,10.69729328,0.103653908,0.010658499,-0.016787136,,,,,,
1688388204.5226893,0.349553436,-0.081402861,10.69489861,0.103653908,0.010658499,-0.016787136,,,,,,
1688388204.5226893,0.347159237,-0.081402861,10.69011021,0.103920363,0.010658499,-0.016520673,,,,,,
1688388204.5226893,0.347159237,-0.081402861,10.68771648,0.103920363,0.010658499,-0.016520673,,,,,,
1688388204.5226893,0.347159237,-0.08379706,10.68053341,0.103920363,0.010658499,-0.016520673,,,,,,
1688388204.5226893,0.347159237,-0.08379706,10.68292809,0.103920363,0.010924961,-0.016254211,,,,,,
1688388204.5226893,0.347159237,-0.086191259,10.68292809,0.103920363,0.010658499,-0.016254211,,,,,,
1688388204.5226893,0.344765037,-0.086191259,10.69011021,0.103920363,0.010924961,-0.016254211,,,,,,
1688388204.5226893,0.344765037,-0.088585466,10.69250488,0.103653908,0.010924961,-0.016254211,,,,,,
1688388204.5226893,0.342370838,-0.088585466,10.69489861,0.103653908,0.010924961,-0.016254211,,,,,,
1688388204.5226893,0.342370838,-0.086191259,10.69489861,0.103920363,0.010924961,-0.016520673,,,,,,
1688388204.5226893,0.339976639,-0.086191259,10.69489861,0.103920363,0.010658499,-0.016520673,,,,,,
1688388204.5226893,0.339976639,-0.088585466,10.69250488,0.103920363,0.010658499,-0.016520673,,,,,,
1688388204.5226893,0.339976639,-0.090979666,10.69489861,0.103920363,0.010658499,-0.016520673,,,,,,
1688388204.5226893,,,,,,,1.048660398,0.143652096,9.25358963,-0.103120975,0.021316998,-0.012790199
1688388204.5226893,,,,,,,1.048660398,0.143652096,9.258378029,-0.103120975,0.021316998,-0.012790199
1688388204.5226893,,,,,,,1.048660398,0.146046311,9.260771751,-0.103120975,0.021050537,-0.012790199
1688388204.5226893,,,,,,,1.051054597,0.146046311,9.258378029,-0.103120975,0.021050537,-0.012790199
1688388204.5226893,,,,,,,1.051054597,0.146046311,9.255983353,-0.103387438,0.021316998,-0.012790199
1688388204.5226893,,,,,,,1.051054597,0.146046311,9.263166428,-0.103653908,0.021316998,-0.012790199
1688388204.5226893,,,,,,,1.053448796,0.146046311,9.26556015,-0.103387438,0.021316998,-0.012790199
1688388204.5226893,,,,,,,1.051054597,0.146046311,9.270348549,-0.103387438,0.021316998,-0.013056661
1688388204.5226893,,,,,,,1.048660398,0.146046311,9.270348549,-0.103387438,0.021316998,-0.013056661
1688388204.5226893,,,,,,,1.048660398,0.146046311,9.267954826,-0.103387438,0.02158346,-0.013056661
1688388204.5226893,,,,,,,1.046266198,0.143652096,9.267954826,-0.103653908,0.02158346,-0.013056661
1688388204.5226893,,,,,,,1.046266198,0.141257897,9.270348549,-0.103653908,0.021849923,-0.013056661
1688388204.5226893,,,,,,,1.048660398,0.138863698,9.267954826,-0.103387438,0.021849923,-0.012790199
1688388204.5226893,,,,,,,1.048660398,0.138863698,9.26556015,-0.103120975,0.021849923,-0.012790199
1688388204.5226893,,,,,,,1.051054597,0.138863698,9.263166428,-0.103120975,0.021849923,-0.012790199
1688388204.6835983,0.344765037,-0.095768064,10.67813969,0.104186833,0.010392036,-0.016254211,,,,,,
1688388204.6835983,0.347159237,-0.095768064,10.68053341,0.104186833,0.010392036,-0.016254211,,,,,,
1688388204.6835983,0.349553436,-0.090979666,10.68771648,0.104453288,0.010392036,-0.016254211,,,,,,
1688388204.6835983,0.349553436,-0.088585466,10.68771648,0.104186833,0.010392036,-0.016254211,,,,,,
1688388204.6835983,0.349553436,-0.088585466,10.68771648,0.104186833,0.010392036,-0.016254211,,,,,,
1688388204.6835983,0.351947635,-0.086191259,10.69011021,0.104186833,0.010392036,-0.016520673,,,,,,
1688388204.6835983,0.351947635,-0.086191259,10.68532181,0.104186833,0.010658499,-0.016254211,,,,,,
1688388204.6835983,0.351947635,-0.086191259,10.68532181,0.104186833,0.010392036,-0.016254211,,,,,,
1688388204.6835983,0.351947635,-0.090979666,10.68532181,0.103920363,0.010658499,-0.016520673,,,,,,
1688388204.6835983,0.349553436,-0.093373865,10.69011021,0.104186833,0.010658499,-0.016254211,,,,,,
1688388204.6835983,0.351947635,-0.093373865,10.69250488,0.104186833,0.010392036,-0.016254211,,,,,,
1688388204.6835983,0.349553436,-0.090979666,10.69489861,0.103920363,0.010392036,-0.016254211,,,,,,
1688388204.6835983,0.344765037,-0.088585466,10.69489861,0.103920363,0.010392036,-0.016254211,,,,,,
1688388204.6835983,0.344765037,-0.088585466,10.69489861,0.104186833,0.010392036,-0.016254211,,,,,,
1688388204.6835983,0.342370838,-0.086191259,10.69250488,0.103920363,0.010392036,-0.016254211,,,,,,
1688388204.6835983,,,,,,,1.048660398,0.146046311,9.255983353,-0.103653908,0.022116385,-0.012790199
1688388204.6835983,,,,,,,1.048660398,0.143652096,9.258378029,-0.103653908,0.021849923,-0.012790199
1688388204.6835983,,,,,,,1.048660398,0.146046311,9.25358963,-0.103387438,0.02158346,-0.012790199
1688388204.6835983,,,,,,,1.048660398,0.143652096,9.25358963,-0.103387438,0.021849923,-0.012790199
1688388204.6835983,,,,,,,1.043871999,0.141257897,9.26556015,-0.103387438,0.021849923,-0.012790199
1688388204.6835983,,,,,,,1.043871999,0.141257897,9.272743225,-0.103120975,0.02158346,-0.012523737
1688388204.6835983,,,,,,,1.046266198,0.143652096,9.270348549,-0.10285452,0.02158346,-0.012523737
1688388204.6835983,,,,,,,1.048660398,0.143652096,9.270348549,-0.10285452,0.02158346,-0.012523737
1688388204.6835983,,,,,,,1.051054597,0.146046311,9.275136948,-0.10285452,0.021849923,-0.012257273
1688388204.6835983,,,,,,,1.051054597,0.146046311,9.279925346,-0.103120975,0.021849923,-0.012523737
1688388204.6835983,,,,,,,1.053448796,0.150834709,9.275136948,-0.10285452,0.02158346,-0.012523737
1688388204.6835983,,,,,,,1.053448796,0.150834709,9.270348549,-0.10285452,0.021849923,-0.012790199
1688388204.6835983,,,,,,,1.051054597,0.153228909,9.272743225,-0.10285452,0.021849923,-0.012790199
1688388204.6835983,,,,,,,1.048660398,0.155623108,9.282320023,-0.103120975,0.021849923,-0.012523737
1688388204.6835983,,,,,,,1.046266198,0.153228909,9.279925346,-0.103120975,0.022116385,-0.012790199
1688388204.8425074,0.344765037,-0.08379706,10.71644688,0.105519146,0.012257273,-0.016520673,,,,,,
1688388204.8425074,0.344765037,-0.086191259,10.71644688,0.105519146,0.012257273,-0.016520673,,,,,,
1688388204.8425074,0.342370838,-0.086191259,10.70687008,0.105519146,0.011990812,-0.016520673,,,,,,
1688388204.8425074,0.339976639,-0.08379706,10.7044754,0.105519146,0.011990812,-0.016520673,,,,,,
1688388204.8425074,0.339976639,-0.086191259,10.7044754,0.105519146,0.011990812,-0.016520673,,,,,,
1688388204.8425074,0.339976639,-0.086191259,10.699687,0.105519146,0.012257273,-0.016520673,,,,,,
1688388204.8425074,0.342370838,-0.086191259,10.69729328,0.105519146,0.012257273,-0.016520673,,,,,,
1688388204.8425074,0.342370838,-0.08379706,10.69729328,0.105519146,0.012257273,-0.016520673,,,,,,
1688388204.8425074,0.339976639,-0.08379706,10.69011021,0.105519146,0.012257273,-0.016254211,,,,,,
1688388204.8425074,0.342370838,-0.08379706,10.68771648,0.105519146,0.011990812,-0.016254211,,,,,,
1688388204.8425074,0.342370838,-0.08379706,10.68532181,0.105785601,0.012257273,-0.016254211,,,,,,
1688388204.8425074,0.342370838,-0.081402861,10.69011021,0.105785601,0.012257273,-0.016254211,,,,,,
1688388204.8425074,0.344765037,-0.079008654,10.69011021,0.105785601,0.012257273,-0.015987748,,,,,,
1688388204.8425074,0.344765037,-0.079008654,10.69011021,0.105519146,0.011990812,-0.015987748,,,,,,
1688388204.8425074,0.344765037,-0.079008654,10.69011021,0.105519146,0.011990812,-0.015987748,,,,,,
1688388204.8425074,,,,,,,1.051054597,0.143652096,9.289502144,-0.103120975,0.02158346,-0.012790199
1688388204.8425074,,,,,,,1.051054597,0.143652096,9.289502144,-0.103120975,0.02158346,-0.012790199
1688388204.8425074,,,,,,,1.051054597,0.143652096,9.287108421,-0.103387438,0.02158346,-0.012790199
1688388204.8425074,,,,,,,1.051054597,0.143652096,9.284713745,-0.103387438,0.02158346,-0.012790199
1688388204.8425074,,,,,,,1.051054597,0.143652096,9.279925346,-0.103653908,0.02158346,-0.013056661
1688388204.8425074,,,,,,,1.053448796,0.143652096,9.279925346,-0.103653908,0.02158346,-0.013056661
1688388204.8425074,,,,,,,1.053448796,0.146046311,9.277531624,-0.103387438,0.02158346,-0.012790199
1688388204.8425074,,,,,,,1.053448796,0.14844051,9.275136948,-0.103653908,0.02158346,-0.012790199
1688388204.8425074,,,,,,,1.051054597,0.146046311,9.275136948,-0.103653908,0.021849923,-0.012523737
1688388204.8425074,,,,,,,1.051054597,0.146046311,9.279925346,-0.103653908,0.02158346,-0.012523737
1688388204.8425074,,,,,,,1.051054597,0.14844051,9.277531624,-0.103387438,0.02158346,-0.012790199
1688388204.8425074,,,,,,,1.051054597,0.146046311,9.26556015,-0.103387438,0.02158346,-0.012790199
1688388204.8425074,,,,,,,1.051054597,0.143652096,9.267954826,-0.103387438,0.022116385,-0.012790199
1688388204.8425074,,,,,,,1.048660398,0.143652096,9.275136948,-0.103387438,0.022116385,-0.012790199
1688388204.8425074,,,,,,,1.046266198,0.146046311,9.279925346,-0.103387438,0.02158346,-0.012790199
1688388205.0184088,0.339976639,-0.081402861,10.67574501,0.104453288,0.011191424,-0.015987748,,,,,,
1688388205.0184088,0.339976639,-0.081402861,10.67574501,0.104186833,0.010924961,-0.016254211,,,,,,
1688388205.0184088,0.339976639,-0.081402861,10.67813969,0.104186833,0.011191424,-0.016254211,,,,,,
1688388205.0184088,0.337582439,-0.08379706,10.67574501,0.104186833,0.011191424,-0.016254211,,,,,,
1688388205.0184088,0.33518824,-0.081402861,10.67335129,0.103920363,0.011191424,-0.016254211,,,,,,
1688388205.0184088,0.337582439,-0.079008654,10.67335129,0.104186833,0.011191424,-0.016520673,,,,,,
1688388205.0184088,0.33518824,-0.076614454,10.67574501,0.104186833,0.011191424,-0.016254211,,,,,,
1688388205.0184088,0.337582439,-0.076614454,10.67813969,0.104186833,0.011191424,-0.016520673,,,,,,
1688388205.0184088,0.33518824,-0.076614454,10.68053341,0.104186833,0.010924961,-0.016520673,,,,,,
1688388205.0184088,0.33518824,-0.076614454,10.67813969,0.103920363,0.011191424,-0.016520673,,,,,,
1688388205.0184088,0.33518824,-0.076614454,10.68053341,0.103920363,0.011191424,-0.016520673,,,,,,
1688388205.0184088,0.33279404,-0.076614454,10.68053341,0.103920363,0.011191424,-0.016520673,,,,,,
1688388205.0184088,0.330399841,-0.076614454,10.68053341,0.103920363,0.010924961,-0.016520673,,,,,,
1688388205.0184088,0.330399841,-0.079008654,10.68053341,0.104186833,0.011191424,-0.016520673,,,,,,
1688388205.0184088,0.330399841,-0.081402861,10.67813969,0.104186833,0.011191424,-0.016520673,,,,,,
1688388205.0184088,,,,,,,1.04147768,0.143652096,9.289502144,-0.10285452,0.022382848,-0.012790199
1688388205.0184088,,,,,,,1.043871999,0.143652096,9.282320023,-0.10285452,0.022382848,-0.013056661
1688388205.0184088,,,,,,,1.043871999,0.141257897,9.294290543,-0.10285452,0.022649311,-0.012790199
1688388205.0184088,,,,,,,1.04147768,0.141257897,9.30386734,-0.10285452,0.022382848,-0.012790199
1688388205.0184088,,,,,,,1.043871999,0.141257897,9.296685219,-0.10285452,0.022116385,-0.013056661
1688388205.0184088,,,,,,,1.046266198,0.141257897,9.284713745,-0.10285452,0.022382848,-0.013056661
1688388205.0184088,,,,,,,1.048660398,0.141257897,9.287108421,-0.103120975,0.022649311,-0.013056661
1688388205.0184088,,,,,,,1.046266198,0.141257897,9.29189682,-0.103120975,0.022382848,-0.012790199
1688388205.0184088,,,,,,,1.043871999,0.141257897,9.294290543,-0.10285452,0.022116385,-0.013056661
1688388205.0184088,,,,,,,1.043871999,0.143652096,9.294290543,-0.10285452,0.022116385,-0.013056661
1688388205.0184088,,,,,,,1.04147768,0.143652096,9.299078941,-0.10285452,0.022116385,-0.013056661
1688388205.0184088,,,,,,,1.046266198,0.143652096,9.29189682,-0.10285452,0.022382848,-0.013056661
1688388205.0184088,,,,,,,1.046266198,0.143652096,9.282320023,-0.10285452,0.022382848,-0.013056661
1688388205.0184088,,,,,,,1.046266198,0.143652096,9.26556015,-0.10285452,0.022915773,-0.013323124
1688388205.0184088,,,,,,,1.04147768,0.143652096,9.279925346,-0.10285452,0.022915773,-0.013323124
1688388205.1833117,0.330399841,-0.081402861,10.69729328,0.104186833,0.010658499,-0.016254211,,,,,,
1688388205.1833117,0.33518824,-0.08379706,10.68771648,0.104186833,0.010392036,-0.016254211,,,,,,
1688388205.1833117,0.33279404,-0.08379706,10.68771648,0.104186833,0.010658499,-0.016254211,,,,,,
1688388205.1833117,0.33279404,-0.08379706,10.68532181,0.104186833,0.010392036,-0.016254211,,,,,,
1688388205.1833117,0.33279404,-0.081402861,10.68292809,0.104453288,0.010392036,-0.016254211,,,,,,
1688388205.1833117,0.33279404,-0.081402861,10.68292809,0.104186833,0.010392036,-0.016254211,,,,,,
1688388205.1833117,0.33518824,-0.081402861,10.68292809,0.104186833,0.010392036,-0.016254211,,,,,,
1688388205.1833117,0.33518824,-0.08379706,10.67813969,0.104186833,0.010392036,-0.016254211,,,,,,
1688388205.1833117,0.33518824,-0.08379706,10.67813969,0.104453288,0.010392036,-0.016254211,,,,,,
1688388205.1833117,0.33518824,-0.081402861,10.67813969,0.104453288,0.010658499,-0.016254211,,,,,,
1688388205.1833117,0.33518824,-0.081402861,10.68053341,0.104453288,0.010658499,-0.016254211,,,,,,
1688388205.1833117,0.33518824,-0.079008654,10.67813969,0.104453288,0.010658499,-0.016254211,,,,,,
1688388205.1833117,0.33279404,-0.079008654,10.67813969,0.104186833,0.010658499,-0.016254211,,,,,,
1688388205.1833117,0.33279404,-0.081402861,10.68053341,0.104453288,0.010392036,-0.016520673,,,,,,
1688388205.1833117,0.330399841,-0.079008654,10.68532181,0.104453288,0.010125575,-0.016254211,,,,,,
1688388205.1833117,,,,,,,1.039083481,0.143652096,9.284713745,-0.103387438,0.021849923,-0.012790199
1688388205.1833117,,,,,,,1.034295082,0.146046311,9.287108421,-0.103120975,0.02158346,-0.012790199
1688388205.1833117,,,,,,,1.036689281,0.146046311,9.275136948,-0.103120975,0.021316998,-0.012790199
1688388205.1833117,,,,,,,1.04147768,0.14844051,9.263166428,-0.103120975,0.02158346,-0.012523737
1688388205.1833117,,,,,,,1.04147768,0.146046311,9.26556015,-0.103120975,0.021849923,-0.012790199
1688388205.1833117,,,,,,,1.039083481,0.143652096,9.282320023,-0.103120975,0.02158346,-0.012790199
1688388205.1833117,,,,,,,1.039083481,0.143652096,9.270348549,-0.103120975,0.021316998,-0.012790199
1688388205.1833117,,,,,,,1.04147768,0.143652096,9.255983353,-0.103120975,0.021316998,-0.012790199
1688388205.1833117,,,,,,,1.04147768,0.143652096,9.258378029,-0.103120975,0.02158346,-0.012790199
1688388205.1833117,,,,,,,1.039083481,0.141257897,9.270348549,-0.103120975,0.021316998,-0.012790199
1688388205.1833117,,,,,,,1.04147768,0.141257897,9.267954826,-0.103120975,0.021050537,-0.013056661
1688388205.1833117,,,,,,,1.043871999,0.146046311,9.255983353,-0.103120975,0.021316998,-0.012790199
1688388205.1833117,,,,,,,1.046266198,0.141257897,9.263166428,-0.103120975,0.02158346,-0.013056661
1688388205.1833117,,,,,,,1.046266198,0.143652096,9.272743225,-0.103120975,0.02158346,-0.013056661
1688388205.1833117,,,,,,,1.046266198,0.143652096,9.277531624,-0.10258805,0.021316998,-0.013056661
1688388205.3352253,0.33279404,-0.093373865,10.69011021,0.103920363,0.010658499,-0.016254211,,,,,,
1688388205.3352253,0.330399841,-0.093373865,10.69250488,0.103653908,0.010658499,-0.016254211,,,,,,
1688388205.3352253,0.330399841,-0.093373865,10.69250488,0.103920363,0.010658499,-0.016254211,,,,,,
1688388205.3352253,0.330399841,-0.090979666,10.69250488,0.103920363,0.010658499,-0.016254211,,,,,,
1688388205.3352253,0.330399841,-0.086191259,10.69489861,0.103920363,0.010658499,-0.016254211,,,,,,
1688388205.3352253,0.330399841,-0.08379706,10.69489861,0.103653908,0.010658499,-0.016520673,,,,,,
1688388205.3352253,0.33279404,-0.08379706,10.69250488,0.103653908,0.010392036,-0.016520673,,,,,,
1688388205.3352253,0.33279404,-0.079008654,10.69250488,0.103653908,0.010392036,-0.016520673,,,,,,
1688388205.3352253,0.330399841,-0.076614454,10.69011021,0.103653908,0.010125575,-0.016787136,,,,,,
1688388205.3352253,0.330399841,-0.076614454,10.68292809,0.103653908,0.010125575,-0.016787136,,,,,,
1688388205.3352253,0.330399841,-0.081402861,10.68053341,0.103653908,0.010392036,-0.016787136,,,,,,
1688388205.3352253,0.325611442,-0.076614454,10.68053341,0.103653908,0.010125575,-0.016787136,,,,,,
1688388205.3352253,0.330399841,-0.076614454,10.66856289,0.103653908,0.009859112,-0.016520673,,,,,,
1688388205.3352253,0.328005642,-0.079008654,10.67095661,0.103653908,0.010125575,-0.016520673,,,,,,
1688388205.3352253,0.328005642,-0.079008654,10.68771648,0.103653908,0.010125575,-0.016254211,,,,,,
1688388205.3352253,,,,,,,1.04147768,0.14844051,9.270348549,-0.103387438,0.02158346,-0.013056661
1688388205.3352253,,,,,,,1.04147768,0.146046311,9.270348549,-0.103387438,0.021849923,-0.013056661
1688388205.3352253,,,,,,,1.04147768,0.146046311,9.279925346,-0.103387438,0.021849923,-0.013056661
1688388205.3352253,,,,,,,1.048660398,0.141257897,9.260771751,-0.103120975,0.022382848,-0.013056661
1688388205.3352253,,,,,,,1.051054597,0.143652096,9.25358963,-0.10285452,0.023182238,-0.013323124
1688388205.3352253,,,,,,,1.043871999,0.143652096,9.299078941,-0.103120975,0.023182238,-0.013323124
1688388205.3352253,,,,,,,1.04147768,0.143652096,9.320627213,-0.103120975,0.021849923,-0.013056661
1688388205.3352253,,,,,,,1.043871999,0.141257897,9.299078941,-0.103120975,0.02158346,-0.013056661
1688388205.3352253,,,,,,,1.051054597,0.146046311,9.263166428,-0.103120975,0.022649311,-0.013056661
1688388205.3352253,,,,,,,1.046266198,0.146046311,9.270348549,-0.103120975,0.023448698,-0.013056661
1688388205.3352253,,,,,,,1.031900883,0.146046311,9.320627213,-0.103387438,0.023182238,-0.013056661
1688388205.3352253,,,,,,,1.031900883,0.143652096,9.30386734,-0.10285452,0.02158346,-0.013056661
1688388205.3352253,,,,,,,1.04147768,0.146046311,9.26556015,-0.10285452,0.02158346,-0.013056661
1688388205.3352253,,,,,,,1.043871999,0.143652096,9.255983353,-0.103120975,0.022915773,-0.013056661
1688388205.3352253,,,,,,,1.036689281,0.138863698,9.294290543,-0.103120975,0.023182238,-0.013056661
1688388205.5680945,0.337582439,-0.090979666,10.67335129,0.104186833,0.010392036,-0.015987748,,,,,,
1688388205.5680945,0.337582439,-0.088585466,10.67574501,0.104186833,0.010392036,-0.015721286,,,,,,
1688388205.5680945,0.337582439,-0.088585466,10.67813969,0.104186833,0.010392036,-0.015721286,,,,,,
1688388205.5680945,0.339976639,-0.086191259,10.67574501,0.103920363,0.010392036,-0.015721286,,,,,,
1688388205.5680945,0.337582439,-0.086191259,10.67335129,0.103920363,0.010658499,-0.015721286,,,,,,
1688388205.5680945,0.339976639,-0.086191259,10.67574501,0.104186833,0.010658499,-0.015721286,,,,,,
1688388205.5680945,0.339976639,-0.088585466,10.67574501,0.103920363,0.010924961,-0.015454824,,,,,,
1688388205.5680945,0.337582439,-0.088585466,10.67574501,0.104186833,0.010924961,-0.015721286,,,,,,
1688388205.5680945,0.337582439,-0.088585466,10.67813969,0.104186833,0.010924961,-0.015721286,,,,,,
1688388205.5680945,0.337582439,-0.088585466,10.67813969,0.104186833,0.010924961,-0.015987748,,,,,,
1688388205.5680945,0.33518824,-0.086191259,10.68053341,0.104186833,0.010658499,-0.015987748,,,,,,
1688388205.5680945,0.33518824,-0.08379706,10.68532181,0.104453288,0.010658499,-0.016254211,,,,,,
1688388205.5680945,0.33279404,-0.086191259,10.68771648,0.104453288,0.010392036,-0.016254211,,,,,,
1688388205.5680945,0.330399841,-0.08379706,10.68771648,0.104453288,0.010392036,-0.016254211,,,,,,
1688388205.5680945,0.33279404,-0.086191259,10.68771648,0.104453288,0.010658499,-0.016254211,,,,,,
1688388205.5680945,,,,,,,1.043871999,0.138863698,9.277531624,-0.103387438,0.021316998,-0.012523737
1688388205.5680945,,,,,,,1.04147768,0.138863698,9.299078941,-0.103387438,0.021050537,-0.012523737
1688388205.5680945,,,,,,,1.039083481,0.141257897,9.294290543,-0.103120975,0.020784073,-0.012790199
1688388205.5680945,,,,,,,1.04147768,0.138863698,9.284713745,-0.103120975,0.020784073,-0.012790199
1688388205.5680945,,,,,,,1.048660398,0.141257897,9.270348549,-0.10285452,0.021050537,-0.012790199
1688388205.5680945,,,,,,,1.046266198,0.143652096,9.272743225,-0.103120975,0.021316998,-0.012790199
1688388205.5680945,,,,,,,1.04147768,0.141257897,9.284713745,-0.103387438,0.021316998,-0.012790199
1688388205.5680945,,,,,,,1.039083481,0.143652096,9.29189682,-0.103387438,0.020784073,-0.012790199
1688388205.5680945,,,,,,,1.04147768,0.146046311,9.289502144,-0.103120975,0.02051761,-0.012790199
1688388205.5680945,,,,,,,1.04147768,0.14844051,9.279925346,-0.103120975,0.020784073,-0.012790199
1688388205.5680945,,,,,,,1.04147768,0.146046311,9.282320023,-0.103387438,0.021316998,-0.012790199
1688388205.5680945,,,,,,,1.039083481,0.146046311,9.287108421,-0.103387438,0.021316998,-0.012790199
1688388205.5680945,,,,,,,1.039083481,0.146046311,9.287108421,-0.103120975,0.020784073,-0.012790199
1688388205.5680945,,,,,,,1.039083481,0.14844051,9.277531624,-0.103387438,0.020784073,-0.012790199
1688388205.5680945,,,,,,,1.039083481,0.153228909,9.270348549,-0.103120975,0.021050537,-0.012790199
1688388205.8269427,0.344765037,-0.081402861,10.68053341,0.103920363,0.010658499,-0.016520673,,,,,,
1688388205.8269427,0.344765037,-0.081402861,10.67574501,0.103920363,0.010125575,-0.016520673,,,,,,
1688388205.8269427,0.344765037,-0.076614454,10.67574501,0.103920363,0.010392036,-0.016520673,,,,,,
1688388205.8269427,0.339976639,-0.076614454,10.67574501,0.103920363,0.010658499,-0.016520673,,,,,,
1688388205.8269427,0.339976639,-0.076614454,10.67813969,0.103920363,0.010658499,-0.016520673,,,,,,
1688388205.8269427,0.339976639,-0.079008654,10.66856289,0.103920363,0.010392036,-0.016520673,,,,,,
1688388205.8269427,0.337582439,-0.079008654,10.67335129,0.103653908,0.010392036,-0.016787136,,,,,,
1688388205.8269427,0.339976639,-0.08379706,10.67335129,0.103653908,0.010658499,-0.016520673,,,,,,
1688388205.8269427,0.339976639,-0.08379706,10.67335129,0.103653908,0.010392036,-0.016520673,,,,,,
1688388205.8269427,0.342370838,-0.086191259,10.67335129,0.103653908,0.010392036,-0.016787136,,,,,,
1688388205.8269427,0.342370838,-0.081402861,10.67813969,0.103920363,0.010125575,-0.016787136,,,,,,
1688388205.8269427,0.344765037,-0.081402861,10.68532181,0.103653908,0.010125575,-0.016520673,,,,,,
1688388205.8269427,0.344765037,-0.079008654,10.69250488,0.103653908,0.010125575,-0.016254211,,,,,,
1688388205.8269427,0.344765037,-0.081402861,10.69250488,0.103653908,0.010125575,-0.016520673,,,,,,
1688388205.8269427,0.344765037,-0.081402861,10.68771648,0.103653908,0.010125575,-0.016254211,,,,,,
1688388205.8269427,,,,,,,1.051054597,0.136469498,9.284713745,-0.103387438,0.021050537,-0.013056661
1688388205.8269427,,,,,,,1.048660398,0.138863698,9.284713745,-0.103653908,0.021050537,-0.013056661
1688388205.8269427,,,,,,,1.046266198,0.141257897,9.282320023,-0.103387438,0.020784073,-0.012790199
1688388205.8269427,,,,,,,1.048660398,0.141257897,9.279925346,-0.103387438,0.021050537,-0.012790199
1688388205.8269427,,,,,,,1.048660398,0.141257897,9.279925346,-0.103387438,0.021050537,-0.012523737
1688388205.8269427,,,,,,,1.051054597,0.141257897,9.287108421,-0.103387438,0.021050537,-0.012790199
1688388205.8269427,,,,,,,1.053448796,0.143652096,9.287108421,-0.103387438,0.021050537,-0.012790199
1688388205.8269427,,,,,,,1.051054597,0.143652096,9.284713745,-0.103120975,0.021050537,-0.012790199
1688388205.8269427,,,,,,,1.051054597,0.146046311,9.284713745,-0.103387438,0.021050537,-0.012790199
1688388205.8269427,,,,,,,1.046266198,0.143652096,9.284713745,-0.103120975,0.021050537,-0.013056661
1688388205.8269427,,,,,,,1.046266198,0.141257897,9.284713745,-0.103387438,0.021316998,-0.013056661
1688388205.8269427,,,,,,,1.043871999,0.141257897,9.279925346,-0.103120975,0.021316998,-0.013056661
1688388205.8269427,,,,,,,1.043871999,0.141257897,9.277531624,-0.103120975,0.021316998,-0.013056661
1688388205.8269427,,,,,,,1.048660398,0.141257897,9.277531624,-0.103387438,0.02158346,-0.013056661
1688388205.8269427,,,,,,,1.046266198,0.141257897,9.279925346,-0.103387438,0.02158346,-0.013056661
1688388205.9708622,0.342370838,-0.076614454,10.68292809,0.104186833,0.010658499,-0.016254211,,,,,,
1688388205.9708622,0.344765037,-0.079008654,10.68771648,0.104453288,0.010658499,-0.016520673,,,,,,
1688388205.9708622,0.342370838,-0.081402861,10.68771648,0.104186833,0.010392036,-0.016254211,,,,,,
1688388205.9708622,0.342370838,-0.081402861,10.68771648,0.104186833,0.010658499,-0.016254211,,,,,,
1688388205.9708622,0.342370838,-0.081402861,10.68771648,0.104186833,0.010392036,-0.016254211,,,,,,
1688388205.9708622,0.344765037,-0.08379706,10.69250488,0.104186833,0.010392036,-0.016254211,,,,,,
1688388205.9708622,0.344765037,-0.08379706,10.69489861,0.104186833,0.010392036,-0.016254211,,,,,,
1688388205.9708622,0.344765037,-0.086191259,10.69250488,0.104186833,0.010125575,-0.016254211,,,,,,
1688388205.9708622,0.342370838,-0.08379706,10.69011021,0.103920363,0.010125575,-0.016254211,,,,,,
1688388205.9708622,0.342370838,-0.081402861,10.69011021,0.103920363,0.010125575,-0.016254211,,,,,,
1688388205.9708622,0.344765037,-0.081402861,10.69011021,0.103920363,0.010125575,-0.016254211,,,,,,
1688388205.9708622,0.342370838,-0.081402861,10.69250488,0.103920363,0.010125575,-0.016254211,,,,,,
1688388205.9708622,0.344765037,-0.081402861,10.69489861,0.103653908,0.010125575,-0.016254211,,,,,,
1688388205.9708622,0.339976639,-0.081402861,10.69729328,0.103920363,0.010392036,-0.016254211,,,,,,
1688388205.9708622,0.342370838,-0.081402861,10.69250488,0.104186833,0.010125575,-0.016254211,,,,,,
1688388205.9708622,,,,,,,1.048660398,0.150834709,9.284713745,-0.103387438,0.022116385,-0.012790199
1688388205.9708622,,,,,,,1.051054597,0.153228909,9.284713745,-0.103653908,0.022116385,-0.012790199
1688388205.9708622,,,,,,,1.048660398,0.150834709,9.277531624,-0.103387438,0.021849923,-0.012790199
1688388205.9708622,,,,,,,1.051054597,0.14844051,9.279925346,-0.103387438,0.021849923,-0.012790199
1688388205.9708622,,,,,,,1.051054597,0.14844051,9.279925346,-0.103653908,0.021849923,-0.012523737
1688388205.9708622,,,,,,,1.051054597,0.14844051,9.282320023,-0.103387438,0.021849923,-0.012523737
1688388205.9708622,,,,,,,1.051054597,0.14844051,9.282320023,-0.103120975,0.021849923,-0.012523737
1688388205.9708622,,,,,,,1.051054597,0.14844051,9.282320023,-0.103387438,0.021849923,-0.012790199
1688388205.9708622,,,,,,,1.053448796,0.146046311,9.279925346,-0.103387438,0.021849923,-0.012790199
1688388205.9708622,,,,,,,1.053448796,0.143652096,9.282320023,-0.103387438,0.021849923,-0.012790199
1688388205.9708622,,,,,,,1.051054597,0.146046311,9.284713745,-0.103387438,0.02158346,-0.012790199
1688388205.9708622,,,,,,,1.048660398,0.141257897,9.282320023,-0.103387438,0.021849923,-0.012790199
1688388205.9708622,,,,,,,1.048660398,0.141257897,9.282320023,-0.103387438,0.021849923,-0.013056661
1688388205.9708622,,,,,,,1.051054597,0.143652096,9.275136948,-0.103387438,0.02158346,-0.013056661
1688388205.9708622,,,,,,,1.053448796,0.141257897,9.272743225,-0.103387438,0.02158346,-0.013056661
1688388206.1407633,0.337582439,-0.093373865,10.67574501,0.104453288,0.010392036,-0.016254211,,,,,,
1688388206.1407633,0.337582439,-0.090979666,10.68053341,0.104453288,0.010392036,-0.016254211,,,,,,
1688388206.1407633,0.337582439,-0.090979666,10.68053341,0.104719758,0.010392036,-0.016254211,,,,,,
1688388206.1407633,0.337582439,-0.090979666,10.68292809,0.104453288,0.010392036,-0.016520673,,,,,,
1688388206.1407633,0.339976639,-0.088585466,10.68292809,0.104186833,0.010392036,-0.016520673,,,,,,
1688388206.1407633,0.339976639,-0.086191259,10.68532181,0.104186833,0.010392036,-0.016520673,,,,,,
1688388206.1407633,0.344765037,-0.088585466,10.68532181,0.104453288,0.010125575,-0.016520673,,,,,,
1688388206.1407633,0.347159237,-0.090979666,10.67813969,0.104453288,0.010125575,-0.016520673,,,,,,
1688388206.1407633,0.347159237,-0.088585466,10.68053341,0.104453288,0.009859112,-0.016520673,,,,,,
1688388206.1407633,0.344765037,-0.088585466,10.68292809,0.104453288,0.009859112,-0.016787136,,,,,,
1688388206.1407633,0.342370838,-0.088585466,10.67813969,0.104453288,0.010125575,-0.016520673,,,,,,
1688388206.1407633,0.33518824,-0.086191259,10.67813969,0.104186833,0.010125575,-0.016520673,,,,,,
1688388206.1407633,0.33279404,-0.086191259,10.67574501,0.104186833,0.010392036,-0.016520673,,,,,,
1688388206.1407633,0.33518824,-0.086191259,10.68053341,0.104186833,0.010392036,-0.016520673,,,,,,
1688388206.1407633,0.337582439,-0.086191259,10.67813969,0.103920363,0.010658499,-0.016520673,,,,,,
1688388206.1407633,,,,,,,1.046266198,0.141257897,9.275136948,-0.103387438,0.021050537,-0.013323124
1688388206.1407633,,,,,,,1.048660398,0.143652096,9.277531624,-0.103387438,0.021316998,-0.013323124
1688388206.1407633,,,,,,,1.051054597,0.146046311,9.279925346,-0.103387438,0.021316998,-0.013323124
1688388206.1407633,,,,,,,1.051054597,0.143652096,9.279925346,-0.103387438,0.021316998,-0.013056661
1688388206.1407633,,,,,,,1.048660398,0.146046311,9.277531624,-0.103120975,0.021316998,-0.013056661
1688388206.1407633,,,,,,,1.048660398,0.143652096,9.277531624,-0.103120975,0.021316998,-0.012790199
1688388206.1407633,,,,,,,1.048660398,0.146046311,9.279925346,-0.103387438,0.02158346,-0.012790199
1688388206.1407633,,,,,,,1.048660398,0.143652096,9.282320023,-0.103387438,0.021849923,-0.012790199
1688388206.1407633,,,,,,,1.048660398,0.143652096,9.282320023,-0.103387438,0.021849923,-0.013056661
1688388206.1407633,,,,,,,1.051054597,0.141257897,9.282320023,-0.103387438,0.021849923,-0.013056661
1688388206.1407633,,,,,,,1.053448796,0.138863698,9.279925346,-0.103653908,0.021849923,-0.012790199
1688388206.1407633,,,,,,,1.053448796,0.136469498,9.282320023,-0.103653908,0.021849923,-0.012790199
1688388206.1407633,,,,,,,1.053448796,0.141257897,9.289502144,-0.103920363,0.021849923,-0.012790199
1688388206.1407633,,,,,,,1.051054597,0.136469498,9.289502144,-0.103920363,0.021849923,-0.012790199
1688388206.1407633,,,,,,,1.053448796,0.134075299,9.287108421,-0.103653908,0.021849923,-0.012523737
1688388206.3436482,0.337582439,-0.081402861,10.69489861,0.104453288,0.010392036,-0.015987748,,,,,,
1688388206.3436482,0.337582439,-0.079008654,10.69011021,0.104453288,0.010392036,-0.015987748,,,,,,
1688388206.3436482,0.337582439,-0.081402861,10.69250488,0.104453288,0.010392036,-0.016254211,,,,,,
1688388206.3436482,0.339976639,-0.08379706,10.69011021,0.104186833,0.010392036,-0.016254211,,,,,,
1688388206.3436482,0.33518824,-0.08379706,10.69011021,0.103920363,0.010392036,-0.016254211,,,,,,
1688388206.3436482,0.33518824,-0.081402861,10.68771648,0.103920363,0.010392036,-0.016254211,,,,,,
1688388206.3436482,0.33518824,-0.081402861,10.68292809,0.104186833,0.010392036,-0.016254211,,,,,,
1688388206.3436482,0.33518824,-0.081402861,10.68053341,0.104186833,0.010392036,-0.015987748,,,,,,
1688388206.3436482,0.33518824,-0.081402861,10.67813969,0.104186833,0.010658499,-0.015987748,,,,,,
1688388206.3436482,0.33518824,-0.081402861,10.68292809,0.104186833,0.010392036,-0.015987748,,,,,,
1688388206.3436482,0.337582439,-0.079008654,10.67813969,0.104186833,0.010658499,-0.015987748,,,,,,
1688388206.3436482,0.337582439,-0.079008654,10.67813969,0.104186833,0.010658499,-0.016254211,,,,,,
1688388206.3436482,0.337582439,-0.079008654,10.67574501,0.103920363,0.010658499,-0.015987748,,,,,,
1688388206.3436482,0.33518824,-0.081402861,10.68292809,0.103920363,0.010658499,-0.015987748,,,,,,
1688388206.3436482,0.33279404,-0.08379706,10.67813969,0.103920363,0.010924961,-0.015987748,,,,,,
1688388206.3436482,,,,,,,1.036689281,0.143652096,9.272743225,-0.103120975,0.022382848,-0.012790199
1688388206.3436482,,,,,,,1.036689281,0.143652096,9.26556015,-0.10285452,0.022382848,-0.012790199
1688388206.3436482,,,,,,,1.036689281,0.143652096,9.263166428,-0.10285452,0.022382848,-0.012790199
1688388206.3436482,,,,,,,1.036689281,0.143652096,9.258378029,-0.10258805,0.022649311,-0.012790199
1688388206.3436482,,,,,,,1.034295082,0.143652096,9.260771751,-0.10285452,0.022649311,-0.012790199
1688388206.3436482,,,,,,,1.036689281,0.143652096,9.258378029,-0.10258805,0.022915773,-0.012790199
1688388206.3436482,,,,,,,1.039083481,0.143652096,9.258378029,-0.10258805,0.022649311,-0.012790199
1688388206.3436482,,,,,,,1.04147768,0.143652096,9.263166428,-0.10258805,0.022649311,-0.012790199
1688388206.3436482,,,,,,,1.04147768,0.143652096,9.267954826,-0.10258805,0.022649311,-0.012790199
1688388206.3436482,,,,,,,1.039083481,0.143652096,9.275136948,-0.10258805,0.022382848,-0.012790199
1688388206.3436482,,,,,,,1.036689281,0.141257897,9.277531624,-0.10285452,0.022382848,-0.012523737
1688388206.3436482,,,,,,,1.036689281,0.141257897,9.279925346,-0.10258805,0.022649311,-0.012790199
1688388206.3436482,,,,,,,1.036689281,0.141257897,9.284713745,-0.10285452,0.022649311,-0.012790199
1688388206.3436482,,,,,,,1.034295082,0.143652096,9.282320023,-0.10258805,0.022649311,-0.012790199
1688388206.3436482,,,,,,,1.036689281,0.143652096,9.287108421,-0.10258805,0.022915773,-0.012790199
1688388206.491562,0.337582439,-0.088585466,10.68771648,0.103920363,0.010658499,-0.016520673,,,,,,
1688388206.491562,0.337582439,-0.086191259,10.69011021,0.103920363,0.010392036,-0.016520673,,,,,,
1688388206.491562,0.33279404,-0.086191259,10.68771648,0.103920363,0.010392036,-0.016254211,,,,,,
1688388206.491562,0.33279404,-0.086191259,10.68532181,0.103920363,0.010392036,-0.016520673,,,,,,
1688388206.491562,0.33279404,-0.08379706,10.68532181,0.104186833,0.010392036,-0.016520673,,,,,,
1688388206.491562,0.33518824,-0.08379706,10.68292809,0.104453288,0.010392036,-0.016254211,,,,,,
1688388206.491562,0.337582439,-0.086191259,10.67813969,0.104186833,0.010392036,-0.016254211,,,,,,
1688388206.491562,0.33518824,-0.086191259,10.67574501,0.104186833,0.010392036,-0.016254211,,,,,,
1688388206.491562,0.337582439,-0.088585466,10.67813969,0.104186833,0.010392036,-0.016254211,,,,,,
1688388206.491562,0.337582439,-0.088585466,10.67813969,0.104186833,0.010392036,-0.015987748,,,,,,
1688388206.491562,0.337582439,-0.090979666,10.68292809,0.104453288,0.010392036,-0.015987748,,,,,,
1688388206.491562,0.339976639,-0.086191259,10.68532181,0.104186833,0.010658499,-0.015987748,,,,,,
1688388206.491562,0.339976639,-0.088585466,10.68771648,0.104186833,0.010658499,-0.015987748,,,,,,
1688388206.491562,0.339976639,-0.08379706,10.68771648,0.104186833,0.010658499,-0.015987748,,,,,,
1688388206.491562,0.339976639,-0.086191259,10.68771648,0.104186833,0.010658499,-0.016254211,,,,,,
1688388206.491562,,,,,,,1.046266198,0.143652096,9.299078941,-0.102321595,0.022382848,-0.013323124
1688388206.491562,,,,,,,1.046266198,0.141257897,9.301473618,-0.102321595,0.022649311,-0.013323124
1688388206.491562,,,,,,,1.043871999,0.143652096,9.308655739,-0.102321595,0.022649311,-0.013323124
1688388206.491562,,,,,,,1.043871999,0.143652096,9.308655739,-0.102321595,0.022382848,-0.013323124
1688388206.491562,,,,,,,1.04147768,0.143652096,9.308655739,-0.10258805,0.022649311,-0.013056661
1688388206.491562,,,,,,,1.043871999,0.143652096,9.308655739,-0.102321595,0.022649311,-0.013323124
1688388206.491562,,,,,,,1.046266198,0.146046311,9.306262016,-0.102321595,0.022649311,-0.013323124
1688388206.491562,,,,,,,1.046266198,0.143652096,9.296685219,-0.102321595,0.022649311,-0.013056661
1688388206.491562,,,,,,,1.046266198,0.143652096,9.29189682,-0.102321595,0.022649311,-0.012790199
1688388206.491562,,,,,,,1.04147768,0.141257897,9.289502144,-0.10258805,0.022649311,-0.013056661
1688388206.491562,,,,,,,1.04147768,0.146046311,9.289502144,-0.10258805,0.022649311,-0.013056661
1688388206.491562,,,,,,,1.039083481,0.143652096,9.287108421,-0.10258805,0.022649311,-0.013056661
1688388206.491562,,,,,,,1.04147768,0.143652096,9.284713745,-0.102321595,0.022382848,-0.013323124
1688388206.491562,,,,,,,1.039083481,0.146046311,9.277531624,-0.102321595,0.022382848,-0.013323124
1688388206.491562,,,,,,,1.039083481,0.146046311,9.277531624,-0.102321595,0.022382848,-0.013323124
1688388206.6584673,0.344765037,-0.079008654,10.68532181,0.104453288,0.010924961,-0.016254211,,,,,,
1688388206.6584673,0.349553436,-0.081402861,10.68292809,0.104453288,0.010924961,-0.016254211,,,,,,
1688388206.6584673,0.349553436,-0.081402861,10.68532181,0.104453288,0.010658499,-0.016520673,,,,,,
1688388206.6584673,0.347159237,-0.086191259,10.68532181,0.104186833,0.010658499,-0.016520673,,,,,,
1688388206.6584673,0.349553436,-0.08379706,10.68292809,0.104186833,0.010658499,-0.016520673,,,,,,
1688388206.6584673,0.347159237,-0.086191259,10.68771648,0.104186833,0.010658499,-0.016254211,,,,,,
1688388206.6584673,0.344765037,-0.086191259,10.69011021,0.103920363,0.010658499,-0.016254211,,,,,,
1688388206.6584673,0.344765037,-0.088585466,10.69011021,0.103920363,0.010658499,-0.016254211,,,,,,
1688388206.6584673,0.342370838,-0.086191259,10.68771648,0.103920363,0.010658499,-0.016254211,,,,,,
1688388206.6584673,0.344765037,-0.090979666,10.68771648,0.103653908,0.010658499,-0.016254211,,,,,,
1688388206.6584673,0.342370838,-0.090979666,10.68771648,0.103653908,0.010658499,-0.016254211,,,,,,
1688388206.6584673,0.342370838,-0.088585466,10.69011021,0.103920363,0.010392036,-0.016254211,,,,,,
1688388206.6584673,0.342370838,-0.090979666,10.68532181,0.104186833,0.010392036,-0.016254211,,,,,,
1688388206.6584673,0.342370838,-0.090979666,10.69011021,0.104186833,0.010658499,-0.016520673,,,,,,
1688388206.6584673,0.342370838,-0.088585466,10.69250488,0.103920363,0.010658499,-0.016520673,,,,,,
1688388206.6584673,,,,,,,1.048660398,0.150834709,9.277531624,-0.10258805,0.022382848,-0.012790199
1688388206.6584673,,,,,,,1.048660398,0.153228909,9.284713745,-0.10285452,0.022649311,-0.013056661
1688388206.6584673,,,,,,,1.053448796,0.153228909,9.287108421,-0.10285452,0.022382848,-0.012790199
1688388206.6584673,,,,,,,1.055842996,0.150834709,9.282320023,-0.103120975,0.022382848,-0.013056661
1688388206.6584673,,,,,,,1.055842996,0.150834709,9.282320023,-0.103120975,0.022649311,-0.013056661
1688388206.6584673,,,,,,,1.053448796,0.150834709,9.287108421,-0.103120975,0.022382848,-0.013056661
1688388206.6584673,,,,,,,1.053448796,0.150834709,9.287108421,-0.103120975,0.022382848,-0.013323124
1688388206.6584673,,,,,,,1.051054597,0.150834709,9.282320023,-0.103387438,0.022116385,-0.013323124
1688388206.6584673,,,,,,,1.051054597,0.150834709,9.284713745,-0.103120975,0.022116385,-0.013323124
1688388206.6584673,,,,,,,1.051054597,0.150834709,9.284713745,-0.103120975,0.022116385,-0.013323124
1688388206.6584673,,,,,,,1.046266198,0.153228909,9.282320023,-0.103120975,0.021849923,-0.013323124
1688388206.6584673,,,,,,,1.04147768,0.153228909,9.272743225,-0.103387438,0.021849923,-0.013056661
1688388206.6584673,,,,,,,1.039083481,0.153228909,9.275136948,-0.103387438,0.021849923,-0.013323124
1688388206.6584673,,,,,,,1.034295082,0.150834709,9.284713745,-0.103387438,0.021849923,-0.013323124
1688388206.6584673,,,,,,,1.034295082,0.14844051,9.277531624,-0.103387438,0.02158346,-0.013323124
1688388206.8083816,0.339976639,-0.088585466,10.67813969,0.103920363,0.010392036,-0.016520673,,,,,,
1688388206.8083816,0.337582439,-0.090979666,10.68292809,0.104186833,0.010392036,-0.016520673,,,,,,
1688388206.8083816,0.337582439,-0.093373865,10.68292809,0.104186833,0.010392036,-0.016254211,,,,,,
1688388206.8083816,0.339976639,-0.090979666,10.68053341,0.104186833,0.010392036,-0.016254211,,,,,,
1688388206.8083816,0.339976639,-0.090979666,10.67574501,0.104453288,0.010658499,-0.016254211,,,,,,
1688388206.8083816,0.339976639,-0.090979666,10.67574501,0.104186833,0.010392036,-0.016254211,,,,,,
1688388206.8083816,0.339976639,-0.090979666,10.67574501,0.104186833,0.010392036,-0.016254211,,,,,,
1688388206.8083816,0.337582439,-0.090979666,10.67813969,0.104186833,0.010125575,-0.016254211,,,,,,
1688388206.8083816,0.33518824,-0.090979666,10.67574501,0.104186833,0.010392036,-0.016254211,,,,,,
1688388206.8083816,0.337582439,-0.090979666,10.67335129,0.104186833,0.010392036,-0.016254211,,,,,,
1688388206.8083816,0.33518824,-0.090979666,10.67574501,0.104186833,0.010392036,-0.016520673,,,,,,
1688388206.8083816,0.339976639,-0.088585466,10.67335129,0.103920363,0.010392036,-0.016254211,,,,,,
1688388206.8083816,0.339976639,-0.090979666,10.67335129,0.104186833,0.010125575,-0.016254211,,,,,,
1688388206.8083816,0.339976639,-0.090979666,10.66856289,0.104186833,0.010392036,-0.016520673,,,,,,
1688388206.8083816,0.339976639,-0.093373865,10.66616821,0.104186833,0.010392036,-0.016520673,,,,,,
1688388206.8083816,,,,,,,1.043871999,0.141257897,9.289502144,-0.103653908,0.022116385,-0.013323124
1688388206.8083816,,,,,,,1.039083481,0.146046311,9.282320023,-0.103653908,0.022116385,-0.013056661
1688388206.8083816,,,,,,,1.036689281,0.14844051,9.279925346,-0.103653908,0.022116385,-0.012790199
1688388206.8083816,,,,,,,1.034295082,0.14844051,9.287108421,-0.103920363,0.022116385,-0.013056661
1688388206.8083816,,,,,,,1.031900883,0.14844051,9.287108421,-0.104186833,0.021849923,-0.012790199
1688388206.8083816,,,,,,,1.031900883,0.14844051,9.284713745,-0.104186833,0.021849923,-0.012790199
1688388206.8083816,,,,,,,1.031900883,0.150834709,9.282320023,-0.104186833,0.021849923,-0.012790199
1688388206.8083816,,,,,,,1.031900883,0.150834709,9.279925346,-0.103920363,0.021849923,-0.012790199
1688388206.8083816,,,,,,,1.031900883,0.153228909,9.282320023,-0.103920363,0.021849923,-0.012790199
1688388206.8083816,,,,,,,1.034295082,0.153228909,9.284713745,-0.103920363,0.02158346,-0.012790199
1688388206.8083816,,,,,,,1.036689281,0.153228909,9.284713745,-0.103920363,0.02158346,-0.012790199
1688388206.8083816,,,,,,,1.034295082,0.153228909,9.284713745,-0.103653908,0.02158346,-0.012523737
1688388206.8083816,,,,,,,1.034295082,0.155623108,9.284713745,-0.103653908,0.021316998,-0.012790199
1688388206.8083816,,,,,,,1.034295082,0.153228909,9.284713745,-0.103920363,0.021316998,-0.012790199
1688388206.8083816,,,,,,,1.029506683,0.155623108,9.284713745,-0.103920363,0.021316998,-0.012790199
1688388206.9912767,0.33518824,-0.090979666,10.68053341,0.103387438,0.010125575,-0.016787136,,,,,,
1688388206.9912767,0.33518824,-0.090979666,10.67095661,0.103120975,0.010125575,-0.016787136,,,,,,
1688388206.9912767,0.33518824,-0.088585466,10.66377449,0.103387438,0.010125575,-0.016787136,,,,,,
1688388206.9912767,0.33518824,-0.088585466,10.66137981,0.103387438,0.010125575,-0.016787136,,,,,,
1688388206.9912767,0.337582439,-0.088585466,10.66137981,0.103120975,0.010392036,-0.017053599,,,,,,
1688388206.9912767,0.339976639,-0.088585466,10.65659142,0.103120975,0.010125575,-0.017053599,,,,,,
1688388206.9912767,0.342370838,-0.090979666,10.65898609,0.103120975,0.010125575,-0.016787136,,,,,,
1688388206.9912767,0.344765037,-0.090979666,10.66377449,0.103120975,0.010125575,-0.016787136,,,,,,
1688388206.9912767,0.342370838,-0.088585466,10.66377449,0.103120975,0.010392036,-0.016787136,,,,,,
1688388206.9912767,0.339976639,-0.090979666,10.66856289,0.103120975,0.010392036,-0.016787136,,,,,,
1688388206.9912767,0.33518824,-0.090979666,10.67574501,0.103120975,0.010658499,-0.016787136,,,,,,
1688388206.9912767,0.337582439,-0.090979666,10.68053341,0.103387438,0.010658499,-0.016787136,,,,,,
1688388206.9912767,0.33518824,-0.090979666,10.68532181,0.103387438,0.010658499,-0.016520673,,,,,,
1688388206.9912767,0.33518824,-0.090979666,10.69250488,0.103387438,0.010392036,-0.016520673,,,,,,
1688388206.9912767,0.33518824,-0.093373865,10.69729328,0.103387438,0.010392036,-0.016520673,,,,,,
1688388206.9912767,,,,,,,1.036689281,0.146046311,9.289502144,-0.104186833,0.02158346,-0.012790199
1688388206.9912767,,,,,,,1.039083481,0.146046311,9.287108421,-0.104186833,0.02158346,-0.013056661
1688388206.9912767,,,,,,,1.039083481,0.143652096,9.289502144,-0.104186833,0.02158346,-0.012523737
1688388206.9912767,,,,,,,1.04147768,0.143652096,9.287108421,-0.104453288,0.021316998,-0.012523737
1688388206.9912767,,,,,,,1.04147768,0.146046311,9.287108421,-0.104453288,0.02158346,-0.012523737
1688388206.9912767,,,,,,,1.04147768,0.14844051,9.282320023,-0.104453288,0.021316998,-0.012523737
1688388206.9912767,,,,,,,1.04147768,0.146046311,9.282320023,-0.104453288,0.021050537,-0.012523737
1688388206.9912767,,,,,,,1.04147768,0.143652096,9.284713745,-0.104453288,0.021316998,-0.012790199
1688388206.9912767,,,,,,,1.046266198,0.146046311,9.282320023,-0.104453288,0.021050537,-0.012790199
1688388206.9912767,,,,,,,1.043871999,0.146046311,9.282320023,-0.104453288,0.021316998,-0.013056661
1688388206.9912767,,,,,,,1.043871999,0.143652096,9.279925346,-0.104453288,0.021316998,-0.012790199
1688388206.9912767,,,,,,,1.043871999,0.143652096,9.282320023,-0.104453288,0.021050537,-0.012790199
1688388206.9912767,,,,,,,1.04147768,0.141257897,9.282320023,-0.104719758,0.021050537,-0.012790199
1688388206.9912767,,,,,,,1.039083481,0.141257897,9.282320023,-0.104719758,0.020784073,-0.012790199
1688388206.9912767,,,,,,,1.039083481,0.138863698,9.282320023,-0.104453288,0.021050537,-0.012790199
1688388207.1671762,0.337582439,-0.093373865,10.68053341,0.103387438,0.010658499,-0.015987748,,,,,,
1688388207.1671762,0.33518824,-0.093373865,10.68292809,0.103387438,0.010924961,-0.015987748,,,,,,
1688388207.1671762,0.337582439,-0.090979666,10.68532181,0.103653908,0.010658499,-0.015987748,,,,,,
1688388207.1671762,0.337582439,-0.093373865,10.68532181,0.103653908,0.010658499,-0.015987748,,,,,,
1688388207.1671762,0.339976639,-0.090979666,10.68532181,0.103653908,0.010658499,-0.016254211,,,,,,
1688388207.1671762,0.339976639,-0.090979666,10.68532181,0.103920363,0.010658499,-0.016254211,,,,,,
1688388207.1671762,0.342370838,-0.090979666,10.68532181,0.103920363,0.010392036,-0.016254211,,,,,,
1688388207.1671762,0.342370838,-0.088585466,10.68532181,0.103920363,0.010392036,-0.016254211,,,,,,
1688388207.1671762,0.344765037,-0.088585466,10.68053341,0.103920363,0.010392036,-0.016254211,,,,,,
1688388207.1671762,0.347159237,-0.08379706,10.68053341,0.103920363,0.010392036,-0.016254211,,,,,,
1688388207.1671762,0.347159237,-0.08379706,10.67813969,0.103920363,0.010392036,-0.015987748,,,,,,
1688388207.1671762,0.349553436,-0.08379706,10.68053341,0.103920363,0.010392036,-0.015987748,,,,,,
1688388207.1671762,0.347159237,-0.08379706,10.68053341,0.103920363,0.010392036,-0.015987748,,,,,,
1688388207.1671762,0.347159237,-0.081402861,10.68292809,0.103653908,0.010392036,-0.015721286,,,,,,
1688388207.1671762,0.347159237,-0.081402861,10.68053341,0.103387438,0.010658499,-0.015987748,,,,,,
1688388207.1671762,,,,,,,1.048660398,0.143652096,9.282320023,-0.104186833,0.021316998,-0.012790199
1688388207.1671762,,,,,,,1.051054597,0.143652096,9.279925346,-0.104453288,0.021316998,-0.012790199
1688388207.1671762,,,,,,,1.048660398,0.143652096,9.279925346,-0.104453288,0.021316998,-0.012523737
1688388207.1671762,,,,,,,1.048660398,0.141257897,9.279925346,-0.104719758,0.021316998,-0.012523737
1688388207.1671762,,,,,,,1.046266198,0.141257897,9.282320023,-0.104453288,0.021316998,-0.012523737
1688388207.1671762,,,,,,,1.046266198,0.138863698,9.279925346,-0.104453288,0.021050537,-0.012257273
1688388207.1671762,,,,,,,1.048660398,0.138863698,9.277531624,-0.104186833,0.021316998,-0.012257273
1688388207.1671762,,,,,,,1.048660398,0.138863698,9.277531624,-0.104186833,0.021316998,-0.012523737
1688388207.1671762,,,,,,,1.043871999,0.138863698,9.275136948,-0.104186833,0.021316998,-0.012523737
1688388207.1671762,,,,,,,1.046266198,0.138863698,9.279925346,-0.104453288,0.02158346,-0.012790199
1688388207.1671762,,,,,,,1.043871999,0.141257897,9.275136948,-0.104453288,0.02158346,-0.012790199
1688388207.1671762,,,,,,,1.04147768,0.141257897,9.272743225,-0.104453288,0.02158346,-0.012523737
1688388207.1671762,,,,,,,1.04147768,0.141257897,9.270348549,-0.104453288,0.02158346,-0.012790199
1688388207.1671762,,,,,,,1.04147768,0.141257897,9.272743225,-0.104453288,0.02158346,-0.012523737
1688388207.1671762,,,,,,,1.04147768,0.138863698,9.272743225,-0.104186833,0.02158346,-0.012523737
1688388207.3910491,0.344765037,-0.086191259,10.67813969,0.103653908,0.011191424,-0.016254211,,,,,,
1688388207.3910491,0.347159237,-0.08379706,10.67813969,0.103653908,0.010924961,-0.016254211,,,,,,
1688388207.3910491,0.347159237,-0.08379706,10.67574501,0.103653908,0.010924961,-0.016254211,,,,,,
1688388207.3910491,0.349553436,-0.08379706,10.67574501,0.103653908,0.011191424,-0.015987748,,,,,,
1688388207.3910491,0.351947635,-0.086191259,10.67335129,0.103653908,0.011191424,-0.015987748,,,,,,
1688388207.3910491,0.349553436,-0.086191259,10.67335129,0.103920363,0.011191424,-0.015987748,,,,,,
1688388207.3910491,0.351947635,-0.088585466,10.67574501,0.103920363,0.011457887,-0.015987748,,,,,,
1688388207.3910491,0.351947635,-0.086191259,10.67095661,0.103920363,0.011457887,-0.015987748,,,,,,
1688388207.3910491,0.351947635,-0.086191259,10.67335129,0.103920363,0.011457887,-0.015987748,,,,,,
1688388207.3910491,0.349553436,-0.086191259,10.67574501,0.104186833,0.011457887,-0.015987748,,,,,,
1688388207.3910491,0.347159237,-0.08379706,10.67813969,0.104186833,0.011457887,-0.015987748,,,,,,
1688388207.3910491,0.347159237,-0.081402861,10.67813969,0.104186833,0.011457887,-0.015987748,,,,,,
1688388207.3910491,0.347159237,-0.086191259,10.67813969,0.103920363,0.011191424,-0.015987748,,,,,,
1688388207.3910491,0.344765037,-0.088585466,10.67335129,0.103920363,0.011457887,-0.016254211,,,,,,
1688388207.3910491,0.347159237,-0.088585466,10.67335129,0.103920363,0.011191424,-0.016254211,,,,,,
1688388207.3910491,,,,,,,1.04147768,0.138863698,9.282320023,-0.103120975,0.02158346,-0.013056661
1688388207.3910491,,,,,,,1.043871999,0.141257897,9.282320023,-0.103120975,0.02158346,-0.013056661
1688388207.3910491,,,,,,,1.043871999,0.138863698,9.279925346,-0.103387438,0.02158346,-0.013056661
1688388207.3910491,,,,,,,1.04147768,0.138863698,9.287108421,-0.103653908,0.021316998,-0.013056661
1688388207.3910491,,,,,,,1.04147768,0.136469498,9.294290543,-0.103653908,0.021316998,-0.012790199
1688388207.3910491,,,,,,,1.039083481,0.134075299,9.29189682,-0.103387438,0.021316998,-0.013056661
1688388207.3910491,,,,,,,1.04147768,0.138863698,9.289502144,-0.103387438,0.021316998,-0.013056661
1688388207.3910491,,,,,,,1.04147768,0.138863698,9.287108421,-0.103653908,0.021316998,-0.013056661
1688388207.3910491,,,,,,,1.04147768,0.138863698,9.284713745,-0.103653908,0.02158346,-0.013056661
1688388207.3910491,,,,,,,1.043871999,0.136469498,9.284713745,-0.103920363,0.02158346,-0.013323124
1688388207.3910491,,,,,,,1.043871999,0.138863698,9.284713745,-0.103920363,0.02158346,-0.013323124
1688388207.3910491,,,,,,,1.046266198,0.138863698,9.282320023,-0.103920363,0.02158346,-0.013589587
1688388207.3910491,,,,,,,1.046266198,0.143652096,9.282320023,-0.103920363,0.021316998,-0.013589587
1688388207.3910491,,,,,,,1.046266198,0.141257897,9.279925346,-0.103920363,0.02158346,-0.013589587
1688388207.3910491,,,,,,,1.048660398,0.138863698,9.279925346,-0.103653908,0.021316998,-0.013056661
1688388207.538965,0.337582439,-0.076614454,10.68532181,0.103653908,0.009859112,-0.015987748,,,,,,
1688388207.538965,0.33518824,-0.074220255,10.68292809,0.103653908,0.010125575,-0.015987748,,,,,,
1688388207.538965,0.33518824,-0.076614454,10.68292809,0.103653908,0.009859112,-0.015987748,,,,,,
1688388207.538965,0.337582439,-0.076614454,10.67813969,0.103920363,0.009859112,-0.015987748,,,,,,
1688388207.538965,0.339976639,-0.074220255,10.67813969,0.103653908,0.009859112,-0.015987748,,,,,,
1688388207.538965,0.342370838,-0.076614454,10.67813969,0.103653908,0.009859112,-0.015987748,,,,,,
1688388207.538965,0.344765037,-0.079008654,10.67813969,0.103920363,0.010125575,-0.015987748,,,,,,
1688388207.538965,0.342370838,-0.079008654,10.67574501,0.103920363,0.010125575,-0.015987748,,,,,,
1688388207.538965,0.342370838,-0.076614454,10.68292809,0.103920363,0.010125575,-0.015987748,,,,,,
1688388207.538965,0.339976639,-0.074220255,10.68292809,0.103920363,0.010392036,-0.015721286,,,,,,
1688388207.538965,0.339976639,-0.076614454,10.68532181,0.103920363,0.010392036,-0.015987748,,,,,,
1688388207.538965,0.339976639,-0.074220255,10.68292809,0.103920363,0.010392036,-0.015987748,,,,,,
1688388207.538965,0.339976639,-0.074220255,10.68053341,0.103653908,0.010392036,-0.015987748,,,,,,
1688388207.538965,0.339976639,-0.074220255,10.68053341,0.103653908,0.010392036,-0.015987748,,,,,,
1688388207.538965,0.337582439,-0.076614454,10.68532181,0.103653908,0.010392036,-0.016254211,,,,,,
1688388207.538965,,,,,,,1.055842996,0.141257897,9.289502144,-0.103387438,0.021316998,-0.013056661
1688388207.538965,,,,,,,1.055842996,0.141257897,9.289502144,-0.103387438,0.021316998,-0.012790199
1688388207.538965,,,,,,,1.055842996,0.141257897,9.289502144,-0.103387438,0.02158346,-0.013056661
1688388207.538965,,,,,,,1.055842996,0.143652096,9.29189682,-0.103387438,0.02158346,-0.013056661
1688388207.538965,,,,,,,1.055842996,0.143652096,9.287108421,-0.103387438,0.021316998,-0.013056661
1688388207.538965,,,,,,,1.055842996,0.143652096,9.287108421,-0.103387438,0.021316998,-0.012790199
1688388207.538965,,,,,,,1.058237195,0.141257897,9.289502144,-0.103653908,0.02158346,-0.012790199
1688388207.538965,,,,,,,1.060631394,0.138863698,9.289502144,-0.103387438,0.021849923,-0.012790199
1688388207.538965,,,,,,,1.058237195,0.141257897,9.287108421,-0.103387438,0.021849923,-0.012523737
1688388207.538965,,,,,,,1.055842996,0.143652096,9.287108421,-0.103120975,0.021849923,-0.012790199
1688388207.538965,,,,,,,1.053448796,0.141257897,9.287108421,-0.103387438,0.021849923,-0.012790199
1688388207.538965,,,,,,,1.053448796,0.146046311,9.29189682,-0.103387438,0.021849923,-0.012523737
1688388207.538965,,,,,,,1.048660398,0.14844051,9.29189682,-0.103387438,0.021849923,-0.012523737
1688388207.538965,,,,,,,1.046266198,0.143652096,9.289502144,-0.103387438,0.021849923,-0.012523737
1688388207.538965,,,,,,,1.046266198,0.143652096,9.29189682,-0.103387438,0.021849923,-0.012523737
1688388207.7088664,0.354341865,-0.08379706,10.68292809,0.103653908,0.010392036,-0.015987748,,,,,,
1688388207.7088664,0.354341865,-0.08379706,10.68771648,0.103653908,0.010392036,-0.015987748,,,,,,
1688388207.7088664,0.354341865,-0.08379706,10.69011021,0.103387438,0.010392036,-0.015987748,,,,,,
1688388207.7088664,0.356736064,-0.081402861,10.69250488,0.103387438,0.010924961,-0.015987748,,,,,,
1688388207.7088664,0.356736064,-0.08379706,10.699687,0.103653908,0.011191424,-0.015987748,,,,,,
1688388207.7088664,0.359130263,-0.08379706,10.70208168,0.103387438,0.011191424,-0.016254211,,,,,,
1688388207.7088664,0.356736064,-0.086191259,10.69250488,0.103387438,0.011191424,-0.015987748,,,,,,
1688388207.7088664,0.354341865,-0.086191259,10.69489861,0.103387438,0.011191424,-0.016254211,,,,,,
1688388207.7088664,0.354341865,-0.086191259,10.699687,0.103387438,0.011191424,-0.015987748,,,,,,
1688388207.7088664,0.354341865,-0.088585466,10.69729328,0.103653908,0.010658499,-0.015987748,,,,,,
1688388207.7088664,0.354341865,-0.093373865,10.69250488,0.103653908,0.010658499,-0.016254211,,,,,,
1688388207.7088664,0.354341865,-0.090979666,10.69729328,0.103653908,0.010658499,-0.015987748,,,,,,
1688388207.7088664,0.354341865,-0.090979666,10.69729328,0.103653908,0.010658499,-0.015987748,,,,,,
1688388207.7088664,0.354341865,-0.088585466,10.68771648,0.103653908,0.010658499,-0.015987748,,,,,,
1688388207.7088664,0.351947635,-0.086191259,10.68532181,0.103920363,0.011191424,-0.015987748,,,,,,
1688388207.7088664,,,,,,,1.015141487,0.14844051,9.267954826,-0.103920363,0.02158346,-0.013056661
1688388207.7088664,,,,,,,1.015141487,0.14844051,9.270348549,-0.103920363,0.02158346,-0.013056661
1688388207.7088664,,,,,,,1.015141487,0.14844051,9.270348549,-0.103920363,0.02158346,-0.012790199
1688388207.7088664,,,,,,,1.015141487,0.14844051,9.270348549,-0.103920363,0.02158346,-0.012790199
1688388207.7088664,,,,,,,1.019929886,0.14844051,9.275136948,-0.103920363,0.021849923,-0.012790199
1688388207.7088664,,,,,,,1.019929886,0.14844051,9.279925346,-0.103920363,0.021849923,-0.013056661
1688388207.7088664,,,,,,,1.019929886,0.14844051,9.277531624,-0.103920363,0.021849923,-0.012790199
1688388207.7088664,,,,,,,1.019929886,0.150834709,9.279925346,-0.103653908,0.02158346,-0.013056661
1688388207.7088664,,,,,,,1.022324085,0.14844051,9.275136948,-0.103653908,0.021849923,-0.012790199
1688388207.7088664,,,,,,,1.022324085,0.146046311,9.277531624,-0.103653908,0.021849923,-0.012790199
1688388207.7088664,,,,,,,1.022324085,0.143652096,9.275136948,-0.103920363,0.021849923,-0.012790199
1688388207.7088664,,,,,,,1.022324085,0.14844051,9.275136948,-0.103920363,0.02158346,-0.012790199
1688388207.7088664,,,,,,,1.022324085,0.14844051,9.270348549,-0.104186833,0.02158346,-0.012523737
1688388207.7088664,,,,,,,1.017535686,0.150834709,9.26556015,-0.104186833,0.02158346,-0.012790199
1688388207.7088664,,,,,,,1.015141487,0.150834709,9.26556015,-0.104186833,0.02158346,-0.012790199
1688388207.8617792,0.363918662,-0.08379706,10.67335129,0.104186833,0.010924961,-0.016254211,,,,,,
1688388207.8617792,0.363918662,-0.081402861,10.67335129,0.104186833,0.011191424,-0.016254211,,,,,,
1688388207.8617792,0.359130263,-0.079008654,10.67095661,0.104453288,0.010924961,-0.016254211,,,,,,
1688388207.8617792,0.356736064,-0.079008654,10.67335129,0.104453288,0.010924961,-0.016254211,,,,,,
1688388207.8617792,0.356736064,-0.081402861,10.67335129,0.104186833,0.010924961,-0.016520673,,,,,,
1688388207.8617792,0.354341865,-0.08379706,10.67095661,0.104186833,0.010658499,-0.016520673,,,,,,
1688388207.8617792,0.351947635,-0.081402861,10.67095661,0.103920363,0.010658499,-0.016254211,,,,,,
1688388207.8617792,0.349553436,-0.08379706,10.67095661,0.103920363,0.010924961,-0.016520673,,,,,,
1688388207.8617792,0.347159237,-0.081402861,10.65898609,0.103920363,0.010658499,-0.016254211,,,,,,
1688388207.8617792,0.344765037,-0.081402861,10.66377449,0.103920363,0.010658499,-0.016520673,,,,,,
1688388207.8617792,0.342370838,-0.08379706,10.66137981,0.103653908,0.010125575,-0.016520673,,,,,,
1688388207.8617792,0.347159237,-0.079008654,10.6350441,0.103653908,0.010125575,-0.016520673,,,,,,
1688388207.8617792,0.344765037,-0.076614454,10.66377449,0.103653908,0.010125575,-0.016520673,,,,,,
1688388207.8617792,0.347159237,-0.079008654,10.66377449,0.103387438,0.009059724,-0.016520673,,,,,,
1688388207.8617792,0.356736064,-0.08379706,10.65659142,0.103387438,0.009326187,-0.016520673,,,,,,
1688388207.8617792,,,,,,,1.022324085,0.143652096,9.279925346,-0.103120975,0.02158346,-0.013056661
1688388207.8617792,,,,,,,1.022324085,0.141257897,9.282320023,-0.103120975,0.02158346,-0.012790199
1688388207.8617792,,,,,,,1.022324085,0.138863698,9.287108421,-0.103387438,0.02158346,-0.012790199
1688388207.8617792,,,,,,,1.022324085,0.136469498,9.289502144,-0.103653908,0.02158346,-0.012790199
1688388207.8617792,,,,,,,1.024718285,0.136469498,9.29189682,-0.103653908,0.02158346,-0.012790199
1688388207.8617792,,,,,,,1.027112484,0.141257897,9.299078941,-0.103387438,0.021316998,-0.012790199
1688388207.8617792,,,,,,,1.027112484,0.143652096,9.299078941,-0.103387438,0.021316998,-0.012790199
1688388207.8617792,,,,,,,1.029506683,0.143652096,9.296685219,-0.103653908,0.021316998,-0.012790199
1688388207.8617792,,,,,,,1.029506683,0.143652096,9.294290543,-0.103653908,0.021316998,-0.013056661
1688388207.8617792,,,,,,,1.027112484,0.143652096,9.287108421,-0.103653908,0.02158346,-0.012790199
1688388207.8617792,,,,,,,1.024718285,0.146046311,9.284713745,-0.103920363,0.021316998,-0.013056661
1688388207.8617792,,,,,,,1.022324085,0.141257897,9.284713745,-0.103920363,0.021316998,-0.013056661
1688388207.8617792,,,,,,,1.019929886,0.143652096,9.282320023,-0.103653908,0.021050537,-0.013056661
1688388207.8617792,,,,,,,1.019929886,0.143652096,9.282320023,-0.103920363,0.021316998,-0.012790199
1688388207.8617792,,,,,,,1.017535686,0.14844051,9.287108421,-0.103653908,0.021050537,-0.012790199
1688388208.006698,0.363918662,-0.086191259,10.69729328,0.103920363,0.010924961,-0.016254211,,,,,,
1688388208.006698,0.363918662,-0.08379706,10.699687,0.103920363,0.010658499,-0.016254211,,,,,,
1688388208.006698,0.361524463,-0.08379706,10.699687,0.103920363,0.010658499,-0.016254211,,,,,,
1688388208.006698,0.363918662,-0.086191259,10.69489861,0.103920363,0.010924961,-0.015987748,,,,,,
1688388208.006698,0.363918662,-0.086191259,10.69729328,0.103920363,0.010658499,-0.015987748,,,,,,
1688388208.006698,0.363918662,-0.086191259,10.69489861,0.103920363,0.010658499,-0.016254211,,,,,,
1688388208.006698,0.361524463,-0.088585466,10.69489861,0.103920363,0.010658499,-0.016254211,,,,,,
1688388208.006698,0.359130263,-0.088585466,10.699687,0.103920363,0.010392036,-0.016254211,,,,,,
1688388208.006698,0.359130263,-0.090979666,10.69729328,0.104186833,0.010658499,-0.016254211,,,,,,
1688388208.006698,0.359130263,-0.090979666,10.699687,0.104186833,0.010392036,-0.016254211,,,,,,
1688388208.006698,0.361524463,-0.093373865,10.69250488,0.104186833,0.010125575,-0.016254211,,,,,,
1688388208.006698,0.363918662,-0.093373865,10.68532181,0.104186833,0.010125575,-0.015987748,,,,,,
1688388208.006698,0.363918662,-0.093373865,10.68292809,0.104186833,0.010125575,-0.015987748,,,,,,
1688388208.006698,0.361524463,-0.088585466,10.68292809,0.104186833,0.010125575,-0.015987748,,,,,,
1688388208.006698,0.363918662,-0.086191259,10.68053341,0.104186833,0.010392036,-0.015987748,,,,,,
1688388208.006698,,,,,,,1.015141487,0.146046311,9.275136948,-0.103120975,0.02158346,-0.013056661
1688388208.006698,,,,,,,1.015141487,0.14844051,9.275136948,-0.103120975,0.021849923,-0.013323124
1688388208.006698,,,,,,,1.012747288,0.14844051,9.267954826,-0.103120975,0.021849923,-0.013056661
1688388208.006698,,,,,,,1.010353088,0.150834709,9.26556015,-0.103120975,0.021849923,-0.013056661
1688388208.006698,,,,,,,1.012747288,0.150834709,9.270348549,-0.103120975,0.02158346,-0.013323124
1688388208.006698,,,,,,,1.015141487,0.14844051,9.272743225,-0.103120975,0.02158346,-0.013323124
1688388208.006698,,,,,,,1.017535686,0.150834709,9.272743225,-0.103387438,0.021316998,-0.013323124
1688388208.006698,,,,,,,1.015141487,0.14844051,9.272743225,-0.103387438,0.021316998,-0.013589587
1688388208.006698,,,,,,,1.015141487,0.14844051,9.267954826,-0.103387438,0.02158346,-0.013323124
1688388208.006698,,,,,,,1.017535686,0.153228909,9.263166428,-0.103387438,0.02158346,-0.013323124
1688388208.006698,,,,,,,1.017535686,0.150834709,9.263166428,-0.103387438,0.021849923,-0.013323124
1688388208.006698,,,,,,,1.019929886,0.153228909,9.26556015,-0.103387438,0.022382848,-0.013056661
1688388208.006698,,,,,,,1.019929886,0.153228909,9.267954826,-0.103120975,0.022649311,-0.013056661
1688388208.006698,,,,,,,1.017535686,0.153228909,9.272743225,-0.103120975,0.022649311,-0.013056661
1688388208.006698,,,,,,,1.012747288,0.153228909,9.279925346,-0.103120975,0.022649311,-0.013056661
1688388208.1306257,0.351947635,-0.088585466,10.69011021,0.103920363,0.010924961,-0.016520673,,,,,,
1688388208.1306257,0.354341865,-0.086191259,10.69011021,0.103920363,0.010924961,-0.016254211,,,,,,
1688388208.1306257,0.356736064,-0.088585466,10.69250488,0.104186833,0.010924961,-0.016254211,,,,,,
1688388208.1306257,0.356736064,-0.090979666,10.69011021,0.103920363,0.010924961,-0.016254211,,,,,,
1688388208.1306257,0.356736064,-0.088585466,10.69011021,0.103920363,0.010658499,-0.016254211,,,,,,
1688388208.1306257,0.356736064,-0.086191259,10.69011021,0.104186833,0.010392036,-0.016254211,,,,,,
1688388208.1306257,0.356736064,-0.088585466,10.69011021,0.104453288,0.010392036,-0.016520673,,,,,,
1688388208.1306257,0.356736064,-0.086191259,10.69011021,0.104453288,0.010392036,-0.016520673,,,,,,
1688388208.1306257,0.356736064,-0.08379706,10.68771648,0.104453288,0.010392036,-0.016520673,,,,,,
1688388208.1306257,0.356736064,-0.081402861,10.68532181,0.104453288,0.009859112,-0.016520673,,,,,,
1688388208.1306257,0.356736064,-0.081402861,10.68053341,0.104453288,0.009859112,-0.016520673,,,,,,
1688388208.1306257,0.354341865,-0.081402861,10.68053341,0.104186833,0.010125575,-0.016520673,,,,,,
1688388208.1306257,0.359130263,-0.086191259,10.68292809,0.104453288,0.010125575,-0.016520673,,,,,,
1688388208.1306257,0.361524463,-0.086191259,10.68292809,0.104186833,0.010125575,-0.016787136,,,,,,
1688388208.1306257,0.361524463,-0.090979666,10.68532181,0.103920363,0.010392036,-0.016520673,,,,,,
1688388208.1306257,,,,,,,1.015141487,0.155623108,9.282320023,-0.103120975,0.021316998,-0.013589587
1688388208.1306257,,,,,,,1.015141487,0.155623108,9.284713745,-0.103120975,0.021316998,-0.013589587
1688388208.1306257,,,,,,,1.017535686,0.155623108,9.284713745,-0.103120975,0.021316998,-0.013323124
1688388208.1306257,,,,,,,1.012747288,0.158017308,9.287108421,-0.103387438,0.021316998,-0.013323124
1688388208.1306257,,,,,,,1.010353088,0.158017308,9.287108421,-0.103653908,0.021316998,-0.013323124
1688388208.1306257,,,,,,,1.010353088,0.158017308,9.289502144,-0.103653908,0.021316998,-0.013323124
1688388208.1306257,,,,,,,1.010353088,0.158017308,9.289502144,-0.103653908,0.021316998,-0.013323124
1688388208.1306257,,,,,,,1.007958889,0.158017308,9.29189682,-0.103653908,0.021316998,-0.013323124
1688388208.1306257,,,,,,,1.010353088,0.158017308,9.29189682,-0.103920363,0.021316998,-0.013323124
1688388208.1306257,,,,,,,1.012747288,0.158017308,9.294290543,-0.104186833,0.021316998,-0.013056661
1688388208.1306257,,,,,,,1.015141487,0.158017308,9.294290543,-0.104186833,0.021050537,-0.013056661
1688388208.1306257,,,,,,,1.015141487,0.153228909,9.294290543,-0.103920363,0.021050537,-0.013323124
1688388208.1306257,,,,,,,1.012747288,0.153228909,9.29189682,-0.104186833,0.021050537,-0.013323124
1688388208.1306257,,,,,,,1.012747288,0.153228909,9.289502144,-0.103920363,0.021050537,-0.013323124
1688388208.1306257,,,,,,,1.015141487,0.155623108,9.29189682,-0.103920363,0.021050537,-0.013323124
1688388208.2735445,0.363918662,-0.090979666,10.67574501,0.103920363,0.010392036,-0.015721286,,,,,,
1688388208.2735445,0.366312861,-0.090979666,10.67574501,0.103920363,0.010392036,-0.015721286,,,,,,
1688388208.2735445,0.366312861,-0.090979666,10.67574501,0.103920363,0.010125575,-0.015721286,,,,,,
1688388208.2735445,0.366312861,-0.090979666,10.67095661,0.103920363,0.010125575,-0.015721286,,,,,,
1688388208.2735445,0.366312861,-0.090979666,10.66616821,0.103653908,0.010125575,-0.015987748,,,,,,
1688388208.2735445,0.366312861,-0.090979666,10.66616821,0.103920363,0.010125575,-0.015721286,,,,,,
1688388208.2735445,0.363918662,-0.093373865,10.66377449,0.103920363,0.010125575,-0.015721286,,,,,,
1688388208.2735445,0.361524463,-0.090979666,10.66137981,0.103920363,0.010125575,-0.015987748,,,,,,
1688388208.2735445,0.361524463,-0.090979666,10.66616821,0.103920363,0.010125575,-0.015987748,,,,,,
1688388208.2735445,0.359130263,-0.090979666,10.66856289,0.103920363,0.010125575,-0.016254211,,,,,,
1688388208.2735445,0.359130263,-0.088585466,10.67095661,0.103920363,0.010125575,-0.015987748,,,,,,
1688388208.2735445,0.359130263,-0.086191259,10.67095661,0.103920363,0.010125575,-0.015987748,,,,,,
1688388208.2735445,0.359130263,-0.08379706,10.67095661,0.103920363,0.010125575,-0.015987748,,,,,,
1688388208.2735445,0.359130263,-0.081402861,10.67574501,0.103920363,0.010125575,-0.015987748,,,,,,
1688388208.2735445,0.359130263,-0.081402861,10.67574501,0.103920363,0.010125575,-0.015987748,,,,,,
1688388208.2735445,,,,,,,1.015141487,0.146046311,9.263166428,-0.104186833,0.020784073,-0.013056661
1688388208.2735445,,,,,,,1.015141487,0.146046311,9.26556015,-0.104186833,0.02051761,-0.013056661
1688388208.2735445,,,,,,,1.017535686,0.146046311,9.26556015,-0.104186833,0.02051761,-0.013056661
1688388208.2735445,,,,,,,1.017535686,0.143652096,9.270348549,-0.103920363,0.020784073,-0.013056661
1688388208.2735445,,,,,,,1.017535686,0.141257897,9.277531624,-0.103920363,0.020784073,-0.012790199
1688388208.2735445,,,,,,,1.019929886,0.141257897,9.279925346,-0.103653908,0.020784073,-0.013056661
1688388208.2735445,,,,,,,1.017535686,0.141257897,9.275136948,-0.103653908,0.020784073,-0.013056661
1688388208.2735445,,,,,,,1.017535686,0.141257897,9.279925346,-0.103653908,0.021050537,-0.013056661
1688388208.2735445,,,,,,,1.015141487,0.146046311,9.279925346,-0.103653908,0.021050537,-0.013056661
1688388208.2735445,,,,,,,1.017535686,0.14844051,9.277531624,-0.103653908,0.021050537,-0.013056661
1688388208.2735445,,,,,,,1.019929886,0.146046311,9.277531624,-0.103920363,0.021050537,-0.012790199
1688388208.2735445,,,,,,,1.017535686,0.146046311,9.277531624,-0.103920363,0.021050537,-0.013056661
1688388208.2735445,,,,,,,1.017535686,0.143652096,9.275136948,-0.103653908,0.021050537,-0.013056661
1688388208.2735445,,,,,,,1.017535686,0.143652096,9.272743225,-0.103653908,0.021050537,-0.013056661
1688388208.2735445,,,,,,,1.015141487,0.146046311,9.275136948,-0.103387438,0.021316998,-0.013056661
1688388208.440448,0.361524463,-0.08379706,10.68053341,0.104186833,0.010658499,-0.016254211,,,,,,
1688388208.440448,0.361524463,-0.086191259,10.68292809,0.103920363,0.010392036,-0.016254211,,,,,,
1688388208.440448,0.361524463,-0.08379706,10.67813969,0.104186833,0.010658499,-0.016254211,,,,,,
1688388208.440448,0.363918662,-0.081402861,10.67335129,0.103920363,0.010924961,-0.016254211,,,,,,
1688388208.440448,0.361524463,-0.081402861,10.67574501,0.103920363,0.010658499,-0.016254211,,,,,,
1688388208.440448,0.361524463,-0.08379706,10.67574501,0.103920363,0.010924961,-0.016254211,,,,,,
1688388208.440448,0.363918662,-0.081402861,10.67574501,0.103920363,0.010924961,-0.016254211,,,,,,
1688388208.440448,0.361524463,-0.079008654,10.67335129,0.103653908,0.010924961,-0.016254211,,,,,,
1688388208.440448,0.359130263,-0.079008654,10.67813969,0.103653908,0.011191424,-0.016254211,,,,,,
1688388208.440448,0.356736064,-0.081402861,10.68292809,0.103387438,0.011191424,-0.016254211,,,,,,
1688388208.440448,0.356736064,-0.081402861,10.68053341,0.103120975,0.011191424,-0.016254211,,,,,,
1688388208.440448,0.354341865,-0.081402861,10.68053341,0.103387438,0.011191424,-0.016254211,,,,,,
1688388208.440448,0.354341865,-0.079008654,10.68771648,0.103387438,0.010924961,-0.015987748,,,,,,
1688388208.440448,0.359130263,-0.079008654,10.69729328,0.103653908,0.010924961,-0.015987748,,,,,,
1688388208.440448,0.359130263,-0.079008654,10.699687,0.103653908,0.010924961,-0.015987748,,,,,,
1688388208.440448,,,,,,,1.019929886,0.141257897,9.277531624,-0.103387438,0.02158346,-0.012523737
1688388208.440448,,,,,,,1.019929886,0.141257897,9.279925346,-0.103387438,0.02158346,-0.012523737
1688388208.440448,,,,,,,1.019929886,0.143652096,9.284713745,-0.103387438,0.02158346,-0.012523737
1688388208.440448,,,,,,,1.017535686,0.143652096,9.289502144,-0.103653908,0.02158346,-0.012790199
1688388208.440448,,,,,,,1.019929886,0.146046311,9.294290543,-0.103653908,0.021849923,-0.013056661
1688388208.440448,,,,,,,1.019929886,0.146046311,9.299078941,-0.103653908,0.021849923,-0.013056661
1688388208.440448,,,,,,,1.022324085,0.143652096,9.296685219,-0.103653908,0.021849923,-0.013323124
1688388208.440448,,,,,,,1.022324085,0.141257897,9.299078941,-0.103653908,0.021849923,-0.013323124
1688388208.440448,,,,,,,1.017535686,0.141257897,9.299078941,-0.103653908,0.021849923,-0.013589587
1688388208.440448,,,,,,,1.017535686,0.141257897,9.296685219,-0.103653908,0.021849923,-0.013323124
1688388208.440448,,,,,,,1.017535686,0.141257897,9.294290543,-0.103653908,0.021849923,-0.013323124
1688388208.440448,,,,,,,1.022324085,0.143652096,9.284713745,-0.103387438,0.021849923,-0.013323124
1688388208.440448,,,,,,,1.019929886,0.143652096,9.284713745,-0.103387438,0.021849923,-0.013056661
1688388208.440448,,,,,,,1.022324085,0.143652096,9.277531624,-0.103387438,0.02158346,-0.013056661
1688388208.440448,,,,,,,1.022324085,0.143652096,9.272743225,-0.103387438,0.021849923,-0.013056661
1688388208.658325,0.349553436,-0.08379706,10.68771648,0.103920363,0.010658499,-0.015987748,,,,,,
1688388208.658325,0.351947635,-0.081402861,10.68532181,0.104186833,0.010658499,-0.015987748,,,,,,
1688388208.658325,0.351947635,-0.079008654,10.68532181,0.104186833,0.010658499,-0.015987748,,,,,,
1688388208.658325,0.354341865,-0.079008654,10.68771648,0.103920363,0.010658499,-0.015721286,,,,,,
1688388208.658325,0.354341865,-0.076614454,10.68053341,0.104186833,0.010392036,-0.015721286,,,,,,
1688388208.658325,0.356736064,-0.079008654,10.68053341,0.104186833,0.010392036,-0.015454824,,,,,,
1688388208.658325,0.356736064,-0.079008654,10.68053341,0.104186833,0.010658499,-0.015454824,,,,,,
1688388208.658325,0.356736064,-0.08379706,10.67813969,0.103920363,0.010658499,-0.015721286,,,,,,
1688388208.658325,0.354341865,-0.086191259,10.67813969,0.104186833,0.010924961,-0.015454824,,,,,,
1688388208.658325,0.351947635,-0.086191259,10.68053341,0.103920363,0.011191424,-0.015721286,,,,,,
1688388208.658325,0.351947635,-0.086191259,10.67574501,0.103920363,0.011191424,-0.015987748,,,,,,
1688388208.658325,0.351947635,-0.08379706,10.67574501,0.103920363,0.011191424,-0.015987748,,,,,,
1688388208.658325,0.351947635,-0.08379706,10.67574501,0.103920363,0.011191424,-0.015987748,,,,,,
1688388208.658325,0.354341865,-0.08379706,10.67335129,0.103920363,0.011191424,-0.015987748,,,,,,
1688388208.658325,0.351947635,-0.081402861,10.67335129,0.104186833,0.011191424,-0.015721286,,,,,,
1688388208.658325,,,,,,,1.022324085,0.141257897,9.26556015,-0.103120975,0.02158346,-0.012790199
1688388208.658325,,,,,,,1.019929886,0.143652096,9.270348549,-0.103120975,0.02158346,-0.012790199
1688388208.658325,,,,,,,1.019929886,0.143652096,9.270348549,-0.103120975,0.02158346,-0.013056661
1688388208.658325,,,,,,,1.022324085,0.143652096,9.267954826,-0.103387438,0.021849923,-0.012790199
1688388208.658325,,,,,,,1.022324085,0.141257897,9.267954826,-0.103387438,0.021849923,-0.012523737
1688388208.658325,,,,,,,1.024718285,0.141257897,9.270348549,-0.103120975,0.021849923,-0.012790199
1688388208.658325,,,,,,,1.024718285,0.138863698,9.270348549,-0.103120975,0.021849923,-0.012790199
1688388208.658325,,,,,,,1.022324085,0.138863698,9.270348549,-0.103120975,0.021849923,-0.013056661
1688388208.658325,,,,,,,1.022324085,0.143652096,9.272743225,-0.103120975,0.021849923,-0.013056661
1688388208.658325,,,,,,,1.022324085,0.141257897,9.277531624,-0.103120975,0.02158346,-0.013056661
1688388208.658325,,,,,,,1.022324085,0.141257897,9.277531624,-0.103120975,0.02158346,-0.013056661
1688388208.658325,,,,,,,1.022324085,0.143652096,9.275136948,-0.103120975,0.02158346,-0.013056661
1688388208.658325,,,,,,,1.019929886,0.141257897,9.270348549,-0.103653908,0.02158346,-0.013056661
1688388208.658325,,,,,,,1.019929886,0.141257897,9.270348549,-0.103653908,0.02158346,-0.013323124
1688388208.658325,,,,,,,1.019929886,0.146046311,9.272743225,-0.103653908,0.02158346,-0.013323124
1688388208.8072398,0.368707061,-0.086191259,10.68532181,0.104186833,0.010924961,-0.016254211,,,,,,
1688388208.8072398,0.366312861,-0.088585466,10.68292809,0.104186833,0.010924961,-0.016254211,,,,,,
1688388208.8072398,0.366312861,-0.088585466,10.68292809,0.104453288,0.010924961,-0.016254211,,,,,,
1688388208.8072398,0.366312861,-0.088585466,10.68292809,0.104186833,0.010658499,-0.015987748,,,,,,
1688388208.8072398,0.366312861,-0.088585466,10.68532181,0.104186833,0.010658499,-0.016254211,,,,,,
1688388208.8072398,0.366312861,-0.088585466,10.68771648,0.104186833,0.010658499,-0.015987748,,,,,,
1688388208.8072398,0.361524463,-0.088585466,10.68771648,0.104186833,0.010658499,-0.016254211,,,,,,
1688388208.8072398,0.359130263,-0.086191259,10.68532181,0.104186833,0.010658499,-0.016254211,,,,,,
1688388208.8072398,0.359130263,-0.086191259,10.68532181,0.104186833,0.010658499,-0.016254211,,,,,,
1688388208.8072398,0.356736064,-0.086191259,10.68292809,0.104453288,0.010658499,-0.016254211,,,,,,
1688388208.8072398,0.356736064,-0.086191259,10.68053341,0.104186833,0.010658499,-0.016254211,,,,,,
1688388208.8072398,0.359130263,-0.08379706,10.68053341,0.104186833,0.010658499,-0.016254211,,,,,,
1688388208.8072398,0.354341865,-0.08379706,10.67813969,0.104186833,0.010658499,-0.016254211,,,,,,
1688388208.8072398,0.354341865,-0.086191259,10.68053341,0.104186833,0.010658499,-0.016254211,,,,,,
1688388208.8072398,0.354341865,-0.086191259,10.68053341,0.104186833,0.010658499,-0.015987748,,,,,,
1688388208.8072398,,,,,,,1.019929886,0.136469498,9.284713745,-0.103653908,0.02158346,-0.012790199
1688388208.8072398,,,,,,,1.022324085,0.136469498,9.282320023,-0.103653908,0.02158346,-0.012790199
1688388208.8072398,,,,,,,1.022324085,0.138863698,9.279925346,-0.103653908,0.02158346,-0.012790199
1688388208.8072398,,,,,,,1.019929886,0.141257897,9.284713745,-0.103653908,0.021849923,-0.012790199
1688388208.8072398,,,,,,,1.017535686,0.141257897,9.284713745,-0.103653908,0.02158346,-0.012790199
1688388208.8072398,,,,,,,1.015141487,0.141257897,9.289502144,-0.103653908,0.021849923,-0.012523737
1688388208.8072398,,,,,,,1.015141487,0.143652096,9.296685219,-0.103653908,0.021849923,-0.012523737
1688388208.8072398,,,,,,,1.015141487,0.143652096,9.294290543,-0.103653908,0.021849923,-0.012523737
1688388208.8072398,,,,,,,1.012747288,0.141257897,9.29189682,-0.103387438,0.021849923,-0.012790199
1688388208.8072398,,,,,,,1.012747288,0.146046311,9.29189682,-0.103653908,0.021849923,-0.012790199
1688388208.8072398,,,,,,,1.010353088,0.146046311,9.289502144,-0.103653908,0.021849923,-0.012523737
1688388208.8072398,,,,,,,1.012747288,0.146046311,9.29189682,-0.103653908,0.021849923,-0.012523737
1688388208.8072398,,,,,,,1.015141487,0.146046311,9.294290543,-0.103653908,0.021849923,-0.012523737
1688388208.8072398,,,,,,,1.017535686,0.146046311,9.294290543,-0.103920363,0.021849923,-0.012523737
1688388208.8072398,,,,,,,1.017535686,0.146046311,9.296685219,-0.103920363,0.02158346,-0.012523737
1688388208.9511557,0.363918662,-0.08379706,10.66377449,0.103920363,0.010658499,-0.016787136,,,,,,
1688388208.9511557,0.363918662,-0.08379706,10.66377449,0.103920363,0.010658499,-0.016787136,,,,,,
1688388208.9511557,0.361524463,-0.086191259,10.66377449,0.103920363,0.010658499,-0.016787136,,,,,,
1688388208.9511557,0.361524463,-0.08379706,10.66856289,0.103920363,0.010658499,-0.016787136,,,,,,
1688388208.9511557,0.359130263,-0.08379706,10.67095661,0.103920363,0.010658499,-0.016787136,,,,,,
1688388208.9511557,0.359130263,-0.086191259,10.67095661,0.104186833,0.010658499,-0.016520673,,,,,,
1688388208.9511557,0.356736064,-0.08379706,10.67574501,0.104186833,0.010658499,-0.016520673,,,,,,
1688388208.9511557,0.356736064,-0.08379706,10.67574501,0.103920363,0.010658499,-0.016520673,,,,,,
1688388208.9511557,0.356736064,-0.081402861,10.67335129,0.104186833,0.010658499,-0.016520673,,,,,,
1688388208.9511557,0.354341865,-0.079008654,10.67813969,0.103920363,0.010392036,-0.016520673,,,,,,
1688388208.9511557,0.354341865,-0.079008654,10.67813969,0.103920363,0.010392036,-0.016520673,,,,,,
1688388208.9511557,0.356736064,-0.079008654,10.67813969,0.104186833,0.010392036,-0.016520673,,,,,,
1688388208.9511557,0.356736064,-0.076614454,10.68053341,0.104453288,0.010392036,-0.016520673,,,,,,
1688388208.9511557,0.354341865,-0.079008654,10.67813969,0.104453288,0.010392036,-0.016254211,,,,,,
1688388208.9511557,0.356736064,-0.081402861,10.67813969,0.104186833,0.010392036,-0.016520673,,,,,,
1688388208.9511557,,,,,,,1.015141487,0.143652096,9.29189682,-0.103653908,0.022116385,-0.012790199
1688388208.9511557,,,,,,,1.015141487,0.141257897,9.287108421,-0.103387438,0.021849923,-0.012790199
1688388208.9511557,,,,,,,1.015141487,0.138863698,9.289502144,-0.103387438,0.021849923,-0.013056661
1688388208.9511557,,,,,,,1.015141487,0.136469498,9.287108421,-0.103653908,0.021849923,-0.013056661
1688388208.9511557,,,,,,,1.012747288,0.138863698,9.282320023,-0.103653908,0.021849923,-0.013056661
1688388208.9511557,,,,,,,1.015141487,0.134075299,9.282320023,-0.103653908,0.02158346,-0.013056661
1688388208.9511557,,,,,,,1.012747288,0.134075299,9.282320023,-0.103653908,0.02158346,-0.013056661
1688388208.9511557,,,,,,,1.015141487,0.134075299,9.284713745,-0.103653908,0.02158346,-0.013056661
1688388208.9511557,,,,,,,1.015141487,0.134075299,9.284713745,-0.103653908,0.02158346,-0.013056661
1688388208.9511557,,,,,,,1.012747288,0.138863698,9.289502144,-0.103653908,0.021316998,-0.013056661
1688388208.9511557,,,,,,,1.015141487,0.138863698,9.289502144,-0.103920363,0.02158346,-0.013323124
1688388208.9511557,,,,,,,1.012747288,0.138863698,9.289502144,-0.103920363,0.02158346,-0.013056661
1688388208.9511557,,,,,,,1.015141487,0.141257897,9.282320023,-0.103920363,0.02158346,-0.013056661
1688388208.9511557,,,,,,,1.015141487,0.143652096,9.284713745,-0.103653908,0.02158346,-0.013056661
1688388208.9511557,,,,,,,1.017535686,0.146046311,9.284713745,-0.103920363,0.02158346,-0.013323124
1688388209.076088,0.349553436,-0.079008654,10.69729328,0.104453288,0.010924961,-0.016520673,,,,,,
1688388209.076088,0.347159237,-0.081402861,10.69729328,0.104186833,0.010658499,-0.016520673,,,,,,
1688388209.076088,0.347159237,-0.081402861,10.699687,0.104186833,0.010924961,-0.016520673,,,,,,
1688388209.076088,0.347159237,-0.081402861,10.70208168,0.104186833,0.010924961,-0.016254211,,,,,,
1688388209.076088,0.344765037,-0.081402861,10.699687,0.104453288,0.010924961,-0.016520673,,,,,,
1688388209.076088,0.347159237,-0.081402861,10.70208168,0.104453288,0.010924961,-0.016520673,,,,,,
1688388209.076088,0.347159237,-0.081402861,10.69729328,0.104453288,0.010924961,-0.016520673,,,,,,
1688388209.076088,0.349553436,-0.081402861,10.69011021,0.104453288,0.010924961,-0.016520673,,,,,,
1688388209.076088,0.354341865,-0.08379706,10.68771648,0.104719758,0.011191424,-0.016254211,,,,,,
1688388209.076088,0.354341865,-0.08379706,10.69011021,0.104719758,0.011191424,-0.016520673,,,,,,
1688388209.076088,0.359130263,-0.086191259,10.69011021,0.104186833,0.010924961,-0.016520673,,,,,,
1688388209.076088,0.361524463,-0.088585466,10.69729328,0.104186833,0.011191424,-0.016520673,,,,,,
1688388209.076088,0.361524463,-0.088585466,10.69729328,0.104186833,0.010924961,-0.016520673,,,,,,
1688388209.076088,0.361524463,-0.086191259,10.69489861,0.104186833,0.011191424,-0.016254211,,,,,,
1688388209.076088,0.361524463,-0.086191259,10.69729328,0.104186833,0.011191424,-0.016254211,,,,,,
1688388209.076088,,,,,,,1.012747288,0.155623108,9.284713745,-0.103387438,0.021849923,-0.013323124
1688388209.076088,,,,,,,1.015141487,0.158017308,9.284713745,-0.103387438,0.021849923,-0.013323124
1688388209.076088,,,,,,,1.012747288,0.155623108,9.282320023,-0.103387438,0.02158346,-0.013323124
1688388209.076088,,,,,,,1.012747288,0.155623108,9.282320023,-0.103387438,0.02158346,-0.013056661
1688388209.076088,,,,,,,1.012747288,0.153228909,9.284713745,-0.103387438,0.021849923,-0.013056661
1688388209.076088,,,,,,,1.012747288,0.158017308,9.279925346,-0.103387438,0.02158346,-0.013056661
1688388209.076088,,,,,,,1.012747288,0.158017308,9.277531624,-0.103387438,0.02158346,-0.013056661
1688388209.076088,,,,,,,1.012747288,0.155623108,9.277531624,-0.103653908,0.021849923,-0.013056661
1688388209.076088,,,,,,,1.012747288,0.155623108,9.277531624,-0.103653908,0.02158346,-0.013056661
1688388209.076088,,,,,,,1.012747288,0.153228909,9.279925346,-0.103653908,0.02158346,-0.013056661
1688388209.076088,,,,,,,1.015141487,0.150834709,9.282320023,-0.103653908,0.021849923,-0.012790199
1688388209.076088,,,,,,,1.017535686,0.150834709,9.279925346,-0.103653908,0.022116385,-0.012790199
1688388209.076088,,,,,,,1.017535686,0.153228909,9.279925346,-0.103387438,0.021849923,-0.012790199
1688388209.076088,,,,,,,1.015141487,0.153228909,9.279925346,-0.103387438,0.021849923,-0.012790199
1688388209.076088,,,,,,,1.017535686,0.153228909,9.277531624,-0.103653908,0.021849923,-0.013056661
1688388209.2269983,0.366312861,-0.088585466,10.68292809,0.104186833,0.010658499,-0.016520673,,,,,,
1688388209.2269983,0.366312861,-0.088585466,10.68053341,0.104186833,0.010924961,-0.016520673,,,,,,
1688388209.2269983,0.366312861,-0.088585466,10.68053341,0.104186833,0.011191424,-0.016520673,,,,,,
1688388209.2269983,0.368707061,-0.088585466,10.68292809,0.104186833,0.010924961,-0.016520673,,,,,,
1688388209.2269983,0.368707061,-0.086191259,10.68053341,0.104186833,0.010658499,-0.016520673,,,,,,
1688388209.2269983,0.366312861,-0.086191259,10.68292809,0.104186833,0.010658499,-0.016520673,,,,,,
1688388209.2269983,0.363918662,-0.081402861,10.68292809,0.103920363,0.010658499,-0.016787136,,,,,,
1688388209.2269983,0.363918662,-0.079008654,10.68532181,0.103920363,0.010658499,-0.016520673,,,,,,
1688388209.2269983,0.361524463,-0.079008654,10.68532181,0.103653908,0.010392036,-0.016520673,,,,,,
1688388209.2269983,0.361524463,-0.081402861,10.68292809,0.103920363,0.010392036,-0.016520673,,,,,,
1688388209.2269983,0.363918662,-0.081402861,10.69011021,0.103920363,0.010392036,-0.016520673,,,,,,
1688388209.2269983,0.361524463,-0.081402861,10.69011021,0.103920363,0.010392036,-0.016520673,,,,,,
1688388209.2269983,0.361524463,-0.081402861,10.68532181,0.103920363,0.010392036,-0.016787136,,,,,,
1688388209.2269983,0.356736064,-0.081402861,10.68532181,0.103920363,0.010392036,-0.016787136,,,,,,
1688388209.2269983,0.361524463,-0.086191259,10.68771648,0.103920363,0.010392036,-0.016787136,,,,,,
1688388209.2269983,,,,,,,1.019929886,0.155623108,9.272743225,-0.103387438,0.022116385,-0.013323124
1688388209.2269983,,,,,,,1.022324085,0.160411507,9.272743225,-0.103387438,0.021849923,-0.013056661
1688388209.2269983,,,,,,,1.024718285,0.160411507,9.277531624,-0.103387438,0.022116385,-0.013056661
1688388209.2269983,,,,,,,1.024718285,0.155623108,9.279925346,-0.103387438,0.022116385,-0.012790199
1688388209.2269983,,,,,,,1.024718285,0.14844051,9.279925346,-0.103387438,0.021849923,-0.013056661
1688388209.2269983,,,,,,,1.024718285,0.14844051,9.282320023,-0.103387438,0.021849923,-0.013056661
1688388209.2269983,,,,,,,1.022324085,0.14844051,9.289502144,-0.103387438,0.021849923,-0.012790199
1688388209.2269983,,,,,,,1.022324085,0.150834709,9.29189682,-0.103387438,0.022116385,-0.012790199
1688388209.2269983,,,,,,,1.022324085,0.153228909,9.29189682,-0.103387438,0.021849923,-0.012790199
1688388209.2269983,,,,,,,1.022324085,0.155623108,9.29189682,-0.103387438,0.021849923,-0.013056661
1688388209.2269983,,,,,,,1.022324085,0.153228909,9.289502144,-0.103653908,0.022116385,-0.013056661
1688388209.2269983,,,,,,,1.022324085,0.14844051,9.287108421,-0.103653908,0.022116385,-0.013056661
1688388209.2269983,,,,,,,1.024718285,0.14844051,9.284713745,-0.103653908,0.022116385,-0.013323124
1688388209.2269983,,,,,,,1.024718285,0.14844051,9.282320023,-0.103653908,0.022116385,-0.013056661
1688388209.2269983,,,,,,,1.027112484,0.146046311,9.284713745,-0.103920363,0.022116385,-0.013323124
1688388209.36192,0.356736064,-0.081402861,10.699687,0.103653908,0.010658499,-0.016787136,,,,,,
1688388209.36192,0.356736064,-0.08379706,10.70208168,0.103920363,0.010658499,-0.016520673,,,,,,
1688388209.36192,0.356736064,-0.081402861,10.699687,0.103920363,0.010924961,-0.016787136,,,,,,
1688388209.36192,0.354341865,-0.08379706,10.699687,0.104186833,0.010924961,-0.016520673,,,,,,
1688388209.36192,0.356736064,-0.08379706,10.699687,0.103920363,0.011191424,-0.016787136,,,,,,
1688388209.36192,0.356736064,-0.08379706,10.699687,0.103920363,0.010924961,-0.016787136,,,,,,
1688388209.36192,0.359130263,-0.079008654,10.69729328,0.104186833,0.010924961,-0.016787136,,,,,,
1688388209.36192,0.354341865,-0.079008654,10.69729328,0.103920363,0.010924961,-0.016787136,,,,,,
1688388209.36192,0.356736064,-0.081402861,10.69729328,0.103920363,0.010924961,-0.016787136,,,,,,
1688388209.36192,0.359130263,-0.08379706,10.69250488,0.103920363,0.010924961,-0.016787136,,,,,,
1688388209.36192,0.359130263,-0.08379706,10.69250488,0.104186833,0.010924961,-0.016520673,,,,,,
1688388209.36192,0.361524463,-0.08379706,10.69729328,0.104186833,0.010658499,-0.016787136,,,,,,
1688388209.36192,0.359130263,-0.08379706,10.699687,0.104186833,0.010658499,-0.016787136,,,,,,
1688388209.36192,0.359130263,-0.08379706,10.70208168,0.104186833,0.010658499,-0.016787136,,,,,,
1688388209.36192,0.356736064,-0.08379706,10.70208168,0.104453288,0.010658499,-0.016787136,,,,,,
1688388209.36192,,,,,,,1.027112484,0.14844051,9.289502144,-0.103120975,0.021050537,-0.013056661
1688388209.36192,,,,,,,1.027112484,0.150834709,9.29189682,-0.10285452,0.021316998,-0.013056661
1688388209.36192,,,,,,,1.027112484,0.150834709,9.289502144,-0.103120975,0.021316998,-0.013056661
1688388209.36192,,,,,,,1.024718285,0.150834709,9.287108421,-0.103387438,0.021316998,-0.013056661
1688388209.36192,,,,,,,1.024718285,0.150834709,9.287108421,-0.103120975,0.02158346,-0.012790199
1688388209.36192,,,,,,,1.024718285,0.14844051,9.287108421,-0.103120975,0.02158346,-0.012790199
1688388209.36192,,,,,,,1.024718285,0.146046311,9.287108421,-0.103120975,0.021849923,-0.012790199
1688388209.36192,,,,,,,1.024718285,0.146046311,9.287108421,-0.103120975,0.022116385,-0.012790199
1688388209.36192,,,,,,,1.027112484,0.143652096,9.289502144,-0.103120975,0.022116385,-0.012790199
1688388209.36192,,,,,,,1.024718285,0.143652096,9.289502144,-0.10285452,0.022116385,-0.012790199
1688388209.36192,,,,,,,1.022324085,0.146046311,9.289502144,-0.10285452,0.022116385,-0.012790199
1688388209.36192,,,,,,,1.022324085,0.146046311,9.287108421,-0.103120975,0.022116385,-0.012790199
1688388209.36192,,,,,,,1.022324085,0.14844051,9.284713745,-0.103120975,0.022116385,-0.012790199
1688388209.36192,,,,,,,1.019929886,0.150834709,9.287108421,-0.103120975,0.021849923,-0.012790199
1688388209.36192,,,,,,,1.019929886,0.146046311,9.284713745,-0.103120975,0.021849923,-0.012790199
1688388209.5438166,0.363918662,-0.08379706,10.67335129,0.104186833,0.009592649,-0.015987748,,,,,,
1688388209.5438166,0.363918662,-0.08379706,10.67813969,0.104453288,0.009859112,-0.016254211,,,,,,
1688388209.5438166,0.363918662,-0.08379706,10.68053341,0.104186833,0.010125575,-0.016254211,,,,,,
1688388209.5438166,0.363918662,-0.086191259,10.68053341,0.104453288,0.009859112,-0.016254211,,,,,,
1688388209.5438166,0.361524463,-0.08379706,10.67813969,0.104186833,0.010125575,-0.015987748,,,,,,
1688388209.5438166,0.356736064,-0.08379706,10.68053341,0.104186833,0.010125575,-0.015987748,,,,,,
1688388209.5438166,0.349553436,-0.08379706,10.68292809,0.104186833,0.010392036,-0.015987748,,,,,,
1688388209.5438166,0.347159237,-0.086191259,10.68532181,0.103920363,0.010392036,-0.015987748,,,,,,
1688388209.5438166,0.347159237,-0.08379706,10.68292809,0.103920363,0.010392036,-0.015987748,,,,,,
1688388209.5438166,0.347159237,-0.086191259,10.68053341,0.103920363,0.010392036,-0.015987748,,,,,,
1688388209.5438166,0.349553436,-0.08379706,10.67574501,0.103920363,0.010392036,-0.016254211,,,,,,
1688388209.5438166,0.349553436,-0.086191259,10.67335129,0.103920363,0.010658499,-0.016254211,,,,,,
1688388209.5438166,0.354341865,-0.086191259,10.67813969,0.103920363,0.010658499,-0.015987748,,,,,,
1688388209.5438166,0.356736064,-0.08379706,10.68292809,0.103653908,0.010658499,-0.015987748,,,,,,
1688388209.5438166,0.356736064,-0.081402861,10.68292809,0.103920363,0.010658499,-0.015987748,,,,,,
1688388209.5438166,,,,,,,1.019929886,0.14844051,9.282320023,-0.10285452,0.022382848,-0.012790199
1688388209.5438166,,,,,,,1.022324085,0.14844051,9.282320023,-0.103120975,0.022382848,-0.012523737
1688388209.5438166,,,,,,,1.022324085,0.14844051,9.284713745,-0.103120975,0.022382848,-0.012790199
1688388209.5438166,,,,,,,1.022324085,0.150834709,9.284713745,-0.103120975,0.022116385,-0.012790199
1688388209.5438166,,,,,,,1.019929886,0.14844051,9.279925346,-0.10285452,0.021849923,-0.012790199
1688388209.5438166,,,,,,,1.017535686,0.14844051,9.279925346,-0.103120975,0.02158346,-0.012790199
1688388209.5438166,,,,,,,1.017535686,0.150834709,9.279925346,-0.103120975,0.02158346,-0.012523737
1688388209.5438166,,,,,,,1.019929886,0.14844051,9.277531624,-0.103120975,0.02158346,-0.012790199
1688388209.5438166,,,,,,,1.019929886,0.146046311,9.272743225,-0.10285452,0.02158346,-0.013056661
1688388209.5438166,,,,,,,1.019929886,0.146046311,9.270348549,-0.10285452,0.02158346,-0.013056661
1688388209.5438166,,,,,,,1.019929886,0.146046311,9.267954826,-0.103120975,0.02158346,-0.012790199
1688388209.5438166,,,,,,,1.017535686,0.146046311,9.26556015,-0.10285452,0.02158346,-0.012790199
1688388209.5438166,,,,,,,1.015141487,0.14844051,9.267954826,-0.103120975,0.021849923,-0.012790199
1688388209.5438166,,,,,,,1.017535686,0.14844051,9.267954826,-0.103120975,0.021849923,-0.012790199
1688388209.5438166,,,,,,,1.019929886,0.14844051,9.267954826,-0.103120975,0.021849923,-0.013056661
1688388209.6797407,0.359130263,-0.08379706,10.67574501,0.103920363,0.010125575,-0.015987748,,,,,,
1688388209.6797407,0.356736064,-0.08379706,10.67335129,0.103920363,0.010125575,-0.015987748,,,,,,
1688388209.6797407,0.359130263,-0.08379706,10.67335129,0.104186833,0.010125575,-0.015987748,,,,,,
1688388209.6797407,0.359130263,-0.079008654,10.67574501,0.103920363,0.010125575,-0.015987748,,,,,,
1688388209.6797407,0.356736064,-0.081402861,10.67813969,0.103653908,0.010392036,-0.015987748,,,,,,
1688388209.6797407,0.354341865,-0.081402861,10.67813969,0.103653908,0.010392036,-0.015987748,,,,,,
1688388209.6797407,0.356736064,-0.076614454,10.67813969,0.103653908,0.010392036,-0.015987748,,,,,,
1688388209.6797407,0.359130263,-0.076614454,10.67574501,0.103653908,0.010392036,-0.015987748,,,,,,
1688388209.6797407,0.359130263,-0.079008654,10.67335129,0.103653908,0.010392036,-0.015987748,,,,,,
1688388209.6797407,0.359130263,-0.076614454,10.67335129,0.103653908,0.010125575,-0.016254211,,,,,,
1688388209.6797407,0.359130263,-0.076614454,10.67095661,0.103653908,0.010392036,-0.016254211,,,,,,
1688388209.6797407,0.361524463,-0.079008654,10.67095661,0.103920363,0.010392036,-0.015987748,,,,,,
1688388209.6797407,0.363918662,-0.079008654,10.67335129,0.103653908,0.010392036,-0.016254211,,,,,,
1688388209.6797407,0.363918662,-0.079008654,10.67574501,0.103653908,0.010392036,-0.015987748,,,,,,
1688388209.6797407,0.361524463,-0.079008654,10.67574501,0.103920363,0.010392036,-0.016254211,,,,,,
1688388209.6797407,,,,,,,1.012747288,0.141257897,9.272743225,-0.103387438,0.021849923,-0.012523737
1688388209.6797407,,,,,,,1.012747288,0.141257897,9.279925346,-0.103120975,0.021849923,-0.012790199
1688388209.6797407,,,,,,,1.010353088,0.143652096,9.279925346,-0.103120975,0.021849923,-0.012790199
1688388209.6797407,,,,,,,1.010353088,0.146046311,9.279925346,-0.103120975,0.021849923,-0.013056661
1688388209.6797407,,,,,,,1.007958889,0.146046311,9.282320023,-0.103120975,0.021849923,-0.013056661
1688388209.6797407,,,,,,,1.00556469,0.143652096,9.279925346,-0.103387438,0.021849923,-0.013323124
1688388209.6797407,,,,,,,1.00556469,0.141257897,9.277531624,-0.103387438,0.021849923,-0.013056661
1688388209.6797407,,,,,,,1.00556469,0.143652096,9.279925346,-0.103387438,0.02158346,-0.013056661
1688388209.6797407,,,,,,,1.010353088,0.146046311,9.275136948,-0.103387438,0.02158346,-0.013056661
1688388209.6797407,,,,,,,1.010353088,0.146046311,9.275136948,-0.103387438,0.02158346,-0.013323124
1688388209.6797407,,,,,,,1.010353088,0.146046311,9.272743225,-0.103653908,0.021849923,-0.013056661
1688388209.6797407,,,,,,,1.012747288,0.14844051,9.275136948,-0.103653908,0.021849923,-0.012790199
1688388209.6797407,,,,,,,1.015141487,0.150834709,9.272743225,-0.103387438,0.021849923,-0.013056661
1688388209.6797407,,,,,,,1.015141487,0.153228909,9.272743225,-0.103387438,0.022116385,-0.013056661
1688388209.6797407,,,,,,,1.017535686,0.150834709,9.270348549,-0.103653908,0.022116385,-0.013056661
1688388209.870629,0.349553436,-0.081402861,10.69011021,0.104186833,0.010658499,-0.016254211,,,,,,
1688388209.870629,0.351947635,-0.081402861,10.68532181,0.104186833,0.010392036,-0.016254211,,,,,,
1688388209.870629,0.351947635,-0.081402861,10.68292809,0.104186833,0.010658499,-0.016254211,,,,,,
1688388209.870629,0.351947635,-0.08379706,10.68532181,0.104186833,0.010658499,-0.015987748,,,,,,
1688388209.870629,0.351947635,-0.086191259,10.69011021,0.103920363,0.010392036,-0.016254211,,,,,,
1688388209.870629,0.349553436,-0.08379706,10.69250488,0.104186833,0.010392036,-0.016254211,,,,,,
1688388209.870629,0.349553436,-0.08379706,10.69489861,0.104186833,0.010392036,-0.015987748,,,,,,
1688388209.870629,0.349553436,-0.081402861,10.69250488,0.104186833,0.010392036,-0.015987748,,,,,,
1688388209.870629,0.351947635,-0.081402861,10.69011021,0.104186833,0.010658499,-0.015987748,,,,,,
1688388209.870629,0.354341865,-0.079008654,10.69011021,0.103920363,0.010392036,-0.015721286,,,,,,
1688388209.870629,0.354341865,-0.08379706,10.69250488,0.103920363,0.010392036,-0.015987748,,,,,,
1688388209.870629,0.356736064,-0.086191259,10.68532181,0.104186833,0.010392036,-0.015987748,,,,,,
1688388209.870629,0.356736064,-0.086191259,10.68292809,0.104186833,0.010658499,-0.015987748,,,,,,
1688388209.870629,0.354341865,-0.088585466,10.68532181,0.104453288,0.010658499,-0.015987748,,,,,,
1688388209.870629,0.351947635,-0.088585466,10.68292809,0.104453288,0.010658499,-0.015987748,,,,,,
1688388209.870629,,,,,,,1.022324085,0.150834709,9.29189682,-0.103920363,0.02158346,-0.012790199
1688388209.870629,,,,,,,1.022324085,0.14844051,9.294290543,-0.103653908,0.021316998,-0.013056661
1688388209.870629,,,,,,,1.019929886,0.146046311,9.294290543,-0.103653908,0.021316998,-0.012790199
1688388209.870629,,,,,,,1.019929886,0.14844051,9.29189682,-0.103387438,0.021316998,-0.013056661
1688388209.870629,,,,,,,1.024718285,0.150834709,9.289502144,-0.103387438,0.021316998,-0.013056661
1688388209.870629,,,,,,,1.022324085,0.150834709,9.284713745,-0.103387438,0.021316998,-0.013056661
1688388209.870629,,,,,,,1.022324085,0.146046311,9.287108421,-0.103387438,0.021316998,-0.013056661
1688388209.870629,,,,,,,1.019929886,0.14844051,9.282320023,-0.103387438,0.02158346,-0.013056661
1688388209.870629,,,,,,,1.019929886,0.14844051,9.284713745,-0.103387438,0.02158346,-0.012790199
1688388209.870629,,,,,,,1.019929886,0.14844051,9.279925346,-0.103387438,0.02158346,-0.012790199
1688388209.870629,,,,,,,1.019929886,0.146046311,9.279925346,-0.103387438,0.02158346,-0.012790199
1688388209.870629,,,,,,,1.022324085,0.143652096,9.282320023,-0.103387438,0.02158346,-0.012790199
1688388209.870629,,,,,,,1.019929886,0.146046311,9.282320023,-0.103387438,0.021316998,-0.012790199
1688388209.870629,,,,,,,1.017535686,0.143652096,9.279925346,-0.103387438,0.02158346,-0.012790199
1688388209.870629,,,,,,,1.017535686,0.146046311,9.279925346,-0.103387438,0.02158346,-0.012790199
1688388209.995557,0.361524463,-0.081402861,10.67574501,0.103920363,0.010658499,-0.015987748,,,,,,
1688388209.995557,0.361524463,-0.081402861,10.67813969,0.103653908,0.010658499,-0.015987748,,,,,,
1688388209.995557,0.359130263,-0.081402861,10.67813969,0.103920363,0.010658499,-0.015721286,,,,,,
1688388209.995557,0.361524463,-0.081402861,10.67574501,0.103920363,0.010658499,-0.015721286,,,,,,
1688388209.995557,0.361524463,-0.08379706,10.67335129,0.103920363,0.010658499,-0.015721286,,,,,,
1688388209.995557,0.361524463,-0.08379706,10.67335129,0.103920363,0.010924961,-0.015721286,,,,,,
1688388209.995557,0.359130263,-0.08379706,10.67095661,0.103920363,0.010924961,-0.015721286,,,,,,
1688388209.995557,0.354341865,-0.08379706,10.66856289,0.103920363,0.011191424,-0.015987748,,,,,,
1688388209.995557,0.354341865,-0.081402861,10.66856289,0.103920363,0.010924961,-0.015721286,,,,,,
1688388209.995557,0.356736064,-0.079008654,10.67095661,0.103920363,0.011191424,-0.015987748,,,,,,
1688388209.995557,0.354341865,-0.081402861,10.67335129,0.103920363,0.010924961,-0.015721286,,,,,,
1688388209.995557,0.351947635,-0.079008654,10.67095661,0.103920363,0.010924961,-0.015987748,,,,,,
1688388209.995557,0.354341865,-0.079008654,10.67335129,0.103920363,0.010924961,-0.015987748,,,,,,
1688388209.995557,0.356736064,-0.08379706,10.68053341,0.104186833,0.010924961,-0.015987748,,,,,,
1688388209.995557,0.356736064,-0.081402861,10.68292809,0.103920363,0.010658499,-0.015987748,,,,,,
1688388209.995557,,,,,,,1.015141487,0.150834709,9.289502144,-0.103653908,0.022382848,-0.012790199
1688388209.995557,,,,,,,1.012747288,0.150834709,9.284713745,-0.103920363,0.022116385,-0.013056661
1688388209.995557,,,,,,,1.010353088,0.150834709,9.284713745,-0.103653908,0.021849923,-0.012790199
1688388209.995557,,,,,,,1.010353088,0.150834709,9.282320023,-0.103920363,0.022116385,-0.012790199
1688388209.995557,,,,,,,1.010353088,0.150834709,9.284713745,-0.103653908,0.022116385,-0.012523737
