timestamp,right_data_Ac_X,right_data_Ac_Y,right_data_Ac_Z,right_data_Gy_X,right_data_Gy_Y,right_data_Gy_Z,left_data_Ac_X,left_data_Ac_Y,left_data_Ac_Z,left_data_Gy_X,left_data_Gy_Y,left_data_Gy_Z
1689140534123225500,0.794874966,-0.253785372,10.66137981,0.106052071,0.011990812,-0.016254211,-0.263362199,0.316034615,9.234436035,-0.104453288,0.022116385,-0.012257273
1689140534124225500,0.794874966,-0.248996973,10.65898609,0.106052071,0.011990812,-0.016254211,-0.265756398,0.318428814,9.236829758,-0.104453288,0.022116385,-0.012257273
1689140534125225500,0.794874966,-0.248996973,10.65898609,0.106052071,0.011990812,-0.016254211,-0.268150598,0.318428814,9.239224434,-0.104186833,0.022382848,-0.012257273
1689140534126225500,0.797269166,-0.251391172,10.65898609,0.106052071,0.011990812,-0.016254211,-0.263362199,0.318428814,9.236829758,-0.104186833,0.022382848,-0.012257273
1689140534127225500,0.799663365,-0.251391172,10.65419769,0.106318533,0.011990812,-0.016254211,-0.263362199,0.316034615,9.239224434,-0.103920363,0.022116385,-0.012257273
1689140534128225500,0.802057564,-0.253785372,10.65419769,0.106052071,0.011724349,-0.016254211,-0.265756398,0.316034615,9.241618156,-0.103920363,0.022382848,-0.012257273
1689140534129225500,0.799663365,-0.253785372,10.65659142,0.106052071,0.011724349,-0.016254211,-0.270544797,0.316034615,9.246406555,-0.103920363,0.022382848,-0.012523737
1689140534130225500,0.802057564,-0.253785372,10.65180302,0.106052071,0.011990812,-0.016254211,-0.270544797,0.318428814,9.248801231,-0.103920363,0.022382848,-0.012523737
1689140534131225500,0.802057564,-0.253785372,10.64940929,0.106052071,0.011724349,-0.016520673,-0.270544797,0.318428814,9.248801231,-0.103920363,0.022116385,-0.012523737
1689140534132225500,0.802057564,-0.253785372,10.64940929,0.106052071,0.011990812,-0.016520673,-0.268150598,0.318428814,9.248801231,-0.103920363,0.022382848,-0.012523737
1689140534133225500,0.799663365,-0.253785372,10.65180302,0.106318533,0.011990812,-0.016520673,-0.268150598,0.316034615,9.248801231,-0.103920363,0.022382848,-0.012523737
1689140534134225500,0.799663365,-0.253785372,10.65180302,0.106318533,0.011724349,-0.016520673,-0.268150598,0.313640416,9.241618156,-0.103920363,0.022382848,-0.012257273
1689140534135225500,0.797269166,-0.253785372,10.65419769,0.106052071,0.011990812,-0.016520673,-0.270544797,0.313640416,9.239224434,-0.104186833,0.022116385,-0.012523737
1689140534136225500,0.799663365,-0.253785372,10.65419769,0.106052071,0.011724349,-0.016520673,-0.270544797,0.316034615,9.239224434,-0.104186833,0.022116385,-0.012523737
1689140534137225500,0.802057564,-0.256179571,10.65419769,0.106318533,0.011724349,-0.016254211,-0.272938997,0.318428814,9.236829758,-0.103920363,0.022382848,-0.012523737
1689140534247154100,0.797269166,-0.260968,10.65180302,0.106318533,0.012257273,-0.016520673,-0.268150598,0.311246216,9.239224434,-0.104453288,0.022382848,-0.012257273
1689140534248154100,0.797269166,-0.260968,10.65419769,0.106318533,0.012257273,-0.016520673,-0.268150598,0.311246216,9.232041359,-0.104453288,0.022649311,-0.012257273
1689140534249154100,0.799663365,-0.263362199,10.65419769,0.106318533,0.012257273,-0.016787136,-0.270544797,0.308852017,9.229647636,-0.104453288,0.022649311,-0.012523737
1689140534250154100,0.799663365,-0.263362199,10.65180302,0.106052071,0.011990812,-0.016520673,-0.272938997,0.311246216,9.22725296,-0.104186833,0.022649311,-0.012257273
1689140534251154100,0.802057564,-0.260968,10.64940929,0.106052071,0.011990812,-0.016520673,-0.270544797,0.313640416,9.232041359,-0.104453288,0.022382848,-0.012523737
1689140534252154100,0.802057564,-0.260968,10.64940929,0.106052071,0.011990812,-0.016520673,-0.270544797,0.313640416,9.232041359,-0.104186833,0.022649311,-0.012523737
1689140534253154100,0.797269166,-0.260968,10.64701462,0.106052071,0.011990812,-0.016520673,-0.270544797,0.313640416,9.229647636,-0.104186833,0.022382848,-0.012523737
1689140534254154100,0.797269166,-0.260968,10.6398325,0.106052071,0.011990812,-0.016520673,-0.272938997,0.313640416,9.222464561,-0.104186833,0.022382848,-0.012523737
1689140534255154100,0.797269166,-0.258573771,10.63743782,0.106052071,0.011724349,-0.016254211,-0.272938997,0.313640416,9.224859238,-0.104453288,0.022382848,-0.012523737
1689140534256154100,0.799663365,-0.256179571,10.63743782,0.106318533,0.011724349,-0.016254211,-0.272938997,0.316034615,9.220070839,-0.104453288,0.022382848,-0.012790199
1689140534257154100,0.797269166,-0.253785372,10.6398325,0.106052071,0.011990812,-0.016254211,-0.270544797,0.318428814,9.222464561,-0.104453288,0.022649311,-0.012523737
1689140534258154100,0.797269166,-0.253785372,10.64701462,0.106052071,0.011990812,-0.016254211,-0.272938997,0.316034615,9.229647636,-0.104186833,0.022915773,-0.012523737
1689140534259154100,0.797269166,-0.253785372,10.64701462,0.106318533,0.011990812,-0.015987748,-0.275333196,0.316034615,9.236829758,-0.104186833,0.022649311,-0.012523737
1689140534260154100,0.799663365,-0.248996973,10.64940929,0.106318533,0.011990812,-0.015987748,-0.272938997,0.316034615,9.239224434,-0.104186833,0.022649311,-0.012790199
1689140534261154100,0.797269166,-0.248996973,10.64940929,0.106318533,0.011724349,-0.015987748,-0.275333196,0.316034615,9.236829758,-0.104453288,0.022649311,-0.012790199
1689140534341099600,0.802057564,-0.258573771,10.66616821,0.106052071,0.012257273,-0.016254211,-0.280121595,0.301669419,9.222464561,-0.103920363,0.022382848,-0.011724349
1689140534342099600,0.799663365,-0.258573771,10.67095661,0.106052071,0.012257273,-0.016254211,-0.280121595,0.301669419,9.222464561,-0.103920363,0.022649311,-0.011724349
1689140534343099600,0.802057564,-0.256179571,10.66377449,0.106052071,0.012523737,-0.016254211,-0.277727395,0.301669419,9.220070839,-0.103653908,0.022382848,-0.011724349
1689140534344099600,0.802057564,-0.258573771,10.66616821,0.106052071,0.012257273,-0.016254211,-0.272938997,0.299275219,9.222464561,-0.103920363,0.022382848,-0.011724349
1689140534345099600,0.799663365,-0.258573771,10.66377449,0.106052071,0.012257273,-0.016254211,-0.275333196,0.29688102,9.222464561,-0.103920363,0.022116385,-0.011457887
1689140534346099600,0.802057564,-0.260968,10.66856289,0.105785601,0.012257273,-0.016254211,-0.275333196,0.29688102,9.22725296,-0.103920363,0.022116385,-0.011724349
1689140534347099600,0.802057564,-0.258573771,10.66616821,0.105785601,0.012257273,-0.016254211,-0.275333196,0.29688102,9.229647636,-0.103920363,0.022116385,-0.011724349
1689140534348099600,0.804451764,-0.256179571,10.66856289,0.105785601,0.012523737,-0.016254211,-0.272938997,0.294486821,9.224859238,-0.104186833,0.022116385,-0.011990812
1689140534349099600,0.802057564,-0.256179571,10.67095661,0.105519146,0.012523737,-0.016254211,-0.272938997,0.29688102,9.224859238,-0.104453288,0.022116385,-0.011724349
1689140534350099600,0.802057564,-0.253785372,10.66856289,0.105785601,0.012523737,-0.016254211,-0.270544797,0.294486821,9.22725296,-0.104453288,0.022116385,-0.011990812
1689140534351099600,0.799663365,-0.253785372,10.66377449,0.105785601,0.012257273,-0.016254211,-0.270544797,0.29688102,9.234436035,-0.104453288,0.022116385,-0.011724349
1689140534352099600,0.797269166,-0.256179571,10.66137981,0.106052071,0.012257273,-0.016254211,-0.270544797,0.301669419,9.241618156,-0.104186833,0.022382848,-0.011990812
1689140534353099600,0.794874966,-0.256179571,10.65898609,0.106052071,0.012257273,-0.016254211,-0.268150598,0.301669419,9.241618156,-0.104186833,0.022382848,-0.011990812
1689140534354099600,0.797269166,-0.253785372,10.65659142,0.106052071,0.012257273,-0.016254211,-0.265756398,0.301669419,9.241618156,-0.104186833,0.022382848,-0.011990812
1689140534355099600,0.797269166,-0.253785372,10.65419769,0.106052071,0.012257273,-0.016254211,-0.268150598,0.299275219,9.244012833,-0.104186833,0.022382848,-0.011990812
1689140534429049000,0.806845963,-0.258573771,10.65180302,0.105785601,0.011990812,-0.016520673,-0.280121595,0.311246216,9.246406555,-0.104453288,0.021849923,-0.011990812
1689140534430049000,0.809240162,-0.258573771,10.65180302,0.105785601,0.011724349,-0.016520673,-0.280121595,0.313640416,9.244012833,-0.104186833,0.021849923,-0.011990812
1689140534431049000,0.809240162,-0.258573771,10.64940929,0.105785601,0.011724349,-0.016520673,-0.280121595,0.316034615,9.246406555,-0.104186833,0.021849923,-0.011990812
1689140534432049000,0.806845963,-0.258573771,10.65180302,0.105785601,0.011724349,-0.016520673,-0.277727395,0.313640416,9.248801231,-0.104453288,0.02158346,-0.012257273
1689140534433049000,0.806845963,-0.256179571,10.64701462,0.105785601,0.011990812,-0.016520673,-0.275333196,0.313640416,9.246406555,-0.104186833,0.021849923,-0.012257273
1689140534434049000,0.809240162,-0.258573771,10.6398325,0.105785601,0.011990812,-0.016520673,-0.270544797,0.313640416,9.246406555,-0.104186833,0.021849923,-0.012523737
1689140534435049000,0.809240162,-0.258573771,10.63743782,0.105785601,0.012257273,-0.016254211,-0.270544797,0.316034615,9.246406555,-0.103920363,0.022116385,-0.012523737
1689140534436049000,0.809240162,-0.256179571,10.63743782,0.106052071,0.011990812,-0.016254211,-0.272938997,0.313640416,9.248801231,-0.103920363,0.021849923,-0.012523737
1689140534437049000,0.809240162,-0.256179571,10.63743782,0.105785601,0.011990812,-0.016520673,-0.272938997,0.313640416,9.246406555,-0.103920363,0.022116385,-0.012523737
1689140534438049000,0.811634362,-0.253785372,10.63743782,0.105785601,0.011990812,-0.016254211,-0.272938997,0.311246216,9.246406555,-0.103653908,0.022116385,-0.012523737
1689140534439049000,0.814028561,-0.253785372,10.64222622,0.105785601,0.011724349,-0.016254211,-0.270544797,0.311246216,9.246406555,-0.103653908,0.022116385,-0.012523737
1689140534440049000,0.814028561,-0.253785372,10.6446209,0.105785601,0.011724349,-0.016254211,-0.270544797,0.311246216,9.248801231,-0.103653908,0.022116385,-0.012790199
1689140534441049000,0.814028561,-0.253785372,10.64940929,0.106052071,0.011724349,-0.016254211,-0.272938997,0.311246216,9.248801231,-0.103653908,0.022116385,-0.012790199
1689140534442049000,0.811634362,-0.251391172,10.64701462,0.106052071,0.011724349,-0.016520673,-0.272938997,0.308852017,9.251194954,-0.103653908,0.022382848,-0.012523737
1689140534443049000,0.811634362,-0.253785372,10.6446209,0.106052071,0.011724349,-0.016520673,-0.275333196,0.308852017,9.248801231,-0.103653908,0.022116385,-0.012523737
1689140534551630700,0.799663365,-0.253785372,10.65419769,0.106318533,0.012257273,-0.016254211,-0.275333196,0.308852017,9.232041359,-0.103920363,0.021849923,-0.011990812
1689140534552630700,0.802057564,-0.256179571,10.65419769,0.106318533,0.012523737,-0.016520673,-0.272938997,0.311246216,9.232041359,-0.103920363,0.022116385,-0.011724349
1689140534553630700,0.802057564,-0.258573771,10.65419769,0.106318533,0.012257273,-0.016520673,-0.272938997,0.308852017,9.236829758,-0.104186833,0.021849923,-0.011724349
1689140534554630700,0.802057564,-0.258573771,10.65419769,0.106052071,0.012257273,-0.016520673,-0.270544797,0.308852017,9.241618156,-0.104186833,0.022116385,-0.011724349
1689140534555630700,0.802057564,-0.258573771,10.65659142,0.106052071,0.012257273,-0.016520673,-0.270544797,0.308852017,9.239224434,-0.103920363,0.022116385,-0.011724349
1689140534556630700,0.799663365,-0.260968,10.65180302,0.106318533,0.012257273,-0.016254211,-0.272938997,0.313640416,9.236829758,-0.103653908,0.022116385,-0.011724349
1689140534557630700,0.797269166,-0.260968,10.65180302,0.106318533,0.012257273,-0.016254211,-0.275333196,0.313640416,9.234436035,-0.103920363,0.022116385,-0.011724349
1689140534558630700,0.797269166,-0.263362199,10.64940929,0.106318533,0.012257273,-0.016254211,-0.275333196,0.313640416,9.234436035,-0.103920363,0.021849923,-0.011724349
1689140534559630700,0.794874966,-0.263362199,10.65419769,0.106318533,0.011990812,-0.016254211,-0.275333196,0.313640416,9.234436035,-0.103920363,0.02158346,-0.011990812
1689140534560630700,0.794874966,-0.258573771,10.64940929,0.106318533,0.012257273,-0.016254211,-0.275333196,0.313640416,9.239224434,-0.103920363,0.02158346,-0.011990812
1689140534561630700,0.794874966,-0.258573771,10.64701462,0.106318533,0.012257273,-0.016254211,-0.275333196,0.311246216,9.244012833,-0.103920363,0.02158346,-0.011724349
1689140534562630700,0.797269166,-0.258573771,10.6446209,0.106318533,0.012257273,-0.016254211,-0.277727395,0.313640416,9.241618156,-0.104186833,0.021849923,-0.011724349
1689140534563630700,0.802057564,-0.258573771,10.64701462,0.106318533,0.012523737,-0.016520673,-0.275333196,0.311246216,9.241618156,-0.104186833,0.021849923,-0.011457887
1689140534564630700,0.802057564,-0.258573771,10.64701462,0.106318533,0.012257273,-0.016520673,-0.272938997,0.311246216,9.241618156,-0.104186833,0.02158346,-0.011724349
1689140534565630700,0.799663365,-0.258573771,10.64701462,0.106052071,0.012257273,-0.016520673,-0.275333196,0.313640416,9.241618156,-0.104186833,0.021849923,-0.011724349
1689140534694547400,0.797269166,-0.258573771,10.64222622,0.106052071,0.011990812,-0.016254211,-0.270544797,0.311246216,9.234436035,-0.103920363,0.022649311,-0.011990812
1689140534695547400,0.794874966,-0.253785372,10.64701462,0.106052071,0.011990812,-0.016254211,-0.268150598,0.308852017,9.229647636,-0.103920363,0.022649311,-0.011990812
1689140534696547400,0.794874966,-0.253785372,10.64701462,0.106052071,0.011990812,-0.016254211,-0.270544797,0.308852017,9.232041359,-0.103920363,0.022649311,-0.011724349
1689140534697547400,0.792480767,-0.251391172,10.64940929,0.106052071,0.011990812,-0.016254211,-0.270544797,0.311246216,9.234436035,-0.103920363,0.022649311,-0.011724349
1689140534698547400,0.792480767,-0.253785372,10.65180302,0.105785601,0.011990812,-0.016254211,-0.270544797,0.313640416,9.234436035,-0.103920363,0.022649311,-0.011724349
1689140534699547400,0.792480767,-0.256179571,10.65659142,0.105785601,0.012257273,-0.016254211,-0.265756398,0.316034615,9.234436035,-0.103920363,0.022915773,-0.011724349
1689140534700547400,0.787692368,-0.256179571,10.65180302,0.105785601,0.012257273,-0.016254211,-0.268150598,0.316034615,9.239224434,-0.104186833,0.023182238,-0.011457887
1689140534701547400,0.787692368,-0.256179571,10.65419769,0.105785601,0.012257273,-0.016254211,-0.268150598,0.316034615,9.236829758,-0.104186833,0.023182238,-0.011457887
1689140534702547400,0.787692368,-0.253785372,10.65898609,0.105785601,0.011990812,-0.016254211,-0.268150598,0.316034615,9.236829758,-0.104186833,0.023448698,-0.011724349
1689140534703547400,0.787692368,-0.253785372,10.65898609,0.106052071,0.012257273,-0.016254211,-0.268150598,0.316034615,9.236829758,-0.104186833,0.023182238,-0.011724349
1689140534704547400,0.790086567,-0.253785372,10.65659142,0.106052071,0.011990812,-0.016254211,-0.265756398,0.318428814,9.236829758,-0.103920363,0.023448698,-0.011724349
1689140534705547400,0.790086567,-0.256179571,10.65419769,0.106052071,0.011990812,-0.016254211,-0.268150598,0.320823014,9.239224434,-0.104186833,0.023448698,-0.011724349
1689140534706547400,0.790086567,-0.256179571,10.65180302,0.105785601,0.012257273,-0.016254211,-0.270544797,0.320823014,9.236829758,-0.104186833,0.023448698,-0.011724349
1689140534707547400,0.794874966,-0.253785372,10.65180302,0.105785601,0.011990812,-0.016254211,-0.270544797,0.323217243,9.234436035,-0.104186833,0.023448698,-0.011990812
1689140534708547400,0.794874966,-0.256179571,10.65180302,0.106052071,0.011990812,-0.016254211,-0.270544797,0.320823014,9.234436035,-0.104453288,0.023182238,-0.012257273
1689140534899441900,0.802057564,-0.253785372,10.65419769,0.106318533,0.011990812,-0.016520673,-0.280121595,0.308852017,9.232041359,-0.104186833,0.022649311,-0.011990812
1689140534900441900,0.799663365,-0.253785372,10.65659142,0.106052071,0.011990812,-0.016520673,-0.280121595,0.311246216,9.232041359,-0.104186833,0.022382848,-0.011724349
1689140534901441900,0.799663365,-0.251391172,10.65898609,0.106052071,0.011990812,-0.016520673,-0.277727395,0.313640416,9.236829758,-0.103920363,0.022649311,-0.011990812
1689140534902441900,0.802057564,-0.246602774,10.66377449,0.106052071,0.012257273,-0.016520673,-0.277727395,0.311246216,9.234436035,-0.103920363,0.022382848,-0.011990812
1689140534903441900,0.802057564,-0.246602774,10.66616821,0.106052071,0.012257273,-0.016520673,-0.275333196,0.311246216,9.236829758,-0.103920363,0.022382848,-0.011724349
1689140534904441900,0.802057564,-0.248996973,10.66616821,0.106052071,0.012257273,-0.016520673,-0.275333196,0.308852017,9.239224434,-0.104186833,0.022382848,-0.011724349
1689140534905441900,0.802057564,-0.248996973,10.66377449,0.106052071,0.012257273,-0.016520673,-0.275333196,0.311246216,9.229647636,-0.103920363,0.022382848,-0.011724349
1689140534906441900,0.802057564,-0.251391172,10.66137981,0.106052071,0.012257273,-0.016787136,-0.277727395,0.311246216,9.229647636,-0.103920363,0.022382848,-0.011724349
1689140534907441900,0.799663365,-0.251391172,10.65898609,0.105785601,0.012257273,-0.016787136,-0.280121595,0.308852017,9.229647636,-0.103920363,0.022382848,-0.011724349
1689140534908441900,0.802057564,-0.251391172,10.65419769,0.105785601,0.012257273,-0.016520673,-0.277727395,0.308852017,9.22725296,-0.103920363,0.022382848,-0.011990812
1689140534909441900,0.804451764,-0.256179571,10.66377449,0.106052071,0.012257273,-0.016787136,-0.280121595,0.308852017,9.224859238,-0.103920363,0.022382848,-0.011990812
1689140534910441900,0.806845963,-0.258573771,10.66137981,0.106052071,0.012257273,-0.016520673,-0.277727395,0.308852017,9.232041359,-0.103920363,0.022382848,-0.011990812
1689140534911441900,0.806845963,-0.258573771,10.65659142,0.106052071,0.012257273,-0.016520673,-0.277727395,0.308852017,9.229647636,-0.103920363,0.022382848,-0.011990812
1689140534912441900,0.806845963,-0.258573771,10.65419769,0.105785601,0.011990812,-0.016520673,-0.275333196,0.306457818,9.229647636,-0.103920363,0.022116385,-0.011990812
1689140534913441900,0.809240162,-0.256179571,10.65419769,0.105785601,0.011990812,-0.016520673,-0.280121595,0.308852017,9.229647636,-0.103920363,0.022382848,-0.012257273
1689140534971401000,0.799663365,-0.251391172,10.64222622,0.106584989,0.012257273,-0.016520673,-0.265756398,0.29688102,9.236829758,-0.103653908,0.022649311,-0.011724349
1689140534972401000,0.799663365,-0.251391172,10.6446209,0.106584989,0.011990812,-0.016520673,-0.265756398,0.29688102,9.239224434,-0.103653908,0.022649311,-0.012257273
1689140534973401000,0.797269166,-0.253785372,10.64222622,0.106318533,0.011990812,-0.016520673,-0.265756398,0.299275219,9.239224434,-0.103653908,0.022649311,-0.012257273
1689140534974401000,0.799663365,-0.253785372,10.6398325,0.106318533,0.011990812,-0.016520673,-0.268150598,0.299275219,9.236829758,-0.103920363,0.022649311,-0.011990812
1689140534975401000,0.802057564,-0.251391172,10.63743782,0.106318533,0.011990812,-0.016520673,-0.272938997,0.304063618,9.236829758,-0.103920363,0.022649311,-0.011724349
1689140534976401000,0.802057564,-0.253785372,10.6398325,0.106318533,0.011990812,-0.016520673,-0.272938997,0.304063618,9.236829758,-0.103653908,0.022649311,-0.011724349
1689140534977401000,0.802057564,-0.256179571,10.64222622,0.106052071,0.011990812,-0.016254211,-0.275333196,0.306457818,9.234436035,-0.103653908,0.022382848,-0.011724349
1689140534978401000,0.802057564,-0.253785372,10.6398325,0.106052071,0.011990812,-0.016254211,-0.272938997,0.304063618,9.236829758,-0.103653908,0.022382848,-0.011990812
1689140534979401000,0.804451764,-0.251391172,10.63743782,0.105785601,0.011990812,-0.016254211,-0.272938997,0.304063618,9.239224434,-0.103653908,0.022116385,-0.011990812
1689140534980401000,0.804451764,-0.248996973,10.6398325,0.105785601,0.011990812,-0.016520673,-0.272938997,0.301669419,9.244012833,-0.103653908,0.022382848,-0.011724349
1689140534981401000,0.802057564,-0.248996973,10.64222622,0.105785601,0.011990812,-0.016520673,-0.272938997,0.301669419,9.244012833,-0.103920363,0.022382848,-0.011724349
1689140534982401000,0.804451764,-0.248996973,10.64222622,0.105785601,0.011990812,-0.016520673,-0.270544797,0.301669419,9.248801231,-0.103920363,0.022382848,-0.011724349
1689140534983401000,0.804451764,-0.251391172,10.6446209,0.105785601,0.011990812,-0.016254211,-0.270544797,0.304063618,9.248801231,-0.103920363,0.022382848,-0.011724349
1689140534984401000,0.806845963,-0.251391172,10.64222622,0.106052071,0.011990812,-0.016254211,-0.268150598,0.306457818,9.251194954,-0.103920363,0.022382848,-0.011990812
1689140534985401000,0.806845963,-0.253785372,10.64222622,0.106052071,0.011990812,-0.016254211,-0.268150598,0.308852017,9.248801231,-0.103920363,0.022116385,-0.011990812
1689140535050355300,0.799663365,-0.253785372,10.64940929,0.105785601,0.011990812,-0.016254211,-0.280121595,0.311246216,9.236829758,-0.103920363,0.022116385,-0.011990812
1689140535051355300,0.799663365,-0.251391172,10.6446209,0.106052071,0.011724349,-0.016254211,-0.277727395,0.313640416,9.239224434,-0.103920363,0.022116385,-0.011990812
1689140535052355300,0.797269166,-0.251391172,10.64222622,0.106318533,0.011457887,-0.016520673,-0.277727395,0.311246216,9.236829758,-0.103920363,0.022382848,-0.011990812
1689140535053355300,0.797269166,-0.253785372,10.6446209,0.106052071,0.011724349,-0.016520673,-0.277727395,0.311246216,9.239224434,-0.103920363,0.022382848,-0.011724349
1689140535054355300,0.797269166,-0.251391172,10.6446209,0.106052071,0.011724349,-0.016520673,-0.275333196,0.313640416,9.239224434,-0.103920363,0.022116385,-0.011724349
1689140535055355300,0.794874966,-0.251391172,10.6446209,0.106318533,0.011724349,-0.016520673,-0.277727395,0.316034615,9.241618156,-0.103653908,0.021849923,-0.011724349
1689140535056355300,0.794874966,-0.251391172,10.64940929,0.106318533,0.011724349,-0.016520673,-0.277727395,0.316034615,9.239224434,-0.103920363,0.021849923,-0.011724349
1689140535057355300,0.797269166,-0.251391172,10.6446209,0.106318533,0.011724349,-0.016520673,-0.277727395,0.316034615,9.239224434,-0.103920363,0.022116385,-0.011724349
1689140535058355300,0.797269166,-0.251391172,10.64222622,0.106318533,0.011724349,-0.016520673,-0.280121595,0.316034615,9.241618156,-0.103920363,0.022116385,-0.011990812
1689140535059355300,0.797269166,-0.251391172,10.6446209,0.106584989,0.011724349,-0.016520673,-0.280121595,0.318428814,9.239224434,-0.103920363,0.022382848,-0.011990812
1689140535060355300,0.799663365,-0.253785372,10.6446209,0.106318533,0.011724349,-0.016254211,-0.282515794,0.316034615,9.236829758,-0.104186833,0.022382848,-0.011990812
1689140535061355300,0.797269166,-0.253785372,10.6446209,0.106584989,0.011990812,-0.016254211,-0.282515794,0.316034615,9.236829758,-0.104186833,0.022382848,-0.011990812
1689140535062355300,0.797269166,-0.256179571,10.64701462,0.106584989,0.011724349,-0.016254211,-0.280121595,0.316034615,9.234436035,-0.104453288,0.022116385,-0.012257273
1689140535063355300,0.799663365,-0.258573771,10.64940929,0.106584989,0.011724349,-0.016254211,-0.280121595,0.318428814,9.239224434,-0.104453288,0.021849923,-0.012257273
1689140535064355300,0.799663365,-0.260968,10.65180302,0.106584989,0.011724349,-0.015987748,-0.280121595,0.320823014,9.234436035,-0.104453288,0.021849923,-0.012257273
1689140535117010500,0.799663365,-0.256179571,10.65180302,0.105785601,0.011724349,-0.015987748,-0.268150598,0.308852017,9.224859238,-0.104453288,0.022382848,-0.011990812
1689140535118010500,0.802057564,-0.258573771,10.64701462,0.105785601,0.011990812,-0.015987748,-0.272938997,0.308852017,9.22725296,-0.104453288,0.022382848,-0.011990812
1689140535119010500,0.804451764,-0.258573771,10.64222622,0.106052071,0.011990812,-0.015987748,-0.272938997,0.308852017,9.22725296,-0.104453288,0.022382848,-0.011990812
1689140535120010500,0.804451764,-0.256179571,10.6446209,0.106052071,0.011724349,-0.016254211,-0.272938997,0.308852017,9.224859238,-0.104719758,0.022649311,-0.011990812
1689140535121010500,0.804451764,-0.253785372,10.6446209,0.106052071,0.011724349,-0.016254211,-0.275333196,0.308852017,9.229647636,-0.104453288,0.022649311,-0.011990812
1689140535122010500,0.802057564,-0.253785372,10.6446209,0.106052071,0.011724349,-0.015987748,-0.275333196,0.311246216,9.232041359,-0.104719758,0.022382848,-0.012257273
1689140535123010500,0.802057564,-0.253785372,10.6446209,0.106052071,0.011990812,-0.015987748,-0.277727395,0.313640416,9.234436035,-0.104453288,0.022382848,-0.012257273
1689140535124010500,0.799663365,-0.251391172,10.64701462,0.106052071,0.011990812,-0.015987748,-0.277727395,0.311246216,9.239224434,-0.104453288,0.022382848,-0.012257273
1689140535125010500,0.799663365,-0.251391172,10.6446209,0.106318533,0.011990812,-0.015987748,-0.277727395,0.308852017,9.241618156,-0.104453288,0.022116385,-0.012523737
1689140535126010500,0.799663365,-0.253785372,10.64701462,0.106318533,0.011990812,-0.016254211,-0.275333196,0.308852017,9.244012833,-0.104453288,0.022382848,-0.012257273
1689140535127010500,0.799663365,-0.253785372,10.6446209,0.106318533,0.011990812,-0.016254211,-0.277727395,0.311246216,9.244012833,-0.104453288,0.022116385,-0.012257273
1689140535128010500,0.804451764,-0.253785372,10.64701462,0.106318533,0.011990812,-0.016254211,-0.277727395,0.308852017,9.239224434,-0.104453288,0.021849923,-0.012257273
1689140535129010500,0.804451764,-0.251391172,10.64701462,0.106052071,0.011990812,-0.016254211,-0.277727395,0.308852017,9.236829758,-0.104453288,0.022116385,-0.012257273
1689140535130010500,0.806845963,-0.253785372,10.6446209,0.106052071,0.011990812,-0.016520673,-0.280121595,0.308852017,9.241618156,-0.104453288,0.022116385,-0.012257273
1689140535131010500,0.806845963,-0.256179571,10.64701462,0.106318533,0.011990812,-0.016520673,-0.280121595,0.311246216,9.241618156,-0.104453288,0.022116385,-0.012257273
1689140535194943300,0.811634362,-0.258573771,10.64701462,0.106318533,0.011990812,-0.016254211,-0.280121595,0.304063618,9.234436035,-0.103920363,0.022915773,-0.012790199
1689140535195943300,0.814028561,-0.260968,10.64701462,0.106318533,0.012257273,-0.016254211,-0.282515794,0.304063618,9.236829758,-0.103920363,0.023182238,-0.012523737
1689140535196943300,0.811634362,-0.260968,10.64222622,0.106052071,0.012257273,-0.016254211,-0.282515794,0.308852017,9.241618156,-0.103920363,0.023182238,-0.012523737
1689140535197943300,0.804451764,-0.260968,10.64222622,0.106052071,0.012257273,-0.016254211,-0.282515794,0.306457818,9.244012833,-0.103920363,0.023182238,-0.012523737
1689140535198943300,0.806845963,-0.260968,10.64222622,0.105785601,0.012257273,-0.016254211,-0.277727395,0.306457818,9.241618156,-0.103920363,0.023182238,-0.012523737
1689140535199943300,0.804451764,-0.260968,10.6446209,0.105785601,0.012523737,-0.015987748,-0.280121595,0.306457818,9.244012833,-0.103920363,0.023182238,-0.012523737
1689140535200943300,0.802057564,-0.258573771,10.63743782,0.105785601,0.012257273,-0.015987748,-0.280121595,0.308852017,9.241618156,-0.103920363,0.023182238,-0.012523737
1689140535201943300,0.799663365,-0.260968,10.6398325,0.105519146,0.012257273,-0.015987748,-0.280121595,0.308852017,9.239224434,-0.103920363,0.023182238,-0.012257273
1689140535202943300,0.802057564,-0.260968,10.6398325,0.105519146,0.011990812,-0.015987748,-0.277727395,0.308852017,9.244012833,-0.103920363,0.022649311,-0.012523737
1689140535203943300,0.804451764,-0.260968,10.64222622,0.105519146,0.011990812,-0.016254211,-0.277727395,0.306457818,9.248801231,-0.103920363,0.022649311,-0.012523737
1689140535204943300,0.804451764,-0.263362199,10.63743782,0.105785601,0.011990812,-0.016254211,-0.277727395,0.301669419,9.248801231,-0.103920363,0.022915773,-0.012257273
1689140535205943300,0.802057564,-0.260968,10.6350441,0.105519146,0.011990812,-0.016254211,-0.280121595,0.304063618,9.251194954,-0.103920363,0.022915773,-0.012257273
1689140535206943300,0.804451764,-0.263362199,10.63743782,0.105785601,0.011990812,-0.016520673,-0.280121595,0.304063618,9.255983353,-0.104186833,0.022915773,-0.012257273
1689140535207943300,0.799663365,-0.263362199,10.6398325,0.105519146,0.011990812,-0.016520673,-0.280121595,0.308852017,9.251194954,-0.104186833,0.023182238,-0.012257273
1689140535208943300,0.799663365,-0.263362199,10.6446209,0.105785601,0.011990812,-0.016520673,-0.275333196,0.306457818,9.251194954,-0.104186833,0.023182238,-0.012257273
1689140535276899700,0.802057564,-0.258573771,10.64940929,0.106052071,0.012257273,-0.016787136,-0.277727395,0.308852017,9.224859238,-0.103920363,0.022649311,-0.011724349
1689140535277899700,0.799663365,-0.258573771,10.64940929,0.106052071,0.011990812,-0.016787136,-0.275333196,0.311246216,9.229647636,-0.103653908,0.022649311,-0.011990812
1689140535278899700,0.802057564,-0.256179571,10.64940929,0.106052071,0.011990812,-0.016787136,-0.275333196,0.313640416,9.22725296,-0.103653908,0.022649311,-0.011990812
1689140535279899700,0.799663365,-0.258573771,10.65180302,0.106052071,0.011724349,-0.016520673,-0.275333196,0.313640416,9.224859238,-0.103653908,0.022649311,-0.011990812
1689140535280899700,0.799663365,-0.260968,10.64940929,0.106052071,0.011724349,-0.016520673,-0.272938997,0.311246216,9.22725296,-0.103653908,0.022649311,-0.011724349
1689140535281899700,0.799663365,-0.260968,10.65180302,0.106052071,0.011724349,-0.016520673,-0.270544797,0.308852017,9.232041359,-0.103920363,0.022649311,-0.011724349
1689140535282899700,0.802057564,-0.260968,10.65659142,0.106052071,0.011724349,-0.016520673,-0.268150598,0.308852017,9.232041359,-0.103920363,0.022649311,-0.011724349
1689140535283899700,0.804451764,-0.258573771,10.65898609,0.106052071,0.011990812,-0.016520673,-0.268150598,0.308852017,9.229647636,-0.104186833,0.022649311,-0.011724349
1689140535284899700,0.804451764,-0.258573771,10.65898609,0.106052071,0.011990812,-0.016787136,-0.265756398,0.304063618,9.232041359,-0.104186833,0.022649311,-0.011457887
1689140535285899700,0.809240162,-0.258573771,10.66377449,0.106318533,0.011990812,-0.016787136,-0.265756398,0.304063618,9.229647636,-0.104186833,0.022382848,-0.011724349
1689140535286899700,0.809240162,-0.258573771,10.66377449,0.106052071,0.011990812,-0.016787136,-0.265756398,0.301669419,9.224859238,-0.104453288,0.022382848,-0.011724349
1689140535287899700,0.809240162,-0.260968,10.66137981,0.106052071,0.011990812,-0.016520673,-0.270544797,0.304063618,9.22725296,-0.104453288,0.022382848,-0.011990812
1689140535288899700,0.809240162,-0.263362199,10.66137981,0.106318533,0.011990812,-0.016520673,-0.275333196,0.306457818,9.224859238,-0.104453288,0.022116385,-0.011990812
1689140535289899700,0.806845963,-0.265756398,10.66137981,0.106318533,0.011724349,-0.016520673,-0.275333196,0.308852017,9.222464561,-0.104453288,0.022382848,-0.011990812
1689140535290899700,0.806845963,-0.265756398,10.66377449,0.106052071,0.011724349,-0.016254211,-0.272938997,0.308852017,9.217676163,-0.104453288,0.022382848,-0.011990812
1689140535361849500,0.794874966,-0.246602774,10.65659142,0.106052071,0.011724349,-0.016520673,-0.265756398,0.313640416,9.222464561,-0.104186833,0.022382848,-0.011724349
1689140535362849500,0.794874966,-0.248996973,10.65180302,0.106052071,0.011724349,-0.016520673,-0.263362199,0.313640416,9.217676163,-0.104453288,0.022116385,-0.011990812
1689140535363849500,0.797269166,-0.248996973,10.65180302,0.106318533,0.011724349,-0.016520673,-0.265756398,0.311246216,9.224859238,-0.104453288,0.022116385,-0.011990812
1689140535364849500,0.797269166,-0.246602774,10.64940929,0.106318533,0.011724349,-0.016520673,-0.268150598,0.311246216,9.234436035,-0.104719758,0.022116385,-0.011990812
1689140535365849500,0.799663365,-0.248996973,10.65180302,0.106318533,0.011724349,-0.016254211,-0.263362199,0.306457818,9.22725296,-0.104453288,0.021849923,-0.011990812
1689140535366849500,0.799663365,-0.248996973,10.65180302,0.106318533,0.011724349,-0.016254211,-0.265756398,0.306457818,9.217676163,-0.104719758,0.021849923,-0.011990812
1689140535367849500,0.799663365,-0.248996973,10.65419769,0.106584989,0.011724349,-0.016254211,-0.268150598,0.306457818,9.22725296,-0.104719758,0.022116385,-0.011990812
1689140535368849500,0.797269166,-0.248996973,10.65659142,0.106318533,0.011724349,-0.016254211,-0.272938997,0.311246216,9.229647636,-0.104453288,0.021849923,-0.011990812
1689140535369849500,0.797269166,-0.248996973,10.66137981,0.106318533,0.011724349,-0.016520673,-0.272938997,0.313640416,9.224859238,-0.104453288,0.021849923,-0.011990812
1689140535370849500,0.794874966,-0.248996973,10.66377449,0.106318533,0.011724349,-0.016520673,-0.272938997,0.313640416,9.220070839,-0.104453288,0.021849923,-0.011990812
1689140535371849500,0.797269166,-0.251391172,10.66377449,0.106318533,0.011724349,-0.016520673,-0.272938997,0.311246216,9.232041359,-0.104453288,0.021849923,-0.012257273
1689140535372849500,0.797269166,-0.251391172,10.66137981,0.106318533,0.011724349,-0.016254211,-0.270544797,0.304063618,9.234436035,-0.104186833,0.021316998,-0.012257273
1689140535373849500,0.797269166,-0.251391172,10.66377449,0.106052071,0.011724349,-0.016520673,-0.272938997,0.301669419,9.224859238,-0.104186833,0.021316998,-0.012523737
1689140535374849500,0.794874966,-0.251391172,10.66377449,0.106052071,0.011724349,-0.016520673,-0.272938997,0.304063618,9.222464561,-0.104186833,0.02158346,-0.012523737
1689140535375849500,0.792480767,-0.251391172,10.66377449,0.106052071,0.011724349,-0.016520673,-0.272938997,0.304063618,9.224859238,-0.104186833,0.02158346,-0.012257273
1689140535435804600,0.799663365,-0.248996973,10.64222622,0.105785601,0.011990812,-0.016520673,-0.280121595,0.316034615,9.239224434,-0.103920363,0.022915773,-0.012257273
1689140535436804600,0.799663365,-0.251391172,10.6398325,0.106052071,0.011990812,-0.016520673,-0.280121595,0.313640416,9.244012833,-0.103920363,0.022915773,-0.011990812
1689140535437804600,0.797269166,-0.253785372,10.63743782,0.106052071,0.011990812,-0.016520673,-0.277727395,0.313640416,9.244012833,-0.103920363,0.022649311,-0.012257273
1689140535438804600,0.797269166,-0.253785372,10.6398325,0.106052071,0.011990812,-0.016520673,-0.275333196,0.313640416,9.244012833,-0.103920363,0.022649311,-0.011990812
1689140535439804600,0.797269166,-0.253785372,10.64222622,0.106052071,0.011990812,-0.016520673,-0.277727395,0.313640416,9.244012833,-0.103920363,0.022649311,-0.011990812
1689140535440804600,0.797269166,-0.253785372,10.6398325,0.106052071,0.011990812,-0.016520673,-0.275333196,0.316034615,9.246406555,-0.104186833,0.022382848,-0.012257273
1689140535441804600,0.799663365,-0.251391172,10.6398325,0.106052071,0.011990812,-0.016254211,-0.275333196,0.316034615,9.244012833,-0.103920363,0.022382848,-0.011990812
1689140535442804600,0.799663365,-0.253785372,10.6398325,0.106052071,0.011990812,-0.016254211,-0.277727395,0.311246216,9.244012833,-0.103920363,0.022382848,-0.011990812
1689140535443804600,0.799663365,-0.253785372,10.64222622,0.106052071,0.011990812,-0.016254211,-0.277727395,0.308852017,9.241618156,-0.103920363,0.022382848,-0.012257273
1689140535444804600,0.799663365,-0.253785372,10.64940929,0.106052071,0.011990812,-0.016254211,-0.277727395,0.308852017,9.236829758,-0.103920363,0.022116385,-0.012257273
1689140535445804600,0.797269166,-0.256179571,10.65419769,0.106052071,0.011990812,-0.016254211,-0.275333196,0.311246216,9.234436035,-0.104186833,0.022116385,-0.011990812
1689140535446804600,0.797269166,-0.258573771,10.65419769,0.106052071,0.011990812,-0.016254211,-0.277727395,0.308852017,9.241618156,-0.104186833,0.022116385,-0.011990812
1689140535447804600,0.802057564,-0.258573771,10.65419769,0.106052071,0.011990812,-0.016254211,-0.277727395,0.311246216,9.236829758,-0.103920363,0.021849923,-0.011990812
1689140535448804600,0.804451764,-0.258573771,10.64940929,0.106052071,0.011990812,-0.016254211,-0.280121595,0.313640416,9.232041359,-0.104186833,0.022116385,-0.012257273
1689140535449804600,0.804451764,-0.258573771,10.64940929,0.106052071,0.011724349,-0.016254211,-0.284909993,0.316034615,9.236829758,-0.104186833,0.022116385,-0.011990812
1689140535624544400,0.797269166,-0.248996973,10.64701462,0.106318533,0.012257273,-0.016520673,-0.287304193,0.308852017,9.234436035,-0.103920363,0.022649311,-0.011990812
1689140535625544400,0.797269166,-0.251391172,10.64940929,0.106584989,0.012257273,-0.016520673,-0.287304193,0.308852017,9.236829758,-0.103920363,0.022382848,-0.012257273
1689140535626544400,0.794874966,-0.253785372,10.64701462,0.106584989,0.012257273,-0.016520673,-0.284909993,0.308852017,9.239224434,-0.103653908,0.022382848,-0.012257273
1689140535627544400,0.797269166,-0.256179571,10.64940929,0.106584989,0.012257273,-0.016787136,-0.282515794,0.308852017,9.234436035,-0.103920363,0.022382848,-0.012257273
1689140535628544400,0.794874966,-0.256179571,10.64940929,0.106584989,0.012257273,-0.016787136,-0.277727395,0.311246216,9.234436035,-0.103920363,0.022382848,-0.012257273
1689140535629544400,0.794874966,-0.253785372,10.64940929,0.106584989,0.012523737,-0.016787136,-0.277727395,0.308852017,9.232041359,-0.104186833,0.022382848,-0.011990812
1689140535630544400,0.797269166,-0.253785372,10.64701462,0.106584989,0.012257273,-0.016787136,-0.277727395,0.311246216,9.234436035,-0.104186833,0.022382848,-0.011990812
1689140535631544400,0.794874966,-0.256179571,10.64701462,0.106584989,0.012257273,-0.016787136,-0.275333196,0.311246216,9.236829758,-0.104186833,0.022382848,-0.011990812
1689140535632544400,0.797269166,-0.256179571,10.64222622,0.106584989,0.012257273,-0.016787136,-0.275333196,0.308852017,9.236829758,-0.104453288,0.022116385,-0.011990812
1689140535633544400,0.794874966,-0.256179571,10.6398325,0.106584989,0.011990812,-0.016787136,-0.277727395,0.306457818,9.236829758,-0.104186833,0.022116385,-0.011990812
1689140535634544400,0.797269166,-0.256179571,10.6398325,0.106318533,0.011990812,-0.016787136,-0.280121595,0.308852017,9.232041359,-0.104186833,0.022116385,-0.012257273
1689140535635544400,0.797269166,-0.256179571,10.64222622,0.106584989,0.012257273,-0.016787136,-0.280121595,0.308852017,9.229647636,-0.104186833,0.022116385,-0.011990812
1689140535636544400,0.799663365,-0.258573771,10.6446209,0.106318533,0.012257273,-0.016787136,-0.277727395,0.306457818,9.234436035,-0.104186833,0.022116385,-0.011990812
1689140535637544400,0.799663365,-0.258573771,10.6446209,0.106318533,0.012257273,-0.016787136,-0.277727395,0.306457818,9.236829758,-0.104186833,0.022116385,-0.011990812
1689140535638544400,0.797269166,-0.256179571,10.63743782,0.106318533,0.012257273,-0.016787136,-0.280121595,0.301669419,9.234436035,-0.104186833,0.022382848,-0.011990812
1689140535710495500,0.790086567,-0.256179571,10.64701462,0.105785601,0.011990812,-0.015987748,-0.275333196,0.301669419,9.217676163,-0.103920363,0.022382848,-0.011990812
1689140535711495500,0.790086567,-0.258573771,10.64222622,0.106052071,0.011990812,-0.016254211,-0.275333196,0.301669419,9.220070839,-0.103920363,0.022116385,-0.011990812
1689140535712495500,0.790086567,-0.253785372,10.6446209,0.106052071,0.011990812,-0.016254211,-0.275333196,0.299275219,9.224859238,-0.103920363,0.022116385,-0.011990812
1689140535713495500,0.790086567,-0.256179571,10.64701462,0.106052071,0.011990812,-0.016254211,-0.272938997,0.299275219,9.229647636,-0.103920363,0.022116385,-0.011990812
1689140535714495500,0.787692368,-0.253785372,10.64701462,0.105785601,0.011724349,-0.016254211,-0.270544797,0.301669419,9.234436035,-0.103920363,0.022116385,-0.011990812
1689140535715495500,0.787692368,-0.251391172,10.64701462,0.106052071,0.011724349,-0.016254211,-0.272938997,0.301669419,9.229647636,-0.103920363,0.021849923,-0.012257273
1689140535716495500,0.787692368,-0.251391172,10.64940929,0.106052071,0.011990812,-0.016520673,-0.272938997,0.299275219,9.22725296,-0.103920363,0.021849923,-0.012523737
1689140535717495500,0.792480767,-0.248996973,10.65180302,0.106052071,0.011990812,-0.016520673,-0.272938997,0.299275219,9.229647636,-0.103920363,0.021849923,-0.012523737
1689140535718495500,0.794874966,-0.251391172,10.65180302,0.106052071,0.011990812,-0.016520673,-0.272938997,0.304063618,9.22725296,-0.103920363,0.021849923,-0.012257273
1689140535719495500,0.794874966,-0.251391172,10.65180302,0.106052071,0.011990812,-0.016520673,-0.272938997,0.304063618,9.224859238,-0.103920363,0.021849923,-0.012257273
1689140535720495500,0.794874966,-0.251391172,10.65419769,0.106052071,0.011990812,-0.016520673,-0.272938997,0.306457818,9.222464561,-0.103920363,0.021849923,-0.012257273
1689140535721495500,0.790086567,-0.251391172,10.64940929,0.106052071,0.011990812,-0.016520673,-0.272938997,0.308852017,9.224859238,-0.103920363,0.021849923,-0.012257273
1689140535722495500,0.790086567,-0.251391172,10.65180302,0.106318533,0.011990812,-0.016254211,-0.275333196,0.306457818,9.22725296,-0.103653908,0.021849923,-0.011990812
1689140535723495500,0.790086567,-0.253785372,10.64701462,0.106318533,0.011990812,-0.016254211,-0.275333196,0.306457818,9.232041359,-0.103653908,0.02158346,-0.012257273
1689140535724495500,0.790086567,-0.256179571,10.6446209,0.106318533,0.011990812,-0.016254211,-0.277727395,0.306457818,9.236829758,-0.103653908,0.02158346,-0.012257273
1689140535779456200,0.799663365,-0.248996973,10.64222622,0.106318533,0.012257273,-0.016520673,-0.280121595,0.308852017,9.239224434,-0.104453288,0.022116385,-0.012523737
1689140535780456200,0.797269166,-0.251391172,10.64701462,0.106318533,0.012257273,-0.016520673,-0.280121595,0.306457818,9.239224434,-0.104453288,0.022382848,-0.012523737
1689140535781456200,0.797269166,-0.251391172,10.65180302,0.106318533,0.012257273,-0.016520673,-0.282515794,0.306457818,9.234436035,-0.104453288,0.022382848,-0.012523737
1689140535782456200,0.797269166,-0.253785372,10.64940929,0.106318533,0.012257273,-0.016520673,-0.282515794,0.306457818,9.232041359,-0.104186833,0.022116385,-0.012523737
1689140535783456200,0.794874966,-0.251391172,10.64701462,0.106052071,0.012257273,-0.016520673,-0.287304193,0.304063618,9.234436035,-0.104186833,0.022116385,-0.012523737
1689140535784456200,0.794874966,-0.253785372,10.64701462,0.106052071,0.011990812,-0.016520673,-0.287304193,0.301669419,9.232041359,-0.104186833,0.021849923,-0.012523737
1689140535785456200,0.794874966,-0.251391172,10.64940929,0.106052071,0.011990812,-0.016520673,-0.284909993,0.299275219,9.22725296,-0.104453288,0.021849923,-0.012790199
1689140535786456200,0.792480767,-0.253785372,10.6446209,0.106318533,0.012257273,-0.016520673,-0.282515794,0.299275219,9.22725296,-0.104453288,0.022116385,-0.012790199
1689140535787456200,0.792480767,-0.251391172,10.6446209,0.106318533,0.012257273,-0.016520673,-0.282515794,0.301669419,9.22725296,-0.104719758,0.021849923,-0.012790199
1689140535788456200,0.792480767,-0.251391172,10.65180302,0.106052071,0.011990812,-0.016520673,-0.280121595,0.304063618,9.229647636,-0.104719758,0.021849923,-0.012523737
1689140535789456200,0.792480767,-0.251391172,10.64940929,0.106318533,0.011990812,-0.016520673,-0.277727395,0.306457818,9.236829758,-0.104719758,0.021849923,-0.012523737
1689140535790456200,0.792480767,-0.251391172,10.64940929,0.106318533,0.011990812,-0.016520673,-0.280121595,0.308852017,9.234436035,-0.104453288,0.021849923,-0.012523737
1689140535791456200,0.792480767,-0.253785372,10.64701462,0.106318533,0.011990812,-0.016520673,-0.282515794,0.306457818,9.234436035,-0.104453288,0.02158346,-0.012257273
1689140535792456200,0.792480767,-0.253785372,10.64940929,0.106052071,0.011990812,-0.016520673,-0.280121595,0.311246216,9.232041359,-0.104719758,0.021849923,-0.012257273
1689140535793456200,0.792480767,-0.253785372,10.64701462,0.106052071,0.011990812,-0.016520673,-0.280121595,0.316034615,9.232041359,-0.104453288,0.022116385,-0.011990812
1689140535853435200,0.797269166,-0.251391172,10.65419769,0.106318533,0.012257273,-0.016520673,-0.268150598,0.306457818,9.236829758,-0.104453288,0.022116385,-0.011990812
1689140535854435200,0.797269166,-0.251391172,10.65659142,0.106052071,0.012257273,-0.016520673,-0.270544797,0.304063618,9.241618156,-0.104453288,0.022116385,-0.012257273
1689140535855435200,0.794874966,-0.251391172,10.65419769,0.106318533,0.011990812,-0.016520673,-0.270544797,0.301669419,9.241618156,-0.104453288,0.022382848,-0.012257273
1689140535856435200,0.799663365,-0.253785372,10.64940929,0.106052071,0.011724349,-0.016254211,-0.270544797,0.301669419,9.244012833,-0.104453288,0.022116385,-0.012257273
1689140535857435200,0.797269166,-0.256179571,10.64701462,0.106052071,0.011724349,-0.016254211,-0.268150598,0.301669419,9.241618156,-0.104453288,0.022116385,-0.012257273
1689140535858435200,0.799663365,-0.256179571,10.65419769,0.106052071,0.011990812,-0.016254211,-0.268150598,0.299275219,9.241618156,-0.104186833,0.022116385,-0.011990812
1689140535859435200,0.799663365,-0.251391172,10.65898609,0.105785601,0.011724349,-0.016254211,-0.263362199,0.299275219,9.239224434,-0.104186833,0.022116385,-0.011990812
1689140535860435200,0.799663365,-0.251391172,10.66137981,0.105785601,0.011724349,-0.016254211,-0.263362199,0.301669419,9.236829758,-0.104453288,0.022116385,-0.012257273
1689140535861435200,0.799663365,-0.253785372,10.65659142,0.105785601,0.011724349,-0.016254211,-0.260968,0.304063618,9.234436035,-0.104453288,0.022382848,-0.012257273
1689140535862435200,0.797269166,-0.253785372,10.65419769,0.105785601,0.011724349,-0.016520673,-0.260968,0.301669419,9.236829758,-0.104453288,0.022382848,-0.012257273
1689140535863435200,0.799663365,-0.256179571,10.65659142,0.105785601,0.011990812,-0.016520673,-0.260968,0.304063618,9.236829758,-0.104453288,0.022649311,-0.012257273
1689140535864435200,0.799663365,-0.253785372,10.65419769,0.105785601,0.011990812,-0.016520673,-0.263362199,0.306457818,9.236829758,-0.104453288,0.022382848,-0.011990812
1689140535865435200,0.799663365,-0.251391172,10.65659142,0.105785601,0.011990812,-0.016520673,-0.265756398,0.306457818,9.234436035,-0.104186833,0.022116385,-0.012257273
1689140535866435200,0.799663365,-0.251391172,10.65180302,0.105785601,0.011990812,-0.016520673,-0.263362199,0.306457818,9.234436035,-0.104186833,0.022116385,-0.012257273
1689140535867435200,0.799663365,-0.248996973,10.65419769,0.105785601,0.011990812,-0.016520673,-0.265756398,0.308852017,9.234436035,-0.104186833,0.021849923,-0.012257273
1689140535930368900,0.799663365,-0.256179571,10.63743782,0.105785601,0.011990812,-0.016787136,-0.275333196,0.308852017,9.251194954,-0.103920363,0.022116385,-0.011990812
1689140535931368900,0.799663365,-0.253785372,10.63743782,0.105785601,0.011990812,-0.016787136,-0.277727395,0.308852017,9.248801231,-0.103920363,0.022116385,-0.011724349
1689140535932368900,0.799663365,-0.256179571,10.6398325,0.106052071,0.012257273,-0.016520673,-0.275333196,0.308852017,9.251194954,-0.103920363,0.022116385,-0.011724349
1689140535933368900,0.797269166,-0.258573771,10.6398325,0.105785601,0.011990812,-0.016520673,-0.272938997,0.306457818,9.25358963,-0.103920363,0.022116385,-0.011724349
1689140535934368900,0.799663365,-0.260968,10.6350441,0.105785601,0.011990812,-0.016520673,-0.270544797,0.306457818,9.255983353,-0.103920363,0.022116385,-0.011724349
1689140535935368900,0.799663365,-0.256179571,10.6302557,0.105785601,0.011990812,-0.016520673,-0.272938997,0.304063618,9.248801231,-0.103920363,0.022116385,-0.011724349
1689140535936368900,0.799663365,-0.253785372,10.6302557,0.105785601,0.011724349,-0.016520673,-0.275333196,0.301669419,9.246406555,-0.103653908,0.022116385,-0.011724349
1689140535937368900,0.797269166,-0.253785372,10.63264942,0.106052071,0.011724349,-0.016787136,-0.275333196,0.301669419,9.246406555,-0.103920363,0.022382848,-0.011724349
1689140535938368900,0.797269166,-0.253785372,10.63743782,0.106052071,0.011724349,-0.016787136,-0.275333196,0.301669419,9.244012833,-0.103920363,0.022382848,-0.011724349
1689140535939368900,0.799663365,-0.251391172,10.6398325,0.106052071,0.011724349,-0.016787136,-0.272938997,0.299275219,9.241618156,-0.103920363,0.022382848,-0.011724349
1689140535940368900,0.799663365,-0.253785372,10.64222622,0.106318533,0.011724349,-0.016520673,-0.270544797,0.301669419,9.248801231,-0.103920363,0.022116385,-0.011724349
1689140535941368900,0.804451764,-0.253785372,10.63743782,0.106052071,0.011457887,-0.016520673,-0.270544797,0.301669419,9.25358963,-0.103920363,0.022382848,-0.011457887
1689140535942368900,0.804451764,-0.256179571,10.63743782,0.106318533,0.011724349,-0.016520673,-0.270544797,0.299275219,9.25358963,-0.103653908,0.022382848,-0.011457887
1689140535943368900,0.804451764,-0.253785372,10.63743782,0.106318533,0.011457887,-0.016520673,-0.270544797,0.299275219,9.251194954,-0.103653908,0.022382848,-0.011990812
1689140535944368900,0.804451764,-0.256179571,10.6350441,0.106052071,0.011724349,-0.016520673,-0.268150598,0.301669419,9.251194954,-0.103653908,0.022382848,-0.011724349
1689140536010346200,0.797269166,-0.248996973,10.6446209,0.106318533,0.011990812,-0.016520673,-0.272938997,0.304063618,9.229647636,-0.104186833,0.022382848,-0.012257273
1689140536011346200,0.794874966,-0.251391172,10.6446209,0.106052071,0.011990812,-0.016520673,-0.277727395,0.308852017,9.232041359,-0.104453288,0.022116385,-0.012257273
1689140536012346200,0.794874966,-0.251391172,10.64701462,0.105785601,0.011990812,-0.016520673,-0.280121595,0.311246216,9.224859238,-0.104453288,0.022116385,-0.012257273
1689140536013346200,0.792480767,-0.248996973,10.6446209,0.105785601,0.011990812,-0.016254211,-0.282515794,0.311246216,9.22725296,-0.104186833,0.022649311,-0.012257273
1689140536014346200,0.792480767,-0.248996973,10.64222622,0.105785601,0.011990812,-0.016520673,-0.280121595,0.308852017,9.229647636,-0.104186833,0.022915773,-0.012257273
1689140536015346200,0.794874966,-0.248996973,10.6446209,0.106052071,0.011990812,-0.016254211,-0.277727395,0.308852017,9.229647636,-0.104186833,0.022915773,-0.012257273
1689140536016346200,0.794874966,-0.248996973,10.64222622,0.106052071,0.011990812,-0.016254211,-0.272938997,0.308852017,9.229647636,-0.104453288,0.023182238,-0.011990812
1689140536017346200,0.797269166,-0.248996973,10.64222622,0.106052071,0.011990812,-0.016254211,-0.272938997,0.308852017,9.22725296,-0.104453288,0.022915773,-0.012257273
1689140536018346200,0.799663365,-0.251391172,10.64701462,0.106052071,0.011990812,-0.016254211,-0.275333196,0.308852017,9.229647636,-0.104186833,0.022915773,-0.012257273
1689140536019346200,0.799663365,-0.253785372,10.6398325,0.106052071,0.011990812,-0.016254211,-0.277727395,0.306457818,9.232041359,-0.104186833,0.022915773,-0.012257273
1689140536020346200,0.797269166,-0.256179571,10.6398325,0.106052071,0.011724349,-0.016254211,-0.275333196,0.304063618,9.232041359,-0.104186833,0.022915773,-0.011990812
1689140536021346200,0.797269166,-0.256179571,10.6398325,0.106052071,0.011990812,-0.015987748,-0.275333196,0.304063618,9.232041359,-0.104186833,0.022915773,-0.011990812
1689140536022346200,0.799663365,-0.256179571,10.6302557,0.106052071,0.011724349,-0.016254211,-0.277727395,0.306457818,9.22725296,-0.104186833,0.022649311,-0.011990812
1689140536023346200,0.804451764,-0.256179571,10.6398325,0.106052071,0.011724349,-0.016254211,-0.277727395,0.306457818,9.22725296,-0.104186833,0.022915773,-0.011990812
1689140536024346200,0.802057564,-0.253785372,10.64222622,0.106052071,0.011457887,-0.016254211,-0.277727395,0.308852017,9.22725296,-0.104186833,0.022649311,-0.011990812
1689140536080294200,0.802057564,-0.244208574,10.62786102,0.105785601,0.011990812,-0.015987748,-0.277727395,0.306457818,9.236829758,-0.103920363,0.022649311,-0.012257273
1689140536081294200,0.799663365,-0.244208574,10.62786102,0.105785601,0.011990812,-0.015987748,-0.280121595,0.304063618,9.236829758,-0.103920363,0.022382848,-0.011990812
1689140536082294200,0.799663365,-0.246602774,10.62786102,0.105785601,0.011990812,-0.015987748,-0.277727395,0.304063618,9.239224434,-0.103920363,0.022382848,-0.011990812
1689140536083294200,0.802057564,-0.246602774,10.6254673,0.105785601,0.012257273,-0.015987748,-0.275333196,0.306457818,9.241618156,-0.104186833,0.022116385,-0.011990812
1689140536084294200,0.802057564,-0.244208574,10.62786102,0.105785601,0.011990812,-0.015987748,-0.275333196,0.306457818,9.239224434,-0.104186833,0.022116385,-0.011990812
1689140536085294200,0.802057564,-0.244208574,10.6302557,0.105785601,0.011724349,-0.015721286,-0.275333196,0.308852017,9.239224434,-0.104186833,0.022116385,-0.011990812
1689140536086294200,0.802057564,-0.246602774,10.62786102,0.105785601,0.011724349,-0.015987748,-0.275333196,0.311246216,9.241618156,-0.103920363,0.022382848,-0.011990812
1689140536087294200,0.802057564,-0.246602774,10.6302557,0.106052071,0.011457887,-0.015721286,-0.275333196,0.311246216,9.248801231,-0.103920363,0.022382848,-0.011990812
1689140536088294200,0.797269166,-0.246602774,10.62786102,0.105785601,0.011457887,-0.015721286,-0.277727395,0.313640416,9.248801231,-0.103920363,0.022382848,-0.011990812
1689140536089294200,0.794874966,-0.246602774,10.63264942,0.105785601,0.011457887,-0.015987748,-0.280121595,0.311246216,9.248801231,-0.103920363,0.022382848,-0.011990812
1689140536090294200,0.794874966,-0.244208574,10.63743782,0.105785601,0.011457887,-0.015987748,-0.280121595,0.313640416,9.248801231,-0.103920363,0.022116385,-0.011990812
1689140536091294200,0.794874966,-0.244208574,10.6398325,0.106052071,0.011724349,-0.015987748,-0.277727395,0.308852017,9.246406555,-0.103920363,0.022116385,-0.012257273
1689140536092294200,0.790086567,-0.246602774,10.6398325,0.106052071,0.011457887,-0.015987748,-0.277727395,0.304063618,9.251194954,-0.103920363,0.022116385,-0.012257273
1689140536093294200,0.792480767,-0.251391172,10.63743782,0.105785601,0.011457887,-0.016254211,-0.280121595,0.304063618,9.251194954,-0.103653908,0.022116385,-0.011990812
1689140536094294200,0.792480767,-0.248996973,10.63743782,0.105785601,0.011457887,-0.015987748,-0.280121595,0.301669419,9.248801231,-0.103920363,0.022116385,-0.012257273
1689140536149243600,0.799663365,-0.248996973,10.6446209,0.106052071,0.011990812,-0.016787136,-0.280121595,0.304063618,9.229647636,-0.104453288,0.022116385,-0.011724349
1689140536150243600,0.797269166,-0.246602774,10.6398325,0.106052071,0.011990812,-0.016787136,-0.282515794,0.301669419,9.229647636,-0.104453288,0.022116385,-0.011724349
1689140536151243600,0.799663365,-0.246602774,10.64222622,0.106052071,0.011990812,-0.016787136,-0.282515794,0.299275219,9.232041359,-0.104453288,0.022116385,-0.011990812
1689140536152243600,0.799663365,-0.248996973,10.63743782,0.106052071,0.011990812,-0.016787136,-0.282515794,0.299275219,9.232041359,-0.104453288,0.022116385,-0.011724349
1689140536153243600,0.799663365,-0.248996973,10.63743782,0.106052071,0.012257273,-0.016787136,-0.280121595,0.29688102,9.232041359,-0.104453288,0.022116385,-0.011724349
1689140536154243600,0.797269166,-0.253785372,10.6398325,0.106318533,0.011990812,-0.017053599,-0.277727395,0.294486821,9.232041359,-0.104453288,0.022116385,-0.011724349
1689140536155243600,0.797269166,-0.253785372,10.6350441,0.106318533,0.011990812,-0.016787136,-0.277727395,0.294486821,9.232041359,-0.104719758,0.022116385,-0.011724349
1689140536156243600,0.799663365,-0.251391172,10.6350441,0.106318533,0.011990812,-0.016787136,-0.275333196,0.299275219,9.229647636,-0.104453288,0.022116385,-0.011990812
1689140536157243600,0.799663365,-0.248996973,10.6398325,0.106318533,0.011990812,-0.016787136,-0.275333196,0.301669419,9.229647636,-0.104719758,0.022116385,-0.011990812
1689140536158243600,0.802057564,-0.248996973,10.6398325,0.106318533,0.011990812,-0.016787136,-0.277727395,0.304063618,9.229647636,-0.104719758,0.022116385,-0.011724349
1689140536159243600,0.799663365,-0.248996973,10.6398325,0.106052071,0.011990812,-0.016787136,-0.277727395,0.301669419,9.229647636,-0.104453288,0.022382848,-0.011724349
1689140536160243600,0.797269166,-0.248996973,10.63743782,0.106052071,0.011990812,-0.016787136,-0.275333196,0.304063618,9.232041359,-0.104453288,0.022382848,-0.011724349
1689140536161243600,0.797269166,-0.248996973,10.63743782,0.106052071,0.011724349,-0.016520673,-0.272938997,0.304063618,9.234436035,-0.104186833,0.022382848,-0.011724349
1689140536162243600,0.797269166,-0.246602774,10.63743782,0.106052071,0.011990812,-0.016520673,-0.272938997,0.304063618,9.236829758,-0.104186833,0.022116385,-0.011457887
1689140536163243600,0.797269166,-0.244208574,10.6398325,0.106052071,0.011724349,-0.016520673,-0.272938997,0.304063618,9.241618156,-0.104186833,0.022116385,-0.011724349
1689140536219204600,0.797269166,-0.251391172,10.65419769,0.106052071,0.012257273,-0.016520673,-0.275333196,0.308852017,9.222464561,-0.104453288,0.022382848,-0.012257273
1689140536220204600,0.797269166,-0.253785372,10.64940929,0.106052071,0.012257273,-0.016254211,-0.277727395,0.304063618,9.22725296,-0.104453288,0.022382848,-0.012257273
1689140536221204600,0.797269166,-0.251391172,10.65419769,0.106052071,0.011990812,-0.016520673,-0.277727395,0.304063618,9.229647636,-0.104186833,0.022382848,-0.012257273
1689140536222204600,0.797269166,-0.253785372,10.64940929,0.106052071,0.011990812,-0.016787136,-0.277727395,0.306457818,9.234436035,-0.104186833,0.022382848,-0.012257273
1689140536223204600,0.794874966,-0.253785372,10.64701462,0.106052071,0.011990812,-0.016520673,-0.275333196,0.306457818,9.234436035,-0.104453288,0.022382848,-0.011990812
1689140536224204600,0.794874966,-0.251391172,10.6398325,0.106318533,0.012257273,-0.016520673,-0.277727395,0.306457818,9.239224434,-0.104453288,0.022382848,-0.011990812
1689140536225204600,0.797269166,-0.246602774,10.63743782,0.106052071,0.012257273,-0.016520673,-0.282515794,0.306457818,9.239224434,-0.104186833,0.022382848,-0.011990812
1689140536226204600,0.797269166,-0.244208574,10.6398325,0.106052071,0.012523737,-0.016520673,-0.280121595,0.304063618,9.241618156,-0.104186833,0.022382848,-0.011990812
1689140536227204600,0.797269166,-0.244208574,10.6350441,0.106052071,0.012257273,-0.016520673,-0.277727395,0.301669419,9.241618156,-0.104453288,0.022649311,-0.011990812
1689140536228204600,0.794874966,-0.246602774,10.6350441,0.106318533,0.012257273,-0.016787136,-0.275333196,0.304063618,9.239224434,-0.104186833,0.022382848,-0.011990812
1689140536229204600,0.794874966,-0.246602774,10.6350441,0.106318533,0.012257273,-0.016520673,-0.272938997,0.306457818,9.234436035,-0.104453288,0.022382848,-0.011990812
1689140536230204600,0.792480767,-0.248996973,10.63743782,0.106052071,0.011990812,-0.016520673,-0.270544797,0.306457818,9.236829758,-0.104453288,0.022382848,-0.012257273
1689140536231204600,0.794874966,-0.248996973,10.6398325,0.106318533,0.011990812,-0.016520673,-0.268150598,0.308852017,9.236829758,-0.104453288,0.022382848,-0.012257273
1689140536232204600,0.792480767,-0.251391172,10.63743782,0.106318533,0.011724349,-0.016520673,-0.265756398,0.311246216,9.234436035,-0.104453288,0.022382848,-0.012257273
1689140536233204600,0.792480767,-0.253785372,10.6350441,0.106318533,0.011990812,-0.016254211,-0.265756398,0.308852017,9.232041359,-0.104453288,0.022116385,-0.011990812
1689140536295159900,0.794874966,-0.258573771,10.64940929,0.106318533,0.012257273,-0.016787136,-0.270544797,0.306457818,9.232041359,-0.104186833,0.022382848,-0.011724349
1689140536296159900,0.794874966,-0.260968,10.64940929,0.106318533,0.012257273,-0.016787136,-0.270544797,0.306457818,9.234436035,-0.104453288,0.022382848,-0.011724349
1689140536297159900,0.792480767,-0.258573771,10.64701462,0.106318533,0.012257273,-0.016787136,-0.272938997,0.306457818,9.232041359,-0.104186833,0.022116385,-0.011724349
1689140536298159900,0.794874966,-0.258573771,10.64940929,0.106318533,0.012257273,-0.016787136,-0.272938997,0.306457818,9.236829758,-0.104186833,0.022116385,-0.011724349
1689140536299159900,0.797269166,-0.256179571,10.6446209,0.106318533,0.012257273,-0.016787136,-0.272938997,0.306457818,9.241618156,-0.103920363,0.022116385,-0.011724349
1689140536300159900,0.799663365,-0.256179571,10.6446209,0.106318533,0.011990812,-0.016520673,-0.275333196,0.308852017,9.241618156,-0.104186833,0.022116385,-0.011724349
1689140536301159900,0.799663365,-0.256179571,10.64222622,0.106052071,0.011990812,-0.016787136,-0.272938997,0.311246216,9.244012833,-0.103920363,0.021849923,-0.011990812
1689140536302159900,0.802057564,-0.256179571,10.6446209,0.106318533,0.011724349,-0.016787136,-0.272938997,0.308852017,9.244012833,-0.104186833,0.021849923,-0.011990812
1689140536303159900,0.802057564,-0.258573771,10.6446209,0.106318533,0.011724349,-0.016520673,-0.275333196,0.308852017,9.241618156,-0.104186833,0.022116385,-0.011990812
1689140536304159900,0.802057564,-0.256179571,10.6446209,0.106318533,0.011457887,-0.016520673,-0.275333196,0.308852017,9.241618156,-0.103920363,0.022116385,-0.011990812
1689140536305159900,0.802057564,-0.256179571,10.64222622,0.106584989,0.011457887,-0.016254211,-0.277727395,0.306457818,9.236829758,-0.103920363,0.022116385,-0.011990812
1689140536306159900,0.799663365,-0.256179571,10.6446209,0.106318533,0.011724349,-0.016254211,-0.277727395,0.306457818,9.232041359,-0.103920363,0.022116385,-0.011990812
1689140536307159900,0.802057564,-0.256179571,10.64701462,0.106318533,0.011724349,-0.016520673,-0.277727395,0.306457818,9.229647636,-0.103920363,0.021849923,-0.011990812
1689140536308159900,0.799663365,-0.256179571,10.65180302,0.106318533,0.011724349,-0.016520673,-0.277727395,0.308852017,9.232041359,-0.103920363,0.021849923,-0.011990812
1689140536309159900,0.797269166,-0.256179571,10.64940929,0.106318533,0.011724349,-0.016520673,-0.275333196,0.308852017,9.234436035,-0.103920363,0.022116385,-0.011724349
1689140536372116200,0.799663365,-0.248996973,10.6446209,0.106052071,0.012257273,-0.016520673,-0.268150598,0.301669419,9.246406555,-0.104186833,0.021849923,-0.012257273
1689140536373116200,0.799663365,-0.253785372,10.64222622,0.106052071,0.012257273,-0.016520673,-0.268150598,0.301669419,9.246406555,-0.103920363,0.021849923,-0.012257273
1689140536374116200,0.799663365,-0.251391172,10.64222622,0.106052071,0.011990812,-0.016520673,-0.268150598,0.301669419,9.246406555,-0.103920363,0.022116385,-0.012523737
1689140536375116200,0.802057564,-0.251391172,10.64222622,0.106052071,0.012257273,-0.016520673,-0.270544797,0.301669419,9.241618156,-0.103920363,0.021849923,-0.012257273
1689140536376116200,0.802057564,-0.251391172,10.6398325,0.106052071,0.011990812,-0.016520673,-0.270544797,0.301669419,9.246406555,-0.104186833,0.021849923,-0.012257273
1689140536377116200,0.802057564,-0.251391172,10.64222622,0.106052071,0.011990812,-0.016520673,-0.270544797,0.304063618,9.246406555,-0.103920363,0.021849923,-0.012523737
1689140536378116200,0.799663365,-0.251391172,10.64222622,0.106318533,0.011990812,-0.016520673,-0.268150598,0.304063618,9.248801231,-0.104186833,0.021849923,-0.012257273
1689140536379116200,0.797269166,-0.251391172,10.6446209,0.106318533,0.011990812,-0.016520673,-0.268150598,0.304063618,9.251194954,-0.104186833,0.021849923,-0.012257273
1689140536380116200,0.797269166,-0.251391172,10.64701462,0.106318533,0.011990812,-0.016520673,-0.265756398,0.306457818,9.248801231,-0.104186833,0.021849923,-0.012257273
1689140536381116200,0.799663365,-0.253785372,10.64701462,0.106318533,0.011724349,-0.016520673,-0.263362199,0.304063618,9.251194954,-0.104186833,0.021849923,-0.012257273
1689140536382116200,0.799663365,-0.251391172,10.64940929,0.106318533,0.011990812,-0.016254211,-0.263362199,0.304063618,9.248801231,-0.104186833,0.021849923,-0.012257273
1689140536383116200,0.797269166,-0.248996973,10.65180302,0.106318533,0.011990812,-0.016254211,-0.263362199,0.304063618,9.248801231,-0.104453288,0.021849923,-0.012257273
1689140536384116200,0.792480767,-0.251391172,10.65659142,0.106318533,0.011990812,-0.016254211,-0.265756398,0.304063618,9.246406555,-0.104453288,0.021849923,-0.012257273
1689140536385116200,0.794874966,-0.253785372,10.65419769,0.106318533,0.011990812,-0.016254211,-0.263362199,0.301669419,9.246406555,-0.104186833,0.021849923,-0.012257273
1689140536386116200,0.792480767,-0.251391172,10.65898609,0.106584989,0.012257273,-0.015987748,-0.263362199,0.301669419,9.244012833,-0.104186833,0.022116385,-0.011990812
1689140536448072500,0.806845963,-0.251391172,10.65180302,0.106318533,0.011724349,-0.016520673,-0.275333196,0.313640416,9.241618156,-0.103920363,0.02158346,-0.012523737
1689140536449072500,0.806845963,-0.253785372,10.65898609,0.106318533,0.011990812,-0.016520673,-0.277727395,0.313640416,9.236829758,-0.103920363,0.02158346,-0.012257273
1689140536450072500,0.809240162,-0.253785372,10.66137981,0.106318533,0.011990812,-0.016520673,-0.275333196,0.313640416,9.236829758,-0.103920363,0.02158346,-0.012257273
1689140536451072500,0.806845963,-0.256179571,10.66137981,0.106318533,0.011724349,-0.016520673,-0.270544797,0.313640416,9.239224434,-0.103920363,0.02158346,-0.012257273
1689140536452072500,0.809240162,-0.256179571,10.65898609,0.106318533,0.011724349,-0.016520673,-0.272938997,0.313640416,9.236829758,-0.104186833,0.02158346,-0.012257273
1689140536453072500,0.809240162,-0.256179571,10.65180302,0.106052071,0.011724349,-0.016520673,-0.270544797,0.313640416,9.236829758,-0.103920363,0.02158346,-0.012257273
1689140536454072500,0.809240162,-0.258573771,10.65180302,0.106052071,0.011724349,-0.016787136,-0.272938997,0.311246216,9.239224434,-0.103920363,0.02158346,-0.012257273
1689140536455072500,0.806845963,-0.256179571,10.65419769,0.106052071,0.011724349,-0.016787136,-0.272938997,0.311246216,9.239224434,-0.103920363,0.02158346,-0.012257273
1689140536456072500,0.806845963,-0.256179571,10.65180302,0.106052071,0.011724349,-0.016520673,-0.272938997,0.308852017,9.236829758,-0.103920363,0.021849923,-0.012257273
1689140536457072500,0.806845963,-0.253785372,10.64940929,0.106052071,0.011990812,-0.016520673,-0.272938997,0.308852017,9.239224434,-0.103920363,0.021849923,-0.012257273
1689140536458072500,0.804451764,-0.248996973,10.64701462,0.106318533,0.011724349,-0.016787136,-0.272938997,0.308852017,9.234436035,-0.103653908,0.021849923,-0.012523737
1689140536459072500,0.804451764,-0.248996973,10.64940929,0.106318533,0.011724349,-0.016787136,-0.275333196,0.306457818,9.232041359,-0.103653908,0.021849923,-0.012523737
1689140536460072500,0.804451764,-0.248996973,10.64940929,0.106318533,0.011724349,-0.016787136,-0.277727395,0.306457818,9.22725296,-0.103920363,0.021849923,-0.012523737
1689140536461072500,0.804451764,-0.253785372,10.64940929,0.106052071,0.011990812,-0.016520673,-0.280121595,0.306457818,9.224859238,-0.103920363,0.022116385,-0.012523737
1689140536462072500,0.802057564,-0.251391172,10.64701462,0.106052071,0.011990812,-0.016520673,-0.280121595,0.304063618,9.224859238,-0.103920363,0.022116385,-0.012790199
1689140536526028100,0.799663365,-0.258573771,10.6446209,0.106318533,0.011724349,-0.016254211,-0.270544797,0.301669419,9.236829758,-0.104186833,0.021849923,-0.011990812
1689140536527028100,0.797269166,-0.256179571,10.64940929,0.106318533,0.011724349,-0.016254211,-0.272938997,0.299275219,9.239224434,-0.104186833,0.022116385,-0.011990812
1689140536528028100,0.799663365,-0.256179571,10.65419769,0.106318533,0.011724349,-0.016254211,-0.272938997,0.299275219,9.236829758,-0.103920363,0.022116385,-0.011990812
1689140536529028100,0.802057564,-0.256179571,10.65659142,0.106318533,0.011990812,-0.016254211,-0.270544797,0.304063618,9.234436035,-0.104186833,0.022382848,-0.011990812
1689140536530028100,0.802057564,-0.258573771,10.65659142,0.106318533,0.011990812,-0.016254211,-0.272938997,0.306457818,9.232041359,-0.104186833,0.022382848,-0.011990812
1689140536531028100,0.802057564,-0.256179571,10.66137981,0.106318533,0.011990812,-0.016254211,-0.272938997,0.304063618,9.229647636,-0.104186833,0.022116385,-0.011990812
1689140536532028100,0.802057564,-0.253785372,10.65898609,0.106318533,0.011990812,-0.016254211,-0.275333196,0.306457818,9.232041359,-0.103920363,0.022116385,-0.011990812
1689140536533028100,0.802057564,-0.256179571,10.65180302,0.106318533,0.011990812,-0.016254211,-0.275333196,0.308852017,9.232041359,-0.103653908,0.021849923,-0.011990812
1689140536534028100,0.802057564,-0.256179571,10.65419769,0.106318533,0.011990812,-0.016254211,-0.272938997,0.308852017,9.229647636,-0.103653908,0.021849923,-0.012523737
1689140536535028100,0.799663365,-0.253785372,10.65659142,0.106318533,0.012257273,-0.016520673,-0.270544797,0.306457818,9.229647636,-0.103653908,0.021849923,-0.012257273
1689140536536028100,0.799663365,-0.256179571,10.65180302,0.106318533,0.012257273,-0.016520673,-0.270544797,0.306457818,9.232041359,-0.103653908,0.021849923,-0.012257273
1689140536537028100,0.799663365,-0.253785372,10.65180302,0.106584989,0.012257273,-0.016520673,-0.270544797,0.306457818,9.232041359,-0.103920363,0.022116385,-0.012257273
1689140536538028100,0.797269166,-0.256179571,10.64940929,0.106318533,0.012257273,-0.016520673,-0.268150598,0.304063618,9.234436035,-0.103920363,0.022116385,-0.012257273
1689140536539028100,0.799663365,-0.256179571,10.6446209,0.106318533,0.011990812,-0.016520673,-0.268150598,0.304063618,9.236829758,-0.103920363,0.022116385,-0.012257273
1689140536540028100,0.799663365,-0.256179571,10.64222622,0.106318533,0.012257273,-0.016520673,-0.268150598,0.301669419,9.236829758,-0.103920363,0.022116385,-0.012257273
1689140536593993100,0.799663365,-0.260968,10.63264942,0.106052071,0.011990812,-0.016520673,-0.275333196,0.320823014,9.244012833,-0.104186833,0.022116385,-0.011457887
1689140536594993100,0.799663365,-0.260968,10.6350441,0.106052071,0.011990812,-0.016520673,-0.275333196,0.318428814,9.241618156,-0.104186833,0.022116385,-0.011724349
1689140536595993100,0.802057564,-0.263362199,10.64222622,0.106052071,0.011990812,-0.016520673,-0.272938997,0.318428814,9.236829758,-0.104186833,0.022116385,-0.011724349
1689140536596993100,0.797269166,-0.263362199,10.6398325,0.106052071,0.011990812,-0.016520673,-0.272938997,0.316034615,9.234436035,-0.104453288,0.022382848,-0.011724349
1689140536597993100,0.797269166,-0.263362199,10.63743782,0.106318533,0.011990812,-0.016520673,-0.270544797,0.316034615,9.236829758,-0.104453288,0.022116385,-0.011724349
1689140536598993100,0.799663365,-0.260968,10.6446209,0.106318533,0.011990812,-0.016787136,-0.265756398,0.318428814,9.236829758,-0.104719758,0.022116385,-0.011990812
1689140536599993100,0.802057564,-0.260968,10.64222622,0.106318533,0.011990812,-0.016787136,-0.268150598,0.318428814,9.232041359,-0.104453288,0.022382848,-0.011990812
1689140536600993100,0.802057564,-0.258573771,10.63743782,0.106052071,0.011990812,-0.016787136,-0.268150598,0.318428814,9.236829758,-0.104453288,0.022649311,-0.011990812
1689140536601993100,0.799663365,-0.258573771,10.63264942,0.106052071,0.011990812,-0.016787136,-0.268150598,0.318428814,9.236829758,-0.104453288,0.022382848,-0.011990812
1689140536602993100,0.799663365,-0.258573771,10.63264942,0.106052071,0.012257273,-0.016787136,-0.268150598,0.313640416,9.236829758,-0.104453288,0.022116385,-0.012257273
1689140536603993100,0.797269166,-0.258573771,10.6350441,0.106052071,0.012257273,-0.017053599,-0.268150598,0.311246216,9.236829758,-0.104453288,0.022116385,-0.011990812
1689140536604993100,0.797269166,-0.256179571,10.63264942,0.106052071,0.012257273,-0.016787136,-0.268150598,0.311246216,9.239224434,-0.104186833,0.022116385,-0.011990812
1689140536605993100,0.799663365,-0.258573771,10.63264942,0.106052071,0.012257273,-0.016787136,-0.270544797,0.311246216,9.236829758,-0.104186833,0.022116385,-0.011990812
1689140536606993100,0.799663365,-0.258573771,10.6302557,0.106052071,0.012257273,-0.016520673,-0.270544797,0.313640416,9.239224434,-0.104453288,0.022116385,-0.012257273
1689140536607993100,0.802057564,-0.256179571,10.6350441,0.106052071,0.011990812,-0.016787136,-0.272938997,0.311246216,9.239224434,-0.104453288,0.022116385,-0.012257273
1689140536662951700,0.794874966,-0.246602774,10.65419769,0.106052071,0.011724349,-0.016520673,-0.275333196,0.304063618,9.239224434,-0.104719758,0.022382848,-0.012257273
1689140536663951700,0.794874966,-0.246602774,10.64701462,0.106052071,0.011724349,-0.016520673,-0.275333196,0.301669419,9.234436035,-0.104719758,0.022116385,-0.011990812
1689140536664951700,0.794874966,-0.248996973,10.65419769,0.106052071,0.011990812,-0.016520673,-0.275333196,0.304063618,9.236829758,-0.104719758,0.022382848,-0.012257273
1689140536665951700,0.794874966,-0.248996973,10.65419769,0.106052071,0.011990812,-0.016520673,-0.275333196,0.308852017,9.234436035,-0.104719758,0.022382848,-0.011990812
1689140536666951700,0.794874966,-0.248996973,10.65180302,0.106052071,0.011990812,-0.016520673,-0.272938997,0.308852017,9.234436035,-0.104719758,0.022382848,-0.011990812
1689140536667951700,0.799663365,-0.244208574,10.65180302,0.106052071,0.011990812,-0.016520673,-0.272938997,0.308852017,9.236829758,-0.104453288,0.022649311,-0.011990812
1689140536668951700,0.799663365,-0.244208574,10.65659142,0.106052071,0.011990812,-0.016520673,-0.272938997,0.308852017,9.241618156,-0.104719758,0.022649311,-0.011990812
1689140536669951700,0.799663365,-0.244208574,10.65898609,0.105785601,0.011990812,-0.016254211,-0.272938997,0.308852017,9.244012833,-0.104453288,0.022649311,-0.011990812
1689140536670951700,0.802057564,-0.244208574,10.65898609,0.106052071,0.011990812,-0.016254211,-0.272938997,0.308852017,9.244012833,-0.104453288,0.022382848,-0.011990812
1689140536671951700,0.804451764,-0.246602774,10.65898609,0.105785601,0.011990812,-0.016520673,-0.272938997,0.311246216,9.246406555,-0.104453288,0.022116385,-0.011990812
1689140536672951700,0.802057564,-0.244208574,10.65180302,0.106052071,0.012257273,-0.016520673,-0.277727395,0.313640416,9.246406555,-0.104186833,0.022116385,-0.011990812
1689140536673951700,0.802057564,-0.244208574,10.64940929,0.105785601,0.012257273,-0.016520673,-0.277727395,0.313640416,9.248801231,-0.104453288,0.022116385,-0.011724349
1689140536674951700,0.802057564,-0.246602774,10.65180302,0.105785601,0.012523737,-0.016520673,-0.277727395,0.313640416,9.248801231,-0.104186833,0.022382848,-0.011990812
1689140536675951700,0.802057564,-0.251391172,10.65419769,0.105785601,0.012257273,-0.016520673,-0.275333196,0.313640416,9.248801231,-0.104186833,0.022382848,-0.011724349
1689140536676951700,0.802057564,-0.248996973,10.65180302,0.106052071,0.011990812,-0.016520673,-0.270544797,0.311246216,9.241618156,-0.104186833,0.022382848,-0.011457887
1689140536731910200,0.792480767,-0.258573771,10.64701462,0.106052071,0.011724349,-0.016787136,-0.272938997,0.306457818,9.241618156,-0.104186833,0.022649311,-0.011724349
1689140536732910200,0.792480767,-0.258573771,10.64940929,0.106052071,0.011990812,-0.016787136,-0.272938997,0.306457818,9.244012833,-0.104186833,0.022649311,-0.011990812
1689140536733910200,0.794874966,-0.256179571,10.64940929,0.106052071,0.011990812,-0.016787136,-0.270544797,0.306457818,9.244012833,-0.104186833,0.022382848,-0.011990812
1689140536734910200,0.797269166,-0.253785372,10.65180302,0.106052071,0.011990812,-0.016520673,-0.270544797,0.306457818,9.244012833,-0.104186833,0.022649311,-0.011990812
1689140536735910200,0.799663365,-0.253785372,10.65180302,0.106318533,0.011990812,-0.016520673,-0.272938997,0.304063618,9.244012833,-0.104186833,0.022649311,-0.011990812
1689140536736910200,0.799663365,-0.253785372,10.65419769,0.106318533,0.011990812,-0.016520673,-0.275333196,0.304063618,9.244012833,-0.104186833,0.022649311,-0.011990812
1689140536737910200,0.797269166,-0.253785372,10.65419769,0.106052071,0.011990812,-0.016520673,-0.275333196,0.304063618,9.246406555,-0.104186833,0.022649311,-0.011990812
1689140536738910200,0.799663365,-0.253785372,10.65180302,0.106052071,0.011990812,-0.016520673,-0.272938997,0.304063618,9.246406555,-0.104186833,0.022915773,-0.011990812
1689140536739910200,0.799663365,-0.253785372,10.65419769,0.105785601,0.011990812,-0.016520673,-0.272938997,0.304063618,9.246406555,-0.104186833,0.022915773,-0.011990812
1689140536740910200,0.804451764,-0.253785372,10.65659142,0.105785601,0.011990812,-0.016254211,-0.272938997,0.301669419,9.244012833,-0.104186833,0.022915773,-0.011990812
1689140536741910200,0.809240162,-0.251391172,10.64940929,0.105785601,0.011990812,-0.016254211,-0.275333196,0.304063618,9.239224434,-0.103920363,0.022649311,-0.011990812
1689140536742910200,0.809240162,-0.253785372,10.64701462,0.105785601,0.011990812,-0.016520673,-0.272938997,0.304063618,9.234436035,-0.103920363,0.022649311,-0.012257273
1689140536743910200,0.806845963,-0.253785372,10.64940929,0.105785601,0.011990812,-0.016520673,-0.272938997,0.304063618,9.241618156,-0.103920363,0.022649311,-0.012257273
1689140536744910200,0.806845963,-0.248996973,10.65419769,0.106052071,0.011990812,-0.016520673,-0.272938997,0.304063618,9.241618156,-0.104186833,0.022915773,-0.012523737
1689140536745910200,0.809240162,-0.251391172,10.65659142,0.105785601,0.011990812,-0.016254211,-0.272938997,0.304063618,9.239224434,-0.104186833,0.022915773,-0.012257273
1689140536806875100,0.794874966,-0.253785372,10.6350441,0.106318533,0.011724349,-0.016520673,-0.268150598,0.313640416,9.239224434,-0.104186833,0.022116385,-0.011990812
1689140536807875100,0.792480767,-0.248996973,10.6350441,0.106052071,0.011724349,-0.016254211,-0.270544797,0.316034615,9.241618156,-0.104186833,0.022116385,-0.011990812
1689140536808875100,0.790086567,-0.248996973,10.6350441,0.105785601,0.011724349,-0.016520673,-0.270544797,0.316034615,9.244012833,-0.104186833,0.022116385,-0.011990812
1689140536809875100,0.792480767,-0.248996973,10.64222622,0.105785601,0.011724349,-0.016254211,-0.268150598,0.316034615,9.248801231,-0.104186833,0.022116385,-0.011724349
1689140536810875100,0.792480767,-0.248996973,10.63743782,0.105785601,0.011457887,-0.016254211,-0.268150598,0.316034615,9.248801231,-0.104186833,0.022116385,-0.011724349
1689140536811875100,0.794874966,-0.251391172,10.63743782,0.105785601,0.011457887,-0.016254211,-0.268150598,0.318428814,9.248801231,-0.104186833,0.022382848,-0.011724349
1689140536812875100,0.792480767,-0.251391172,10.6398325,0.105785601,0.011457887,-0.016520673,-0.265756398,0.318428814,9.251194954,-0.104186833,0.022116385,-0.011724349
1689140536813875100,0.792480767,-0.251391172,10.6398325,0.106052071,0.011724349,-0.016520673,-0.265756398,0.313640416,9.251194954,-0.104453288,0.022116385,-0.011724349
1689140536814875100,0.792480767,-0.253785372,10.64222622,0.106052071,0.011724349,-0.016520673,-0.265756398,0.313640416,9.248801231,-0.104453288,0.022116385,-0.011724349
1689140536815875100,0.794874966,-0.253785372,10.6398325,0.106052071,0.011990812,-0.016254211,-0.265756398,0.313640416,9.251194954,-0.104453288,0.022382848,-0.011724349
1689140536816875100,0.797269166,-0.256179571,10.6446209,0.106052071,0.011990812,-0.016254211,-0.268150598,0.313640416,9.255983353,-0.104186833,0.022382848,-0.011724349
1689140536817875100,0.794874966,-0.253785372,10.6446209,0.106052071,0.011990812,-0.016254211,-0.268150598,0.316034615,9.255983353,-0.104453288,0.022382848,-0.011724349
1689140536818875100,0.797269166,-0.253785372,10.6446209,0.106052071,0.011990812,-0.016254211,-0.268150598,0.316034615,9.255983353,-0.104453288,0.022382848,-0.011990812
1689140536819875100,0.797269166,-0.253785372,10.64701462,0.106052071,0.011990812,-0.016254211,-0.270544797,0.318428814,9.251194954,-0.104719758,0.022382848,-0.011990812
1689140536820875100,0.797269166,-0.251391172,10.65180302,0.105785601,0.011990812,-0.016254211,-0.268150598,0.318428814,9.251194954,-0.104453288,0.022382848,-0.011990812
1689140536877832400,0.802057564,-0.251391172,10.65659142,0.105785601,0.011457887,-0.016520673,-0.272938997,0.308852017,9.248801231,-0.104453288,0.022382848,-0.011724349
1689140536878832400,0.804451764,-0.256179571,10.65659142,0.106052071,0.011457887,-0.016787136,-0.272938997,0.308852017,9.246406555,-0.104453288,0.022649311,-0.011990812
1689140536879832400,0.806845963,-0.258573771,10.65419769,0.106052071,0.011457887,-0.016787136,-0.272938997,0.308852017,9.25358963,-0.104453288,0.022649311,-0.011990812
1689140536880832400,0.804451764,-0.256179571,10.65659142,0.106052071,0.011191424,-0.016520673,-0.270544797,0.308852017,9.255983353,-0.104453288,0.022649311,-0.011990812
1689140536881832400,0.802057564,-0.253785372,10.65659142,0.106318533,0.011457887,-0.016520673,-0.270544797,0.306457818,9.255983353,-0.104453288,0.022382848,-0.011990812
1689140536882832400,0.802057564,-0.253785372,10.65898609,0.106318533,0.011457887,-0.016520673,-0.270544797,0.306457818,9.251194954,-0.104453288,0.022382848,-0.011990812
1689140536883832400,0.802057564,-0.258573771,10.65659142,0.106052071,0.011457887,-0.016520673,-0.268150598,0.308852017,9.248801231,-0.104453288,0.022116385,-0.011990812
1689140536884832400,0.806845963,-0.256179571,10.65419769,0.106052071,0.011457887,-0.016520673,-0.268150598,0.306457818,9.246406555,-0.104453288,0.022116385,-0.011990812
1689140536885832400,0.806845963,-0.256179571,10.65898609,0.106318533,0.011724349,-0.016520673,-0.270544797,0.304063618,9.244012833,-0.104186833,0.022116385,-0.012257273
1689140536886832400,0.806845963,-0.256179571,10.65659142,0.106318533,0.011990812,-0.016520673,-0.270544797,0.304063618,9.244012833,-0.104186833,0.022116385,-0.012257273
1689140536887832400,0.804451764,-0.256179571,10.65419769,0.106318533,0.011990812,-0.016520673,-0.270544797,0.304063618,9.241618156,-0.104186833,0.022116385,-0.011990812
1689140536888832400,0.804451764,-0.256179571,10.65180302,0.106318533,0.011990812,-0.016520673,-0.265756398,0.306457818,9.239224434,-0.104186833,0.022116385,-0.011990812
1689140536889832400,0.806845963,-0.256179571,10.65180302,0.106052071,0.011724349,-0.016520673,-0.270544797,0.306457818,9.241618156,-0.104186833,0.021849923,-0.011990812
1689140536890832400,0.809240162,-0.256179571,10.64701462,0.106052071,0.011724349,-0.016520673,-0.270544797,0.308852017,9.244012833,-0.104453288,0.022116385,-0.011724349
1689140536891832400,0.814028561,-0.258573771,10.6446209,0.106052071,0.011990812,-0.016520673,-0.272938997,0.308852017,9.244012833,-0.104453288,0.022382848,-0.011724349
1689140536972864400,0.802057564,-0.258573771,10.65419769,0.106318533,0.011990812,-0.016787136,-0.270544797,0.306457818,9.241618156,-0.104186833,0.022649311,-0.012257273
1689140536973864400,0.804451764,-0.256179571,10.65898609,0.106318533,0.011990812,-0.016520673,-0.270544797,0.306457818,9.239224434,-0.104186833,0.022649311,-0.012257273
1689140536974864400,0.802057564,-0.253785372,10.66377449,0.106052071,0.011724349,-0.016520673,-0.272938997,0.308852017,9.241618156,-0.104186833,0.022649311,-0.011990812
1689140536975864400,0.802057564,-0.253785372,10.66616821,0.106052071,0.011990812,-0.016254211,-0.270544797,0.306457818,9.239224434,-0.104186833,0.022649311,-0.011990812
1689140536976864400,0.802057564,-0.256179571,10.66377449,0.106052071,0.011990812,-0.016254211,-0.268150598,0.306457818,9.239224434,-0.104186833,0.022649311,-0.011990812
1689140536977864400,0.806845963,-0.251391172,10.66377449,0.106052071,0.011990812,-0.016520673,-0.270544797,0.304063618,9.236829758,-0.104453288,0.022649311,-0.011990812
1689140536978864400,0.809240162,-0.251391172,10.66377449,0.106052071,0.011990812,-0.016787136,-0.270544797,0.304063618,9.236829758,-0.104453288,0.022649311,-0.012257273
1689140536979864400,0.809240162,-0.253785372,10.66137981,0.106318533,0.011990812,-0.016787136,-0.270544797,0.304063618,9.241618156,-0.104186833,0.022649311,-0.012257273
1689140536980864400,0.809240162,-0.258573771,10.65898609,0.106318533,0.011990812,-0.016520673,-0.270544797,0.304063618,9.241618156,-0.104186833,0.022649311,-0.011990812
1689140536981864400,0.811634362,-0.260968,10.65659142,0.106318533,0.011990812,-0.016520673,-0.270544797,0.306457818,9.241618156,-0.104186833,0.022649311,-0.011990812
1689140536982864400,0.811634362,-0.263362199,10.65419769,0.106052071,0.011990812,-0.016254211,-0.268150598,0.306457818,9.246406555,-0.104186833,0.022915773,-0.011990812
1689140536983864400,0.811634362,-0.260968,10.65419769,0.106052071,0.012257273,-0.016254211,-0.268150598,0.308852017,9.246406555,-0.104186833,0.022915773,-0.012257273
1689140536984864400,0.814028561,-0.263362199,10.64940929,0.106052071,0.011990812,-0.016254211,-0.270544797,0.306457818,9.246406555,-0.104186833,0.022915773,-0.012257273
1689140536985864400,0.814028561,-0.263362199,10.6446209,0.106052071,0.011990812,-0.016254211,-0.275333196,0.306457818,9.244012833,-0.104186833,0.022915773,-0.012257273
1689140536986864400,0.814028561,-0.263362199,10.63743782,0.106052071,0.012257273,-0.016254211,-0.270544797,0.304063618,9.244012833,-0.104186833,0.022649311,-0.012257273
1689140537066523600,0.799663365,-0.246602774,10.6350441,0.106052071,0.011457887,-0.016520673,-0.270544797,0.313640416,9.229647636,-0.103920363,0.021849923,-0.011724349
1689140537067523600,0.797269166,-0.246602774,10.6350441,0.106052071,0.011457887,-0.016520673,-0.272938997,0.313640416,9.232041359,-0.103920363,0.021849923,-0.011990812
1689140537068523600,0.794874966,-0.246602774,10.63743782,0.106052071,0.011457887,-0.016520673,-0.272938997,0.313640416,9.232041359,-0.104186833,0.021849923,-0.012257273
1689140537069523600,0.792480767,-0.246602774,10.6398325,0.105785601,0.011457887,-0.016520673,-0.275333196,0.313640416,9.234436035,-0.104186833,0.021849923,-0.012257273
1689140537070523600,0.792480767,-0.246602774,10.63743782,0.106052071,0.011724349,-0.016520673,-0.275333196,0.311246216,9.236829758,-0.104186833,0.021849923,-0.012257273
1689140537071523600,0.792480767,-0.246602774,10.6398325,0.106052071,0.011724349,-0.016520673,-0.275333196,0.311246216,9.241618156,-0.103920363,0.021849923,-0.011990812
1689140537072523600,0.794874966,-0.246602774,10.64222622,0.106052071,0.011724349,-0.016254211,-0.275333196,0.311246216,9.244012833,-0.103920363,0.022116385,-0.012257273
1689140537073523600,0.794874966,-0.248996973,10.63743782,0.106052071,0.011990812,-0.016520673,-0.275333196,0.311246216,9.244012833,-0.103920363,0.022116385,-0.012257273
1689140537074523600,0.797269166,-0.248996973,10.6398325,0.106052071,0.011990812,-0.016520673,-0.275333196,0.313640416,9.244012833,-0.103920363,0.021849923,-0.012257273
1689140537075523600,0.797269166,-0.248996973,10.6398325,0.106052071,0.011724349,-0.016520673,-0.277727395,0.311246216,9.244012833,-0.103920363,0.021849923,-0.012257273
1689140537076523600,0.802057564,-0.248996973,10.6398325,0.106052071,0.011990812,-0.016520673,-0.275333196,0.313640416,9.241618156,-0.103653908,0.021849923,-0.012257273
1689140537077523600,0.806845963,-0.248996973,10.6350441,0.106318533,0.011724349,-0.016520673,-0.275333196,0.311246216,9.239224434,-0.103920363,0.022116385,-0.012257273
1689140537078523600,0.804451764,-0.248996973,10.63743782,0.106318533,0.011724349,-0.016520673,-0.272938997,0.313640416,9.239224434,-0.103920363,0.022116385,-0.012257273
1689140537079523600,0.799663365,-0.248996973,10.6446209,0.106318533,0.011457887,-0.016520673,-0.270544797,0.313640416,9.239224434,-0.103920363,0.022116385,-0.012257273
1689140537080523600,0.797269166,-0.248996973,10.64701462,0.106318533,0.011724349,-0.016520673,-0.270544797,0.313640416,9.236829758,-0.103920363,0.022116385,-0.012257273
1689140537135483400,0.809240162,-0.253785372,10.6446209,0.106052071,0.012257273,-0.016254211,-0.277727395,0.311246216,9.25358963,-0.104453288,0.022116385,-0.011724349
1689140537136483400,0.809240162,-0.256179571,10.64940929,0.106052071,0.012257273,-0.016254211,-0.268150598,0.311246216,9.239224434,-0.104453288,0.022382848,-0.011990812
1689140537137483400,0.802057564,-0.258573771,10.65180302,0.106052071,0.012523737,-0.016254211,-0.268150598,0.308852017,9.236829758,-0.104453288,0.022382848,-0.011990812
1689140537138483400,0.802057564,-0.258573771,10.64940929,0.106318533,0.012523737,-0.016254211,-0.268150598,0.311246216,9.239224434,-0.104453288,0.022382848,-0.011724349
1689140537139483400,0.802057564,-0.258573771,10.64940929,0.106318533,0.012257273,-0.016254211,-0.268150598,0.313640416,9.236829758,-0.104719758,0.022649311,-0.011724349
1689140537140483400,0.809240162,-0.258573771,10.64940929,0.106052071,0.012257273,-0.016254211,-0.265756398,0.313640416,9.236829758,-0.104719758,0.022649311,-0.011990812
1689140537141483400,0.809240162,-0.260968,10.64701462,0.106318533,0.012257273,-0.016254211,-0.263362199,0.313640416,9.241618156,-0.104719758,0.022649311,-0.011724349
1689140537142483400,0.809240162,-0.260968,10.64222622,0.106318533,0.011990812,-0.016254211,-0.265756398,0.313640416,9.244012833,-0.104986221,0.022649311,-0.011724349
1689140537143483400,0.809240162,-0.260968,10.6398325,0.106318533,0.012257273,-0.016254211,-0.263362199,0.313640416,9.239224434,-0.104986221,0.022649311,-0.011724349
1689140537144483400,0.806845963,-0.260968,10.6398325,0.106318533,0.012257273,-0.016254211,-0.277727395,0.311246216,9.248801231,-0.104986221,0.022382848,-0.011990812
1689140537145483400,0.806845963,-0.258573771,10.6446209,0.106318533,0.012257273,-0.016254211,-0.277727395,0.313640416,9.251194954,-0.104719758,0.022649311,-0.011990812
1689140537146483400,0.804451764,-0.258573771,10.64701462,0.106318533,0.012257273,-0.016520673,-0.277727395,0.311246216,9.246406555,-0.104719758,0.022649311,-0.011990812
1689140537147483400,0.806845963,-0.258573771,10.64222622,0.106318533,0.012257273,-0.016520673,-0.280121595,0.308852017,9.251194954,-0.104453288,0.022382848,-0.012257273
1689140537148483400,0.804451764,-0.258573771,10.64222622,0.106318533,0.012257273,-0.016254211,-0.282515794,0.306457818,9.251194954,-0.104719758,0.022382848,-0.012257273
1689140537149483400,0.806845963,-0.260968,10.64222622,0.106318533,0.012257273,-0.016254211,-0.282515794,0.306457818,9.244012833,-0.104719758,0.022382848,-0.011990812
1689140537204446100,0.802057564,-0.251391172,10.63743782,0.106318533,0.012257273,-0.016520673,-0.280121595,0.311246216,9.224859238,-0.104186833,0.021849923,-0.011724349
1689140537205446100,0.802057564,-0.251391172,10.64222622,0.106318533,0.011990812,-0.016520673,-0.282515794,0.308852017,9.224859238,-0.104186833,0.021849923,-0.011724349
1689140537206446100,0.804451764,-0.248996973,10.64701462,0.106318533,0.011990812,-0.016254211,-0.280121595,0.308852017,9.222464561,-0.104186833,0.022116385,-0.011990812
1689140537207446100,0.804451764,-0.251391172,10.64701462,0.106318533,0.011990812,-0.016520673,-0.280121595,0.308852017,9.222464561,-0.104186833,0.022116385,-0.011990812
1689140537208446100,0.804451764,-0.248996973,10.64701462,0.106318533,0.011990812,-0.016254211,-0.280121595,0.306457818,9.224859238,-0.104453288,0.022116385,-0.011990812
1689140537209446100,0.802057564,-0.248996973,10.65180302,0.106318533,0.011724349,-0.016254211,-0.277727395,0.304063618,9.22725296,-0.104186833,0.022116385,-0.011990812
1689140537210446100,0.799663365,-0.246602774,10.64940929,0.106052071,0.011724349,-0.016520673,-0.282515794,0.304063618,9.22725296,-0.104186833,0.021849923,-0.011990812
1689140537211446100,0.799663365,-0.246602774,10.65180302,0.106052071,0.011724349,-0.016520673,-0.287304193,0.306457818,9.22725296,-0.104453288,0.021849923,-0.011990812
1689140537212446100,0.797269166,-0.248996973,10.65659142,0.106052071,0.011990812,-0.016254211,-0.287304193,0.304063618,9.232041359,-0.104453288,0.02158346,-0.011990812
1689140537213446100,0.799663365,-0.251391172,10.65898609,0.106052071,0.011724349,-0.016254211,-0.282515794,0.308852017,9.232041359,-0.104453288,0.02158346,-0.011990812
1689140537214446100,0.799663365,-0.253785372,10.65898609,0.106052071,0.011990812,-0.016254211,-0.282515794,0.308852017,9.229647636,-0.104186833,0.02158346,-0.011990812
1689140537215446100,0.799663365,-0.253785372,10.65898609,0.106052071,0.011990812,-0.016254211,-0.282515794,0.311246216,9.229647636,-0.104186833,0.02158346,-0.011990812
1689140537216446100,0.797269166,-0.256179571,10.65659142,0.106318533,0.012257273,-0.016254211,-0.280121595,0.311246216,9.229647636,-0.104186833,0.021849923,-0.011990812
1689140537217446100,0.799663365,-0.253785372,10.65659142,0.106318533,0.012523737,-0.016520673,-0.280121595,0.308852017,9.234436035,-0.104186833,0.021849923,-0.011724349
1689140537218446100,0.797269166,-0.253785372,10.65180302,0.106584989,0.012523737,-0.016520673,-0.280121595,0.311246216,9.239224434,-0.104186833,0.021849923,-0.011457887
1689140537278401200,0.811634362,-0.253785372,10.65659142,0.106318533,0.012257273,-0.016520673,-0.272938997,0.311246216,9.229647636,-0.103653908,0.021849923,-0.012257273
1689140537279401200,0.811634362,-0.251391172,10.65898609,0.106318533,0.011990812,-0.016254211,-0.272938997,0.311246216,9.234436035,-0.103653908,0.021849923,-0.012523737
1689140537280401200,0.809240162,-0.251391172,10.65659142,0.106318533,0.011990812,-0.016520673,-0.275333196,0.308852017,9.234436035,-0.103920363,0.02158346,-0.012257273
1689140537281401200,0.806845963,-0.253785372,10.65419769,0.106318533,0.011990812,-0.016520673,-0.275333196,0.304063618,9.229647636,-0.103920363,0.021849923,-0.012257273
1689140537282401200,0.809240162,-0.251391172,10.65180302,0.106318533,0.011990812,-0.016520673,-0.277727395,0.304063618,9.22725296,-0.103920363,0.021849923,-0.012257273
1689140537283401200,0.806845963,-0.251391172,10.64940929,0.106318533,0.011990812,-0.016520673,-0.275333196,0.306457818,9.222464561,-0.104186833,0.021849923,-0.012257273
1689140537284401200,0.809240162,-0.253785372,10.64701462,0.106318533,0.011990812,-0.016520673,-0.272938997,0.304063618,9.22725296,-0.104186833,0.022116385,-0.012257273
1689140537285401200,0.809240162,-0.256179571,10.6398325,0.106052071,0.011990812,-0.016520673,-0.275333196,0.304063618,9.22725296,-0.104186833,0.022116385,-0.011990812
1689140537286401200,0.804451764,-0.256179571,10.6398325,0.106052071,0.011990812,-0.016254211,-0.272938997,0.306457818,9.229647636,-0.104453288,0.022116385,-0.011990812
1689140537287401200,0.802057564,-0.256179571,10.6398325,0.106052071,0.012257273,-0.016254211,-0.270544797,0.306457818,9.22725296,-0.104453288,0.021849923,-0.011990812
1689140537288401200,0.804451764,-0.253785372,10.6398325,0.106052071,0.012257273,-0.016520673,-0.272938997,0.306457818,9.232041359,-0.104719758,0.021849923,-0.011990812
1689140537289401200,0.804451764,-0.256179571,10.64222622,0.106052071,0.012257273,-0.016520673,-0.270544797,0.308852017,9.232041359,-0.104453288,0.021849923,-0.011990812
1689140537290401200,0.806845963,-0.256179571,10.6446209,0.106052071,0.012257273,-0.016520673,-0.270544797,0.308852017,9.232041359,-0.104719758,0.022116385,-0.011990812
1689140537291401200,0.806845963,-0.253785372,10.64701462,0.106052071,0.012257273,-0.016520673,-0.275333196,0.311246216,9.234436035,-0.104719758,0.022116385,-0.011990812
1689140537292401200,0.806845963,-0.253785372,10.6446209,0.106052071,0.012257273,-0.016520673,-0.275333196,0.311246216,9.234436035,-0.104453288,0.022116385,-0.011990812
1689140537353375200,0.797269166,-0.253785372,10.65180302,0.106052071,0.011724349,-0.016520673,-0.270544797,0.304063618,9.22725296,-0.104186833,0.022382848,-0.012257273
1689140537354375200,0.792480767,-0.253785372,10.65180302,0.106318533,0.011724349,-0.016520673,-0.270544797,0.304063618,9.224859238,-0.103920363,0.022382848,-0.012257273
1689140537355375200,0.792480767,-0.253785372,10.65180302,0.106318533,0.011724349,-0.016520673,-0.270544797,0.301669419,9.229647636,-0.103920363,0.022382848,-0.011990812
1689140537356375200,0.790086567,-0.256179571,10.64940929,0.106052071,0.011724349,-0.016787136,-0.270544797,0.304063618,9.232041359,-0.103920363,0.022382848,-0.011990812
1689140537357375200,0.790086567,-0.253785372,10.64940929,0.106052071,0.011724349,-0.016520673,-0.270544797,0.304063618,9.236829758,-0.104186833,0.022382848,-0.011990812
1689140537358375200,0.790086567,-0.253785372,10.64701462,0.106052071,0.011990812,-0.016520673,-0.272938997,0.308852017,9.241618156,-0.104186833,0.022382848,-0.011990812
1689140537359375200,0.792480767,-0.253785372,10.6446209,0.106318533,0.011990812,-0.016520673,-0.272938997,0.311246216,9.239224434,-0.104186833,0.022382848,-0.011990812
1689140537360375200,0.790086567,-0.256179571,10.6446209,0.106052071,0.012257273,-0.016254211,-0.275333196,0.308852017,9.236829758,-0.104186833,0.022382848,-0.011990812
1689140537361375200,0.792480767,-0.256179571,10.64222622,0.106052071,0.012523737,-0.016520673,-0.275333196,0.308852017,9.236829758,-0.104186833,0.022649311,-0.011990812
1689140537362375200,0.792480767,-0.256179571,10.64222622,0.106318533,0.012257273,-0.016254211,-0.275333196,0.306457818,9.236829758,-0.103920363,0.022649311,-0.011990812
1689140537363375200,0.792480767,-0.256179571,10.64701462,0.106052071,0.012523737,-0.016254211,-0.277727395,0.304063618,9.236829758,-0.104186833,0.022382848,-0.011724349
1689140537364375200,0.790086567,-0.256179571,10.6446209,0.106052071,0.012523737,-0.016254211,-0.277727395,0.304063618,9.234436035,-0.104186833,0.022382848,-0.011990812
1689140537365375200,0.790086567,-0.253785372,10.64701462,0.106318533,0.012523737,-0.016254211,-0.277727395,0.304063618,9.236829758,-0.104186833,0.022649311,-0.011990812
1689140537366375200,0.794874966,-0.251391172,10.6446209,0.106318533,0.012523737,-0.016254211,-0.275333196,0.306457818,9.236829758,-0.104186833,0.022649311,-0.011990812
1689140537367375200,0.794874966,-0.253785372,10.64701462,0.106052071,0.012257273,-0.016254211,-0.277727395,0.306457818,9.234436035,-0.104186833,0.022649311,-0.012257273
1689140537423318200,0.799663365,-0.260968,10.65180302,0.106052071,0.011724349,-0.016254211,-0.270544797,0.304063618,9.239224434,-0.103653908,0.021849923,-0.012523737
1689140537424318200,0.797269166,-0.258573771,10.65180302,0.106052071,0.011724349,-0.016254211,-0.270544797,0.304063618,9.241618156,-0.103920363,0.021849923,-0.012257273
1689140537425318200,0.794874966,-0.258573771,10.64701462,0.106052071,0.011724349,-0.016254211,-0.272938997,0.301669419,9.241618156,-0.103920363,0.022116385,-0.012257273
1689140537426318200,0.797269166,-0.253785372,10.64701462,0.106052071,0.011724349,-0.015987748,-0.272938997,0.301669419,9.241618156,-0.103920363,0.022116385,-0.012257273
1689140537427318200,0.799663365,-0.253785372,10.6398325,0.106052071,0.011724349,-0.015987748,-0.275333196,0.304063618,9.244012833,-0.104186833,0.022382848,-0.012257273
1689140537428318200,0.799663365,-0.253785372,10.63743782,0.106052071,0.011724349,-0.015987748,-0.275333196,0.304063618,9.241618156,-0.104186833,0.022116385,-0.012257273
1689140537429318200,0.797269166,-0.253785372,10.63743782,0.106052071,0.011724349,-0.016254211,-0.275333196,0.304063618,9.244012833,-0.104186833,0.022116385,-0.012257273
1689140537430318200,0.794874966,-0.253785372,10.63743782,0.106052071,0.011724349,-0.016254211,-0.272938997,0.304063618,9.241618156,-0.104186833,0.022116385,-0.012257273
1689140537431318200,0.797269166,-0.248996973,10.64222622,0.106052071,0.011724349,-0.016254211,-0.270544797,0.306457818,9.239224434,-0.103920363,0.022382848,-0.012257273
1689140537432318200,0.799663365,-0.246602774,10.6446209,0.105785601,0.011724349,-0.016254211,-0.268150598,0.306457818,9.236829758,-0.103920363,0.022116385,-0.012257273
1689140537433318200,0.802057564,-0.246602774,10.64222622,0.106052071,0.011724349,-0.016254211,-0.268150598,0.306457818,9.239224434,-0.103920363,0.022116385,-0.012257273
1689140537434318200,0.802057564,-0.246602774,10.6398325,0.106052071,0.011724349,-0.016254211,-0.265756398,0.308852017,9.241618156,-0.104186833,0.022116385,-0.011990812
1689140537435318200,0.802057564,-0.244208574,10.6350441,0.105785601,0.011724349,-0.016520673,-0.268150598,0.308852017,9.236829758,-0.104186833,0.022382848,-0.011990812
1689140537436318200,0.799663365,-0.244208574,10.6350441,0.105785601,0.011990812,-0.016520673,-0.268150598,0.308852017,9.239224434,-0.104186833,0.022116385,-0.011990812
1689140537437318200,0.804451764,-0.246602774,10.6350441,0.105785601,0.011990812,-0.016520673,-0.270544797,0.306457818,9.239224434,-0.104186833,0.022116385,-0.012257273
1689140537503295400,0.806845963,-0.256179571,10.64940929,0.106052071,0.011990812,-0.016254211,-0.277727395,0.311246216,9.236829758,-0.104186833,0.021849923,-0.012257273
1689140537504295400,0.806845963,-0.256179571,10.65659142,0.105785601,0.012257273,-0.016254211,-0.280121595,0.311246216,9.236829758,-0.104453288,0.021849923,-0.012257273
1689140537505295400,0.806845963,-0.258573771,10.65659142,0.106052071,0.012523737,-0.016254211,-0.280121595,0.311246216,9.239224434,-0.104453288,0.021849923,-0.012257273
1689140537506295400,0.806845963,-0.258573771,10.65659142,0.106052071,0.012257273,-0.016254211,-0.280121595,0.308852017,9.236829758,-0.104453288,0.022116385,-0.012257273
1689140537507295400,0.806845963,-0.260968,10.65898609,0.106052071,0.012257273,-0.016254211,-0.282515794,0.308852017,9.236829758,-0.104186833,0.022116385,-0.012257273
1689140537508295400,0.806845963,-0.260968,10.65419769,0.106052071,0.012257273,-0.016254211,-0.280121595,0.308852017,9.234436035,-0.104453288,0.022116385,-0.011990812
1689140537509295400,0.806845963,-0.263362199,10.65898609,0.106052071,0.012257273,-0.016254211,-0.280121595,0.306457818,9.229647636,-0.104453288,0.022116385,-0.011990812
1689140537510295400,0.811634362,-0.263362199,10.65898609,0.106052071,0.011990812,-0.016254211,-0.275333196,0.306457818,9.224859238,-0.104453288,0.022382848,-0.012257273
1689140537511295400,0.809240162,-0.263362199,10.65659142,0.106052071,0.011990812,-0.016254211,-0.275333196,0.304063618,9.224859238,-0.104453288,0.022116385,-0.012257273
1689140537512295400,0.809240162,-0.258573771,10.65659142,0.106052071,0.011990812,-0.016254211,-0.275333196,0.306457818,9.22725296,-0.104453288,0.022382848,-0.012257273
1689140537513295400,0.809240162,-0.256179571,10.65180302,0.106052071,0.011990812,-0.016254211,-0.272938997,0.304063618,9.229647636,-0.104719758,0.022116385,-0.012257273
1689140537514295400,0.811634362,-0.256179571,10.65180302,0.106318533,0.011990812,-0.016520673,-0.277727395,0.304063618,9.232041359,-0.104719758,0.022382848,-0.012523737
1689140537515295400,0.811634362,-0.256179571,10.65180302,0.106318533,0.011990812,-0.016254211,-0.275333196,0.304063618,9.229647636,-0.104719758,0.022382848,-0.012523737
1689140537516295400,0.809240162,-0.260968,10.65180302,0.106052071,0.011990812,-0.016254211,-0.275333196,0.308852017,9.229647636,-0.104719758,0.022382848,-0.012523737
1689140537517295400,0.809240162,-0.260968,10.65180302,0.106318533,0.011990812,-0.016254211,-0.275333196,0.306457818,9.234436035,-0.104719758,0.022382848,-0.012523737
1689140537565260000,0.797269166,-0.251391172,10.65180302,0.106052071,0.011724349,-0.016787136,-0.282515794,0.313640416,9.244012833,-0.104453288,0.022382848,-0.011724349
1689140537566260000,0.799663365,-0.251391172,10.65180302,0.106052071,0.011990812,-0.016787136,-0.280121595,0.313640416,9.241618156,-0.104453288,0.022116385,-0.011724349
1689140537567260000,0.799663365,-0.251391172,10.6446209,0.106052071,0.011990812,-0.016520673,-0.280121595,0.311246216,9.241618156,-0.104453288,0.022116385,-0.011990812
1689140537568260000,0.794874966,-0.253785372,10.6446209,0.106052071,0.011990812,-0.016520673,-0.275333196,0.313640416,9.239224434,-0.104186833,0.022116385,-0.011990812
1689140537569260000,0.794874966,-0.256179571,10.64701462,0.106318533,0.011990812,-0.016520673,-0.272938997,0.311246216,9.239224434,-0.104186833,0.022116385,-0.011990812
1689140537570260000,0.794874966,-0.256179571,10.64940929,0.106318533,0.011990812,-0.016520673,-0.275333196,0.316034615,9.244012833,-0.104186833,0.022116385,-0.012257273
1689140537571260000,0.792480767,-0.256179571,10.64940929,0.106318533,0.011724349,-0.016520673,-0.272938997,0.313640416,9.244012833,-0.104453288,0.022116385,-0.012257273
1689140537572260000,0.792480767,-0.253785372,10.64701462,0.106052071,0.011990812,-0.016520673,-0.272938997,0.313640416,9.241618156,-0.104453288,0.022116385,-0.012257273
1689140537573260000,0.794874966,-0.256179571,10.6446209,0.106052071,0.011990812,-0.016520673,-0.275333196,0.313640416,9.241618156,-0.104186833,0.022116385,-0.012257273
1689140537574260000,0.794874966,-0.256179571,10.64222622,0.106052071,0.011724349,-0.016520673,-0.272938997,0.316034615,9.241618156,-0.104453288,0.022116385,-0.012257273
1689140537575260000,0.792480767,-0.258573771,10.64222622,0.106318533,0.011724349,-0.016520673,-0.270544797,0.311246216,9.234436035,-0.104453288,0.022116385,-0.012257273
1689140537576260000,0.792480767,-0.258573771,10.6398325,0.106052071,0.011724349,-0.016520673,-0.268150598,0.311246216,9.234436035,-0.104453288,0.022116385,-0.012257273
1689140537577260000,0.792480767,-0.258573771,10.6398325,0.106052071,0.011990812,-0.016520673,-0.268150598,0.311246216,9.232041359,-0.104453288,0.022382848,-0.012257273
1689140537578260000,0.792480767,-0.258573771,10.64222622,0.106052071,0.011990812,-0.016520673,-0.268150598,0.311246216,9.232041359,-0.104186833,0.022382848,-0.012523737
1689140537579260000,0.787692368,-0.256179571,10.63743782,0.105785601,0.011724349,-0.016520673,-0.268150598,0.308852017,9.232041359,-0.104186833,0.022116385,-0.012523737
1689140537676173100,0.794874966,-0.260968,10.67335129,0.106052071,0.011724349,-0.016520673,-0.268150598,0.306457818,9.236829758,-0.104186833,0.022382848,-0.012790199
1689140537677173100,0.797269166,-0.260968,10.67574501,0.106052071,0.011724349,-0.016520673,-0.265756398,0.308852017,9.236829758,-0.104186833,0.022116385,-0.012790199
1689140537678173100,0.799663365,-0.258573771,10.67335129,0.106052071,0.011724349,-0.016520673,-0.263362199,0.306457818,9.236829758,-0.104186833,0.022116385,-0.012523737
1689140537679173100,0.797269166,-0.258573771,10.67095661,0.106052071,0.011724349,-0.016787136,-0.260968,0.304063618,9.236829758,-0.104453288,0.022116385,-0.012523737
1689140537680173100,0.797269166,-0.256179571,10.67335129,0.106318533,0.011724349,-0.016520673,-0.260968,0.304063618,9.232041359,-0.104453288,0.022382848,-0.012257273
1689140537681173100,0.797269166,-0.253785372,10.67095661,0.106052071,0.011724349,-0.016787136,-0.258573771,0.304063618,9.229647636,-0.104719758,0.022382848,-0.012257273
1689140537682173100,0.797269166,-0.253785372,10.67335129,0.106052071,0.011457887,-0.016520673,-0.258573771,0.301669419,9.232041359,-0.104453288,0.022116385,-0.011990812
1689140537683173100,0.797269166,-0.253785372,10.67095661,0.106052071,0.011724349,-0.016520673,-0.258573771,0.301669419,9.232041359,-0.104453288,0.022382848,-0.012257273
1689140537684173100,0.799663365,-0.251391172,10.66616821,0.106318533,0.011724349,-0.016520673,-0.258573771,0.304063618,9.234436035,-0.104453288,0.022382848,-0.012257273
1689140537685173100,0.799663365,-0.248996973,10.66137981,0.106052071,0.011724349,-0.016254211,-0.258573771,0.304063618,9.22725296,-0.104453288,0.022382848,-0.012257273
1689140537686173100,0.799663365,-0.251391172,10.66377449,0.106052071,0.011724349,-0.016520673,-0.260968,0.304063618,9.22725296,-0.104453288,0.022382848,-0.012257273
1689140537687173100,0.797269166,-0.251391172,10.66377449,0.106052071,0.011724349,-0.016520673,-0.258573771,0.304063618,9.229647636,-0.104453288,0.022382848,-0.012257273
1689140537688173100,0.794874966,-0.248996973,10.66856289,0.106052071,0.011724349,-0.016254211,-0.258573771,0.306457818,9.229647636,-0.104453288,0.022382848,-0.012257273
1689140537689173100,0.792480767,-0.248996973,10.66377449,0.106052071,0.011457887,-0.016254211,-0.258573771,0.306457818,9.22725296,-0.104453288,0.022382848,-0.012257273
1689140537690173100,0.792480767,-0.248996973,10.66377449,0.106052071,0.011724349,-0.016254211,-0.258573771,0.308852017,9.229647636,-0.104453288,0.022649311,-0.011990812
1689140537776116400,0.799663365,-0.248996973,10.66377449,0.106052071,0.011724349,-0.016520673,-0.272938997,0.311246216,9.229647636,-0.104186833,0.022116385,-0.011990812
1689140537777116400,0.797269166,-0.246602774,10.66137981,0.106052071,0.011724349,-0.016787136,-0.272938997,0.311246216,9.232041359,-0.104186833,0.022116385,-0.011990812
1689140537778116400,0.794874966,-0.248996973,10.66137981,0.106318533,0.011724349,-0.016787136,-0.272938997,0.308852017,9.232041359,-0.104186833,0.022116385,-0.011990812
1689140537779116400,0.792480767,-0.248996973,10.65898609,0.106318533,0.011724349,-0.016787136,-0.270544797,0.308852017,9.232041359,-0.104453288,0.022116385,-0.011990812
1689140537780116400,0.792480767,-0.248996973,10.65898609,0.106318533,0.011990812,-0.017053599,-0.270544797,0.308852017,9.229647636,-0.104186833,0.022116385,-0.011990812
1689140537781116400,0.792480767,-0.251391172,10.65898609,0.106318533,0.011724349,-0.016787136,-0.268150598,0.308852017,9.229647636,-0.104453288,0.022116385,-0.011990812
1689140537782116400,0.792480767,-0.251391172,10.65898609,0.106318533,0.011724349,-0.016787136,-0.270544797,0.306457818,9.229647636,-0.104186833,0.022382848,-0.011990812
1689140537783116400,0.797269166,-0.253785372,10.65659142,0.106318533,0.011724349,-0.016787136,-0.270544797,0.301669419,9.232041359,-0.104453288,0.022382848,-0.011990812
1689140537784116400,0.794874966,-0.253785372,10.65659142,0.106052071,0.011724349,-0.016787136,-0.272938997,0.301669419,9.234436035,-0.104453288,0.022382848,-0.011724349
1689140537785116400,0.797269166,-0.251391172,10.65898609,0.106318533,0.011724349,-0.016787136,-0.270544797,0.299275219,9.236829758,-0.104719758,0.022382848,-0.011457887
1689140537786116400,0.797269166,-0.251391172,10.65419769,0.106052071,0.011990812,-0.016787136,-0.270544797,0.29688102,9.236829758,-0.104453288,0.022116385,-0.011457887
1689140537787116400,0.797269166,-0.251391172,10.65180302,0.106052071,0.011990812,-0.016787136,-0.265756398,0.29688102,9.241618156,-0.104719758,0.022116385,-0.011724349
1689140537788116400,0.794874966,-0.251391172,10.65180302,0.106052071,0.011990812,-0.016787136,-0.265756398,0.301669419,9.244012833,-0.104719758,0.022116385,-0.011724349
1689140537789116400,0.792480767,-0.253785372,10.65180302,0.106318533,0.011724349,-0.016787136,-0.265756398,0.29688102,9.239224434,-0.104719758,0.021849923,-0.011990812
1689140537790116400,0.792480767,-0.253785372,10.64701462,0.106318533,0.011990812,-0.016520673,-0.263362199,0.29688102,9.239224434,-0.104986221,0.022116385,-0.011990812
1689140537881056000,0.802057564,-0.246602774,10.64940929,0.105785601,0.011990812,-0.016787136,-0.270544797,0.308852017,9.229647636,-0.104453288,0.022116385,-0.012257273
1689140537882056000,0.802057564,-0.246602774,10.64701462,0.105519146,0.012257273,-0.017053599,-0.270544797,0.308852017,9.236829758,-0.104453288,0.022116385,-0.012257273
1689140537883056000,0.802057564,-0.248996973,10.6446209,0.105519146,0.012257273,-0.016787136,-0.268150598,0.306457818,9.234436035,-0.104453288,0.022382848,-0.011990812
1689140537884056000,0.802057564,-0.246602774,10.6446209,0.105519146,0.011990812,-0.016787136,-0.270544797,0.308852017,9.236829758,-0.104453288,0.022116385,-0.011990812
1689140537885056000,0.802057564,-0.246602774,10.64222622,0.105785601,0.011990812,-0.016787136,-0.270544797,0.308852017,9.239224434,-0.104186833,0.022382848,-0.012257273
1689140537886056000,0.802057564,-0.248996973,10.64701462,0.105785601,0.011990812,-0.016787136,-0.270544797,0.308852017,9.241618156,-0.103920363,0.022382848,-0.012257273
1689140537887056000,0.802057564,-0.251391172,10.65180302,0.105785601,0.012257273,-0.016520673,-0.272938997,0.311246216,9.246406555,-0.103653908,0.022649311,-0.011990812
1689140537888056000,0.797269166,-0.248996973,10.65180302,0.106052071,0.011990812,-0.016520673,-0.275333196,0.311246216,9.244012833,-0.103653908,0.022649311,-0.011990812
1689140537889056000,0.792480767,-0.246602774,10.64701462,0.106052071,0.011990812,-0.016787136,-0.277727395,0.311246216,9.241618156,-0.103920363,0.022382848,-0.011990812
1689140537890056000,0.792480767,-0.248996973,10.64701462,0.106052071,0.011990812,-0.016787136,-0.277727395,0.308852017,9.241618156,-0.103920363,0.022649311,-0.012257273
1689140537891056000,0.792480767,-0.251391172,10.64222622,0.106052071,0.012257273,-0.016520673,-0.277727395,0.308852017,9.244012833,-0.103653908,0.022649311,-0.012257273
1689140537892056000,0.792480767,-0.253785372,10.64940929,0.106052071,0.012257273,-0.016520673,-0.280121595,0.313640416,9.248801231,-0.103920363,0.022382848,-0.012257273
1689140537893056000,0.792480767,-0.253785372,10.64940929,0.106052071,0.012257273,-0.016520673,-0.277727395,0.311246216,9.25358963,-0.103920363,0.022382848,-0.012257273
1689140537894056000,0.794874966,-0.256179571,10.64701462,0.106052071,0.012257273,-0.016520673,-0.275333196,0.311246216,9.251194954,-0.103920363,0.022116385,-0.012257273
1689140537895056000,0.797269166,-0.253785372,10.6398325,0.106052071,0.012257273,-0.016520673,-0.272938997,0.311246216,9.25358963,-0.103920363,0.022116385,-0.012523737
1689140537987517200,0.814028561,-0.248996973,10.6350441,0.106052071,0.011990812,-0.016254211,-0.275333196,0.313640416,9.241618156,-0.104453288,0.022382848,-0.011724349
1689140537988517200,0.814028561,-0.248996973,10.63743782,0.106052071,0.011990812,-0.016254211,-0.272938997,0.313640416,9.241618156,-0.104186833,0.022382848,-0.011457887
1689140537989517200,0.811634362,-0.251391172,10.64222622,0.106052071,0.012257273,-0.016254211,-0.272938997,0.313640416,9.239224434,-0.104186833,0.022382848,-0.011724349
1689140537990517200,0.811634362,-0.253785372,10.63264942,0.106052071,0.011990812,-0.016254211,-0.272938997,0.311246216,9.248801231,-0.104186833,0.022382848,-0.011990812
1689140537991517200,0.809240162,-0.251391172,10.6302557,0.106052071,0.011990812,-0.016254211,-0.275333196,0.311246216,9.246406555,-0.104186833,0.022382848,-0.011990812
1689140537992517200,0.804451764,-0.251391172,10.6302557,0.106052071,0.011990812,-0.016520673,-0.270544797,0.311246216,9.244012833,-0.104186833,0.022382848,-0.011724349
1689140537993517200,0.806845963,-0.251391172,10.6302557,0.106052071,0.011724349,-0.016520673,-0.270544797,0.311246216,9.244012833,-0.104186833,0.022382848,-0.011724349
1689140537994517200,0.809240162,-0.251391172,10.6302557,0.106052071,0.011724349,-0.016520673,-0.265756398,0.313640416,9.246406555,-0.103920363,0.022649311,-0.011990812
1689140537995517200,0.806845963,-0.248996973,10.6302557,0.106052071,0.011724349,-0.016254211,-0.268150598,0.311246216,9.241618156,-0.104186833,0.022649311,-0.011990812
1689140537996517200,0.806845963,-0.246602774,10.62786102,0.106052071,0.011724349,-0.016254211,-0.270544797,0.311246216,9.236829758,-0.104186833,0.022649311,-0.011724349
1689140537997517200,0.804451764,-0.244208574,10.62786102,0.106052071,0.011724349,-0.016520673,-0.268150598,0.313640416,9.239224434,-0.104186833,0.022649311,-0.011724349
1689140537998517200,0.802057564,-0.246602774,10.6254673,0.106318533,0.011724349,-0.016254211,-0.265756398,0.311246216,9.244012833,-0.104186833,0.022382848,-0.011990812
1689140537999517200,0.799663365,-0.244208574,10.62307262,0.106052071,0.011990812,-0.016254211,-0.268150598,0.311246216,9.248801231,-0.104453288,0.022382848,-0.011724349
1689140538000517200,0.799663365,-0.241814375,10.62786102,0.106052071,0.011724349,-0.015987748,-0.268150598,0.308852017,9.251194954,-0.104453288,0.022116385,-0.011724349
1689140538001517200,0.802057564,-0.244208574,10.63264942,0.106052071,0.011724349,-0.015987748,-0.268150598,0.308852017,9.251194954,-0.104453288,0.022382848,-0.011724349
1689140538151422800,0.802057564,-0.258573771,10.64701462,0.105785601,0.011990812,-0.016520673,-0.268150598,0.306457818,9.239224434,-0.104453288,0.022116385,-0.012523737
1689140538152422800,0.804451764,-0.258573771,10.64940929,0.105785601,0.011990812,-0.016787136,-0.268150598,0.306457818,9.241618156,-0.104453288,0.022382848,-0.012523737
1689140538153422800,0.802057564,-0.260968,10.64701462,0.105785601,0.011990812,-0.016787136,-0.268150598,0.306457818,9.241618156,-0.104453288,0.022382848,-0.012523737
1689140538154422800,0.802057564,-0.260968,10.64940929,0.105785601,0.011990812,-0.016787136,-0.265756398,0.304063618,9.239224434,-0.104453288,0.022116385,-0.012257273
1689140538155422800,0.799663365,-0.260968,10.65419769,0.105785601,0.011990812,-0.016787136,-0.265756398,0.306457818,9.239224434,-0.104453288,0.022382848,-0.012257273
1689140538156422800,0.799663365,-0.258573771,10.65419769,0.106052071,0.012257273,-0.016520673,-0.265756398,0.306457818,9.236829758,-0.104186833,0.022382848,-0.012257273
1689140538157422800,0.802057564,-0.256179571,10.65180302,0.106052071,0.011990812,-0.016520673,-0.263362199,0.304063618,9.239224434,-0.104186833,0.022116385,-0.012257273
1689140538158422800,0.804451764,-0.256179571,10.65419769,0.106052071,0.012257273,-0.016520673,-0.265756398,0.301669419,9.244012833,-0.103920363,0.022116385,-0.012257273
1689140538159422800,0.802057564,-0.256179571,10.65659142,0.106052071,0.012257273,-0.016520673,-0.268150598,0.304063618,9.236829758,-0.104186833,0.022116385,-0.012523737
1689140538160422800,0.797269166,-0.256179571,10.66137981,0.106052071,0.012257273,-0.016520673,-0.268150598,0.304063618,9.234436035,-0.103920363,0.021849923,-0.012523737
1689140538161422800,0.799663365,-0.253785372,10.66377449,0.106052071,0.012257273,-0.016520673,-0.268150598,0.29688102,9.234436035,-0.103920363,0.021849923,-0.012523737
1689140538162422800,0.797269166,-0.253785372,10.66616821,0.106052071,0.011990812,-0.016520673,-0.272938997,0.29688102,9.232041359,-0.104186833,0.02158346,-0.012523737
1689140538163422800,0.797269166,-0.253785372,10.66856289,0.106052071,0.011990812,-0.016787136,-0.272938997,0.299275219,9.232041359,-0.104186833,0.02158346,-0.012523737
1689140538164422800,0.794874966,-0.256179571,10.66856289,0.106052071,0.011990812,-0.016787136,-0.275333196,0.301669419,9.232041359,-0.103920363,0.02158346,-0.012523737
1689140538165422800,0.797269166,-0.256179571,10.66616821,0.106052071,0.012257273,-0.016520673,-0.280121595,0.299275219,9.234436035,-0.103920363,0.021849923,-0.012523737
1689140538224380900,0.799663365,-0.248996973,10.65419769,0.105785601,0.011724349,-0.016520673,-0.270544797,0.311246216,9.224859238,-0.104719758,0.022382848,-0.012257273
1689140538225380900,0.797269166,-0.248996973,10.64940929,0.105785601,0.011724349,-0.016520673,-0.270544797,0.308852017,9.224859238,-0.104719758,0.022116385,-0.012257273
1689140538226380900,0.797269166,-0.251391172,10.65180302,0.105785601,0.011724349,-0.016254211,-0.270544797,0.311246216,9.220070839,-0.104719758,0.022382848,-0.012257273
1689140538227380900,0.797269166,-0.251391172,10.65180302,0.105785601,0.011724349,-0.016520673,-0.272938997,0.311246216,9.224859238,-0.104719758,0.022382848,-0.012257273
1689140538228380900,0.797269166,-0.251391172,10.65180302,0.106052071,0.011724349,-0.016520673,-0.272938997,0.308852017,9.22725296,-0.104453288,0.022382848,-0.012257273
1689140538229380900,0.797269166,-0.251391172,10.65419769,0.106052071,0.011724349,-0.016520673,-0.272938997,0.311246216,9.232041359,-0.104453288,0.022382848,-0.012257273
1689140538230380900,0.802057564,-0.251391172,10.65659142,0.106052071,0.011724349,-0.016520673,-0.277727395,0.308852017,9.229647636,-0.104453288,0.022382848,-0.012257273
1689140538231380900,0.802057564,-0.253785372,10.65419769,0.106052071,0.011990812,-0.016520673,-0.280121595,0.311246216,9.22725296,-0.104453288,0.022382848,-0.012257273
1689140538232380900,0.804451764,-0.253785372,10.65180302,0.106052071,0.011990812,-0.016520673,-0.275333196,0.311246216,9.22725296,-0.104453288,0.022382848,-0.012257273
1689140538233380900,0.806845963,-0.251391172,10.65180302,0.105785601,0.011990812,-0.016520673,-0.275333196,0.311246216,9.224859238,-0.104453288,0.022382848,-0.011990812
1689140538234380900,0.806845963,-0.251391172,10.65419769,0.105785601,0.011990812,-0.016254211,-0.272938997,0.306457818,9.224859238,-0.104453288,0.022649311,-0.011990812
1689140538235380900,0.806845963,-0.246602774,10.65180302,0.105785601,0.011990812,-0.015987748,-0.272938997,0.304063618,9.224859238,-0.104453288,0.022649311,-0.011990812
1689140538236380900,0.804451764,-0.246602774,10.65419769,0.105785601,0.011990812,-0.015987748,-0.272938997,0.306457818,9.222464561,-0.104453288,0.022382848,-0.011990812
1689140538237380900,0.802057564,-0.246602774,10.65419769,0.106052071,0.011724349,-0.015987748,-0.270544797,0.306457818,9.222464561,-0.104186833,0.022382848,-0.011990812
1689140538238380900,0.802057564,-0.241814375,10.65419769,0.106052071,0.011990812,-0.016254211,-0.272938997,0.304063618,9.222464561,-0.104186833,0.022382848,-0.011990812
1689140538297341600,0.806845963,-0.256179571,10.64701462,0.106318533,0.012257273,-0.016520673,-0.275333196,0.313640416,9.248801231,-0.104719758,0.022382848,-0.012257273
1689140538298341600,0.809240162,-0.251391172,10.64940929,0.106584989,0.012257273,-0.016254211,-0.275333196,0.313640416,9.248801231,-0.104453288,0.022116385,-0.012257273
1689140538299341600,0.806845963,-0.251391172,10.64940929,0.106318533,0.012257273,-0.016254211,-0.277727395,0.313640416,9.248801231,-0.104453288,0.022116385,-0.011990812
1689140538300341600,0.804451764,-0.248996973,10.64701462,0.106052071,0.011990812,-0.016254211,-0.277727395,0.313640416,9.25358963,-0.104186833,0.022116385,-0.011990812
1689140538301341600,0.804451764,-0.251391172,10.6446209,0.106052071,0.011990812,-0.016254211,-0.277727395,0.313640416,9.25358963,-0.104453288,0.022116385,-0.011990812
1689140538302341600,0.806845963,-0.248996973,10.64222622,0.105785601,0.011990812,-0.016254211,-0.277727395,0.313640416,9.251194954,-0.104186833,0.022382848,-0.011990812
