timestamp,left_data_Ac_X,left_data_Ac_Y,left_data_Ac_Z,left_data_Gy_X,left_data_Gy_Y,left_data_Gy_Z,left_data_flex_1,left_data_flex_2,left_data_flex_3,left_data_flex_4,left_data_flex_5,right_data_Ac_X,right_data_Ac_Y,right_data_Ac_Z,right_data_Gy_X,right_data_Gy_Y,right_data_Gy_Z,right_data_flex_1,right_data_flex_2,right_data_flex_3,right_data_flex_4,right_data_flex_5
1693678206396355400,1.029506683,-0.85473001,10.23162079,-0.060486984,0.000133231,-0.007993874,-24,42,87,12,-8,-0.124498487,2.41455245,10.22324085,0.053159267,-0.027445635,0.038104136,14,35,-31,-27,40
1693678206397355400,1.028309584,-0.85592711,10.23162079,-0.060486984,0.000133231,-0.007993874,-21,44,90,12,-9,-0.125695586,2.41335535,10.22443867,0.053159267,-0.027445635,0.038237367,9,30,-29,-23,41
1693678206398355400,1.024718285,-0.85353291,10.23401546,-0.060486984,0.000266462,-0.008127105,-22,45,87,13,-7,-0.128089786,2.41335535,10.22443867,0.053026035,-0.027445635,0.037970904,15,35,-29,-26,49
1693678206399355400,1.025915384,-0.851138711,10.24119759,-0.060353752,0.000133231,-0.008127105,-20,53,90,8,-5,-0.125695586,2.41335535,10.23162079,0.0528928,-0.027712099,0.038104136,18,37,-27,-28,48
1693678206400355400,1.023521185,-0.846350312,10.24478912,-0.060486984,0.000133231,-0.008127105,-28,46,90,11,-11,-0.124498487,2.41694665,10.22922707,0.053026035,-0.02797856,0.038237367,20,39,-21,-22,53
1693678206450793300,1.025915384,-0.85592711,10.22443867,-0.060353752,0.000266462,-0.007993874,-28,39,76,11,-13,-0.118512981,2.419340849,10.21486187,0.053558957,-0.027712099,0.037837673,10,37,-27,-22,42
1693678206451793300,1.027112484,-0.860715508,10.22563553,-0.060220521,0.000399694,-0.008127105,-24,35,85,9,-11,-0.114921682,2.420537949,10.21486187,0.053425729,-0.027712099,0.037837673,17,35,-30,-24,46
1693678206452793300,1.027112484,-0.859518409,10.22324085,-0.060220521,0.000532925,-0.008127105,-22,41,85,7,-9,-0.113724582,2.420537949,10.21965027,0.053425729,-0.027845331,0.037704438,9,33,-28,-26,29
1693678206453793300,1.025915384,-0.860715508,10.22204399,-0.06008729,0.000399694,-0.007993874,-28,47,89,13,-8,-0.116118781,2.419340849,10.22084713,0.053558957,-0.027845331,0.037704438,7,41,-25,-20,50
1693678206454793300,1.024718285,-0.859518409,10.22324085,-0.06008729,0.000399694,-0.007993874,-24,46,90,9,-6,-0.119710088,2.420537949,10.21725559,0.053692192,-0.027845331,0.03757121,18,39,-25,-27,52
1693678206493769400,1.018732786,-0.852335811,10.22443867,-0.059954058,0.0,-0.007860643,-20,36,79,8,-9,-0.112527482,2.421735048,10.23042393,0.053159267,-0.027712099,0.037704438,10,30,-28,-31,48
1693678206494769400,1.019929886,-0.849941611,10.22563553,-0.059954058,0.0,-0.007727412,-28,41,87,13,-7,-0.113724582,2.421735048,10.23640919,0.053026035,-0.027845331,0.037837673,18,39,-31,-24,48
1693678206495769400,1.019929886,-0.851138711,10.22802925,-0.06008729,0.000133231,-0.007727412,-22,49,87,11,-3,-0.114921682,2.422932148,10.23760605,0.053292494,-0.027712099,0.037970904,15,33,-29,-27,44
1693678206496769400,1.019929886,-0.849941611,10.23042393,-0.060220521,0.000133231,-0.007594181,-20,43,87,9,-9,-0.118512981,2.420537949,10.23281765,0.053159267,-0.027712099,0.038104136,20,35,-24,-24,49
1693678206497769400,1.017535686,-0.848744512,10.23281765,-0.060220521,0.000133231,-0.007460949,-32,41,90,6,-7,-0.122104287,2.418143749,10.22922707,0.053159267,-0.027445635,0.038104136,14,31,-24,-30,48
1693678206565727800,1.024718285,-0.85353291,10.23640919,-0.060753446,0.000399694,-0.008127105,-30,44,90,8,-9,-0.116118781,2.412158251,10.23042393,0.053026035,-0.027845331,0.038237367,14,36,-25,-27,46
1693678206566727800,1.024718285,-0.85592711,10.23880386,-0.060753446,0.000399694,-0.007993874,-24,41,90,10,-8,-0.114921682,2.41455245,10.23042393,0.053026035,-0.027845331,0.038237367,15,37,-31,-22,44
1693678206567727800,1.023521185,-0.85473001,10.23880386,-0.060620211,0.000399694,-0.008127105,-21,43,88,13,-9,-0.114921682,2.41335535,10.23042393,0.0528928,-0.027845331,0.038370594,20,39,-24,-24,47
1693678206568727800,1.022324085,-0.85592711,10.23162079,-0.060620211,0.000532925,-0.007993874,-24,46,88,3,-7,-0.112527482,2.412158251,10.22922707,0.053026035,-0.027845331,0.038237367,20,35,-28,-26,46
1693678206569727800,1.024718285,-0.85353291,10.22922707,-0.060620211,0.000532925,-0.007860643,-20,47,81,11,-8,-0.111330383,2.412158251,10.22802925,0.0528928,-0.027845331,0.038104136,18,32,-28,-20,50
1693678206603706200,1.022324085,-0.857124209,10.23162079,-0.060353752,0.000532925,-0.008127105,-30,41,88,9,-6,-0.119710088,2.41335535,10.22802925,0.053026035,-0.027179174,0.038104136,20,32,-24,-23,47
1693678206604706200,1.021126986,-0.85353291,10.22922707,-0.060353752,0.000399694,-0.008260337,-22,41,87,3,-9,-0.119710088,2.41455245,10.22802925,0.053026035,-0.027179174,0.037837673,15,43,-32,-27,44
1693678206605706200,1.021126986,-0.85473001,10.23042393,-0.060486984,0.000399694,-0.008127105,-24,46,88,10,-7,-0.119710088,2.41574955,10.22922707,0.053159267,-0.027045943,0.037704438,18,37,-18,-20,69
1693678206606706200,1.018732786,-0.85353291,10.23521233,-0.060620211,0.000266462,-0.007993874,-19,41,87,8,-7,-0.116118781,2.418143749,10.23042393,0.053159267,-0.02691271,0.037837673,17,28,-29,-24,49
1693678206607706200,1.019929886,-0.849941611,10.23162079,-0.060753446,0.000399694,-0.007860643,-22,45,84,10,-5,-0.110133275,2.418143749,10.22443867,0.053159267,-0.027045943,0.037704438,15,33,-25,-25,48
1693678206667669400,1.028309584,-0.861912608,10.22563553,-0.060486984,0.000399694,-0.007594181,-32,43,84,10,-8,-0.111330383,2.421735048,10.23640919,0.053026035,-0.027445635,0.037704438,13,30,-21,-28,52
1693678206668669400,1.029506683,-0.858321309,10.22443867,-0.060353752,0.000266462,-0.007860643,-27,45,87,11,-8,-0.112527482,2.421735048,10.23042393,0.0528928,-0.027445635,0.037704438,19,33,-19,-23,52
1693678206669669400,1.029506683,-0.85592711,10.22324085,-0.060486984,0.000266462,-0.007860643,-6,58,101,24,13,-0.111330383,2.420537949,10.23042393,0.053026035,-0.027312404,0.037837673,18,30,-31,-31,48
1693678206670669400,1.030703783,-0.851138711,10.22683239,-0.060486984,0.000399694,-0.007860643,6,45,90,13,-8,-0.112527482,2.421735048,10.23401546,0.0528928,-0.027312404,0.037970904,10,31,-28,-28,46
1693678206671669400,1.034295082,-0.85353291,10.22683239,-0.060486984,0.000399694,-0.007860643,-28,39,87,6,-12,-0.113724582,2.420537949,10.23880386,0.0528928,-0.027312404,0.037837673,6,30,-26,-27,43
1693678206719641500,1.021126986,-0.866701007,10.23281765,-0.060353752,0.000266462,-0.007860643,-24,46,89,1,-12,-0.120907187,2.419340849,10.22683239,0.05249311,-0.027712099,0.038237367,10,32,-22,-36,53
1693678206720641500,1.019929886,-0.865503907,10.23162079,-0.060353752,0.000266462,-0.007860643,-27,45,88,10,-7,-0.120907187,2.418143749,10.23042393,0.052359879,-0.027712099,0.038237367,15,36,-21,-23,55
1693678206721641500,1.018732786,-0.866701007,10.23401546,-0.060486984,0.000266462,-0.007860643,-19,37,89,11,-9,-0.117315881,2.420537949,10.23401546,0.052226644,-0.027712099,0.038370594,13,40,-28,-22,49
1693678206722641500,1.016338587,-0.867898107,10.23162079,-0.060353752,0.000133231,-0.007860643,-23,45,83,2,-15,-0.116118781,2.424129248,10.23162079,0.052359879,-0.027845331,0.038237367,17,31,-33,-27,48
1693678206723641500,1.016338587,-0.866701007,10.23281765,-0.060620211,0.0,-0.007860643,-28,45,87,7,-9,-0.116118781,2.421735048,10.23401546,0.05249311,-0.02797856,0.038237367,6,37,-23,-29,50
1693678206776607400,1.010353088,-0.864306808,10.23401546,-0.060353752,0.000266462,-0.007727412,-20,46,76,4,-8,-0.111330383,2.420537949,10.22802925,0.05249311,-0.027445635,0.037837673,9,39,-19,-20,52
1693678206777607400,1.010353088,-0.861912608,10.23760605,-0.060486984,0.000266462,-0.007727412,-27,41,87,8,-6,-0.114921682,2.419340849,10.22443867,0.052359879,-0.027312404,0.037837673,15,36,-22,-22,52
1693678206778607400,1.015141487,-0.864306808,10.23760605,-0.060486984,0.000399694,-0.007860643,-28,46,92,3,-5,-0.114921682,2.418143749,10.22204399,0.052359879,-0.027312404,0.037837673,17,30,-32,-24,49
1693678206779607400,1.017535686,-0.861912608,10.23880386,-0.060486984,0.000399694,-0.007860643,-30,39,77,8,-4,-0.117315881,2.418143749,10.21845245,0.05249311,-0.027578866,0.037970904,16,30,-30,-30,50
1693678206780607400,1.016338587,-0.857124209,10.23760605,-0.060486984,0.000399694,-0.007860643,-23,45,85,8,-9,-0.117315881,2.421735048,10.21725559,0.052626338,-0.027712099,0.037970904,16,30,-27,-24,51
1693678206826579100,1.019929886,-0.857124209,10.22922707,-0.060353752,0.000532925,-0.007727412,-28,39,90,3,-11,-0.116118781,2.41694665,10.21965027,0.053159267,-0.027845331,0.037970904,13,30,-24,-26,43
1693678206827579100,1.021126986,-0.860715508,10.23162079,-0.060220521,0.000532925,-0.007727412,-26,38,84,4,-9,-0.112527482,2.418143749,10.22204399,0.053026035,-0.027712099,0.037704438,11,30,-24,-22,51
1693678206828579100,1.021126986,-0.860715508,10.23162079,-0.060220521,0.000532925,-0.007594181,-20,45,87,2,-7,-0.111330383,2.419340849,10.22683239,0.0528928,-0.027712099,0.03757121,15,37,-20,-28,50
1693678206829579100,1.018732786,-0.858321309,10.23042393,-0.060353752,0.000532925,-0.007594181,-22,42,87,3,-7,-0.111330383,2.41455245,10.22683239,0.0528928,-0.027712099,0.03757121,20,39,-23,-22,53
1693678206830579100,1.017535686,-0.860715508,10.22683239,-0.060220521,0.000532925,-0.007460949,-22,45,88,8,-12,-0.107739076,2.412158251,10.22922707,0.053026035,-0.027712099,0.037837673,20,35,-32,-20,48
1693678206881545900,1.011550188,-0.851138711,10.23640919,-0.060620211,0.000133231,-0.007460949,-23,42,84,8,-12,-0.105344877,2.410961151,10.22084713,0.0528928,-0.027445635,0.038237367,16,31,-25,-24,52
1693678206882545900,1.013944387,-0.848744512,10.23401546,-0.060753446,0.0,-0.007460949,-27,45,85,12,-11,-0.106541976,2.41335535,10.22084713,0.0528928,-0.027312404,0.038104136,22,30,-25,-22,48
1693678206883545900,1.015141487,-0.849941611,10.23401546,-0.060753446,0.0,-0.007327718,-23,43,88,7,-7,-0.112527482,2.41574955,10.22084713,0.0528928,-0.027445635,0.038104136,9,36,-29,-27,50
1693678206884545900,1.017535686,-0.847547412,10.23401546,-0.060753446,0.0,-0.007327718,-30,39,83,-6,-12,-0.112527482,2.41694665,10.21965027,0.0528928,-0.027312404,0.038237367,14,32,-24,-23,50
1693678206885545900,1.016338587,-0.846350312,10.24000072,-0.060886677,0.0,-0.007194487,-29,42,84,4,-13,-0.113724582,2.41574955,10.22084713,0.052759573,-0.027312404,0.038237367,19,29,-23,-30,46
1693678206938515700,1.022324085,-0.85592711,10.23042393,-0.060753446,0.000666156,-0.007860643,-24,37,83,10,-10,-0.10055647,2.418143749,10.23760605,0.0528928,-0.027445635,0.037970904,20,32,-23,-28,50
1693678206939515700,1.019929886,-0.85353291,10.22324085,-0.060620211,0.000532925,-0.007860643,-26,44,89,7,-8,-0.106541976,2.41455245,10.23880386,0.052759573,-0.027578866,0.038104136,19,45,-27,-18,43
1693678206940515700,1.017535686,-0.85353291,10.22204399,-0.060620211,0.000399694,-0.007860643,-22,43,90,6,-9,-0.105344877,2.41694665,10.24239445,0.0528928,-0.027445635,0.038370594,11,30,-25,-22,40
1693678206941515700,1.018732786,-0.857124209,10.22443867,-0.060486984,0.000532925,-0.007993874,-17,42,89,11,-9,-0.10295067,2.421735048,10.23880386,0.0528928,-0.027312404,0.038370594,15,33,-25,-23,46
1693678206942515700,1.021126986,-0.858321309,10.22324085,-0.060353752,0.000532925,-0.008127105,-26,43,86,13,-8,-0.104147777,2.425326347,10.23760605,0.0528928,-0.027179174,0.038503829,23,35,-29,-23,52
1693678207002476200,1.027112484,-0.860715508,10.22563553,-0.060486984,0.000799387,-0.007727412,-21,43,83,12,-18,-0.113724582,2.420537949,10.22084713,0.0528928,-0.027712099,0.038104136,7,33,-25,-24,50
1693678207003476200,1.024718285,-0.859518409,10.22443867,-0.060620211,0.000799387,-0.007727412,-26,43,83,6,-9,-0.112527482,2.421735048,10.22204399,0.053159267,-0.027712099,0.038104136,13,35,-23,-24,48
1693678207004476200,1.023521185,-0.860715508,10.22084713,-0.060753446,0.000666156,-0.007727412,-22,45,86,8,-11,-0.113724582,2.424129248,10.22204399,0.053159267,-0.027712099,0.038104136,13,33,-25,-16,46
1693678207005476200,1.024718285,-0.861912608,10.21845245,-0.060753446,0.000532925,-0.007594181,-26,47,87,11,-8,-0.113724582,2.424129248,10.22204399,0.053026035,-0.027845331,0.037970904,15,41,-28,-22,48
1693678207006476200,1.024718285,-0.860715508,10.21366405,-0.060620211,0.000532925,-0.007594181,-32,38,83,6,-13,-0.111330383,2.427720547,10.22084713,0.0528928,-0.027845331,0.037970904,15,31,-21,-24,55
1693678207058447700,1.021126986,-0.863109708,10.22922707,-0.060620211,0.000532925,-0.007594181,-24,41,83,13,-15,-0.110133275,2.41574955,10.23521233,0.053026035,-0.027712099,0.037970904,17,32,-27,-28,46
1693678207059447700,1.021126986,-0.861912608,10.23042393,-0.060753446,0.000399694,-0.007727412,-24,43,86,10,-7,-0.112527482,2.41574955,10.23281765,0.053159267,-0.027578866,0.037837673,11,34,-29,-24,48
1693678207060447700,1.021126986,-0.859518409,10.22683239,-0.060620211,0.000266462,-0.007727412,-24,45,89,10,-13,-0.114921682,2.41335535,10.23281765,0.053159267,-0.027578866,0.037970904,15,36,-21,-23,46
1693678207061447700,1.022324085,-0.860715508,10.22922707,-0.060753446,0.000399694,-0.007594181,-24,47,90,5,-14,-0.114921682,2.41455245,10.23521233,0.053026035,-0.027845331,0.038237367,15,36,-28,-29,41
1693678207062447700,1.027112484,-0.860715508,10.23162079,-0.060753446,0.000266462,-0.007594181,-21,45,87,8,-8,-0.114921682,2.41574955,10.24119759,0.0528928,-0.027845331,0.038370594,16,35,-29,-26,50
1693678207118413300,1.027112484,-0.861912608,10.23521233,-0.060353752,0.0,-0.007727412,-26,38,83,13,-12,-0.120907187,2.410961151,10.22084713,0.053425729,-0.02691271,0.038370594,14,31,-23,-28,49
1693678207119413300,1.025915384,-0.860715508,10.23521233,-0.060353752,0.0,-0.007727412,-24,40,89,8,-17,-0.118512981,2.412158251,10.21845245,0.053558957,-0.02691271,0.038503829,9,30,-25,-27,46
1693678207120413300,1.023521185,-0.860715508,10.23760605,-0.060486984,0.000133231,-0.007860643,-17,42,88,13,-8,-0.118512981,2.41574955,10.21965027,0.053425729,-0.02691271,0.038370594,17,33,-21,-24,46
1693678207121413300,1.022324085,-0.861912608,10.23042393,-0.060486984,0.000266462,-0.007860643,-26,42,86,11,-8,-0.118512981,2.418143749,10.21725559,0.053292494,-0.026779478,0.038370594,18,39,-23,-18,49
1693678207122413300,1.023521185,-0.858321309,10.23042393,-0.060353752,0.000133231,-0.007993874,-24,41,85,8,-11,-0.117315881,2.41574955,10.21845245,0.053159267,-0.026779478,0.038503829,15,36,-23,-21,55
1693678207162583000,1.025915384,-0.863109708,10.23281765,-0.060353752,0.000133231,-0.008127105,-22,41,86,13,-9,-0.111330383,2.407369852,10.21965027,0.053292494,-0.027578866,0.037704438,17,33,-24,-28,52
1693678207163583000,1.027112484,-0.863109708,10.23162079,-0.060353752,0.000266462,-0.008127105,-32,44,88,7,-7,-0.112527482,2.407369852,10.22324085,0.053292494,-0.027312404,0.037704438,10,44,-21,-24,53
1693678207164583000,1.025915384,-0.864306808,10.23521233,-0.060353752,0.000399694,-0.007993874,-24,46,83,13,-12,-0.111330383,2.409764051,10.22443867,0.053292494,-0.027445635,0.037704438,13,35,-24,-25,55
1693678207165583000,1.023521185,-0.866701007,10.23760605,-0.060220521,0.000133231,-0.008127105,-17,45,89,3,-9,-0.108936176,2.41335535,10.22084713,0.053159267,-0.027578866,0.037970904,7,40,-21,-22,49
1693678207166583000,1.018732786,-0.865503907,10.23640919,-0.060353752,0.000133231,-0.008127105,-33,38,90,12,-13,-0.111330383,2.41694665,10.21605873,0.053292494,-0.027445635,0.037837673,14,36,-30,-22,48
1693678207213557800,1.018732786,-0.857124209,10.23281765,-0.060620211,-0.000133231,-0.007860643,-28,41,77,6,-5,-0.119710088,2.421735048,10.22443867,0.053026035,-0.027445635,0.038237367,10,30,-32,-28,46
1693678207214557800,1.021126986,-0.858321309,10.23401546,-0.060620211,-0.000133231,-0.007860643,-27,46,87,13,-8,-0.120907187,2.422932148,10.22084713,0.0528928,-0.027179174,0.038104136,13,32,-31,-23,39
1693678207215557800,1.022324085,-0.858321309,10.22922707,-0.060753446,0.0,-0.007860643,-20,46,89,4,-8,-0.120907187,2.422932148,10.21965027,0.0528928,-0.027179174,0.037970904,20,36,-29,-20,52
1693678207216557800,1.024718285,-0.858321309,10.23281765,-0.060753446,-0.000133231,-0.007993874,-27,43,90,13,-7,-0.122104287,2.420537949,10.22204399,0.0528928,-0.027179174,0.038237367,17,35,-23,-16,52
1693678207217557800,1.027112484,-0.861912608,10.23401546,-0.060753446,0.0,-0.007860643,-32,41,85,10,-9,-0.123301387,2.421735048,10.22324085,0.053026035,-0.027312404,0.038237367,16,36,-28,-27,45
1693678207276519600,1.024718285,-0.865503907,10.23640919,-0.061286367,0.000133231,-0.007860643,-20,48,90,0,-9,-0.112527482,2.425326347,10.21845245,0.0528928,-0.027845331,0.038237367,5,30,-27,-28,52
1693678207277519600,1.021126986,-0.866701007,10.23760605,-0.06115314,0.000399694,-0.007727412,-25,45,88,12,-9,-0.112527482,2.427720547,10.21965027,0.052759573,-0.027578866,0.038237367,21,35,-25,-19,49
1693678207278519600,1.019929886,-0.867898107,10.23401546,-0.061286367,0.000133231,-0.007594181,-24,43,90,10,-7,-0.112527482,2.426523447,10.21486187,0.052759573,-0.027312404,0.038104136,19,35,-28,-18,53
1693678207279519600,1.018732786,-0.861912608,10.23521233,-0.06115314,0.000133231,-0.007727412,-16,43,89,13,-9,-0.114921682,2.425326347,10.21366405,0.052626338,-0.027045943,0.037970904,10,35,-24,-20,52
1693678207280519600,1.022324085,-0.860715508,10.23042393,-0.06115314,0.000133231,-0.007727412,-30,45,88,11,-11,-0.114921682,2.425326347,10.21605873,0.05249311,-0.026779478,0.037970904,14,38,-23,-26,46
1693678207331488500,1.018732786,-0.857124209,10.22683239,-0.060353752,0.000399694,-0.007594181,-24,35,87,7,-8,-0.106541976,2.41694665,10.20648193,0.053026035,-0.027578866,0.038370594,14,34,-29,-22,53
1693678207332488500,1.022324085,-0.859518409,10.22324085,-0.060353752,0.000532925,-0.007594181,-30,49,99,28,-13,-0.105344877,2.421735048,10.20648193,0.053159267,-0.027445635,0.038370594,15,35,-29,-20,42
1693678207333488500,1.022324085,-0.859518409,10.22084713,-0.060220521,0.000666156,-0.007594181,-22,53,90,11,-7,-0.10295067,2.420537949,10.20887566,0.053026035,-0.027578866,0.038237367,10,31,-24,-30,48
1693678207334488500,1.022324085,-0.858321309,10.21965027,-0.060220521,0.000666156,-0.007594181,-24,49,90,13,-12,-0.10295067,2.419340849,10.21127033,0.052626338,-0.027312404,0.038237367,9,34,-28,-29,48
1693678207335488500,1.024718285,-0.857124209,10.22084713,-0.060353752,0.000799387,-0.007594181,-22,37,88,10,-13,-0.10295067,2.41694665,10.21366405,0.052359879,-0.027312404,0.037970904,7,30,-29,-31,41
1693678207387455300,1.021126986,-0.861912608,10.22324085,-0.060220521,0.000399694,-0.007594181,-26,37,87,10,-11,-0.116118781,2.424129248,10.22922707,0.052626338,-0.027712099,0.038237367,15,35,-24,-30,50
1693678207388455300,1.019929886,-0.861912608,10.22084713,-0.060220521,0.000399694,-0.007860643,-22,40,85,7,-9,-0.114921682,2.427720547,10.22802925,0.052759573,-0.027578866,0.038237367,20,47,-21,-28,49
1693678207389455300,1.022324085,-0.864306808,10.22324085,-0.060353752,0.000532925,-0.007860643,-19,37,90,8,-4,-0.113724582,2.424129248,10.22084713,0.052759573,-0.027712099,0.038237367,15,31,-29,-27,44
1693678207390455300,1.024718285,-0.861912608,10.22443867,-0.060220521,0.000399694,-0.007860643,-19,49,87,11,-9,-0.113724582,2.422932148,10.21965027,0.052626338,-0.027578866,0.038370594,19,35,-25,-31,48
1693678207391455300,1.023521185,-0.860715508,10.22563553,-0.060486984,0.000266462,-0.007727412,-23,45,81,11,-9,-0.116118781,2.425326347,10.21965027,0.052626338,-0.027712099,0.038104136,10,32,-28,-23,48
1693678207441430200,1.016338587,-0.85353291,10.22204399,-0.060753446,0.000266462,-0.007460949,-21,47,88,8,-12,-0.117315881,2.432508945,10.22922707,0.053292494,-0.028511487,0.038370594,13,31,-25,-12,55
1693678207442430200,1.016338587,-0.851138711,10.22802925,-0.060886677,0.000399694,-0.007194487,-30,48,84,13,-11,-0.117315881,2.431311846,10.22922707,0.053159267,-0.028111791,0.038237367,18,39,-29,-27,55
1693678207443430200,1.015141487,-0.85353291,10.23162079,-0.060886677,0.000399694,-0.007327718,-24,45,87,2,-7,-0.116118781,2.428917646,10.22563553,0.0528928,-0.027578866,0.037970904,11,42,-21,-23,50
1693678207444430200,1.016338587,-0.85473001,10.23042393,-0.060886677,0.000399694,-0.007327718,-26,37,84,4,-11,-0.113724582,2.425326347,10.21965027,0.05249311,-0.026779478,0.03757121,7,30,-21,-31,41
1693678207445430200,1.015141487,-0.85473001,10.23162079,-0.060886677,0.000399694,-0.007327718,-22,42,87,3,-9,-0.114921682,2.422932148,10.21725559,0.052226644,-0.026379786,0.037437979,13,3,-22,-28,49
1693678207836426000,1.021126986,-0.859518409,10.23042393,-0.060353752,0.000532925,-0.007993874,-28,47,87,6,-6,-0.112527482,2.425326347,10.21246719,0.052626338,-0.027312404,0.037970904,11,31,-25,-27,52
1693678207837426000,1.022324085,-0.859518409,10.23281765,-0.060353752,0.000532925,-0.007860643,-24,42,83,8,-9,-0.112527482,2.425326347,10.21605873,0.05249311,-0.027312404,0.037970904,15,33,-23,-23,55
1693678207838426000,1.023521185,-0.859518409,10.23760605,-0.060220521,0.000532925,-0.007860643,-23,39,88,9,-11,-0.111330383,2.424129248,10.21725559,0.05249311,-0.027578866,0.037970904,17,37,-22,-23,53
1693678207839426000,1.022324085,-0.860715508,10.24000072,-0.060353752,0.000666156,-0.007860643,-28,38,87,0,-13,-0.110133275,2.427720547,10.21486187,0.052626338,-0.027445635,0.038104136,18,44,-21,-23,51
1693678207840426000,1.021126986,-0.863109708,10.24239445,-0.060486984,0.000666156,-0.007727412,-28,34,90,8,-13,-0.113724582,2.427720547,10.21366405,0.0528928,-0.027845331,0.038104136,-1,36,-23,-24,50
1693678207897391400,1.012747288,-0.857124209,10.23640919,-0.06008729,0.000799387,-0.007460949,-14,45,89,13,-9,-0.107739076,2.420537949,10.21605873,0.053026035,-0.027179174,0.038370594,14,48,-33,-24,50
1693678207898391400,1.011550188,-0.859518409,10.24359226,-0.060220521,0.000666156,-0.007460949,-28,43,87,8,-8,-0.111330383,2.419340849,10.21605873,0.053026035,-0.027312404,0.038237367,15,35,-23,-19,52
1693678207899391400,1.010353088,-0.859518409,10.24718285,-0.060220521,0.000666156,-0.007594181,-24,37,86,10,-9,-0.113724582,2.419340849,10.21486187,0.053026035,-0.027179174,0.038104136,18,44,-29,-22,55
1693678207900391400,1.010353088,-0.859518409,10.24598598,-0.060220521,0.000532925,-0.007594181,-26,38,86,11,-11,-0.116118781,2.418143749,10.21605873,0.053159267,-0.027045943,0.037970904,15,55,-20,-20,48
1693678207901391400,1.009155989,-0.863109708,10.24598598,-0.060220521,0.000532925,-0.007460949,-22,44,84,13,-9,-0.118512981,2.418143749,10.21965027,0.053292494,-0.027312404,0.038104136,15,40,-24,-23,54
1693678207943389000,1.019929886,-0.85473001,10.23162079,-0.060353752,0.000399694,-0.007594181,-24,42,90,11,-9,-0.116118781,2.41574955,10.23162079,0.053292494,-0.027445635,0.037837673,11,39,-21,-20,54
1693678207944389000,1.018732786,-0.85473001,10.22683239,-0.060353752,0.000399694,-0.007594181,-28,39,84,10,-13,-0.112527482,2.41694665,10.22683239,0.053026035,-0.027445635,0.03757121,18,41,-24,-27,50
1693678207945389000,1.017535686,-0.85592711,10.22204399,-0.060353752,0.000266462,-0.007594181,-23,39,83,6,-13,-0.116118781,2.41694665,10.22683239,0.053026035,-0.027312404,0.03757121,15,30,-15,-19,53
1693678207946389000,1.019929886,-0.859518409,10.21845245,-0.060353752,0.0,-0.007594181,-23,37,88,7,-15,-0.116118781,2.41694665,10.22563553,0.053026035,-0.027445635,0.03757121,15,35,-34,-23,49
1693678207947389000,1.019929886,-0.858321309,10.21845245,-0.060353752,0.0,-0.007594181,-22,42,89,13,-13,-0.113724582,2.41574955,10.22443867,0.053026035,-0.027712099,0.03757121,15,36,-19,-24,50
1693678208004330000,1.024718285,-0.859518409,10.22204399,-0.060486984,0.0,-0.008260337,-20,38,89,8,-10,-0.110133275,2.419340849,10.21725559,0.053159267,-0.027445635,0.038104136,15,36,-21,-23,53
1693678208005330000,1.023521185,-0.860715508,10.22204399,-0.060353752,-0.000133231,-0.008260337,-26,45,79,7,-9,-0.110133275,2.41694665,10.21845245,0.0528928,-0.027445635,0.038370594,19,43,-25,-23,55
1693678208006330000,1.028309584,-0.863109708,10.22683239,-0.060353752,-0.000266462,-0.008393568,-26,39,83,3,-17,-0.110133275,2.41574955,10.22563553,0.0528928,-0.027445635,0.038370594,16,42,-23,-24,50
1693678208007330000,1.025915384,-0.864306808,10.23042393,-0.060486984,-0.000399694,-0.008260337,-33,38,88,8,-11,-0.107739076,2.41694665,10.22683239,0.052626338,-0.027578866,0.038503829,14,31,-24,-24,52
1693678208008330000,1.023521185,-0.865503907,10.23401546,-0.060353752,-0.000532925,-0.008127105,-30,38,85,3,-13,-0.10295067,2.418143749,10.22443867,0.052759573,-0.027712099,0.038503829,11,40,-30,-18,52
1693678208064295300,1.018732786,-0.861912608,10.24119759,-0.06008729,-0.00106585,-0.007727412,-23,51,90,12,-11,-0.107739076,2.427720547,10.21605873,0.052759573,-0.028245023,0.038370594,17,32,-25,-22,52
1693678208065295300,1.017535686,-0.857124209,10.23640919,-0.060220521,-0.00106585,-0.007860643,-30,43,87,6,-15,-0.107739076,2.427720547,10.21725559,0.052759573,-0.028111791,0.038237367,14,35,-19,-24,53
1693678208066295300,1.015141487,-0.85592711,10.23760605,-0.06008729,-0.001199081,-0.007993874,-24,33,85,18,-9,-0.106541976,2.424129248,10.21486187,0.0528928,-0.02797856,0.038370594,18,36,-28,-24,49
1693678208067295300,1.017535686,-0.860715508,10.22683239,-0.060220521,-0.001199081,-0.007993874,-28,43,87,1,-16,-0.106541976,2.424129248,10.21725559,0.0528928,-0.028111791,0.038237367,14,39,-28,-26,52
1693678208068295300,1.017535686,-0.861912608,10.22683239,-0.060220521,-0.001199081,-0.008260337,-26,41,87,13,-11,-0.104147777,2.421735048,10.22324085,0.052626338,-0.028111791,0.038237367,11,35,-25,-30,48
1693678208117266200,1.031900883,-0.863109708,10.23281765,-0.06008729,-0.000133231,-0.007993874,-22,45,87,7,-11,-0.104147777,2.426523447,10.2028904,0.053159267,-0.027445635,0.037970904,16,40,-23,-24,55
1693678208118266200,1.029506683,-0.865503907,10.23401546,-0.06008729,-0.000133231,-0.007993874,-24,42,85,4,-11,-0.106541976,2.426523447,10.20648193,0.053425729,-0.027312404,0.037970904,24,36,-20,-30,50
1693678208119266200,1.028309584,-0.865503907,10.23162079,-0.060220521,-0.000133231,-0.008127105,-23,35,79,6,-16,-0.106541976,2.428917646,10.21127033,0.053425729,-0.027445635,0.037970904,18,34,-18,-28,50
1693678208120266200,1.028309584,-0.866701007,10.23281765,-0.060353752,-0.000133231,-0.008127105,-24,46,75,10,-11,-0.10175357,2.430114746,10.21007347,0.053292494,-0.027445635,0.038104136,10,23,-32,-27,48
1693678208121266200,1.025915384,-0.865503907,10.22922707,-0.060220521,-0.000133231,-0.008127105,-30,34,80,4,-7,-0.104147777,2.430114746,10.21007347,0.053159267,-0.027045943,0.038104136,18,28,-31,-17,50
1693678208175235800,1.023521185,-0.85353291,10.22204399,-0.060620211,0.000133231,-0.007993874,-20,38,83,8,-9,-0.10295067,2.419340849,10.22683239,0.0528928,-0.027712099,0.03757121,19,43,-20,-22,55
1693678208176235800,1.023521185,-0.85473001,10.22443867,-0.060620211,0.000133231,-0.007993874,-24,43,84,7,-12,-0.10295067,2.420537949,10.22683239,0.0528928,-0.027712099,0.03757121,15,35,-20,-20,50
1693678208177235800,1.019929886,-0.857124209,10.21965027,-0.060620211,-0.000133231,-0.007993874,-23,38,90,3,-9,-0.104147777,2.420537949,10.23042393,0.0528928,-0.02797856,0.03757121,7,32,-33,-32,45
1693678208178235800,1.019929886,-0.85473001,10.21605873,-0.060486984,0.0,-0.007993874,-29,45,85,13,-12,-0.104147777,2.422932148,10.23281765,0.0528928,-0.02797856,0.03757121,10,37,-21,-24,44
1693678208179235800,1.023521185,-0.85473001,10.21725559,-0.060486984,0.0,-0.007993874,-24,37,85,11,-10,-0.104147777,2.424129248,10.22443867,0.0528928,-0.027845331,0.037437979,15,35,-19,-20,51
1693678208235945000,1.012747288,-0.864306808,10.21127033,-0.060753446,-0.000266462,-0.007460949,-24,42,84,10,-15,-0.104147777,2.419340849,10.23760605,0.052226644,-0.027045943,0.037304748,11,33,-24,-16,51
1693678208236945000,1.016338587,-0.865503907,10.21366405,-0.060753446,-0.000266462,-0.007460949,-18,47,87,10,-12,-0.107739076,2.420537949,10.23640919,0.052359879,-0.027312404,0.037704438,20,30,-29,-24,50
1693678208237945000,1.021126986,-0.866701007,10.22084713,-0.060886677,0.0,-0.007460949,-27,48,83,7,-13,-0.104147777,2.418143749,10.22922707,0.052359879,-0.027445635,0.037837673,13,30,-25,-27,48
1693678208238945000,1.022324085,-0.864306808,10.22324085,-0.060753446,0.000133231,-0.007460949,-1,64,100,6,-5,-0.104147777,2.41455245,10.22922707,0.05249311,-0.027445635,0.037837673,7,38,-30,-30,52
1693678208239945000,1.022324085,-0.866701007,10.22204399,-0.060753446,0.000133231,-0.007460949,-22,45,85,10,-11,-0.10175357,2.41335535,10.22802925,0.05249311,-0.027445635,0.037837673,19,30,-34,-32,49
1693678208300908600,1.018732786,-0.849941611,10.22443867,-0.060620211,0.000133231,-0.007194487,-23,48,86,13,-12,-0.120907187,2.41455245,10.23042393,0.052759573,-0.027312404,0.038104136,18,30,-25,-20,53
1693678208301908600,1.021126986,-0.849941611,10.22922707,-0.060620211,0.000133231,-0.007194487,-27,43,90,8,-8,-0.119710088,2.41455245,10.22802925,0.052626338,-0.027312404,0.038104136,19,36,-21,-29,43
1693678208302908600,1.019929886,-0.851138711,10.23042393,-0.060620211,0.000133231,-0.007194487,-29,49,87,8,-15,-0.117315881,2.41574955,10.22922707,0.052759573,-0.027312404,0.038104136,17,30,-31,-24,46
1693678208303908600,1.021126986,-0.849941611,10.22563553,-0.060620211,0.000266462,-0.007460949,-25,46,89,12,-9,-0.114921682,2.41694665,10.22563553,0.052759573,-0.027312404,0.038104136,17,40,-25,-29,50
1693678208304908600,1.021126986,-0.846350312,10.23162079,-0.060753446,0.000266462,-0.007594181,-25,37,87,2,-9,-0.116118781,2.41694665,10.22802925,0.0528928,-0.027445635,0.038237367,15,39,-23,-27,51
1693678208359876000,1.024718285,-0.847547412,10.22084713,-0.060753446,0.000399694,-0.007727412,-26,41,84,6,-9,-0.110133275,2.422932148,10.22802925,0.05249311,-0.027578866,0.038104136,13,32,-23,-27,91
1693678208360876000,1.024718285,-0.847547412,10.21845245,-0.060620211,0.000266462,-0.007594181,-26,43,90,7,-8,-0.110133275,2.420537949,10.22683239,0.052626338,-0.027445635,0.038237367,13,30,-24,-24,50
1693678208361876000,1.023521185,-0.851138711,10.22084713,-0.060620211,0.000266462,-0.007594181,-22,38,88,8,-15,-0.111330383,2.420537949,10.23281765,0.052759573,-0.027445635,0.038370594,15,31,-27,-23,50
1693678208362876000,1.021126986,-0.848744512,10.22324085,-0.060620211,0.000266462,-0.007727412,-30,49,89,13,-9,-0.111330383,2.419340849,10.23640919,0.053026035,-0.027578866,0.038370594,7,41,-23,-32,52
1693678208363876000,1.022324085,-0.848744512,10.22204399,-0.060620211,0.000266462,-0.007860643,-24,49,90,9,-8,-0.113724582,2.421735048,10.23760605,0.053026035,-0.027845331,0.038503829,23,44,-24,-23,53
1693678208415841700,1.024718285,-0.860715508,10.23521233,-0.060486984,0.000666156,-0.007594181,-23,37,88,11,-13,-0.110133275,2.427720547,10.22802925,0.053159267,-0.027445635,0.037837673,7,9,-23,-27,53
1693678208416841700,1.029506683,-0.860715508,10.23760605,-0.060620211,0.000666156,-0.007594181,-30,42,87,6,-13,-0.108936176,2.428917646,10.22802925,0.053159267,-0.027312404,0.037837673,11,30,-25,-27,45
1693678208417841700,1.030703783,-0.863109708,10.23640919,-0.060620211,0.000532925,-0.007460949,-22,41,89,12,-7,-0.112527482,2.427720547,10.22204399,0.053159267,-0.027312404,0.037837673,15,39,-23,-29,53
1693678208418841700,1.030703783,-0.860715508,10.24119759,-0.060620211,0.000666156,-0.007460949,-23,43,90,8,-13,-0.112527482,2.428917646,10.22204399,0.053026035,-0.027445635,0.037837673,20,43,-21,-21,55
1693678208419841700,1.031900883,-0.859518409,10.24359226,-0.060486984,0.000532925,-0.007594181,-30,48,85,10,-9,-0.111330383,2.426523447,10.22204399,0.053026035,-0.027312404,0.037704438,18,42,-22,-19,55
1693678208472808900,1.028309584,-0.860715508,10.23401546,-0.060486984,0.000532925,-0.007594181,-21,45,90,12,-11,-0.110133275,2.424129248,10.22683239,0.053159267,-0.027845331,0.037970904,13,23,-32,-26,44
1693678208473808900,1.025915384,-0.861912608,10.23401546,-0.060486984,0.000532925,-0.007594181,-22,38,87,7,-16,-0.107739076,2.424129248,10.22802925,0.053159267,-0.027578866,0.038104136,17,36,-28,-23,45
1693678208474808900,1.023521185,-0.860715508,10.23401546,-0.060353752,0.000532925,-0.007727412,-20,44,89,12,-11,-0.108936176,2.426523447,10.22922707,0.053026035,-0.027312404,0.037970904,16,33,-21,-22,50
1693678208475808900,1.024718285,-0.860715508,10.22802925,-0.060353752,0.000399694,-0.007727412,-22,45,87,10,-8,-0.108936176,2.430114746,10.22802925,0.0528928,-0.027179174,0.037837673,25,44,-21,-17,52
1693678208476808900,1.024718285,-0.860715508,10.22204399,-0.060353752,0.000266462,-0.007727412,-27,32,89,16,-5,-0.110133275,2.430114746,10.22683239,0.052759573,-0.027312404,0.037704438,21,28,-23,-26,49
1693678208530775900,1.033097982,-0.859518409,10.22683239,-0.060486984,0.000399694,-0.007594181,-23,44,81,10,-11,-0.108936176,2.41455245,10.21845245,0.052093416,-0.025580399,0.037304748,15,37,-20,-20,52
1693678208531775900,1.034295082,-0.857124209,10.22683239,-0.060486984,0.000399694,-0.007727412,-23,44,81,10,-12,-0.108936176,2.412158251,10.22204399,0.052359879,-0.025980091,0.037304748,18,37,-25,-24,49
1693678208532775900,1.035492182,-0.859518409,10.22683239,-0.060620211,0.000266462,-0.007860643,-20,43,89,12,-11,-0.110133275,2.412158251,10.22204399,0.052226644,-0.026379786,0.037437979,19,31,-32,-32,46
1693678208533775900,1.035492182,-0.857124209,10.22563553,-0.060620211,0.000133231,-0.007727412,-20,44,91,13,2,-0.108936176,2.412158251,10.22683239,0.052226644,-0.026646247,0.037437979,14,33,-25,-29,48
1693678208534775900,1.035492182,-0.85473001,10.23042393,-0.060753446,0.000399694,-0.007727412,-24,41,88,6,-7,-0.107739076,2.410961151,10.22563553,0.052226644,-0.02691271,0.03757121,15,43,-22,-17,48
1693678208588742500,1.025915384,-0.861912608,10.22683239,-0.060220521,0.000932619,-0.007860643,-20,43,90,12,-5,-0.111330383,2.418143749,10.22443867,0.053026035,-0.028111791,0.038104136,17,47,-24,-21,51
1693678208589742500,1.025915384,-0.863109708,10.23162079,-0.060353752,0.00106585,-0.007993874,-26,42,89,12,-7,-0.110133275,2.419340849,10.23042393,0.053026035,-0.02797856,0.038104136,21,47,-20,-20,53
1693678208590742500,1.027112484,-0.864306808,10.23162079,-0.060353752,0.000932619,-0.007993874,-22,44,90,13,-5,-0.110133275,2.421735048,10.23401546,0.0528928,-0.027845331,0.037970904,15,35,-28,-20,53
1693678208591742500,1.027112484,-0.864306808,10.23281765,-0.060486984,0.000666156,-0.008127105,-21,43,90,13,-6,-0.111330383,2.421735048,10.23281765,0.052759573,-0.027578866,0.037837673,16,31,-24,-24,45
1693678208592742500,1.022324085,-0.865503907,10.23162079,-0.060486984,0.000799387,-0.007860643,-18,49,88,11,-3,-0.111330383,2.422932148,10.23281765,0.052759573,-0.027445635,0.037837673,21,43,-24,-24,42
1693678208641713300,1.028309584,-0.860715508,10.24000072,-0.060486984,0.000399694,-0.007727412,-23,44,87,13,-8,-0.117315881,2.41455245,10.22084713,0.053425729,-0.027712099,0.037837673,17,43,-21,-18,53
1693678208642713300,1.024718285,-0.863109708,10.23880386,-0.060486984,0.000399694,-0.007727412,-27,48,90,8,-7,-0.118512981,2.41455245,10.22443867,0.053159267,-0.027712099,0.037704438,14,37,-24,-12,55
1693678208643713300,1.024718285,-0.864306808,10.24119759,-0.060620211,0.000399694,-0.007594181,-18,43,90,15,-3,-0.119710088,2.41574955,10.22922707,0.0528928,-0.027312404,0.037437979,20,41,-19,-20,55
1693678208644713300,1.023521185,-0.865503907,10.24478912,-0.060486984,0.000666156,-0.007727412,-20,49,90,10,-9,-0.118512981,2.41574955,10.22683239,0.052759573,-0.027179174,0.037437979,20,39,-28,-22,55
1693678208645713300,1.024718285,-0.865503907,10.24239445,-0.060486984,0.000532925,-0.007594181,-22,43,89,12,-14,-0.118512981,2.41694665,10.22922707,0.052759573,-0.02691271,0.037437979,11,33,-21,-27,50
1693678208694681800,1.025915384,-0.858321309,10.23281765,-0.060753446,0.000799387,-0.007460949,-22,47,90,13,-9,-0.114921682,2.424129248,10.21366405,0.053159267,-0.027578866,0.03757121,9,30,-34,-32,42
1693678208695681800,1.028309584,-0.859518409,10.23880386,-0.061019909,0.000799387,-0.007460949,-23,45,90,10,-5,-0.116118781,2.41694665,10.22802925,0.052759573,-0.027445635,0.037704438,5,30,-35,-32,42
1693678208696681800,1.027112484,-0.857124209,10.24000072,-0.061019909,0.000666156,-0.007327718,-26,49,89,13,-3,-0.113724582,2.419340849,10.22683239,0.0528928,-0.027578866,0.037704438,20,45,-26,-21,51
1693678208697681800,1.025915384,-0.857124209,10.23760605,-0.061019909,0.000666156,-0.007327718,-18,53,90,17,-9,-0.114921682,2.418143749,10.22802925,0.0528928,-0.027578866,0.037704438,14,35,-39,-22,48
1693678208698681800,1.024718285,-0.85592711,10.24239445,-0.061019909,0.000666156,-0.007460949,-22,38,90,12,-5,-0.118512981,2.418143749,10.22922707,0.053026035,-0.027312404,0.037704438,15,37,-27,-30,50
1693678208744652600,1.037886381,-0.859518409,10.23042393,-0.060486984,0.000532925,-0.008127105,-26,45,83,8,-15,-0.123301387,2.422932148,10.23521233,0.053026035,-0.027445635,0.037837673,11,25,-35,-32,42
1693678208745652600,1.036689281,-0.85592711,10.23162079,-0.060353752,0.000532925,-0.008127105,-32,38,83,5,-14,-0.122104287,2.422932148,10.23521233,0.053026035,-0.027445635,0.037837673,-4,28,-31,-24,42
1693678208746652600,1.034295082,-0.858321309,10.23640919,-0.060353752,0.000532925,-0.008127105,-28,41,86,8,-15,-0.119710088,2.422932148,10.23401546,0.0528928,-0.027445635,0.037837673,5,31,-34,-33,39
1693678208747652600,1.033097982,-0.858321309,10.23521233,-0.060353752,0.000532925,-0.007993874,-31,42,84,6,-18,-0.114921682,2.425326347,10.22563553,0.053026035,-0.027445635,0.038104136,-1,27,-34,-33,39
1693678208748652600,1.031900883,-0.860715508,10.23042393,-0.060353752,0.000532925,-0.007993874,-24,32,84,5,-15,-0.112527482,2.425326347,10.22443867,0.0528928,-0.027445635,0.038104136,-9,24,-33,-34,39
1693678208800637700,1.033097982,-0.865503907,10.22922707,-0.060753446,0.000266462,-0.007860643,-32,41,84,8,-8,-0.110133275,2.422932148,10.22683239,0.053026035,-0.027445635,0.037704438,10,31,-36,-32,42
1693678208801637700,1.031900883,-0.864306808,10.23162079,-0.060886677,0.000399694,-0.007860643,-33,41,77,0,-13,-0.108936176,2.422932148,10.22922707,0.053026035,-0.027312404,0.037704438,9,31,-31,-33,43
1693678208802637700,1.029506683,-0.864306808,10.23521233,-0.060620211,0.000266462,-0.007860643,-31,43,80,4,-13,-0.105344877,2.421735048,10.23042393,0.0528928,-0.027312404,0.037704438,7,30,-36,-28,40
1693678208803637700,1.028309584,-0.861912608,10.23281765,-0.060620211,0.000133231,-0.007993874,-28,42,75,1,-15,-0.10295067,2.419340849,10.22922707,0.052626338,-0.027312404,0.037837673,7,27,-35,-33,41
1693678208804637700,1.025915384,-0.861912608,10.23042393,-0.060486984,0.0,-0.007993874,-31,33,80,6,-15,-0.105344877,2.418143749,10.22204399,0.052759573,-0.027312404,0.037970904,10,27,-32,-33,41
1693678208863584800,1.018732786,-0.85592711,10.23640919,-0.060220521,0.000133231,-0.007327718,-23,43,87,11,-9,-0.106541976,2.410961151,10.20648193,0.052759573,-0.027712099,0.038104136,13,35,-27,-28,42
1693678208864584800,1.018732786,-0.85473001,10.23640919,-0.060353752,0.000266462,-0.007460949,-31,36,81,1,-15,-0.106541976,2.41335535,10.21127033,0.052759573,-0.027712099,0.038104136,15,27,-30,-33,42
1693678208865584800,1.018732786,-0.85353291,10.23640919,-0.060220521,0.000266462,-0.007460949,-29,35,81,3,-13,-0.105344877,2.41574955,10.21246719,0.0528928,-0.027712099,0.038237367,6,30,-32,-32,40
1693678208866584800,1.015141487,-0.85473001,10.23281765,-0.060220521,0.000266462,-0.007727412,-26,34,84,4,-18,-0.10295067,2.41455245,10.21965027,0.053026035,-0.027578866,0.038104136,-5,24,-36,-33,40
1693678208867584800,1.016338587,-0.857124209,10.23640919,-0.060220521,0.000133231,-0.007860643,-30,37,83,4,-11,-0.105344877,2.41694665,10.22204399,0.0528928,-0.027312404,0.038104136,9,30,-34,-33,39
1693678208928548000,1.025915384,-0.866701007,10.23640919,-0.060486984,0.000399694,-0.007860643,-26,42,89,11,-17,-0.110133275,2.41574955,10.21725559,0.053026035,-0.027578866,0.037837673,12,30,-34,-30,42
1693678208929548000,1.028309584,-0.864306808,10.23281765,-0.060620211,0.000399694,-0.007993874,-30,41,83,6,-13,-0.112527482,2.41455245,10.21725559,0.053026035,-0.027312404,0.037837673,10,28,-33,-33,40
1693678208930548000,1.027112484,-0.861912608,10.23401546,-0.060620211,0.000532925,-0.007993874,-31,36,81,6,-16,-0.113724582,2.41574955,10.21965027,0.053159267,-0.027578866,0.037970904,5,27,-34,-34,40
1693678208931548000,1.024718285,-0.859518409,10.23401546,-0.060486984,0.000532925,-0.007993874,-36,34,79,4,-17,-0.111330383,2.41694665,10.22204399,0.053292494,-0.027445635,0.037837673,-5,30,-34,-33,39
1693678208932548000,1.022324085,-0.857124209,10.23521233,-0.060353752,0.000532925,-0.008127105,-30,38,79,11,-12,-0.112527482,2.41574955,10.22084713,0.053292494,-0.027845331,0.037837673,5,31,-34,-34,42
1693678208983517200,1.023521185,-0.857124209,10.23281765,-0.060620211,0.000666156,-0.007594181,-28,41,83,10,-10,-0.119710088,2.419340849,10.22683239,0.052626338,-0.027445635,0.038104136,7,29,-33,-28,48
1693678208984517200,1.025915384,-0.858321309,10.23640919,-0.060620211,0.000666156,-0.007594181,-30,37,83,3,-12,-0.119710088,2.421735048,10.22204399,0.052626338,-0.027445635,0.038104136,-1,28,-32,-33,39
1693678208985517200,1.023521185,-0.857124209,10.23521233,-0.060620211,0.000666156,-0.007594181,-32,38,84,4,-15,-0.120907187,2.422932148,10.22443867,0.052626338,-0.027179174,0.038104136,9,30,-28,-33,45
1693678208986517200,1.022324085,-0.85592711,10.23640919,-0.060620211,0.000666156,-0.007727412,-32,33,87,6,-12,-0.120907187,2.418143749,10.22563553,0.052626338,-0.027045943,0.037970904,15,28,-29,-32,40
1693678208987517200,1.025915384,-0.858321309,10.23640919,-0.060486984,0.000799387,-0.007727412,-27,38,85,0,-13,-0.120907187,2.41694665,10.22324085,0.052759573,-0.027045943,0.037970904,5,33,-34,-33,46
1693678209044481500,1.018732786,-0.861912608,10.22922707,-0.060486984,0.000399694,-0.007993874,-31,39,81,26,-15,-0.110133275,2.420537949,10.23042393,0.052626338,-0.027045943,0.038237367,5,25,-32,-32,42
1693678209045481500,1.017535686,-0.863109708,10.22683239,-0.060620211,0.000266462,-0.007727412,-32,39,83,2,-14,-0.111330383,2.419340849,10.23042393,0.05249311,-0.027312404,0.037970904,-2,23,-34,-35,38
1693678209046481500,1.016338587,-0.864306808,10.22802925,-0.060620211,0.000399694,-0.007860643,-32,37,80,6,-18,-0.110133275,2.420537949,10.23281765,0.052626338,-0.027312404,0.037970904,-3,23,-34,-36,34
1693678209047481500,1.016338587,-0.863109708,10.22802925,-0.060486984,0.000399694,-0.007993874,-24,38,80,10,-18,-0.108936176,2.422932148,10.23281765,0.052359879,-0.027312404,0.038104136,5,24,-34,-34,41
1693678209048481500,1.021126986,-0.860715508,10.22802925,-0.060486984,0.000266462,-0.007993874,-28,37,80,7,-16,-0.110133275,2.421735048,10.22922707,0.052359879,-0.027312404,0.038104136,-6,25,-34,-33,38
1693678209098450500,1.025915384,-0.857124209,10.22563553,-0.061019909,0.000666156,-0.008127105,-28,37,85,3,-13,-0.106541976,2.424129248,10.21605873,0.053558957,-0.027712099,0.038237367,14,31,-27,-22,48
1693678209099450500,1.024718285,-0.858321309,10.22683239,-0.06115314,0.000666156,-0.008260337,-28,39,85,8,-16,-0.108936176,2.425326347,10.21725559,0.053558957,-0.027578866,0.038237367,18,33,-28,-24,54
1693678209100450500,1.024718285,-0.858321309,10.22563553,-0.06115314,0.000799387,-0.008127105,-31,37,83,7,-12,-0.111330383,2.424129248,10.21605873,0.053425729,-0.027578866,0.038104136,5,39,-20,-23,48
1693678209101450500,1.022324085,-0.860715508,10.22683239,-0.061019909,0.000799387,-0.008260337,-31,41,84,8,-14,-0.111330383,2.426523447,10.21725559,0.053292494,-0.027712099,0.038237367,11,37,-23,-23,51
1693678209102450500,1.021126986,-0.863109708,10.23042393,-0.061019909,0.000932619,-0.007993874,-28,37,81,10,-17,-0.112527482,2.425326347,10.21366405,0.053159267,-0.027712099,0.038237367,17,43,-24,-22,53
1693678209171408500,1.028309584,-0.867898107,10.22922707,-0.060886677,0.000532925,-0.007993874,-24,43,90,13,-7,-0.118512981,2.41574955,10.21366405,0.053026035,-0.027712099,0.038104136,10,39,-24,-22,50
1693678209172408500,1.027112484,-0.867898107,10.22922707,-0.060886677,0.000399694,-0.007993874,-6,63,103,24,13,-0.118512981,2.41694665,10.21605873,0.053159267,-0.027845331,0.037970904,16,38,-29,-23,50
1693678209173408500,1.027112484,-0.867898107,10.22443867,-0.060886677,0.000532925,-0.008127105,-1,71,112,32,15,-0.116118781,2.41574955,10.22204399,0.053026035,-0.027712099,0.037970904,9,33,-27,-21,54
1693678209174408500,1.027112484,-0.863109708,10.22324085,-0.060886677,0.000399694,-0.007993874,-2,65,109,30,13,-0.114921682,2.41574955,10.21965027,0.053026035,-0.027712099,0.037970904,20,35,-25,-20,45
1693678209175408500,1.025915384,-0.865503907,10.22443867,-0.060886677,0.000666156,-0.007993874,-20,44,89,13,0,-0.113724582,2.41455245,10.21605873,0.0528928,-0.027712099,0.038104136,11,36,-25,-28,55
1693678209226376700,1.011550188,-0.857124209,10.23401546,-0.060620211,0.000666156,-0.007594181,-1,62,105,27,8,-0.120907187,2.41335535,10.23042393,0.052626338,-0.027845331,0.038104136,14,36,-18,-20,51
1693678209227376700,1.013944387,-0.85353291,10.23880386,-0.060620211,0.000532925,-0.007727412,-8,59,100,18,7,-0.122104287,2.41335535,10.23042393,0.052626338,-0.027845331,0.038104136,20,32,-23,-23,53
1693678209228376700,1.017535686,-0.85473001,10.23880386,-0.060486984,0.000532925,-0.007860643,-19,43,90,10,-8,-0.123301387,2.41455245,10.22802925,0.052759573,-0.027845331,0.038104136,16,36,-20,-19,55
1693678209229376700,1.016338587,-0.857124209,10.23640919,-0.060353752,0.000532925,-0.007860643,-20,47,89,14,-3,-0.120907187,2.41574955,10.22324085,0.052759573,-0.027845331,0.038104136,15,32,-29,-24,48
1693678209230376700,1.015141487,-0.858321309,10.23281765,-0.060486984,0.000266462,-0.008127105,-17,45,92,12,-3,-0.122104287,2.41694665,10.22204399,0.0528928,-0.027845331,0.038104136,18,33,-27,-27,52
1693678209288341800,1.015141487,-0.861912608,10.24239445,-0.060353752,0.000266462,-0.007594181,-20,45,89,8,-4,-0.110133275,2.41694665,10.21845245,0.0528928,-0.027712099,0.037970904,15,41,-25,-20,52
1693678209289341800,1.013944387,-0.860715508,10.23760605,-0.060353752,0.000266462,-0.007727412,-4,59,107,34,14,-0.116118781,2.419340849,10.22204399,0.0528928,-0.027445635,0.038104136,16,42,-29,-22,51
1693678209290341800,1.013944387,-0.859518409,10.23640919,-0.060220521,0.000532925,-0.007727412,-8,58,88,13,-5,-0.116118781,2.419340849,10.22443867,0.052626338,-0.027445635,0.037970904,18,35,-26,-24,50
1693678209291341800,1.018732786,-0.849941611,10.23521233,-0.060220521,0.000399694,-0.007860643,-21,45,89,12,7,-0.118512981,2.420537949,10.22204399,0.05249311,-0.027445635,0.037970904,18,32,-25,-27,48
1693678209292341800,1.018732786,-0.851138711,10.24000072,-0.060220521,0.000266462,-0.007860643,2,67,109,38,14,-0.117315881,2.420537949,10.22204399,0.05249311,-0.027445635,0.037970904,5,35,-23,-31,53
1693678209344311100,1.023521185,-0.860715508,10.22563553,-0.060753446,0.000532925,-0.007594181,-4,64,107,26,-6,-0.117315881,2.408566952,10.23521233,0.053159267,-0.027578866,0.038104136,11,48,-21,-26,54
1693678209345311100,1.018732786,-0.864306808,10.22563553,-0.060886677,0.000532925,-0.007727412,-27,43,85,10,-5,-0.119710088,2.409764051,10.23281765,0.053159267,-0.027845331,0.038237367,13,43,-21,-24,48
1693678209346311100,1.019929886,-0.864306808,10.22922707,-0.060886677,0.000532925,-0.007727412,-14,47,87,11,-4,-0.118512981,2.409764051,10.22922707,0.053159267,-0.027712099,0.038237367,13,30,-24,-33,46
1693678209347311100,1.019929886,-0.861912608,10.23042393,-0.060886677,0.000399694,-0.007727412,-20,46,90,14,-6,-0.120907187,2.412158251,10.22922707,0.053159267,-0.027712099,0.038370594,20,31,-31,-26,51
1693678209348311100,1.019929886,-0.861912608,10.23042393,-0.060753446,0.000399694,-0.007727412,-20,52,91,13,-8,-0.120907187,2.412158251,10.22802925,0.0528928,-0.027712099,0.038237367,20,43,-27,-18,52
1693678209402275900,1.022324085,-0.857124209,10.23281765,-0.060753446,0.000666156,-0.007860643,-1,66,113,34,12,-0.113724582,2.421735048,10.21007347,0.052626338,-0.027578866,0.038104136,14,44,-28,-27,54
1693678209403275900,1.021126986,-0.857124209,10.22922707,-0.060886677,0.000666156,-0.007860643,-27,38,89,8,-12,-0.113724582,2.419340849,10.20767879,0.05249311,-0.027578866,0.038237367,6,33,-24,-21,50
1693678209404275900,1.021126986,-0.859518409,10.22922707,-0.060753446,0.000666156,-0.007860643,-27,47,87,6,-9,-0.111330383,2.421735048,10.20528507,0.05249311,-0.027712099,0.038370594,13,33,-25,-26,49
1693678209405275900,1.022324085,-0.859518409,10.22922707,-0.060753446,0.000666156,-0.007860643,-22,42,88,13,-6,-0.111330383,2.426523447,10.20408726,0.05249311,-0.027578866,0.038370594,11,37,-27,-27,50
1693678209406275900,1.019929886,-0.858321309,10.22802925,-0.060620211,0.000666156,-0.007860643,-14,46,90,9,-9,-0.108936176,2.425326347,10.20528507,0.052759573,-0.027845331,0.038370594,20,41,-18,-20,52
1693678209453248600,1.018732786,-0.85592711,10.23281765,-0.060220521,0.000532925,-0.007860643,-16,45,90,12,-6,-0.114921682,2.419340849,10.22683239,0.053026035,-0.027312404,0.038104136,13,33,-29,-24,50
1693678209454248600,1.018732786,-0.85473001,10.23401546,-0.060353752,0.000532925,-0.008127105,-26,43,90,7,-9,-0.117315881,2.41694665,10.22204399,0.053026035,-0.027445635,0.038104136,11,40,-24,-21,53
1693678209455248600,1.019929886,-0.85592711,10.23521233,-0.060353752,0.000532925,-0.008127105,-21,45,88,6,-8,-0.119710088,2.420537949,10.21725559,0.0528928,-0.027578866,0.037837673,9,39,-21,-20,48
1693678209456248600,1.017535686,-0.860715508,10.23880386,-0.060486984,0.000532925,-0.007993874,-24,41,90,9,-9,-0.120907187,2.422932148,10.21845245,0.052626338,-0.027712099,0.037837673,20,41,-24,-23,49
1693678209457248600,1.016338587,-0.861912608,10.24119759,-0.060353752,0.000666156,-0.007993874,-23,47,115,7,-5,-0.119710088,2.424129248,10.21965027,0.052626338,-0.027845331,0.037837673,19,40,-20,-27,54
1693678209529205200,1.015141487,-0.852335811,10.23760605,-0.060886677,0.000532925,-0.007993874,-1,65,107,34,14,-0.116118781,2.418143749,10.22084713,0.052626338,-0.027445635,0.037970904,17,36,-23,-21,57
1693678209530205200,1.017535686,-0.85353291,10.24119759,-0.060620211,0.000666156,-0.007993874,-21,41,90,0,-12,-0.116118781,2.421735048,10.22084713,0.05249311,-0.027179174,0.037837673,19,40,-24,-20,52
1693678209531205200,1.021126986,-0.851138711,10.23760605,-0.060620211,0.000532925,-0.008127105,-20,45,85,13,-5,-0.116118781,2.424129248,10.22443867,0.052626338,-0.027045943,0.037970904,16,35,-23,-20,49
1693678209532205200,1.022324085,-0.85353291,10.23640919,-0.060620211,0.000532925,-0.008127105,-18,50,95,12,-4,-0.116118781,2.424129248,10.22683239,0.05249311,-0.027312404,0.037837673,7,35,-19,-16,53
1693678209533205200,1.023521185,-0.85592711,10.23640919,-0.060753446,0.000532925,-0.007860643,-33,42,89,9,-8,-0.111330383,2.425326347,10.22683239,0.052626338,-0.027445635,0.037704438,16,32,-21,-19,50
1693678209598164000,1.019929886,-0.85592711,10.22922707,-0.060886677,0.000266462,-0.007860643,-18,34,87,10,-10,-0.114921682,2.41455245,10.21605873,0.05249311,-0.028245023,0.037837673,14,35,-24,-20,54
1693678209599164000,1.021126986,-0.85592711,10.23042393,-0.060886677,0.000399694,-0.007727412,-1,64,104,23,8,-0.113724582,2.41335535,10.21845245,0.0528928,-0.028111791,0.037837673,15,42,-24,-19,50
1693678209600164000,1.018732786,-0.85473001,10.22563553,-0.060886677,0.000399694,-0.007860643,-16,64,97,29,7,-0.110133275,2.41574955,10.22324085,0.0528928,-0.028111791,0.037837673,20,31,-28,-23,49
1693678209601164000,1.019929886,-0.85592711,10.23162079,-0.060886677,0.000532925,-0.007727412,-3,63,104,24,8,-0.111330383,2.41694665,10.22204399,0.0528928,-0.028111791,0.037837673,16,43,-17,-19,52
1693678209602164000,1.022324085,-0.85473001,10.23281765,-0.060886677,0.000666156,-0.007594181,-30,41,96,22,-17,-0.116118781,2.41694665,10.21845245,0.052759573,-0.02797856,0.037970904,15,36,-24,-22,54
1693678209657130000,1.031900883,-0.864306808,10.23521233,-0.060353752,0.000266462,-0.007993874,-30,49,89,11,-8,-0.113724582,2.421735048,10.22683239,0.0528928,-0.027445635,0.038104136,10,30,-33,-30,54
1693678209658130000,1.030703783,-0.865503907,10.23760605,-0.060353752,0.000133231,-0.007860643,-20,42,90,15,-7,-0.112527482,2.424129248,10.22563553,0.0528928,-0.027312404,0.038104136,18,38,-27,-20,55
1693678209659130000,1.027112484,-0.866701007,10.23640919,-0.060353752,0.000266462,-0.007860643,-19,53,90,12,-9,-0.114921682,2.422932148,10.22683239,0.053026035,-0.027445635,0.038104136,17,39,-28,-20,50
1693678209660130000,1.027112484,-0.863109708,10.23521233,-0.060353752,0.000266462,-0.007860643,-27,44,90,10,-7,-0.113724582,2.425326347,10.22324085,0.053026035,-0.027578866,0.038104136,18,36,-23,-20,54
1693678209661130000,1.025915384,-0.858321309,10.23880386,-0.060353752,0.000133231,-0.007993874,-27,43,85,3,-9,-0.114921682,2.424129248,10.22084713,0.053026035,-0.027578866,0.038104136,19,36,-27,-22,49
1693678209705102100,1.016338587,-0.861912608,10.23760605,-0.060620211,0.000666156,-0.007594181,-22,44,90,10,-7,-0.113724582,2.407369852,10.22204399,0.05249311,-0.028111791,0.038237367,20,32,-23,-26,48
1693678209706102100,1.012747288,-0.860715508,10.23521233,-0.060753446,0.000666156,-0.007727412,-26,49,91,12,-7,-0.111330383,2.409764051,10.22324085,0.05249311,-0.028111791,0.038370594,14,36,-25,-22,58
1693678209707102100,1.013944387,-0.861912608,10.23521233,-0.060753446,0.000399694,-0.007860643,-20,47,90,11,-12,-0.111330383,2.410961151,10.22324085,0.052226644,-0.028111791,0.038370594,17,43,-29,-19,54
1693678209708102100,1.015141487,-0.860715508,10.23521233,-0.060886677,0.000266462,-0.007860643,-19,41,88,12,-13,-0.106541976,2.412158251,10.22204399,0.052226644,-0.02797856,0.038370594,7,36,-32,-24,50
1693678209709102100,1.016338587,-0.860715508,10.23281765,-0.060886677,0.000399694,-0.007727412,-26,50,88,6,-7,-0.108936176,2.41574955,10.22204399,0.052359879,-0.027845331,0.038503829,13,33,-28,-24,49
1693678209758076100,1.023521185,-0.858321309,10.24718285,-0.060353752,0.000532925,-0.007860643,-23,41,90,11,-11,-0.117315881,2.41455245,10.20767879,0.05249311,-0.027712099,0.037837673,5,36,-27,-19,53
1693678209759076100,1.022324085,-0.85592711,10.25077438,-0.060220521,0.000399694,-0.007727412,-20,49,90,13,-4,-0.117315881,2.418143749,10.20648193,0.052226644,-0.027845331,0.037837673,17,35,-22,-20,51
1693678209760076100,1.022324085,-0.85473001,10.25197124,-0.060353752,0.000399694,-0.007993874,-24,53,90,6,-9,-0.117315881,2.419340849,10.20887566,0.052226644,-0.027845331,0.037704438,10,42,-24,-30,53
1693678209761076100,1.022324085,-0.849941611,10.24718285,-0.060353752,0.000532925,-0.007860643,-18,41,85,12,-5,-0.119710088,2.418143749,10.21007347,0.052359879,-0.027712099,0.037837673,17,39,-24,-26,49
1693678209762076100,1.024718285,-0.848744512,10.24359226,-0.060486984,0.000666156,-0.007993874,-22,47,100,6,-9,-0.120907187,2.41574955,10.21246719,0.052359879,-0.027445635,0.037704438,10,36,-34,-27,48
1693678209810046000,1.018732786,-0.85353291,10.21965027,-0.060220521,0.000532925,-0.007594181,-22,47,79,13,-15,-0.117315881,2.41574955,10.22324085,0.052759573,-0.027845331,0.037704438,11,35,-20,-27,52
1693678209811046000,1.023521185,-0.85473001,10.21845245,-0.060353752,0.000532925,-0.007727412,-31,48,89,12,-8,-0.117315881,2.41574955,10.22683239,0.052626338,-0.027845331,0.03757121,20,43,-29,-23,55
1693678209812046000,1.021126986,-0.85592711,10.21965027,-0.060353752,0.000532925,-0.007727412,-26,42,90,1,-10,-0.114921682,2.419340849,10.22802925,0.052759573,-0.027845331,0.037704438,10,30,-20,-24,49
1693678209813046000,1.022324085,-0.858321309,10.22204399,-0.060486984,0.000532925,-0.007727412,-31,46,80,14,-12,-0.111330383,2.421735048,10.23401546,0.052759573,-0.027712099,0.037304748,18,30,-28,-24,52
1693678209814046000,1.022324085,-0.858321309,10.22084713,-0.060486984,0.000532925,-0.007727412,-26,46,90,10,-9,-0.108936176,2.424129248,10.23521233,0.052759573,-0.027712099,0.037437979,13,29,-28,-24,46
1693678209865720800,1.021126986,-0.860715508,10.22324085,-0.060353752,0.000666156,-0.007594181,-20,49,90,14,-3,-0.111330383,2.420537949,10.22922707,0.053159267,-0.027845331,0.037970904,10,35,-18,-20,55
1693678209866720800,1.022324085,-0.859518409,10.22204399,-0.060353752,0.000532925,-0.007594181,-6,51,89,12,-7,-0.111330383,2.421735048,10.22802925,0.053026035,-0.027845331,0.038104136,15,41,-25,-14,52
1693678209867720800,1.019929886,-0.859518409,10.22443867,-0.060353752,0.000666156,-0.007727412,-20,37,89,13,-5,-0.112527482,2.422932148,10.22802925,0.0528928,-0.027712099,0.038237367,11,34,-21,-22,48
1693678209868720800,1.021126986,-0.861912608,10.22563553,-0.060220521,0.000532925,-0.007727412,-20,42,95,10,-7,-0.113724582,2.421735048,10.23162079,0.0528928,-0.027712099,0.038370594,18,32,-24,-26,49
1693678209869720800,1.021126986,-0.866701007,10.22084713,-0.060220521,0.000399694,-0.007727412,-27,45,90,13,-7,-0.112527482,2.420537949,10.22922707,0.052759573,-0.027712099,0.038503829,20,35,-24,-24,51
1693678209915692400,1.022324085,-0.852335811,10.21965027,-0.060353752,0.000666156,-0.008127105,-24,39,91,10,-3,-0.118512981,2.424129248,10.22443867,0.0528928,-0.027845331,0.037704438,20,43,-23,-19,57
1693678209916692400,1.022324085,-0.85592711,10.22563553,-0.060353752,0.000666156,-0.008127105,-22,42,87,13,-3,-0.118512981,2.425326347,10.22324085,0.053026035,-0.02797856,0.03757121,18,31,-19,-24,44
1693678209917692400,1.024718285,-0.85592711,10.22922707,-0.060620211,0.000666156,-0.008127105,-26,47,90,14,-5,-0.118512981,2.426523447,10.22324085,0.0528928,-0.027845331,0.037704438,17,41,-28,-27,45
1693678209918692400,1.024718285,-0.858321309,10.22563553,-0.060620211,0.000532925,-0.008127105,-30,46,90,11,-8,-0.113724582,2.426523447,10.22922707,0.0528928,-0.02797856,0.03757121,16,33,-28,-28,46
1693678209919692400,1.025915384,-0.860715508,10.22563553,-0.060753446,0.000532925,-0.007993874,-19,48,86,13,-8,-0.114921682,2.425326347,10.22922707,0.0528928,-0.02797856,0.03757121,13,42,-19,-20,52
1693678209974657600,1.019929886,-0.860715508,10.23521233,-0.059954058,0.000399694,-0.007993874,-19,45,90,12,-6,-0.113724582,2.424129248,10.22324085,0.053026035,-0.027578866,0.038237367,14,39,-16,-20,52
1693678209975657600,1.021126986,-0.860715508,10.23880386,-0.059954058,0.000266462,-0.007860643,-18,39,89,13,-7,-0.111330383,2.424129248,10.22204399,0.0528928,-0.027445635,0.038104136,17,32,-23,-30,55
1693678209976657600,1.021126986,-0.863109708,10.23401546,-0.059820827,0.000266462,-0.007993874,-18,46,89,12,-8,-0.111330383,2.422932148,10.22563553,0.053026035,-0.027578866,0.037970904,10,37,-29,-24,49
1693678209977657600,1.023521185,-0.863109708,10.22683239,-0.059687596,0.000399694,-0.007860643,-24,46,89,10,-11,-0.112527482,2.420537949,10.22084713,0.053159267,-0.027578866,0.038104136,7,35,-24,-27,44
1693678209978657600,1.024718285,-0.863109708,10.22683239,-0.059820827,0.000666156,-0.007993874,-25,48,89,13,-9,-0.110133275,2.419340849,10.22324085,0.053159267,-0.027578866,0.038104136,19,36,-20,-16,54
1693678210026647900,1.018732786,-0.85473001,10.23281765,-0.060353752,0.000399694,-0.007460949,-6,49,84,12,-9,-0.114921682,2.420537949,10.22563553,0.0528928,-0.027578866,0.038104136,14,41,-25,-24,48
1693678210027647900,1.017535686,-0.859518409,10.22922707,-0.060486984,0.000666156,-0.007327718,-23,43,83,10,-11,-0.117315881,2.420537949,10.22204399,0.0528928,-0.027578866,0.038237367,19,30,-24,-27,49
1693678210028647900,1.019929886,-0.860715508,10.22922707,-0.060353752,0.000532925,-0.007460949,-24,48,80,-2,-11,-0.117315881,2.420537949,10.21725559,0.052759573,-0.027712099,0.038237367,14,39,-25,-31,46
1693678210029647900,1.018732786,-0.860715508,10.22802925,-0.060353752,0.000532925,-0.007594181,-32,32,87,10,-5,-0.114921682,2.418143749,10.21965027,0.052759573,-0.027712099,0.038237367,18,37,-23,-28,53
1693678210030647900,1.015141487,-0.861912608,10.22443867,-0.060353752,0.000532925,-0.007727412,-23,43,91,10,-8,-0.113724582,2.419340849,10.22204399,0.0528928,-0.02797856,0.038104136,14,33,-23,-26,53
1693678210104581200,1.018732786,-0.864306808,10.23760605,-0.060620211,0.000399694,-0.007594181,-28,49,90,10,-7,-0.112527482,2.420537949,10.23162079,0.052359879,-0.027445635,0.037970904,15,30,-29,-23,48
1693678210105581200,1.019929886,-0.865503907,10.23640919,-0.060620211,0.000532925,-0.007594181,-22,41,87,13,-9,-0.112527482,2.419340849,10.23042393,0.052226644,-0.027578866,0.037837673,14,40,-25,-27,44
1693678210106581200,1.019929886,-0.865503907,10.23401546,-0.060486984,0.000532925,-0.007460949,-20,44,90,11,-12,-0.111330383,2.41455245,10.23162079,0.05249311,-0.027712099,0.038104136,9,41,-28,-27,48
1693678210107581200,1.018732786,-0.866701007,10.23521233,-0.060620211,0.000399694,-0.007460949,-17,41,89,13,-9,-0.110133275,2.41574955,10.22802925,0.052626338,-0.027578866,0.037970904,15,40,-22,-17,55
1693678210108581200,1.015141487,-0.869095206,10.23401546,-0.060620211,0.000399694,-0.007460949,-19,47,87,13,-7,-0.110133275,2.41694665,10.22563553,0.052626338,-0.027445635,0.037970904,18,37,-25,-22,54
1693678210156553000,1.016338587,-0.851138711,10.23521233,-0.060620211,0.000532925,-0.007594181,-24,44,90,8,-9,-0.118512981,2.420537949,10.22683239,0.053292494,-0.027312404,0.037970904,9,40,-25,-29,48
1693678210157553000,1.017535686,-0.852335811,10.23760605,-0.060486984,0.000666156,-0.007460949,-22,43,91,2,-12,-0.119710088,2.419340849,10.22443867,0.053292494,-0.027312404,0.038104136,16,30,-21,-26,48
1693678210158553000,1.016338587,-0.851138711,10.23401546,-0.060486984,0.000666156,-0.007460949,-23,46,79,20,-11,-0.119710088,2.420537949,10.22802925,0.053425729,-0.027312404,0.038237367,15,32,-25,-24,49
1693678210159553000,1.016338587,-0.852335811,10.23401546,-0.060620211,0.000532925,-0.007594181,-24,39,85,12,-10,-0.118512981,2.421735048,10.23042393,0.053425729,-0.027179174,0.038237367,17,35,-28,-22,48
1693678210160553000,1.018732786,-0.852335811,10.23281765,-0.060620211,0.000532925,-0.007727412,-27,45,92,13,-4,-0.119710088,2.421735048,10.22802925,0.053292494,-0.027312404,0.038237367,20,36,-25,-20,55
1693678210223512900,1.017535686,-0.865503907,10.24000072,-0.060353752,0.000266462,-0.007727412,-1,64,104,10,-11,-0.117315881,2.422932148,10.22443867,0.052759573,-0.027179174,0.038237367,14,30,-23,-22,53
1693678210224512900,1.017535686,-0.865503907,10.24119759,-0.060220521,0.000399694,-0.007727412,-23,32,86,8,-12,-0.118512981,2.422932148,10.22324085,0.052759573,-0.027312404,0.038104136,14,35,-24,-24,58
1693678210225512900,1.017535686,-0.867898107,10.24478912,-0.06008729,0.000266462,-0.007860643,-20,43,86,13,-9,-0.118512981,2.421735048,10.22563553,0.052759573,-0.027312404,0.038237367,18,30,-25,-24,55
1693678210226512900,1.013944387,-0.864306808,10.24239445,-0.060220521,0.000266462,-0.007993874,-27,33,85,12,-5,-0.114921682,2.422932148,10.23162079,0.052759573,-0.027312404,0.037970904,20,41,-24,-19,55
1693678210227512900,1.013944387,-0.864306808,10.24239445,-0.060220521,0.000399694,-0.007993874,-23,42,85,12,-11,-0.116118781,2.421735048,10.23162079,0.053159267,-0.027312404,0.037970904,16,42,-24,-20,49
1693678210270487800,1.025915384,-0.852335811,10.23640919,-0.060620211,0.000666156,-0.007993874,-16,46,90,11,-12,-0.113724582,2.425326347,10.23042393,0.053159267,-0.027845331,0.037837673,19,30,-24,-18,52
1693678210271487800,1.023521185,-0.85353291,10.23760605,-0.060753446,0.000666156,-0.007993874,-20,47,90,11,-12,-0.119710088,2.424129248,10.23281765,0.053026035,-0.027845331,0.037837673,19,32,-24,-22,51
1693678210272487800,1.022324085,-0.85353291,10.23401546,-0.060486984,0.000532925,-0.007860643,-24,48,89,8,-5,-0.116118781,2.422932148,10.23162079,0.0528928,-0.027712099,0.037704438,13,30,-25,-24,48
1693678210273487800,1.022324085,-0.85353291,10.23042393,-0.060486984,0.000532925,-0.007993874,-18,49,90,11,-7,-0.113724582,2.421735048,10.23521233,0.052759573,-0.027712099,0.037704438,14,35,-24,-23,51
1693678210274487800,1.025915384,-0.85473001,10.23162079,-0.060486984,0.000532925,-0.007993874,-19,46,90,13,-5,-0.110133275,2.418143749,10.23640919,0.052626338,-0.027712099,0.037704438,10,41,-25,-28,53
1693678210325458100,1.021126986,-0.85353291,10.24359226,-0.060220521,0.000666156,-0.007993874,-20,47,87,7,-14,-0.114921682,2.425326347,10.22802925,0.05249311,-0.027045943,0.037970904,23,39,-19,-17,55
1693678210326458100,1.019929886,-0.85592711,10.23880386,-0.060220521,0.000532925,-0.007860643,-19,43,91,13,-8,-0.118512981,2.426523447,10.23162079,0.05249311,-0.027179174,0.037970904,14,41,-24,-24,48
1693678210327458100,1.021126986,-0.859518409,10.23640919,-0.060353752,0.000532925,-0.007860643,-17,47,87,10,-4,-0.119710088,2.424129248,10.22922707,0.05249311,-0.027045943,0.037837673,18,32,-28,-18,53
1693678210328458100,1.018732786,-0.860715508,10.23640919,-0.060220521,0.000532925,-0.007993874,-7,45,89,7,-6,-0.117315881,2.421735048,10.23162079,0.05249311,-0.027045943,0.037970904,17,35,-18,-22,49
1693678210329458100,1.017535686,-0.863109708,10.23880386,-0.06008729,0.000532925,-0.007993874,-26,42,90,8,-8,-0.118512981,2.420537949,10.22443867,0.052359879,-0.027045943,0.037837673,15,33,-22,-23,49
1693678210380423300,1.021126986,-0.860715508,10.24119759,-0.060220521,0.000666156,-0.007860643,-29,42,88,8,-12,-0.122104287,2.41694665,10.24359226,0.052759573,-0.02797856,0.037970904,20,34,-31,-22,49
1693678210381423300,1.023521185,-0.859518409,10.23640919,-0.060220521,0.000532925,-0.007727412,-18,45,90,6,-9,-0.120907187,2.41694665,10.24359226,0.052759573,-0.027845331,0.037970904,15,45,-28,-17,51
1693678210382423300,1.022324085,-0.861912608,10.24359226,-0.060220521,0.000666156,-0.007727412,-1,64,109,34,11,-0.120907187,2.41694665,10.24119759,0.052759573,-0.028111791,0.038104136,17,33,-27,-23,46
1693678210383423300,1.019929886,-0.864306808,10.24119759,-0.06008729,0.000532925,-0.007727412,-5,64,103,30,13,-0.120907187,2.41455245,10.23521233,0.053026035,-0.02797856,0.038104136,6,39,-30,-22,53
1693678210384423300,1.016338587,-0.865503907,10.24359226,-0.060220521,0.000532925,-0.007594181,-32,46,87,9,-9,-0.120907187,2.41455245,10.23281765,0.052759573,-0.02797856,0.038104136,20,33,-26,-24,49
1693678210437389900,1.021126986,-0.858321309,10.23521233,-0.060886677,0.000266462,-0.007860643,-24,44,88,4,-8,-0.123301387,2.421735048,10.23281765,0.053292494,-0.027045943,0.038237367,20,35,-24,-24,49
1693678210438389900,1.021126986,-0.859518409,10.23760605,-0.060753446,0.000399694,-0.007860643,-20,45,90,7,-8,-0.120907187,2.421735048,10.23760605,0.053292494,-0.027179174,0.038237367,19,30,-24,-32,45
1693678210439389900,1.024718285,-0.863109708,10.23880386,-0.060753446,0.000399694,-0.007860643,-17,45,89,12,-2,-0.117315881,2.422932148,10.23760605,0.053292494,-0.027312404,0.038237367,15,30,-31,-20,50
1693678210440389900,1.025915384,-0.861912608,10.23760605,-0.060753446,0.000399694,-0.007727412,-23,46,84,19,-9,-0.117315881,2.428917646,10.23760605,0.053159267,-0.027578866,0.038237367,11,37,-23,-24,50
1693678210441389900,1.027112484,-0.864306808,10.23760605,-0.060620211,0.000532925,-0.007727412,-27,46,89,8,-12,-0.117315881,2.427720547,10.23880386,0.053159267,-0.027712099,0.038237367,17,39,-19,-19,51
1693678210485363000,1.021126986,-0.852335811,10.22324085,-0.060486984,0.000799387,-0.007727412,-29,47,89,11,-11,-0.111330383,2.420537949,10.23760605,0.053026035,-0.02691271,0.037837673,19,33,-21,-22,53
1693678210486363000,1.022324085,-0.849941611,10.22563553,-0.060486984,0.000799387,-0.007727412,-23,46,90,13,-3,-0.108936176,2.419340849,10.23521233,0.053026035,-0.027045943,0.037837673,9,40,-28,-23,46
1693678210487363000,1.022324085,-0.849941611,10.22802925,-0.060486984,0.000799387,-0.007594181,-33,46,90,10,-2,-0.108936176,2.421735048,10.23760605,0.053159267,-0.027179174,0.037837673,13,39,-34,-22,54
1693678210488363000,1.025915384,-0.849941611,10.22563553,-0.060486984,0.000932619,-0.007594181,-33,46,97,13,-8,-0.110133275,2.421735048,10.23880386,0.053026035,-0.027445635,0.037837673,20,39,-17,-20,54
1693678210489363000,1.027112484,-0.851138711,10.22563553,-0.060486984,0.000799387,-0.007594181,-20,46,90,12,-7,-0.110133275,2.424129248,10.23521233,0.053026035,-0.027445635,0.037970904,20,39,-17,-21,54
1693678210540337000,1.028309584,-0.85473001,10.22563553,-0.060353752,0.000799387,-0.007594181,-28,48,85,13,-12,-0.110133275,2.421735048,10.23281765,0.052759573,-0.027312404,0.037970904,20,31,-27,-22,50
1693678210541337000,1.025915384,-0.85592711,10.22563553,-0.060353752,0.000799387,-0.007594181,-15,46,91,6,-5,-0.112527482,2.422932148,10.23401546,0.052759573,-0.027045943,0.037837673,15,41,-23,-20,52
1693678210542337000,1.023521185,-0.857124209,10.22084713,-0.060220521,0.000932619,-0.007460949,-24,46,90,13,-7,-0.110133275,2.422932148,10.23281765,0.05249311,-0.027045943,0.037837673,11,43,-21,-22,55
1693678210543337000,1.023521185,-0.857124209,10.22443867,-0.060220521,0.000932619,-0.007594181,-22,48,90,11,-8,-0.110133275,2.421735048,10.23281765,0.052759573,-0.027179174,0.037704438,15,35,-24,-22,54
1693678210544337000,1.019929886,-0.85592711,10.22563553,-0.060220521,0.000799387,-0.007594181,-22,47,90,11,-9,-0.111330383,2.422932148,10.22802925,0.052759573,-0.027312404,0.037837673,20,36,-19,-22,52
1693678210591325900,1.018732786,-0.865503907,10.23281765,-0.060753446,0.000399694,-0.007460949,-22,47,90,10,-10,-0.107739076,2.41335535,10.22084713,0.052226644,-0.027179174,0.038370594,13,33,-25,-22,46
1693678210592325900,1.019929886,-0.865503907,10.23760605,-0.060886677,0.000399694,-0.007460949,-20,47,91,10,-7,-0.108936176,2.412158251,10.21725559,0.052226644,-0.027179174,0.038503829,20,36,-19,-24,43
1693678210593325900,1.019929886,-0.863109708,10.23521233,-0.060886677,0.000266462,-0.007594181,-19,41,87,14,-12,-0.111330383,2.41455245,10.22084713,0.052226644,-0.027179174,0.038370594,20,39,-25,-22,55
1693678210594325900,1.021126986,-0.859518409,10.23401546,-0.060886677,0.000266462,-0.007594181,-22,42,86,8,-9,-0.114921682,2.41335535,10.22802925,0.05249311,-0.027312404,0.038370594,13,33,-18,-20,54
1693678210595325900,1.024718285,-0.860715508,10.23042393,-0.060886677,0.000399694,-0.007460949,-23,50,90,12,-7,-0.117315881,2.41335535,10.22683239,0.05249311,-0.027312404,0.038237367,13,36,-27,-20,54
1693678210651283800,1.028309584,-0.858321309,10.22084713,-0.060753446,0.000266462,-0.007727412,-2,62,107,34,12,-0.117315881,2.426523447,10.20767879,0.0528928,-0.027045943,0.037837673,14,36,-28,-20,45
1693678210652283800,1.033097982,-0.857124209,10.21965027,-0.060620211,0.000133231,-0.007860643,-20,46,90,11,-6,-0.114921682,2.424129248,10.21366405,0.052759573,-0.02691271,0.037970904,14,40,-19,-26,52
1693678210653283800,1.031900883,-0.860715508,10.22324085,-0.060620211,0.000133231,-0.007993874,-27,43,90,8,-18,-0.116118781,2.421735048,10.21486187,0.0528928,-0.027045943,0.037970904,20,37,-22,-23,50
1693678210654283800,1.034295082,-0.863109708,10.22324085,-0.060486984,0.000133231,-0.007993874,-16,50,90,3,-8,-0.114921682,2.422932148,10.21486187,0.052759573,-0.027179174,0.038104136,20,37,-22,-21,53
1693678210655283800,1.030703783,-0.866701007,10.22324085,-0.060486984,0.000133231,-0.007860643,-21,45,84,8,-11,-0.114921682,2.424129248,10.21965027,0.052759573,-0.027312404,0.038104136,13,33,-20,-24,52
1693678210710246700,1.024718285,-0.865503907,10.24119759,-0.060353752,0.000399694,-0.007727412,-22,46,89,11,-3,-0.118512981,2.421735048,10.24000072,0.052759573,-0.027045943,0.037970904,17,35,-29,-19,50
1693678210711246700,1.024718285,-0.863109708,10.24359226,-0.060353752,0.000399694,-0.007993874,-23,41,93,6,-12,-0.114921682,2.421735048,10.23760605,0.052626338,-0.027179174,0.038237367,23,41,-25,-16,41
1693678210712246700,1.022324085,-0.863109708,10.23521233,-0.060353752,0.000266462,-0.007993874,-28,49,90,12,-7,-0.116118781,2.422932148,10.23401546,0.052626338,-0.027045943,0.038104136,18,39,-23,-16,55
1693678210713246700,1.021126986,-0.863109708,10.23521233,-0.060353752,0.000266462,-0.008127105,-18,48,87,13,-7,-0.119710088,2.420537949,10.23401546,0.0528928,-0.027179174,0.038104136,15,35,-20,-26,50
1693678210714246700,1.024718285,-0.863109708,10.23042393,-0.060486984,0.000266462,-0.008127105,-27,41,88,4,-12,-0.118512981,2.419340849,10.23640919,0.052759573,-0.027312404,0.038104136,7,30,-21,-23,55
1693678210760223000,1.024718285,-0.85592711,10.23521233,-0.060620211,0.000666156,-0.007993874,-23,46,90,14,-9,-0.113724582,2.418143749,10.22204399,0.052626338,-0.027578866,0.038370594,14,37,-25,-20,54
1693678210761223000,1.022324085,-0.857124209,10.23760605,-0.060620211,0.000666156,-0.007860643,-24,42,90,10,-11,-0.113724582,2.419340849,10.22324085,0.052626338,-0.027445635,0.038370594,15,32,-19,-23,52
1693678210762223000,1.019929886,-0.858321309,10.23760605,-0.060620211,0.000532925,-0.007860643,-26,41,89,13,-12,-0.113724582,2.424129248,10.22563553,0.05249311,-0.027578866,0.038370594,-2,35,-24,-20,48
1693678210763223000,1.016338587,-0.85353291,10.23162079,-0.060620211,0.000399694,-0.007860643,-22,41,90,10,-6,-0.114921682,2.424129248,10.22443867,0.052359879,-0.027578866,0.038237367,17,41,-17,-26,55
1693678210764223000,1.015141487,-0.85473001,10.23042393,-0.060620211,0.000399694,-0.007727412,-21,45,88,6,-11,-0.114921682,2.424129248,10.22324085,0.05249311,-0.027578866,0.038237367,14,35,-25,-26,49
1693678210810217100,1.024718285,-0.848744512,10.22563553,-0.060486984,0.000266462,-0.008127105,-18,48,89,11,-4,-0.120907187,2.424129248,10.21725559,0.052626338,-0.027578866,0.037970904,21,42,-29,-26,56
1693678210811217100,1.023521185,-0.846350312,10.23281765,-0.060486984,0.000399694,-0.007993874,-20,45,85,13,-12,-0.119710088,2.424129248,10.21965027,0.052759573,-0.027578866,0.037970904,20,37,-18,-20,55
1693678210812217100,1.022324085,-0.846350312,10.23162079,-0.060486984,0.000266462,-0.008127105,-24,43,89,7,-3,-0.119710088,2.421735048,10.21845245,0.052626338,-0.027445635,0.037837673,19,35,-23,-23,52
1693678210813217100,1.019929886,-0.846350312,10.23281765,-0.060486984,0.000266462,-0.007860643,-26,47,89,10,-6,-0.119710088,2.421735048,10.22204399,0.052759573,-0.027445635,0.037837673,19,40,-18,-26,51
1693678210814217100,1.022324085,-0.846350312,10.23521233,-0.060620211,0.000133231,-0.007860643,-23,45,90,11,-7,-0.124498487,2.421735048,10.22443867,0.052759573,-0.027578866,0.037837673,15,43,-25,-23,52
1693678210863172800,1.016338587,-0.851138711,10.22563553,-0.060886677,0.000133231,-0.007460949,-20,44,90,11,-5,-0.118512981,2.41574955,10.22204399,0.053026035,-0.027045943,0.037837673,18,44,-24,-18,53
1693678210864172800,1.013944387,-0.85353291,10.22922707,-0.060753446,0.000266462,-0.007727412,-21,47,89,13,-9,-0.119710088,2.41694665,10.22802925,0.053159267,-0.027179174,0.037837673,20,37,-28,-21,53
1693678210865172800,1.012747288,-0.85473001,10.23281765,-0.060753446,0.000133231,-0.007727412,-25,47,87,13,-8,-0.124498487,2.41574955,10.23042393,0.053026035,-0.027179174,0.037837673,33,36,-27,-24,44
1693678210866172800,1.011550188,-0.852335811,10.23162079,-0.060620211,0.000133231,-0.007727412,-28,33,89,12,-11,-0.125695586,2.41335535,10.23162079,0.053159267,-0.027045943,0.037837673,15,34,-23,-24,52
1693678210867172800,1.011550188,-0.852335811,10.23042393,-0.060620211,0.0,-0.007727412,-18,41,88,11,-9,-0.124498487,2.412158251,10.23042393,0.053159267,-0.027045943,0.037837673,17,38,-19,-26,53
1693678210915143800,1.021126986,-0.860715508,10.23640919,-0.060486984,0.0,-0.007327718,-26,60,90,13,-3,-0.119710088,2.418143749,10.22443867,0.05249311,-0.027312404,0.037970904,17,37,-24,-22,45
1693678210916143800,1.023521185,-0.860715508,10.24119759,-0.060353752,0.000133231,-0.007460949,-22,47,86,10,-15,-0.119710088,2.418143749,10.22084713,0.052359879,-0.027445635,0.037837673,20,31,-21,-22,50
1693678210917143800,1.022324085,-0.859518409,10.24239445,-0.060486984,0.000266462,-0.007460949,-20,38,85,11,-5,-0.118512981,2.419340849,10.22563553,0.052626338,-0.027445635,0.037970904,11,31,-26,-28,52
1693678210918143800,1.021126986,-0.860715508,10.24119759,-0.060486984,0.000266462,-0.007460949,-27,41,89,8,-16,-0.119710088,2.419340849,10.22802925,0.052626338,-0.027312404,0.037837673,14,30,-20,-20,46
1693678210919143800,1.018732786,-0.859518409,10.24239445,-0.060620211,0.000133231,-0.007727412,-20,46,90,11,-7,-0.119710088,2.419340849,10.22922707,0.052626338,-0.027179174,0.037970904,20,31,-27,-19,54
1693678210969120900,1.017535686,-0.857124209,10.23521233,-0.060353752,0.000532925,-0.008127105,-16,64,84,16,-1,-0.108936176,2.412158251,10.22802925,0.053159267,-0.027445635,0.037970904,16,35,-19,-20,53
1693678210970120900,1.016338587,-0.860715508,10.23162079,-0.060486984,0.000666156,-0.008127105,-24,45,89,13,-8,-0.111330383,2.41335535,10.23162079,0.053159267,-0.027312404,0.038104136,20,33,-27,-24,52
1693678210971120900,1.016338587,-0.860715508,10.23162079,-0.060353752,0.000532925,-0.008127105,-26,46,90,13,-9,-0.110133275,2.41455245,10.23521233,0.0528928,-0.027445635,0.037970904,6,29,-31,-28,48
1693678210972120900,1.010353088,-0.865503907,10.22922707,-0.060620211,0.000532925,-0.007993874,-16,41,85,12,-12,-0.108936176,2.418143749,10.23760605,0.0528928,-0.027445635,0.038104136,19,36,-18,-24,48
1693678210973120900,1.006761789,-0.864306808,10.22204399,-0.060620211,0.000532925,-0.007993874,-20,47,88,10,-11,-0.106541976,2.418143749,10.23640919,0.053026035,-0.027712099,0.038104136,14,43,-21,-20,52
1693678211033100800,1.022324085,-0.85592711,10.23401546,-0.060486984,0.000399694,-0.007860643,-21,45,88,12,-7,-0.116118781,2.427720547,10.22683239,0.0528928,-0.027578866,0.038104136,17,39,-27,-24,52
1693678211034100800,1.018732786,-0.85353291,10.23401546,-0.060353752,0.000399694,-0.007860643,-31,44,88,12,-11,-0.116118781,2.427720547,10.21965027,0.052759573,-0.027578866,0.038104136,17,31,-25,-22,49
1693678211035100800,1.017535686,-0.85353291,10.23640919,-0.060353752,0.000532925,-0.007860643,-19,47,85,4,-5,-0.118512981,2.426523447,10.21845245,0.0528928,-0.027312404,0.037970904,19,39,-27,-19,54
1693678211036100800,1.015141487,-0.85473001,10.23521233,-0.060353752,0.000532925,-0.007860643,-24,45,79,13,-13,-0.116118781,2.425326347,10.22084713,0.0528928,-0.027045943,0.037970904,19,32,-23,-18,52
1693678211037100800,1.016338587,-0.85353291,10.23401546,-0.060353752,0.000532925,-0.007727412,-24,49,84,13,-7,-0.113724582,2.424129248,10.22084713,0.053026035,-0.027045943,0.038104136,13,35,-18,-22,55
1693678211092069200,1.00317049,-0.85473001,10.22443867,-0.060220521,0.000532925,-0.007594181,-20,47,85,10,-8,-0.105344877,2.41574955,10.21965027,0.053026035,-0.027312404,0.038104136,19,29,-25,-26,54
1693678211093069200,1.00317049,-0.85473001,10.22324085,-0.060220521,0.000532925,-0.007727412,-27,42,88,6,-11,-0.105344877,2.41335535,10.21845245,0.053159267,-0.027312404,0.038104136,16,39,-20,-23,49
1693678211094069200,1.006761789,-0.85353291,10.22443867,-0.060220521,0.000532925,-0.007860643,-23,39,87,11,-9,-0.106541976,2.41335535,10.21965027,0.053026035,-0.027045943,0.038370594,18,32,-25,-26,52
1693678211095069200,1.009155989,-0.852335811,10.22563553,-0.06008729,0.000666156,-0.007727412,-26,47,81,13,-8,-0.108936176,2.410961151,10.22802925,0.053026035,-0.027179174,0.038370594,17,36,-21,-24,54
1693678211096069200,1.009155989,-0.85473001,10.22683239,-0.060353752,0.000532925,-0.007860643,-22,43,87,11,-7,-0.111330383,2.408566952,10.22563553,0.053159267,-0.027179174,0.038237367,15,40,-18,-23,54
1693678211152040400,1.012747288,-0.85473001,10.23760605,-0.060886677,0.000799387,-0.008260337,-27,45,90,8,-7,-0.111330383,2.407369852,10.23042393,0.052626338,-0.027445635,0.037704438,15,31,-24,-23,54
1693678211153040400,1.012747288,-0.857124209,10.23760605,-0.060753446,0.000666156,-0.008127105,-22,47,87,13,-7,-0.108936176,2.407369852,10.23281765,0.05249311,-0.027445635,0.037704438,20,36,-21,-22,52
1693678211154040400,1.013944387,-0.859518409,10.23640919,-0.060753446,0.000666156,-0.008260337,-38,43,87,6,-12,-0.111330383,2.406172752,10.23401546,0.05249311,-0.027445635,0.037704438,18,42,-27,-28,48
1693678211155040400,1.015141487,-0.859518409,10.23401546,-0.060753446,0.000666156,-0.008127105,-23,46,88,10,-9,-0.111330383,2.406172752,10.23162079,0.052626338,-0.027445635,0.037970904,18,39,-22,-22,53
1693678211156040400,1.016338587,-0.861912608,10.23162079,-0.060753446,0.000532925,-0.008127105,-18,48,88,11,-8,-0.113724582,2.404975653,10.23401546,0.052759573,-0.027445635,0.037970904,20,39,-21,-19,52
1693678211216004500,1.015141487,-0.847547412,10.23281765,-0.060753446,0.000399694,-0.007993874,-30,46,90,11,-9,-0.120907187,2.425326347,10.22802925,0.053292494,-0.027578866,0.037837673,14,32,-21,-24,49
1693678211217004500,1.016338587,-0.847547412,10.22922707,-0.060753446,0.000399694,-0.007860643,-28,41,85,11,-9,-0.119710088,2.427720547,10.22683239,0.053292494,-0.027712099,0.037837673,13,30,-21,-22,52
1693678211218004500,1.017535686,-0.848744512,10.23042393,-0.060753446,0.000532925,-0.007860643,-23,42,89,9,-11,-0.119710088,2.426523447,10.22443867,0.053292494,-0.027712099,0.037837673,13,39,-24,-24,55
1693678211219004500,1.022324085,-0.851138711,10.23401546,-0.060620211,0.000532925,-0.007860643,-23,47,91,7,-7,-0.118512981,2.425326347,10.22922707,0.053159267,-0.027845331,0.037970904,17,43,-19,-18,54
1693678211220004500,1.023521185,-0.849941611,10.23401546,-0.060753446,0.000399694,-0.007993874,-20,43,90,13,-8,-0.114921682,2.425326347,10.23281765,0.053159267,-0.027712099,0.037970904,13,33,-21,-27,49
1693678211268979400,1.015141487,-0.863109708,10.22683239,-0.060220521,0.000133231,-0.007727412,-26,42,87,12,-9,-0.120907187,2.425326347,10.23162079,0.0528928,-0.02797856,0.038237367,14,44,-25,-23,55
1693678211269979400,1.015141487,-0.861912608,10.22443867,-0.060220521,0.000266462,-0.007594181,-20,38,87,3,-9,-0.122104287,2.425326347,10.22922707,0.0528928,-0.027845331,0.038237367,15,44,-24,-27,52
1693678211270979400,1.015141487,-0.859518409,10.22683239,-0.060353752,0.000266462,-0.007727412,-27,46,87,11,-9,-0.122104287,2.425326347,10.23042393,0.052759573,-0.027845331,0.038104136,14,36,-23,-19,52
1693678211271979400,1.015141487,-0.860715508,10.22802925,-0.060353752,0.000266462,-0.007727412,-23,45,88,11,-9,-0.119710088,2.424129248,10.23162079,0.052759573,-0.027578866,0.038237367,15,30,-30,-22,54
1693678211272979400,1.016338587,-0.859518409,10.22802925,-0.060353752,0.000266462,-0.007594181,-21,41,83,10,-8,-0.118512981,2.424129248,10.22922707,0.05249311,-0.027445635,0.038237367,14,35,-28,-27,52
1693678211320951100,1.025915384,-0.85592711,10.23760605,-0.060620211,0.000266462,-0.007993874,-22,58,102,22,7,-0.122104287,2.412158251,10.23880386,0.053026035,-0.028111791,0.038370594,17,36,-17,-22,52
1693678211321951100,1.015141487,-0.860715508,10.22204399,-0.060486984,0.000133231,-0.008127105,-24,47,91,7,-12,-0.120907187,2.412158251,10.24000072,0.053026035,-0.028111791,0.038237367,15,39,-24,-24,50
1693678211322951100,1.017535686,-0.861912608,10.22563553,-0.060486984,0.000133231,-0.008127105,-28,45,87,4,-11,-0.119710088,2.41455245,10.24478912,0.053026035,-0.028111791,0.038237367,19,31,-24,-17,55
1693678211323951100,1.018732786,-0.863109708,10.23162079,-0.060486984,0.000133231,-0.008260337,-1,61,105,29,14,-0.122104287,2.41694665,10.24359226,0.0528928,-0.027845331,0.038237367,13,41,-21,-24,52
1693678211324951100,1.018732786,-0.863109708,10.23521233,-0.060486984,0.0,-0.008127105,-3,67,101,22,11,-0.120907187,2.420537949,10.24359226,0.0528928,-0.027712099,0.038104136,21,36,-26,-28,53
1693678211377925100,1.027112484,-0.859518409,10.24478912,-0.060486984,0.000133231,-0.007993874,-24,44,85,24,3,-0.110133275,2.419340849,10.23281765,0.052759573,-0.027845331,0.03757121,22,37,-20,-21,51
1693678211378925100,1.024718285,-0.860715508,10.24718285,-0.060486984,0.000266462,-0.007993874,-22,44,90,12,-9,-0.110133275,2.418143749,10.23401546,0.052359879,-0.027845331,0.03757121,11,45,-20,-23,53
1693678211379925100,1.021126986,-0.860715508,10.24838066,-0.060486984,0.000266462,-0.007860643,-18,45,92,7,-7,-0.111330383,2.418143749,10.23042393,0.05249311,-0.027845331,0.03757121,15,31,-13,-23,53
1693678211380925100,1.019929886,-0.863109708,10.24598598,-0.060620211,0.000399694,-0.007860643,-28,43,87,4,-9,-0.112527482,2.420537949,10.23042393,0.05249311,-0.02797856,0.03757121,13,35,-23,-20,51
1693678211381925100,1.019929886,-0.861912608,10.24718285,-0.060620211,0.000399694,-0.007860643,-27,45,88,13,-13,-0.112527482,2.421735048,10.23042393,0.052759573,-0.02797856,0.037704438,15,37,-25,-28,50
1693678211431894800,1.025915384,-0.861912608,10.23281765,-0.060220521,0.0,-0.008260337,-24,41,90,13,-7,-0.108936176,2.41694665,10.23521233,0.05249311,-0.027445635,0.03757121,20,34,-18,-18,54
1693678211432894800,1.029506683,-0.863109708,10.23281765,-0.060220521,0.000133231,-0.008260337,-24,42,93,11,-5,-0.105344877,2.41694665,10.22802925,0.052359879,-0.027179174,0.03757121,14,36,-25,-18,53
1693678211433894800,1.030703783,-0.863109708,10.23880386,-0.06008729,0.0,-0.007993874,-21,43,79,10,-7,-0.107739076,2.41335535,10.22204399,0.05249311,-0.027045943,0.037304748,18,33,-23,-20,46
1693678211434894800,1.029506683,-0.861912608,10.24000072,-0.06008729,0.000133231,-0.007993874,-23,41,89,7,-9,-0.108936176,2.410961151,10.21725559,0.052626338,-0.026646247,0.037304748,7,41,-27,-19,48
1693678211435894800,1.029506683,-0.858321309,10.24239445,-0.06008729,0.0,-0.007860643,-21,43,91,10,-11,-0.110133275,2.408566952,10.21725559,0.052359879,-0.026379786,0.037304748,13,36,-22,-20,49
1693678211486866400,1.021126986,-0.858321309,10.23401546,-0.060486984,-0.000133231,-0.007993874,-20,46,90,12,-7,-0.104147777,2.427720547,10.23401546,0.053825419,-0.029710567,0.038237367,9,37,-16,-21,53
1693678211487866400,1.018732786,-0.85592711,10.23401546,-0.060486984,0.0,-0.007860643,-18,37,90,13,-7,-0.10175357,2.426523447,10.23640919,0.053692192,-0.029310873,0.037970904,17,35,-24,-27,54
1693678211488866400,1.016338587,-0.85592711,10.22683239,-0.060620211,0.0,-0.007993874,-18,49,87,13,-8,-0.10295067,2.427720547,10.23880386,0.053292494,-0.028378254,0.037704438,17,39,-21,-21,48
1693678211489866400,1.015141487,-0.852335811,10.23162079,-0.060486984,-0.000133231,-0.007993874,-17,57,90,10,-12,-0.10055647,2.427720547,10.24119759,0.052759573,-0.02691271,0.037304748,15,31,-29,-26,46
1693678211490866400,1.015141487,-0.85353291,10.23521233,-0.060620211,-0.000133231,-0.008127105,-17,46,90,6,-6,-0.104147777,2.425326347,10.23760605,0.051960181,-0.026113322,0.037171517,13,37,0,-19,46
1693678211544835900,1.019929886,-0.85353291,10.23162079,-0.060486984,0.000532925,-0.007727412,-28,46,88,8,-9,-0.118512981,2.419340849,10.22084713,0.053558957,-0.02904441,0.038770292,25,41,-25,-19,50
1693678211545835900,1.022324085,-0.849941611,10.23162079,-0.060486984,0.000399694,-0.007860643,-28,37,80,0,-12,-0.112527482,2.421735048,10.22443867,0.053825419,-0.02917764,0.038770292,19,39,-21,-19,54
1693678211546835900,1.022324085,-0.851138711,10.23162079,-0.060486984,0.000399694,-0.007727412,-28,43,87,11,-11,-0.108936176,2.425326347,10.23042393,0.054091886,-0.029444104,0.038770292,10,41,-27,-20,42
1693678211547835900,1.023521185,-0.85353291,10.22802925,-0.060353752,0.000266462,-0.007860643,-27,42,89,13,-12,-0.107739076,2.431311846,10.23281765,0.053825419,-0.028911179,0.038503829,10,33,-25,-24,48
1693678211548835900,1.021126986,-0.85473001,10.22084713,-0.060220521,0.0,-0.007860643,-32,37,87,11,-11,-0.108936176,2.430114746,10.23401546,0.053558957,-0.028245023,0.038237367,20,40,-26,-18,54
1693678211603800400,1.022324085,-0.857124209,10.24119759,-0.060620211,0.000133231,-0.007993874,-31,35,87,6,-14,-0.114921682,2.41335535,10.21366405,0.05249311,-0.026779478,0.038104136,20,38,-25,-20,54
1693678211604800400,1.022324085,-0.859518409,10.23640919,-0.060620211,0.0,-0.007993874,-27,41,87,9,-7,-0.116118781,2.41455245,10.22084713,0.052626338,-0.027179174,0.038237367,9,39,-17,-22,52
1693678211605800400,1.021126986,-0.863109708,10.23281765,-0.060620211,-0.000133231,-0.007993874,-29,39,85,13,-9,-0.116118781,2.41694665,10.22443867,0.0528928,-0.027445635,0.038370594,13,35,-24,-26,51
1693678211606800400,1.018732786,-0.867898107,10.23281765,-0.060486984,-0.000133231,-0.008127105,-24,49,81,2,-12,-0.113724582,2.420537949,10.22802925,0.053026035,-0.02797856,0.038637057,11,41,-24,-23,52
1693678211607800400,1.017535686,-0.871489406,10.22204399,-0.060486984,0.0,-0.008127105,-31,41,83,12,-13,-0.111330383,2.420537949,10.23281765,0.053292494,-0.028111791,0.038370594,20,45,-21,-24,53
1693678211660769900,1.022324085,-0.857124209,10.22802925,-0.060220521,0.000532925,-0.007594181,-31,35,83,2,-13,-0.114921682,2.418143749,10.23042393,0.0528928,-0.027045943,0.037437979,13,39,-27,-24,46
1693678211661769900,1.023521185,-0.85592711,10.22324085,-0.060220521,0.000532925,-0.007727412,-32,44,85,11,-13,-0.113724582,2.41335535,10.23042393,0.052759573,-0.027045943,0.03757121,19,41,-25,-23,54
1693678211662769900,1.024718285,-0.85473001,10.22084713,-0.060353752,0.000532925,-0.007594181,-29,45,89,10,-15,-0.112527482,2.412158251,10.22922707,0.0528928,-0.027045943,0.037704438,11,30,-25,-23,49
1693678211663769900,1.024718285,-0.85592711,10.21845245,-0.060220521,0.000399694,-0.007727412,-31,44,81,6,-7,-0.110133275,2.41574955,10.23281765,0.053026035,-0.027578866,0.037704438,13,40,-24,-23,52
1693678211664769900,1.024718285,-0.858321309,10.21965027,-0.060353752,0.000399694,-0.007727412,-27,45,80,8,-9,-0.111330383,2.41455245,10.23640919,0.053159267,-0.027578866,0.037704438,20,39,-24,-20,53
1693678211710739600,1.019929886,-0.865503907,10.23521233,-0.060620211,0.000399694,-0.008127105,-26,37,84,10,-15,-0.117315881,2.420537949,10.22204399,0.053159267,-0.027578866,0.038370594,15,39,-27,-27,51
1693678211711739600,1.022324085,-0.869095206,10.23760605,-0.060620211,0.000399694,-0.008127105,-26,42,79,2,-11,-0.117315881,2.420537949,10.22204399,0.053026035,-0.027578866,0.038503829,13,32,-27,-18,51
1693678211712739600,1.021126986,-0.866701007,10.23401546,-0.060620211,0.000532925,-0.008127105,-30,41,87,10,-7,-0.116118781,2.421735048,10.22324085,0.052759573,-0.027445635,0.038370594,19,37,-29,-20,53
1693678211713739600,1.018732786,-0.866701007,10.23880386,-0.060620211,0.000532925,-0.008127105,-28,38,85,9,-9,-0.117315881,2.420537949,10.22324085,0.052759573,-0.027578866,0.038370594,19,34,-19,-18,58
1693678211714739600,1.018732786,-0.864306808,10.24000072,-0.060620211,0.000532925,-0.008260337,-27,37,83,11,-13,-0.112527482,2.421735048,10.21965027,0.052759573,-0.027179174,0.038370594,20,41,-20,-17,54
1693678211761575300,1.023521185,-0.861912608,10.24000072,-0.060753446,0.000399694,-0.007727412,-27,37,82,7,-16,-0.120907187,2.418143749,10.22443867,0.0528928,-0.027578866,0.037837673,11,35,-25,-30,56
1693678211762575300,1.022324085,-0.860715508,10.24000072,-0.060620211,0.000399694,-0.007594181,-27,45,86,8,-11,-0.119710088,2.41694665,10.22802925,0.053026035,-0.027712099,0.037837673,13,30,-25,-27,49
1693678211763575300,1.021126986,-0.859518409,10.24000072,-0.060353752,0.000532925,-0.007594181,-22,47,90,6,-9,-0.122104287,2.41694665,10.23162079,0.053159267,-0.027712099,0.037837673,15,41,-23,-24,50
1693678211764575300,1.021126986,-0.858321309,10.23760605,-0.060353752,0.000532925,-0.007727412,-27,45,80,9,-11,-0.124498487,2.418143749,10.22922707,0.053292494,-0.027712099,0.037970904,21,30,-19,-23,53
1693678211765575300,1.019929886,-0.857124209,10.23880386,-0.060353752,0.000399694,-0.007460949,-27,37,83,3,-14,-0.122104287,2.418143749,10.23042393,0.053159267,-0.027845331,0.038104136,18,32,-27,-26,54
1693678211809547400,1.023521185,-0.85592711,10.25077438,-0.060486984,0.000266462,-0.007460949,-24,35,88,16,-9,-0.113724582,2.41694665,10.23281765,0.053026035,-0.027578866,0.037837673,17,39,-29,-30,46
1693678211810547400,1.024718285,-0.85473001,10.24957752,-0.060620211,0.000266462,-0.007594181,-30,38,81,0,-17,-0.114921682,2.41694665,10.23162079,0.0528928,-0.027445635,0.037837673,19,40,-27,-24,52
1693678211811547400,1.023521185,-0.85473001,10.24957752,-0.060620211,0.000266462,-0.007727412,-33,36,85,-1,-13,-0.114921682,2.41574955,10.22922707,0.052759573,-0.027712099,0.037970904,18,42,-27,-20,50
1693678211812547400,1.023521185,-0.85592711,10.24478912,-0.060620211,0.000133231,-0.007727412,-24,41,83,7,-8,-0.113724582,2.41574955,10.22563553,0.0528928,-0.027578866,0.038104136,20,36,-20,-22,55
1693678211813547400,1.024718285,-0.858321309,10.24239445,-0.060620211,0.000133231,-0.007727412,-24,41,79,6,-15,-0.112527482,2.41574955,10.22443867,0.0528928,-0.027712099,0.038104136,20,41,-20,-18,54
1693678211867516800,1.023521185,-0.871489406,10.24000072,-0.060353752,0.000932619,-0.007860643,-29,41,87,2,-9,-0.114921682,2.424129248,10.23880386,0.053425729,-0.028111791,0.037837673,13,36,-31,-31,50
1693678211868516800,1.022324085,-0.871489406,10.23880386,-0.060220521,0.000799387,-0.007860643,-24,41,84,10,-9,-0.117315881,2.426523447,10.23880386,0.053425729,-0.028111791,0.037970904,17,41,-23,-26,50
1693678211869516800,1.018732786,-0.867898107,10.23640919,-0.060353752,0.000666156,-0.007993874,-30,45,85,11,-12,-0.116118781,2.424129248,10.24359226,0.053292494,-0.02797856,0.038104136,19,45,-18,-17,52
1693678211870516800,1.015141487,-0.869095206,10.23521233,-0.060353752,0.000666156,-0.008127105,-24,42,81,2,-13,-0.116118781,2.428917646,10.24359226,0.053159267,-0.027845331,0.037837673,25,42,-22,-20,55
1693678211871516800,1.015141487,-0.869095206,10.23401546,-0.060220521,0.000532925,-0.008127105,-31,42,84,11,-12,-0.112527482,2.432508945,10.24478912,0.053159267,-0.027578866,0.037704438,19,41,-23,-19,52
1693678211939473200,1.023521185,-0.857124209,10.23042393,-0.060220521,0.0,-0.007860643,-27,42,83,10,-14,-0.108936176,2.418143749,10.22204399,0.0528928,-0.027179174,0.038237367,9,40,-23,-20,49
1693678211940473200,1.021126986,-0.85473001,10.23042393,-0.060220521,0.0,-0.007860643,-23,47,87,11,-9,-0.107739076,2.418143749,10.22204399,0.052759573,-0.027312404,0.038237367,9,40,-27,-23,45
1693678211941473200,1.022324085,-0.852335811,10.23162079,-0.060220521,0.000133231,-0.007860643,-27,42,87,7,-12,-0.107739076,2.41694665,10.22443867,0.0528928,-0.027445635,0.038237367,13,45,-18,-16,49
1693678211942473200,1.022324085,-0.851138711,10.23401546,-0.06008729,0.000133231,-0.007860643,-26,39,87,9,-13,-0.108936176,2.41694665,10.23042393,0.053026035,-0.027712099,0.038237367,19,36,-22,-16,50
1693678211943473200,1.023521185,-0.852335811,10.23640919,-0.059954058,0.000133231,-0.007727412,-20,47,83,7,-15,-0.107739076,2.41694665,10.22922707,0.053159267,-0.02797856,0.038237367,14,32,-21,-27,50
1693678211996440700,1.011550188,-0.864306808,10.23760605,-0.060620211,0.000532925,-0.007860643,-24,38,85,8,-12,-0.117315881,2.41455245,10.22802925,0.0528928,-0.027312404,0.038237367,18,32,-24,-20,52
1693678211997440700,1.012747288,-0.864306808,10.23521233,-0.060486984,0.000532925,-0.007860643,-27,46,89,13,-12,-0.116118781,2.41574955,10.22802925,0.052759573,-0.027312404,0.038237367,14,36,-21,-24,53
1693678211998440700,1.015141487,-0.861912608,10.23401546,-0.060486984,0.000399694,-0.007860643,-28,38,84,8,-8,-0.114921682,2.41574955,10.23521233,0.0528928,-0.027445635,0.038237367,20,34,-27,-16,54
1693678211999440700,1.016338587,-0.861912608,10.23162079,-0.060353752,0.000399694,-0.007993874,-26,38,81,11,-16,-0.113724582,2.41694665,10.24239445,0.052759573,-0.027445635,0.038237367,8,41,-22,-16,55
1693678212000440700,1.018732786,-0.863109708,10.23042393,-0.060353752,0.000399694,-0.007860643,-26,50,85,2,-16,-0.116118781,2.418143749,10.24359226,0.0528928,-0.027578866,0.038237367,19,36,-26,-23,50
1693678212103386100,1.022324085,-0.858321309,10.22563553,-0.060753446,0.000532925,-0.007594181,-28,37,83,7,-12,-0.116118781,2.418143749,10.22324085,0.05249311,-0.027445635,0.038237367,17,39,-27,-12,53
1693678212104386100,1.023521185,-0.858321309,10.22563553,-0.060620211,0.000266462,-0.007594181,-32,43,88,2,-8,-0.117315881,2.41694665,10.21845245,0.052626338,-0.027578866,0.038237367,17,44,-17,-24,54
1693678212105386100,1.022324085,-0.859518409,10.22683239,-0.060620211,0.000266462,-0.007860643,-22,44,85,6,-13,-0.122104287,2.41694665,10.22204399,0.052626338,-0.027845331,0.038237367,15,40,-27,-13,54
1693678212106386100,1.024718285,-0.859518409,10.22563553,-0.060620211,0.000133231,-0.007594181,-23,43,83,4,-11,-0.118512981,2.41694665,10.22563553,0.052759573,-0.027845331,0.038104136,16,36,-19,-20,50
1693678212107386100,1.024718285,-0.857124209,10.22324085,-0.060620211,0.000399694,-0.007727412,-32,35,83,2,-13,-0.119710088,2.41694665,10.23042393,0.052626338,-0.027845331,0.038104136,19,35,-28,-26,53
1693678213274507700,1.016338587,-0.845153213,10.23281765,-0.059954058,0.000532925,-0.007194487,-32,42,87,0,-14,-0.113724582,2.421735048,10.21605873,0.0528928,-0.026513018,0.037704438,19,39,-23,-21,39
1693678213275507700,1.017535686,-0.845153213,10.23640919,-0.06008729,0.000399694,-0.007194487,-25,49,87,8,-13,-0.114921682,2.422932148,10.21965027,0.053026035,-0.02691271,0.037837673,17,45,-19,-20,54
1693678213276507700,1.018732786,-0.843956113,10.23640919,-0.06008729,0.000532925,-0.007061256,-26,36,89,8,-8,-0.114921682,2.420537949,10.22443867,0.053026035,-0.027179174,0.038104136,14,44,-19,-24,62
1693678213277507700,1.017535686,-0.845153213,10.23281765,-0.06008729,0.000532925,-0.007061256,-30,41,81,-1,-13,-0.114921682,2.421735048,10.23042393,0.053159267,-0.027445635,0.038237367,20,36,-28,-26,50
1693678213278507700,1.018732786,-0.848744512,10.22802925,-0.06008729,0.000532925,-0.007194487,-31,33,80,3,-16,-0.116118781,2.419340849,10.23281765,0.053159267,-0.027578866,0.038237367,15,31,-28,-22,51
1693678213375416300,1.016338587,-0.85353291,10.21845245,-0.060353752,0.000799387,-0.007594181,-27,46,87,6,-13,-0.114921682,2.418143749,10.22683239,0.052359879,-0.026779478,0.037970904,20,35,-23,-23,53
1693678213376416300,1.017535686,-0.857124209,10.21486187,-0.060353752,0.000799387,-0.007727412,-26,43,88,11,-8,-0.113724582,2.418143749,10.23042393,0.052359879,-0.027045943,0.037837673,15,36,-16,-31,41
1693678213377416300,1.017535686,-0.85592711,10.21965027,-0.060353752,0.000932619,-0.007594181,-31,38,87,6,-8,-0.113724582,2.421735048,10.23162079,0.052626338,-0.027312404,0.037970904,13,36,-15,-27,50
1693678213378416300,1.015141487,-0.85473001,10.21845245,-0.060353752,0.000799387,-0.007594181,-29,39,89,6,-11,-0.113724582,2.419340849,10.23880386,0.052626338,-0.027445635,0.037704438,14,29,-29,-26,42
1693678213379416300,1.015141487,-0.857124209,10.21725559,-0.060486984,0.000932619,-0.007594181,-27,35,80,3,-15,-0.113724582,2.421735048,10.23880386,0.052759573,-0.027578866,0.037704438,14,37,-24,-24,48
1693678213479388500,1.013944387,-0.85473001,10.22084713,-0.060620211,0.000666156,-0.007727412,-24,39,85,7,-12,-0.119710088,2.422932148,10.22683239,0.0528928,-0.026779478,0.038104136,20,30,-28,-15,48
1693678213480388500,1.013944387,-0.852335811,10.22443867,-0.060620211,0.000799387,-0.007860643,-28,39,89,10,-11,-0.120907187,2.421735048,10.22084713,0.053026035,-0.02691271,0.038237367,18,42,-27,-27,44
1693678213481388500,1.012747288,-0.849941611,10.22802925,-0.060486984,0.000932619,-0.007860643,-27,42,85,2,-13,-0.118512981,2.424129248,10.22563553,0.053026035,-0.027045943,0.038237367,10,40,-23,-19,47
1693678213482388500,1.012747288,-0.848744512,10.23042393,-0.060620211,0.000932619,-0.007860643,-28,41,84,1,-12,-0.118512981,2.422932148,10.22443867,0.053026035,-0.02691271,0.038237367,9,41,-17,-23,52
1693678213483388500,1.013944387,-0.847547412,10.23281765,-0.060620211,0.000932619,-0.007993874,-22,34,85,1,-17,-0.117315881,2.424129248,10.21845245,0.053026035,-0.027179174,0.038104136,13,40,-16,-23,52
1693678213579333400,1.015141487,-0.85473001,10.24598598,-0.060486984,0.00106585,-0.007460949,-27,40,90,11,-9,-0.120907187,2.412158251,10.22443867,0.053159267,-0.027045943,0.038104136,13,36,-27,-24,52
1693678213580333400,1.017535686,-0.85592711,10.24598598,-0.060353752,0.001199081,-0.007460949,-18,37,87,2,-12,-0.122104287,2.41455245,10.22563553,0.053026035,-0.027179174,0.037970904,19,39,-21,-20,50
1693678213581333400,1.018732786,-0.85473001,10.24478912,-0.060353752,0.00106585,-0.007460949,-28,42,79,6,-9,-0.120907187,2.41335535,10.22563553,0.053026035,-0.027445635,0.037970904,11,39,-27,-27,58
1693678213582333400,1.021126986,-0.852335811,10.24000072,-0.060353752,0.001199081,-0.007460949,-30,37,83,8,-15,-0.118512981,2.41574955,10.22204399,0.053159267,-0.027578866,0.037970904,20,32,-23,-26,52
1693678213583333400,1.019929886,-0.849941611,10.24000072,-0.060353752,0.00106585,-0.007460949,-32,39,79,9,-16,-0.118512981,2.41694665,10.22084713,0.053159267,-0.027845331,0.038104136,20,39,-23,-23,53
1693678213711357600,1.019929886,-0.85473001,10.23521233,-0.060220521,0.000666156,-0.007727412,-30,42,84,4,-11,-0.114921682,2.407369852,10.22802925,0.0528928,-0.027179174,0.038104136,18,36,-25,-24,52
1693678213712357600,1.019929886,-0.860715508,10.23640919,-0.060220521,0.000399694,-0.007727412,-26,41,90,8,-12,-0.114921682,2.410961151,10.22683239,0.0528928,-0.027179174,0.038104136,19,33,-23,-19,52
1693678213713357600,1.016338587,-0.857124209,10.23880386,-0.060353752,0.000399694,-0.007594181,-24,41,81,8,-8,-0.114921682,2.409764051,10.22802925,0.0528928,-0.027045943,0.038104136,16,36,-21,-27,50
1693678213714357600,1.013944387,-0.859518409,10.24119759,-0.060353752,0.000266462,-0.007594181,-31,38,88,6,-15,-0.113724582,2.409764051,10.22443867,0.0528928,-0.02691271,0.037970904,20,43,-25,-20,54
1693678213715357600,1.015141487,-0.864306808,10.23162079,-0.060220521,0.000399694,-0.007727412,-27,41,79,11,-12,-0.112527482,2.41455245,10.22443867,0.0528928,-0.02691271,0.037970904,16,38,-25,-23,54
1693678213812334500,1.011550188,-0.857124209,10.23042393,-0.060620211,0.000133231,-0.007727412,-24,49,80,13,-8,-0.105344877,2.41455245,10.23281765,0.052759573,-0.027845331,0.038104136,14,38,-18,-18,54
1693678213813334500,1.011550188,-0.857124209,10.22922707,-0.060620211,0.000133231,-0.007727412,-30,38,87,7,-10,-0.107739076,2.41455245,10.23162079,0.052759573,-0.027712099,0.038104136,15,37,-29,-21,45
1693678213814334500,1.018732786,-0.85592711,10.22563553,-0.060620211,0.000266462,-0.007727412,-30,41,90,10,-11,-0.108936176,2.41694665,10.23162079,0.052759573,-0.027445635,0.038104136,15,33,-20,-24,51
1693678213815334500,1.022324085,-0.85353291,10.22204399,-0.060620211,0.000399694,-0.007727412,-28,47,85,-2,-16,-0.112527482,2.41694665,10.22683239,0.0528928,-0.027578866,0.037970904,14,39,-17,-19,52
1693678213816334500,1.023521185,-0.852335811,10.21965027,-0.060486984,0.000399694,-0.007727412,-33,42,87,0,-12,-0.116118781,2.41694665,10.21965027,0.052759573,-0.027578866,0.037837673,20,39,-18,-17,53
1693678213898247400,1.024718285,-0.852335811,10.23760605,-0.060486984,0.000532925,-0.007327718,-28,47,90,4,-13,-0.110133275,2.427720547,10.22563553,0.053425729,-0.028511487,0.037837673,7,30,-19,-24,50
1693678213899247400,1.024718285,-0.852335811,10.23401546,-0.060486984,0.000532925,-0.007327718,-30,48,79,13,-11,-0.108936176,2.425326347,10.22324085,0.053425729,-0.028245023,0.037704438,19,32,-25,-24,48
1693678213900247400,1.024718285,-0.852335811,10.23281765,-0.060486984,0.000399694,-0.007460949,-24,35,79,10,-13,-0.111330383,2.422932148,10.22204399,0.053159267,-0.028111791,0.03757121,18,44,-24,-18,52
1693678213901247400,1.027112484,-0.848744512,10.22802925,-0.060486984,0.000399694,-0.007594181,-30,43,80,-1,-15,-0.112527482,2.420537949,10.22683239,0.053159267,-0.027712099,0.03757121,15,32,-27,-21,50
1693678213902247400,1.025915384,-0.847547412,10.23042393,-0.060486984,0.000399694,-0.007860643,-35,41,87,7,-13,-0.110133275,2.420537949,10.22922707,0.053026035,-0.027712099,0.037837673,14,44,-25,-18,52
1693678213993706100,1.021126986,-0.85592711,10.23042393,-0.060353752,0.000532925,-0.007727412,-24,45,86,8,-9,-0.111330383,2.408566952,10.21845245,0.053026035,-0.028378254,0.038503829,18,47,-23,-24,65
1693678213994706100,1.022324085,-0.858321309,10.23162079,-0.060486984,0.000666156,-0.007594181,-33,36,80,11,-14,-0.107739076,2.409764051,10.22204399,0.053159267,-0.028111791,0.038637057,17,35,-25,-20,51
1693678213995706100,1.024718285,-0.861912608,10.23760605,-0.060486984,0.000532925,-0.007594181,-30,36,85,7,-16,-0.107739076,2.409764051,10.22324085,0.053026035,-0.02797856,0.038503829,11,31,-29,-24,54
1693678213996706100,1.024718285,-0.861912608,10.24000072,-0.060353752,0.000666156,-0.007860643,-26,37,87,10,-15,-0.107739076,2.410961151,10.22324085,0.053026035,-0.027578866,0.038503829,25,44,-19,-18,55
1693678213997706100,1.022324085,-0.860715508,10.24359226,-0.060220521,0.000666156,-0.007993874,-26,37,89,8,-11,-0.107739076,2.409764051,10.21725559,0.0528928,-0.027445635,0.038237367,20,42,-27,-20,52
1693678214114637700,1.016338587,-0.859518409,10.23521233,-0.060620211,0.000266462,-0.007727412,-27,47,88,11,-13,-0.124498487,2.420537949,10.22802925,0.053159267,-0.027578866,0.038370594,13,30,-21,-32,50
1693678214115637700,1.015141487,-0.859518409,10.23401546,-0.060486984,0.000399694,-0.007727412,-27,43,84,6,-13,-0.125695586,2.418143749,10.22802925,0.053026035,-0.027578866,0.038503829,19,44,-21,-20,49
1693678214116637700,1.015141487,-0.858321309,10.24000072,-0.060353752,0.000266462,-0.007594181,-26,43,83,4,-9,-0.124498487,2.418143749,10.23281765,0.053026035,-0.027712099,0.038637057,-1,41,-19,-20,52
1693678214117637700,1.013944387,-0.85353291,10.23880386,-0.060353752,0.000266462,-0.007727412,-26,45,83,6,-15,-0.119710088,2.41694665,10.23162079,0.053026035,-0.027712099,0.038370594,21,41,-21,-24,54
1693678214118637700,1.016338587,-0.85592711,10.23521233,-0.060486984,0.000266462,-0.007860643,-32,43,81,3,-12,-0.117315881,2.418143749,10.22922707,0.0528928,-0.027578866,0.038370594,13,36,-17,-22,49
1693678214206584700,1.010353088,-0.85473001,10.23521233,-0.060486984,0.000399694,-0.007727412,-27,42,91,12,-9,-0.118512981,2.419340849,10.21965027,0.0528928,-0.027179174,0.038237367,19,42,-23,-23,72
1693678214207584700,1.011550188,-0.852335811,10.23281765,-0.060486984,0.000266462,-0.007727412,-30,42,84,7,-12,-0.112527482,2.418143749,10.21605873,0.053026035,-0.027578866,0.038237367,21,32,-20,-18,49
1693678214208584700,1.011550188,-0.85353291,10.23281765,-0.060486984,0.000266462,-0.007727412,-32,37,84,7,-16,-0.113724582,2.419340849,10.21605873,0.053026035,-0.027712099,0.038237367,22,43,-21,-16,58
1693678214209584700,1.015141487,-0.85353291,10.22922707,-0.060486984,0.0,-0.007594181,-26,42,90,13,-17,-0.113724582,2.41694665,10.21845245,0.053159267,-0.027845331,0.038370594,8,37,-25,-20,52
1693678214210584700,1.016338587,-0.85473001,10.23281765,-0.060620211,0.000133231,-0.007594181,-26,39,86,13,-12,-0.111330383,2.41694665,10.21965027,0.053292494,-0.027845331,0.038637057,19,31,-21,-18,53
1693678214296532200,1.022324085,-0.85473001,10.23281765,-0.060486984,0.000266462,-0.007727412,-20,47,90,8,-8,-0.108936176,2.410961151,10.21965027,0.053825419,-0.027179174,0.037970904,15,39,-27,-20,52
1693678214297532200,1.024718285,-0.857124209,10.22922707,-0.060486984,0.000133231,-0.007860643,-20,42,89,8,-5,-0.105344877,2.409764051,10.22922707,0.053159267,-0.027312404,0.038237367,19,41,-19,-15,53
1693678214298532200,1.022324085,-0.85353291,10.22802925,-0.060620211,0.000133231,-0.007727412,-19,38,83,10,-11,-0.104147777,2.412158251,10.22443867,0.052093416,-0.027845331,0.038770292,20,40,-24,-22,55
1693678214299532200,1.023521185,-0.849941611,10.22563553,-0.060486984,0.000133231,-0.007727412,-16,43,79,5,-9,-0.105344877,2.41455245,10.21605873,0.052226644,-0.028245023,0.038637057,14,36,-25,-26,50
1693678214300532200,1.021126986,-0.851138711,10.22683239,-0.060486984,0.0,-0.007727412,-23,46,88,13,-12,-0.108936176,2.41335535,10.20767879,0.053425729,-0.028511487,0.038237367,16,44,-18,-23,53
1693678214408468700,1.013944387,-0.85592711,10.23760605,-0.060753446,0.0,-0.007727412,-26,50,86,12,-9,-0.118512981,2.41574955,10.22204399,0.051560488,-0.026113322,0.038237367,13,35,-17,-22,53
1693678214409468700,1.017535686,-0.858321309,10.23880386,-0.060620211,-0.000133231,-0.007860643,-22,45,90,3,-12,-0.118512981,2.41574955,10.21965027,0.051693719,-0.026513018,0.038637057,16,46,-20,-19,55
1693678214410468700,1.017535686,-0.860715508,10.24000072,-0.060620211,0.0,-0.007993874,-29,39,85,9,-15,-0.117315881,2.41694665,10.21845245,0.052226644,-0.027179174,0.038637057,17,31,-24,-22,53
1693678214411468700,1.016338587,-0.863109708,10.23640919,-0.060620211,-0.000133231,-0.008127105,-24,45,88,10,-8,-0.114921682,2.420537949,10.22324085,0.052759573,-0.027578866,0.038503829,17,33,-25,-20,51
1693678214412468700,1.012747288,-0.865503907,10.23521233,-0.060620211,0.0,-0.007993874,-19,43,88,8,-13,-0.114921682,2.419340849,10.22443867,0.053159267,-0.027712099,0.038503829,15,35,-24,-21,46
1693678214494418700,1.017535686,-0.852335811,10.24119759,-0.060753446,0.000133231,-0.008127105,-16,44,84,13,-9,-0.111330383,2.41455245,10.23521233,0.052359879,-0.026646247,0.037970904,19,43,-21,-24,33
1693678214495418700,1.018732786,-0.85353291,10.23880386,-0.060886677,0.0,-0.008260337,-18,41,83,14,-6,-0.112527482,2.410961151,10.23521233,0.05249311,-0.026779478,0.037837673,11,30,-22,-24,54
1693678214496418700,1.018732786,-0.852335811,10.23281765,-0.060886677,-0.000133231,-0.008393568,-28,45,85,8,-9,-0.111330383,2.408566952,10.23640919,0.0528928,-0.027045943,0.038104136,19,40,-24,-22,54
1693678214497418700,1.022324085,-0.85473001,10.23042393,-0.060620211,0.0,-0.008393568,-28,41,94,10,-13,-0.110133275,2.407369852,10.23521233,0.0528928,-0.027312404,0.038237367,16,31,-21,-24,53
1693678214498418700,1.022324085,-0.85353291,10.23521233,-0.060486984,0.000133231,-0.008260337,-30,45,90,11,-9,-0.111330383,2.410961151,10.23521233,0.0528928,-0.027445635,0.038370594,17,37,-27,-28,54
1693678214574373900,1.016338587,-0.85473001,10.24119759,-0.059954058,0.000266462,-0.007594181,-26,38,90,16,-5,-0.119710088,2.41694665,10.22443867,0.052359879,-0.027445635,0.038104136,26,40,-27,-20,56
1693678214575373900,1.015141487,-0.85592711,10.24119759,-0.059954058,0.0,-0.007594181,-30,53,86,16,-7,-0.120907187,2.41694665,10.22802925,0.052359879,-0.027312404,0.038104136,19,30,-19,-22,55
1693678214576373900,1.016338587,-0.858321309,10.23880386,-0.059954058,0.0,-0.007594181,-27,42,80,9,-8,-0.119710088,2.420537949,10.22683239,0.052226644,-0.027312404,0.038104136,19,39,-29,-22,43
1693678214577373900,1.019929886,-0.858321309,10.23760605,-0.059954058,0.000133231,-0.007594181,-27,36,86,6,-13,-0.116118781,2.420537949,10.21965027,0.052359879,-0.027712099,0.038104136,11,33,-24,-19,44
1693678214578373900,1.016338587,-0.858321309,10.23880386,-0.059954058,0.000266462,-0.007594181,-26,42,83,-8,-11,-0.114921682,2.421735048,10.21725559,0.05249311,-0.027578866,0.038370594,17,33,-29,-27,53
1693678214643332800,1.024718285,-0.851138711,10.23281765,-0.060486984,0.000399694,-0.007594181,-27,43,89,13,-9,-0.117315881,2.41455245,10.22204399,0.052759573,-0.027578866,0.038104136,19,35,-17,-19,55
1693678214644332800,1.027112484,-0.848744512,10.23042393,-0.060486984,0.000266462,-0.007860643,-20,54,90,11,-5,-0.117315881,2.41574955,10.22324085,0.052759573,-0.027312404,0.038104136,18,32,-19,-28,50
1693678214645332800,1.027112484,-0.849941611,10.22563553,-0.060486984,0.000266462,-0.007993874,-26,35,90,10,-9,-0.118512981,2.41694665,10.22324085,0.053026035,-0.027312404,0.038237367,19,31,-19,-24,53
1693678214646332800,1.025915384,-0.85353291,10.22922707,-0.060620211,0.000399694,-0.007993874,-27,43,90,13,-8,-0.117315881,2.41694665,10.21725559,0.053026035,-0.027312404,0.038370594,17,32,-17,-24,50
1693678214647332800,1.025915384,-0.85353291,10.23281765,-0.060486984,0.000399694,-0.008127105,-27,42,93,13,-7,-0.116118781,2.418143749,10.21965027,0.053026035,-0.027578866,0.038503829,13,41,-19,-20,55
1693678215003139500,1.019929886,-0.859518409,10.22443867,-0.060620211,0.000266462,-0.007860643,-20,41,89,13,-8,-0.124498487,2.41455245,10.20408726,0.052759573,-0.027312404,0.037837673,17,43,-18,-19,56
1693678215004139500,1.023521185,-0.85592711,10.22084713,-0.060620211,0.000133231,-0.007860643,-20,42,88,11,-6,-0.124498487,2.420537949,10.20408726,0.053026035,-0.027179174,0.037704438,16,39,-29,-29,53
1693678215005139500,1.024718285,-0.857124209,10.21845245,-0.060353752,0.000266462,-0.007860643,-27,45,89,8,-9,-0.120907187,2.419340849,10.20408726,0.053026035,-0.027179174,0.037837673,6,37,-28,-23,50
1693678215006139500,1.022324085,-0.85473001,10.22683239,-0.060486984,0.000266462,-0.007727412,-24,41,85,4,-7,-0.119710088,2.420537949,10.21007347,0.053026035,-0.027312404,0.037837673,14,39,-25,-16,50
1693678215007139500,1.018732786,-0.85353291,10.22683239,-0.060486984,0.000266462,-0.007594181,-20,46,87,10,-21,-0.118512981,2.420537949,10.21486187,0.0528928,-0.027312404,0.037837673,21,33,-23,-19,52
1693678215307411600,1.024718285,-0.846350312,10.22204399,-0.060753446,0.000532925,-0.007594181,-15,37,91,10,-6,-0.120907187,2.409764051,10.21486187,0.052759573,-0.02797856,0.038503829,20,40,-24,-26,60
1693678215308411600,1.023521185,-0.846350312,10.22204399,-0.060886677,0.000666156,-0.007594181,-31,45,88,6,-7,-0.122104287,2.409764051,10.21845245,0.052759573,-0.02797856,0.038503829,17,32,-21,-19,54
1693678215309411600,1.019929886,-0.847547412,10.22324085,-0.060886677,0.000532925,-0.007594181,-28,41,90,8,-6,-0.124498487,2.410961151,10.22084713,0.052759573,-0.028111791,0.038503829,5,36,-28,-19,54
1693678215310411600,1.019929886,-0.847547412,10.22563553,-0.060886677,0.000666156,-0.007594181,-27,35,87,12,-9,-0.125695586,2.41335535,10.22443867,0.052626338,-0.02797856,0.038370594,17,31,-24,-22,53
1693678215311411600,1.019929886,-0.848744512,10.22802925,-0.061019909,0.000532925,-0.007727412,-27,48,81,6,-7,-0.124498487,2.410961151,10.22683239,0.052759573,-0.028111791,0.038104136,18,40,-22,-22,54
1693678215437342400,1.018732786,-0.851138711,10.24000072,-0.060220521,0.000133231,-0.007993874,-22,53,84,11,-8,-0.125695586,2.418143749,10.22324085,0.053159267,-0.027445635,0.037970904,6,33,-27,-19,55
1693678215438342400,1.018732786,-0.851138711,10.23521233,-0.060220521,0.000266462,-0.007860643,-24,46,89,10,1,-0.122104287,2.420537949,10.22683239,0.0528928,-0.027445635,0.038237367,13,44,-22,-22,50
1693678215439342400,1.018732786,-0.852335811,10.23401546,-0.060220521,0.000399694,-0.007594181,-19,44,88,10,-9,-0.120907187,2.420537949,10.23162079,0.0528928,-0.027445635,0.037970904,19,44,-21,-22,49
1693678215440342400,1.019929886,-0.85353291,10.23521233,-0.060220521,0.000399694,-0.007594181,-24,45,90,8,-14,-0.120907187,2.421735048,10.23042393,0.052759573,-0.027179174,0.037837673,18,41,-21,-26,55
1693678215441342400,1.019929886,-0.85353291,10.23521233,-0.060486984,0.000399694,-0.007727412,-14,46,87,13,-9,-0.118512981,2.421735048,10.22324085,0.0528928,-0.027045943,0.037837673,11,36,-17,-20,55
1693678215514298400,1.013944387,-0.849941611,10.24119759,-0.060353752,0.000399694,-0.007594181,-22,49,90,12,-5,-0.119710088,2.419340849,10.22922707,0.053292494,-0.02691271,0.038104136,16,36,-30,-17,53
1693678215515298400,1.017535686,-0.849941611,10.24478912,-0.060353752,0.000399694,-0.007460949,-21,43,89,-6,-12,-0.122104287,2.418143749,10.23042393,0.053292494,-0.027179174,0.038104136,20,33,-21,-22,52
1693678215516298400,1.017535686,-0.851138711,10.24239445,-0.060220521,0.000399694,-0.007460949,-20,42,89,13,-8,-0.119710088,2.419340849,10.23521233,0.053425729,-0.027045943,0.038104136,20,35,-20,-16,54
1693678215517298400,1.018732786,-0.848744512,10.24119759,-0.060353752,0.000266462,-0.007460949,-22,35,80,2,-9,-0.119710088,2.420537949,10.23760605,0.053159267,-0.027045943,0.038237367,16,39,-21,-18,54
1693678215518298400,1.022324085,-0.848744512,10.24239445,-0.060353752,0.000133231,-0.007327718,-22,43,86,10,-12,-0.120907187,2.418143749,10.23521233,0.053159267,-0.027179174,0.038104136,13,43,-16,-23,52
1693678215602251200,1.013944387,-0.852335811,10.23401546,-0.060486984,0.000266462,-0.007727412,-24,49,83,12,-13,-0.111330383,2.420537949,10.23042393,0.052759573,-0.02691271,0.037837673,20,37,-20,-24,49
1693678215603251200,1.018732786,-0.851138711,10.23281765,-0.060353752,0.000266462,-0.007594181,-30,43,89,7,-8,-0.114921682,2.420537949,10.22802925,0.052759573,-0.027045943,0.037970904,15,43,-21,-18,70
1693678215604251200,1.016338587,-0.851138711,10.23521233,-0.060353752,0.000399694,-0.007594181,-26,38,85,12,-8,-0.116118781,2.419340849,10.22563553,0.052759573,-0.02691271,0.038104136,17,47,-17,-18,55
1693678215605251200,1.017535686,-0.85353291,10.23640919,-0.060220521,0.000532925,-0.007460949,-30,46,85,8,-12,-0.117315881,2.418143749,10.22443867,0.052759573,-0.027045943,0.038104136,20,36,-28,-26,57
1693678215606251200,1.017535686,-0.852335811,10.23640919,-0.06008729,0.000532925,-0.007460949,-18,49,87,14,-7,-0.118512981,2.419340849,10.22443867,0.052759573,-0.027045943,0.038237367,18,44,-24,-19,54
1693678215740687800,1.018732786,-0.85353291,10.23880386,-0.060220521,0.000532925,-0.007460949,-22,42,90,6,-9,-0.110133275,2.422932148,10.22922707,0.052759573,-0.027045943,0.038237367,19,28,-25,-20,53
1693678215741687800,1.019929886,-0.851138711,10.23760605,-0.060353752,0.000532925,-0.007460949,-26,46,88,9,-8,-0.112527482,2.420537949,10.22802925,0.052759573,-0.026779478,0.038104136,20,43,-23,-22,55
1693678215742687800,1.022324085,-0.85473001,10.23640919,-0.060486984,0.000532925,-0.007594181,-24,43,88,6,-14,-0.112527482,2.420537949,10.22683239,0.0528928,-0.026779478,0.038104136,20,40,-21,-23,54
1693678215743687800,1.022324085,-0.85473001,10.24000072,-0.060620211,0.000399694,-0.007460949,-26,41,92,-2,-15,-0.116118781,2.419340849,10.22204399,0.0528928,-0.026779478,0.038237367,13,39,-25,-20,53
1693678215744687800,1.018732786,-0.857124209,10.23760605,-0.060620211,0.000399694,-0.007460949,-22,41,88,11,-9,-0.116118781,2.419340849,10.22084713,0.0528928,-0.02691271,0.038237367,17,40,-27,-22,48
1693678215874612400,1.016338587,-0.85353291,10.23042393,-0.060753446,0.000133231,-0.007594181,-27,41,83,13,-8,-0.118512981,2.424129248,10.24000072,0.053026035,-0.02797856,0.038237367,20,46,-16,-17,52
1693678215875612400,1.017535686,-0.85353291,10.23162079,-0.060753446,0.000266462,-0.007860643,-22,45,87,9,-11,-0.117315881,2.421735048,10.23281765,0.052759573,-0.027845331,0.038237367,17,36,-21,-20,53
1693678215876612400,1.018732786,-0.85353291,10.23521233,-0.060886677,0.000399694,-0.007860643,-33,42,83,10,-12,-0.116118781,2.419340849,10.22802925,0.0528928,-0.027578866,0.038104136,16,40,-21,-20,50
1693678215877612400,1.019929886,-0.852335811,10.23640919,-0.060753446,0.000266462,-0.007727412,-28,42,87,1,-6,-0.113724582,2.421735048,10.22922707,0.0528928,-0.027445635,0.038104136,17,38,-21,-23,51
1693678215878612400,1.017535686,-0.851138711,10.23760605,-0.060886677,0.000399694,-0.007594181,-26,47,89,8,-9,-0.114921682,2.422932148,10.22922707,0.0528928,-0.027445635,0.038104136,13,33,-22,-26,45
1693678216044096300,1.012747288,-0.857124209,10.22443867,-0.060486984,0.000399694,-0.007727412,-25,49,90,10,-7,-0.124498487,2.418143749,10.23042393,0.053558957,-0.028378254,0.038370594,19,45,-17,-18,54
1693678216045096300,1.013944387,-0.857124209,10.22324085,-0.060620211,0.000532925,-0.007727412,-27,43,90,12,-7,-0.124498487,2.422932148,10.23401546,0.053026035,-0.028111791,0.038237367,20,42,-19,-26,55
1693678216046096300,1.017535686,-0.85353291,10.22204399,-0.060486984,0.000666156,-0.007860643,-26,46,88,9,-12,-0.119710088,2.422932148,10.23401546,0.0528928,-0.027845331,0.037970904,13,36,-23,-21,52
1693678216047096300,1.017535686,-0.85353291,10.21965027,-0.060486984,0.000666156,-0.007727412,-22,46,88,10,-9,-0.122104287,2.421735048,10.23760605,0.052759573,-0.027045943,0.03757121,18,32,-26,-28,52
1693678216048096300,1.018732786,-0.85353291,10.21486187,-0.060486984,0.000532925,-0.008127105,-20,42,90,13,-6,-0.122104287,2.419340849,10.23401546,0.052759573,-0.02691271,0.03757121,15,37,-18,-20,50
1693678216170677900,1.019929886,-0.85473001,10.21605873,-0.060486984,0.000133231,-0.007993874,-26,50,87,-1,-12,-0.116118781,2.412158251,10.21965027,0.0528928,-0.02797856,0.038503829,20,43,-25,-24,58
1693678216171677900,1.023521185,-0.85592711,10.21845245,-0.060353752,0.000266462,-0.007727412,-19,38,90,13,-8,-0.116118781,2.41694665,10.21965027,0.0528928,-0.028245023,0.038637057,18,36,-19,-22,50
1693678216172677900,1.022324085,-0.858321309,10.22204399,-0.060220521,0.000399694,-0.007727412,-23,36,90,12,-4,-0.113724582,2.41694665,10.21965027,0.0528928,-0.028111791,0.038637057,15,43,-23,-24,55
1693678216173677900,1.021126986,-0.85473001,10.21845245,-0.060353752,0.000266462,-0.007727412,-20,41,90,11,-9,-0.112527482,2.419340849,10.22324085,0.053026035,-0.027845331,0.038770292,19,31,-21,-19,47
1693678216174677900,1.017535686,-0.851138711,10.20648193,-0.060753446,-0.000133231,-0.007727412,-15,49,83,8,-9,-0.113724582,2.419340849,10.22802925,0.052759573,-0.027578866,0.038503829,16,45,-20,-20,55
1693678216275617400,1.022324085,-0.851138711,10.22802925,-0.060353752,0.000399694,-0.007727412,-24,37,78,7,-9,-0.119710088,2.41694665,10.23162079,0.052359879,-0.027312404,0.038104136,20,45,-25,-24,55
1693678216276617400,1.022324085,-0.852335811,10.23521233,-0.060620211,0.000266462,-0.007727412,-31,34,87,7,-17,-0.113724582,2.418143749,10.23162079,0.052359879,-0.027578866,0.038237367,18,31,-19,-25,48
