,timestamp,right_data_Ac_X,right_data_Ac_Y,right_data_Ac_Z,right_data_Gy_X,right_data_Gy_Y,right_data_Gy_Z,right_data_flex_1,right_data_flex_2,right_data_flex_3,right_data_flex_4,right_data_flex_5
0,1693677833858510100,-0.113724582,2.407369852,10.22563553,0.054091886,-0.027179174,0.038370594,17,41,-19,-20,52
1,1693677833859510100,-0.111330383,2.410961151,10.22563553,0.053825419,-0.027312404,0.038370594,20,39,-25,-26,52
2,1693677833860510100,-0.110133275,2.41694665,10.22683239,0.054225113,-0.027312404,0.038237367,19,33,-33,-23,45
3,1693677833861510100,-0.105344877,2.41455245,10.22922707,0.054225113,-0.027179174,0.037970904,19,33,-32,-16,54
4,1693677833862510100,-0.10295067,2.41574955,10.23042393,0.054225113,-0.026779478,0.037970904,18,33,-25,-27,53
0,1693677833884512600,-0.106541976,2.419340849,10.21845245,0.053825419,-0.026513018,0.03757121,11,40,-20,-20,52
1,1693677833885512600,-0.104147777,2.41694665,10.21486187,0.053692192,-0.026513018,0.03757121,14,31,-29,-24,50
2,1693677833886512600,-0.107739076,2.41574955,10.21246719,0.053692192,-0.026646247,0.037704438,7,30,-19,-21,52
3,1693677833887512600,-0.106541976,2.41455245,10.21605873,0.053692192,-0.02691271,0.037704438,17,33,-24,-28,55
4,1693677833888512600,-0.106541976,2.41694665,10.21725559,0.053825419,-0.027045943,0.037837673,15,31,-29,-19,50
0,1693677833905486600,-0.110133275,2.422932148,10.21366405,0.054091886,-0.027445635,0.03757121,10,30,-22,-24,49
1,1693677833906486600,-0.111330383,2.422932148,10.21725559,0.053958651,-0.027312404,0.03757121,9,40,-24,-20,40
2,1693677833907486600,-0.116118781,2.421735048,10.21605873,0.053958651,-0.027045943,0.03757121,17,33,-29,-15,48
3,1693677833908486600,-0.114921682,2.421735048,10.21366405,0.053958651,-0.026513018,0.03757121,17,35,-24,-20,54
4,1693677833909486600,-0.114921682,2.418143749,10.21725559,0.054091886,-0.026379786,0.037437979,17,30,-25,-18,51
0,1693677833925474000,-0.106541976,2.41455245,10.21725559,0.053825419,-0.027578866,0.038237367,15,38,-29,-20,52
1,1693677833926474000,-0.108936176,2.41335535,10.22324085,0.053825419,-0.02797856,0.038370594,13,41,-28,-27,46
2,1693677833927474000,-0.110133275,2.410961151,10.22204399,0.053825419,-0.027712099,0.038370594,20,41,-19,-24,54
3,1693677833928474000,-0.111330383,2.41455245,10.22324085,0.053692192,-0.027578866,0.038237367,20,41,-22,-23,55
4,1693677833929474000,-0.114921682,2.41574955,10.22443867,0.053692192,-0.027445635,0.038237367,19,39,-20,-22,54
0,1693677833946459300,-0.108936176,2.412158251,10.22204399,0.054091886,-0.027045943,0.038104136,17,34,-19,-20,55
1,1693677833947459300,-0.108936176,2.41455245,10.22563553,0.054091886,-0.02691271,0.038237367,-12,35,-25,-26,44
2,1693677833948459300,-0.111330383,2.41455245,10.22683239,0.054091886,-0.02691271,0.038370594,20,37,-20,-24,50
3,1693677833949459300,-0.112527482,2.41335535,10.22443867,0.054358348,-0.027045943,0.038370594,14,43,-25,-20,48
4,1693677833950459300,-0.112527482,2.41335535,10.22563553,0.054358348,-0.027179174,0.038370594,20,40,-21,-26,52
0,1693677833963449000,-0.110133275,2.412158251,10.22324085,0.053825419,-0.027045943,0.038104136,21,33,-28,-27,48
1,1693677833964449000,-0.111330383,2.412158251,10.22443867,0.053825419,-0.027045943,0.037970904,19,31,-29,-30,48
2,1693677833965449000,-0.111330383,2.41574955,10.22324085,0.053692192,-0.027045943,0.038370594,16,40,-24,-19,50
3,1693677833966449000,-0.110133275,2.41694665,10.22204399,0.053692192,-0.027312404,0.038370594,21,43,-19,-20,50
4,1693677833967449000,-0.111330383,2.41574955,10.22443867,0.053825419,-0.027312404,0.038370594,19,31,-19,-19,52
0,1693677833980440800,-0.099359371,2.421735048,10.21965027,0.053958651,-0.02691271,0.03757121,7,37,-25,-27,49
1,1693677833981440800,-0.10295067,2.420537949,10.21845245,0.054091886,-0.026379786,0.03757121,20,40,-23,-22,52
2,1693677833982440800,-0.108936176,2.419340849,10.22084713,0.053825419,-0.025980091,0.037837673,13,33,-18,-18,49
3,1693677833983440800,-0.110133275,2.418143749,10.21845245,0.053159267,-0.026379786,0.037970904,14,36,-22,-22,52
4,1693677833984440800,-0.108936176,2.420537949,10.20887566,0.053159267,-0.026779478,0.038104136,17,39,-31,-28,49
0,1693677834001429500,-0.107739076,2.41335535,10.24119759,0.054624807,-0.027845331,0.037837673,13,33,-20,-24,48
1,1693677834002429500,-0.108936176,2.41574955,10.24239445,0.053958651,-0.027179174,0.037837673,14,34,-24,-20,48
2,1693677834003429500,-0.111330383,2.41335535,10.23162079,0.053692192,-0.026513018,0.037837673,20,45,-20,-18,50
3,1693677834004429500,-0.113724582,2.412158251,10.22802925,0.053558957,-0.026246555,0.03757121,14,32,-23,-23,51
4,1693677834005429500,-0.117315881,2.41455245,10.22324085,0.053692192,-0.025980091,0.03757121,17,34,-33,-26,45
0,1693677834018442200,-0.117315881,2.41335535,10.22204399,0.054091886,-0.027312404,0.037837673,15,42,-20,-22,55
1,1693677834019442200,-0.113724582,2.41574955,10.22324085,0.054225113,-0.027312404,0.037837673,18,33,-25,-24,52
2,1693677834020442200,-0.111330383,2.41335535,10.22204399,0.054358348,-0.027179174,0.037837673,17,45,-25,-21,56
3,1693677834021442200,-0.110133275,2.41335535,10.22443867,0.054225113,-0.027045943,0.037837673,17,44,-23,-24,52
4,1693677834022442200,-0.113724582,2.41455245,10.22443867,0.053958651,-0.026779478,0.037704438,14,37,-24,-23,53
0,1693677834035431000,-0.114921682,2.412158251,10.21605873,0.053692192,-0.027179174,0.038104136,11,36,-19,-24,55
1,1693677834036431000,-0.112527482,2.410961151,10.21725559,0.054091886,-0.027179174,0.037970904,19,45,-21,-16,52
2,1693677834037431000,-0.111330383,2.41335535,10.21965027,0.054491576,-0.027312404,0.037837673,16,31,-21,-22,50
3,1693677834038431000,-0.110133275,2.41455245,10.21965027,0.054091886,-0.027445635,0.037837673,20,35,-22,-23,49
4,1693677834039431000,-0.108936176,2.41455245,10.22683239,0.053825419,-0.027312404,0.037837673,15,31,-28,-29,50
0,1693677834053411400,-0.10175357,2.412158251,10.21246719,0.053692192,-0.026779478,0.037437979,20,37,-24,-23,42
1,1693677834054411400,-0.099359371,2.409764051,10.21127033,0.053692192,-0.02691271,0.03757121,20,37,-19,-20,53
2,1693677834055411400,-0.094570965,2.410961151,10.21007347,0.053692192,-0.027179174,0.03757121,14,30,-18,-24,46
3,1693677834056411400,-0.094570965,2.412158251,10.21127033,0.053558957,-0.027445635,0.037837673,18,31,-19,-26,52
4,1693677834057411400,-0.093373865,2.410961151,10.21007347,0.053692192,-0.027312404,0.037837673,16,41,-25,-28,55
0,1693677834072386400,-0.108936176,2.412158251,10.20528507,0.054225113,-0.027312404,0.038104136,18,39,-21,-18,55
1,1693677834073386400,-0.111330383,2.410961151,10.20528507,0.054091886,-0.027312404,0.037970904,22,33,-23,-26,49
2,1693677834074386400,-0.111330383,2.41335535,10.20648193,0.053958651,-0.027445635,0.037970904,20,36,-23,-30,50
3,1693677834075386400,-0.108936176,2.41335535,10.21127033,0.053958651,-0.027312404,0.037970904,17,37,-29,-30,44
4,1693677834076386400,-0.110133275,2.412158251,10.21725559,0.053825419,-0.027445635,0.038104136,20,33,-27,-22,49
0,1693677834090398800,-0.106541976,2.41335535,10.20648193,0.053825419,-0.026646247,0.038104136,19,44,-23,-23,50
1,1693677834091398800,-0.108936176,2.412158251,10.21127033,0.053825419,-0.026646247,0.037970904,9,35,-30,-23,50
2,1693677834092398800,-0.108936176,2.41335535,10.21366405,0.053692192,-0.026646247,0.038104136,13,41,-23,-24,53
3,1693677834093398800,-0.107739076,2.412158251,10.21725559,0.053692192,-0.02691271,0.038237367,15,35,-24,-27,53
4,1693677834094398800,-0.104147777,2.412158251,10.21366405,0.053558957,-0.027045943,0.038104136,18,40,-24,-28,42
0,1693677834107369500,-0.110133275,2.410961151,10.21007347,0.053558957,-0.026513018,0.037704438,15,40,-29,-26,49
1,1693677834108369500,-0.111330383,2.404975653,10.20528507,0.053558957,-0.026379786,0.037704438,17,37,-33,-19,50
2,1693677834109369500,-0.111330383,2.403778553,10.20408726,0.053558957,-0.026379786,0.037704438,15,40,-24,-27,52
3,1693677834110369500,-0.108936176,2.403778553,10.20767879,0.053425729,-0.026779478,0.037837673,10,43,-25,-26,54
4,1693677834111369500,-0.108936176,2.401384354,10.21127033,0.053692192,-0.027045943,0.037837673,17,41,-22,-24,55
0,1693677834125356500,-0.108936176,2.41335535,10.21127033,0.053692192,-0.027712099,0.038104136,17,35,-23,-27,48
1,1693677834126356500,-0.108936176,2.412158251,10.21605873,0.053692192,-0.027712099,0.037970904,15,35,-25,-26,45
2,1693677834127356500,-0.108936176,2.41335535,10.22204399,0.053692192,-0.027578866,0.038104136,17,32,-24,-24,49
3,1693677834128356500,-0.106541976,2.41455245,10.21725559,0.053692192,-0.027578866,0.037970904,10,37,-17,-20,53
4,1693677834129356500,-0.106541976,2.41574955,10.21725559,0.053825419,-0.027445635,0.037970904,20,47,-24,-17,55
0,1693677834142369500,-0.108936176,2.41455245,10.21965027,0.053692192,-0.027312404,0.037970904,19,32,-22,-24,49
1,1693677834143369500,-0.112527482,2.412158251,10.21965027,0.053825419,-0.027312404,0.037970904,18,32,-23,-29,48
2,1693677834144369500,-0.114921682,2.409764051,10.21965027,0.053692192,-0.027312404,0.037970904,20,33,-25,-24,53
3,1693677834145369500,-0.113724582,2.409764051,10.21725559,0.053692192,-0.027312404,0.037970904,18,47,-21,-22,50
4,1693677834146369500,-0.111330383,2.410961151,10.21605873,0.053692192,-0.027312404,0.037970904,20,36,-25,-21,48
0,1693677834159359100,-0.110133275,2.41574955,10.21246719,0.053292494,-0.027045943,0.037970904,13,39,-25,-24,48
1,1693677834160359100,-0.106541976,2.412158251,10.21246719,0.053292494,-0.027045943,0.037970904,20,45,-30,-20,58
2,1693677834161359100,-0.108936176,2.412158251,10.21127033,0.053425729,-0.027179174,0.037704438,21,40,-21,-22,55
3,1693677834162359100,-0.107739076,2.412158251,10.21246719,0.053558957,-0.027045943,0.037837673,19,32,-23,-17,54
4,1693677834163359100,-0.106541976,2.412158251,10.21127033,0.053558957,-0.026779478,0.037970904,15,31,-31,-20,52
0,1693677834177327000,-0.106541976,2.41335535,10.22802925,0.053958651,-0.026513018,0.037970904,20,39,-23,-17,52
1,1693677834178327000,-0.105344877,2.41455245,10.22443867,0.053825419,-0.026646247,0.037970904,17,43,-25,-20,55
2,1693677834179327000,-0.106541976,2.41574955,10.22683239,0.054091886,-0.026646247,0.037970904,20,40,-20,-20,55
3,1693677834180327000,-0.105344877,2.41455245,10.22683239,0.054091886,-0.026779478,0.037970904,14,45,-19,-18,53
4,1693677834181327000,-0.106541976,2.41694665,10.22683239,0.054091886,-0.02691271,0.038104136,20,39,-22,-22,53
0,1693677834194339800,-0.107739076,2.41694665,10.22563553,0.053958651,-0.027045943,0.037970904,15,33,-23,-22,54
1,1693677834195339800,-0.106541976,2.41455245,10.22443867,0.053692192,-0.02691271,0.038104136,20,41,-21,-18,50
2,1693677834196339800,-0.106541976,2.41335535,10.22443867,0.053692192,-0.02691271,0.038104136,20,42,-16,-24,54
3,1693677834197339800,-0.105344877,2.410961151,10.22324085,0.053692192,-0.02691271,0.038104136,17,41,-19,-22,49
4,1693677834198339800,-0.106541976,2.410961151,10.22443867,0.053958651,-0.026646247,0.038237367,20,46,-24,-23,53
0,1693677834212306600,-0.111330383,2.41694665,10.22324085,0.053692192,-0.02691271,0.037704438,14,37,-21,-26,52
1,1693677834213306600,-0.111330383,2.41694665,10.22683239,0.053692192,-0.026779478,0.037704438,20,41,-25,-26,58
2,1693677834214306600,-0.108936176,2.41574955,10.22443867,0.053825419,-0.026779478,0.037704438,17,40,-21,-20,53
3,1693677834215306600,-0.106541976,2.412158251,10.22922707,0.053825419,-0.026646247,0.037704438,17,41,-28,-27,49
4,1693677834216306600,-0.104147777,2.41574955,10.22443867,0.053825419,-0.026646247,0.037704438,13,32,-28,-28,46
0,1693677834229296900,-0.104147777,2.41694665,10.22204399,0.053825419,-0.026646247,0.037970904,20,41,-24,-27,52
1,1693677834230296900,-0.105344877,2.41694665,10.21725559,0.053958651,-0.026513018,0.037970904,20,40,-21,-22,55
2,1693677834231296900,-0.108936176,2.41574955,10.21486187,0.054091886,-0.026379786,0.037970904,20,37,-24,-22,48
3,1693677834232296900,-0.111330383,2.41335535,10.21605873,0.053958651,-0.026513018,0.037970904,13,30,-25,-27,52
4,1693677834233296900,-0.110133275,2.41455245,10.21725559,0.053958651,-0.026646247,0.037837673,10,41,-32,-28,51
0,1693677834246287500,-0.112527482,2.406172752,10.22922707,0.054091886,-0.026646247,0.037970904,17,41,-21,-18,55
1,1693677834247287500,-0.114921682,2.408566952,10.22563553,0.053958651,-0.026646247,0.038237367,20,40,-20,-18,53
2,1693677834248287500,-0.113724582,2.408566952,10.22563553,0.053825419,-0.026779478,0.038370594,19,43,-23,-16,53
3,1693677834249287500,-0.111330383,2.408566952,10.23042393,0.053825419,-0.027045943,0.038237367,13,36,-23,-28,50
4,1693677834250287500,-0.111330383,2.409764051,10.23162079,0.054091886,-0.02691271,0.038104136,19,39,-23,-24,53
0,1693677834275272000,-0.10295067,2.422932148,10.22563553,0.053958651,-0.027179174,0.037837673,14,36,-23,-22,50
1,1693677834276272000,-0.10055647,2.424129248,10.22563553,0.053825419,-0.027445635,0.037837673,17,33,-21,-27,52
2,1693677834277272000,-0.104147777,2.424129248,10.22324085,0.053958651,-0.027445635,0.037970904,19,44,-21,-27,52
3,1693677834278272000,-0.104147777,2.421735048,10.21725559,0.054091886,-0.027578866,0.037704438,21,32,-13,-22,52
4,1693677834279272000,-0.10175357,2.420537949,10.21366405,0.054091886,-0.027445635,0.037704438,7,34,-19,-19,55
0,1693677834295261500,-0.098162271,2.41455245,10.21725559,0.053558957,-0.027045943,0.037970904,15,36,-21,-23,52
1,1693677834296261500,-0.099359371,2.41694665,10.21605873,0.053692192,-0.027179174,0.037970904,18,35,-24,-26,50
2,1693677834297261500,-0.098162271,2.418143749,10.21486187,0.053958651,-0.027045943,0.038104136,17,47,-21,-19,54
3,1693677834298261500,-0.095768064,2.41574955,10.21725559,0.053692192,-0.027445635,0.038104136,15,43,-23,-27,54
4,1693677834299261500,-0.096965171,2.41574955,10.21486187,0.053692192,-0.027445635,0.038104136,20,46,-21,-20,54
0,1693677834316247500,-0.107739076,2.41335535,10.22563553,0.053825419,-0.027179174,0.037970904,9,31,-21,-26,46
1,1693677834317247500,-0.105344877,2.412158251,10.22443867,0.053825419,-0.027312404,0.037837673,20,41,-21,-21,50
2,1693677834318247500,-0.104147777,2.409764051,10.22443867,0.053825419,-0.027312404,0.037704438,15,40,-21,-22,49
3,1693677834319247500,-0.104147777,2.412158251,10.22443867,0.053825419,-0.027312404,0.037704438,20,42,-27,-18,54
4,1693677834320247500,-0.10295067,2.410961151,10.22443867,0.053692192,-0.027179174,0.037837673,20,35,-25,-18,55
0,1693677834336235500,-0.108936176,2.418143749,10.22204399,0.053692192,-0.027179174,0.037970904,17,39,-29,-24,41
1,1693677834337235500,-0.108936176,2.419340849,10.22324085,0.053692192,-0.027179174,0.037970904,20,40,-27,-24,56
2,1693677834338235500,-0.110133275,2.420537949,10.21845245,0.053825419,-0.027179174,0.037970904,21,28,-17,-22,47
3,1693677834339235500,-0.108936176,2.421735048,10.21605873,0.053958651,-0.027179174,0.037970904,18,37,-21,-24,55
4,1693677834340235500,-0.110133275,2.421735048,10.21725559,0.054091886,-0.027045943,0.038104136,17,40,-18,-24,53
0,1693677834358223500,-0.105344877,2.412158251,10.21366405,0.053825419,-0.027045943,0.037970904,18,44,-23,-27,50
1,1693677834359223500,-0.105344877,2.410961151,10.21366405,0.053825419,-0.027045943,0.037970904,19,40,-18,-28,53
2,1693677834360223500,-0.10055647,2.408566952,10.21605873,0.053558957,-0.026779478,0.038104136,19,37,-24,-19,55
3,1693677834361223500,-0.098162271,2.410961151,10.21605873,0.053825419,-0.026646247,0.037837673,13,39,-20,-24,52
4,1693677834362223500,-0.099359371,2.410961151,10.21965027,0.053825419,-0.026513018,0.037970904,13,31,-28,-19,53
0,1693677834376214300,-0.106541976,2.418143749,10.21965027,0.053958651,-0.027045943,0.037837673,22,40,-21,-28,55
1,1693677834377214300,-0.106541976,2.419340849,10.22324085,0.053825419,-0.02691271,0.037837673,15,39,-21,-23,52
2,1693677834378214300,-0.110133275,2.41694665,10.22443867,0.053825419,-0.026646247,0.037970904,17,46,-17,-21,54
3,1693677834379214300,-0.107739076,2.418143749,10.22922707,0.053692192,-0.02691271,0.038104136,19,43,-19,-23,54
4,1693677834380214300,-0.107739076,2.418143749,10.22683239,0.053825419,-0.02691271,0.038104136,17,43,-25,-29,54
0,1693677834394224800,-0.10175357,2.419340849,10.22084713,0.053825419,-0.027578866,0.038104136,19,41,-17,-17,54
1,1693677834395224800,-0.10175357,2.421735048,10.22204399,0.053825419,-0.027445635,0.037837673,25,40,-21,-20,55
2,1693677834396224800,-0.10295067,2.420537949,10.21605873,0.053825419,-0.027578866,0.037970904,15,39,-17,-18,46
3,1693677834397224800,-0.10055647,2.419340849,10.21605873,0.053825419,-0.027712099,0.037970904,15,43,-23,-24,48
4,1693677834398224800,-0.10055647,2.419340849,10.21725559,0.053825419,-0.027712099,0.037704438,19,39,-21,-23,51
0,1693677834412195100,-0.099359371,2.41574955,10.22922707,0.054091886,-0.027179174,0.037704438,13,41,-19,-22,55
1,1693677834413195100,-0.10175357,2.41335535,10.23521233,0.054358348,-0.027045943,0.037704438,21,42,-29,-20,55
2,1693677834414195100,-0.10175357,2.41455245,10.23760605,0.054358348,-0.027045943,0.037837673,9,38,-21,-23,54
3,1693677834415195100,-0.104147777,2.412158251,10.23521233,0.054358348,-0.02691271,0.03757121,9,31,-22,-24,54
4,1693677834416195100,-0.104147777,2.409764051,10.23162079,0.054491576,-0.027045943,0.03757121,15,41,-25,-20,52
0,1693677834430182700,-0.096965171,2.41574955,10.22084713,0.054091886,-0.027445635,0.037837673,25,45,-21,-24,48
1,1693677834431182700,-0.098162271,2.41694665,10.22084713,0.054091886,-0.027312404,0.037837673,20,45,-18,-20,54
2,1693677834432182700,-0.096965171,2.41694665,10.21965027,0.054091886,-0.027445635,0.037970904,19,37,-24,-24,53
3,1693677834433182700,-0.095768064,2.41694665,10.22204399,0.053958651,-0.027445635,0.037837673,17,30,-29,-24,50
4,1693677834434182700,-0.096965171,2.41694665,10.22443867,0.053958651,-0.027312404,0.037970904,14,41,-20,-18,53
0,1693677834451170800,-0.104147777,2.41694665,10.22204399,0.053558957,-0.026779478,0.037704438,18,35,-20,-23,54
1,1693677834452170800,-0.10055647,2.41455245,10.22324085,0.053558957,-0.027045943,0.037704438,15,42,-24,-20,52
2,1693677834453170800,-0.10055647,2.41455245,10.22683239,0.053425729,-0.02691271,0.037837673,20,33,-29,-20,48
3,1693677834454170800,-0.098162271,2.41455245,10.22324085,0.053558957,-0.026779478,0.037837673,22,33,-19,-22,53
4,1693677834455170800,-0.095768064,2.41335535,10.21845245,0.053558957,-0.027179174,0.037837673,20,44,-20,-18,52
0,1693677834468183500,-0.10295067,2.420537949,10.21486187,0.053692192,-0.027179174,0.038104136,23,35,-19,-20,54
1,1693677834469183500,-0.10295067,2.420537949,10.21366405,0.053825419,-0.027179174,0.037704438,14,33,-24,-26,55
2,1693677834470183500,-0.10295067,2.418143749,10.21007347,0.053825419,-0.027179174,0.037837673,14,40,-24,-19,52
3,1693677834471183500,-0.10295067,2.41694665,10.21127033,0.053825419,-0.027179174,0.037837673,17,39,-25,-19,44
4,1693677834472183500,-0.104147777,2.41574955,10.20887566,0.053825419,-0.027179174,0.037837673,17,36,-19,-22,53
0,1693677834490170200,-0.10295067,2.41694665,10.22683239,0.054091886,-0.027712099,0.038237367,9,36,-25,-24,52
1,1693677834491170200,-0.10175357,2.41455245,10.22683239,0.053958651,-0.027712099,0.038104136,17,44,-24,-21,53
2,1693677834492170200,-0.106541976,2.410961151,10.22443867,0.054091886,-0.027712099,0.038237367,20,42,-22,-23,55
3,1693677834493170200,-0.108936176,2.41335535,10.22204399,0.054091886,-0.027445635,0.038370594,16,34,-19,-23,51
4,1693677834494170200,-0.111330383,2.41694665,10.22204399,0.054225113,-0.027712099,0.038237367,18,35,-16,-18,52
0,1693677834508159600,-0.104147777,2.41455245,10.22204399,0.053825419,-0.027179174,0.037837673,10,41,-21,-24,51
1,1693677834509159600,-0.104147777,2.41455245,10.21965027,0.053825419,-0.02691271,0.037837673,21,37,-24,-20,53
2,1693677834510159600,-0.105344877,2.41574955,10.21965027,0.053825419,-0.02691271,0.037970904,18,44,-19,-24,54
3,1693677834511159600,-0.105344877,2.41694665,10.21965027,0.053825419,-0.027045943,0.037837673,16,42,-25,-21,53
4,1693677834512159600,-0.108936176,2.41694665,10.22204399,0.054091886,-0.027179174,0.037970904,20,43,-20,-20,52
0,1693677834532126400,-0.117315881,2.41455245,10.21366405,0.053825419,-0.026646247,0.037970904,17,42,-20,-24,55
1,1693677834533126400,-0.119710088,2.41455245,10.21605873,0.053692192,-0.026513018,0.037970904,19,45,-34,-22,52
2,1693677834534126400,-0.118512981,2.41335535,10.21845245,0.053558957,-0.026513018,0.037970904,15,41,-20,-21,49
3,1693677834535126400,-0.118512981,2.409764051,10.21605873,0.053425729,-0.026779478,0.038104136,15,45,-20,-14,55
4,1693677834536126400,-0.117315881,2.412158251,10.21605873,0.053558957,-0.027045943,0.038104136,20,40,-21,-24,54
0,1693677834552112200,-0.110133275,2.410961151,10.22204399,0.0528928,-0.025313934,0.037171517,22,38,-21,-21,52
1,1693677834553112200,-0.113724582,2.409764051,10.22324085,0.053159267,-0.025180703,0.037171517,13,31,-22,-17,40
2,1693677834554112200,-0.114921682,2.410961151,10.22084713,0.053292494,-0.025047474,0.037038282,15,32,-34,-26,49
3,1693677834555112200,-0.112527482,2.407369852,10.21605873,0.0528928,-0.024647778,0.037038282,13,30,-23,-20,52
4,1693677834556112200,-0.111330383,2.404975653,10.21486187,0.052759573,-0.024514547,0.037038282,13,41,-21,-24,55
0,1693677834569102600,-0.110133275,2.41335535,10.21246719,0.053958651,-0.027045943,0.037437979,16,41,-23,-28,52
1,1693677834570102600,-0.112527482,2.41335535,10.20648193,0.053958651,-0.02691271,0.037437979,17,36,-23,-21,51
2,1693677834571102600,-0.112527482,2.408566952,10.20528507,0.053958651,-0.027179174,0.037304748,15,35,-24,-33,49
3,1693677834572102600,-0.110133275,2.407369852,10.2028904,0.053958651,-0.027179174,0.037437979,20,43,-27,-22,55
4,1693677834573102600,-0.111330383,2.407369852,10.20887566,0.054091886,-0.027179174,0.037304748,17,46,-19,-16,55
0,1693677834599084900,-0.113724582,2.41574955,10.20887566,0.053958651,-0.027179174,0.037970904,20,44,-23,-18,54
1,1693677834600084900,-0.112527482,2.41335535,10.21127033,0.053958651,-0.027312404,0.038104136,20,41,-26,-23,50
2,1693677834601084900,-0.117315881,2.41694665,10.20887566,0.053958651,-0.027312404,0.038104136,15,40,-25,-23,48
3,1693677834602084900,-0.118512981,2.41574955,10.21127033,0.054091886,-0.027445635,0.038237367,17,41,-29,-18,54
4,1693677834603084900,-0.117315881,2.41455245,10.21246719,0.053958651,-0.027445635,0.038104136,21,47,-23,-22,55
0,1693677834616074900,-0.122104287,2.410961151,10.22563553,0.054091886,-0.027179174,0.037970904,9,36,-17,-22,53
1,1693677834617074900,-0.119710088,2.412158251,10.22563553,0.053958651,-0.027045943,0.038104136,15,44,-27,-24,52
2,1693677834618074900,-0.119710088,2.41455245,10.22802925,0.053825419,-0.027179174,0.038104136,10,35,-21,-20,48
3,1693677834619074900,-0.116118781,2.412158251,10.22922707,0.053825419,-0.02691271,0.037970904,19,31,-27,-27,51
4,1693677834620074900,-0.112527482,2.412158251,10.22922707,0.053825419,-0.027045943,0.037837673,19,44,-28,-12,54
0,1693677834635063600,-0.119710088,2.406172752,10.24838066,0.053825419,-0.02691271,0.038104136,13,33,-19,-24,49
1,1693677834636063600,-0.122104287,2.410961151,10.24598598,0.053692192,-0.026779478,0.037970904,8,30,-23,-20,49
2,1693677834637063600,-0.122104287,2.412158251,10.24478912,0.053558957,-0.026779478,0.038104136,13,34,-17,-22,53
3,1693677834638063600,-0.120907187,2.41455245,10.24239445,0.053692192,-0.026779478,0.038370594,14,42,-23,-23,51
4,1693677834639063600,-0.120907187,2.418143749,10.23521233,0.053825419,-0.026779478,0.038503829,5,39,-21,-21,55
0,1693677834653067000,-0.117315881,2.412158251,10.22683239,0.053692192,-0.027045943,0.038370594,18,36,-21,-22,50
1,1693677834654067000,-0.114921682,2.410961151,10.23042393,0.053692192,-0.02691271,0.038370594,18,40,-28,-24,54
2,1693677834655067000,-0.116118781,2.412158251,10.23162079,0.053692192,-0.02691271,0.038237367,11,42,-23,-28,43
3,1693677834656067000,-0.113724582,2.409764051,10.22922707,0.053425729,-0.027045943,0.038104136,22,44,-20,-24,50
4,1693677834657067000,-0.114921682,2.410961151,10.22802925,0.053425729,-0.02691271,0.038104136,17,41,-29,-19,53
0,1693677834671044100,-0.111330383,2.41574955,10.21366405,0.054091886,-0.027045943,0.038237367,7,31,-17,-27,49
1,1693677834672044100,-0.112527482,2.418143749,10.21486187,0.053958651,-0.02691271,0.038104136,19,37,-18,-20,66
2,1693677834673044100,-0.111330383,2.420537949,10.21605873,0.053958651,-0.027045943,0.038104136,19,40,-15,-23,54
3,1693677834674044100,-0.111330383,2.420537949,10.21366405,0.053825419,-0.02691271,0.038104136,17,30,-19,-22,50
4,1693677834675044100,-0.108936176,2.421735048,10.21486187,0.053558957,-0.027179174,0.038104136,20,44,-21,-19,52
0,1693677834688034900,-0.108936176,2.41574955,10.22683239,0.053558957,-0.026779478,0.038104136,20,33,-23,-20,51
1,1693677834689034900,-0.108936176,2.419340849,10.22563553,0.053692192,-0.026646247,0.037970904,20,45,-24,-20,53
2,1693677834690034900,-0.110133275,2.418143749,10.22563553,0.053692192,-0.026646247,0.038104136,18,45,-16,-16,53
3,1693677834691034900,-0.111330383,2.41574955,10.22443867,0.053558957,-0.026779478,0.037970904,19,35,-25,-20,51
4,1693677834692034900,-0.108936176,2.41694665,10.22443867,0.053558957,-0.02691271,0.037970904,17,37,-23,-16,54
0,1693677834706045800,-0.112527482,2.410961151,10.22922707,0.053692192,-0.027179174,0.03757121,17,35,-21,-16,53
1,1693677834707045800,-0.112527482,2.408566952,10.22683239,0.053692192,-0.027045943,0.037837673,19,43,-19,-17,52
2,1693677834708045800,-0.113724582,2.408566952,10.22324085,0.053692192,-0.027179174,0.037837673,21,44,-24,-19,54
3,1693677834709045800,-0.114921682,2.409764051,10.22443867,0.053825419,-0.027045943,0.037837673,15,33,-24,-18,54
4,1693677834710045800,-0.113724582,2.41335535,10.22563553,0.053825419,-0.026779478,0.037970904,20,35,-25,-24,58
0,1693677834724031000,-0.119710088,2.41335535,10.20887566,0.053692192,-0.026646247,0.038237367,20,43,-21,-17,54
1,1693677834725031000,-0.116118781,2.412158251,10.20887566,0.053825419,-0.026779478,0.038104136,18,44,-23,-18,55
2,1693677834726031000,-0.117315881,2.412158251,10.21007347,0.053958651,-0.026646247,0.038104136,20,51,-27,-20,53
3,1693677834727031000,-0.116118781,2.41335535,10.21366405,0.053958651,-0.026779478,0.038104136,19,39,-24,-23,52
4,1693677834728031000,-0.114921682,2.41335535,10.21605873,0.053958651,-0.026646247,0.038104136,11,30,-20,-29,48
0,1693677834741025900,-0.122104287,2.409764051,10.21007347,0.053692192,-0.027179174,0.037970904,20,41,-23,-16,55
1,1693677834742025900,-0.118512981,2.409764051,10.21246719,0.053425729,-0.027312404,0.037837673,20,34,-27,-22,53
2,1693677834743025900,-0.116118781,2.409764051,10.21246719,0.053558957,-0.027179174,0.037704438,18,37,-23,-16,50
3,1693677834744025900,-0.116118781,2.410961151,10.21127033,0.053425729,-0.027045943,0.037704438,5,35,-28,-24,50
4,1693677834745025900,-0.114921682,2.408566952,10.20887566,0.053425729,-0.027045943,0.037704438,9,40,-25,-15,53
0,1693677834758016100,-0.110133275,2.410961151,10.21246719,0.053825419,-0.027179174,0.038370594,19,42,-19,-18,96
1,1693677834759016100,-0.108936176,2.410961151,10.21246719,0.053958651,-0.027045943,0.038237367,18,46,-20,-26,54
2,1693677834760016100,-0.110133275,2.410961151,10.21486187,0.053692192,-0.027045943,0.038237367,16,33,-22,-24,55
3,1693677834761016100,-0.108936176,2.409764051,10.21725559,0.053692192,-0.027045943,0.038237367,18,35,-20,-28,53
4,1693677834762016100,-0.112527482,2.409764051,10.21605873,0.053692192,-0.027312404,0.038237367,20,33,-21,-18,52
0,1693677834817943600,-0.113724582,2.409764051,10.22563553,0.053958651,-0.027312404,0.037837673,20,41,-20,-18,53
1,1693677834818943600,-0.116118781,2.409764051,10.22204399,0.053958651,-0.027179174,0.037837673,20,48,-28,-24,53
2,1693677834819943600,-0.118512981,2.409764051,10.22084713,0.053958651,-0.027179174,0.037970904,12,35,-29,-24,45
3,1693677834820943600,-0.114921682,2.412158251,10.22324085,0.053692192,-0.027312404,0.037970904,19,32,-23,-19,54
4,1693677834821943600,-0.113724582,2.409764051,10.22443867,0.053692192,-0.027312404,0.037837673,17,39,-24,-25,50
0,1693677834846561600,-0.112527482,2.41335535,10.21725559,0.053425729,-0.02691271,0.037704438,9,33,-29,-16,53
1,1693677834847561600,-0.111330383,2.412158251,10.22683239,0.053425729,-0.027045943,0.037704438,18,36,-25,-23,51
2,1693677834848561600,-0.112527482,2.41574955,10.22922707,0.053558957,-0.027045943,0.037437979,6,30,-24,-26,54
3,1693677834849561600,-0.112527482,2.41574955,10.22802925,0.053558957,-0.027179174,0.03757121,21,37,-19,-18,50
4,1693677834850561600,-0.114921682,2.41335535,10.22324085,0.053558957,-0.027312404,0.03757121,20,40,-22,-15,55
0,1693677834911820600,-0.110133275,2.408566952,10.22084713,0.053825419,-0.02691271,0.038104136,20,47,-24,-24,51
1,1693677834912820600,-0.111330383,2.412158251,10.21965027,0.053825419,-0.026779478,0.038104136,10,27,-33,-27,46
2,1693677834913820600,-0.110133275,2.41574955,10.21725559,0.053825419,-0.02691271,0.038104136,17,37,-29,-16,54
3,1693677834914820600,-0.113724582,2.41455245,10.21366405,0.053825419,-0.02691271,0.038237367,16,44,-21,-20,52
4,1693677834915820600,-0.118512981,2.412158251,10.21127033,0.053825419,-0.027045943,0.038104136,14,44,-22,-18,55
0,1693677834993038900,-0.118512981,2.412158251,10.22204399,0.053825419,-0.027445635,0.038237367,18,34,-21,-26,53
1,1693677834994038900,-0.119710088,2.412158251,10.21965027,0.053958651,-0.027312404,0.038237367,19,34,-28,-23,53
2,1693677834995038900,-0.114921682,2.41455245,10.21965027,0.053825419,-0.027045943,0.038237367,15,41,-23,-27,53
3,1693677834996038900,-0.116118781,2.41335535,10.21845245,0.053825419,-0.02691271,0.038237367,17,47,-21,-16,55
4,1693677834997038900,-0.114921682,2.41574955,10.22324085,0.053958651,-0.027045943,0.038237367,23,41,-21,-23,53
0,1693677835053059700,-0.119710088,2.41574955,10.21845245,0.053825419,-0.027179174,0.038104136,17,33,1,-27,54
1,1693677835054059700,-0.123301387,2.41694665,10.21965027,0.053825419,-0.027045943,0.037970904,15,48,-24,-29,55
2,1693677835055059700,-0.122104287,2.41455245,10.21845245,0.053825419,-0.027045943,0.037837673,18,43,-19,-23,53
3,1693677835056059700,-0.120907187,2.41574955,10.21246719,0.053692192,-0.027045943,0.037970904,18,45,-15,-20,50
4,1693677835057059700,-0.120907187,2.41455245,10.21605873,0.053692192,-0.02691271,0.037837673,20,33,-29,-22,55
0,1693677835111536000,-0.112527482,2.408566952,10.22683239,0.053692192,-0.02691271,0.037837673,14,32,-25,-21,51
1,1693677835112536000,-0.114921682,2.409764051,10.22443867,0.053825419,-0.02691271,0.037837673,19,46,-19,-23,53
2,1693677835113536000,-0.113724582,2.408566952,10.22204399,0.053692192,-0.027179174,0.037970904,23,36,-24,-27,54
3,1693677835114536000,-0.111330383,2.406172752,10.21845245,0.053692192,-0.027045943,0.037970904,23,36,-21,-24,52
4,1693677835115536000,-0.114921682,2.407369852,10.21366405,0.053692192,-0.026779478,0.037970904,21,34,-25,-22,54
0,1693677835192105500,-0.119710088,2.41455245,10.22084713,0.053558957,-0.02691271,0.038237367,19,36,-19,-24,55
1,1693677835193105500,-0.120907187,2.412158251,10.22443867,0.053558957,-0.026779478,0.038370594,21,41,-22,-22,53
2,1693677835194105500,-0.123301387,2.412158251,10.22084713,0.053825419,-0.026379786,0.038237367,20,39,-23,-26,54
3,1693677835195105500,-0.124498487,2.412158251,10.21845245,0.053692192,-0.026513018,0.038237367,19,34,-21,-18,53
4,1693677835196105500,-0.122104287,2.408566952,10.22084713,0.053558957,-0.026779478,0.038370594,18,47,-20,-24,55
0,1693677835253985400,-0.108936176,2.409764051,10.20648193,0.053958651,-0.026779478,0.038104136,21,43,-21,-16,55
1,1693677835254985400,-0.106541976,2.406172752,10.20648193,0.054091886,-0.026779478,0.037970904,20,40,-13,-24,55
2,1693677835255985400,-0.107739076,2.407369852,10.21127033,0.054225113,-0.02691271,0.038104136,20,44,-21,-22,55
3,1693677835256985400,-0.106541976,2.408566952,10.21366405,0.054091886,-0.027045943,0.038237367,21,30,-23,-22,50
4,1693677835257985400,-0.107739076,2.409764051,10.21486187,0.054225113,-0.02691271,0.038104136,15,33,-21,-24,52
0,1693677835314513000,-0.114921682,2.409764051,10.21605873,0.053958651,-0.026646247,0.037970904,10,37,-21,-18,53
1,1693677835315513000,-0.114921682,2.412158251,10.21486187,0.053958651,-0.026646247,0.037970904,23,41,-15,-16,54
2,1693677835316513000,-0.113724582,2.409764051,10.21366405,0.053958651,-0.026779478,0.038104136,19,44,-28,-22,55
3,1693677835317513000,-0.110133275,2.41335535,10.21605873,0.053958651,-0.02691271,0.038237367,18,35,-20,-25,54
4,1693677835318513000,-0.111330383,2.41574955,10.21605873,0.053958651,-0.02691271,0.038104136,17,39,-25,-26,49
0,1693677835398478300,-0.112527482,2.412158251,10.21486187,0.053692192,-0.02691271,0.037837673,20,39,-18,-20,65
1,1693677835399478300,-0.111330383,2.410961151,10.21845245,0.053692192,-0.02691271,0.037837673,20,39,-20,-18,55
2,1693677835400478300,-0.110133275,2.409764051,10.22204399,0.053692192,-0.027045943,0.037704438,17,45,-21,-24,55
3,1693677835401478300,-0.111330383,2.409764051,10.22084713,0.053958651,-0.027045943,0.037837673,20,37,-24,-28,48
4,1693677835402478300,-0.113724582,2.410961151,10.22084713,0.053958651,-0.02691271,0.037970904,14,43,-23,-24,55
0,1693677835460852000,-0.106541976,2.410961151,10.21965027,0.053558957,-0.027312404,0.038370594,17,40,-19,-19,55
1,1693677835461852000,-0.105344877,2.409764051,10.22084713,0.053558957,-0.027312404,0.038237367,20,32,-30,-20,53
2,1693677835462852000,-0.105344877,2.410961151,10.22443867,0.053558957,-0.027445635,0.038104136,17,45,-19,-20,55
3,1693677835463852000,-0.105344877,2.410961151,10.22324085,0.053558957,-0.027578866,0.038237367,19,41,-20,-22,52
4,1693677835464852000,-0.107739076,2.41335535,10.22324085,0.053692192,-0.027445635,0.038237367,16,34,-23,-22,55
0,1693677835522376900,-0.117315881,2.407369852,10.22683239,0.053825419,-0.02691271,0.038637057,15,35,-20,-22,52
1,1693677835523376900,-0.119710088,2.409764051,10.22204399,0.053825419,-0.02691271,0.038503829,14,39,-27,-21,49
2,1693677835524376900,-0.123301387,2.409764051,10.21965027,0.053692192,-0.026779478,0.038370594,19,32,-20,-28,48
3,1693677835525376900,-0.120907187,2.408566952,10.22204399,0.053692192,-0.026779478,0.038237367,7,36,-27,-23,48
4,1693677835526376900,-0.119710088,2.408566952,10.21486187,0.053825419,-0.02691271,0.038237367,21,47,-24,-22,50
0,1693677835582304300,-0.116118781,2.404975653,10.22683239,0.053825419,-0.026779478,0.037970904,20,30,-17,-20,53
1,1693677835583304300,-0.117315881,2.408566952,10.22802925,0.053558957,-0.02691271,0.037837673,20,37,-23,-20,49
2,1693677835584304300,-0.114921682,2.408566952,10.22443867,0.053425729,-0.02691271,0.037970904,19,31,-25,-24,24
3,1693677835585304300,-0.117315881,2.407369852,10.22324085,0.053558957,-0.02691271,0.037837673,10,41,-29,-20,53
4,1693677835586304300,-0.116118781,2.408566952,10.22204399,0.053558957,-0.026779478,0.037837673,19,43,-19,-21,55
0,1693677835671702800,-0.125695586,2.409764051,10.21845245,0.053692192,-0.02691271,0.037837673,19,37,-28,-20,52
1,1693677835672702800,-0.123301387,2.408566952,10.21605873,0.053692192,-0.02691271,0.037837673,15,36,-33,-22,49
2,1693677835673702800,-0.118512981,2.409764051,10.21366405,0.053692192,-0.02691271,0.037837673,14,36,-25,-24,50
3,1693677835674702800,-0.118512981,2.407369852,10.21845245,0.053825419,-0.026779478,0.037837673,21,43,-19,-22,54
4,1693677835675702800,-0.116118781,2.409764051,10.22443867,0.054091886,-0.026646247,0.037970904,23,44,-20,-22,54
0,1693677835730673000,-0.114921682,2.408566952,10.21366405,0.054491576,-0.026779478,0.038104136,20,39,-33,-22,52
1,1693677835731673000,-0.116118781,2.408566952,10.21127033,0.054225113,-0.027045943,0.038104136,15,33,-23,-23,54
2,1693677835732673000,-0.113724582,2.403778553,10.21486187,0.053958651,-0.027045943,0.038237367,23,46,-27,-20,48
3,1693677835733673000,-0.112527482,2.403778553,10.21246719,0.053958651,-0.027179174,0.038370594,21,44,-15,-16,55
4,1693677835734673000,-0.112527482,2.407369852,10.21246719,0.054358348,-0.027312404,0.038370594,20,37,-23,-17,54
0,1693677835798500600,-0.111330383,2.418143749,10.22563553,0.054225113,-0.028378254,0.038637057,15,37,-22,-20,52
1,1693677835799500600,-0.108936176,2.419340849,10.22204399,0.054091886,-0.028111791,0.038370594,16,35,-23,-20,55
2,1693677835800500600,-0.110133275,2.418143749,10.22204399,0.054091886,-0.027712099,0.038237367,14,35,-24,-22,53
3,1693677835801500600,-0.111330383,2.420537949,10.22084713,0.054091886,-0.027445635,0.037970904,18,43,-22,-20,55
4,1693677835802500600,-0.112527482,2.421735048,10.21486187,0.053958651,-0.027179174,0.037837673,17,35,-22,-27,52
0,1693677835859946500,-0.113724582,2.403778553,10.21486187,0.053692192,-0.027179174,0.037970904,13,45,-22,-16,55
1,1693677835860946500,-0.110133275,2.406172752,10.21725559,0.053825419,-0.027845331,0.038104136,20,40,-20,-22,53
2,1693677835861946500,-0.107739076,2.407369852,10.21725559,0.054225113,-0.028245023,0.038237367,20,39,-23,-22,55
3,1693677835862946500,-0.108936176,2.410961151,10.21605873,0.054358348,-0.028511487,0.038370594,20,44,-20,-18,52
4,1693677835863946500,-0.113724582,2.41455245,10.21366405,0.054225113,-0.028511487,0.038237367,17,41,-20,-20,54
0,1693677835938257600,-0.116118781,2.41694665,10.22563553,0.053425729,-0.026646247,0.037837673,21,47,-25,-20,54
1,1693677835939257600,-0.120907187,2.41455245,10.22443867,0.053425729,-0.026513018,0.037970904,23,44,-17,-16,57
2,1693677835940257600,-0.120907187,2.41574955,10.22324085,0.053425729,-0.02691271,0.037970904,18,36,-21,-22,51
3,1693677835941257600,-0.118512981,2.41574955,10.22324085,0.053692192,-0.027179174,0.038104136,19,39,-21,-23,53
4,1693677835942257600,-0.119710088,2.418143749,10.23042393,0.053692192,-0.027578866,0.038370594,14,30,-23,-26,52
0,1693677836007469000,-0.112527482,2.418143749,10.21845245,0.053825419,-0.027312404,0.038370594,14,35,-23,-26,54
1,1693677836008469000,-0.117315881,2.41335535,10.21486187,0.053558957,-0.026646247,0.038237367,21,46,-19,-20,55
2,1693677836009469000,-0.119710088,2.409764051,10.21366405,0.053558957,-0.026379786,0.038104136,15,40,-23,-24,54
3,1693677836010469000,-0.122104287,2.409764051,10.21366405,0.053692192,-0.026379786,0.038237367,21,46,-21,-22,53
4,1693677836011469000,-0.120907187,2.410961151,10.21127033,0.053558957,-0.026379786,0.038104136,15,41,-26,-22,48
0,1693677836079506100,-0.122104287,2.41455245,10.23162079,0.054091886,-0.027845331,0.037970904,21,40,-20,-25,54
1,1693677836080506100,-0.118512981,2.41335535,10.23162079,0.053958651,-0.027845331,0.037970904,17,46,-20,-20,55
2,1693677836081506100,-0.116118781,2.41335535,10.23042393,0.053958651,-0.027712099,0.037970904,17,37,-25,-23,52
3,1693677836082506100,-0.114921682,2.41455245,10.22443867,0.054091886,-0.027445635,0.037837673,20,40,-25,-28,52
4,1693677836083506100,-0.116118781,2.41335535,10.22084713,0.053958651,-0.027312404,0.037970904,15,43,-20,-20,54
0,1693677836131874800,-0.124498487,2.420537949,10.21605873,0.053825419,-0.027045943,0.037970904,22,37,-19,-24,56
1,1693677836132874800,-0.126892686,2.421735048,10.21007347,0.053692192,-0.02691271,0.037837673,19,36,-21,-22,55
2,1693677836133874800,-0.126892686,2.420537949,10.21366405,0.053692192,-0.02691271,0.037837673,14,36,-19,-23,50
3,1693677836134874800,-0.125695586,2.420537949,10.21127033,0.053825419,-0.026779478,0.037837673,10,39,-23,-21,53
4,1693677836135874800,-0.124498487,2.419340849,10.21605873,0.053825419,-0.026779478,0.037704438,20,47,-21,-22,55
0,1693677836200376800,-0.117315881,2.41574955,10.21605873,0.053958651,-0.027312404,0.037837673,9,36,-25,-20,55
1,1693677836201376800,-0.118512981,2.419340849,10.21725559,0.054091886,-0.027312404,0.037704438,14,30,-23,-24,53
2,1693677836202376800,-0.116118781,2.418143749,10.21366405,0.054358348,-0.027179174,0.037837673,19,31,-21,-26,49
3,1693677836203376800,-0.117315881,2.41694665,10.21127033,0.054225113,-0.02691271,0.037704438,20,32,-24,-15,54
4,1693677836204376800,-0.119710088,2.41574955,10.21127033,0.053958651,-0.02691271,0.037704438,21,35,-22,-18,55
0,1693677836264497800,-0.116118781,2.408566952,10.22563553,0.053958651,-0.026779478,0.037837673,21,32,-23,-24,52
1,1693677836265497800,-0.112527482,2.407369852,10.22563553,0.053825419,-0.02691271,0.037837673,18,30,-21,-24,54
2,1693677836266497800,-0.110133275,2.404975653,10.22802925,0.054091886,-0.027045943,0.037837673,16,30,-27,-24,53
3,1693677836267497800,-0.113724582,2.402581453,10.23281765,0.053958651,-0.027179174,0.037704438,15,39,-20,-22,53
4,1693677836268497800,-0.114921682,2.401384354,10.22443867,0.053825419,-0.027179174,0.037704438,23,44,-21,-18,55
0,1693677836352981300,-0.119710088,2.412158251,10.23281765,0.054091886,-0.02691271,0.038370594,19,39,-21,-24,53
1,1693677836353981300,-0.123301387,2.41455245,10.23042393,0.054091886,-0.02691271,0.038503829,13,40,-26,-26,52
2,1693677836354981300,-0.124498487,2.41455245,10.23042393,0.053958651,-0.02691271,0.038370594,17,45,-19,-29,54
3,1693677836355981300,-0.128089786,2.41574955,10.23401546,0.053825419,-0.02691271,0.038370594,17,40,-23,-20,53
4,1693677836356981300,-0.128089786,2.418143749,10.22922707,0.053958651,-0.027179174,0.038104136,19,37,-20,-22,55
0,1693677836410952300,-0.125695586,2.410961151,10.22084713,0.053558957,-0.027045943,0.037837673,20,33,-20,-23,52
1,1693677836411952300,-0.124498487,2.409764051,10.22324085,0.053558957,-0.027179174,0.037837673,20,32,-20,-24,50
2,1693677836412952300,-0.124498487,2.410961151,10.22324085,0.053692192,-0.027045943,0.037970904,13,39,-23,-28,51
3,1693677836413952300,-0.124498487,2.41455245,10.22683239,0.053692192,-0.027179174,0.038104136,17,37,-22,-22,54
4,1693677836414952300,-0.123301387,2.41335535,10.23042393,0.053425729,-0.026779478,0.038104136,20,35,-17,-17,55
0,1693677836471074000,-0.118512981,2.41694665,10.23162079,0.053026035,-0.026513018,0.037837673,11,34,-24,-24,52
1,1693677836472074000,-0.116118781,2.41574955,10.22563553,0.053159267,-0.026513018,0.037970904,20,44,-21,-22,54
2,1693677836473074000,-0.116118781,2.41574955,10.22084713,0.053425729,-0.026646247,0.038104136,17,36,-23,-20,45
3,1693677836474074000,-0.114921682,2.41455245,10.21725559,0.053292494,-0.026513018,0.038237367,20,46,-23,-19,55
4,1693677836475074000,-0.116118781,2.41574955,10.21965027,0.053292494,-0.026646247,0.038104136,20,37,-21,-23,50
0,1693677836571477600,-0.117315881,2.421735048,10.21965027,0.053825419,-0.026646247,0.037970904,18,35,-20,-18,54
1,1693677836572477600,-0.117315881,2.421735048,10.22204399,0.053958651,-0.02691271,0.037970904,21,44,-23,-22,52
2,1693677836573477600,-0.118512981,2.421735048,10.21965027,0.053958651,-0.02691271,0.037837673,17,41,-20,-27,55
3,1693677836574477600,-0.117315881,2.422932148,10.22084713,0.053958651,-0.026779478,0.037704438,20,37,-23,-23,52
4,1693677836575477600,-0.118512981,2.419340849,10.22443867,0.053958651,-0.02691271,0.037837673,19,35,-20,-20,55
0,1693677836622474400,-0.116118781,2.409764051,10.21246719,0.054091886,-0.026779478,0.037970904,19,41,-20,-19,52
1,1693677836623474400,-0.114921682,2.409764051,10.21127033,0.054091886,-0.026646247,0.037970904,18,35,-25,-19,55
2,1693677836624474400,-0.117315881,2.410961151,10.21246719,0.054091886,-0.026646247,0.037970904,21,47,-20,-22,55
3,1693677836625474400,-0.117315881,2.408566952,10.20887566,0.054091886,-0.026646247,0.037970904,17,42,-23,-18,53
4,1693677836626474400,-0.119710088,2.410961151,10.20528507,0.054225113,-0.026646247,0.037837673,17,36,-23,-27,48
0,1693677836705426100,-0.112527482,2.41694665,10.21486187,0.053558957,-0.026513018,0.037704438,20,35,-18,-20,54
1,1693677836706426100,-0.110133275,2.418143749,10.21486187,0.053425729,-0.026513018,0.037704438,23,46,-17,-16,56
2,1693677836707426100,-0.108936176,2.41694665,10.21725559,0.053425729,-0.026379786,0.037704438,20,38,-17,-26,53
3,1693677836708426100,-0.108936176,2.418143749,10.22443867,0.053425729,-0.026513018,0.037837673,20,40,-27,-18,52
4,1693677836709426100,-0.107739076,2.420537949,10.22683239,0.053558957,-0.026513018,0.037837673,17,36,-27,-20,54
0,1693677836768392700,-0.113724582,2.41574955,10.21845245,0.053692192,-0.027045943,0.037704438,18,42,-32,-19,53
1,1693677836769392700,-0.113724582,2.41574955,10.21605873,0.053692192,-0.02691271,0.037837673,13,35,-21,-16,55
2,1693677836770392700,-0.113724582,2.41335535,10.21725559,0.053825419,-0.026779478,0.037837673,23,44,-25,-19,55
3,1693677836771392700,-0.113724582,2.41335535,10.21725559,0.053692192,-0.027045943,0.038104136,19,41,-24,-18,55
4,1693677836772392700,-0.112527482,2.41335535,10.22204399,0.053692192,-0.027045943,0.038104136,15,30,-23,-22,54
0,1693677836825955500,-0.110133275,2.412158251,10.21965027,0.053825419,-0.027045943,0.038370594,20,41,-12,-22,55
1,1693677836826955500,-0.108936176,2.41335535,10.21965027,0.053825419,-0.027045943,0.038503829,20,39,-20,-18,53
2,1693677836827955500,-0.107739076,2.412158251,10.22443867,0.053692192,-0.027179174,0.038370594,20,43,-16,-20,51
3,1693677836828955500,-0.105344877,2.41455245,10.22683239,0.053825419,-0.027045943,0.038370594,15,44,-28,-22,45
4,1693677836829955500,-0.105344877,2.41574955,10.22443867,0.053692192,-0.027179174,0.038370594,17,37,-20,-16,50
0,1693677836880417600,-0.114921682,2.41455245,10.22563553,0.053958651,-0.02691271,0.038237367,20,36,-23,-22,68
1,1693677836881417600,-0.113724582,2.412158251,10.22443867,0.053825419,-0.026779478,0.038237367,21,41,-19,-15,55
2,1693677836882417600,-0.113724582,2.41455245,10.22324085,0.053825419,-0.026779478,0.038237367,19,43,-17,-19,60
3,1693677836883417600,-0.112527482,2.41694665,10.22683239,0.053825419,-0.026779478,0.038237367,18,41,-24,-24,52
4,1693677836884417600,-0.113724582,2.418143749,10.22084713,0.053958651,-0.02691271,0.038104136,20,47,-23,-18,53
0,1693677836959458200,-0.117315881,2.420537949,10.23401546,0.053825419,-0.027179174,0.037970904,14,45,-21,-20,54
1,1693677836960458200,-0.118512981,2.41574955,10.23640919,0.053692192,-0.027179174,0.037837673,18,46,-23,-19,55
2,1693677836961458200,-0.120907187,2.418143749,10.23162079,0.053692192,-0.027179174,0.037837673,17,32,-28,-23,48
3,1693677836962458200,-0.120907187,2.418143749,10.22683239,0.053692192,-0.02691271,0.037837673,18,44,-19,-29,55
4,1693677836963458200,-0.119710088,2.418143749,10.22443867,0.053958651,-0.026779478,0.037837673,20,37,-23,-24,54
0,1693677837049978700,-0.113724582,2.403778553,10.21965027,0.053692192,-0.026513018,0.037437979,17,40,-20,-24,52
1,1693677837050978700,-0.111330383,2.406172752,10.21845245,0.053558957,-0.026379786,0.037437979,18,33,-22,-23,52
2,1693677837051978700,-0.106541976,2.403778553,10.21845245,0.053425729,-0.026646247,0.037304748,20,39,-20,-24,52
3,1693677837052978700,-0.108936176,2.401384354,10.21845245,0.053425729,-0.026646247,0.037171517,13,42,-19,-18,54
4,1693677837053978700,-0.111330383,2.407369852,10.21965027,0.053425729,-0.026646247,0.037038282,22,44,-19,-21,55
0,1693677837133930900,-0.108936176,2.41455245,10.24239445,0.053692192,-0.027045943,0.037970904,19,33,-19,-17,54
1,1693677837134930900,-0.113724582,2.41455245,10.24239445,0.053692192,-0.027179174,0.037704438,20,41,-24,-21,54
2,1693677837135930900,-0.117315881,2.41455245,10.23880386,0.053558957,-0.027179174,0.037837673,18,41,-21,-18,55
3,1693677837136930900,-0.116118781,2.412158251,10.23880386,0.053558957,-0.027045943,0.037837673,20,41,-12,-20,55
4,1693677837137930900,-0.118512981,2.412158251,10.23521233,0.053692192,-0.027045943,0.037837673,20,39,-20,-19,55
0,1693677837194897300,-0.122104287,2.410961151,10.22443867,0.053425729,-0.026779478,0.037970904,20,30,-24,-24,51
1,1693677837195897300,-0.123301387,2.410961151,10.22443867,0.053558957,-0.02691271,0.037970904,20,40,-19,-19,54
2,1693677837196897300,-0.123301387,2.410961151,10.22204399,0.053425729,-0.02691271,0.037704438,20,37,-21,-19,55
3,1693677837197897300,-0.119710088,2.408566952,10.22084713,0.053159267,-0.02691271,0.037837673,22,49,-18,-16,55
4,1693677837198897300,-0.116118781,2.407369852,10.22563553,0.053292494,-0.02691271,0.037837673,20,39,-17,-18,55
0,1693677837245867000,-0.116118781,2.407369852,10.22802925,0.053425729,-0.02691271,0.037970904,14,45,-29,-23,52
1,1693677837246867000,-0.113724582,2.408566952,10.23281765,0.053425729,-0.027045943,0.038104136,19,35,-19,-19,54
2,1693677837247867000,-0.113724582,2.407369852,10.22922707,0.053692192,-0.027045943,0.037837673,23,46,-23,-22,55
3,1693677837248867000,-0.116118781,2.407369852,10.23401546,0.053825419,-0.027045943,0.037837673,17,42,-21,-17,52
4,1693677837249867000,-0.110133275,2.404975653,10.23401546,0.053958651,-0.027045943,0.037704438,20,30,-22,-21,55
0,1693677837298513600,-0.118512981,2.41455245,10.22563553,0.053692192,-0.027179174,0.038237367,14,46,-23,-18,53
1,1693677837299513600,-0.114921682,2.41335535,10.22802925,0.053692192,-0.027312404,0.038237367,20,43,-20,-15,55
2,1693677837300513600,-0.116118781,2.41455245,10.23162079,0.053558957,-0.027312404,0.038237367,26,46,-16,-14,56
3,1693677837301513600,-0.118512981,2.41335535,10.23162079,0.053558957,-0.027179174,0.038237367,20,39,-21,-19,55
4,1693677837302513600,-0.117315881,2.41574955,10.23401546,0.053425729,-0.027179174,0.038237367,17,36,-21,-22,55
0,1693677837406901200,-0.116118781,2.41455245,10.23042393,0.053558957,-0.027045943,0.038370594,20,41,-28,-25,54
1,1693677837407901200,-0.116118781,2.418143749,10.22683239,0.053558957,-0.027045943,0.038370594,16,43,-19,-20,54
2,1693677837408901200,-0.117315881,2.418143749,10.22802925,0.053425729,-0.02691271,0.038237367,19,41,-20,-16,54
3,1693677837409901200,-0.116118781,2.41574955,10.22922707,0.053425729,-0.02691271,0.037970904,20,39,-25,-26,53
4,1693677837410901200,-0.113724582,2.41694665,10.22563553,0.053558957,-0.027045943,0.037970904,20,45,-16,-28,55
0,1693677837445161100,-0.113724582,2.412158251,10.22204399,0.053825419,-0.026646247,0.037704438,17,36,-19,-23,54
1,1693677837446161100,-0.112527482,2.41335535,10.21965027,0.053692192,-0.026646247,0.037837673,17,40,-23,-22,55
2,1693677837447161100,-0.112527482,2.41335535,10.21605873,0.053692192,-0.026646247,0.037970904,10,39,-19,-18,44
3,1693677837448161100,-0.111330383,2.41455245,10.21246719,0.053692192,-0.026646247,0.038104136,20,39,-25,-15,53
4,1693677837449161100,-0.111330383,2.41455245,10.21486187,0.053692192,-0.026646247,0.038104136,18,37,-28,-24,46
0,1693677837504516900,-0.116118781,2.418143749,10.22084713,0.053958651,-0.026779478,0.037837673,10,41,-21,-20,52
1,1693677837505516900,-0.116118781,2.41694665,10.22084713,0.053958651,-0.027045943,0.037837673,19,35,-29,-22,60
2,1693677837506516900,-0.113724582,2.419340849,10.22443867,0.053958651,-0.02691271,0.038237367,15,41,-21,-22,84
3,1693677837507516900,-0.116118781,2.419340849,10.22204399,0.053958651,-0.027045943,0.037970904,11,40,-25,-28,45
4,1693677837508516900,-0.113724582,2.418143749,10.22443867,0.053958651,-0.027045943,0.037970904,18,40,-23,-24,48
0,1693677837607909100,-0.110133275,2.418143749,10.23042393,0.053958651,-0.027045943,0.038104136,20,49,-19,-17,55
1,1693677837608909100,-0.110133275,2.41694665,10.22922707,0.053958651,-0.027045943,0.038104136,13,39,-20,-16,52
2,1693677837609909100,-0.108936176,2.41574955,10.22802925,0.054091886,-0.027045943,0.038237367,17,30,-21,-24,52
3,1693677837610909100,-0.110133275,2.41455245,10.22922707,0.054091886,-0.027045943,0.038104136,21,45,-21,-22,55
4,1693677837611909100,-0.113724582,2.41455245,10.22802925,0.054225113,-0.027045943,0.037970904,20,36,-19,-22,52
0,1693677837646539700,-0.122104287,2.41455245,10.22324085,0.053825419,-0.02691271,0.037704438,18,42,-16,-18,53
1,1693677837647539700,-0.123301387,2.41455245,10.22563553,0.053825419,-0.026779478,0.03757121,20,39,-23,-18,55
2,1693677837648539700,-0.120907187,2.412158251,10.22563553,0.053958651,-0.026779478,0.037837673,15,30,-31,-31,48
3,1693677837649539700,-0.119710088,2.408566952,10.22922707,0.054091886,-0.026646247,0.037837673,18,30,-18,-18,55
4,1693677837650539700,-0.117315881,2.404975653,10.22922707,0.054091886,-0.026779478,0.037704438,20,39,-19,-16,55
0,1693677837709969000,-0.112527482,2.412158251,10.21007347,0.053558957,-0.027045943,0.037970904,22,43,-23,-20,52
1,1693677837710969000,-0.107739076,2.41335535,10.21127033,0.053558957,-0.027045943,0.037837673,15,43,-19,-24,52
2,1693677837711969000,-0.104147777,2.41335535,10.21127033,0.053558957,-0.027179174,0.037837673,25,37,-21,-20,55
3,1693677837712969000,-0.10175357,2.41574955,10.21127033,0.053425729,-0.027045943,0.037837673,20,41,-23,-26,48
4,1693677837713969000,-0.106541976,2.418143749,10.21007347,0.053292494,-0.02691271,0.037837673,24,40,-23,-18,56
0,1693677837775994000,-0.114921682,2.419340849,10.21246719,0.053692192,-0.027179174,0.038104136,22,39,-27,-27,55
1,1693677837776994000,-0.116118781,2.426523447,10.21366405,0.053692192,-0.027179174,0.038104136,20,42,-24,-19,53
2,1693677837777994000,-0.112527482,2.427720547,10.21486187,0.053692192,-0.027312404,0.038104136,17,35,-20,-18,53
3,1693677837778994000,-0.112527482,2.426523447,10.21845245,0.053692192,-0.027045943,0.037970904,20,46,-19,-17,54
4,1693677837779994000,-0.113724582,2.426523447,10.21725559,0.053692192,-0.027312404,0.037970904,20,46,-15,-16,55
0,1693677837864488200,-0.123301387,2.422932148,10.21845245,0.053558957,-0.027578866,0.037837673,15,44,-17,-20,51
1,1693677837865488200,-0.123301387,2.420537949,10.22324085,0.053692192,-0.027712099,0.037837673,20,45,-21,-16,54
2,1693677837866488200,-0.122104287,2.424129248,10.22802925,0.053692192,-0.027712099,0.037970904,20,41,-20,-22,54
3,1693677837867488200,-0.122104287,2.424129248,10.22922707,0.053825419,-0.02797856,0.037837673,22,37,-16,-18,55
4,1693677837868488200,-0.123301387,2.425326347,10.23401546,0.053958651,-0.02797856,0.037837673,13,39,-18,-25,53
0,1693677837923503100,-0.112527482,2.427720547,10.23162079,0.053558957,-0.027179174,0.037970904,15,37,-21,-21,52
1,1693677837924503100,-0.113724582,2.425326347,10.23162079,0.053558957,-0.027312404,0.037837673,13,39,-18,-19,55
2,1693677837925503100,-0.114921682,2.424129248,10.22683239,0.053425729,-0.027445635,0.037837673,17,41,-17,-20,54
3,1693677837926503100,-0.116118781,2.422932148,10.22443867,0.053425729,-0.027312404,0.037970904,18,39,-24,-18,48
4,1693677837927503100,-0.117315881,2.421735048,10.22324085,0.053558957,-0.027179174,0.037704438,11,46,-17,-18,52
0,1693677837985519400,-0.119710088,2.402581453,10.22443867,0.053825419,-0.02691271,0.037837673,31,40,-17,-24,55
1,1693677837986519400,-0.117315881,2.402581453,10.22922707,0.053692192,-0.026779478,0.037837673,20,46,-20,-22,55
2,1693677837987519400,-0.118512981,2.404975653,10.23042393,0.053825419,-0.026779478,0.037837673,20,37,-17,-20,61
3,1693677837988519400,-0.119710088,2.407369852,10.23162079,0.053692192,-0.026646247,0.037970904,20,30,-17,-18,53
4,1693677837989519400,-0.119710088,2.409764051,10.23281765,0.053692192,-0.026779478,0.037970904,21,37,-27,-26,54
0,1693677838044849000,-0.117315881,2.406172752,10.21965027,0.054225113,-0.02691271,0.037837673,20,41,-21,-20,55
1,1693677838045849000,-0.122104287,2.404975653,10.22204399,0.054225113,-0.02691271,0.037704438,18,31,-21,-19,60
2,1693677838046849000,-0.124498487,2.406172752,10.22204399,0.054091886,-0.026779478,0.037837673,17,41,-12,-16,55
3,1693677838047849000,-0.125695586,2.407369852,10.22563553,0.054091886,-0.026513018,0.037970904,18,42,-27,-19,55
4,1693677838048849000,-0.125695586,2.410961151,10.22802925,0.054091886,-0.026646247,0.037837673,17,33,-25,-33,50
0,1693677838126347400,-0.108936176,2.410961151,10.22802925,0.053425729,-0.026779478,0.037970904,19,41,-20,-16,55
1,1693677838127347400,-0.106541976,2.412158251,10.23162079,0.053425729,-0.02691271,0.038237367,22,44,-17,-21,56
2,1693677838128347400,-0.105344877,2.412158251,10.22563553,0.053692192,-0.027045943,0.038104136,20,45,-24,-19,55
3,1693677838129347400,-0.10175357,2.41574955,10.22563553,0.053558957,-0.027045943,0.037970904,19,43,-16,-22,52
4,1693677838130347400,-0.106541976,2.418143749,10.22563553,0.053558957,-0.027312404,0.037970904,15,41,-24,-20,55
0,1693677838198473900,-0.113724582,2.422932148,10.22922707,0.053958651,-0.027179174,0.038104136,19,43,-25,-20,55
1,1693677838199473900,-0.112527482,2.424129248,10.23162079,0.053825419,-0.027312404,0.038237367,15,29,-20,-12,55
2,1693677838200473900,-0.112527482,2.424129248,10.23521233,0.053958651,-0.027179174,0.038237367,15,43,-19,-19,54
3,1693677838201473900,-0.111330383,2.424129248,10.23880386,0.053958651,-0.027179174,0.038237367,13,42,-23,-24,53
4,1693677838202473900,-0.112527482,2.422932148,10.23760605,0.053692192,-0.027045943,0.038237367,20,41,-23,-26,54
0,1693677838253447800,-0.116118781,2.408566952,10.21486187,0.054491576,-0.027445635,0.037837673,20,43,-21,-21,54
1,1693677838254447800,-0.114921682,2.410961151,10.21007347,0.054491576,-0.027445635,0.037704438,18,46,-28,-20,51
2,1693677838255447800,-0.116118781,2.410961151,10.20767879,0.054624807,-0.027312404,0.037704438,9,46,-25,-24,52
3,1693677838256447800,-0.116118781,2.410961151,10.20648193,0.054624807,-0.027445635,0.037837673,17,41,-19,-19,52
4,1693677838257447800,-0.116118781,2.410961151,10.21127033,0.054491576,-0.027445635,0.037970904,21,37,-15,-18,54
0,1693677838344022300,-0.119710088,2.412158251,10.21605873,0.053825419,-0.027179174,0.037970904,20,36,-19,-18,55
1,1693677838345022300,-0.124498487,2.412158251,10.21366405,0.053825419,-0.027179174,0.038237367,20,45,-29,-20,52
2,1693677838346022300,-0.124498487,2.412158251,10.21486187,0.053692192,-0.027179174,0.038104136,13,40,-21,-19,52
3,1693677838347022300,-0.122104287,2.412158251,10.21845245,0.053558957,-0.027045943,0.038104136,22,41,-23,-17,55
4,1693677838348022300,-0.119710088,2.41455245,10.22563553,0.053558957,-0.027045943,0.038237367,18,41,-21,-20,55
0,1693677838404494300,-0.110133275,2.410961151,10.21486187,0.053958651,-0.026779478,0.038104136,18,42,-28,-18,53
1,1693677838405494300,-0.112527482,2.412158251,10.21366405,0.053825419,-0.026779478,0.038237367,20,42,-29,-18,54
2,1693677838406494300,-0.113724582,2.410961151,10.21486187,0.053825419,-0.027045943,0.038104136,17,39,-27,-24,53
3,1693677838407494300,-0.114921682,2.412158251,10.21845245,0.053825419,-0.02691271,0.037970904,18,43,-22,-28,55
4,1693677838408494300,-0.113724582,2.41455245,10.22084713,0.053825419,-0.026779478,0.037970904,20,43,-21,-17,55
0,1693677838463315700,-0.118512981,2.41694665,10.22324085,0.053159267,-0.026513018,0.037837673,18,39,-18,-23,53
1,1693677838464315700,-0.114921682,2.418143749,10.22204399,0.053159267,-0.026646247,0.037837673,6,32,-27,-19,54
2,1693677838465315700,-0.111330383,2.41694665,10.22324085,0.053159267,-0.026646247,0.037970904,20,32,-19,-17,55
3,1693677838466315700,-0.111330383,2.418143749,10.21965027,0.053425729,-0.026513018,0.037837673,20,39,-22,-23,52
4,1693677838467315700,-0.107739076,2.419340849,10.22324085,0.053692192,-0.026513018,0.037970904,20,43,-23,-15,55
0,1693677838539474200,-0.108936176,2.41574955,10.22802925,0.053692192,-0.027179174,0.037970904,20,33,-21,-23,53
1,1693677838540474200,-0.108936176,2.41574955,10.22922707,0.053692192,-0.027312404,0.037837673,20,44,-22,-25,48
2,1693677838541474200,-0.110133275,2.412158251,10.22922707,0.053692192,-0.027312404,0.037970904,17,44,-21,-15,55
3,1693677838542474200,-0.108936176,2.412158251,10.23042393,0.053692192,-0.027179174,0.037970904,23,41,-20,-16,56
4,1693677838543474200,-0.107739076,2.412158251,10.23401546,0.053558957,-0.027179174,0.038104136,20,41,-24,-21,55
0,1693677838605043500,-0.105344877,2.41335535,10.23401546,0.053692192,-0.027179174,0.03757121,13,36,-19,-21,49
1,1693677838606043500,-0.110133275,2.41335535,10.23162079,0.053692192,-0.027045943,0.037704438,23,39,-20,-19,55
2,1693677838607043500,-0.110133275,2.410961151,10.22922707,0.053825419,-0.027045943,0.037837673,21,46,-18,-19,55
3,1693677838608043500,-0.112527482,2.410961151,10.22922707,0.053958651,-0.027045943,0.037970904,18,35,-24,-22,53
4,1693677838609043500,-0.113724582,2.412158251,10.23281765,0.054091886,-0.027179174,0.038104136,20,42,-22,-24,54
0,1693677838661101000,-0.116118781,2.412158251,10.21486187,0.053825419,-0.02691271,0.03757121,20,35,-25,-24,51
1,1693677838662101000,-0.114921682,2.41455245,10.22084713,0.053692192,-0.02691271,0.03757121,17,33,-21,-26,55
2,1693677838663101000,-0.113724582,2.41335535,10.22563553,0.053558957,-0.02691271,0.03757121,20,43,-20,-20,55
3,1693677838664101000,-0.112527482,2.41335535,10.22802925,0.053692192,-0.02691271,0.037704438,20,46,-23,-20,50
4,1693677838665101000,-0.111330383,2.41335535,10.22324085,0.053692192,-0.02691271,0.037704438,20,43,-23,-19,55
0,1693677838737108300,-0.112527482,2.410961151,10.21605873,0.053825419,-0.026646247,0.037837673,19,50,-20,-19,52
1,1693677838738108300,-0.113724582,2.409764051,10.21246719,0.053825419,-0.026779478,0.037837673,19,45,-20,-26,50
2,1693677838739108300,-0.118512981,2.409764051,10.21605873,0.053692192,-0.027045943,0.037704438,17,38,-21,-18,55
3,1693677838740108300,-0.119710088,2.410961151,10.21725559,0.053825419,-0.02691271,0.037837673,19,37,-22,-22,54
4,1693677838741108300,-0.118512981,2.412158251,10.22084713,0.053958651,-0.02691271,0.037837673,20,47,-20,-19,54
0,1693677838808148000,-0.10055647,2.41455245,10.22324085,0.054091886,-0.026779478,0.037837673,20,39,-21,-28,55
1,1693677838809148000,-0.099359371,2.410961151,10.22802925,0.054091886,-0.026779478,0.037837673,19,47,-21,-19,55
2,1693677838810148000,-0.10295067,2.409764051,10.22922707,0.053958651,-0.026646247,0.037837673,19,36,-21,-20,54
3,1693677838811148000,-0.106541976,2.409764051,10.22802925,0.053958651,-0.026646247,0.037970904,18,47,-19,-17,53
4,1693677838812148000,-0.107739076,2.408566952,10.23521233,0.053958651,-0.026779478,0.037837673,18,30,-25,-16,53
0,1693677838860348500,-0.114921682,2.418143749,10.22683239,0.053692192,-0.027312404,0.037970904,21,45,-21,-19,54
1,1693677838861348500,-0.113724582,2.418143749,10.22683239,0.053692192,-0.027179174,0.037837673,14,30,-24,-17,55
2,1693677838862348500,-0.108936176,2.420537949,10.22324085,0.053825419,-0.027045943,0.037837673,17,40,-19,-17,52
3,1693677838863348500,-0.107739076,2.41694665,10.22563553,0.053825419,-0.027045943,0.037970904,19,39,-22,-24,52
4,1693677838864348500,-0.108936176,2.41455245,10.22922707,0.053825419,-0.027045943,0.037704438,18,35,-24,-20,53
0,1693677838940082300,-0.120907187,2.41694665,10.24000072,0.053825419,-0.027179174,0.038503829,22,40,-17,-18,56
1,1693677838941082300,-0.120907187,2.41574955,10.23640919,0.053692192,-0.027045943,0.038237367,19,45,-20,-24,55
2,1693677838942082300,-0.119710088,2.412158251,10.24000072,0.053825419,-0.027045943,0.038370594,11,37,-23,-21,55
3,1693677838943082300,-0.120907187,2.410961151,10.24359226,0.053825419,-0.02691271,0.038370594,23,45,-24,-18,55
4,1693677838944082300,-0.119710088,2.409764051,10.24000072,0.053692192,-0.026646247,0.038237367,15,45,-29,-23,54
0,1693677839005347900,-0.114921682,2.410961151,10.21605873,0.053825419,-0.027179174,0.038370594,20,40,-21,-16,56
1,1693677839006347900,-0.116118781,2.410961151,10.21725559,0.053958651,-0.027179174,0.038370594,15,43,-23,-22,53
2,1693677839007347900,-0.113724582,2.410961151,10.21845245,0.053958651,-0.027179174,0.038370594,20,39,-24,-22,52
3,1693677839008347900,-0.116118781,2.408566952,10.21486187,0.053825419,-0.027312404,0.038370594,20,37,-25,-21,55
4,1693677839009347900,-0.117315881,2.409764051,10.21486187,0.053825419,-0.027312404,0.038370594,15,47,-19,-21,50
0,1693677839064778500,-0.111330383,2.403778553,10.22204399,0.053958651,-0.027045943,0.037837673,20,40,-18,-21,54
1,1693677839065778500,-0.111330383,2.406172752,10.22324085,0.053825419,-0.027312404,0.037704438,17,40,-24,-22,50
2,1693677839066778500,-0.113724582,2.407369852,10.22683239,0.053692192,-0.027445635,0.037837673,20,43,-27,-19,52
3,1693677839067778500,-0.113724582,2.407369852,10.22563553,0.053825419,-0.027712099,0.037704438,14,45,-23,-20,55
4,1693677839068778500,-0.108936176,2.409764051,10.22563553,0.053958651,-0.027578866,0.037970904,20,41,-18,-17,55
0,1693677839146497200,-0.10175357,2.408566952,10.21845245,0.054225113,-0.026513018,0.038237367,21,43,-20,-22,54
1,1693677839147497200,-0.106541976,2.409764051,10.21845245,0.054358348,-0.026379786,0.038104136,14,37,-23,-22,55
2,1693677839148497200,-0.104147777,2.410961151,10.22324085,0.054225113,-0.026513018,0.038104136,20,44,-22,-26,55
3,1693677839149497200,-0.10175357,2.408566952,10.22204399,0.054225113,-0.026779478,0.038104136,20,36,-20,-16,53
4,1693677839150497200,-0.10175357,2.407369852,10.22204399,0.054358348,-0.026779478,0.038370594,21,46,-22,-18,54
0,1693677839206381200,-0.104147777,2.41694665,10.22324085,0.053958651,-0.026646247,0.038370594,22,39,-29,-18,54
1,1693677839207381200,-0.107739076,2.41574955,10.21725559,0.054091886,-0.026379786,0.038370594,18,39,-15,-22,51
2,1693677839208381200,-0.110133275,2.41694665,10.21965027,0.053958651,-0.026513018,0.038370594,19,44,-12,-14,53
3,1693677839209381200,-0.110133275,2.418143749,10.22084713,0.053825419,-0.026513018,0.038370594,20,40,-17,-16,60
4,1693677839210381200,-0.111330383,2.418143749,10.21845245,0.053692192,-0.026379786,0.038237367,21,36,-19,-20,55
0,1693677839289058600,-0.108936176,2.425326347,10.23401546,0.053958651,-0.026113322,0.037837673,15,39,-30,-27,53
1,1693677839290058600,-0.111330383,2.421735048,10.23401546,0.053958651,-0.026246555,0.037837673,15,45,-21,-18,54
2,1693677839291058600,-0.110133275,2.421735048,10.23521233,0.053825419,-0.026246555,0.037970904,20,36,-21,-24,55
3,1693677839292058600,-0.111330383,2.420537949,10.23521233,0.053958651,-0.026246555,0.037970904,21,40,-23,-15,55
4,1693677839293058600,-0.111330383,2.418143749,10.23281765,0.053958651,-0.026379786,0.037837673,13,43,-19,-22,54
0,1693677839349998800,-0.112527482,2.409764051,10.22922707,0.054091886,-0.02691271,0.038104136,19,43,-21,-20,53
1,1693677839350998800,-0.114921682,2.409764051,10.23042393,0.054091886,-0.027045943,0.038104136,15,33,-22,-20,52
2,1693677839351998800,-0.116118781,2.409764051,10.22443867,0.053958651,-0.027045943,0.038104136,25,44,-22,-16,55
3,1693677839352998800,-0.116118781,2.409764051,10.22084713,0.053958651,-0.02691271,0.038104136,19,40,-23,-20,54
4,1693677839353998800,-0.116118781,2.409764051,10.21845245,0.053958651,-0.027179174,0.038237367,18,39,-20,-26,55
0,1693677839413871000,-0.108936176,2.407369852,10.24000072,0.054225113,-0.027312404,0.037837673,20,45,-21,-17,55
1,1693677839414871000,-0.111330383,2.403778553,10.23760605,0.054225113,-0.027312404,0.037704438,16,49,-20,-18,56
2,1693677839415871000,-0.112527482,2.406172752,10.22802925,0.054225113,-0.027312404,0.037837673,19,39,-17,-27,55
3,1693677839416871000,-0.113724582,2.409764051,10.22802925,0.054358348,-0.027179174,0.037837673,19,37,-25,-19,50
4,1693677839417871000,-0.113724582,2.41335535,10.22443867,0.054091886,-0.027045943,0.037970904,19,35,-24,-23,49
0,1693677839488533000,-0.107739076,2.412158251,10.23042393,0.053558957,-0.027045943,0.037837673,18,35,-17,-17,55
1,1693677839489533000,-0.112527482,2.412158251,10.23042393,0.053558957,-0.027312404,0.037837673,22,40,-17,-16,55
2,1693677839490533000,-0.112527482,2.41335535,10.23281765,0.053825419,-0.027179174,0.037837673,17,32,-25,-24,53
3,1693677839491533000,-0.113724582,2.41455245,10.22922707,0.053958651,-0.027312404,0.037970904,15,39,-28,-24,54
4,1693677839492533000,-0.113724582,2.41455245,10.22683239,0.053958651,-0.027179174,0.037970904,18,39,-28,-19,52
0,1693677839550166700,-0.126892686,2.41574955,10.22084713,0.053692192,-0.02691271,0.037970904,20,46,-15,-20,55
1,1693677839551166700,-0.125695586,2.41335535,10.22084713,0.053692192,-0.02691271,0.037837673,15,36,-28,-22,55
2,1693677839552166700,-0.126892686,2.41455245,10.21845245,0.053558957,-0.027045943,0.037837673,25,36,-23,-20,52
3,1693677839553166700,-0.128089786,2.418143749,10.21965027,0.053558957,-0.027179174,0.037970904,14,43,-19,-24,50
4,1693677839554166700,-0.128089786,2.419340849,10.22204399,0.053558957,-0.02691271,0.038104136,22,43,-25,-27,54
0,1693677839613521700,-0.117315881,2.408566952,10.21605873,0.053425729,-0.027045943,0.038237367,20,48,-17,-17,55
1,1693677839614521700,-0.116118781,2.409764051,10.21965027,0.053692192,-0.027179174,0.038370594,18,40,-25,-19,48
2,1693677839615521700,-0.117315881,2.412158251,10.21845245,0.053692192,-0.027179174,0.038370594,17,43,-19,-23,53
3,1693677839616521700,-0.116118781,2.41335535,10.21725559,0.053825419,-0.027179174,0.038503829,9,37,-27,-18,52
4,1693677839617521700,-0.113724582,2.41574955,10.21366405,0.053958651,-0.027179174,0.038503829,18,43,-18,-27,54
0,1693677839695120600,-0.105344877,2.41455245,10.23401546,0.054358348,-0.02691271,0.037970904,21,49,-30,-17,54
1,1693677839696120600,-0.105344877,2.41455245,10.23760605,0.054358348,-0.027045943,0.037970904,20,39,-25,-22,58
2,1693677839697120600,-0.104147777,2.41335535,10.24239445,0.054091886,-0.027045943,0.038104136,17,36,-27,-20,50
3,1693677839698120600,-0.104147777,2.41694665,10.24119759,0.053958651,-0.027045943,0.038104136,20,35,-24,-17,52
4,1693677839699120600,-0.105344877,2.41694665,10.24119759,0.054091886,-0.027179174,0.038237367,13,37,-20,-17,54
0,1693677839754950500,-0.117315881,2.418143749,10.22683239,0.054091886,-0.027045943,0.038237367,17,33,-21,-22,55
1,1693677839755950500,-0.117315881,2.41694665,10.22204399,0.054091886,-0.027179174,0.038370594,19,41,-18,-17,56
2,1693677839756950500,-0.114921682,2.41574955,10.21605873,0.054225113,-0.027045943,0.038237367,15,37,-20,-22,53
3,1693677839757950500,-0.113724582,2.41455245,10.22563553,0.054091886,-0.026779478,0.038104136,23,39,-25,-17,54
4,1693677839758950500,-0.112527482,2.41574955,10.22922707,0.054091886,-0.02691271,0.038370594,20,39,-23,-19,55
0,1693677839852115900,-0.110133275,2.404975653,10.23880386,0.053958651,-0.026779478,0.037970904,20,36,-18,-26,56
1,1693677839853115900,-0.110133275,2.406172752,10.24000072,0.054091886,-0.02691271,0.038104136,20,35,-22,-24,50
2,1693677839854115900,-0.113724582,2.403778553,10.24000072,0.054091886,-0.02691271,0.038104136,19,40,-23,-26,52
3,1693677839855115900,-0.108936176,2.402581453,10.23521233,0.054091886,-0.02691271,0.038104136,20,33,-21,-22,52
4,1693677839856115900,-0.108936176,2.402581453,10.23162079,0.054225113,-0.02691271,0.038104136,20,45,-22,-16,55
0,1693677839892996200,-0.108936176,2.41335535,10.22324085,0.054225113,-0.027312404,0.037837673,17,35,-23,-23,54
1,1693677839893996200,-0.105344877,2.41694665,10.22204399,0.054225113,-0.027312404,0.037704438,19,39,-23,-24,52
2,1693677839894996200,-0.105344877,2.41455245,10.22324085,0.054491576,-0.027312404,0.037704438,20,44,-20,-19,55
3,1693677839895996200,-0.105344877,2.41574955,10.22563553,0.054225113,-0.027445635,0.037704438,19,41,-20,-29,50
4,1693677839896996200,-0.105344877,2.41335535,10.21965027,0.054358348,-0.027445635,0.037704438,19,39,-23,-17,53
0,1693677839986520800,-0.122104287,2.412158251,10.20887566,0.054758042,-0.026646247,0.03757121,22,41,-20,-20,48
1,1693677839987520800,-0.118512981,2.412158251,10.20887566,0.054758042,-0.026646247,0.037704438,18,45,-23,-18,54
2,1693677839988520800,-0.117315881,2.41335535,10.20887566,0.054758042,-0.026646247,0.03757121,20,44,-16,-18,54
3,1693677839989520800,-0.113724582,2.41574955,10.21246719,0.054358348,-0.026646247,0.03757121,20,46,-18,-16,53
4,1693677839990520800,-0.112527482,2.418143749,10.21965027,0.054225113,-0.02691271,0.03757121,27,37,-17,-20,54
0,1693677840037207100,-0.107739076,2.420537949,10.23281765,0.053558957,-0.027179174,0.038237367,19,43,-19,-18,54
1,1693677840038207100,-0.107739076,2.421735048,10.23162079,0.053558957,-0.027179174,0.038237367,29,40,-17,-18,52
2,1693677840039207100,-0.107739076,2.419340849,10.23521233,0.053558957,-0.027045943,0.038237367,17,34,-15,-19,55
3,1693677840040207100,-0.105344877,2.418143749,10.23281765,0.053558957,-0.02691271,0.038104136,21,43,-17,-18,55
4,1693677840041207100,-0.104147777,2.41455245,10.23281765,0.053558957,-0.027045943,0.037970904,19,39,-18,-21,53
0,1693677840097479700,-0.107739076,2.422932148,10.23162079,0.053825419,-0.02691271,0.038503829,18,40,-13,-22,53
1,1693677840098479700,-0.107739076,2.424129248,10.23521233,0.053958651,-0.027045943,0.038637057,18,43,-19,-24,52
2,1693677840099479700,-0.108936176,2.422932148,10.23281765,0.053958651,-0.027045943,0.038503829,20,38,-15,-17,55
3,1693677840100479700,-0.108936176,2.420537949,10.23401546,0.053958651,-0.02691271,0.038370594,19,39,-18,-24,54
4,1693677840101479700,-0.106541976,2.421735048,10.23760605,0.053958651,-0.026779478,0.038104136,14,44,-15,-21,54
0,1693677840196331400,-0.104147777,2.424129248,10.23401546,0.053692192,-0.027179174,0.037970904,22,40,-19,-18,53
1,1693677840197331400,-0.107739076,2.421735048,10.23880386,0.053692192,-0.027179174,0.037970904,16,43,-21,-17,54
2,1693677840198331400,-0.108936176,2.420537949,10.23521233,0.053825419,-0.027312404,0.037970904,20,43,-18,-20,55
3,1693677840199331400,-0.108936176,2.420537949,10.23640919,0.053825419,-0.027179174,0.037837673,20,39,-21,-22,54
4,1693677840200331400,-0.112527482,2.422932148,10.23521233,0.053825419,-0.027045943,0.037970904,17,37,-19,-17,52
0,1693677840240310500,-0.118512981,2.408566952,10.23640919,0.053825419,-0.027179174,0.038104136,20,45,-18,-19,54
1,1693677840241310500,-0.123301387,2.409764051,10.23281765,0.053958651,-0.027045943,0.038237367,20,44,-11,-17,45
2,1693677840242310500,-0.120907187,2.41335535,10.23042393,0.053692192,-0.027045943,0.038237367,20,45,-24,-18,54
3,1693677840243310500,-0.119710088,2.41455245,10.22443867,0.053692192,-0.02691271,0.038104136,15,36,-23,-29,54
4,1693677840244310500,-0.119710088,2.41455245,10.22443867,0.053692192,-0.027045943,0.037970904,18,40,-23,-21,53
0,1693677840303925800,-0.125695586,2.41455245,10.23162079,0.053825419,-0.026779478,0.038237367,25,35,-16,-14,56
1,1693677840304925800,-0.126892686,2.41455245,10.23162079,0.053958651,-0.026646247,0.038370594,16,33,-21,-19,54
2,1693677840305925800,-0.128089786,2.41335535,10.22922707,0.053825419,-0.026779478,0.038237367,15,43,-18,-15,55
3,1693677840306925800,-0.125695586,2.412158251,10.23162079,0.053958651,-0.026646247,0.038370594,20,40,-23,-22,50
4,1693677840307925800,-0.124498487,2.412158251,10.22802925,0.053958651,-0.026779478,0.038237367,14,47,-23,-23,52
0,1693677840388585100,-0.118512981,2.41335535,10.22922707,0.054091886,-0.027045943,0.038104136,22,44,-15,-18,55
1,1693677840389585100,-0.117315881,2.412158251,10.22443867,0.053825419,-0.027179174,0.038237367,19,37,-21,-21,54
2,1693677840390585100,-0.117315881,2.412158251,10.22683239,0.053825419,-0.027045943,0.038237367,20,46,-19,-16,50
3,1693677840391585100,-0.117315881,2.41335535,10.22922707,0.053825419,-0.026779478,0.038237367,18,44,-22,-22,53
4,1693677840392585100,-0.116118781,2.410961151,10.23042393,0.054091886,-0.02691271,0.038104136,20,49,-17,-22,54
0,1693677840445378400,-0.108936176,2.41335535,10.22443867,0.053825419,-0.026379786,0.038237367,19,49,-19,-16,55
1,1693677840446378400,-0.110133275,2.41694665,10.22563553,0.053825419,-0.026379786,0.038370594,17,40,-23,-22,55
2,1693677840447378400,-0.110133275,2.41574955,10.22443867,0.053692192,-0.026379786,0.038503829,15,32,-25,-27,53
3,1693677840448378400,-0.112527482,2.41455245,10.22443867,0.053692192,-0.026513018,0.038370594,14,40,-21,-20,55
4,1693677840449378400,-0.111330383,2.41574955,10.22802925,0.053692192,-0.026513018,0.038104136,22,44,-18,-27,52
0,1693677840525574300,-0.125695586,2.403778553,10.22802925,0.053692192,-0.026379786,0.037970904,20,39,-24,-19,53
1,1693677840526574300,-0.122104287,2.404975653,10.21965027,0.053825419,-0.026379786,0.037970904,15,44,-17,-20,49
2,1693677840527574300,-0.119710088,2.407369852,10.22084713,0.053692192,-0.026379786,0.037970904,19,39,-16,-23,52
3,1693677840528574300,-0.113724582,2.406172752,10.22204399,0.053558957,-0.026379786,0.038104136,19,33,-19,-26,50
4,1693677840529574300,-0.113724582,2.408566952,10.22204399,0.053425729,-0.026379786,0.038104136,23,47,-19,-18,55
0,1693677840584570300,-0.111330383,2.41335535,10.21605873,0.053958651,-0.027179174,0.038237367,21,41,-24,-24,51
1,1693677840585570300,-0.112527482,2.41335535,10.21605873,0.053958651,-0.027179174,0.038237367,20,43,-23,-33,48
2,1693677840586570300,-0.112527482,2.410961151,10.21965027,0.053958651,-0.027312404,0.038370594,20,44,-20,-19,54
3,1693677840587570300,-0.114921682,2.412158251,10.21965027,0.053958651,-0.027312404,0.038370594,17,40,-22,-24,54
4,1693677840588570300,-0.114921682,2.41574955,10.21965027,0.054091886,-0.027179174,0.038370594,20,39,-16,-18,54
0,1693677840659473700,-0.113724582,2.41694665,10.21965027,0.053692192,-0.027045943,0.037837673,19,45,-20,-19,52
1,1693677840660473700,-0.112527482,2.419340849,10.21725559,0.053825419,-0.027045943,0.037837673,14,40,-21,-28,53
2,1693677840661473700,-0.111330383,2.418143749,10.21725559,0.053825419,-0.02691271,0.037704438,26,45,-20,-14,57
3,1693677840662473700,-0.113724582,2.41694665,10.21605873,0.053692192,-0.027045943,0.037704438,20,47,-20,-14,56
4,1693677840663473700,-0.112527482,2.419340849,10.21845245,0.053692192,-0.02691271,0.03757121,13,33,-25,-15,55
0,1693677840720438300,-0.118512981,2.425326347,10.20528507,0.054091886,-0.027045943,0.038104136,20,37,-21,-22,51
1,1693677840721438300,-0.120907187,2.424129248,10.20767879,0.054225113,-0.026779478,0.038104136,20,40,-23,-18,55
2,1693677840722438300,-0.122104287,2.420537949,10.20528507,0.054225113,-0.026779478,0.037970904,20,47,-17,-20,53
3,1693677840723438300,-0.122104287,2.41694665,10.2028904,0.054225113,-0.026779478,0.037970904,20,39,-18,-16,54
4,1693677840724438300,-0.122104287,2.41574955,10.19929886,0.054091886,-0.02691271,0.037970904,21,33,-22,-19,51
0,1693677840793972300,-0.114921682,2.421735048,10.21965027,0.053558957,-0.026646247,0.038104136,17,42,-20,-20,52
1,1693677840794972300,-0.114921682,2.419340849,10.22204399,0.053558957,-0.026646247,0.038237367,16,30,-23,-23,56
2,1693677840795972300,-0.116118781,2.420537949,10.22324085,0.053558957,-0.026379786,0.038237367,13,45,-18,-19,54
3,1693677840796972300,-0.116118781,2.420537949,10.22324085,0.053425729,-0.026379786,0.038237367,18,40,-27,-23,55
4,1693677840797972300,-0.111330383,2.420537949,10.22204399,0.053425729,-0.026379786,0.038370594,20,35,-24,-13,54
0,1693677840857935800,-0.10295067,2.420537949,10.23401546,0.053692192,-0.026779478,0.038104136,19,40,-24,-20,56
1,1693677840858935800,-0.10055647,2.420537949,10.23401546,0.053825419,-0.02691271,0.038104136,17,43,-23,-22,55
2,1693677840859935800,-0.10055647,2.420537949,10.23281765,0.053692192,-0.02691271,0.038237367,18,35,-21,-20,53
3,1693677840860935800,-0.10295067,2.420537949,10.22443867,0.053558957,-0.026779478,0.038370594,20,37,-24,-19,50
4,1693677840861935800,-0.106541976,2.420537949,10.22324085,0.053692192,-0.026646247,0.038237367,10,45,-23,-19,52
0,1693677840912505500,-0.108936176,2.41335535,10.21725559,0.053825419,-0.02691271,0.037970904,20,37,-23,-20,55
1,1693677840913505500,-0.110133275,2.41335535,10.21965027,0.053692192,-0.02691271,0.037970904,20,35,-24,-17,54
2,1693677840914505500,-0.113724582,2.41455245,10.21965027,0.053692192,-0.027045943,0.037837673,20,46,-27,-16,55
3,1693677840915505500,-0.116118781,2.41574955,10.22204399,0.053825419,-0.02691271,0.037704438,20,40,-25,-21,53
4,1693677840916505500,-0.118512981,2.41574955,10.21965027,0.053958651,-0.026779478,0.037704438,16,39,-23,-24,52
0,1693677840996456000,-0.113724582,2.410961151,10.21845245,0.053958651,-0.026779478,0.038104136,15,43,-25,-19,52
1,1693677840997456000,-0.113724582,2.410961151,10.22084713,0.053825419,-0.02691271,0.038237367,19,43,-19,-23,55
2,1693677840998456000,-0.113724582,2.410961151,10.21725559,0.053825419,-0.02691271,0.038104136,20,46,-21,-20,45
3,1693677840999456000,-0.114921682,2.408566952,10.21725559,0.053825419,-0.02691271,0.038104136,13,40,-25,-22,54
4,1693677841000456000,-0.113724582,2.410961151,10.21965027,0.053825419,-0.02691271,0.038237367,18,43,-21,-24,54
0,1693677841043464300,-0.120907187,2.41574955,10.23162079,0.053692192,-0.026779478,0.037970904,21,55,-20,-18,51
1,1693677841044464300,-0.117315881,2.41574955,10.23281765,0.053692192,-0.026779478,0.037970904,20,41,-24,-19,62
2,1693677841045464300,-0.120907187,2.420537949,10.22802925,0.053825419,-0.02691271,0.037837673,18,40,-20,-23,55
3,1693677841046464300,-0.120907187,2.420537949,10.22683239,0.053692192,-0.02691271,0.037970904,13,44,-22,-22,50
4,1693677841047464300,-0.118512981,2.419340849,10.22802925,0.053558957,-0.026779478,0.037970904,19,41,-8,-23,54
0,1693677841140527400,-0.113724582,2.406172752,10.20887566,0.053425729,-0.02691271,0.037837673,20,46,-19,-23,38
1,1693677841141527400,-0.114921682,2.407369852,10.20767879,0.053425729,-0.02691271,0.037837673,13,44,-20,-23,53
2,1693677841142527400,-0.113724582,2.407369852,10.21127033,0.053425729,-0.02691271,0.037704438,17,36,-31,-19,50
3,1693677841143527400,-0.113724582,2.408566952,10.21366405,0.053425729,-0.026646247,0.037704438,14,41,-19,-24,52
4,1693677841144527400,-0.113724582,2.407369852,10.21246719,0.053159267,-0.026646247,0.037837673,19,40,-23,-19,55
0,1693677841181523800,-0.104147777,2.419340849,10.23760605,0.053692192,-0.027179174,0.037837673,17,44,-24,-18,51
1,1693677841182523800,-0.105344877,2.418143749,10.23281765,0.053692192,-0.027312404,0.037704438,19,36,-23,-22,54
2,1693677841183523800,-0.104147777,2.41694665,10.23401546,0.053558957,-0.027179174,0.037837673,20,39,-23,-19,72
3,1693677841184523800,-0.10295067,2.41694665,10.23521233,0.053825419,-0.027312404,0.037837673,17,43,-18,-20,55
4,1693677841185523800,-0.10295067,2.41694665,10.24000072,0.053825419,-0.027179174,0.037970904,20,39,-19,-19,55
0,1693677841345069000,-0.104147777,2.418143749,10.21965027,0.054091886,-0.026646247,0.038237367,20,41,-23,-16,54
1,1693677841346069000,-0.10295067,2.419340849,10.21845245,0.054091886,-0.026646247,0.038104136,20,44,-29,-20,48
2,1693677841347069000,-0.10295067,2.420537949,10.21605873,0.054091886,-0.026646247,0.038104136,20,39,-20,-18,55
3,1693677841348069000,-0.105344877,2.419340849,10.21965027,0.054091886,-0.026779478,0.037970904,20,45,-16,-22,52
4,1693677841349069000,-0.106541976,2.419340849,10.22204399,0.054091886,-0.026646247,0.037970904,20,37,-20,-18,52
0,1693677841361058500,-0.123301387,2.420537949,10.21486187,0.053958651,-0.026646247,0.03757121,9,47,-20,-23,55
1,1693677841362058500,-0.123301387,2.420537949,10.21605873,0.053958651,-0.026646247,0.037837673,21,45,-31,-18,50
2,1693677841363058500,-0.124498487,2.421735048,10.21845245,0.054091886,-0.026779478,0.037837673,20,40,-13,-17,54
3,1693677841364058500,-0.119710088,2.421735048,10.21366405,0.053958651,-0.026779478,0.037970904,17,36,-17,-20,54
4,1693677841365058500,-0.117315881,2.422932148,10.21366405,0.054091886,-0.02691271,0.037970904,15,46,-20,-23,55
0,1693677841389480600,-0.108936176,2.419340849,10.22443867,0.054358348,-0.026513018,0.038104136,24,35,-22,-22,53
1,1693677841390480600,-0.107739076,2.419340849,10.22204399,0.054225113,-0.026646247,0.037970904,19,33,-21,-31,52
2,1693677841391480600,-0.113724582,2.41694665,10.21605873,0.054358348,-0.026646247,0.037970904,21,45,-21,-20,54
3,1693677841392480600,-0.113724582,2.41694665,10.21366405,0.054358348,-0.026646247,0.037970904,20,43,-19,-17,55
4,1693677841393480600,-0.110133275,2.41574955,10.21725559,0.054491576,-0.026779478,0.038104136,18,38,-24,-19,51
0,1693677841475499000,-0.110133275,2.41335535,10.21605873,0.054091886,-0.027179174,0.038104136,16,39,-19,-24,66
1,1693677841476499000,-0.105344877,2.41574955,10.21725559,0.054091886,-0.027179174,0.038104136,21,40,-24,-22,54
2,1693677841477499000,-0.104147777,2.418143749,10.22084713,0.053958651,-0.027045943,0.038104136,16,36,-20,-19,52
3,1693677841478499000,-0.105344877,2.419340849,10.21965027,0.053958651,-0.027045943,0.038104136,20,47,-19,-21,55
4,1693677841479499000,-0.111330383,2.418143749,10.21965027,0.053825419,-0.02691271,0.038104136,19,33,-24,-22,56
0,1693677841542560900,-0.124498487,2.41455245,10.22922707,0.054091886,-0.026513018,0.038104136,18,32,-23,-20,53
1,1693677841543560900,-0.125695586,2.41335535,10.23281765,0.054091886,-0.026646247,0.037837673,19,43,-13,-18,55
2,1693677841544560900,-0.122104287,2.41574955,10.23042393,0.053958651,-0.026779478,0.037837673,20,45,-19,-19,55
3,1693677841545560900,-0.119710088,2.41694665,10.23401546,0.053958651,-0.027179174,0.038104136,15,43,-24,-21,53
4,1693677841546560900,-0.118512981,2.41694665,10.24000072,0.053825419,-0.027045943,0.037970904,19,39,-21,-24,52
0,1693677841597989000,-0.112527482,2.421735048,10.22683239,0.053825419,-0.027045943,0.03757121,20,33,-24,-21,40
1,1693677841598989000,-0.113724582,2.421735048,10.22563553,0.053958651,-0.027312404,0.037704438,16,43,-20,-18,56
2,1693677841599989000,-0.112527482,2.422932148,10.22922707,0.053825419,-0.027312404,0.037704438,29,44,-20,-30,53
3,1693677841600989000,-0.108936176,2.425326347,10.22563553,0.053825419,-0.027312404,0.037704438,17,40,-19,-28,52
4,1693677841601989000,-0.110133275,2.425326347,10.22563553,0.053558957,-0.027045943,0.03757121,15,36,-27,-24,51
0,1693677841672501500,-0.119710088,2.41694665,10.22802925,0.053558957,-0.026646247,0.038237367,14,40,-30,-16,54
1,1693677841673501500,-0.116118781,2.419340849,10.22922707,0.053692192,-0.026779478,0.038237367,19,46,-19,-17,55
2,1693677841674501500,-0.116118781,2.41694665,10.23042393,0.053692192,-0.026513018,0.038237367,19,33,-19,-22,58
3,1693677841675501500,-0.114921682,2.41335535,10.23281765,0.053958651,-0.026513018,0.038237367,18,37,-21,-20,51
4,1693677841676501500,-0.112527482,2.41455245,10.23760605,0.053825419,-0.026513018,0.038104136,20,41,-20,-22,55
0,1693677841743522600,-0.110133275,2.41455245,10.23281765,0.053425729,-0.026779478,0.038104136,21,45,-18,-19,57
1,1693677841744522600,-0.110133275,2.412158251,10.23162079,0.053425729,-0.02691271,0.038370594,19,35,-18,-15,55
2,1693677841745522600,-0.108936176,2.41455245,10.23162079,0.053425729,-0.02691271,0.038503829,21,45,-21,-24,52
3,1693677841746522600,-0.108936176,2.412158251,10.23042393,0.053558957,-0.02691271,0.038370594,20,39,-23,-19,50
4,1693677841747522600,-0.108936176,2.410961151,10.22324085,0.053692192,-0.02691271,0.038370594,20,34,-23,-16,56
0,1693677841801565300,-0.107739076,2.41335535,10.21366405,0.054091886,-0.026513018,0.037970904,20,44,-19,-19,55
1,1693677841802565300,-0.108936176,2.41455245,10.21007347,0.053958651,-0.026513018,0.037837673,21,35,-24,-22,53
2,1693677841803565300,-0.108936176,2.41574955,10.20887566,0.053958651,-0.026513018,0.037970904,20,36,-25,-21,50
3,1693677841804565300,-0.108936176,2.41455245,10.21127033,0.053958651,-0.026513018,0.038104136,10,29,-24,-24,54
4,1693677841805565300,-0.107739076,2.412158251,10.21007347,0.053958651,-0.026513018,0.037837673,9,43,-24,-22,54
0,1693677841860060200,-0.107739076,2.410961151,10.21725559,0.053292494,-0.027312404,0.038370594,23,44,-19,-18,55
1,1693677841861060200,-0.111330383,2.412158251,10.22563553,0.053558957,-0.027312404,0.038237367,17,39,-20,-23,41
2,1693677841862060200,-0.114921682,2.410961151,10.23042393,0.053425729,-0.027179174,0.038237367,20,43,-25,-19,55
3,1693677841863060200,-0.116118781,2.412158251,10.22443867,0.053292494,-0.027045943,0.038104136,19,41,-24,-19,55
4,1693677841864060200,-0.112527482,2.41335535,10.22204399,0.053292494,-0.027179174,0.038104136,19,39,-19,-18,55
0,1693677841942692700,-0.117315881,2.41335535,10.22443867,0.053825419,-0.026646247,0.037970904,17,40,-23,-26,32
1,1693677841943692700,-0.117315881,2.41694665,10.22922707,0.053692192,-0.026646247,0.037970904,20,40,-25,-23,55
2,1693677841944692700,-0.118512981,2.41574955,10.23162079,0.053692192,-0.026646247,0.038237367,20,46,-20,-24,55
3,1693677841945692700,-0.119710088,2.41574955,10.23521233,0.053558957,-0.026779478,0.038104136,20,43,-27,-24,55
4,1693677841946692700,-0.118512981,2.41455245,10.23042393,0.053692192,-0.026646247,0.038104136,16,34,-21,-22,55
0,1693677842003480600,-0.108936176,2.41335535,10.22324085,0.054091886,-0.027179174,0.037837673,18,33,-23,-22,54
1,1693677842004480600,-0.110133275,2.41335535,10.22443867,0.054091886,-0.027179174,0.037837673,20,31,-32,-16,55
2,1693677842005480600,-0.108936176,2.41455245,10.22324085,0.053958651,-0.027179174,0.037970904,19,33,-21,-23,50
3,1693677842006480600,-0.107739076,2.41335535,10.22324085,0.053825419,-0.027045943,0.037837673,20,39,-28,-20,55
4,1693677842007480600,-0.108936176,2.41455245,10.22324085,0.053958651,-0.027179174,0.037837673,19,41,-17,-24,55
0,1693677842085683500,-0.116118781,2.407369852,10.22324085,0.053159267,-0.027312404,0.037704438,17,41,-21,-27,54
1,1693677842086683500,-0.117315881,2.407369852,10.22683239,0.053425729,-0.027179174,0.037704438,17,36,-20,-23,53
2,1693677842087683500,-0.116118781,2.408566952,10.23162079,0.053558957,-0.027179174,0.037837673,17,35,-20,-19,55
3,1693677842088683500,-0.118512981,2.406172752,10.23281765,0.053425729,-0.027312404,0.037704438,16,41,-13,-12,50
4,1693677842089683500,-0.116118781,2.406172752,10.22802925,0.053292494,-0.027445635,0.037704438,22,43,-24,-19,54
0,1693677842145578800,-0.122104287,2.41335535,10.22324085,0.053825419,-0.02691271,0.037437979,15,41,-17,-20,52
1,1693677842146578800,-0.120907187,2.409764051,10.22324085,0.053692192,-0.026779478,0.037437979,17,36,-17,-23,26
2,1693677842147578800,-0.118512981,2.409764051,10.22683239,0.053692192,-0.026779478,0.037304748,19,41,-23,-19,55
3,1693677842148578800,-0.116118781,2.409764051,10.22563553,0.053692192,-0.026646247,0.037437979,20,40,-22,-18,55
4,1693677842149578800,-0.112527482,2.408566952,10.22084713,0.053692192,-0.026779478,0.03757121,19,32,-18,-23,53
0,1693677842215068400,-0.120907187,2.409764051,10.21725559,0.053558957,-0.026513018,0.038104136,20,39,-20,-22,50
1,1693677842216068400,-0.122104287,2.408566952,10.21725559,0.053558957,-0.026779478,0.038104136,17,43,-25,-17,55
2,1693677842217068400,-0.119710088,2.409764051,10.21725559,0.053825419,-0.02691271,0.038104136,20,46,-17,-11,54
3,1693677842218068400,-0.118512981,2.409764051,10.21486187,0.053825419,-0.026779478,0.038104136,15,43,-15,-20,54
4,1693677842219068400,-0.120907187,2.412158251,10.21845245,0.053958651,-0.026779478,0.038104136,20,39,-25,-23,51
0,1693677842289025500,-0.122104287,2.412158251,10.22084713,0.053692192,-0.027045943,0.038503829,20,43,-18,-20,52
1,1693677842290025500,-0.122104287,2.41455245,10.21725559,0.053558957,-0.027045943,0.038370594,17,45,-21,-20,55
2,1693677842291025500,-0.120907187,2.41335535,10.21486187,0.053692192,-0.026779478,0.038237367,20,46,-21,-27,55
3,1693677842292025500,-0.120907187,2.41455245,10.21366405,0.053958651,-0.02691271,0.038104136,20,35,-19,-22,54
4,1693677842293025500,-0.118512981,2.41694665,10.21725559,0.053958651,-0.026779478,0.038370594,20,44,-17,-20,49
0,1693677842362158900,-0.110133275,2.41574955,10.21845245,0.054091886,-0.027045943,0.038237367,14,43,-21,-20,55
1,1693677842363158900,-0.108936176,2.412158251,10.21366405,0.054091886,-0.026779478,0.038370594,20,46,-17,-17,54
2,1693677842364158900,-0.105344877,2.412158251,10.21366405,0.053825419,-0.026646247,0.038237367,15,43,-27,-24,56
3,1693677842365158900,-0.106541976,2.41335535,10.21845245,0.053958651,-0.026646247,0.038370594,19,41,-23,-20,53
4,1693677842366158900,-0.106541976,2.41574955,10.22204399,0.053825419,-0.026646247,0.038237367,17,37,-23,-20,52
0,1693677842435450400,-0.118512981,2.41574955,10.21127033,0.053692192,-0.026779478,0.037970904,17,39,-25,-14,54
1,1693677842436450400,-0.118512981,2.41574955,10.21127033,0.053558957,-0.026646247,0.037837673,20,43,-18,-15,55
2,1693677842437450400,-0.117315881,2.41694665,10.20648193,0.053692192,-0.02691271,0.037970904,19,37,-16,-24,54
3,1693677842438450400,-0.113724582,2.418143749,10.20408726,0.053558957,-0.026779478,0.037837673,18,43,-13,-17,54
4,1693677842439450400,-0.113724582,2.418143749,10.21007347,0.053692192,-0.026779478,0.03757121,18,35,-24,-18,52
0,1693677842479922400,-0.113724582,2.418143749,10.21486187,0.053825419,-0.026379786,0.038104136,18,41,-21,-13,55
1,1693677842480922400,-0.116118781,2.418143749,10.21605873,0.053692192,-0.026379786,0.038104136,9,32,-20,-18,54
2,1693677842481922400,-0.117315881,2.419340849,10.21127033,0.053825419,-0.026379786,0.037970904,24,44,-28,-18,50
3,1693677842482922400,-0.116118781,2.419340849,10.21366405,0.053692192,-0.026379786,0.037970904,17,32,-28,-32,51
4,1693677842483922400,-0.116118781,2.419340849,10.21246719,0.053692192,-0.026379786,0.038104136,18,42,-27,-22,53
0,1693677842560943900,-0.117315881,2.41574955,10.20887566,0.054358348,-0.026513018,0.037970904,20,43,-24,-14,56
1,1693677842561943900,-0.116118781,2.418143749,10.21366405,0.054358348,-0.026379786,0.038104136,19,35,-21,-20,53
2,1693677842562943900,-0.116118781,2.41455245,10.21007347,0.054358348,-0.026246555,0.037970904,18,39,-23,-18,54
3,1693677842563943900,-0.114921682,2.412158251,10.20887566,0.054491576,-0.026113322,0.037970904,18,41,-19,-19,50
4,1693677842564943900,-0.112527482,2.412158251,10.21246719,0.054491576,-0.026113322,0.038104136,14,39,-20,-21,55
0,1693677842687789500,-0.107739076,2.410961151,10.21246719,0.053825419,-0.026379786,0.037704438,19,41,-22,-22,54
1,1693677842688789500,-0.111330383,2.41335535,10.21246719,0.053558957,-0.026113322,0.03757121,16,36,-22,-27,51
2,1693677842689789500,-0.112527482,2.41574955,10.21127033,0.053692192,-0.026113322,0.037837673,20,39,-20,-28,45
3,1693677842690789500,-0.114921682,2.41694665,10.21845245,0.053692192,-0.026113322,0.037704438,17,44,-19,-20,53
4,1693677842691789500,-0.112527482,2.418143749,10.21845245,0.053692192,-0.026113322,0.037704438,18,37,-20,-22,53
0,1693677842709800900,-0.110133275,2.407369852,10.22204399,0.054091886,-0.026379786,0.038237367,17,46,-28,-24,52
1,1693677842710800900,-0.108936176,2.403778553,10.21965027,0.054225113,-0.026379786,0.038104136,15,36,-21,-28,50
2,1693677842711800900,-0.108936176,2.404975653,10.21965027,0.054225113,-0.026513018,0.038104136,23,41,-31,-26,49
3,1693677842712800900,-0.107739076,2.407369852,10.21725559,0.054358348,-0.026646247,0.037970904,22,37,-21,-20,55
4,1693677842713800900,-0.111330383,2.408566952,10.22084713,0.054091886,-0.026379786,0.037837673,17,39,-19,-26,57
0,1693677842758698200,-0.093373865,2.41455245,10.22922707,0.053825419,-0.026379786,0.037970904,20,41,-19,-18,49
1,1693677842759698200,-0.094570965,2.41574955,10.23042393,0.053825419,-0.026379786,0.037837673,21,43,-25,-22,50
2,1693677842760698200,-0.099359371,2.418143749,10.22802925,0.053692192,-0.026379786,0.037970904,18,41,-22,-19,54
3,1693677842761698200,-0.10055647,2.418143749,10.22922707,0.053692192,-0.026246555,0.037970904,10,47,-24,-21,53
4,1693677842762698200,-0.10055647,2.41574955,10.23162079,0.053958651,-0.026379786,0.037970904,20,46,-19,-20,55
0,1693677842823579200,-0.113724582,2.407369852,10.23401546,0.053292494,-0.027045943,0.038104136,18,37,-21,-24,45
1,1693677842824579200,-0.116118781,2.406172752,10.23401546,0.053292494,-0.02691271,0.037970904,6,37,-23,-22,50
2,1693677842825579200,-0.116118781,2.408566952,10.23042393,0.053425729,-0.02691271,0.037970904,-3,40,-20,-24,55
3,1693677842826579200,-0.116118781,2.407369852,10.22443867,0.053292494,-0.02691271,0.038104136,18,43,-12,-20,56
4,1693677842827579200,-0.117315881,2.408566952,10.22324085,0.053292494,-0.02691271,0.038104136,17,39,-31,-27,51
0,1693677842882925400,-0.110133275,2.409764051,10.20528507,0.053425729,-0.027179174,0.038104136,10,32,-23,-22,52
1,1693677842883925400,-0.110133275,2.412158251,10.2028904,0.053558957,-0.027179174,0.038370594,15,46,-25,-22,55
2,1693677842884925400,-0.110133275,2.41335535,10.2028904,0.053558957,-0.027312404,0.038237367,13,39,-24,-24,55
3,1693677842885925400,-0.111330383,2.41694665,10.20528507,0.053292494,-0.027445635,0.038237367,16,42,-25,-24,50
4,1693677842886925400,-0.111330383,2.419340849,10.21007347,0.053026035,-0.027445635,0.038104136,10,48,-25,-23,55
0,1693677842968440500,-0.111330383,2.407369852,10.21965027,0.053292494,-0.027045943,0.037837673,20,44,-25,-23,53
1,1693677842969440500,-0.110133275,2.407369852,10.22204399,0.053425729,-0.027045943,0.037837673,24,38,-21,-24,54
2,1693677842970440500,-0.107739076,2.407369852,10.22324085,0.053558957,-0.02691271,0.037970904,23,43,-20,-19,55
3,1693677842971440500,-0.105344877,2.407369852,10.22683239,0.053692192,-0.027179174,0.038104136,20,47,-28,-20,53
4,1693677842972440500,-0.106541976,2.407369852,10.23401546,0.053825419,-0.027045943,0.038104136,19,15,-17,-24,55
0,1693677843018245100,-0.113724582,2.41694665,10.22084713,0.053825419,-0.027179174,0.03757121,19,40,-21,-20,55
1,1693677843019245100,-0.112527482,2.41574955,10.22084713,0.053825419,-0.027312404,0.03757121,13,36,-16,-22,50
2,1693677843020245100,-0.108936176,2.41694665,10.21725559,0.053958651,-0.027445635,0.037704438,17,34,-23,-18,49
3,1693677843021245100,-0.107739076,2.41694665,10.21725559,0.054091886,-0.027445635,0.037704438,19,33,-27,-24,53
4,1693677843022245100,-0.110133275,2.41694665,10.21605873,0.054091886,-0.027445635,0.03757121,20,43,-21,-24,52
0,1693677843106891700,-0.106541976,2.41335535,10.22204399,0.054091886,-0.02691271,0.037837673,18,36,-25,-20,54
1,1693677843107891700,-0.107739076,2.41335535,10.22324085,0.054225113,-0.02691271,0.038104136,17,45,-23,-18,55
2,1693677843108891700,-0.105344877,2.41455245,10.22324085,0.054091886,-0.027045943,0.037837673,20,39,-25,-15,55
3,1693677843109891700,-0.107739076,2.41574955,10.22563553,0.053958651,-0.027045943,0.037970904,18,39,-23,-25,53
4,1693677843110891700,-0.107739076,2.419340849,10.22443867,0.053958651,-0.027045943,0.037837673,20,32,-23,-23,55
0,1693677843168245600,-0.107739076,2.419340849,10.21965027,0.054091886,-0.026779478,0.038237367,13,33,-16,-22,56
1,1693677843169245600,-0.10295067,2.420537949,10.22443867,0.053958651,-0.026779478,0.038237367,20,46,-18,-16,56
2,1693677843170245600,-0.10175357,2.41694665,10.21965027,0.053958651,-0.02691271,0.038503829,17,34,-21,-24,52
3,1693677843171245600,-0.099359371,2.41455245,10.21725559,0.053958651,-0.02691271,0.038503829,21,34,-21,-27,52
4,1693677843172245600,-0.098162271,2.41455245,10.21965027,0.053825419,-0.02691271,0.038370594,20,42,-24,-22,55
0,1693677843229244900,-0.113724582,2.406172752,10.22683239,0.054225113,-0.02691271,0.038104136,20,47,-21,-21,55
1,1693677843230244900,-0.116118781,2.404975653,10.22443867,0.054091886,-0.027045943,0.038104136,20,42,-28,-19,53
2,1693677843231244900,-0.116118781,2.403778553,10.21725559,0.053958651,-0.02691271,0.037970904,14,32,-21,-20,55
3,1693677843232244900,-0.117315881,2.402581453,10.21366405,0.053958651,-0.027045943,0.037970904,9,35,-21,-22,51
4,1693677843233244900,-0.118512981,2.403778553,10.21725559,0.053958651,-0.02691271,0.037970904,18,33,-28,-23,52
0,1693677843308225100,-0.111330383,2.410961151,10.21486187,0.053558957,-0.026779478,0.037970904,-2,46,-23,-18,55
1,1693677843309225100,-0.113724582,2.409764051,10.21366405,0.053558957,-0.02691271,0.037970904,21,35,-22,-20,54
2,1693677843310225100,-0.113724582,2.408566952,10.21127033,0.053558957,-0.027179174,0.038104136,20,45,-24,-21,54
3,1693677843311225100,-0.114921682,2.407369852,10.20887566,0.053558957,-0.027179174,0.038104136,16,41,-20,-20,54
4,1693677843312225100,-0.113724582,2.409764051,10.20648193,0.053558957,-0.027179174,0.038237367,21,35,-15,-15,54
0,1693677843381184700,-0.112527482,2.418143749,10.22324085,0.053692192,-0.027578866,0.037837673,20,37,-18,-19,55
1,1693677843382184700,-0.113724582,2.41574955,10.22324085,0.053692192,-0.027312404,0.037704438,21,36,-20,-23,54
2,1693677843383184700,-0.113724582,2.412158251,10.22204399,0.053425729,-0.027312404,0.037837673,19,40,-25,-20,50
3,1693677843384184700,-0.112527482,2.409764051,10.21725559,0.053558957,-0.027179174,0.038104136,17,36,-20,-25,55
4,1693677843385184700,-0.111330383,2.407369852,10.21486187,0.053425729,-0.027179174,0.038370594,21,35,-23,-17,48
0,1693677843434155300,-0.106541976,2.409764051,10.22922707,0.053692192,-0.026779478,0.038237367,16,30,-23,-24,54
1,1693677843435155300,-0.108936176,2.408566952,10.23162079,0.053825419,-0.026646247,0.037970904,17,35,-24,-23,54
2,1693677843436155300,-0.112527482,2.407369852,10.23281765,0.053692192,-0.026513018,0.037970904,15,30,-22,-22,53
3,1693677843437155300,-0.111330383,2.404975653,10.23281765,0.053692192,-0.026379786,0.037970904,22,36,-18,-18,56
4,1693677843438155300,-0.107739076,2.406172752,10.23401546,0.053558957,-0.026246555,0.037970904,20,45,-20,-23,54
0,1693677843513951200,-0.125695586,2.410961151,10.23640919,0.054091886,-0.026513018,0.03757121,25,41,-25,-13,54
1,1693677843514951200,-0.125695586,2.410961151,10.23521233,0.054091886,-0.026513018,0.03757121,14,36,-28,-22,52
2,1693677843515951200,-0.123301387,2.409764051,10.23521233,0.054225113,-0.026646247,0.037437979,19,40,-20,-21,54
3,1693677843516951200,-0.122104287,2.409764051,10.23880386,0.054225113,-0.026779478,0.03757121,14,37,-20,-22,53
4,1693677843517951200,-0.124498487,2.412158251,10.23281765,0.054225113,-0.026513018,0.03757121,19,45,-22,-16,56
0,1693677843573995900,-0.119710088,2.408566952,10.21486187,0.053558957,-0.02691271,0.037837673,20,44,-27,-28,52
1,1693677843574995900,-0.114921682,2.407369852,10.21127033,0.053692192,-0.027045943,0.037704438,17,45,-21,-27,55
2,1693677843575995900,-0.112527482,2.408566952,10.21127033,0.053692192,-0.027045943,0.037837673,19,39,-18,-17,55
3,1693677843576995900,-0.112527482,2.408566952,10.21007347,0.053692192,-0.027045943,0.037837673,21,39,-27,-22,57
4,1693677843577995900,-0.113724582,2.408566952,10.20767879,0.053692192,-0.027179174,0.037837673,20,35,-20,-26,55
0,1693677843644991700,-0.114921682,2.41455245,10.22324085,0.053825419,-0.027045943,0.038104136,18,34,-24,-19,57
1,1693677843645991700,-0.111330383,2.41694665,10.22683239,0.053558957,-0.02691271,0.038104136,20,34,-24,-18,55
2,1693677843646991700,-0.111330383,2.41574955,10.22563553,0.053425729,-0.027045943,0.038237367,19,34,-19,-20,55
3,1693677843647991700,-0.112527482,2.41574955,10.22563553,0.053558957,-0.027045943,0.038237367,20,35,-20,-22,54
4,1693677843648991700,-0.113724582,2.41574955,10.22563553,0.053692192,-0.027179174,0.037970904,25,40,-19,-20,55
0,1693677843714951000,-0.112527482,2.41335535,10.21965027,0.053425729,-0.026646247,0.037970904,7,32,-28,-20,55
1,1693677843715951000,-0.113724582,2.412158251,10.21605873,0.053425729,-0.026779478,0.037970904,20,35,-18,-20,65
2,1693677843716951000,-0.113724582,2.41455245,10.21246719,0.053558957,-0.026646247,0.037837673,20,46,-18,-26,55
3,1693677843717951000,-0.116118781,2.410961151,10.21725559,0.053558957,-0.026646247,0.037837673,20,35,-21,-24,52
4,1693677843718951000,-0.116118781,2.407369852,10.21605873,0.053692192,-0.026779478,0.037970904,17,41,-17,-18,55
0,1693677843798958700,-0.118512981,2.404975653,10.21725559,0.053958651,-0.027179174,0.037837673,21,35,-17,-18,53
1,1693677843799958700,-0.123301387,2.403778553,10.21845245,0.053958651,-0.027045943,0.037837673,15,39,-22,-21,55
2,1693677843800958700,-0.123301387,2.404975653,10.21605873,0.053958651,-0.027045943,0.037704438,13,41,-24,-20,53
3,1693677843801958700,-0.124498487,2.401384354,10.21486187,0.053958651,-0.02691271,0.03757121,21,36,-23,-24,50
4,1693677843802958700,-0.123301387,2.403778553,10.21965027,0.054091886,-0.02691271,0.037837673,20,38,-28,-28,50
0,1693677843846524000,-0.114921682,2.408566952,10.22922707,0.053958651,-0.026513018,0.037970904,20,44,-24,-20,55
1,1693677843847524000,-0.116118781,2.409764051,10.22683239,0.054091886,-0.026646247,0.037970904,17,45,-23,-20,54
2,1693677843848524000,-0.114921682,2.407369852,10.22802925,0.054091886,-0.026513018,0.038104136,15,33,-19,-24,54
3,1693677843849524000,-0.114921682,2.407369852,10.22443867,0.054091886,-0.026513018,0.037970904,8,36,-29,-23,52
4,1693677843850524000,-0.116118781,2.406172752,10.22443867,0.054091886,-0.026513018,0.038104136,11,40,-23,-24,46
