,timestamp,left_data_Ac_X,left_data_Ac_Y,left_data_Ac_Z,left_data_Gy_X,left_data_Gy_Y,left_data_Gy_Z,left_data_flex_1,left_data_flex_2,left_data_flex_3,left_data_flex_4,left_data_flex_5
0,1693677620222514500,1.025915384,-0.851138711,10.26992798,-0.063018374,-0.0021317,-0.008526799,-18,59,93,14,-1
1,1693677620223514500,1.024718285,-0.852335811,10.27471638,-0.063151613,-0.002264931,-0.008393568,-15,53,91,11,-2
2,1693677620224514500,1.023521185,-0.849941611,10.27830791,-0.063151613,-0.002398162,-0.008393568,-16,45,90,12,-3
3,1693677620225514500,1.022324085,-0.85353291,10.27950478,-0.063018374,-0.002398162,-0.008393568,-17,49,90,12,-3
4,1693677620226514500,1.022324085,-0.852335811,10.27950478,-0.063018374,-0.002398162,-0.008260337,-14,44,88,14,-2
0,1693677620261491800,1.027112484,-0.852335811,10.27830791,-0.06261868,-0.001865237,-0.008793262,-21,39,90,8,-5
1,1693677620262491800,1.028309584,-0.849941611,10.28070164,-0.06261868,-0.001865237,-0.008926493,-26,45,92,11,-3
2,1693677620263491800,1.025915384,-0.848744512,10.27950478,-0.062751912,-0.001865237,-0.008926493,-22,47,90,8,-7
3,1693677620264491800,1.029506683,-0.846350312,10.27711105,-0.062751912,-0.001732006,-0.008926493,-21,45,91,12,-4
4,1693677620265491800,1.025915384,-0.849941611,10.26992798,-0.062751912,-0.001732006,-0.008660031,-23,43,89,8,-3
0,1693677620295472300,1.029506683,-0.839167714,10.27711105,-0.062751912,-0.001865237,-0.008793262,-15,47,91,13,-4
1,1693677620296472300,1.029506683,-0.841561913,10.26992798,-0.062751912,-0.001865237,-0.008926493,-19,50,90,11,-5
2,1693677620297472300,1.028309584,-0.841561913,10.26513958,-0.062751912,-0.001998469,-0.008660031,-16,46,90,13,-2
3,1693677620298472300,1.024718285,-0.842759013,10.26873112,-0.062751912,-0.0021317,-0.008660031,-19,48,90,12,0
4,1693677620299472300,1.019929886,-0.842759013,10.26992798,-0.062885143,-0.001998469,-0.008660031,-22,45,92,13,-3
0,1693677620322457900,1.010353088,-0.851138711,10.26992798,-0.062751912,-0.001998469,-0.008793262,-19,55,90,12,-4
1,1693677620323457900,1.009155989,-0.849941611,10.26873112,-0.062751912,-0.0021317,-0.008793262,-21,48,91,13,-2
2,1693677620324457900,1.012747288,-0.852335811,10.26753426,-0.062885143,-0.002264931,-0.008793262,-27,46,90,-1,-5
3,1693677620325457900,1.013944387,-0.851138711,10.27112484,-0.062885143,-0.002264931,-0.008793262,-14,47,90,6,-3
4,1693677620326457900,1.012747288,-0.849941611,10.27471638,-0.063018374,-0.002264931,-0.008793262,-18,51,91,13,-6
0,1693677620351439600,1.022324085,-0.847547412,10.26753426,-0.06261868,-0.001998469,-0.009059724,-18,46,90,12,-2
1,1693677620352439600,1.021126986,-0.847547412,10.26992798,-0.062485453,-0.0021317,-0.008926493,-16,46,84,13,-6
2,1693677620353439600,1.021126986,-0.847547412,10.26753426,-0.062485453,-0.002264931,-0.008926493,-20,44,88,13,-3
3,1693677620354439600,1.023521185,-0.845153213,10.26394272,-0.062352221,-0.0021317,-0.009059724,-24,45,90,11,-3
4,1693677620355439600,1.025915384,-0.847547412,10.26753426,-0.062485453,-0.002264931,-0.009059724,-22,50,92,13,-3
0,1693677620374427600,1.036689281,-0.840364814,10.27830791,-0.062352221,-0.001598775,-0.008526799,-18,39,90,4,-2
1,1693677620375427600,1.035492182,-0.841561913,10.27711105,-0.062352221,-0.001465544,-0.008660031,-18,48,88,14,-7
2,1693677620376427600,1.034295082,-0.842759013,10.27591324,-0.06261868,-0.001465544,-0.008526799,-18,46,90,11,-1
3,1693677620377427600,1.034295082,-0.841561913,10.28189945,-0.062751912,-0.001332312,-0.008526799,-18,47,88,16,-1
4,1693677620378427600,1.033097982,-0.843956113,10.28070164,-0.062751912,-0.001332312,-0.008660031,-20,47,88,13,-1
0,1693677620397414500,1.025915384,-0.848744512,10.27471638,-0.06261868,-0.001598775,-0.008660031,-23,45,91,10,-8
1,1693677620398414500,1.025915384,-0.845153213,10.27112484,-0.06261868,-0.001465544,-0.008526799,-20,46,85,13,-7
2,1693677620399414500,1.027112484,-0.845153213,10.26992798,-0.062751912,-0.001598775,-0.008526799,-15,53,91,13,-2
3,1693677620400414500,1.025915384,-0.845153213,10.26753426,-0.062751912,-0.001598775,-0.008393568,-20,45,95,13,0
4,1693677620401414500,1.027112484,-0.845153213,10.26873112,-0.062885143,-0.001732006,-0.008393568,-24,49,86,19,-1
0,1693677620421400500,1.028309584,-0.85353291,10.27112484,-0.062218986,-0.001598775,-0.008793262,-26,43,87,13,-7
1,1693677620422400500,1.030703783,-0.852335811,10.27112484,-0.062218986,-0.001465544,-0.008793262,-18,47,91,8,-3
2,1693677620423400500,1.027112484,-0.849941611,10.26992798,-0.062352221,-0.001465544,-0.008793262,-19,45,91,13,1
3,1693677620424400500,1.024718285,-0.847547412,10.26753426,-0.062352221,-0.001598775,-0.008793262,-18,52,90,14,-2
4,1693677620425400500,1.023521185,-0.843956113,10.26394272,-0.062352221,-0.001598775,-0.008793262,-17,51,90,10,-3
0,1693677620442388500,1.023521185,-0.839167714,10.25316906,-0.062485453,-0.001865237,-0.008660031,-1,71,108,29,14
1,1693677620443388500,1.022324085,-0.839167714,10.25077438,-0.062352221,-0.001732006,-0.008793262,5,49,87,15,-1
2,1693677620444388500,1.024718285,-0.836773515,10.25556278,-0.062218986,-0.001998469,-0.008926493,-22,53,93,19,-2
3,1693677620445388500,1.027112484,-0.833182216,10.25675964,-0.062218986,-0.001998469,-0.008793262,-21,47,91,13,-5
4,1693677620446388500,1.028309584,-0.834379315,10.26154804,-0.062352221,-0.001998469,-0.008660031,-18,53,87,13,-2
0,1693677620465374900,1.029506683,-0.847547412,10.25436592,-0.06261868,-0.0021317,-0.008660031,-16,49,90,13,-3
1,1693677620466374900,1.028309584,-0.849941611,10.25197124,-0.06261868,-0.001998469,-0.008660031,-16,54,90,14,-2
2,1693677620467374900,1.028309584,-0.847547412,10.25316906,-0.062485453,-0.001998469,-0.008526799,-20,49,93,17,-3
3,1693677620468374900,1.023521185,-0.847547412,10.24957752,-0.06261868,-0.0021317,-0.008526799,-20,51,89,13,-3
4,1693677620469374900,1.024718285,-0.848744512,10.24838066,-0.062485453,-0.002264931,-0.008660031,-20,50,90,14,-3
0,1693677620491359900,1.027112484,-0.847547412,10.26633644,-0.062885143,-0.001998469,-0.008260337,-19,51,89,12,-1
1,1693677620492359900,1.027112484,-0.846350312,10.26992798,-0.063018374,-0.0021317,-0.008526799,-14,49,90,16,-2
2,1693677620493359900,1.028309584,-0.846350312,10.26873112,-0.062885143,-0.0021317,-0.008526799,-15,65,85,13,0
3,1693677620494359900,1.029506683,-0.846350312,10.26753426,-0.062885143,-0.002264931,-0.008393568,-18,48,88,13,-4
4,1693677620495359900,1.025915384,-0.842759013,10.26873112,-0.062885143,-0.002264931,-0.008526799,-22,47,90,13,-3
0,1693677620519344600,1.019929886,-0.85473001,10.24957752,-0.062352221,-0.001998469,-0.009326187,-18,46,90,13,-3
1,1693677620520344600,1.019929886,-0.852335811,10.25197124,-0.062352221,-0.001998469,-0.009326187,-14,47,90,13,-5
2,1693677620521344600,1.021126986,-0.851138711,10.25316906,-0.062352221,-0.001998469,-0.009192956,-20,46,90,13,-4
3,1693677620522344600,1.018732786,-0.85353291,10.25436592,-0.062485453,-0.001998469,-0.009192956,-20,46,92,18,-1
4,1693677620523344600,1.022324085,-0.85353291,10.25436592,-0.062485453,-0.001998469,-0.009059724,-20,37,88,12,-8
0,1693677620549326600,1.019929886,-0.840364814,10.26274586,-0.063018374,-0.002264931,-0.008926493,-22,51,95,13,-2
1,1693677620550326600,1.021126986,-0.840364814,10.26513958,-0.063018374,-0.001998469,-0.009059724,-18,48,89,13,-3
2,1693677620551326600,1.023521185,-0.837970614,10.26513958,-0.062885143,-0.001865237,-0.009059724,-20,38,90,11,-3
3,1693677620552326600,1.022324085,-0.836773515,10.26394272,-0.062751912,-0.0021317,-0.009059724,-20,45,90,10,-3
4,1693677620553326600,1.023521185,-0.837970614,10.26513958,-0.062885143,-0.001998469,-0.009059724,-15,51,88,10,-5
0,1693677620576311700,1.021126986,-0.840364814,10.27351952,-0.062885143,-0.002264931,-0.008660031,-16,57,90,13,-2
1,1693677620577311700,1.021126986,-0.840364814,10.27591324,-0.062885143,-0.002264931,-0.008526799,-21,41,90,13,-2
2,1693677620578311700,1.024718285,-0.842759013,10.27830791,-0.063018374,-0.002264931,-0.008660031,-18,49,89,13,-5
3,1693677620579311700,1.024718285,-0.845153213,10.27591324,-0.062885143,-0.0021317,-0.008660031,-20,45,89,10,-4
4,1693677620580311700,1.024718285,-0.846350312,10.27711105,-0.062751912,-0.002264931,-0.008660031,-6,46,91,13,-4
0,1693677620606294000,1.030703783,-0.840364814,10.25675964,-0.062085759,-0.0021317,-0.008660031,-20,57,91,11,7
1,1693677620607294000,1.031900883,-0.837970614,10.25915432,-0.062218986,-0.0021317,-0.008660031,-21,40,89,13,-2
2,1693677620608294000,1.031900883,-0.839167714,10.25316906,-0.062218986,-0.002264931,-0.008660031,-23,45,90,15,-4
3,1693677620609294000,1.029506683,-0.841561913,10.24957752,-0.062218986,-0.002398162,-0.008526799,-22,50,90,12,-2
4,1693677620610294000,1.030703783,-0.841561913,10.25316906,-0.062352221,-0.002531394,-0.008526799,-23,51,90,13,-4
0,1693677620629281300,1.015141487,-0.847547412,10.27351952,-0.062485453,-0.002398162,-0.008393568,-15,50,95,19,-11
1,1693677620630281300,1.017535686,-0.846350312,10.27351952,-0.06261868,-0.002264931,-0.008260337,-16,41,90,10,-5
2,1693677620631281300,1.017535686,-0.846350312,10.27351952,-0.062751912,-0.002264931,-0.008393568,-18,46,97,8,-5
3,1693677620632281300,1.019929886,-0.848744512,10.27591324,-0.06261868,-0.002398162,-0.008393568,-6,49,90,13,-5
4,1693677620633281300,1.019929886,-0.851138711,10.27232265,-0.062751912,-0.002398162,-0.008526799,-16,49,90,12,-3
0,1693677620657264100,1.025915384,-0.846350312,10.26394272,-0.06261868,-0.002398162,-0.008660031,-10,47,87,13,-6
1,1693677620658264100,1.023521185,-0.842759013,10.26513958,-0.062485453,-0.002398162,-0.008793262,-24,48,94,13,-2
2,1693677620659264100,1.019929886,-0.841561913,10.26992798,-0.062485453,-0.002398162,-0.008660031,-20,38,89,10,-3
3,1693677620660264100,1.018732786,-0.843956113,10.26753426,-0.06261868,-0.002398162,-0.008660031,-19,46,88,10,-7
4,1693677620661264100,1.018732786,-0.846350312,10.26154804,-0.06261868,-0.002264931,-0.008793262,-19,42,90,13,-4
0,1693677620680251900,1.025915384,-0.837970614,10.26154804,-0.06261868,-0.001865237,-0.008393568,-23,45,92,16,-4
1,1693677620681251900,1.023521185,-0.839167714,10.25795746,-0.062885143,-0.001732006,-0.008526799,-23,31,85,2,-9
2,1693677620682251900,1.022324085,-0.837970614,10.25675964,-0.062751912,-0.001865237,-0.008660031,-24,48,87,8,-7
3,1693677620683251900,1.023521185,-0.841561913,10.26035118,-0.06261868,-0.001732006,-0.008793262,-20,46,91,11,-5
4,1693677620684251900,1.023521185,-0.840364814,10.25436592,-0.06261868,-0.001465544,-0.008793262,-14,49,89,12,-5
0,1693677620704238200,1.022324085,-0.846350312,10.26274586,-0.062352221,-0.001865237,-0.008926493,-15,38,86,10,-5
1,1693677620705238200,1.023521185,-0.849941611,10.25915432,-0.062218986,-0.001865237,-0.008926493,-10,43,89,10,-11
2,1693677620706238200,1.018732786,-0.848744512,10.25436592,-0.062352221,-0.001865237,-0.008926493,-20,47,88,11,-5
3,1693677620707238200,1.017535686,-0.847547412,10.25316906,-0.062485453,-0.001998469,-0.009192956,-22,46,90,12,-5
4,1693677620708238200,1.019929886,-0.848744512,10.25556278,-0.062352221,-0.0021317,-0.008793262,-18,42,87,10,-7
0,1693677620732222800,1.016338587,-0.834379315,10.25556278,-0.062485453,-0.002264931,-0.008926493,-22,49,85,7,-4
1,1693677620733222800,1.018732786,-0.834379315,10.25795746,-0.062485453,-0.002264931,-0.008926493,-23,47,89,14,-8
2,1693677620734222800,1.015141487,-0.836773515,10.26154804,-0.062751912,-0.002398162,-0.008793262,-28,37,90,13,-7
3,1693677620735222800,1.016338587,-0.837970614,10.26513958,-0.062751912,-0.002264931,-0.009059724,-19,51,90,13,-5
4,1693677620736222800,1.013944387,-0.837970614,10.26873112,-0.062751912,-0.002398162,-0.008926493,-14,34,90,10,-7
0,1693677620763204400,1.027112484,-0.840364814,10.26394272,-0.06261868,-0.002264931,-0.008793262,-26,51,109,6,-13
1,1693677620764204400,1.030703783,-0.840364814,10.26513958,-0.062485453,-0.002264931,-0.008926493,-22,37,87,12,-4
2,1693677620765204400,1.034295082,-0.841561913,10.26633644,-0.062485453,-0.002264931,-0.008926493,-22,47,86,3,-6
3,1693677620766204400,1.035492182,-0.841561913,10.26274586,-0.062352221,-0.0021317,-0.009059724,-24,47,86,13,-4
4,1693677620767204400,1.034295082,-0.842759013,10.26154804,-0.062352221,-0.002264931,-0.008926493,-16,46,88,8,-8
0,1693677620793186500,1.027112484,-0.846350312,10.25915432,-0.062485453,-0.002531394,-0.008660031,-23,47,89,8,-7
1,1693677620794186500,1.025915384,-0.846350312,10.25915432,-0.062485453,-0.002531394,-0.008526799,-23,49,90,10,-7
2,1693677620795186500,1.028309584,-0.845153213,10.26274586,-0.062485453,-0.002531394,-0.008526799,-16,50,89,13,-4
3,1693677620796186500,1.029506683,-0.842759013,10.26154804,-0.06261868,-0.002398162,-0.008526799,-16,47,95,18,-7
4,1693677620797186500,1.028309584,-0.842759013,10.26513958,-0.062485453,-0.002398162,-0.008660031,-22,45,85,8,-5
0,1693677620851154000,1.034295082,-0.843956113,10.26873112,-0.062885143,-0.002264931,-0.008926493,-19,45,89,10,-3
1,1693677620852154000,1.029506683,-0.845153213,10.26753426,-0.062751912,-0.002264931,-0.008926493,-27,41,88,13,-2
2,1693677620853154000,1.027112484,-0.843956113,10.26513958,-0.062751912,-0.002264931,-0.008793262,-31,46,85,10,-7
3,1693677620854154000,1.028309584,-0.843956113,10.26394272,-0.062751912,-0.002264931,-0.008926493,-23,34,88,10,-7
4,1693677620855154000,1.030703783,-0.845153213,10.26513958,-0.062751912,-0.002264931,-0.008926493,-26,42,87,10,-5
0,1693677620884135600,1.023521185,-0.843956113,10.26873112,-0.062485453,-0.001998469,-0.008926493,-15,48,90,18,-9
1,1693677620885135600,1.024718285,-0.843956113,10.26633644,-0.062485453,-0.001865237,-0.008793262,-20,54,93,14,-5
2,1693677620886135600,1.022324085,-0.845153213,10.26633644,-0.062485453,-0.001865237,-0.008793262,-19,49,91,12,-3
3,1693677620887135600,1.023521185,-0.848744512,10.27232265,-0.062485453,-0.001865237,-0.008660031,-16,35,90,13,-5
4,1693677620888135600,1.027112484,-0.846350312,10.27711105,-0.062485453,-0.001865237,-0.008793262,-26,49,89,13,-4
0,1693677620914116800,1.037886381,-0.848744512,10.27112484,-0.062485453,-0.001598775,-0.008793262,-19,57,88,13,-3
1,1693677620915116800,1.04147768,-0.847547412,10.26992798,-0.062218986,-0.001732006,-0.008926493,-20,46,91,13,-7
2,1693677620916116800,1.04147768,-0.843956113,10.26753426,-0.062485453,-0.001865237,-0.008926493,-28,45,90,13,-5
3,1693677620917116800,1.042674899,-0.842759013,10.26513958,-0.062485453,-0.001865237,-0.008926493,-32,44,86,12,-5
4,1693677620918116800,1.040280581,-0.845153213,10.26633644,-0.062485453,-0.001865237,-0.008926493,-22,50,86,10,-5
0,1693677620943101700,1.034295082,-0.848744512,10.26394272,-0.062485453,-0.001998469,-0.008793262,-19,48,90,14,-7
1,1693677620944101700,1.036689281,-0.842759013,10.26394272,-0.062485453,-0.001998469,-0.008793262,-22,48,91,13,-6
2,1693677620945101700,1.037886381,-0.840364814,10.26394272,-0.06261868,-0.0021317,-0.008660031,-20,46,87,13,-11
3,1693677620946101700,1.034295082,-0.842759013,10.26394272,-0.06261868,-0.001998469,-0.008793262,-20,51,90,13,-3
4,1693677620947101700,1.034295082,-0.841561913,10.26394272,-0.062485453,-0.001732006,-0.008660031,-16,46,85,15,-5
0,1693677620970085700,1.025915384,-0.845153213,10.27591324,-0.063018374,-0.001732006,-0.008660031,-19,47,90,13,-2
1,1693677620971085700,1.022324085,-0.845153213,10.27830791,-0.063018374,-0.001732006,-0.008926493,-18,49,87,10,-5
2,1693677620972085700,1.023521185,-0.846350312,10.28070164,-0.063018374,-0.001732006,-0.008926493,-22,48,90,13,-3
3,1693677620973085700,1.019929886,-0.845153213,10.28309631,-0.063018374,-0.001865237,-0.008793262,-20,47,90,13,-3
4,1693677620974085700,1.018732786,-0.849941611,10.27950478,-0.063018374,-0.001865237,-0.008793262,-16,54,90,14,-3
0,1693677620996071800,1.021126986,-0.849941611,10.26513958,-0.062485453,-0.0021317,-0.009059724,-18,49,90,10,-3
1,1693677620997071800,1.017535686,-0.852335811,10.26274586,-0.06261868,-0.001998469,-0.008926493,-24,41,90,9,-5
2,1693677620998071800,1.017535686,-0.849941611,10.26394272,-0.062485453,-0.0021317,-0.009059724,-19,46,92,13,-8
3,1693677620999071800,1.016338587,-0.848744512,10.26035118,-0.062485453,-0.0021317,-0.009192956,-20,46,90,13,-2
4,1693677621000071800,1.018732786,-0.846350312,10.25795746,-0.06261868,-0.001998469,-0.009192956,-20,57,91,13,-2
0,1693677621027053000,1.028309584,-0.85473001,10.26753426,-0.062885143,-0.0021317,-0.008793262,-14,43,92,13,-3
1,1693677621028053000,1.027112484,-0.85592711,10.26633644,-0.062885143,-0.001998469,-0.008660031,-23,47,90,11,-7
2,1693677621029053000,1.027112484,-0.85353291,10.26274586,-0.062885143,-0.0021317,-0.008793262,-16,45,95,14,-2
3,1693677621030053000,1.025915384,-0.849941611,10.25795746,-0.063018374,-0.001998469,-0.008793262,-19,55,90,10,-3
4,1693677621031053000,1.027112484,-0.852335811,10.26154804,-0.062885143,-0.001998469,-0.008793262,-23,49,90,13,0
0,1693677621056036800,1.017535686,-0.852335811,10.24957752,-0.062485453,-0.001865237,-0.008926493,-18,46,86,13,-8
1,1693677621057036800,1.016338587,-0.852335811,10.25077438,-0.062485453,-0.001865237,-0.008793262,-16,49,89,13,-5
2,1693677621058036800,1.018732786,-0.85353291,10.25316906,-0.06261868,-0.001865237,-0.008926493,-18,53,89,13,-2
3,1693677621059036800,1.022324085,-0.857124209,10.25436592,-0.062485453,-0.001865237,-0.008926493,-29,49,90,13,-3
4,1693677621060036800,1.021126986,-0.857124209,10.25675964,-0.062485453,-0.001998469,-0.008793262,-18,50,90,17,-3
0,1693677621081021900,1.024718285,-0.843956113,10.26992798,-0.06261868,-0.002264931,-0.008793262,-27,38,90,12,-5
1,1693677621082021900,1.023521185,-0.845153213,10.27112484,-0.06261868,-0.0021317,-0.008926493,-19,47,90,15,-1
2,1693677621083021900,1.023521185,-0.843956113,10.27351952,-0.06261868,-0.001998469,-0.008793262,-14,49,90,13,-7
3,1693677621084021900,1.022324085,-0.843956113,10.27112484,-0.062485453,-0.001998469,-0.008793262,-18,53,96,14,-4
4,1693677621085021900,1.018732786,-0.843956113,10.27112484,-0.06261868,-0.001865237,-0.008660031,-18,50,90,13,-3
0,1693677621104008800,1.016338587,-0.845153213,10.26873112,-0.062218986,-0.001998469,-0.008526799,-26,44,89,10,-5
1,1693677621105008800,1.017535686,-0.845153213,10.26513958,-0.062218986,-0.001732006,-0.008526799,-22,47,90,13,-4
2,1693677621106008800,1.019929886,-0.846350312,10.26513958,-0.062352221,-0.001865237,-0.008393568,-21,46,93,19,-2
3,1693677621107008800,1.019929886,-0.848744512,10.26154804,-0.062352221,-0.001865237,-0.008393568,-6,45,92,13,-8
4,1693677621108008800,1.019929886,-0.851138711,10.26035118,-0.062352221,-0.001732006,-0.008260337,-21,51,90,12,-4
0,1693677621130993900,1.012747288,-0.85353291,10.26513958,-0.063018374,-0.001732006,-0.008393568,-18,48,88,13,-4
1,1693677621131993900,1.012747288,-0.847547412,10.26274586,-0.062885143,-0.001865237,-0.008260337,-20,47,91,12,-2
2,1693677621132993900,1.015141487,-0.843956113,10.26154804,-0.063018374,-0.001865237,-0.008526799,-27,47,90,7,-1
3,1693677621133993900,1.012747288,-0.845153213,10.25675964,-0.063018374,-0.001865237,-0.008526799,-20,47,90,11,-2
4,1693677621134993900,1.016338587,-0.846350312,10.25197124,-0.063151613,-0.001998469,-0.008526799,-18,48,86,10,-3
0,1693677621152981000,1.024718285,-0.848744512,10.27112484,-0.062485453,-0.001732006,-0.008526799,-15,50,91,13,-5
1,1693677621153981000,1.019929886,-0.848744512,10.27112484,-0.062352221,-0.001598775,-0.008660031,-18,50,91,13,-7
2,1693677621154981000,1.021126986,-0.846350312,10.26873112,-0.062485453,-0.001732006,-0.008526799,-14,51,90,14,-2
3,1693677621155981000,1.022324085,-0.845153213,10.27232265,-0.062352221,-0.001732006,-0.008393568,-18,43,90,10,-7
4,1693677621156981000,1.019929886,-0.847547412,10.27711105,-0.062352221,-0.001732006,-0.008526799,-21,37,89,14,-5
0,1693677621176966800,1.027112484,-0.851138711,10.26753426,-0.062485453,-0.001998469,-0.009192956,-24,43,90,13,-4
1,1693677621177966800,1.028309584,-0.847547412,10.26394272,-0.062485453,-0.001998469,-0.009326187,-34,41,92,12,-3
2,1693677621178966800,1.029506683,-0.843956113,10.26394272,-0.062485453,-0.001998469,-0.009192956,-21,47,90,16,-7
3,1693677621179966800,1.028309584,-0.843956113,10.26513958,-0.062485453,-0.001998469,-0.009059724,-19,43,89,13,-5
4,1693677621180966800,1.025915384,-0.842759013,10.26513958,-0.062485453,-0.001998469,-0.008926493,-21,45,90,13,-5
0,1693677621199954300,1.025915384,-0.846350312,10.28429317,-0.062218986,-0.0021317,-0.008793262,-20,49,95,13,-2
1,1693677621200954300,1.024718285,-0.847547412,10.28070164,-0.062218986,-0.001998469,-0.008793262,-27,51,88,13,-2
2,1693677621201954300,1.023521185,-0.848744512,10.27950478,-0.062352221,-0.001998469,-0.008526799,-22,46,93,10,-7
3,1693677621202954300,1.024718285,-0.845153213,10.27950478,-0.062352221,-0.001998469,-0.008660031,-16,46,88,8,-5
4,1693677621203954300,1.023521185,-0.848744512,10.27591324,-0.062352221,-0.001865237,-0.008660031,-24,47,85,13,-7
0,1693677621220942700,1.030703783,-0.860715508,10.26992798,-0.062751912,-0.001598775,-0.008526799,-22,45,90,12,-3
1,1693677621221942700,1.031900883,-0.857124209,10.26992798,-0.062751912,-0.001732006,-0.008526799,-16,55,89,16,0
2,1693677621222942700,1.031900883,-0.851138711,10.26992798,-0.062751912,-0.001865237,-0.008660031,-16,50,88,13,-4
3,1693677621223942700,1.030703783,-0.845153213,10.26513958,-0.062885143,-0.001865237,-0.008526799,-18,49,88,13,-7
4,1693677621224942700,1.029506683,-0.842759013,10.26154804,-0.062751912,-0.001732006,-0.008526799,-22,41,89,8,-7
0,1693677621249924900,1.025915384,-0.85473001,10.27950478,-0.062218986,-0.0021317,-0.008393568,-14,57,91,8,0
1,1693677621250924900,1.023521185,-0.857124209,10.28189945,-0.062218986,-0.001865237,-0.008393568,-14,54,91,13,-1
2,1693677621251924900,1.024718285,-0.858321309,10.28429317,-0.062218986,-0.001998469,-0.008526799,-19,53,89,13,-7
3,1693677621252924900,1.021126986,-0.85353291,10.28549004,-0.062218986,-0.001865237,-0.008526799,-17,44,91,13,-4
4,1693677621253924900,1.022324085,-0.852335811,10.28788471,-0.062352221,-0.001998469,-0.008393568,-24,42,91,13,-5
0,1693677621282906300,1.028309584,-0.849941611,10.27471638,-0.062885143,-0.001732006,-0.008926493,-16,45,91,10,-7
1,1693677621283906300,1.028309584,-0.849941611,10.27471638,-0.062885143,-0.001732006,-0.009059724,-24,47,89,13,-4
2,1693677621284906300,1.025915384,-0.848744512,10.27830791,-0.062885143,-0.001598775,-0.009059724,-16,45,90,14,-4
3,1693677621285906300,1.023521185,-0.849941611,10.27711105,-0.06261868,-0.001732006,-0.009059724,-16,46,90,13,-9
4,1693677621286906300,1.023521185,-0.849941611,10.27471638,-0.062485453,-0.001598775,-0.009059724,-12,45,90,11,-7
0,1693677621317886000,1.024718285,-0.843956113,10.28908157,-0.062218986,-0.001998469,-0.008660031,-32,38,98,22,14
1,1693677621318886000,1.027112484,-0.846350312,10.28668785,-0.062352221,-0.001865237,-0.008660031,-1,71,107,30,14
2,1693677621319886000,1.028309584,-0.846350312,10.28549004,-0.062352221,-0.001732006,-0.008793262,-8,65,111,32,17
3,1693677621320886000,1.029506683,-0.845153213,10.28788471,-0.062352221,-0.001865237,-0.008793262,-1,67,116,32,15
4,1693677621321886000,1.022324085,-0.851138711,10.27950478,-0.062218986,-0.0021317,-0.008526799,0,65,91,13,-4
0,1693677621346869700,1.013944387,-0.845153213,10.26873112,-0.062885143,-0.001865237,-0.008926493,1,64,109,32,13
1,1693677621347869700,1.016338587,-0.849941611,10.26633644,-0.062885143,-0.001732006,-0.008926493,-22,46,86,10,-1
2,1693677621348869700,1.015141487,-0.849941611,10.26513958,-0.062885143,-0.001732006,-0.008793262,-1,69,108,29,14
3,1693677621349869700,1.016338587,-0.851138711,10.26633644,-0.062885143,-0.001732006,-0.008793262,2,66,112,34,12
4,1693677621350869700,1.018732786,-0.848744512,10.26633644,-0.062885143,-0.001732006,-0.008926493,-27,47,99,14,-5
0,1693677621373853500,1.022324085,-0.847547412,10.27591324,-0.062352221,-0.001998469,-0.009192956,-24,43,90,11,-5
1,1693677621374853500,1.019929886,-0.842759013,10.27471638,-0.062218986,-0.001998469,-0.009192956,16,51,90,15,-2
2,1693677621375853500,1.018732786,-0.841561913,10.27591324,-0.062218986,-0.001865237,-0.009192956,-20,49,90,15,-3
3,1693677621376853500,1.019929886,-0.842759013,10.27591324,-0.062218986,-0.001865237,-0.009059724,-11,49,90,16,-3
4,1693677621377853500,1.022324085,-0.845153213,10.27950478,-0.062085759,-0.001865237,-0.009059724,-17,49,90,13,-4
0,1693677621402837400,1.019929886,-0.845153213,10.27351952,-0.061952524,-0.001998469,-0.008526799,-21,47,87,13,-7
1,1693677621403837400,1.023521185,-0.841561913,10.26992798,-0.061952524,-0.001998469,-0.008393568,-20,50,91,12,-3
2,1693677621404837400,1.027112484,-0.842759013,10.26274586,-0.062085759,-0.0021317,-0.008393568,-14,50,90,13,-3
3,1693677621405837400,1.029506683,-0.839167714,10.26873112,-0.062218986,-0.001998469,-0.008393568,-18,50,90,13,-3
4,1693677621406837400,1.027112484,-0.837970614,10.26753426,-0.062218986,-0.001998469,-0.008393568,-19,51,91,13,-4
0,1693677621429823500,1.027112484,-0.847547412,10.26154804,-0.062485453,-0.001598775,-0.008127105,-17,64,93,13,-5
1,1693677621430823500,1.029506683,-0.843956113,10.26274586,-0.06261868,-0.001598775,-0.008127105,-14,47,90,15,-3
2,1693677621431823500,1.030703783,-0.845153213,10.26154804,-0.062751912,-0.001598775,-0.008260337,-12,40,92,13,2
3,1693677621432823500,1.031900883,-0.843956113,10.26274586,-0.062751912,-0.001465544,-0.008260337,-18,38,90,18,-7
4,1693677621433823500,1.033097982,-0.842759013,10.26154804,-0.062885143,-0.001465544,-0.008393568,-27,47,90,13,-3
0,1693677621452808800,1.025915384,-0.851138711,10.26633644,-0.062885143,-0.001732006,-0.008793262,-20,51,91,15,-3
1,1693677621453808800,1.027112484,-0.849941611,10.26753426,-0.062751912,-0.0021317,-0.008660031,-19,50,92,13,-1
2,1693677621454808800,1.024718285,-0.852335811,10.27112484,-0.062885143,-0.0021317,-0.008660031,-18,57,93,14,-1
3,1693677621455808800,1.024718285,-0.85473001,10.26753426,-0.062751912,-0.0021317,-0.008660031,-15,50,90,16,-4
4,1693677621456808800,1.023521185,-0.85473001,10.26513958,-0.062751912,-0.001998469,-0.008526799,-19,51,93,12,-5
0,1693677621479793600,1.018732786,-0.846350312,10.26992798,-0.062485453,-0.002398162,-0.008926493,-16,50,90,11,-2
1,1693677621480793600,1.021126986,-0.847547412,10.26633644,-0.062485453,-0.002531394,-0.008660031,-22,50,87,15,-1
2,1693677621481793600,1.018732786,-0.849941611,10.26633644,-0.062352221,-0.002398162,-0.008660031,-22,47,90,12,-3
3,1693677621482793600,1.021126986,-0.848744512,10.26274586,-0.062485453,-0.002264931,-0.008660031,-16,47,90,12,-3
4,1693677621483793600,1.022324085,-0.846350312,10.25795746,-0.062485453,-0.002264931,-0.008660031,-21,48,90,14,-5
0,1693677621503779200,1.018732786,-0.85353291,10.25077438,-0.062751912,-0.002264931,-0.008393568,-17,51,93,12,-5
1,1693677621504779200,1.017535686,-0.849941611,10.25436592,-0.062751912,-0.002264931,-0.008660031,-16,43,95,13,-2
2,1693677621505779200,1.018732786,-0.851138711,10.25795746,-0.062485453,-0.0021317,-0.008660031,-18,49,91,13,-3
3,1693677621506779200,1.019929886,-0.845153213,10.25197124,-0.062352221,-0.002264931,-0.008926493,-19,52,91,11,-4
4,1693677621507779200,1.019929886,-0.845153213,10.25197124,-0.062218986,-0.002264931,-0.008926493,-26,41,88,12,-4
0,1693677621531763700,1.022324085,-0.842759013,10.25915432,-0.06261868,-0.002531394,-0.008660031,-17,45,91,15,-3
1,1693677621532763700,1.023521185,-0.845153213,10.25436592,-0.062485453,-0.002398162,-0.008793262,-26,102,91,10,-3
2,1693677621533763700,1.024718285,-0.845153213,10.25556278,-0.062485453,-0.002398162,-0.008793262,-19,54,90,12,-6
3,1693677621534763700,1.023521185,-0.845153213,10.25795746,-0.06261868,-0.002398162,-0.008660031,-21,51,87,11,-8
4,1693677621535763700,1.027112484,-0.846350312,10.25675964,-0.062751912,-0.002264931,-0.008793262,-19,45,80,13,-5
0,1693677621560746200,1.033097982,-0.848744512,10.26873112,-0.06261868,-0.001865237,-0.008526799,-16,53,87,14,-3
1,1693677621561746200,1.033097982,-0.849941611,10.27351952,-0.062485453,-0.001732006,-0.008526799,-30,49,90,13,-3
2,1693677621562746200,1.031900883,-0.848744512,10.27351952,-0.062485453,-0.001732006,-0.008526799,-18,47,90,11,-3
3,1693677621563746200,1.027112484,-0.847547412,10.27232265,-0.062485453,-0.001865237,-0.008526799,-18,46,87,14,-3
4,1693677621564746200,1.029506683,-0.846350312,10.27112484,-0.062485453,-0.001865237,-0.008393568,-19,43,89,16,-5
0,1693677621586731800,1.027112484,-0.851138711,10.27112484,-0.06261868,-0.0021317,-0.008393568,-17,46,91,13,-8
1,1693677621587731800,1.024718285,-0.848744512,10.27232265,-0.06261868,-0.0021317,-0.008526799,-20,49,90,6,-5
2,1693677621588731800,1.024718285,-0.848744512,10.27471638,-0.06261868,-0.001998469,-0.008526799,-20,47,88,11,-3
3,1693677621589731800,1.024718285,-0.847547412,10.27232265,-0.062751912,-0.001865237,-0.008660031,-18,51,90,13,-5
4,1693677621590731800,1.023521185,-0.847547412,10.27232265,-0.062885143,-0.001865237,-0.008793262,-16,49,90,16,-3
0,1693677621611717400,1.021126986,-0.85353291,10.27471638,-0.062751912,-0.001865237,-0.008660031,-20,53,90,13,-2
1,1693677621612717400,1.024718285,-0.85353291,10.27232265,-0.062751912,-0.001865237,-0.008660031,-20,52,93,13,-5
2,1693677621613717400,1.024718285,-0.848744512,10.27112484,-0.062751912,-0.001732006,-0.008793262,-12,32,89,10,-8
3,1693677621614717400,1.025915384,-0.843956113,10.27591324,-0.062751912,-0.001865237,-0.008926493,-16,47,90,13,-4
4,1693677621615717400,1.027112484,-0.841561913,10.27711105,-0.062751912,-0.001865237,-0.009059724,-18,49,90,12,-2
0,1693677621638703000,1.019929886,-0.849941611,10.27711105,-0.062352221,-0.001865237,-0.009059724,-18,43,91,15,-5
1,1693677621639703000,1.019929886,-0.845153213,10.27830791,-0.062218986,-0.001865237,-0.009059724,-16,48,89,13,-7
2,1693677621640703000,1.019929886,-0.845153213,10.27711105,-0.062218986,-0.001998469,-0.008793262,-23,46,89,11,-6
3,1693677621641703000,1.015141487,-0.840364814,10.27711105,-0.062218986,-0.0021317,-0.008926493,-18,47,89,13,-3
4,1693677621642703000,1.017535686,-0.840364814,10.27591324,-0.062218986,-0.0021317,-0.008926493,-15,51,87,13,-3
0,1693677621660689600,1.012747288,-0.846350312,10.27830791,-0.062218986,-0.001998469,-0.008793262,-19,50,92,12,-5
1,1693677621661689600,1.011550188,-0.846350312,10.27591324,-0.062218986,-0.001998469,-0.008660031,-23,35,89,13,-5
2,1693677621662689600,1.011550188,-0.843956113,10.27351952,-0.062218986,-0.001865237,-0.008526799,-23,43,82,13,-2
3,1693677621663689600,1.011550188,-0.847547412,10.27112484,-0.062085759,-0.001998469,-0.008526799,-18,53,90,16,-3
4,1693677621664689600,1.012747288,-0.849941611,10.27112484,-0.062218986,-0.001865237,-0.008526799,-16,54,90,13,-2
0,1693677621688673600,1.022324085,-0.839167714,10.25675964,-0.06261868,-0.001998469,-0.009059724,-20,48,89,13,-5
1,1693677621689673600,1.023521185,-0.837970614,10.25675964,-0.062751912,-0.001998469,-0.009059724,-17,50,90,11,-5
2,1693677621690673600,1.023521185,-0.841561913,10.26035118,-0.062885143,-0.0021317,-0.009059724,-19,47,91,6,-2
3,1693677621691673600,1.022324085,-0.845153213,10.26154804,-0.062751912,-0.001998469,-0.008926493,-24,45,91,13,-5
4,1693677621692673600,1.023521185,-0.841561913,10.26035118,-0.062885143,-0.001998469,-0.008793262,-16,53,90,13,-3
0,1693677621717661800,1.025915384,-0.845153213,10.25556278,-0.062218986,-0.001865237,-0.008793262,-20,46,90,11,-7
1,1693677621718661800,1.027112484,-0.846350312,10.25316906,-0.062218986,-0.001865237,-0.008793262,-19,47,90,6,-3
2,1693677621719661800,1.025915384,-0.846350312,10.24957752,-0.062085759,-0.001865237,-0.008793262,-23,49,90,13,-5
3,1693677621720661800,1.025915384,-0.847547412,10.25077438,-0.062085759,-0.001865237,-0.008926493,-18,66,91,13,-5
4,1693677621721661800,1.024718285,-0.847547412,10.25077438,-0.062085759,-0.001865237,-0.008793262,-18,50,90,13,-4
0,1693677621778624500,1.023521185,-0.859518409,10.27830791,-0.061952524,-0.001732006,-0.008926493,-24,45,84,13,-9
1,1693677621779624500,1.024718285,-0.859518409,10.27830791,-0.061952524,-0.001732006,-0.008926493,-17,45,89,14,-3
2,1693677621780624500,1.027112484,-0.85592711,10.28189945,-0.062085759,-0.001732006,-0.008926493,-20,49,89,18,-4
3,1693677621781624500,1.029506683,-0.85592711,10.28189945,-0.062218986,-0.001865237,-0.009059724,-18,48,90,11,-3
4,1693677621782624500,1.028309584,-0.857124209,10.28668785,-0.062352221,-0.001865237,-0.009326187,-19,47,91,13,-5
0,1693677621851580800,1.023521185,-0.85592711,10.27351952,-0.062485453,-0.001998469,-0.008926493,-19,46,90,13,-3
1,1693677621852580800,1.018732786,-0.85592711,10.27351952,-0.062485453,-0.001998469,-0.009059724,-16,51,93,11,-2
2,1693677621853580800,1.019929886,-0.85353291,10.27112484,-0.062352221,-0.001998469,-0.009192956,-19,50,91,16,-2
3,1693677621854580800,1.018732786,-0.846350312,10.26992798,-0.062485453,-0.0021317,-0.008926493,-19,32,89,12,-2
4,1693677621855580800,1.019929886,-0.846350312,10.26753426,-0.06261868,-0.0021317,-0.009059724,-26,46,85,13,-1
0,1693677621945528100,1.019929886,-0.847547412,10.26753426,-0.062485453,-0.001865237,-0.008926493,-20,41,88,13,-2
1,1693677621946528100,1.021126986,-0.851138711,10.26274586,-0.062352221,-0.001865237,-0.008926493,-23,46,90,13,-5
2,1693677621947528100,1.018732786,-0.848744512,10.26513958,-0.062218986,-0.001865237,-0.008926493,-20,47,96,8,-2
3,1693677621948528100,1.021126986,-0.848744512,10.26873112,-0.062352221,-0.001865237,-0.009059724,-17,47,90,12,-4
4,1693677621949528100,1.025915384,-0.848744512,10.26753426,-0.062085759,-0.001865237,-0.009059724,-20,49,90,11,-5
0,1693677622016485900,1.018732786,-0.85353291,10.25915432,-0.061952524,-0.001732006,-0.009192956,-21,48,90,10,-3
1,1693677622017485900,1.022324085,-0.851138711,10.26035118,-0.062085759,-0.001998469,-0.009059724,-16,51,91,13,-3
2,1693677622018485900,1.024718285,-0.852335811,10.26154804,-0.061952524,-0.001998469,-0.009192956,-22,47,90,12,-5
3,1693677622019485900,1.027112484,-0.85592711,10.25795746,-0.062085759,-0.001998469,-0.009326187,-17,49,89,13,-4
4,1693677622020485900,1.028309584,-0.858321309,10.25795746,-0.061952524,-0.001998469,-0.009192956,-18,55,88,13,-18
0,1693677622064458800,1.027112484,-0.859518409,10.27950478,-0.062352221,-0.001998469,-0.008793262,-16,53,89,13,-4
1,1693677622065458800,1.027112484,-0.857124209,10.27830791,-0.062352221,-0.001998469,-0.008926493,-10,45,93,13,-2
2,1693677622066458800,1.023521185,-0.85353291,10.27591324,-0.062352221,-0.001998469,-0.008926493,-18,49,90,14,-5
3,1693677622067458800,1.025915384,-0.851138711,10.27112484,-0.062485453,-0.001865237,-0.008926493,-18,39,87,14,-5
4,1693677622068458800,1.023521185,-0.847547412,10.27232265,-0.06261868,-0.001998469,-0.009059724,-20,49,90,13,-3
0,1693677622123425900,1.018732786,-0.843956113,10.26154804,-0.062751912,-0.002264931,-0.008926493,-22,49,91,15,-8
1,1693677622124425900,1.018732786,-0.845153213,10.26035118,-0.062751912,-0.0021317,-0.008926493,-18,49,86,-1,-3
2,1693677622125425900,1.018732786,-0.846350312,10.25915432,-0.062885143,-0.002264931,-0.008926493,-27,46,90,12,-7
3,1693677622126425900,1.016338587,-0.847547412,10.25915432,-0.06261868,-0.0021317,-0.008926493,-21,43,86,12,-5
4,1693677622127425900,1.013944387,-0.849941611,10.25795746,-0.062485453,-0.0021317,-0.009059724,-22,43,92,13,-6
0,1693677622191386200,1.037886381,-0.845153213,10.26753426,-0.06261868,-0.0021317,-0.008793262,-3,53,90,13,-2
1,1693677622192386200,1.033097982,-0.843956113,10.26873112,-0.06261868,-0.0021317,-0.008926493,-17,51,88,13,-1
2,1693677622193386200,1.029506683,-0.847547412,10.26753426,-0.06261868,-0.001998469,-0.008926493,-23,49,90,13,-5
3,1693677622194386200,1.030703783,-0.847547412,10.26274586,-0.06261868,-0.001998469,-0.008793262,-22,43,90,10,-5
4,1693677622195386200,1.027112484,-0.848744512,10.26274586,-0.06261868,-0.001998469,-0.008660031,-20,53,87,13,-2
0,1693677622259348600,1.028309584,-0.849941611,10.28070164,-0.062218986,-0.001998469,-0.008393568,-20,50,93,13,-4
1,1693677622260348600,1.025915384,-0.849941611,10.27950478,-0.062352221,-0.001732006,-0.008393568,-16,47,90,13,-5
2,1693677622261348600,1.028309584,-0.851138711,10.27830791,-0.062485453,-0.001732006,-0.008526799,-11,57,86,12,-5
3,1693677622262348600,1.029506683,-0.847547412,10.27711105,-0.062485453,-0.001732006,-0.008393568,-11,41,75,13,-12
4,1693677622263348600,1.029506683,-0.847547412,10.27591324,-0.062485453,-0.001865237,-0.008393568,-18,45,90,13,-4
0,1693677622339302100,1.027112484,-0.85473001,10.27232265,-0.062352221,-0.001865237,-0.008793262,-17,51,90,13,-16
1,1693677622340302100,1.027112484,-0.85473001,10.27471638,-0.062218986,-0.001732006,-0.008660031,-22,49,89,10,-5
2,1693677622341302100,1.027112484,-0.852335811,10.27471638,-0.062218986,-0.001998469,-0.008660031,-14,38,85,6,-8
3,1693677622342302100,1.027112484,-0.85353291,10.27711105,-0.062218986,-0.001865237,-0.008793262,-20,54,90,13,-5
4,1693677622343302100,1.029506683,-0.849941611,10.27591324,-0.062218986,-0.001598775,-0.008793262,-16,46,96,14,-3
0,1693677622381276500,1.023521185,-0.842759013,10.25915432,-0.062751912,-0.0021317,-0.008660031,-14,49,89,12,-2
1,1693677622382276500,1.025915384,-0.841561913,10.26154804,-0.06261868,-0.0021317,-0.008660031,-21,46,90,13,-4
2,1693677622383276500,1.028309584,-0.842759013,10.25915432,-0.062485453,-0.002264931,-0.008793262,-21,45,90,15,-12
3,1693677622384276500,1.030703783,-0.841561913,10.26274586,-0.062485453,-0.002264931,-0.008926493,-16,49,90,13,-5
4,1693677622385276500,1.030703783,-0.843956113,10.26274586,-0.062485453,-0.0021317,-0.008660031,-18,42,95,11,-4
0,1693677622447238800,1.035492182,-0.847547412,10.27830791,-0.06261868,-0.002264931,-0.008526799,-19,47,87,14,-4
1,1693677622448238800,1.034295082,-0.847547412,10.27232265,-0.062485453,-0.002264931,-0.008526799,-24,45,92,12,-9
2,1693677622449238800,1.036689281,-0.845153213,10.27112484,-0.06261868,-0.002264931,-0.008526799,-20,49,88,14,-7
3,1693677622450238800,1.034295082,-0.847547412,10.26992798,-0.062485453,-0.002398162,-0.008393568,-17,46,91,13,-7
4,1693677622451238800,1.035492182,-0.847547412,10.26992798,-0.062485453,-0.002531394,-0.008393568,-16,55,95,14,-3
0,1693677622518202000,1.025915384,-0.85353291,10.27711105,-0.062352221,-0.001732006,-0.008260337,-20,53,90,13,-4
1,1693677622519202000,1.028309584,-0.85592711,10.27830791,-0.062352221,-0.001865237,-0.008393568,-25,43,97,13,-6
2,1693677622520202000,1.029506683,-0.85592711,10.27950478,-0.062352221,-0.001998469,-0.008526799,-16,48,90,13,-2
3,1693677622521202000,1.029506683,-0.85592711,10.27830791,-0.062352221,-0.001998469,-0.008526799,-22,49,89,13,-1
4,1693677622522202000,1.030703783,-0.858321309,10.28070164,-0.062485453,-0.001998469,-0.008660031,-15,51,89,16,-2
0,1693677622588157800,1.024718285,-0.849941611,10.26394272,-0.062352221,-0.001998469,-0.008793262,-19,50,89,11,-11
1,1693677622589157800,1.027112484,-0.849941611,10.26035118,-0.062218986,-0.001865237,-0.008660031,-19,43,91,13,-3
2,1693677622590157800,1.029506683,-0.851138711,10.26394272,-0.062218986,-0.001732006,-0.008660031,-25,53,90,13,-3
3,1693677622591157800,1.030703783,-0.847547412,10.26394272,-0.062218986,-0.001732006,-0.008660031,-15,51,90,19,-2
4,1693677622592157800,1.030703783,-0.847547412,10.26394272,-0.062085759,-0.001732006,-0.008793262,-18,45,89,14,-2
0,1693677622656119100,1.033097982,-0.835576415,10.24957752,-0.062218986,-0.001732006,-0.009059724,-22,45,85,11,-4
1,1693677622657119100,1.031900883,-0.837970614,10.24838066,-0.062218986,-0.001732006,-0.009059724,-16,47,91,12,-6
2,1693677622658119100,1.031900883,-0.836773515,10.24598598,-0.062218986,-0.001865237,-0.008926493,-18,51,90,14,-4
3,1693677622659119100,1.034295082,-0.837970614,10.24957752,-0.062085759,-0.001732006,-0.009059724,-17,44,92,10,0
4,1693677622660119100,1.033097982,-0.836773515,10.25316906,-0.062218986,-0.001598775,-0.009059724,-20,49,90,13,-7
0,1693677622737072900,1.025915384,-0.842759013,10.27830791,-0.06261868,-0.0021317,-0.009059724,-19,45,88,16,-3
1,1693677622738072900,1.024718285,-0.843956113,10.27471638,-0.062485453,-0.0021317,-0.009192956,-17,51,90,11,-6
2,1693677622739072900,1.023521185,-0.842759013,10.26873112,-0.062485453,-0.001998469,-0.009059724,-17,51,96,12,-9
3,1693677622740072900,1.021126986,-0.842759013,10.26633644,-0.062485453,-0.001998469,-0.008926493,-22,49,91,14,-2
4,1693677622741072900,1.023521185,-0.845153213,10.26633644,-0.062485453,-0.001998469,-0.008793262,-22,45,90,13,-2
0,1693677622801059500,1.019929886,-0.842759013,10.28070164,-0.062085759,-0.001865237,-0.008660031,-20,46,90,15,-2
1,1693677622802059500,1.019929886,-0.840364814,10.28189945,-0.062218986,-0.001732006,-0.008660031,-18,49,90,13,-5
2,1693677622803059500,1.022324085,-0.842759013,10.27591324,-0.062218986,-0.001598775,-0.008793262,-17,47,84,13,-4
3,1693677622804059500,1.022324085,-0.840364814,10.27591324,-0.062218986,-0.001732006,-0.008660031,-22,50,90,12,-4
4,1693677622805059500,1.025915384,-0.840364814,10.27950478,-0.062352221,-0.001732006,-0.008793262,-24,48,90,12,-6
0,1693677622855245800,1.029506683,-0.846350312,10.26873112,-0.062485453,-0.001465544,-0.008793262,-12,51,88,13,-3
1,1693677622856245800,1.030703783,-0.849941611,10.26513958,-0.062485453,-0.001598775,-0.008926493,-15,47,91,13,-2
2,1693677622857245800,1.031900883,-0.851138711,10.26274586,-0.062485453,-0.001598775,-0.008793262,-16,49,90,13,-2
3,1693677622858245800,1.028309584,-0.849941611,10.26633644,-0.062352221,-0.001332312,-0.008793262,-20,51,89,8,-8
4,1693677622859245800,1.028309584,-0.847547412,10.26753426,-0.062218986,-0.001465544,-0.008793262,-16,42,91,13,-4
0,1693677622938194300,1.023521185,-0.849941611,10.25795746,-0.062485453,-0.001598775,-0.008926493,-19,50,91,13,-3
1,1693677622939194300,1.023521185,-0.849941611,10.26394272,-0.06261868,-0.001732006,-0.009059724,-17,51,91,16,-2
2,1693677622940194300,1.024718285,-0.847547412,10.26513958,-0.06261868,-0.001598775,-0.009059724,-17,50,90,11,-5
3,1693677622941194300,1.025915384,-0.849941611,10.26513958,-0.062485453,-0.001598775,-0.008926493,-18,48,90,10,-4
4,1693677622942194300,1.027112484,-0.85353291,10.26753426,-0.062751912,-0.001598775,-0.008926493,-30,49,90,10,-7
0,1693677622999162800,1.024718285,-0.839167714,10.25675964,-0.06261868,-0.001598775,-0.008660031,-18,50,92,14,-5
1,1693677623000162800,1.027112484,-0.840364814,10.25795746,-0.062485453,-0.001598775,-0.008660031,-17,47,90,14,-4
2,1693677623001162800,1.028309584,-0.840364814,10.25556278,-0.062485453,-0.001732006,-0.008660031,-19,49,85,13,-5
3,1693677623002162800,1.027112484,-0.843956113,10.25675964,-0.06261868,-0.001465544,-0.008926493,-20,47,87,12,-8
4,1693677623003162800,1.028309584,-0.841561913,10.25316906,-0.062485453,-0.001465544,-0.008926493,-22,44,89,13,-12
0,1693677623061123400,1.025915384,-0.849941611,10.26394272,-0.062485453,-0.001998469,-0.008260337,-15,52,89,13,-3
1,1693677623062123400,1.023521185,-0.846350312,10.26753426,-0.062485453,-0.001998469,-0.008393568,-18,53,90,10,-3
2,1693677623063123400,1.024718285,-0.846350312,10.26873112,-0.062352221,-0.001998469,-0.008393568,-17,47,90,13,-6
3,1693677623064123400,1.027112484,-0.846350312,10.27471638,-0.062352221,-0.0021317,-0.008260337,-20,42,88,9,-5
4,1693677623065123400,1.023521185,-0.847547412,10.27950478,-0.062218986,-0.0021317,-0.008260337,-16,45,92,13,-7
0,1693677623144075800,1.030703783,-0.857124209,10.26992798,-0.062352221,-0.0021317,-0.008260337,-21,47,90,11,-7
1,1693677623145075800,1.030703783,-0.85473001,10.26753426,-0.062352221,-0.0021317,-0.008127105,-24,45,90,12,-4
2,1693677623146075800,1.029506683,-0.85353291,10.26992798,-0.062218986,-0.0021317,-0.008127105,-29,44,89,15,-13
3,1693677623147075800,1.031900883,-0.851138711,10.26633644,-0.062352221,-0.001865237,-0.008127105,-23,44,90,9,-3
4,1693677623148075800,1.035492182,-0.848744512,10.26753426,-0.062352221,-0.001998469,-0.008127105,-19,49,90,13,-5
0,1693677623253620000,1.024718285,-0.847547412,10.26873112,-0.06261868,-0.002264931,-0.008660031,-20,53,89,12,-3
1,1693677623254620000,1.025915384,-0.846350312,10.26513958,-0.062751912,-0.002264931,-0.008660031,-1,65,108,32,17
2,1693677623255620000,1.027112484,-0.848744512,10.26633644,-0.06261868,-0.002398162,-0.008793262,-20,45,89,13,-5
3,1693677623256620000,1.029506683,-0.847547412,10.26274586,-0.06261868,-0.002398162,-0.008926493,6,66,115,30,14
4,1693677623257620000,1.031900883,-0.851138711,10.26035118,-0.06261868,-0.002264931,-0.009059724,-18,47,90,10,-5
0,1693677623278609500,1.021126986,-0.849941611,10.27711105,-0.062218986,-0.001998469,-0.008526799,-18,50,90,13,-1
1,1693677623279609500,1.021126986,-0.848744512,10.27950478,-0.062218986,-0.0021317,-0.008526799,-19,42,87,13,-1
2,1693677623280609500,1.022324085,-0.849941611,10.28070164,-0.062218986,-0.0021317,-0.008660031,-19,46,90,13,-5
3,1693677623281609500,1.021126986,-0.848744512,10.27351952,-0.062352221,-0.001998469,-0.008660031,-22,49,90,13,-2
4,1693677623282609500,1.018732786,-0.851138711,10.27112484,-0.062352221,-0.001865237,-0.008793262,-20,43,88,14,-2
0,1693677623350564000,1.018732786,-0.845153213,10.26992798,-0.062751912,-0.0021317,-0.008926493,-22,43,90,13,-5
1,1693677623351564000,1.015141487,-0.846350312,10.26633644,-0.06261868,-0.001998469,-0.008793262,-17,48,89,10,-9
2,1693677623352564000,1.012747288,-0.846350312,10.26154804,-0.06261868,-0.001998469,-0.008660031,-18,47,91,4,-5
3,1693677623353564000,1.011550188,-0.846350312,10.26154804,-0.062352221,-0.001998469,-0.008660031,-19,49,91,13,-2
4,1693677623354564000,1.013944387,-0.843956113,10.26035118,-0.062485453,-0.001865237,-0.008660031,-20,54,89,4,3
0,1693677623412552800,1.025915384,-0.846350312,10.26154804,-0.062485453,-0.001998469,-0.008793262,-20,45,90,12,-4
1,1693677623413552800,1.025915384,-0.847547412,10.26394272,-0.06261868,-0.001998469,-0.008793262,-29,35,88,13,-4
2,1693677623414552800,1.023521185,-0.852335811,10.26633644,-0.062485453,-0.001998469,-0.008526799,-17,45,90,15,-4
3,1693677623415552800,1.019929886,-0.852335811,10.26394272,-0.06261868,-0.001998469,-0.008660031,-18,53,92,15,-7
4,1693677623416552800,1.018732786,-0.851138711,10.25675964,-0.06261868,-0.001865237,-0.008660031,-16,49,90,22,-12
0,1693677623469500200,1.029506683,-0.843956113,10.26992798,-0.062218986,-0.001732006,-0.008926493,-18,53,90,11,-5
1,1693677623470500200,1.028309584,-0.845153213,10.26513958,-0.062218986,-0.001732006,-0.008926493,-20,50,89,10,-8
2,1693677623471500200,1.029506683,-0.847547412,10.27112484,-0.062218986,-0.001732006,-0.008793262,-24,46,90,13,-4
3,1693677623472500200,1.029506683,-0.845153213,10.27112484,-0.062485453,-0.001732006,-0.008660031,-19,49,91,13,-3
4,1693677623473500200,1.028309584,-0.848744512,10.27351952,-0.062485453,-0.001732006,-0.008793262,-20,46,90,13,-3
0,1693677623533462200,1.016338587,-0.845153213,10.26274586,-0.062485453,-0.001865237,-0.009326187,-18,46,88,10,-11
1,1693677623534462200,1.018732786,-0.846350312,10.26513958,-0.06261868,-0.001998469,-0.009326187,-19,47,85,10,-3
2,1693677623535462200,1.022324085,-0.845153213,10.26513958,-0.06261868,-0.0021317,-0.009192956,-17,43,91,13,-3
3,1693677623536462200,1.021126986,-0.842759013,10.26753426,-0.06261868,-0.001998469,-0.009059724,-17,50,93,13,0
4,1693677623537462200,1.021126986,-0.842759013,10.27112484,-0.062485453,-0.001998469,-0.009059724,-20,48,89,15,-4
0,1693677623615415900,1.010353088,-0.845153213,10.26035118,-0.063151613,-0.001998469,-0.008926493,-24,43,85,13,-5
1,1693677623616415900,1.009155989,-0.842759013,10.26394272,-0.062885143,-0.001598775,-0.008793262,-21,50,89,13,-4
2,1693677623617415900,1.012747288,-0.845153213,10.26394272,-0.063151613,-0.001732006,-0.008793262,-16,48,90,16,-4
3,1693677623618415900,1.018732786,-0.846350312,10.27351952,-0.06261868,-0.001332312,-0.008793262,-19,46,91,13,-5
4,1693677623619415900,1.017535686,-0.846350312,10.27112484,-0.062751912,-0.001465544,-0.008926493,-21,50,90,13,-2
0,1693677623672379900,1.029506683,-0.849941611,10.27711105,-0.062085759,-0.001199081,-0.008526799,-21,49,92,12,-2
1,1693677623673379900,1.024718285,-0.848744512,10.26753426,-0.062352221,-0.00106585,-0.008660031,-16,47,91,13,-3
2,1693677623674379900,1.023521185,-0.851138711,10.26394272,-0.062885143,-0.001732006,-0.008393568,-20,46,89,13,1
3,1693677623675379900,1.021126986,-0.851138711,10.26633644,-0.062885143,-0.001998469,-0.008393568,-17,48,92,15,-1
4,1693677623676379900,1.024718285,-0.852335811,10.26753426,-0.06261868,-0.001865237,-0.008393568,-21,50,87,13,-3
0,1693677623754333300,1.022324085,-0.845153213,10.26633644,-0.06261868,-0.001732006,-0.008660031,-17,48,92,13,-2
1,1693677623755333300,1.021126986,-0.845153213,10.26035118,-0.06261868,-0.001732006,-0.008393568,-19,47,90,13,-7
2,1693677623756333300,1.022324085,-0.846350312,10.26035118,-0.06261868,-0.001598775,-0.008393568,-21,47,92,13,-1
3,1693677623757333300,1.024718285,-0.848744512,10.26035118,-0.06261868,-0.001732006,-0.008526799,-16,47,89,13,-3
4,1693677623758333300,1.025915384,-0.843956113,10.25675964,-0.062751912,-0.001865237,-0.008393568,-22,41,91,13,-10
0,1693677623812301200,1.022324085,-0.843956113,10.28070164,-0.062485453,-0.0021317,-0.008926493,-20,47,88,13,-5
1,1693677623813301200,1.022324085,-0.843956113,10.27471638,-0.062485453,-0.0021317,-0.008793262,-16,42,91,14,-1
2,1693677623814301200,1.022324085,-0.842759013,10.27711105,-0.062352221,-0.0021317,-0.008660031,-21,46,92,9,-1
3,1693677623815301200,1.024718285,-0.842759013,10.27351952,-0.062352221,-0.001998469,-0.008660031,-18,47,91,14,-3
4,1693677623816301200,1.025915384,-0.841561913,10.26633644,-0.062485453,-0.001998469,-0.008526799,-20,42,93,12,-4
0,1693677623882260600,1.023521185,-0.848744512,10.27591324,-0.06261868,-0.001732006,-0.008660031,-24,48,90,13,-2
1,1693677623883260600,1.023521185,-0.846350312,10.27232265,-0.06261868,-0.001732006,-0.008526799,-19,57,90,14,-2
2,1693677623884260600,1.023521185,-0.847547412,10.27351952,-0.062485453,-0.001732006,-0.008526799,-18,47,88,11,-5
3,1693677623885260600,1.022324085,-0.847547412,10.26873112,-0.062485453,-0.001598775,-0.008793262,-20,47,92,12,-2
4,1693677623886260600,1.021126986,-0.846350312,10.27351952,-0.062352221,-0.001465544,-0.008793262,-19,45,87,10,-15
0,1693677623955242400,1.017535686,-0.841561913,10.28070164,-0.062352221,-0.001732006,-0.008660031,-18,47,90,13,-2
1,1693677623956242400,1.017535686,-0.840364814,10.27351952,-0.062218986,-0.001732006,-0.008526799,-16,49,87,16,-4
2,1693677623957242400,1.017535686,-0.842759013,10.26992798,-0.062218986,-0.001732006,-0.008526799,-20,51,90,13,-7
3,1693677623958242400,1.019929886,-0.842759013,10.27112484,-0.062218986,-0.001865237,-0.008660031,-23,45,90,7,-6
4,1693677623959242400,1.022324085,-0.848744512,10.26753426,-0.062218986,-0.001998469,-0.008526799,-26,47,88,13,-1
0,1693677624033172900,1.021126986,-0.85473001,10.26513958,-0.062485453,-0.001732006,-0.008393568,-17,49,90,13,-2
1,1693677624034172900,1.019929886,-0.85473001,10.26274586,-0.062485453,-0.001598775,-0.008393568,-18,44,90,13,-2
2,1693677624035172900,1.021126986,-0.849941611,10.26394272,-0.062485453,-0.001865237,-0.008526799,-19,47,89,12,-4
3,1693677624036172900,1.019929886,-0.849941611,10.26513958,-0.06261868,-0.001865237,-0.008526799,-19,47,88,11,-5
4,1693677624037172900,1.018732786,-0.851138711,10.26274586,-0.062485453,-0.001865237,-0.008526799,-24,49,90,13,-3
0,1693677624090145200,1.031900883,-0.847547412,10.27232265,-0.062751912,-0.001732006,-0.008660031,-17,53,90,13,-6
1,1693677624091145200,1.034295082,-0.848744512,10.27591324,-0.062751912,-0.001598775,-0.008660031,-16,51,91,12,-1
2,1693677624092145200,1.034295082,-0.848744512,10.27950478,-0.06261868,-0.001598775,-0.008526799,-18,46,85,13,-3
3,1693677624093145200,1.033097982,-0.847547412,10.28189945,-0.06261868,-0.001598775,-0.008260337,-12,49,87,13,-8
4,1693677624094145200,1.031900883,-0.845153213,10.28070164,-0.062885143,-0.001465544,-0.008260337,-21,47,92,9,-4
0,1693677624149109500,1.023521185,-0.847547412,10.27711105,-0.062352221,-0.001598775,-0.008926493,-21,52,90,13,-2
1,1693677624150109500,1.025915384,-0.849941611,10.27471638,-0.062485453,-0.001598775,-0.009059724,-24,48,84,13,-3
2,1693677624151109500,1.019929886,-0.846350312,10.27232265,-0.062485453,-0.001598775,-0.008926493,-17,42,89,13,-7
3,1693677624152109500,1.021126986,-0.847547412,10.27112484,-0.062352221,-0.001732006,-0.008926493,-20,51,91,18,-5
4,1693677624153109500,1.023521185,-0.847547412,10.26992798,-0.062352221,-0.001732006,-0.008793262,-19,45,89,13,-3
0,1693677624233080900,1.021126986,-0.842759013,10.26753426,-0.062485453,-0.001865237,-0.008660031,-14,49,90,13,-3
1,1693677624234080900,1.019929886,-0.839167714,10.27830791,-0.062485453,-0.001732006,-0.008660031,-20,48,90,14,-2
2,1693677624235080900,1.019929886,-0.836773515,10.27950478,-0.062352221,-0.001732006,-0.008660031,-20,33,95,14,-3
3,1693677624236080900,1.018732786,-0.839167714,10.27830791,-0.062352221,-0.001865237,-0.008660031,-18,53,92,13,-2
4,1693677624237080900,1.018732786,-0.837970614,10.27351952,-0.062485453,-0.001865237,-0.008526799,-15,64,90,14,0
0,1693677624299023000,1.024718285,-0.846350312,10.26394272,-0.062485453,-0.001732006,-0.008793262,-17,43,91,13,-5
1,1693677624300023000,1.023521185,-0.841561913,10.26633644,-0.06261868,-0.001598775,-0.008793262,-17,43,94,13,-4
2,1693677624301023000,1.024718285,-0.843956113,10.26753426,-0.062751912,-0.001598775,-0.008793262,-19,45,90,12,-4
3,1693677624302023000,1.024718285,-0.843956113,10.26513958,-0.06261868,-0.001598775,-0.008660031,-18,49,89,13,-7
4,1693677624303023000,1.024718285,-0.846350312,10.26992798,-0.06261868,-0.001598775,-0.008526799,-19,51,87,13,-2
0,1693677624349992600,1.019929886,-0.841561913,10.27711105,-0.062352221,-0.001598775,-0.008526799,-22,45,86,11,-7
1,1693677624350992600,1.021126986,-0.842759013,10.27950478,-0.062218986,-0.001598775,-0.008393568,-23,48,92,18,-1
2,1693677624351992600,1.018732786,-0.841561913,10.28070164,-0.062218986,-0.001732006,-0.008393568,-14,51,90,13,-3
3,1693677624352992600,1.016338587,-0.841561913,10.27711105,-0.062352221,-0.001865237,-0.008660031,-16,45,93,10,-3
4,1693677624353992600,1.017535686,-0.845153213,10.27711105,-0.062485453,-0.001865237,-0.008660031,-14,54,90,11,-3
0,1693677624431947200,1.022324085,-0.848744512,10.27351952,-0.063018374,-0.001732006,-0.009059724,-20,47,90,12,-7
1,1693677624432947200,1.024718285,-0.849941611,10.26992798,-0.063018374,-0.001732006,-0.009059724,-19,51,90,13,1
2,1693677624433947200,1.023521185,-0.849941611,10.26633644,-0.063018374,-0.001598775,-0.008926493,-22,49,90,14,-5
3,1693677624434947200,1.025915384,-0.851138711,10.26274586,-0.062751912,-0.001465544,-0.008926493,-16,58,85,14,-2
4,1693677624435947200,1.023521185,-0.849941611,10.26035118,-0.062751912,-0.001465544,-0.008793262,-18,47,89,12,-8
0,1693677624495907800,1.021126986,-0.846350312,10.27351952,-0.062352221,-0.001732006,-0.008793262,-28,45,90,14,-4
1,1693677624496907800,1.022324085,-0.846350312,10.27351952,-0.062485453,-0.001732006,-0.008660031,-19,49,90,13,-4
2,1693677624497907800,1.023521185,-0.846350312,10.27351952,-0.062485453,-0.001998469,-0.008660031,-14,52,90,12,-2
3,1693677624498907800,1.022324085,-0.847547412,10.26513958,-0.062218986,-0.0021317,-0.008526799,-15,46,90,14,-9
4,1693677624499907800,1.021126986,-0.845153213,10.26633644,-0.062218986,-0.0021317,-0.008393568,-16,43,87,13,-2
0,1693677624564871400,1.027112484,-0.846350312,10.27830791,-0.062352221,-0.001865237,-0.008660031,-19,43,90,9,-8
1,1693677624565871400,1.024718285,-0.848744512,10.27112484,-0.062352221,-0.001865237,-0.008526799,-18,46,89,13,-1
2,1693677624566871400,1.022324085,-0.849941611,10.27112484,-0.062218986,-0.001732006,-0.008393568,-17,53,90,2,-3
3,1693677624567871400,1.024718285,-0.848744512,10.26873112,-0.062485453,-0.001732006,-0.008393568,-22,41,90,13,-6
4,1693677624568871400,1.027112484,-0.848744512,10.26513958,-0.062485453,-0.001865237,-0.008526799,-19,53,87,14,-3
0,1693677624638825600,1.022324085,-0.848744512,10.26035118,-0.062352221,-0.001998469,-0.008526799,-22,45,90,13,-4
1,1693677624639825600,1.019929886,-0.848744512,10.25675964,-0.062352221,-0.001998469,-0.008526799,-18,48,89,10,-4
2,1693677624640825600,1.018732786,-0.851138711,10.25316906,-0.062352221,-0.001865237,-0.008526799,-20,53,99,14,-3
3,1693677624641825600,1.018732786,-0.851138711,10.25197124,-0.062218986,-0.001865237,-0.008526799,-16,45,90,13,-2
4,1693677624642825600,1.019929886,-0.848744512,10.25197124,-0.062218986,-0.001865237,-0.008526799,-17,48,89,10,-3
0,1693677624705810200,1.015141487,-0.848744512,10.27232265,-0.06261868,-0.001998469,-0.008660031,-15,46,92,13,-6
1,1693677624706810200,1.016338587,-0.845153213,10.27232265,-0.06261868,-0.0021317,-0.008793262,-17,50,90,12,-2
2,1693677624707810200,1.018732786,-0.841561913,10.27591324,-0.06261868,-0.0021317,-0.008660031,-24,54,90,13,-2
3,1693677624708810200,1.021126986,-0.841561913,10.27591324,-0.062751912,-0.001998469,-0.008793262,-20,49,87,13,-4
4,1693677624709810200,1.023521185,-0.842759013,10.27830791,-0.062751912,-0.0021317,-0.008793262,-22,44,90,12,-3
0,1693677624766752500,1.027112484,-0.857124209,10.26394272,-0.062751912,-0.0021317,-0.009059724,-15,51,91,12,-4
1,1693677624767752500,1.027112484,-0.85592711,10.25795746,-0.062751912,-0.0021317,-0.009059724,-17,47,77,16,-1
2,1693677624768752500,1.027112484,-0.851138711,10.25915432,-0.062751912,-0.0021317,-0.009059724,-19,49,90,13,-2
3,1693677624769752500,1.027112484,-0.849941611,10.25556278,-0.062485453,-0.001998469,-0.009059724,-20,43,90,11,-3
4,1693677624770752500,1.025915384,-0.847547412,10.26035118,-0.062485453,-0.0021317,-0.009192956,-18,51,87,14,-2
0,1693677624841713200,1.021126986,-0.851138711,10.25077438,-0.061819296,-0.001732006,-0.008793262,-19,47,89,13,-4
1,1693677624842713200,1.021126986,-0.851138711,10.25556278,-0.061819296,-0.001865237,-0.008793262,-15,46,90,14,0
2,1693677624843713200,1.023521185,-0.85353291,10.25436592,-0.061952524,-0.001865237,-0.008793262,-23,48,90,14,-2
3,1693677624844713200,1.023521185,-0.85473001,10.25795746,-0.061952524,-0.001865237,-0.008526799,-26,47,86,12,-4
4,1693677624845713200,1.027112484,-0.85353291,10.25915432,-0.062085759,-0.001865237,-0.008526799,-26,47,90,12,-5
0,1693677624907671600,1.024718285,-0.852335811,10.26513958,-0.062218986,-0.001732006,-0.009192956,-16,52,87,11,-3
1,1693677624908671600,1.024718285,-0.849941611,10.26274586,-0.062218986,-0.001598775,-0.009059724,-18,47,88,8,-6
2,1693677624909671600,1.023521185,-0.848744512,10.26513958,-0.062485453,-0.001598775,-0.009059724,-20,49,91,9,-4
3,1693677624910671600,1.021126986,-0.852335811,10.26394272,-0.062485453,-0.001465544,-0.009059724,-26,47,90,13,-11
4,1693677624911671600,1.023521185,-0.849941611,10.25675964,-0.062352221,-0.001332312,-0.008926493,-26,43,90,13,-5
0,1693677624979631400,1.028309584,-0.847547412,10.27232265,-0.062352221,-0.001598775,-0.008660031,-14,50,91,13,-1
1,1693677624980631400,1.031900883,-0.847547412,10.27112484,-0.062352221,-0.001598775,-0.008660031,-22,45,91,13,-3
2,1693677624981631400,1.031900883,-0.847547412,10.27232265,-0.062218986,-0.001598775,-0.008793262,-18,43,90,12,-7
3,1693677624982631400,1.035492182,-0.848744512,10.27112484,-0.062085759,-0.001598775,-0.008660031,-21,51,89,13,-5
4,1693677624983631400,1.036689281,-0.849941611,10.26633644,-0.062085759,-0.001732006,-0.008793262,-23,43,94,13,-7
0,1693677625049593700,1.017535686,-0.848744512,10.26753426,-0.062352221,-0.0021317,-0.008793262,-23,46,88,16,-3
1,1693677625050593700,1.016338587,-0.849941611,10.26753426,-0.062218986,-0.002264931,-0.008793262,-26,45,90,13,-5
2,1693677625051593700,1.016338587,-0.85353291,10.27471638,-0.062218986,-0.0021317,-0.008793262,-20,44,90,13,-8
3,1693677625052593700,1.016338587,-0.85473001,10.27711105,-0.062218986,-0.0021317,-0.008926493,-18,50,89,13,-5
4,1693677625053593700,1.016338587,-0.85473001,10.27950478,-0.062218986,-0.002264931,-0.008793262,-18,49,90,13,-4
0,1693677625110555500,1.025915384,-0.849941611,10.28189945,-0.062218986,-0.001998469,-0.008260337,-20,49,90,13,0
1,1693677625111555500,1.021126986,-0.851138711,10.28429317,-0.062352221,-0.001998469,-0.008393568,-20,47,88,9,-2
2,1693677625112555500,1.023521185,-0.848744512,10.28309631,-0.062485453,-0.001998469,-0.008526799,-20,42,93,9,-5
3,1693677625113555500,1.023521185,-0.847547412,10.28309631,-0.062485453,-0.0021317,-0.008526799,-15,49,90,11,-2
4,1693677625114555500,1.023521185,-0.846350312,10.28189945,-0.062485453,-0.001998469,-0.008526799,-22,46,92,18,-3
0,1693677625165523900,1.021126986,-0.843956113,10.26394272,-0.062485453,-0.001332312,-0.008526799,-20,50,90,13,-7
1,1693677625166523900,1.021126986,-0.846350312,10.26873112,-0.06261868,-0.001332312,-0.008526799,-19,43,89,13,-6
2,1693677625167523900,1.022324085,-0.845153213,10.26753426,-0.06261868,-0.001465544,-0.008660031,-24,43,90,13,-7
3,1693677625168523900,1.022324085,-0.842759013,10.26873112,-0.062485453,-0.001465544,-0.008526799,-16,47,90,13,-3
4,1693677625169523900,1.018732786,-0.840364814,10.27112484,-0.062485453,-0.001598775,-0.008393568,-22,55,90,15,-5
0,1693677625282456600,1.015141487,-0.841561913,10.26753426,-0.062352221,-0.001598775,-0.008793262,-23,45,87,12,8
1,1693677625283456600,1.013944387,-0.842759013,10.26992798,-0.06261868,-0.001598775,-0.008793262,-3,66,111,31,16
2,1693677625284456600,1.017535686,-0.841561913,10.27351952,-0.062485453,-0.001598775,-0.008793262,-19,48,90,10,-5
3,1693677625285456600,1.021126986,-0.842759013,10.27351952,-0.06261868,-0.001732006,-0.008926493,-2,64,92,13,-4
4,1693677625286456600,1.019929886,-0.845153213,10.27232265,-0.062485453,-0.001732006,-0.008926493,-16,45,90,13,-2
0,1693677625314438200,1.019929886,-0.840364814,10.27711105,-0.062218986,-0.001598775,-0.008926493,-20,41,88,12,-5
1,1693677625315438200,1.021126986,-0.840364814,10.27591324,-0.062218986,-0.001598775,-0.008793262,-24,43,94,13,-14
2,1693677625316438200,1.018732786,-0.841561913,10.27471638,-0.062085759,-0.001598775,-0.008660031,-21,49,91,13,-2
3,1693677625317438200,1.016338587,-0.840364814,10.27830791,-0.062218986,-0.001598775,-0.008526799,-14,51,90,13,-2
4,1693677625318438200,1.013944387,-0.842759013,10.27830791,-0.062218986,-0.001465544,-0.008526799,-18,50,90,15,-2
0,1693677625381402700,1.022324085,-0.842759013,10.27112484,-0.062485453,-0.001598775,-0.008926493,-19,41,84,10,-13
1,1693677625382402700,1.022324085,-0.841561913,10.26992798,-0.06261868,-0.001598775,-0.008926493,-22,45,88,13,-2
2,1693677625383402700,1.022324085,-0.845153213,10.26394272,-0.06261868,-0.001732006,-0.009059724,-22,46,90,13,0
3,1693677625384402700,1.024718285,-0.841561913,10.26154804,-0.06261868,-0.001732006,-0.009059724,-16,51,99,16,-2
4,1693677625385402700,1.025915384,-0.842759013,10.26154804,-0.06261868,-0.001998469,-0.009059724,-20,46,89,8,-6
0,1693677625454359000,1.018732786,-0.858321309,10.26633644,-0.062751912,-0.001998469,-0.008926493,-11,45,91,14,-5
1,1693677625455359000,1.019929886,-0.85592711,10.26633644,-0.062751912,-0.001865237,-0.008926493,-13,45,90,10,-2
2,1693677625456359000,1.022324085,-0.857124209,10.26394272,-0.06261868,-0.001598775,-0.008926493,-17,50,89,11,-3
3,1693677625457359000,1.019929886,-0.85473001,10.25915432,-0.062485453,-0.001732006,-0.008926493,-18,43,88,13,-2
4,1693677625458359000,1.016338587,-0.85353291,10.26035118,-0.06261868,-0.001732006,-0.009059724,-23,49,89,13,-6
0,1693677625521323900,1.015141487,-0.852335811,10.27351952,-0.062352221,-0.001865237,-0.008926493,-22,47,93,10,-8
1,1693677625522323900,1.017535686,-0.85473001,10.27112484,-0.062352221,-0.001998469,-0.008926493,-21,50,90,13,-4
2,1693677625523323900,1.015141487,-0.857124209,10.26992798,-0.062352221,-0.001865237,-0.009059724,-16,43,92,13,-3
3,1693677625524323900,1.015141487,-0.857124209,10.26992798,-0.062352221,-0.001865237,-0.009059724,-16,41,90,13,-3
4,1693677625525323900,1.013944387,-0.85592711,10.26873112,-0.062485453,-0.001865237,-0.009059724,-15,50,92,12,-5
0,1693677625578288000,1.019929886,-0.849941611,10.26873112,-0.062885143,-0.001332312,-0.008660031,-20,58,90,13,-5
1,1693677625579288000,1.019929886,-0.849941611,10.27112484,-0.062885143,-0.001199081,-0.008660031,-18,43,91,14,-3
2,1693677625580288000,1.021126986,-0.851138711,10.27112484,-0.062885143,-0.001332312,-0.008660031,-13,51,93,10,-2
3,1693677625581288000,1.019929886,-0.849941611,10.26753426,-0.062751912,-0.001332312,-0.008793262,-24,44,90,13,-4
4,1693677625582288000,1.017535686,-0.846350312,10.26753426,-0.06261868,-0.001465544,-0.008660031,-20,43,91,14,-10
0,1693677625636254600,1.023521185,-0.852335811,10.26154804,-0.062485453,-0.001332312,-0.008793262,-16,49,88,13,-1
1,1693677625637254600,1.021126986,-0.85353291,10.26513958,-0.062352221,-0.001598775,-0.008926493,-17,51,90,14,-5
2,1693677625638254600,1.024718285,-0.849941611,10.26513958,-0.062218986,-0.001465544,-0.008793262,-21,49,90,12,-5
3,1693677625639254600,1.024718285,-0.849941611,10.26633644,-0.062218986,-0.001732006,-0.008793262,-22,51,84,11,-10
4,1693677625640254600,1.027112484,-0.849941611,10.26633644,-0.062218986,-0.001865237,-0.008926493,-20,45,90,10,-4
0,1693677625722204700,1.017535686,-0.846350312,10.25556278,-0.062352221,-0.001998469,-0.008926493,-22,46,92,13,-5
1,1693677625723204700,1.021126986,-0.845153213,10.25197124,-0.062352221,-0.001865237,-0.008926493,-16,43,93,13,-5
2,1693677625724204700,1.022324085,-0.843956113,10.25077438,-0.062218986,-0.001998469,-0.009059724,-20,54,89,14,-4
3,1693677625725204700,1.022324085,-0.845153213,10.24838066,-0.062218986,-0.001865237,-0.009059724,-21,43,96,13,-5
4,1693677625726204700,1.023521185,-0.842759013,10.25197124,-0.062352221,-0.001865237,-0.008793262,-24,51,91,10,-3
0,1693677625782172600,1.021126986,-0.846350312,10.27471638,-0.062751912,-0.001998469,-0.008660031,-16,53,90,18,-3
1,1693677625783172600,1.022324085,-0.843956113,10.27351952,-0.062751912,-0.0021317,-0.008660031,-20,45,90,13,-5
2,1693677625784172600,1.023521185,-0.846350312,10.27112484,-0.062885143,-0.0021317,-0.008660031,-27,48,90,11,-5
3,1693677625785172600,1.023521185,-0.845153213,10.26992798,-0.062885143,-0.0021317,-0.008660031,-20,47,90,12,-4
4,1693677625786172600,1.022324085,-0.846350312,10.26513958,-0.063018374,-0.0021317,-0.008660031,-20,52,91,15,-2
0,1693677625891108000,1.019929886,-0.846350312,10.26753426,-0.062485453,-0.001598775,-0.008793262,-20,46,89,13,-5
1,1693677625892108000,1.019929886,-0.845153213,10.26753426,-0.06261868,-0.001865237,-0.008793262,-22,45,90,11,-3
2,1693677625893108000,1.022324085,-0.845153213,10.26873112,-0.06261868,-0.001732006,-0.008926493,-20,44,90,11,-3
3,1693677625894108000,1.023521185,-0.845153213,10.26633644,-0.06261868,-0.001732006,-0.008926493,-20,41,89,12,-3
4,1693677625895108000,1.023521185,-0.846350312,10.26274586,-0.062485453,-0.001732006,-0.009059724,-24,47,91,10,-2
0,1693677625996049600,1.023521185,-0.845153213,10.27591324,-0.062352221,-0.002398162,-0.009192956,-22,48,89,15,-12
1,1693677625997049600,1.027112484,-0.845153213,10.27591324,-0.062352221,-0.002398162,-0.009326187,-3,67,112,11,-1
2,1693677625998049600,1.027112484,-0.846350312,10.27591324,-0.062218986,-0.002264931,-0.009326187,-27,46,88,19,-17
3,1693677625999049600,1.027112484,-0.845153213,10.27232265,-0.062085759,-0.002264931,-0.009192956,-20,41,90,13,-3
4,1693677626000049600,1.024718285,-0.846350312,10.26873112,-0.062085759,-0.0021317,-0.009059724,-17,47,92,16,-3
0,1693677626018035800,1.022324085,-0.85592711,10.27232265,-0.062751912,-0.001732006,-0.008926493,-21,46,90,13,-7
1,1693677626019035800,1.024718285,-0.85353291,10.26513958,-0.062751912,-0.001598775,-0.009059724,-20,50,90,13,-3
2,1693677626020035800,1.021126986,-0.85353291,10.26394272,-0.062751912,-0.001598775,-0.008793262,-22,48,90,13,-2
3,1693677626021035800,1.016338587,-0.85592711,10.26394272,-0.06261868,-0.001732006,-0.008926493,-21,47,90,11,-5
4,1693677626022035800,1.015141487,-0.85473001,10.26992798,-0.062751912,-0.001865237,-0.008926493,-19,51,92,14,-2
0,1693677626072004600,1.021126986,-0.849941611,10.26633644,-0.062485453,-0.001732006,-0.008926493,-18,49,90,12,-6
1,1693677626073004600,1.021126986,-0.847547412,10.26873112,-0.06261868,-0.001732006,-0.008793262,-23,48,91,16,-4
2,1693677626074004600,1.019929886,-0.847547412,10.26992798,-0.06261868,-0.001732006,-0.008793262,-14,44,90,13,-5
3,1693677626075004600,1.018732786,-0.847547412,10.26753426,-0.062485453,-0.001598775,-0.008793262,-20,48,90,12,-1
4,1693677626076004600,1.021126986,-0.847547412,10.26394272,-0.06261868,-0.001465544,-0.008793262,-16,46,92,13,-2
0,1693677626125977300,1.023521185,-0.846350312,10.26513958,-0.062218986,-0.001998469,-0.008660031,-18,48,90,13,-2
1,1693677626126977300,1.022324085,-0.846350312,10.26035118,-0.062352221,-0.001865237,-0.008526799,-20,45,90,12,1
2,1693677626127977300,1.019929886,-0.847547412,10.25915432,-0.062085759,-0.001998469,-0.008393568,-16,48,90,13,-5
3,1693677626128977300,1.022324085,-0.848744512,10.26035118,-0.062218986,-0.001865237,-0.008526799,-17,51,90,13,-6
4,1693677626129977300,1.022324085,-0.847547412,10.26394272,-0.062218986,-0.001865237,-0.008660031,-19,48,90,10,-2
0,1693677626191935900,1.019929886,-0.860715508,10.25915432,-0.06261868,-0.001465544,-0.008393568,-19,47,85,13,-12
1,1693677626192935900,1.019929886,-0.859518409,10.25556278,-0.062485453,-0.001465544,-0.008526799,-21,44,87,12,-2
2,1693677626193935900,1.018732786,-0.861912608,10.25197124,-0.062485453,-0.001732006,-0.008660031,-23,49,93,12,-3
3,1693677626194935900,1.019929886,-0.859518409,10.24957752,-0.062352221,-0.001465544,-0.008793262,-17,43,90,13,-2
4,1693677626195935900,1.018732786,-0.859518409,10.25077438,-0.062218986,-0.001332312,-0.008793262,-16,45,90,13,-7
0,1693677626263643500,1.029506683,-0.847547412,10.26992798,-0.062485453,-0.001332312,-0.008926493,-24,50,88,12,-5
1,1693677626264643500,1.027112484,-0.847547412,10.26633644,-0.062485453,-0.001199081,-0.008793262,-16,42,88,14,-6
2,1693677626265643500,1.027112484,-0.847547412,10.26394272,-0.06261868,-0.001332312,-0.008793262,-22,49,90,12,-3
3,1693677626266643500,1.028309584,-0.849941611,10.26154804,-0.06261868,-0.001332312,-0.008793262,-19,46,90,12,-1
4,1693677626267643500,1.028309584,-0.849941611,10.26513958,-0.06261868,-0.001465544,-0.008660031,-17,48,90,11,-1
0,1693677626326608400,1.024718285,-0.842759013,10.26394272,-0.062485453,-0.001732006,-0.008260337,-11,47,90,13,-6
1,1693677626327608400,1.023521185,-0.845153213,10.26154804,-0.062485453,-0.001732006,-0.008393568,-24,48,92,13,-5
2,1693677626328608400,1.022324085,-0.845153213,10.25795746,-0.062218986,-0.001732006,-0.008393568,-15,51,90,11,-2
3,1693677626329608400,1.022324085,-0.843956113,10.25675964,-0.062218986,-0.001598775,-0.008526799,-17,50,90,4,-3
4,1693677626330608400,1.019929886,-0.841561913,10.25915432,-0.062218986,-0.001598775,-0.008660031,-22,45,89,13,-6
0,1693677626407562100,1.029506683,-0.852335811,10.27711105,-0.062485453,-0.001332312,-0.008526799,-16,47,90,13,-4
1,1693677626408562100,1.028309584,-0.849941611,10.27471638,-0.06261868,-0.001332312,-0.008526799,-22,47,83,11,-3
2,1693677626409562100,1.029506683,-0.849941611,10.27591324,-0.062485453,-0.001465544,-0.008660031,-20,47,87,7,-7
3,1693677626410562100,1.030703783,-0.848744512,10.27711105,-0.06261868,-0.001332312,-0.008660031,-22,39,85,13,-5
4,1693677626411562100,1.028309584,-0.849941611,10.27711105,-0.062485453,-0.001465544,-0.008526799,-21,45,88,13,-8
0,1693677626467099500,1.022324085,-0.845153213,10.26513958,-0.062352221,-0.001865237,-0.008526799,-19,43,90,14,-3
1,1693677626468099500,1.022324085,-0.847547412,10.26394272,-0.062352221,-0.001998469,-0.008526799,-11,47,90,8,-6
2,1693677626469099500,1.023521185,-0.846350312,10.26753426,-0.062352221,-0.001865237,-0.008526799,-21,46,90,0,-5
3,1693677626470099500,1.021126986,-0.846350312,10.27351952,-0.062218986,-0.001998469,-0.008393568,-20,49,89,12,-5
4,1693677626471099500,1.021126986,-0.847547412,10.27711105,-0.062352221,-0.001998469,-0.008393568,-24,58,89,10,-4
0,1693677626532063300,1.018732786,-0.857124209,10.26873112,-0.062485453,-0.001199081,-0.008926493,-20,47,89,13,-3
1,1693677626533063300,1.018732786,-0.859518409,10.26992798,-0.062352221,-0.00106585,-0.008660031,-18,49,85,11,-4
2,1693677626534063300,1.021126986,-0.860715508,10.27112484,-0.062218986,-0.001199081,-0.008793262,-26,47,91,11,-5
3,1693677626535063300,1.021126986,-0.858321309,10.27351952,-0.062352221,-0.001332312,-0.008660031,-27,40,90,3,-8
4,1693677626536063300,1.024718285,-0.858321309,10.27351952,-0.062352221,-0.001332312,-0.008660031,-30,40,90,11,-5
0,1693677626606020400,1.021126986,-0.840364814,10.27232265,-0.062485453,-0.001865237,-0.009059724,-20,51,90,13,-8
1,1693677626607020400,1.022324085,-0.845153213,10.26992798,-0.062485453,-0.001732006,-0.009059724,-27,47,90,13,-5
2,1693677626608020400,1.024718285,-0.845153213,10.26513958,-0.062485453,-0.001865237,-0.009059724,-27,42,90,10,-9
3,1693677626609020400,1.024718285,-0.845153213,10.26633644,-0.062485453,-0.001865237,-0.009059724,-24,41,88,12,-6
4,1693677626610020400,1.023521185,-0.842759013,10.26274586,-0.062485453,-0.0021317,-0.009059724,-26,51,89,12,-4
0,1693677626663677900,1.022324085,-0.848744512,10.26873112,-0.062885143,-0.002264931,-0.008660031,-20,49,97,13,-4
1,1693677626664677900,1.024718285,-0.848744512,10.26873112,-0.062885143,-0.002264931,-0.008793262,-23,50,89,11,-5
2,1693677626665677900,1.024718285,-0.852335811,10.26274586,-0.062885143,-0.002264931,-0.008793262,-22,47,90,11,-9
3,1693677626666677900,1.025915384,-0.852335811,10.25675964,-0.062885143,-0.0021317,-0.008926493,-15,49,89,6,-8
4,1693677626667677900,1.027112484,-0.851138711,10.25795746,-0.062885143,-0.0021317,-0.008793262,-25,43,88,11,-5
0,1693677626744631100,1.023521185,-0.852335811,10.26753426,-0.062218986,-0.001732006,-0.008526799,-20,47,90,13,-4
1,1693677626745631100,1.023521185,-0.849941611,10.26753426,-0.062352221,-0.001732006,-0.008526799,-21,46,89,12,-3
2,1693677626746631100,1.021126986,-0.851138711,10.26633644,-0.062218986,-0.001598775,-0.008793262,-21,49,88,8,-3
3,1693677626747631100,1.023521185,-0.85353291,10.26633644,-0.062352221,-0.001598775,-0.008793262,-20,35,90,12,-7
4,1693677626748631100,1.027112484,-0.852335811,10.26633644,-0.062352221,-0.001598775,-0.008660031,-24,48,90,13,-7
0,1693677626800601100,1.024718285,-0.849941611,10.26753426,-0.062218986,-0.001732006,-0.008926493,-17,43,88,6,0
1,1693677626801601100,1.024718285,-0.848744512,10.26154804,-0.062352221,-0.001598775,-0.008793262,-21,42,91,12,-7
2,1693677626802601100,1.024718285,-0.846350312,10.25675964,-0.062352221,-0.001865237,-0.008660031,-28,41,87,6,-8
3,1693677626803601100,1.022324085,-0.849941611,10.25197124,-0.062485453,-0.001865237,-0.008793262,-26,43,83,12,-7
4,1693677626804601100,1.022324085,-0.843956113,10.24957752,-0.06261868,-0.001865237,-0.008793262,-22,47,90,12,-4
0,1693677626862564500,1.022324085,-0.851138711,10.26035118,-0.06261868,-0.0021317,-0.008793262,-16,43,90,13,-7
1,1693677626863564500,1.023521185,-0.851138711,10.25915432,-0.06261868,-0.0021317,-0.008793262,-26,49,87,8,-8
2,1693677626864564500,1.022324085,-0.851138711,10.25915432,-0.062751912,-0.001998469,-0.008793262,-22,45,90,10,-7
3,1693677626865564500,1.023521185,-0.851138711,10.26035118,-0.062751912,-0.0021317,-0.008793262,-22,43,90,10,-8
4,1693677626866564500,1.024718285,-0.848744512,10.26274586,-0.062751912,-0.0021317,-0.008926493,-4,42,89,13,-3
0,1693677626948514800,1.021126986,-0.859518409,10.28309631,-0.062352221,-0.001199081,-0.009059724,-18,43,90,12,-6
1,1693677626949514800,1.021126986,-0.85473001,10.27950478,-0.062352221,-0.001465544,-0.009192956,-20,42,88,6,-8
2,1693677626950514800,1.021126986,-0.852335811,10.27950478,-0.062352221,-0.001598775,-0.009192956,-28,49,90,8,-5
3,1693677626951514800,1.018732786,-0.847547412,10.27830791,-0.062352221,-0.001598775,-0.009192956,-20,37,85,10,-8
4,1693677626952514800,1.019929886,-0.847547412,10.27950478,-0.062352221,-0.001598775,-0.009192956,-20,47,91,13,-2
0,1693677627008481400,1.022324085,-0.85353291,10.26154804,-0.062218986,-0.001465544,-0.008926493,-26,45,90,10,-7
1,1693677627009481400,1.023521185,-0.852335811,10.26154804,-0.062352221,-0.001598775,-0.009059724,-27,41,87,11,-5
2,1693677627010481400,1.023521185,-0.851138711,10.26154804,-0.062085759,-0.001465544,-0.009059724,-20,46,89,11,-3
3,1693677627011481400,1.023521185,-0.851138711,10.26394272,-0.061952524,-0.001332312,-0.008926493,-19,43,90,13,-5
4,1693677627012481400,1.023521185,-0.852335811,10.26274586,-0.062085759,-0.001465544,-0.008926493,-18,43,88,13,-4
0,1693677627077441100,1.027112484,-0.849941611,10.26394272,-0.062352221,-0.001865237,-0.008526799,-27,41,90,9,-9
1,1693677627078441100,1.027112484,-0.851138711,10.26274586,-0.062352221,-0.001865237,-0.008526799,-33,45,89,13,-11
2,1693677627079441100,1.023521185,-0.847547412,10.26274586,-0.062352221,-0.001865237,-0.008393568,-19,43,90,9,-4
3,1693677627080441100,1.023521185,-0.845153213,10.26753426,-0.062485453,-0.001732006,-0.008393568,-16,45,90,13,-3
4,1693677627081441100,1.025915384,-0.842759013,10.26633644,-0.062485453,-0.001732006,-0.008393568,-22,44,90,12,-8
0,1693677627150399300,1.023521185,-0.846350312,10.26753426,-0.06261868,-0.001998469,-0.009059724,-24,42,85,13,-9
1,1693677627151399300,1.023521185,-0.847547412,10.26513958,-0.06261868,-0.001998469,-0.009192956,-20,41,90,13,-7
2,1693677627152399300,1.019929886,-0.848744512,10.26633644,-0.062751912,-0.001998469,-0.009192956,-22,45,89,14,-9
3,1693677627153399300,1.019929886,-0.847547412,10.26992798,-0.062751912,-0.001998469,-0.009192956,-18,51,85,12,-2
4,1693677627154399300,1.019929886,-0.845153213,10.26992798,-0.062751912,-0.001865237,-0.009059724,-22,51,91,10,-7
0,1693677627207366500,1.028309584,-0.849941611,10.28070164,-0.062352221,-0.001732006,-0.009059724,-20,43,86,8,-6
1,1693677627208366500,1.029506683,-0.848744512,10.28429317,-0.062352221,-0.001332312,-0.009192956,-20,46,90,14,-6
2,1693677627209366500,1.028309584,-0.851138711,10.28189945,-0.062218986,-0.001465544,-0.009192956,-16,61,91,13,-1
3,1693677627210366500,1.033097982,-0.849941611,10.27950478,-0.062352221,-0.001598775,-0.009192956,-39,57,90,10,4
4,1693677627211366500,1.034295082,-0.851138711,10.27232265,-0.062352221,-0.001598775,-0.009192956,-20,49,93,13,-5
0,1693677627296296800,1.029506683,-0.842759013,10.27711105,-0.062352221,-0.001465544,-0.009059724,-19,47,90,8,-4
1,1693677627297296800,1.027112484,-0.846350312,10.27830791,-0.062352221,-0.001598775,-0.009192956,-19,44,89,13,-3
2,1693677627298296800,1.027112484,-0.845153213,10.27830791,-0.062485453,-0.001732006,-0.009192956,-16,42,89,13,-3
3,1693677627299296800,1.025915384,-0.843956113,10.28070164,-0.062352221,-0.001598775,-0.009192956,-24,51,90,10,-5
4,1693677627300296800,1.024718285,-0.846350312,10.28549004,-0.062352221,-0.001732006,-0.009326187,-22,43,89,6,-7
0,1693677627349265800,1.018732786,-0.845153213,10.27232265,-0.062885143,-0.001998469,-0.008526799,-22,48,89,15,-7
1,1693677627350265800,1.019929886,-0.846350312,10.27591324,-0.062885143,-0.001865237,-0.008793262,-19,49,90,13,-2
2,1693677627351265800,1.022324085,-0.848744512,10.27830791,-0.062885143,-0.001998469,-0.008660031,-20,45,85,11,-5
3,1693677627352265800,1.021126986,-0.846350312,10.28070164,-0.062751912,-0.001998469,-0.008526799,-24,43,89,10,-3
4,1693677627353265800,1.023521185,-0.848744512,10.27830791,-0.06261868,-0.001865237,-0.008660031,-23,43,84,7,-7
0,1693677627421225300,1.022324085,-0.843956113,10.27471638,-0.062485453,-0.001865237,-0.008393568,-19,43,90,10,-5
1,1693677627422225300,1.022324085,-0.845153213,10.26873112,-0.062485453,-0.001865237,-0.008526799,-21,51,91,13,-2
2,1693677627423225300,1.022324085,-0.845153213,10.26873112,-0.062485453,-0.001865237,-0.008526799,-19,45,90,13,-6
3,1693677627424225300,1.022324085,-0.843956113,10.26633644,-0.062485453,-0.001998469,-0.008526799,-20,47,90,11,-9
4,1693677627425225300,1.025915384,-0.847547412,10.26513958,-0.062352221,-0.001998469,-0.008526799,-23,41,89,11,-7
0,1693677627507176600,1.023521185,-0.845153213,10.27711105,-0.06261868,-0.001998469,-0.008793262,-16,53,90,13,-4
1,1693677627508176600,1.021126986,-0.846350312,10.27591324,-0.062485453,-0.001998469,-0.008926493,-16,41,90,12,-3
2,1693677627509176600,1.022324085,-0.848744512,10.27711105,-0.06261868,-0.001998469,-0.008926493,-19,42,90,13,-5
3,1693677627510176600,1.022324085,-0.848744512,10.27591324,-0.06261868,-0.001998469,-0.009059724,-26,44,91,13,-9
4,1693677627511176600,1.024718285,-0.843956113,10.27950478,-0.062885143,-0.001998469,-0.009192956,-20,45,89,13,-4
0,1693677627562144100,1.025915384,-0.85353291,10.24838066,-0.062485453,-0.001732006,-0.008926493,-15,47,96,11,-1
1,1693677627563144100,1.025915384,-0.85353291,10.25077438,-0.06261868,-0.001865237,-0.008793262,-23,45,90,14,-3
2,1693677627564144100,1.028309584,-0.85473001,10.25077438,-0.062885143,-0.001732006,-0.008926493,-23,50,90,14,-4
3,1693677627565144100,1.027112484,-0.85353291,10.24838066,-0.062751912,-0.001865237,-0.008926493,-24,49,85,12,-3
4,1693677627566144100,1.025915384,-0.85353291,10.24838066,-0.062751912,-0.001865237,-0.009059724,-18,49,90,8,-5
0,1693677627617112900,1.015141487,-0.849941611,10.27351952,-0.062352221,-0.002264931,-0.008793262,-20,48,90,13,-2
1,1693677627618112900,1.017535686,-0.852335811,10.27471638,-0.062352221,-0.0021317,-0.008793262,-18,49,88,12,-3
2,1693677627619112900,1.021126986,-0.85353291,10.27471638,-0.062352221,-0.001998469,-0.008793262,-21,39,87,6,-7
3,1693677627620112900,1.021126986,-0.849941611,10.27232265,-0.062218986,-0.001865237,-0.008926493,-23,42,89,13,-11
4,1693677627621112900,1.017535686,-0.851138711,10.27232265,-0.062352221,-0.001998469,-0.008926493,-12,46,89,13,-4
0,1693677627680075900,1.016338587,-0.85473001,10.26992798,-0.062485453,-0.001865237,-0.009059724,-20,47,92,16,-7
1,1693677627681075900,1.015141487,-0.85473001,10.26992798,-0.062485453,-0.001865237,-0.009059724,-20,47,90,13,-5
2,1693677627682075900,1.015141487,-0.851138711,10.27232265,-0.062485453,-0.0021317,-0.009059724,-23,32,87,10,-5
3,1693677627683075900,1.015141487,-0.848744512,10.28189945,-0.062485453,-0.0021317,-0.008926493,-18,44,89,13,-5
4,1693677627684075900,1.017535686,-0.846350312,10.27591324,-0.062352221,-0.0021317,-0.008926493,-27,50,90,11,-7
0,1693677627764028700,1.022324085,-0.849941611,10.27232265,-0.06261868,-0.001998469,-0.009059724,-15,46,90,14,-3
1,1693677627765028700,1.021126986,-0.849941611,10.27471638,-0.06261868,-0.001865237,-0.009192956,-20,49,90,11,-7
2,1693677627766028700,1.021126986,-0.848744512,10.27471638,-0.062485453,-0.001998469,-0.009192956,-19,48,93,3,-12
3,1693677627767028700,1.019929886,-0.847547412,10.27351952,-0.062485453,-0.0021317,-0.009192956,-20,48,87,13,-8
4,1693677627768028700,1.018732786,-0.848744512,10.26873112,-0.062485453,-0.0021317,-0.009059724,-16,45,91,10,-6
0,1693677627822995700,1.024718285,-0.85473001,10.27471638,-0.062485453,-0.001732006,-0.009192956,-23,47,88,12,-7
1,1693677627823995700,1.022324085,-0.85592711,10.27232265,-0.062485453,-0.001732006,-0.009326187,-18,43,88,10,-8
2,1693677627824995700,1.021126986,-0.857124209,10.26633644,-0.06261868,-0.001732006,-0.009326187,-22,42,87,12,-3
3,1693677627825995700,1.021126986,-0.859518409,10.26154804,-0.06261868,-0.001732006,-0.009192956,-20,48,91,13,-5
4,1693677627826995700,1.021126986,-0.859518409,10.25675964,-0.062485453,-0.001732006,-0.009059724,-20,48,91,13,-2
0,1693677627902949600,1.024718285,-0.85473001,10.28309631,-0.062085759,-0.001332312,-0.009059724,-20,45,86,12,-8
1,1693677627903949600,1.025915384,-0.852335811,10.28309631,-0.061952524,-0.001465544,-0.009192956,-23,45,90,12,-8
2,1693677627904949600,1.030703783,-0.849941611,10.28549004,-0.062085759,-0.001332312,-0.009192956,-23,49,90,13,-6
3,1693677627905949600,1.031900883,-0.847547412,10.29027843,-0.062085759,-0.001332312,-0.009059724,-20,47,91,11,-5
4,1693677627906949600,1.030703783,-0.848744512,10.29027843,-0.062218986,-0.001332312,-0.009192956,-8,45,90,14,-3
0,1693677627966913100,1.017535686,-0.85473001,10.25915432,-0.062218986,-0.001332312,-0.008793262,-23,48,87,12,-7
1,1693677627967913100,1.017535686,-0.85592711,10.26274586,-0.062218986,-0.001332312,-0.008793262,-20,46,90,18,-9
2,1693677627968913100,1.018732786,-0.85473001,10.26513958,-0.062352221,-0.001465544,-0.008926493,-16,44,87,12,-1
3,1693677627969913100,1.018732786,-0.85592711,10.26753426,-0.062485453,-0.001465544,-0.008926493,-17,41,90,12,-5
4,1693677627970913100,1.019929886,-0.852335811,10.26753426,-0.06261868,-0.001465544,-0.008793262,-23,47,90,11,-8
0,1693677628028877600,1.022324085,-0.851138711,10.26753426,-0.062885143,-0.0021317,-0.009059724,-23,43,88,8,-4
1,1693677628029877600,1.021126986,-0.851138711,10.26394272,-0.062885143,-0.001865237,-0.009059724,-26,47,85,11,-2
2,1693677628030877600,1.018732786,-0.851138711,10.26154804,-0.06261868,-0.001998469,-0.009192956,-20,45,89,12,-3
3,1693677628031877600,1.018732786,-0.852335811,10.25795746,-0.062751912,-0.001998469,-0.008926493,-18,47,87,13,-3
4,1693677628032877600,1.019929886,-0.85473001,10.24957752,-0.062751912,-0.001998469,-0.008793262,-11,41,90,5,-5
0,1693677628110830600,1.022324085,-0.848744512,10.26992798,-0.062085759,-0.002398162,-0.008526799,-18,36,88,12,-5
1,1693677628111830600,1.019929886,-0.849941611,10.27351952,-0.062085759,-0.002264931,-0.008660031,-22,46,87,13,-7
2,1693677628112830600,1.021126986,-0.852335811,10.27471638,-0.062085759,-0.002264931,-0.008926493,-24,45,88,12,-2
3,1693677628113830600,1.021126986,-0.851138711,10.27471638,-0.062085759,-0.001998469,-0.008793262,-19,46,88,11,-2
4,1693677628114830600,1.021126986,-0.85353291,10.27351952,-0.062085759,-0.001865237,-0.008926493,-27,49,90,13,-8
0,1693677628171794500,1.017535686,-0.851138711,10.26154804,-0.062485453,-0.001998469,-0.008793262,-30,41,85,13,-12
1,1693677628172794500,1.018732786,-0.852335811,10.26394272,-0.06261868,-0.001865237,-0.008793262,-22,49,90,13,-5
2,1693677628173794500,1.018732786,-0.85473001,10.26394272,-0.062485453,-0.001865237,-0.008793262,-20,49,91,13,-2
3,1693677628174794500,1.019929886,-0.85353291,10.26633644,-0.062352221,-0.001732006,-0.008793262,-16,58,84,9,-7
4,1693677628175794500,1.018732786,-0.85473001,10.26633644,-0.062485453,-0.001732006,-0.008660031,-18,46,90,13,-8
0,1693677628231761500,1.018732786,-0.849941611,10.26873112,-0.06261868,-0.001465544,-0.008926493,-11,49,91,11,-4
1,1693677628232761500,1.021126986,-0.851138711,10.27471638,-0.062485453,-0.001465544,-0.008660031,-19,52,90,14,-7
2,1693677628233761500,1.021126986,-0.851138711,10.27112484,-0.062751912,-0.001598775,-0.008793262,-22,49,95,13,-5
3,1693677628234761500,1.021126986,-0.852335811,10.27830791,-0.06261868,-0.001598775,-0.008660031,-16,45,89,7,-8
4,1693677628235761500,1.023521185,-0.851138711,10.27112484,-0.06261868,-0.001465544,-0.008526799,-26,46,89,13,-7
0,1693677628304718300,1.022324085,-0.85353291,10.25795746,-0.062085759,-0.001598775,-0.009059724,-21,49,90,13,-6
1,1693677628305718300,1.023521185,-0.85473001,10.26035118,-0.062085759,-0.001732006,-0.009059724,-18,45,88,13,-2
2,1693677628306718300,1.019929886,-0.85592711,10.25795746,-0.062218986,-0.001598775,-0.009192956,-22,45,88,12,-6
3,1693677628307718300,1.022324085,-0.85592711,10.25556278,-0.062218986,-0.001598775,-0.008926493,-22,48,89,12,-4
4,1693677628308718300,1.023521185,-0.852335811,10.25795746,-0.062085759,-0.001465544,-0.009059724,-22,42,87,7,-5
0,1693677628364683900,1.027112484,-0.846350312,10.27950478,-0.062485453,-0.001598775,-0.008926493,-27,37,90,13,-8
1,1693677628365683900,1.028309584,-0.843956113,10.27830791,-0.062485453,-0.001598775,-0.008926493,-19,51,88,14,-1
2,1693677628366683900,1.029506683,-0.842759013,10.27830791,-0.06261868,-0.001598775,-0.009059724,-21,64,87,9,-5
3,1693677628367683900,1.029506683,-0.842759013,10.27950478,-0.06261868,-0.001732006,-0.009059724,-24,42,90,13,-5
4,1693677628368683900,1.029506683,-0.840364814,10.28070164,-0.062751912,-0.001732006,-0.009059724,-23,43,85,12,-11
0,1693677628444638700,1.028309584,-0.847547412,10.26394272,-0.062751912,-0.001732006,-0.008793262,-22,53,93,13,-6
1,1693677628445638700,1.025915384,-0.845153213,10.26154804,-0.06261868,-0.001598775,-0.008793262,-19,51,81,13,-11
2,1693677628446638700,1.024718285,-0.847547412,10.26154804,-0.06261868,-0.001598775,-0.008793262,-26,45,90,10,-8
3,1693677628447638700,1.024718285,-0.852335811,10.26753426,-0.062485453,-0.001732006,-0.008793262,-24,42,88,13,-5
4,1693677628448638700,1.022324085,-0.85353291,10.26753426,-0.06261868,-0.001732006,-0.008926493,-20,48,84,7,-7
0,1693677628503604000,1.015141487,-0.847547412,10.27471638,-0.062352221,-0.001732006,-0.008793262,-15,48,90,12,-1
1,1693677628504604000,1.016338587,-0.847547412,10.27830791,-0.062218986,-0.001865237,-0.008926493,-10,42,90,12,-7
2,1693677628505604000,1.017535686,-0.848744512,10.28309631,-0.062218986,-0.001732006,-0.008926493,-17,45,89,12,-7
3,1693677628506604000,1.017535686,-0.848744512,10.28309631,-0.062218986,-0.001865237,-0.008926493,-30,42,91,-1,-5
4,1693677628507604000,1.017535686,-0.849941611,10.28070164,-0.062218986,-0.001732006,-0.008793262,-19,45,88,11,-5
0,1693677628591340000,1.021126986,-0.848744512,10.27112484,-0.062218986,-0.001998469,-0.008660031,-26,49,85,9,-13
1,1693677628592340000,1.023521185,-0.85353291,10.26633644,-0.062218986,-0.001865237,-0.008793262,-29,43,90,13,-6
2,1693677628593340000,1.022324085,-0.85592711,10.26394272,-0.062085759,-0.001865237,-0.008926493,-17,46,87,3,-7
3,1693677628594340000,1.019929886,-0.85592711,10.26513958,-0.062085759,-0.001732006,-0.008926493,-21,38,77,13,-8
4,1693677628595340000,1.019929886,-0.85353291,10.26513958,-0.062218986,-0.001732006,-0.009059724,-19,46,91,10,-4
0,1693677628627319200,1.017535686,-0.835576415,10.25795746,-0.06261868,-0.001732006,-0.008926493,-21,41,92,13,-3
1,1693677628628319200,1.019929886,-0.834379315,10.25556278,-0.06261868,-0.001732006,-0.008926493,-19,46,88,13,-3
2,1693677628629319200,1.019929886,-0.834379315,10.25436592,-0.06261868,-0.001865237,-0.008926493,-26,48,90,7,-11
3,1693677628630319200,1.018732786,-0.833182216,10.25795746,-0.062485453,-0.001865237,-0.008926493,-6,42,84,12,-8
4,1693677628631319200,1.021126986,-0.829590917,10.25795746,-0.062352221,-0.001598775,-0.008926493,-22,51,90,10,-4
0,1693677628710272000,1.027112484,-0.843956113,10.26873112,-0.061952524,-0.001598775,-0.008793262,-24,46,90,13,-7
1,1693677628711272000,1.028309584,-0.845153213,10.27112484,-0.062085759,-0.001465544,-0.008926493,-21,47,87,11,-6
2,1693677628712272000,1.028309584,-0.845153213,10.27591324,-0.062218986,-0.001332312,-0.008793262,-24,41,87,12,-9
3,1693677628713272000,1.022324085,-0.843956113,10.27232265,-0.062218986,-0.001332312,-0.008793262,-24,48,90,12,-7
4,1693677628714272000,1.025915384,-0.845153213,10.26753426,-0.062085759,-0.001199081,-0.008793262,-20,49,87,12,-5
0,1693677628769238200,1.036689281,-0.852335811,10.26274586,-0.062352221,-0.001732006,-0.008793262,-20,42,90,11,-2
1,1693677628770238200,1.036689281,-0.85353291,10.26394272,-0.062485453,-0.001732006,-0.008793262,-18,47,75,13,-8
2,1693677628771238200,1.035492182,-0.85353291,10.26633644,-0.062485453,-0.001465544,-0.008793262,-18,46,103,13,-2
3,1693677628772238200,1.033097982,-0.848744512,10.26873112,-0.062485453,-0.001465544,-0.008660031,-20,49,89,12,-4
4,1693677628773238200,1.030703783,-0.846350312,10.26513958,-0.062352221,-0.001465544,-0.008660031,-33,50,90,13,-1
0,1693677628829203900,1.022324085,-0.842759013,10.25556278,-0.062085759,-0.001332312,-0.008393568,-18,47,90,14,-3
1,1693677628830203900,1.024718285,-0.843956113,10.25795746,-0.062085759,-0.001332312,-0.008526799,-24,46,87,13,-4
2,1693677628831203900,1.023521185,-0.841561913,10.25316906,-0.062218986,-0.001332312,-0.008526799,-24,47,84,14,-5
3,1693677628832203900,1.022324085,-0.837970614,10.24838066,-0.062218986,-0.001465544,-0.008393568,-19,47,90,13,-2
4,1693677628833203900,1.023521185,-0.840364814,10.24838066,-0.062218986,-0.001465544,-0.008393568,-15,47,95,13,-4
0,1693677628920151200,1.021126986,-0.843956113,10.25675964,-0.062218986,-0.001732006,-0.008260337,-27,50,89,6,-7
1,1693677628921151200,1.021126986,-0.842759013,10.25915432,-0.062085759,-0.001732006,-0.008260337,-15,43,92,3,-3
2,1693677628922151200,1.021126986,-0.842759013,10.25556278,-0.062085759,-0.001865237,-0.008260337,-23,45,91,14,-3
3,1693677628923151200,1.018732786,-0.842759013,10.26154804,-0.062218986,-0.001732006,-0.008260337,-18,43,87,8,-7
4,1693677628924151200,1.017535686,-0.840364814,10.26513958,-0.062218986,-0.001732006,-0.008260337,-22,47,90,10,-5
0,1693677628979120100,1.027112484,-0.843956113,10.26753426,-0.062218986,-0.001598775,-0.008393568,-17,49,89,10,-5
1,1693677628980120100,1.029506683,-0.839167714,10.26753426,-0.062352221,-0.001732006,-0.008260337,-20,46,89,13,-3
2,1693677628981120100,1.031900883,-0.839167714,10.26633644,-0.062352221,-0.001732006,-0.008260337,-20,51,90,11,-7
3,1693677628982120100,1.034295082,-0.839167714,10.26154804,-0.06261868,-0.001998469,-0.008393568,-19,48,88,13,-3
4,1693677628983120100,1.033097982,-0.836773515,10.26035118,-0.06261868,-0.001998469,-0.008260337,-19,46,83,12,-3
0,1693677629050080200,1.021126986,-0.851138711,10.27471638,-0.062751912,-0.001732006,-0.008660031,-19,47,92,13,-8
1,1693677629051080200,1.019929886,-0.852335811,10.27351952,-0.062885143,-0.001732006,-0.008660031,-19,53,90,13,-7
2,1693677629052080200,1.022324085,-0.852335811,10.27351952,-0.062751912,-0.001598775,-0.008793262,-15,45,91,13,-2
3,1693677629053080200,1.021126986,-0.852335811,10.27471638,-0.06261868,-0.001598775,-0.008926493,-18,41,90,13,-5
4,1693677629054080200,1.022324085,-0.849941611,10.27591324,-0.06261868,-0.001465544,-0.008926493,-22,49,90,8,-5
0,1693677629107044400,1.029506683,-0.847547412,10.28070164,-0.062485453,-0.001332312,-0.008793262,-11,44,95,13,-3
1,1693677629108044400,1.027112484,-0.847547412,10.28070164,-0.062485453,-0.001332312,-0.008793262,-24,47,93,12,-8
2,1693677629109044400,1.028309584,-0.846350312,10.27591324,-0.062352221,-0.001199081,-0.008793262,-18,53,91,13,-1
3,1693677629110044400,1.028309584,-0.845153213,10.27351952,-0.062352221,-0.000932619,-0.008660031,-22,47,89,13,-6
4,1693677629111044400,1.028309584,-0.843956113,10.26992798,-0.062352221,-0.00106585,-0.008526799,-23,44,87,11,-5
0,1693677629194188100,1.022324085,-0.851138711,10.26753426,-0.062085759,-0.001998469,-0.008526799,-26,49,84,13,-3
1,1693677629195188100,1.025915384,-0.848744512,10.27112484,-0.062085759,-0.001598775,-0.008660031,-16,50,90,12,-3
2,1693677629196188100,1.024718285,-0.846350312,10.26873112,-0.062085759,-0.001332312,-0.008526799,-21,45,87,16,23
3,1693677629197188100,1.027112484,-0.845153213,10.26873112,-0.062352221,-0.001199081,-0.008526799,-25,46,85,13,-4
4,1693677629198188100,1.023521185,-0.845153213,10.26633644,-0.062352221,-0.001865237,-0.008526799,-24,46,90,13,-13
0,1693677629245159900,1.028309584,-0.845153213,10.26753426,-0.062085759,-0.002531394,-0.008793262,-18,49,90,12,33
1,1693677629246159900,1.028309584,-0.848744512,10.27232265,-0.061952524,-0.0021317,-0.008793262,-16,47,96,14,-8
2,1693677629247159900,1.025915384,-0.848744512,10.27471638,-0.062085759,-0.001865237,-0.008793262,-18,49,89,13,-7
3,1693677629248159900,1.023521185,-0.847547412,10.27711105,-0.062085759,-0.001998469,-0.008926493,-26,49,90,10,-8
4,1693677629249159900,1.022324085,-0.846350312,10.27351952,-0.062218986,-0.002264931,-0.008793262,-24,42,90,13,-5
0,1693677629311122900,1.025915384,-0.845153213,10.26154804,-0.062352221,-0.001998469,-0.008793262,-19,49,91,15,-2
1,1693677629312122900,1.025915384,-0.842759013,10.26394272,-0.062485453,-0.001998469,-0.008793262,-23,49,89,11,-5
2,1693677629313122900,1.027112484,-0.840364814,10.26513958,-0.062485453,-0.001865237,-0.008660031,-20,46,90,12,-7
3,1693677629314122900,1.028309584,-0.840364814,10.26274586,-0.06261868,-0.001998469,-0.008660031,-28,37,89,16,-9
4,1693677629315122900,1.024718285,-0.837970614,10.26633644,-0.06261868,-0.001865237,-0.008793262,-28,47,88,8,-1
0,1693677629391074700,1.019929886,-0.848744512,10.27471638,-0.062352221,-0.001332312,-0.008793262,-14,49,90,13,-3
1,1693677629392074700,1.021126986,-0.852335811,10.27471638,-0.062218986,-0.001332312,-0.008793262,-22,43,90,13,-5
2,1693677629393074700,1.021126986,-0.85473001,10.27471638,-0.062218986,-0.001332312,-0.008793262,-19,48,90,12,-11
3,1693677629394074700,1.021126986,-0.851138711,10.27830791,-0.062218986,-0.001199081,-0.008793262,-23,45,90,11,-7
4,1693677629395074700,1.022324085,-0.851138711,10.27591324,-0.062218986,-0.001465544,-0.008660031,-23,45,87,13,-8
0,1693677629454039600,1.018732786,-0.852335811,10.27112484,-0.062485453,-0.001598775,-0.008393568,-22,48,89,13,-3
1,1693677629455039600,1.018732786,-0.849941611,10.27351952,-0.062352221,-0.001598775,-0.008660031,-24,49,89,9,-5
2,1693677629456039600,1.018732786,-0.847547412,10.26873112,-0.062352221,-0.001732006,-0.008660031,-28,51,85,10,-8
3,1693677629457039600,1.018732786,-0.847547412,10.26873112,-0.062485453,-0.001598775,-0.008660031,-23,45,90,13,-5
4,1693677629458039600,1.017535686,-0.849941611,10.27591324,-0.062352221,-0.001598775,-0.008660031,-24,46,91,13,-3
0,1693677629537994300,1.022324085,-0.848744512,10.25795746,-0.062485453,-0.001732006,-0.008260337,-19,47,84,13,-8
1,1693677629538994300,1.025915384,-0.847547412,10.25675964,-0.062485453,-0.001598775,-0.008393568,-26,45,89,10,-8
2,1693677629539994300,1.022324085,-0.847547412,10.25795746,-0.062485453,-0.001732006,-0.008526799,-19,49,84,12,-4
3,1693677629540994300,1.022324085,-0.847547412,10.25316906,-0.062352221,-0.001732006,-0.008660031,-22,41,87,13,-5
4,1693677629541994300,1.021126986,-0.845153213,10.24957752,-0.062485453,-0.001732006,-0.008526799,-18,47,90,12,-2
0,1693677629590963200,1.021126986,-0.847547412,10.26753426,-0.062352221,-0.001732006,-0.008526799,-21,48,90,12,-6
1,1693677629591963200,1.021126986,-0.846350312,10.26992798,-0.062352221,-0.001732006,-0.008526799,-22,41,95,13,-11
2,1693677629592963200,1.022324085,-0.848744512,10.27112484,-0.062352221,-0.001465544,-0.008526799,-21,45,92,11,-7
3,1693677629593963200,1.023521185,-0.849941611,10.26873112,-0.062352221,-0.001598775,-0.008526799,-20,45,87,14,-6
4,1693677629594963200,1.022324085,-0.847547412,10.26873112,-0.062352221,-0.001598775,-0.008526799,-18,51,90,13,-3
0,1693677629653926200,1.023521185,-0.843956113,10.27711105,-0.062352221,-0.001732006,-0.009326187,-19,44,83,7,-7
1,1693677629654926200,1.022324085,-0.848744512,10.27711105,-0.062352221,-0.001598775,-0.009326187,-21,43,91,13,-2
2,1693677629655926200,1.021126986,-0.852335811,10.27830791,-0.062352221,-0.001732006,-0.009192956,-18,51,90,13,-5
3,1693677629656926200,1.018732786,-0.848744512,10.27830791,-0.062218986,-0.001732006,-0.009192956,-27,47,89,13,-9
4,1693677629657926200,1.015141487,-0.849941611,10.27591324,-0.062218986,-0.001732006,-0.009192956,-18,45,90,12,-5
0,1693677629735880600,1.018732786,-0.852335811,10.25556278,-0.06261868,-0.001598775,-0.008393568,-20,48,86,12,-11
1,1693677629736880600,1.016338587,-0.849941611,10.25197124,-0.06261868,-0.001732006,-0.008526799,-22,38,94,7,-5
2,1693677629737880600,1.013944387,-0.848744512,10.25556278,-0.06261868,-0.001732006,-0.008526799,-19,41,90,10,-6
3,1693677629738880600,1.013944387,-0.848744512,10.25556278,-0.06261868,-0.001865237,-0.008526799,-17,49,84,12,-3
4,1693677629739880600,1.015141487,-0.849941611,10.26154804,-0.062485453,-0.001865237,-0.008526799,-16,52,77,-4,-8
0,1693677629783085600,1.023521185,-0.857124209,10.27591324,-0.062352221,-0.0021317,-0.008260337,-23,46,90,10,-6
1,1693677629784085600,1.025915384,-0.85473001,10.27471638,-0.062485453,-0.001865237,-0.008260337,-22,41,90,12,-4
2,1693677629785085600,1.024718285,-0.85473001,10.27591324,-0.062352221,-0.001732006,-0.008393568,-24,45,93,12,-3
3,1693677629786085600,1.027112484,-0.85473001,10.27351952,-0.062218986,-0.001732006,-0.008393568,-18,50,90,7,-4
4,1693677629787085600,1.024718285,-0.852335811,10.26753426,-0.062352221,-0.001865237,-0.008393568,-19,43,87,13,-5
0,1693677629865060100,1.018732786,-0.835576415,10.27471638,-0.062485453,-0.001732006,-0.008793262,-23,46,91,12,-7
1,1693677629866060100,1.019929886,-0.836773515,10.27351952,-0.06261868,-0.001598775,-0.008660031,-24,43,90,10,-7
2,1693677629867060100,1.021126986,-0.840364814,10.26873112,-0.062485453,-0.001598775,-0.008793262,-17,41,88,13,-5
3,1693677629868060100,1.023521185,-0.841561913,10.27112484,-0.06261868,-0.001598775,-0.008926493,-16,48,89,22,-7
4,1693677629869060100,1.021126986,-0.841561913,10.26633644,-0.062485453,-0.001598775,-0.008793262,-25,49,90,12,-7
0,1693677629924004100,1.018732786,-0.85353291,10.26633644,-0.062352221,-0.001732006,-0.008660031,-21,54,88,13,-4
1,1693677629925004100,1.018732786,-0.85473001,10.27351952,-0.062352221,-0.001732006,-0.008660031,-17,51,91,13,-5
2,1693677629926004100,1.018732786,-0.857124209,10.27351952,-0.062352221,-0.001598775,-0.008660031,-20,49,90,13,-3
3,1693677629927004100,1.016338587,-0.859518409,10.27112484,-0.062218986,-0.001732006,-0.008793262,-27,43,79,12,-4
4,1693677629928004100,1.016338587,-0.85473001,10.27232265,-0.062352221,-0.001732006,-0.008660031,-22,46,89,13,-8
0,1693677630015952000,1.030703783,-0.847547412,10.26873112,-0.062352221,-0.001732006,-0.008926493,-22,38,90,13,-7
1,1693677630016952000,1.030703783,-0.847547412,10.26753426,-0.062352221,-0.001865237,-0.009192956,-18,43,91,13,-5
2,1693677630017952000,1.031900883,-0.846350312,10.26753426,-0.062352221,-0.001732006,-0.009192956,-16,48,90,11,-3
3,1693677630018952000,1.030703783,-0.845153213,10.27112484,-0.062352221,-0.001732006,-0.009059724,-18,48,90,13,-4
4,1693677630019952000,1.031900883,-0.843956113,10.26992798,-0.062485453,-0.001732006,-0.009459418,-24,43,88,7,-12
0,1693677630065925900,1.023521185,-0.858321309,10.27591324,-0.062218986,-0.001732006,-0.008793262,-20,47,92,12,-7
1,1693677630066925900,1.024718285,-0.85592711,10.27950478,-0.062218986,-0.001465544,-0.008793262,-17,47,90,12,-5
2,1693677630067925900,1.025915384,-0.85592711,10.27711105,-0.062352221,-0.001598775,-0.008793262,-18,47,90,13,-4
3,1693677630068925900,1.025915384,-0.85473001,10.27351952,-0.062218986,-0.001465544,-0.008793262,-21,48,91,10,-4
4,1693677630069925900,1.025915384,-0.85592711,10.27471638,-0.062218986,-0.001465544,-0.008660031,-32,47,90,13,-4
0,1693677630124889300,1.025915384,-0.842759013,10.26394272,-0.062352221,-0.001865237,-0.008260337,-18,49,89,13,-2
1,1693677630125889300,1.027112484,-0.845153213,10.26394272,-0.062352221,-0.001732006,-0.008393568,-16,53,97,18,-5
2,1693677630126889300,1.029506683,-0.848744512,10.26992798,-0.062218986,-0.001732006,-0.008393568,-25,47,83,8,-7
3,1693677630127889300,1.030703783,-0.849941611,10.26992798,-0.062352221,-0.001865237,-0.008393568,-23,49,88,13,-9
4,1693677630128889300,1.030703783,-0.851138711,10.26633644,-0.062485453,-0.001865237,-0.008526799,-28,46,90,14,-2
0,1693677630206864900,1.023521185,-0.846350312,10.25675964,-0.062218986,-0.001332312,-0.009326187,-16,44,88,13,-2
1,1693677630207864900,1.023521185,-0.846350312,10.25436592,-0.062218986,-0.001199081,-0.009326187,-20,57,89,13,-9
2,1693677630208864900,1.024718285,-0.849941611,10.24838066,-0.062218986,-0.001332312,-0.009326187,-20,48,89,11,-8
3,1693677630209864900,1.023521185,-0.849941611,10.25197124,-0.062218986,-0.001332312,-0.009326187,-23,43,87,-5,-7
4,1693677630210864900,1.024718285,-0.843956113,10.25556278,-0.062218986,-0.001332312,-0.009326187,-26,46,87,11,-8
