,timestamp,left_data_Ac_X,left_data_Ac_Y,left_data_Ac_Z,left_data_Gy_X,left_data_Gy_Y,left_data_Gy_Z,left_data_flex_1,left_data_flex_2,left_data_flex_3,left_data_flex_4,left_data_flex_5
0,1693677510917712800,1.254561663,0.44651863,10.28189945,-0.06261868,-0.002398162,-0.009192956,-17,45,92,15,-1
1,1693677510918712800,1.254561663,0.447715729,10.28070164,-0.062751912,-0.002398162,-0.009192956,-22,46,89,13,-2
2,1693677510919712800,1.254561663,0.44651863,10.27950478,-0.06261868,-0.002664625,-0.009059724,-15,48,88,13,-2
3,1693677510920712800,1.250970364,0.44651863,10.28070164,-0.06261868,-0.002664625,-0.009059724,-18,39,90,10,-2
4,1693677510921712800,1.249773264,0.44651863,10.28549004,-0.062751912,-0.002664625,-0.008926493,-17,49,95,14,0
0,1693677510963687900,1.255758762,0.450109929,10.27950478,-0.06261868,-0.002664625,-0.009192956,-11,52,90,13,-3
1,1693677510964687900,1.256955862,0.452504128,10.28309631,-0.062751912,-0.002531394,-0.009192956,-56,43,88,2,15
2,1693677510965687900,1.258152962,0.451307029,10.28070164,-0.062885143,-0.002531394,-0.009192956,-24,53,90,13,-2
3,1693677510966687900,1.259350061,0.453701228,10.27711105,-0.062885143,-0.002531394,-0.009059724,-23,45,86,13,-2
4,1693677510967687900,1.255758762,0.453701228,10.27950478,-0.062885143,-0.002531394,-0.009192956,-19,42,80,10,-1
0,1693677510997667300,1.256955862,0.436941803,10.28189945,-0.063284837,-0.002664625,-0.009059724,-12,49,90,13,4
1,1693677510998667300,1.256955862,0.436941803,10.28668785,-0.063284837,-0.002531394,-0.009059724,-22,42,86,10,-2
2,1693677510999667300,1.259350061,0.442927301,10.29386997,-0.063284837,-0.002531394,-0.009059724,-18,46,90,13,-1
3,1693677511000667300,1.260547161,0.44532153,10.29267311,-0.063418068,-0.002531394,-0.009059724,-24,47,89,11,-4
4,1693677511001667300,1.261744261,0.447715729,10.28668785,-0.063418068,-0.002264931,-0.009326187,-22,46,89,8,1
0,1693677511041643300,1.26294136,0.44651863,10.27711105,-0.062885143,-0.002531394,-0.009192956,-19,38,90,13,1
1,1693677511042643300,1.26413846,0.442927301,10.27830791,-0.063151613,-0.002531394,-0.009326187,-22,47,90,13,-3
2,1693677511043643300,1.26413846,0.441730201,10.27591324,-0.063151613,-0.002531394,-0.009326187,-27,46,87,9,-1
3,1693677511044643300,1.26294136,0.440533102,10.27351952,-0.063151613,-0.002398162,-0.009192956,-21,50,90,14,-2
4,1693677511045643300,1.26294136,0.441730201,10.27471638,-0.063018374,-0.002398162,-0.009192956,-22,45,90,13,-1
0,1693677511119597200,1.254561663,0.439336002,10.27830791,-0.063284837,-0.002398162,-0.008926493,-17,46,89,13,0
1,1693677511120597200,1.260547161,0.438138902,10.27232265,-0.063284837,-0.002531394,-0.008926493,-23,42,87,13,-3
2,1693677511121597200,1.261744261,0.435744703,10.27351952,-0.063284837,-0.002531394,-0.008793262,-23,51,90,11,-7
3,1693677511122597200,1.256955862,0.435744703,10.27232265,-0.063151613,-0.002398162,-0.008793262,-19,45,86,12,-1
4,1693677511123597200,1.254561663,0.435744703,10.27351952,-0.063151613,-0.002398162,-0.008926493,-17,51,90,11,-1
0,1693677511151579100,1.259350061,0.439336002,10.27830791,-0.063551299,-0.002797856,-0.009192956,-17,49,87,13,-2
1,1693677511152579100,1.260547161,0.440533102,10.27112484,-0.063418068,-0.002931087,-0.009192956,-22,47,90,11,-3
2,1693677511153579100,1.261744261,0.441730201,10.26873112,-0.063551299,-0.003064318,-0.009192956,-19,42,88,12,-2
3,1693677511154579100,1.26533556,0.442927301,10.26633644,-0.063418068,-0.00319755,-0.009192956,-24,47,90,12,0
4,1693677511155579100,1.26533556,0.441730201,10.26873112,-0.063284837,-0.00319755,-0.009192956,-20,45,89,13,0
0,1693677511185560700,1.256955862,0.444124401,10.27591324,-0.063151613,-0.001865237,-0.008793262,-22,47,90,13,1
1,1693677511186560700,1.258152962,0.440533102,10.27591324,-0.063284837,-0.001865237,-0.008660031,-17,49,90,14,-1
2,1693677511187560700,1.258152962,0.444124401,10.27711105,-0.063151613,-0.001732006,-0.008793262,-18,47,92,13,0
3,1693677511188560700,1.256955862,0.442927301,10.27711105,-0.063151613,-0.001998469,-0.008926493,-21,45,90,13,-2
4,1693677511189560700,1.256955862,0.444124401,10.28070164,-0.063284837,-0.001998469,-0.008926493,-18,50,89,13,0
0,1693677511214543800,1.254561663,0.447715729,10.30703831,-0.063284837,-0.002531394,-0.009459418,-20,44,90,11,-1
1,1693677511215543800,1.256955862,0.447715729,10.30344677,-0.063284837,-0.002531394,-0.009459418,-24,33,84,12,-5
2,1693677511216543800,1.254561663,0.448912829,10.30344677,-0.063151613,-0.002398162,-0.009326187,-18,42,88,10,-4
3,1693677511217543800,1.253364563,0.448912829,10.29865837,-0.063151613,-0.002398162,-0.009326187,-18,47,90,13,0
4,1693677511218543800,1.254561663,0.448912829,10.30105305,-0.062885143,-0.002664625,-0.009326187,-19,48,90,13,-3
0,1693677511243527300,1.249773264,0.44532153,10.27711105,-0.063151613,-0.002531394,-0.009326187,-23,50,90,15,-3
1,1693677511244527300,1.250970364,0.44651863,10.27232265,-0.063151613,-0.002398162,-0.009326187,-27,47,90,12,-7
2,1693677511245527300,1.250970364,0.442927301,10.26992798,-0.063284837,-0.002398162,-0.009192956,-20,41,89,16,-2
3,1693677511246527300,1.250970364,0.441730201,10.27112484,-0.063418068,-0.002264931,-0.009326187,-12,41,90,13,-2
4,1693677511247527300,1.247379065,0.444124401,10.27351952,-0.063418068,-0.002264931,-0.009459418,-18,45,87,13,-1
0,1693677511272509500,1.253364563,0.438138902,10.27830791,-0.062751912,-0.001998469,-0.009059724,-22,39,87,8,-7
1,1693677511273509500,1.250970364,0.439336002,10.27830791,-0.062751912,-0.0021317,-0.008926493,-23,46,89,11,17
2,1693677511274509500,1.252167463,0.438138902,10.26992798,-0.06261868,-0.0021317,-0.009059724,-15,45,90,13,-3
3,1693677511275509500,1.249773264,0.438138902,10.26873112,-0.062485453,-0.002398162,-0.009059724,-13,45,90,12,-1
4,1693677511276509500,1.250970364,0.439336002,10.26633644,-0.062352221,-0.002531394,-0.009059724,-16,47,90,10,1
0,1693677511302493200,1.258152962,0.439336002,10.27711105,-0.062751912,-0.002398162,-0.008926493,-26,45,85,7,-7
1,1693677511303493200,1.255758762,0.441730201,10.27830791,-0.063151613,-0.002398162,-0.009059724,-20,44,96,19,-5
2,1693677511304493200,1.253364563,0.440533102,10.28070164,-0.063418068,-0.002398162,-0.009192956,-20,47,90,8,-2
3,1693677511305493200,1.254561663,0.439336002,10.27711105,-0.063418068,-0.002531394,-0.009192956,-14,51,90,16,-1
4,1693677511306493200,1.254561663,0.440533102,10.28189945,-0.063418068,-0.002398162,-0.009326187,-19,51,83,9,1
0,1693677511332475800,1.254561663,0.435744703,10.26154804,-0.063018374,-0.002531394,-0.009326187,-17,42,90,7,-1
1,1693677511333475800,1.261744261,0.434547603,10.26154804,-0.063018374,-0.002797856,-0.009326187,-18,47,87,10,-2
2,1693677511334475800,1.261744261,0.433350503,10.26274586,-0.063151613,-0.002664625,-0.009192956,-20,46,87,13,2
3,1693677511335475800,1.261744261,0.435744703,10.26394272,-0.063151613,-0.002531394,-0.009059724,-16,51,91,14,-2
4,1693677511336475800,1.259350061,0.434547603,10.26513958,-0.063284837,-0.002531394,-0.008926493,-20,43,90,13,-4
0,1693677511469396800,1.255758762,0.435744703,10.28070164,-0.062885143,-0.001598775,-0.008926493,-14,50,91,17,0
1,1693677511470396800,1.256955862,0.435744703,10.27711105,-0.063018374,-0.001865237,-0.008926493,-17,49,90,15,1
2,1693677511471396800,1.258152962,0.434547603,10.28070164,-0.063018374,-0.001865237,-0.008926493,-19,51,90,13,-1
3,1693677511472396800,1.253364563,0.435744703,10.28309631,-0.063018374,-0.001998469,-0.008926493,-14,49,91,13,1
4,1693677511473396800,1.254561663,0.441730201,10.28309631,-0.063151613,-0.001998469,-0.009059724,-12,49,93,12,1
0,1693677511507375500,1.249773264,0.441730201,10.28070164,-0.063018374,-0.002398162,-0.008660031,-15,46,90,14,3
1,1693677511508375500,1.249773264,0.440533102,10.28429317,-0.062885143,-0.002398162,-0.008660031,-14,53,90,13,5
2,1693677511509375500,1.246181965,0.436941803,10.28429317,-0.062885143,-0.002264931,-0.008660031,-22,49,91,13,1
3,1693677511510375500,1.247379065,0.439336002,10.27950478,-0.062885143,-0.002398162,-0.008793262,-20,51,88,15,-2
4,1693677511511375500,1.244984865,0.442927301,10.27830791,-0.062751912,-0.002264931,-0.008526799,-16,47,83,10,0
0,1693677511535359500,1.242590666,0.44651863,10.28070164,-0.063551299,-0.002398162,-0.008793262,-10,57,90,14,-1
1,1693677511536359500,1.242590666,0.44651863,10.28429317,-0.063551299,-0.002264931,-0.008793262,-15,54,90,13,-2
2,1693677511537359500,1.242590666,0.442927301,10.28668785,-0.063684531,-0.002398162,-0.008793262,-19,51,88,13,-2
3,1693677511538359500,1.247379065,0.442927301,10.28908157,-0.063684531,-0.002264931,-0.008660031,-11,51,90,13,-2
4,1693677511539359500,1.250970364,0.44532153,10.28549004,-0.063684531,-0.002398162,-0.008660031,-16,45,91,8,2
0,1693677511560345600,1.258152962,0.442927301,10.28309631,-0.06261868,-0.0021317,-0.009326187,-15,61,90,13,4
1,1693677511561345600,1.258152962,0.441730201,10.28189945,-0.06261868,-0.002264931,-0.009192956,-16,51,95,16,0
2,1693677511562345600,1.258152962,0.440533102,10.28549004,-0.062751912,-0.0021317,-0.009326187,-17,57,90,13,1
3,1693677511563345600,1.259350061,0.44532153,10.28668785,-0.062751912,-0.002264931,-0.009326187,-24,48,86,13,-2
4,1693677511564345600,1.258152962,0.444124401,10.28668785,-0.06261868,-0.002264931,-0.009192956,-18,46,89,14,-1
0,1693677511588328200,1.260547161,0.439336002,10.28549004,-0.062885143,-0.001998469,-0.008793262,-12,57,95,13,3
1,1693677511589328200,1.258152962,0.438138902,10.28788471,-0.063018374,-0.0021317,-0.008793262,-12,49,91,13,14
2,1693677511590328200,1.258152962,0.436941803,10.28788471,-0.063151613,-0.002264931,-0.009059724,-17,48,88,13,-1
3,1693677511591328200,1.260547161,0.432153404,10.28549004,-0.063018374,-0.002264931,-0.009059724,-10,50,90,11,-3
4,1693677511592328200,1.26413846,0.432153404,10.28549004,-0.063018374,-0.0021317,-0.008926493,-27,49,90,14,3
0,1693677511614314200,1.253364563,0.442927301,10.28429317,-0.063284837,-0.001732006,-0.008793262,-10,46,105,15,7
1,1693677511615314200,1.254561663,0.442927301,10.28668785,-0.063284837,-0.001598775,-0.008660031,-16,41,91,11,3
2,1693677511616314200,1.252167463,0.441730201,10.29027843,-0.063151613,-0.001865237,-0.008793262,-19,52,95,14,2
3,1693677511617314200,1.252167463,0.438138902,10.29147625,-0.062885143,-0.001998469,-0.008793262,-23,47,90,10,1
4,1693677511618314200,1.249773264,0.436941803,10.29506683,-0.062885143,-0.0021317,-0.008660031,-19,51,90,16,1
0,1693677511639299900,1.243787766,0.447715729,10.28429317,-0.063151613,-0.001865237,-0.009192956,-18,54,93,13,-2
1,1693677511640299900,1.243787766,0.448912829,10.28429317,-0.063284837,-0.001598775,-0.009192956,-16,47,90,15,0
2,1693677511641299900,1.244984865,0.450109929,10.28309631,-0.063284837,-0.001732006,-0.009326187,-15,47,84,14,1
3,1693677511642299900,1.247379065,0.450109929,10.28309631,-0.063284837,-0.001732006,-0.009459418,-8,48,95,11,-1
4,1693677511643299900,1.249773264,0.448912829,10.28189945,-0.063151613,-0.001865237,-0.009459418,-13,58,92,13,1
0,1693677511665284700,1.254561663,0.454898328,10.28549004,-0.06261868,-0.002398162,-0.009326187,-11,53,92,13,2
1,1693677511666284700,1.250970364,0.453701228,10.28429317,-0.062751912,-0.001998469,-0.009326187,-16,53,94,16,-1
2,1693677511667284700,1.252167463,0.451307029,10.28788471,-0.06261868,-0.001865237,-0.009326187,-18,45,89,13,-4
3,1693677511668284700,1.253364563,0.451307029,10.28668785,-0.06261868,-0.001732006,-0.009192956,-20,53,89,13,0
4,1693677511669284700,1.253364563,0.450109929,10.28429317,-0.062751912,-0.001732006,-0.009192956,-18,45,90,12,1
0,1693677511693271300,1.244984865,0.441730201,10.28549004,-0.063018374,-0.001865237,-0.008926493,-10,45,93,12,-2
1,1693677511694271300,1.247379065,0.442927301,10.29027843,-0.063018374,-0.001998469,-0.008793262,-15,50,90,12,-1
2,1693677511695271300,1.242590666,0.441730201,10.28908157,-0.063018374,-0.0021317,-0.008793262,-15,47,90,14,-13
3,1693677511696271300,1.242590666,0.438138902,10.28668785,-0.063018374,-0.001998469,-0.008793262,-18,79,90,14,1
4,1693677511697271300,1.243787766,0.439336002,10.28429317,-0.062885143,-0.001865237,-0.008793262,-12,43,92,14,-1
0,1693677511721253700,1.250970364,0.44532153,10.28429317,-0.063284837,-0.0021317,-0.008526799,-36,38,87,20,0
1,1693677511722253700,1.254561663,0.448912829,10.28429317,-0.063151613,-0.001998469,-0.008660031,-10,51,87,14,1
2,1693677511723253700,1.254561663,0.451307029,10.28908157,-0.063151613,-0.0021317,-0.008660031,-7,46,90,13,-2
3,1693677511724253700,1.253364563,0.450109929,10.29147625,-0.063151613,-0.002264931,-0.008526799,-16,52,88,16,3
4,1693677511725253700,1.252167463,0.451307029,10.29147625,-0.063151613,-0.002531394,-0.008660031,-16,49,90,13,-2
0,1693677511751237100,1.26294136,0.444124401,10.27711105,-0.062751912,-0.002398162,-0.008793262,-12,47,90,14,0
1,1693677511752237100,1.260547161,0.444124401,10.27950478,-0.06261868,-0.002531394,-0.008926493,-18,46,93,19,-3
2,1693677511753237100,1.258152962,0.441730201,10.28189945,-0.062751912,-0.002531394,-0.008926493,-14,50,90,13,-1
3,1693677511754237100,1.256955862,0.439336002,10.27591324,-0.062751912,-0.002531394,-0.008926493,-13,51,92,13,-1
4,1693677511755237100,1.256955862,0.435744703,10.27950478,-0.062751912,-0.002664625,-0.008793262,-17,54,91,15,2
0,1693677511778220300,1.254561663,0.444124401,10.27950478,-0.063151613,-0.002531394,-0.009326187,-15,55,89,12,-5
1,1693677511779220300,1.255758762,0.444124401,10.28549004,-0.063418068,-0.002398162,-0.009192956,-11,49,90,13,-2
2,1693677511780220300,1.253364563,0.441730201,10.28668785,-0.063284837,-0.0021317,-0.009192956,-16,51,91,19,-1
3,1693677511781220300,1.248576164,0.438138902,10.28429317,-0.063284837,-0.0021317,-0.009059724,-18,43,90,10,-1
4,1693677511782220300,1.248576164,0.438138902,10.28309631,-0.063018374,-0.001998469,-0.009192956,-19,47,90,11,-3
0,1693677511808203000,1.249773264,0.439336002,10.26753426,-0.062218986,-0.002264931,-0.009059724,-1,45,88,13,-3
1,1693677511809203000,1.250970364,0.436941803,10.27351952,-0.061952524,-0.002398162,-0.008793262,-19,45,87,14,-2
2,1693677511810203000,1.249773264,0.434547603,10.27711105,-0.061952524,-0.002531394,-0.008926493,-22,45,90,13,0
3,1693677511811203000,1.246181965,0.435744703,10.27711105,-0.061952524,-0.002664625,-0.009192956,-18,49,95,7,-4
4,1693677511812203000,1.246181965,0.436941803,10.28189945,-0.061952524,-0.002797856,-0.009192956,-17,45,91,13,-2
0,1693677511837186300,1.258152962,0.436941803,10.27830791,-0.062218986,-0.002531394,-0.008793262,-20,43,88,12,-2
1,1693677511838186300,1.253364563,0.435744703,10.28070164,-0.062352221,-0.002797856,-0.008926493,-24,39,90,11,-1
2,1693677511839186300,1.254561663,0.435744703,10.28429317,-0.062218986,-0.002931087,-0.008793262,-15,50,87,12,-1
3,1693677511840186300,1.254561663,0.434547603,10.28549004,-0.062218986,-0.002931087,-0.008793262,-18,47,90,12,-3
4,1693677511841186300,1.252167463,0.435744703,10.28549004,-0.06261868,-0.002797856,-0.008660031,-16,47,90,11,-3
0,1693677511866170200,1.247379065,0.440533102,10.28788471,-0.062751912,-0.001865237,-0.008926493,-28,39,80,4,-18
1,1693677511867170200,1.248576164,0.441730201,10.28429317,-0.06261868,-0.001865237,-0.008793262,-24,34,83,4,-7
2,1693677511868170200,1.249773264,0.441730201,10.27830791,-0.062751912,-0.001732006,-0.008793262,-28,41,80,3,-9
3,1693677511869170200,1.249773264,0.440533102,10.27471638,-0.06261868,-0.001865237,-0.009059724,-22,40,79,6,-14
4,1693677511870170200,1.249773264,0.439336002,10.27711105,-0.062485453,-0.001998469,-0.009192956,-28,41,83,0,-15
0,1693677511894154700,1.252167463,0.438138902,10.28070164,-0.062751912,-0.001998469,-0.009059724,-27,38,78,7,-6
1,1693677511895154700,1.254561663,0.438138902,10.27950478,-0.062885143,-0.0021317,-0.008926493,-31,42,81,3,-9
2,1693677511896154700,1.249773264,0.435744703,10.28070164,-0.063151613,-0.0021317,-0.008793262,-27,41,83,2,-8
3,1693677511897154700,1.250970364,0.435744703,10.27591324,-0.063018374,-0.001998469,-0.008793262,-28,42,81,2,-11
4,1693677511898154700,1.249773264,0.435744703,10.27471638,-0.063151613,-0.001998469,-0.008793262,-28,41,84,7,-11
0,1693677511923137500,1.254561663,0.441730201,10.27950478,-0.063284837,-0.000799387,-0.009459418,-19,41,90,6,-2
1,1693677511924137500,1.254561663,0.44532153,10.28429317,-0.063018374,-0.000532925,-0.009459418,4,65,89,13,-2
2,1693677511925137500,1.252167463,0.44532153,10.28189945,-0.063418068,-0.000266462,-0.009592649,-23,42,89,13,0
3,1693677511926137500,1.252167463,0.447715729,10.27711105,-0.063418068,-0.000399694,-0.009592649,-16,49,93,13,1
4,1693677511927137500,1.249773264,0.44651863,10.27471638,-0.063151613,-0.000532925,-0.009459418,-19,49,92,13,1
0,1693677511950121500,1.252167463,0.439336002,10.29027843,-0.063018374,-0.000666156,-0.009059724,-33,49,95,13,-2
1,1693677511951121500,1.254561663,0.439336002,10.28908157,-0.063284837,-0.000666156,-0.009192956,-16,43,90,13,-5
2,1693677511952121500,1.254561663,0.439336002,10.29027843,-0.063284837,-0.00106585,-0.009326187,2,59,109,29,14
3,1693677511953121500,1.255758762,0.435744703,10.28788471,-0.062751912,-0.001332312,-0.009326187,-23,49,89,13,-4
4,1693677511954121500,1.253364563,0.438138902,10.28668785,-0.062485453,-0.001598775,-0.009326187,-1,64,107,32,14
0,1693677511989099400,1.246181965,0.433350503,10.26274586,-0.063151613,-0.001332312,-0.008526799,-17,47,90,9,-2
1,1693677511990099400,1.244984865,0.432153404,10.26633644,-0.063151613,-0.001199081,-0.008526799,-18,47,91,14,-2
2,1693677511991099400,1.242590666,0.433350503,10.26753426,-0.063151613,-0.000932619,-0.008526799,-18,53,89,7,-3
3,1693677511992099400,1.241393566,0.430956304,10.26873112,-0.062885143,-0.001199081,-0.008526799,-20,49,88,13,-3
4,1693677511993099400,1.241393566,0.434547603,10.27112484,-0.06261868,-0.001465544,-0.008926493,-24,42,87,4,-7
0,1693677512019081800,1.241393566,0.444124401,10.27711105,-0.062485453,-0.0021317,-0.008926493,-19,47,91,13,-2
1,1693677512020081800,1.242590666,0.442927301,10.28189945,-0.06261868,-0.001732006,-0.008793262,-16,53,90,15,1
2,1693677512021081800,1.242590666,0.442927301,10.28189945,-0.062751912,-0.001332312,-0.008793262,-18,51,90,13,-5
3,1693677512022081800,1.242590666,0.440533102,10.28429317,-0.062885143,-0.001332312,-0.008793262,-19,51,89,4,-4
4,1693677512023081800,1.242590666,0.438138902,10.28788471,-0.062751912,-0.000932619,-0.008793262,-23,43,86,10,-5
0,1693677512048065500,1.252167463,0.441730201,10.29506683,-0.062885143,-0.002264931,-0.008793262,-17,53,90,13,-3
1,1693677512049065500,1.250970364,0.442927301,10.29746151,-0.062885143,-0.002264931,-0.008793262,-24,46,88,13,-2
2,1693677512050065500,1.253364563,0.442927301,10.29746151,-0.063018374,-0.0021317,-0.008926493,-16,45,89,13,-3
3,1693677512051065500,1.250970364,0.444124401,10.29386997,-0.063151613,-0.0021317,-0.008793262,-19,45,88,8,-4
4,1693677512052065500,1.254561663,0.444124401,10.28788471,-0.063284837,-0.0021317,-0.008793262,-22,45,89,11,-4
0,1693677512076049600,1.242590666,0.429759204,10.27232265,-0.063151613,-0.001998469,-0.009592649,-20,43,89,13,-2
1,1693677512077049600,1.243787766,0.428562105,10.27351952,-0.063151613,-0.002264931,-0.009725881,-16,45,97,13,-1
2,1693677512078049600,1.243787766,0.429759204,10.27232265,-0.063018374,-0.002398162,-0.009725881,-19,47,89,15,-2
3,1693677512079049600,1.246181965,0.428562105,10.27232265,-0.062751912,-0.002264931,-0.009592649,-22,47,88,14,-1
4,1693677512080049600,1.248576164,0.428562105,10.27351952,-0.062751912,-0.002264931,-0.009592649,-20,49,91,13,-4
0,1693677512105033600,1.244984865,0.448912829,10.27591324,-0.06261868,-0.001998469,-0.009326187,-16,57,90,14,0
1,1693677512106033600,1.244984865,0.450109929,10.28309631,-0.062751912,-0.001732006,-0.009326187,-14,49,95,13,-5
2,1693677512107033600,1.242590666,0.44651863,10.28549004,-0.06261868,-0.001732006,-0.009459418,-22,49,91,12,-3
3,1693677512108033600,1.237802267,0.44651863,10.28429317,-0.062485453,-0.001732006,-0.009326187,-23,33,87,11,7
4,1693677512109033600,1.237802267,0.448912829,10.28309631,-0.062352221,-0.001732006,-0.009192956,-19,45,89,12,-1
0,1693677512136015000,1.246181965,0.439336002,10.27112484,-0.062885143,-0.001465544,-0.009059724,-14,43,84,13,5
1,1693677512137015000,1.248576164,0.436941803,10.27471638,-0.062885143,-0.001598775,-0.009192956,-20,50,88,10,-3
2,1693677512138015000,1.248576164,0.433350503,10.27351952,-0.062885143,-0.001598775,-0.009326187,-19,45,90,12,-1
3,1693677512139015000,1.247379065,0.433350503,10.26873112,-0.062751912,-0.001732006,-0.009326187,-18,49,87,11,-4
4,1693677512140015000,1.247379065,0.430956304,10.26394272,-0.06261868,-0.001865237,-0.009459418,-15,50,90,16,-4
0,1693677512163999400,1.246181965,0.439336002,10.26035118,-0.062485453,-0.002264931,-0.009326187,-12,49,90,15,0
1,1693677512164999400,1.248576164,0.438138902,10.26274586,-0.06261868,-0.002264931,-0.009459418,-24,47,90,12,-3
2,1693677512165999400,1.246181965,0.439336002,10.26274586,-0.062751912,-0.0021317,-0.009326187,-16,46,90,12,-2
3,1693677512166999400,1.244984865,0.441730201,10.26154804,-0.062751912,-0.0021317,-0.009459418,-19,47,89,2,-5
4,1693677512167999400,1.247379065,0.442927301,10.26753426,-0.062751912,-0.002264931,-0.009592649,-23,50,89,12,0
0,1693677512190983400,1.241393566,0.429759204,10.28189945,-0.06261868,-0.001865237,-0.009192956,-20,47,91,16,-2
1,1693677512191983400,1.241393566,0.430956304,10.27830791,-0.06261868,-0.001998469,-0.009459418,-19,43,88,11,-2
2,1693677512192983400,1.242590666,0.434547603,10.28070164,-0.062485453,-0.0021317,-0.009326187,-22,35,83,13,9
3,1693677512193983400,1.244984865,0.435744703,10.28189945,-0.062485453,-0.001998469,-0.009192956,-19,32,90,13,-5
4,1693677512194983400,1.244984865,0.438138902,10.27711105,-0.06261868,-0.001998469,-0.009059724,-15,52,90,12,0
0,1693677512219966500,1.242590666,0.438138902,10.27711105,-0.062751912,-0.0021317,-0.009192956,-19,50,87,17,-2
1,1693677512220966500,1.241393566,0.440533102,10.27351952,-0.063018374,-0.0021317,-0.009459418,-19,47,90,13,-2
2,1693677512221966500,1.241393566,0.440533102,10.27830791,-0.063018374,-0.0021317,-0.009459418,-22,49,89,10,-5
3,1693677512222966500,1.242590666,0.440533102,10.27830791,-0.062885143,-0.001998469,-0.009459418,-19,47,88,14,-3
4,1693677512223966500,1.241393566,0.440533102,10.28189945,-0.063018374,-0.0021317,-0.009326187,-16,50,90,9,-1
0,1693677512248950600,1.250970364,0.44532153,10.26873112,-0.062751912,-0.001865237,-0.009326187,-32,45,93,13,-9
1,1693677512249950600,1.249773264,0.444124401,10.27232265,-0.062751912,-0.001732006,-0.009192956,-20,42,89,13,-3
2,1693677512250950600,1.248576164,0.44532153,10.27351952,-0.062751912,-0.001732006,-0.009192956,-26,49,85,10,-8
3,1693677512251950600,1.252167463,0.447715729,10.27471638,-0.062751912,-0.001865237,-0.008926493,-18,44,88,13,-2
4,1693677512252950600,1.253364563,0.448912829,10.27232265,-0.062885143,-0.001732006,-0.009059724,-14,45,89,13,-2
0,1693677512290926900,1.233013868,0.447715729,10.27830791,-0.062885143,-0.001865237,-0.009326187,-16,47,87,11,-1
1,1693677512291926900,1.233013868,0.447715729,10.28070164,-0.062885143,-0.001998469,-0.009326187,-18,42,87,14,-3
2,1693677512292926900,1.233013868,0.450109929,10.28189945,-0.062751912,-0.001865237,-0.009459418,-20,46,91,6,-4
3,1693677512293926900,1.234210968,0.44651863,10.28429317,-0.062751912,-0.001998469,-0.009459418,-17,51,88,13,-2
4,1693677512294926900,1.236605167,0.44532153,10.28309631,-0.06261868,-0.001998469,-0.009459418,-20,52,90,8,-2
0,1693677512481818400,1.236605167,0.444124401,10.28788471,-0.06261868,-0.002531394,-0.008926493,-22,49,87,12,-2
1,1693677512482818400,1.237802267,0.441730201,10.28788471,-0.062751912,-0.002664625,-0.008793262,-22,43,89,13,-3
2,1693677512483818400,1.240196466,0.441730201,10.28668785,-0.062885143,-0.002531394,-0.008926493,-22,45,86,12,-7
3,1693677512484818400,1.242590666,0.440533102,10.28668785,-0.062885143,-0.002264931,-0.009326187,-23,46,87,13,-1
4,1693677512485818400,1.242590666,0.439336002,10.28189945,-0.062751912,-0.002398162,-0.009326187,-20,37,90,13,-1
0,1693677512511799900,1.244984865,0.44532153,10.28668785,-0.063151613,-0.002531394,-0.008793262,-24,49,87,13,0
1,1693677512512799900,1.244984865,0.441730201,10.28549004,-0.063018374,-0.002531394,-0.008926493,-20,39,90,10,-7
2,1693677512513799900,1.241393566,0.439336002,10.28429317,-0.063151613,-0.002531394,-0.008926493,-28,47,90,13,1
3,1693677512514799900,1.241393566,0.436941803,10.28429317,-0.063151613,-0.002398162,-0.008926493,-16,43,89,13,-2
4,1693677512515799900,1.241393566,0.439336002,10.28309631,-0.063018374,-0.002398162,-0.009059724,-17,43,93,13,-1
0,1693677512539783000,1.253364563,0.44651863,10.29746151,-0.063018374,-0.0021317,-0.009592649,-17,49,87,11,0
1,1693677512540783000,1.252167463,0.44651863,10.29985619,-0.063018374,-0.001998469,-0.009592649,-16,44,91,10,0
2,1693677512541783000,1.253364563,0.44532153,10.29746151,-0.063018374,-0.0021317,-0.009592649,-21,43,90,11,-2
3,1693677512542783000,1.254561663,0.44651863,10.29267311,-0.062885143,-0.002264931,-0.009326187,-17,47,85,12,1
4,1693677512543783000,1.249773264,0.44532153,10.29147625,-0.062885143,-0.002398162,-0.009326187,-19,45,99,13,1
0,1693677512566768400,1.252167463,0.430956304,10.28189945,-0.062352221,-0.001732006,-0.009592649,-19,48,89,16,-1
1,1693677512567768400,1.249773264,0.433350503,10.28189945,-0.062485453,-0.001732006,-0.009459418,-18,43,90,10,-4
2,1693677512568768400,1.250970364,0.434547603,10.28189945,-0.062352221,-0.001598775,-0.009459418,-16,50,88,11,-3
3,1693677512569768400,1.252167463,0.435744703,10.28668785,-0.062218986,-0.001598775,-0.009592649,-22,49,90,13,-2
4,1693677512570768400,1.249773264,0.438138902,10.28429317,-0.062218986,-0.001598775,-0.009592649,-20,48,90,13,-2
0,1693677512637727400,1.243787766,0.433350503,10.27950478,-0.062751912,-0.001998469,-0.009326187,-23,45,92,11,-8
1,1693677512638727400,1.242590666,0.430956304,10.27950478,-0.062751912,-0.001998469,-0.009459418,-40,45,91,13,-2
2,1693677512639727400,1.242590666,0.433350503,10.28549004,-0.062751912,-0.001998469,-0.009459418,-20,49,90,13,-2
3,1693677512640727400,1.242590666,0.434547603,10.28668785,-0.06261868,-0.001998469,-0.009459418,-12,53,91,13,0
4,1693677512641727400,1.242590666,0.432153404,10.28549004,-0.062485453,-0.001998469,-0.009459418,-19,37,85,8,-2
0,1693677512690697100,1.259350061,0.435744703,10.28668785,-0.063284837,-0.002664625,-0.009192956,-10,43,90,10,-4
1,1693677512691697100,1.260547161,0.433350503,10.29267311,-0.063284837,-0.002797856,-0.009059724,-20,51,89,13,-8
2,1693677512692697100,1.255758762,0.435744703,10.29506683,-0.063284837,-0.002664625,-0.009326187,-22,51,90,11,-2
3,1693677512693697100,1.256955862,0.436941803,10.29865837,-0.063284837,-0.002664625,-0.009326187,-16,42,90,15,0
4,1693677512694697100,1.258152962,0.435744703,10.29865837,-0.063151613,-0.002797856,-0.009459418,-16,47,90,10,0
0,1693677512753660800,1.250970364,0.442927301,10.27471638,-0.062352221,-0.0021317,-0.009192956,-18,41,92,13,-1
1,1693677512754660800,1.250970364,0.44532153,10.27232265,-0.062218986,-0.0021317,-0.009326187,-19,46,90,9,-3
2,1693677512755660800,1.248576164,0.44532153,10.27950478,-0.062352221,-0.002264931,-0.009192956,-23,50,88,13,-2
3,1693677512756660800,1.248576164,0.444124401,10.28070164,-0.062485453,-0.002264931,-0.009192956,-21,46,91,16,-2
4,1693677512757660800,1.249773264,0.44651863,10.27830791,-0.06261868,-0.002264931,-0.009059724,-20,50,90,8,-3
0,1693677512810629300,1.253364563,0.436941803,10.28309631,-0.06261868,-0.0021317,-0.009326187,-20,50,91,10,-2
1,1693677512811629300,1.252167463,0.434547603,10.28429317,-0.06261868,-0.001865237,-0.009326187,-17,57,90,11,-2
2,1693677512812629300,1.250970364,0.433350503,10.28549004,-0.062751912,-0.001865237,-0.009326187,-23,49,91,13,-3
3,1693677512813629300,1.247379065,0.436941803,10.29027843,-0.06261868,-0.001865237,-0.009326187,-17,54,91,8,-1
4,1693677512814629300,1.247379065,0.436941803,10.29386997,-0.06261868,-0.001732006,-0.009459418,-15,48,91,10,-3
0,1693677512948549200,1.253364563,0.433350503,10.28309631,-0.062885143,-0.001732006,-0.008926493,-20,47,84,10,-1
1,1693677512949549200,1.252167463,0.436941803,10.27830791,-0.062885143,-0.001732006,-0.008926493,-17,49,90,13,-1
2,1693677512950549200,1.254561663,0.436941803,10.27950478,-0.062885143,-0.001598775,-0.008926493,-17,55,90,15,1
3,1693677512951549200,1.256955862,0.433350503,10.27830791,-0.063018374,-0.001199081,-0.009059724,-19,45,86,13,-5
4,1693677512952549200,1.258152962,0.433350503,10.27950478,-0.063151613,-0.001199081,-0.009059724,-19,49,87,10,-1
0,1693677512976533700,1.247379065,0.434547603,10.28070164,-0.062751912,-0.001865237,-0.009059724,-22,41,90,10,-2
1,1693677512977533700,1.248576164,0.435744703,10.28189945,-0.062751912,-0.001865237,-0.009192956,-18,47,90,12,-2
2,1693677512978533700,1.247379065,0.439336002,10.28309631,-0.062885143,-0.001732006,-0.008926493,-14,47,90,14,1
3,1693677512979533700,1.249773264,0.440533102,10.28309631,-0.062885143,-0.001598775,-0.008793262,-16,41,90,13,-2
4,1693677512980533700,1.249773264,0.442927301,10.28309631,-0.062751912,-0.001732006,-0.008793262,-20,45,90,13,-3
0,1693677513038501300,1.249773264,0.441730201,10.27830791,-0.062352221,-0.001998469,-0.009326187,-12,48,90,13,3
1,1693677513039501300,1.246181965,0.442927301,10.28309631,-0.062485453,-0.001732006,-0.009192956,-19,51,90,13,0
2,1693677513040501300,1.244984865,0.440533102,10.28309631,-0.062352221,-0.001998469,-0.009192956,-8,43,89,11,3
3,1693677513041501300,1.246181965,0.440533102,10.28189945,-0.062218986,-0.001998469,-0.009192956,-16,46,93,15,-2
4,1693677513042501300,1.247379065,0.442927301,10.27830791,-0.062218986,-0.001865237,-0.009192956,-14,48,90,12,-1
0,1693677513080473500,1.247379065,0.439336002,10.29147625,-0.063018374,-0.001865237,-0.008926493,-15,50,91,15,0
1,1693677513081473500,1.246181965,0.440533102,10.29386997,-0.063018374,-0.001998469,-0.009059724,-14,53,91,16,3
2,1693677513082473500,1.243787766,0.44532153,10.29267311,-0.063018374,-0.001865237,-0.009059724,-16,47,89,10,-2
3,1693677513083473500,1.243787766,0.444124401,10.28788471,-0.063018374,-0.001865237,-0.009192956,-18,47,91,16,1
4,1693677513084473500,1.247379065,0.44651863,10.28668785,-0.063018374,-0.001998469,-0.009192956,-16,39,90,13,-2
0,1693677513173420400,1.241393566,0.435744703,10.28549004,-0.062885143,-0.0021317,-0.009459418,-13,53,91,14,17
1,1693677513174420400,1.240196466,0.434547603,10.28549004,-0.062885143,-0.0021317,-0.009459418,-15,50,99,13,5
2,1693677513175420400,1.240196466,0.435744703,10.28908157,-0.062885143,-0.001998469,-0.009592649,-16,55,90,7,-2
3,1693677513176420400,1.240196466,0.435744703,10.28788471,-0.063018374,-0.001865237,-0.009592649,-18,51,90,13,1
4,1693677513177420400,1.240196466,0.435744703,10.28788471,-0.063151613,-0.001998469,-0.009725881,-16,49,90,13,-1
0,1693677513226390000,1.252167463,0.440533102,10.25915432,-0.06261868,-0.002264931,-0.009059724,-21,48,90,13,2
1,1693677513227390000,1.250970364,0.439336002,10.26513958,-0.06261868,-0.002531394,-0.009059724,-11,75,91,15,0
2,1693677513228390000,1.247379065,0.441730201,10.26992798,-0.062751912,-0.002398162,-0.009059724,-16,48,91,12,1
3,1693677513229390000,1.247379065,0.442927301,10.27471638,-0.062885143,-0.002398162,-0.008926493,-15,53,95,13,0
4,1693677513230390000,1.246181965,0.439336002,10.27112484,-0.063018374,-0.002398162,-0.008926493,-18,47,89,13,-2
0,1693677513313340400,1.243787766,0.440533102,10.27232265,-0.062885143,-0.002264931,-0.008926493,-19,48,91,8,-2
1,1693677513314340400,1.243787766,0.440533102,10.27591324,-0.062885143,-0.002264931,-0.009059724,-10,51,91,14,1
2,1693677513315340400,1.244984865,0.441730201,10.27351952,-0.062885143,-0.002264931,-0.008926493,-17,50,90,10,-2
3,1693677513316340400,1.247379065,0.441730201,10.27232265,-0.062885143,-0.002264931,-0.008926493,-16,49,88,12,-3
4,1693677513317340400,1.247379065,0.444124401,10.27112484,-0.063018374,-0.0021317,-0.008926493,-15,46,90,13,-1
0,1693677513346321600,1.241393566,0.436941803,10.27471638,-0.063018374,-0.0021317,-0.009192956,-15,37,95,13,3
1,1693677513347321600,1.241393566,0.435744703,10.27471638,-0.062885143,-0.0021317,-0.009059724,-17,48,90,16,3
2,1693677513348321600,1.242590666,0.434547603,10.27471638,-0.062751912,-0.0021317,-0.009192956,-15,46,90,13,-2
3,1693677513349321600,1.243787766,0.428562105,10.27950478,-0.06261868,-0.002264931,-0.009326187,-23,46,91,13,-5
4,1693677513350321600,1.241393566,0.427365005,10.28189945,-0.062352221,-0.002398162,-0.009459418,-15,43,97,13,-2
0,1693677513427275100,1.250970364,0.433350503,10.26873112,-0.062218986,-0.002531394,-0.008926493,-16,53,100,18,0
1,1693677513428275100,1.253364563,0.430956304,10.26753426,-0.062352221,-0.002531394,-0.008793262,-15,50,89,13,-1
2,1693677513429275100,1.255758762,0.432153404,10.26873112,-0.062352221,-0.002398162,-0.008793262,-14,51,90,12,-1
3,1693677513430275100,1.255758762,0.430956304,10.26992798,-0.062352221,-0.002264931,-0.009059724,-18,45,94,13,-7
4,1693677513431275100,1.253364563,0.433350503,10.26873112,-0.062352221,-0.002264931,-0.009192956,-33,37,91,13,0
0,1693677513493237700,1.253364563,0.439336002,10.28908157,-0.06261868,-0.0021317,-0.008926493,-15,53,90,15,1
1,1693677513494237700,1.254561663,0.441730201,10.28309631,-0.06261868,-0.002264931,-0.009059724,-21,46,90,20,1
2,1693677513495237700,1.255758762,0.444124401,10.27950478,-0.062751912,-0.002398162,-0.009326187,-15,49,94,12,-2
3,1693677513496237700,1.255758762,0.442927301,10.28070164,-0.06261868,-0.002264931,-0.009326187,-20,44,90,19,-1
4,1693677513497237700,1.256955862,0.442927301,10.28429317,-0.06261868,-0.0021317,-0.009326187,-12,43,90,13,-1
0,1693677513561198200,1.248576164,0.434547603,10.27950478,-0.062352221,-0.001998469,-0.008926493,-15,46,89,16,5
1,1693677513562198200,1.248576164,0.433350503,10.28309631,-0.062085759,-0.001998469,-0.008926493,-21,47,91,13,0
2,1693677513563198200,1.249773264,0.433350503,10.28429317,-0.062085759,-0.0021317,-0.008926493,-18,49,90,12,-1
3,1693677513564198200,1.249773264,0.434547603,10.28189945,-0.061952524,-0.0021317,-0.008926493,-18,48,89,13,0
4,1693677513565198200,1.252167463,0.432153404,10.28189945,-0.061819296,-0.002264931,-0.008926493,-17,49,90,13,-1
0,1693677513622162600,1.246181965,0.436941803,10.28549004,-0.062485453,-0.001732006,-0.008926493,-18,46,92,13,3
1,1693677513623162600,1.244984865,0.435744703,10.29027843,-0.062485453,-0.001998469,-0.008926493,-18,51,90,12,-2
2,1693677513624162600,1.246181965,0.434547603,10.28908157,-0.062485453,-0.001865237,-0.009059724,-16,49,90,14,-1
3,1693677513625162600,1.250970364,0.430956304,10.28429317,-0.062485453,-0.001598775,-0.009192956,-16,50,90,12,-3
4,1693677513626162600,1.250970364,0.426167905,10.28189945,-0.06261868,-0.001598775,-0.009192956,-16,53,91,13,0
0,1693677513703117100,1.248576164,0.428562105,10.28070164,-0.063018374,-0.002264931,-0.009059724,-20,49,84,12,1
1,1693677513704117100,1.248576164,0.428562105,10.28549004,-0.063151613,-0.002264931,-0.008926493,-19,50,90,13,1
2,1693677513705117100,1.244984865,0.428562105,10.28668785,-0.063284837,-0.002398162,-0.008793262,-18,49,90,13,-2
3,1693677513706117100,1.243787766,0.430956304,10.29027843,-0.063151613,-0.0021317,-0.009059724,-11,54,89,13,-2
4,1693677513707117100,1.240196466,0.430956304,10.29626465,-0.063151613,-0.001865237,-0.009059724,-11,51,88,16,-2
0,1693677513767080100,1.241393566,0.434547603,10.27830791,-0.063284837,-0.0021317,-0.008926493,-20,48,90,25,4
1,1693677513768080100,1.247379065,0.434547603,10.27950478,-0.063284837,-0.002264931,-0.008793262,-16,49,90,11,0
2,1693677513769080100,1.246181965,0.440533102,10.28070164,-0.063284837,-0.002264931,-0.008660031,-14,49,95,6,-2
3,1693677513770080100,1.243787766,0.439336002,10.27950478,-0.063151613,-0.0021317,-0.008660031,-13,45,90,13,1
4,1693677513771080100,1.242590666,0.441730201,10.27950478,-0.063151613,-0.001998469,-0.008393568,-18,50,95,12,2
0,1693677513839041300,1.235408068,0.434547603,10.27351952,-0.06261868,-0.002264931,-0.008793262,-14,49,90,14,-2
1,1693677513840041300,1.235408068,0.434547603,10.27351952,-0.062751912,-0.0021317,-0.008793262,-15,47,92,13,-1
2,1693677513841041300,1.237802267,0.435744703,10.27591324,-0.062751912,-0.0021317,-0.008660031,-18,43,90,16,-2
3,1693677513842041300,1.237802267,0.433350503,10.27591324,-0.06261868,-0.002264931,-0.009059724,-17,45,90,13,-1
4,1693677513843041300,1.238999367,0.430956304,10.27471638,-0.062485453,-0.0021317,-0.009059724,-18,47,93,12,0
0,1693677513899005700,1.242590666,0.434547603,10.28429317,-0.063018374,-0.001998469,-0.009859112,-18,43,88,15,-2
1,1693677513900005700,1.242590666,0.434547603,10.28668785,-0.062885143,-0.001998469,-0.009859112,-14,55,91,13,0
2,1693677513901005700,1.240196466,0.435744703,10.28788471,-0.062751912,-0.001998469,-0.009725881,-23,43,90,14,-1
3,1693677513902005700,1.242590666,0.435744703,10.28788471,-0.062885143,-0.001998469,-0.009592649,-17,49,90,13,1
4,1693677513903005700,1.246181965,0.435744703,10.28429317,-0.062751912,-0.0021317,-0.009459418,-12,49,88,13,-1
0,1693677513960969500,1.238999367,0.444124401,10.27711105,-0.062352221,-0.002664625,-0.009192956,-20,53,89,14,-1
1,1693677513961969500,1.242590666,0.442927301,10.28070164,-0.06261868,-0.002531394,-0.009059724,-18,45,90,13,0
2,1693677513962969500,1.242590666,0.440533102,10.27950478,-0.062751912,-0.002531394,-0.009192956,-20,49,91,13,-1
3,1693677513963969500,1.241393566,0.441730201,10.28070164,-0.062885143,-0.002531394,-0.009059724,-19,49,93,13,-2
4,1693677513964969500,1.242590666,0.442927301,10.28429317,-0.062751912,-0.002398162,-0.009059724,-11,48,94,13,3
0,1693677514019935200,1.242590666,0.440533102,10.28429317,-0.062352221,-0.002531394,-0.009592649,-15,49,88,13,3
1,1693677514020935200,1.238999367,0.441730201,10.28309631,-0.062352221,-0.002531394,-0.009459418,-6,48,87,16,-12
2,1693677514021935200,1.238999367,0.438138902,10.28549004,-0.062352221,-0.002398162,-0.009459418,-12,52,93,16,1
3,1693677514022935200,1.240196466,0.438138902,10.28429317,-0.062218986,-0.002531394,-0.009592649,-12,50,95,18,0
4,1693677514023935200,1.241393566,0.438138902,10.28189945,-0.062352221,-0.002531394,-0.009459418,-10,51,92,12,7
0,1693677514108883700,1.244984865,0.435744703,10.28070164,-0.06261868,-0.002264931,-0.009192956,-13,46,89,8,1
1,1693677514109883700,1.244984865,0.436941803,10.28189945,-0.062485453,-0.002264931,-0.009192956,-19,48,90,12,3
2,1693677514110883700,1.243787766,0.440533102,10.28668785,-0.062485453,-0.002398162,-0.008926493,-13,44,91,13,3
3,1693677514111883700,1.240196466,0.444124401,10.28788471,-0.06261868,-0.002398162,-0.009059724,-16,57,91,20,1
4,1693677514112883700,1.241393566,0.444124401,10.28429317,-0.062751912,-0.002531394,-0.009059724,-18,55,93,13,0
0,1693677514187838300,1.249773264,0.436941803,10.27112484,-0.063151613,-0.001732006,-0.008926493,-14,47,90,13,-2
1,1693677514188838300,1.248576164,0.436941803,10.26873112,-0.062885143,-0.001865237,-0.008926493,-18,41,88,14,-2
2,1693677514189838300,1.247379065,0.436941803,10.26633644,-0.063018374,-0.001998469,-0.008926493,-17,46,92,14,4
3,1693677514190838300,1.247379065,0.436941803,10.27950478,-0.062885143,-0.001998469,-0.008793262,-17,45,90,19,1
4,1693677514191838300,1.246181965,0.439336002,10.27351952,-0.063018374,-0.0021317,-0.009059724,-16,50,88,13,0
0,1693677514223818100,1.243787766,0.439336002,10.29985619,-0.062751912,-0.002264931,-0.009192956,-15,47,90,16,3
1,1693677514224818100,1.244984865,0.438138902,10.30224991,-0.062751912,-0.002264931,-0.009059724,-19,49,87,9,-5
2,1693677514225818100,1.247379065,0.435744703,10.30224991,-0.062885143,-0.002398162,-0.009059724,-12,43,90,8,1
3,1693677514226818100,1.249773264,0.434547603,10.30224991,-0.062885143,-0.002398162,-0.008926493,-18,51,87,16,1
4,1693677514227818100,1.252167463,0.440533102,10.30224991,-0.062885143,-0.002264931,-0.009059724,-7,51,100,18,0
0,1693677514305771400,1.259350061,0.444124401,10.27232265,-0.062218986,-0.002398162,-0.009326187,-24,49,90,10,0
1,1693677514306771400,1.260547161,0.442927301,10.27591324,-0.062218986,-0.002398162,-0.009059724,-16,52,90,13,-1
2,1693677514307771400,1.259350061,0.444124401,10.27830791,-0.062218986,-0.002398162,-0.009326187,-16,43,91,13,-1
3,1693677514308771400,1.259350061,0.442927301,10.27591324,-0.062218986,-0.002264931,-0.009192956,-14,42,93,13,3
4,1693677514309771400,1.260547161,0.44532153,10.27591324,-0.062085759,-0.002264931,-0.009192956,-15,47,90,13,-2
0,1693677514375732200,1.252167463,0.430956304,10.27112484,-0.062885143,-0.002398162,-0.009326187,-22,47,92,13,-2
1,1693677514376732200,1.249773264,0.428562105,10.27351952,-0.062885143,-0.002264931,-0.009326187,-15,55,91,12,3
2,1693677514377732200,1.249773264,0.429759204,10.27232265,-0.063018374,-0.0021317,-0.009192956,-15,57,92,13,1
3,1693677514378732200,1.250970364,0.432153404,10.27232265,-0.063018374,-0.0021317,-0.009059724,-12,49,96,16,3
4,1693677514379732200,1.249773264,0.433350503,10.27112484,-0.063018374,-0.0021317,-0.009192956,-14,49,90,13,-4
0,1693677514438694800,1.246181965,0.444124401,10.27950478,-0.063018374,-0.001998469,-0.009326187,-18,49,89,19,-2
1,1693677514439694800,1.246181965,0.444124401,10.28189945,-0.063151613,-0.001865237,-0.009592649,-17,49,90,14,1
2,1693677514440694800,1.250970364,0.44651863,10.28429317,-0.063018374,-0.001732006,-0.009592649,-13,49,90,13,3
3,1693677514441694800,1.252167463,0.44532153,10.28549004,-0.063018374,-0.001732006,-0.009592649,-28,51,91,12,2
4,1693677514442694800,1.248576164,0.44532153,10.28549004,-0.062885143,-0.001732006,-0.009592649,-16,41,90,13,0
0,1693677514498660900,1.243787766,0.426167905,10.28309631,-0.062218986,-0.001998469,-0.009059724,-12,43,89,9,1
1,1693677514499660900,1.246181965,0.423773706,10.27950478,-0.062218986,-0.001865237,-0.009059724,-18,47,90,7,1
2,1693677514500660900,1.242590666,0.422576606,10.27950478,-0.062218986,-0.001998469,-0.009192956,-16,42,91,13,-1
3,1693677514501660900,1.244984865,0.421379507,10.28189945,-0.062085759,-0.0021317,-0.009326187,-15,50,89,18,1
4,1693677514502660900,1.244984865,0.422576606,10.28189945,-0.062218986,-0.0021317,-0.009326187,-16,43,91,13,-2
0,1693677514564622300,1.253364563,0.426167905,10.28070164,-0.062218986,-0.0021317,-0.008526799,-14,50,90,13,-2
1,1693677514565622300,1.252167463,0.426167905,10.27711105,-0.062352221,-0.0021317,-0.008526799,-16,53,92,13,0
2,1693677514566622300,1.250970364,0.424970806,10.27830791,-0.062352221,-0.002264931,-0.008526799,-14,53,90,18,0
3,1693677514567622300,1.249773264,0.427365005,10.28070164,-0.062485453,-0.002264931,-0.008393568,-16,49,90,13,-2
4,1693677514568622300,1.250970364,0.430956304,10.27950478,-0.062485453,-0.0021317,-0.008393568,-20,49,90,14,1
0,1693677514627586700,1.244984865,0.426167905,10.27711105,-0.062885143,-0.001998469,-0.008793262,-16,43,90,13,0
1,1693677514628586700,1.244984865,0.427365005,10.27351952,-0.062751912,-0.001998469,-0.008793262,-16,49,90,10,-3
2,1693677514629586700,1.248576164,0.429759204,10.27711105,-0.063018374,-0.0021317,-0.008926493,-12,51,93,13,3
3,1693677514630586700,1.249773264,0.429759204,10.27950478,-0.063151613,-0.002264931,-0.009192956,-19,53,91,20,1
4,1693677514631586700,1.248576164,0.430956304,10.27830791,-0.063018374,-0.0021317,-0.009059724,-12,46,90,13,-1
0,1693677514713537500,1.253364563,0.44651863,10.28549004,-0.062885143,-0.001998469,-0.009326187,-22,51,90,16,-5
1,1693677514714537500,1.253364563,0.447715729,10.29147625,-0.062751912,-0.0021317,-0.009592649,-14,49,90,13,-2
2,1693677514715537500,1.254561663,0.447715729,10.29386997,-0.062751912,-0.002264931,-0.009459418,-15,53,90,13,1
3,1693677514716537500,1.249773264,0.441730201,10.29386997,-0.062751912,-0.002264931,-0.009459418,-16,55,90,2,3
4,1693677514717537500,1.248576164,0.440533102,10.29147625,-0.06261868,-0.002264931,-0.009326187,-17,49,90,13,1
0,1693677514775502000,1.250970364,0.440533102,10.28070164,-0.06261868,-0.001998469,-0.009592649,-16,54,85,8,-9
1,1693677514776502000,1.250970364,0.438138902,10.28070164,-0.062751912,-0.001998469,-0.009326187,-16,49,90,13,-2
2,1693677514777502000,1.248576164,0.438138902,10.28309631,-0.062885143,-0.001865237,-0.009459418,-15,43,95,20,-9
3,1693677514778502000,1.246181965,0.438138902,10.27950478,-0.062751912,-0.0021317,-0.009459418,-17,51,93,13,2
4,1693677514779502000,1.249773264,0.438138902,10.27711105,-0.062885143,-0.001998469,-0.009326187,-18,48,89,14,-3
0,1693677514825474200,1.240196466,0.44651863,10.27950478,-0.062751912,-0.002264931,-0.009326187,-17,57,95,13,1
1,1693677514826474200,1.238999367,0.447715729,10.28070164,-0.062885143,-0.0021317,-0.009326187,-19,49,90,11,3
2,1693677514827474200,1.242590666,0.44651863,10.27950478,-0.062885143,-0.001998469,-0.009192956,-16,46,90,11,-5
3,1693677514828474200,1.242590666,0.44532153,10.27950478,-0.062885143,-0.0021317,-0.009326187,-16,47,89,13,-1
4,1693677514829474200,1.238999367,0.441730201,10.27830791,-0.062751912,-0.001998469,-0.009192956,-20,45,87,12,-1
0,1693677514910424200,1.242590666,0.434547603,10.27112484,-0.061819296,-0.002264931,-0.009192956,-14,51,90,13,0
1,1693677514911424200,1.241393566,0.435744703,10.27351952,-0.061952524,-0.0021317,-0.009192956,-15,51,92,10,4
2,1693677514912424200,1.241393566,0.440533102,10.27351952,-0.061952524,-0.0021317,-0.009326187,-15,57,90,13,3
3,1693677514913424200,1.242590666,0.435744703,10.26873112,-0.061819296,-0.0021317,-0.009192956,-15,43,89,11,-1
4,1693677514914424200,1.241393566,0.434547603,10.26873112,-0.061819296,-0.002264931,-0.009059724,-24,50,90,13,1
0,1693677514973388500,1.250970364,0.435744703,10.28549004,-0.062218986,-0.002264931,-0.009592649,-17,50,95,13,-2
1,1693677514974388500,1.253364563,0.438138902,10.28309631,-0.062218986,-0.002264931,-0.009592649,-17,50,93,16,-2
2,1693677514975388500,1.253364563,0.435744703,10.27830791,-0.062218986,-0.002398162,-0.009592649,-18,43,99,20,2
3,1693677514976388500,1.253364563,0.433350503,10.27950478,-0.062085759,-0.002264931,-0.009459418,-19,47,91,13,-1
4,1693677514977388500,1.253364563,0.433350503,10.27591324,-0.062218986,-0.0021317,-0.009326187,-20,46,91,17,-1
0,1693677515132298100,1.253364563,0.440533102,10.29147625,-0.063018374,-0.001998469,-0.009326187,-18,47,91,13,2
1,1693677515133298100,1.256955862,0.440533102,10.29386997,-0.063018374,-0.0021317,-0.009192956,-8,50,90,15,1
2,1693677515134298100,1.256955862,0.444124401,10.29027843,-0.062885143,-0.0021317,-0.009059724,-23,49,90,13,-2
3,1693677515135298100,1.255758762,0.44532153,10.29386997,-0.062751912,-0.0021317,-0.009192956,-14,46,88,13,-1
4,1693677515136298100,1.254561663,0.442927301,10.29386997,-0.062885143,-0.002264931,-0.009192956,-12,42,90,10,-1
0,1693677515159282100,1.248576164,0.424970806,10.27830791,-0.06261868,-0.002398162,-0.009192956,6,78,116,35,23
1,1693677515160282100,1.244984865,0.423773706,10.27950478,-0.062751912,-0.002398162,-0.009192956,8,70,116,13,4
2,1693677515161282100,1.237802267,0.423773706,10.27830791,-0.062751912,-0.002531394,-0.009192956,-15,42,90,13,13
3,1693677515162282100,1.235408068,0.423773706,10.27950478,-0.062885143,-0.002797856,-0.009326187,-17,52,90,13,-1
4,1693677515163282100,1.236605167,0.426167905,10.28070164,-0.062885143,-0.002797856,-0.009459418,-18,51,89,12,11
0,1693677515187266100,1.238999367,0.441730201,10.28070164,-0.062885143,-0.001998469,-0.009192956,-19,49,90,12,1
1,1693677515188266100,1.240196466,0.442927301,10.28189945,-0.062751912,-0.0021317,-0.009192956,-8,49,90,12,0
2,1693677515189266100,1.246181965,0.439336002,10.28788471,-0.062751912,-0.0021317,-0.009326187,-17,49,90,12,-3
3,1693677515190266100,1.243787766,0.440533102,10.28908157,-0.062751912,-0.0021317,-0.009192956,-30,51,89,8,-2
4,1693677515191266100,1.241393566,0.44532153,10.29386997,-0.062751912,-0.0021317,-0.009059724,-18,46,86,14,0
0,1693677515250230000,1.246181965,0.439336002,10.28309631,-0.062751912,-0.002531394,-0.009326187,-23,52,91,13,-1
1,1693677515251230000,1.249773264,0.439336002,10.28309631,-0.062885143,-0.002398162,-0.009326187,-19,57,90,14,-1
2,1693677515252230000,1.250970364,0.439336002,10.28309631,-0.062885143,-0.002531394,-0.009459418,-16,53,90,12,1
3,1693677515253230000,1.253364563,0.440533102,10.28309631,-0.062885143,-0.002398162,-0.009326187,-6,35,92,13,-2
4,1693677515254230000,1.250970364,0.440533102,10.28309631,-0.063018374,-0.002531394,-0.009459418,-11,47,89,12,6
0,1693677515309196400,1.247379065,0.444124401,10.27232265,-0.063284837,-0.002264931,-0.009059724,-16,45,95,14,-4
1,1693677515310196400,1.244984865,0.441730201,10.27112484,-0.063151613,-0.001998469,-0.009059724,-16,53,90,13,-1
2,1693677515311196400,1.244984865,0.438138902,10.26873112,-0.063151613,-0.001998469,-0.008926493,-21,44,90,13,-3
3,1693677515312196400,1.246181965,0.440533102,10.27591324,-0.063151613,-0.001865237,-0.008926493,-14,43,88,-1,7
4,1693677515313196400,1.249773264,0.440533102,10.27591324,-0.063018374,-0.001865237,-0.009192956,-18,53,90,13,1
0,1693677515395146300,1.238999367,0.442927301,10.28189945,-0.062485453,-0.002264931,-0.009592649,-11,52,92,18,2
1,1693677515396146300,1.241393566,0.440533102,10.27950478,-0.062485453,-0.002264931,-0.009592649,-20,45,89,16,1
2,1693677515397146300,1.241393566,0.435744703,10.28070164,-0.062352221,-0.002264931,-0.009459418,-18,55,89,10,3
3,1693677515398146300,1.242590666,0.434547603,10.27591324,-0.062218986,-0.002264931,-0.009592649,-17,43,90,14,-2
4,1693677515399146300,1.243787766,0.434547603,10.28070164,-0.062085759,-0.002264931,-0.009459418,-14,52,90,16,1
0,1693677515435124000,1.249773264,0.428562105,10.26753426,-0.062885143,-0.002264931,-0.009326187,-12,48,91,13,-2
1,1693677515436124000,1.250970364,0.424970806,10.26633644,-0.062751912,-0.0021317,-0.009192956,-18,45,92,16,1
2,1693677515437124000,1.247379065,0.424970806,10.26513958,-0.062751912,-0.002398162,-0.009326187,-18,48,89,13,-2
3,1693677515438124000,1.246181965,0.429759204,10.26753426,-0.062885143,-0.002264931,-0.009192956,-17,55,90,14,0
4,1693677515439124000,1.246181965,0.430956304,10.26992798,-0.062885143,-0.0021317,-0.009059724,-16,55,94,15,5
0,1693677515516077800,1.241393566,0.435744703,10.28668785,-0.063018374,-0.002264931,-0.009459418,-14,47,95,14,1
1,1693677515517077800,1.242590666,0.433350503,10.28668785,-0.063151613,-0.002264931,-0.009326187,-16,50,90,13,-1
2,1693677515518077800,1.242590666,0.433350503,10.28788471,-0.063018374,-0.0021317,-0.009326187,-16,50,84,13,-3
3,1693677515519077800,1.241393566,0.430956304,10.28549004,-0.062885143,-0.002264931,-0.009059724,-16,49,92,13,-2
4,1693677515520077800,1.236605167,0.433350503,10.27711105,-0.063018374,-0.002264931,-0.009192956,-12,47,90,13,-1
0,1693677515575044800,1.244984865,0.435744703,10.28429317,-0.06261868,-0.001998469,-0.009326187,-8,53,104,13,1
1,1693677515576044800,1.248576164,0.434547603,10.28429317,-0.06261868,-0.001998469,-0.009326187,-18,52,92,14,-2
2,1693677515577044800,1.252167463,0.434547603,10.28549004,-0.062751912,-0.001998469,-0.009192956,-19,47,88,13,0
3,1693677515578044800,1.250970364,0.433350503,10.28429317,-0.062885143,-0.001732006,-0.009192956,-18,35,91,13,-2
4,1693677515579044800,1.252167463,0.435744703,10.28309631,-0.062751912,-0.001865237,-0.009192956,-19,48,90,13,3
0,1693677515650000800,1.244984865,0.434547603,10.29147625,-0.063284837,-0.002531394,-0.009326187,-17,49,89,10,-4
1,1693677515651000800,1.244984865,0.433350503,10.29386997,-0.063284837,-0.002531394,-0.009192956,-17,46,90,10,-1
2,1693677515652000800,1.243787766,0.435744703,10.29386997,-0.063284837,-0.002664625,-0.009192956,-18,44,93,13,-4
3,1693677515653000800,1.242590666,0.438138902,10.29746151,-0.063151613,-0.002531394,-0.009059724,-17,51,92,14,-1
4,1693677515654000800,1.240196466,0.438138902,10.30105305,-0.063018374,-0.002664625,-0.009192956,-16,52,90,18,3
0,1693677515709966200,1.252167463,0.429759204,10.28189945,-0.063018374,-0.002398162,-0.009459418,-16,49,90,13,-2
1,1693677515710966200,1.254561663,0.430956304,10.28549004,-0.063018374,-0.002398162,-0.009592649,-12,49,90,13,1
2,1693677515711966200,1.256955862,0.433350503,10.28788471,-0.063151613,-0.002531394,-0.009592649,-18,49,95,44,-1
3,1693677515712966200,1.255758762,0.432153404,10.28908157,-0.063151613,-0.002531394,-0.009592649,-16,53,89,13,-1
4,1693677515713966200,1.255758762,0.429759204,10.29147625,-0.063151613,-0.002398162,-0.009592649,-12,57,93,16,-1
0,1693677515778927200,1.241393566,0.433350503,10.28908157,-0.062885143,-0.0021317,-0.008926493,-14,47,90,13,-2
1,1693677515779927200,1.240196466,0.429759204,10.29267311,-0.062751912,-0.002264931,-0.008926493,-17,50,87,13,-1
2,1693677515780927200,1.241393566,0.432153404,10.29027843,-0.062751912,-0.002264931,-0.008926493,-18,49,91,12,0
3,1693677515781927200,1.242590666,0.434547603,10.28788471,-0.06261868,-0.0021317,-0.008926493,-18,49,93,15,1
4,1693677515782927200,1.240196466,0.432153404,10.28549004,-0.062485453,-0.001998469,-0.009192956,-20,51,90,12,7
0,1693677515862879300,1.248576164,0.441730201,10.28429317,-0.062751912,-0.002531394,-0.009326187,-19,53,90,12,-2
1,1693677515863879300,1.247379065,0.441730201,10.28549004,-0.06261868,-0.002531394,-0.009326187,-18,47,91,13,-3
2,1693677515864879300,1.249773264,0.439336002,10.28668785,-0.062751912,-0.002398162,-0.009326187,-14,48,91,13,-1
3,1693677515865879300,1.252167463,0.439336002,10.27950478,-0.062751912,-0.002264931,-0.009592649,-16,47,90,13,4
4,1693677515866879300,1.252167463,0.435744703,10.27711105,-0.063018374,-0.002398162,-0.009592649,-14,50,93,22,-1
0,1693677515923843800,1.246181965,0.441730201,10.26274586,-0.062751912,-0.001732006,-0.008660031,-12,43,90,11,0
1,1693677515924843800,1.242590666,0.440533102,10.25915432,-0.062751912,-0.001865237,-0.008660031,-19,42,89,12,-3
2,1693677515925843800,1.243787766,0.440533102,10.25915432,-0.062751912,-0.001865237,-0.008526799,-16,54,91,14,1
3,1693677515926843800,1.242590666,0.438138902,10.26513958,-0.06261868,-0.001732006,-0.008393568,-14,49,91,13,4
4,1693677515927843800,1.241393566,0.433350503,10.26873112,-0.062751912,-0.001865237,-0.008393568,-16,49,91,13,-1
0,1693677515990805800,1.244984865,0.432153404,10.26992798,-0.062751912,-0.002398162,-0.008926493,-27,52,90,13,-2
1,1693677515991805800,1.246181965,0.435744703,10.27112484,-0.062751912,-0.002398162,-0.008926493,-22,48,88,6,-1
2,1693677515992805800,1.244984865,0.440533102,10.26873112,-0.06261868,-0.002264931,-0.008926493,-17,49,90,13,0
3,1693677515993805800,1.243787766,0.439336002,10.26992798,-0.062751912,-0.002264931,-0.009059724,-18,46,90,8,5
4,1693677515994805800,1.248576164,0.439336002,10.27471638,-0.062485453,-0.002264931,-0.009059724,-16,44,96,13,0
0,1693677516053769700,1.247379065,0.430956304,10.29626465,-0.062485453,-0.0021317,-0.009459418,-20,37,89,14,-2
1,1693677516054769700,1.249773264,0.430956304,10.29985619,-0.062485453,-0.002398162,-0.009459418,-18,51,89,13,-1
2,1693677516055769700,1.250970364,0.430956304,10.30584145,-0.062485453,-0.0021317,-0.009459418,-14,53,91,14,-2
3,1693677516056769700,1.249773264,0.432153404,10.30464458,-0.062352221,-0.002264931,-0.009592649,-19,55,90,15,1
4,1693677516057769700,1.247379065,0.430956304,10.30584145,-0.062352221,-0.002264931,-0.009725881,-16,49,90,12,-2
0,1693677516118734300,1.249773264,0.442927301,10.28549004,-0.063151613,-0.002398162,-0.008926493,-22,45,87,14,-2
1,1693677516119734300,1.250970364,0.441730201,10.28309631,-0.063018374,-0.002264931,-0.009059724,-11,37,88,13,-1
2,1693677516120734300,1.253364563,0.439336002,10.28070164,-0.063151613,-0.001998469,-0.009059724,-17,51,91,14,1
3,1693677516121734300,1.252167463,0.438138902,10.28309631,-0.063284837,-0.0021317,-0.008926493,-16,50,90,16,1
4,1693677516122734300,1.249773264,0.439336002,10.28429317,-0.063018374,-0.001998469,-0.008926493,-18,46,90,16,1
0,1693677516201684400,1.244984865,0.432153404,10.28788471,-0.063151613,-0.002398162,-0.009192956,6,57,105,34,21
1,1693677516202684400,1.243787766,0.433350503,10.28788471,-0.063151613,-0.002398162,-0.009192956,-20,47,90,13,-1
2,1693677516203684400,1.244984865,0.435744703,10.28788471,-0.063284837,-0.002398162,-0.009192956,-15,49,91,3,-2
3,1693677516204684400,1.247379065,0.440533102,10.28189945,-0.063284837,-0.002264931,-0.009326187,-17,51,92,16,0
4,1693677516205684400,1.249773264,0.440533102,10.27830791,-0.063284837,-0.0021317,-0.009459418,-14,50,95,12,-2
0,1693677516260651200,1.242590666,0.447715729,10.28070164,-0.062352221,-0.002398162,-0.008926493,-19,49,87,12,-2
1,1693677516261651200,1.244984865,0.444124401,10.28189945,-0.062218986,-0.002264931,-0.008926493,-14,51,90,11,-2
2,1693677516262651200,1.248576164,0.444124401,10.28549004,-0.062352221,-0.002264931,-0.008926493,-14,40,92,14,5
3,1693677516263651200,1.246181965,0.44651863,10.27950478,-0.06261868,-0.002264931,-0.009192956,-19,51,90,14,0
4,1693677516264651200,1.248576164,0.444124401,10.28429317,-0.06261868,-0.002531394,-0.009192956,-24,48,90,13,-4
0,1693677516320616800,1.247379065,0.438138902,10.28429317,-0.06261868,-0.002264931,-0.009592649,-18,57,93,16,1
1,1693677516321616800,1.247379065,0.435744703,10.28189945,-0.06261868,-0.002264931,-0.009459418,-18,54,90,11,-1
2,1693677516322616800,1.248576164,0.438138902,10.28429317,-0.062751912,-0.0021317,-0.009459418,-16,51,92,14,3
3,1693677516323616800,1.248576164,0.438138902,10.28429317,-0.062751912,-0.002264931,-0.009459418,-16,48,93,13,0
4,1693677516324616800,1.252167463,0.439336002,10.28668785,-0.062885143,-0.002264931,-0.009459418,-16,50,91,13,-1
0,1693677516499513200,1.247379065,0.44532153,10.28549004,-0.063151613,-0.001998469,-0.009192956,-19,46,97,11,-1
1,1693677516500513200,1.246181965,0.44651863,10.28788471,-0.063151613,-0.001865237,-0.009059724,-18,49,90,13,-2
2,1693677516501513200,1.244984865,0.44651863,10.28908157,-0.063151613,-0.001732006,-0.009059724,-11,53,92,12,-1
3,1693677516502513200,1.244984865,0.444124401,10.29027843,-0.063284837,-0.001998469,-0.009059724,-12,49,90,9,0
4,1693677516503513200,1.241393566,0.441730201,10.28549004,-0.063284837,-0.0021317,-0.009059724,-13,47,90,10,1
0,1693677516539491900,1.242590666,0.440533102,10.30464458,-0.062751912,-0.001998469,-0.008660031,-16,53,90,10,-1
1,1693677516540491900,1.242590666,0.439336002,10.30105305,-0.062485453,-0.001998469,-0.008660031,-15,57,90,12,-1
2,1693677516541491900,1.242590666,0.436941803,10.30105305,-0.062352221,-0.001998469,-0.008926493,-1,75,111,30,19
3,1693677516542491900,1.241393566,0.438138902,10.29985619,-0.062352221,-0.0021317,-0.009059724,-1,65,107,30,19
4,1693677516543491900,1.242590666,0.436941803,10.29626465,-0.062352221,-0.0021317,-0.008926493,-16,41,90,25,13
0,1693677516566476100,1.248576164,0.442927301,10.29865837,-0.062885143,-0.002398162,-0.009059724,-16,52,88,18,1
1,1693677516567476100,1.247379065,0.441730201,10.29746151,-0.062885143,-0.002264931,-0.008926493,-18,53,90,22,0
2,1693677516568476100,1.250970364,0.44532153,10.29147625,-0.063018374,-0.0021317,-0.008926493,-16,51,90,13,-1
3,1693677516569476100,1.253364563,0.447715729,10.28668785,-0.063018374,-0.0021317,-0.008926493,-22,50,90,13,1
4,1693677516570476100,1.253364563,0.447715729,10.28309631,-0.063018374,-0.0021317,-0.009059724,-31,48,88,10,-3
0,1693677516597459400,1.244984865,0.441730201,10.28189945,-0.062751912,-0.001465544,-0.008926493,-23,45,90,13,-2
1,1693677516598459400,1.244984865,0.442927301,10.27950478,-0.062751912,-0.001598775,-0.008793262,-16,49,92,14,4
2,1693677516599459400,1.247379065,0.441730201,10.27591324,-0.062885143,-0.001732006,-0.008926493,-14,48,91,15,2
3,1693677516600459400,1.246181965,0.438138902,10.27351952,-0.062885143,-0.001732006,-0.009059724,-15,51,87,13,-1
4,1693677516601459400,1.247379065,0.434547603,10.27351952,-0.062751912,-0.001865237,-0.009192956,-22,47,92,12,-2
0,1693677516657424500,1.248576164,0.435744703,10.28070164,-0.063018374,-0.001998469,-0.009192956,-21,49,90,16,0
1,1693677516658424500,1.250970364,0.436941803,10.28549004,-0.062885143,-0.002264931,-0.009192956,-14,47,95,13,4
2,1693677516659424500,1.252167463,0.435744703,10.28788471,-0.062885143,-0.0021317,-0.009059724,-18,51,89,11,-1
3,1693677516660424500,1.249773264,0.434547603,10.29147625,-0.062885143,-0.001998469,-0.009192956,-15,49,89,13,-2
4,1693677516661424500,1.248576164,0.436941803,10.29147625,-0.063018374,-0.001998469,-0.009059724,-16,49,90,13,-5
0,1693677516722386700,1.249773264,0.435744703,10.27351952,-0.062751912,-0.001598775,-0.009059724,-14,51,90,13,3
1,1693677516723386700,1.247379065,0.436941803,10.27471638,-0.062751912,-0.001598775,-0.009192956,-15,58,92,16,3
2,1693677516724386700,1.246181965,0.434547603,10.27830791,-0.06261868,-0.001865237,-0.009192956,-14,49,90,13,-1
3,1693677516725386700,1.246181965,0.433350503,10.27830791,-0.06261868,-0.0021317,-0.009326187,-12,47,89,13,-2
4,1693677516726386700,1.244984865,0.433350503,10.27830791,-0.062352221,-0.0021317,-0.009459418,-11,50,93,10,-1
0,1693677516796343600,1.247379065,0.434547603,10.27351952,-0.06261868,-0.0021317,-0.008793262,-14,43,90,13,3
1,1693677516797343600,1.246181965,0.435744703,10.27232265,-0.062751912,-0.0021317,-0.008660031,-18,53,96,14,-2
2,1693677516798343600,1.246181965,0.430956304,10.26873112,-0.06261868,-0.001998469,-0.008793262,-14,49,95,18,-1
3,1693677516799343600,1.246181965,0.430956304,10.26873112,-0.062751912,-0.001998469,-0.008926493,-24,50,89,13,-3
4,1693677516800343600,1.243787766,0.429759204,10.26873112,-0.062751912,-0.001865237,-0.009059724,-24,47,91,14,-3
0,1693677516863304700,1.238999367,0.434547603,10.27232265,-0.062352221,-0.002398162,-0.008926493,-8,48,90,14,0
1,1693677516864304700,1.233013868,0.434547603,10.27830791,-0.062485453,-0.0021317,-0.008793262,-15,51,92,13,-1
2,1693677516865304700,1.233013868,0.436941803,10.28429317,-0.06261868,-0.0021317,-0.008660031,-20,47,90,13,-1
3,1693677516866304700,1.234210968,0.439336002,10.28070164,-0.062751912,-0.001865237,-0.008660031,-17,46,90,11,-4
4,1693677516867304700,1.234210968,0.436941803,10.27471638,-0.06261868,-0.001865237,-0.008793262,-15,48,101,14,-3
0,1693677516919273600,1.248576164,0.436941803,10.28429317,-0.062352221,-0.001865237,-0.009192956,-13,43,94,21,1
1,1693677516920273600,1.243787766,0.432153404,10.28668785,-0.062485453,-0.001732006,-0.008926493,-12,50,93,13,8
2,1693677516921273600,1.243787766,0.434547603,10.28908157,-0.062352221,-0.001732006,-0.008926493,-16,47,93,13,-1
3,1693677516922273600,1.243787766,0.435744703,10.28788471,-0.062218986,-0.001732006,-0.008793262,-18,48,93,15,-8
4,1693677516923273600,1.241393566,0.433350503,10.29027843,-0.062218986,-0.001865237,-0.008793262,-15,52,90,16,2
0,1693677516982237200,1.242590666,0.439336002,10.29865837,-0.062352221,-0.001865237,-0.009326187,-15,46,90,16,3
1,1693677516983237200,1.244984865,0.441730201,10.29386997,-0.062485453,-0.001998469,-0.009326187,-14,47,89,13,-3
2,1693677516984237200,1.243787766,0.438138902,10.29386997,-0.06261868,-0.0021317,-0.009192956,-18,43,90,12,-2
3,1693677516985237200,1.247379065,0.435744703,10.29267311,-0.06261868,-0.0021317,-0.009192956,-17,53,90,14,-1
4,1693677516986237200,1.250970364,0.434547603,10.29506683,-0.06261868,-0.002264931,-0.009192956,-18,53,90,13,-2
0,1693677517072185100,1.248576164,0.435744703,10.27351952,-0.062085759,-0.001732006,-0.009059724,-15,47,90,13,5
1,1693677517073185100,1.250970364,0.433350503,10.26992798,-0.062085759,-0.001865237,-0.009059724,-16,47,93,13,1
2,1693677517074185100,1.252167463,0.432153404,10.26873112,-0.062218986,-0.001732006,-0.009059724,-18,45,92,8,-1
3,1693677517075185100,1.249773264,0.433350503,10.26992798,-0.062085759,-0.0021317,-0.009192956,-7,46,91,13,-4
4,1693677517076185100,1.249773264,0.436941803,10.26992798,-0.061952524,-0.0021317,-0.009192956,-18,47,90,16,0
0,1693677517153139800,1.241393566,0.440533102,10.26394272,-0.062352221,-0.001865237,-0.009326187,-14,57,90,6,3
1,1693677517154139800,1.241393566,0.444124401,10.25675964,-0.062085759,-0.001998469,-0.009192956,-18,49,94,13,-3
2,1693677517155139800,1.238999367,0.44532153,10.26035118,-0.062085759,-0.001998469,-0.009059724,-22,45,93,12,-5
3,1693677517156139800,1.240196466,0.444124401,10.26154804,-0.062085759,-0.001998469,-0.009059724,-20,53,90,15,3
4,1693677517157139800,1.242590666,0.444124401,10.26154804,-0.061952524,-0.0021317,-0.009059724,-17,50,96,13,3
0,1693677517189119000,1.246181965,0.442927301,10.26873112,-0.062352221,-0.002531394,-0.009326187,-14,57,89,13,-1
1,1693677517190119000,1.246181965,0.440533102,10.27830791,-0.062352221,-0.002398162,-0.009326187,-21,47,90,13,-2
2,1693677517191119000,1.244984865,0.438138902,10.28070164,-0.062485453,-0.002398162,-0.009192956,-22,48,89,12,-7
3,1693677517192119000,1.242590666,0.438138902,10.28070164,-0.062485453,-0.002264931,-0.009192956,-14,47,90,16,0
4,1693677517193119000,1.242590666,0.435744703,10.28309631,-0.062485453,-0.002398162,-0.009059724,-19,49,89,12,-2
0,1693677517260078200,1.247379065,0.434547603,10.28070164,-0.062885143,-0.001865237,-0.009459418,-19,46,91,12,0
1,1693677517261078200,1.246181965,0.433350503,10.28429317,-0.063018374,-0.001732006,-0.009326187,-22,47,94,18,-1
2,1693677517262078200,1.247379065,0.432153404,10.28309631,-0.062885143,-0.001598775,-0.009459418,-21,41,87,12,-4
3,1693677517263078200,1.246181965,0.433350503,10.28070164,-0.062885143,-0.001598775,-0.009459418,-19,53,90,9,-1
4,1693677517264078200,1.246181965,0.434547603,10.28189945,-0.062751912,-0.001465544,-0.009459418,-20,50,91,14,-2
0,1693677517342031600,1.236605167,0.428562105,10.28788471,-0.062885143,-0.001465544,-0.009459418,-16,49,86,12,-2
1,1693677517343031600,1.238999367,0.429759204,10.28549004,-0.063018374,-0.001332312,-0.009459418,-19,43,92,13,0
2,1693677517344031600,1.238999367,0.427365005,10.28070164,-0.063151613,-0.001332312,-0.009459418,-20,47,90,14,-2
3,1693677517345031600,1.242590666,0.426167905,10.28429317,-0.063018374,-0.001332312,-0.009459418,-15,52,92,13,-1
4,1693677517346031600,1.242590666,0.428562105,10.28549004,-0.062485453,-0.001598775,-0.009592649,-13,57,91,13,2
0,1693677517402996500,1.253364563,0.432153404,10.28668785,-0.063018374,-0.001998469,-0.008926493,-21,47,90,11,0
1,1693677517403996500,1.254561663,0.432153404,10.28788471,-0.063018374,-0.001865237,-0.008926493,-18,49,95,13,-3
2,1693677517404996500,1.254561663,0.432153404,10.28429317,-0.062885143,-0.001998469,-0.008793262,-15,48,90,13,-1
3,1693677517405996500,1.253364563,0.430956304,10.28070164,-0.062885143,-0.001998469,-0.008793262,-19,51,90,13,1
4,1693677517406996500,1.253364563,0.429759204,10.28189945,-0.062885143,-0.001865237,-0.008793262,-16,51,90,13,-1
0,1693677517541916900,1.246181965,0.439336002,10.28429317,-0.062885143,-0.0021317,-0.008660031,-18,49,90,13,-1
1,1693677517542916900,1.243787766,0.441730201,10.28668785,-0.062751912,-0.001998469,-0.008793262,-15,46,87,8,-5
2,1693677517543916900,1.246181965,0.439336002,10.28429317,-0.062885143,-0.0021317,-0.008660031,-18,47,90,17,-2
3,1693677517544916900,1.246181965,0.439336002,10.28429317,-0.062885143,-0.0021317,-0.008793262,-19,48,89,12,3
4,1693677517545916900,1.244984865,0.441730201,10.28189945,-0.062751912,-0.002264931,-0.008926493,-16,52,88,13,0
0,1693677517567903100,1.250970364,0.438138902,10.27112484,-0.062485453,-0.001865237,-0.009059724,-20,45,91,16,-2
1,1693677517568903100,1.248576164,0.438138902,10.27232265,-0.06261868,-0.001865237,-0.009192956,-18,56,87,13,-5
2,1693677517569903100,1.249773264,0.441730201,10.27351952,-0.062485453,-0.001865237,-0.009059724,-20,43,90,13,9
3,1693677517570903100,1.248576164,0.442927301,10.27232265,-0.06261868,-0.001865237,-0.009059724,-18,47,93,16,-2
4,1693677517571903100,1.244984865,0.440533102,10.27232265,-0.06261868,-0.001998469,-0.009059724,-15,48,91,12,0
0,1693677517629866800,1.233013868,0.432153404,10.29386997,-0.062485453,-0.002264931,-0.009326187,2,64,115,33,-1
1,1693677517630866800,1.234210968,0.434547603,10.29147625,-0.062352221,-0.002398162,-0.009192956,-19,42,93,13,0
2,1693677517631866800,1.233013868,0.434547603,10.29027843,-0.062218986,-0.002531394,-0.009326187,-18,45,91,13,0
3,1693677517632866800,1.233013868,0.430956304,10.29027843,-0.062218986,-0.002664625,-0.009459418,-15,53,100,12,9
4,1693677517633866800,1.233013868,0.432153404,10.29027843,-0.062085759,-0.002398162,-0.009326187,-16,49,90,13,-1
0,1693677517669843600,1.243787766,0.44532153,10.28788471,-0.062218986,-0.0021317,-0.009059724,-16,49,89,13,-3
1,1693677517670843600,1.242590666,0.44532153,10.28429317,-0.062352221,-0.0021317,-0.009059724,-19,46,88,15,0
2,1693677517671843600,1.242590666,0.447715729,10.28309631,-0.062485453,-0.0021317,-0.008926493,-19,48,92,15,0
3,1693677517672843600,1.243787766,0.44651863,10.28668785,-0.06261868,-0.001998469,-0.008793262,-19,54,94,15,5
4,1693677517673843600,1.240196466,0.444124401,10.28908157,-0.06261868,-0.0021317,-0.008793262,-19,50,90,14,-2
0,1693677517729810800,1.244984865,0.442927301,10.27471638,-0.06261868,-0.001998469,-0.008793262,-19,51,88,13,-4
1,1693677517730810800,1.241393566,0.440533102,10.28070164,-0.06261868,-0.0021317,-0.008793262,-22,51,92,14,-1
2,1693677517731810800,1.243787766,0.435744703,10.27950478,-0.062352221,-0.002264931,-0.009059724,-19,49,92,13,-2
3,1693677517732810800,1.244984865,0.436941803,10.27950478,-0.06261868,-0.0021317,-0.009059724,-13,55,92,10,1
4,1693677517733810800,1.244984865,0.439336002,10.27830791,-0.06261868,-0.002264931,-0.009059724,-15,47,90,14,-2
0,1693677517798768700,1.250970364,0.444124401,10.28189945,-0.062218986,-0.002531394,-0.009725881,-17,45,85,11,-5
1,1693677517799768700,1.250970364,0.444124401,10.28189945,-0.062218986,-0.002797856,-0.009725881,-17,47,90,22,12
2,1693677517800768700,1.248576164,0.444124401,10.27950478,-0.062352221,-0.002664625,-0.009592649,-16,42,90,13,-1
3,1693677517801768700,1.248576164,0.44532153,10.28189945,-0.062352221,-0.002531394,-0.009592649,-16,54,90,17,-1
4,1693677517802768700,1.246181965,0.444124401,10.28549004,-0.062352221,-0.002398162,-0.009592649,-16,49,91,12,-2
0,1693677517861732900,1.249773264,0.435744703,10.25795746,-0.062485453,-0.002398162,-0.009059724,-19,52,90,14,-2
1,1693677517862732900,1.249773264,0.435744703,10.25795746,-0.062485453,-0.002531394,-0.008926493,-19,49,94,13,-2
2,1693677517863732900,1.250970364,0.435744703,10.25915432,-0.062485453,-0.002398162,-0.008926493,-15,49,95,13,1
3,1693677517864732900,1.247379065,0.439336002,10.26274586,-0.062485453,-0.0021317,-0.008926493,-10,48,91,23,-3
4,1693677517865732900,1.247379065,0.439336002,10.26274586,-0.062352221,-0.0021317,-0.008926493,-19,46,87,13,3
0,1693677517969670700,1.243787766,0.434547603,10.27351952,-0.062485453,-0.002264931,-0.008660031,-33,49,87,13,3
1,1693677517970670700,1.243787766,0.438138902,10.26992798,-0.062352221,-0.0021317,-0.008793262,-15,57,91,10,2
2,1693677517971670700,1.242590666,0.439336002,10.27232265,-0.062352221,-0.0021317,-0.008793262,-15,53,95,20,5
3,1693677517972670700,1.242590666,0.439336002,10.26633644,-0.062352221,-0.001998469,-0.008926493,-15,44,91,13,0
4,1693677517973670700,1.241393566,0.436941803,10.26394272,-0.062352221,-0.001865237,-0.008793262,-17,52,88,13,-3
0,1693677518012646300,1.256955862,0.436941803,10.29386997,-0.062352221,-0.001998469,-0.009326187,-17,47,88,13,-1
1,1693677518013646300,1.256955862,0.439336002,10.28668785,-0.062485453,-0.001998469,-0.009192956,-20,50,94,13,0
2,1693677518014646300,1.255758762,0.440533102,10.28309631,-0.062751912,-0.0021317,-0.009326187,-17,56,96,18,1
3,1693677518015646300,1.253364563,0.441730201,10.28549004,-0.062885143,-0.001998469,-0.009326187,-18,51,91,13,-2
4,1693677518016646300,1.253364563,0.439336002,10.28549004,-0.062751912,-0.001998469,-0.009192956,-19,46,95,15,-2
0,1693677518087603400,1.233013868,0.433350503,10.27471638,-0.063018374,-0.001732006,-0.008926493,-16,51,89,8,-5
1,1693677518088603400,1.235408068,0.432153404,10.27591324,-0.062885143,-0.001732006,-0.009059724,-17,44,90,14,-3
2,1693677518089603400,1.240196466,0.429759204,10.28070164,-0.062885143,-0.001598775,-0.009059724,-16,51,91,13,-1
3,1693677518090603400,1.244984865,0.430956304,10.28668785,-0.063151613,-0.001732006,-0.008926493,-16,47,90,12,0
4,1693677518091603400,1.247379065,0.434547603,10.28429317,-0.063151613,-0.001732006,-0.009059724,-16,49,90,13,-2
0,1693677518150569000,1.238999367,0.44651863,10.29746151,-0.06261868,-0.001865237,-0.009459418,-22,45,90,13,0
1,1693677518151569000,1.238999367,0.44532153,10.29746151,-0.06261868,-0.001865237,-0.009326187,-15,51,91,14,-1
2,1693677518152569000,1.238999367,0.442927301,10.29386997,-0.06261868,-0.001732006,-0.009326187,-16,48,90,18,-1
3,1693677518153569000,1.237802267,0.442927301,10.29267311,-0.062751912,-0.001732006,-0.009459418,-27,48,91,13,-2
4,1693677518154569000,1.238999367,0.441730201,10.28908157,-0.062751912,-0.001598775,-0.009459418,-20,46,94,14,-2
0,1693677518214530400,1.246181965,0.44532153,10.27950478,-0.062352221,-0.002264931,-0.009059724,-19,49,90,16,1
1,1693677518215530400,1.247379065,0.444124401,10.28189945,-0.062352221,-0.0021317,-0.009059724,-15,52,91,15,0
2,1693677518216530400,1.247379065,0.441730201,10.28309631,-0.062218986,-0.001865237,-0.009059724,-16,53,91,15,2
3,1693677518217530400,1.246181965,0.439336002,10.28429317,-0.062485453,-0.001998469,-0.009192956,-16,50,90,18,1
4,1693677518218530400,1.247379065,0.440533102,10.28309631,-0.062352221,-0.001998469,-0.009192956,-20,42,90,12,-1
0,1693677518280493800,1.253364563,0.439336002,10.28908157,-0.062885143,-0.0021317,-0.009192956,-15,51,91,12,0
1,1693677518281493800,1.254561663,0.442927301,10.28908157,-0.062751912,-0.0021317,-0.009459418,-16,53,92,10,-2
2,1693677518282493800,1.253364563,0.442927301,10.28668785,-0.062751912,-0.0021317,-0.009326187,-16,51,97,14,0
3,1693677518283493800,1.252167463,0.441730201,10.28788471,-0.062751912,-0.002398162,-0.009192956,-16,47,90,11,-2
4,1693677518284493800,1.248576164,0.44532153,10.28908157,-0.062751912,-0.002398162,-0.009459418,-19,49,90,12,-3
0,1693677518359449900,1.243787766,0.438138902,10.27830791,-0.062751912,-0.001998469,-0.008926493,-17,51,91,17,-3
1,1693677518360449900,1.241393566,0.439336002,10.27830791,-0.062751912,-0.001998469,-0.008793262,-12,49,90,15,3
2,1693677518361449900,1.242590666,0.440533102,10.27830791,-0.062751912,-0.0021317,-0.008660031,-17,47,91,13,-2
3,1693677518362449900,1.243787766,0.439336002,10.27591324,-0.062751912,-0.001998469,-0.008660031,-18,53,90,13,-2
4,1693677518363449900,1.243787766,0.438138902,10.28429317,-0.062751912,-0.001865237,-0.008793262,-19,45,90,13,-2
0,1693677518399425700,1.246181965,0.438138902,10.28189945,-0.062485453,-0.001865237,-0.008793262,-15,47,90,13,-1
1,1693677518400425700,1.247379065,0.440533102,10.28668785,-0.062485453,-0.001732006,-0.008660031,-18,51,91,14,2
2,1693677518401425700,1.248576164,0.441730201,10.28189945,-0.062485453,-0.001865237,-0.008526799,-15,47,88,13,0
3,1693677518402425700,1.247379065,0.442927301,10.28189945,-0.062485453,-0.001998469,-0.008793262,-15,46,88,11,-1
4,1693677518403425700,1.246181965,0.442927301,10.28309631,-0.062485453,-0.001998469,-0.008793262,-18,45,91,13,-3
0,1693677518462389200,1.249773264,0.439336002,10.28070164,-0.062485453,-0.0021317,-0.009326187,-12,48,92,16,2
1,1693677518463389200,1.250970364,0.439336002,10.28070164,-0.06261868,-0.001998469,-0.009326187,-12,57,89,13,-1
2,1693677518464389200,1.248576164,0.438138902,10.28429317,-0.062751912,-0.0021317,-0.009192956,-22,49,90,12,-1
3,1693677518465389200,1.246181965,0.435744703,10.28668785,-0.062751912,-0.0021317,-0.009192956,-16,38,90,13,-3
4,1693677518466389200,1.242590666,0.432153404,10.29027843,-0.062751912,-0.001998469,-0.009059724,-17,46,90,11,-2
0,1693677518548341000,1.246181965,0.432153404,10.29147625,-0.06261868,-0.001865237,-0.009859112,-11,49,96,15,4
1,1693677518549341000,1.247379065,0.429759204,10.29267311,-0.06261868,-0.001998469,-0.009859112,-19,53,92,13,0
2,1693677518550341000,1.247379065,0.430956304,10.29027843,-0.062751912,-0.001998469,-0.009725881,-19,52,92,18,-2
3,1693677518551341000,1.246181965,0.432153404,10.29147625,-0.062885143,-0.001998469,-0.009725881,-21,50,90,12,-5
4,1693677518552341000,1.242590666,0.433350503,10.29027843,-0.063018374,-0.001998469,-0.009592649,-20,53,93,15,-1
0,1693677518605306600,1.247379065,0.428562105,10.26992798,-0.062885143,-0.0021317,-0.009992342,-16,49,91,14,9
1,1693677518606306600,1.247379065,0.427365005,10.27471638,-0.062885143,-0.001732006,-0.009992342,-18,57,90,13,1
2,1693677518607306600,1.246181965,0.426167905,10.27591324,-0.06261868,-0.001865237,-0.009992342,-14,44,92,13,-2
3,1693677518608306600,1.244984865,0.424970806,10.28429317,-0.06261868,-0.001865237,-0.009859112,-12,46,90,13,-1
4,1693677518609306600,1.243787766,0.428562105,10.28309631,-0.062485453,-0.001998469,-0.009859112,-15,51,90,14,2
0,1693677518688259300,1.242590666,0.435744703,10.28309631,-0.062485453,-0.002797856,-0.008793262,-16,53,90,18,1
1,1693677518689259300,1.242590666,0.438138902,10.27830791,-0.062485453,-0.002664625,-0.009059724,-11,41,92,13,0
2,1693677518690259300,1.242590666,0.441730201,10.28189945,-0.062352221,-0.002398162,-0.008793262,-18,51,90,11,-1
3,1693677518691259300,1.244984865,0.440533102,10.27711105,-0.062485453,-0.002398162,-0.009059724,-29,47,91,15,-4
4,1693677518692259300,1.243787766,0.440533102,10.27950478,-0.062485453,-0.002531394,-0.008926493,-12,47,92,9,-1
0,1693677518767214800,1.238999367,0.435744703,10.28788471,-0.062352221,-0.002531394,-0.008660031,-10,51,87,15,-4
1,1693677518768214800,1.236605167,0.434547603,10.28788471,-0.062485453,-0.002264931,-0.008660031,-20,50,90,13,1
2,1693677518769214800,1.240196466,0.435744703,10.28549004,-0.06261868,-0.002398162,-0.008793262,-17,38,91,13,-2
3,1693677518770214800,1.242590666,0.436941803,10.28429317,-0.062751912,-0.002264931,-0.008793262,-17,32,90,13,-2
4,1693677518771214800,1.241393566,0.434547603,10.28668785,-0.063018374,-0.002398162,-0.008926493,-11,57,90,13,-2
0,1693677518804193000,1.247379065,0.435744703,10.27351952,-0.062885143,-0.002264931,-0.009459418,-22,54,93,12,1
1,1693677518805193000,1.247379065,0.439336002,10.26873112,-0.062885143,-0.001998469,-0.009192956,-16,49,91,10,0
2,1693677518806193000,1.248576164,0.436941803,10.26513958,-0.063018374,-0.001998469,-0.009326187,-20,51,84,14,-1
3,1693677518807193000,1.247379065,0.439336002,10.26154804,-0.062885143,-0.001998469,-0.009326187,2,46,90,12,-2
4,1693677518808193000,1.247379065,0.438138902,10.26394272,-0.062885143,-0.001998469,-0.009326187,-18,53,90,17,0
0,1693677518886145500,1.252167463,0.44532153,10.26633644,-0.062751912,-0.001732006,-0.009992342,-16,45,95,13,-1
1,1693677518887145500,1.250970364,0.441730201,10.27112484,-0.06261868,-0.001865237,-0.009992342,-15,48,91,13,-1
2,1693677518888145500,1.248576164,0.441730201,10.26873112,-0.062485453,-0.001998469,-0.009859112,-19,47,91,13,-9
3,1693677518889145500,1.248576164,0.436941803,10.26992798,-0.062352221,-0.001998469,-0.009859112,-21,54,89,13,-3
4,1693677518890145500,1.248576164,0.434547603,10.27112484,-0.062485453,-0.001998469,-0.009592649,-16,47,90,14,-3
0,1693677518954106700,1.250970364,0.436941803,10.28429317,-0.062885143,-0.0021317,-0.009059724,-16,48,89,12,-3
1,1693677518955106700,1.253364563,0.438138902,10.28788471,-0.062885143,-0.0021317,-0.009059724,-20,48,91,13,-3
2,1693677518956106700,1.254561663,0.435744703,10.28788471,-0.062885143,-0.002264931,-0.008926493,-20,46,90,11,0
3,1693677518957106700,1.254561663,0.435744703,10.28429317,-0.062885143,-0.0021317,-0.008793262,-22,47,89,13,-1
4,1693677518958106700,1.250970364,0.435744703,10.27591324,-0.063018374,-0.0021317,-0.008660031,-20,48,91,13,5
0,1693677519006077700,1.250970364,0.434547603,10.29027843,-0.06261868,-0.002531394,-0.008660031,-16,46,91,16,0
1,1693677519007077700,1.248576164,0.434547603,10.28788471,-0.06261868,-0.002531394,-0.008793262,-17,46,90,13,-2
2,1693677519008077700,1.248576164,0.432153404,10.28788471,-0.06261868,-0.002531394,-0.008526799,-11,71,91,13,-11
3,1693677519009077700,1.246181965,0.433350503,10.28668785,-0.06261868,-0.002531394,-0.008660031,-17,50,90,12,3
4,1693677519010077700,1.241393566,0.434547603,10.28908157,-0.06261868,-0.002398162,-0.008660031,-16,51,87,22,0
0,1693677519076037000,1.247379065,0.433350503,10.28788471,-0.06261868,-0.0021317,-0.008793262,-19,57,90,8,-2
1,1693677519077037000,1.248576164,0.430956304,10.28908157,-0.06261868,-0.002264931,-0.008926493,-20,41,88,13,-2
2,1693677519078037000,1.246181965,0.432153404,10.29027843,-0.062485453,-0.002264931,-0.009059724,-16,46,90,11,-2
3,1693677519079037000,1.249773264,0.432153404,10.29027843,-0.06261868,-0.0021317,-0.009059724,-17,46,92,13,-1
4,1693677519080037000,1.248576164,0.429759204,10.28788471,-0.062485453,-0.002264931,-0.009059724,-14,55,91,13,0
0,1693677519148996600,1.244984865,0.432153404,10.28549004,-0.062352221,-0.001998469,-0.009459418,-18,47,90,13,-2
1,1693677519149996600,1.246181965,0.430956304,10.28070164,-0.062485453,-0.001998469,-0.009459418,-28,42,90,13,-4
2,1693677519150996600,1.247379065,0.430956304,10.27830791,-0.062485453,-0.001998469,-0.009192956,-19,51,89,14,-3
3,1693677519151996600,1.243787766,0.430956304,10.28070164,-0.06261868,-0.001865237,-0.009192956,-20,50,93,16,1
4,1693677519152996600,1.243787766,0.427365005,10.27950478,-0.06261868,-0.001732006,-0.009192956,-18,53,91,16,-2
0,1693677519223952200,1.256955862,0.439336002,10.28070164,-0.062885143,-0.001865237,-0.008660031,-17,45,90,16,-1
1,1693677519224952200,1.255758762,0.439336002,10.28429317,-0.063151613,-0.001998469,-0.008526799,-16,47,90,7,-4
2,1693677519225952200,1.254561663,0.442927301,10.28549004,-0.063018374,-0.001998469,-0.008926493,-14,50,91,13,0
3,1693677519226952200,1.252167463,0.444124401,10.28309631,-0.062751912,-0.001998469,-0.008926493,-16,47,90,18,0
4,1693677519227952200,1.249773264,0.442927301,10.27950478,-0.062751912,-0.001998469,-0.009059724,-16,49,91,14,1
0,1693677519274924000,1.240196466,0.448912829,10.28189945,-0.062485453,-0.0021317,-0.008926493,-19,47,90,13,-2
1,1693677519275924000,1.240196466,0.44532153,10.28549004,-0.062485453,-0.001865237,-0.008793262,-20,45,90,12,-2
2,1693677519276924000,1.236605167,0.44651863,10.28668785,-0.062485453,-0.0021317,-0.009059724,-19,51,88,13,-2
3,1693677519277924000,1.235408068,0.44651863,10.28668785,-0.062352221,-0.0021317,-0.009059724,-12,49,90,14,1
4,1693677519278924000,1.234210968,0.442927301,10.28429317,-0.062485453,-0.002264931,-0.008793262,-14,51,90,13,1
0,1693677519347881700,1.246181965,0.438138902,10.27232265,-0.063018374,-0.002398162,-0.009459418,-19,45,90,12,-1
1,1693677519348881700,1.246181965,0.438138902,10.26873112,-0.062885143,-0.0021317,-0.009459418,-18,47,92,13,-1
2,1693677519349881700,1.248576164,0.439336002,10.27232265,-0.062885143,-0.002264931,-0.009592649,-17,52,93,14,-2
3,1693677519350881700,1.253364563,0.438138902,10.27711105,-0.062751912,-0.0021317,-0.009592649,-14,45,90,13,0
4,1693677519351881700,1.254561663,0.435744703,10.27950478,-0.062885143,-0.001865237,-0.009459418,-18,45,93,13,-3
0,1693677519427835100,1.243787766,0.441730201,10.26394272,-0.06261868,-0.001598775,-0.009459418,-23,47,81,11,-1
1,1693677519428835100,1.238999367,0.441730201,10.26274586,-0.062885143,-0.001732006,-0.009459418,-16,49,91,12,-1
2,1693677519429835100,1.241393566,0.439336002,10.26154804,-0.062885143,-0.001598775,-0.009326187,-8,51,90,13,-3
3,1693677519430835100,1.242590666,0.439336002,10.26753426,-0.063018374,-0.001598775,-0.009326187,-20,51,91,11,3
4,1693677519431835100,1.246181965,0.438138902,10.26992798,-0.063151613,-0.001732006,-0.009192956,-20,52,95,12,-1
0,1693677519502793400,1.242590666,0.435744703,10.28070164,-0.062751912,-0.001998469,-0.008793262,-16,43,90,13,-4
1,1693677519503793400,1.243787766,0.434547603,10.27711105,-0.062885143,-0.001865237,-0.008660031,-20,46,90,14,-2
2,1693677519504793400,1.240196466,0.436941803,10.27950478,-0.062885143,-0.001732006,-0.008793262,-16,51,90,12,-3
3,1693677519505793400,1.240196466,0.438138902,10.27591324,-0.062751912,-0.001865237,-0.008526799,-22,51,87,14,1
4,1693677519506793400,1.240196466,0.439336002,10.27711105,-0.062751912,-0.001598775,-0.008660031,-17,43,91,10,-2
0,1693677519565756000,1.234210968,0.421379507,10.27232265,-0.062352221,-0.0021317,-0.009059724,-21,46,81,13,-7
1,1693677519566756000,1.234210968,0.423773706,10.27232265,-0.062085759,-0.0021317,-0.009059724,-20,48,90,12,1
2,1693677519567756000,1.234210968,0.426167905,10.27232265,-0.062218986,-0.002264931,-0.009192956,-18,42,90,13,1
3,1693677519568756000,1.235408068,0.428562105,10.27112484,-0.062218986,-0.002264931,-0.009192956,-14,47,90,13,-2
4,1693677519569756000,1.235408068,0.426167905,10.27591324,-0.062352221,-0.002264931,-0.009192956,-21,47,90,11,0
0,1693677519624722100,1.240196466,0.433350503,10.28070164,-0.062485453,-0.001732006,-0.009326187,-19,38,89,13,-2
1,1693677519625722100,1.238999367,0.434547603,10.28668785,-0.062485453,-0.001865237,-0.009459418,-16,46,91,10,2
2,1693677519626722100,1.243787766,0.429759204,10.28309631,-0.062485453,-0.001998469,-0.009459418,-14,59,91,13,-2
3,1693677519627722100,1.242590666,0.430956304,10.28429317,-0.06261868,-0.001998469,-0.009326187,-16,33,90,12,-2
4,1693677519628722100,1.242590666,0.432153404,10.28549004,-0.062485453,-0.001998469,-0.009192956,-20,51,89,13,-1
0,1693677519680692300,1.243787766,0.426167905,10.27830791,-0.063151613,-0.001998469,-0.009059724,-18,45,89,13,-2
1,1693677519681692300,1.244984865,0.427365005,10.27830791,-0.063284837,-0.001998469,-0.008793262,-18,51,88,13,-1
2,1693677519682692300,1.243787766,0.426167905,10.28070164,-0.063151613,-0.001998469,-0.008660031,-18,58,89,14,-3
3,1693677519683692300,1.244984865,0.424970806,10.27830791,-0.063151613,-0.001998469,-0.008926493,-20,47,90,11,1
4,1693677519684692300,1.247379065,0.429759204,10.28189945,-0.062885143,-0.0021317,-0.008926493,-26,41,90,13,-1
0,1693677519742655200,1.252167463,0.428562105,10.28549004,-0.062485453,-0.001865237,-0.009059724,-19,47,91,12,-2
1,1693677519743655200,1.252167463,0.424970806,10.28189945,-0.06261868,-0.001865237,-0.008926493,-21,48,90,13,-1
2,1693677519744655200,1.250970364,0.427365005,10.28668785,-0.062751912,-0.001998469,-0.008793262,-18,51,90,14,0
3,1693677519745655200,1.244984865,0.426167905,10.28429317,-0.062751912,-0.001998469,-0.008793262,-16,48,90,16,-1
4,1693677519746655200,1.242590666,0.429759204,10.27830791,-0.062751912,-0.0021317,-0.008660031,-19,43,87,13,2
0,1693677519833602800,1.244984865,0.433350503,10.28908157,-0.06261868,-0.002531394,-0.009592649,-19,44,92,13,-1
1,1693677519834602800,1.242590666,0.434547603,10.28429317,-0.06261868,-0.0021317,-0.009459418,-14,50,96,13,2
2,1693677519835602800,1.242590666,0.438138902,10.29147625,-0.062485453,-0.001998469,-0.009592649,-20,53,90,12,3
3,1693677519836602800,1.241393566,0.438138902,10.29027843,-0.062485453,-0.001998469,-0.009326187,-24,45,89,10,-3
4,1693677519837602800,1.241393566,0.439336002,10.28908157,-0.06261868,-0.001998469,-0.009459418,-10,47,89,12,-2
0,1693677519892569200,1.241393566,0.439336002,10.28429317,-0.062751912,-0.0021317,-0.009326187,-19,43,90,14,3
1,1693677519893569200,1.240196466,0.439336002,10.27950478,-0.06261868,-0.0021317,-0.009459418,-26,48,92,14,1
2,1693677519894569200,1.238999367,0.439336002,10.28070164,-0.062352221,-0.0021317,-0.009459418,-22,51,88,11,-3
3,1693677519895569200,1.236605167,0.439336002,10.28309631,-0.062218986,-0.0021317,-0.009326187,-16,52,87,13,-2
4,1693677519896569200,1.236605167,0.440533102,10.28549004,-0.062485453,-0.0021317,-0.009459418,-21,45,90,10,-3
0,1693677519965527400,1.242590666,0.438138902,10.28549004,-0.062218986,-0.002398162,-0.009192956,-18,47,90,14,1
1,1693677519966527400,1.240196466,0.440533102,10.28429317,-0.062218986,-0.0021317,-0.009192956,-12,54,90,13,0
2,1693677519967527400,1.241393566,0.439336002,10.28549004,-0.062352221,-0.002264931,-0.009059724,-20,47,90,3,3
3,1693677519968527400,1.241393566,0.441730201,10.28309631,-0.062352221,-0.0021317,-0.009326187,-18,47,90,14,-1
4,1693677519969527400,1.240196466,0.441730201,10.27351952,-0.062352221,-0.0021317,-0.009326187,-20,47,90,13,-5
0,1693677520040484700,1.242590666,0.438138902,10.29147625,-0.062485453,-0.001998469,-0.009326187,-23,44,90,14,-3
1,1693677520041484700,1.240196466,0.438138902,10.28908157,-0.06261868,-0.001998469,-0.009326187,-23,48,96,19,-1
2,1693677520042484700,1.237802267,0.436941803,10.28908157,-0.062751912,-0.0021317,-0.009059724,-11,77,104,10,-4
3,1693677520043484700,1.238999367,0.439336002,10.29267311,-0.062885143,-0.001865237,-0.009059724,-17,43,86,13,0
4,1693677520044484700,1.236605167,0.440533102,10.29147625,-0.062885143,-0.001732006,-0.009192956,-18,61,89,3,-2
0,1693677520094453600,1.253364563,0.434547603,10.28429317,-0.062751912,-0.001865237,-0.009459418,-16,48,89,12,-2
1,1693677520095453600,1.255758762,0.435744703,10.28309631,-0.062751912,-0.001998469,-0.009459418,-16,53,91,13,-1
2,1693677520096453600,1.253364563,0.438138902,10.28429317,-0.062885143,-0.001732006,-0.009326187,-17,45,92,13,-1
3,1693677520097453600,1.252167463,0.438138902,10.28549004,-0.063151613,-0.001865237,-0.009326187,-19,45,90,9,-2
4,1693677520098453600,1.252167463,0.438138902,10.28189945,-0.063151613,-0.001732006,-0.009459418,-16,47,92,14,-1
0,1693677520156418300,1.247379065,0.435744703,10.29147625,-0.062751912,-0.001732006,-0.009459418,-14,50,88,10,1
1,1693677520157418300,1.248576164,0.436941803,10.28908157,-0.06261868,-0.001732006,-0.009459418,-19,43,92,13,-2
2,1693677520158418300,1.249773264,0.438138902,10.28309631,-0.06261868,-0.001865237,-0.009326187,-18,51,90,13,-2
3,1693677520159418300,1.252167463,0.438138902,10.28429317,-0.06261868,-0.001998469,-0.009192956,-16,48,91,13,-2
4,1693677520160418300,1.252167463,0.436941803,10.28189945,-0.06261868,-0.001998469,-0.009192956,-12,48,90,12,-1
0,1693677520222382200,1.253364563,0.438138902,10.27112484,-0.062751912,-0.001998469,-0.008793262,-11,52,91,11,3
1,1693677520223382200,1.255758762,0.439336002,10.26873112,-0.062485453,-0.001998469,-0.008926493,-16,46,88,13,-1
2,1693677520224382200,1.258152962,0.440533102,10.26992798,-0.062485453,-0.001998469,-0.009059724,-18,47,93,12,-2
3,1693677520225382200,1.258152962,0.442927301,10.27112484,-0.062352221,-0.001998469,-0.009192956,-20,46,89,15,-3
4,1693677520226382200,1.258152962,0.440533102,10.27232265,-0.062352221,-0.002264931,-0.009326187,-18,43,87,12,-1
0,1693677520282345100,1.238999367,0.438138902,10.28429317,-0.062885143,-0.001998469,-0.009592649,-12,51,91,13,0
1,1693677520283345100,1.238999367,0.432153404,10.28668785,-0.062885143,-0.0021317,-0.009459418,-18,48,95,13,-3
2,1693677520284345100,1.241393566,0.430956304,10.28309631,-0.06261868,-0.001998469,-0.009326187,-18,49,90,13,-1
3,1693677520285345100,1.244984865,0.433350503,10.28309631,-0.06261868,-0.001998469,-0.009192956,-18,47,92,13,-1
4,1693677520286345100,1.244984865,0.435744703,10.27830791,-0.06261868,-0.001865237,-0.009192956,-18,67,91,15,0
0,1693677520385285900,1.250970364,0.435744703,10.27830791,-0.062485453,-0.002264931,-0.009592649,-12,55,93,20,9
1,1693677520386285900,1.254561663,0.435744703,10.27950478,-0.062751912,-0.0021317,-0.009326187,-16,49,90,12,11
2,1693677520387285900,1.253364563,0.432153404,10.28070164,-0.06261868,-0.0021317,-0.009192956,-12,47,90,11,-2
3,1693677520388285900,1.253364563,0.432153404,10.28189945,-0.06261868,-0.0021317,-0.009192956,-14,50,92,13,1
4,1693677520389285900,1.250970364,0.433350503,10.27950478,-0.06261868,-0.0021317,-0.009059724,-15,47,89,15,1
0,1693677520429263000,1.242590666,0.438138902,10.28788471,-0.062085759,-0.001865237,-0.009192956,-3,47,92,15,7
1,1693677520430263000,1.246181965,0.438138902,10.28908157,-0.062085759,-0.001865237,-0.009059724,-19,47,90,10,0
2,1693677520431263000,1.248576164,0.438138902,10.29027843,-0.062218986,-0.001998469,-0.009059724,-18,47,90,12,-4
3,1693677520432263000,1.249773264,0.440533102,10.29027843,-0.062218986,-0.001998469,-0.009192956,-18,66,90,16,1
4,1693677520433263000,1.249773264,0.440533102,10.29147625,-0.062218986,-0.001998469,-0.009192956,-14,53,96,13,-2
0,1693677520496222200,1.241393566,0.438138902,10.29506683,-0.062352221,-0.002531394,-0.009326187,-4,50,90,18,0
1,1693677520497222200,1.241393566,0.438138902,10.29626465,-0.062352221,-0.002531394,-0.009192956,-14,49,90,16,-2
2,1693677520498222200,1.241393566,0.438138902,10.29985619,-0.062485453,-0.002398162,-0.009192956,-22,49,94,17,0
3,1693677520499222200,1.242590666,0.435744703,10.29985619,-0.062485453,-0.002398162,-0.009192956,-16,47,92,13,1
4,1693677520500222200,1.242590666,0.429759204,10.29746151,-0.062485453,-0.002398162,-0.009326187,-16,57,95,13,4
0,1693677520584173600,1.241393566,0.433350503,10.26992798,-0.062352221,-0.0021317,-0.009459418,-15,49,90,14,-1
1,1693677520585173600,1.240196466,0.433350503,10.27351952,-0.062218986,-0.0021317,-0.009459418,-12,51,92,14,-2
2,1693677520586173600,1.243787766,0.434547603,10.27471638,-0.062218986,-0.002264931,-0.009326187,-19,41,88,16,0
3,1693677520587173600,1.247379065,0.435744703,10.27471638,-0.062352221,-0.002264931,-0.009326187,-14,48,91,13,1
4,1693677520588173600,1.246181965,0.438138902,10.26873112,-0.062218986,-0.0021317,-0.009326187,-7,49,97,16,3
0,1693677520629149600,1.243787766,0.440533102,10.27830791,-0.062885143,-0.0021317,-0.009592649,-16,49,92,13,3
1,1693677520630149600,1.247379065,0.439336002,10.27711105,-0.063018374,-0.0021317,-0.009592649,-20,51,93,13,-1
2,1693677520631149600,1.246181965,0.436941803,10.28070164,-0.063018374,-0.002264931,-0.009459418,-15,54,96,13,3
3,1693677520632149600,1.249773264,0.438138902,10.28309631,-0.063018374,-0.001998469,-0.009459418,-17,47,91,19,-1
4,1693677520633149600,1.246181965,0.438138902,10.28309631,-0.063018374,-0.001865237,-0.009326187,-16,48,95,17,9
