,timestamp,right_data_Ac_X,right_data_Ac_Y,right_data_Ac_Z,right_data_Gy_X,right_data_Gy_Y,right_data_Gy_Z,right_data_flex_1,right_data_flex_2,right_data_flex_3,right_data_flex_4,right_data_flex_5
0,1693677730957011700,-0.113724582,2.41455245,10.20887566,0.054491576,-0.026646247,0.037970904,19,40,-23,-27,53
1,1693677730958011700,-0.114921682,2.41335535,10.21127033,0.054358348,-0.026379786,0.037970904,19,36,-27,-27,45
2,1693677730959011700,-0.113724582,2.410961151,10.21246719,0.054491576,-0.026513018,0.037970904,13,31,-28,-32,49
3,1693677730960011700,-0.116118781,2.410961151,10.21246719,0.054758042,-0.026646247,0.038237367,17,40,-23,-27,52
4,1693677730961011700,-0.114921682,2.412158251,10.21486187,0.054758042,-0.02691271,0.038104136,10,46,-30,-24,37
0,1693677730987993400,-0.116118781,2.410961151,10.21246719,0.054758042,-0.026379786,0.038104136,17,35,-29,-24,49
1,1693677730988993400,-0.116118781,2.408566952,10.21127033,0.05489127,-0.026246555,0.038237367,10,35,-24,-22,50
2,1693677730989993400,-0.116118781,2.408566952,10.21366405,0.05489127,-0.026246555,0.038237367,17,31,-29,-22,54
3,1693677730990993400,-0.117315881,2.407369852,10.21605873,0.054758042,-0.025980091,0.038370594,18,35,-18,-26,51
4,1693677730991993400,-0.114921682,2.409764051,10.22084713,0.054758042,-0.026113322,0.038237367,17,55,-20,-23,53
0,1693677731010979500,-0.119710088,2.420537949,10.22802925,0.054758042,-0.026113322,0.03757121,17,40,-29,-27,48
1,1693677731011979500,-0.118512981,2.420537949,10.23042393,0.054758042,-0.026113322,0.037437979,9,33,-23,-22,50
2,1693677731012979500,-0.117315881,2.419340849,10.22563553,0.054758042,-0.025846859,0.03757121,18,34,-25,-27,53
3,1693677731013979500,-0.116118781,2.418143749,10.22802925,0.054624807,-0.025846859,0.037704438,18,39,-21,-23,54
4,1693677731014979500,-0.113724582,2.419340849,10.22443867,0.054624807,-0.026113322,0.037704438,13,39,-21,-23,51
0,1693677731037964000,-0.106541976,2.424129248,10.20169353,0.054624807,-0.02691271,0.03757121,21,39,-27,-22,45
1,1693677731038964000,-0.105344877,2.422932148,10.19929886,0.054624807,-0.026779478,0.037437979,20,31,-21,-26,49
2,1693677731039964000,-0.105344877,2.424129248,10.20169353,0.054624807,-0.02691271,0.03757121,15,37,-21,-28,53
3,1693677731040964000,-0.105344877,2.425326347,10.20049667,0.054624807,-0.02691271,0.03757121,19,35,-23,-22,48
4,1693677731041964000,-0.104147777,2.426523447,10.19929886,0.054491576,-0.026779478,0.037704438,17,37,-28,-29,51
0,1693677731057958700,-0.108936176,2.421735048,10.20528507,0.054491576,-0.027045943,0.038237367,13,36,-17,-24,52
1,1693677731058958700,-0.108936176,2.418143749,10.21007347,0.054491576,-0.027179174,0.038104136,18,30,-20,-22,52
2,1693677731059958700,-0.112527482,2.41455245,10.21246719,0.054491576,-0.027179174,0.038370594,19,42,-23,-18,54
3,1693677731060958700,-0.111330383,2.41574955,10.21366405,0.054491576,-0.027045943,0.038370594,12,37,-19,-23,53
4,1693677731061958700,-0.108936176,2.41455245,10.21605873,0.054491576,-0.02691271,0.038370594,16,37,-30,-26,52
0,1693677731077946600,-0.106541976,2.406172752,10.21007347,0.054758042,-0.026779478,0.038237367,18,37,-23,-26,49
1,1693677731078946600,-0.106541976,2.408566952,10.21007347,0.054624807,-0.026779478,0.038104136,18,33,-23,-22,50
2,1693677731079946600,-0.105344877,2.407369852,10.21486187,0.054624807,-0.026646247,0.038104136,20,41,-24,-24,52
3,1693677731080946600,-0.105344877,2.407369852,10.21845245,0.054624807,-0.026513018,0.037970904,17,45,-25,-23,49
4,1693677731081946600,-0.106541976,2.407369852,10.21965027,0.054758042,-0.026513018,0.037970904,17,36,-31,-28,45
0,1693677731095938500,-0.106541976,2.404975653,10.21127033,0.054091886,-0.02691271,0.037970904,9,31,-23,-21,52
1,1693677731096938500,-0.106541976,2.404975653,10.21246719,0.054091886,-0.02691271,0.037970904,15,33,-24,-23,53
2,1693677731097938500,-0.106541976,2.404975653,10.21605873,0.054225113,-0.026646247,0.037970904,17,40,-21,-22,54
3,1693677731098938500,-0.105344877,2.403778553,10.21366405,0.054225113,-0.026646247,0.037837673,18,39,-27,-24,52
4,1693677731099938500,-0.106541976,2.404975653,10.21246719,0.054225113,-0.026646247,0.037837673,15,33,-31,-28,44
0,1693677731113925600,-0.117315881,2.407369852,10.20767879,0.054491576,-0.026379786,0.037837673,20,36,-25,-21,50
1,1693677731114925600,-0.116118781,2.410961151,10.20408726,0.054491576,-0.026379786,0.037970904,17,37,-18,-24,53
2,1693677731115925600,-0.112527482,2.409764051,10.2028904,0.054491576,-0.026513018,0.038237367,19,36,-23,-27,50
3,1693677731116925600,-0.112527482,2.408566952,10.20528507,0.054358348,-0.026646247,0.038370594,14,28,-28,-30,41
4,1693677731117925600,-0.112527482,2.407369852,10.2028904,0.054491576,-0.026779478,0.038237367,17,35,-31,-24,44
0,1693677731132914500,-0.098162271,2.41694665,10.2028904,0.054624807,-0.026779478,0.037837673,18,42,-25,-24,38
1,1693677731133914500,-0.098162271,2.41335535,10.20049667,0.054624807,-0.026779478,0.037837673,20,36,-24,-24,52
2,1693677731134914500,-0.098162271,2.41455245,10.20049667,0.054491576,-0.027045943,0.037837673,13,32,-19,-28,50
3,1693677731135914500,-0.096965171,2.41455245,10.19929886,0.054491576,-0.027045943,0.037970904,11,39,-21,-24,50
4,1693677731136914500,-0.10055647,2.41455245,10.20528507,0.054491576,-0.02691271,0.037837673,16,36,-19,-30,49
0,1693677731148904900,-0.107739076,2.41694665,10.21007347,0.05489127,-0.026513018,0.037970904,10,39,-24,-24,48
1,1693677731149904900,-0.107739076,2.41694665,10.21127033,0.054624807,-0.026379786,0.037970904,12,30,-28,-22,50
2,1693677731150904900,-0.108936176,2.41574955,10.21845245,0.054758042,-0.026379786,0.038237367,10,24,-31,-26,48
3,1693677731151904900,-0.107739076,2.41574955,10.21845245,0.054624807,-0.026513018,0.038104136,18,36,-29,-24,48
4,1693677731152904900,-0.107739076,2.412158251,10.22084713,0.054624807,-0.026513018,0.038237367,20,35,-27,-26,53
0,1693677731163897000,-0.106541976,2.41335535,10.21605873,0.054358348,-0.027312404,0.038104136,13,40,-25,-23,52
1,1693677731164897000,-0.106541976,2.412158251,10.21965027,0.054624807,-0.027045943,0.037837673,18,41,-23,-26,53
2,1693677731165897000,-0.106541976,2.410961151,10.21965027,0.054624807,-0.026646247,0.037970904,21,36,-32,-30,47
3,1693677731166897000,-0.107739076,2.409764051,10.21725559,0.054358348,-0.026379786,0.038104136,9,37,-29,-28,48
4,1693677731167897000,-0.107739076,2.408566952,10.21366405,0.054091886,-0.026379786,0.038104136,15,36,-21,-21,50
0,1693677731178889800,-0.106541976,2.418143749,10.21725559,0.054491576,-0.026379786,0.038237367,20,33,-27,-19,51
1,1693677731179889800,-0.106541976,2.41694665,10.21725559,0.054624807,-0.026379786,0.038237367,-2,31,-28,-31,48
2,1693677731180889800,-0.105344877,2.41694665,10.21605873,0.054624807,-0.026379786,0.038237367,17,39,-29,-24,51
3,1693677731181889800,-0.104147777,2.418143749,10.21366405,0.054624807,-0.026246555,0.037970904,11,35,-21,-27,53
4,1693677731182889800,-0.104147777,2.41694665,10.21007347,0.054491576,-0.026113322,0.037837673,15,44,-21,-22,52
0,1693677731193882900,-0.110133275,2.41574955,10.198102,0.054358348,-0.026513018,0.037704438,13,33,-24,-21,51
1,1693677731194882900,-0.107739076,2.41455245,10.19929886,0.054358348,-0.026646247,0.037837673,6,35,-27,-25,49
2,1693677731195882900,-0.108936176,2.41574955,10.19929886,0.054091886,-0.026646247,0.037837673,7,33,-17,-22,54
3,1693677731196882900,-0.108936176,2.41574955,10.20169353,0.053958651,-0.026379786,0.037837673,18,40,-30,-23,55
4,1693677731197882900,-0.106541976,2.41694665,10.19929886,0.054091886,-0.026246555,0.037837673,15,33,-24,-21,55
0,1693677731210871400,-0.105344877,2.408566952,10.19211674,0.054624807,-0.027312404,0.037171517,13,35,-29,-30,50
1,1693677731211871400,-0.105344877,2.404975653,10.19451046,0.054624807,-0.027045943,0.037437979,7,35,-21,-20,51
2,1693677731212871400,-0.105344877,2.404975653,10.2028904,0.054358348,-0.02691271,0.037970904,15,39,-24,-22,51
3,1693677731213871400,-0.10295067,2.407369852,10.21366405,0.053825419,-0.027179174,0.038637057,20,35,-21,-16,53
4,1693677731214871400,-0.104147777,2.41455245,10.21366405,0.053692192,-0.027712099,0.038903523,19,41,-28,-32,53
0,1693677731228859600,-0.10175357,2.41574955,10.21366405,0.053558957,-0.024781011,0.037304748,13,37,-25,-27,49
1,1693677731229859600,-0.104147777,2.412158251,10.22084713,0.053026035,-0.024248086,0.037038282,19,31,-21,-20,48
2,1693677731230859600,-0.107739076,2.408566952,10.22204399,0.052759573,-0.024248086,0.037171517,20,30,-28,-26,41
3,1693677731231859600,-0.110133275,2.404975653,10.22443867,0.053292494,-0.024781011,0.037304748,18,40,-23,-22,50
4,1693677731232859600,-0.108936176,2.402581453,10.22204399,0.054091886,-0.025846859,0.037437979,13,43,-23,-24,52
0,1693677731243862100,-0.110133275,2.41574955,10.21366405,0.05489127,-0.026779478,0.037038282,18,32,-17,-22,52
1,1693677731244862100,-0.111330383,2.412158251,10.21366405,0.054358348,-0.025980091,0.036771823,9,36,-21,-26,60
2,1693677731245862100,-0.112527482,2.410961151,10.21246719,0.054225113,-0.025580399,0.036771823,21,41,-28,-22,52
3,1693677731246862100,-0.111330383,2.412158251,10.20887566,0.053825419,-0.025447167,0.036905054,14,39,-21,-27,53
4,1693677731247862100,-0.113724582,2.409764051,10.20528507,0.053692192,-0.025313934,0.036905054,16,32,-25,-24,52
0,1693677731261847700,-0.104147777,2.41335535,10.21007347,0.054624807,-0.026779478,0.038104136,20,43,-24,-21,54
1,1693677731262847700,-0.105344877,2.41335535,10.20887566,0.054624807,-0.02691271,0.038104136,20,37,-21,-28,49
2,1693677731263847700,-0.108936176,2.41335535,10.20767879,0.054624807,-0.026779478,0.038104136,21,41,-25,-19,55
3,1693677731264847700,-0.108936176,2.41455245,10.21007347,0.054491576,-0.026646247,0.037837673,17,31,-23,-25,50
4,1693677731265847700,-0.108936176,2.41455245,10.21605873,0.054358348,-0.026379786,0.03757121,9,30,-24,-32,44
0,1693677731276862400,-0.112527482,2.41455245,10.21725559,0.054624807,-0.027312404,0.037704438,17,44,-21,-23,52
1,1693677731277862400,-0.113724582,2.41455245,10.21845245,0.054624807,-0.02691271,0.037704438,19,43,-27,-19,55
2,1693677731278862400,-0.114921682,2.41335535,10.21725559,0.054491576,-0.02691271,0.037704438,15,36,-21,-22,52
3,1693677731279862400,-0.114921682,2.41335535,10.21366405,0.054225113,-0.026779478,0.037704438,17,33,-21,-22,49
4,1693677731280862400,-0.113724582,2.41335535,10.20528507,0.054225113,-0.026779478,0.03757121,15,33,-25,-20,50
0,1693677731291853200,-0.112527482,2.412158251,10.21366405,0.054491576,-0.027179174,0.038503829,21,37,-24,-28,48
1,1693677731292853200,-0.113724582,2.412158251,10.21366405,0.054491576,-0.027312404,0.038637057,17,40,-23,-23,53
2,1693677731293853200,-0.112527482,2.410961151,10.21725559,0.054358348,-0.027179174,0.038637057,13,41,-24,-24,52
3,1693677731294853200,-0.112527482,2.406172752,10.21725559,0.054491576,-0.027045943,0.038503829,14,35,-21,-33,53
4,1693677731295853200,-0.114921682,2.408566952,10.21486187,0.054624807,-0.02691271,0.038370594,18,45,-24,-24,54
0,1693677731307821400,-0.106541976,2.420537949,10.21127033,0.054491576,-0.026513018,0.038104136,17,40,-30,-20,52
1,1693677731308821400,-0.108936176,2.424129248,10.21127033,0.054624807,-0.026779478,0.038104136,15,37,-23,-24,54
2,1693677731309821400,-0.113724582,2.422932148,10.21127033,0.054758042,-0.026779478,0.038237367,21,41,-26,-22,48
3,1693677731310821400,-0.113724582,2.422932148,10.21605873,0.054758042,-0.026779478,0.038104136,18,35,-25,-28,45
4,1693677731311821400,-0.112527482,2.421735048,10.21845245,0.054491576,-0.026779478,0.037970904,20,39,-21,-26,51
0,1693677731321815900,-0.110133275,2.421735048,10.20767879,0.05489127,-0.026513018,0.037704438,20,33,-17,-22,51
1,1693677731322815900,-0.107739076,2.420537949,10.21007347,0.055024505,-0.026513018,0.03757121,16,36,-25,-21,53
2,1693677731323815900,-0.107739076,2.418143749,10.20648193,0.05489127,-0.026646247,0.037704438,14,35,-24,-24,48
3,1693677731324815900,-0.110133275,2.41335535,10.20528507,0.05489127,-0.026779478,0.03757121,13,35,-23,-26,48
4,1693677731325815900,-0.108936176,2.412158251,10.20408726,0.05489127,-0.026779478,0.037704438,20,34,-25,-26,53
0,1693677731336827300,-0.108936176,2.407369852,10.19451046,0.055024505,-0.027045943,0.037970904,20,40,-17,-24,54
1,1693677731337827300,-0.107739076,2.408566952,10.198102,0.055157732,-0.027045943,0.037837673,15,33,-22,-27,53
2,1693677731338827300,-0.107739076,2.407369852,10.20408726,0.05489127,-0.027045943,0.037837673,13,32,-23,-23,50
3,1693677731339827300,-0.107739076,2.407369852,10.20767879,0.05489127,-0.02691271,0.037837673,11,40,-29,-26,52
4,1693677731340827300,-0.107739076,2.407369852,10.21127033,0.05489127,-0.026646247,0.037837673,18,41,-21,-23,52
0,1693677731369785300,-0.114921682,2.425326347,10.21845245,0.054624807,-0.02691271,0.038104136,15,35,-23,-32,50
1,1693677731370785300,-0.118512981,2.425326347,10.21845245,0.054758042,-0.02691271,0.037970904,18,39,-23,-21,53
2,1693677731371785300,-0.114921682,2.424129248,10.21486187,0.05489127,-0.026779478,0.037970904,17,36,-21,-22,49
3,1693677731372785300,-0.112527482,2.421735048,10.21366405,0.054758042,-0.026779478,0.038237367,20,40,-19,-24,55
4,1693677731373785300,-0.113724582,2.41574955,10.21007347,0.054624807,-0.026779478,0.038104136,19,41,-21,-27,52
0,1693677731384777100,-0.107739076,2.41455245,10.21965027,0.054758042,-0.026779478,0.038104136,20,36,-24,-26,48
1,1693677731385777100,-0.106541976,2.41335535,10.22204399,0.054624807,-0.026779478,0.038237367,20,33,-24,-26,44
2,1693677731386777100,-0.104147777,2.41574955,10.22563553,0.054624807,-0.026513018,0.038237367,22,39,-21,-16,53
3,1693677731387777100,-0.105344877,2.41694665,10.22204399,0.054624807,-0.026646247,0.038237367,20,32,-23,-20,54
4,1693677731388777100,-0.106541976,2.41694665,10.21845245,0.054624807,-0.026646247,0.038370594,14,36,-25,-20,53
0,1693677731401770300,-0.114921682,2.422932148,10.22443867,0.054758042,-0.02571363,0.037837673,13,41,-24,-28,50
1,1693677731402770300,-0.111330383,2.420537949,10.22084713,0.054758042,-0.025980091,0.037970904,18,32,-18,-21,50
2,1693677731403770300,-0.112527482,2.41694665,10.21725559,0.054758042,-0.025980091,0.037837673,22,36,-23,-27,55
3,1693677731404770300,-0.111330383,2.419340849,10.21605873,0.054758042,-0.025980091,0.037837673,15,32,-33,-30,48
4,1693677731405770300,-0.113724582,2.419340849,10.21725559,0.054758042,-0.026246555,0.037837673,20,35,-25,-26,48
0,1693677731418757600,-0.113724582,2.41694665,10.20528507,0.054491576,-0.026379786,0.037970904,17,33,-27,-22,54
1,1693677731419757600,-0.108936176,2.41694665,10.20408726,0.054358348,-0.026379786,0.037970904,17,46,-21,-19,54
2,1693677731420757600,-0.107739076,2.412158251,10.20408726,0.054358348,-0.026513018,0.037970904,15,34,-23,-15,54
3,1693677731421757600,-0.107739076,2.409764051,10.20528507,0.054358348,-0.026513018,0.038104136,14,39,-23,-22,50
4,1693677731422757600,-0.111330383,2.409764051,10.19929886,0.054225113,-0.026379786,0.037970904,13,40,-30,-25,48
0,1693677731441745600,-0.117315881,2.412158251,10.21605873,0.054758042,-0.026513018,0.038104136,13,41,-24,-32,52
1,1693677731442745600,-0.117315881,2.408566952,10.21725559,0.054758042,-0.026513018,0.038104136,18,43,-21,-23,52
2,1693677731443745600,-0.118512981,2.410961151,10.21725559,0.055024505,-0.026646247,0.038104136,9,43,-23,-24,50
3,1693677731444745600,-0.119710088,2.410961151,10.21605873,0.055157732,-0.02691271,0.038104136,20,32,-28,-24,49
4,1693677731445745600,-0.119710088,2.410961151,10.21366405,0.055024505,-0.02691271,0.038104136,10,30,-23,-22,54
0,1693677731463732400,-0.113724582,2.41455245,10.19929886,0.054358348,-0.026379786,0.037704438,18,42,-25,-20,54
1,1693677731464732400,-0.113724582,2.41574955,10.19929886,0.054225113,-0.026246555,0.037704438,11,39,-23,-27,50
2,1693677731465732400,-0.114921682,2.418143749,10.20049667,0.054091886,-0.026246555,0.03757121,15,33,-24,-30,54
3,1693677731466732400,-0.112527482,2.419340849,10.19929886,0.053825419,-0.025980091,0.037704438,18,30,-24,-24,51
4,1693677731467732400,-0.112527482,2.41694665,10.20408726,0.053825419,-0.025980091,0.037837673,7,40,-20,-29,53
0,1693677731481721800,-0.112527482,2.41455245,10.21246719,0.054358348,-0.027045943,0.037970904,18,33,-21,-30,49
1,1693677731482721800,-0.110133275,2.41455245,10.21127033,0.054225113,-0.027045943,0.037970904,19,40,-23,-22,54
2,1693677731483721800,-0.107739076,2.41455245,10.21127033,0.054358348,-0.026646247,0.037837673,13,31,-21,-27,50
3,1693677731484721800,-0.108936176,2.410961151,10.21366405,0.054358348,-0.026513018,0.037970904,19,31,-25,-27,48
4,1693677731485721800,-0.108936176,2.409764051,10.21127033,0.054491576,-0.026513018,0.038104136,19,41,-19,-23,53
0,1693677731497713700,-0.104147777,2.412158251,10.21725559,0.054758042,-0.026246555,0.037837673,20,39,-28,-28,53
1,1693677731498713700,-0.10295067,2.410961151,10.21486187,0.054758042,-0.026246555,0.037704438,12,39,-21,-28,54
2,1693677731499713700,-0.10295067,2.409764051,10.21007347,0.054624807,-0.026379786,0.03757121,18,31,-28,-24,48
3,1693677731500713700,-0.10295067,2.408566952,10.21246719,0.054624807,-0.026246555,0.03757121,15,41,-24,-23,50
4,1693677731501713700,-0.096965171,2.402581453,10.21725559,0.054358348,-0.026113322,0.03757121,19,36,-27,-18,50
0,1693677731513704400,-0.108936176,2.404975653,10.21845245,0.054624807,-0.026779478,0.038237367,15,41,-25,-27,51
1,1693677731514704400,-0.111330383,2.402581453,10.21725559,0.054758042,-0.026779478,0.037970904,15,37,-27,-22,50
2,1693677731515704400,-0.110133275,2.402581453,10.21725559,0.054624807,-0.026646247,0.037837673,18,37,-19,-20,52
3,1693677731516704400,-0.108936176,2.402581453,10.21725559,0.054491576,-0.026513018,0.037837673,18,36,-22,-21,54
4,1693677731517704400,-0.108936176,2.406172752,10.21845245,0.054358348,-0.026379786,0.037970904,14,43,-19,-27,55
0,1693677731530698800,-0.113724582,2.408566952,10.21246719,0.054491576,-0.025980091,0.037970904,14,29,-23,-22,52
1,1693677731531698800,-0.113724582,2.406172752,10.21366405,0.054624807,-0.026113322,0.037837673,13,31,-33,-28,50
2,1693677731532698800,-0.110133275,2.404975653,10.21007347,0.055024505,-0.026113322,0.037704438,10,35,-27,-24,53
3,1693677731533698800,-0.113724582,2.407369852,10.20767879,0.055024505,-0.026246555,0.037704438,14,33,-22,-23,52
4,1693677731534698800,-0.116118781,2.409764051,10.20767879,0.05489127,-0.026379786,0.037970904,20,46,-21,-17,53
0,1693677731545462800,-0.113724582,2.41574955,10.21725559,0.054758042,-0.026779478,0.037970904,15,36,-25,-24,46
1,1693677731546462800,-0.113724582,2.41574955,10.21486187,0.054758042,-0.026646247,0.037970904,19,30,-25,-24,52
2,1693677731547462800,-0.116118781,2.41335535,10.21366405,0.054758042,-0.026646247,0.037837673,17,43,-19,-28,53
3,1693677731548462800,-0.113724582,2.41335535,10.21486187,0.054624807,-0.026379786,0.037704438,18,39,-23,-23,51
4,1693677731549462800,-0.112527482,2.41455245,10.21246719,0.054491576,-0.026246555,0.037837673,19,43,-27,-16,53
0,1693677731559454900,-0.105344877,2.419340849,10.21486187,0.054491576,-0.026113322,0.038370594,14,35,-24,-25,45
1,1693677731560454900,-0.10295067,2.41694665,10.21486187,0.054491576,-0.026379786,0.038237367,20,43,-23,-24,41
2,1693677731561454900,-0.10055647,2.418143749,10.21965027,0.054358348,-0.026246555,0.038237367,20,37,-22,-24,56
3,1693677731562454900,-0.10055647,2.418143749,10.22204399,0.054491576,-0.026379786,0.038237367,20,40,-25,-22,54
4,1693677731563454900,-0.104147777,2.418143749,10.22204399,0.054358348,-0.026379786,0.038370594,13,41,-23,-18,54
0,1693677731575442600,-0.099359371,2.400187254,10.20528507,0.054491576,-0.025447167,0.037437979,20,34,-24,-23,51
1,1693677731576442600,-0.10055647,2.400187254,10.21845245,0.054624807,-0.025846859,0.03757121,14,30,-24,-23,48
2,1693677731577442600,-0.10175357,2.401384354,10.22563553,0.054091886,-0.026246555,0.038370594,20,39,-23,-20,55
3,1693677731578442600,-0.10295067,2.402581453,10.21605873,0.054091886,-0.02691271,0.038770292,18,36,-31,-27,54
4,1693677731579442600,-0.10175357,2.406172752,10.20767879,0.055024505,-0.027712099,0.038370594,13,34,-25,-24,52
0,1693677731608427000,-0.10175357,2.41455245,10.21127033,0.054358348,-0.025580399,0.03757121,26,35,-27,-24,53
1,1693677731609427000,-0.10175357,2.409764051,10.2028904,0.053692192,-0.025447167,0.037704438,14,31,-21,-20,54
2,1693677731610427000,-0.104147777,2.403778553,10.19929886,0.053958651,-0.025580399,0.037837673,20,40,-17,-24,54
3,1693677731611427000,-0.107739076,2.401384354,10.20169353,0.054491576,-0.025846859,0.037704438,20,33,-19,-24,48
4,1693677731612427000,-0.107739076,2.403778553,10.20169353,0.054758042,-0.026246555,0.037837673,14,35,-29,-22,50
0,1693677731624416200,-0.107739076,2.41574955,10.21246719,0.054358348,-0.027045943,0.038104136,9,35,-21,-26,52
1,1693677731625416200,-0.107739076,2.41694665,10.20648193,0.054225113,-0.027312404,0.038104136,10,32,-28,-23,46
2,1693677731626416200,-0.107739076,2.41574955,10.20648193,0.054358348,-0.027445635,0.038104136,21,36,-25,-28,61
3,1693677731627416200,-0.108936176,2.41694665,10.20528507,0.054225113,-0.027445635,0.038104136,17,41,-28,-22,48
4,1693677731628416200,-0.108936176,2.41694665,10.19929886,0.054358348,-0.027312404,0.038237367,21,33,-23,-18,51
0,1693677731640405600,-0.110133275,2.408566952,10.21366405,0.054358348,-0.027045943,0.037837673,20,40,-23,-22,42
1,1693677731641405600,-0.111330383,2.412158251,10.21366405,0.054358348,-0.02691271,0.037704438,17,30,-21,-24,40
2,1693677731642405600,-0.113724582,2.41455245,10.21366405,0.054491576,-0.027045943,0.037837673,20,40,-18,-18,52
3,1693677731643405600,-0.111330383,2.410961151,10.21366405,0.054624807,-0.027045943,0.037704438,19,40,-24,-22,52
4,1693677731644405600,-0.107739076,2.408566952,10.21246719,0.054624807,-0.027179174,0.037704438,20,36,-17,-22,55
0,1693677731655399200,-0.108936176,2.408566952,10.22204399,0.054491576,-0.02691271,0.038370594,17,36,-23,-30,55
1,1693677731656399200,-0.107739076,2.407369852,10.21725559,0.054358348,-0.026779478,0.038237367,14,41,-25,-28,55
2,1693677731657399200,-0.107739076,2.410961151,10.21486187,0.054358348,-0.02691271,0.038237367,13,35,-31,-24,51
3,1693677731658399200,-0.110133275,2.412158251,10.21246719,0.054358348,-0.027045943,0.038237367,15,43,-24,-21,52
4,1693677731659399200,-0.110133275,2.41335535,10.21127033,0.054358348,-0.02691271,0.038104136,14,36,-27,-27,50
0,1693677731672387200,-0.110133275,2.419340849,10.22084713,0.054491576,-0.026513018,0.038104136,11,30,-24,-21,50
1,1693677731673387200,-0.114921682,2.41694665,10.21845245,0.054624807,-0.026379786,0.038237367,10,39,-24,-17,55
2,1693677731674387200,-0.114921682,2.41455245,10.21725559,0.054758042,-0.026246555,0.038237367,17,43,-19,-29,54
3,1693677731675387200,-0.116118781,2.41455245,10.21366405,0.054758042,-0.026246555,0.038370594,20,39,-23,-20,55
4,1693677731676387200,-0.114921682,2.41574955,10.21127033,0.054491576,-0.026379786,0.038237367,19,31,-24,-22,44
0,1693677731692378600,-0.105344877,2.41455245,10.21246719,0.054358348,-0.026646247,0.03757121,20,33,-25,-27,52
1,1693677731693378600,-0.105344877,2.41574955,10.21486187,0.054091886,-0.02691271,0.03757121,19,39,-35,-24,54
2,1693677731694378600,-0.106541976,2.41694665,10.21366405,0.053958651,-0.026779478,0.03757121,18,35,-28,-29,47
3,1693677731695378600,-0.108936176,2.41455245,10.21605873,0.054225113,-0.02691271,0.037704438,15,41,-21,-22,55
4,1693677731696378600,-0.107739076,2.418143749,10.20887566,0.054225113,-0.02691271,0.037704438,14,35,-24,-24,51
0,1693677731710367200,-0.108936176,2.424129248,10.21007347,0.054358348,-0.02691271,0.037704438,15,33,-21,-18,53
1,1693677731711367200,-0.110133275,2.426523447,10.21246719,0.054225113,-0.026646247,0.037704438,19,46,-25,-20,54
2,1693677731712367200,-0.111330383,2.426523447,10.21486187,0.054091886,-0.026513018,0.037837673,20,43,-19,-19,54
3,1693677731713367200,-0.112527482,2.426523447,10.21845245,0.054091886,-0.026513018,0.037704438,14,39,-20,-22,54
4,1693677731714367200,-0.114921682,2.426523447,10.21605873,0.054091886,-0.026513018,0.037837673,19,35,-19,-22,48
0,1693677731725360300,-0.104147777,2.409764051,10.20767879,0.054091886,-0.026779478,0.037837673,14,35,-21,-20,55
1,1693677731726360300,-0.104147777,2.412158251,10.21007347,0.053958651,-0.026646247,0.037837673,18,36,-27,-22,54
2,1693677731727360300,-0.106541976,2.41335535,10.21007347,0.053958651,-0.026646247,0.037970904,18,40,-25,-19,53
3,1693677731728360300,-0.105344877,2.408566952,10.20648193,0.054225113,-0.026513018,0.038104136,15,44,-23,-23,52
4,1693677731729360300,-0.104147777,2.406172752,10.20169353,0.054225113,-0.026513018,0.038237367,14,30,-31,-27,49
0,1693677731741351000,-0.098162271,2.402581453,10.21366405,0.054091886,-0.026113322,0.037970904,20,43,-21,-20,56
1,1693677731742351000,-0.099359371,2.406172752,10.20767879,0.054491576,-0.026113322,0.037837673,20,37,-20,-20,54
2,1693677731743351000,-0.10055647,2.406172752,10.20767879,0.054491576,-0.026113322,0.037837673,5,43,-20,-21,52
3,1693677731744351000,-0.104147777,2.408566952,10.20887566,0.054491576,-0.026113322,0.038104136,20,39,-25,-24,47
4,1693677731745351000,-0.10295067,2.409764051,10.20767879,0.054358348,-0.026379786,0.038104136,20,34,-23,-21,53
0,1693677731759338400,-0.105344877,2.41694665,10.21127033,0.054758042,-0.026513018,0.037837673,7,36,-25,-18,55
1,1693677731760338400,-0.108936176,2.41694665,10.21486187,0.054624807,-0.026379786,0.037837673,19,41,-21,-21,53
2,1693677731761338400,-0.111330383,2.418143749,10.21725559,0.054758042,-0.026246555,0.037970904,17,30,-28,-21,49
3,1693677731762338400,-0.112527482,2.41574955,10.21605873,0.054624807,-0.025980091,0.037970904,11,44,-25,-26,45
4,1693677731763338400,-0.116118781,2.41335535,10.21605873,0.054758042,-0.025980091,0.038104136,17,39,-23,-21,54
0,1693677731774352400,-0.105344877,2.422932148,10.20887566,0.055024505,-0.026779478,0.038237367,20,43,-21,-21,55
1,1693677731775352400,-0.104147777,2.424129248,10.20767879,0.054758042,-0.02691271,0.038104136,17,41,-28,-30,55
2,1693677731776352400,-0.104147777,2.425326347,10.20887566,0.054624807,-0.02691271,0.037970904,15,40,-27,-20,53
3,1693677731777352400,-0.10295067,2.424129248,10.20767879,0.054491576,-0.02691271,0.037970904,13,32,-25,-26,53
4,1693677731778352400,-0.10295067,2.422932148,10.20767879,0.054491576,-0.02691271,0.038104136,16,32,-21,-20,41
0,1693677731814541400,-0.111330383,2.406172752,10.21605873,0.054091886,-0.025980091,0.03757121,16,39,-27,-20,53
1,1693677731815541400,-0.110133275,2.402581453,10.21486187,0.054091886,-0.025980091,0.03757121,18,41,-25,-26,50
2,1693677731816541400,-0.112527482,2.403778553,10.21486187,0.053958651,-0.026113322,0.037704438,19,32,-28,-24,49
3,1693677731817541400,-0.111330383,2.404975653,10.21486187,0.053825419,-0.026246555,0.037837673,19,47,-24,-27,48
4,1693677731818541400,-0.112527482,2.404975653,10.21486187,0.053825419,-0.026246555,0.037837673,22,41,-17,-22,53
0,1693677731884336500,-0.108936176,2.41335535,10.23760605,0.054225113,-0.026779478,0.037837673,16,43,-21,-23,53
1,1693677731885336500,-0.112527482,2.41574955,10.23760605,0.054091886,-0.02691271,0.037970904,17,40,-18,-28,47
2,1693677731886336500,-0.112527482,2.418143749,10.23760605,0.053958651,-0.026779478,0.037970904,8,37,-31,-26,46
3,1693677731887336500,-0.113724582,2.419340849,10.23281765,0.053958651,-0.026779478,0.037837673,20,39,-28,-24,55
4,1693677731888336500,-0.113724582,2.41455245,10.23640919,0.053958651,-0.026513018,0.037704438,20,37,-21,-21,55
0,1693677731951520400,-0.108936176,2.421735048,10.20887566,0.054358348,-0.027045943,0.038104136,16,39,-23,-22,49
1,1693677731952520400,-0.108936176,2.424129248,10.20887566,0.054358348,-0.02691271,0.038104136,20,38,-24,-24,48
2,1693677731953520400,-0.108936176,2.427720547,10.20648193,0.054491576,-0.026646247,0.038104136,18,35,-24,-18,52
3,1693677731954520400,-0.106541976,2.426523447,10.20528507,0.054491576,-0.026379786,0.038104136,20,39,-30,-22,50
4,1693677731955520400,-0.107739076,2.425326347,10.20528507,0.054358348,-0.026379786,0.038104136,19,45,-20,-21,55
0,1693677732031423900,-0.113724582,2.409764051,10.20767879,0.054624807,-0.026779478,0.037837673,16,35,-25,-24,54
1,1693677732032423900,-0.111330383,2.410961151,10.21127033,0.054624807,-0.02691271,0.037837673,13,39,-26,-31,52
2,1693677732033423900,-0.112527482,2.412158251,10.21007347,0.054624807,-0.02691271,0.037970904,18,35,-25,-22,54
3,1693677732034423900,-0.110133275,2.412158251,10.21366405,0.054624807,-0.027045943,0.038104136,20,44,-20,-23,56
4,1693677732035423900,-0.111330383,2.41335535,10.21725559,0.054624807,-0.027045943,0.038104136,18,33,-24,-19,50
0,1693677732074538600,-0.107739076,2.421735048,10.21007347,0.054091886,-0.026779478,0.03757121,14,35,-27,-31,50
1,1693677732075538600,-0.105344877,2.420537949,10.20887566,0.054358348,-0.027045943,0.037704438,19,32,-25,-17,53
2,1693677732076538600,-0.10175357,2.419340849,10.21007347,0.054225113,-0.027045943,0.037704438,15,45,-25,-27,54
3,1693677732077538600,-0.099359371,2.420537949,10.21366405,0.054091886,-0.027179174,0.037970904,13,35,-18,-17,55
4,1693677732078538600,-0.098162271,2.419340849,10.21605873,0.054091886,-0.027045943,0.037837673,17,33,-23,-20,53
0,1693677732159474800,-0.117315881,2.41335535,10.20648193,0.054491576,-0.026246555,0.037704438,20,46,-27,-22,52
1,1693677732160474800,-0.116118781,2.41455245,10.20528507,0.054491576,-0.026246555,0.03757121,20,39,-18,-26,54
2,1693677732161474800,-0.118512981,2.41694665,10.20767879,0.054491576,-0.026246555,0.03757121,18,37,-18,-18,55
3,1693677732162474800,-0.116118781,2.41694665,10.20767879,0.054491576,-0.026379786,0.03757121,17,41,-23,-22,52
4,1693677732163474800,-0.116118781,2.41574955,10.20887566,0.054491576,-0.026513018,0.037704438,17,40,-24,-24,52
0,1693677732228936100,-0.112527482,2.41694665,10.20767879,0.054358348,-0.02691271,0.037837673,19,35,-23,-22,44
1,1693677732229936100,-0.113724582,2.41574955,10.20528507,0.054358348,-0.027045943,0.037837673,16,39,-23,-19,55
2,1693677732230936100,-0.111330383,2.412158251,10.21007347,0.054225113,-0.027179174,0.037970904,19,40,-21,-19,56
3,1693677732231936100,-0.110133275,2.409764051,10.21366405,0.054225113,-0.027312404,0.038104136,18,39,-17,-24,41
4,1693677732232936100,-0.111330383,2.409764051,10.21007347,0.054491576,-0.027179174,0.038104136,17,33,-22,-28,53
0,1693677732293518700,-0.107739076,2.412158251,10.22324085,0.054358348,-0.026779478,0.038104136,15,37,-21,-26,48
1,1693677732294518700,-0.108936176,2.412158251,10.21366405,0.054491576,-0.026646247,0.037970904,20,43,-24,-20,54
2,1693677732295518700,-0.108936176,2.406172752,10.21366405,0.054491576,-0.026513018,0.037970904,18,44,-18,-22,52
3,1693677732296518700,-0.113724582,2.404975653,10.21725559,0.054624807,-0.026779478,0.038104136,20,35,-27,-19,54
4,1693677732297518700,-0.118512981,2.406172752,10.21845245,0.054624807,-0.026779478,0.038104136,13,29,-32,-29,51
0,1693677732355502000,-0.112527482,2.41455245,10.21965027,0.054758042,-0.026646247,0.037970904,18,42,-23,-22,55
1,1693677732356502000,-0.116118781,2.41455245,10.21725559,0.054758042,-0.026513018,0.037970904,19,43,-19,-19,55
2,1693677732357502000,-0.113724582,2.41574955,10.22683239,0.05489127,-0.026513018,0.037970904,17,36,-19,-19,50
3,1693677732358502000,-0.111330383,2.41335535,10.23042393,0.054758042,-0.026513018,0.037970904,20,41,-24,-19,54
4,1693677732359502000,-0.113724582,2.412158251,10.23281765,0.054758042,-0.026513018,0.037970904,17,39,-23,-29,52
0,1693677732419131900,-0.110133275,2.406172752,10.21127033,0.05489127,-0.02691271,0.037704438,20,42,-21,-24,54
1,1693677732420131900,-0.110133275,2.406172752,10.20887566,0.054758042,-0.02691271,0.03757121,29,44,-20,-14,52
2,1693677732421131900,-0.113724582,2.406172752,10.21246719,0.054624807,-0.026779478,0.037704438,13,37,-27,-26,52
3,1693677732422131900,-0.114921682,2.406172752,10.21366405,0.054491576,-0.026779478,0.037704438,17,33,-24,-22,52
4,1693677732423131900,-0.113724582,2.408566952,10.21246719,0.054491576,-0.026779478,0.03757121,7,33,-22,-28,51
0,1693677732484308100,-0.116118781,2.41335535,10.22084713,0.053958651,-0.026646247,0.037970904,20,47,-18,-22,53
1,1693677732485308100,-0.114921682,2.41335535,10.21725559,0.054091886,-0.026646247,0.037970904,17,43,-23,-24,50
2,1693677732486308100,-0.116118781,2.41335535,10.21246719,0.054225113,-0.026646247,0.037970904,20,32,-27,-30,48
3,1693677732487308100,-0.114921682,2.41335535,10.21486187,0.053958651,-0.026646247,0.037837673,13,36,-24,-23,50
4,1693677732488308100,-0.114921682,2.41455245,10.21605873,0.054091886,-0.026646247,0.037970904,19,30,-21,-19,51
0,1693677732552229400,-0.107739076,2.404975653,10.21246719,0.054491576,-0.02691271,0.038237367,14,35,-25,-22,53
1,1693677732553229400,-0.108936176,2.406172752,10.21486187,0.054491576,-0.02691271,0.038370594,18,32,-28,-18,54
2,1693677732554229400,-0.108936176,2.406172752,10.21725559,0.054491576,-0.026779478,0.038503829,17,35,-23,-28,53
3,1693677732555229400,-0.111330383,2.403778553,10.21605873,0.054624807,-0.026779478,0.038503829,20,33,-18,-23,50
4,1693677732556229400,-0.111330383,2.407369852,10.21725559,0.054624807,-0.026646247,0.038370594,18,42,-23,-22,54
0,1693677732640146800,-0.114921682,2.41694665,10.21605873,0.054491576,-0.027045943,0.038104136,20,35,-22,-22,55
1,1693677732641146800,-0.116118781,2.41694665,10.21486187,0.054225113,-0.027045943,0.038104136,14,43,-25,-22,39
2,1693677732642146800,-0.118512981,2.41574955,10.21486187,0.054225113,-0.027045943,0.037970904,19,37,-29,-31,54
3,1693677732643146800,-0.119710088,2.41455245,10.21486187,0.054358348,-0.027045943,0.037837673,15,40,-25,-18,55
4,1693677732644146800,-0.117315881,2.412158251,10.21127033,0.054358348,-0.02691271,0.037970904,14,41,-24,-23,56
0,1693677732697175400,-0.106541976,2.408566952,10.21965027,0.054358348,-0.026513018,0.038104136,18,35,-19,-24,55
1,1693677732698175400,-0.106541976,2.409764051,10.22084713,0.054491576,-0.026646247,0.038237367,17,40,-26,-19,52
2,1693677732699175400,-0.10295067,2.409764051,10.22204399,0.054624807,-0.026779478,0.038237367,18,34,-23,-23,49
3,1693677732700175400,-0.10175357,2.408566952,10.22443867,0.054758042,-0.026779478,0.038104136,13,43,-21,-23,50
4,1693677732701175400,-0.10175357,2.410961151,10.22324085,0.05489127,-0.026646247,0.038104136,18,39,-24,-20,55
0,1693677732760638500,-0.105344877,2.408566952,10.21127033,0.054491576,-0.02691271,0.038104136,20,40,-24,-27,52
1,1693677732761638500,-0.107739076,2.408566952,10.20887566,0.054358348,-0.027312404,0.038104136,7,32,-23,-23,55
2,1693677732762638500,-0.106541976,2.406172752,10.20767879,0.054225113,-0.027179174,0.037970904,20,45,-21,-21,39
3,1693677732763638500,-0.106541976,2.406172752,10.20648193,0.054225113,-0.027045943,0.038104136,17,29,-21,-27,54
4,1693677732764638500,-0.104147777,2.402581453,10.2028904,0.054225113,-0.027045943,0.038237367,25,39,-21,-17,53
0,1693677732836068900,-0.10055647,2.408566952,10.21007347,0.054358348,-0.02691271,0.037837673,13,39,-25,-26,48
1,1693677732837068900,-0.10055647,2.412158251,10.21127033,0.054358348,-0.02691271,0.037970904,7,40,-23,-27,54
2,1693677732838068900,-0.099359371,2.412158251,10.20887566,0.054358348,-0.027045943,0.037970904,14,39,-23,-18,55
3,1693677732839068900,-0.099359371,2.41335535,10.20887566,0.054358348,-0.027045943,0.037970904,19,45,-19,-14,55
4,1693677732840068900,-0.10055647,2.412158251,10.20887566,0.054491576,-0.02691271,0.037970904,19,41,-21,-27,54
0,1693677732895679400,-0.10295067,2.410961151,10.22683239,0.054358348,-0.026513018,0.037970904,16,34,-22,-31,46
1,1693677732896679400,-0.10175357,2.41335535,10.22204399,0.054358348,-0.026379786,0.037704438,20,35,-18,-16,55
2,1693677732897679400,-0.10295067,2.41455245,10.21725559,0.054358348,-0.026246555,0.03757121,17,41,-24,-24,55
3,1693677732898679400,-0.105344877,2.41335535,10.21845245,0.054491576,-0.026379786,0.037437979,23,39,-25,-21,55
4,1693677732899679400,-0.105344877,2.41455245,10.21845245,0.054624807,-0.026379786,0.03757121,20,39,-27,-23,55
0,1693677732994496800,-0.092176765,2.410961151,10.20169353,0.054491576,-0.025980091,0.037837673,17,35,-24,-18,53
1,1693677732995496800,-0.090979666,2.41335535,10.20528507,0.054491576,-0.026113322,0.037837673,20,37,-22,-22,53
2,1693677732996496800,-0.094570965,2.410961151,10.20767879,0.054358348,-0.026246555,0.037970904,17,44,-23,-24,55
3,1693677732997496800,-0.096965171,2.410961151,10.20528507,0.054491576,-0.026246555,0.037970904,14,36,-29,-26,46
4,1693677732998496800,-0.10295067,2.410961151,10.20408726,0.054491576,-0.026379786,0.037837673,15,33,-23,-22,51
0,1693677733174687300,-0.113724582,2.420537949,10.21007347,0.054491576,-0.026513018,0.038104136,14,36,-20,-22,55
1,1693677733175687300,-0.116118781,2.421735048,10.21007347,0.054491576,-0.026779478,0.038104136,20,32,-19,-21,52
2,1693677733176687300,-0.116118781,2.421735048,10.21246719,0.054491576,-0.026779478,0.038104136,18,39,-19,-26,67
3,1693677733177687300,-0.118512981,2.422932148,10.21246719,0.054491576,-0.026646247,0.038237367,18,40,-21,-21,49
4,1693677733178687300,-0.120907187,2.424129248,10.21246719,0.054491576,-0.026646247,0.038237367,14,30,-24,-22,53
0,1693677733258638900,-0.112527482,2.407369852,10.21725559,0.054225113,-0.026646247,0.038370594,19,34,-28,-20,54
1,1693677733259638900,-0.108936176,2.407369852,10.21486187,0.054358348,-0.026779478,0.038370594,19,46,-16,-24,55
2,1693677733260638900,-0.107739076,2.404975653,10.21366405,0.054358348,-0.026779478,0.038370594,9,37,-21,-19,52
3,1693677733261638900,-0.107739076,2.404975653,10.21366405,0.054491576,-0.026779478,0.038370594,15,44,-16,-19,50
4,1693677733262638900,-0.105344877,2.406172752,10.20767879,0.054491576,-0.027045943,0.038503829,15,30,-28,-31,45
0,1693677733389564000,-0.10055647,2.408566952,10.21127033,0.054358348,-0.026379786,0.037704438,20,39,-20,-24,54
1,1693677733390564000,-0.099359371,2.408566952,10.21605873,0.054225113,-0.026513018,0.037837673,20,41,-20,-22,55
2,1693677733391564000,-0.099359371,2.407369852,10.21605873,0.054091886,-0.026513018,0.037837673,20,39,-25,-22,52
3,1693677733392564000,-0.10295067,2.408566952,10.21366405,0.054225113,-0.026646247,0.037970904,17,31,-32,-19,51
4,1693677733393564000,-0.10055647,2.409764051,10.21246719,0.054225113,-0.026646247,0.037970904,15,39,-24,-22,55
0,1693677733522487200,-0.10175357,2.407369852,10.20887566,0.054758042,-0.02691271,0.03757121,17,43,-19,-20,54
1,1693677733523487200,-0.105344877,2.409764051,10.21246719,0.054758042,-0.026779478,0.037704438,14,32,-28,-19,53
2,1693677733524487200,-0.107739076,2.410961151,10.21366405,0.05489127,-0.026779478,0.03757121,14,44,-21,-22,53
3,1693677733525487200,-0.108936176,2.410961151,10.21366405,0.054758042,-0.026779478,0.03757121,13,37,-25,-30,49
4,1693677733526487200,-0.107739076,2.409764051,10.21366405,0.054491576,-0.02691271,0.037304748,17,38,-17,-26,55
0,1693677733584452600,-0.105344877,2.41694665,10.21605873,0.054358348,-0.026779478,0.037970904,18,42,-19,-28,54
1,1693677733585452600,-0.10295067,2.419340849,10.21605873,0.054491576,-0.026779478,0.038104136,20,35,-20,-17,50
2,1693677733586452600,-0.106541976,2.418143749,10.21366405,0.054624807,-0.026779478,0.038104136,19,35,-27,-24,52
3,1693677733587452600,-0.106541976,2.41574955,10.20887566,0.054624807,-0.026779478,0.038104136,18,30,-25,-23,52
4,1693677733588452600,-0.106541976,2.41694665,10.21246719,0.05489127,-0.026646247,0.038237367,18,39,-27,-20,52
0,1693677733656411600,-0.110133275,2.41455245,10.20767879,0.053692192,-0.026513018,0.037970904,14,39,-17,-28,44
1,1693677733657411600,-0.108936176,2.410961151,10.21127033,0.053825419,-0.026646247,0.038104136,18,39,-22,-22,49
2,1693677733658411600,-0.112527482,2.41335535,10.21246719,0.053825419,-0.02691271,0.037970904,14,37,-27,-28,52
3,1693677733659411600,-0.113724582,2.41335535,10.21605873,0.053825419,-0.02691271,0.037970904,18,37,-29,-31,53
4,1693677733660411600,-0.113724582,2.41574955,10.21605873,0.053692192,-0.026779478,0.038104136,21,37,-17,-20,53
0,1693677733754356000,-0.099359371,2.41335535,10.21725559,0.054358348,-0.026113322,0.037970904,18,34,-23,-22,52
1,1693677733755356000,-0.10175357,2.412158251,10.21366405,0.054225113,-0.026113322,0.037970904,20,33,-21,-28,36
2,1693677733756356000,-0.10175357,2.412158251,10.21007347,0.054358348,-0.026246555,0.037970904,18,36,-28,-23,48
3,1693677733757356000,-0.10175357,2.412158251,10.21007347,0.054358348,-0.026379786,0.037970904,20,37,-28,-26,50
4,1693677733758356000,-0.105344877,2.41455245,10.21127033,0.054358348,-0.026513018,0.037970904,19,39,-24,-22,55
0,1693677733776341400,-0.107739076,2.420537949,10.22084713,0.053825419,-0.025846859,0.037837673,13,37,-17,-23,55
1,1693677733777341400,-0.106541976,2.420537949,10.21605873,0.053958651,-0.02571363,0.037704438,14,33,-28,-25,50
2,1693677733778341400,-0.105344877,2.419340849,10.21725559,0.053825419,-0.025580399,0.037704438,22,41,-30,-24,54
3,1693677733779341400,-0.104147777,2.419340849,10.21605873,0.053825419,-0.025580399,0.037704438,20,33,-23,-23,53
4,1693677733780341400,-0.10175357,2.420537949,10.21127033,0.053958651,-0.025580399,0.037704438,13,39,-15,-16,55
0,1693677733796502800,-0.10295067,2.41455245,10.21725559,0.053958651,-0.025580399,0.038370594,9,39,-20,-22,53
1,1693677733797502800,-0.10175357,2.41574955,10.22204399,0.053825419,-0.025447167,0.038370594,9,39,-31,-20,50
2,1693677733798502800,-0.104147777,2.412158251,10.22563553,0.053825419,-0.025447167,0.038370594,14,39,-27,-18,52
3,1693677733799502800,-0.104147777,2.41335535,10.22563553,0.053825419,-0.025447167,0.038370594,17,41,-27,-24,54
4,1693677733800502800,-0.104147777,2.410961151,10.22204399,0.053825419,-0.025313934,0.038237367,15,37,-20,-23,53
0,1693677733818489300,-0.096965171,2.412158251,10.20887566,0.053958651,-0.025047474,0.037171517,15,39,-27,-24,43
1,1693677733819489300,-0.098162271,2.412158251,10.20648193,0.054091886,-0.025047474,0.037171517,20,31,-21,-22,55
2,1693677733820489300,-0.099359371,2.41335535,10.21007347,0.054225113,-0.024914242,0.037038282,20,37,-20,-16,58
3,1693677733821489300,-0.105344877,2.412158251,10.21127033,0.054358348,-0.024781011,0.037171517,19,41,-25,-21,54
4,1693677733822489300,-0.10295067,2.412158251,10.20887566,0.054225113,-0.024381317,0.037304748,15,37,-19,-23,54
0,1693677733837477700,-0.105344877,2.410961151,10.21127033,0.054358348,-0.026779478,0.037970904,20,36,-23,-22,50
1,1693677733838477700,-0.104147777,2.41335535,10.21246719,0.054091886,-0.026779478,0.038237367,17,32,-22,-17,51
2,1693677733839477700,-0.104147777,2.410961151,10.21366405,0.053958651,-0.026646247,0.038237367,19,43,-21,-24,53
3,1693677733840477700,-0.105344877,2.410961151,10.21127033,0.053958651,-0.026513018,0.038237367,19,37,-21,-22,55
4,1693677733841477700,-0.105344877,2.41455245,10.20648193,0.053958651,-0.026779478,0.038104136,7,36,-25,-31,51
0,1693677733856465700,-0.113724582,2.410961151,10.20049667,0.053692192,-0.026779478,0.037970904,20,36,-25,-30,52
1,1693677733857465700,-0.117315881,2.409764051,10.20408726,0.053692192,-0.027045943,0.038237367,20,37,-21,-24,54
2,1693677733858465700,-0.116118781,2.408566952,10.21007347,0.053825419,-0.027312404,0.038370594,17,41,-17,-21,54
3,1693677733859465700,-0.118512981,2.406172752,10.20767879,0.054091886,-0.027445635,0.038237367,21,45,-19,-24,53
4,1693677733860465700,-0.118512981,2.404975653,10.20528507,0.054091886,-0.027445635,0.038237367,16,30,-20,-24,51
0,1693677733876454600,-0.116118781,2.402581453,10.22443867,0.054358348,-0.025580399,0.037704438,15,44,-18,-30,55
1,1693677733877454600,-0.117315881,2.404975653,10.22683239,0.054358348,-0.025846859,0.03757121,31,34,-17,-16,55
2,1693677733878454600,-0.118512981,2.401384354,10.22324085,0.054358348,-0.025980091,0.03757121,20,40,-23,-20,56
3,1693677733879454600,-0.118512981,2.401384354,10.22443867,0.054358348,-0.025980091,0.037704438,17,40,-25,-28,52
4,1693677733880454600,-0.118512981,2.401384354,10.22443867,0.054491576,-0.025980091,0.037704438,9,46,-28,-23,45
0,1693677733933531100,-0.119710088,2.41455245,10.21965027,0.053825419,-0.026513018,0.037837673,19,44,-21,-22,52
1,1693677733934531100,-0.119710088,2.41574955,10.22084713,0.053825419,-0.026646247,0.037970904,20,46,-19,-20,55
2,1693677733935531100,-0.117315881,2.41694665,10.21845245,0.054091886,-0.026646247,0.038104136,14,40,-25,-23,48
3,1693677733936531100,-0.114921682,2.418143749,10.21845245,0.053958651,-0.026779478,0.038104136,20,37,-24,-28,50
4,1693677733937531100,-0.114921682,2.420537949,10.21965027,0.054091886,-0.02691271,0.038104136,11,33,-25,-24,54
0,1693677733989974300,-0.113724582,2.408566952,10.20169353,0.054491576,-0.026113322,0.037704438,17,38,-19,-20,52
1,1693677733990974300,-0.113724582,2.408566952,10.20169353,0.054358348,-0.026113322,0.037704438,17,45,-22,-22,55
2,1693677733991974300,-0.114921682,2.409764051,10.2028904,0.054358348,-0.026379786,0.037704438,18,32,-25,-23,48
3,1693677733992974300,-0.113724582,2.41455245,10.20408726,0.054358348,-0.026513018,0.037704438,20,40,-28,-32,49
4,1693677733993974300,-0.112527482,2.41574955,10.2028904,0.054358348,-0.026513018,0.037837673,20,39,-28,-22,52
0,1693677734068093300,-0.10295067,2.424129248,10.22324085,0.054225113,-0.026646247,0.038104136,20,43,-23,-19,55
1,1693677734069093300,-0.10295067,2.425326347,10.22802925,0.054091886,-0.026779478,0.038104136,18,39,-24,-24,50
2,1693677734070093300,-0.10055647,2.420537949,10.22683239,0.054091886,-0.026646247,0.038104136,14,33,-31,-28,54
3,1693677734071093300,-0.10175357,2.418143749,10.22324085,0.054091886,-0.026646247,0.038237367,13,30,-29,-26,52
4,1693677734072093300,-0.10295067,2.418143749,10.22683239,0.054091886,-0.026646247,0.037970904,18,35,-21,-21,50
0,1693677734185899700,-0.118512981,2.41335535,10.22324085,0.054091886,-0.026779478,0.037970904,18,39,-28,-24,54
1,1693677734186899700,-0.118512981,2.409764051,10.22683239,0.054091886,-0.026779478,0.038104136,19,39,-21,-26,53
2,1693677734187899700,-0.119710088,2.410961151,10.22084713,0.054091886,-0.026779478,0.038104136,8,31,-31,-27,50
3,1693677734188899700,-0.118512981,2.408566952,10.21965027,0.054091886,-0.026779478,0.037837673,10,35,-21,-24,54
4,1693677734189899700,-0.117315881,2.406172752,10.21725559,0.054091886,-0.026779478,0.037837673,23,37,-20,-19,53
0,1693677734205888400,-0.116118781,2.41574955,10.21486187,0.054225113,-0.027045943,0.037970904,19,34,-25,-17,52
1,1693677734206888400,-0.117315881,2.41455245,10.21965027,0.054225113,-0.027179174,0.037837673,16,47,-24,-24,51
2,1693677734207888400,-0.117315881,2.412158251,10.22084713,0.054358348,-0.027312404,0.037837673,23,43,-29,-21,52
3,1693677734208888400,-0.116118781,2.410961151,10.22204399,0.054225113,-0.027179174,0.037704438,19,39,-21,-20,53
4,1693677734209888400,-0.114921682,2.412158251,10.21965027,0.054225113,-0.027179174,0.03757121,14,31,-20,-16,53
0,1693677734264822600,-0.107739076,2.410961151,10.21725559,0.054624807,-0.026113322,0.038370594,25,41,-23,-21,55
1,1693677734265822600,-0.106541976,2.409764051,10.21605873,0.054758042,-0.026113322,0.038237367,18,36,-29,-22,49
2,1693677734266822600,-0.107739076,2.407369852,10.21605873,0.054624807,-0.026113322,0.038237367,15,39,-30,-27,51
3,1693677734267822600,-0.110133275,2.408566952,10.21845245,0.054624807,-0.025980091,0.038104136,19,43,-28,-22,55
4,1693677734268822600,-0.112527482,2.409764051,10.21725559,0.054624807,-0.025980091,0.038104136,18,41,-20,-16,55
0,1693677734336704400,-0.111330383,2.412158251,10.21486187,0.054624807,-0.026113322,0.037837673,20,39,-25,-22,52
1,1693677734337704400,-0.110133275,2.412158251,10.21246719,0.054624807,-0.026246555,0.037837673,15,36,-20,-27,50
2,1693677734338704400,-0.110133275,2.412158251,10.21246719,0.054491576,-0.026379786,0.037837673,20,36,-25,-24,54
3,1693677734339704400,-0.110133275,2.408566952,10.21845245,0.054358348,-0.026379786,0.037704438,18,41,-17,-19,54
4,1693677734340704400,-0.114921682,2.408566952,10.21366405,0.054358348,-0.026513018,0.037704438,20,46,-21,-19,55
0,1693677734417843500,-0.112527482,2.418143749,10.2028904,0.054491576,-0.026646247,0.037837673,19,31,-17,-26,54
1,1693677734418843500,-0.116118781,2.419340849,10.20408726,0.054491576,-0.026513018,0.037970904,18,43,-27,-20,55
2,1693677734419843500,-0.116118781,2.418143749,10.20408726,0.054491576,-0.026379786,0.038104136,22,43,-20,-18,51
3,1693677734420843500,-0.117315881,2.41455245,10.20169353,0.054358348,-0.026513018,0.038104136,20,42,-17,-20,55
4,1693677734421843500,-0.119710088,2.412158251,10.20169353,0.054491576,-0.026379786,0.038237367,12,45,-29,-24,52
0,1693677734481356400,-0.116118781,2.41455245,10.21127033,0.054358348,-0.026646247,0.037970904,19,37,-22,-20,52
1,1693677734482356400,-0.113724582,2.41335535,10.21246719,0.054491576,-0.026513018,0.038104136,19,41,-27,-21,54
2,1693677734483356400,-0.111330383,2.409764051,10.21246719,0.054358348,-0.026379786,0.037970904,20,39,-23,-23,56
3,1693677734484356400,-0.108936176,2.408566952,10.21366405,0.054358348,-0.026513018,0.037970904,20,44,-21,-20,55
4,1693677734485356400,-0.112527482,2.409764051,10.21366405,0.054091886,-0.026379786,0.037837673,20,43,-19,-28,55
0,1693677734539540700,-0.105344877,2.407369852,10.21725559,0.054091886,-0.02691271,0.037704438,17,32,-21,-18,54
1,1693677734540540700,-0.104147777,2.407369852,10.22324085,0.053958651,-0.027045943,0.037704438,20,39,-23,-28,52
2,1693677734541540700,-0.105344877,2.409764051,10.22084713,0.053825419,-0.02691271,0.037704438,10,47,-25,-30,58
3,1693677734542540700,-0.106541976,2.409764051,10.21725559,0.053558957,-0.026779478,0.037704438,20,40,-24,-24,53
4,1693677734543540700,-0.108936176,2.412158251,10.21486187,0.053692192,-0.02691271,0.03757121,13,39,-22,-22,53
0,1693677734618997800,-0.108936176,2.406172752,10.19929886,0.05489127,-0.026379786,0.037704438,29,35,-27,-19,55
1,1693677734619997800,-0.112527482,2.407369852,10.2028904,0.05489127,-0.026379786,0.037837673,20,41,-17,-18,58
2,1693677734620997800,-0.113724582,2.408566952,10.20648193,0.05489127,-0.026246555,0.037704438,17,36,-21,-24,55
3,1693677734621997800,-0.114921682,2.407369852,10.20528507,0.05489127,-0.026379786,0.037837673,18,44,-23,-33,50
4,1693677734622997800,-0.116118781,2.406172752,10.20887566,0.054624807,-0.026379786,0.037837673,20,32,-24,-29,52
0,1693677734675062600,-0.113724582,2.407369852,10.20887566,0.054491576,-0.026779478,0.037704438,18,35,-25,-26,52
1,1693677734676062600,-0.112527482,2.406172752,10.20767879,0.054358348,-0.026779478,0.037837673,16,43,-20,-20,46
2,1693677734677062600,-0.111330383,2.402581453,10.20648193,0.054358348,-0.02691271,0.037837673,13,45,-25,-19,52
3,1693677734678062600,-0.112527482,2.400187254,10.21127033,0.054358348,-0.027045943,0.037837673,14,34,-23,-23,50
4,1693677734679062600,-0.114921682,2.403778553,10.21725559,0.054225113,-0.026779478,0.037837673,14,35,-23,-23,53
0,1693677734738474900,-0.111330383,2.410961151,10.21246719,0.054358348,-0.026513018,0.037970904,22,46,-20,-18,52
1,1693677734739474900,-0.111330383,2.408566952,10.21366405,0.054491576,-0.026513018,0.037837673,20,41,-24,-27,53
2,1693677734740474900,-0.114921682,2.409764051,10.22204399,0.054624807,-0.026379786,0.037837673,20,37,-29,-26,53
3,1693677734741474900,-0.114921682,2.407369852,10.22204399,0.054758042,-0.026379786,0.037837673,18,46,-21,-19,49
4,1693677734742474900,-0.114921682,2.406172752,10.22204399,0.054758042,-0.026379786,0.037704438,21,33,-26,-19,52
0,1693677734825242400,-0.114921682,2.409764051,10.22922707,0.054358348,-0.02691271,0.037837673,20,35,-22,-28,54
1,1693677734826242400,-0.114921682,2.408566952,10.23042393,0.054358348,-0.026646247,0.037837673,19,35,-17,-26,50
2,1693677734827242400,-0.117315881,2.407369852,10.23042393,0.054225113,-0.026646247,0.037837673,18,35,-25,-26,46
3,1693677734828242400,-0.116118781,2.406172752,10.23281765,0.054225113,-0.026646247,0.037970904,11,35,-26,-20,50
4,1693677734829242400,-0.118512981,2.406172752,10.23401546,0.054225113,-0.026779478,0.038104136,21,45,-21,-22,54
0,1693677734887584200,-0.113724582,2.409764051,10.21845245,0.054091886,-0.026779478,0.038104136,19,39,-27,-20,39
1,1693677734888584200,-0.114921682,2.409764051,10.21246719,0.053958651,-0.026646247,0.038104136,19,36,-25,-26,54
2,1693677734889584200,-0.113724582,2.408566952,10.21486187,0.054091886,-0.026646247,0.038104136,17,33,-21,-24,52
3,1693677734890584200,-0.111330383,2.407369852,10.21246719,0.054225113,-0.026779478,0.038370594,19,37,-27,-24,52
4,1693677734891584200,-0.111330383,2.409764051,10.21246719,0.054091886,-0.026779478,0.038237367,6,40,-16,-30,55
0,1693677734961498700,-0.122104287,2.41455245,10.23042393,0.054358348,-0.026379786,0.038237367,20,35,-21,-26,52
1,1693677734962498700,-0.124498487,2.41455245,10.22922707,0.054491576,-0.026513018,0.038104136,15,34,-25,-32,48
2,1693677734963498700,-0.125695586,2.41335535,10.22563553,0.054358348,-0.026513018,0.037970904,16,41,-25,-24,50
3,1693677734964498700,-0.123301387,2.41335535,10.22683239,0.054491576,-0.026646247,0.038237367,20,40,-29,-18,55
4,1693677734965498700,-0.120907187,2.41455245,10.22683239,0.054624807,-0.026779478,0.038237367,20,37,-18,-19,53
0,1693677735039423600,-0.120907187,2.407369852,10.21845245,0.054758042,-0.027312404,0.038503829,20,40,-25,-20,53
1,1693677735040423600,-0.119710088,2.407369852,10.21725559,0.054624807,-0.027312404,0.038503829,15,43,-25,-32,48
2,1693677735041423600,-0.114921682,2.406172752,10.21845245,0.054758042,-0.027312404,0.038503829,20,30,-21,-20,55
3,1693677735042423600,-0.113724582,2.403778553,10.21605873,0.054758042,-0.027312404,0.038503829,20,43,-23,-20,55
4,1693677735043423600,-0.114921682,2.403778553,10.21605873,0.05489127,-0.027179174,0.038637057,19,45,-25,-22,52
0,1693677735100389100,-0.117315881,2.408566952,10.21845245,0.054358348,-0.026379786,0.038637057,10,35,-28,-28,50
1,1693677735101389100,-0.116118781,2.412158251,10.22084713,0.054491576,-0.026113322,0.038503829,14,41,-21,-19,55
2,1693677735102389100,-0.114921682,2.410961151,10.21366405,0.054358348,-0.026513018,0.038370594,20,40,-21,-20,50
3,1693677735103389100,-0.116118781,2.408566952,10.21007347,0.054491576,-0.026779478,0.038370594,17,43,-21,-21,54
4,1693677735104389100,-0.119710088,2.408566952,10.20648193,0.054358348,-0.026779478,0.038503829,17,41,-21,-21,53
0,1693677735155507100,-0.112527482,2.412158251,10.20648193,0.054491576,-0.026513018,0.038104136,17,37,-24,-20,55
1,1693677735156507100,-0.114921682,2.410961151,10.20887566,0.054491576,-0.026379786,0.038104136,10,41,-20,-24,54
2,1693677735157507100,-0.114921682,2.410961151,10.20767879,0.054491576,-0.026379786,0.038104136,19,47,-21,-17,55
3,1693677735158507100,-0.113724582,2.410961151,10.21246719,0.054491576,-0.026246555,0.037970904,14,33,-19,-18,54
4,1693677735159507100,-0.111330383,2.409764051,10.21127033,0.054624807,-0.026246555,0.037837673,16,39,-23,-17,49
0,1693677735233506700,-0.120907187,2.406172752,10.2028904,0.054091886,-0.027045943,0.03757121,20,35,-25,-28,55
1,1693677735234506700,-0.118512981,2.406172752,10.21007347,0.054091886,-0.02691271,0.03757121,20,35,-19,-21,55
2,1693677735235506700,-0.117315881,2.403778553,10.21486187,0.054091886,-0.026779478,0.03757121,20,39,-20,-22,53
3,1693677735236506700,-0.116118781,2.402581453,10.21605873,0.054225113,-0.02691271,0.037437979,19,41,-25,-19,55
4,1693677735237506700,-0.116118781,2.401384354,10.21366405,0.054358348,-0.02691271,0.03757121,15,32,-25,-23,52
0,1693677735317419700,-0.116118781,2.41694665,10.20049667,0.054091886,-0.026379786,0.037704438,20,46,-23,-17,55
1,1693677735318419700,-0.116118781,2.41574955,10.20408726,0.054091886,-0.026379786,0.03757121,17,43,-21,-18,55
2,1693677735319419700,-0.117315881,2.41455245,10.20887566,0.054091886,-0.026513018,0.037704438,17,42,-23,-23,50
3,1693677735320419700,-0.117315881,2.41574955,10.20648193,0.054225113,-0.026646247,0.037704438,11,35,-22,-24,50
4,1693677735321419700,-0.118512981,2.41574955,10.20887566,0.054358348,-0.026646247,0.037837673,14,39,-26,-25,51
0,1693677735407140100,-0.125695586,2.407369852,10.21845245,0.054491576,-0.027045943,0.037837673,19,37,-17,-18,55
1,1693677735408140100,-0.125695586,2.406172752,10.21845245,0.054624807,-0.027179174,0.037970904,20,43,-23,-23,55
2,1693677735409140100,-0.122104287,2.407369852,10.21725559,0.054624807,-0.027179174,0.037970904,19,40,-25,-26,49
3,1693677735410140100,-0.122104287,2.406172752,10.21725559,0.054624807,-0.027045943,0.038104136,20,35,-21,-24,49
4,1693677735411140100,-0.119710088,2.408566952,10.21127033,0.054624807,-0.02691271,0.038237367,10,42,-25,-27,53
0,1693677735439120900,-0.119710088,2.409764051,10.22084713,0.054091886,-0.026379786,0.037837673,20,41,-22,-17,55
1,1693677735440120900,-0.119710088,2.408566952,10.22324085,0.054091886,-0.026513018,0.037837673,15,32,-28,-23,55
2,1693677735441120900,-0.120907187,2.410961151,10.22324085,0.054225113,-0.026379786,0.037837673,15,39,-22,-24,48
3,1693677735442120900,-0.123301387,2.412158251,10.22683239,0.054358348,-0.026379786,0.03757121,14,34,-25,-30,52
4,1693677735443120900,-0.122104287,2.41335535,10.22802925,0.054358348,-0.026379786,0.037704438,25,40,-15,-22,54
0,1693677735503941000,-0.108936176,2.41694665,10.22443867,0.054091886,-0.026513018,0.037837673,20,40,-22,-19,53
1,1693677735504941000,-0.110133275,2.418143749,10.22683239,0.054091886,-0.026646247,0.037704438,14,41,-23,-22,50
2,1693677735505941000,-0.110133275,2.419340849,10.22324085,0.054091886,-0.026646247,0.037704438,18,35,-24,-26,49
3,1693677735506941000,-0.108936176,2.419340849,10.22084713,0.054091886,-0.026779478,0.037704438,17,36,-24,-27,49
4,1693677735507941000,-0.108936176,2.41694665,10.21965027,0.054225113,-0.026513018,0.037704438,19,39,-20,-20,55
0,1693677735575902700,-0.116118781,2.419340849,10.22084713,0.054358348,-0.026379786,0.037970904,19,37,-24,-22,54
1,1693677735576902700,-0.116118781,2.41694665,10.21965027,0.054225113,-0.026379786,0.037837673,20,36,-24,-26,46
2,1693677735577902700,-0.113724582,2.41335535,10.22443867,0.054358348,-0.026513018,0.037704438,17,36,-27,-28,50
3,1693677735578902700,-0.112527482,2.412158251,10.22324085,0.054491576,-0.026513018,0.03757121,20,35,-17,-24,55
4,1693677735579902700,-0.112527482,2.41455245,10.22683239,0.054624807,-0.026513018,0.03757121,14,40,-19,-15,50
0,1693677735635392100,-0.118512981,2.410961151,10.22802925,0.054091886,-0.026513018,0.037837673,11,34,-29,-25,43
1,1693677735636392100,-0.117315881,2.409764051,10.22683239,0.054358348,-0.026646247,0.037970904,19,44,-24,-24,48
2,1693677735637392100,-0.116118781,2.408566952,10.22563553,0.054225113,-0.026779478,0.037837673,18,40,-20,-27,54
3,1693677735638392100,-0.113724582,2.409764051,10.22683239,0.054091886,-0.026779478,0.037837673,20,35,-18,-23,52
4,1693677735639392100,-0.111330383,2.410961151,10.23162079,0.054225113,-0.026646247,0.037837673,20,44,-23,-16,55
0,1693677735714940700,-0.111330383,2.404975653,10.22563553,0.054624807,-0.026246555,0.037704438,20,37,-29,-22,54
1,1693677735715940700,-0.111330383,2.406172752,10.22563553,0.054624807,-0.026513018,0.037704438,18,32,-24,-28,54
2,1693677735716940700,-0.108936176,2.406172752,10.22324085,0.054491576,-0.026513018,0.03757121,21,49,-19,-18,55
3,1693677735717940700,-0.108936176,2.408566952,10.22443867,0.054624807,-0.026646247,0.03757121,13,37,-21,-23,55
4,1693677735718940700,-0.108936176,2.407369852,10.22563553,0.054758042,-0.026646247,0.03757121,16,35,-25,-24,56
0,1693677735775904600,-0.113724582,2.406172752,10.22084713,0.054225113,-0.026513018,0.037837673,19,35,-33,-28,50
1,1693677735776904600,-0.112527482,2.407369852,10.21965027,0.054358348,-0.026513018,0.037704438,17,41,-27,-19,55
2,1693677735777904600,-0.113724582,2.408566952,10.21725559,0.054225113,-0.026513018,0.037837673,17,39,-20,-26,54
3,1693677735778904600,-0.112527482,2.409764051,10.21486187,0.054225113,-0.026513018,0.037970904,21,45,-17,-22,54
4,1693677735779904600,-0.112527482,2.409764051,10.21486187,0.054358348,-0.026513018,0.037970904,21,41,-21,-24,53
0,1693677735849863600,-0.117315881,2.41455245,10.21965027,0.054091886,-0.025980091,0.038104136,20,39,-25,-19,55
1,1693677735850863600,-0.114921682,2.41574955,10.21605873,0.054225113,-0.026113322,0.038237367,18,46,-18,-24,55
2,1693677735851863600,-0.114921682,2.41694665,10.21605873,0.054225113,-0.026246555,0.038104136,17,43,-18,-25,54
3,1693677735852863600,-0.114921682,2.418143749,10.21965027,0.054091886,-0.026113322,0.037970904,19,33,-21,-22,49
4,1693677735853863600,-0.117315881,2.419340849,10.21845245,0.054358348,-0.026246555,0.037837673,17,40,-27,-23,53
0,1693677735930817400,-0.116118781,2.419340849,10.21366405,0.054491576,-0.026646247,0.03757121,16,31,-29,-28,51
1,1693677735931817400,-0.113724582,2.41574955,10.21605873,0.054491576,-0.026646247,0.037704438,6,42,-20,-24,54
2,1693677735932817400,-0.113724582,2.418143749,10.21486187,0.054624807,-0.026379786,0.037704438,15,40,-20,-20,55
3,1693677735933817400,-0.112527482,2.419340849,10.21605873,0.054358348,-0.026513018,0.037704438,20,35,-22,-18,55
4,1693677735934817400,-0.110133275,2.418143749,10.21965027,0.054624807,-0.026646247,0.037704438,17,39,-25,-32,55
0,1693677736015767600,-0.113724582,2.409764051,10.21605873,0.054624807,-0.026246555,0.038237367,18,41,-22,-23,53
1,1693677736016767600,-0.111330383,2.408566952,10.21965027,0.054358348,-0.026113322,0.037970904,18,44,-21,-19,61
2,1693677736017767600,-0.112527482,2.412158251,10.21725559,0.054225113,-0.026379786,0.038104136,20,43,-25,-24,55
3,1693677736018767600,-0.111330383,2.41455245,10.21605873,0.054358348,-0.026246555,0.037970904,13,46,-23,-20,50
4,1693677736019767600,-0.111330383,2.41335535,10.21845245,0.054358348,-0.026246555,0.037837673,14,43,-25,-28,53
0,1693677736104716600,-0.112527482,2.419340849,10.21486187,0.054624807,-0.026779478,0.037704438,14,32,-25,-20,55
1,1693677736105716600,-0.112527482,2.41694665,10.21845245,0.054491576,-0.02691271,0.037837673,23,42,-17,-17,53
2,1693677736106716600,-0.107739076,2.41694665,10.22084713,0.054491576,-0.026646247,0.037704438,9,32,-20,-22,55
3,1693677736107716600,-0.106541976,2.41455245,10.21845245,0.054358348,-0.02691271,0.037704438,17,37,-24,-22,54
4,1693677736108716600,-0.107739076,2.41574955,10.22084713,0.054491576,-0.027045943,0.037704438,9,37,-28,-22,52
0,1693677736156687600,-0.117315881,2.410961151,10.23042393,0.054624807,-0.026379786,0.037704438,18,38,-22,-20,53
1,1693677736157687600,-0.118512981,2.412158251,10.22683239,0.054624807,-0.026379786,0.037704438,17,39,-21,-20,55
2,1693677736158687600,-0.118512981,2.412158251,10.22802925,0.054624807,-0.026513018,0.03757121,20,35,-27,-27,56
3,1693677736159687600,-0.118512981,2.410961151,10.22563553,0.054491576,-0.026513018,0.037437979,19,39,-22,-28,50
4,1693677736160687600,-0.118512981,2.408566952,10.22683239,0.054491576,-0.026379786,0.03757121,19,41,-25,-23,55
0,1693677736189668000,-0.111330383,2.412158251,10.22324085,0.054358348,-0.026113322,0.038104136,19,46,-24,-18,68
1,1693677736190668000,-0.111330383,2.412158251,10.22563553,0.054358348,-0.026646247,0.038370594,21,37,-19,-20,54
2,1693677736191668000,-0.111330383,2.41574955,10.22084713,0.054491576,-0.026646247,0.038104136,19,40,-27,-24,53
3,1693677736192668000,-0.114921682,2.41455245,10.21725559,0.054491576,-0.026246555,0.038104136,19,39,-21,-24,53
4,1693677736193668000,-0.116118781,2.41574955,10.22084713,0.054491576,-0.026246555,0.038237367,15,40,-27,-23,54
0,1693677736266493200,-0.117315881,2.412158251,10.21845245,0.05489127,-0.026513018,0.038370594,20,44,-25,-20,52
1,1693677736267493200,-0.116118781,2.41455245,10.21486187,0.05489127,-0.026513018,0.038237367,17,30,-25,-20,54
2,1693677736268493200,-0.118512981,2.41455245,10.21366405,0.05489127,-0.026379786,0.037970904,11,46,-22,-29,52
3,1693677736269493200,-0.120907187,2.41335535,10.20648193,0.055024505,-0.026379786,0.037970904,15,39,-24,-20,54
4,1693677736270493200,-0.119710088,2.41335535,10.20767879,0.055024505,-0.026379786,0.037970904,20,41,-28,-20,54
0,1693677736323201500,-0.113724582,2.409764051,10.21366405,0.054491576,-0.026779478,0.037704438,21,36,-22,-23,55
1,1693677736324201500,-0.114921682,2.408566952,10.21246719,0.054491576,-0.026779478,0.037704438,18,35,-20,-21,53
2,1693677736325201500,-0.114921682,2.406172752,10.21605873,0.054624807,-0.026646247,0.037704438,17,31,-23,-24,53
3,1693677736326201500,-0.114921682,2.407369852,10.21486187,0.054491576,-0.026646247,0.03757121,18,39,-21,-26,50
4,1693677736327201500,-0.114921682,2.407369852,10.22204399,0.054358348,-0.026779478,0.037704438,15,39,-22,-26,55
0,1693677736390489300,-0.113724582,2.410961151,10.21845245,0.054091886,-0.02691271,0.03757121,10,36,-20,-23,54
1,1693677736391489300,-0.112527482,2.412158251,10.21486187,0.054225113,-0.02691271,0.03757121,10,41,-24,-18,48
2,1693677736392489300,-0.112527482,2.41335535,10.21366405,0.054358348,-0.02691271,0.03757121,14,37,-20,-29,54
3,1693677736393489300,-0.111330383,2.41694665,10.21965027,0.054358348,-0.026779478,0.037704438,21,39,-20,-20,55
4,1693677736394489300,-0.112527482,2.420537949,10.21845245,0.054358348,-0.026646247,0.037704438,19,41,-20,-19,55
0,1693677736450513700,-0.113724582,2.421735048,10.22084713,0.054491576,-0.026513018,0.037704438,20,40,-25,-22,53
1,1693677736451513700,-0.111330383,2.422932148,10.21965027,0.054358348,-0.026779478,0.037704438,20,39,-24,-22,46
2,1693677736452513700,-0.110133275,2.424129248,10.21965027,0.054358348,-0.026779478,0.037837673,15,35,-24,-22,50
3,1693677736453513700,-0.110133275,2.425326347,10.22084713,0.054491576,-0.026646247,0.037704438,17,39,-21,-21,55
4,1693677736454513700,-0.113724582,2.424129248,10.22084713,0.054491576,-0.026779478,0.037704438,30,43,-27,-23,53
0,1693677736532569000,-0.104147777,2.41574955,10.22443867,0.054225113,-0.02691271,0.037704438,19,38,-23,-24,41
1,1693677736533569000,-0.105344877,2.41455245,10.22802925,0.054091886,-0.026779478,0.037837673,19,40,-23,-20,54
2,1693677736534569000,-0.107739076,2.41455245,10.22443867,0.054225113,-0.026646247,0.037970904,13,44,-23,-19,56
3,1693677736535569000,-0.106541976,2.41694665,10.21845245,0.054225113,-0.026646247,0.037970904,19,33,-16,-20,60
4,1693677736536569000,-0.104147777,2.41455245,10.21605873,0.054225113,-0.026646247,0.038104136,18,43,-29,-27,55
0,1693677736597959400,-0.108936176,2.401384354,10.22084713,0.054491576,-0.027045943,0.037704438,19,37,-25,-30,53
1,1693677736598959400,-0.108936176,2.402581453,10.22084713,0.054624807,-0.027045943,0.037704438,20,45,-18,-23,55
2,1693677736599959400,-0.108936176,2.401384354,10.22324085,0.054624807,-0.027045943,0.037837673,20,37,-22,-18,58
3,1693677736600959400,-0.108936176,2.402581453,10.22324085,0.054491576,-0.02691271,0.037970904,20,41,-20,-23,53
4,1693677736601959400,-0.107739076,2.401384354,10.22084713,0.054624807,-0.027179174,0.037970904,17,44,-24,-20,53
0,1693677736653563900,-0.125695586,2.41335535,10.21366405,0.053692192,-0.025447167,0.037704438,6,45,-24,-24,53
1,1693677736654563900,-0.124498487,2.410961151,10.20887566,0.053292494,-0.025313934,0.03757121,19,43,-23,-26,51
2,1693677736655563900,-0.123301387,2.409764051,10.20887566,0.053292494,-0.025047474,0.03757121,23,45,-17,-18,55
3,1693677736656563900,-0.125695586,2.412158251,10.21366405,0.053159267,-0.025047474,0.037704438,16,45,-23,-23,55
4,1693677736657563900,-0.124498487,2.410961151,10.21725559,0.053425729,-0.025313934,0.03757121,21,34,-20,-24,48
0,1693677736737559000,-0.119710088,2.424129248,10.21127033,0.054225113,-0.026379786,0.038104136,14,35,-23,-22,55
1,1693677736738559000,-0.120907187,2.420537949,10.21605873,0.054091886,-0.026246555,0.037970904,11,41,-18,-22,55
2,1693677736739559000,-0.117315881,2.418143749,10.21965027,0.054091886,-0.026113322,0.037970904,20,43,-29,-23,55
3,1693677736740559000,-0.119710088,2.41694665,10.21725559,0.053825419,-0.025846859,0.037970904,16,33,-25,-23,55
4,1693677736741559000,-0.120907187,2.41335535,10.21486187,0.053958651,-0.025846859,0.037837673,20,41,-24,-27,53
0,1693677736800960700,-0.118512981,2.41455245,10.21965027,0.054091886,-0.026779478,0.03757121,10,35,-27,-7,55
1,1693677736801960700,-0.118512981,2.412158251,10.21725559,0.054225113,-0.026779478,0.037437979,20,49,-21,-24,52
2,1693677736802960700,-0.118512981,2.410961151,10.21845245,0.054358348,-0.026646247,0.037437979,18,32,-17,-23,39
3,1693677736803960700,-0.117315881,2.41455245,10.22084713,0.054358348,-0.026779478,0.03757121,15,44,-23,-23,55
4,1693677736804960700,-0.116118781,2.418143749,10.22563553,0.054358348,-0.026779478,0.03757121,20,31,-24,-31,53
0,1693677736869192100,-0.106541976,2.41335535,10.20648193,0.053825419,-0.026246555,0.038237367,18,40,-28,-26,54
1,1693677736870192100,-0.107739076,2.412158251,10.20767879,0.053825419,-0.026246555,0.038104136,20,45,-19,-18,55
2,1693677736871192100,-0.111330383,2.409764051,10.20887566,0.053825419,-0.026379786,0.038104136,17,39,-24,-24,49
3,1693677736872192100,-0.114921682,2.412158251,10.21127033,0.053825419,-0.026379786,0.038104136,17,30,-21,-20,51
4,1693677736873192100,-0.110133275,2.408566952,10.21366405,0.054091886,-0.026379786,0.038104136,15,41,-20,-24,51
0,1693677736921432000,-0.118512981,2.410961151,10.22204399,0.054091886,-0.026379786,0.037704438,18,44,-21,-16,46
1,1693677736922432000,-0.120907187,2.412158251,10.22204399,0.053958651,-0.026379786,0.037704438,21,45,-24,-30,55
2,1693677736923432000,-0.123301387,2.41335535,10.22443867,0.053958651,-0.026646247,0.037837673,20,42,-23,-24,54
3,1693677736924432000,-0.124498487,2.41694665,10.22802925,0.054091886,-0.026246555,0.037704438,14,31,-24,-22,55
4,1693677736925432000,-0.126892686,2.418143749,10.22563553,0.054091886,-0.026246555,0.03757121,17,35,-19,-20,55
0,1693677737008477500,-0.119710088,2.409764051,10.21486187,0.054624807,-0.02691271,0.038104136,15,30,-18,-19,53
1,1693677737009477500,-0.118512981,2.408566952,10.21605873,0.054624807,-0.027045943,0.038237367,14,45,-19,-22,52
2,1693677737010477500,-0.117315881,2.408566952,10.21725559,0.054358348,-0.02691271,0.038237367,10,34,-12,-30,52
3,1693677737011477500,-0.116118781,2.408566952,10.22204399,0.054358348,-0.026779478,0.038237367,19,39,-20,-22,55
4,1693677737012477500,-0.116118781,2.406172752,10.21965027,0.054491576,-0.026646247,0.038237367,19,32,-21,-18,55
0,1693677737067205200,-0.120907187,2.406172752,10.19929886,0.054758042,-0.026246555,0.037837673,19,31,-27,-26,53
1,1693677737068205200,-0.120907187,2.407369852,10.20408726,0.054758042,-0.026113322,0.037704438,14,41,-24,-24,55
2,1693677737069205200,-0.118512981,2.408566952,10.20887566,0.054758042,-0.026246555,0.037837673,11,36,-20,-26,50
3,1693677737070205200,-0.117315881,2.408566952,10.20648193,0.054624807,-0.026246555,0.037704438,11,39,-25,-18,55
4,1693677737071205200,-0.114921682,2.409764051,10.21127033,0.05489127,-0.026513018,0.037837673,23,43,-29,-23,55
0,1693677737169215200,-0.122104287,2.41455245,10.22204399,0.054358348,-0.026646247,0.037704438,18,44,-25,-17,50
1,1693677737170215200,-0.124498487,2.41455245,10.22204399,0.054491576,-0.026513018,0.037837673,14,36,-23,-24,52
2,1693677737171215200,-0.126892686,2.412158251,10.21486187,0.054491576,-0.026379786,0.03757121,17,35,-27,-19,49
3,1693677737172215200,-0.126892686,2.41335535,10.21127033,0.054491576,-0.026513018,0.03757121,14,40,-20,-20,55
4,1693677737173215200,-0.125695586,2.41335535,10.21725559,0.054491576,-0.026646247,0.03757121,15,37,-21,-17,54
0,1693677737202558900,-0.117315881,2.41574955,10.21246719,0.054091886,-0.026246555,0.037704438,22,35,-23,-18,55
1,1693677737203558900,-0.114921682,2.41335535,10.21127033,0.054091886,-0.026113322,0.037704438,6,43,-18,-27,48
2,1693677737204558900,-0.117315881,2.41455245,10.21127033,0.053958651,-0.025980091,0.037837673,21,33,-24,-25,51
3,1693677737205558900,-0.114921682,2.418143749,10.21605873,0.053958651,-0.026246555,0.037704438,18,45,-15,-21,53
4,1693677737206558900,-0.114921682,2.420537949,10.21725559,0.053958651,-0.026379786,0.037837673,14,40,-24,-18,54
0,1693677737287451900,-0.112527482,2.41455245,10.21127033,0.054358348,-0.027045943,0.037970904,20,36,-22,-24,49
1,1693677737288451900,-0.113724582,2.41335535,10.21127033,0.054358348,-0.02691271,0.038104136,19,43,-23,-32,48
2,1693677737289451900,-0.114921682,2.41335535,10.21007347,0.054358348,-0.02691271,0.038104136,23,39,-27,-29,54
3,1693677737290451900,-0.113724582,2.41574955,10.21366405,0.054225113,-0.02691271,0.038237367,18,44,-23,-17,55
4,1693677737291451900,-0.114921682,2.41455245,10.21486187,0.054091886,-0.026779478,0.038237367,17,39,-21,-22,50
0,1693677737354430900,-0.119710088,2.419340849,10.22802925,0.054358348,-0.026113322,0.038104136,15,35,-24,-26,54
1,1693677737355430900,-0.120907187,2.418143749,10.22922707,0.054491576,-0.026113322,0.038104136,19,34,-31,-23,52
2,1693677737356430900,-0.122104287,2.420537949,10.22802925,0.054491576,-0.026113322,0.038104136,19,40,-25,-22,58
3,1693677737357430900,-0.122104287,2.421735048,10.23162079,0.054491576,-0.026113322,0.038237367,18,41,-17,-18,53
4,1693677737358430900,-0.123301387,2.41694665,10.23162079,0.054624807,-0.026246555,0.038104136,20,45,-19,-30,52
0,1693677737406400400,-0.111330383,2.41455245,10.21007347,0.054091886,-0.02691271,0.037837673,20,33,-23,-20,55
1,1693677737407400400,-0.112527482,2.41455245,10.20887566,0.054091886,-0.027045943,0.037970904,20,44,-17,-21,55
2,1693677737408400400,-0.113724582,2.412158251,10.20767879,0.054091886,-0.02691271,0.038104136,20,39,-20,-14,57
3,1693677737409400400,-0.112527482,2.409764051,10.20408726,0.053825419,-0.02691271,0.038104136,21,35,-25,-20,55
4,1693677737410400400,-0.108936176,2.410961151,10.2028904,0.053825419,-0.026646247,0.037970904,17,40,-32,-22,54
0,1693677737488470100,-0.119710088,2.41335535,10.21605873,0.054225113,-0.026513018,0.037837673,17,44,-18,-21,54
1,1693677737489470100,-0.118512981,2.41335535,10.21486187,0.054091886,-0.026513018,0.037704438,19,36,-21,-20,55
2,1693677737490470100,-0.116118781,2.41335535,10.21605873,0.054225113,-0.026646247,0.037837673,15,37,-20,-23,54
3,1693677737491470100,-0.116118781,2.412158251,10.21486187,0.054491576,-0.026646247,0.037837673,18,37,-20,-24,54
4,1693677737492470100,-0.113724582,2.409764051,10.21127033,0.054491576,-0.026513018,0.038104136,17,36,-19,-23,53
0,1693677737550494900,-0.117315881,2.402581453,10.21246719,0.054624807,-0.026379786,0.037437979,16,41,-19,-24,52
1,1693677737551494900,-0.117315881,2.403778553,10.21246719,0.054491576,-0.026379786,0.03757121,29,43,-15,-22,55
2,1693677737552494900,-0.114921682,2.402581453,10.21486187,0.054624807,-0.026246555,0.037704438,20,32,-19,-20,55
3,1693677737553494900,-0.117315881,2.402581453,10.21246719,0.054491576,-0.026513018,0.037970904,19,37,-24,-22,54
4,1693677737554494900,-0.114921682,2.404975653,10.21127033,0.054491576,-0.026646247,0.037970904,15,35,-27,-20,51
0,1693677737608649300,-0.114921682,2.409764051,10.21127033,0.054624807,-0.026379786,0.038237367,15,45,-21,-21,53
1,1693677737609649300,-0.112527482,2.409764051,10.20887566,0.054758042,-0.026379786,0.037970904,19,35,-21,-22,55
2,1693677737610649300,-0.112527482,2.409764051,10.21127033,0.054624807,-0.026246555,0.037970904,19,39,-27,-17,55
3,1693677737611649300,-0.112527482,2.409764051,10.21007347,0.054624807,-0.026379786,0.038104136,13,43,-25,-26,53
4,1693677737612649300,-0.107739076,2.412158251,10.20767879,0.054491576,-0.026379786,0.038104136,7,35,-23,-23,53
0,1693677737697889300,-0.117315881,2.409764051,10.21605873,0.054624807,-0.02691271,0.038104136,15,41,-16,-19,55
1,1693677737698889300,-0.116118781,2.41335535,10.21246719,0.054624807,-0.02691271,0.038104136,17,39,-23,-20,54
2,1693677737699889300,-0.116118781,2.410961151,10.21725559,0.054624807,-0.02691271,0.037970904,20,36,-21,-20,48
3,1693677737700889300,-0.113724582,2.412158251,10.21127033,0.05489127,-0.02691271,0.037970904,19,32,-27,-19,53
4,1693677737701889300,-0.113724582,2.412158251,10.20887566,0.054758042,-0.02691271,0.037970904,15,42,-19,-22,55
0,1693677737756047300,-0.116118781,2.412158251,10.21486187,0.054091886,-0.026513018,0.038104136,20,35,-20,-21,55
1,1693677737757047300,-0.116118781,2.41455245,10.21246719,0.054225113,-0.026779478,0.038104136,18,40,-17,-16,54
2,1693677737758047300,-0.119710088,2.418143749,10.21366405,0.054091886,-0.026646247,0.038104136,15,39,-21,-23,53
3,1693677737759047300,-0.118512981,2.419340849,10.21725559,0.054358348,-0.026513018,0.038104136,9,32,-25,-18,51
4,1693677737760047300,-0.116118781,2.419340849,10.21845245,0.054225113,-0.026646247,0.038104136,20,40,-23,-23,55
0,1693677737833200100,-0.116118781,2.41335535,10.22324085,0.054358348,-0.027045943,0.037704438,14,35,-20,-20,49
1,1693677737834200100,-0.117315881,2.41335535,10.22443867,0.054358348,-0.026779478,0.037704438,20,37,-18,-24,52
2,1693677737835200100,-0.117315881,2.412158251,10.22204399,0.054358348,-0.026779478,0.03757121,14,40,-19,-19,48
3,1693677737836200100,-0.116118781,2.41574955,10.21845245,0.054358348,-0.026779478,0.037704438,17,41,-23,-16,55
4,1693677737837200100,-0.116118781,2.418143749,10.21845245,0.054358348,-0.027045943,0.037704438,19,43,-21,-26,55
0,1693677737885469400,-0.114921682,2.421735048,10.21127033,0.054358348,-0.026379786,0.038104136,19,35,-19,-22,53
1,1693677737886469400,-0.114921682,2.421735048,10.21366405,0.054225113,-0.026379786,0.037970904,17,35,-30,-22,44
2,1693677737887469400,-0.116118781,2.419340849,10.21486187,0.054225113,-0.026513018,0.037970904,19,41,-28,-20,56
3,1693677737888469400,-0.113724582,2.41694665,10.21486187,0.054091886,-0.026513018,0.037837673,17,39,-24,-26,55
4,1693677737889469400,-0.114921682,2.41694665,10.21246719,0.053958651,-0.026246555,0.037704438,18,40,-17,-11,55
0,1693677737967476600,-0.119710088,2.409764051,10.21486187,0.054091886,-0.026246555,0.037970904,18,36,-25,-20,53
1,1693677737968476600,-0.118512981,2.41335535,10.21366405,0.054091886,-0.026513018,0.037970904,16,32,-24,-28,36
2,1693677737969476600,-0.119710088,2.41574955,10.21366405,0.054091886,-0.026513018,0.038104136,20,43,-20,-22,53
3,1693677737970476600,-0.118512981,2.41455245,10.21007347,0.054091886,-0.026513018,0.038237367,13,41,-17,-21,52
4,1693677737971476600,-0.117315881,2.41574955,10.21127033,0.054091886,-0.026513018,0.038104136,18,35,-23,-18,55
0,1693677738047653000,-0.118512981,2.418143749,10.22084713,0.054624807,-0.026513018,0.038104136,12,37,-24,-27,49
1,1693677738048653000,-0.117315881,2.418143749,10.21965027,0.054624807,-0.026513018,0.037970904,20,43,-17,-19,55
2,1693677738049653000,-0.117315881,2.41335535,10.21845245,0.054758042,-0.026246555,0.037970904,17,43,-17,-24,54
3,1693677738050653000,-0.113724582,2.41455245,10.22204399,0.05489127,-0.026113322,0.037837673,22,39,-25,-26,55
4,1693677738051653000,-0.108936176,2.412158251,10.21965027,0.054758042,-0.026379786,0.037970904,19,40,-25,-18,53
0,1693677738121133300,-0.111330383,2.419340849,10.21007347,0.054624807,-0.026646247,0.03757121,13,36,-21,-24,52
1,1693677738122133300,-0.113724582,2.418143749,10.21127033,0.054624807,-0.026646247,0.03757121,22,36,-23,-19,54
2,1693677738123133300,-0.113724582,2.421735048,10.21366405,0.054624807,-0.026513018,0.03757121,15,36,-20,-16,53
3,1693677738124133300,-0.116118781,2.422932148,10.21246719,0.054624807,-0.026779478,0.037837673,20,37,-29,-22,54
4,1693677738125133300,-0.117315881,2.420537949,10.21246719,0.054491576,-0.026779478,0.037970904,27,44,-27,-21,55
0,1693677738162511200,-0.112527482,2.41335535,10.22204399,0.054624807,-0.027445635,0.038370594,17,39,-24,-22,54
1,1693677738163511200,-0.113724582,2.41455245,10.21965027,0.054624807,-0.027179174,0.038237367,15,45,-17,-24,56
2,1693677738164511200,-0.112527482,2.41455245,10.21845245,0.054624807,-0.027179174,0.038237367,21,43,-15,-19,55
3,1693677738165511200,-0.111330383,2.41694665,10.22084713,0.054358348,-0.02691271,0.038237367,17,41,-25,-24,51
4,1693677738166511200,-0.110133275,2.41574955,10.21965027,0.054225113,-0.02691271,0.038104136,20,33,-27,-27,55
0,1693677738242488500,-0.114921682,2.404975653,10.20049667,0.054624807,-0.026646247,0.03757121,25,35,-19,-30,54
1,1693677738243488500,-0.111330383,2.406172752,10.20049667,0.054624807,-0.026779478,0.037837673,19,45,-21,-20,55
2,1693677738244488500,-0.110133275,2.407369852,10.2028904,0.054758042,-0.026779478,0.037837673,17,36,-19,-17,50
3,1693677738245488500,-0.112527482,2.409764051,10.20169353,0.054758042,-0.026779478,0.037837673,17,41,-17,-23,51
4,1693677738246488500,-0.112527482,2.409764051,10.20408726,0.054758042,-0.026779478,0.038104136,20,40,-21,-22,53
0,1693677738299454400,-0.114921682,2.41574955,10.22683239,0.054358348,-0.027045943,0.038237367,23,36,-18,-18,53
1,1693677738300454400,-0.116118781,2.41455245,10.22683239,0.054491576,-0.02691271,0.038104136,19,33,-21,-17,55
2,1693677738301454400,-0.116118781,2.41574955,10.22563553,0.054225113,-0.027045943,0.038104136,18,42,-21,-18,50
3,1693677738302454400,-0.114921682,2.41574955,10.22204399,0.054358348,-0.027045943,0.038237367,17,35,-15,-14,53
4,1693677738303454400,-0.114921682,2.412158251,10.21845245,0.054491576,-0.027045943,0.038237367,15,35,-20,-23,47
0,1693677738355464800,-0.106541976,2.41574955,10.21725559,0.054758042,-0.026646247,0.038370594,19,46,-17,-20,55
1,1693677738356464800,-0.106541976,2.418143749,10.21725559,0.05489127,-0.026513018,0.038237367,22,47,-19,-15,55
2,1693677738357464800,-0.108936176,2.419340849,10.21725559,0.054758042,-0.026513018,0.038104136,19,35,-17,-23,48
3,1693677738358464800,-0.110133275,2.41455245,10.21725559,0.05489127,-0.026513018,0.038104136,13,30,-23,-24,54
4,1693677738359464800,-0.106541976,2.41694665,10.21965027,0.054624807,-0.026513018,0.037970904,19,37,-21,-24,55
0,1693677738435488000,-0.113724582,2.41335535,10.22324085,0.054624807,-0.026779478,0.038237367,17,39,-18,-18,55
1,1693677738436488000,-0.112527482,2.41455245,10.22204399,0.054624807,-0.02691271,0.038237367,17,39,-20,-24,55
2,1693677738437488000,-0.112527482,2.41455245,10.21965027,0.054358348,-0.02691271,0.038104136,19,43,-14,-26,53
3,1693677738438488000,-0.112527482,2.41455245,10.21965027,0.054358348,-0.027045943,0.038370594,20,33,-24,-28,46
4,1693677738439488000,-0.113724582,2.41455245,10.22084713,0.054358348,-0.02691271,0.038237367,21,44,-17,-18,54
0,1693677738490684400,-0.116118781,2.409764051,10.21605873,0.054358348,-0.026646247,0.037837673,20,41,-21,-23,55
1,1693677738491684400,-0.117315881,2.409764051,10.21486187,0.054358348,-0.026646247,0.037837673,21,37,-24,-19,51
2,1693677738492684400,-0.116118781,2.410961151,10.21366405,0.054491576,-0.026779478,0.037970904,17,37,-20,-20,54
3,1693677738493684400,-0.117315881,2.410961151,10.21605873,0.054624807,-0.026646247,0.037970904,20,29,-22,-24,54
4,1693677738494684400,-0.114921682,2.410961151,10.21605873,0.054358348,-0.026646247,0.037970904,17,39,-27,-23,53
0,1693677738566041000,-0.123301387,2.402581453,10.21725559,0.054358348,-0.026779478,0.038104136,20,45,-15,-20,39
1,1693677738567041000,-0.120907187,2.400187254,10.21725559,0.054225113,-0.026779478,0.038237367,22,40,-17,-24,48
2,1693677738568041000,-0.120907187,2.400187254,10.21486187,0.054358348,-0.02691271,0.038370594,20,32,-21,-23,48
3,1693677738569041000,-0.117315881,2.403778553,10.21605873,0.054491576,-0.027045943,0.038104136,20,44,-21,-19,54
4,1693677738570041000,-0.117315881,2.404975653,10.22084713,0.054491576,-0.027179174,0.038104136,20,47,-21,-22,55
0,1693677738632514600,-0.108936176,2.424129248,10.21486187,0.054225113,-0.026513018,0.037837673,20,40,-21,-20,53
1,1693677738633514600,-0.108936176,2.426523447,10.21246719,0.053958651,-0.026646247,0.037970904,20,39,-25,-27,53
2,1693677738634514600,-0.113724582,2.424129248,10.21127033,0.053958651,-0.026513018,0.037970904,10,39,-23,-23,54
3,1693677738635514600,-0.116118781,2.422932148,10.20767879,0.053958651,-0.026379786,0.037970904,19,40,-20,-14,55
4,1693677738636514600,-0.114921682,2.420537949,10.21127033,0.053958651,-0.026779478,0.038104136,19,47,-18,-18,56
0,1693677738758901000,-0.107739076,2.412158251,10.21127033,0.054491576,-0.026779478,0.038237367,20,43,-21,-17,52
1,1693677738759901000,-0.106541976,2.412158251,10.20767879,0.054624807,-0.026646247,0.038104136,14,41,-28,-25,49
2,1693677738760901000,-0.108936176,2.412158251,10.20528507,0.054624807,-0.02691271,0.037970904,20,40,-25,-21,52
3,1693677738761901000,-0.107739076,2.41335535,10.20528507,0.054624807,-0.027045943,0.038104136,20,42,-28,-19,53
4,1693677738762901000,-0.107739076,2.41455245,10.20887566,0.054624807,-0.027045943,0.037970904,22,35,-20,-23,52
0,1693677738783887400,-0.113724582,2.421735048,10.21127033,0.054225113,-0.026646247,0.037704438,17,33,-25,-27,54
1,1693677738784887400,-0.113724582,2.421735048,10.21007347,0.054358348,-0.026646247,0.037704438,22,33,-22,-16,54
2,1693677738785887400,-0.113724582,2.41694665,10.21007347,0.054358348,-0.02691271,0.038104136,20,37,-23,-24,56
3,1693677738786887400,-0.110133275,2.41455245,10.21007347,0.054225113,-0.026779478,0.037970904,17,33,-23,-19,55
4,1693677738787887400,-0.108936176,2.41574955,10.20767879,0.054358348,-0.026646247,0.037704438,14,39,-23,-22,53
0,1693677738849483400,-0.108936176,2.409764051,10.2028904,0.054358348,-0.026646247,0.037970904,15,40,-25,-19,54
1,1693677738850483400,-0.107739076,2.412158251,10.20648193,0.054358348,-0.026646247,0.038104136,20,45,-23,-18,52
2,1693677738851483400,-0.108936176,2.41335535,10.20767879,0.054491576,-0.026779478,0.038104136,14,39,-20,-20,54
3,1693677738852483400,-0.110133275,2.412158251,10.21246719,0.054491576,-0.026779478,0.038104136,20,40,-23,-16,55
4,1693677738853483400,-0.108936176,2.410961151,10.21366405,0.054358348,-0.02691271,0.037970904,15,35,-24,-24,55
0,1693677738921343500,-0.123301387,2.41335535,10.21486187,0.054225113,-0.026246555,0.038104136,19,38,-19,-15,46
1,1693677738922343500,-0.122104287,2.41335535,10.21725559,0.054091886,-0.026379786,0.037837673,20,37,-19,-16,54
2,1693677738923343500,-0.122104287,2.412158251,10.21605873,0.054225113,-0.026513018,0.037837673,20,39,-13,-17,55
3,1693677738924343500,-0.122104287,2.410961151,10.21605873,0.054091886,-0.026779478,0.037837673,21,35,-22,-20,52
4,1693677738925343500,-0.122104287,2.412158251,10.22084713,0.053958651,-0.026779478,0.037704438,21,44,-27,-20,56
0,1693677738971483600,-0.118512981,2.41574955,10.22084713,0.053958651,-0.026646247,0.038237367,18,46,-24,-18,44
1,1693677738972483600,-0.118512981,2.41574955,10.21965027,0.054225113,-0.026646247,0.038237367,19,36,-21,-19,55
2,1693677738973483600,-0.118512981,2.41335535,10.21845245,0.054358348,-0.026779478,0.038104136,17,43,-24,-23,61
3,1693677738974483600,-0.118512981,2.41455245,10.21486187,0.054225113,-0.026779478,0.038104136,17,35,-20,-24,51
4,1693677738975483600,-0.117315881,2.412158251,10.21366405,0.054091886,-0.026779478,0.038104136,19,37,-28,-25,52
0,1693677739052911300,-0.106541976,2.410961151,10.21605873,0.054225113,-0.027045943,0.038237367,20,33,-27,-19,55
1,1693677739053911300,-0.107739076,2.412158251,10.21366405,0.054225113,-0.027045943,0.038237367,20,41,-20,-18,50
2,1693677739054911300,-0.107739076,2.41455245,10.21605873,0.054225113,-0.027179174,0.038237367,17,41,-24,-21,54
3,1693677739055911300,-0.110133275,2.41335535,10.21725559,0.054358348,-0.027045943,0.038370594,19,32,-20,-24,54
4,1693677739056911300,-0.111330383,2.41455245,10.21725559,0.054225113,-0.027045943,0.038370594,20,37,-20,-23,53
0,1693677739322755100,-0.117315881,2.41574955,10.19451046,0.054358348,-0.026646247,0.038104136,20,43,-18,-20,56
1,1693677739323755100,-0.120907187,2.41574955,10.19211674,0.054225113,-0.026646247,0.038104136,20,33,-20,-24,40
2,1693677739324755100,-0.123301387,2.41335535,10.19570827,0.054358348,-0.02691271,0.038237367,23,43,-19,-20,55
3,1693677739325755100,-0.122104287,2.41335535,10.19690514,0.054491576,-0.027045943,0.038237367,20,31,-23,-22,54
4,1693677739326755100,-0.124498487,2.410961151,10.19690514,0.054491576,-0.02691271,0.038237367,19,39,-19,-23,52
0,1693677739394718100,-0.111330383,2.404975653,10.21366405,0.054225113,-0.026646247,0.037970904,10,43,-18,-20,54
1,1693677739395718100,-0.111330383,2.406172752,10.21127033,0.054225113,-0.026646247,0.037970904,20,39,-17,-19,54
2,1693677739396718100,-0.108936176,2.409764051,10.21246719,0.054225113,-0.026646247,0.038104136,20,36,-19,-23,50
3,1693677739397718100,-0.110133275,2.410961151,10.21246719,0.054091886,-0.02691271,0.038104136,18,35,-22,-24,53
4,1693677739398718100,-0.112527482,2.41335535,10.21127033,0.054225113,-0.02691271,0.038104136,18,45,-24,-20,54
0,1693677739423699000,-0.116118781,2.406172752,10.19570827,0.054491576,-0.026646247,0.038370594,15,36,-23,-20,51
1,1693677739424699000,-0.116118781,2.404975653,10.19690514,0.054491576,-0.026513018,0.038370594,22,41,-20,-19,54
2,1693677739425699000,-0.113724582,2.404975653,10.20049667,0.054225113,-0.026513018,0.038503829,19,36,-23,-24,53
3,1693677739426699000,-0.112527482,2.404975653,10.2028904,0.053958651,-0.026379786,0.038370594,15,40,-20,-22,53
4,1693677739427699000,-0.111330383,2.404975653,10.20169353,0.053692192,-0.026379786,0.038237367,18,41,-19,-24,55
0,1693677739439687700,-0.112527482,2.408566952,10.20528507,0.053958651,-0.026513018,0.037837673,17,41,-21,-20,54
1,1693677739440687700,-0.112527482,2.410961151,10.20767879,0.054091886,-0.026379786,0.037837673,15,40,-24,-17,50
2,1693677739441687700,-0.112527482,2.41335535,10.20887566,0.054091886,-0.026246555,0.03757121,20,33,-23,-23,53
3,1693677739442687700,-0.111330383,2.41335535,10.20767879,0.054225113,-0.026246555,0.037704438,19,43,-18,-23,55
4,1693677739443687700,-0.112527482,2.41455245,10.20767879,0.054091886,-0.026379786,0.037704438,20,46,-21,-17,58
0,1693677739461675900,-0.112527482,2.41455245,10.21725559,0.054624807,-0.025980091,0.037704438,15,41,-23,-18,55
1,1693677739462675900,-0.112527482,2.41335535,10.21725559,0.054624807,-0.026246555,0.03757121,16,35,-21,-20,52
2,1693677739463675900,-0.113724582,2.410961151,10.21725559,0.054624807,-0.026246555,0.03757121,20,33,-21,-16,55
3,1693677739464675900,-0.114921682,2.410961151,10.21845245,0.054624807,-0.026379786,0.037704438,17,43,-17,-19,55
4,1693677739465675900,-0.111330383,2.41455245,10.21725559,0.054491576,-0.026379786,0.037837673,18,48,-19,-19,55
0,1693677739477667200,-0.110133275,2.412158251,10.22683239,0.054358348,-0.026779478,0.038237367,21,36,-20,-28,52
1,1693677739478667200,-0.108936176,2.41335535,10.21965027,0.054358348,-0.02691271,0.038370594,19,43,-23,-24,49
2,1693677739479667200,-0.106541976,2.410961151,10.21845245,0.054358348,-0.02691271,0.038237367,19,39,-21,-21,54
3,1693677739480667200,-0.107739076,2.41335535,10.21965027,0.054491576,-0.02691271,0.038237367,21,40,-18,-23,56
4,1693677739481667200,-0.112527482,2.41335535,10.22443867,0.054624807,-0.02691271,0.038237367,20,47,-25,-16,53
0,1693677739510770400,-0.124498487,2.410961151,10.20408726,0.054358348,-0.027045943,0.037704438,17,36,-24,-24,49
1,1693677739511770400,-0.125695586,2.410961151,10.20408726,0.054358348,-0.027045943,0.037437979,22,43,-28,-18,53
2,1693677739512770400,-0.125695586,2.409764051,10.20408726,0.054225113,-0.027179174,0.03757121,19,39,-19,-17,55
3,1693677739513770400,-0.125695586,2.412158251,10.20408726,0.054091886,-0.027312404,0.037704438,15,46,-18,-22,55
4,1693677739514770400,-0.124498487,2.412158251,10.20767879,0.054091886,-0.027312404,0.037837673,20,35,-19,-20,55
0,1693677739591973700,-0.113724582,2.41335535,10.20169353,0.053958651,-0.02691271,0.037970904,16,39,-21,-23,52
1,1693677739592973700,-0.112527482,2.412158251,10.20049667,0.053825419,-0.02691271,0.037970904,23,39,-28,-20,53
2,1693677739593973700,-0.114921682,2.409764051,10.20408726,0.053825419,-0.027045943,0.037970904,17,45,-27,-16,55
3,1693677739594973700,-0.116118781,2.410961151,10.20528507,0.053958651,-0.027045943,0.038104136,15,36,-21,-20,55
4,1693677739595973700,-0.118512981,2.408566952,10.20767879,0.053825419,-0.027045943,0.037970904,19,35,-16,-20,44
0,1693677739658513600,-0.107739076,2.409764051,10.22324085,0.054225113,-0.026113322,0.03757121,16,44,-19,-22,54
1,1693677739659513600,-0.105344877,2.409764051,10.21845245,0.054225113,-0.026246555,0.037437979,21,43,-19,-19,54
2,1693677739660513600,-0.104147777,2.41335535,10.21965027,0.054225113,-0.026113322,0.037704438,20,39,-21,-19,55
3,1693677739661513600,-0.106541976,2.412158251,10.22204399,0.054225113,-0.026246555,0.037837673,20,47,-23,-22,54
4,1693677739662513600,-0.106541976,2.412158251,10.22084713,0.054225113,-0.026379786,0.037970904,21,37,-20,-20,54
0,1693677739714564200,-0.116118781,2.410961151,10.21127033,0.054358348,-0.025980091,0.038370594,19,43,-23,-18,52
1,1693677739715564200,-0.114921682,2.408566952,10.21246719,0.054225113,-0.025846859,0.038237367,19,46,-17,-16,55
2,1693677739716564200,-0.116118781,2.408566952,10.21965027,0.054225113,-0.026113322,0.038370594,21,37,-21,-12,39
3,1693677739717564200,-0.113724582,2.410961151,10.21965027,0.054358348,-0.026379786,0.038370594,17,36,-24,-22,54
4,1693677739718564200,-0.114921682,2.412158251,10.22204399,0.054225113,-0.026513018,0.038503829,20,36,-24,-27,52
0,1693677739795502500,-0.111330383,2.412158251,10.23042393,0.054358348,-0.026379786,0.038237367,20,40,-20,-19,53
1,1693677739796502500,-0.110133275,2.41335535,10.22683239,0.054358348,-0.026379786,0.038237367,23,47,-18,-20,55
2,1693677739797502500,-0.107739076,2.41335535,10.21965027,0.054491576,-0.026246555,0.038237367,23,41,-24,-19,55
3,1693677739798502500,-0.110133275,2.41455245,10.22204399,0.054491576,-0.026379786,0.038104136,17,39,-19,-24,55
4,1693677739799502500,-0.113724582,2.41455245,10.22443867,0.054491576,-0.026379786,0.038104136,17,39,-24,-20,53
0,1693677739858011500,-0.124498487,2.41335535,10.21007347,0.054091886,-0.026779478,0.038237367,20,39,-19,-18,55
1,1693677739859011500,-0.118512981,2.412158251,10.20767879,0.054091886,-0.026779478,0.038237367,20,42,-16,-23,58
2,1693677739860011500,-0.122104287,2.407369852,10.20887566,0.053958651,-0.02691271,0.038237367,14,46,-28,-28,52
3,1693677739861011500,-0.122104287,2.404975653,10.21246719,0.053958651,-0.026779478,0.038104136,17,39,-28,-24,53
4,1693677739862011500,-0.124498487,2.408566952,10.21965027,0.054091886,-0.02691271,0.037970904,16,31,-23,-19,53
0,1693677739918543800,-0.108936176,2.410961151,10.22204399,0.053958651,-0.026779478,0.037837673,13,45,-24,-18,55
1,1693677739919543800,-0.110133275,2.410961151,10.22443867,0.053825419,-0.026779478,0.03757121,20,34,-25,-18,54
2,1693677739920543800,-0.107739076,2.408566952,10.22802925,0.053958651,-0.026779478,0.037704438,18,33,-24,-23,60
3,1693677739921543800,-0.107739076,2.409764051,10.22563553,0.053958651,-0.026646247,0.037970904,17,39,-27,-20,51
4,1693677739922543800,-0.108936176,2.407369852,10.22683239,0.054091886,-0.026513018,0.037970904,29,46,-18,-18,54
0,1693677740025123200,-0.114921682,2.407369852,10.21246719,0.054225113,-0.026779478,0.037970904,19,40,-27,-19,54
1,1693677740026123200,-0.117315881,2.410961151,10.21127033,0.054358348,-0.026779478,0.038104136,20,35,-23,-27,55
2,1693677740027123200,-0.113724582,2.410961151,10.21007347,0.054491576,-0.027045943,0.038104136,10,47,-21,-24,49
3,1693677740028123200,-0.111330383,2.406172752,10.20887566,0.054491576,-0.027045943,0.037970904,19,42,-17,-22,52
4,1693677740029123200,-0.111330383,2.407369852,10.20767879,0.054491576,-0.027179174,0.037837673,20,43,-21,-20,55
0,1693677740067079800,-0.108936176,2.41694665,10.20528507,0.054491576,-0.027045943,0.038104136,15,39,-19,-19,50
1,1693677740068079800,-0.107739076,2.418143749,10.21007347,0.054758042,-0.027045943,0.038104136,15,39,-24,-22,52
2,1693677740069079800,-0.106541976,2.41694665,10.21007347,0.05489127,-0.02691271,0.038104136,20,39,-29,-19,55
3,1693677740070079800,-0.108936176,2.418143749,10.21366405,0.054758042,-0.02691271,0.038237367,20,45,-19,-17,50
4,1693677740071079800,-0.108936176,2.418143749,10.21486187,0.054624807,-0.027045943,0.037970904,22,42,-19,-19,55
0,1693677740125352800,-0.116118781,2.409764051,10.21845245,0.054225113,-0.027312404,0.037970904,20,39,-17,-19,54
1,1693677740126352800,-0.117315881,2.410961151,10.21845245,0.054358348,-0.027312404,0.037970904,10,36,-24,-22,50
2,1693677740127352800,-0.116118781,2.410961151,10.21845245,0.054358348,-0.027312404,0.038104136,20,46,-27,-19,55
3,1693677740128352800,-0.112527482,2.408566952,10.21605873,0.054491576,-0.027312404,0.038104136,20,35,-19,-19,55
4,1693677740129352800,-0.111330383,2.403778553,10.21246719,0.054358348,-0.027179174,0.037970904,20,43,-25,-19,54
0,1693677740217018500,-0.116118781,2.41335535,10.21605873,0.054358348,-0.02691271,0.037970904,17,32,-22,-28,54
1,1693677740218018500,-0.117315881,2.41335535,10.22084713,0.054091886,-0.027045943,0.038104136,19,41,-20,-20,54
2,1693677740219018500,-0.117315881,2.41335535,10.22204399,0.054091886,-0.02691271,0.037837673,11,41,-22,-22,54
3,1693677740220018500,-0.117315881,2.41694665,10.22204399,0.054091886,-0.02691271,0.037970904,20,43,-25,-17,55
4,1693677740221018500,-0.118512981,2.41694665,10.22324085,0.054225113,-0.026779478,0.037970904,19,39,-24,-20,54
0,1693677740277479500,-0.112527482,2.41694665,10.22922707,0.054358348,-0.026379786,0.038104136,19,36,-23,-22,48
1,1693677740278479500,-0.110133275,2.418143749,10.22683239,0.054225113,-0.026246555,0.038104136,18,31,-20,-16,55
2,1693677740279479500,-0.108936176,2.41574955,10.22324085,0.054091886,-0.026379786,0.038104136,20,36,-17,-24,57
3,1693677740280479500,-0.106541976,2.41335535,10.22563553,0.054091886,-0.026513018,0.038104136,20,37,-20,-18,55
4,1693677740281479500,-0.105344877,2.41335535,10.22922707,0.054091886,-0.026646247,0.038104136,20,44,-26,-22,50
0,1693677740347129000,-0.122104287,2.418143749,10.22084713,0.054624807,-0.026379786,0.037837673,9,39,-25,-23,52
1,1693677740348129000,-0.119710088,2.41694665,10.22204399,0.054624807,-0.026379786,0.037837673,17,44,-21,-24,56
2,1693677740349129000,-0.116118781,2.41574955,10.22443867,0.054624807,-0.026379786,0.037837673,20,43,-22,-22,58
3,1693677740350129000,-0.117315881,2.41455245,10.22084713,0.054624807,-0.026513018,0.037704438,20,42,-23,-24,54
4,1693677740351129000,-0.116118781,2.41455245,10.22324085,0.054624807,-0.026646247,0.037704438,13,39,-20,-22,52
0,1693677740419181500,-0.118512981,2.412158251,10.21246719,0.054358348,-0.026379786,0.038370594,23,41,-19,-26,55
1,1693677740420181500,-0.116118781,2.409764051,10.21366405,0.054225113,-0.026379786,0.038237367,15,33,-22,-23,50
2,1693677740421181500,-0.117315881,2.410961151,10.21486187,0.054225113,-0.026379786,0.038370594,20,39,-17,-20,55
3,1693677740422181500,-0.117315881,2.412158251,10.20887566,0.054091886,-0.026513018,0.038237367,20,39,-17,-20,53
4,1693677740423181500,-0.117315881,2.412158251,10.21007347,0.054225113,-0.026379786,0.038237367,13,35,-14,-23,54
0,1693677740485162100,-0.106541976,2.412158251,10.22922707,0.054091886,-0.026779478,0.038104136,20,41,-23,-22,50
1,1693677740486162100,-0.106541976,2.41335535,10.22563553,0.054225113,-0.026779478,0.037970904,21,41,-15,-24,56
2,1693677740487162100,-0.107739076,2.41335535,10.22563553,0.054091886,-0.026779478,0.037970904,20,40,-31,-20,55
3,1693677740488162100,-0.108936176,2.41335535,10.22563553,0.054358348,-0.026779478,0.037970904,19,35,-23,-20,54
4,1693677740489162100,-0.107739076,2.410961151,10.22443867,0.054491576,-0.026646247,0.037970904,16,40,-23,-30,50
0,1693677740550445700,-0.117315881,2.409764051,10.23162079,0.054091886,-0.026513018,0.037704438,17,41,-19,-20,49
1,1693677740551445700,-0.118512981,2.410961151,10.23281765,0.054091886,-0.026779478,0.037704438,20,37,-23,-24,52
2,1693677740552445700,-0.117315881,2.409764051,10.22683239,0.053958651,-0.026779478,0.037704438,20,39,-31,-20,48
3,1693677740553445700,-0.113724582,2.410961151,10.22443867,0.053825419,-0.026779478,0.037704438,19,33,-24,-25,55
4,1693677740554445700,-0.111330383,2.412158251,10.21725559,0.053692192,-0.027045943,0.037837673,18,41,-23,-20,46
0,1693677740608498600,-0.111330383,2.406172752,10.21007347,0.054091886,-0.026379786,0.037837673,21,46,-29,-24,55
1,1693677740609498600,-0.113724582,2.406172752,10.20887566,0.054225113,-0.026379786,0.037970904,19,31,-27,-23,53
2,1693677740610498600,-0.113724582,2.408566952,10.21127033,0.054358348,-0.026513018,0.037970904,20,34,-23,-26,53
3,1693677740611498600,-0.112527482,2.412158251,10.21007347,0.054358348,-0.026513018,0.038104136,17,39,-22,-24,52
4,1693677740612498600,-0.108936176,2.412158251,10.21007347,0.054225113,-0.026379786,0.038104136,20,31,-23,-24,54
0,1693677740668160100,-0.099359371,2.409764051,10.21127033,0.054624807,-0.026513018,0.037970904,20,40,-19,-16,55
1,1693677740669160100,-0.10055647,2.408566952,10.21486187,0.054491576,-0.026513018,0.037970904,17,43,-23,-24,52
2,1693677740670160100,-0.105344877,2.408566952,10.21605873,0.054491576,-0.026513018,0.037970904,16,43,-28,-26,51
3,1693677740671160100,-0.106541976,2.408566952,10.21845245,0.054358348,-0.026513018,0.037970904,19,39,-19,-21,52
4,1693677740672160100,-0.108936176,2.410961151,10.21605873,0.054491576,-0.026513018,0.038104136,20,39,-13,-22,55
0,1693677740757447400,-0.119710088,2.402581453,10.21845245,0.054491576,-0.026646247,0.037970904,19,38,-25,-19,56
1,1693677740758447400,-0.119710088,2.400187254,10.22683239,0.054358348,-0.026379786,0.037970904,18,35,-23,-19,54
2,1693677740759447400,-0.119710088,2.398990154,10.23042393,0.054358348,-0.026379786,0.037970904,20,46,-23,-23,53
3,1693677740760447400,-0.120907187,2.397793055,10.23640919,0.054225113,-0.026246555,0.037970904,17,39,-21,-23,55
4,1693677740761447400,-0.124498487,2.401384354,10.23760605,0.054358348,-0.026513018,0.037837673,20,43,-16,-14,55
0,1693677740819221200,-0.120907187,2.412158251,10.21725559,0.054358348,-0.026646247,0.03757121,19,33,-23,-20,52
1,1693677740820221200,-0.120907187,2.412158251,10.22084713,0.054225113,-0.026646247,0.03757121,17,35,-25,-23,55
2,1693677740821221200,-0.119710088,2.41335535,10.21845245,0.054358348,-0.026513018,0.03757121,17,33,-19,-22,48
3,1693677740822221200,-0.118512981,2.410961151,10.21486187,0.054225113,-0.026779478,0.03757121,17,45,-22,-25,53
4,1693677740823221200,-0.117315881,2.408566952,10.21127033,0.054225113,-0.026779478,0.03757121,22,43,-18,-19,54
0,1693677740877114600,-0.118512981,2.407369852,10.22204399,0.054358348,-0.02691271,0.037970904,17,49,-25,-24,53
1,1693677740878114600,-0.119710088,2.408566952,10.21965027,0.054491576,-0.02691271,0.038104136,19,42,-23,-27,55
2,1693677740879114600,-0.119710088,2.409764051,10.21725559,0.054491576,-0.02691271,0.038237367,20,45,-18,-20,50
3,1693677740880114600,-0.117315881,2.410961151,10.21366405,0.054758042,-0.027045943,0.038104136,19,45,-21,-18,55
4,1693677740881114600,-0.113724582,2.41335535,10.21605873,0.054758042,-0.026779478,0.037970904,15,44,-18,-24,58
0,1693677740956244200,-0.111330383,2.421735048,10.21725559,0.053825419,-0.026646247,0.037970904,11,35,-27,-26,55
1,1693677740957244200,-0.111330383,2.420537949,10.21845245,0.053825419,-0.026513018,0.038104136,21,34,-25,-23,51
2,1693677740958244200,-0.111330383,2.420537949,10.21605873,0.054091886,-0.026379786,0.037970904,17,43,-22,-21,54
3,1693677740959244200,-0.110133275,2.418143749,10.20887566,0.054091886,-0.026246555,0.038104136,20,41,-21,-19,55
4,1693677740960244200,-0.106541976,2.419340849,10.20528507,0.054091886,-0.026246555,0.038237367,18,40,-21,-20,50
