timestamp,left_data_Ac_X,left_data_Ac_Y,left_data_Ac_Z,left_data_Gy_X,left_data_Gy_Y,left_data_Gy_Z,left_data_flex_1,left_data_flex_2,left_data_flex_3,left_data_flex_4,left_data_flex_5,right_data_Ac_X,right_data_Ac_Y,right_data_Ac_Z,right_data_Gy_X,right_data_Gy_Y,right_data_Gy_Z,right_data_flex_1,right_data_flex_2,right_data_flex_3,right_data_flex_4,right_data_flex_5
1693678368042399000,1.019929886,-0.870292306,10.22683239,-0.06008729,0.000532925,-0.007860643,-27,41,85,8,-11,-0.112527482,2.425326347,10.22084713,0.052759573,-0.02797856,0.038503829,13,36,-24,-24,38
1693678368043399000,1.019929886,-0.870292306,10.23042393,-0.059954058,0.000399694,-0.007860643,-22,39,84,7,-7,-0.108936176,2.425326347,10.21725559,0.052759573,-0.027845331,0.038503829,8,33,-34,-23,50
1693678368044399000,1.019929886,-0.866701007,10.23042393,-0.059820827,0.000399694,-0.007727412,-17,45,87,11,-5,-0.108936176,2.425326347,10.22204399,0.052626338,-0.02797856,0.038503829,19,36,-25,-27,48
1693678368045399000,1.021126986,-0.866701007,10.23042393,-0.059820827,0.000399694,-0.007727412,-20,45,90,0,-8,-0.107739076,2.424129248,10.22563553,0.052759573,-0.027845331,0.038503829,16,41,-27,-28,52
1693678368046399000,1.019929886,-0.869095206,10.23162079,-0.059820827,0.000399694,-0.007727412,-28,37,79,6,-2,-0.106541976,2.424129248,10.22563553,0.052626338,-0.027845331,0.038637057,13,30,-25,-28,54
1693678368137344900,1.029506683,-0.867898107,10.22084713,-0.059820827,0.000666156,-0.007460949,-36,34,77,4,-9,-0.105344877,2.428917646,10.24478912,0.0528928,-0.028378254,0.038503829,15,31,-31,-30,45
1693678368138344900,1.027112484,-0.866701007,10.22563553,-0.059820827,0.000666156,-0.007460949,-24,43,86,8,-10,-0.106541976,2.426523447,10.24000072,0.052626338,-0.028111791,0.038237367,20,36,-28,-24,50
1693678368139344900,1.027112484,-0.867898107,10.23162079,-0.059820827,0.000799387,-0.007460949,-23,57,85,10,-11,-0.113724582,2.426523447,10.23162079,0.05249311,-0.027845331,0.038237367,21,35,-28,-23,49
1693678368140344900,1.025915384,-0.866701007,10.23281765,-0.059687596,0.000799387,-0.007327718,-26,41,81,6,-9,-0.116118781,2.425326347,10.23042393,0.052359879,-0.027445635,0.037970904,15,36,-20,-17,54
1693678368141344900,1.025915384,-0.861912608,10.23162079,-0.059687596,0.000666156,-0.007327718,-24,35,84,7,-9,-0.113724582,2.420537949,10.22922707,0.052359879,-0.027312404,0.037970904,20,37,-25,-22,48
1693678368191313900,1.022324085,-0.851138711,10.22084713,-0.060220521,0.001199081,-0.007194487,-32,41,85,12,-11,-0.107739076,2.41694665,10.22922707,0.05249311,-0.028378254,0.038637057,14,37,-25,-25,45
1693678368192313900,1.023521185,-0.851138711,10.21845245,-0.060353752,0.001199081,-0.007327718,-24,39,85,7,-3,-0.107739076,2.420537949,10.23042393,0.05249311,-0.028511487,0.038503829,19,41,-24,-26,50
1693678368193313900,1.024718285,-0.852335811,10.21965027,-0.060353752,0.00106585,-0.007327718,-33,47,88,13,-6,-0.106541976,2.422932148,10.23042393,0.052626338,-0.028511487,0.038370594,6,31,-21,-19,53
1693678368194313900,1.023521185,-0.852335811,10.22084713,-0.060353752,0.00106585,-0.007194487,-24,47,77,13,-11,-0.106541976,2.426523447,10.22683239,0.05249311,-0.028111791,0.038237367,19,36,-29,-30,54
1693678368195313900,1.025915384,-0.85353291,10.22204399,-0.060353752,0.00106585,-0.007194487,-32,37,83,7,-11,-0.107739076,2.426523447,10.22922707,0.052359879,-0.027845331,0.038370594,11,33,-22,-27,39
1693678368236291100,1.021126986,-0.863109708,10.22683239,-0.060486984,0.000666156,-0.007727412,-20,35,84,10,-9,-0.107739076,2.425326347,10.22922707,0.052359879,-0.027845331,0.038104136,18,31,-29,-29,50
1693678368237291100,1.018732786,-0.866701007,10.22802925,-0.060486984,0.000799387,-0.007860643,-23,46,87,12,-4,-0.106541976,2.424129248,10.22922707,0.052359879,-0.02797856,0.038237367,14,34,-28,-22,50
1693678368238291100,1.019929886,-0.869095206,10.22443867,-0.060486984,0.000799387,-0.007727412,-22,43,89,12,-9,-0.104147777,2.424129248,10.23042393,0.05249311,-0.027845331,0.038370594,17,41,-25,-20,54
1693678368239291100,1.022324085,-0.866701007,10.22324085,-0.060486984,0.000799387,-0.007727412,-31,41,82,10,-11,-0.104147777,2.422932148,10.23042393,0.052759573,-0.027578866,0.038370594,17,31,-23,-21,50
1693678368240291100,1.021126986,-0.865503907,10.22204399,-0.060220521,0.000932619,-0.007727412,-26,33,79,11,-12,-0.104147777,2.421735048,10.23281765,0.052626338,-0.027578866,0.038370594,20,30,-25,-24,45
1693678368291259100,1.015141487,-0.85592711,10.23880386,-0.06008729,0.00106585,-0.007594181,-28,41,81,8,-9,-0.116118781,2.41694665,10.24119759,0.0528928,-0.028111791,0.037970904,9,37,-25,-25,54
1693678368292259100,1.016338587,-0.858321309,10.23640919,-0.06008729,0.000932619,-0.007594181,-21,34,85,8,-9,-0.116118781,2.41694665,10.24119759,0.0528928,-0.028111791,0.038104136,19,35,-21,-23,54
1693678368293259100,1.017535686,-0.861912608,10.23401546,-0.06008729,0.000799387,-0.007460949,-28,35,86,10,-9,-0.116118781,2.418143749,10.24239445,0.0528928,-0.028245023,0.038237367,14,32,-22,-27,52
1693678368294259100,1.018732786,-0.863109708,10.23521233,-0.06008729,0.000666156,-0.007460949,-27,41,85,6,-15,-0.117315881,2.418143749,10.23640919,0.0528928,-0.02797856,0.038237367,13,37,-32,-28,48
1693678368295259100,1.016338587,-0.863109708,10.23640919,-0.06008729,0.000532925,-0.007327718,-30,38,80,4,-12,-0.118512981,2.422932148,10.23521233,0.053026035,-0.027845331,0.038237367,7,32,-24,-32,42
1693678368353621900,1.022324085,-0.860715508,10.24359226,-0.060353752,0.000532925,-0.007594181,-33,44,90,2,-8,-0.119710088,2.41574955,10.22443867,0.053159267,-0.027578866,0.038503829,20,32,-23,-22,51
1693678368354621900,1.022324085,-0.859518409,10.24838066,-0.060353752,0.000532925,-0.007327718,-23,34,88,10,-13,-0.117315881,2.41574955,10.22084713,0.053026035,-0.027578866,0.038503829,20,39,-16,-17,53
1693678368355621900,1.024718285,-0.858321309,10.24478912,-0.06008729,0.000666156,-0.007460949,-30,45,83,8,-13,-0.119710088,2.41574955,10.22204399,0.053026035,-0.027712099,0.038370594,11,40,-28,-27,44
1693678368356621900,1.028309584,-0.863109708,10.24598598,-0.060220521,0.000532925,-0.007460949,-27,44,83,8,-12,-0.124498487,2.41574955,10.22683239,0.052759573,-0.027845331,0.038370594,9,37,-28,-26,50
1693678368357621900,1.027112484,-0.863109708,10.24359226,-0.060353752,0.000532925,-0.007327718,-28,41,75,8,-9,-0.123301387,2.41455245,10.22563553,0.052626338,-0.027845331,0.038370594,14,31,-21,-30,48
1693678368407591000,1.013944387,-0.863109708,10.24119759,-0.060486984,0.000666156,-0.007460949,-20,41,87,9,-12,-0.114921682,2.421735048,10.23521233,0.052759573,-0.027845331,0.038237367,19,42,-25,-19,52
1693678368408591000,1.013944387,-0.864306808,10.23880386,-0.060486984,0.000799387,-0.007327718,-18,53,91,13,-9,-0.117315881,2.422932148,10.23401546,0.052626338,-0.027712099,0.038237367,19,41,-23,-20,53
1693678368409591000,1.015141487,-0.866701007,10.24359226,-0.060486984,0.000799387,-0.007460949,-24,43,88,7,-12,-0.116118781,2.426523447,10.23521233,0.052626338,-0.027712099,0.038237367,17,30,-25,-20,52
1693678368410591000,1.017535686,-0.866701007,10.24119759,-0.060486984,0.000932619,-0.007327718,-34,37,78,6,-13,-0.113724582,2.424129248,10.23042393,0.052626338,-0.027712099,0.037970904,13,39,-23,-24,49
1693678368411591000,1.016338587,-0.866701007,10.24239445,-0.060486984,0.000932619,-0.007327718,-20,43,84,6,-8,-0.112527482,2.422932148,10.22563553,0.05249311,-0.027578866,0.038104136,19,41,-26,-20,50
1693678368477552400,1.012747288,-0.858321309,10.23760605,-0.06008729,0.000932619,-0.007993874,-28,39,84,8,-6,-0.112527482,2.418143749,10.23042393,0.052626338,-0.028245023,0.038237367,21,37,-23,-18,50
1693678368478552400,1.012747288,-0.857124209,10.23401546,-0.06008729,0.000799387,-0.007993874,-22,38,83,10,-9,-0.111330383,2.420537949,10.23401546,0.052759573,-0.02797856,0.038370594,21,40,-25,-23,49
1693678368479552400,1.017535686,-0.85592711,10.23162079,-0.06008729,0.000799387,-0.007860643,-28,39,85,7,-11,-0.112527482,2.420537949,10.23162079,0.052626338,-0.02797856,0.038237367,9,35,-25,-24,49
1693678368480552400,1.018732786,-0.85592711,10.23042393,-0.059954058,0.000932619,-0.007860643,-26,39,77,7,-15,-0.111330383,2.419340849,10.23521233,0.052626338,-0.028111791,0.038237367,10,30,-27,-30,48
1693678368481552400,1.016338587,-0.861912608,10.22802925,-0.059954058,0.000932619,-0.007594181,-33,37,84,10,-11,-0.116118781,2.420537949,10.23640919,0.052759573,-0.027845331,0.038237367,18,32,-23,-22,50
1693678368534520200,1.023521185,-0.858321309,10.22324085,-0.059954058,0.001465544,-0.007993874,-24,43,83,12,-7,-0.124498487,2.421735048,10.23281765,0.05249311,-0.027312404,0.038104136,16,39,-23,-27,53
1693678368535520200,1.023521185,-0.859518409,10.22683239,-0.059820827,0.001598775,-0.007993874,-24,41,80,8,-12,-0.124498487,2.421735048,10.23401546,0.052626338,-0.027312404,0.038104136,17,37,-29,-24,48
1693678368536520200,1.022324085,-0.857124209,10.22922707,-0.059820827,0.001332312,-0.007993874,-22,41,81,6,-7,-0.124498487,2.420537949,10.23162079,0.052759573,-0.027312404,0.038104136,10,29,-26,-23,49
1693678368537520200,1.025915384,-0.859518409,10.23042393,-0.059820827,0.001332312,-0.008127105,-22,39,87,6,-15,-0.123301387,2.421735048,10.23162079,0.052759573,-0.027312404,0.037970904,15,37,-30,-33,52
1693678368538520200,1.029506683,-0.860715508,10.22922707,-0.059820827,0.001199081,-0.008260337,-24,46,84,12,-7,-0.123301387,2.421735048,10.23162079,0.052626338,-0.027179174,0.038104136,21,30,-28,-20,50
1693678368602479500,1.019929886,-0.864306808,10.22324085,-0.059954058,0.000799387,-0.007860643,-15,41,87,2,-11,-0.126892686,2.424129248,10.22204399,0.05249311,-0.027578866,0.038237367,14,35,-23,-20,52
1693678368603479500,1.018732786,-0.864306808,10.22204399,-0.059954058,0.000799387,-0.007727412,-29,42,79,12,-12,-0.125695586,2.428917646,10.21845245,0.052359879,-0.027712099,0.038237367,14,33,-25,-24,48
1693678368604479500,1.013944387,-0.860715508,10.21605873,-0.059820827,0.000799387,-0.007594181,-33,37,77,8,-13,-0.120907187,2.431311846,10.21965027,0.052359879,-0.027578866,0.038237367,17,32,-24,-20,39
1693678368605479500,1.013944387,-0.860715508,10.21725559,-0.059820827,0.000799387,-0.007594181,-28,37,83,6,-13,-0.116118781,2.431311846,10.22324085,0.052359879,-0.027712099,0.038104136,15,37,-27,-18,50
1693678368606479500,1.017535686,-0.861912608,10.21845245,-0.059954058,0.000932619,-0.007594181,-28,41,85,6,-15,-0.114921682,2.430114746,10.22443867,0.05249311,-0.027712099,0.038104136,15,39,-25,-23,52
1693678368667442700,1.010353088,-0.85473001,10.23281765,-0.060220521,0.000532925,-0.007993874,-12,39,86,10,-11,-0.110133275,2.426523447,10.22324085,0.052226644,-0.028111791,0.038104136,17,37,-24,-22,48
1693678368668442700,1.013944387,-0.857124209,10.23162079,-0.060220521,0.000666156,-0.008127105,-22,41,80,7,-11,-0.111330383,2.427720547,10.22563553,0.052226644,-0.028111791,0.038104136,10,33,-28,-32,54
1693678368669442700,1.016338587,-0.859518409,10.23162079,-0.060220521,0.000666156,-0.007860643,-26,39,74,6,-8,-0.111330383,2.425326347,10.22683239,0.052226644,-0.028245023,0.037970904,17,34,-28,-24,50
1693678368670442700,1.016338587,-0.858321309,10.23162079,-0.06008729,0.000666156,-0.007993874,-20,49,83,11,-15,-0.111330383,2.426523447,10.23042393,0.052359879,-0.02797856,0.037970904,21,33,-28,-21,52
1693678368671442700,1.018732786,-0.858321309,10.22922707,-0.060220521,0.000532925,-0.008127105,-32,41,87,7,-12,-0.108936176,2.427720547,10.22683239,0.052359879,-0.02797856,0.037837673,19,40,-21,-23,52
1693678368743410800,1.018732786,-0.85473001,10.21486187,-0.06008729,0.00106585,-0.008127105,-27,41,78,3,-12,-0.111330383,2.418143749,10.21965027,0.05249311,-0.027712099,0.038370594,18,30,-23,-30,49
1693678368744410800,1.021126986,-0.851138711,10.21486187,-0.059954058,0.00106585,-0.007860643,-26,36,80,2,-12,-0.113724582,2.420537949,10.21725559,0.052359879,-0.027712099,0.038370594,14,36,-28,-18,47
1693678368745410800,1.019929886,-0.852335811,10.21605873,-0.059820827,0.00106585,-0.007860643,-33,34,78,-6,-15,-0.112527482,2.424129248,10.22084713,0.052359879,-0.027712099,0.038370594,17,39,-23,-27,50
1693678368746410800,1.023521185,-0.85353291,10.22204399,-0.059954058,0.00106585,-0.007727412,-32,43,80,10,-11,-0.113724582,2.426523447,10.21965027,0.05249311,-0.027578866,0.038503829,20,40,-20,-20,46
1693678368747410800,1.023521185,-0.85353291,10.22324085,-0.059954058,0.000932619,-0.007727412,-22,42,87,6,-11,-0.111330383,2.427720547,10.21965027,0.05249311,-0.027712099,0.038503829,29,32,-21,-27,48
1693678368821355900,1.018732786,-0.858321309,10.22802925,-0.06008729,0.000799387,-0.007460949,-27,43,85,6,-8,-0.120907187,2.426523447,10.23640919,0.052359879,-0.028111791,0.038104136,13,32,-23,-28,49
1693678368822355900,1.021126986,-0.858321309,10.22683239,-0.06008729,0.000799387,-0.007594181,-28,33,80,7,-11,-0.124498487,2.426523447,10.23521233,0.052359879,-0.02797856,0.038237367,13,44,-21,-26,50
1693678368823355900,1.021126986,-0.861912608,10.22324085,-0.059954058,0.000932619,-0.007460949,-23,46,81,7,-9,-0.124498487,2.421735048,10.23401546,0.05249311,-0.027845331,0.038237367,18,39,-25,-24,50
1693678368824355900,1.023521185,-0.861912608,10.22324085,-0.059820827,0.000799387,-0.007460949,-23,43,79,9,-12,-0.125695586,2.421735048,10.22802925,0.052626338,-0.028111791,0.038370594,17,37,-20,-21,52
1693678368825355900,1.025915384,-0.860715508,10.22204399,-0.059954058,0.000799387,-0.007460949,-23,52,83,10,-14,-0.129286885,2.420537949,10.22443867,0.052759573,-0.02797856,0.038370594,14,37,-23,-26,48
1693678368885317400,1.022324085,-0.863109708,10.24000072,-0.059954058,0.000799387,-0.007460949,-32,44,77,10,-12,-0.107739076,2.41694665,10.23281765,0.052759573,-0.028111791,0.038237367,10,35,-24,-23,48
1693678368886317400,1.022324085,-0.866701007,10.23760605,-0.059820827,0.000932619,-0.007460949,-32,37,82,6,-15,-0.110133275,2.41694665,10.22802925,0.0528928,-0.028245023,0.038237367,7,30,-23,-22,53
1693678368887317400,1.022324085,-0.864306808,10.23640919,-0.059687596,0.000799387,-0.007460949,-28,46,85,7,-11,-0.110133275,2.41694665,10.22802925,0.053159267,-0.028245023,0.038237367,20,33,-27,-19,55
1693678368888317400,1.021126986,-0.861912608,10.23880386,-0.059820827,0.000932619,-0.007594181,-22,47,85,6,-15,-0.111330383,2.41574955,10.23281765,0.053026035,-0.028245023,0.038503829,22,39,-17,-23,52
1693678368889317400,1.018732786,-0.863109708,10.24000072,-0.059687596,0.000799387,-0.007594181,-24,41,84,11,-8,-0.112527482,2.419340849,10.23401546,0.053159267,-0.028245023,0.038637057,16,31,-29,-31,51
1693678368960274700,1.011550188,-0.866701007,10.24239445,-0.059421133,0.001199081,-0.007594181,-30,46,83,6,-12,-0.116118781,2.427720547,10.21845245,0.052759573,-0.028111791,0.038237367,18,36,-25,-24,51
1693678368961274700,1.009155989,-0.865503907,10.23880386,-0.059421133,0.001199081,-0.007727412,-27,34,83,8,-13,-0.118512981,2.425326347,10.22324085,0.052626338,-0.027712099,0.038237367,18,33,-17,-20,52
1693678368962274700,1.010353088,-0.866701007,10.23760605,-0.059421133,0.001332312,-0.007727412,-23,47,85,0,-13,-0.117315881,2.422932148,10.22563553,0.05249311,-0.027845331,0.038370594,18,45,-20,-19,55
1693678368963274700,1.009155989,-0.865503907,10.23640919,-0.059554365,0.001332312,-0.007594181,-24,47,88,13,-9,-0.117315881,2.425326347,10.22324085,0.05249311,-0.027845331,0.038104136,14,35,-25,-20,55
1693678368964274700,1.012747288,-0.865503907,10.23042393,-0.059687596,0.001598775,-0.007993874,-32,38,84,8,-15,-0.119710088,2.421735048,10.22324085,0.052626338,-0.027845331,0.038104136,20,37,-22,-20,44
1693678369033684500,1.013944387,-0.864306808,10.24718285,-0.059820827,0.000932619,-0.007993874,-26,35,79,8,-11,-0.116118781,2.41574955,10.23521233,0.05249311,-0.02691271,0.038237367,18,37,-17,-22,52
1693678369034684500,1.015141487,-0.864306808,10.24239445,-0.059687596,0.000932619,-0.007993874,-20,41,87,2,-20,-0.113724582,2.41694665,10.23281765,0.052359879,-0.02691271,0.038237367,20,45,-21,-18,54
1693678369035684500,1.016338587,-0.864306808,10.23640919,-0.059687596,0.000932619,-0.007993874,-26,38,83,12,-8,-0.113724582,2.420537949,10.23042393,0.052359879,-0.027312404,0.038370594,19,33,-21,-21,50
1693678369036684500,1.017535686,-0.861912608,10.23401546,-0.059687596,0.000932619,-0.007860643,-24,44,83,-1,-12,-0.111330383,2.421735048,10.23401546,0.052359879,-0.027578866,0.038503829,19,30,-17,-24,49
1693678369037684500,1.016338587,-0.861912608,10.23521233,-0.059820827,0.000932619,-0.007860643,-24,35,83,3,30,-0.111330383,2.421735048,10.23281765,0.05249311,-0.027578866,0.038503829,9,36,-24,-24,53
1693678369125701000,1.023521185,-0.863109708,10.22443867,-0.06008729,0.001199081,-0.007594181,-12,29,78,6,-14,-0.110133275,2.420537949,10.23042393,0.0528928,-0.027179174,0.038770292,7,41,-27,-24,53
1693678369126701000,1.024718285,-0.860715508,10.21965027,-0.059954058,0.00106585,-0.007460949,-26,37,86,8,-12,-0.112527482,2.421735048,10.22922707,0.0528928,-0.027179174,0.038903523,20,49,-17,-22,52
1693678369127701000,1.025915384,-0.863109708,10.21845245,-0.059954058,0.000932619,-0.007460949,-26,38,80,7,-12,-0.111330383,2.424129248,10.22443867,0.0528928,-0.027045943,0.038903523,18,33,-24,-22,50
1693678369128701000,1.027112484,-0.863109708,10.22084713,-0.059954058,0.000932619,-0.007460949,-23,45,85,12,-13,-0.113724582,2.421735048,10.22443867,0.052759573,-0.027312404,0.038770292,15,36,-26,-22,51
1693678369129701000,1.023521185,-0.867898107,10.22324085,-0.059820827,0.00106585,-0.007460949,-31,38,85,7,-17,-0.110133275,2.420537949,10.23042393,0.052759573,-0.027578866,0.038637057,15,31,-23,-26,53
1693678369252627700,1.019929886,-0.863109708,10.23401546,-0.059421133,0.000666156,-0.007194487,-33,45,76,6,-21,-0.107739076,2.420537949,10.24478912,0.0528928,-0.027845331,0.038104136,18,43,-19,-24,53
1693678369253627700,1.019929886,-0.861912608,10.23281765,-0.059421133,0.000799387,-0.007327718,-26,41,85,10,-9,-0.111330383,2.419340849,10.24478912,0.0528928,-0.02797856,0.037837673,13,39,-21,-18,51
1693678369254627700,1.022324085,-0.864306808,10.23042393,-0.059421133,0.000666156,-0.007327718,-23,41,89,12,-9,-0.113724582,2.420537949,10.24838066,0.0528928,-0.02797856,0.037704438,20,36,-24,-22,52
1693678369255627700,1.023521185,-0.860715508,10.23162079,-0.059554365,0.000666156,-0.007594181,-49,35,89,6,-14,-0.110133275,2.419340849,10.24718285,0.0528928,-0.028111791,0.037704438,15,28,-28,-26,49
1693678369256627700,1.021126986,-0.858321309,10.22563553,-0.059421133,0.000532925,-0.007460949,-30,37,80,10,-11,-0.108936176,2.419340849,10.24119759,0.052626338,-0.02797856,0.037837673,14,33,-24,-19,49
1693678369397545400,1.018732786,-0.864306808,10.22324085,-0.059820827,0.000932619,-0.007327718,-26,36,83,10,-8,-0.108936176,2.421735048,10.22443867,0.05249311,-0.027845331,0.037970904,15,43,-24,-22,55
1693678369398545400,1.016338587,-0.866701007,10.22802925,-0.059820827,0.00106585,-0.007460949,-27,41,79,8,-12,-0.111330383,2.420537949,10.22802925,0.05249311,-0.02797856,0.038104136,18,32,-23,-22,51
1693678369399545400,1.017535686,-0.864306808,10.22802925,-0.059820827,0.000932619,-0.007460949,-23,43,85,10,-13,-0.114921682,2.421735048,10.23162079,0.05249311,-0.028111791,0.037970904,18,36,-21,-24,46
1693678369400545400,1.016338587,-0.865503907,10.23401546,-0.059687596,0.000932619,-0.007327718,-28,45,89,6,-13,-0.112527482,2.419340849,10.22683239,0.05249311,-0.02797856,0.037970904,15,31,-32,-27,48
1693678369401545400,1.016338587,-0.863109708,10.23162079,-0.059820827,0.00106585,-0.007460949,-29,35,81,9,-11,-0.110133275,2.418143749,10.22802925,0.052759573,-0.028111791,0.037970904,15,33,-23,-26,49
1693678369467608200,1.021126986,-0.870292306,10.22563553,-0.060220521,0.00106585,-0.007594181,-27,37,84,13,-11,-0.108936176,2.422932148,10.22683239,0.052626338,-0.027179174,0.038237367,15,35,-23,-24,52
1693678369468608200,1.017535686,-0.870292306,10.22922707,-0.060220521,0.00106585,-0.007460949,-24,35,83,10,-8,-0.106541976,2.424129248,10.22802925,0.05249311,-0.027179174,0.038237367,20,40,-24,-24,53
1693678369469608200,1.015141487,-0.870292306,10.23281765,-0.06008729,0.000799387,-0.007460949,-28,36,79,9,-13,-0.106541976,2.425326347,10.22922707,0.05249311,-0.027445635,0.038370594,20,36,-21,-24,50
1693678369470608200,1.019929886,-0.869095206,10.23640919,-0.060353752,0.000799387,-0.007327718,-32,39,79,6,-13,-0.106541976,2.425326347,10.23042393,0.052626338,-0.027312404,0.038370594,13,39,-29,-22,49
1693678369471608200,1.018732786,-0.867898107,10.22802925,-0.060353752,0.000799387,-0.007460949,-17,37,76,10,-13,-0.10295067,2.422932148,10.22563553,0.052759573,-0.027179174,0.038370594,20,35,-25,-34,52
1693678369538567800,1.033097982,-0.859518409,10.24359226,-0.059687596,0.000799387,-0.007327718,-24,39,85,10,-13,-0.113724582,2.430114746,10.22563553,0.05249311,-0.028511487,0.038770292,16,46,-24,-28,33
1693678369539567800,1.031900883,-0.861912608,10.24718285,-0.059554365,0.000932619,-0.007194487,-24,44,84,8,-5,-0.114921682,2.432508945,10.22324085,0.053026035,-0.029310873,0.038503829,17,32,-24,-14,49
1693678369540567800,1.031900883,-0.860715508,10.24478912,-0.059687596,0.000666156,-0.007194487,-24,42,81,12,-9,-0.114921682,2.432508945,10.22683239,0.053558957,-0.029710567,0.038370594,18,36,-23,-31,50
1693678369541567800,1.028309584,-0.859518409,10.24598598,-0.059687596,0.000532925,-0.007194487,-30,34,78,1,-13,-0.111330383,2.430114746,10.23401546,0.053159267,-0.029444104,0.038637057,10,34,-24,-28,52
1693678369542567800,1.025915384,-0.860715508,10.24718285,-0.059421133,0.000666156,-0.007194487,-23,38,83,7,-14,-0.111330383,2.427720547,10.23760605,0.05249311,-0.028644716,0.038637057,25,33,-19,-19,52
1693678369610524700,1.022324085,-0.860715508,10.23760605,-0.059954058,0.000666156,-0.007327718,-26,38,84,8,-9,-0.122104287,2.418143749,10.22563553,0.052226644,-0.026646247,0.037704438,9,36,-29,-26,52
1693678369611524700,1.017535686,-0.863109708,10.23880386,-0.059954058,0.000532925,-0.007194487,-27,39,83,10,-12,-0.120907187,2.422932148,10.21845245,0.052359879,-0.027578866,0.038104136,15,41,-28,-24,41
1693678369612524700,1.018732786,-0.864306808,10.24119759,-0.059820827,0.000399694,-0.007194487,-28,38,85,4,-16,-0.114921682,2.425326347,10.21605873,0.052626338,-0.028111791,0.038370594,14,39,-30,-20,53
1693678369613524700,1.017535686,-0.866701007,10.24239445,-0.059687596,0.000532925,-0.007327718,-29,43,80,3,-19,-0.111330383,2.426523447,10.21486187,0.053026035,-0.028245023,0.038370594,14,43,-24,-19,53
1693678369614524700,1.021126986,-0.864306808,10.24359226,-0.059687596,0.000399694,-0.007194487,-23,41,89,8,-14,-0.111330383,2.427720547,10.21486187,0.053292494,-0.028245023,0.038237367,10,37,-19,-23,52
1693678369727525500,1.013944387,-0.861912608,10.23042393,-0.060220521,0.000666156,-0.007594181,-24,41,87,11,-5,-0.116118781,2.428917646,10.21605873,0.05249311,-0.027845331,0.038637057,13,31,-28,-23,48
1693678369728525500,1.013944387,-0.863109708,10.22443867,-0.06008729,0.000666156,-0.007727412,-24,45,87,7,-12,-0.114921682,2.431311846,10.21845245,0.05249311,-0.027712099,0.038637057,14,39,-22,-21,54
1693678369729525500,1.011550188,-0.864306808,10.22563553,-0.06008729,0.000666156,-0.007860643,-30,43,84,3,-12,-0.113724582,2.431311846,10.22084713,0.05249311,-0.027445635,0.038503829,11,35,-34,-23,52
1693678369730525500,1.012747288,-0.865503907,10.23401546,-0.060220521,0.000799387,-0.007594181,-29,43,83,4,-11,-0.116118781,2.430114746,10.22324085,0.05249311,-0.027445635,0.038503829,14,31,-31,-28,52
1693678369731525500,1.013944387,-0.863109708,10.22683239,-0.060353752,0.000799387,-0.007594181,-28,43,83,10,-8,-0.119710088,2.428917646,10.22324085,0.05249311,-0.027445635,0.038503829,14,36,-21,-25,51
1693678369834466200,1.018732786,-0.864306808,10.23281765,-0.060486984,0.000799387,-0.007860643,-28,45,87,6,-12,-0.116118781,2.421735048,10.22204399,0.052759573,-0.027179174,0.038104136,20,41,-26,-28,50
1693678369835466200,1.021126986,-0.861912608,10.23640919,-0.060620211,0.000799387,-0.007860643,-28,39,84,3,-11,-0.112527482,2.421735048,10.21845245,0.0528928,-0.027045943,0.038104136,20,33,-25,-24,48
1693678369836466200,1.022324085,-0.863109708,10.23640919,-0.060753446,0.000666156,-0.007860643,-26,38,80,6,-16,-0.111330383,2.420537949,10.22324085,0.053026035,-0.027179174,0.038104136,15,44,-24,-24,54
1693678369837466200,1.021126986,-0.864306808,10.23880386,-0.060620211,0.000666156,-0.007594181,-24,43,81,5,-16,-0.110133275,2.421735048,10.22204399,0.053026035,-0.027045943,0.038104136,14,32,-25,-23,49
1693678369838466200,1.018732786,-0.859518409,10.24000072,-0.060620211,0.000799387,-0.007594181,-30,38,82,8,-12,-0.107739076,2.422932148,10.22443867,0.053159267,-0.027179174,0.038104136,20,34,-21,-24,50
1693678369908420800,1.016338587,-0.861912608,10.23042393,-0.059954058,0.000666156,-0.007194487,-24,26,79,10,-13,-0.106541976,2.420537949,10.23281765,0.052626338,-0.027845331,0.038104136,20,33,-24,-21,52
1693678369909420800,1.016338587,-0.860715508,10.22563553,-0.059954058,0.000799387,-0.007327718,-28,37,78,9,-13,-0.105344877,2.418143749,10.22922707,0.052626338,-0.027845331,0.038104136,17,46,-17,-23,55
1693678369910420800,1.016338587,-0.859518409,10.22683239,-0.06008729,0.000932619,-0.007460949,-32,39,80,8,-15,-0.105344877,2.418143749,10.23042393,0.052626338,-0.027845331,0.038104136,14,40,-29,-22,52
1693678369911420800,1.013944387,-0.859518409,10.22443867,-0.06008729,0.000932619,-0.007594181,-16,21,84,6,-12,-0.106541976,2.41455245,10.23281765,0.052759573,-0.02797856,0.038237367,11,33,-31,-21,48
1693678369912420800,1.016338587,-0.860715508,10.22443867,-0.06008729,0.00106585,-0.007594181,-24,45,84,12,-8,-0.110133275,2.41694665,10.23401546,0.052759573,-0.02797856,0.038370594,6,31,-25,-28,46
1693678369989375000,1.016338587,-0.863109708,10.24239445,-0.059820827,0.000399694,-0.007594181,-30,42,78,8,-12,-0.114921682,2.419340849,10.23281765,0.0528928,-0.027445635,0.037837673,13,35,-20,-25,50
1693678369990375000,1.018732786,-0.861912608,10.24718285,-0.059954058,0.000532925,-0.007727412,-26,37,85,10,-12,-0.114921682,2.41574955,10.23521233,0.052626338,-0.027312404,0.037970904,22,34,-27,-21,52
1693678369991375000,1.021126986,-0.864306808,10.23640919,-0.059954058,0.000932619,-0.007727412,-27,38,83,10,-15,-0.113724582,2.41694665,10.23401546,0.052359879,-0.027312404,0.038104136,20,36,-21,-24,62
1693678369992375000,1.023521185,-0.865503907,10.23880386,-0.059820827,0.001199081,-0.007727412,-28,41,83,12,-12,-0.112527482,2.418143749,10.23521233,0.052359879,-0.027712099,0.038503829,15,36,-29,-27,48
1693678369993375000,1.023521185,-0.865503907,10.22922707,-0.06008729,0.001332312,-0.007860643,-28,41,85,8,-9,-0.113724582,2.418143749,10.23640919,0.052626338,-0.028111791,0.038503829,14,35,-25,-22,50
1693678370057338200,1.021126986,-0.871489406,10.22563553,-0.060220521,0.000666156,-0.007727412,-28,33,83,6,-13,-0.113724582,2.421735048,10.22922707,0.052626338,-0.027312404,0.038237367,20,37,-21,-20,48
1693678370058338200,1.021126986,-0.871489406,10.23162079,-0.059954058,0.000799387,-0.007727412,-28,44,81,3,-17,-0.114921682,2.420537949,10.22802925,0.05249311,-0.02691271,0.037970904,20,31,-24,-27,50
1693678370059338200,1.018732786,-0.870292306,10.23042393,-0.060353752,0.00106585,-0.007594181,-26,33,86,10,-17,-0.116118781,2.41694665,10.22802925,0.052359879,-0.027045943,0.037837673,15,52,-19,-24,45
1693678370060338200,1.018732786,-0.865503907,10.22683239,-0.060353752,0.00106585,-0.007727412,-26,43,87,2,-12,-0.116118781,2.410961151,10.22443867,0.052226644,-0.027179174,0.037970904,11,29,-23,-26,45
1693678370061338200,1.017535686,-0.861912608,10.22443867,-0.060486984,0.000799387,-0.007860643,-22,42,83,2,-6,-0.120907187,2.409764051,10.22324085,0.052359879,-0.027312404,0.038237367,14,43,-27,-26,51
1693678370118477600,1.019929886,-0.85592711,10.21605873,-0.059954058,0.001332312,-0.007327718,-33,38,80,6,-16,-0.113724582,2.420537949,10.21725559,0.05249311,-0.02797856,0.038503829,21,37,-18,-22,52
1693678370119477600,1.019929886,-0.857124209,10.21965027,-0.059954058,0.001199081,-0.007327718,-28,35,79,10,-15,-0.114921682,2.418143749,10.21725559,0.052359879,-0.02797856,0.038370594,19,40,-23,-26,37
1693678370120477600,1.019929886,-0.85592711,10.21725559,-0.059954058,0.001199081,-0.007327718,-30,36,79,4,-12,-0.113724582,2.418143749,10.21965027,0.05249311,-0.027845331,0.038503829,15,39,-26,-27,50
1693678370121477600,1.017535686,-0.858321309,10.22084713,-0.059954058,0.001199081,-0.007327718,-26,35,85,9,-14,-0.113724582,2.419340849,10.21845245,0.052359879,-0.027578866,0.038503829,17,30,-29,-26,48
1693678370122477600,1.019929886,-0.857124209,10.22324085,-0.059954058,0.001332312,-0.007194487,-33,35,91,6,-11,-0.112527482,2.420537949,10.22563553,0.052093416,-0.027712099,0.038503829,21,30,-23,-22,52
1693678370175444400,1.011550188,-0.860715508,10.22324085,-0.059954058,0.001199081,-0.007061256,-26,38,80,6,-13,-0.114921682,2.412158251,10.22443867,0.053026035,-0.028245023,0.038637057,20,31,-24,-30,49
1693678370176444400,1.012747288,-0.865503907,10.21605873,-0.06008729,0.00106585,-0.006928025,-36,41,85,4,-16,-0.113724582,2.412158251,10.22443867,0.053026035,-0.028245023,0.038637057,14,36,-22,-19,40
1693678370177444400,1.016338587,-0.864306808,10.21605873,-0.06008729,0.000932619,-0.006928025,-30,39,83,8,-17,-0.114921682,2.41335535,10.22324085,0.053026035,-0.028245023,0.038637057,13,37,-21,-24,39
1693678370178444400,1.015141487,-0.864306808,10.21725559,-0.060220521,0.000932619,-0.007194487,-26,37,88,10,-9,-0.119710088,2.41574955,10.22324085,0.0528928,-0.028111791,0.038637057,10,31,-28,-24,50
1693678370179444400,1.011550188,-0.866701007,10.21845245,-0.059954058,0.000932619,-0.007194487,-23,43,85,4,-15,-0.118512981,2.41694665,10.22324085,0.0528928,-0.028245023,0.038637057,20,37,-25,-26,53
1693678370250404500,1.023521185,-0.858321309,10.23162079,-0.059954058,0.00106585,-0.007460949,-28,41,81,2,-13,-0.117315881,2.419340849,10.21486187,0.052359879,-0.027312404,0.037970904,17,34,-23,-24,70
1693678370251404500,1.025915384,-0.860715508,10.23401546,-0.059954058,0.00106585,-0.007327718,-20,41,87,7,-15,-0.116118781,2.419340849,10.21845245,0.052359879,-0.027179174,0.038237367,17,32,-26,-27,48
1693678370252404500,1.028309584,-0.860715508,10.23401546,-0.059954058,0.000932619,-0.007460949,-22,45,80,2,-11,-0.116118781,2.421735048,10.22084713,0.052359879,-0.027179174,0.038237367,17,33,-29,-19,48
1693678370253404500,1.028309584,-0.863109708,10.22922707,-0.059687596,0.00106585,-0.007460949,-33,47,85,8,-7,-0.114921682,2.421735048,10.21845245,0.052626338,-0.027445635,0.038237367,20,38,-19,-18,52
1693678370254404500,1.028309584,-0.861912608,10.23281765,-0.059687596,0.00106585,-0.007327718,-24,47,83,10,-13,-0.116118781,2.41694665,10.22204399,0.0528928,-0.027712099,0.038370594,18,37,-24,-23,51
1693678370320361900,1.018732786,-0.864306808,10.22324085,-0.059687596,0.000932619,-0.007460949,-29,34,77,3,-16,-0.104147777,2.428917646,10.22324085,0.05249311,-0.027712099,0.038104136,15,37,-27,-28,55
1693678370321361900,1.019929886,-0.865503907,10.22084713,-0.059820827,0.000932619,-0.007460949,-31,35,78,7,-17,-0.105344877,2.431311846,10.22084713,0.052359879,-0.027445635,0.038104136,16,33,-32,-27,50
1693678370322361900,1.018732786,-0.865503907,10.21486187,-0.059820827,0.000932619,-0.007594181,-28,42,86,8,-11,-0.106541976,2.430114746,10.22204399,0.052359879,-0.027179174,0.037970904,20,32,-27,-22,49
1693678370323361900,1.018732786,-0.865503907,10.21725559,-0.059687596,0.000799387,-0.007727412,-20,40,80,10,-9,-0.108936176,2.428917646,10.22324085,0.052359879,-0.027312404,0.037970904,14,37,-22,-22,50
1693678370324361900,1.019929886,-0.867898107,10.21965027,-0.059820827,0.000932619,-0.007860643,-27,42,83,10,-13,-0.112527482,2.427720547,10.22084713,0.052226644,-0.027312404,0.038104136,15,46,-23,-18,55
1693678370390322500,1.011550188,-0.865503907,10.21605873,-0.06008729,0.001199081,-0.007594181,-33,35,85,8,-14,-0.108936176,2.428917646,10.22324085,0.053026035,-0.028111791,0.038370594,11,30,-31,-26,51
1693678370391322500,1.009155989,-0.863109708,10.21845245,-0.06008729,0.001199081,-0.007727412,-30,41,79,3,-9,-0.105344877,2.427720547,10.22443867,0.0528928,-0.028111791,0.038370594,17,33,-23,-23,50
1693678370392322500,1.010353088,-0.859518409,10.22084713,-0.060220521,0.001199081,-0.007860643,-27,36,85,7,-8,-0.106541976,2.428917646,10.22324085,0.052759573,-0.028111791,0.038370594,21,43,-16,-27,51
1693678370393322500,1.011550188,-0.85592711,10.22563553,-0.060220521,0.001199081,-0.007860643,-32,38,81,3,-13,-0.110133275,2.430114746,10.22683239,0.052759573,-0.028111791,0.038370594,19,39,-19,-19,55
1693678370394322500,1.012747288,-0.85473001,10.22802925,-0.06008729,0.000932619,-0.007993874,-30,37,84,9,-13,-0.111330383,2.427720547,10.23042393,0.052626338,-0.028111791,0.038370594,17,40,-19,-22,52
1693678370455284500,1.013944387,-0.843956113,10.23640919,-0.06008729,0.001199081,-0.007594181,-31,43,84,14,-16,-0.110133275,2.422932148,10.22204399,0.0528928,-0.028644716,0.038637057,10,36,-27,-24,48
1693678370456284500,1.015141487,-0.847547412,10.23640919,-0.06008729,0.001199081,-0.007727412,-27,38,84,0,-15,-0.111330383,2.422932148,10.22563553,0.053026035,-0.028777948,0.038637057,15,30,-19,-22,54
1693678370457284500,1.011550188,-0.848744512,10.23281765,-0.06008729,0.001199081,-0.007727412,-30,37,81,12,-8,-0.106541976,2.421735048,10.22443867,0.053026035,-0.028777948,0.038903523,20,35,-21,-27,54
1693678370458284500,1.012747288,-0.849941611,10.23640919,-0.06008729,0.001199081,-0.007860643,-32,41,81,4,-12,-0.107739076,2.424129248,10.22443867,0.053159267,-0.028777948,0.038903523,20,41,-22,-23,52
1693678370459284500,1.011550188,-0.849941611,10.23281765,-0.06008729,0.00106585,-0.007727412,-27,37,81,-1,-15,-0.106541976,2.425326347,10.21965027,0.053159267,-0.028911179,0.038503829,15,30,-19,-24,50
1693678370526230900,1.029506683,-0.857124209,10.23401546,-0.060220521,0.001465544,-0.007860643,-31,38,83,3,-15,-0.120907187,2.420537949,10.23640919,0.051826954,-0.027045943,0.038637057,24,35,-21,-24,54
1693678370527230900,1.031900883,-0.859518409,10.23760605,-0.060353752,0.001332312,-0.007594181,-27,42,77,2,-12,-0.117315881,2.422932148,10.23281765,0.052093416,-0.027712099,0.038637057,17,34,-21,-26,52
1693678370528230900,1.034295082,-0.858321309,10.23760605,-0.060353752,0.001332312,-0.007594181,-26,43,80,7,-7,-0.117315881,2.425326347,10.23281765,0.052626338,-0.028245023,0.038637057,19,43,-21,-20,55
1693678370529230900,1.029506683,-0.857124209,10.23401546,-0.060220521,0.001332312,-0.007594181,-30,35,79,10,-13,-0.117315881,2.427720547,10.23760605,0.0528928,-0.028644716,0.038503829,11,35,-24,-33,50
1693678370530230900,1.029506683,-0.857124209,10.23042393,-0.060353752,0.001199081,-0.007594181,-28,43,79,0,-14,-0.116118781,2.432508945,10.23880386,0.052759573,-0.028378254,0.038370594,17,27,-20,-26,52
1693678370589195500,1.018732786,-0.852335811,10.22204399,-0.06008729,0.000932619,-0.007594181,-31,34,77,10,-9,-0.107739076,2.424129248,10.23640919,0.052226644,-0.027045943,0.038370594,18,46,-25,-22,49
1693678370590195500,1.018732786,-0.85353291,10.22204399,-0.060220521,0.000932619,-0.007727412,-28,38,80,8,-11,-0.108936176,2.421735048,10.23162079,0.052626338,-0.027445635,0.038370594,18,43,-23,-19,50
1693678370591195500,1.016338587,-0.85473001,10.22204399,-0.060220521,0.000799387,-0.007727412,-18,39,80,7,-11,-0.104147777,2.420537949,10.23162079,0.053425729,-0.027712099,0.038104136,18,43,-25,-23,48
1693678370592195500,1.012747288,-0.85473001,10.22204399,-0.06008729,0.000666156,-0.007727412,-24,35,82,8,-13,-0.107739076,2.419340849,10.23401546,0.053558957,-0.02797856,0.038237367,14,33,-27,-24,49
1693678370593195500,1.009155989,-0.85353291,10.22683239,-0.06008729,0.000666156,-0.007727412,-18,58,99,7,-12,-0.108936176,2.421735048,10.23401546,0.053292494,-0.02797856,0.038503829,13,31,-29,-27,44
1693678370651159400,1.022324085,-0.859518409,10.22443867,-0.060353752,0.001199081,-0.007194487,-30,34,85,10,-13,-0.116118781,2.408566952,10.24239445,0.052626338,-0.027045943,0.038104136,19,45,-23,-20,53
1693678370652159400,1.022324085,-0.85592711,10.22563553,-0.060353752,0.001199081,-0.007194487,-26,42,84,6,-13,-0.118512981,2.408566952,10.24718285,0.052626338,-0.027179174,0.038237367,16,39,-24,-26,55
1693678370653159400,1.022324085,-0.85473001,10.22443867,-0.060486984,0.001199081,-0.007327718,-31,35,81,4,-9,-0.119710088,2.412158251,10.24239445,0.052759573,-0.027312404,0.038370594,11,39,-23,-20,52
1693678370654159400,1.021126986,-0.857124209,10.22802925,-0.060486984,0.000932619,-0.007327718,-30,35,75,2,-13,-0.122104287,2.41574955,10.23880386,0.053026035,-0.027445635,0.038370594,17,32,-25,-22,52
1693678370655159400,1.021126986,-0.85473001,10.22443867,-0.060220521,0.000799387,-0.007194487,-31,41,83,6,-16,-0.119710088,2.419340849,10.24239445,0.0528928,-0.027845331,0.038503829,10,33,-24,-22,46
1693678370736112500,1.007958889,-0.858321309,10.23162079,-0.060353752,0.000666156,-0.007727412,-27,37,83,2,-14,-0.108936176,2.41694665,10.23880386,0.052626338,-0.027712099,0.038370594,13,40,-16,-22,51
1693678370737112500,1.010353088,-0.85592711,10.22922707,-0.060353752,0.000532925,-0.007727412,-26,50,84,10,-6,-0.110133275,2.41574955,10.23880386,0.05249311,-0.027712099,0.038503829,11,35,-22,-26,50
1693678370738112500,1.013944387,-0.857124209,10.22922707,-0.060220521,0.000399694,-0.007727412,-50,44,79,7,-13,-0.108936176,2.41574955,10.23640919,0.052359879,-0.027712099,0.038370594,16,40,-25,-20,50
1693678370739112500,1.015141487,-0.85592711,10.22802925,-0.060220521,0.000399694,-0.007727412,-30,39,76,0,-13,-0.112527482,2.41574955,10.23640919,0.052359879,-0.027712099,0.038237367,17,33,-31,-21,44
1693678370740112500,1.013944387,-0.85473001,10.23042393,-0.060220521,0.000399694,-0.007727412,-32,39,76,6,-15,-0.116118781,2.418143749,10.23281765,0.052359879,-0.02797856,0.038237367,18,33,-21,-23,55
1693678370877030200,1.025915384,-0.85473001,10.23640919,-0.059554365,0.000932619,-0.007727412,-28,41,83,4,-14,-0.106541976,2.41455245,10.23640919,0.052359879,-0.027578866,0.038104136,19,31,-25,-26,46
1693678370878030200,1.027112484,-0.85473001,10.23162079,-0.059554365,0.000932619,-0.007727412,-33,41,80,6,-15,-0.110133275,2.41574955,10.23760605,0.052359879,-0.027445635,0.037970904,19,43,-25,-23,52
1693678370879030200,1.025915384,-0.85592711,10.23401546,-0.059421133,0.000932619,-0.007860643,-24,38,79,8,-12,-0.111330383,2.420537949,10.23880386,0.052626338,-0.027445635,0.037970904,19,33,-16,-23,49
1693678370880030200,1.027112484,-0.852335811,10.23401546,-0.059421133,0.000932619,-0.007860643,-24,37,87,12,-12,-0.112527482,2.424129248,10.24000072,0.052626338,-0.027312404,0.038104136,13,31,-24,-24,52
1693678370881030200,1.029506683,-0.852335811,10.23042393,-0.059421133,0.000932619,-0.007727412,-26,43,81,2,-12,-0.110133275,2.426523447,10.24239445,0.052626338,-0.027445635,0.038104136,20,36,-30,-20,52
1693678370953495000,1.013944387,-0.857124209,10.23042393,-0.059687596,0.001199081,-0.007727412,-2,64,101,24,9,-0.117315881,2.425326347,10.23640919,0.05249311,-0.027445635,0.037704438,13,40,-25,-24,50
1693678370954495000,1.012747288,-0.858321309,10.23162079,-0.059687596,0.001332312,-0.007993874,-11,79,81,2,-17,-0.119710088,2.426523447,10.23162079,0.05249311,-0.027445635,0.037704438,19,37,-22,-20,49
1693678370955495000,1.012747288,-0.860715508,10.23281765,-0.059954058,0.001332312,-0.008127105,-30,39,80,4,0,-0.118512981,2.426523447,10.23281765,0.05249311,-0.027712099,0.037704438,20,30,-21,-18,54
1693678370956495000,1.012747288,-0.860715508,10.22204399,-0.059954058,0.001465544,-0.008260337,-2,64,105,30,11,-0.117315881,2.424129248,10.23880386,0.052359879,-0.027578866,0.03757121,14,40,-25,-20,50
1693678370957495000,1.013944387,-0.859518409,10.22084713,-0.059954058,0.001598775,-0.008260337,-1,49,99,18,7,-0.117315881,2.425326347,10.24239445,0.052226644,-0.027445635,0.037704438,14,35,-25,-24,52
1693678371013462000,1.023521185,-0.860715508,10.23162079,-0.060353752,0.000799387,-0.007460949,-2,60,99,23,7,-0.113724582,2.422932148,10.22683239,0.052626338,-0.027845331,0.037970904,20,46,-17,-22,54
1693678371014462000,1.021126986,-0.861912608,10.23760605,-0.06008729,0.000799387,-0.007460949,-2,63,99,24,13,-0.112527482,2.421735048,10.21965027,0.05249311,-0.02797856,0.037837673,18,43,-19,-20,50
1693678371015462000,1.017535686,-0.860715508,10.23521233,-0.059954058,0.00106585,-0.007460949,-7,63,100,22,-12,-0.113724582,2.424129248,10.21965027,0.052359879,-0.02797856,0.037970904,20,43,-24,-22,51
1693678371016462000,1.015141487,-0.864306808,10.23281765,-0.059954058,0.000932619,-0.007327718,-32,32,81,-2,-4,-0.113724582,2.428917646,10.21965027,0.052359879,-0.027845331,0.037970904,15,37,-20,-23,50
1693678371017462000,1.017535686,-0.866701007,10.23401546,-0.060220521,0.000932619,-0.007460949,-12,63,93,23,7,-0.114921682,2.428917646,10.22563553,0.052226644,-0.02797856,0.038104136,14,40,-23,-19,49
1693678371129395400,1.025915384,-0.861912608,10.23401546,-0.059687596,0.000799387,-0.007194487,-28,37,87,2,-12,-0.113724582,2.422932148,10.24000072,0.052626338,-0.028511487,0.03757121,15,39,-24,-20,54
1693678371130395400,1.023521185,-0.863109708,10.23760605,-0.059554365,0.000666156,-0.007327718,-26,38,81,7,-14,-0.113724582,2.424129248,10.23760605,0.05249311,-0.028378254,0.03757121,11,35,-24,-19,50
1693678371131395400,1.022324085,-0.863109708,10.24000072,-0.059687596,0.000799387,-0.007327718,-28,33,83,7,-15,-0.113724582,2.424129248,10.24000072,0.052759573,-0.028245023,0.03757121,14,34,-25,-22,49
1693678371132395400,1.023521185,-0.860715508,10.23640919,-0.059554365,0.000799387,-0.007327718,-30,43,79,3,-13,-0.118512981,2.426523447,10.24119759,0.052626338,-0.028245023,0.037704438,19,37,-27,-24,52
1693678371133395400,1.025915384,-0.860715508,10.23640919,-0.059554365,0.000666156,-0.007327718,-27,39,77,6,-13,-0.117315881,2.425326347,10.23880386,0.05249311,-0.028245023,0.037704438,20,46,-22,-28,55
1693678371205350500,1.021126986,-0.858321309,10.22683239,-0.060486984,0.000799387,-0.007194487,-24,41,90,3,-16,-0.119710088,2.424129248,10.22683239,0.052759573,-0.027578866,0.038237367,19,41,-24,-22,45
1693678371206350500,1.018732786,-0.858321309,10.22443867,-0.060353752,0.000799387,-0.007194487,-28,41,83,7,-12,-0.116118781,2.424129248,10.22802925,0.0528928,-0.027445635,0.038104136,5,39,-23,-23,53
1693678371207350500,1.018732786,-0.858321309,10.22563553,-0.060353752,0.000666156,-0.007194487,-27,36,80,3,-9,-0.114921682,2.422932148,10.23640919,0.0528928,-0.027578866,0.037837673,18,40,-24,-24,49
1693678371208350500,1.022324085,-0.858321309,10.22683239,-0.060220521,0.000799387,-0.007194487,-28,38,87,6,-13,-0.114921682,2.421735048,10.23760605,0.0528928,-0.027312404,0.037837673,20,37,-21,-22,53
1693678371209350500,1.027112484,-0.85592711,10.22443867,-0.060353752,0.000666156,-0.007194487,-31,43,79,8,-15,-0.111330383,2.420537949,10.23880386,0.0528928,-0.027445635,0.038104136,21,37,-21,-20,52
1693678371274312700,1.025915384,-0.865503907,10.22324085,-0.060220521,0.000666156,-0.007327718,-28,42,86,7,-18,-0.099359371,2.420537949,10.22324085,0.052759573,-0.028245023,0.037837673,20,30,-28,-20,52
1693678371275312700,1.025915384,-0.864306808,10.22802925,-0.060220521,0.000666156,-0.007460949,-31,37,81,7,-11,-0.10295067,2.418143749,10.22443867,0.052759573,-0.028245023,0.037837673,17,42,-29,-28,49
1693678371276312700,1.027112484,-0.865503907,10.23281765,-0.06008729,0.000666156,-0.007460949,-27,41,78,7,-13,-0.099359371,2.41694665,10.22802925,0.052626338,-0.028111791,0.037837673,9,33,-24,-21,51
1693678371277312700,1.028309584,-0.866701007,10.23401546,-0.059954058,0.000799387,-0.007460949,-27,37,79,10,-13,-0.10295067,2.41694665,10.22922707,0.052626338,-0.028245023,0.037970904,19,40,-25,-18,49
1693678371278312700,1.028309584,-0.864306808,10.23281765,-0.059954058,0.000932619,-0.007727412,-15,41,84,7,-11,-0.105344877,2.418143749,10.22683239,0.052626338,-0.028245023,0.037970904,20,46,-18,-19,52
1693678371339142300,1.021126986,-0.866701007,10.24239445,-0.059554365,0.000932619,-0.007194487,-27,33,87,8,-15,-0.118512981,2.41694665,10.23281765,0.053026035,-0.027712099,0.038104136,19,39,-23,-18,52
1693678371340142300,1.021126986,-0.869095206,10.24119759,-0.059554365,0.000932619,-0.007194487,-26,37,79,6,-12,-0.117315881,2.41694665,10.22922707,0.052759573,-0.027712099,0.038104136,17,37,-29,-16,53
1693678371341142300,1.019929886,-0.869095206,10.23640919,-0.059421133,0.000932619,-0.007327718,-30,34,83,3,-15,-0.116118781,2.418143749,10.23162079,0.052759573,-0.027845331,0.038370594,19,40,-25,-22,55
1693678371342142300,1.017535686,-0.869095206,10.23640919,-0.059421133,0.000932619,-0.007327718,-24,37,80,7,-14,-0.117315881,2.419340849,10.23042393,0.052626338,-0.027845331,0.038104136,19,41,-27,-21,55
1693678371343142300,1.015141487,-0.871489406,10.23760605,-0.059421133,0.00106585,-0.007460949,-30,49,84,8,-12,-0.120907187,2.421735048,10.23281765,0.052626338,-0.02797856,0.038104136,15,37,-22,-20,54
1693678371394113700,1.017535686,-0.866701007,10.24359226,-0.059820827,0.001332312,-0.007594181,-22,44,81,3,-13,-0.118512981,2.422932148,10.24000072,0.052626338,-0.027445635,0.038237367,17,35,-29,-24,52
1693678371395113700,1.012747288,-0.866701007,10.24718285,-0.059820827,0.001332312,-0.007594181,-28,45,84,4,-17,-0.118512981,2.424129248,10.24000072,0.052626338,-0.027445635,0.038237367,20,39,-22,-19,49
1693678371396113700,1.012747288,-0.865503907,10.25197124,-0.059954058,0.001332312,-0.007727412,-25,42,75,6,-16,-0.118512981,2.421735048,10.23401546,0.052626338,-0.027445635,0.038370594,11,33,-24,-24,50
1693678371397113700,1.015141487,-0.863109708,10.24718285,-0.059820827,0.001332312,-0.007727412,-28,45,81,12,-13,-0.117315881,2.421735048,10.23521233,0.052626338,-0.027445635,0.038503829,20,40,-20,-23,54
1693678371398113700,1.016338587,-0.863109708,10.24478912,-0.059954058,0.001199081,-0.007727412,-27,41,84,7,-15,-0.112527482,2.422932148,10.24119759,0.052359879,-0.027578866,0.038503829,17,39,-18,-22,50
1693678371484060300,1.017535686,-0.870292306,10.22802925,-0.060220521,0.000666156,-0.007327718,-27,37,80,3,-13,-0.108936176,2.420537949,10.22084713,0.052626338,-0.027312404,0.038237367,20,35,-25,-16,52
1693678371485060300,1.021126986,-0.871489406,10.22922707,-0.060220521,0.000666156,-0.007327718,-33,33,81,8,-17,-0.111330383,2.424129248,10.21605873,0.052759573,-0.027312404,0.038104136,17,43,-23,-22,53
1693678371486060300,1.023521185,-0.871489406,10.22802925,-0.060220521,0.000799387,-0.007327718,-23,38,83,7,-13,-0.110133275,2.428917646,10.22324085,0.05249311,-0.027445635,0.038237367,20,38,-24,-14,55
1693678371487060300,1.019929886,-0.870292306,10.22084713,-0.060220521,0.000799387,-0.007194487,-31,45,82,8,-12,-0.110133275,2.430114746,10.22922707,0.052759573,-0.027578866,0.038237367,14,31,-24,-23,55
1693678371488060300,1.023521185,-0.869095206,10.22324085,-0.060220521,0.000799387,-0.007061256,-22,43,84,4,-4,-0.112527482,2.428917646,10.23162079,0.052759573,-0.027578866,0.038237367,13,40,-24,-24,52
1693678371550025200,1.016338587,-0.865503907,10.24598598,-0.06008729,0.001199081,-0.007594181,-27,35,81,8,-12,-0.117315881,2.427720547,10.21725559,0.0528928,-0.027845331,0.038104136,16,36,-22,-22,50
1693678371551025200,1.019929886,-0.866701007,10.24359226,-0.059954058,0.000932619,-0.007727412,-30,42,79,8,-16,-0.116118781,2.428917646,10.22084713,0.052759573,-0.02797856,0.038237367,20,30,-24,-20,52
1693678371552025200,1.022324085,-0.867898107,10.24598598,-0.059954058,0.000932619,-0.007727412,-31,38,78,7,-12,-0.114921682,2.428917646,10.22204399,0.052759573,-0.027845331,0.038237367,20,34,-23,-18,53
1693678371553025200,1.022324085,-0.867898107,10.24718285,-0.06008729,0.000666156,-0.007727412,-30,39,80,8,-18,-0.113724582,2.425326347,10.21845245,0.0528928,-0.027712099,0.037970904,16,41,-27,-22,54
1693678371554025200,1.023521185,-0.867898107,10.24718285,-0.06008729,0.000666156,-0.007727412,-32,43,90,7,-12,-0.114921682,2.422932148,10.22204399,0.052759573,-0.027845331,0.037970904,15,32,-24,-24,54
1693678371615987800,1.021126986,-0.859518409,10.24718285,-0.059820827,0.000532925,-0.007594181,-28,36,83,6,-18,-0.117315881,2.419340849,10.22443867,0.0528928,-0.028111791,0.038237367,16,43,-26,-19,58
1693678371616987800,1.021126986,-0.85592711,10.24598598,-0.059687596,0.000666156,-0.007727412,-23,32,65,4,-12,-0.116118781,2.41574955,10.22443867,0.0528928,-0.028245023,0.038237367,19,41,-20,-16,55
1693678371617987800,1.021126986,-0.861912608,10.24598598,-0.059820827,0.000532925,-0.007594181,-29,43,81,10,-11,-0.116118781,2.418143749,10.22683239,0.052759573,-0.028245023,0.038370594,20,42,-25,-19,54
1693678371618987800,1.023521185,-0.863109708,10.24598598,-0.059687596,0.000532925,-0.007727412,-27,42,79,8,-9,-0.114921682,2.41455245,10.23042393,0.0528928,-0.028245023,0.038370594,14,32,-31,-22,52
1693678371619987800,1.024718285,-0.861912608,10.24478912,-0.059687596,0.000666156,-0.007594181,-31,42,77,4,-11,-0.114921682,2.41335535,10.22443867,0.0528928,-0.028378254,0.038237367,15,30,-24,-23,44
1693678371790884100,1.019929886,-0.857124209,10.23521233,-0.06008729,0.000799387,-0.007327718,-23,39,79,4,-13,-0.113724582,2.41335535,10.22443867,0.052093416,-0.02797856,0.037837673,8,35,-24,-18,54
1693678371791884100,1.022324085,-0.860715508,10.23760605,-0.06008729,0.000666156,-0.007460949,-28,41,83,6,-15,-0.110133275,2.412158251,10.22084713,0.052226644,-0.028111791,0.037970904,20,45,-5,-25,53
1693678371792884100,1.022324085,-0.860715508,10.24359226,-0.06008729,0.000932619,-0.007327718,-24,47,84,12,-14,-0.111330383,2.412158251,10.22443867,0.052226644,-0.02797856,0.037970904,19,44,-29,-23,51
1693678371793884100,1.022324085,-0.863109708,10.24000072,-0.059954058,0.000932619,-0.007327718,-28,43,79,8,-13,-0.114921682,2.410961151,10.22922707,0.052093416,-0.02797856,0.037837673,20,35,-20,-23,51
1693678371794884100,1.021126986,-0.861912608,10.24598598,-0.059954058,0.000799387,-0.007327718,-27,34,79,6,-16,-0.112527482,2.406172752,10.22922707,0.051960181,-0.027712099,0.037837673,18,30,-21,-23,53
1693678371872950900,1.021126986,-0.863109708,10.23162079,-0.059954058,0.000799387,-0.007727412,-23,41,83,8,-13,-0.119710088,2.421735048,10.24119759,0.05249311,-0.028378254,0.038903523,18,44,-21,-15,54
1693678371873950900,1.021126986,-0.866701007,10.23281765,-0.059820827,0.00106585,-0.007727412,-27,43,85,0,-12,-0.118512981,2.424129248,10.23281765,0.052626338,-0.027712099,0.038503829,9,40,-22,-29,49
1693678371874950900,1.021126986,-0.866701007,10.23880386,-0.059820827,0.00106585,-0.007860643,-28,45,86,8,-7,-0.123301387,2.421735048,10.22084713,0.052759573,-0.027179174,0.037970904,17,32,-24,-17,52
1693678371875950900,1.022324085,-0.865503907,10.23640919,-0.059820827,0.00106585,-0.007993874,-26,41,77,10,-15,-0.125695586,2.41694665,10.22324085,0.052759573,-0.026379786,0.03757121,17,46,-23,-24,52
1693678371876950900,1.021126986,-0.864306808,10.23401546,-0.059820827,0.001199081,-0.007860643,-30,41,83,6,-17,-0.128089786,2.41455245,10.22802925,0.052093416,-0.025846859,0.037704438,17,31,-23,-21,55
1693678371935038600,1.015141487,-0.869095206,10.23162079,-0.059954058,0.000932619,-0.007594181,-26,37,89,3,-11,-0.120907187,2.432508945,10.21725559,0.053425729,-0.03011026,0.039169986,20,41,-19,-23,52
1693678371936038600,1.013944387,-0.866701007,10.22443867,-0.059954058,0.000932619,-0.007727412,-30,42,83,8,-15,-0.119710088,2.434903145,10.22084713,0.053558957,-0.029977029,0.039036751,20,35,-29,-17,73
1693678371937038600,1.013944387,-0.865503907,10.22084713,-0.059954058,0.000932619,-0.007727412,-28,44,80,8,-12,-0.118512981,2.434903145,10.23162079,0.053558957,-0.029444104,0.038770292,20,39,-24,-22,45
1693678371938038600,1.013944387,-0.860715508,10.22324085,-0.06008729,0.000666156,-0.007727412,-26,41,87,8,-12,-0.116118781,2.438494444,10.23880386,0.053159267,-0.028378254,0.038370594,13,35,-28,-27,46
1693678371939038600,1.015141487,-0.859518409,10.22443867,-0.060220521,0.000666156,-0.007727412,-32,38,77,2,-16,-0.114921682,2.436100245,10.23640919,0.052359879,-0.027445635,0.038104136,18,39,-29,-22,53
1693678371999002300,1.017535686,-0.857124209,10.22922707,-0.06008729,0.000799387,-0.007594181,-28,41,77,7,-5,-0.107739076,2.41694665,10.21965027,0.05249311,-0.028111791,0.038503829,13,41,-19,-18,48
1693678372000002300,1.019929886,-0.85473001,10.22683239,-0.06008729,0.000666156,-0.007594181,-28,33,80,11,-11,-0.107739076,2.41574955,10.21845245,0.05249311,-0.028511487,0.038637057,17,32,-28,-22,54
1693678372001002300,1.022324085,-0.857124209,10.22563553,-0.06008729,0.000799387,-0.007594181,-20,55,87,6,-13,-0.110133275,2.41574955,10.21845245,0.05249311,-0.028911179,0.038637057,14,32,-23,-26,43
1693678372002002300,1.023521185,-0.860715508,10.21965027,-0.06008729,0.000666156,-0.007460949,-30,46,85,12,-12,-0.108936176,2.418143749,10.21725559,0.052626338,-0.02904441,0.038503829,13,36,-19,-23,52
1693678372003002300,1.023521185,-0.860715508,10.21965027,-0.059954058,0.000532925,-0.007327718,-28,32,83,10,-16,-0.111330383,2.420537949,10.21725559,0.052626338,-0.028777948,0.038370594,19,36,-23,-18,55
1693678372064011900,1.021126986,-0.859518409,10.24478912,-0.060353752,0.000799387,-0.007194487,-22,45,83,7,-12,-0.118512981,2.419340849,10.23281765,0.052359879,-0.028111791,0.038104136,17,39,-23,-19,51
1693678372065011900,1.022324085,-0.859518409,10.24359226,-0.060486984,0.000532925,-0.007194487,-30,44,87,3,-5,-0.114921682,2.418143749,10.23162079,0.052359879,-0.028378254,0.038237367,13,35,-28,-28,50
1693678372066011900,1.021126986,-0.858321309,10.24239445,-0.060353752,0.000399694,-0.007194487,-23,41,80,8,-11,-0.116118781,2.419340849,10.23760605,0.05249311,-0.028378254,0.038104136,8,41,-22,-23,54
1693678372067011900,1.022324085,-0.857124209,10.23640919,-0.060353752,0.000399694,-0.007194487,-27,41,83,6,-17,-0.113724582,2.41694665,10.24119759,0.052626338,-0.028245023,0.038104136,20,43,-23,-21,55
1693678372068011900,1.021126986,-0.85592711,10.23281765,-0.060220521,0.000799387,-0.007194487,-28,43,72,2,-15,-0.112527482,2.41574955,10.23760605,0.052626338,-0.028111791,0.038104136,13,43,-32,-20,55
1693678372135990700,1.015141487,-0.859518409,10.24838066,-0.060220521,0.001199081,-0.007860643,-24,43,80,3,-13,-0.112527482,2.422932148,10.23880386,0.052626338,-0.027578866,0.038104136,14,36,-25,-30,46
1693678372136990700,1.015141487,-0.860715508,10.24359226,-0.060220521,0.00106585,-0.007727412,-28,41,81,7,-13,-0.112527482,2.421735048,10.23521233,0.052759573,-0.027578866,0.037970904,18,44,-21,-20,54
1693678372137990700,1.016338587,-0.860715508,10.24119759,-0.06008729,0.000932619,-0.007993874,-28,41,80,3,-13,-0.111330383,2.419340849,10.23521233,0.0528928,-0.027445635,0.037970904,20,35,-28,-20,49
1693678372138990700,1.016338587,-0.857124209,10.24119759,-0.060220521,0.000932619,-0.007993874,-30,41,84,8,-16,-0.112527482,2.420537949,10.23281765,0.0528928,-0.027445635,0.037837673,18,41,-19,-20,54
1693678372139990700,1.015141487,-0.857124209,10.23880386,-0.060220521,0.000799387,-0.007860643,-30,42,81,7,-13,-0.111330383,2.422932148,10.22683239,0.052759573,-0.027578866,0.037837673,20,43,-27,-24,47
1693678372192959000,1.023521185,-0.869095206,10.22443867,-0.060220521,0.000799387,-0.007327718,-26,35,83,6,-9,-0.118512981,2.427720547,10.23401546,0.053026035,-0.027845331,0.037970904,10,45,-21,-30,52
1693678372193959000,1.024718285,-0.872686505,10.22563553,-0.060353752,0.000799387,-0.007460949,-30,37,74,10,-12,-0.120907187,2.424129248,10.23880386,0.053159267,-0.027845331,0.038104136,19,40,-20,-24,53
1693678372194959000,1.023521185,-0.875080705,10.22204399,-0.060353752,0.000666156,-0.007460949,-28,35,84,1,-15,-0.119710088,2.424129248,10.24000072,0.053159267,-0.02797856,0.038237367,15,46,-16,-19,53
1693678372195959000,1.025915384,-0.873883605,10.22563553,-0.060353752,0.000799387,-0.007327718,-23,34,74,2,-17,-0.118512981,2.422932148,10.23640919,0.053026035,-0.028111791,0.038237367,9,35,-28,-24,53
1693678372196959000,1.024718285,-0.873883605,10.23162079,-0.060353752,0.000799387,-0.007327718,-30,41,84,2,-13,-0.114921682,2.422932148,10.23401546,0.0528928,-0.02797856,0.038104136,20,35,-25,-22,50
1693678372257955400,1.018732786,-0.866701007,10.22922707,-0.059954058,0.000399694,-0.007594181,-32,36,79,-1,-17,-0.113724582,2.41574955,10.22922707,0.0528928,-0.027445635,0.037837673,18,37,-22,-23,54
1693678372258955400,1.012747288,-0.863109708,10.21965027,-0.06008729,0.000399694,-0.007327718,-30,37,83,7,-12,-0.117315881,2.41455245,10.23162079,0.052759573,-0.027578866,0.037970904,14,35,-24,-22,50
1693678372259955400,1.011550188,-0.863109708,10.21845245,-0.06008729,0.000666156,-0.007194487,-28,41,75,6,-12,-0.119710088,2.41455245,10.23042393,0.0528928,-0.027578866,0.037970904,18,40,-19,-20,49
1693678372260955400,1.009155989,-0.861912608,10.21965027,-0.06008729,0.000532925,-0.007327718,-25,49,80,10,-13,-0.119710088,2.41574955,10.23401546,0.053026035,-0.027712099,0.037970904,14,41,-23,-26,52
1693678372261955400,1.00556469,-0.861912608,10.21845245,-0.06008729,0.000666156,-0.007327718,-28,43,84,6,-11,-0.118512981,2.41694665,10.23521233,0.0528928,-0.027845331,0.037970904,13,29,-25,-23,49
1693678372319959000,1.012747288,-0.863109708,10.22922707,-0.059954058,0.000932619,-0.007460949,-2,64,99,26,-5,-0.116118781,2.41335535,10.23042393,0.052359879,-0.027179174,0.037837673,19,37,-27,-20,51
1693678372320959000,1.013944387,-0.866701007,10.23281765,-0.06008729,0.000799387,-0.007460949,-31,33,77,7,-12,-0.117315881,2.412158251,10.22563553,0.052359879,-0.027445635,0.038104136,20,44,-21,-22,55
1693678372321959000,1.011550188,-0.869095206,10.23401546,-0.06008729,0.000799387,-0.007327718,-30,41,94,27,8,-0.113724582,2.41455245,10.22683239,0.05249311,-0.027445635,0.038237367,17,35,-25,-21,53
1693678372322959000,1.013944387,-0.866701007,10.23281765,-0.06008729,0.000799387,-0.007327718,-4,66,102,24,4,-0.113724582,2.41335535,10.22683239,0.05249311,-0.027578866,0.038237367,20,43,-25,-24,46
1693678372323959000,1.012747288,-0.864306808,10.23880386,-0.06008729,0.000666156,-0.007194487,-31,35,76,4,-13,-0.112527482,2.412158251,10.22563553,0.052626338,-0.027712099,0.038237367,17,32,-29,-24,52
1693678372370931400,1.018732786,-0.859518409,10.24119759,-0.060220521,0.000932619,-0.007460949,-32,37,81,4,-16,-0.112527482,2.41694665,10.20887566,0.052359879,-0.02797856,0.038237367,15,42,-23,-22,53
1693678372371931400,1.016338587,-0.860715508,10.24359226,-0.060353752,0.000932619,-0.007460949,-30,36,80,6,-13,-0.113724582,2.410961151,10.20408726,0.052626338,-0.027445635,0.037970904,20,43,-17,-26,61
1693678372372931400,1.016338587,-0.861912608,10.24478912,-0.060353752,0.000799387,-0.007327718,-20,42,84,8,-9,-0.112527482,2.407369852,10.20767879,0.051960181,-0.02691271,0.038104136,13,33,-19,-26,50
1693678372373931400,1.019929886,-0.865503907,10.24598598,-0.060620211,0.000799387,-0.007460949,-27,42,83,6,-5,-0.112527482,2.406172752,10.20648193,0.051294025,-0.026379786,0.038370594,17,36,-24,-28,48
1693678372374931400,1.017535686,-0.865503907,10.24838066,-0.060486984,0.000799387,-0.007460949,-30,34,76,10,-8,-0.110133275,2.409764051,10.20648193,0.051027562,-0.02691271,0.038903523,21,39,-25,-18,50
1693678372440891200,1.010353088,-0.860715508,10.24957752,-0.06008729,0.00106585,-0.007594181,61,39,78,13,-15,-0.105344877,2.427720547,10.23760605,0.053425729,-0.029310873,0.038637057,17,34,-19,-18,55
1693678372441891200,1.012747288,-0.859518409,10.25197124,-0.06008729,0.000799387,-0.007594181,-28,37,77,2,-16,-0.10295067,2.430114746,10.23401546,0.053159267,-0.028245023,0.038237367,8,34,-23,-27,51
1693678372442891200,1.011550188,-0.857124209,10.25675964,-0.06008729,0.000799387,-0.007727412,-27,32,78,6,-11,-0.106541976,2.426523447,10.22802925,0.05249311,-0.027179174,0.037704438,19,35,-25,-21,48
1693678372443891200,1.006761789,-0.858321309,10.25915432,-0.06008729,0.000799387,-0.007727412,-26,35,77,7,-15,-0.107739076,2.421735048,10.22324085,0.051960181,-0.026113322,0.037304748,11,33,-23,-22,48
1693678372444891200,1.00556469,-0.859518409,10.25197124,-0.06008729,0.000799387,-0.007727412,-27,41,75,6,-15,-0.110133275,2.418143749,10.21725559,0.051560488,-0.025580399,0.037304748,18,44,-23,-22,52
1693678372503854400,1.011550188,-0.864306808,10.23401546,-0.059954058,0.000799387,-0.007727412,-34,39,80,6,-13,-0.116118781,2.425326347,10.22324085,0.053558957,-0.029577335,0.038370594,19,41,-23,-16,54
1693678372504854400,1.012747288,-0.864306808,10.23640919,-0.059820827,0.000799387,-0.007594181,-26,35,79,4,-12,-0.114921682,2.430114746,10.22922707,0.053425729,-0.029310873,0.038370594,14,31,-18,-22,50
1693678372505854400,1.013944387,-0.865503907,10.24000072,-0.059687596,0.000799387,-0.007594181,-24,39,80,2,-11,-0.113724582,2.430114746,10.23640919,0.053159267,-0.028644716,0.038237367,20,30,-27,-23,42
1693678372506854400,1.015141487,-0.861912608,10.24598598,-0.059820827,0.00106585,-0.007594181,-27,42,83,2,-13,-0.113724582,2.430114746,10.23401546,0.052759573,-0.027845331,0.037970904,17,39,-23,-24,48
1693678372507854400,1.013944387,-0.861912608,10.24000072,-0.06008729,0.001199081,-0.007460949,-30,36,81,6,-15,-0.112527482,2.430114746,10.23640919,0.052226644,-0.02691271,0.037704438,19,37,-21,-18,51
1693678372578811200,1.024718285,-0.85592711,10.22802925,-0.059954058,0.000799387,-0.007460949,-24,43,84,6,-11,-0.125695586,2.427720547,10.22683239,0.0528928,-0.028378254,0.037970904,11,37,-19,-20,50
1693678372579811200,1.027112484,-0.85473001,10.22922707,-0.059954058,0.000799387,-0.007327718,-23,37,80,10,-9,-0.122104287,2.427720547,10.22563553,0.053159267,-0.028511487,0.038104136,19,36,-19,-23,52
1693678372580811200,1.027112484,-0.85592711,10.22683239,-0.059820827,0.000932619,-0.007327718,-23,41,80,8,-12,-0.116118781,2.430114746,10.22443867,0.053159267,-0.028245023,0.038104136,19,31,-22,-23,54
1693678372581811200,1.023521185,-0.857124209,10.22922707,-0.059820827,0.000799387,-0.007594181,-31,37,83,6,-15,-0.116118781,2.428917646,10.22563553,0.053026035,-0.028111791,0.038104136,23,36,-23,-20,54
1693678372582811200,1.021126986,-0.858321309,10.23162079,-0.059954058,0.000799387,-0.007727412,-32,35,77,-1,-18,-0.113724582,2.426523447,10.22204399,0.0528928,-0.027712099,0.037970904,17,44,-19,-17,50
1693678372643772800,1.013944387,-0.85592711,10.23042393,-0.060220521,0.000532925,-0.007594181,-27,39,78,7,-12,-0.122104287,2.419340849,10.22683239,0.052759573,-0.027578866,0.038370594,18,33,-25,-21,49
1693678372644772800,1.012747288,-0.858321309,10.23401546,-0.06008729,0.000532925,-0.007460949,-27,41,84,12,-7,-0.123301387,2.420537949,10.22683239,0.05249311,-0.027845331,0.038237367,14,41,-27,-24,48
1693678372645772800,1.010353088,-0.863109708,10.23880386,-0.06008729,0.000666156,-0.007460949,-24,38,88,1,-13,-0.124498487,2.419340849,10.22563553,0.052626338,-0.027712099,0.038237367,18,42,-29,-25,52
1693678372646772800,1.011550188,-0.860715508,10.23401546,-0.06008729,0.000799387,-0.007327718,-32,38,85,8,-12,-0.122104287,2.420537949,10.22922707,0.052759573,-0.027712099,0.038370594,20,33,-24,-23,54
1693678372647772800,1.012747288,-0.858321309,10.23281765,-0.06008729,0.000932619,-0.007327718,-32,43,76,3,-17,-0.118512981,2.422932148,10.23281765,0.052759573,-0.027845331,0.038104136,20,42,-24,-19,54
1693678372709735500,1.010353088,-0.857124209,10.23162079,-0.059687596,0.000932619,-0.007327718,-28,36,84,3,-9,-0.10295067,2.427720547,10.23640919,0.0528928,-0.028111791,0.038637057,13,33,-25,-20,50
1693678372710735500,1.011550188,-0.85592711,10.23281765,-0.059687596,0.000932619,-0.007194487,-20,42,88,4,-13,-0.104147777,2.428917646,10.23281765,0.053026035,-0.028111791,0.038503829,20,37,-27,-24,49
1693678372711735500,1.012747288,-0.85592711,10.23521233,-0.059687596,0.000932619,-0.007061256,-26,41,80,6,-12,-0.106541976,2.428917646,10.23042393,0.053159267,-0.028111791,0.038503829,20,36,-21,-22,53
1693678372712735500,1.012747288,-0.857124209,10.23880386,-0.059687596,0.000932619,-0.007194487,-30,37,83,4,-15,-0.108936176,2.427720547,10.22802925,0.053159267,-0.028111791,0.038503829,20,40,-21,-24,52
1693678372713735500,1.012747288,-0.85592711,10.23760605,-0.059820827,0.000799387,-0.007194487,-28,41,80,6,-16,-0.111330383,2.430114746,10.22683239,0.053159267,-0.02797856,0.038370594,14,43,-22,-18,53
1693678372800194700,1.024718285,-0.860715508,10.23281765,-0.06008729,0.000399694,-0.007460949,-26,37,75,10,-15,-0.122104287,2.421735048,10.23401546,0.052359879,-0.028245023,0.038637057,15,33,-27,-28,49
1693678372801194700,1.025915384,-0.861912608,10.23042393,-0.06008729,0.000266462,-0.007460949,-28,46,80,9,-12,-0.120907187,2.421735048,10.23042393,0.05249311,-0.028378254,0.038637057,17,39,-21,-20,50
1693678372802194700,1.024718285,-0.864306808,10.22324085,-0.060220521,0.000133231,-0.007460949,-28,41,76,7,-13,-0.118512981,2.418143749,10.23521233,0.05249311,-0.028378254,0.038503829,17,40,-24,-19,51
1693678372803194700,1.027112484,-0.865503907,10.22084713,-0.060353752,0.000133231,-0.007460949,-30,41,78,0,-17,-0.116118781,2.418143749,10.23401546,0.052226644,-0.028378254,0.038503829,19,37,-23,-23,55
1693678372804194700,1.025915384,-0.863109708,10.22443867,-0.060220521,0.000399694,-0.007594181,-20,38,74,7,-9,-0.117315881,2.420537949,10.23640919,0.052093416,-0.028245023,0.038370594,15,39,-22,-26,52
1693678372866795200,1.00556469,-0.872686505,10.23760605,-0.06008729,0.000666156,-0.007327718,-27,41,89,12,-9,-0.113724582,2.424129248,10.23281765,0.05249311,-0.026646247,0.037171517,17,32,-23,-23,52
1693678372867795200,1.00556469,-0.870292306,10.23640919,-0.06008729,0.000666156,-0.007327718,-28,37,77,0,-6,-0.112527482,2.438494444,10.24119759,0.056090351,-0.03437366,0.03956968,16,33,-27,-19,50
1693678372868795200,1.009155989,-0.871489406,10.23521233,-0.06008729,0.000799387,-0.007460949,-27,41,84,8,-14,-0.106541976,2.438494444,10.25556278,0.056623276,-0.032774884,0.038503829,17,35,-29,-20,53
1693678372869795200,1.011550188,-0.872686505,10.24000072,-0.06008729,0.000799387,-0.007594181,-26,30,83,6,-16,-0.108936176,2.434903145,10.26992798,0.054091886,-0.029310873,0.038370594,14,45,-21,-21,55
1693678372870795200,1.015141487,-0.870292306,10.23760605,-0.06008729,0.000932619,-0.007460949,-30,37,73,1,-14,-0.111330383,2.432508945,10.25915432,0.050494641,-0.026113322,0.038370594,18,42,-21,-18,52
1693678372929755600,1.027112484,-0.859518409,10.22563553,-0.059954058,0.000532925,-0.007061256,-22,45,83,6,-7,-0.119710088,2.401384354,10.22084713,0.052226644,-0.026779478,0.037970904,18,44,-17,-23,55
1693678372930755600,1.024718285,-0.860715508,10.22922707,-0.059954058,0.000799387,-0.007061256,-30,38,73,2,-8,-0.118512981,2.404975653,10.23281765,0.054225113,-0.030243492,0.038903523,14,40,-22,-16,44
1693678372931755600,1.025915384,-0.860715508,10.23162079,-0.059954058,0.000799387,-0.006928025,-22,32,80,7,-16,-0.113724582,2.41335535,10.23640919,0.05489127,-0.032774884,0.040102605,19,43,-19,-26,54
1693678372932755600,1.022324085,-0.860715508,10.23281765,-0.059820827,0.000932619,-0.006794794,-26,42,80,6,-17,-0.107739076,2.420537949,10.23640919,0.055024505,-0.033707503,0.040768761,17,34,-19,-17,50
1693678372933755600,1.023521185,-0.861912608,10.23640919,-0.059687596,0.000799387,-0.006928025,-32,39,83,9,-15,-0.104147777,2.430114746,10.23640919,0.055157732,-0.033707503,0.040369064,13,40,-18,-24,51
1693678372993719000,1.024718285,-0.857124209,10.24119759,-0.06008729,0.001465544,-0.007594181,-26,33,84,8,-11,-0.110133275,2.418143749,10.22563553,0.050761104,-0.024647778,0.037304748,15,36,-21,-20,65
1693678372994719000,1.025915384,-0.857124209,10.24000072,-0.059954058,0.001199081,-0.007460949,-29,41,84,6,-14,-0.112527482,2.412158251,10.21845245,0.051027562,-0.025580399,0.03757121,7,35,-28,-17,50
1693678372995719000,1.027112484,-0.85473001,10.24598598,-0.059820827,0.001465544,-0.007460949,-29,34,80,9,-13,-0.114921682,2.410961151,10.21605873,0.051826954,-0.026779478,0.038104136,18,43,-18,-20,52
1693678372996719000,1.027112484,-0.85473001,10.25197124,-0.059687596,0.001598775,-0.007460949,-23,35,77,6,-16,-0.117315881,2.409764051,10.21366405,0.052626338,-0.028245023,0.038503829,20,33,-15,-18,55
1693678372997719000,1.029506683,-0.85353291,10.25915432,-0.059954058,0.001865237,-0.007594181,-23,39,80,8,-15,-0.114921682,2.41574955,10.21845245,0.053292494,-0.029444104,0.038637057,20,40,-25,-22,52
1693678373058691300,1.015141487,-0.863109708,10.22683239,-0.061019909,-0.000133231,-0.007460949,-34,39,76,13,-13,-0.117315881,2.422932148,10.22204399,0.052359879,-0.027045943,0.037970904,20,37,-24,-22,52
1693678373059691300,1.018732786,-0.863109708,10.21965027,-0.060620211,-0.000666156,-0.007594181,-27,38,81,8,-13,-0.119710088,2.422932148,10.22084713,0.052359879,-0.02691271,0.037837673,11,33,-29,-24,48
1693678373060691300,1.027112484,-0.863109708,10.22084713,-0.06008729,0.0,-0.007727412,-33,32,76,4,-20,-0.119710088,2.420537949,10.21965027,0.052359879,-0.027312404,0.037837673,22,43,-18,-13,56
1693678373061691300,1.028309584,-0.861912608,10.22324085,-0.059954058,0.000666156,-0.007727412,-28,39,83,6,-16,-0.119710088,2.419340849,10.22084713,0.052626338,-0.027712099,0.037837673,19,39,-24,-18,53
1693678373062691300,1.027112484,-0.860715508,10.23640919,-0.060220521,0.000666156,-0.007594181,-26,42,83,-1,-11,-0.122104287,2.419340849,10.22204399,0.052759573,-0.028111791,0.038104136,13,37,-22,-24,50
1693678373122655000,1.015141487,-0.85592711,10.23521233,-0.060353752,0.000932619,-0.007594181,-32,44,87,12,-9,-0.119710088,2.41455245,10.21366405,0.052226644,-0.027712099,0.037704438,13,45,-25,-20,53
1693678373123655000,1.015141487,-0.858321309,10.23162079,-0.060220521,0.000932619,-0.007727412,-24,45,80,3,-15,-0.122104287,2.41694665,10.21605873,0.052359879,-0.027578866,0.037704438,20,39,-27,-20,55
1693678373124655000,1.012747288,-0.860715508,10.23640919,-0.06008729,0.00106585,-0.007860643,-26,32,80,13,-15,-0.122104287,2.41694665,10.21845245,0.052626338,-0.027712099,0.037837673,15,40,-23,-18,54
1693678373125655000,1.012747288,-0.863109708,10.23640919,-0.059820827,0.00106585,-0.007860643,-24,43,80,9,-12,-0.122104287,2.418143749,10.21965027,0.052759573,-0.027845331,0.038104136,19,43,-18,-26,52
1693678373126655000,1.011550188,-0.866701007,10.24119759,-0.059820827,0.00106585,-0.007727412,-31,43,83,7,-13,-0.120907187,2.418143749,10.21845245,0.052759573,-0.02797856,0.038104136,16,45,-21,-27,52
1693678373217600000,1.022324085,-0.866701007,10.22443867,-0.059687596,0.001332312,-0.007327718,-22,35,75,2,-16,-0.116118781,2.41455245,10.24000072,0.052226644,-0.027179174,0.037837673,9,37,-22,-24,50
1693678373218600000,1.019929886,-0.871489406,10.22084713,-0.059687596,0.001332312,-0.007460949,-17,53,95,15,-1,-0.117315881,2.41455245,10.24119759,0.052226644,-0.027179174,0.037837673,20,41,-18,-19,55
1693678373219600000,1.016338587,-0.873883605,10.21965027,-0.059687596,0.001332312,-0.007460949,-8,60,101,27,-1,-0.112527482,2.41455245,10.23760605,0.052093416,-0.027179174,0.037837673,19,44,-21,-20,55
1693678373220600000,1.015141487,-0.872686505,10.21605873,-0.059820827,0.001199081,-0.007460949,-25,38,79,2,15,-0.110133275,2.41455245,10.23521233,0.052093416,-0.027445635,0.037970904,13,33,-21,-26,51
1693678373221600000,1.010353088,-0.867898107,10.21845245,-0.059820827,0.000932619,-0.007460949,-5,62,102,28,13,-0.108936176,2.41455245,10.23401546,0.051960181,-0.027712099,0.038104136,15,30,-28,-30,48
1693678373282563500,1.013944387,-0.857124209,10.23162079,-0.060220521,0.001199081,-0.007727412,-19,49,90,15,-1,-0.114921682,2.418143749,10.22922707,0.053026035,-0.028111791,0.038104136,13,37,-19,-19,55
1693678373283563500,1.013944387,-0.852335811,10.23521233,-0.060220521,0.001332312,-0.007727412,-8,69,90,29,7,-0.116118781,2.41574955,10.23042393,0.0528928,-0.02797856,0.037970904,21,39,-18,-21,53
1693678373284563500,1.012747288,-0.852335811,10.23640919,-0.06008729,0.001332312,-0.007594181,-10,51,99,18,1,-0.116118781,2.41455245,10.23162079,0.052759573,-0.02797856,0.037970904,5,39,-23,-28,55
1693678373285563500,1.010353088,-0.848744512,10.23880386,-0.060220521,0.001199081,-0.007594181,-30,35,83,11,-8,-0.114921682,2.41335535,10.23401546,0.052759573,-0.027712099,0.038104136,19,40,-24,-26,53
1693678373286563500,1.007958889,-0.849941611,10.24000072,-0.060220521,0.000932619,-0.007594181,-4,0,100,30,13,-0.114921682,2.41455245,10.24000072,0.0528928,-0.027712099,0.038237367,7,37,-25,-31,52
1693678373358519400,1.019929886,-0.85473001,10.24119759,-0.059687596,0.000799387,-0.007327718,-1,64,100,30,-14,-0.114921682,2.419340849,10.21965027,0.053026035,-0.027845331,0.038503829,15,39,-19,-18,66
1693678373359519400,1.021126986,-0.85592711,10.24000072,-0.059687596,0.000666156,-0.007327718,-32,39,79,8,-15,-0.111330383,2.418143749,10.22204399,0.053159267,-0.02797856,0.038237367,13,43,-20,-23,54
1693678373360519400,1.021126986,-0.859518409,10.24000072,-0.059687596,0.000666156,-0.007194487,-8,64,105,27,12,-0.112527482,2.418143749,10.22443867,0.0528928,-0.02797856,0.038237367,20,39,-21,-22,50
1693678373361519400,1.022324085,-0.861912608,10.23760605,-0.059687596,0.000666156,-0.007194487,-28,37,77,0,-17,-0.111330383,2.418143749,10.22683239,0.052626338,-0.02797856,0.038237367,19,34,-25,-22,46
1693678373362519400,1.022324085,-0.866701007,10.23521233,-0.059554365,0.000799387,-0.007194487,-1,64,107,29,12,-0.110133275,2.41694665,10.23042393,0.052759573,-0.027845331,0.038370594,13,36,-25,-27,52
1693678373482449400,1.018732786,-0.865503907,10.23401546,-0.059954058,0.000532925,-0.007594181,-29,45,81,8,-13,-0.113724582,2.421735048,10.21965027,0.052759573,-0.02797856,0.038370594,20,40,-19,-21,55
1693678373483449400,1.019929886,-0.865503907,10.23042393,-0.06008729,0.000666156,-0.007460949,-31,37,79,0,-12,-0.113724582,2.420537949,10.22084713,0.052359879,-0.02797856,0.038370594,16,40,-18,-25,48
1693678373484449400,1.019929886,-0.866701007,10.22683239,-0.06008729,0.000532925,-0.007594181,-28,34,79,8,-18,-0.114921682,2.419340849,10.22443867,0.052359879,-0.02797856,0.038370594,20,43,-15,-22,39
1693678373485449400,1.024718285,-0.865503907,10.22922707,-0.06008729,0.000532925,-0.007460949,-30,41,79,6,-13,-0.116118781,2.420537949,10.22204399,0.05249311,-0.028111791,0.038370594,18,39,-23,-27,50
1693678373486449400,1.022324085,-0.866701007,10.22683239,-0.06008729,0.000399694,-0.007460949,-28,37,83,2,-13,-0.118512981,2.424129248,10.21605873,0.052359879,-0.02797856,0.038104136,19,41,-17,-23,54
1693678373556405900,1.015141487,-0.867898107,10.22204399,-0.060220521,0.000932619,-0.007194487,-27,41,83,3,-13,-0.122104287,2.410961151,10.21366405,0.05249311,-0.02797856,0.037837673,18,43,-19,-19,55
1693678373557405900,1.015141487,-0.869095206,10.22084713,-0.060220521,0.000932619,-0.007061256,-26,39,83,3,-15,-0.118512981,2.409764051,10.21486187,0.05249311,-0.027712099,0.037837673,11,41,-25,-24,51
1693678373558405900,1.011550188,-0.869095206,10.21725559,-0.060220521,0.000932619,-0.007061256,-38,22,79,4,-16,-0.117315881,2.412158251,10.21605873,0.052626338,-0.027845331,0.037970904,18,31,-23,-28,50
1693678373559405900,1.010353088,-0.871489406,10.21965027,-0.060353752,0.00106585,-0.007061256,-31,38,75,10,-11,-0.117315881,2.412158251,10.21845245,0.052626338,-0.027845331,0.037837673,10,31,-21,-15,54
1693678373560405900,1.009155989,-0.871489406,10.21845245,-0.060353752,0.000932619,-0.007194487,-28,49,84,10,-8,-0.116118781,2.409764051,10.21845245,0.05249311,-0.027578866,0.037837673,19,36,-20,-24,53
1693678373620370500,1.007958889,-0.860715508,10.24239445,-0.059820827,0.000799387,-0.007327718,-33,33,79,2,-12,-0.122104287,2.41694665,10.23880386,0.0528928,-0.028245023,0.038104136,20,41,-30,-22,53
1693678373621370500,1.010353088,-0.861912608,10.23760605,-0.059820827,0.000799387,-0.007460949,-36,32,74,0,-17,-0.124498487,2.41694665,10.24239445,0.0528928,-0.028111791,0.038237367,20,40,-21,-19,53
1693678373622370500,1.010353088,-0.865503907,10.23880386,-0.059687596,0.000666156,-0.007460949,-28,41,81,-2,-13,-0.119710088,2.41694665,10.24598598,0.0528928,-0.028111791,0.038237367,19,40,-20,-19,54
1693678373623370500,1.012747288,-0.866701007,10.24000072,-0.059554365,0.000799387,-0.007594181,-32,38,77,0,-12,-0.117315881,2.41574955,10.24478912,0.0528928,-0.02797856,0.038370594,20,40,-24,-20,48
1693678373624370500,1.012747288,-0.866701007,10.23640919,-0.059687596,0.000799387,-0.007594181,-28,41,79,2,-12,-0.113724582,2.41335535,10.24239445,0.0528928,-0.027845331,0.038370594,20,39,-21,-18,52
1693678373693328100,1.00317049,-0.842759013,10.22922707,-0.059820827,0.000532925,-0.007727412,-31,39,80,2,-13,-0.119710088,2.420537949,10.20648193,0.051560488,-0.025980091,0.037038282,18,41,-19,-19,55
1693678373694328100,1.006761789,-0.842759013,10.23162079,-0.059820827,0.000532925,-0.007727412,-28,34,81,4,-13,-0.120907187,2.410961151,10.2028904,0.052359879,-0.025447167,0.037171517,20,37,-23,-28,50
1693678373695328100,1.007958889,-0.845153213,10.23162079,-0.059687596,0.000532925,-0.007860643,-31,41,81,6,-12,-0.120907187,2.404975653,10.21127033,0.052759573,-0.025580399,0.037837673,21,30,-18,-20,48
1693678373696328100,1.007958889,-0.845153213,10.23521233,-0.059687596,0.000666156,-0.007860643,-26,38,87,6,-13,-0.119710088,2.409764051,10.22563553,0.051693719,-0.026513018,0.038903523,14,45,-17,-18,53
1693678373697328100,1.011550188,-0.849941611,10.23640919,-0.059554365,0.000666156,-0.007993874,-33,38,83,6,-13,-0.123301387,2.41694665,10.24000072,0.05142726,-0.02797856,0.03996937,20,46,-23,-26,53
1693678373759289100,1.013944387,-0.866701007,10.22204399,-0.059820827,0.00106585,-0.007727412,-32,32,84,-1,-15,-0.105344877,2.425326347,10.21366405,0.051160797,-0.023315467,0.036905054,17,47,-25,-23,53
1693678373760289100,1.012747288,-0.865503907,10.22683239,-0.059820827,0.00106585,-0.007727412,-35,37,83,14,28,-0.110133275,2.41694665,10.20767879,0.050094947,-0.02158346,0.036238898,13,32,-25,-26,52
1693678373761289100,1.016338587,-0.864306808,10.22683239,-0.059820827,0.00106585,-0.007594181,-29,45,80,8,-12,-0.117315881,2.410961151,10.20049667,0.049428791,-0.02158346,0.036105666,13,36,-21,-22,52
1693678373762289100,1.018732786,-0.863109708,10.22683239,-0.06008729,0.00106585,-0.007594181,-23,43,85,10,-15,-0.128089786,2.402581453,10.1933136,0.049961712,-0.022782542,0.036105666,19,36,-21,-16,52
1693678373763289100,1.019929886,-0.861912608,10.22802925,-0.06008729,0.00106585,-0.007727412,-33,33,81,10,-14,-0.1316811,2.391807556,10.19570827,0.051693719,-0.025447167,0.037038282,20,40,-21,-20,55
1693678373865229300,1.015141487,-0.859518409,10.23760605,-0.059687596,0.001199081,-0.007993874,-30,39,87,7,-12,-0.096965171,2.422932148,10.24000072,0.053692192,-0.029577335,0.038637057,13,32,-30,-21,51
1693678373866229300,1.013944387,-0.858321309,10.24000072,-0.059687596,0.001199081,-0.007993874,-24,18,80,10,-14,-0.099359371,2.424129248,10.23521233,0.052626338,-0.027578866,0.037970904,18,30,-24,-22,52
1693678373867229300,1.015141487,-0.857124209,10.24119759,-0.059687596,0.00106585,-0.008127105,-27,33,79,6,-11,-0.104147777,2.426523447,10.23042393,0.051693719,-0.02571363,0.037304748,22,45,-17,-23,53
1693678373868229300,1.015141487,-0.859518409,10.23880386,-0.059820827,0.000932619,-0.008260337,-27,45,79,11,-7,-0.105344877,2.422932148,10.22563553,0.051027562,-0.024381317,0.037038282,20,47,-17,-22,53
1693678373869229300,1.016338587,-0.859518409,10.24000072,-0.059554365,0.001199081,-0.008127105,-28,38,84,6,-16,-0.107739076,2.419340849,10.22204399,0.050761104,-0.02384839,0.036905054,22,39,-23,-17,54
1693678373932192100,1.019929886,-0.857124209,10.22922707,-0.06008729,0.001598775,-0.007727412,-24,21,81,8,-18,-0.10295067,2.431311846,10.23640919,0.054225113,-0.02797856,0.037837673,16,35,-19,-21,54
1693678373933192100,1.015141487,-0.85592711,10.22324085,-0.059820827,0.001998469,-0.007727412,-29,36,79,1,-9,-0.113724582,2.384624958,10.1789484,0.05142726,-0.021716693,0.035972435,9,36,-25,-23,54
1693678373934192100,1.011550188,-0.85592711,10.21725559,-0.059954058,0.001465544,-0.007727412,-30,42,83,2,-10,-0.122104287,2.37744236,10.20169353,0.04969525,-0.022249617,0.037704438,17,36,-23,-28,53
1693678373935192100,1.012747288,-0.857124209,10.21486187,-0.06008729,0.000666156,-0.007594181,-26,47,80,6,-14,-0.128089786,2.385822058,10.21486187,0.049428791,-0.024781011,0.03956968,15,31,-23,-23,52
1693678373936192100,1.012747288,-0.85473001,10.22084713,-0.059820827,0.000133231,-0.007594181,-30,37,78,3,-13,-0.126892686,2.400187254,10.21366405,0.051560488,-0.02917764,0.040369064,13,32,-13,-22,51
1693678373996154500,1.025915384,-0.860715508,10.24718285,-0.060620211,0.000932619,-0.007460949,-33,39,85,13,-18,-0.090979666,2.460042238,10.26513958,0.055424199,-0.03130934,0.038903523,16,41,-23,-23,49
1693678373997154500,1.027112484,-0.861912608,10.24478912,-0.060620211,0.00106585,-0.007727412,-24,34,87,3,-12,-0.087388359,2.45405674,10.26394272,0.0528928,-0.026113322,0.037038282,20,37,-24,-22,52
1693678373998154500,1.027112484,-0.864306808,10.23760605,-0.060620211,0.001465544,-0.007594181,-22,36,91,12,-8,-0.090979666,2.442085743,10.24119759,0.049828485,-0.02158346,0.035705972,16,46,-24,-24,49
1693678373999154500,1.025915384,-0.866701007,10.22922707,-0.060753446,0.001465544,-0.007460949,-27,36,84,4,-15,-0.10295067,2.425326347,10.22563553,0.04769678,-0.018652374,0.035039816,14,41,-23,-19,54
1693678374000154500,1.023521185,-0.865503907,10.22563553,-0.060620211,0.001465544,-0.007460949,-30,37,79,6,-18,-0.110133275,2.41574955,10.21486187,0.04729709,-0.018119449,0.034773353,18,41,-22,-22,52
1693678374060117900,1.019929886,-0.864306808,10.24718285,-0.060220521,0.00106585,-0.007327718,-24,51,81,10,-12,-0.114921682,2.427720547,10.24838066,0.055024505,-0.031709034,0.040102605,20,45,-17,-20,54
1693678374061117900,1.018732786,-0.864306808,10.24838066,-0.060220521,0.00106585,-0.007460949,-31,34,84,4,-10,-0.107739076,2.438494444,10.24359226,0.055024505,-0.031975497,0.03956968,13,30,-22,-23,32
1693678374062117900,1.018732786,-0.864306808,10.24838066,-0.060220521,0.001332312,-0.007460949,-23,45,82,4,-18,-0.107739076,2.445677042,10.24718285,0.054225113,-0.031042879,0.039036751,8,31,-28,-26,54
1693678374063117900,1.017535686,-0.861912608,10.24598598,-0.060220521,0.001199081,-0.007460949,-29,42,79,3,-16,-0.105344877,2.446874142,10.25556278,0.053558957,-0.028511487,0.038503829,20,43,-25,-19,55
1693678374064117900,1.017535686,-0.863109708,10.24598598,-0.06008729,0.001332312,-0.007594181,-30,33,79,10,-17,-0.104147777,2.443282843,10.26633644,0.052359879,-0.025980091,0.038104136,15,36,-23,-24,53
1693678374151576000,1.015141487,-0.858321309,10.24957752,-0.059687596,-0.000932619,-0.007993874,-23,39,79,3,-13,-0.132878199,2.412158251,10.21486187,0.053026035,-0.028378254,0.038903523,13,32,-19,-19,55
1693678374152576000,1.016338587,-0.861912608,10.25915432,-0.059820827,-0.000932619,-0.008127105,-26,41,87,2,-11,-0.1316811,2.41455245,10.23521233,0.054491576,-0.03130934,0.03956968,18,37,-25,-27,50
1693678374153576000,1.019929886,-0.861912608,10.27232265,-0.059421133,0.000399694,-0.008127105,-26,43,87,8,-12,-0.122104287,2.418143749,10.24239445,0.054758042,-0.034107197,0.040502299,14,32,-24,-26,49
1693678374154576000,1.024718285,-0.859518409,10.28189945,-0.059687596,0.001465544,-0.008127105,-28,42,79,7,-12,-0.120907187,2.426523447,10.23760605,0.05489127,-0.035306279,0.040901989,17,36,-24,-24,52
1693678374155576000,1.021126986,-0.859518409,10.27711105,-0.060220521,0.001598775,-0.007860643,-31,32,87,2,-17,-0.117315881,2.434903145,10.22683239,0.055557426,-0.035572741,0.040502299,19,33,-20,-22,54
1693678374215031000,1.013944387,-0.863109708,10.23880386,-0.059954058,0.000932619,-0.008127105,-27,41,77,13,-12,-0.119710088,2.41455245,10.22084713,0.050494641,-0.022649311,0.036238898,13,37,-32,-22,52
1693678374216031000,1.016338587,-0.865503907,10.24718285,-0.059954058,0.000932619,-0.008127105,-31,45,85,10,-11,-0.125695586,2.407369852,10.21605873,0.050627869,-0.023448698,0.036638591,17,37,-25,-24,51
1693678374217031000,1.019929886,-0.864306808,10.25915432,-0.06008729,0.001332312,-0.008127105,-27,38,83,3,-16,-0.129286885,2.406172752,10.21486187,0.051693719,-0.025313934,0.037304748,-2,37,-20,-22,46
1693678374218031000,1.019929886,-0.869095206,10.25915432,-0.06008729,0.001598775,-0.007860643,-30,43,79,4,-16,-0.129286885,2.408566952,10.21965027,0.0528928,-0.027845331,0.038104136,19,31,-21,-21,50
1693678374219031000,1.017535686,-0.867898107,10.25556278,-0.060220521,0.001465544,-0.007860643,-33,38,77,9,-16,-0.129286885,2.41335535,10.22324085,0.054225113,-0.030376723,0.038770292,20,32,-20,-20,56
1693678374309974800,1.013944387,-0.865503907,10.24359226,-0.060353752,0.001598775,-0.008260337,-27,32,79,12,-13,-0.105344877,2.420537949,10.22204399,0.051294025,-0.025846859,0.036105666,14,42,-19,-21,46
1693678374310974800,1.011550188,-0.865503907,10.23281765,-0.060886677,0.001199081,-0.008127105,-25,37,84,8,-13,-0.112527482,2.408566952,10.21246719,0.05142726,-0.024514547,0.035572741,18,40,-23,-21,44
1693678374311974800,1.007958889,-0.866701007,10.22683239,-0.060753446,0.000666156,-0.008127105,-26,39,90,7,-13,-0.120907187,2.397793055,10.21246719,0.05142726,-0.02358193,0.035705972,13,44,-25,-18,52
1693678374312974800,1.011550188,-0.869095206,10.21725559,-0.060353752,0.000666156,-0.007860643,-24,37,80,6,-16,-0.125695586,2.385822058,10.21965027,0.050627869,-0.023049004,0.037038282,13,36,-24,-24,53
1693678374313974800,1.013944387,-0.873883605,10.22683239,-0.059820827,0.00106585,-0.007993874,-30,42,77,6,-15,-0.1316811,2.387019157,10.22802925,0.049428791,-0.024781011,0.038503829,16,36,-16,-26,46
1693678374418911500,1.030703783,-0.85353291,10.22443867,-0.060220521,0.000532925,-0.007727412,-27,44,77,2,-5,-0.10295067,2.437297344,10.25915432,0.054358348,-0.031176111,0.039036751,17,35,-23,-27,42
1693678374419911500,1.028309584,-0.85473001,10.21965027,-0.060220521,0.000266462,-0.007727412,-31,40,84,8,-16,-0.10055647,2.439691544,10.26154804,0.053159267,-0.02904441,0.038370594,13,44,-28,-26,52
1693678374420911500,1.028309584,-0.85473001,10.21366405,-0.059954058,0.000666156,-0.007594181,-28,43,83,2,-16,-0.104147777,2.439691544,10.25915432,0.052359879,-0.027312404,0.03757121,20,40,-23,-23,54
1693678374421911500,1.023521185,-0.852335811,10.20408726,-0.06008729,0.00106585,-0.007594181,-27,39,86,6,-19,-0.107739076,2.434903145,10.24359226,0.051560488,-0.025180703,0.03650536,20,46,-19,-23,53
1693678374422911500,1.024718285,-0.849941611,10.20528507,-0.059954058,0.00106585,-0.007460949,-20,32,76,3,-13,-0.114921682,2.426523447,10.22443867,0.050894335,-0.023448698,0.035705972,20,39,-21,-30,52
1693678374501865100,1.036689281,-0.857124209,10.24838066,-0.06008729,0.001199081,-0.007194487,-12,32,83,7,-13,-0.137666598,2.402581453,10.21127033,0.053292494,-0.03130934,0.040235836,11,41,-27,-20,51
1693678374502865100,1.029506683,-0.849941611,10.22802925,-0.059954058,0.000532925,-0.007594181,-18,64,94,27,5,-0.136469498,2.41455245,10.21845245,0.055024505,-0.034240428,0.040768761,19,40,-19,-23,50
1693678374503865100,1.029506683,-0.847547412,10.22922707,-0.059687596,0.000532925,-0.007460949,-10,64,104,26,8,-0.132878199,2.422932148,10.22204399,0.056223582,-0.03543951,0.040901989,15,35,-19,-19,53
1693678374504865100,1.033097982,-0.848744512,10.23401546,-0.059687596,0.000532925,-0.007194487,-33,41,77,0,-15,-0.119710088,2.432508945,10.23521233,0.056889739,-0.035572741,0.040768761,20,35,-25,-17,52
1693678374505865100,1.030703783,-0.851138711,10.24478912,-0.059820827,0.000799387,-0.007194487,-31,49,91,11,-7,-0.111330383,2.444479942,10.24000072,0.055557426,-0.034107197,0.040369064,20,33,-20,-17,52
1693678374581822900,1.012747288,-0.861912608,10.22802925,-0.060220521,0.000799387,-0.008127105,-6,58,95,22,7,-0.123301387,2.401384354,10.20528507,0.051160797,-0.021716693,0.036105666,16,43,-22,-23,52
1693678374582822900,1.011550188,-0.861912608,10.22922707,-0.060353752,0.00106585,-0.008127105,-6,58,93,18,3,-0.125695586,2.400187254,10.20528507,0.05142726,-0.023182238,0.036771823,15,39,-28,-20,53
1693678374583822900,1.010353088,-0.864306808,10.23042393,-0.060486984,0.000532925,-0.007993874,-27,32,69,6,-13,-0.129286885,2.402581453,10.19929886,0.050627869,-0.025580399,0.037970904,20,44,-17,-18,53
1693678374584822900,1.012747288,-0.865503907,10.22204399,-0.060486984,0.000266462,-0.007860643,-31,48,90,16,-2,-0.1316811,2.400187254,10.1885252,0.051960181,-0.028378254,0.038770292,13,37,-25,-24,55
1693678374585822900,1.013944387,-0.865503907,10.21246719,-0.060220521,0.000133231,-0.007860643,-31,37,79,7,-13,-0.129286885,2.401384354,10.19091988,0.053692192,-0.029977029,0.039169986,17,40,-15,-21,53
1693678374752721700,1.010353088,-0.861912608,10.22204399,-0.059421133,0.000266462,-0.007727412,-24,45,79,7,-9,-0.113724582,2.432508945,10.24478912,0.052626338,-0.029710567,0.038370594,15,42,-25,-24,55
1693678374753721700,1.013944387,-0.860715508,10.23281765,-0.059287902,0.000399694,-0.007594181,-28,42,79,6,-16,-0.111330383,2.436100245,10.23880386,0.052226644,-0.02797856,0.037704438,18,43,-20,-18,54
1693678374754721700,1.017535686,-0.864306808,10.24239445,-0.059421133,0.000399694,-0.007727412,-33,38,84,3,-15,-0.110133275,2.432508945,10.23760605,0.052093416,-0.026379786,0.036771823,20,42,-21,-23,55
1693678374755721700,1.015141487,-0.864306808,10.24838066,-0.059687596,0.000532925,-0.007460949,-33,29,79,2,-14,-0.110133275,2.422932148,10.23042393,0.051693719,-0.025047474,0.036238898,7,40,-21,-26,42
1693678374756721700,1.013944387,-0.863109708,10.24478912,-0.059954058,0.000532925,-0.007460949,-44,32,75,7,-17,-0.110133275,2.41455245,10.22443867,0.051160797,-0.024381317,0.036372125,15,36,-24,-24,48
1693678374946255100,1.019929886,-0.858321309,10.23042393,-0.059554365,0.000932619,-0.007061256,-28,34,90,6,-18,-0.108936176,2.419340849,10.25675964,0.053292494,-0.028777948,0.039036751,20,40,-20,-19,52
1693678374947255100,1.021126986,-0.852335811,10.23042393,-0.059554365,0.001199081,-0.007194487,-27,37,76,-2,-12,-0.10175357,2.426523447,10.25197124,0.053825419,-0.029310873,0.039036751,14,35,-28,-19,53
1693678374948255100,1.018732786,-0.85473001,10.23521233,-0.059687596,0.001199081,-0.007327718,-33,41,81,0,-15,-0.099359371,2.432508945,10.23760605,0.053825419,-0.02917764,0.038370594,14,36,-21,-24,53
1693678374949255100,1.017535686,-0.85473001,10.23521233,-0.059954058,0.001199081,-0.007327718,-30,37,76,6,-12,-0.10055647,2.431311846,10.22204399,0.053425729,-0.02797856,0.03757121,20,30,-25,-27,49
1693678374950255100,1.022324085,-0.85353291,10.23521233,-0.059954058,0.001199081,-0.007460949,-33,39,81,10,-14,-0.099359371,2.422932148,10.21127033,0.0528928,-0.026113322,0.036771823,14,32,-24,-24,55
1693678375022212200,1.025915384,-0.863109708,10.23760605,-0.060353752,0.000133231,-0.007594181,-31,36,78,11,-12,-0.125695586,2.410961151,10.22084713,0.054624807,-0.031042879,0.039036751,24,44,-16,-18,52
1693678375023212200,1.027112484,-0.865503907,10.23880386,-0.060353752,0.000266462,-0.007460949,-28,37,75,4,-16,-0.118512981,2.418143749,10.23521233,0.055690661,-0.033174578,0.039836142,22,33,-17,-21,42
1693678375024212200,1.027112484,-0.865503907,10.23760605,-0.060353752,0.000532925,-0.007460949,-31,35,73,0,-7,-0.106541976,2.427720547,10.24957752,0.055424199,-0.033840735,0.040369064,14,40,-22,-19,50
1693678375025212200,1.027112484,-0.867898107,10.23760605,-0.060486984,0.000932619,-0.007460949,-30,36,85,7,-18,-0.096965171,2.436100245,10.25077438,0.054758042,-0.033174578,0.040235836,17,37,-23,-23,50
1693678375026212200,1.025915384,-0.866701007,10.23281765,-0.060753446,0.000932619,-0.007194487,-24,37,83,3,-13,-0.092176765,2.439691544,10.24718285,0.054225113,-0.03130934,0.039169986,20,40,-29,-20,55
1693678375095169600,1.029506683,-0.864306808,10.22683239,-0.059954058,0.000666156,-0.007460949,-21,47,83,8,-15,-0.123301387,2.420537949,10.21007347,0.050228179,-0.025180703,0.03650536,17,35,-25,-24,48
1693678375096169600,1.028309584,-0.864306808,10.22922707,-0.059820827,0.000799387,-0.007460949,-25,42,80,8,-13,-0.108936176,2.420537949,10.25436592,0.055424199,-0.02917764,0.038637057,15,35,-21,-26,54
1693678375097169600,1.030703783,-0.865503907,10.23281765,-0.059820827,0.000799387,-0.007594181,-33,41,79,4,-17,-0.108936176,2.422932148,10.25556278,0.051960181,-0.027578866,0.039169986,19,33,-23,-33,54
1693678375098169600,1.030703783,-0.867898107,10.23281765,-0.059954058,0.000666156,-0.007460949,-30,38,82,0,-12,-0.113724582,2.427720547,10.23521233,0.049562022,-0.027045943,0.039036751,13,42,-24,-18,51
1693678375099169600,1.030703783,-0.865503907,10.23521233,-0.059954058,0.000666156,-0.007327718,-28,41,79,7,-15,-0.116118781,2.425326347,10.22084713,0.050761104,-0.027312404,0.038104136,20,40,-20,-21,56
1693678375183118900,1.012747288,-0.858321309,10.23281765,-0.059954058,0.000399694,-0.007327718,-30,35,85,2,-16,-0.106541976,2.426523447,10.23521233,0.052093416,-0.027312404,0.038237367,19,37,-19,-22,51
1693678375184118900,1.012747288,-0.85473001,10.23521233,-0.059820827,0.000133231,-0.007327718,-32,33,83,7,-17,-0.105344877,2.426523447,10.22563553,0.05142726,-0.027179174,0.038503829,14,37,-24,-28,48
1693678375185118900,1.015141487,-0.85473001,10.24359226,-0.06008729,0.0,-0.007194487,-31,37,81,7,-15,-0.106541976,2.430114746,10.22802925,0.051560488,-0.027179174,0.038237367,19,32,-23,-21,50
1693678375186118900,1.016338587,-0.851138711,10.24957752,-0.060220521,0.000133231,-0.007194487,-26,36,83,11,-9,-0.105344877,2.425326347,10.23521233,0.052759573,-0.027578866,0.037970904,20,36,-20,-20,46
1693678375187118900,1.015141487,-0.85353291,10.25316906,-0.060220521,0.000666156,-0.007194487,-32,43,77,11,-10,-0.105344877,2.426523447,10.23640919,0.053292494,-0.02797856,0.037970904,20,30,-27,-21,55
1693678375270067900,1.018732786,-0.858321309,10.21246719,-0.060220521,0.00106585,-0.007194487,-26,38,83,4,-6,-0.107739076,2.422932148,10.22922707,0.052359879,-0.027712099,0.037837673,18,36,-23,-24,50
1693678375271067900,1.018732786,-0.859518409,10.22084713,-0.06008729,0.000799387,-0.007194487,-27,42,78,6,-13,-0.105344877,2.422932148,10.22563553,0.052093416,-0.027312404,0.03757121,20,39,-19,-18,52
1693678375272067900,1.019929886,-0.858321309,10.22563553,-0.06008729,0.000532925,-0.007327718,-32,43,79,8,-13,-0.105344877,2.419340849,10.22324085,0.051960181,-0.026779478,0.03757121,20,47,-21,-21,53
1693678375273067900,1.021126986,-0.858321309,10.22802925,-0.060353752,0.000532925,-0.007327718,-27,41,84,6,-13,-0.107739076,2.418143749,10.22563553,0.051960181,-0.02691271,0.037704438,21,43,-16,-18,55
1693678375274067900,1.022324085,-0.85473001,10.23281765,-0.060220521,0.000666156,-0.007061256,-24,42,77,11,-10,-0.111330383,2.41694665,10.22683239,0.051960181,-0.027312404,0.037970904,20,40,-18,-22,54
1693678375346024900,1.017535686,-0.866701007,10.22204399,-0.059687596,0.000266462,-0.007860643,-31,39,79,8,-12,-0.107739076,2.424129248,10.23042393,0.053159267,-0.02917764,0.038637057,19,35,-21,-22,49
1693678375347024900,1.018732786,-0.865503907,10.22683239,-0.059687596,0.00106585,-0.007594181,-27,41,89,6,-18,-0.107739076,2.426523447,10.23401546,0.053558957,-0.028644716,0.038237367,20,39,-21,-20,55
1693678375348024900,1.015141487,-0.860715508,10.22683239,-0.060353752,0.000799387,-0.007460949,-31,26,85,3,-15,-0.107739076,2.427720547,10.23640919,0.053026035,-0.027712099,0.038104136,17,47,-24,-18,53
1693678375349024900,1.012747288,-0.85592711,10.23521233,-0.060620211,0.000133231,-0.007194487,-27,39,83,13,-9,-0.106541976,2.425326347,10.23042393,0.051960181,-0.026646247,0.038104136,7,35,-23,-24,51
1693678375350024900,1.016338587,-0.857124209,10.23281765,-0.060353752,-0.000133231,-0.007327718,-23,43,89,3,-13,-0.111330383,2.424129248,10.22802925,0.05142726,-0.025846859,0.037837673,9,41,-23,-29,55
1693678375421981500,1.013944387,-0.863109708,10.21725559,-0.059954058,0.000932619,-0.007594181,-22,37,77,1,-13,-0.114921682,2.41574955,10.22683239,0.053425729,-0.028911179,0.038503829,17,38,-29,-18,52
1693678375422981500,1.015141487,-0.861912608,10.21366405,-0.059820827,0.00106585,-0.007594181,-30,34,76,6,-18,-0.113724582,2.418143749,10.22802925,0.053292494,-0.028911179,0.038770292,17,40,-22,-22,52
1693678375423981500,1.015141487,-0.860715508,10.21605873,-0.059954058,0.000532925,-0.007460949,-28,38,80,7,-15,-0.108936176,2.420537949,10.23042393,0.0528928,-0.028644716,0.038903523,20,43,-23,-23,53
1693678375424981500,1.017535686,-0.858321309,10.21486187,-0.059954058,0.000266462,-0.007594181,-27,39,76,8,-13,-0.108936176,2.422932148,10.23162079,0.052626338,-0.028378254,0.038770292,15,44,-22,-21,53
1693678375425981500,1.019929886,-0.857124209,10.21366405,-0.059820827,0.000532925,-0.007727412,-30,41,80,11,-12,-0.107739076,2.425326347,10.22922707,0.05249311,-0.02797856,0.038503829,20,37,-23,-32,54
1693678375500937400,1.025915384,-0.85473001,10.23042393,-0.060486984,0.00106585,-0.007061256,-30,43,77,0,-15,-0.119710088,2.424129248,10.23042393,0.0528928,-0.027445635,0.038237367,17,36,-21,-23,55
1693678375501937400,1.024718285,-0.858321309,10.23640919,-0.060486984,0.00106585,-0.007061256,-27,39,79,4,-16,-0.117315881,2.424129248,10.22922707,0.053026035,-0.027845331,0.038370594,9,47,-20,-20,55
1693678375502937400,1.022324085,-0.860715508,10.23162079,-0.060486984,0.000932619,-0.007061256,-24,34,85,11,-12,-0.118512981,2.425326347,10.22922707,0.053026035,-0.02797856,0.038503829,20,40,-20,-18,53
1693678375503937400,1.024718285,-0.860715508,10.23042393,-0.060620211,0.000799387,-0.007061256,-33,30,81,8,-11,-0.119710088,2.425326347,10.23042393,0.053026035,-0.028245023,0.038237367,9,35,-16,-21,44
1693678375504937400,1.028309584,-0.861912608,10.22443867,-0.060620211,0.001199081,-0.007194487,-31,39,81,6,-18,-0.119710088,2.426523447,10.23281765,0.053159267,-0.028245023,0.038237367,7,37,-21,-26,50
1693678375568896700,1.013944387,-0.860715508,10.23281765,-0.06008729,0.000133231,-0.007460949,-33,51,80,3,-17,-0.120907187,2.431311846,10.22443867,0.052759573,-0.027712099,0.038503829,16,42,-24,-19,52
1693678375569896700,1.016338587,-0.863109708,10.22683239,-0.06008729,0.000133231,-0.007460949,-30,38,81,5,-16,-0.119710088,2.430114746,10.22802925,0.052759573,-0.027712099,0.038503829,22,43,-22,-21,53
1693678375570896700,1.019929886,-0.863109708,10.23042393,-0.059954058,0.000266462,-0.007594181,-29,38,84,4,-15,-0.119710088,2.427720547,10.22563553,0.053026035,-0.027712099,0.038370594,15,43,-24,-21,52
1693678375571896700,1.021126986,-0.863109708,10.23042393,-0.059954058,0.000532925,-0.007594181,-29,43,74,12,-7,-0.117315881,2.426523447,10.22683239,0.053292494,-0.027712099,0.038370594,17,40,-17,-23,52
1693678375572896700,1.018732786,-0.864306808,10.23162079,-0.06008729,0.000666156,-0.007327718,-22,43,84,6,-15,-0.114921682,2.427720547,10.22443867,0.053292494,-0.02797856,0.038370594,18,37,-19,-20,55
1693678375652851200,1.011550188,-0.867898107,10.22443867,-0.059954058,0.00106585,-0.007327718,-33,43,87,3,-18,-0.116118781,2.422932148,10.22802925,0.0528928,-0.02797856,0.037837673,20,41,-27,-16,55
1693678375653851200,1.013944387,-0.866701007,10.22922707,-0.059820827,0.00106585,-0.007327718,-30,39,79,9,-12,-0.113724582,2.421735048,10.22563553,0.0528928,-0.02797856,0.037970904,21,44,-20,-24,55
1693678375654851200,1.015141487,-0.867898107,10.22563553,-0.059820827,0.000932619,-0.007327718,-21,35,84,4,-13,-0.116118781,2.420537949,10.22563553,0.052759573,-0.02797856,0.038104136,18,39,-23,-20,52
1693678375655851200,1.012747288,-0.866701007,10.22084713,-0.059954058,0.000932619,-0.007327718,-24,41,78,6,-13,-0.119710088,2.420537949,10.22204399,0.052759573,-0.02797856,0.038104136,17,39,-20,-23,52
1693678375656851200,1.010353088,-0.870292306,10.22084713,-0.059954058,0.00106585,-0.007194487,-26,45,83,6,-13,-0.120907187,2.418143749,10.21486187,0.052759573,-0.02797856,0.038104136,17,37,-16,-25,49
1693678375724857500,1.034295082,-0.871489406,10.23042393,-0.059954058,0.000932619,-0.007860643,-33,38,80,2,-15,-0.107739076,2.41455245,10.23281765,0.0528928,-0.027045943,0.037437979,23,41,-22,-18,55
1693678375725857500,1.036689281,-0.865503907,10.23042393,-0.059954058,0.000799387,-0.007727412,-26,45,84,8,-7,-0.110133275,2.41335535,10.23640919,0.052626338,-0.02691271,0.03757121,13,40,-21,-22,50
1693678375726857500,1.035492182,-0.864306808,10.23521233,-0.06008729,0.000799387,-0.007594181,-19,52,92,18,3,-0.107739076,2.41455245,10.23880386,0.052093416,-0.02691271,0.037837673,17,32,-19,-22,54
1693678375727857500,1.034295082,-0.860715508,10.23042393,-0.059954058,0.000666156,-0.007460949,-5,57,102,26,4,-0.110133275,2.41455245,10.24359226,0.052093416,-0.027045943,0.038370594,14,38,-24,-22,49
1693678375728857500,1.033097982,-0.860715508,10.22922707,-0.059954058,0.000799387,-0.007594181,-19,61,99,16,-18,-0.106541976,2.418143749,10.24000072,0.052359879,-0.027312404,0.038104136,17,35,-29,-27,53
1693678375830481800,1.024718285,-0.860715508,10.21845245,-0.059954058,0.000799387,-0.007993874,-18,55,101,19,3,-0.111330383,2.422932148,10.21605873,0.051826954,-0.026246555,0.037837673,17,41,-20,-21,55
1693678375831481800,1.023521185,-0.858321309,10.22204399,-0.059954058,0.000932619,-0.008127105,-32,42,83,10,-8,-0.108936176,2.420537949,10.21605873,0.052359879,-0.027045943,0.037970904,20,44,-27,-24,52
1693678375832481800,1.022324085,-0.858321309,10.22324085,-0.059954058,0.000799387,-0.007993874,-23,49,91,15,3,-0.108936176,2.422932148,10.21845245,0.052759573,-0.02797856,0.038370594,13,30,-22,-22,50
1693678375833481800,1.022324085,-0.857124209,10.22443867,-0.059954058,0.000799387,-0.007993874,-7,63,95,14,0,-0.111330383,2.421735048,10.21725559,0.053159267,-0.02904441,0.038770292,16,39,-23,-20,52
1693678375834481800,1.023521185,-0.85592711,10.22802925,-0.06008729,0.000799387,-0.007727412,-1,59,103,26,7,-0.110133275,2.424129248,10.21845245,0.053558957,-0.029444104,0.038903523,20,39,-20,-29,54
1693678375942411500,1.015141487,-0.857124209,10.23640919,-0.06008729,0.001598775,-0.007594181,-24,38,83,13,-9,-0.112527482,2.444479942,10.23401546,0.053958651,-0.030243492,0.038903523,21,43,-28,-16,55
1693678375943411500,1.016338587,-0.858321309,10.23162079,-0.06008729,0.001732006,-0.007727412,-31,32,79,14,-15,-0.104147777,2.446874142,10.23521233,0.053159267,-0.02917764,0.038637057,13,40,-18,-26,47
1693678375944411500,1.021126986,-0.85592711,10.23760605,-0.06008729,0.001732006,-0.007727412,-27,43,84,7,-17,-0.10175357,2.444479942,10.23281765,0.052626338,-0.027845331,0.038104136,13,30,-24,-29,29
1693678375945411500,1.021126986,-0.857124209,10.24119759,-0.060353752,0.001732006,-0.007727412,-26,32,76,4,-18,-0.099359371,2.443282843,10.22563553,0.052359879,-0.026513018,0.037304748,18,30,-24,-22,48
1693678375946411500,1.021126986,-0.863109708,10.23281765,-0.060620211,0.001465544,-0.007727412,-30,39,81,3,-16,-0.096965171,2.442085743,10.21845245,0.051960181,-0.025580399,0.036771823,14,37,-25,-19,53
1693678376037358100,1.011550188,-0.858321309,10.24119759,-0.060220521,0.000799387,-0.007594181,-23,41,75,13,-12,-0.116118781,2.412158251,10.21486187,0.054091886,-0.030376723,0.039303213,17,37,-23,-22,61
1693678376038358100,1.013944387,-0.857124209,10.24239445,-0.059954058,0.000932619,-0.007460949,-28,35,78,0,-13,-0.113724582,2.41574955,10.22443867,0.053958651,-0.03011026,0.039036751,13,31,-31,-24,50
1693678376039358100,1.015141487,-0.858321309,10.24239445,-0.059954058,0.000932619,-0.007594181,-26,39,80,3,-7,-0.112527482,2.420537949,10.22922707,0.053026035,-0.028911179,0.038903523,7,30,-27,-26,52
1693678376040358100,1.012747288,-0.85592711,10.23880386,-0.059820827,0.00106585,-0.007594181,-33,39,78,10,-18,-0.111330383,2.425326347,10.22922707,0.052093416,-0.027712099,0.038503829,13,43,-23,-20,54
1693678376041358100,1.009155989,-0.859518409,10.23521233,-0.059820827,0.000799387,-0.007594181,-26,43,79,11,-13,-0.113724582,2.425326347,10.22443867,0.051693719,-0.026646247,0.037837673,23,43,-24,-21,54
1693678376108317500,1.031900883,-0.863109708,10.24359226,-0.059421133,0.001199081,-0.007860643,-28,43,88,10,-17,-0.118512981,2.424129248,10.24478912,0.0528928,-0.028644716,0.038104136,20,44,-21,-16,55
1693678376109317500,1.033097982,-0.863109708,10.23760605,-0.059554365,0.001332312,-0.007727412,-28,38,83,4,-18,-0.117315881,2.425326347,10.24718285,0.053026035,-0.028911179,0.038237367,11,33,-22,-20,45
1693678376110317500,1.029506683,-0.858321309,10.23640919,-0.059687596,0.000932619,-0.007727412,-33,41,77,8,-18,-0.114921682,2.425326347,10.24957752,0.052759573,-0.028644716,0.038237367,18,33,-19,-23,55
1693678376111317500,1.025915384,-0.85592711,10.23401546,-0.059820827,0.000666156,-0.007594181,-30,45,79,3,-15,-0.113724582,2.426523447,10.24359226,0.052759573,-0.02797856,0.038237367,21,37,-28,-28,55
1693678376112317500,1.024718285,-0.85353291,10.22802925,-0.059554365,0.000666156,-0.007727412,-28,39,84,2,-15,-0.112527482,2.427720547,10.23880386,0.052626338,-0.027179174,0.038104136,20,41,-20,-18,55
1693678376174280600,1.012747288,-0.858321309,10.24598598,-0.06008729,0.00106585,-0.007594181,-28,37,75,4,-7,-0.123301387,2.412158251,10.22204399,0.052359879,-0.028111791,0.038104136,11,40,-24,-20,64
1693678376175280600,1.011550188,-0.860715508,10.23880386,-0.059954058,0.000932619,-0.007727412,-24,43,86,7,-15,-0.124498487,2.41335535,10.22683239,0.052626338,-0.028511487,0.038237367,9,40,-21,-26,52
1693678376176280600,1.013944387,-0.859518409,10.23521233,-0.059820827,0.000932619,-0.007594181,-32,33,83,6,-13,-0.120907187,2.41455245,10.23162079,0.0528928,-0.028777948,0.038370594,15,37,-19,-20,54
1693678376177280600,1.012747288,-0.858321309,10.23521233,-0.059954058,0.000799387,-0.007594181,-26,38,85,8,-9,-0.119710088,2.41574955,10.22802925,0.053159267,-0.028777948,0.038370594,20,43,-23,-21,50
1693678376178280600,1.011550188,-0.860715508,10.23401546,-0.059954058,0.000666156,-0.007460949,-24,43,81,7,-13,-0.118512981,2.41335535,10.23042393,0.0528928,-0.028644716,0.038503829,17,30,-25,-20,56
1693678376256234500,1.025915384,-0.863109708,10.23521233,-0.06008729,0.000666156,-0.007860643,-25,39,86,6,-15,-0.123301387,2.427720547,10.23281765,0.052093416,-0.027445635,0.037704438,14,33,-23,-23,52
1693678376257234500,1.022324085,-0.861912608,10.23521233,-0.06008729,0.000666156,-0.007594181,-24,42,79,3,-13,-0.124498487,2.425326347,10.23162079,0.052226644,-0.027445635,0.037837673,16,45,-25,-20,53
1693678376258234500,1.021126986,-0.863109708,10.24000072,-0.06008729,0.000666156,-0.007460949,-36,39,85,6,-15,-0.119710088,2.421735048,10.23042393,0.052359879,-0.027712099,0.037970904,22,40,-18,-29,53
1693678376259234500,1.018732786,-0.863109708,10.24359226,-0.060220521,0.000666156,-0.007594181,-27,45,80,1,-13,-0.117315881,2.422932148,10.23281765,0.05249311,-0.027845331,0.038104136,20,47,-28,-20,55
1693678376260234500,1.019929886,-0.863109708,10.24359226,-0.06008729,0.000666156,-0.007460949,-24,35,79,8,-15,-0.117315881,2.426523447,10.23521233,0.052359879,-0.027845331,0.038104136,21,45,-24,-20,53
1693678376341184900,1.019929886,-0.866701007,10.22443867,-0.06008729,0.000932619,-0.007327718,-33,34,79,2,-14,-0.128089786,2.421735048,10.23401546,0.052359879,-0.028111791,0.038104136,13,39,-31,-23,54
1693678376342184900,1.021126986,-0.863109708,10.21605873,-0.059687596,0.001199081,-0.007460949,-30,37,79,6,-15,-0.126892686,2.422932148,10.23042393,0.052359879,-0.028111791,0.038104136,20,45,-21,-20,54
1693678376343184900,1.018732786,-0.857124209,10.21965027,-0.059687596,0.001332312,-0.007327718,-30,42,79,6,-16,-0.126892686,2.422932148,10.23042393,0.052359879,-0.028245023,0.038104136,18,39,-24,-19,55
1693678376344184900,1.018732786,-0.85592711,10.21965027,-0.059687596,0.00106585,-0.007460949,-29,37,83,7,-14,-0.124498487,2.421735048,10.22802925,0.05249311,-0.028378254,0.037970904,13,39,-23,-19,55
1693678376345184900,1.018732786,-0.85473001,10.22683239,-0.059687596,0.000666156,-0.007327718,-30,65,85,10,-12,-0.124498487,2.418143749,10.23042393,0.052626338,-0.028511487,0.038104136,14,30,-23,-24,53
1693678376425136600,1.00436759,-0.852335811,10.24119759,-0.059687596,0.001332312,-0.007594181,-34,42,75,2,14,-0.119710088,2.419340849,10.22802925,0.052093416,-0.027712099,0.038503829,9,39,-25,-24,51
1693678376426136600,1.00556469,-0.85353291,10.23281765,-0.059820827,0.001465544,-0.007594181,-31,42,78,2,-15,-0.122104287,2.419340849,10.22324085,0.052093416,-0.027712099,0.038370594,20,39,-27,-28,54
1693678376427136600,1.001973391,-0.857124209,10.22802925,-0.059687596,0.001199081,-0.007727412,-23,41,76,8,-11,-0.122104287,2.420537949,10.22443867,0.052226644,-0.027578866,0.038237367,14,56,-19,-18,55
1693678376428136600,1.00317049,-0.857124209,10.22563553,-0.059820827,0.001465544,-0.007727412,-27,38,81,6,-9,-0.119710088,2.421735048,10.22683239,0.052359879,-0.027578866,0.038237367,20,36,-25,-28,52
1693678376429136600,1.001973391,-0.860715508,10.22563553,-0.059820827,0.001732006,-0.007727412,-26,42,88,13,-11,-0.120907187,2.421735048,10.22802925,0.05249311,-0.027712099,0.038370594,20,36,-19,-22,55
1693678376490098500,1.024718285,-0.859518409,10.23281765,-0.059687596,0.000799387,-0.007727412,-26,44,81,2,-17,-0.123301387,2.41335535,10.23281765,0.052226644,-0.027845331,0.037837673,18,43,-25,-16,54
1693678376491098500,1.022324085,-0.857124209,10.22563553,-0.059820827,0.000799387,-0.007727412,-27,32,85,3,-16,-0.123301387,2.410961151,10.23401546,0.052226644,-0.027845331,0.037704438,19,41,-23,-20,55
1693678376492098500,1.019929886,-0.857124209,10.22204399,-0.06008729,0.000666156,-0.007727412,-24,37,82,8,-9,-0.123301387,2.409764051,10.22922707,0.05249311,-0.02797856,0.037837673,20,44,-11,-19,46
1693678376493098500,1.019929886,-0.858321309,10.21965027,-0.060220521,0.000532925,-0.007993874,-28,36,79,6,-13,-0.124498487,2.41335535,10.22563553,0.05249311,-0.02797856,0.037704438,18,37,-25,-27,50
1693678376494098500,1.021126986,-0.857124209,10.21605873,-0.060220521,0.000666156,-0.007993874,-22,41,88,6,-14,-0.120907187,2.41335535,10.22563553,0.052626338,-0.028111791,0.037837673,15,33,-24,-23,49
1693678376606031400,1.022324085,-0.857124209,10.24359226,-0.059687596,0.00106585,-0.007327718,-30,37,78,3,-17,-0.105344877,2.419340849,10.22802925,0.0528928,-0.02797856,0.038370594,20,35,-25,-21,55
1693678376607031400,1.023521185,-0.85473001,10.24239445,-0.059820827,0.00106585,-0.007327718,-35,31,79,3,-16,-0.104147777,2.418143749,10.22922707,0.052759573,-0.02797856,0.038503829,20,46,-20,-20,52
1693678376608031400,1.024718285,-0.85473001,10.24000072,-0.059820827,0.00106585,-0.007327718,-27,39,83,0,-17,-0.106541976,2.420537949,10.23281765,0.052626338,-0.02797856,0.038503829,16,36,-24,-23,52
1693678376609031400,1.027112484,-0.85473001,10.23401546,-0.06008729,0.000799387,-0.007594181,-23,41,80,10,-9,-0.106541976,2.41694665,10.23760605,0.052626338,-0.028111791,0.038503829,15,34,-19,-23,50
1693678376610031400,1.025915384,-0.85592711,10.23640919,-0.059954058,0.000799387,-0.007727412,-28,35,83,6,-15,-0.106541976,2.41694665,10.23760605,0.052626338,-0.02797856,0.038370594,21,42,-23,-16,54
1693678376683987900,1.034295082,-0.864306808,10.22922707,-0.059954058,0.00106585,-0.007594181,-31,34,83,3,-13,-0.119710088,2.41335535,10.22204399,0.052359879,-0.028245023,0.038104136,21,41,-20,-17,55
1693678376684987900,1.035492182,-0.865503907,10.22802925,-0.059954058,0.00106585,-0.007460949,-22,37,73,-2,-17,-0.122104287,2.412158251,10.22204399,0.052359879,-0.028245023,0.038237367,20,39,-27,-18,55
1693678376685987900,1.034295082,-0.864306808,10.22563553,-0.06008729,0.001199081,-0.007727412,-28,38,83,7,-13,-0.122104287,2.412158251,10.22324085,0.052359879,-0.028378254,0.038237367,11,40,-29,-26,47
1693678376686987900,1.034295082,-0.863109708,10.22204399,-0.059954058,0.001332312,-0.007594181,-26,41,73,10,-10,-0.120907187,2.410961151,10.22324085,0.052226644,-0.028245023,0.038370594,17,36,-24,-32,53
1693678376687987900,1.034295082,-0.861912608,10.22084713,-0.059954058,0.001199081,-0.007727412,-31,43,87,6,-16,-0.119710088,2.41335535,10.22084713,0.052226644,-0.028111791,0.038370594,18,40,-23,-23,52
1693678376845894500,1.00317049,-0.861912608,10.23640919,-0.059954058,0.000399694,-0.007727412,-33,38,74,-4,-18,-0.108936176,2.430114746,10.23401546,0.053159267,-0.029577335,0.038770292,18,37,-24,-19,53
1693678376846894500,1.006761789,-0.863109708,10.24000072,-0.059954058,0.000399694,-0.007460949,-24,41,83,3,-13,-0.105344877,2.433706045,10.24239445,0.053292494,-0.02917764,0.038503829,21,30,-23,-26,52
1693678376847894500,1.010353088,-0.864306808,10.23521233,-0.059954058,0.000532925,-0.007460949,-33,37,83,2,-15,-0.105344877,2.437297344,10.24598598,0.052759573,-0.027712099,0.038237367,13,36,-29,-26,52
1693678376848894500,1.010353088,-0.861912608,10.22802925,-0.059820827,0.000399694,-0.007327718,-31,41,83,3,-12,-0.105344877,2.437297344,10.24239445,0.051693719,-0.026646247,0.037970904,18,31,-25,-26,49
1693678376849894500,1.009155989,-0.864306808,10.22802925,-0.059820827,0.000399694,-0.007460949,-35,37,77,9,-13,-0.108936176,2.433706045,10.22324085,0.051027562,-0.025846859,0.037437979,15,45,-25,-15,50
1693678376925848900,1.022324085,-0.864306808,10.23162079,-0.059954058,0.000799387,-0.007327718,-33,35,78,1,-14,-0.134075299,2.409764051,10.22922707,0.053292494,-0.028777948,0.038770292,17,45,-25,-19,66
1693678376926848900,1.022324085,-0.863109708,10.23281765,-0.06008729,0.000932619,-0.007327718,-30,38,81,6,-13,-0.126892686,2.41335535,10.23401546,0.054091886,-0.029977029,0.039303213,17,39,-21,-24,48
1693678376927848900,1.023521185,-0.863109708,10.23042393,-0.06008729,0.000932619,-0.007327718,-22,42,84,11,-13,-0.122104287,2.420537949,10.24478912,0.054358348,-0.030509954,0.03956968,19,46,-20,-27,52
1693678376928848900,1.024718285,-0.863109708,10.23281765,-0.06008729,0.000932619,-0.007327718,-24,39,82,12,-15,-0.119710088,2.426523447,10.24957752,0.054358348,-0.030376723,0.03956968,21,40,-21,-17,52
1693678376929848900,1.021126986,-0.864306808,10.22922707,-0.060220521,0.00106585,-0.007327718,-32,38,75,3,-15,-0.114921682,2.431311846,10.25915432,0.053825419,-0.029843798,0.039036751,20,45,-20,-16,55
1693678376992810600,1.021126986,-0.864306808,10.23162079,-0.06008729,0.000932619,-0.007194487,-26,38,81,12,-16,-0.123301387,2.406172752,10.21845245,0.05142726,-0.024781011,0.036771823,20,35,-25,-18,52
1693678376993810600,1.024718285,-0.860715508,10.23281765,-0.059954058,0.001199081,-0.007194487,-27,38,86,7,-15,-0.126892686,2.400187254,10.21965027,0.052359879,-0.026379786,0.037437979,18,37,-23,-24,55
1693678376994810600,1.023521185,-0.858321309,10.23281765,-0.06008729,0.001199081,-0.007327718,-26,42,90,12,-14,-0.126892686,2.401384354,10.22324085,0.053159267,-0.028378254,0.038370594,19,31,-29,-22,52
1693678376995810600,1.019929886,-0.85592711,10.23281765,-0.06008729,0.001199081,-0.007460949,-31,39,79,8,-12,-0.120907187,2.407369852,10.22683239,0.053958651,-0.030376723,0.039036751,19,39,-19,-20,53
1693678376996810600,1.021126986,-0.858321309,10.23521233,-0.06008729,0.001199081,-0.007594181,-31,43,83,4,-14,-0.118512981,2.41335535,10.23760605,0.054624807,-0.031842265,0.039436448,20,40,-20,-20,52
1693678377067767800,1.019929886,-0.859518409,10.25197124,-0.060486984,0.0021317,-0.007727412,-42,43,81,3,-12,-0.120907187,2.410961151,10.23042393,0.051160797,-0.025447167,0.038503829,19,35,-21,-27,50
1693678377068767800,1.015141487,-0.858321309,10.24718285,-0.060620211,0.001998469,-0.007594181,-30,42,81,4,-13,-0.120907187,2.41335535,10.23281765,0.051960181,-0.026513018,0.038503829,20,35,-28,-20,53
1693678377069767800,1.015141487,-0.858321309,10.24119759,-0.060620211,0.001465544,-0.007594181,-33,41,88,6,-12,-0.120907187,2.41694665,10.24000072,0.053026035,-0.02797856,0.038637057,17,52,-22,-19,50
1693678377070767800,1.013944387,-0.858321309,10.22683239,-0.060620211,0.001465544,-0.007727412,-30,32,85,6,-12,-0.117315881,2.418143749,10.24598598,0.053425729,-0.02917764,0.038770292,20,44,-19,-19,55
1693678377071767800,1.011550188,-0.864306808,10.21845245,-0.060486984,0.001332312,-0.007594181,-26,39,79,6,-9,-0.119710088,2.420537949,10.24957752,0.053825419,-0.029710567,0.038903523,20,36,-20,-26,54
1693678377142093900,1.022324085,-0.863109708,10.23521233,-0.059954058,0.001865237,-0.007727412,-31,42,83,9,-11,-0.114921682,2.41694665,10.22683239,0.050494641,-0.024248086,0.037437979,19,31,-23,-24,48
1693678377143093900,1.021126986,-0.85592711,10.23281765,-0.06008729,0.001465544,-0.007594181,-24,37,90,6,-15,-0.116118781,2.41455245,10.23640919,0.052093416,-0.027179174,0.038637057,14,31,-24,-23,55
1693678377144093900,1.021126986,-0.85592711,10.23880386,-0.060220521,0.00106585,-0.007594181,-24,39,83,6,-13,-0.108936176,2.422932148,10.24000072,0.052359879,-0.028378254,0.039169986,-2,30,-20,-26,44
1693678377145093900,1.024718285,-0.85592711,10.24718285,-0.06008729,0.001465544,-0.007460949,-27,45,85,4,-15,-0.105344877,2.430114746,10.22324085,0.053026035,-0.029310873,0.038637057,9,36,-21,-20,54
1693678377146093900,1.029506683,-0.85473001,10.24478912,-0.059954058,0.0021317,-0.007460949,-33,42,86,2,-14,-0.104147777,2.432508945,10.21366405,0.053692192,-0.02917764,0.037704438,18,44,-20,-20,55
1693678377209054000,1.018732786,-0.849941611,10.23281765,-0.059687596,0.001465544,-0.007327718,-30,37,78,12,-13,-0.123301387,2.404975653,10.22084713,0.052759573,-0.027445635,0.038770292,19,35,-25,-20,55
1693678377210054000,1.022324085,-0.851138711,10.23401546,-0.059954058,0.001465544,-0.007327718,-33,39,83,3,-11,-0.122104287,2.404975653,10.22204399,0.053026035,-0.029710567,0.039702907,14,40,-25,-19,49
1693678377211054000,1.022324085,-0.85353291,10.23640919,-0.059954058,0.001199081,-0.007460949,-30,41,85,4,-15,-0.120907187,2.410961151,10.22443867,0.053558957,-0.03130934,0.03996937,15,44,-25,-22,56
1693678377212054000,1.021126986,-0.85473001,10.24478912,-0.059954058,0.001199081,-0.007460949,-31,42,79,6,-13,-0.120907187,2.41694665,10.23281765,0.054358348,-0.031975497,0.039836142,14,35,-22,-21,52
1693678377213054000,1.021126986,-0.858321309,10.25316906,-0.059687596,0.001199081,-0.007460949,-28,38,75,4,-16,-0.120907187,2.426523447,10.24119759,0.05489127,-0.031709034,0.03956968,17,44,-25,-23,53
1693678377285011800,1.013944387,-0.85353291,10.23162079,-0.059687596,0.000932619,-0.007460949,-24,44,79,7,-14,-0.114921682,2.420537949,10.23162079,0.051826954,-0.02571363,0.037704438,17,43,-24,-23,54
1693678377286011800,1.015141487,-0.85473001,10.23162079,-0.059687596,0.000799387,-0.007460949,-27,51,80,3,-9,-0.118512981,2.419340849,10.23042393,0.051960181,-0.026246555,0.037970904,18,39,-20,-22,50
1693678377287011800,1.016338587,-0.857124209,10.23640919,-0.059820827,0.000532925,-0.007327718,-30,53,85,4,-15,-0.120907187,2.41694665,10.22802925,0.052626338,-0.027045943,0.038104136,13,37,-19,-19,55
1693678377288011800,1.019929886,-0.85473001,10.24359226,-0.059687596,0.000399694,-0.007460949,-28,33,76,0,-14,-0.114921682,2.41574955,10.23042393,0.053026035,-0.02797856,0.038237367,20,33,-20,-22,55
1693678377289011800,1.022324085,-0.85473001,10.25077438,-0.059820827,0.000532925,-0.007460949,-33,41,79,-1,-18,-0.114921682,2.41694665,10.23401546,0.053558957,-0.028911179,0.038637057,14,43,-20,-22,53
1693678377363966900,1.015141487,-0.859518409,10.21725559,-0.060353752,0.000399694,-0.008127105,-31,45,81,8,-13,-0.118512981,2.428917646,10.22204399,0.052626338,-0.027712099,0.037970904,13,31,-29,-23,49
1693678377364966900,1.012747288,-0.860715508,10.21007347,-0.060353752,0.000266462,-0.008127105,-22,35,83,8,-11,-0.120907187,2.427720547,10.22084713,0.052626338,-0.027445635,0.037970904,11,41,-21,-20,50
1693678377365966900,1.015141487,-0.863109708,10.21965027,-0.060486984,0.0,-0.008127105,-24,46,77,10,-15,-0.123301387,2.425326347,10.22324085,0.052626338,-0.027578866,0.037970904,17,36,-23,-27,52
1693678377366966900,1.015141487,-0.860715508,10.22922707,-0.060220521,0.0,-0.008127105,-30,46,77,3,-9,-0.128089786,2.426523447,10.22563553,0.052626338,-0.027445635,0.037970904,18,38,-21,-17,55
1693678377367966900,1.016338587,-0.864306808,10.23640919,-0.06008729,-0.000133231,-0.008260337,-33,33,79,6,-16,-0.125695586,2.422932148,10.22683239,0.05249311,-0.027712099,0.037970904,18,40,-22,-34,55
1693678377438930200,1.012747288,-0.85473001,10.24359226,-0.060353752,0.001199081,-0.007594181,-30,38,83,4,-13,-0.122104287,2.418143749,10.23042393,0.052759573,-0.027445635,0.038104136,15,30,-22,-23,49
1693678377439930200,1.013944387,-0.857124209,10.23880386,-0.060353752,0.001199081,-0.007727412,-31,37,83,7,-7,-0.119710088,2.420537949,10.23281765,0.052759573,-0.027578866,0.037970904,19,39,-19,-23,50
1693678377440930200,1.013944387,-0.857124209,10.23640919,-0.060220521,0.001199081,-0.007594181,-22,43,81,7,-9,-0.119710088,2.419340849,10.23640919,0.052759573,-0.027712099,0.038104136,20,43,-21,-21,55
1693678377441930200,1.017535686,-0.861912608,10.24000072,-0.06008729,0.001332312,-0.007594181,-32,38,83,4,-16,-0.120907187,2.418143749,10.23281765,0.052759573,-0.027845331,0.038104136,19,40,-23,-27,53
1693678377442930200,1.016338587,-0.859518409,10.23521233,-0.060353752,0.001199081,-0.007594181,-26,37,84,5,-12,-0.120907187,2.421735048,10.23401546,0.052759573,-0.027845331,0.038237367,17,43,-24,-24,53
1693678377520884700,1.013944387,-0.863109708,10.23401546,-0.060486984,0.000532925,-0.007460949,-27,37,83,11,-15,-0.114921682,2.418143749,10.23880386,0.052359879,-0.027578866,0.038104136,17,32,-23,-20,55
