,timestamp,right_data_Ac_X,right_data_Ac_Y,right_data_Ac_Z,right_data_Gy_X,right_data_Gy_Y,right_data_Gy_Z,right_data_flex_1,right_data_flex_2,right_data_flex_3,right_data_flex_4,right_data_flex_5
0,1693677708348639400,-0.10175357,2.420537949,10.23880386,0.05595712,-0.026113322,0.036905054,13,43,-26,-23,50
1,1693677708349639400,-0.093373865,2.418143749,10.23281765,0.054358348,-0.024647778,0.036905054,13,36,-29,-28,49
2,1693677708350639400,-0.098162271,2.419340849,10.21366405,0.052226644,-0.023715161,0.037038282,15,33,-24,-24,45
3,1693677708351639400,-0.105344877,2.41574955,10.19091988,0.052093416,-0.023448698,0.036372125,8,36,-26,-33,48
4,1693677708352639400,-0.107739076,2.406172752,10.1789484,0.053692192,-0.023049004,0.036105666,6,36,-34,-33,45
0,1693677708377622500,-0.118512981,2.406172752,10.22324085,0.056356817,-0.029977029,0.038903523,18,33,-21,-24,53
1,1693677708378622500,-0.117315881,2.41335535,10.22563553,0.056223582,-0.03011026,0.039303213,20,30,-27,-23,48
2,1693677708379622500,-0.111330383,2.418143749,10.23162079,0.056090351,-0.029444104,0.039036751,14,32,-31,-28,49
3,1693677708380622500,-0.110133275,2.421735048,10.23880386,0.055690661,-0.02797856,0.038503829,10,28,-31,-29,48
4,1693677708381622500,-0.112527482,2.418143749,10.24119759,0.054624807,-0.026513018,0.037837673,19,42,-15,-26,50
0,1693677708406606200,-0.118512981,2.388216257,10.21246719,0.054491576,-0.026513018,0.03757121,15,35,-27,-28,48
1,1693677708407606200,-0.117315881,2.389413357,10.22204399,0.055290964,-0.027445635,0.037704438,8,36,-29,-24,28
2,1693677708408606200,-0.117315881,2.390610456,10.22563553,0.055157732,-0.028111791,0.037970904,17,30,-29,-33,48
3,1693677708409606200,-0.116118781,2.395398855,10.22084713,0.054758042,-0.028378254,0.038237367,18,28,-32,-28,48
4,1693677708410606200,-0.114921682,2.398990154,10.21965027,0.054758042,-0.028378254,0.038370594,13,44,-28,-19,50
0,1693677708434592300,-0.108936176,2.403778553,10.20528507,0.053558957,-0.025846859,0.037704438,15,29,-23,-31,50
1,1693677708435592300,-0.106541976,2.408566952,10.21127033,0.053692192,-0.026113322,0.037837673,15,35,-31,-27,45
2,1693677708436592300,-0.112527482,2.410961151,10.21246719,0.053958651,-0.026513018,0.037704438,14,40,-34,-31,46
3,1693677708437592300,-0.113724582,2.409764051,10.21366405,0.054091886,-0.026779478,0.037970904,15,35,-28,-28,50
4,1693677708438592300,-0.112527482,2.409764051,10.21127033,0.054358348,-0.02691271,0.038104136,16,33,-23,-24,54
0,1693677708458576700,-0.112527482,2.410961151,10.20528507,0.054225113,-0.025980091,0.037970904,18,41,-25,-27,52
1,1693677708459576700,-0.113724582,2.408566952,10.20169353,0.054358348,-0.026113322,0.037970904,13,30,-28,-24,40
2,1693677708460576700,-0.113724582,2.407369852,10.20169353,0.054358348,-0.026113322,0.037837673,20,34,-23,-24,49
3,1693677708461576700,-0.111330383,2.409764051,10.20169353,0.054491576,-0.026113322,0.037970904,20,37,-25,-27,53
4,1693677708462576700,-0.111330383,2.412158251,10.20408726,0.054491576,-0.026113322,0.037970904,20,47,-21,-24,55
0,1693677708479566000,-0.106541976,2.420537949,10.21605873,0.054624807,-0.02691271,0.037704438,10,36,-24,-28,46
1,1693677708480566000,-0.10175357,2.418143749,10.21366405,0.054491576,-0.026379786,0.03757121,20,30,-28,-18,48
2,1693677708481566000,-0.10175357,2.41574955,10.20887566,0.054358348,-0.025846859,0.037437979,13,39,-21,-23,55
3,1693677708482566000,-0.10295067,2.41694665,10.20408726,0.053958651,-0.025447167,0.037304748,19,41,-20,-21,55
4,1693677708483566000,-0.105344877,2.41694665,10.20049667,0.054091886,-0.025447167,0.037304748,6,35,-29,-31,55
0,1693677708499553000,-0.108936176,2.420537949,10.22324085,0.05489127,-0.027445635,0.037970904,6,31,-24,-33,44
1,1693677708500553000,-0.110133275,2.419340849,10.22084713,0.055024505,-0.027445635,0.037970904,9,36,-21,-26,48
2,1693677708501553000,-0.110133275,2.419340849,10.21366405,0.05489127,-0.027179174,0.038237367,11,40,-25,-24,54
3,1693677708502553000,-0.107739076,2.420537949,10.21127033,0.054225113,-0.026779478,0.038104136,20,37,-21,-19,46
4,1693677708503553000,-0.107739076,2.419340849,10.21246719,0.054091886,-0.026379786,0.038104136,-9,41,-29,-27,50
0,1693677708520541400,-0.114921682,2.410961151,10.21366405,0.054491576,-0.027045943,0.038370594,15,31,-31,-29,46
1,1693677708521541400,-0.111330383,2.409764051,10.21725559,0.054758042,-0.027312404,0.038503829,15,35,-25,-28,49
2,1693677708522541400,-0.111330383,2.409764051,10.21366405,0.054758042,-0.027312404,0.038503829,13,37,-29,-24,54
3,1693677708523541400,-0.110133275,2.412158251,10.21127033,0.05489127,-0.027445635,0.038370594,13,35,-21,-22,48
4,1693677708524541400,-0.108936176,2.412158251,10.20767879,0.054758042,-0.027312404,0.038370594,10,31,-20,-30,48
0,1693677708539531800,-0.116118781,2.406172752,10.21725559,0.054225113,-0.026113322,0.038104136,9,31,-29,-21,50
1,1693677708540531800,-0.118512981,2.408566952,10.21725559,0.054358348,-0.026513018,0.038370594,18,41,-28,-32,51
2,1693677708541531800,-0.119710088,2.409764051,10.21605873,0.054358348,-0.02691271,0.038370594,16,36,-19,-24,55
3,1693677708542531800,-0.120907187,2.412158251,10.21007347,0.054758042,-0.027445635,0.038237367,15,36,-27,-30,51
4,1693677708543531800,-0.117315881,2.412158251,10.20408726,0.05489127,-0.027578866,0.038104136,19,39,-29,-27,55
0,1693677708557521600,-0.106541976,2.418143749,10.20887566,0.054624807,-0.027712099,0.038237367,10,35,-26,-32,52
1,1693677708558521600,-0.108936176,2.421735048,10.20648193,0.054624807,-0.027578866,0.038237367,17,40,-24,-23,50
2,1693677708559521600,-0.107739076,2.421735048,10.21127033,0.054624807,-0.027312404,0.037970904,18,43,-23,-25,50
3,1693677708560521600,-0.105344877,2.422932148,10.21486187,0.054491576,-0.02691271,0.037704438,16,30,-27,-30,52
4,1693677708561521600,-0.10295067,2.422932148,10.21605873,0.054358348,-0.026513018,0.037704438,11,32,-24,-24,46
0,1693677708573512800,-0.106541976,2.410961151,10.22683239,0.055024505,-0.02691271,0.03757121,11,41,-21,-29,55
1,1693677708574512800,-0.10295067,2.409764051,10.22084713,0.055024505,-0.027179174,0.037704438,17,37,-19,-32,52
2,1693677708575512800,-0.105344877,2.41335535,10.22084713,0.054758042,-0.027179174,0.037704438,20,39,-25,-27,46
3,1693677708576512800,-0.10295067,2.41335535,10.22324085,0.054624807,-0.027045943,0.037704438,17,37,-23,-24,50
4,1693677708577512800,-0.10175357,2.41455245,10.21965027,0.054758042,-0.026779478,0.037837673,13,32,-23,-22,42
0,1693677708591498800,-0.117315881,2.404975653,10.2028904,0.054758042,-0.026513018,0.038237367,20,45,-22,-18,55
1,1693677708592498800,-0.116118781,2.407369852,10.20767879,0.055157732,-0.027312404,0.038370594,13,32,-22,-28,50
2,1693677708593498800,-0.114921682,2.410961151,10.20648193,0.055290964,-0.027712099,0.038637057,14,30,-25,-27,48
3,1693677708594498800,-0.113724582,2.410961151,10.20887566,0.055024505,-0.027578866,0.038770292,10,30,-25,-29,50
4,1693677708595498800,-0.113724582,2.41335535,10.20648193,0.05489127,-0.027578866,0.038770292,15,35,-25,-24,50
0,1693677708612488400,-0.125695586,2.408566952,10.20408726,0.055424199,-0.028378254,0.037970904,13,45,-32,-22,53
1,1693677708613488400,-0.122104287,2.408566952,10.2028904,0.055157732,-0.028777948,0.038370594,13,35,-23,-27,49
2,1693677708614488400,-0.120907187,2.410961151,10.20049667,0.054491576,-0.028644716,0.038370594,15,39,-29,-24,48
3,1693677708615488400,-0.123301387,2.41574955,10.19451046,0.054225113,-0.028111791,0.038370594,19,34,-25,-26,49
4,1693677708616488400,-0.122104287,2.41574955,10.1933136,0.054225113,-0.027179174,0.037837673,10,36,-31,-33,51
0,1693677708630479900,-0.118512981,2.407369852,10.20528507,0.054491576,-0.026646247,0.037704438,20,33,-24,-26,50
1,1693677708631479900,-0.117315881,2.409764051,10.20528507,0.05489127,-0.027312404,0.03757121,19,37,-24,-36,46
2,1693677708632479900,-0.119710088,2.410961151,10.21845245,0.055157732,-0.027578866,0.037970904,10,34,-31,-28,45
3,1693677708633479900,-0.117315881,2.410961151,10.22324085,0.055690661,-0.027578866,0.038370594,10,39,-28,-24,50
4,1693677708634479900,-0.117315881,2.41574955,10.22443867,0.054491576,-0.028245023,0.038637057,11,36,-22,-18,52
0,1693677708653466300,-0.105344877,2.424129248,10.22324085,0.054624807,-0.026113322,0.036905054,17,40,-25,-26,60
1,1693677708654466300,-0.105344877,2.421735048,10.22443867,0.053958651,-0.024514547,0.036372125,18,36,-22,-32,47
2,1693677708655466300,-0.111330383,2.41574955,10.22324085,0.053026035,-0.023315467,0.036105666,15,39,-24,-27,45
3,1693677708656466300,-0.114921682,2.409764051,10.21725559,0.052359879,-0.022649311,0.036238898,13,33,-23,-23,49
4,1693677708657466300,-0.120907187,2.404975653,10.21127033,0.052759573,-0.023182238,0.03650536,17,34,-20,-27,50
0,1693677708677453500,-0.113724582,2.422932148,10.21725559,0.055157732,-0.028111791,0.038104136,13,30,-23,-20,47
1,1693677708678453500,-0.113724582,2.424129248,10.21845245,0.055157732,-0.02797856,0.038104136,11,37,-25,-25,48
2,1693677708679453500,-0.112527482,2.426523447,10.21965027,0.054624807,-0.027045943,0.037704438,13,30,-23,-30,44
3,1693677708680453500,-0.113724582,2.425326347,10.21725559,0.053958651,-0.026379786,0.037437979,13,43,-23,-19,51
4,1693677708681453500,-0.112527482,2.426523447,10.21366405,0.053558957,-0.025447167,0.037171517,17,41,-28,-23,54
0,1693677708697441200,-0.122104287,2.409764051,10.19211674,0.053825419,-0.023448698,0.03650536,9,29,-25,-33,44
1,1693677708698441200,-0.123301387,2.407369852,10.19570827,0.054091886,-0.02358193,0.036905054,13,39,-25,-26,49
2,1693677708699441200,-0.123301387,2.404975653,10.20648193,0.054225113,-0.024114855,0.03757121,13,37,-25,-25,49
3,1693677708700441200,-0.125695586,2.406172752,10.21246719,0.054225113,-0.025180703,0.038237367,-11,37,-15,-23,55
4,1693677708701441200,-0.123301387,2.408566952,10.21486187,0.054491576,-0.026646247,0.038637057,17,41,-23,-28,54
0,1693677708722425900,-0.104147777,2.419340849,10.20887566,0.054758042,-0.027445635,0.037970904,19,29,-25,-26,49
1,1693677708723425900,-0.10295067,2.418143749,10.20767879,0.053958651,-0.02571363,0.037171517,13,32,-22,-24,52
2,1693677708724425900,-0.105344877,2.41335535,10.20648193,0.053558957,-0.024514547,0.036771823,14,39,-17,-22,48
3,1693677708725425900,-0.108936176,2.404975653,10.20648193,0.053159267,-0.02384839,0.036771823,17,43,-23,-22,54
4,1693677708726425900,-0.113724582,2.398990154,10.20887566,0.053026035,-0.02384839,0.037038282,16,43,-23,-20,54
0,1693677708743415100,-0.108936176,2.410961151,10.20767879,0.055290964,-0.02691271,0.038503829,15,33,-31,-28,44
1,1693677708744415100,-0.105344877,2.410961151,10.20648193,0.055024505,-0.026646247,0.038370594,18,33,-23,-26,53
2,1693677708745415100,-0.105344877,2.410961151,10.21007347,0.054624807,-0.026113322,0.038370594,15,35,-13,-19,52
3,1693677708746415100,-0.10175357,2.410961151,10.21725559,0.054491576,-0.02571363,0.038104136,16,35,-29,-30,46
4,1693677708747415100,-0.10055647,2.409764051,10.22084713,0.054225113,-0.025313934,0.037970904,13,36,-31,-27,52
0,1693677708760404400,-0.111330383,2.410961151,10.19929886,0.054225113,-0.025980091,0.037970904,17,40,-18,-24,53
1,1693677708761404400,-0.108936176,2.41455245,10.19690514,0.053159267,-0.026779478,0.038104136,20,40,-25,-26,53
2,1693677708762404400,-0.107739076,2.418143749,10.19929886,0.053692192,-0.027179174,0.037970904,18,42,-24,-27,54
3,1693677708763404400,-0.108936176,2.419340849,10.21007347,0.055557426,-0.027312404,0.037704438,19,33,-28,-24,48
4,1693677708764404400,-0.105344877,2.422932148,10.22324085,0.055690661,-0.027312404,0.03757121,19,30,-28,-33,52
0,1693677708778396000,-0.118512981,2.410961151,10.21605873,0.053825419,-0.025846859,0.037704438,14,40,-28,-23,50
1,1693677708779396000,-0.118512981,2.407369852,10.21965027,0.054624807,-0.026246555,0.037304748,20,46,-23,-20,53
2,1693677708780396000,-0.117315881,2.406172752,10.22563553,0.05489127,-0.026779478,0.037437979,17,31,-24,-20,52
3,1693677708781396000,-0.114921682,2.402581453,10.22683239,0.054758042,-0.027578866,0.037704438,9,39,-27,-20,54
4,1693677708782396000,-0.116118781,2.403778553,10.22443867,0.054624807,-0.027712099,0.037970904,15,35,-33,-33,51
0,1693677708795385700,-0.113724582,2.406172752,10.21007347,0.053692192,-0.027179174,0.038503829,9,36,-24,-20,48
1,1693677708796385700,-0.108936176,2.410961151,10.21845245,0.05595712,-0.027845331,0.038237367,18,40,-19,-27,53
2,1693677708797385700,-0.107739076,2.412158251,10.22802925,0.056623276,-0.027712099,0.037970904,19,35,-24,-22,52
3,1693677708798385700,-0.10295067,2.41455245,10.23162079,0.055823889,-0.027312404,0.037837673,18,30,-33,-28,50
4,1693677708799385700,-0.106541976,2.412158251,10.21246719,0.054358348,-0.02691271,0.037704438,13,35,-23,-28,52
0,1693677708836358700,-0.104147777,2.428917646,10.24119759,0.056223582,-0.029444104,0.038503829,18,31,-29,-33,47
1,1693677708837358700,-0.099359371,2.430114746,10.24598598,0.055024505,-0.027578866,0.037704438,18,32,-23,-26,44
2,1693677708838358700,-0.10175357,2.430114746,10.23281765,0.053425729,-0.025447167,0.036771823,18,36,-23,-24,52
3,1693677708839358700,-0.104147777,2.425326347,10.21246719,0.0528928,-0.023182238,0.035572741,16,40,-24,-20,55
4,1693677708840358700,-0.104147777,2.410961151,10.1933136,0.052759573,-0.021450229,0.034906585,11,37,-28,-23,49
0,1693677708854349100,-0.110133275,2.396595955,10.20887566,0.055424199,-0.028245023,0.037970904,17,33,-30,-27,45
1,1693677708855349100,-0.107739076,2.401384354,10.21127033,0.05595712,-0.029843798,0.038903523,15,35,-25,-22,53
2,1693677708856349100,-0.104147777,2.408566952,10.21605873,0.056623276,-0.030243492,0.039036751,15,36,-20,-23,54
3,1693677708857349100,-0.099359371,2.41694665,10.22563553,0.056356817,-0.029710567,0.039036751,17,45,-23,-20,48
4,1693677708858349100,-0.098162271,2.425326347,10.23042393,0.055557426,-0.028511487,0.038237367,15,36,-24,-22,48
0,1693677708878337400,-0.118512981,2.406172752,10.20169353,0.053558957,-0.023981623,0.036771823,17,43,-25,-27,48
1,1693677708879337400,-0.119710088,2.402581453,10.2028904,0.053825419,-0.024381317,0.036771823,20,41,-17,-27,51
2,1693677708880337400,-0.120907187,2.400187254,10.2028904,0.053958651,-0.024781011,0.036905054,16,41,-20,-19,55
3,1693677708881337400,-0.122104287,2.402581453,10.198102,0.054091886,-0.02571363,0.037171517,18,41,-28,-26,53
4,1693677708882337400,-0.122104287,2.402581453,10.19690514,0.054491576,-0.026379786,0.037304748,14,36,-28,-20,49
0,1693677708902344900,-0.110133275,2.41694665,10.20408726,0.053958651,-0.026246555,0.037704438,7,29,-25,-28,30
1,1693677708903344900,-0.112527482,2.418143749,10.20528507,0.053825419,-0.025980091,0.037704438,16,46,-24,-26,55
2,1693677708904344900,-0.112527482,2.420537949,10.20049667,0.054091886,-0.025580399,0.03757121,17,37,-25,-27,49
3,1693677708905344900,-0.113724582,2.418143749,10.20169353,0.053958651,-0.02571363,0.037437979,6,33,-29,-33,49
4,1693677708906344900,-0.112527482,2.41694665,10.2028904,0.053958651,-0.025580399,0.037437979,9,35,-28,-26,45
0,1693677708921310000,-0.108936176,2.406172752,10.20887566,0.054491576,-0.026246555,0.038104136,15,31,-24,-24,52
1,1693677708922310000,-0.111330383,2.403778553,10.20648193,0.054624807,-0.026379786,0.038104136,22,35,-21,-21,53
2,1693677708923310000,-0.113724582,2.407369852,10.20648193,0.054624807,-0.026513018,0.037970904,15,37,-27,-22,46
3,1693677708924310000,-0.112527482,2.408566952,10.20408726,0.054758042,-0.026513018,0.037837673,19,34,-21,-28,45
4,1693677708925310000,-0.112527482,2.409764051,10.2028904,0.05489127,-0.026513018,0.037837673,17,44,-25,-24,52
0,1693677708940303400,-0.126892686,2.407369852,10.20528507,0.05489127,-0.026379786,0.037837673,14,39,-20,-26,50
1,1693677708941303400,-0.128089786,2.409764051,10.20648193,0.054758042,-0.026513018,0.037837673,19,42,-23,-30,54
2,1693677708942303400,-0.126892686,2.409764051,10.20887566,0.05489127,-0.026646247,0.037837673,16,40,-22,-29,54
3,1693677708943303400,-0.124498487,2.408566952,10.20648193,0.054624807,-0.026646247,0.037970904,19,30,-26,-33,48
4,1693677708944303400,-0.124498487,2.410961151,10.2028904,0.054624807,-0.026779478,0.037837673,13,36,-25,-24,50
0,1693677708960290400,-0.111330383,2.41574955,10.20767879,0.054758042,-0.026246555,0.037704438,22,35,-25,-19,51
1,1693677708961290400,-0.106541976,2.41455245,10.2028904,0.054758042,-0.026246555,0.037970904,25,32,-21,-23,48
2,1693677708962290400,-0.108936176,2.412158251,10.2028904,0.054758042,-0.026246555,0.037837673,18,35,-31,-30,38
3,1693677708963290400,-0.107739076,2.41455245,10.20408726,0.054758042,-0.026246555,0.037704438,11,30,-31,-31,48
4,1693677708964290400,-0.107739076,2.41455245,10.20049667,0.054758042,-0.026379786,0.03757121,14,36,-25,-22,51
0,1693677708981277200,-0.112527482,2.403778553,10.20767879,0.054758042,-0.026379786,0.037704438,16,39,-25,-21,51
1,1693677708982277200,-0.114921682,2.404975653,10.20528507,0.054758042,-0.026379786,0.037704438,19,32,-27,-26,55
2,1693677708983277200,-0.112527482,2.406172752,10.20767879,0.05489127,-0.026379786,0.037704438,10,36,-23,-30,50
3,1693677708984277200,-0.113724582,2.406172752,10.20528507,0.054758042,-0.026246555,0.037704438,14,31,-31,-27,52
4,1693677708985277200,-0.112527482,2.404975653,10.20648193,0.054491576,-0.026113322,0.037704438,17,41,-27,-24,55
0,1693677709001267500,-0.116118781,2.410961151,10.21246719,0.054758042,-0.026379786,0.037837673,20,34,-27,-28,51
1,1693677709002267500,-0.117315881,2.409764051,10.21007347,0.054758042,-0.026379786,0.037970904,-9,32,-23,-28,50
2,1693677709003267500,-0.117315881,2.412158251,10.21486187,0.054758042,-0.026379786,0.037837673,-3,31,-25,-26,46
3,1693677709004267500,-0.117315881,2.410961151,10.21246719,0.05489127,-0.026513018,0.037704438,17,33,-25,-23,51
4,1693677709005267500,-0.117315881,2.409764051,10.21246719,0.05489127,-0.026379786,0.037704438,15,39,-30,-18,55
0,1693677709019254700,-0.124498487,2.406172752,10.20528507,0.054491576,-0.026513018,0.037970904,17,39,-23,-24,49
1,1693677709020254700,-0.122104287,2.404975653,10.20169353,0.054758042,-0.026513018,0.037970904,19,30,-30,-27,54
2,1693677709021254700,-0.124498487,2.403778553,10.19929886,0.054624807,-0.026513018,0.037837673,18,34,-26,-27,52
3,1693677709022254700,-0.122104287,2.404975653,10.20049667,0.054758042,-0.026246555,0.037704438,18,36,-28,-20,52
4,1693677709023254700,-0.118512981,2.408566952,10.20648193,0.054758042,-0.026113322,0.03757121,17,41,-27,-26,55
0,1693677709038244900,-0.110133275,2.410961151,10.20408726,0.054758042,-0.026513018,0.037704438,12,31,-29,-27,52
1,1693677709039244900,-0.111330383,2.408566952,10.20528507,0.054758042,-0.026646247,0.037704438,14,31,-31,-24,48
2,1693677709040244900,-0.111330383,2.406172752,10.21007347,0.054758042,-0.026779478,0.037704438,19,37,-29,-20,49
3,1693677709041244900,-0.110133275,2.406172752,10.20767879,0.054758042,-0.02691271,0.037704438,20,41,-19,-27,52
4,1693677709042244900,-0.108936176,2.409764051,10.20169353,0.055024505,-0.02691271,0.03757121,15,42,-22,-27,48
0,1693677709060231500,-0.110133275,2.41455245,10.20648193,0.054491576,-0.026513018,0.037437979,6,39,-29,-30,45
1,1693677709061231500,-0.112527482,2.41455245,10.20528507,0.054624807,-0.026513018,0.037437979,14,31,-21,-23,54
2,1693677709062231500,-0.113724582,2.41455245,10.20767879,0.054491576,-0.026513018,0.037437979,14,40,-24,-24,51
3,1693677709063231500,-0.116118781,2.41455245,10.20528507,0.054491576,-0.026513018,0.037437979,19,30,-21,-22,55
4,1693677709064231500,-0.113724582,2.41694665,10.20408726,0.054358348,-0.026646247,0.03757121,13,31,-24,-30,50
0,1693677709079219600,-0.112527482,2.41455245,10.20528507,0.054758042,-0.026379786,0.037837673,15,39,-23,-24,49
1,1693677709080219600,-0.112527482,2.41455245,10.20767879,0.054758042,-0.026246555,0.037837673,19,39,-28,-27,49
2,1693677709081219600,-0.111330383,2.41335535,10.20767879,0.05489127,-0.026113322,0.037837673,19,31,-31,-28,48
3,1693677709082219600,-0.113724582,2.41455245,10.20887566,0.054758042,-0.025980091,0.037704438,20,37,-24,-27,52
4,1693677709083219600,-0.111330383,2.41455245,10.21127033,0.054758042,-0.025846859,0.037704438,9,44,-21,-28,54
0,1693677709097210600,-0.111330383,2.41455245,10.21605873,0.05489127,-0.027045943,0.037970904,13,30,-25,-23,52
1,1693677709098210600,-0.108936176,2.41574955,10.21486187,0.054624807,-0.026646247,0.037837673,15,33,-30,-32,50
2,1693677709099210600,-0.107739076,2.41335535,10.21605873,0.054491576,-0.026379786,0.037704438,9,33,-21,-24,51
3,1693677709100210600,-0.10295067,2.410961151,10.21965027,0.054358348,-0.026113322,0.03757121,19,41,-25,-19,49
4,1693677709101210600,-0.106541976,2.408566952,10.21605873,0.054225113,-0.025846859,0.03757121,17,32,-27,-31,55
0,1693677709117199200,-0.119710088,2.402581453,10.21965027,0.054358348,-0.026646247,0.038104136,20,43,-27,-27,50
1,1693677709118199200,-0.117315881,2.403778553,10.21845245,0.054491576,-0.026513018,0.038237367,17,40,-25,-22,46
2,1693677709119199200,-0.120907187,2.404975653,10.21965027,0.054624807,-0.026246555,0.038370594,17,39,-23,-28,49
3,1693677709120199200,-0.119710088,2.407369852,10.21725559,0.054758042,-0.026246555,0.038370594,21,39,-21,-20,54
4,1693677709121199200,-0.119710088,2.408566952,10.21845245,0.054758042,-0.026113322,0.038237367,20,40,-17,-21,50
0,1693677709135188700,-0.108936176,2.408566952,10.22563553,0.054358348,-0.02691271,0.037437979,16,35,-25,-28,50
1,1693677709136188700,-0.110133275,2.407369852,10.22802925,0.054491576,-0.02691271,0.03757121,11,35,-29,-31,44
2,1693677709137188700,-0.107739076,2.406172752,10.22802925,0.054491576,-0.02691271,0.037704438,11,37,-29,-28,48
3,1693677709138188700,-0.107739076,2.409764051,10.22683239,0.054491576,-0.026646247,0.037704438,19,31,-25,-26,53
4,1693677709139188700,-0.112527482,2.410961151,10.22204399,0.054491576,-0.026779478,0.037837673,14,36,-23,-18,41
0,1693677709153178500,-0.124498487,2.41335535,10.20887566,0.054758042,-0.026379786,0.037837673,10,33,-27,-31,48
1,1693677709154178500,-0.124498487,2.410961151,10.21246719,0.05489127,-0.026379786,0.037837673,10,31,-29,-23,46
2,1693677709155178500,-0.122104287,2.412158251,10.21486187,0.054758042,-0.026513018,0.037837673,11,30,-29,-22,48
3,1693677709156178500,-0.122104287,2.412158251,10.21845245,0.05489127,-0.026379786,0.037970904,18,33,-25,-31,46
4,1693677709157178500,-0.119710088,2.412158251,10.21965027,0.05489127,-0.026379786,0.037970904,13,30,-25,-24,49
0,1693677709171169900,-0.116118781,2.421735048,10.20169353,0.054358348,-0.026379786,0.037704438,6,30,-29,-27,43
1,1693677709172169900,-0.117315881,2.422932148,10.198102,0.054491576,-0.026379786,0.037837673,13,26,-23,-27,42
2,1693677709173169900,-0.116118781,2.421735048,10.20049667,0.054491576,-0.026379786,0.037837673,17,36,-28,-26,46
3,1693677709174169900,-0.113724582,2.419340849,10.20169353,0.054491576,-0.026379786,0.037704438,14,36,-25,-32,48
4,1693677709175169900,-0.111330383,2.420537949,10.20648193,0.054358348,-0.026246555,0.037704438,13,32,-29,-28,48
0,1693677709189159000,-0.110133275,2.41335535,10.22084713,0.054225113,-0.026246555,0.037704438,19,30,-27,-28,45
1,1693677709190159000,-0.111330383,2.41455245,10.22204399,0.054358348,-0.026246555,0.037837673,7,33,-24,-26,45
2,1693677709191159000,-0.111330383,2.418143749,10.22204399,0.054358348,-0.026113322,0.037970904,19,40,-29,-26,50
3,1693677709192159000,-0.111330383,2.41694665,10.22324085,0.054358348,-0.025846859,0.037837673,22,34,-21,-20,49
4,1693677709193159000,-0.110133275,2.41335535,10.22084713,0.054624807,-0.025846859,0.037837673,17,37,-29,-31,50
0,1693677709205147800,-0.110133275,2.403778553,10.20767879,0.05489127,-0.026113322,0.037970904,20,31,-31,-20,50
1,1693677709206147800,-0.113724582,2.404975653,10.21007347,0.054758042,-0.026113322,0.037837673,17,39,-24,-27,48
2,1693677709207147800,-0.114921682,2.408566952,10.21246719,0.054758042,-0.026379786,0.037837673,13,40,-27,-23,52
3,1693677709208147800,-0.112527482,2.406172752,10.21127033,0.054758042,-0.026246555,0.037837673,20,35,-24,-24,49
4,1693677709209147800,-0.113724582,2.409764051,10.20648193,0.054758042,-0.026513018,0.037704438,18,30,-31,-20,48
0,1693677709224139800,-0.118512981,2.409764051,10.21725559,0.054624807,-0.025980091,0.037837673,20,35,-25,-28,52
1,1693677709225139800,-0.116118781,2.410961151,10.21486187,0.054624807,-0.025846859,0.037837673,13,36,-26,-24,52
2,1693677709226139800,-0.117315881,2.409764051,10.21007347,0.054491576,-0.025846859,0.037970904,20,37,-30,-27,50
3,1693677709227139800,-0.114921682,2.410961151,10.21007347,0.054758042,-0.025980091,0.037837673,20,35,-25,-26,50
4,1693677709228139800,-0.112527482,2.409764051,10.21486187,0.05489127,-0.025980091,0.037704438,19,35,-32,-23,49
0,1693677709244126700,-0.112527482,2.407369852,10.1933136,0.054491576,-0.025980091,0.03757121,18,44,-21,-22,52
1,1693677709245126700,-0.118512981,2.407369852,10.19091988,0.054491576,-0.025846859,0.03757121,15,31,-21,-27,53
2,1693677709246126700,-0.119710088,2.408566952,10.19451046,0.054491576,-0.025846859,0.037704438,13,35,-25,-19,53
3,1693677709247126700,-0.120907187,2.408566952,10.1933136,0.054358348,-0.025846859,0.037837673,14,39,-21,-21,50
4,1693677709248126700,-0.119710088,2.409764051,10.19211674,0.054491576,-0.025846859,0.037837673,10,31,-25,-33,44
0,1693677709261115700,-0.111330383,2.41694665,10.20049667,0.053825419,-0.026379786,0.037837673,18,36,-19,-20,54
1,1693677709262115700,-0.106541976,2.41455245,10.20169353,0.053692192,-0.026246555,0.037837673,19,44,-23,-20,49
2,1693677709263115700,-0.104147777,2.41335535,10.20169353,0.053825419,-0.026379786,0.037704438,18,31,-28,-27,50
3,1693677709264115700,-0.10295067,2.412158251,10.20648193,0.053692192,-0.026246555,0.037837673,17,39,-25,-30,49
4,1693677709265115700,-0.10055647,2.412158251,10.20408726,0.053692192,-0.026113322,0.037970904,10,41,-25,-29,44
0,1693677709278107300,-0.116118781,2.424129248,10.198102,0.054758042,-0.026379786,0.037437979,17,43,-20,-27,53
1,1693677709279107300,-0.118512981,2.425326347,10.20049667,0.054758042,-0.026379786,0.037304748,14,41,-28,-28,49
2,1693677709280107300,-0.118512981,2.422932148,10.20169353,0.054758042,-0.026513018,0.037304748,13,37,-25,-24,53
3,1693677709281107300,-0.112527482,2.424129248,10.20169353,0.055024505,-0.026379786,0.037304748,9,30,-32,-32,49
4,1693677709282107300,-0.110133275,2.420537949,10.20049667,0.055157732,-0.026513018,0.037304748,13,30,-25,-27,54
0,1693677709295095700,-0.104147777,2.406172752,10.20648193,0.054624807,-0.02691271,0.037970904,21,36,-19,-20,54
1,1693677709296095700,-0.10295067,2.404975653,10.21246719,0.054624807,-0.026646247,0.037970904,17,45,-22,-24,53
2,1693677709297095700,-0.099359371,2.403778553,10.21007347,0.054624807,-0.026646247,0.037970904,7,37,-28,-30,54
3,1693677709298095700,-0.10295067,2.402581453,10.21127033,0.054758042,-0.026513018,0.037970904,9,30,-31,-26,51
4,1693677709299095700,-0.105344877,2.401384354,10.21246719,0.054758042,-0.026379786,0.037837673,17,33,-28,-20,50
0,1693677709356384400,-0.114921682,2.403778553,10.20528507,0.054358348,-0.027045943,0.038503829,19,37,-20,-30,52
1,1693677709357384400,-0.112527482,2.404975653,10.20887566,0.054225113,-0.02691271,0.038370594,14,33,-25,-22,49
2,1693677709358384400,-0.108936176,2.406172752,10.20887566,0.054225113,-0.026646247,0.038370594,7,30,-31,-30,48
3,1693677709359384400,-0.111330383,2.406172752,10.21246719,0.054225113,-0.026646247,0.038237367,18,32,-33,-28,45
4,1693677709360384400,-0.111330383,2.406172752,10.21007347,0.054225113,-0.026513018,0.038104136,13,32,-21,-24,55
0,1693677709426834900,-0.105344877,2.410961151,10.21486187,0.054758042,-0.026246555,0.037837673,20,33,-29,-28,51
1,1693677709427834900,-0.106541976,2.412158251,10.21725559,0.054758042,-0.026113322,0.037970904,20,33,-29,-28,52
2,1693677709428834900,-0.106541976,2.412158251,10.21845245,0.054758042,-0.025980091,0.037970904,13,35,-29,-27,50
3,1693677709429834900,-0.104147777,2.41335535,10.21366405,0.055024505,-0.026113322,0.037970904,18,44,-21,-24,48
4,1693677709430834900,-0.105344877,2.410961151,10.21605873,0.05489127,-0.026246555,0.038104136,14,36,-24,-27,49
0,1693677709477498100,-0.113724582,2.407369852,10.20648193,0.054358348,-0.026379786,0.037704438,17,33,-21,-31,50
1,1693677709478498100,-0.114921682,2.407369852,10.20648193,0.054358348,-0.026246555,0.037837673,10,30,-27,-31,48
2,1693677709479498100,-0.114921682,2.408566952,10.2028904,0.054225113,-0.026379786,0.037837673,14,41,-31,-24,50
3,1693677709480498100,-0.112527482,2.410961151,10.20767879,0.054225113,-0.026513018,0.037970904,17,40,-27,-27,49
4,1693677709481498100,-0.116118781,2.41335535,10.20408726,0.054225113,-0.026513018,0.037837673,16,44,-21,-24,53
0,1693677709557412800,-0.120907187,2.41455245,10.22443867,0.054091886,-0.026379786,0.037837673,17,32,-26,-30,54
1,1693677709558412800,-0.120907187,2.41574955,10.22443867,0.053958651,-0.026513018,0.037704438,7,14,-23,-22,54
2,1693677709559412800,-0.119710088,2.41455245,10.21965027,0.054225113,-0.026779478,0.037837673,13,40,-25,-24,51
3,1693677709560412800,-0.119710088,2.41335535,10.21486187,0.054091886,-0.026779478,0.037837673,19,43,-22,-19,55
4,1693677709561412800,-0.118512981,2.412158251,10.21605873,0.054091886,-0.026779478,0.037837673,15,41,-33,-29,55
0,1693677709624428700,-0.110133275,2.41694665,10.21965027,0.054358348,-0.026379786,0.037038282,6,34,-25,-27,49
1,1693677709625428700,-0.111330383,2.41574955,10.22204399,0.054358348,-0.026246555,0.037304748,9,40,-24,-23,52
2,1693677709626428700,-0.108936176,2.410961151,10.21725559,0.054225113,-0.026379786,0.037437979,18,32,-25,-24,54
3,1693677709627428700,-0.110133275,2.41455245,10.21486187,0.054225113,-0.026113322,0.037304748,20,35,-28,-20,52
4,1693677709628428700,-0.108936176,2.41574955,10.21366405,0.054091886,-0.026246555,0.037304748,17,31,-27,-26,50
0,1693677709677518500,-0.112527482,2.419340849,10.18134308,0.054758042,-0.026113322,0.03757121,10,35,-29,-24,48
1,1693677709678518500,-0.114921682,2.419340849,10.18613148,0.054758042,-0.026113322,0.037704438,13,33,-21,-29,48
2,1693677709679518500,-0.114921682,2.420537949,10.1885252,0.054624807,-0.026246555,0.037704438,18,30,-25,-27,53
3,1693677709680518500,-0.113724582,2.424129248,10.18732834,0.054624807,-0.026379786,0.037704438,18,41,-18,-24,49
4,1693677709681518500,-0.110133275,2.425326347,10.19091988,0.054624807,-0.026513018,0.037704438,17,33,-20,-24,48
0,1693677709744652600,-0.114921682,2.407369852,10.2028904,0.054491576,-0.026646247,0.03757121,15,35,-20,-22,50
1,1693677709745652600,-0.116118781,2.408566952,10.20528507,0.054624807,-0.026513018,0.03757121,13,33,-23,-24,50
2,1693677709746652600,-0.117315881,2.408566952,10.20169353,0.054624807,-0.026646247,0.03757121,20,39,-21,-24,54
3,1693677709747652600,-0.117315881,2.410961151,10.19570827,0.054358348,-0.026779478,0.03757121,25,35,-24,-18,46
4,1693677709748652600,-0.116118781,2.410961151,10.19570827,0.054358348,-0.026779478,0.037704438,15,44,-22,-30,48
0,1693677709837300600,-0.113724582,2.410961151,10.21486187,0.054491576,-0.026513018,0.037837673,18,39,-26,-22,51
1,1693677709838300600,-0.111330383,2.41335535,10.21845245,0.054624807,-0.026513018,0.037704438,23,37,-28,-24,57
2,1693677709839300600,-0.112527482,2.41335535,10.21845245,0.054624807,-0.026379786,0.037704438,19,35,-23,-24,53
3,1693677709840300600,-0.116118781,2.410961151,10.21845245,0.054624807,-0.026513018,0.037837673,17,30,-19,-26,50
4,1693677709841300600,-0.114921682,2.409764051,10.21605873,0.054491576,-0.026513018,0.037970904,11,39,-25,-23,50
0,1693677709924495100,-0.117315881,2.403778553,10.21007347,0.054491576,-0.026379786,0.037704438,11,31,-22,-24,52
1,1693677709925495100,-0.118512981,2.403778553,10.20887566,0.054624807,-0.026379786,0.037837673,16,36,-20,-24,54
2,1693677709926495100,-0.119710088,2.404975653,10.20648193,0.054624807,-0.026379786,0.037970904,15,36,-23,-24,50
3,1693677709927495100,-0.117315881,2.404975653,10.20767879,0.054491576,-0.026246555,0.038104136,19,40,-28,-20,49
4,1693677709928495100,-0.112527482,2.404975653,10.21007347,0.054358348,-0.026246555,0.037970904,10,35,-27,-28,49
0,1693677709979462800,-0.116118781,2.41455245,10.20528507,0.054358348,-0.025980091,0.03757121,20,44,-21,-20,53
1,1693677709980462800,-0.117315881,2.412158251,10.20767879,0.054491576,-0.026113322,0.03757121,17,33,-25,-20,52
2,1693677709981462800,-0.119710088,2.41335535,10.20887566,0.054491576,-0.026113322,0.03757121,13,30,-25,-23,54
3,1693677709982462800,-0.118512981,2.410961151,10.21127033,0.054358348,-0.026113322,0.03757121,15,28,-23,-28,46
4,1693677709983462800,-0.116118781,2.409764051,10.21366405,0.054624807,-0.026246555,0.03757121,17,37,-21,-31,48
0,1693677710039171400,-0.107739076,2.409764051,10.21965027,0.054491576,-0.025980091,0.038503829,17,41,-24,-20,54
1,1693677710040171400,-0.112527482,2.409764051,10.21845245,0.054624807,-0.026113322,0.038370594,20,34,-24,-24,48
2,1693677710041171400,-0.112527482,2.406172752,10.22443867,0.054624807,-0.026113322,0.038503829,9,30,-29,-27,52
3,1693677710042171400,-0.111330383,2.407369852,10.22443867,0.054624807,-0.026246555,0.038503829,17,31,-28,-24,50
4,1693677710043171400,-0.112527482,2.409764051,10.22084713,0.054491576,-0.026113322,0.038370594,13,44,-23,-28,52
0,1693677710100222800,-0.117315881,2.407369852,10.21605873,0.054491576,-0.026246555,0.038237367,10,30,-24,-23,52
1,1693677710101222800,-0.118512981,2.407369852,10.21845245,0.054624807,-0.026379786,0.037970904,14,33,-31,-21,53
2,1693677710102222800,-0.119710088,2.408566952,10.22204399,0.054624807,-0.026379786,0.037970904,14,32,-28,-27,45
3,1693677710103222800,-0.120907187,2.408566952,10.21845245,0.054624807,-0.026513018,0.037970904,14,33,-23,-22,51
4,1693677710104222800,-0.119710088,2.409764051,10.21965027,0.054624807,-0.026646247,0.037970904,20,44,-17,-19,50
0,1693677710166448100,-0.114921682,2.41335535,10.21127033,0.054758042,-0.025980091,0.037837673,18,35,-30,-28,46
1,1693677710167448100,-0.116118781,2.41455245,10.20767879,0.05489127,-0.026113322,0.037837673,18,41,-25,-30,50
2,1693677710168448100,-0.118512981,2.41694665,10.20648193,0.05489127,-0.025846859,0.037704438,14,31,-24,-27,49
3,1693677710169448100,-0.116118781,2.41455245,10.20887566,0.055024505,-0.025980091,0.037704438,22,39,-21,-26,46
4,1693677710170448100,-0.113724582,2.41455245,10.21246719,0.055157732,-0.025980091,0.037704438,20,36,-22,-20,55
0,1693677710224515000,-0.110133275,2.412158251,10.22204399,0.055024505,-0.026779478,0.03757121,21,33,-27,-28,50
1,1693677710225515000,-0.110133275,2.412158251,10.22084713,0.055024505,-0.02691271,0.037437979,14,32,-25,-23,56
2,1693677710226515000,-0.112527482,2.412158251,10.22443867,0.055024505,-0.02691271,0.03757121,19,44,-21,-23,48
3,1693677710227515000,-0.114921682,2.412158251,10.22443867,0.055024505,-0.02691271,0.03757121,11,35,-20,-24,47
4,1693677710228515000,-0.112527482,2.41694665,10.22324085,0.055024505,-0.02691271,0.037704438,15,35,-21,-20,50
0,1693677710314483600,-0.117315881,2.406172752,10.21127033,0.054358348,-0.02571363,0.03757121,17,33,-25,-28,50
1,1693677710315483600,-0.116118781,2.408566952,10.21127033,0.054491576,-0.02571363,0.03757121,20,34,-23,-26,52
2,1693677710316483600,-0.119710088,2.410961151,10.21127033,0.054491576,-0.025980091,0.037704438,14,42,-22,-20,53
3,1693677710317483600,-0.122104287,2.41455245,10.21007347,0.054491576,-0.026113322,0.03757121,20,32,-25,-17,55
4,1693677710318483600,-0.123301387,2.412158251,10.21127033,0.054491576,-0.026379786,0.037704438,20,43,-19,-23,52
0,1693677710368673600,-0.107739076,2.402581453,10.21246719,0.054491576,-0.025846859,0.038370594,7,30,-25,-22,50
1,1693677710369673600,-0.110133275,2.404975653,10.21007347,0.054491576,-0.025846859,0.038503829,17,34,-26,-24,50
2,1693677710370673600,-0.108936176,2.403778553,10.20887566,0.054624807,-0.025846859,0.038370594,21,35,-24,-27,52
3,1693677710371673600,-0.110133275,2.402581453,10.20408726,0.054624807,-0.025846859,0.038503829,20,40,-28,-18,55
4,1693677710372673600,-0.111330383,2.404975653,10.20528507,0.054491576,-0.025846859,0.038503829,21,44,-24,-23,48
0,1693677710455179900,-0.110133275,2.404975653,10.21845245,0.054491576,-0.026246555,0.038104136,14,35,-24,-31,46
1,1693677710456179900,-0.108936176,2.403778553,10.21845245,0.054225113,-0.026113322,0.038104136,13,35,-28,-22,50
2,1693677710457179900,-0.106541976,2.404975653,10.21486187,0.054491576,-0.025980091,0.038237367,20,33,-19,-17,55
3,1693677710458179900,-0.104147777,2.407369852,10.21366405,0.054491576,-0.026113322,0.038104136,21,37,-23,-23,44
4,1693677710459179900,-0.104147777,2.409764051,10.21246719,0.054491576,-0.026246555,0.038104136,17,35,-25,-25,52
0,1693677710561467900,-0.119710088,2.408566952,10.20767879,0.05489127,-0.026646247,0.038104136,11,37,-23,-22,52
1,1693677710562467900,-0.120907187,2.408566952,10.20767879,0.054624807,-0.026646247,0.037970904,19,43,-20,-26,46
2,1693677710563467900,-0.120907187,2.406172752,10.21127033,0.054491576,-0.026646247,0.037837673,19,42,-25,-24,52
3,1693677710564467900,-0.120907187,2.406172752,10.21366405,0.054624807,-0.026779478,0.037837673,17,41,-21,-20,55
4,1693677710565467900,-0.117315881,2.406172752,10.21246719,0.054624807,-0.026779478,0.037704438,-3,41,-24,-27,52
0,1693677710614439400,-0.110133275,2.41455245,10.2028904,0.054491576,-0.026379786,0.037437979,13,33,-21,-22,49
1,1693677710615439400,-0.110133275,2.412158251,10.20408726,0.054491576,-0.026379786,0.03757121,21,46,-18,-18,53
2,1693677710616439400,-0.106541976,2.410961151,10.21007347,0.054358348,-0.026246555,0.03757121,18,35,-23,-28,51
3,1693677710617439400,-0.105344877,2.410961151,10.21007347,0.054225113,-0.026246555,0.03757121,20,36,-25,-20,48
4,1693677710618439400,-0.107739076,2.410961151,10.21007347,0.054225113,-0.026113322,0.037704438,20,35,-24,-24,50
0,1693677710644504300,-0.113724582,2.408566952,10.20767879,0.05489127,-0.026513018,0.038104136,20,44,-27,-17,48
1,1693677710645504300,-0.111330383,2.409764051,10.2028904,0.054758042,-0.026246555,0.038104136,20,41,-25,-23,45
2,1693677710646504300,-0.113724582,2.406172752,10.20528507,0.054758042,-0.026246555,0.037970904,20,40,-22,-24,49
3,1693677710647504300,-0.112527482,2.407369852,10.20408726,0.054624807,-0.026246555,0.037970904,20,32,-29,-24,50
4,1693677710648504300,-0.116118781,2.410961151,10.20408726,0.054624807,-0.026379786,0.037837673,15,41,-28,-26,48
0,1693677710706542800,-0.096965171,2.41574955,10.21246719,0.05489127,-0.026246555,0.037704438,20,41,-20,-22,53
1,1693677710707542800,-0.095768064,2.41455245,10.21127033,0.05489127,-0.026246555,0.037704438,20,36,-23,-26,50
2,1693677710708542800,-0.099359371,2.412158251,10.21605873,0.05489127,-0.026246555,0.03757121,13,36,-21,-24,51
3,1693677710709542800,-0.099359371,2.412158251,10.21246719,0.054758042,-0.026246555,0.03757121,19,31,-31,-24,49
4,1693677710710542800,-0.10055647,2.412158251,10.20767879,0.054624807,-0.026379786,0.03757121,19,32,-28,-25,50
0,1693677710768221400,-0.107739076,2.407369852,10.2028904,0.054491576,-0.026379786,0.037704438,16,41,-23,-20,55
1,1693677710769221400,-0.107739076,2.408566952,10.20049667,0.054624807,-0.026379786,0.037704438,11,40,-22,-28,49
2,1693677710770221400,-0.105344877,2.407369852,10.20049667,0.054624807,-0.026513018,0.037837673,15,31,-23,-32,52
3,1693677710771221400,-0.106541976,2.409764051,10.20169353,0.054758042,-0.026646247,0.037970904,11,34,-21,-26,46
4,1693677710772221400,-0.104147777,2.409764051,10.2028904,0.054758042,-0.026646247,0.037970904,18,35,-21,-28,53
0,1693677710855012600,-0.108936176,2.409764051,10.22324085,0.054091886,-0.026379786,0.037437979,13,35,-23,-23,52
1,1693677710856012600,-0.111330383,2.409764051,10.21965027,0.053958651,-0.026246555,0.037437979,10,36,-21,-23,52
2,1693677710857012600,-0.110133275,2.410961151,10.21845245,0.053958651,-0.026246555,0.037437979,13,30,-28,-26,45
3,1693677710858012600,-0.108936176,2.410961151,10.21965027,0.053958651,-0.025980091,0.037437979,22,45,-22,-22,53
4,1693677710859012600,-0.107739076,2.410961151,10.21845245,0.054091886,-0.025846859,0.037437979,19,37,-32,-28,49
0,1693677710942220600,-0.113724582,2.412158251,10.21246719,0.054358348,-0.026246555,0.038237367,17,41,-25,-33,51
1,1693677710943220600,-0.112527482,2.408566952,10.21246719,0.054358348,-0.026379786,0.038237367,8,31,-21,-33,53
2,1693677710944220600,-0.111330383,2.407369852,10.21246719,0.054491576,-0.026646247,0.038237367,8,36,-28,-18,49
3,1693677710945220600,-0.112527482,2.409764051,10.21366405,0.054358348,-0.026646247,0.038237367,17,43,-24,-22,55
4,1693677710946220600,-0.114921682,2.408566952,10.21366405,0.054091886,-0.026646247,0.038104136,25,45,-23,-20,55
0,1693677710986492900,-0.113724582,2.41574955,10.21366405,0.054091886,-0.026246555,0.037837673,20,33,-28,-20,50
1,1693677710987492900,-0.114921682,2.41455245,10.21486187,0.054091886,-0.026246555,0.037837673,18,31,-28,-33,50
2,1693677710988492900,-0.114921682,2.41335535,10.21246719,0.054091886,-0.026113322,0.037970904,15,37,-17,-23,52
3,1693677710989492900,-0.114921682,2.412158251,10.21127033,0.054091886,-0.025980091,0.037970904,19,35,-27,-23,55
4,1693677710990492900,-0.113724582,2.409764051,10.21366405,0.054091886,-0.026113322,0.037970904,12,30,-25,-22,52
0,1693677711068478900,-0.111330383,2.412158251,10.22324085,0.054358348,-0.026379786,0.037970904,15,31,-24,-23,49
1,1693677711069478900,-0.113724582,2.408566952,10.22443867,0.054358348,-0.026379786,0.038104136,14,33,-23,-23,52
2,1693677711070478900,-0.114921682,2.409764051,10.22443867,0.054358348,-0.026113322,0.037970904,20,35,-24,-27,56
3,1693677711071478900,-0.112527482,2.407369852,10.21965027,0.054225113,-0.026113322,0.037970904,26,47,-27,-19,52
4,1693677711072478900,-0.114921682,2.407369852,10.21605873,0.054225113,-0.025980091,0.037837673,20,37,-28,-20,48
0,1693677711134995900,-0.111330383,2.41694665,10.20648193,0.055024505,-0.026246555,0.03757121,15,42,-25,-24,47
1,1693677711135995900,-0.111330383,2.41574955,10.20767879,0.05489127,-0.026113322,0.03757121,17,35,-21,-26,50
2,1693677711136995900,-0.114921682,2.41455245,10.20887566,0.05489127,-0.026379786,0.037437979,20,36,-19,-20,55
3,1693677711137995900,-0.114921682,2.409764051,10.21246719,0.05489127,-0.026379786,0.03757121,14,36,-23,-27,48
4,1693677711138995900,-0.118512981,2.407369852,10.21366405,0.055024505,-0.026246555,0.03757121,19,37,-25,-21,48
0,1693677711181945300,-0.114921682,2.41455245,10.20767879,0.055024505,-0.026646247,0.037437979,17,35,-25,-22,53
1,1693677711182945300,-0.113724582,2.41455245,10.21366405,0.055157732,-0.02691271,0.03757121,13,35,-25,-23,49
2,1693677711183945300,-0.113724582,2.41455245,10.21246719,0.055024505,-0.02691271,0.03757121,20,41,-20,-22,52
3,1693677711184945300,-0.116118781,2.412158251,10.21246719,0.05489127,-0.02691271,0.037704438,16,41,-19,-23,45
4,1693677711185945300,-0.116118781,2.412158251,10.21007347,0.05489127,-0.02691271,0.037837673,21,33,-23,-21,52
0,1693677711258486400,-0.114921682,2.407369852,10.21605873,0.054091886,-0.026113322,0.03757121,19,36,-27,-29,48
1,1693677711259486400,-0.113724582,2.409764051,10.21127033,0.054225113,-0.025980091,0.03757121,18,45,-19,-19,54
2,1693677711260486400,-0.116118781,2.410961151,10.21246719,0.054225113,-0.025980091,0.037837673,20,38,-20,-20,55
3,1693677711261486400,-0.118512981,2.410961151,10.21246719,0.054225113,-0.026113322,0.037837673,20,31,-24,-22,54
4,1693677711262486400,-0.117315881,2.409764051,10.20887566,0.054225113,-0.026246555,0.037837673,18,37,-21,-22,55
0,1693677711317135300,-0.110133275,2.406172752,10.21127033,0.054358348,-0.026379786,0.037437979,9,36,-22,-19,42
1,1693677711318135300,-0.108936176,2.406172752,10.21366405,0.054091886,-0.026379786,0.03757121,19,35,-25,-27,50
2,1693677711319135300,-0.107739076,2.407369852,10.21845245,0.054358348,-0.026246555,0.03757121,15,32,-29,-20,58
3,1693677711320135300,-0.110133275,2.408566952,10.21486187,0.054225113,-0.026379786,0.03757121,15,32,-24,-27,48
4,1693677711321135300,-0.111330383,2.408566952,10.21127033,0.054225113,-0.026246555,0.037837673,15,36,-28,-28,49
0,1693677711404240200,-0.111330383,2.406172752,10.21845245,0.054225113,-0.026379786,0.037704438,20,46,-24,-23,54
1,1693677711405240200,-0.116118781,2.407369852,10.22084713,0.054491576,-0.026646247,0.03757121,17,39,-24,-19,55
2,1693677711406240200,-0.114921682,2.407369852,10.22204399,0.054491576,-0.026646247,0.037437979,20,33,-24,-25,54
3,1693677711407240200,-0.113724582,2.409764051,10.22324085,0.054491576,-0.026513018,0.037304748,19,39,-23,-22,52
4,1693677711408240200,-0.117315881,2.410961151,10.22084713,0.054491576,-0.026379786,0.037437979,19,41,-27,-22,52
0,1693677711460661300,-0.117315881,2.410961151,10.22324085,0.054225113,-0.025580399,0.037837673,22,35,-27,-17,53
1,1693677711461661300,-0.114921682,2.409764051,10.21965027,0.054225113,-0.025580399,0.037704438,18,40,-20,-30,55
2,1693677711462661300,-0.117315881,2.410961151,10.21725559,0.054225113,-0.025313934,0.037704438,15,42,-21,-23,53
3,1693677711463661300,-0.118512981,2.409764051,10.21605873,0.054091886,-0.025313934,0.037704438,9,30,-29,-22,46
4,1693677711464661300,-0.117315881,2.406172752,10.21845245,0.054091886,-0.025313934,0.037704438,20,32,-21,-22,52
0,1693677711520523200,-0.117315881,2.403778553,10.20049667,0.053825419,-0.025846859,0.037837673,10,32,-20,-23,55
1,1693677711521523200,-0.118512981,2.403778553,10.2028904,0.053825419,-0.025580399,0.037704438,13,41,-29,-30,52
2,1693677711522523200,-0.118512981,2.406172752,10.20408726,0.053825419,-0.025580399,0.03757121,17,35,-27,-28,45
3,1693677711523523200,-0.120907187,2.406172752,10.20408726,0.053825419,-0.025980091,0.037437979,15,36,-19,-27,50
4,1693677711524523200,-0.122104287,2.408566952,10.20767879,0.054091886,-0.025980091,0.037704438,18,41,-22,-20,48
0,1693677711610883800,-0.112527482,2.419340849,10.21845245,0.054758042,-0.025980091,0.037038282,15,30,-28,-24,53
1,1693677711611883800,-0.113724582,2.41574955,10.21486187,0.054091886,-0.025180703,0.036771823,14,40,-21,-29,49
2,1693677711612883800,-0.118512981,2.412158251,10.21486187,0.053292494,-0.024248086,0.036638591,14,31,-27,-24,46
3,1693677711613883800,-0.120907187,2.409764051,10.21486187,0.053026035,-0.02384839,0.036638591,20,43,-21,-22,50
4,1693677711614883800,-0.123301387,2.409764051,10.20887566,0.053026035,-0.024114855,0.036771823,17,41,-23,-27,55
0,1693677711701974100,-0.106541976,2.424129248,10.23042393,0.055557426,-0.027445635,0.038503829,9,41,-17,-24,52
1,1693677711702974100,-0.105344877,2.421735048,10.23281765,0.055157732,-0.026779478,0.038104136,9,40,-28,-27,44
2,1693677711703974100,-0.10295067,2.41694665,10.23042393,0.054758042,-0.025980091,0.037704438,20,36,-19,-27,50
3,1693677711704974100,-0.104147777,2.41455245,10.22443867,0.054491576,-0.025447167,0.03757121,13,36,-23,-31,55
4,1693677711705974100,-0.107739076,2.41335535,10.22324085,0.054091886,-0.024647778,0.037437979,20,42,-21,-20,54
0,1693677711748966000,-0.122104287,2.401384354,10.22683239,0.054624807,-0.027045943,0.038104136,13,41,-19,-19,52
1,1693677711749966000,-0.119710088,2.403778553,10.22563553,0.054758042,-0.027179174,0.038104136,15,32,-24,-26,54
2,1693677711750966000,-0.118512981,2.410961151,10.22683239,0.05489127,-0.027312404,0.037970904,17,37,-21,-30,54
3,1693677711751966000,-0.118512981,2.409764051,10.23281765,0.05489127,-0.027179174,0.038104136,18,40,-19,-20,54
4,1693677711752966000,-0.114921682,2.410961151,10.23401546,0.054491576,-0.02691271,0.037970904,20,41,-19,-28,52
0,1693677711814266000,-0.123301387,2.410961151,10.21246719,0.054491576,-0.026113322,0.038104136,7,36,-25,-27,48
1,1693677711815266000,-0.124498487,2.41455245,10.21605873,0.054491576,-0.026379786,0.037970904,17,35,-19,-26,48
2,1693677711816266000,-0.120907187,2.409764051,10.21486187,0.054624807,-0.026646247,0.038104136,21,39,-24,-24,55
3,1693677711817266000,-0.117315881,2.409764051,10.21725559,0.054624807,-0.026646247,0.038104136,18,40,-20,-24,55
4,1693677711818266000,-0.116118781,2.408566952,10.21965027,0.054758042,-0.026646247,0.038104136,18,33,-24,-27,50
0,1693677711901089900,-0.118512981,2.409764051,10.21127033,0.05489127,-0.026113322,0.037837673,17,31,-32,-21,48
1,1693677711902089900,-0.119710088,2.409764051,10.20887566,0.054758042,-0.026379786,0.037837673,14,35,-23,-28,44
2,1693677711903089900,-0.118512981,2.409764051,10.20887566,0.054624807,-0.026513018,0.037837673,15,39,-35,-19,55
3,1693677711904089900,-0.118512981,2.410961151,10.20887566,0.054758042,-0.026379786,0.037837673,20,37,-24,-26,48
4,1693677711905089900,-0.119710088,2.408566952,10.20887566,0.054758042,-0.026246555,0.037837673,18,30,-25,-24,54
0,1693677711941171900,-0.111330383,2.418143749,10.21366405,0.054624807,-0.02571363,0.037837673,20,35,-25,-24,51
1,1693677711942171900,-0.112527482,2.418143749,10.21366405,0.054491576,-0.025980091,0.037837673,13,41,-20,-27,50
2,1693677711943171900,-0.112527482,2.41455245,10.21246719,0.054758042,-0.025980091,0.037704438,20,41,-24,-20,46
3,1693677711944171900,-0.116118781,2.412158251,10.20767879,0.054758042,-0.025980091,0.037704438,13,39,-25,-28,52
4,1693677711945171900,-0.116118781,2.410961151,10.20528507,0.054624807,-0.025980091,0.037704438,13,32,-28,-22,46
0,1693677711997540100,-0.106541976,2.420537949,10.21007347,0.054358348,-0.026646247,0.037970904,14,43,-21,-19,49
1,1693677711998540100,-0.111330383,2.421735048,10.21127033,0.054491576,-0.026779478,0.037970904,23,44,-22,-21,48
2,1693677711999540100,-0.111330383,2.421735048,10.20887566,0.054358348,-0.02691271,0.037837673,19,30,-32,-26,52
3,1693677712000540100,-0.116118781,2.421735048,10.20767879,0.054491576,-0.02691271,0.037837673,17,39,-17,-31,46
4,1693677712001540100,-0.116118781,2.420537949,10.20887566,0.054624807,-0.02691271,0.037837673,7,37,-21,-27,49
0,1693677712079173600,-0.113724582,2.412158251,10.22683239,0.054624807,-0.026113322,0.038104136,17,40,-25,-23,48
1,1693677712080173600,-0.111330383,2.412158251,10.22204399,0.054758042,-0.026113322,0.038104136,17,41,-21,-26,50
2,1693677712081173600,-0.111330383,2.41574955,10.21845245,0.055024505,-0.026246555,0.038104136,14,35,-25,-23,48
3,1693677712082173600,-0.112527482,2.41335535,10.20767879,0.055024505,-0.026246555,0.037970904,10,33,-34,-28,50
4,1693677712083173600,-0.110133275,2.41694665,10.21007347,0.055024505,-0.026113322,0.038104136,20,40,-31,-22,49
0,1693677712140521300,-0.110133275,2.41335535,10.21366405,0.054358348,-0.026246555,0.037970904,23,39,-16,-21,53
1,1693677712141521300,-0.116118781,2.41335535,10.21246719,0.054491576,-0.026246555,0.037837673,19,43,-24,-23,53
2,1693677712142521300,-0.112527482,2.41335535,10.21366405,0.054491576,-0.026113322,0.037970904,10,33,-26,-22,50
3,1693677712143521300,-0.108936176,2.412158251,10.21246719,0.054358348,-0.025980091,0.037970904,13,36,-30,-22,54
4,1693677712144521300,-0.108936176,2.410961151,10.21246719,0.054491576,-0.026113322,0.037970904,20,32,-21,-24,53
0,1693677712208090800,-0.112527482,2.404975653,10.21366405,0.054225113,-0.02691271,0.038104136,15,43,-25,-15,50
1,1693677712209090800,-0.108936176,2.407369852,10.21486187,0.054358348,-0.027045943,0.038104136,8,38,-31,-28,39
2,1693677712210090800,-0.111330383,2.404975653,10.21127033,0.054491576,-0.02691271,0.038237367,13,31,-30,-32,48
3,1693677712211090800,-0.111330383,2.404975653,10.21605873,0.054624807,-0.02691271,0.037970904,17,45,-20,-30,55
4,1693677712212090800,-0.108936176,2.404975653,10.21725559,0.054358348,-0.027045943,0.037970904,16,31,-23,-22,51
0,1693677712274236400,-0.113724582,2.404975653,10.21246719,0.054491576,-0.025980091,0.037437979,20,41,-25,-27,52
1,1693677712275236400,-0.114921682,2.406172752,10.21486187,0.054358348,-0.025980091,0.03757121,16,30,-25,-23,53
2,1693677712276236400,-0.113724582,2.406172752,10.21486187,0.054358348,-0.026113322,0.03757121,15,34,-27,-24,51
3,1693677712277236400,-0.113724582,2.406172752,10.21605873,0.054491576,-0.026246555,0.037837673,18,41,-18,-28,54
4,1693677712278236400,-0.111330383,2.407369852,10.21725559,0.054358348,-0.026379786,0.037704438,17,40,-25,-20,55
0,1693677712352664100,-0.113724582,2.406172752,10.2028904,0.054358348,-0.025846859,0.03757121,13,37,-24,-21,50
1,1693677712353664100,-0.113724582,2.406172752,10.20408726,0.054358348,-0.025980091,0.03757121,10,35,-23,-26,46
2,1693677712354664100,-0.114921682,2.404975653,10.20767879,0.054624807,-0.025980091,0.03757121,13,35,-28,-24,48
3,1693677712355664100,-0.114921682,2.402581453,10.20767879,0.054624807,-0.026113322,0.03757121,19,37,-17,-20,50
4,1693677712356664100,-0.114921682,2.402581453,10.20408726,0.054624807,-0.026113322,0.03757121,29,40,-20,-16,54
0,1693677712419597400,-0.10295067,2.406172752,10.2028904,0.054491576,-0.026779478,0.037704438,15,35,-20,-24,52
1,1693677712420597400,-0.106541976,2.404975653,10.21007347,0.054225113,-0.026646247,0.037837673,20,30,-27,-30,54
2,1693677712421597400,-0.105344877,2.402581453,10.20887566,0.054225113,-0.026779478,0.037704438,14,40,-25,-22,53
3,1693677712422597400,-0.105344877,2.406172752,10.21007347,0.054225113,-0.026646247,0.03757121,20,41,-29,-21,51
4,1693677712423597400,-0.106541976,2.407369852,10.21246719,0.054225113,-0.02691271,0.037704438,15,34,-23,-18,55
0,1693677712484541300,-0.118512981,2.409764051,10.22084713,0.054225113,-0.026379786,0.03757121,17,34,-29,-24,48
1,1693677712485541300,-0.120907187,2.408566952,10.21725559,0.054358348,-0.026246555,0.037704438,13,39,-23,-22,55
2,1693677712486541300,-0.122104287,2.409764051,10.21965027,0.054225113,-0.026246555,0.037704438,14,36,-20,-27,53
3,1693677712487541300,-0.118512981,2.410961151,10.21965027,0.054225113,-0.026379786,0.037837673,20,40,-18,-18,55
4,1693677712488541300,-0.117315881,2.412158251,10.21845245,0.054358348,-0.026513018,0.037837673,29,43,-23,-21,53
0,1693677712548558700,-0.119710088,2.41694665,10.198102,0.054624807,-0.026246555,0.037970904,20,35,-27,-23,53
1,1693677712549558700,-0.117315881,2.420537949,10.20408726,0.054491576,-0.026246555,0.037970904,11,41,-23,-20,53
2,1693677712550558700,-0.114921682,2.419340849,10.20169353,0.054624807,-0.026379786,0.037837673,19,40,-20,-30,46
3,1693677712551558700,-0.113724582,2.418143749,10.20169353,0.054624807,-0.026246555,0.038104136,18,47,-20,-18,50
4,1693677712552558700,-0.108936176,2.41694665,10.2028904,0.054358348,-0.026113322,0.038104136,20,46,-25,-22,49
0,1693677712627297500,-0.120907187,2.409764051,10.21366405,0.053958651,-0.026779478,0.03757121,-2,31,-30,-23,49
1,1693677712628297500,-0.120907187,2.410961151,10.21366405,0.053692192,-0.026779478,0.037437979,20,41,-23,-31,49
2,1693677712629297500,-0.122104287,2.409764051,10.20887566,0.053692192,-0.026513018,0.03757121,20,42,-24,-17,55
3,1693677712630297500,-0.117315881,2.408566952,10.20887566,0.053692192,-0.026513018,0.03757121,14,37,-21,-24,54
4,1693677712631297500,-0.113724582,2.408566952,10.20528507,0.053825419,-0.026646247,0.037704438,19,36,-22,-24,48
0,1693677712688122600,-0.106541976,2.406172752,10.21007347,0.054225113,-0.026246555,0.037837673,9,37,-24,-19,56
1,1693677712689122600,-0.105344877,2.407369852,10.20767879,0.054091886,-0.026246555,0.037704438,15,40,-23,-23,52
2,1693677712690122600,-0.106541976,2.408566952,10.20887566,0.054358348,-0.026246555,0.037704438,18,36,-21,-27,52
3,1693677712691122600,-0.106541976,2.404975653,10.21007347,0.054491576,-0.026379786,0.03757121,21,41,-28,-24,50
4,1693677712692122600,-0.110133275,2.402581453,10.21127033,0.054491576,-0.026646247,0.037437979,19,31,-24,-30,52
0,1693677712753678800,-0.116118781,2.409764051,10.21127033,0.054358348,-0.026246555,0.038104136,13,44,-23,-24,55
1,1693677712754678800,-0.114921682,2.409764051,10.20767879,0.054358348,-0.025980091,0.037970904,20,45,-21,-19,59
2,1693677712755678800,-0.114921682,2.41335535,10.20408726,0.053958651,-0.026113322,0.037970904,20,36,-21,-23,51
3,1693677712756678800,-0.112527482,2.41574955,10.20408726,0.054091886,-0.025846859,0.037970904,13,33,-23,-28,45
4,1693677712757678800,-0.111330383,2.41694665,10.20528507,0.054225113,-0.02571363,0.037837673,9,33,-27,-26,50
0,1693677712828226500,-0.110133275,2.412158251,10.21246719,0.054225113,-0.025846859,0.037970904,15,32,-27,-22,54
1,1693677712829226500,-0.108936176,2.412158251,10.21246719,0.054225113,-0.026113322,0.037837673,20,41,-23,-22,55
2,1693677712830226500,-0.110133275,2.412158251,10.21127033,0.054225113,-0.026113322,0.037704438,14,32,-28,-30,50
3,1693677712831226500,-0.111330383,2.410961151,10.21366405,0.054358348,-0.026246555,0.037837673,14,45,-22,-31,52
4,1693677712832226500,-0.113724582,2.408566952,10.21725559,0.054358348,-0.026246555,0.037837673,19,34,-28,-20,54
0,1693677712937149600,-0.112527482,2.406172752,10.20528507,0.055024505,-0.026513018,0.037437979,15,35,-23,-20,54
1,1693677712938149600,-0.113724582,2.408566952,10.20767879,0.055157732,-0.025980091,0.037038282,17,37,-25,-19,52
2,1693677712939149600,-0.111330383,2.41335535,10.20648193,0.054091886,-0.025180703,0.037171517,13,43,-25,-23,53
3,1693677712940149600,-0.108936176,2.41574955,10.20408726,0.0528928,-0.024381317,0.037304748,15,31,-25,-30,49
4,1693677712941149600,-0.111330383,2.41574955,10.2028904,0.053159267,-0.024381317,0.037437979,20,35,-22,-19,54
0,1693677712981123200,-0.114921682,2.41335535,10.22683239,0.055157732,-0.027845331,0.037970904,14,39,-27,-26,53
1,1693677712982123200,-0.112527482,2.412158251,10.22563553,0.054624807,-0.027445635,0.037837673,12,42,-21,-27,50
2,1693677712983123200,-0.108936176,2.412158251,10.22563553,0.054358348,-0.026779478,0.037837673,13,37,-28,-30,44
3,1693677712984123200,-0.106541976,2.41455245,10.22324085,0.053958651,-0.026113322,0.03757121,14,33,-27,-23,49
4,1693677712985123200,-0.110133275,2.41574955,10.21605873,0.053825419,-0.025313934,0.037304748,16,36,-22,-24,55
0,1693677713022012500,-0.114921682,2.407369852,10.21007347,0.053958651,-0.025580399,0.03757121,15,39,-21,-19,50
1,1693677713023012500,-0.113724582,2.402581453,10.21486187,0.054225113,-0.025980091,0.037970904,15,32,-22,-19,55
2,1693677713024012500,-0.113724582,2.403778553,10.21605873,0.054491576,-0.026379786,0.038104136,18,37,-23,-23,46
3,1693677713025012500,-0.112527482,2.406172752,10.21007347,0.054758042,-0.026513018,0.038104136,15,41,-15,-26,49
4,1693677713026012500,-0.112527482,2.407369852,10.21007347,0.054624807,-0.026513018,0.038104136,20,37,-25,-22,52
0,1693677713094483900,-0.114921682,2.403778553,10.21246719,0.054358348,-0.025580399,0.037038282,13,37,-23,-19,53
1,1693677713095483900,-0.114921682,2.402581453,10.21366405,0.054225113,-0.025580399,0.037171517,10,40,-30,-28,50
2,1693677713096483900,-0.116118781,2.401384354,10.21725559,0.054091886,-0.025980091,0.037304748,20,36,-25,-26,52
3,1693677713097483900,-0.117315881,2.401384354,10.21965027,0.054091886,-0.026379786,0.037437979,20,40,-25,-23,52
4,1693677713098483900,-0.119710088,2.402581453,10.21366405,0.054225113,-0.026513018,0.03757121,20,36,-21,-18,54
0,1693677713179710600,-0.114921682,2.407369852,10.19570827,0.05489127,-0.026646247,0.037704438,18,38,-25,-30,48
1,1693677713180710600,-0.113724582,2.404975653,10.20049667,0.054624807,-0.026646247,0.037837673,13,33,-23,-22,50
2,1693677713181710600,-0.113724582,2.407369852,10.20767879,0.054358348,-0.026646247,0.037837673,20,40,-21,-22,53
3,1693677713182710600,-0.116118781,2.410961151,10.20887566,0.054358348,-0.026779478,0.037970904,15,40,-18,-17,55
4,1693677713183710600,-0.114921682,2.412158251,10.19570827,0.054758042,-0.02691271,0.038237367,17,39,-22,-30,53
0,1693677713229507400,-0.120907187,2.406172752,10.21366405,0.056223582,-0.028245023,0.037704438,19,36,-19,-22,52
1,1693677713230507400,-0.120907187,2.407369852,10.22802925,0.05595712,-0.028378254,0.037970904,21,40,-24,-21,48
2,1693677713231507400,-0.119710088,2.409764051,10.22443867,0.054624807,-0.028111791,0.038370594,20,44,-16,-18,55
3,1693677713232507400,-0.116118781,2.41455245,10.20767879,0.054091886,-0.027578866,0.038637057,15,43,-20,-20,49
4,1693677713233507400,-0.113724582,2.41694665,10.20169353,0.054225113,-0.027312404,0.037970904,12,33,-29,-27,53
0,1693677713290523800,-0.128089786,2.406172752,10.19451046,0.054624807,-0.025980091,0.037837673,17,37,-22,-20,66
1,1693677713291523800,-0.125695586,2.407369852,10.19211674,0.054758042,-0.026646247,0.038104136,17,43,-24,-18,50
2,1693677713292523800,-0.124498487,2.409764051,10.19091988,0.054758042,-0.027179174,0.038104136,27,41,-21,-19,55
3,1693677713293523800,-0.124498487,2.409764051,10.1933136,0.055024505,-0.027179174,0.038104136,17,40,-21,-22,56
4,1693677713294523800,-0.125695586,2.412158251,10.1933136,0.055290964,-0.027045943,0.038104136,21,37,-26,-20,54
0,1693677713373246200,-0.118512981,2.407369852,10.21127033,0.054091886,-0.025846859,0.037837673,19,43,-19,-22,49
1,1693677713374246200,-0.116118781,2.404975653,10.21007347,0.054091886,-0.025980091,0.037704438,18,44,-23,-24,50
2,1693677713375246200,-0.114921682,2.406172752,10.21246719,0.054358348,-0.026113322,0.03757121,17,43,-23,-23,55
3,1693677713376246200,-0.114921682,2.410961151,10.21486187,0.054358348,-0.026246555,0.037704438,20,39,-31,-19,54
4,1693677713377246200,-0.116118781,2.410961151,10.21725559,0.054624807,-0.026113322,0.037837673,20,33,-20,-20,45
0,1693677713449451000,-0.114921682,2.420537949,10.198102,0.054358348,-0.026513018,0.037304748,21,33,-21,-21,53
1,1693677713450451000,-0.113724582,2.419340849,10.19929886,0.054358348,-0.026379786,0.037304748,20,43,-17,-17,55
2,1693677713451451000,-0.113724582,2.418143749,10.19929886,0.054091886,-0.026379786,0.037304748,20,40,-24,-24,55
3,1693677713452451000,-0.113724582,2.419340849,10.19929886,0.054225113,-0.026246555,0.037304748,19,36,-24,-22,50
4,1693677713453451000,-0.113724582,2.41694665,10.2028904,0.054358348,-0.026379786,0.037437979,19,40,-25,-27,49
0,1693677713521565900,-0.120907187,2.412158251,10.20767879,0.053958651,-0.026513018,0.038104136,19,40,-25,-16,55
1,1693677713522565900,-0.123301387,2.409764051,10.20767879,0.054225113,-0.026513018,0.038104136,20,41,-23,-24,50
2,1693677713523565900,-0.124498487,2.410961151,10.20648193,0.054091886,-0.026646247,0.037970904,19,39,-25,-24,51
3,1693677713524565900,-0.124498487,2.410961151,10.20887566,0.053958651,-0.026646247,0.038104136,18,41,-25,-22,46
4,1693677713525565900,-0.123301387,2.408566952,10.20648193,0.054091886,-0.026779478,0.038104136,18,41,-28,-28,53
0,1693677713573994600,-0.118512981,2.401384354,10.22324085,0.054358348,-0.026513018,0.037970904,21,43,-5,-18,50
1,1693677713574994600,-0.120907187,2.397793055,10.21486187,0.054491576,-0.026513018,0.037970904,16,35,-22,-20,52
2,1693677713575994600,-0.122104287,2.400187254,10.21007347,0.054758042,-0.026379786,0.037970904,13,40,-23,-28,40
3,1693677713576994600,-0.126892686,2.400187254,10.21127033,0.054758042,-0.026379786,0.037704438,19,35,-23,-20,50
4,1693677713577994600,-0.125695586,2.401384354,10.21366405,0.054758042,-0.026246555,0.037837673,20,43,-19,-31,50
0,1693677713671108500,-0.124498487,2.408566952,10.21605873,0.054358348,-0.026513018,0.037704438,9,30,-25,-17,52
1,1693677713672108500,-0.123301387,2.409764051,10.21605873,0.054358348,-0.026379786,0.037837673,17,36,-23,-33,52
2,1693677713673108500,-0.123301387,2.410961151,10.21605873,0.054358348,-0.026379786,0.037704438,15,38,-24,-27,49
3,1693677713674108500,-0.118512981,2.41335535,10.21246719,0.054225113,-0.026246555,0.037704438,12,30,-27,-30,48
4,1693677713675108500,-0.117315881,2.410961151,10.21366405,0.054358348,-0.026246555,0.037970904,20,43,-24,-22,52
0,1693677713714004100,-0.113724582,2.412158251,10.20648193,0.054225113,-0.026113322,0.038104136,18,39,-19,-27,51
1,1693677713715004100,-0.112527482,2.410961151,10.21007347,0.054225113,-0.026246555,0.037970904,18,36,-26,-28,52
2,1693677713716004100,-0.112527482,2.408566952,10.20648193,0.054358348,-0.026246555,0.037970904,13,40,-32,-28,50
3,1693677713717004100,-0.112527482,2.407369852,10.20887566,0.054491576,-0.026246555,0.037970904,20,41,-25,-23,53
4,1693677713718004100,-0.112527482,2.406172752,10.21007347,0.054491576,-0.026113322,0.037970904,20,37,-23,-26,51
0,1693677713797235100,-0.114921682,2.409764051,10.21007347,0.054358348,-0.026246555,0.037970904,20,44,-20,-25,52
1,1693677713798235100,-0.113724582,2.407369852,10.20648193,0.054225113,-0.026246555,0.037837673,14,40,-29,-32,48
2,1693677713799235100,-0.113724582,2.407369852,10.20648193,0.054358348,-0.026246555,0.037837673,19,40,-27,-23,50
3,1693677713800235100,-0.111330383,2.409764051,10.2028904,0.054091886,-0.026113322,0.037837673,20,31,-25,-18,53
4,1693677713801235100,-0.111330383,2.410961151,10.20648193,0.054225113,-0.026246555,0.03757121,19,33,-19,-28,51
0,1693677713863831700,-0.114921682,2.406172752,10.198102,0.054491576,-0.026646247,0.037837673,-1,35,-29,-23,52
1,1693677713864831700,-0.113724582,2.410961151,10.19570827,0.054624807,-0.026513018,0.037837673,14,39,-25,-27,52
2,1693677713865831700,-0.112527482,2.410961151,10.19690514,0.054491576,-0.026513018,0.037837673,21,41,-19,-22,50
3,1693677713866831700,-0.112527482,2.410961151,10.19929886,0.054491576,-0.026513018,0.037970904,21,46,-23,-17,54
4,1693677713867831700,-0.116118781,2.410961151,10.19929886,0.054491576,-0.026513018,0.038104136,9,41,-27,-24,55
0,1693677713925860900,-0.108936176,2.412158251,10.22204399,0.054624807,-0.026779478,0.037704438,14,39,-27,-22,48
1,1693677713926860900,-0.108936176,2.41335535,10.22204399,0.054491576,-0.026646247,0.037704438,19,45,-19,-20,55
2,1693677713927860900,-0.110133275,2.41574955,10.22443867,0.054491576,-0.026379786,0.037704438,25,43,-25,-20,55
3,1693677713928860900,-0.111330383,2.41574955,10.22563553,0.054624807,-0.026379786,0.037837673,20,37,-23,-23,48
4,1693677713929860900,-0.113724582,2.41694665,10.22324085,0.054491576,-0.026379786,0.037704438,19,35,-21,-18,54
0,1693677713984363100,-0.119710088,2.41455245,10.21486187,0.054225113,-0.026246555,0.037437979,17,35,-19,-24,52
1,1693677713985363100,-0.119710088,2.41335535,10.21605873,0.054358348,-0.026379786,0.037437979,-7,40,-28,-22,51
2,1693677713986363100,-0.119710088,2.41455245,10.21965027,0.054358348,-0.026379786,0.03757121,20,42,-16,-24,56
3,1693677713987363100,-0.118512981,2.412158251,10.21725559,0.054358348,-0.026379786,0.037704438,19,36,-21,-26,54
4,1693677713988363100,-0.118512981,2.412158251,10.21486187,0.054491576,-0.026246555,0.037704438,17,35,-21,-26,50
0,1693677714045513800,-0.116118781,2.412158251,10.22802925,0.054091886,-0.026379786,0.037837673,19,36,-28,-23,52
1,1693677714046513800,-0.117315881,2.41335535,10.23042393,0.054091886,-0.026379786,0.037704438,19,41,-19,-27,34
2,1693677714047513800,-0.117315881,2.409764051,10.23162079,0.054225113,-0.026246555,0.03757121,12,41,-27,-16,53
3,1693677714048513800,-0.119710088,2.408566952,10.22922707,0.054225113,-0.026246555,0.03757121,15,38,-25,-24,42
4,1693677714049513800,-0.123301387,2.410961151,10.22683239,0.054358348,-0.026246555,0.03757121,17,35,-23,-27,46
0,1693677714129189400,-0.116118781,2.404975653,10.21246719,0.054358348,-0.026113322,0.037837673,17,41,-27,-22,53
1,1693677714130189400,-0.112527482,2.404975653,10.21725559,0.054358348,-0.026246555,0.037837673,18,42,-29,-26,55
2,1693677714131189400,-0.112527482,2.407369852,10.22084713,0.054358348,-0.026379786,0.037704438,21,41,-17,-22,48
3,1693677714132189400,-0.112527482,2.407369852,10.22324085,0.054358348,-0.026379786,0.037704438,13,32,-31,-24,54
4,1693677714133189400,-0.113724582,2.408566952,10.21965027,0.054225113,-0.026246555,0.037437979,17,37,-25,-23,48
0,1693677714186321400,-0.113724582,2.410961151,10.22443867,0.054225113,-0.026513018,0.03757121,16,41,-22,-28,55
1,1693677714187321400,-0.111330383,2.412158251,10.22443867,0.054358348,-0.026379786,0.03757121,21,41,-25,-26,50
2,1693677714188321400,-0.112527482,2.41335535,10.22324085,0.054491576,-0.026379786,0.03757121,20,36,-24,-27,49
3,1693677714189321400,-0.113724582,2.412158251,10.22802925,0.054358348,-0.026246555,0.037704438,6,33,-28,-28,49
4,1693677714190321400,-0.116118781,2.412158251,10.22802925,0.054358348,-0.026379786,0.037837673,20,40,-31,-23,53
0,1693677714268108700,-0.119710088,2.410961151,10.20648193,0.054358348,-0.026113322,0.037704438,13,41,-21,-19,55
1,1693677714269108700,-0.118512981,2.41455245,10.20528507,0.054358348,-0.025980091,0.037837673,18,34,-24,-26,52
2,1693677714270108700,-0.118512981,2.41455245,10.21246719,0.054358348,-0.025980091,0.037970904,18,39,-25,-19,56
3,1693677714271108700,-0.119710088,2.41455245,10.21845245,0.054491576,-0.025980091,0.037970904,13,40,-25,-20,52
4,1693677714272108700,-0.122104287,2.41694665,10.21725559,0.054624807,-0.025846859,0.037837673,20,44,-21,-20,54
0,1693677714337418600,-0.125695586,2.407369852,10.20049667,0.05489127,-0.026379786,0.037704438,20,33,-20,-22,52
1,1693677714338418600,-0.129286885,2.409764051,10.19929886,0.054758042,-0.026379786,0.037704438,18,35,-21,-22,53
2,1693677714339418600,-0.1316811,2.412158251,10.20408726,0.05489127,-0.026379786,0.037704438,20,39,-23,-24,49
3,1693677714340418600,-0.1316811,2.408566952,10.20648193,0.05489127,-0.026379786,0.037704438,13,43,-29,-22,52
4,1693677714341418600,-0.128089786,2.407369852,10.20648193,0.05489127,-0.026113322,0.037704438,20,36,-24,-20,50
0,1693677714398506300,-0.123301387,2.412158251,10.20648193,0.054758042,-0.026513018,0.03757121,15,35,-25,-32,52
1,1693677714399506300,-0.123301387,2.41335535,10.21486187,0.054758042,-0.026379786,0.037437979,11,30,-18,-26,48
2,1693677714400506300,-0.124498487,2.41455245,10.21725559,0.054758042,-0.026379786,0.037437979,15,35,-23,-28,50
3,1693677714401506300,-0.126892686,2.41455245,10.21725559,0.054624807,-0.026246555,0.03757121,10,44,-28,-26,50
4,1693677714402506300,-0.126892686,2.41574955,10.21366405,0.054624807,-0.026113322,0.03757121,20,42,-25,-18,49
0,1693677714457177300,-0.110133275,2.41335535,10.21127033,0.054624807,-0.026246555,0.038104136,13,42,-21,-23,51
1,1693677714458177300,-0.110133275,2.41574955,10.21007347,0.054624807,-0.026246555,0.038104136,13,36,-24,-26,44
2,1693677714459177300,-0.110133275,2.41335535,10.20528507,0.054624807,-0.026246555,0.038104136,13,35,-20,-24,51
3,1693677714460177300,-0.112527482,2.41335535,10.2028904,0.054758042,-0.026246555,0.037970904,18,39,-24,-17,52
4,1693677714461177300,-0.112527482,2.418143749,10.20887566,0.054758042,-0.026246555,0.037970904,20,45,-18,-18,55
0,1693677714524531700,-0.118512981,2.406172752,10.20169353,0.054358348,-0.026379786,0.037970904,13,31,-23,-20,55
1,1693677714525531700,-0.119710088,2.407369852,10.20408726,0.054358348,-0.026379786,0.038104136,18,35,-33,-32,48
2,1693677714526531700,-0.119710088,2.408566952,10.20767879,0.054358348,-0.026379786,0.037837673,21,37,-22,-24,54
3,1693677714527531700,-0.114921682,2.407369852,10.20528507,0.054358348,-0.026646247,0.037970904,20,47,-23,-26,55
4,1693677714528531700,-0.116118781,2.408566952,10.20528507,0.054225113,-0.026379786,0.037970904,13,35,-22,-22,49
0,1693677714609267100,-0.112527482,2.41694665,10.22084713,0.055024505,-0.026379786,0.037837673,15,31,-31,-24,45
1,1693677714610267100,-0.112527482,2.418143749,10.22563553,0.055024505,-0.026513018,0.037704438,20,43,-19,-17,52
2,1693677714611267100,-0.117315881,2.420537949,10.22324085,0.05489127,-0.026513018,0.037837673,19,37,-24,-23,50
3,1693677714612267100,-0.113724582,2.419340849,10.22563553,0.054758042,-0.026246555,0.037704438,19,33,-21,-10,48
4,1693677714613267100,-0.114921682,2.41694665,10.22922707,0.05489127,-0.026113322,0.037704438,23,37,-24,-27,51
0,1693677714692020100,-0.120907187,2.409764051,10.20767879,0.054624807,-0.025580399,0.037837673,15,36,-23,-26,48
1,1693677714693020100,-0.118512981,2.409764051,10.20887566,0.054491576,-0.025447167,0.037837673,13,36,-24,-24,34
2,1693677714694020100,-0.118512981,2.408566952,10.20408726,0.054758042,-0.025313934,0.037970904,18,31,-24,-19,55
3,1693677714695020100,-0.119710088,2.406172752,10.20528507,0.05489127,-0.025180703,0.037970904,15,36,-24,-27,54
4,1693677714696020100,-0.120907187,2.409764051,10.20887566,0.05489127,-0.025313934,0.037970904,17,30,-25,-22,48
0,1693677714756500200,-0.119710088,2.406172752,10.21127033,0.053692192,-0.025580399,0.037704438,17,33,-21,-28,49
1,1693677714757500200,-0.120907187,2.407369852,10.21486187,0.053825419,-0.02571363,0.037704438,21,39,-28,-17,45
2,1693677714758500200,-0.124498487,2.410961151,10.21605873,0.053958651,-0.02571363,0.037837673,17,44,-20,-20,51
3,1693677714759500200,-0.123301387,2.41335535,10.21605873,0.054225113,-0.025846859,0.037837673,20,40,-21,-27,52
4,1693677714760500200,-0.123301387,2.41335535,10.21605873,0.054091886,-0.02571363,0.037837673,17,37,-25,-28,53
0,1693677714827283000,-0.119710088,2.41574955,10.20767879,0.054225113,-0.02571363,0.03757121,13,39,-25,-27,39
1,1693677714828283000,-0.122104287,2.41574955,10.20648193,0.054491576,-0.025846859,0.037704438,17,41,-16,-18,54
2,1693677714829283000,-0.120907187,2.41694665,10.21366405,0.054624807,-0.025846859,0.03757121,11,40,-24,-23,55
3,1693677714830283000,-0.124498487,2.41574955,10.22683239,0.054624807,-0.025846859,0.037704438,13,39,-17,-20,50
4,1693677714831283000,-0.123301387,2.41694665,10.23281765,0.05489127,-0.025846859,0.037970904,20,35,-30,-27,50
0,1693677714879510600,-0.116118781,2.407369852,10.198102,0.053958651,-0.026246555,0.037837673,19,35,-25,-24,49
1,1693677714880510600,-0.118512981,2.407369852,10.20408726,0.054358348,-0.026513018,0.037704438,20,36,-24,-16,57
2,1693677714881510600,-0.118512981,2.407369852,10.21127033,0.05489127,-0.02691271,0.037970904,20,35,-19,-23,53
3,1693677714882510600,-0.118512981,2.406172752,10.20887566,0.054758042,-0.027445635,0.037970904,20,40,-20,-20,53
4,1693677714883510600,-0.120907187,2.408566952,10.20767879,0.05489127,-0.02797856,0.038104136,10,36,-31,-26,43
0,1693677714993522600,-0.114921682,2.418143749,10.21605873,0.054358348,-0.026646247,0.038237367,17,40,-24,-22,49
1,1693677714994522600,-0.116118781,2.41694665,10.21246719,0.054358348,-0.026513018,0.038104136,21,45,-16,-26,53
2,1693677714995522600,-0.116118781,2.41455245,10.20767879,0.054758042,-0.026379786,0.037970904,19,36,-27,-27,50
3,1693677714996522600,-0.113724582,2.41694665,10.20049667,0.055157732,-0.026779478,0.037704438,17,40,-28,-32,51
4,1693677714997522600,-0.113724582,2.41574955,10.19690514,0.05489127,-0.02691271,0.03757121,21,37,-29,-30,49
0,1693677715020274100,-0.116118781,2.41694665,10.22324085,0.055557426,-0.027578866,0.038237367,20,44,-19,-18,54
1,1693677715021274100,-0.117315881,2.420537949,10.22204399,0.055424199,-0.027312404,0.037970904,18,45,-25,-20,52
2,1693677715022274100,-0.116118781,2.421735048,10.22443867,0.055157732,-0.02691271,0.037837673,20,43,-20,-28,52
3,1693677715023274100,-0.119710088,2.418143749,10.22563553,0.054758042,-0.026246555,0.037704438,19,34,-32,-30,50
4,1693677715024274100,-0.120907187,2.41574955,10.21845245,0.054491576,-0.02571363,0.037704438,13,37,-25,-27,50
0,1693677715084607100,-0.116118781,2.419340849,10.22084713,0.055157732,-0.027179174,0.037970904,21,40,-19,-6,55
1,1693677715085607100,-0.113724582,2.418143749,10.21965027,0.055290964,-0.027578866,0.037970904,20,39,-24,-20,48
2,1693677715086607100,-0.114921682,2.418143749,10.21605873,0.055290964,-0.027578866,0.037970904,20,37,-23,-23,52
3,1693677715087607100,-0.116118781,2.41694665,10.21486187,0.055157732,-0.027179174,0.037837673,15,33,-21,-24,53
4,1693677715088607100,-0.114921682,2.41574955,10.21246719,0.055157732,-0.026779478,0.037837673,13,40,-16,-19,54
0,1693677715151378900,-0.117315881,2.412158251,10.22084713,0.054758042,-0.026513018,0.037970904,20,35,-29,-24,55
1,1693677715152378900,-0.116118781,2.409764051,10.22084713,0.055024505,-0.026646247,0.037837673,19,40,-20,-20,53
2,1693677715153378900,-0.117315881,2.410961151,10.21366405,0.055157732,-0.026513018,0.037837673,18,36,-24,-26,50
3,1693677715154378900,-0.113724582,2.410961151,10.21127033,0.055424199,-0.026646247,0.037970904,20,31,-24,-25,56
4,1693677715155378900,-0.116118781,2.412158251,10.21486187,0.055424199,-0.026646247,0.037970904,21,44,-23,-22,52
0,1693677715219339700,-0.105344877,2.418143749,10.21127033,0.054225113,-0.026513018,0.037837673,15,29,-21,-21,50
1,1693677715220339700,-0.104147777,2.418143749,10.21007347,0.054225113,-0.026513018,0.037837673,20,41,-28,-19,51
2,1693677715221339700,-0.108936176,2.41694665,10.21127033,0.054225113,-0.026379786,0.037837673,15,32,-24,-28,52
3,1693677715222339700,-0.107739076,2.41694665,10.21605873,0.054225113,-0.026646247,0.037837673,15,31,-22,-20,54
4,1693677715223339700,-0.108936176,2.41455245,10.22084713,0.054358348,-0.026513018,0.037970904,20,40,-20,-26,55
0,1693677715296523900,-0.119710088,2.402581453,10.20767879,0.054358348,-0.026246555,0.038104136,19,32,-24,-22,49
1,1693677715297523900,-0.119710088,2.401384354,10.21007347,0.054358348,-0.026113322,0.038370594,19,36,-25,-24,48
2,1693677715298523900,-0.119710088,2.401384354,10.20887566,0.054358348,-0.026379786,0.038370594,17,39,-17,-30,53
3,1693677715299523900,-0.117315881,2.400187254,10.20767879,0.054358348,-0.026513018,0.038237367,15,35,-21,-16,51
4,1693677715300523900,-0.114921682,2.400187254,10.21127033,0.054491576,-0.026646247,0.038237367,13,43,-24,-19,55
0,1693677715355487300,-0.114921682,2.402581453,10.21366405,0.054491576,-0.026646247,0.037704438,6,39,-25,-26,49
1,1693677715356487300,-0.117315881,2.403778553,10.21486187,0.054624807,-0.026779478,0.037704438,19,41,-25,-23,53
2,1693677715357487300,-0.116118781,2.404975653,10.21366405,0.054491576,-0.026779478,0.037704438,17,30,-25,-26,50
3,1693677715358487300,-0.117315881,2.406172752,10.21007347,0.054491576,-0.02691271,0.037704438,20,46,-19,-19,55
4,1693677715359487300,-0.116118781,2.408566952,10.20767879,0.054491576,-0.026779478,0.037837673,19,41,-25,-22,52
0,1693677715413975000,-0.123301387,2.408566952,10.23281765,0.054358348,-0.026246555,0.038503829,15,30,-28,-32,48
1,1693677715414975000,-0.120907187,2.408566952,10.22802925,0.054358348,-0.026379786,0.038370594,20,35,-22,-24,53
2,1693677715415975000,-0.123301387,2.408566952,10.22802925,0.054491576,-0.026246555,0.038370594,17,35,-23,-27,52
3,1693677715416975000,-0.116118781,2.408566952,10.22922707,0.054624807,-0.026379786,0.038237367,18,36,-21,-26,50
4,1693677715417975000,-0.114921682,2.408566952,10.23162079,0.054624807,-0.026513018,0.038237367,20,33,-23,-19,52
0,1693677715489228700,-0.119710088,2.406172752,10.21246719,0.054624807,-0.026379786,0.037437979,15,38,-24,-20,52
1,1693677715490228700,-0.119710088,2.409764051,10.20887566,0.054624807,-0.026246555,0.037437979,20,35,-23,-12,52
2,1693677715491228700,-0.118512981,2.407369852,10.20528507,0.054624807,-0.026379786,0.037171517,20,47,-22,-16,54
3,1693677715492228700,-0.118512981,2.406172752,10.20169353,0.054624807,-0.026379786,0.037304748,20,40,-23,-15,52
4,1693677715493228700,-0.117315881,2.404975653,10.20049667,0.054624807,-0.026379786,0.037437979,16,40,-25,-23,50
0,1693677715558243600,-0.110133275,2.403778553,10.21605873,0.054358348,-0.026113322,0.037304748,14,32,-19,-19,50
1,1693677715559243600,-0.110133275,2.404975653,10.21845245,0.054491576,-0.026246555,0.037304748,20,48,-25,-15,55
2,1693677715560243600,-0.112527482,2.403778553,10.22443867,0.054758042,-0.026113322,0.037304748,19,45,-27,-23,52
3,1693677715561243600,-0.116118781,2.402581453,10.22563553,0.054758042,-0.026246555,0.037304748,22,43,-18,-20,54
4,1693677715562243600,-0.113724582,2.402581453,10.22443867,0.054758042,-0.026246555,0.037304748,14,35,-24,-28,49
0,1693677715623629700,-0.122104287,2.403778553,10.21725559,0.054225113,-0.026379786,0.037837673,-11,41,-23,-26,54
1,1693677715624629700,-0.120907187,2.403778553,10.21366405,0.054225113,-0.026379786,0.037837673,20,35,-19,-25,51
2,1693677715625629700,-0.124498487,2.406172752,10.21486187,0.053958651,-0.026379786,0.037970904,15,43,-22,-23,48
3,1693677715626629700,-0.122104287,2.403778553,10.22084713,0.054225113,-0.026379786,0.037970904,18,35,-20,-22,54
4,1693677715627629700,-0.123301387,2.402581453,10.22084713,0.054225113,-0.026646247,0.037970904,6,41,-21,-20,40
0,1693677715703648900,-0.113724582,2.404975653,10.22683239,0.054491576,-0.026513018,0.037704438,15,40,-20,-23,55
1,1693677715704648900,-0.110133275,2.403778553,10.22563553,0.054358348,-0.026379786,0.03757121,20,41,-28,-23,48
2,1693677715705648900,-0.110133275,2.407369852,10.22443867,0.054358348,-0.026246555,0.03757121,10,43,-25,-23,49
3,1693677715706648900,-0.106541976,2.407369852,10.22204399,0.054358348,-0.026246555,0.037304748,18,30,-19,-23,50
4,1693677715707648900,-0.108936176,2.407369852,10.21845245,0.054358348,-0.026379786,0.037171517,19,43,-28,-16,52
0,1693677715786122900,-0.104147777,2.410961151,10.20767879,0.054758042,-0.026646247,0.037837673,18,41,-21,-27,52
1,1693677715787122900,-0.10295067,2.412158251,10.20648193,0.054624807,-0.026513018,0.037837673,19,30,-24,-23,49
2,1693677715788122900,-0.104147777,2.407369852,10.20767879,0.054624807,-0.026379786,0.037704438,8,31,-29,-24,45
3,1693677715789122900,-0.105344877,2.403778553,10.20767879,0.054491576,-0.026379786,0.037837673,15,36,-19,-20,53
4,1693677715790122900,-0.108936176,2.402581453,10.20648193,0.054491576,-0.026646247,0.037970904,14,39,-24,-24,55
0,1693677715830204100,-0.116118781,2.402581453,10.21845245,0.054358348,-0.026513018,0.037704438,20,35,-23,-22,44
1,1693677715831204100,-0.118512981,2.404975653,10.21486187,0.054358348,-0.026646247,0.03757121,20,30,-21,-23,55
2,1693677715832204100,-0.119710088,2.408566952,10.21486187,0.054491576,-0.026513018,0.03757121,19,41,-30,-31,51
3,1693677715833204100,-0.118512981,2.410961151,10.21605873,0.054491576,-0.026246555,0.037704438,20,33,-23,-23,55
4,1693677715834204100,-0.117315881,2.409764051,10.22204399,0.054624807,-0.026379786,0.037704438,21,41,-27,-19,53
0,1693677715915422100,-0.116118781,2.412158251,10.20767879,0.054491576,-0.026513018,0.037837673,19,40,-29,-21,50
1,1693677715916422100,-0.117315881,2.412158251,10.20767879,0.054358348,-0.026513018,0.03757121,14,30,-29,-23,49
2,1693677715917422100,-0.119710088,2.41335535,10.20528507,0.054491576,-0.026513018,0.03757121,20,40,-23,-27,54
3,1693677715918422100,-0.120907187,2.41335535,10.20528507,0.054491576,-0.026646247,0.037704438,13,40,-20,-18,54
4,1693677715919422100,-0.119710088,2.410961151,10.20528507,0.054491576,-0.026779478,0.037704438,19,41,-22,-21,53
0,1693677715984382400,-0.117315881,2.409764051,10.20648193,0.054358348,-0.026246555,0.037704438,20,33,-21,-22,56
1,1693677715985382400,-0.117315881,2.410961151,10.21007347,0.054624807,-0.026379786,0.037437979,20,39,-29,-28,37
2,1693677715986382400,-0.117315881,2.408566952,10.20887566,0.054758042,-0.026246555,0.037304748,14,47,-19,-20,55
3,1693677715987382400,-0.120907187,2.404975653,10.21246719,0.054624807,-0.026246555,0.037171517,-6,33,-27,-21,49
4,1693677715988382400,-0.119710088,2.406172752,10.21127033,0.054624807,-0.026246555,0.037171517,21,47,-19,-27,54
0,1693677716043557000,-0.111330383,2.406172752,10.20648193,0.054225113,-0.025846859,0.037704438,12,31,-23,-27,50
1,1693677716044557000,-0.113724582,2.406172752,10.20887566,0.054491576,-0.026113322,0.03757121,18,35,-19,-24,51
2,1693677716045557000,-0.113724582,2.404975653,10.20767879,0.054624807,-0.025980091,0.03757121,20,38,-23,-17,51
3,1693677716046557000,-0.113724582,2.406172752,10.20528507,0.054491576,-0.026113322,0.037704438,22,45,-18,-23,55
4,1693677716047557000,-0.111330383,2.407369852,10.20648193,0.054491576,-0.026379786,0.037704438,9,40,-23,-28,54
0,1693677716104537000,-0.117315881,2.408566952,10.21605873,0.053958651,-0.026646247,0.037970904,14,31,-29,-18,51
1,1693677716105537000,-0.118512981,2.408566952,10.21366405,0.054225113,-0.026513018,0.037970904,18,37,-19,-23,52
2,1693677716106537000,-0.116118781,2.409764051,10.21007347,0.054358348,-0.026513018,0.038104136,19,40,-27,-16,54
3,1693677716107537000,-0.116118781,2.410961151,10.20648193,0.054358348,-0.026646247,0.037970904,20,39,-25,-33,54
4,1693677716108537000,-0.117315881,2.410961151,10.20408726,0.054358348,-0.026646247,0.038104136,13,36,-25,-24,50
0,1693677716165814600,-0.120907187,2.408566952,10.20528507,0.054624807,-0.026246555,0.037704438,20,32,-25,-24,40
1,1693677716166814600,-0.119710088,2.410961151,10.20408726,0.054624807,-0.026246555,0.037704438,18,37,-28,-20,56
2,1693677716167814600,-0.122104287,2.407369852,10.20767879,0.054491576,-0.026113322,0.03757121,13,40,-19,-20,55
3,1693677716168814600,-0.118512981,2.404975653,10.20528507,0.054624807,-0.025980091,0.03757121,15,33,-24,-24,53
4,1693677716169814600,-0.117315881,2.408566952,10.20049667,0.054491576,-0.026113322,0.03757121,18,37,-20,-22,54
0,1693677716267557900,-0.111330383,2.407369852,10.22683239,0.054758042,-0.026513018,0.037437979,17,36,-27,-11,55
1,1693677716268557900,-0.111330383,2.408566952,10.22802925,0.054758042,-0.026779478,0.03757121,18,39,-20,-22,80
2,1693677716269557900,-0.111330383,2.408566952,10.22683239,0.054758042,-0.026779478,0.03757121,19,45,-20,-20,54
3,1693677716270557900,-0.107739076,2.408566952,10.22922707,0.054624807,-0.026779478,0.037304748,20,40,-25,-28,52
4,1693677716271557900,-0.106541976,2.408566952,10.22802925,0.054758042,-0.026646247,0.037304748,17,31,-28,-31,51
0,1693677716313531900,-0.119710088,2.403778553,10.20767879,0.054491576,-0.027045943,0.037970904,9,36,-24,-24,53
1,1693677716314531900,-0.116118781,2.408566952,10.20169353,0.054358348,-0.02691271,0.037970904,18,35,-24,-28,52
2,1693677716315531900,-0.116118781,2.410961151,10.20049667,0.054624807,-0.027045943,0.037704438,23,40,-21,-24,52
3,1693677716316531900,-0.114921682,2.409764051,10.20169353,0.054358348,-0.027179174,0.037704438,19,35,-25,-20,49
4,1693677716317531900,-0.117315881,2.410961151,10.20169353,0.054624807,-0.027045943,0.037704438,20,43,-27,-24,54
0,1693677716382492500,-0.117315881,2.418143749,10.20408726,0.054358348,-0.026779478,0.037970904,19,46,-25,-24,52
1,1693677716383492500,-0.116118781,2.418143749,10.2028904,0.054358348,-0.02691271,0.037837673,20,39,-28,-20,50
2,1693677716384492500,-0.114921682,2.41574955,10.20169353,0.054225113,-0.026779478,0.037837673,20,42,-28,-24,49
3,1693677716385492500,-0.114921682,2.41694665,10.19929886,0.054091886,-0.026779478,0.037837673,10,32,-24,-27,48
4,1693677716386492500,-0.114921682,2.41694665,10.2028904,0.053958651,-0.026379786,0.037970904,14,35,-21,-22,55
0,1693677716455450600,-0.117315881,2.406172752,10.22922707,0.054091886,-0.026379786,0.037437979,19,43,-25,-21,53
1,1693677716456450600,-0.117315881,2.409764051,10.22922707,0.054091886,-0.026513018,0.03757121,20,33,-21,-18,51
2,1693677716457450600,-0.114921682,2.407369852,10.22802925,0.054091886,-0.026646247,0.037704438,20,33,-24,-22,52
3,1693677716458450600,-0.114921682,2.403778553,10.22563553,0.054225113,-0.026646247,0.037704438,17,39,-19,-27,49
4,1693677716459450600,-0.116118781,2.407369852,10.22204399,0.054358348,-0.026513018,0.037837673,20,44,-23,-19,50
0,1693677716514416800,-0.105344877,2.404975653,10.21486187,0.054358348,-0.026379786,0.037837673,22,33,-23,-22,52
1,1693677716515416800,-0.105344877,2.406172752,10.21007347,0.054225113,-0.026513018,0.037970904,22,43,-21,-23,49
2,1693677716516416800,-0.104147777,2.408566952,10.20767879,0.054225113,-0.026379786,0.037970904,15,37,-19,-22,48
3,1693677716517416800,-0.105344877,2.408566952,10.20528507,0.054358348,-0.026379786,0.037970904,19,36,-25,-26,53
4,1693677716518416800,-0.107739076,2.412158251,10.20408726,0.054358348,-0.026513018,0.037970904,18,37,-19,-18,50
0,1693677716583384400,-0.108936176,2.410961151,10.20887566,0.054491576,-0.026513018,0.037837673,19,41,-25,-20,52
1,1693677716584384400,-0.108936176,2.410961151,10.20767879,0.054491576,-0.026646247,0.037837673,14,36,-24,-28,46
2,1693677716585384400,-0.108936176,2.409764051,10.20767879,0.054758042,-0.026513018,0.037837673,15,39,-29,-30,49
3,1693677716586384400,-0.107739076,2.407369852,10.21127033,0.054624807,-0.026513018,0.037837673,17,41,-23,-22,55
4,1693677716587384400,-0.112527482,2.406172752,10.21725559,0.054624807,-0.026246555,0.037704438,20,35,-28,-20,54
0,1693677716661340700,-0.108936176,2.410961151,10.20887566,0.05489127,-0.025980091,0.037837673,17,44,-23,-26,53
1,1693677716662340700,-0.111330383,2.408566952,10.21246719,0.05489127,-0.026113322,0.037704438,17,31,-24,-28,51
2,1693677716663340700,-0.114921682,2.409764051,10.21246719,0.054758042,-0.026113322,0.037704438,22,39,-23,-19,51
3,1693677716664340700,-0.116118781,2.408566952,10.21127033,0.054624807,-0.026113322,0.037704438,20,35,-19,-21,55
4,1693677716665340700,-0.113724582,2.407369852,10.21127033,0.054491576,-0.026113322,0.037704438,18,39,-21,-28,53
0,1693677716744294300,-0.105344877,2.407369852,10.21486187,0.054624807,-0.026379786,0.037704438,17,31,-16,-20,56
1,1693677716745294300,-0.105344877,2.409764051,10.21246719,0.054758042,-0.026379786,0.037837673,8,46,-21,-19,50
2,1693677716746294300,-0.107739076,2.409764051,10.20887566,0.054624807,-0.026513018,0.037837673,21,45,-21,-28,53
3,1693677716747294300,-0.111330383,2.412158251,10.20528507,0.054758042,-0.026379786,0.037704438,20,37,-24,-23,55
4,1693677716748294300,-0.112527482,2.412158251,10.2028904,0.054758042,-0.026513018,0.03757121,20,39,-25,-23,49
0,1693677716783271100,-0.114921682,2.410961151,10.21007347,0.054091886,-0.026379786,0.037437979,14,35,-20,-26,46
1,1693677716784271100,-0.113724582,2.409764051,10.21007347,0.053825419,-0.026513018,0.03757121,23,37,-29,-22,51
2,1693677716785271100,-0.112527482,2.409764051,10.21127033,0.053825419,-0.026646247,0.037437979,20,38,-19,-14,54
3,1693677716786271100,-0.114921682,2.408566952,10.21007347,0.054091886,-0.026513018,0.03757121,16,30,-23,-22,49
4,1693677716787271100,-0.116118781,2.407369852,10.20887566,0.054091886,-0.026646247,0.037437979,18,31,-19,-26,52
0,1693677716860767800,-0.106541976,2.409764051,10.21965027,0.054491576,-0.026379786,0.037837673,18,43,-29,-20,54
1,1693677716861767800,-0.105344877,2.409764051,10.21845245,0.054491576,-0.026379786,0.037837673,16,33,-25,-28,38
2,1693677716862767800,-0.105344877,2.410961151,10.21965027,0.054491576,-0.026113322,0.037837673,20,37,-24,-24,55
3,1693677716863767800,-0.106541976,2.410961151,10.22204399,0.054358348,-0.026113322,0.037704438,19,33,-24,-30,52
4,1693677716864767800,-0.110133275,2.410961151,10.22324085,0.054491576,-0.026113322,0.037704438,14,33,-23,-23,51
0,1693677716927704400,-0.117315881,2.404975653,10.20648193,0.054225113,-0.026379786,0.037704438,18,30,-20,-26,52
1,1693677716928704400,-0.117315881,2.403778553,10.20887566,0.054358348,-0.026246555,0.037704438,20,32,-17,-19,55
2,1693677716929704400,-0.118512981,2.403778553,10.21486187,0.054358348,-0.026246555,0.037837673,19,40,-27,-16,52
3,1693677716930704400,-0.119710088,2.403778553,10.21605873,0.054491576,-0.026379786,0.037970904,20,34,-19,-22,50
4,1693677716931704400,-0.117315881,2.404975653,10.21127033,0.054624807,-0.026513018,0.037704438,13,32,-23,-22,50
0,1693677716988668800,-0.118512981,2.407369852,10.21246719,0.054758042,-0.026113322,0.037970904,11,36,-23,-24,55
1,1693677716989668800,-0.117315881,2.407369852,10.21007347,0.054758042,-0.026113322,0.037970904,11,39,-19,-27,54
2,1693677716990668800,-0.117315881,2.412158251,10.20648193,0.05489127,-0.026113322,0.037837673,13,43,-21,-21,50
3,1693677716991668800,-0.117315881,2.412158251,10.20767879,0.05489127,-0.026113322,0.037970904,20,43,-25,-27,48
4,1693677716992668800,-0.116118781,2.410961151,10.20887566,0.054624807,-0.026113322,0.037837673,16,33,-17,-22,55
0,1693677717069380800,-0.112527482,2.404975653,10.22084713,0.054624807,-0.026113322,0.037704438,20,39,-25,-23,55
1,1693677717070380800,-0.114921682,2.406172752,10.21605873,0.054491576,-0.026246555,0.037704438,15,36,-23,-22,52
2,1693677717071380800,-0.112527482,2.404975653,10.21007347,0.054624807,-0.026379786,0.037704438,20,33,-25,-18,54
3,1693677717072380800,-0.113724582,2.403778553,10.20528507,0.054491576,-0.026646247,0.037704438,15,35,-21,-22,51
4,1693677717073380800,-0.116118781,2.402581453,10.20528507,0.054491576,-0.026513018,0.037704438,17,32,-22,-22,55
0,1693677717154328000,-0.116118781,2.409764051,10.22324085,0.054358348,-0.026646247,0.037970904,14,39,-25,-14,54
1,1693677717155328000,-0.116118781,2.409764051,10.22204399,0.054358348,-0.026513018,0.037970904,13,39,-21,-24,51
2,1693677717156328000,-0.116118781,2.410961151,10.22204399,0.054358348,-0.026513018,0.037970904,19,35,-28,-31,52
3,1693677717157328000,-0.116118781,2.412158251,10.22683239,0.054491576,-0.026646247,0.037970904,20,39,-24,-19,54
4,1693677717158328000,-0.117315881,2.412158251,10.22204399,0.054491576,-0.026646247,0.037970904,20,42,-18,-28,53
0,1693677717195304600,-0.114921682,2.41335535,10.20767879,0.054358348,-0.026246555,0.038237367,20,33,-25,-27,52
1,1693677717196304600,-0.114921682,2.41335535,10.21007347,0.054225113,-0.026379786,0.038104136,22,35,-23,-19,28
2,1693677717197304600,-0.110133275,2.412158251,10.21486187,0.054225113,-0.026513018,0.038104136,11,39,-25,-24,52
3,1693677717198304600,-0.107739076,2.41335535,10.21605873,0.054091886,-0.026513018,0.038104136,20,39,-20,-24,55
4,1693677717199304600,-0.107739076,2.41574955,10.21725559,0.054091886,-0.026513018,0.037970904,20,44,-21,-23,55
0,1693677717274624700,-0.118512981,2.407369852,10.20408726,0.054225113,-0.026646247,0.037704438,16,46,-27,-20,49
1,1693677717275624700,-0.122104287,2.406172752,10.20049667,0.054091886,-0.026779478,0.037704438,18,37,-21,-26,55
2,1693677717276624700,-0.124498487,2.407369852,10.20049667,0.054091886,-0.026646247,0.037704438,20,41,-22,-24,54
3,1693677717277624700,-0.120907187,2.407369852,10.20049667,0.054225113,-0.026646247,0.037837673,17,32,-17,-20,50
4,1693677717278624700,-0.122104287,2.403778553,10.20049667,0.054225113,-0.026513018,0.037970904,20,43,-21,-23,53
0,1693677717331593400,-0.117315881,2.408566952,10.20049667,0.05489127,-0.026646247,0.037304748,13,32,-29,-29,47
1,1693677717332593400,-0.117315881,2.404975653,10.19929886,0.054758042,-0.026646247,0.037304748,14,36,-19,-20,54
2,1693677717333593400,-0.118512981,2.403778553,10.20169353,0.054758042,-0.026646247,0.037304748,18,43,-21,-20,53
3,1693677717334593400,-0.118512981,2.402581453,10.19929886,0.054758042,-0.026646247,0.037437979,21,41,-20,-16,55
4,1693677717335593400,-0.117315881,2.401384354,10.20049667,0.054758042,-0.026779478,0.037437979,20,36,-19,-23,54
0,1693677717396553200,-0.119710088,2.41694665,10.22324085,0.055157732,-0.027312404,0.038370594,20,31,-23,-27,51
1,1693677717397553200,-0.119710088,2.41694665,10.22204399,0.055290964,-0.027179174,0.038237367,20,36,-23,-20,50
2,1693677717398553200,-0.119710088,2.418143749,10.22204399,0.055157732,-0.02691271,0.038237367,21,44,-19,-22,54
3,1693677717399553200,-0.122104287,2.41574955,10.21246719,0.055157732,-0.026379786,0.038104136,14,39,-25,-20,52
4,1693677717400553200,-0.124498487,2.41455245,10.20887566,0.054758042,-0.026113322,0.037837673,20,48,-29,-24,49
0,1693677717483504400,-0.118512981,2.406172752,10.21366405,0.05489127,-0.02691271,0.037837673,20,48,-18,-19,55
1,1693677717484504400,-0.117315881,2.407369852,10.21486187,0.055157732,-0.027312404,0.038104136,20,35,-20,-19,54
2,1693677717485504400,-0.117315881,2.410961151,10.21486187,0.055024505,-0.027312404,0.038237367,20,39,-19,-17,55
3,1693677717486504400,-0.116118781,2.412158251,10.21605873,0.055024505,-0.027312404,0.038370594,20,40,-18,-24,53
4,1693677717487504400,-0.118512981,2.41694665,10.21845245,0.055290964,-0.027179174,0.038237367,20,37,-25,-16,52
0,1693677717548467300,-0.123301387,2.41694665,10.20767879,0.054091886,-0.025580399,0.03757121,20,43,-19,-19,69
1,1693677717549467300,-0.124498487,2.41455245,10.20528507,0.054091886,-0.025980091,0.037704438,25,46,-24,-23,54
2,1693677717550467300,-0.124498487,2.412158251,10.2028904,0.054091886,-0.026513018,0.037837673,14,40,-16,-18,54
3,1693677717551467300,-0.122104287,2.41335535,10.20648193,0.054358348,-0.026779478,0.037837673,10,45,-28,-30,52
4,1693677717552467300,-0.122104287,2.41455245,10.21127033,0.054491576,-0.027045943,0.037837673,20,43,-27,-34,50
0,1693677717618428900,-0.112527482,2.41694665,10.20528507,0.054225113,-0.026513018,0.037704438,19,41,-17,-24,54
1,1693677717619428900,-0.114921682,2.41574955,10.20408726,0.054091886,-0.026246555,0.03757121,20,43,-19,-16,23
2,1693677717620428900,-0.117315881,2.41574955,10.20169353,0.053958651,-0.025980091,0.037304748,15,39,-24,-17,55
3,1693677717621428900,-0.117315881,2.41335535,10.20049667,0.053958651,-0.025846859,0.037437979,17,36,-23,-18,50
4,1693677717622428900,-0.117315881,2.409764051,10.19929886,0.053692192,-0.025846859,0.03757121,11,30,-25,-28,50
0,1693677717675394500,-0.117315881,2.41694665,10.198102,0.05489127,-0.027312404,0.037704438,15,32,-21,-22,55
1,1693677717676394500,-0.114921682,2.41694665,10.19929886,0.05489127,-0.027045943,0.03757121,20,41,-22,-23,37
2,1693677717677394500,-0.114921682,2.41694665,10.19929886,0.05489127,-0.026779478,0.037437979,11,31,-33,-26,49
3,1693677717678394500,-0.116118781,2.419340849,10.2028904,0.05489127,-0.026779478,0.037437979,20,32,-31,-27,45
4,1693677717679394500,-0.110133275,2.422932148,10.20169353,0.05489127,-0.026646247,0.037304748,13,40,-29,-30,51
0,1693677717753350000,-0.118512981,2.41574955,10.20767879,0.054358348,-0.026513018,0.037704438,15,45,-25,-19,54
1,1693677717754350000,-0.116118781,2.41574955,10.21246719,0.054491576,-0.026779478,0.037970904,16,36,-15,-22,53
2,1693677717755350000,-0.112527482,2.41335535,10.21605873,0.054624807,-0.02691271,0.037970904,15,44,-24,-31,53
3,1693677717756350000,-0.110133275,2.412158251,10.22563553,0.054758042,-0.02691271,0.037704438,13,31,-24,-26,46
4,1693677717757350000,-0.113724582,2.41455245,10.22324085,0.05489127,-0.026779478,0.037704438,21,36,-25,-20,54
0,1693677717815314500,-0.116118781,2.406172752,10.22204399,0.054358348,-0.026246555,0.037837673,19,46,-18,-21,55
1,1693677717816314500,-0.114921682,2.404975653,10.22443867,0.054624807,-0.025980091,0.037837673,15,43,-25,-23,55
2,1693677717817314500,-0.116118781,2.404975653,10.21845245,0.054491576,-0.026113322,0.037704438,20,39,-20,-19,53
3,1693677717818314500,-0.116118781,2.404975653,10.21366405,0.054491576,-0.026246555,0.03757121,13,35,-21,-29,50
4,1693677717819314500,-0.114921682,2.407369852,10.21007347,0.054624807,-0.026379786,0.03757121,13,39,-25,-24,49
0,1693677717876278700,-0.114921682,2.403778553,10.21486187,0.054358348,-0.026646247,0.037704438,14,35,-23,-31,51
1,1693677717877278700,-0.112527482,2.403778553,10.21725559,0.054225113,-0.026779478,0.037704438,17,40,-22,-20,53
2,1693677717878278700,-0.114921682,2.404975653,10.21965027,0.054091886,-0.026646247,0.037837673,10,33,-33,-22,50
3,1693677717879278700,-0.116118781,2.407369852,10.21845245,0.054091886,-0.026646247,0.037704438,19,37,-23,-26,50
4,1693677717880278700,-0.117315881,2.408566952,10.21486187,0.054225113,-0.026646247,0.037837673,15,42,-27,-23,55
0,1693677717961237600,-0.113724582,2.41455245,10.21007347,0.055024505,-0.027578866,0.038237367,19,37,-20,-23,55
1,1693677717962237600,-0.113724582,2.41694665,10.20408726,0.055024505,-0.027845331,0.038104136,15,32,-17,-28,52
2,1693677717963237600,-0.111330383,2.419340849,10.198102,0.055157732,-0.027445635,0.037970904,17,35,-24,-24,53
3,1693677717964237600,-0.108936176,2.41455245,10.19211674,0.055024505,-0.027312404,0.037837673,13,41,-24,-24,52
4,1693677717965237600,-0.112527482,2.412158251,10.19211674,0.054624807,-0.02691271,0.037837673,20,40,-24,-22,55
0,1693677718025204800,-0.120907187,2.403778553,10.2028904,0.05489127,-0.028245023,0.038637057,17,36,-21,-19,50
1,1693677718026204800,-0.119710088,2.407369852,10.20767879,0.055557426,-0.02917764,0.038770292,14,35,-27,-20,49
2,1693677718027204800,-0.117315881,2.412158251,10.21486187,0.056090351,-0.029444104,0.038903523,19,37,-27,-19,50
3,1693677718028204800,-0.113724582,2.41455245,10.21845245,0.05595712,-0.029310873,0.038637057,15,45,-22,-30,53
4,1693677718029204800,-0.112527482,2.41694665,10.21725559,0.055557426,-0.028511487,0.038637057,21,41,-25,-18,55
0,1693677718076175400,-0.119710088,2.403778553,10.22084713,0.053958651,-0.026113322,0.037437979,13,40,-21,-18,54
1,1693677718077175400,-0.123301387,2.401384354,10.22084713,0.053958651,-0.026246555,0.037704438,23,39,-18,-23,54
2,1693677718078175400,-0.126892686,2.398990154,10.22324085,0.054358348,-0.02691271,0.037970904,21,41,-21,-22,55
3,1693677718079175400,-0.126892686,2.402581453,10.22324085,0.05489127,-0.027845331,0.038237367,13,42,-23,-19,53
4,1693677718080175400,-0.125695586,2.404975653,10.22084713,0.055290964,-0.028378254,0.038370594,17,36,-20,-20,52
0,1693677718166125400,-0.118512981,2.41455245,10.22084713,0.054491576,-0.027179174,0.038104136,10,30,-24,-20,49
1,1693677718167125400,-0.117315881,2.41335535,10.22324085,0.054491576,-0.02691271,0.038104136,21,43,-24,-22,50
2,1693677718168125400,-0.117315881,2.412158251,10.21965027,0.054091886,-0.026779478,0.037970904,17,43,-22,-27,44
3,1693677718169125400,-0.113724582,2.41335535,10.21605873,0.053825419,-0.026513018,0.038104136,29,40,-24,-16,53
4,1693677718170125400,-0.114921682,2.407369852,10.20887566,0.054091886,-0.026513018,0.038370594,15,40,-20,-17,54
0,1693677718212098000,-0.112527482,2.410961151,10.2028904,0.054758042,-0.027312404,0.038104136,15,30,-25,-23,48
1,1693677718213098000,-0.111330383,2.412158251,10.20049667,0.05489127,-0.027045943,0.038104136,19,43,-19,-24,54
2,1693677718214098000,-0.112527482,2.410961151,10.20887566,0.054358348,-0.02691271,0.038104136,20,32,-25,-15,56
3,1693677718215098000,-0.112527482,2.410961151,10.20767879,0.054491576,-0.026646247,0.038237367,21,39,-17,-23,54
4,1693677718216098000,-0.108936176,2.410961151,10.20648193,0.054624807,-0.026646247,0.038370594,17,33,-28,-31,52
0,1693677718298536100,-0.114921682,2.408566952,10.1933136,0.054624807,-0.026646247,0.037970904,20,40,-25,-22,55
1,1693677718299536100,-0.117315881,2.409764051,10.19570827,0.054358348,-0.02691271,0.037970904,17,38,-21,-26,55
2,1693677718300536100,-0.118512981,2.410961151,10.19570827,0.054491576,-0.026779478,0.038104136,20,43,-21,-19,54
3,1693677718301536100,-0.124498487,2.408566952,10.198102,0.054624807,-0.02691271,0.038104136,20,31,-25,-24,51
4,1693677718302536100,-0.122104287,2.404975653,10.19929886,0.054758042,-0.02691271,0.038237367,20,39,-21,-24,57
