timestamp,left_data_Ac_X,left_data_Ac_Y,left_data_Ac_Z,left_data_Gy_X,left_data_Gy_Y,left_data_Gy_Z,left_data_flex_1,left_data_flex_2,left_data_flex_3,left_data_flex_4,left_data_flex_5,right_data_Ac_X,right_data_Ac_Y,right_data_Ac_Z,right_data_Gy_X,right_data_Gy_Y,right_data_Gy_Z,right_data_flex_1,right_data_flex_2,right_data_flex_3,right_data_flex_4,right_data_flex_5
1693677888431680700,1.022324085,-0.857124209,10.24239445,-0.06115314,-0.000399694,-0.007860643,-26,37,83,8,-11,-0.114921682,2.407369852,10.23162079,0.053825419,-0.02797856,0.038237367,21,35,-29,-8,53
1693677888432680700,1.025915384,-0.858321309,10.24239445,-0.06115314,-0.000399694,-0.007860643,-24,39,85,0,-13,-0.119710088,2.408566952,10.23640919,0.053558957,-0.02797856,0.038104136,10,47,-7,-18,53
1693677888433680700,1.025915384,-0.857124209,10.24000072,-0.061286367,-0.000399694,-0.007727412,-30,41,87,2,-8,-0.116118781,2.409764051,10.23760605,0.053425729,-0.027712099,0.038237367,20,41,-23,-23,52
1693677888434680700,1.022324085,-0.858321309,10.23401546,-0.061286367,-0.000399694,-0.007860643,-6,41,77,6,-13,-0.118512981,2.406172752,10.23760605,0.053425729,-0.027312404,0.038104136,17,36,-24,-30,50
1693677888435680700,1.024718285,-0.857124209,10.23521233,-0.061419602,-0.000399694,-0.007993874,-30,37,84,8,-13,-0.120907187,2.407369852,10.23281765,0.053159267,-0.027179174,0.038104136,17,39,-23,-18,50
1693677888475656900,1.017535686,-0.859518409,10.23401546,-0.061286367,-0.000399694,-0.007727412,-32,39,85,8,-15,-0.112527482,2.404975653,10.22683239,0.053558957,-0.026779478,0.037970904,20,37,-23,-20,51
1693677888476656900,1.015141487,-0.85592711,10.23760605,-0.06115314,-0.000266462,-0.007860643,-26,35,80,6,-7,-0.112527482,2.406172752,10.22683239,0.053558957,-0.026513018,0.037970904,10,44,-25,-24,50
1693677888477656900,1.012747288,-0.85353291,10.24119759,-0.06115314,-0.000399694,-0.007727412,-32,44,89,6,-13,-0.112527482,2.407369852,10.22324085,0.053425729,-0.026513018,0.038237367,17,43,-28,-24,53
1693677888478656900,1.012747288,-0.85473001,10.24000072,-0.061286367,-0.000266462,-0.007727412,-33,36,85,4,-13,-0.111330383,2.406172752,10.22324085,0.053425729,-0.026513018,0.038104136,23,44,-26,-22,56
1693677888479656900,1.013944387,-0.852335811,10.23760605,-0.061286367,-0.000266462,-0.007860643,-24,33,80,10,-11,-0.111330383,2.404975653,10.21725559,0.053425729,-0.026379786,0.038104136,13,33,-27,-26,52
1693677888519628500,1.021126986,-0.852335811,10.24119759,-0.06115314,-0.000532925,-0.008260337,-32,41,79,3,-12,-0.119710088,2.404975653,10.22084713,0.053558957,-0.027312404,0.038370594,17,39,-25,-27,43
1693677888520628500,1.021126986,-0.849941611,10.24000072,-0.061019909,-0.000399694,-0.008260337,-30,35,77,-3,-12,-0.122104287,2.407369852,10.22324085,0.053692192,-0.027445635,0.038503829,10,33,-21,-23,50
1693677888521628500,1.016338587,-0.847547412,10.23281765,-0.06115314,-0.000532925,-0.007993874,-31,37,80,5,-13,-0.123301387,2.408566952,10.22084713,0.053692192,-0.027312404,0.038370594,20,35,-23,-22,49
1693677888522628500,1.016338587,-0.847547412,10.23281765,-0.06115314,-0.000399694,-0.008127105,-28,35,87,4,-13,-0.124498487,2.408566952,10.22683239,0.053558957,-0.027179174,0.038237367,18,39,-23,-24,51
1693677888523628500,1.017535686,-0.849941611,10.23760605,-0.061286367,-0.000399694,-0.008127105,-30,37,79,3,-17,-0.124498487,2.409764051,10.22802925,0.053558957,-0.027179174,0.038237367,13,39,-22,-27,50
1693677888556606600,1.017535686,-0.859518409,10.24119759,-0.061552834,-0.000133231,-0.007860643,-24,37,80,7,-15,-0.112527482,2.419340849,10.22802925,0.053958651,-0.027045943,0.037970904,17,39,-21,-20,50
1693677888557606600,1.021126986,-0.859518409,10.24000072,-0.061552834,-0.000266462,-0.007860643,-24,37,77,2,-12,-0.110133275,2.419340849,10.22802925,0.053825419,-0.027179174,0.037970904,20,42,-19,-20,50
1693677888558606600,1.023521185,-0.860715508,10.23521233,-0.061552834,-0.000266462,-0.007727412,-28,41,88,8,-14,-0.108936176,2.418143749,10.22922707,0.053958651,-0.027179174,0.038104136,22,38,-33,-24,53
1693677888559606600,1.027112484,-0.861912608,10.23640919,-0.061552834,-0.000133231,-0.007727412,-24,38,81,3,-15,-0.108936176,2.41574955,10.23401546,0.053958651,-0.027179174,0.038104136,13,32,-21,-26,49
1693677888560606600,1.025915384,-0.860715508,10.23521233,-0.061686065,-0.000133231,-0.007727412,-28,41,85,10,-15,-0.107739076,2.41455245,10.23162079,0.053825419,-0.027312404,0.037970904,10,30,-29,-29,52
1693677888592586100,1.017535686,-0.85592711,10.25316906,-0.06115314,-0.000133231,-0.007594181,-23,45,90,9,-8,-0.111330383,2.420537949,10.22922707,0.053958651,-0.027045943,0.037970904,13,40,-28,-22,53
1693677888593586100,1.017535686,-0.852335811,10.25675964,-0.061286367,-0.000266462,-0.007594181,-15,41,88,6,-7,-0.112527482,2.41694665,10.22443867,0.053692192,-0.027045943,0.037837673,20,41,-19,-19,52
1693677888594586100,1.019929886,-0.852335811,10.25436592,-0.061286367,-0.000133231,-0.007727412,-27,40,88,4,-13,-0.111330383,2.41335535,10.22204399,0.053692192,-0.026779478,0.038104136,6,36,-24,-24,53
1693677888595586100,1.023521185,-0.85353291,10.25197124,-0.061286367,-0.000266462,-0.007727412,-22,36,85,4,-13,-0.112527482,2.41455245,10.22443867,0.053425729,-0.026646247,0.038237367,15,39,-27,-20,53
1693677888596586100,1.027112484,-0.852335811,10.24957752,-0.061286367,-0.000133231,-0.007860643,-33,38,83,0,-9,-0.111330383,2.41455245,10.22802925,0.053425729,-0.026646247,0.038237367,13,31,-30,-30,50
1693677888621572200,1.023521185,-0.85473001,10.24478912,-0.06115314,-0.000399694,-0.008260337,-16,38,88,6,-8,-0.112527482,2.409764051,10.22204399,0.053825419,-0.027578866,0.038237367,20,37,-21,-20,54
1693677888622572200,1.022324085,-0.85592711,10.24838066,-0.061286367,-0.000399694,-0.008127105,-32,37,83,10,-11,-0.110133275,2.412158251,10.21965027,0.053825419,-0.027712099,0.038237367,17,41,-28,-19,69
1693677888623572200,1.018732786,-0.85353291,10.24957752,-0.061286367,-0.000532925,-0.008127105,-26,42,86,6,-14,-0.110133275,2.41455245,10.21605873,0.053825419,-0.027578866,0.038370594,10,32,-31,-24,42
1693677888624572200,1.018732786,-0.85353291,10.25077438,-0.061419602,-0.000532925,-0.008127105,-32,45,83,2,-17,-0.111330383,2.41455245,10.21965027,0.053825419,-0.027578866,0.038370594,16,34,-28,-28,48
1693677888625572200,1.015141487,-0.852335811,10.25436592,-0.06115314,-0.000532925,-0.008260337,-27,43,87,10,-11,-0.111330383,2.412158251,10.21965027,0.053825419,-0.027712099,0.038503829,21,37,-25,-27,55
1693677888651551500,1.016338587,-0.85592711,10.24239445,-0.061286367,-0.000266462,-0.007993874,-26,41,80,7,-9,-0.107739076,2.41335535,10.21725559,0.053825419,-0.027445635,0.038503829,18,40,-21,-16,55
1693677888652551500,1.017535686,-0.852335811,10.24598598,-0.061286367,-0.000399694,-0.008127105,-30,43,84,7,-9,-0.108936176,2.41335535,10.21605873,0.053825419,-0.027312404,0.038637057,13,44,-31,-22,54
1693677888653551500,1.015141487,-0.852335811,10.24239445,-0.061419602,-0.000399694,-0.008127105,-23,36,84,8,-17,-0.110133275,2.412158251,10.21725559,0.053825419,-0.027312404,0.038637057,20,31,-25,-24,45
1693677888654551500,1.016338587,-0.85353291,10.23401546,-0.061419602,-0.000399694,-0.008127105,-19,37,83,10,-11,-0.111330383,2.412158251,10.21965027,0.053692192,-0.027179174,0.038503829,19,34,-27,-27,50
1693677888655551500,1.016338587,-0.85353291,10.23281765,-0.061419602,-0.000399694,-0.008127105,-25,37,87,8,-12,-0.112527482,2.410961151,10.22084713,0.053825419,-0.027312404,0.038503829,17,37,-27,-26,52
1693677888682534400,1.025915384,-0.861912608,10.24478912,-0.061286367,-0.000532925,-0.007993874,-20,43,87,2,-13,-0.113724582,2.419340849,10.23162079,0.053825419,-0.027845331,0.038370594,14,33,-17,-27,48
1693677888683534400,1.025915384,-0.864306808,10.24359226,-0.061286367,-0.000399694,-0.007860643,-27,45,82,4,-12,-0.111330383,2.420537949,10.22922707,0.053958651,-0.027845331,0.038237367,15,40,-25,-28,52
1693677888684534400,1.024718285,-0.866701007,10.24119759,-0.061286367,-0.000532925,-0.007860643,-31,32,85,7,-15,-0.113724582,2.420537949,10.22802925,0.053958651,-0.027845331,0.038104136,15,33,-28,-27,49
1693677888685534400,1.027112484,-0.864306808,10.23760605,-0.061286367,-0.000532925,-0.007860643,1,62,103,28,13,-0.117315881,2.421735048,10.22683239,0.054225113,-0.02797856,0.038104136,11,36,-30,-24,50
1693677888686534400,1.028309584,-0.863109708,10.23640919,-0.06115314,-0.000532925,-0.007727412,-30,45,88,2,-9,-0.117315881,2.421735048,10.22802925,0.054358348,-0.02797856,0.038104136,13,39,-19,-27,48
1693677888716515100,1.024718285,-0.859518409,10.25316906,-0.061419602,-0.000532925,-0.008260337,-23,38,85,3,-12,-0.117315881,2.41335535,10.21486187,0.054358348,-0.027312404,0.038503829,20,35,-21,-24,48
1693677888717515100,1.021126986,-0.861912608,10.25436592,-0.061419602,-0.000532925,-0.008260337,-22,33,89,12,-15,-0.112527482,2.412158251,10.21605873,0.054225113,-0.027445635,0.038637057,17,39,-21,-22,50
1693677888718515100,1.021126986,-0.859518409,10.25197124,-0.061419602,-0.000532925,-0.007993874,-28,32,70,8,-13,-0.110133275,2.41335535,10.21486187,0.054225113,-0.027445635,0.038370594,19,39,-29,-23,53
1693677888719515100,1.021126986,-0.859518409,10.25077438,-0.061419602,-0.000532925,-0.007860643,-23,43,90,6,-15,-0.110133275,2.41574955,10.21965027,0.054225113,-0.027312404,0.038503829,20,44,-24,-24,49
1693677888720515100,1.022324085,-0.861912608,10.24838066,-0.061286367,-0.000666156,-0.007727412,-20,48,91,8,-11,-0.108936176,2.418143749,10.21845245,0.054225113,-0.027179174,0.038237367,20,35,-21,-20,55
1693677888755492400,1.025915384,-0.863109708,10.24119759,-0.061552834,0.0,-0.008260337,-22,34,84,6,-15,-0.112527482,2.412158251,10.21725559,0.053692192,-0.026646247,0.038370594,18,38,-24,-28,48
1693677888756492400,1.028309584,-0.861912608,10.24119759,-0.061686065,0.0,-0.008260337,-26,37,87,4,-7,-0.114921682,2.409764051,10.21486187,0.053692192,-0.02691271,0.038104136,13,36,-28,-24,51
1693677888757492400,1.030703783,-0.861912608,10.24957752,-0.061686065,-0.000133231,-0.008260337,-28,37,84,3,-8,-0.114921682,2.410961151,10.21605873,0.053692192,-0.02691271,0.038104136,20,37,-25,-19,57
1693677888758492400,1.025915384,-0.863109708,10.24838066,-0.061686065,0.0,-0.008260337,-29,45,83,10,-9,-0.116118781,2.41455245,10.21965027,0.053692192,-0.027045943,0.038104136,22,36,-16,-18,55
1693677888759492400,1.023521185,-0.864306808,10.24598598,-0.061552834,-0.000133231,-0.008260337,-26,47,79,7,-12,-0.114921682,2.41694665,10.22443867,0.053558957,-0.027179174,0.038237367,19,34,-24,-23,50
1693677888796468700,1.012747288,-0.85592711,10.24359226,-0.061019909,-0.000266462,-0.008393568,-30,41,88,8,-13,-0.111330383,2.404975653,10.22443867,0.053958651,-0.027045943,0.038237367,17,37,-28,-30,42
1693677888797468700,1.010353088,-0.857124209,10.24119759,-0.061019909,-0.000399694,-0.008393568,-27,43,80,7,-16,-0.111330383,2.409764051,10.22563553,0.053958651,-0.026779478,0.038237367,14,30,-19,-19,51
1693677888798468700,1.011550188,-0.857124209,10.24000072,-0.060886677,-0.000133231,-0.008393568,-28,33,77,3,-11,-0.113724582,2.409764051,10.22443867,0.053692192,-0.026779478,0.038370594,20,44,-21,-24,54
1693677888799468700,1.012747288,-0.858321309,10.23880386,-0.061019909,-0.000266462,-0.008260337,-30,41,90,11,-7,-0.116118781,2.409764051,10.22443867,0.053692192,-0.026779478,0.038370594,17,39,-16,-24,52
1693677888800468700,1.010353088,-0.858321309,10.24239445,-0.061019909,-0.000399694,-0.008260337,-28,40,81,9,-9,-0.113724582,2.41335535,10.22443867,0.053558957,-0.027045943,0.038370594,19,37,-19,-21,50
1693677888836448000,1.023521185,-0.846350312,10.25197124,-0.061019909,-0.000532925,-0.008526799,-24,33,79,6,-13,-0.110133275,2.412158251,10.21366405,0.054358348,-0.027045943,0.038104136,14,40,-21,-20,50
1693677888837448000,1.022324085,-0.849941611,10.25675964,-0.061019909,-0.000399694,-0.008660031,-33,37,83,9,-9,-0.112527482,2.412158251,10.21725559,0.054225113,-0.027045943,0.038104136,19,43,-23,-20,51
1693677888838448000,1.024718285,-0.848744512,10.25436592,-0.060886677,-0.000399694,-0.008526799,-27,43,87,12,-8,-0.111330383,2.409764051,10.21965027,0.054091886,-0.027045943,0.038104136,16,35,-20,-20,50
1693677888839448000,1.027112484,-0.847547412,10.24957752,-0.060753446,-0.000399694,-0.008526799,-30,37,85,8,-8,-0.113724582,2.409764051,10.21845245,0.054091886,-0.027045943,0.038237367,20,33,-23,-20,46
1693677888840448000,1.028309584,-0.846350312,10.24838066,-0.060886677,-0.000399694,-0.008526799,-27,43,76,6,0,-0.114921682,2.409764051,10.21845245,0.054091886,-0.027045943,0.038237367,13,32,-21,-27,48
1693677888871426500,1.027112484,-0.858321309,10.25197124,-0.06115314,-0.000266462,-0.008260337,-23,33,81,3,-11,-0.116118781,2.409764051,10.23880386,0.053425729,-0.026646247,0.038237367,18,36,-20,-18,55
1693677888872426500,1.025915384,-0.857124209,10.24838066,-0.06115314,-0.000399694,-0.008260337,-8,59,88,7,-11,-0.118512981,2.410961151,10.23760605,0.053558957,-0.026646247,0.037970904,15,35,-24,-21,52
1693677888873426500,1.027112484,-0.85592711,10.24838066,-0.061286367,-0.000399694,-0.008393568,-30,37,85,13,-11,-0.119710088,2.412158251,10.23640919,0.053425729,-0.026646247,0.038104136,13,37,-23,-24,50
1693677888874426500,1.024718285,-0.85473001,10.24478912,-0.061419602,-0.000399694,-0.008393568,-22,41,87,10,-12,-0.120907187,2.409764051,10.23162079,0.053692192,-0.026646247,0.038237367,15,41,-29,-19,51
1693677888875426500,1.025915384,-0.85473001,10.24718285,-0.061286367,-0.000399694,-0.008260337,-28,42,81,6,-9,-0.119710088,2.409764051,10.22683239,0.053558957,-0.026779478,0.038104136,19,41,-21,-27,49
1693677888904408000,1.013944387,-0.85592711,10.23521233,-0.061686065,-0.000532925,-0.008526799,-30,46,82,3,-16,-0.110133275,2.41455245,10.22204399,0.053692192,-0.027312404,0.038104136,19,46,-20,-20,55
1693677888905408000,1.016338587,-0.858321309,10.23521233,-0.061819296,-0.000532925,-0.008393568,-28,37,81,5,-15,-0.108936176,2.41574955,10.22324085,0.053425729,-0.027179174,0.038104136,19,32,-28,-30,45
1693677888906408000,1.017535686,-0.858321309,10.23640919,-0.061819296,-0.000532925,-0.008260337,-30,38,87,10,-7,-0.105344877,2.41694665,10.22683239,0.053425729,-0.027045943,0.038104136,18,40,-28,-26,56
1693677888907408000,1.019929886,-0.859518409,10.24000072,-0.061819296,-0.000666156,-0.008393568,-24,44,81,7,-13,-0.104147777,2.418143749,10.23281765,0.053425729,-0.02691271,0.037970904,6,39,-21,-22,44
1693677888908408000,1.021126986,-0.860715508,10.23640919,-0.061686065,-0.000666156,-0.008393568,-32,35,84,7,-9,-0.10175357,2.41694665,10.23162079,0.053558957,-0.026779478,0.037970904,18,39,-19,-26,52
1693677888938389500,1.029506683,-0.85353291,10.24000072,-0.061019909,-0.001465544,-0.007860643,-28,35,80,6,-14,-0.111330383,2.426523447,10.23760605,0.053692192,-0.027179174,0.038237367,21,41,-23,-24,48
1693677888939389500,1.030703783,-0.85473001,10.24000072,-0.061019909,-0.001332312,-0.007860643,-28,35,81,10,-13,-0.110133275,2.425326347,10.23162079,0.053692192,-0.027045943,0.037970904,15,43,-26,-24,44
1693677888940389500,1.030703783,-0.852335811,10.24119759,-0.06115314,-0.001332312,-0.007860643,-24,43,87,8,-16,-0.107739076,2.424129248,10.22563553,0.053692192,-0.027045943,0.038104136,15,31,-29,-26,48
1693677888941389500,1.025915384,-0.851138711,10.24119759,-0.060886677,-0.001332312,-0.007860643,-29,38,88,10,-9,-0.110133275,2.424129248,10.22204399,0.053692192,-0.027045943,0.037970904,17,37,-24,-19,53
1693677888942389500,1.024718285,-0.85473001,10.24359226,-0.061019909,-0.001199081,-0.007727412,-30,40,83,8,-11,-0.110133275,2.421735048,10.22324085,0.053692192,-0.027045943,0.037837673,14,39,-28,-30,52
1693677888968370000,1.021126986,-0.858321309,10.23640919,-0.061419602,-0.000133231,-0.008260337,-15,38,84,6,-5,-0.110133275,2.420537949,10.23162079,0.052759573,-0.026513018,0.038237367,15,48,-25,-26,52
1693677888969370000,1.016338587,-0.857124209,10.23042393,-0.061552834,-0.000266462,-0.007993874,-28,40,84,6,-14,-0.108936176,2.419340849,10.23162079,0.0528928,-0.026513018,0.038104136,18,31,-23,-20,48
1693677888970370000,1.018732786,-0.85592711,10.23521233,-0.061419602,-0.000133231,-0.007860643,-29,51,81,10,-17,-0.108936176,2.419340849,10.23401546,0.052759573,-0.026646247,0.038104136,5,36,-22,-27,52
1693677888971370000,1.019929886,-0.852335811,10.23521233,-0.061419602,-0.000133231,-0.007860643,-30,42,87,10,-16,-0.111330383,2.420537949,10.23042393,0.0528928,-0.026779478,0.038104136,20,41,-27,-19,53
1693677888972370000,1.019929886,-0.85353291,10.23162079,-0.061286367,-0.000133231,-0.007993874,-2,64,103,12,-11,-0.112527482,2.420537949,10.22802925,0.053026035,-0.026779478,0.038104136,19,46,-19,-19,52
1693677889002350200,1.031900883,-0.863109708,10.25197124,-0.061286367,-0.000399694,-0.008127105,-28,41,84,8,-13,-0.112527482,2.41455245,10.21725559,0.053159267,-0.026113322,0.038237367,20,31,-23,-18,52
1693677889003350200,1.030703783,-0.861912608,10.24718285,-0.061419602,-0.000532925,-0.008127105,-28,38,83,8,-13,-0.111330383,2.41694665,10.21965027,0.053292494,-0.025980091,0.038104136,14,36,-24,-22,46
1693677889004350200,1.030703783,-0.861912608,10.24239445,-0.061286367,-0.000532925,-0.008127105,-27,43,85,10,-16,-0.112527482,2.418143749,10.22084713,0.053425729,-0.025846859,0.038104136,17,39,-22,-24,50
1693677889005350200,1.029506683,-0.863109708,10.23880386,-0.061286367,-0.000532925,-0.008127105,-27,38,78,8,-13,-0.114921682,2.422932148,10.22204399,0.053425729,-0.025846859,0.038104136,16,36,-29,-23,54
1693677889006350200,1.029506683,-0.864306808,10.24000072,-0.061419602,-0.000532925,-0.007993874,-39,37,83,3,-13,-0.116118781,2.421735048,10.22204399,0.053425729,-0.025980091,0.038104136,26,37,-24,-21,55
1693677889032333900,1.023521185,-0.85592711,10.24239445,-0.061419602,-0.000532925,-0.008127105,-30,41,80,11,-9,-0.125695586,2.418143749,10.22802925,0.053692192,-0.026779478,0.037704438,7,32,-31,-28,52
1693677889033333900,1.025915384,-0.858321309,10.24239445,-0.061419602,-0.000399694,-0.008127105,-22,37,89,7,-9,-0.129286885,2.420537949,10.22563553,0.053692192,-0.027179174,0.037837673,17,33,-29,-23,52
1693677889034333900,1.023521185,-0.859518409,10.23760605,-0.061552834,-0.000399694,-0.008260337,-30,43,83,2,-15,-0.126892686,2.421735048,10.22443867,0.053958651,-0.027179174,0.037970904,18,36,-27,-20,50
1693677889035333900,1.022324085,-0.863109708,10.23640919,-0.061552834,-0.000266462,-0.008393568,-22,35,81,10,-12,-0.125695586,2.422932148,10.22084713,0.053958651,-0.027312404,0.038104136,16,46,-21,-30,51
1693677889036333900,1.023521185,-0.861912608,10.24119759,-0.061286367,-0.000399694,-0.008393568,-33,33,79,7,-16,-0.125695586,2.421735048,10.22324085,0.053958651,-0.027312404,0.037970904,15,39,-23,-20,51
1693677889064338000,1.023521185,-0.860715508,10.25436592,-0.060886677,-0.000266462,-0.007727412,-31,43,87,3,-14,-0.111330383,2.41694665,10.21845245,0.053292494,-0.027445635,0.038104136,17,32,-25,-24,51
1693677889065338000,1.027112484,-0.865503907,10.25795746,-0.061019909,-0.000532925,-0.007727412,-33,37,83,1,-8,-0.113724582,2.41574955,10.21845245,0.053292494,-0.027578866,0.038237367,16,35,-20,-26,54
1693677889066338000,1.027112484,-0.865503907,10.25915432,-0.061019909,-0.000532925,-0.007727412,-27,35,80,3,-13,-0.116118781,2.41574955,10.21486187,0.053558957,-0.027712099,0.038237367,20,31,-20,-19,54
1693677889067338000,1.027112484,-0.864306808,10.25556278,-0.06115314,-0.000532925,-0.007860643,-28,42,83,12,-16,-0.119710088,2.41455245,10.21486187,0.053692192,-0.02797856,0.038370594,18,40,-23,-27,52
1693677889068338000,1.027112484,-0.863109708,10.24957752,-0.06115314,-0.000266462,-0.007727412,-28,46,84,8,-16,-0.120907187,2.412158251,10.21605873,0.053692192,-0.02797856,0.038637057,18,44,-21,-22,50
1693677889098319400,1.022324085,-0.85473001,10.24838066,-0.061419602,-0.000399694,-0.007860643,-15,37,81,10,-12,-0.104147777,2.419340849,10.23281765,0.053692192,-0.027845331,0.038237367,20,43,-25,-22,52
1693677889099319400,1.022324085,-0.85473001,10.24598598,-0.061552834,-0.000399694,-0.007860643,-27,42,84,8,-15,-0.106541976,2.418143749,10.23521233,0.053425729,-0.027712099,0.038237367,17,37,-23,-27,54
1693677889100319400,1.023521185,-0.85353291,10.24359226,-0.061419602,-0.000133231,-0.007727412,-27,41,87,12,-11,-0.107739076,2.418143749,10.23401546,0.053292494,-0.027578866,0.037970904,17,40,-28,-17,55
1693677889101319400,1.023521185,-0.852335811,10.24359226,-0.061286367,-0.000266462,-0.007860643,-30,39,87,4,-18,-0.104147777,2.419340849,10.23162079,0.053425729,-0.027312404,0.037970904,19,44,-23,-26,50
1693677889102319400,1.023521185,-0.852335811,10.24000072,-0.061286367,-0.000399694,-0.007860643,-27,41,84,6,-11,-0.10295067,2.418143749,10.23760605,0.053425729,-0.027045943,0.037837673,16,39,-20,-26,47
1693677889129283300,1.030703783,-0.863109708,10.24838066,-0.060753446,-0.000399694,-0.007860643,-27,34,84,10,-6,-0.117315881,2.419340849,10.23401546,0.053692192,-0.027179174,0.03757121,19,31,-23,-22,50
1693677889130283300,1.027112484,-0.859518409,10.24598598,-0.060753446,-0.000399694,-0.007727412,-27,37,85,0,-9,-0.118512981,2.421735048,10.23760605,0.053825419,-0.027312404,0.03757121,20,43,-18,-28,68
1693677889131283300,1.025915384,-0.857124209,10.24598598,-0.060620211,-0.000399694,-0.007727412,-20,42,76,4,-13,-0.118512981,2.422932148,10.24000072,0.054091886,-0.027179174,0.037437979,20,30,-55,-22,51
1693677889132283300,1.024718285,-0.85353291,10.24718285,-0.060753446,-0.000532925,-0.007594181,-28,42,80,10,-13,-0.120907187,2.424129248,10.24000072,0.053958651,-0.027045943,0.03757121,14,32,-17,-28,46
1693677889133283300,1.022324085,-0.85473001,10.24957752,-0.060753446,-0.000532925,-0.007594181,-28,38,86,9,-11,-0.117315881,2.425326347,10.23640919,0.053825419,-0.027045943,0.03757121,9,37,-25,-30,50
1693677889159283500,1.027112484,-0.85473001,10.24478912,-0.060886677,-0.000666156,-0.007860643,-12,41,86,2,-12,-0.113724582,2.422932148,10.22443867,0.053692192,-0.027445635,0.037837673,20,42,-23,-21,55
1693677889160283500,1.023521185,-0.857124209,10.24000072,-0.061019909,-0.000399694,-0.007860643,-32,37,83,3,-12,-0.117315881,2.418143749,10.22563553,0.053692192,-0.027712099,0.037837673,20,46,-20,-26,54
1693677889161283500,1.021126986,-0.857124209,10.24119759,-0.061286367,-0.000399694,-0.007594181,-30,35,65,6,-14,-0.116118781,2.41455245,10.22324085,0.053692192,-0.027712099,0.037970904,20,31,-20,-24,53
1693677889162283500,1.024718285,-0.85473001,10.24478912,-0.06115314,-0.000399694,-0.007594181,-26,35,84,6,-9,-0.114921682,2.412158251,10.21965027,0.053558957,-0.027845331,0.038104136,17,30,-25,-30,53
1693677889163283500,1.022324085,-0.852335811,10.24478912,-0.06115314,-0.000399694,-0.007727412,-28,38,87,6,-12,-0.112527482,2.41455245,10.22324085,0.053558957,-0.027845331,0.038104136,20,31,-25,-19,54
1693677890171984500,1.022324085,-0.85353291,10.24000072,-0.061419602,-0.000799387,-0.007993874,-29,48,80,3,-16,-0.113724582,2.41335535,10.22802925,0.053425729,-0.027312404,0.037837673,15,35,-23,-28,44
1693677890172984500,1.019929886,-0.85473001,10.23760605,-0.061286367,-0.000666156,-0.007993874,-26,38,88,7,-5,-0.111330383,2.410961151,10.22922707,0.053292494,-0.027045943,0.037970904,13,32,-22,-22,49
1693677890173984500,1.018732786,-0.85473001,10.23760605,-0.061286367,-0.000666156,-0.007993874,-31,41,87,3,-11,-0.112527482,2.409764051,10.22802925,0.052759573,-0.027045943,0.038237367,14,35,-29,-22,54
1693677890174984500,1.018732786,-0.85473001,10.23640919,-0.061419602,-0.000799387,-0.007860643,-28,44,85,6,-12,-0.112527482,2.409764051,10.22084713,0.05249311,-0.027179174,0.038237367,19,39,-24,-19,56
1693677890175984500,1.022324085,-0.860715508,10.23521233,-0.061552834,-0.00106585,-0.007993874,-27,39,90,10,-12,-0.113724582,2.412158251,10.21246719,0.052626338,-0.027312404,0.038104136,17,39,-21,-22,52
1693677890231949600,1.024718285,-0.852335811,10.23042393,-0.061019909,-0.000266462,-0.007860643,-31,38,79,7,-13,-0.096965171,2.422932148,10.22443867,0.052759573,-0.027312404,0.038237367,6,32,-21,-22,52
1693677890232949600,1.019929886,-0.851138711,10.23521233,-0.061019909,-0.000399694,-0.007993874,-30,45,85,7,-8,-0.095768064,2.421735048,10.22204399,0.0528928,-0.027045943,0.038237367,20,31,-28,-23,55
1693677890233949600,1.019929886,-0.849941611,10.23760605,-0.06115314,-0.000399694,-0.007860643,-27,38,86,10,-9,-0.10055647,2.424129248,10.21845245,0.053292494,-0.02691271,0.038104136,14,45,-21,-20,51
1693677890234949600,1.024718285,-0.85353291,10.23521233,-0.06115314,-0.000532925,-0.007860643,-27,39,85,7,-12,-0.10295067,2.421735048,10.22084713,0.053558957,-0.02691271,0.037837673,15,30,-15,-22,51
1693677890235949600,1.024718285,-0.852335811,10.23042393,-0.06115314,-0.000399694,-0.007860643,-28,43,88,6,-13,-0.10175357,2.41694665,10.22084713,0.053292494,-0.026779478,0.037837673,20,35,-24,-23,54
1693677890265932500,1.034295082,-0.848744512,10.23640919,-0.06115314,-0.000532925,-0.008127105,-24,37,79,10,-11,-0.112527482,2.419340849,10.21965027,0.053825419,-0.027312404,0.038104136,20,30,-27,-26,49
1693677890266932500,1.033097982,-0.846350312,10.23640919,-0.061286367,-0.000399694,-0.008127105,-31,39,80,7,-8,-0.112527482,2.419340849,10.22324085,0.053692192,-0.027445635,0.038237367,20,43,-23,-28,55
1693677890267932500,1.033097982,-0.848744512,10.24000072,-0.061286367,-0.000399694,-0.007993874,-24,41,85,1,-15,-0.112527482,2.419340849,10.22683239,0.053692192,-0.027445635,0.038104136,19,46,-25,-18,55
1693677890268932500,1.030703783,-0.845153213,10.23760605,-0.061419602,-0.000399694,-0.007860643,-23,43,84,8,-13,-0.116118781,2.419340849,10.22563553,0.053692192,-0.027578866,0.038237367,14,36,-29,-23,50
1693677890269932500,1.029506683,-0.843956113,10.23760605,-0.061419602,-0.000399694,-0.007860643,-28,35,77,7,-15,-0.117315881,2.419340849,10.22324085,0.053825419,-0.027712099,0.038104136,20,30,-25,-23,49
1693677890301909200,1.031900883,-0.866701007,10.23640919,-0.06115314,-0.000399694,-0.008393568,-22,42,79,7,-9,-0.112527482,2.41574955,10.23162079,0.053558957,-0.027179174,0.037837673,9,40,-21,-31,38
1693677890302909200,1.029506683,-0.866701007,10.23640919,-0.061286367,-0.000399694,-0.008393568,-28,45,87,10,-8,-0.110133275,2.41335535,10.22683239,0.053692192,-0.027179174,0.038104136,17,39,-27,-22,53
1693677890303909200,1.027112484,-0.865503907,10.23760605,-0.061286367,-0.000266462,-0.008393568,-29,39,79,11,-9,-0.108936176,2.412158251,10.22563553,0.053558957,-0.027179174,0.038104136,17,41,-23,-24,54
1693677890304909200,1.027112484,-0.863109708,10.24359226,-0.061419602,-0.000399694,-0.008393568,-28,33,87,7,-12,-0.108936176,2.410961151,10.22443867,0.053692192,-0.027445635,0.037970904,21,35,-25,-27,54
1693677890305909200,1.027112484,-0.861912608,10.25197124,-0.061419602,-0.000532925,-0.008393568,-30,43,77,1,-9,-0.108936176,2.409764051,10.22084713,0.053692192,-0.027845331,0.037970904,20,44,-28,-28,50
1693677890332894200,1.023521185,-0.861912608,10.24239445,-0.061286367,-0.000532925,-0.008127105,-28,43,87,8,-11,-0.106541976,2.410961151,10.22563553,0.053558957,-0.027845331,0.038104136,17,37,-20,-22,24
1693677890333894200,1.028309584,-0.859518409,10.24119759,-0.061286367,-0.000666156,-0.008260337,-23,33,84,0,-13,-0.107739076,2.41335535,10.22443867,0.053692192,-0.027712099,0.038104136,20,35,-29,-18,56
1693677890334894200,1.028309584,-0.860715508,10.24000072,-0.061286367,-0.000532925,-0.008260337,-23,41,87,7,-11,-0.106541976,2.41574955,10.22802925,0.053425729,-0.027445635,0.038104136,16,35,-24,-24,48
1693677890335894200,1.028309584,-0.858321309,10.23640919,-0.061419602,-0.000666156,-0.008260337,-32,41,87,7,-13,-0.110133275,2.41574955,10.22802925,0.053692192,-0.027312404,0.038104136,11,35,-31,-22,54
1693677890336894200,1.028309584,-0.85473001,10.23162079,-0.061419602,-0.000532925,-0.008260337,-28,35,80,11,-13,-0.111330383,2.41335535,10.23042393,0.053825419,-0.027445635,0.038104136,18,39,-29,-20,53
1693677890363876900,1.023521185,-0.857124209,10.24359226,-0.061552834,-0.000532925,-0.008393568,-20,62,88,10,-7,-0.120907187,2.409764051,10.22563553,0.054091886,-0.027179174,0.038370594,14,43,-21,-18,51
1693677890364876900,1.023521185,-0.85473001,10.24119759,-0.061819296,-0.000532925,-0.008393568,-33,37,87,-6,-3,-0.122104287,2.408566952,10.22802925,0.053958651,-0.027045943,0.038370594,21,45,-23,-24,60
1693677890365876900,1.021126986,-0.85473001,10.24119759,-0.061819296,-0.000532925,-0.008393568,-26,42,85,8,-15,-0.122104287,2.409764051,10.23401546,0.053958651,-0.027312404,0.038237367,13,44,-25,-18,54
1693677890366876900,1.022324085,-0.85473001,10.24478912,-0.061819296,-0.000666156,-0.008260337,-31,41,83,6,-12,-0.122104287,2.412158251,10.23162079,0.053825419,-0.027179174,0.038237367,16,33,-24,-28,51
1693677890367876900,1.021126986,-0.85473001,10.24718285,-0.061819296,-0.000532925,-0.008260337,-22,45,86,8,-13,-0.120907187,2.408566952,10.23042393,0.053825419,-0.027045943,0.038104136,10,41,-22,-18,52
1693677890395878300,1.024718285,-0.864306808,10.23162079,-0.061552834,-0.000266462,-0.008127105,-31,42,84,2,-7,-0.10295067,2.410961151,10.23162079,0.054091886,-0.027312404,0.038370594,20,45,-17,-22,55
1693677890396878300,1.025915384,-0.861912608,10.23162079,-0.061552834,-0.000399694,-0.008127105,-27,47,87,6,-11,-0.10295067,2.410961151,10.23401546,0.053958651,-0.027312404,0.038370594,21,34,-28,-22,51
1693677890397878300,1.028309584,-0.860715508,10.23042393,-0.061552834,-0.000399694,-0.008127105,-26,43,84,8,-12,-0.107739076,2.410961151,10.23401546,0.053825419,-0.027312404,0.038237367,11,39,-25,-19,50
1693677890398878300,1.029506683,-0.858321309,10.23162079,-0.061419602,-0.000266462,-0.008260337,-24,43,84,4,-7,-0.110133275,2.412158251,10.24000072,0.053825419,-0.027045943,0.038104136,17,39,-29,-24,50
1693677890399878300,1.029506683,-0.85473001,10.22922707,-0.061286367,-0.000133231,-0.008260337,-23,45,90,10,-12,-0.108936176,2.41335535,10.24239445,0.053558957,-0.026646247,0.037970904,18,41,-25,-19,52
1693677890426859800,1.021126986,-0.849941611,10.23880386,-0.061552834,0.000133231,-0.007727412,-22,47,88,13,-9,-0.113724582,2.418143749,10.23401546,0.053692192,-0.025846859,0.038104136,20,43,-18,-20,55
1693677890427859800,1.021126986,-0.849941611,10.24239445,-0.061419602,0.000399694,-0.007727412,-31,42,87,7,-14,-0.119710088,2.41574955,10.23042393,0.053558957,-0.025980091,0.038237367,15,39,-21,-19,51
1693677890428859800,1.021126986,-0.846350312,10.23640919,-0.061552834,0.000399694,-0.007727412,-32,42,83,3,-13,-0.119710088,2.41574955,10.22802925,0.053425729,-0.025980091,0.038370594,13,33,-24,-29,49
1693677890429859800,1.021126986,-0.846350312,10.23760605,-0.061419602,0.000399694,-0.007727412,-28,38,85,4,-8,-0.119710088,2.41455245,10.22563553,0.053425729,-0.02571363,0.038370594,18,35,-23,-23,54
1693677890430859800,1.023521185,-0.848744512,10.24000072,-0.061419602,0.000266462,-0.007727412,-31,42,84,7,-12,-0.119710088,2.41335535,10.22443867,0.053425729,-0.02571363,0.038370594,15,42,-24,-22,54
1693677890457820200,1.024718285,-0.858321309,10.24957752,-0.061019909,-0.000399694,-0.008127105,-31,43,87,7,-11,-0.116118781,2.409764051,10.22204399,0.053825419,-0.027312404,0.038237367,13,39,-28,-27,51
1693677890458820200,1.023521185,-0.85592711,10.24478912,-0.061019909,-0.000266462,-0.008127105,-30,37,81,8,-15,-0.116118781,2.408566952,10.22683239,0.053825419,-0.027312404,0.038370594,11,39,-21,-26,52
1693677890459820200,1.022324085,-0.860715508,10.24598598,-0.06115314,-0.000399694,-0.008260337,-27,37,84,7,-12,-0.114921682,2.408566952,10.22683239,0.053692192,-0.027045943,0.038370594,20,35,-19,-23,49
1693677890460820200,1.021126986,-0.863109708,10.24359226,-0.06115314,-0.000133231,-0.008260337,-31,44,80,6,-8,-0.114921682,2.408566952,10.23042393,0.053825419,-0.027045943,0.038237367,19,40,-21,-19,53
1693677890461820200,1.018732786,-0.863109708,10.24598598,-0.060886677,-0.000266462,-0.008127105,-26,38,85,6,-5,-0.112527482,2.408566952,10.22922707,0.053692192,-0.027045943,0.038237367,13,39,-20,-22,55
1693677890493799400,1.028309584,-0.860715508,10.24718285,-0.061686065,-0.000532925,-0.009059724,-23,42,83,10,-12,-0.111330383,2.404975653,10.22443867,0.053558957,-0.027578866,0.037970904,15,31,-23,-24,53
1693677890494799400,1.029506683,-0.859518409,10.24359226,-0.061552834,-0.000532925,-0.009059724,-29,37,84,0,-11,-0.111330383,2.406172752,10.22443867,0.053825419,-0.027578866,0.037970904,17,36,-25,-24,54
1693677890495799400,1.030703783,-0.859518409,10.24000072,-0.061419602,-0.000666156,-0.008926493,-25,37,81,-1,-13,-0.110133275,2.407369852,10.22324085,0.053825419,-0.027578866,0.037837673,19,39,-23,-17,53
1693677890496799400,1.035492182,-0.85473001,10.23760605,-0.061419602,-0.000666156,-0.008926493,-28,42,84,6,-13,-0.111330383,2.406172752,10.22443867,0.053692192,-0.027578866,0.037704438,18,31,-24,-19,53
1693677890497799400,1.035492182,-0.848744512,10.24478912,-0.061419602,-0.000666156,-0.008793262,-24,45,90,8,-6,-0.113724582,2.406172752,10.22563553,0.053692192,-0.027445635,0.037837673,14,44,-23,-21,53
1693677890525781800,1.023521185,-0.85592711,10.24119759,-0.061286367,-0.000532925,-0.008260337,-28,41,85,10,-12,-0.116118781,2.41574955,10.23401546,0.053692192,-0.02691271,0.037970904,18,32,-24,-25,51
1693677890526781800,1.024718285,-0.85592711,10.24119759,-0.06115314,-0.000133231,-0.008260337,-27,38,80,10,-14,-0.114921682,2.41335535,10.23401546,0.053692192,-0.02691271,0.037970904,20,31,-23,-20,53
1693677890527781800,1.019929886,-0.857124209,10.24000072,-0.061419602,-0.000399694,-0.008393568,-30,38,85,11,-12,-0.116118781,2.41335535,10.23162079,0.053692192,-0.027179174,0.038104136,21,44,-25,-24,52
1693677890528781800,1.022324085,-0.85473001,10.24119759,-0.061286367,-0.000399694,-0.008393568,-24,42,85,8,-13,-0.114921682,2.41455245,10.23162079,0.053692192,-0.027179174,0.037970904,17,40,-20,-22,55
1693677890529781800,1.022324085,-0.85353291,10.24838066,-0.061286367,-0.000399694,-0.008393568,-22,40,83,10,-16,-0.113724582,2.41694665,10.22683239,0.053692192,-0.027312404,0.038104136,15,37,-19,-23,50
1693677890556786000,1.023521185,-0.85353291,10.24598598,-0.061286367,0.000133231,-0.007860643,-23,38,88,-6,-18,-0.116118781,2.41694665,10.22683239,0.053159267,-0.026779478,0.038104136,14,39,-28,-23,48
1693677890557786000,1.021126986,-0.849941611,10.24838066,-0.061286367,0.000266462,-0.008127105,-23,37,90,7,-13,-0.116118781,2.419340849,10.22084713,0.053159267,-0.026779478,0.037970904,18,36,-20,-22,53
1693677890558786000,1.021126986,-0.848744512,10.25197124,-0.061286367,0.000133231,-0.008127105,-28,35,84,8,-8,-0.116118781,2.41694665,10.21845245,0.053026035,-0.026646247,0.037837673,15,43,-25,-19,53
1693677890559786000,1.018732786,-0.851138711,10.25197124,-0.061286367,0.0,-0.008127105,-30,41,84,3,0,-0.114921682,2.41694665,10.21845245,0.053026035,-0.026646247,0.037837673,19,40,-16,-27,52
1693677890560786000,1.018732786,-0.851138711,10.25316906,-0.061419602,0.000133231,-0.007993874,-30,50,77,8,-11,-0.114921682,2.41574955,10.22084713,0.053026035,-0.026646247,0.037970904,17,33,-24,-25,49
1693677890587768600,1.025915384,-0.849941611,10.24957752,-0.061686065,-0.000932619,-0.008127105,-28,35,85,3,-12,-0.123301387,2.41574955,10.21725559,0.053425729,-0.027845331,0.037837673,15,36,-19,-22,53
1693677890588768600,1.024718285,-0.849941611,10.24598598,-0.061419602,-0.000932619,-0.008393568,-30,43,89,3,-7,-0.124498487,2.41694665,10.21725559,0.053558957,-0.027578866,0.037970904,14,33,-29,-26,50
1693677890589768600,1.019929886,-0.85353291,10.24239445,-0.061419602,-0.000932619,-0.008393568,-26,39,87,7,-8,-0.128089786,2.418143749,10.21605873,0.053292494,-0.027445635,0.037837673,18,43,-23,-19,55
1693677890590768600,1.018732786,-0.85592711,10.23760605,-0.061419602,-0.000932619,-0.008393568,-28,45,87,2,-9,-0.130484,2.41574955,10.21127033,0.053026035,-0.027312404,0.037837673,11,43,-27,-28,50
1693677890591768600,1.019929886,-0.852335811,10.24239445,-0.061552834,-0.000932619,-0.008526799,-24,46,83,11,-9,-0.1316811,2.41694665,10.20648193,0.053026035,-0.027312404,0.037704438,17,31,-22,-24,54
1693677890618730900,1.019929886,-0.845153213,10.23640919,-0.061419602,-0.000532925,-0.007727412,-28,46,90,13,-15,-0.116118781,2.41455245,10.23162079,0.053825419,-0.027578866,0.037837673,15,33,-28,-24,52
1693677890619730900,1.019929886,-0.845153213,10.23760605,-0.061286367,-0.000666156,-0.007727412,-23,45,88,3,-8,-0.113724582,2.41455245,10.23042393,0.053692192,-0.027712099,0.037837673,13,31,-23,-24,53
1693677890620730900,1.021126986,-0.847547412,10.24000072,-0.061419602,-0.000532925,-0.007727412,-20,41,89,10,-9,-0.111330383,2.41455245,10.22802925,0.053692192,-0.027712099,0.037837673,10,39,-23,-22,56
1693677890621730900,1.027112484,-0.848744512,10.24000072,-0.061419602,-0.000666156,-0.007727412,-27,39,87,12,-9,-0.111330383,2.41574955,10.23162079,0.053558957,-0.027712099,0.037970904,18,37,-25,-27,49
1693677890622730900,1.027112484,-0.851138711,10.24119759,-0.061419602,-0.000666156,-0.007860643,-27,41,84,-1,-14,-0.110133275,2.41574955,10.23521233,0.053558957,-0.027712099,0.037970904,6,31,-31,-24,50
1693677890650709300,1.023521185,-0.851138711,10.24598598,-0.061552834,-0.000932619,-0.008393568,-30,45,86,2,-12,-0.112527482,2.41574955,10.23401546,0.053958651,-0.027712099,0.037837673,13,44,-24,-28,50
1693677890651709300,1.019929886,-0.851138711,10.24957752,-0.061552834,-0.000799387,-0.008393568,-27,39,86,2,-13,-0.111330383,2.418143749,10.24119759,0.053558957,-0.027445635,0.037704438,20,32,-25,-20,55
1693677890652709300,1.018732786,-0.849941611,10.24718285,-0.061552834,-0.000932619,-0.008260337,-31,42,84,7,-9,-0.111330383,2.41694665,10.24000072,0.053026035,-0.027179174,0.037837673,20,39,-24,-23,52
1693677890653709300,1.015141487,-0.849941611,10.24718285,-0.061419602,-0.000932619,-0.008127105,-32,37,83,4,-5,-0.110133275,2.41694665,10.22922707,0.052626338,-0.027179174,0.037970904,21,42,-21,-21,50
1693677890654709300,1.015141487,-0.847547412,10.24718285,-0.061286367,-0.000799387,-0.007993874,-27,51,90,9,-9,-0.107739076,2.41694665,10.22683239,0.0528928,-0.027179174,0.037837673,17,33,-22,-18,54
1693677890683694100,1.029506683,-0.864306808,10.24598598,-0.061419602,0.000399694,-0.008127105,-24,38,85,13,-13,-0.119710088,2.419340849,10.21725559,0.053558957,-0.026246555,0.037704438,20,39,-19,-20,55
1693677890684694100,1.029506683,-0.861912608,10.24718285,-0.061419602,0.000399694,-0.008127105,-28,40,88,3,-12,-0.119710088,2.41574955,10.21127033,0.053425729,-0.026379786,0.03757121,13,39,-19,-23,55
1693677890685694100,1.033097982,-0.860715508,10.24838066,-0.061419602,0.000399694,-0.007860643,-22,47,89,13,-4,-0.116118781,2.41574955,10.20648193,0.053558957,-0.026379786,0.03757121,18,39,-23,-21,50
1693677890686694100,1.029506683,-0.860715508,10.24838066,-0.061419602,0.000399694,-0.007860643,-28,49,87,13,-5,-0.116118781,2.41694665,10.21007347,0.053425729,-0.026246555,0.03757121,20,39,-23,-19,52
1693677890687694100,1.027112484,-0.860715508,10.24359226,-0.06115314,0.000266462,-0.007860643,-26,41,87,11,-4,-0.117315881,2.418143749,10.21486187,0.053292494,-0.026113322,0.037437979,20,45,-18,-17,55
1693677890724689800,1.027112484,-0.852335811,10.22443867,-0.061019909,-0.000666156,-0.008127105,-23,47,90,13,-3,-0.119710088,2.408566952,10.24119759,0.053958651,-0.02691271,0.037704438,14,39,-22,-23,53
1693677890725689800,1.022324085,-0.849941611,10.22683239,-0.061019909,-0.000399694,-0.008127105,-23,42,83,6,-9,-0.116118781,2.408566952,10.24239445,0.053958651,-0.026779478,0.037837673,15,39,-22,-22,50
1693677890726689800,1.023521185,-0.851138711,10.22683239,-0.061019909,-0.000399694,-0.008127105,-48,38,86,13,-4,-0.117315881,2.408566952,10.24000072,0.053958651,-0.026646247,0.037837673,15,44,-25,-28,53
1693677890727689800,1.022324085,-0.849941611,10.22563553,-0.06115314,-0.000266462,-0.008260337,-26,51,93,13,-3,-0.119710088,2.408566952,10.23880386,0.053958651,-0.026646247,0.037704438,14,40,-23,-20,49
1693677890728689800,1.023521185,-0.849941611,10.22324085,-0.06115314,-0.000133231,-0.008260337,-18,50,93,10,-3,-0.117315881,2.410961151,10.23521233,0.053692192,-0.02691271,0.037704438,20,40,-19,-19,53
1693677890756651500,1.018732786,-0.85353291,10.24957752,-0.061419602,-0.000532925,-0.008127105,-29,39,81,0,-13,-0.123301387,2.412158251,10.22324085,0.053825419,-0.027578866,0.037970904,20,32,-18,-24,51
1693677890757651500,1.015141487,-0.85473001,10.25197124,-0.061419602,-0.000399694,-0.007993874,-33,36,85,3,-13,-0.122104287,2.408566952,10.22922707,0.053692192,-0.027712099,0.037970904,14,46,-27,-22,55
1693677890758651500,1.017535686,-0.85353291,10.24598598,-0.061419602,-0.000399694,-0.007860643,-20,46,90,13,-4,-0.120907187,2.409764051,10.23281765,0.053958651,-0.027578866,0.038104136,17,44,-21,-18,55
1693677890759651500,1.019929886,-0.851138711,10.24598598,-0.061419602,-0.000266462,-0.007993874,-22,51,93,13,-2,-0.120907187,2.412158251,10.23880386,0.053825419,-0.027712099,0.038104136,11,26,-18,-26,53
1693677890760651500,1.021126986,-0.852335811,10.24838066,-0.061419602,-0.000133231,-0.007860643,-20,46,85,14,-4,-0.122104287,2.41335535,10.24000072,0.053958651,-0.027712099,0.037837673,20,33,-25,-23,51
1693677890789629600,1.018732786,-0.851138711,10.24598598,-0.06115314,-0.000666156,-0.008526799,-31,37,81,4,-11,-0.116118781,2.41455245,10.22204399,0.054225113,-0.027712099,0.037704438,19,32,-17,-17,55
1693677890790629600,1.018732786,-0.851138711,10.24478912,-0.06115314,-0.000666156,-0.008393568,-32,42,77,0,-13,-0.114921682,2.412158251,10.22204399,0.054358348,-0.027845331,0.037704438,20,30,-24,-32,52
1693677890791629600,1.022324085,-0.851138711,10.24239445,-0.06115314,-0.000666156,-0.008260337,-22,35,85,7,-13,-0.107739076,2.407369852,10.22443867,0.054225113,-0.027445635,0.037970904,15,28,-33,-23,48
1693677890792629600,1.024718285,-0.851138711,10.24119759,-0.061019909,-0.000532925,-0.008127105,-27,41,85,7,-15,-0.108936176,2.404975653,10.22204399,0.054225113,-0.027712099,0.038104136,26,33,-25,-21,52
1693677890793629600,1.023521185,-0.852335811,10.24000072,-0.06115314,-0.000399694,-0.008260337,-32,44,81,0,-18,-0.111330383,2.402581453,10.21845245,0.054358348,-0.027845331,0.038237367,19,39,-27,-18,53
1693677890841600200,1.034295082,-0.851138711,10.24598598,-0.060886677,-0.000799387,-0.007993874,-30,33,79,3,-14,-0.118512981,2.419340849,10.24359226,0.055690661,-0.030643184,0.039036751,20,39,-23,-27,52
1693677890842600200,1.033097982,-0.848744512,10.24838066,-0.060886677,-0.000666156,-0.007993874,-32,37,84,-2,-13,-0.117315881,2.420537949,10.24598598,0.055424199,-0.030243492,0.038370594,10,39,-24,-24,55
1693677890843600200,1.031900883,-0.847547412,10.24718285,-0.060886677,-0.000666156,-0.008127105,-31,38,80,6,-12,-0.114921682,2.419340849,10.24359226,0.054624807,-0.028644716,0.038104136,7,36,-21,-20,55
1693677890844600200,1.031900883,-0.847547412,10.24598598,-0.060886677,-0.000666156,-0.008127105,-28,32,82,3,-18,-0.112527482,2.419340849,10.23640919,0.053292494,-0.026513018,0.037704438,14,42,-22,-21,51
1693677890845600200,1.030703783,-0.846350312,10.24000072,-0.060753446,-0.000666156,-0.007860643,-33,32,83,2,-18,-0.112527482,2.420537949,10.22204399,0.052359879,-0.024914242,0.037304748,18,46,-23,-18,55
1693677890879580500,1.023521185,-0.85353291,10.23760605,-0.060753446,-0.000266462,-0.008660031,-31,33,83,0,-13,-0.126892686,2.403778553,10.21366405,0.053958651,-0.028378254,0.038770292,20,35,-21,-19,49
1693677890880580500,1.025915384,-0.85592711,10.23521233,-0.061019909,-0.000133231,-0.008660031,-24,36,84,7,-12,-0.125695586,2.409764051,10.21845245,0.054624807,-0.029444104,0.039036751,18,43,-19,-21,52
1693677890881580500,1.025915384,-0.85592711,10.23880386,-0.06115314,-0.000266462,-0.008660031,-27,34,77,8,-16,-0.122104287,2.412158251,10.22204399,0.05489127,-0.029977029,0.039169986,23,33,-17,-18,58
1693677890882580500,1.025915384,-0.85353291,10.23760605,-0.061286367,-0.000399694,-0.008660031,-33,35,76,2,-16,-0.117315881,2.41574955,10.22802925,0.05489127,-0.029977029,0.039036751,20,34,-15,-20,54
1693677890883580500,1.023521185,-0.852335811,10.23162079,-0.061419602,-0.000266462,-0.008526799,-33,32,79,6,-18,-0.113724582,2.41694665,10.23640919,0.054491576,-0.029310873,0.038637057,16,45,-16,-28,55
1693677890919559700,1.031900883,-0.864306808,10.23640919,-0.061419602,-0.000532925,-0.007727412,-30,38,81,7,-13,-0.120907187,2.407369852,10.22443867,0.053159267,-0.026113322,0.03757121,17,33,-29,-24,52
1693677890920559700,1.031900883,-0.864306808,10.24119759,-0.061419602,-0.000399694,-0.007860643,-26,42,83,12,-15,-0.122104287,2.404975653,10.22324085,0.053558957,-0.027045943,0.037970904,15,41,-23,-20,43
1693677890921559700,1.030703783,-0.863109708,10.24000072,-0.061552834,-0.000399694,-0.007860643,-31,34,80,10,-16,-0.123301387,2.404975653,10.22802925,0.054091886,-0.02797856,0.038104136,13,38,-26,-24,54
1693677890922559700,1.031900883,-0.857124209,10.23640919,-0.061552834,-0.000266462,-0.007993874,-32,37,80,0,-15,-0.122104287,2.408566952,10.22563553,0.054358348,-0.028511487,0.038237367,7,35,-15,-16,54
1693677890923559700,1.029506683,-0.85353291,10.23281765,-0.061552834,-0.000399694,-0.007993874,-30,29,75,2,-17,-0.122104287,2.409764051,10.22563553,0.054491576,-0.028511487,0.038370594,20,39,-21,-23,52
1693677890960533100,1.017535686,-0.858321309,10.23760605,-0.061019909,0.0,-0.007860643,-32,38,75,7,-9,-0.112527482,2.410961151,10.22802925,0.053958651,-0.027312404,0.037837673,20,45,-20,-19,52
1693677890961533100,1.016338587,-0.85592711,10.24359226,-0.060886677,-0.000133231,-0.007860643,-33,39,83,3,-15,-0.118512981,2.41335535,10.23162079,0.053825419,-0.027445635,0.037837673,10,35,-19,-23,54
1693677890962533100,1.018732786,-0.851138711,10.24718285,-0.060886677,-0.000133231,-0.007993874,-28,33,79,6,-15,-0.118512981,2.412158251,10.23042393,0.053692192,-0.027445635,0.037837673,21,46,-22,-17,52
1693677890963533100,1.019929886,-0.851138711,10.24957752,-0.060886677,-0.000133231,-0.007993874,-33,34,76,7,-18,-0.114921682,2.412158251,10.23042393,0.053958651,-0.027445635,0.037970904,18,39,-22,-20,53
1693677890964533100,1.023521185,-0.852335811,10.25316906,-0.060886677,-0.000133231,-0.007993874,-28,36,76,2,-17,-0.118512981,2.41335535,10.22802925,0.053958651,-0.027578866,0.037970904,19,43,-19,-28,50
1693677891017498100,1.028309584,-0.85592711,10.23401546,-0.061552834,-0.000532925,-0.008127105,-19,46,87,13,-2,-0.112527482,2.41574955,10.22563553,0.053825419,-0.027045943,0.037837673,13,39,-19,-22,66
1693677891018498100,1.034295082,-0.857124209,10.22443867,-0.061552834,-0.000532925,-0.008260337,-23,37,91,23,2,-0.116118781,2.41694665,10.22443867,0.053692192,-0.027179174,0.037970904,9,44,-24,-20,53
1693677891019498100,1.035492182,-0.863109708,10.22563553,-0.061552834,-0.000399694,-0.008260337,0,45,88,9,-13,-0.118512981,2.41694665,10.22324085,0.053692192,-0.027312404,0.037970904,17,37,-28,-19,52
1693677891020498100,1.033097982,-0.861912608,10.22683239,-0.061552834,-0.000532925,-0.008260337,-23,38,100,13,7,-0.117315881,2.418143749,10.22563553,0.053692192,-0.027445635,0.037970904,19,40,-28,-27,50
1693677891021498100,1.033097982,-0.861912608,10.22084713,-0.061552834,-0.000399694,-0.008393568,-10,47,90,10,-8,-0.114921682,2.41335535,10.22683239,0.053692192,-0.027712099,0.037837673,20,41,-23,-26,54
1693677891052479400,1.027112484,-0.860715508,10.24359226,-0.060886677,-0.000399694,-0.008260337,-22,47,89,12,-10,-0.119710088,2.412158251,10.24119759,0.053558957,-0.027578866,0.037970904,20,41,-27,-18,55
1693677891053479400,1.027112484,-0.860715508,10.24838066,-0.060753446,-0.000532925,-0.008260337,-28,39,90,10,-11,-0.119710088,2.41335535,10.24239445,0.053425729,-0.027445635,0.038104136,17,39,-24,-22,52
1693677891054479400,1.029506683,-0.860715508,10.24838066,-0.061019909,-0.000399694,-0.008127105,-24,42,87,10,-11,-0.118512981,2.412158251,10.23640919,0.053425729,-0.027179174,0.037970904,8,33,-29,-26,51
1693677891055479400,1.029506683,-0.860715508,10.24957752,-0.061019909,-0.000399694,-0.008127105,1,64,107,35,14,-0.120907187,2.41335535,10.23162079,0.053425729,-0.027179174,0.038104136,17,39,-32,-28,50
1693677891056479400,1.030703783,-0.864306808,10.24957752,-0.061019909,-0.000399694,-0.008127105,-1,66,107,29,12,-0.122104287,2.41335535,10.23281765,0.053558957,-0.027179174,0.038237367,8,35,-30,-23,54
1693677891095455100,1.024718285,-0.863109708,10.23880386,-0.061286367,-0.000399694,-0.008393568,-1,60,105,28,8,-0.113724582,2.420537949,10.22922707,0.054358348,-0.027045943,0.037704438,19,31,-27,-23,55
1693677891096455100,1.022324085,-0.858321309,10.23760605,-0.061286367,-0.000399694,-0.008393568,-19,47,88,6,-14,-0.117315881,2.420537949,10.22922707,0.054358348,-0.027045943,0.037837673,17,33,-21,-18,56
1693677891097455100,1.023521185,-0.85592711,10.24119759,-0.061286367,-0.000399694,-0.008260337,-5,64,103,34,14,-0.117315881,2.421735048,10.23281765,0.054225113,-0.027179174,0.037837673,17,40,-24,-30,48
1693677891098455100,1.021126986,-0.852335811,10.24598598,-0.061419602,-0.000532925,-0.008260337,-4,64,101,28,9,-0.114921682,2.419340849,10.23042393,0.054225113,-0.027179174,0.037837673,22,35,-23,-23,53
1693677891099455100,1.021126986,-0.85473001,10.24359226,-0.061419602,-0.000532925,-0.008127105,-30,45,85,-4,3,-0.114921682,2.421735048,10.22802925,0.054091886,-0.027179174,0.037837673,20,37,-25,-20,50
1693677891133435300,1.024718285,-0.857124209,10.22563553,-0.061686065,-0.000532925,-0.008127105,-6,64,104,25,-7,-0.118512981,2.41694665,10.22802925,0.053825419,-0.027179174,0.037837673,13,34,-25,-26,52
1693677891134435300,1.024718285,-0.858321309,10.23162079,-0.061552834,-0.000666156,-0.008127105,-23,49,86,9,-3,-0.119710088,2.41574955,10.22802925,0.053692192,-0.027312404,0.037704438,18,37,-29,-23,53
1693677891135435300,1.024718285,-0.859518409,10.23042393,-0.061552834,-0.000532925,-0.008127105,-10,63,103,22,3,-0.120907187,2.41455245,10.22683239,0.053558957,-0.027312404,0.037704438,15,41,-24,-23,52
1693677891136435300,1.027112484,-0.859518409,10.22922707,-0.061686065,-0.000666156,-0.008127105,-11,64,108,28,8,-0.119710088,2.41574955,10.22563553,0.053558957,-0.027312404,0.037837673,20,39,-19,-24,50
1693677891137435300,1.028309584,-0.860715508,10.23042393,-0.061552834,-0.000532925,-0.008260337,-2,48,112,11,-5,-0.123301387,2.41694665,10.22563553,0.053692192,-0.027445635,0.037970904,17,36,-21,-17,54
1693677891167413600,1.025915384,-0.864306808,10.23760605,-0.061019909,-0.000133231,-0.008260337,-25,41,88,13,-3,-0.114921682,2.421735048,10.21486187,0.053026035,-0.027312404,0.038104136,18,44,-23,-20,50
1693677891168413600,1.023521185,-0.861912608,10.24239445,-0.061019909,-0.000133231,-0.008393568,-19,46,85,6,-6,-0.112527482,2.421735048,10.21605873,0.0528928,-0.027179174,0.038104136,5,39,-21,-22,50
1693677891169413600,1.021126986,-0.860715508,10.24239445,-0.061019909,-0.000133231,-0.008393568,-22,41,87,13,-7,-0.111330383,2.419340849,10.21845245,0.052759573,-0.02691271,0.038104136,14,44,-21,-23,54
1693677891170413600,1.022324085,-0.859518409,10.24000072,-0.061019909,-0.000266462,-0.008260337,-24,42,90,13,-11,-0.107739076,2.41694665,10.22084713,0.052759573,-0.02691271,0.038104136,18,39,-21,-20,55
1693677891171413600,1.019929886,-0.85473001,10.24478912,-0.060886677,-0.000399694,-0.008393568,-19,45,87,13,-3,-0.111330383,2.41455245,10.21965027,0.052759573,-0.026779478,0.038104136,20,36,-21,-20,55
1693677891199394600,1.025915384,-0.847547412,10.23401546,-0.061286367,-0.000399694,-0.007860643,-24,43,91,13,-7,-0.104147777,2.41694665,10.22683239,0.053425729,-0.027845331,0.038104136,15,43,-20,-18,36
1693677891200394600,1.025915384,-0.851138711,10.23042393,-0.061286367,-0.000532925,-0.008127105,-24,46,88,9,-9,-0.105344877,2.41694665,10.22922707,0.053558957,-0.027845331,0.038104136,13,33,-25,-20,53
1693677891201394600,1.027112484,-0.851138711,10.23042393,-0.061286367,-0.000666156,-0.008127105,-18,42,80,12,-5,-0.108936176,2.41694665,10.23042393,0.053425729,-0.027712099,0.038237367,18,39,-21,-16,30
1693677891202394600,1.028309584,-0.85353291,10.23521233,-0.061286367,-0.000799387,-0.008127105,-22,41,84,10,-8,-0.110133275,2.41694665,10.22922707,0.053292494,-0.027712099,0.038237367,19,36,-18,-16,55
1693677891203394600,1.025915384,-0.85353291,10.23760605,-0.061419602,-0.000932619,-0.008260337,-19,48,90,9,-9,-0.110133275,2.418143749,10.23042393,0.053425729,-0.027578866,0.038104136,13,37,-16,-20,55
1693677891232398800,1.031900883,-0.85473001,10.22802925,-0.061419602,-0.000799387,-0.008127105,-22,34,90,12,-7,-0.119710088,2.418143749,10.21366405,0.053825419,-0.02691271,0.038104136,11,30,-24,-28,48
1693677891233398800,1.030703783,-0.857124209,10.22802925,-0.061419602,-0.000666156,-0.008127105,-24,42,87,10,-8,-0.120907187,2.41694665,10.21366405,0.053825419,-0.02691271,0.038237367,10,39,-20,-28,52
1693677891234398800,1.030703783,-0.85592711,10.22802925,-0.061419602,-0.000532925,-0.008260337,-30,49,89,10,-9,-0.119710088,2.41574955,10.21725559,0.053692192,-0.026779478,0.038370594,18,35,-25,-20,54
1693677891235398800,1.031900883,-0.85473001,10.22922707,-0.061419602,-0.000666156,-0.008127105,-24,43,85,9,-5,-0.118512981,2.41335535,10.22084713,0.053425729,-0.027045943,0.038237367,17,43,-22,-18,54
1693677891236398800,1.028309584,-0.85353291,10.22922707,-0.061419602,-0.000666156,-0.008127105,-15,42,89,13,-8,-0.118512981,2.41574955,10.22204399,0.053425729,-0.027045943,0.037970904,20,44,-21,-23,55
1693677891279348900,1.036689281,-0.85473001,10.24359226,-0.061019909,-0.000399694,-0.007993874,-22,46,88,13,-14,-0.119710088,2.408566952,10.23281765,0.053825419,-0.02691271,0.038503829,19,37,-19,-20,46
1693677891280348900,1.034295082,-0.85353291,10.24119759,-0.06115314,-0.000532925,-0.007727412,-18,46,82,6,-9,-0.118512981,2.409764051,10.23281765,0.053558957,-0.027045943,0.038237367,13,32,-19,-27,50
1693677891281348900,1.035492182,-0.851138711,10.23880386,-0.06115314,-0.000399694,-0.007860643,-23,32,88,7,-7,-0.116118781,2.410961151,10.23760605,0.053292494,-0.027045943,0.038370594,20,35,-20,-18,54
1693677891282348900,1.033097982,-0.847547412,10.24359226,-0.06115314,-0.000532925,-0.008127105,-20,48,89,6,-8,-0.114921682,2.41335535,10.24119759,0.053292494,-0.02691271,0.038237367,20,37,-27,-18,54
1693677891283348900,1.030703783,-0.848744512,10.24718285,-0.06115314,-0.000399694,-0.008127105,-19,55,88,8,-8,-0.117315881,2.412158251,10.23640919,0.053292494,-0.027045943,0.038237367,21,39,-19,-23,50
1693677891329320100,1.031900883,-0.85353291,10.24000072,-0.06115314,-0.000666156,-0.007860643,-27,43,88,10,-7,-0.112527482,2.41574955,10.24000072,0.053958651,-0.027312404,0.038503829,23,45,-23,-20,55
1693677891330320100,1.031900883,-0.85353291,10.24838066,-0.06115314,-0.000666156,-0.007860643,-33,41,89,8,-5,-0.112527482,2.41574955,10.23880386,0.053825419,-0.027312404,0.038237367,19,45,-18,-28,50
1693677891331320100,1.034295082,-0.857124209,10.24957752,-0.061286367,-0.000666156,-0.007993874,-22,38,88,6,-7,-0.113724582,2.41694665,10.23760605,0.053558957,-0.027179174,0.038237367,20,39,-24,-20,54
1693677891332320100,1.030703783,-0.857124209,10.24718285,-0.06115314,-0.000799387,-0.007727412,-23,41,85,10,-6,-0.112527482,2.41455245,10.23880386,0.053425729,-0.027179174,0.038237367,13,33,-20,-22,53
1693677891333320100,1.029506683,-0.861912608,10.25077438,-0.06115314,-0.000399694,-0.007727412,-18,39,92,12,-3,-0.111330383,2.41574955,10.24239445,0.053425729,-0.027179174,0.038104136,19,39,-27,-25,55
1693677891373294500,1.028309584,-0.859518409,10.24838066,-0.061419602,0.0,-0.008127105,-23,38,89,8,-6,-0.111330383,2.404975653,10.23281765,0.053425729,-0.027445635,0.038104136,19,39,-23,-27,54
1693677891374294500,1.029506683,-0.859518409,10.25077438,-0.061419602,0.0,-0.008127105,-28,37,84,11,-8,-0.108936176,2.404975653,10.23162079,0.053692192,-0.027312404,0.038237367,21,47,-19,-15,55
1693677891375294500,1.029506683,-0.859518409,10.25197124,-0.061552834,0.0,-0.008127105,-22,46,91,11,-4,-0.112527482,2.404975653,10.23281765,0.053425729,-0.027179174,0.038104136,6,40,-24,-20,51
1693677891376294500,1.027112484,-0.859518409,10.25197124,-0.061552834,0.000266462,-0.007993874,-22,39,89,13,-4,-0.116118781,2.403778553,10.23042393,0.053292494,-0.027045943,0.038104136,11,37,-28,-21,54
1693677891377294500,1.027112484,-0.858321309,10.25316906,-0.061419602,0.000266462,-0.007860643,-20,49,77,9,-6,-0.114921682,2.401384354,10.23401546,0.053292494,-0.027312404,0.038104136,20,36,-24,-28,54
1693677891409274600,1.023521185,-0.851138711,10.23760605,-0.060886677,-0.000666156,-0.007727412,-17,44,89,11,-5,-0.111330383,2.41335535,10.24239445,0.053425729,-0.027312404,0.037837673,23,41,-32,-19,50
1693677891410274600,1.022324085,-0.852335811,10.23760605,-0.061019909,-0.000532925,-0.007860643,-24,45,83,8,-8,-0.110133275,2.41574955,10.24000072,0.053558957,-0.027312404,0.037970904,20,36,-17,-22,55
1693677891411274600,1.023521185,-0.85473001,10.23521233,-0.061019909,-0.000532925,-0.007860643,-30,42,85,11,-6,-0.111330383,2.41574955,10.23760605,0.053558957,-0.027312404,0.038104136,11,35,-21,-22,49
1693677891412274600,1.019929886,-0.858321309,10.23521233,-0.06115314,-0.000399694,-0.007993874,-26,45,90,13,-7,-0.111330383,2.418143749,10.23281765,0.053425729,-0.027312404,0.037970904,13,33,-27,-24,55
1693677891413274600,1.019929886,-0.858321309,10.23281765,-0.06115314,-0.000266462,-0.007860643,-18,49,85,13,-3,-0.112527482,2.41694665,10.23281765,0.053292494,-0.027312404,0.038104136,19,33,-22,-17,50
1693677891444256800,1.013944387,-0.867898107,10.23401546,-0.06115314,-0.000133231,-0.007860643,-27,42,88,10,-7,-0.120907187,2.424129248,10.22324085,0.053159267,-0.027578866,0.037837673,18,43,-22,-20,57
1693677891445256800,1.012747288,-0.865503907,10.23521233,-0.06115314,-0.000266462,-0.007860643,-30,37,84,12,-9,-0.117315881,2.419340849,10.22204399,0.053292494,-0.027578866,0.037837673,19,30,-22,-18,53
1693677891446256800,1.015141487,-0.865503907,10.24000072,-0.061286367,-0.000133231,-0.007860643,-24,49,88,10,-7,-0.117315881,2.418143749,10.22324085,0.053159267,-0.027445635,0.037970904,18,36,-25,-23,54
1693677891447256800,1.018732786,-0.864306808,10.24119759,-0.06115314,-0.000266462,-0.007860643,-24,45,87,13,-8,-0.113724582,2.41694665,10.23042393,0.053159267,-0.027578866,0.037837673,17,35,-23,-28,55
1693677891448256800,1.016338587,-0.863109708,10.24359226,-0.061286367,-0.000399694,-0.007860643,-22,46,87,8,-7,-0.112527482,2.41694665,10.23042393,0.053159267,-0.027578866,0.037837673,20,35,-20,-22,52
1693677891476236300,1.027112484,-0.863109708,10.23640919,-0.061286367,-0.000399694,-0.008127105,-22,42,90,6,-12,-0.111330383,2.418143749,10.23401546,0.053558957,-0.027179174,0.037970904,13,37,-27,-19,54
1693677891477236300,1.025915384,-0.858321309,10.23760605,-0.061286367,-0.000532925,-0.007993874,-21,41,87,13,-3,-0.110133275,2.41694665,10.23640919,0.053692192,-0.027045943,0.038104136,14,37,-21,-26,50
1693677891478236300,1.024718285,-0.85353291,10.23640919,-0.061419602,-0.000532925,-0.007993874,-21,47,90,13,-8,-0.110133275,2.41574955,10.23162079,0.053958651,-0.027045943,0.037970904,13,30,-28,-22,43
1693677891479236300,1.022324085,-0.852335811,10.23760605,-0.061419602,-0.000399694,-0.007993874,-24,51,89,13,-2,-0.106541976,2.41455245,10.22922707,0.053958651,-0.027045943,0.037837673,20,41,-28,-20,54
1693677891480236300,1.025915384,-0.852335811,10.23640919,-0.061419602,-0.000399694,-0.007993874,-19,42,89,13,-8,-0.106541976,2.412158251,10.22922707,0.053692192,-0.027045943,0.037970904,19,40,-23,-22,53
1693677891508217400,1.022324085,-0.846350312,10.22802925,-0.061019909,-0.000266462,-0.008127105,-31,47,85,11,-12,-0.113724582,2.41335535,10.21845245,0.053692192,-0.027179174,0.038370594,20,43,-25,-20,52
1693677891509217400,1.022324085,-0.846350312,10.23042393,-0.06115314,-0.000266462,-0.008127105,-29,37,88,12,-14,-0.111330383,2.412158251,10.21845245,0.053692192,-0.027045943,0.038370594,14,36,-23,-22,52
1693677891510217400,1.023521185,-0.848744512,10.23042393,-0.06115314,-0.000266462,-0.007993874,-27,45,84,13,-7,-0.110133275,2.410961151,10.21845245,0.053692192,-0.02691271,0.038370594,17,40,-23,-23,51
1693677891511217400,1.025915384,-0.848744512,10.22443867,-0.061019909,-0.000133231,-0.007993874,-31,45,87,7,-7,-0.112527482,2.410961151,10.21845245,0.053692192,-0.02691271,0.038237367,19,37,-28,-20,51
1693677891512217400,1.025915384,-0.846350312,10.22204399,-0.061019909,-0.000266462,-0.007860643,-29,44,85,7,-11,-0.112527482,2.409764051,10.21965027,0.053692192,-0.027179174,0.038104136,20,36,-20,-24,52
1693677891538203300,1.023521185,-0.85592711,10.23880386,-0.061019909,-0.000532925,-0.007727412,-23,41,85,10,-7,-0.114921682,2.408566952,10.22443867,0.053825419,-0.027045943,0.038104136,19,39,-23,-20,54
1693677891539203300,1.023521185,-0.85353291,10.23760605,-0.060753446,-0.000666156,-0.007727412,-23,47,84,10,-11,-0.113724582,2.410961151,10.22204399,0.053825419,-0.02691271,0.038237367,14,41,-21,-27,51
1693677891540203300,1.025915384,-0.85473001,10.23640919,-0.060886677,-0.000532925,-0.007727412,-17,41,91,9,-3,-0.118512981,2.412158251,10.22443867,0.053825419,-0.026646247,0.038237367,14,46,-23,-23,54
1693677891541203300,1.027112484,-0.852335811,10.23521233,-0.060886677,-0.000532925,-0.007727412,-25,42,88,13,-2,-0.117315881,2.412158251,10.22084713,0.053692192,-0.026646247,0.037970904,19,44,-25,-23,53
1693677891542203300,1.024718285,-0.85353291,10.23281765,-0.060886677,-0.000666156,-0.007727412,-28,43,90,10,-7,-0.114921682,2.409764051,10.22084713,0.053825419,-0.026646247,0.037837673,23,40,-24,-19,53
1693677891570183300,1.028309584,-0.851138711,10.22443867,-0.061019909,-0.000399694,-0.007860643,-28,49,93,6,-7,-0.122104287,2.419340849,10.22084713,0.053692192,-0.027045943,0.038104136,15,40,-25,-22,53
1693677891571183300,1.030703783,-0.847547412,10.22922707,-0.061019909,-0.000399694,-0.007860643,-20,47,83,10,-4,-0.119710088,2.418143749,10.21965027,0.053692192,-0.027045943,0.038104136,19,37,-20,-19,55
1693677891572183300,1.033097982,-0.846350312,10.22683239,-0.06115314,-0.000399694,-0.007860643,-21,47,87,9,-3,-0.116118781,2.41574955,10.22084713,0.053425729,-0.026779478,0.037970904,21,42,-20,-27,50
1693677891573183300,1.031900883,-0.845153213,10.22683239,-0.06115314,-0.000399694,-0.007727412,-22,43,88,14,-9,-0.117315881,2.41574955,10.21845245,0.053425729,-0.026646247,0.037970904,15,44,-19,-18,55
1693677891574183300,1.025915384,-0.848744512,10.23042393,-0.06115314,-0.000266462,-0.007860643,-28,43,87,7,-8,-0.114921682,2.41574955,10.21725559,0.053425729,-0.026646247,0.037837673,20,32,-16,-22,55
1693677891612158200,1.030703783,-0.859518409,10.23640919,-0.061419602,-0.000399694,-0.008260337,-24,38,84,11,-6,-0.107739076,2.425326347,10.22683239,0.053159267,-0.027045943,0.038104136,19,33,-24,-26,52
1693677891613158200,1.031900883,-0.860715508,10.23880386,-0.061419602,-0.000532925,-0.008393568,-22,44,88,8,-5,-0.107739076,2.422932148,10.22922707,0.053292494,-0.027179174,0.037970904,20,41,-22,-20,68
1693677891614158200,1.028309584,-0.858321309,10.24000072,-0.061419602,-0.000399694,-0.008526799,-17,49,89,10,-5,-0.106541976,2.420537949,10.23042393,0.053425729,-0.027179174,0.037970904,15,37,-19,-17,54
1693677891615158200,1.025915384,-0.861912608,10.24239445,-0.061419602,-0.000399694,-0.008526799,-24,43,88,13,-7,-0.106541976,2.41694665,10.22683239,0.053558957,-0.027179174,0.037837673,18,39,-20,-16,55
1693677891616158200,1.028309584,-0.861912608,10.24119759,-0.061286367,-0.000399694,-0.008393568,-24,39,92,8,-13,-0.105344877,2.418143749,10.22563553,0.053692192,-0.02691271,0.037837673,20,45,-21,-24,54
1693677891654136400,1.022324085,-0.858321309,10.25197124,-0.061419602,-0.000666156,-0.007993874,-19,42,87,11,-8,-0.110133275,2.419340849,10.23401546,0.053558957,-0.027045943,0.037970904,8,31,-24,-28,49
1693677891655136400,1.023521185,-0.859518409,10.25436592,-0.061552834,-0.000799387,-0.007993874,-22,41,89,-1,-4,-0.107739076,2.418143749,10.23401546,0.053425729,-0.027179174,0.037970904,17,36,-23,-23,55
1693677891656136400,1.022324085,-0.85592711,10.25436592,-0.061552834,-0.000799387,-0.008260337,-22,42,81,13,-6,-0.111330383,2.418143749,10.23281765,0.053558957,-0.027179174,0.037704438,19,35,-24,-23,53
1693677891657136400,1.019929886,-0.85592711,10.25556278,-0.061552834,-0.000799387,-0.008127105,-23,47,87,6,-11,-0.112527482,2.422932148,10.23640919,0.053558957,-0.027312404,0.037837673,20,41,-22,-22,55
1693677891658136400,1.019929886,-0.85592711,10.25795746,-0.061552834,-0.000799387,-0.008260337,-30,53,87,12,-12,-0.113724582,2.420537949,10.23162079,0.053692192,-0.027445635,0.037704438,17,37,-23,-24,50
1693677891688114900,1.027112484,-0.848744512,10.24957752,-0.061286367,-0.000532925,-0.008793262,-24,43,90,13,-7,-0.116118781,2.410961151,10.23640919,0.053425729,-0.027578866,0.037837673,13,34,-23,-28,53
1693677891689114900,1.029506683,-0.848744512,10.24598598,-0.06115314,-0.000399694,-0.008526799,-24,49,85,4,-13,-0.116118781,2.410961151,10.23281765,0.053425729,-0.027445635,0.037970904,9,45,-24,-20,49
1693677891690114900,1.029506683,-0.852335811,10.24359226,-0.06115314,-0.000266462,-0.008660031,-23,41,90,7,-12,-0.114921682,2.410961151,10.23640919,0.053292494,-0.027179174,0.037704438,22,46,-23,-20,58
1693677891691114900,1.031900883,-0.851138711,10.24478912,-0.06115314,-0.000266462,-0.008526799,-27,37,84,7,-7,-0.111330383,2.41335535,10.23521233,0.053292494,-0.027179174,0.037837673,20,36,-25,-18,53
1693677891692114900,1.031900883,-0.849941611,10.24598598,-0.06115314,-0.000532925,-0.008526799,-24,50,94,13,-7,-0.114921682,2.41455245,10.23042393,0.053292494,-0.027312404,0.038104136,18,36,-20,-17,53
1693677891720096500,1.018732786,-0.861912608,10.23880386,-0.061552834,-0.000399694,-0.008393568,-21,53,90,16,-7,-0.104147777,2.409764051,10.23162079,0.053692192,-0.027312404,0.037970904,20,43,-23,-20,54
1693677891721096500,1.018732786,-0.860715508,10.23760605,-0.061552834,-0.000266462,-0.008393568,-24,45,89,12,-11,-0.106541976,2.409764051,10.23281765,0.053558957,-0.027312404,0.037970904,18,39,-25,-24,58
1693677891722096500,1.016338587,-0.861912608,10.24598598,-0.061552834,-0.000266462,-0.008393568,-26,41,85,4,-12,-0.108936176,2.410961151,10.23281765,0.053425729,-0.027312404,0.037970904,17,46,-21,-17,54
1693677891723096500,1.015141487,-0.860715508,10.24598598,-0.061552834,-0.000399694,-0.008260337,-32,43,87,2,-8,-0.110133275,2.409764051,10.23640919,0.053425729,-0.027179174,0.037970904,13,41,-22,-24,50
1693677891724096500,1.015141487,-0.860715508,10.25316906,-0.061552834,-0.000399694,-0.008260337,-19,32,87,4,-9,-0.108936176,2.410961151,10.23281765,0.053425729,-0.027045943,0.037970904,14,39,-31,-26,52
1693677891755076200,1.018732786,-0.869095206,10.23760605,-0.060886677,-0.000532925,-0.007860643,-26,41,84,10,-8,-0.117315881,2.412158251,10.24000072,0.053825419,-0.027445635,0.03757121,15,36,-21,-18,55
1693677891756076200,1.019929886,-0.869095206,10.23760605,-0.061019909,-0.000399694,-0.007727412,-31,44,88,7,-7,-0.118512981,2.412158251,10.23640919,0.053825419,-0.027445635,0.037704438,20,44,-19,-21,55
1693677891757076200,1.019929886,-0.869095206,10.23401546,-0.06115314,-0.000399694,-0.007727412,-27,42,88,8,-12,-0.120907187,2.41335535,10.24000072,0.053825419,-0.027312404,0.037704438,17,30,-20,-22,53
1693677891758076200,1.021126986,-0.870292306,10.23162079,-0.06115314,-0.000399694,-0.007860643,-27,45,84,10,-6,-0.119710088,2.41335535,10.24359226,0.053825419,-0.027445635,0.037704438,20,33,-17,-22,52
1693677891759076200,1.019929886,-0.866701007,10.23162079,-0.06115314,-0.000266462,-0.007993874,-33,38,85,8,-9,-0.117315881,2.410961151,10.24239445,0.054225113,-0.027445635,0.037704438,20,40,-23,-21,53
1693677891787059800,1.023521185,-0.858321309,10.23760605,-0.061286367,-0.000133231,-0.008260337,-28,48,85,12,-11,-0.108936176,2.422932148,10.24000072,0.053425729,-0.027445635,0.037837673,29,43,-21,-20,55
1693677891788059800,1.024718285,-0.860715508,10.23880386,-0.061419602,-0.000266462,-0.008127105,-29,41,90,6,-7,-0.111330383,2.421735048,10.24239445,0.053292494,-0.027179174,0.037970904,21,39,-18,-19,50
1693677891789059800,1.021126986,-0.857124209,10.23521233,-0.061286367,-0.000133231,-0.008260337,-27,33,88,6,-8,-0.112527482,2.420537949,10.24000072,0.053425729,-0.027312404,0.038104136,13,43,-24,-20,53
1693677891790059800,1.021126986,-0.859518409,10.23880386,-0.06115314,0.0,-0.008127105,-24,42,84,3,-5,-0.110133275,2.419340849,10.24119759,0.053425729,-0.027445635,0.038104136,21,40,-23,-22,48
1693677891791059800,1.023521185,-0.861912608,10.23880386,-0.06115314,-0.000133231,-0.008127105,-29,43,90,13,-11,-0.110133275,2.421735048,10.24119759,0.053425729,-0.027578866,0.038104136,20,39,-22,-24,51
1693677891822037400,1.022324085,-0.85473001,10.24239445,-0.061686065,-0.000666156,-0.007993874,-22,45,88,10,-5,-0.112527482,2.420537949,10.23042393,0.053425729,-0.027045943,0.037970904,20,43,-14,-22,53
1693677891823037400,1.023521185,-0.857124209,10.24239445,-0.061686065,-0.000666156,-0.007993874,-28,35,87,10,-10,-0.116118781,2.420537949,10.23162079,0.053425729,-0.027179174,0.037970904,10,46,-21,-24,55
1693677891824037400,1.023521185,-0.858321309,10.23880386,-0.061552834,-0.000666156,-0.007993874,-28,41,84,4,-7,-0.114921682,2.41694665,10.23162079,0.053292494,-0.027045943,0.037970904,8,32,-30,-15,54
1693677891825037400,1.023521185,-0.858321309,10.23880386,-0.061686065,-0.000666156,-0.007993874,-23,43,87,8,-9,-0.114921682,2.41574955,10.22802925,0.053159267,-0.027179174,0.037837673,17,37,-23,-22,56
1693677891826037400,1.023521185,-0.860715508,10.23640919,-0.061552834,-0.000666156,-0.007993874,-28,45,85,10,-7,-0.117315881,2.41694665,10.23042393,0.053292494,-0.027045943,0.037837673,20,39,-25,-19,53
1693677891856018100,1.018732786,-0.85353291,10.23401546,-0.06115314,-0.000666156,-0.008260337,-24,41,89,6,-19,-0.106541976,2.410961151,10.22563553,0.053692192,-0.027179174,0.037970904,20,40,-21,-21,54
1693677891857018100,1.018732786,-0.85473001,10.23401546,-0.06115314,-0.000532925,-0.008127105,-27,43,85,8,-13,-0.105344877,2.410961151,10.22802925,0.053825419,-0.027312404,0.038104136,21,39,-25,-23,50
1693677891858018100,1.017535686,-0.852335811,10.23760605,-0.06115314,-0.000399694,-0.008393568,-21,37,85,13,-11,-0.104147777,2.408566952,10.22922707,0.053825419,-0.027179174,0.037970904,18,37,-30,-31,52
1693677891859018100,1.015141487,-0.849941611,10.23640919,-0.060886677,-0.000399694,-0.008393568,-22,43,85,13,-11,-0.106541976,2.408566952,10.23042393,0.053825419,-0.02691271,0.038104136,19,35,-23,-22,54
1693677891860018100,1.016338587,-0.851138711,10.23401546,-0.061019909,-0.000399694,-0.008393568,-26,42,87,11,-15,-0.106541976,2.410961151,10.22802925,0.053958651,-0.027045943,0.038104136,20,35,-28,-22,55
1693677891893999600,1.021126986,-0.860715508,10.23042393,-0.061419602,-0.000133231,-0.008526799,-30,37,88,7,-9,-0.120907187,2.404975653,10.22563553,0.053692192,-0.027445635,0.038104136,15,46,-20,-20,53
1693677891894999600,1.019929886,-0.860715508,10.23401546,-0.061286367,0.0,-0.008393568,-30,41,85,8,-15,-0.122104287,2.409764051,10.22204399,0.053692192,-0.027578866,0.038104136,18,30,-21,-20,55
1693677891895999600,1.021126986,-0.860715508,10.23042393,-0.061419602,0.0,-0.008526799,-27,42,85,9,-9,-0.120907187,2.408566952,10.22084713,0.053425729,-0.027578866,0.038104136,14,36,-19,-24,44
1693677891896999600,1.021126986,-0.861912608,10.23042393,-0.061419602,-0.000133231,-0.008526799,-28,39,89,10,-9,-0.119710088,2.408566952,10.21486187,0.053425729,-0.027445635,0.038104136,20,40,-25,-21,54
1693677891897999600,1.018732786,-0.859518409,10.23042393,-0.061286367,0.0,-0.008526799,-10,45,80,8,-5,-0.120907187,2.409764051,10.21246719,0.053692192,-0.027312404,0.038104136,20,35,-17,-19,49
1693677891926977100,1.021126986,-0.85353291,10.22922707,-0.061686065,-0.000532925,-0.007860643,-27,41,87,8,-9,-0.106541976,2.41574955,10.22443867,0.053558957,-0.027179174,0.038104136,18,37,-23,-21,56
1693677891927977100,1.019929886,-0.851138711,10.22683239,-0.061686065,-0.000666156,-0.007993874,-27,41,88,6,-14,-0.110133275,2.41694665,10.22802925,0.053692192,-0.027312404,0.038104136,20,45,-16,-17,53
1693677891928977100,1.019929886,-0.851138711,10.22683239,-0.061552834,-0.000532925,-0.007860643,-44,45,85,10,-8,-0.113724582,2.418143749,10.22563553,0.053558957,-0.027179174,0.038237367,20,44,-19,-20,55
1693677891929977100,1.022324085,-0.85353291,10.23042393,-0.061686065,-0.000532925,-0.007860643,-21,37,88,10,-8,-0.114921682,2.418143749,10.22443867,0.053558957,-0.027312404,0.038370594,17,41,-20,-22,55
1693677891930977100,1.022324085,-0.85353291,10.22922707,-0.061686065,-0.000399694,-0.007993874,-31,45,84,7,-6,-0.118512981,2.41694665,10.22324085,0.053425729,-0.027179174,0.038237367,13,37,-24,-24,52
1693677891956963700,1.023521185,-0.85473001,10.23162079,-0.06115314,-0.000266462,-0.007860643,-26,37,85,4,-7,-0.108936176,2.41335535,10.22324085,0.053425729,-0.027045943,0.038104136,20,39,-17,-20,69
1693677891957963700,1.023521185,-0.85353291,10.23281765,-0.06115314,-0.000133231,-0.007993874,-32,34,85,8,-15,-0.110133275,2.41455245,10.22683239,0.053292494,-0.02691271,0.038237367,20,41,-21,-11,56
1693677891958963700,1.023521185,-0.852335811,10.23162079,-0.061286367,-0.000133231,-0.007993874,-22,45,83,10,-11,-0.112527482,2.41455245,10.23162079,0.053159267,-0.027045943,0.038370594,29,39,-21,-19,52
1693677891959963700,1.025915384,-0.849941611,10.22443867,-0.061286367,0.0,-0.008127105,-24,44,87,7,-8,-0.112527482,2.41455245,10.22922707,0.053026035,-0.027179174,0.038237367,20,33,-24,-21,53
1693677891960963700,1.023521185,-0.848744512,10.22802925,-0.061419602,0.0,-0.008127105,-20,38,87,15,-3,-0.111330383,2.41574955,10.22443867,0.053159267,-0.027312404,0.038104136,13,35,-25,-28,50
1693677891993765400,1.031900883,-0.860715508,10.25077438,-0.061019909,0.000266462,-0.007594181,-26,42,86,12,-9,-0.113724582,2.41574955,10.22683239,0.053159267,-0.027312404,0.038237367,19,46,-23,-23,54
1693677891994765400,1.035492182,-0.858321309,10.25197124,-0.06115314,0.000266462,-0.007594181,-28,43,88,11,-7,-0.117315881,2.41574955,10.22563553,0.053159267,-0.027179174,0.038370594,17,42,-20,-17,55
1693677891995765400,1.035492182,-0.85592711,10.25197124,-0.061286367,0.000133231,-0.007594181,-27,39,84,8,-7,-0.116118781,2.41694665,10.21845245,0.053159267,-0.027179174,0.038237367,20,31,-25,-30,54
1693677891996765400,1.035492182,-0.85592711,10.24957752,-0.061286367,0.0,-0.007594181,-26,45,85,8,-9,-0.116118781,2.419340849,10.21965027,0.053292494,-0.027179174,0.038104136,15,32,-23,-29,48
1693677891997765400,1.035492182,-0.859518409,10.24598598,-0.061286367,0.0,-0.007594181,-24,49,90,3,-8,-0.113724582,2.420537949,10.22204399,0.053159267,-0.027312404,0.037970904,15,35,-19,-26,53
1693677892065507700,1.028309584,-0.849941611,10.23760605,-0.061419602,-0.000399694,-0.007860643,-24,49,88,7,-7,-0.117315881,2.41335535,10.21486187,0.053292494,-0.027312404,0.037970904,19,33,-16,-19,55
1693677892066507700,1.028309584,-0.85353291,10.24239445,-0.061419602,-0.000266462,-0.007993874,-24,35,89,7,-11,-0.116118781,2.409764051,10.21127033,0.053292494,-0.027179174,0.037970904,20,46,-19,-30,54
1693677892067507700,1.027112484,-0.858321309,10.24598598,-0.061419602,-0.000266462,-0.007860643,-27,38,85,6,-13,-0.114921682,2.408566952,10.21246719,0.053292494,-0.02691271,0.037970904,20,44,-19,-22,35
1693677892068507700,1.025915384,-0.858321309,10.24239445,-0.061552834,-0.000399694,-0.007860643,-25,39,87,6,-12,-0.114921682,2.409764051,10.21246719,0.053292494,-0.02691271,0.038104136,17,36,-22,-28,50
1693677892069507700,1.022324085,-0.859518409,10.23640919,-0.061419602,-0.000532925,-0.007727412,-24,45,84,6,-7,-0.110133275,2.412158251,10.21845245,0.053292494,-0.027045943,0.038104136,13,41,-20,-23,54
1693677892111259500,1.015141487,-0.861912608,10.24000072,-0.061286367,-0.000399694,-0.007727412,-26,41,88,8,-9,-0.111330383,2.418143749,10.21246719,0.053692192,-0.027179174,0.038237367,17,31,-32,-21,55
1693677892112259500,1.013944387,-0.858321309,10.23640919,-0.061286367,-0.000399694,-0.007594181,-30,45,85,3,-9,-0.113724582,2.41694665,10.21366405,0.053425729,-0.027179174,0.038370594,18,32,-23,-20,55
1693677892113259500,1.013944387,-0.857124209,10.24000072,-0.06115314,-0.000399694,-0.007594181,-28,37,85,8,-13,-0.114921682,2.41455245,10.21725559,0.053558957,-0.027179174,0.038370594,15,30,-24,-28,39
1693677892114259500,1.012747288,-0.857124209,10.24119759,-0.06115314,-0.000532925,-0.007594181,-28,41,87,9,-8,-0.112527482,2.41335535,10.21845245,0.053692192,-0.027179174,0.038503829,13,44,-19,-23,55
1693677892115259500,1.015141487,-0.857124209,10.24359226,-0.06115314,-0.000399694,-0.007727412,-24,45,90,13,-7,-0.114921682,2.41335535,10.22443867,0.053692192,-0.027179174,0.038503829,9,36,-21,-23,53
1693677892182465500,1.027112484,-0.852335811,10.24239445,-0.06115314,-0.000133231,-0.008127105,-23,47,84,10,-7,-0.114921682,2.412158251,10.23880386,0.053558957,-0.027179174,0.037837673,15,30,-24,-20,52
1693677892183465500,1.025915384,-0.85353291,10.24119759,-0.06115314,-0.000266462,-0.008127105,-32,38,81,0,-11,-0.113724582,2.407369852,10.24119759,0.053292494,-0.027312404,0.037970904,20,36,-28,-23,53
1693677892184465500,1.027112484,-0.852335811,10.23880386,-0.06115314,-0.000133231,-0.007993874,-28,33,86,6,-15,-0.117315881,2.408566952,10.23760605,0.053159267,-0.027312404,0.037837673,18,41,-23,-22,52
1693677892185465500,1.027112484,-0.849941611,10.24119759,-0.061286367,-0.000133231,-0.008127105,-24,41,89,11,-13,-0.119710088,2.407369852,10.24119759,0.053292494,-0.027312404,0.037837673,22,43,-19,-22,51
1693677892186465500,1.027112484,-0.848744512,10.24000072,-0.061286367,-0.000266462,-0.008127105,-26,42,91,-2,-18,-0.119710088,2.410961151,10.24478912,0.053292494,-0.027445635,0.037704438,21,44,-21,-18,55
1693677892257289200,1.022324085,-0.847547412,10.23162079,-0.061286367,-0.000133231,-0.007993874,-28,37,85,3,-13,-0.123301387,2.41694665,10.24359226,0.053692192,-0.027179174,0.038237367,16,36,-17,-22,50
1693677892258289200,1.023521185,-0.848744512,10.23401546,-0.061286367,0.0,-0.008127105,-25,33,88,3,-11,-0.122104287,2.41574955,10.23640919,0.053692192,-0.027179174,0.038104136,21,33,-21,-19,53
1693677892259289200,1.025915384,-0.849941611,10.23401546,-0.061419602,-0.000133231,-0.007860643,-26,42,89,10,-8,-0.122104287,2.41694665,10.23880386,0.053692192,-0.027179174,0.037970904,15,41,-34,-22,48
1693677892260289200,1.024718285,-0.849941611,10.23281765,-0.061419602,-0.000133231,-0.007993874,-28,45,77,12,-5,-0.119710088,2.41694665,10.24359226,0.053558957,-0.02691271,0.037970904,20,41,-24,-19,55
1693677892261289200,1.024718285,-0.851138711,10.23401546,-0.061286367,-0.000266462,-0.007860643,-22,38,85,8,-9,-0.120907187,2.41574955,10.24478912,0.053692192,-0.02691271,0.037970904,18,41,-15,-22,52
1693677892362565700,1.024718285,-0.85473001,10.23401546,-0.061286367,-0.000799387,-0.007993874,-5,47,87,7,-17,-0.118512981,2.418143749,10.22563553,0.053692192,-0.027045943,0.038104136,17,36,-24,-20,46
1693677892363565700,1.022324085,-0.85473001,10.22922707,-0.061419602,-0.000666156,-0.008127105,-35,37,90,10,-12,-0.118512981,2.419340849,10.23162079,0.053692192,-0.027045943,0.038104136,22,44,-28,-25,52
1693677892364565700,1.027112484,-0.85473001,10.23640919,-0.061286367,-0.000666156,-0.008127105,-20,41,83,9,-11,-0.120907187,2.419340849,10.23760605,0.053558957,-0.027045943,0.037970904,11,35,-21,-18,54
1693677892365565700,1.029506683,-0.85353291,10.23880386,-0.06115314,-0.000666156,-0.008127105,-22,45,85,11,-7,-0.123301387,2.421735048,10.23401546,0.053558957,-0.02691271,0.037970904,20,36,-24,-18,54
1693677892366565700,1.029506683,-0.852335811,10.24119759,-0.061286367,-0.000799387,-0.008260337,-24,32,88,8,-11,-0.122104287,2.421735048,10.23042393,0.053692192,-0.02691271,0.037970904,19,41,-20,-24,49
1693677892417497500,1.023521185,-0.852335811,10.24359226,-0.061286367,-0.000666156,-0.007993874,-44,35,87,4,-9,-0.118512981,2.403778553,10.22683239,0.053692192,-0.026646247,0.037970904,12,46,-25,-22,55
1693677892418497500,1.023521185,-0.85353291,10.24119759,-0.061286367,-0.000666156,-0.007993874,-26,44,89,11,-5,-0.117315881,2.401384354,10.22443867,0.053692192,-0.026646247,0.038237367,14,41,-20,-18,56
1693677892419497500,1.022324085,-0.85353291,10.23640919,-0.06115314,-0.000666156,-0.007860643,-23,42,85,11,-7,-0.117315881,2.401384354,10.22204399,0.053825419,-0.026513018,0.038237367,20,43,-17,-15,55
1693677892420497500,1.023521185,-0.85473001,10.23281765,-0.061286367,-0.000666156,-0.007860643,-28,37,83,11,-9,-0.116118781,2.402581453,10.22563553,0.053692192,-0.026646247,0.038370594,17,36,-24,-24,55
1693677892421497500,1.025915384,-0.85473001,10.23162079,-0.061286367,-0.000799387,-0.007727412,-28,45,87,11,-11,-0.114921682,2.402581453,10.22802925,0.053692192,-0.026779478,0.038237367,17,37,-17,-22,51
1693677892466012900,1.028309584,-0.852335811,10.24000072,-0.061419602,-0.000666156,-0.007727412,-27,32,83,3,-1,-0.118512981,2.412158251,10.22683239,0.053692192,-0.027045943,0.037970904,16,37,-25,-23,52
1693677892467012900,1.028309584,-0.85353291,10.23880386,-0.061419602,-0.000532925,-0.007860643,-24,40,84,6,-8,-0.118512981,2.41335535,10.22802925,0.053825419,-0.027179174,0.037970904,20,50,-21,-16,56
1693677892468012900,1.028309584,-0.85473001,10.24478912,-0.061286367,-0.000532925,-0.007727412,-23,49,95,12,-9,-0.117315881,2.41335535,10.22922707,0.053825419,-0.027179174,0.037970904,17,38,-24,-22,53
1693677892469012900,1.028309584,-0.85592711,10.24478912,-0.061419602,-0.000399694,-0.007860643,-19,42,86,8,-12,-0.117315881,2.41455245,10.23042393,0.053825419,-0.027045943,0.037837673,19,35,-21,-22,52
1693677892470012900,1.027112484,-0.857124209,10.24478912,-0.061419602,-0.000666156,-0.007860643,-29,42,83,9,-9,-0.118512981,2.41335535,10.22922707,0.053692192,-0.027045943,0.037837673,13,32,-25,-23,45
1693677892563053300,1.030703783,-0.852335811,10.24957752,-0.061552834,-0.000532925,-0.007860643,-24,43,90,10,-9,-0.112527482,2.41335535,10.23281765,0.053558957,-0.027179174,0.037704438,16,36,-18,-20,87
1693677892564053300,1.030703783,-0.851138711,10.24957752,-0.061552834,-0.000399694,-0.007860643,-28,37,87,7,-11,-0.107739076,2.41574955,10.23640919,0.053692192,-0.027179174,0.03757121,20,45,-21,-19,54
1693677892565053300,1.027112484,-0.849941611,10.24838066,-0.061552834,-0.000399694,-0.007860643,-24,42,84,10,-8,-0.107739076,2.41574955,10.23521233,0.053558957,-0.027045943,0.03757121,18,33,-20,-23,54
1693677892566053300,1.024718285,-0.846350312,10.24957752,-0.061552834,-0.000399694,-0.007860643,-26,43,85,12,-12,-0.108936176,2.418143749,10.23281765,0.053558957,-0.027045943,0.03757121,20,44,-18,-23,52
1693677892567053300,1.025915384,-0.846350312,10.24598598,-0.061686065,-0.000532925,-0.007860643,-24,38,84,10,-15,-0.110133275,2.41574955,10.23521233,0.053692192,-0.02691271,0.037437979,14,36,-21,-19,53
1693677892608668900,1.021126986,-0.85353291,10.23760605,-0.061419602,-0.000532925,-0.008127105,-27,46,88,12,-14,-0.10295067,2.422932148,10.23162079,0.053825419,-0.026646247,0.03757121,26,49,-19,-20,54
1693677892609668900,1.021126986,-0.85473001,10.24239445,-0.061286367,-0.000666156,-0.008127105,-24,49,86,12,-2,-0.106541976,2.424129248,10.22802925,0.053958651,-0.026779478,0.037704438,9,40,-29,-24,53
1693677892610668900,1.023521185,-0.851138711,10.24119759,-0.06115314,-0.000532925,-0.007993874,-31,49,85,4,-11,-0.106541976,2.424129248,10.22443867,0.053958651,-0.026779478,0.03757121,17,39,-18,-24,54
1693677892611668900,1.025915384,-0.851138711,10.24239445,-0.06115314,-0.000532925,-0.008127105,-24,39,85,9,-9,-0.107739076,2.421735048,10.22683239,0.053825419,-0.026779478,0.037704438,15,36,-24,-20,52
1693677892612668900,1.024718285,-0.848744512,10.24119759,-0.061019909,-0.000399694,-0.008260337,-28,42,87,6,-14,-0.107739076,2.421735048,10.23281765,0.053825419,-0.026779478,0.037704438,21,38,-25,-19,55
1693677892674531500,1.023521185,-0.85592711,10.24239445,-0.061419602,-0.000399694,-0.007860643,-23,47,88,11,-5,-0.10295067,2.418143749,10.21366405,0.053692192,-0.027578866,0.037970904,17,35,-19,-20,53
1693677892675531500,1.022324085,-0.857124209,10.24478912,-0.061286367,-0.000266462,-0.007860643,-24,41,90,28,-7,-0.105344877,2.419340849,10.21605873,0.053825419,-0.027712099,0.038104136,10,33,-30,-22,56
1693677892676531500,1.025915384,-0.85473001,10.23880386,-0.061286367,-0.000266462,-0.007993874,-30,43,83,8,-13,-0.108936176,2.421735048,10.21486187,0.053825419,-0.027578866,0.038237367,18,35,-21,-23,50
1693677892677531500,1.029506683,-0.85592711,10.24000072,-0.06115314,-0.000399694,-0.008127105,-27,46,87,1,-5,-0.107739076,2.420537949,10.21725559,0.053825419,-0.027712099,0.038370594,17,43,-23,-24,55
1693677892678531500,1.029506683,-0.85592711,10.23880386,-0.061286367,-0.000399694,-0.008127105,-23,49,89,7,-9,-0.108936176,2.419340849,10.21725559,0.053825419,-0.027578866,0.038237367,20,39,-24,-20,53
1693677892735543900,1.024718285,-0.863109708,10.24000072,-0.061419602,-0.000666156,-0.008660031,-19,47,90,12,-11,-0.108936176,2.41574955,10.22802925,0.053425729,-0.027179174,0.038370594,13,43,-29,-29,55
1693677892736543900,1.022324085,-0.860715508,10.23760605,-0.061419602,-0.000666156,-0.008526799,-23,43,86,18,-7,-0.108936176,2.41694665,10.22683239,0.053425729,-0.027045943,0.038503829,17,39,-24,-30,48
1693677892737543900,1.021126986,-0.858321309,10.23760605,-0.061552834,-0.000799387,-0.008393568,-23,43,87,2,-12,-0.106541976,2.419340849,10.22802925,0.053292494,-0.02691271,0.038503829,11,45,-25,-26,52
1693677892738543900,1.023521185,-0.85592711,10.23401546,-0.061552834,-0.000799387,-0.008393568,-28,42,82,13,-15,-0.105344877,2.418143749,10.23042393,0.053292494,-0.027045943,0.038237367,20,36,-19,-22,52
1693677892739543900,1.021126986,-0.85353291,10.23401546,-0.061552834,-0.000666156,-0.008393568,-27,45,89,-6,-12,-0.10295067,2.418143749,10.23042393,0.053425729,-0.027045943,0.038370594,20,36,-19,-19,55
1693677892799259200,1.021126986,-0.851138711,10.22324085,-0.061286367,-0.000532925,-0.007727412,-20,51,90,11,-7,-0.116118781,2.420537949,10.23042393,0.053425729,-0.027578866,0.038370594,17,40,-23,-20,55
1693677892800259200,1.022324085,-0.851138711,10.22084713,-0.06115314,-0.000532925,-0.007460949,-22,45,85,11,-8,-0.118512981,2.422932148,10.22922707,0.053292494,-0.027445635,0.038237367,13,31,-28,-26,50
1693677892801259200,1.021126986,-0.85353291,10.22084713,-0.061286367,-0.000666156,-0.007594181,-20,38,85,10,-9,-0.116118781,2.420537949,10.22922707,0.053425729,-0.027712099,0.038104136,14,47,-20,-22,49
1693677892802259200,1.022324085,-0.85353291,10.22084713,-0.061286367,-0.000532925,-0.007594181,-22,43,79,4,-8,-0.116118781,2.41574955,10.23162079,0.053292494,-0.027578866,0.038104136,11,42,-23,-20,52
1693677892803259200,1.021126986,-0.85353291,10.22324085,-0.061286367,-0.000532925,-0.007727412,-20,47,81,8,-5,-0.114921682,2.41694665,10.23401546,0.053425729,-0.027445635,0.038104136,22,39,-17,-24,54
1693677892864513600,1.024718285,-0.852335811,10.23880386,-0.061286367,-0.000266462,-0.007727412,-24,43,89,7,-8,-0.112527482,2.410961151,10.21845245,0.053692192,-0.027312404,0.038104136,17,33,-23,-24,49
1693677892865513600,1.025915384,-0.85473001,10.23760605,-0.061286367,-0.000266462,-0.007727412,-28,43,87,10,-9,-0.108936176,2.410961151,10.22443867,0.053825419,-0.027445635,0.037970904,18,47,-21,-20,52
1693677892866513600,1.025915384,-0.85353291,10.23880386,-0.061286367,-0.000133231,-0.007993874,-27,32,80,6,-9,-0.112527482,2.412158251,10.22563553,0.053958651,-0.027578866,0.038104136,14,37,-23,-35,53
1693677892867513600,1.023521185,-0.852335811,10.24359226,-0.061286367,-0.000133231,-0.008127105,-23,34,79,10,-7,-0.112527482,2.41335535,10.22683239,0.054091886,-0.027312404,0.038104136,17,46,-18,-19,53
1693677892868513600,1.024718285,-0.85353291,10.24119759,-0.061286367,0.0,-0.008393568,-26,42,92,8,-9,-0.111330383,2.41455245,10.23401546,0.054225113,-0.027312404,0.037970904,15,30,-28,-20,51
1693677892956519600,1.016338587,-0.852335811,10.23521233,-0.06115314,-0.000399694,-0.007860643,-37,80,99,10,-9,-0.114921682,2.409764051,10.21366405,0.053425729,-0.027179174,0.038237367,29,46,-23,-22,54
1693677892957519600,1.018732786,-0.85353291,10.23760605,-0.061286367,-0.000399694,-0.007727412,-28,39,84,6,-5,-0.112527482,2.409764051,10.21605873,0.053425729,-0.027179174,0.038370594,18,41,-24,-16,55
1693677892958519600,1.021126986,-0.85353291,10.24239445,-0.061419602,-0.000266462,-0.007727412,-30,41,89,9,-12,-0.112527482,2.41694665,10.22204399,0.053558957,-0.027445635,0.038503829,23,43,-33,-19,53
1693677892959519600,1.025915384,-0.85473001,10.24119759,-0.061419602,-0.000399694,-0.007594181,-24,41,89,8,-8,-0.114921682,2.419340849,10.22204399,0.053558957,-0.027312404,0.038370594,20,39,-18,-18,55
1693677892960519600,1.027112484,-0.85473001,10.23401546,-0.061552834,-0.000266462,-0.007727412,-23,53,90,7,-5,-0.116118781,2.419340849,10.22204399,0.053558957,-0.027445635,0.038370594,19,36,-20,-20,55
1693677893009157700,1.022324085,-0.859518409,10.23401546,-0.061286367,-0.000532925,-0.008260337,-24,63,87,16,-9,-0.117315881,2.421735048,10.22563553,0.053292494,-0.02691271,0.038104136,15,39,-25,-18,54
1693677893010157700,1.025915384,-0.85353291,10.23281765,-0.06115314,-0.000532925,-0.008393568,-28,46,86,9,-8,-0.117315881,2.421735048,10.22922707,0.053425729,-0.02691271,0.037970904,17,47,-24,-19,96
1693677893011157700,1.027112484,-0.852335811,10.24000072,-0.06115314,-0.000532925,-0.008260337,-28,47,87,11,-11,-0.114921682,2.422932148,10.22922707,0.053425729,-0.027179174,0.038104136,20,35,-21,-24,52
1693677893012157700,1.025915384,-0.85592711,10.24239445,-0.061286367,-0.000532925,-0.008393568,-26,38,86,10,-7,-0.112527482,2.422932148,10.23281765,0.053425729,-0.027179174,0.037970904,18,44,-27,-19,53
1693677893013157700,1.025915384,-0.857124209,10.24119759,-0.06115314,-0.000399694,-0.008260337,-25,44,90,8,-12,-0.112527482,2.421735048,10.23521233,0.053159267,-0.027179174,0.038104136,13,36,-27,-28,48
1693677893076946200,1.019929886,-0.85473001,10.23760605,-0.061552834,-0.000266462,-0.008660031,-28,45,89,12,-12,-0.119710088,2.419340849,10.22683239,0.053159267,-0.027179174,0.038237367,18,37,-22,-26,55
1693677893077946200,1.019929886,-0.85473001,10.23401546,-0.061419602,-0.000266462,-0.008660031,-30,45,85,10,-9,-0.117315881,2.421735048,10.22563553,0.053159267,-0.027179174,0.038237367,20,41,-22,-22,52
1693677893078946200,1.018732786,-0.852335811,10.23281765,-0.061419602,-0.000133231,-0.008660031,-23,41,83,9,-12,-0.117315881,2.421735048,10.22563553,0.053026035,-0.027179174,0.038370594,20,38,-19,-22,53
1693677893079946200,1.018732786,-0.852335811,10.23162079,-0.061419602,0.0,-0.008526799,-19,38,88,10,-6,-0.116118781,2.424129248,10.22922707,0.053026035,-0.027179174,0.038104136,19,32,-27,-29,53
1693677893080946200,1.023521185,-0.851138711,10.23162079,-0.061419602,0.0,-0.008526799,-26,37,87,13,-6,-0.117315881,2.422932148,10.22683239,0.053159267,-0.027179174,0.038104136,16,39,-15,-19,50
1693677893145307100,1.021126986,-0.861912608,10.23521233,-0.061552834,0.000133231,-0.007993874,-22,44,84,11,-8,-0.110133275,2.418143749,10.23162079,0.053425729,-0.027179174,0.037970904,17,40,-20,-20,53
1693677893146307100,1.023521185,-0.859518409,10.23281765,-0.061686065,0.000133231,-0.007993874,-22,42,89,10,-11,-0.112527482,2.41574955,10.23162079,0.053292494,-0.027045943,0.037970904,25,37,-21,-20,55
1693677893147307100,1.022324085,-0.857124209,10.22922707,-0.061686065,0.000133231,-0.007993874,-38,45,86,9,-11,-0.110133275,2.41335535,10.23042393,0.053425729,-0.02691271,0.037837673,20,35,-20,-22,53
1693677893148307100,1.024718285,-0.85592711,10.22922707,-0.061552834,0.000133231,-0.007993874,-22,41,90,12,-8,-0.106541976,2.412158251,10.23281765,0.053425729,-0.027045943,0.037837673,14,41,-17,-15,49
1693677893149307100,1.025915384,-0.85592711,10.23401546,-0.061552834,0.000133231,-0.007993874,-28,41,90,9,-9,-0.108936176,2.41335535,10.23281765,0.053558957,-0.027179174,0.037837673,15,42,-18,-18,52
1693677893218057400,1.024718285,-0.849941611,10.24478912,-0.061419602,-0.000266462,-0.007993874,-24,39,87,13,-14,-0.106541976,2.406172752,10.23401546,0.053026035,-0.026646247,0.037704438,19,40,-21,-24,53
1693677893219057400,1.023521185,-0.852335811,10.24598598,-0.061419602,-0.000266462,-0.008127105,-27,35,74,7,-8,-0.110133275,2.406172752,10.23281765,0.053159267,-0.026779478,0.037970904,17,40,-20,-21,50
1693677893220057400,1.022324085,-0.85353291,10.24957752,-0.061419602,-0.000399694,-0.008127105,-24,45,90,13,-13,-0.110133275,2.406172752,10.23521233,0.053159267,-0.02691271,0.037970904,6,41,-25,-15,48
1693677893221057400,1.024718285,-0.85473001,10.24957752,-0.061419602,-0.000399694,-0.008260337,-22,45,90,13,-7,-0.110133275,2.404975653,10.23281765,0.053159267,-0.027045943,0.037970904,10,32,-17,-21,55
1693677893222057400,1.025915384,-0.85473001,10.24598598,-0.061419602,-0.000399694,-0.008127105,-18,46,90,11,-7,-0.108936176,2.404975653,10.22922707,0.053159267,-0.027179174,0.038104136,20,41,-24,-20,55
1693677893284101900,1.024718285,-0.848744512,10.23880386,-0.061552834,-0.000399694,-0.007860643,-28,42,84,7,-8,-0.106541976,2.419340849,10.22683239,0.053425729,-0.027179174,0.038503829,9,39,-21,-22,54
1693677893285101900,1.023521185,-0.851138711,10.24119759,-0.061552834,-0.000399694,-0.007860643,-18,46,87,10,-11,-0.107739076,2.419340849,10.22802925,0.053292494,-0.027445635,0.038770292,6,37,-22,-20,52
1693677893286101900,1.023521185,-0.851138711,10.23760605,-0.061419602,-0.000266462,-0.007993874,-22,43,85,10,-7,-0.106541976,2.418143749,10.22802925,0.053425729,-0.027578866,0.038637057,14,31,-25,-24,52
1693677893287101900,1.021126986,-0.85473001,10.23880386,-0.06115314,-0.000266462,-0.007993874,-28,46,89,9,-6,-0.108936176,2.419340849,10.23042393,0.053558957,-0.027312404,0.038637057,17,43,-24,-20,55
1693677893288101900,1.022324085,-0.858321309,10.24239445,-0.06115314,-0.000266462,-0.007860643,-19,39,89,14,-9,-0.111330383,2.41694665,10.22683239,0.053692192,-0.027445635,0.038770292,21,45,-24,-24,55
1693677893347600300,1.021126986,-0.85473001,10.24000072,-0.061286367,-0.000133231,-0.007860643,-24,42,87,6,-13,-0.111330383,2.41335535,10.21725559,0.053558957,-0.026646247,0.037837673,13,33,-16,-20,52
1693677893348600300,1.023521185,-0.85353291,10.23880386,-0.061286367,-0.000266462,-0.007860643,-21,38,87,8,-11,-0.111330383,2.409764051,10.21845245,0.053558957,-0.026646247,0.037970904,20,39,-23,-16,46
1693677893349600300,1.022324085,-0.848744512,10.23760605,-0.061419602,-0.000266462,-0.007993874,-19,49,83,7,-11,-0.111330383,2.407369852,10.21725559,0.053825419,-0.026646247,0.037837673,17,35,-23,-18,53
1693677893350600300,1.024718285,-0.851138711,10.23880386,-0.061286367,-0.000133231,-0.007993874,-22,44,86,15,-9,-0.111330383,2.407369852,10.22084713,0.053425729,-0.026779478,0.037704438,18,40,-19,-22,55
1693677893351600300,1.027112484,-0.849941611,10.24359226,-0.061286367,-0.000266462,-0.007993874,-8,50,90,4,-11,-0.110133275,2.404975653,10.22802925,0.053558957,-0.026779478,0.037704438,21,41,-27,-18,50
1693677893419401200,1.013944387,-0.85473001,10.23880386,-0.061019909,-0.000133231,-0.007993874,-27,35,83,10,-12,-0.120907187,2.41455245,10.22443867,0.053292494,-0.026646247,0.037970904,14,33,-28,-26,51
1693677893420401200,1.013944387,-0.85473001,10.24239445,-0.061019909,-0.000266462,-0.008127105,-27,34,87,13,-10,-0.117315881,2.412158251,10.22324085,0.053159267,-0.026646247,0.037970904,15,41,-17,-19,53
1693677893421401200,1.011550188,-0.852335811,10.24239445,-0.061019909,-0.000399694,-0.007993874,-21,37,89,11,-14,-0.116118781,2.41335535,10.22324085,0.053026035,-0.026513018,0.037837673,20,45,-20,-23,56
1693677893422401200,1.010353088,-0.849941611,10.24239445,-0.061019909,-0.000399694,-0.007993874,-21,47,87,9,-8,-0.114921682,2.412158251,10.22084713,0.053026035,-0.026246555,0.037837673,17,46,-27,-18,52
1693677893423401200,1.012747288,-0.847547412,10.23640919,-0.06115314,-0.000399694,-0.007993874,-28,38,85,10,-9,-0.112527482,2.412158251,10.22324085,0.0528928,-0.026646247,0.037704438,15,48,-24,-27,53
1693677893483528500,1.029506683,-0.857124209,10.26035118,-0.06115314,-0.000133231,-0.008526799,-22,47,87,3,-11,-0.111330383,2.41574955,10.23760605,0.053958651,-0.027445635,0.038104136,16,35,-21,-23,54
1693677893484528500,1.029506683,-0.857124209,10.25795746,-0.06115314,-0.000133231,-0.008393568,-29,42,84,7,-11,-0.111330383,2.41455245,10.23521233,0.053958651,-0.027578866,0.038237367,21,37,-21,-16,54
1693677893485528500,1.028309584,-0.858321309,10.25915432,-0.061019909,-0.000133231,-0.008260337,-28,42,85,8,-9,-0.108936176,2.41455245,10.23521233,0.053825419,-0.027578866,0.038104136,20,43,-16,-12,53
1693677893486528500,1.025915384,-0.863109708,10.25675964,-0.061019909,-0.000266462,-0.008260337,-28,43,85,2,-2,-0.112527482,2.41574955,10.23521233,0.053958651,-0.027578866,0.038104136,20,43,-19,-29,55
1693677893487528500,1.025915384,-0.865503907,10.25197124,-0.06115314,-0.000399694,-0.008260337,-31,43,87,9,-13,-0.108936176,2.41335535,10.23521233,0.053825419,-0.027578866,0.038104136,18,32,-23,-24,44
1693677893553524200,1.028309584,-0.85592711,10.24718285,-0.061686065,-0.000399694,-0.008393568,-24,39,85,10,-9,-0.117315881,2.408566952,10.23521233,0.053958651,-0.027712099,0.037970904,20,43,-21,-18,54
1693677893554524200,1.029506683,-0.85353291,10.24359226,-0.061686065,-0.000266462,-0.008393568,-22,39,85,12,-11,-0.118512981,2.408566952,10.23281765,0.053958651,-0.027712099,0.037837673,19,43,-18,-22,55
1693677893555524200,1.029506683,-0.851138711,10.24359226,-0.061419602,-0.000266462,-0.008393568,-22,43,90,6,-5,-0.118512981,2.406172752,10.23162079,0.053958651,-0.027578866,0.037837673,17,36,-13,-20,52
1693677893556524200,1.030703783,-0.849941611,10.24239445,-0.061419602,-0.000266462,-0.008260337,-24,41,86,7,-12,-0.118512981,2.407369852,10.23162079,0.053825419,-0.027445635,0.037837673,20,36,-17,-22,53
1693677893557524200,1.029506683,-0.848744512,10.24000072,-0.061286367,-0.000399694,-0.008260337,-22,45,89,10,-6,-0.117315881,2.412158251,10.23401546,0.053558957,-0.027312404,0.037970904,10,44,-24,-20,50
1693677893622492900,1.028309584,-0.85473001,10.25077438,-0.061552834,-0.000799387,-0.007993874,-20,43,88,12,-8,-0.120907187,2.407369852,10.23880386,0.053558957,-0.027712099,0.038237367,18,36,-16,-16,54
1693677893623492900,1.028309584,-0.857124209,10.24957752,-0.061419602,-0.000932619,-0.007860643,-24,41,90,13,-7,-0.120907187,2.406172752,10.24119759,0.053558957,-0.027712099,0.038237367,19,44,-27,-19,56
1693677893624492900,1.029506683,-0.85473001,10.24957752,-0.061552834,-0.000932619,-0.007860643,-22,44,90,11,-8,-0.120907187,2.407369852,10.24478912,0.053692192,-0.027712099,0.038104136,20,33,-24,-21,55
1693677893625492900,1.029506683,-0.857124209,10.25197124,-0.061419602,-0.000799387,-0.007993874,-24,41,84,12,-9,-0.122104287,2.407369852,10.24119759,0.053692192,-0.027712099,0.038237367,15,33,-19,-24,54
1693677893626492900,1.028309584,-0.861912608,10.25077438,-0.061552834,-0.000666156,-0.008127105,-32,39,85,8,-12,-0.122104287,2.404975653,10.23401546,0.053825419,-0.027845331,0.038104136,17,32,-23,-22,54
1693677893748790600,1.018732786,-0.85353291,10.23880386,-0.061286367,0.0,-0.007727412,-24,41,83,9,-8,-0.117315881,2.418143749,10.23880386,0.053425729,-0.027312404,0.037970904,22,39,-20,-22,55
1693677893749790600,1.021126986,-0.85353291,10.23880386,-0.06115314,-0.000266462,-0.007727412,-1,70,98,29,9,-0.116118781,2.41694665,10.23521233,0.053425729,-0.027179174,0.038104136,20,37,-25,-22,49
1693677893750790600,1.022324085,-0.85473001,10.23521233,-0.06115314,-0.000266462,-0.007727412,-7,56,101,26,5,-0.114921682,2.41574955,10.23162079,0.053558957,-0.027179174,0.038104136,18,37,-33,-24,48
1693677893751790600,1.023521185,-0.852335811,10.23521233,-0.06115314,-0.000266462,-0.007860643,-24,42,84,6,-8,-0.114921682,2.41574955,10.23521233,0.053425729,-0.027312404,0.038104136,13,43,-20,-22,50
1693677893752790600,1.023521185,-0.849941611,10.23162079,-0.06115314,-0.000133231,-0.007860643,-28,37,83,7,-17,-0.112527482,2.418143749,10.23760605,0.053825419,-0.027179174,0.038237367,20,36,-27,-19,52
1693677893781772400,1.034295082,-0.85353291,10.23042393,-0.06115314,-0.000532925,-0.007727412,-23,42,85,11,-6,-0.120907187,2.419340849,10.23521233,0.053558957,-0.027045943,0.037837673,17,40,-21,-18,55
1693677893782772400,1.034295082,-0.85473001,10.22683239,-0.061286367,-0.000399694,-0.007860643,-19,44,77,13,-8,-0.120907187,2.420537949,10.23880386,0.053558957,-0.02691271,0.037704438,5,36,-21,-28,48
1693677893783772400,1.037886381,-0.85592711,10.22683239,-0.061286367,-0.000399694,-0.007860643,-28,43,85,7,-12,-0.118512981,2.419340849,10.23640919,0.053825419,-0.027045943,0.037704438,15,37,-23,-18,54
1693677893784772400,1.036689281,-0.85473001,10.22802925,-0.06115314,-0.000399694,-0.007860643,-18,37,87,7,-13,-0.119710088,2.41694665,10.23640919,0.053692192,-0.02691271,0.037837673,18,33,-24,-22,55
1693677893785772400,1.034295082,-0.857124209,10.22443867,-0.06115314,-0.000399694,-0.007860643,-28,37,84,9,-12,-0.118512981,2.41335535,10.23401546,0.053558957,-0.02691271,0.037837673,20,36,-23,-27,55
1693677893814752200,1.033097982,-0.865503907,10.24478912,-0.061419602,-0.000532925,-0.008127105,-28,37,83,10,-13,-0.119710088,2.41455245,10.22324085,0.053692192,-0.026779478,0.038237367,10,30,-22,-27,54
1693677893815752200,1.034295082,-0.863109708,10.24718285,-0.061552834,-0.000532925,-0.008127105,-24,49,89,2,-9,-0.118512981,2.410961151,10.22443867,0.053692192,-0.02691271,0.038370594,17,41,-24,-22,52
1693677893816752200,1.035492182,-0.861912608,10.24239445,-0.061552834,-0.000399694,-0.008127105,-28,40,85,6,-13,-0.118512981,2.409764051,10.22922707,0.053692192,-0.026779478,0.038370594,20,39,-19,-23,53
1693677893817752200,1.030703783,-0.863109708,10.24718285,-0.061686065,-0.000399694,-0.007993874,-24,38,81,8,-9,-0.123301387,2.412158251,10.22683239,0.053692192,-0.026779478,0.038503829,20,32,-26,-24,54
1693677893818752200,1.031900883,-0.859518409,10.24838066,-0.061686065,-0.000532925,-0.007993874,-26,45,83,8,-12,-0.122104287,2.408566952,10.22324085,0.053558957,-0.02691271,0.038237367,20,43,-24,-22,55
1693677893882628300,1.016338587,-0.85473001,10.25795746,-0.061286367,-0.000266462,-0.007727412,-18,51,89,8,-3,-0.114921682,2.409764051,10.23162079,0.053159267,-0.027179174,0.037970904,19,35,-24,-27,46
1693677893883628300,1.018732786,-0.857124209,10.25795746,-0.06115314,-0.000399694,-0.007727412,-18,45,90,13,-8,-0.113724582,2.407369852,10.23281765,0.053292494,-0.027045943,0.037970904,17,37,-20,-24,55
1693677893884628300,1.017535686,-0.860715508,10.25915432,-0.061286367,-0.000532925,-0.007727412,-27,41,81,3,-11,-0.113724582,2.406172752,10.23042393,0.053292494,-0.027179174,0.037970904,20,37,-19,-20,56
1693677893885628300,1.018732786,-0.859518409,10.25795746,-0.06115314,-0.000399694,-0.007727412,-26,36,86,10,-17,-0.114921682,2.410961151,10.22922707,0.053292494,-0.027312404,0.037970904,19,43,-17,-20,55
1693677893886628300,1.019929886,-0.858321309,10.25675964,-0.061286367,-0.000266462,-0.007594181,-24,44,89,11,-18,-0.114921682,2.410961151,10.22443867,0.053159267,-0.027179174,0.038104136,19,36,-28,-22,52
1693677893967528400,1.028309584,-0.858321309,10.24957752,-0.06115314,-0.000666156,-0.007860643,-30,47,89,6,-12,-0.113724582,2.421735048,10.22204399,0.053692192,-0.026779478,0.037970904,19,36,-20,-24,55
1693677893968528400,1.027112484,-0.857124209,10.25436592,-0.06115314,-0.000666156,-0.008127105,-27,43,84,9,-12,-0.111330383,2.420537949,10.21965027,0.053692192,-0.026646247,0.037970904,13,33,-20,-34,55
1693677893969528400,1.028309584,-0.859518409,10.25316906,-0.06115314,-0.000666156,-0.007993874,-19,39,86,3,-9,-0.111330383,2.418143749,10.22204399,0.053558957,-0.02691271,0.037970904,25,36,-17,-23,55
1693677893970528400,1.027112484,-0.857124209,10.25077438,-0.061019909,-0.000666156,-0.007860643,-28,39,80,2,-13,-0.110133275,2.418143749,10.22084713,0.053425729,-0.02691271,0.038104136,18,40,-17,-28,55
1693677893971528400,1.024718285,-0.85592711,10.25077438,-0.061019909,-0.000666156,-0.007727412,-26,37,90,4,-11,-0.111330383,2.41694665,10.21965027,0.053425729,-0.02691271,0.037970904,17,39,-23,-24,55
1693677894024554800,1.015141487,-0.861912608,10.22802925,-0.06115314,0.000133231,-0.008127105,-24,39,84,10,-9,-0.106541976,2.408566952,10.22922707,0.053825419,-0.027179174,0.038503829,15,32,-23,-24,55
1693677894025554800,1.018732786,-0.85592711,10.22443867,-0.061286367,0.000266462,-0.007993874,-22,33,83,3,-9,-0.108936176,2.410961151,10.23042393,0.053958651,-0.027179174,0.038637057,21,41,-20,-24,55
1693677894026554800,1.017535686,-0.857124209,10.23042393,-0.061286367,0.000133231,-0.007993874,-24,41,79,2,-20,-0.110133275,2.412158251,10.23521233,0.053825419,-0.027312404,0.038370594,17,37,-18,-19,53
1693677894027554800,1.019929886,-0.85592711,10.23042393,-0.061419602,0.000133231,-0.007993874,-46,42,85,10,-5,-0.111330383,2.410961151,10.23401546,0.053692192,-0.027312404,0.038637057,14,33,-25,-20,53
1693677894028554800,1.018732786,-0.857124209,10.23281765,-0.061419602,0.0,-0.007860643,-24,39,88,13,-11,-0.112527482,2.409764051,10.23401546,0.053692192,-0.027312404,0.038503829,20,40,-20,-26,51
1693677894098364100,1.017535686,-0.857124209,10.22084713,-0.061419602,-0.000133231,-0.007993874,-20,41,81,7,-7,-0.119710088,2.408566952,10.23281765,0.053292494,-0.02691271,0.038104136,17,36,-30,-18,53
1693677894099364100,1.016338587,-0.859518409,10.22324085,-0.061419602,0.0,-0.008127105,-24,41,78,9,-11,-0.118512981,2.407369852,10.23042393,0.053159267,-0.02691271,0.038237367,20,41,-17,-21,55
1693677894100364100,1.016338587,-0.860715508,10.22443867,-0.061419602,0.0,-0.008127105,-22,32,80,7,-15,-0.114921682,2.409764051,10.23281765,0.053292494,-0.02691271,0.038237367,15,37,-18,-28,49
1693677894101364100,1.015141487,-0.863109708,10.23162079,-0.061286367,0.0,-0.007993874,-26,42,85,12,-10,-0.113724582,2.410961151,10.23401546,0.053292494,-0.027179174,0.038503829,25,37,-24,-23,56
1693677894102364100,1.015141487,-0.861912608,10.23281765,-0.061286367,0.0,-0.007860643,-23,39,87,10,-6,-0.113724582,2.410961151,10.23521233,0.053292494,-0.027312404,0.038370594,18,39,-24,-22,52
1693677894148859000,1.029506683,-0.849941611,10.24359226,-0.061019909,-0.000399694,-0.008127105,-24,51,81,7,-16,-0.110133275,2.406172752,10.23162079,0.053292494,-0.027445635,0.038237367,23,46,-21,-18,55
1693677894149859000,1.029506683,-0.851138711,10.24957752,-0.06115314,-0.000399694,-0.007993874,-23,38,87,6,-7,-0.113724582,2.407369852,10.22683239,0.053292494,-0.027445635,0.038237367,20,41,-23,-23,53
1693677894150859000,1.030703783,-0.85473001,10.24957752,-0.06115314,-0.000532925,-0.007860643,-31,38,80,6,-9,-0.111330383,2.407369852,10.23042393,0.053292494,-0.027445635,0.038104136,14,40,-23,-18,54
1693677894151859000,1.030703783,-0.858321309,10.25077438,-0.061019909,-0.000532925,-0.007860643,-32,34,79,-1,-13,-0.113724582,2.408566952,10.22683239,0.053292494,-0.027445635,0.038104136,15,30,-26,-23,48
1693677894152859000,1.029506683,-0.861912608,10.24718285,-0.060886677,-0.000532925,-0.007993874,-33,38,78,0,-16,-0.117315881,2.409764051,10.22683239,0.053292494,-0.027445635,0.038104136,21,36,-19,-24,53
1693677894308446600,1.028309584,-0.861912608,10.25077438,-0.061019909,-0.000133231,-0.008127105,-30,41,80,7,-9,-0.114921682,2.412158251,10.21366405,0.053425729,-0.027578866,0.038370594,20,35,-26,-22,51
1693677894309446600,1.027112484,-0.859518409,10.25077438,-0.06115314,0.0,-0.008127105,-31,38,81,3,-13,-0.114921682,2.41335535,10.21965027,0.053159267,-0.027312404,0.038370594,18,43,-21,-20,49
1693677894310446600,1.028309584,-0.861912608,10.25197124,-0.06115314,0.000133231,-0.007993874,-32,35,81,2,-15,-0.112527482,2.412158251,10.22084713,0.053425729,-0.027179174,0.038237367,18,40,-23,-26,54
1693677894311446600,1.024718285,-0.860715508,10.24718285,-0.06115314,0.0,-0.007993874,-28,35,87,2,-2,-0.111330383,2.409764051,10.22084713,0.053292494,-0.027179174,0.038104136,14,42,-23,-28,54
1693677894312446600,1.023521185,-0.859518409,10.24359226,-0.06115314,0.0,-0.007993874,-24,38,79,1,-11,-0.111330383,2.409764051,10.22324085,0.053292494,-0.027045943,0.038237367,20,41,-22,-22,55
1693677894343427800,1.033097982,-0.857124209,10.24119759,-0.061419602,-0.000266462,-0.008260337,-29,46,91,6,-9,-0.117315881,2.41335535,10.23042393,0.053425729,-0.027312404,0.038237367,24,33,-21,-22,53
1693677894344427800,1.028309584,-0.85353291,10.23880386,-0.061286367,-0.000266462,-0.008260337,-27,35,87,3,-15,-0.117315881,2.41574955,10.22683239,0.053292494,-0.027179174,0.038237367,15,44,-22,-29,42
1693677894345427800,1.025915384,-0.852335811,10.24119759,-0.06115314,-0.000266462,-0.008260337,-28,43,83,7,-15,-0.114921682,2.41455245,10.22683239,0.053425729,-0.027045943,0.038237367,15,37,-19,-22,46
1693677894346427800,1.025915384,-0.851138711,10.24000072,-0.06115314,-0.000133231,-0.008260337,-28,41,79,6,-18,-0.116118781,2.41455245,10.22563553,0.053425729,-0.02691271,0.038237367,20,44,-17,-22,55
1693677894347427800,1.027112484,-0.852335811,10.23640919,-0.061286367,-0.000133231,-0.008260337,-24,42,80,4,-17,-0.116118781,2.41335535,10.23042393,0.053425729,-0.026779478,0.038370594,15,43,-18,-22,55
1693677894377406800,1.025915384,-0.859518409,10.22683239,-0.061019909,-0.000133231,-0.008127105,-22,35,81,6,-7,-0.111330383,2.409764051,10.22084713,0.053825419,-0.026779478,0.037970904,19,43,-22,-24,48
1693677894378406800,1.022324085,-0.860715508,10.22563553,-0.06115314,0.0,-0.008260337,-21,42,82,6,-12,-0.111330383,2.406172752,10.22324085,0.053825419,-0.027045943,0.037970904,20,36,-26,-22,49
1693677894379406800,1.024718285,-0.861912608,10.23281765,-0.06115314,0.000133231,-0.008127105,-32,34,85,13,-12,-0.108936176,2.408566952,10.22922707,0.053825419,-0.02691271,0.037970904,20,35,-24,-19,56
1693677894380406800,1.027112484,-0.861912608,10.23042393,-0.061286367,-0.000133231,-0.008127105,-32,41,83,9,-13,-0.106541976,2.409764051,10.23401546,0.053558957,-0.027045943,0.037837673,20,31,-19,-28,47
1693677894381406800,1.029506683,-0.858321309,10.22802925,-0.061286367,0.0,-0.008127105,-24,41,80,2,-14,-0.105344877,2.409764051,10.23042393,0.053425729,-0.027312404,0.037837673,20,42,-25,-19,53
1693677894429488800,1.025915384,-0.861912608,10.23760605,-0.06115314,-0.000133231,-0.007727412,-27,43,83,8,-13,-0.107739076,2.400187254,10.22922707,0.053425729,-0.027179174,0.038104136,14,36,-21,-20,53
1693677894430488800,1.023521185,-0.861912608,10.23640919,-0.061286367,-0.000133231,-0.007860643,-28,45,80,7,-13,-0.107739076,2.401384354,10.22683239,0.053425729,-0.027179174,0.038104136,19,41,-21,-17,70
1693677894431488800,1.022324085,-0.859518409,10.23640919,-0.061419602,-0.000133231,-0.007860643,-28,32,80,8,-18,-0.110133275,2.402581453,10.22802925,0.053425729,-0.027045943,0.037970904,15,40,-19,-24,56
1693677894432488800,1.023521185,-0.860715508,10.24000072,-0.061286367,-0.000133231,-0.007860643,-32,32,79,8,-21,-0.110133275,2.406172752,10.22922707,0.053558957,-0.027179174,0.037837673,20,36,-21,-22,54
1693677894433488800,1.022324085,-0.859518409,10.24000072,-0.061286367,-0.000266462,-0.008127105,-27,44,80,7,-13,-0.110133275,2.408566952,10.22683239,0.053558957,-0.027179174,0.037970904,20,39,-23,-22,55
1693677894479491800,1.029506683,-0.864306808,10.25197124,-0.06115314,-0.000133231,-0.007860643,-26,38,78,6,-7,-0.107739076,2.41574955,10.22802925,0.053825419,-0.027045943,0.037837673,20,37,-23,-20,54
1693677894480491800,1.028309584,-0.863109708,10.25675964,-0.06115314,-0.000133231,-0.007993874,-30,34,83,1,-16,-0.111330383,2.41335535,10.23162079,0.053692192,-0.02691271,0.037970904,20,37,-21,-20,55
1693677894481491800,1.029506683,-0.863109708,10.25915432,-0.06115314,-0.000133231,-0.007993874,-26,33,86,4,-12,-0.110133275,2.41574955,10.23521233,0.053558957,-0.02691271,0.037970904,17,36,-17,-16,52
1693677894482491800,1.028309584,-0.866701007,10.25556278,-0.061286367,-0.000133231,-0.007993874,-27,34,77,6,-14,-0.111330383,2.412158251,10.23640919,0.053692192,-0.027045943,0.037837673,19,36,-21,-20,55
1693677894483491800,1.028309584,-0.867898107,10.25436592,-0.061419602,-0.000133231,-0.007993874,-22,34,84,4,-14,-0.111330383,2.410961151,10.23401546,0.053692192,-0.027179174,0.037970904,17,37,-20,-32,50
1693677894555550400,1.029506683,-0.847547412,10.24239445,-0.060886677,-0.000266462,-0.008260337,-26,47,83,6,-6,-0.107739076,2.421735048,10.22443867,0.053159267,-0.027179174,0.038237367,19,31,-18,-20,53
1693677894556550400,1.028309584,-0.852335811,10.23401546,-0.060886677,-0.000399694,-0.008127105,-26,41,86,7,-15,-0.108936176,2.424129248,10.21965027,0.053159267,-0.027312404,0.038104136,18,46,-22,-16,55
1693677894557550400,1.028309584,-0.857124209,10.23042393,-0.061019909,-0.000266462,-0.007993874,-27,34,83,4,-17,-0.107739076,2.422932148,10.21845245,0.053026035,-0.027179174,0.038104136,23,39,-21,-24,54
1693677894558550400,1.028309584,-0.861912608,10.23162079,-0.060886677,-0.000266462,-0.007993874,-30,49,87,13,-9,-0.108936176,2.421735048,10.22443867,0.053292494,-0.027045943,0.038104136,20,44,-23,-22,54
1693677894559550400,1.027112484,-0.861912608,10.23281765,-0.060753446,-0.000266462,-0.008127105,-27,44,88,4,-8,-0.111330383,2.422932148,10.22563553,0.053425729,-0.027445635,0.037970904,19,31,-23,-22,52
1693677894626154300,1.022324085,-0.861912608,10.24718285,-0.060886677,-0.000266462,-0.007594181,-27,44,87,12,-12,-0.106541976,2.422932148,10.21725559,0.053159267,-0.027179174,0.038104136,17,36,-19,-23,55
1693677894627154300,1.021126986,-0.859518409,10.25197124,-0.060886677,-0.000133231,-0.007594181,-28,39,89,7,-11,-0.110133275,2.421735048,10.21366405,0.053026035,-0.027045943,0.038237367,21,32,-18,-16,55
1693677894628154300,1.021126986,-0.859518409,10.24957752,-0.061019909,-0.000133231,-0.007594181,-28,43,86,10,-12,-0.116118781,2.421735048,10.22084713,0.053026035,-0.027045943,0.038104136,15,41,-23,-19,52
1693677894629154300,1.022324085,-0.860715508,10.24957752,-0.060886677,-0.000133231,-0.007460949,-27,42,84,7,-11,-0.116118781,2.421735048,10.22324085,0.053026035,-0.027045943,0.038104136,20,31,-22,-27,49
1693677894630154300,1.019929886,-0.859518409,10.24957752,-0.061019909,0.0,-0.007460949,-16,34,87,13,-8,-0.114921682,2.421735048,10.22683239,0.053159267,-0.027179174,0.038237367,19,39,-20,-26,49
1693677894693469300,1.023521185,-0.852335811,10.24478912,-0.061819296,-0.000133231,-0.007860643,-31,35,89,6,-17,-0.107739076,2.41335535,10.23401546,0.053825419,-0.027045943,0.037970904,15,40,-17,-23,51
1693677894694469300,1.022324085,-0.852335811,10.24598598,-0.061819296,-0.000133231,-0.007860643,-48,34,75,2,-15,-0.110133275,2.412158251,10.23521233,0.053825419,-0.026779478,0.037837673,14,36,-20,-23,55
1693677894695469300,1.019929886,-0.851138711,10.24718285,-0.061686065,-0.000266462,-0.007993874,-26,42,85,10,-12,-0.112527482,2.412158251,10.24239445,0.053958651,-0.026646247,0.038104136,21,32,-16,-26,52
1693677894696469300,1.018732786,-0.85473001,10.24957752,-0.061686065,-0.000133231,-0.008127105,-22,37,83,8,-11,-0.112527482,2.410961151,10.24359226,0.053825419,-0.026779478,0.038104136,13,32,-21,-22,55
1693677894697469300,1.017535686,-0.859518409,10.24957752,-0.061686065,-0.000266462,-0.008127105,-27,37,83,6,-13,-0.113724582,2.410961151,10.24119759,0.053692192,-0.026779478,0.037970904,19,43,-16,-18,54
1693677894766554100,1.015141487,-0.859518409,10.24598598,-0.061419602,-0.000133231,-0.008127105,-33,41,83,4,-17,-0.116118781,2.41694665,10.24478912,0.053425729,-0.027845331,0.03757121,20,35,-19,-23,55
1693677894767554100,1.019929886,-0.859518409,10.25077438,-0.061552834,-0.000399694,-0.007860643,-28,44,83,6,-20,-0.117315881,2.41694665,10.24718285,0.053425729,-0.027712099,0.03757121,20,35,-24,-23,55
1693677894768554100,1.021126986,-0.857124209,10.25197124,-0.061286367,-0.000266462,-0.007860643,-30,33,85,7,-13,-0.113724582,2.41694665,10.24478912,0.053425729,-0.027712099,0.03757121,9,33,-28,-26,54
1693677894769554100,1.021126986,-0.85473001,10.25197124,-0.061419602,-0.000133231,-0.007727412,-27,41,80,12,-13,-0.111330383,2.41694665,10.24598598,0.053292494,-0.027712099,0.03757121,17,35,-20,-26,54
1693677894770554100,1.021126986,-0.851138711,10.25197124,-0.061286367,-0.000133231,-0.007993874,-28,42,87,10,-14,-0.108936176,2.41694665,10.24359226,0.053425729,-0.027445635,0.037704438,20,32,-18,-17,55
1693677894819156200,1.024718285,-0.848744512,10.24598598,-0.061019909,-0.000666156,-0.007993874,-27,41,84,-8,-17,-0.114921682,2.41455245,10.21965027,0.0528928,-0.02691271,0.037970904,13,41,-25,-23,55
1693677894820156200,1.023521185,-0.848744512,10.24478912,-0.060886677,-0.000666156,-0.008127105,-30,39,85,6,-9,-0.116118781,2.410961151,10.22324085,0.053159267,-0.02691271,0.038237367,11,39,-24,-21,52
1693677894821156200,1.025915384,-0.851138711,10.23880386,-0.061019909,-0.000666156,-0.007993874,-27,41,89,4,-9,-0.114921682,2.408566952,10.22443867,0.053292494,-0.027045943,0.038237367,18,36,-30,-24,52
1693677894822156200,1.027112484,-0.85353291,10.24000072,-0.060886677,-0.000666156,-0.007993874,-24,43,83,10,-11,-0.113724582,2.408566952,10.22324085,0.053292494,-0.027045943,0.038237367,20,41,-23,-27,55
1693677894823156200,1.027112484,-0.85353291,10.24359226,-0.061019909,-0.000666156,-0.008127105,-29,37,90,4,-16,-0.113724582,2.409764051,10.21605873,0.053292494,-0.027179174,0.038237367,20,44,-21,-17,55
1693677894889632500,1.029506683,-0.865503907,10.24119759,-0.061019909,-0.000133231,-0.007993874,-27,38,80,8,-12,-0.110133275,2.404975653,10.21845245,0.053692192,-0.026779478,0.037704438,15,39,-16,-22,55
1693677894890632500,1.031900883,-0.864306808,10.24478912,-0.061286367,0.0,-0.008127105,-28,38,81,8,-13,-0.106541976,2.402581453,10.21965027,0.053558957,-0.027045943,0.037704438,11,41,-23,-22,53
1693677894891632500,1.034295082,-0.864306808,10.24119759,-0.061419602,0.0,-0.008127105,-23,43,76,10,-5,-0.106541976,2.402581453,10.21725559,0.053558957,-0.02691271,0.037704438,19,36,-17,-20,52
1693677894892632500,1.033097982,-0.863109708,10.23760605,-0.061419602,-0.000133231,-0.008127105,-28,40,80,8,-9,-0.110133275,2.401384354,10.22204399,0.053692192,-0.02691271,0.037837673,18,43,-19,-22,53
1693677894893632500,1.029506683,-0.863109708,10.24000072,-0.061419602,-0.000133231,-0.008127105,-30,34,85,-1,-17,-0.112527482,2.402581453,10.22324085,0.053558957,-0.02691271,0.037970904,18,34,-24,-27,54
1693677894956154700,1.017535686,-0.848744512,10.24478912,-0.061286367,-0.000266462,-0.008393568,-32,39,85,8,-15,-0.113724582,2.41694665,10.24000072,0.053425729,-0.027312404,0.038237367,13,32,-25,-24,49
1693677894957154700,1.015141487,-0.848744512,10.24598598,-0.06115314,-0.000266462,-0.008260337,-30,35,84,7,-11,-0.113724582,2.41694665,10.23401546,0.053558957,-0.027312404,0.038237367,25,40,-21,-22,55
1693677894958154700,1.013944387,-0.848744512,10.24838066,-0.06115314,-0.000399694,-0.008393568,-29,39,77,8,-13,-0.114921682,2.41694665,10.23281765,0.053558957,-0.027179174,0.038237367,20,33,-15,-20,54
1693677894959154700,1.013944387,-0.847547412,10.24838066,-0.061286367,-0.000266462,-0.008260337,-32,41,85,7,-12,-0.114921682,2.420537949,10.23521233,0.053558957,-0.027179174,0.038237367,21,37,-21,-19,55
1693677894960154700,1.012747288,-0.849941611,10.24359226,-0.06115314,-0.000266462,-0.008260337,-28,35,83,3,-16,-0.116118781,2.419340849,10.23640919,0.053425729,-0.027179174,0.038104136,18,39,-23,-27,52
1693677895029929500,1.029506683,-0.85592711,10.23281765,-0.06115314,-0.000133231,-0.007993874,-32,37,81,7,14,-0.108936176,2.41335535,10.22802925,0.053026035,-0.026513018,0.037970904,19,40,-25,-19,54
1693677895030929500,1.030703783,-0.851138711,10.23281765,-0.061019909,-0.000133231,-0.007993874,-21,32,79,6,-15,-0.107739076,2.412158251,10.22802925,0.053159267,-0.026513018,0.037837673,17,40,-21,-20,54
1693677895031929500,1.031900883,-0.851138711,10.23162079,-0.060886677,-0.000133231,-0.007993874,-28,37,83,8,-12,-0.107739076,2.412158251,10.22324085,0.053159267,-0.026646247,0.037837673,26,46,-18,-19,55
1693677895032929500,1.034295082,-0.85353291,10.22802925,-0.061019909,-0.000266462,-0.007993874,-31,35,83,6,-13,-0.110133275,2.41335535,10.22563553,0.053292494,-0.026779478,0.037970904,18,32,-21,-23,55
1693677895033929500,1.033097982,-0.85473001,10.23281765,-0.061019909,-0.000266462,-0.007860643,-32,39,79,6,-13,-0.111330383,2.41335535,10.23281765,0.053558957,-0.026779478,0.038104136,19,35,-17,-18,53
1693677895096409500,1.027112484,-0.857124209,10.23640919,-0.060886677,-0.000266462,-0.008393568,-30,33,81,8,-15,-0.114921682,2.422932148,10.23521233,0.053292494,-0.026646247,0.038104136,10,36,-21,-19,55
1693677895097409500,1.025915384,-0.85592711,10.24000072,-0.061019909,-0.000399694,-0.008393568,-29,42,83,8,-13,-0.117315881,2.422932148,10.23401546,0.053292494,-0.026646247,0.038237367,21,39,-18,-20,54
1693677895098409500,1.030703783,-0.85592711,10.23880386,-0.061019909,-0.000399694,-0.008260337,-34,30,79,7,-13,-0.122104287,2.421735048,10.23281765,0.053425729,-0.026646247,0.038104136,18,34,-21,-20,54
1693677895099409500,1.030703783,-0.85473001,10.23521233,-0.061019909,-0.000399694,-0.007993874,-33,45,79,0,-14,-0.118512981,2.419340849,10.23401546,0.053425729,-0.026646247,0.038104136,14,40,-23,-17,53
