timestamp,left_data_Ac_X,left_data_Ac_Y,left_data_Ac_Z,left_data_Gy_X,left_data_Gy_Y,left_data_Gy_Z,left_data_flex_1,left_data_flex_2,left_data_flex_3,left_data_flex_4,left_data_flex_5,right_data_Ac_X,right_data_Ac_Y,right_data_Ac_Z,right_data_Gy_X,right_data_Gy_Y,right_data_Gy_Z,right_data_flex_1,right_data_flex_2,right_data_flex_3,right_data_flex_4,right_data_flex_5
1693678238508565400,1.016338587,-0.857124209,10.22683239,-0.060353752,0.000399694,-0.007327718,-20,48,90,11,-6,-0.105344877,2.424129248,10.22802925,0.0528928,-0.027578866,0.037837673,17,34,-19,-18,52
1693678238509565400,1.016338587,-0.858321309,10.22802925,-0.060220521,0.000399694,-0.007327718,-19,50,90,12,-6,-0.105344877,2.425326347,10.22324085,0.0528928,-0.027312404,0.037837673,17,37,-30,-29,51
1693678238510565400,1.017535686,-0.858321309,10.22922707,-0.060220521,0.000532925,-0.007194487,-24,41,87,13,-5,-0.099359371,2.422932148,10.22204399,0.053026035,-0.027045943,0.03757121,17,35,-23,-27,48
1693678238511565400,1.018732786,-0.859518409,10.23281765,-0.060220521,0.000399694,-0.007460949,-21,44,89,13,-12,-0.096965171,2.422932148,10.22563553,0.053026035,-0.02691271,0.03757121,15,35,-22,-28,46
1693678238512565400,1.017535686,-0.859518409,10.23162079,-0.060353752,0.000532925,-0.007460949,-17,49,83,12,-9,-0.095768064,2.422932148,10.22802925,0.053026035,-0.027045943,0.037704438,19,39,-28,-23,53
1693678238596513000,1.022324085,-0.848744512,10.23042393,-0.060220521,0.000399694,-0.008127105,-20,42,85,20,-5,-0.114921682,2.420537949,10.20169353,0.053026035,-0.027578866,0.037837673,13,35,-28,-24,52
1693678238597513000,1.019929886,-0.851138711,10.22802925,-0.060353752,0.000399694,-0.007993874,-23,48,87,11,-5,-0.114921682,2.420537949,10.20648193,0.053026035,-0.027578866,0.037837673,15,29,-31,-21,51
1693678238598513000,1.022324085,-0.849941611,10.22683239,-0.060353752,0.000666156,-0.008127105,-28,44,90,12,-8,-0.113724582,2.420537949,10.20648193,0.053026035,-0.027578866,0.037837673,10,33,-23,-22,46
1693678238599513000,1.022324085,-0.852335811,10.22802925,-0.060353752,0.000532925,-0.008127105,-21,41,90,13,-12,-0.111330383,2.419340849,10.20648193,0.053026035,-0.027312404,0.037704438,20,33,-21,-28,50
1693678238600513000,1.023521185,-0.85353291,10.22802925,-0.060353752,0.000532925,-0.007993874,-22,42,85,12,-8,-0.110133275,2.420537949,10.20169353,0.053026035,-0.027179174,0.037704438,13,40,-21,-26,50
1693678238639488200,1.007958889,-0.860715508,10.23640919,-0.060353752,0.000399694,-0.007993874,-23,42,87,11,-5,-0.112527482,2.419340849,10.22204399,0.0528928,-0.02691271,0.037970904,13,39,-30,-23,62
1693678238640488200,1.009155989,-0.859518409,10.24119759,-0.060486984,0.000266462,-0.007993874,-20,43,90,10,-9,-0.114921682,2.420537949,10.22084713,0.053026035,-0.02691271,0.037970904,19,33,-28,-23,49
1693678238641488200,1.011550188,-0.858321309,10.24718285,-0.060486984,0.000266462,-0.007993874,-22,42,87,10,-8,-0.112527482,2.422932148,10.21965027,0.053026035,-0.02691271,0.038104136,17,33,-29,-23,55
1693678238642488200,1.013944387,-0.859518409,10.24359226,-0.060486984,0.000266462,-0.007993874,-23,55,103,27,10,-0.111330383,2.425326347,10.22204399,0.053026035,-0.027045943,0.038104136,13,43,-25,-24,50
1693678238643488200,1.013944387,-0.859518409,10.24119759,-0.060486984,0.000532925,-0.008127105,5,68,111,35,14,-0.111330383,2.426523447,10.22443867,0.0528928,-0.027179174,0.038237367,17,39,-21,-24,54
1693678238682465600,1.011550188,-0.859518409,10.23521233,-0.060620211,0.000399694,-0.007860643,-22,36,90,9,-8,-0.105344877,2.41694665,10.23042393,0.052759573,-0.027445635,0.038104136,9,35,-23,-24,46
1693678238683465600,1.012747288,-0.860715508,10.23640919,-0.060620211,0.000399694,-0.007727412,-19,45,89,13,-7,-0.106541976,2.41574955,10.23042393,0.052626338,-0.027312404,0.037970904,11,33,-23,-18,50
1693678238684465600,1.016338587,-0.864306808,10.23880386,-0.060620211,0.000399694,-0.007860643,-28,45,85,7,-8,-0.106541976,2.418143749,10.22922707,0.052626338,-0.027179174,0.038104136,15,42,-20,-27,55
1693678238685465600,1.017535686,-0.863109708,10.23760605,-0.060620211,0.000532925,-0.007860643,-24,53,90,13,-3,-0.106541976,2.420537949,10.23042393,0.052626338,-0.027045943,0.037970904,15,35,-17,-24,55
1693678238686465600,1.016338587,-0.861912608,10.24000072,-0.060620211,0.000532925,-0.007727412,-21,45,89,11,-4,-0.104147777,2.419340849,10.22563553,0.052759573,-0.027045943,0.038104136,20,41,-22,-25,52
1693678238748915500,1.019929886,-0.860715508,10.21965027,-0.060353752,0.000532925,-0.007993874,-31,43,87,10,-11,-0.10175357,2.41574955,10.21845245,0.053026035,-0.027445635,0.037837673,10,35,-23,-30,44
1693678238749915500,1.018732786,-0.861912608,10.22084713,-0.060353752,0.000532925,-0.008127105,-22,43,87,6,-11,-0.10295067,2.41694665,10.21845245,0.052759573,-0.027445635,0.037970904,19,34,-23,-16,48
1693678238750915500,1.019929886,-0.860715508,10.21965027,-0.060353752,0.000532925,-0.007860643,-26,41,80,13,-8,-0.106541976,2.41574955,10.21486187,0.052759573,-0.027312404,0.037970904,10,31,-28,-18,48
1693678238751915500,1.019929886,-0.860715508,10.21605873,-0.060220521,0.000532925,-0.007993874,-26,46,90,10,-5,-0.106541976,2.41574955,10.21605873,0.052759573,-0.027045943,0.037970904,20,38,-25,-18,53
1693678238752915500,1.022324085,-0.863109708,10.21486187,-0.060220521,0.000666156,-0.007993874,-26,43,83,12,-7,-0.107739076,2.419340849,10.21486187,0.052759573,-0.027045943,0.037837673,18,33,-29,-27,46
1693678238800885100,1.022324085,-0.863109708,10.23880386,-0.060353752,0.000799387,-0.007727412,-18,42,88,11,-10,-0.110133275,2.421735048,10.22683239,0.053292494,-0.027712099,0.038104136,19,30,-28,-23,49
1693678238801885100,1.021126986,-0.864306808,10.23760605,-0.060220521,0.000932619,-0.007594181,-33,39,76,6,-10,-0.110133275,2.419340849,10.22563553,0.053159267,-0.027445635,0.037970904,15,35,-20,-24,49
1693678238802885100,1.019929886,-0.864306808,10.24000072,-0.060353752,0.000799387,-0.007594181,-30,41,90,8,-8,-0.111330383,2.419340849,10.22443867,0.053026035,-0.027445635,0.037970904,20,41,-20,-23,55
1693678238803885100,1.017535686,-0.863109708,10.24119759,-0.060353752,0.000799387,-0.007594181,-21,43,88,7,-7,-0.111330383,2.419340849,10.22683239,0.053026035,-0.027312404,0.037970904,15,30,-29,-27,52
1693678238804885100,1.018732786,-0.864306808,10.24598598,-0.060220521,0.000932619,-0.007860643,-20,59,90,11,-17,-0.112527482,2.420537949,10.22683239,0.0528928,-0.027179174,0.037970904,14,42,-22,-23,53
1693678238858868500,1.028309584,-0.863109708,10.23640919,-0.06008729,0.000932619,-0.007594181,-22,46,85,12,-7,-0.112527482,2.422932148,10.23042393,0.052759573,-0.027445635,0.038370594,19,35,-20,-19,52
1693678238859868500,1.030703783,-0.866701007,10.23640919,-0.06008729,0.000932619,-0.007460949,-24,38,90,12,-15,-0.108936176,2.424129248,10.22683239,0.0528928,-0.027578866,0.038237367,20,37,-20,-21,52
1693678238860868500,1.029506683,-0.870292306,10.23640919,-0.06008729,0.000799387,-0.007327718,-22,41,88,10,-9,-0.108936176,2.422932148,10.22683239,0.0528928,-0.027445635,0.038237367,20,36,-25,-20,50
1693678238861868500,1.027112484,-0.865503907,10.23640919,-0.06008729,0.000799387,-0.007194487,-20,46,87,12,-9,-0.112527482,2.425326347,10.22802925,0.053026035,-0.027578866,0.038104136,16,30,-28,-23,47
1693678238862868500,1.028309584,-0.864306808,10.24000072,-0.06008729,0.000799387,-0.007327718,-18,45,87,12,-9,-0.112527482,2.424129248,10.22802925,0.052759573,-0.027578866,0.038104136,13,30,-30,-26,49
1693678238901829600,1.019929886,-0.851138711,10.24119759,-0.060353752,0.000399694,-0.007061256,-28,43,86,8,-9,-0.105344877,2.425326347,10.22683239,0.052759573,-0.027445635,0.038104136,16,37,-29,-26,52
1693678238902829600,1.024718285,-0.85353291,10.23760605,-0.060353752,0.000532925,-0.007194487,-31,39,83,6,-7,-0.105344877,2.424129248,10.23162079,0.0528928,-0.027445635,0.037970904,20,39,-29,-16,50
1693678238903829600,1.022324085,-0.85353291,10.23521233,-0.060353752,0.000399694,-0.007194487,-27,39,88,8,-10,-0.104147777,2.422932148,10.22443867,0.0528928,-0.027845331,0.038370594,18,39,-24,-21,52
1693678238904829600,1.018732786,-0.85473001,10.24119759,-0.06008729,0.000399694,-0.007194487,-28,43,87,13,-4,-0.105344877,2.422932148,10.22204399,0.053026035,-0.027845331,0.038370594,14,37,-24,-31,51
1693678238905829600,1.018732786,-0.85473001,10.24000072,-0.06008729,0.000532925,-0.007194487,-28,37,89,11,-11,-0.107739076,2.424129248,10.22443867,0.0528928,-0.027712099,0.038370594,10,28,-23,-24,51
1693678238972242800,1.021126986,-0.85592711,10.23880386,-0.060486984,0.000799387,-0.007327718,-26,41,85,7,-9,-0.107739076,2.421735048,10.23640919,0.052626338,-0.027712099,0.038104136,20,33,-24,-20,52
1693678238973242800,1.021126986,-0.85353291,10.23880386,-0.060353752,0.000666156,-0.007327718,-16,41,85,12,-8,-0.107739076,2.421735048,10.23401546,0.052759573,-0.027712099,0.038104136,18,30,-21,-24,52
1693678238974242800,1.021126986,-0.852335811,10.23640919,-0.060486984,0.000532925,-0.007460949,-27,42,84,12,-7,-0.108936176,2.420537949,10.22922707,0.052759573,-0.027712099,0.038104136,20,37,-31,-24,53
1693678238975242800,1.022324085,-0.85592711,10.23401546,-0.060486984,0.000399694,-0.007327718,-23,51,87,13,-7,-0.108936176,2.420537949,10.22324085,0.053026035,-0.027712099,0.038104136,16,35,-32,-27,46
1693678238976242800,1.023521185,-0.859518409,10.23042393,-0.060486984,0.000399694,-0.007327718,-23,42,81,10,-8,-0.107739076,2.422932148,10.22204399,0.0528928,-0.027578866,0.038104136,19,33,-21,-22,52
1693678239032208500,1.017535686,-0.858321309,10.22204399,-0.060886677,0.000133231,-0.007727412,-27,38,88,8,-11,-0.112527482,2.421735048,10.21965027,0.052759573,-0.027845331,0.038370594,23,44,-23,-19,55
1693678239033208500,1.019929886,-0.860715508,10.21725559,-0.060753446,0.000266462,-0.007727412,-27,46,85,6,-11,-0.116118781,2.420537949,10.21965027,0.052759573,-0.027845331,0.038237367,18,36,-23,-25,52
1693678239034208500,1.019929886,-0.863109708,10.21845245,-0.060620211,0.000399694,-0.007727412,-24,51,89,13,-9,-0.112527482,2.421735048,10.22443867,0.0528928,-0.027712099,0.038237367,12,34,-25,-22,52
1693678239035208500,1.021126986,-0.861912608,10.21845245,-0.060620211,0.000532925,-0.007860643,-28,49,79,12,-5,-0.112527482,2.421735048,10.22922707,0.053026035,-0.027712099,0.038104136,19,36,-25,-32,48
1693678239036208500,1.021126986,-0.864306808,10.22084713,-0.060620211,0.000532925,-0.007860643,-24,41,95,10,-8,-0.110133275,2.421735048,10.22922707,0.053026035,-0.027578866,0.038104136,20,37,-24,-24,53
1693678239090178400,1.019929886,-0.85473001,10.23880386,-0.060353752,0.000266462,-0.007727412,-31,35,85,8,-11,-0.110133275,2.418143749,10.24000072,0.053026035,-0.027179174,0.038104136,20,37,-22,-23,55
1693678239091178400,1.017535686,-0.857124209,10.24119759,-0.06008729,0.000133231,-0.007594181,-25,47,89,3,-9,-0.110133275,2.41694665,10.24000072,0.053026035,-0.027312404,0.038237367,13,35,-30,-32,51
1693678239092178400,1.018732786,-0.85473001,10.24119759,-0.06008729,0.000133231,-0.007594181,-20,43,86,13,-8,-0.111330383,2.41574955,10.23760605,0.053159267,-0.027312404,0.038370594,6,30,-31,-28,52
1693678239093178400,1.018732786,-0.851138711,10.23880386,-0.06008729,0.000133231,-0.007594181,-21,43,92,9,-7,-0.108936176,2.41335535,10.23521233,0.053159267,-0.027445635,0.038370594,20,42,-21,-24,53
1693678239094178400,1.018732786,-0.852335811,10.23880386,-0.060220521,0.000266462,-0.007594181,-27,39,89,8,-12,-0.112527482,2.410961151,10.23162079,0.053159267,-0.027712099,0.038370594,19,39,-25,-26,52
1693678239153161100,1.022324085,-0.865503907,10.23880386,-0.060220521,0.000399694,-0.007860643,-21,44,79,7,-11,-0.112527482,2.426523447,10.22324085,0.053026035,-0.027445635,0.038104136,16,33,-21,-20,50
1693678239154161100,1.019929886,-0.869095206,10.23162079,-0.060220521,0.000399694,-0.007727412,-19,45,89,12,-8,-0.112527482,2.424129248,10.22443867,0.053026035,-0.027445635,0.038370594,19,41,-25,-26,48
1693678239155161100,1.021126986,-0.873883605,10.22683239,-0.059954058,0.000399694,-0.007860643,-22,48,87,7,-4,-0.108936176,2.422932148,10.22324085,0.053159267,-0.027312404,0.038237367,17,30,-28,-27,47
1693678239156161100,1.022324085,-0.869095206,10.22922707,-0.06008729,0.000266462,-0.007860643,-22,50,91,16,-8,-0.110133275,2.421735048,10.22204399,0.053292494,-0.027578866,0.038237367,11,35,-24,-25,49
1693678239157161100,1.021126986,-0.866701007,10.22922707,-0.060220521,0.000133231,-0.007860643,-27,44,90,13,-9,-0.111330383,2.424129248,10.22324085,0.053292494,-0.027578866,0.037970904,15,33,-25,-21,54
1693678239222011500,1.019929886,-0.851138711,10.23521233,-0.060886677,0.000532925,-0.007993874,-19,38,85,10,1,-0.112527482,2.419340849,10.22204399,0.05249311,-0.027578866,0.038637057,16,36,-21,-22,44
1693678239223011500,1.021126986,-0.846350312,10.24000072,-0.061019909,0.000532925,-0.007860643,-22,42,87,6,-15,-0.110133275,2.420537949,10.21965027,0.052759573,-0.027712099,0.038503829,15,30,-24,-22,48
1693678239224011500,1.018732786,-0.842759013,10.24478912,-0.060886677,0.000399694,-0.007860643,-20,45,89,11,-6,-0.107739076,2.41694665,10.21965027,0.0528928,-0.027712099,0.038637057,18,41,-25,-24,53
1693678239225011500,1.018732786,-0.845153213,10.24239445,-0.061019909,0.000532925,-0.007727412,-20,38,86,10,-8,-0.107739076,2.418143749,10.21845245,0.053026035,-0.027712099,0.038637057,20,43,-20,-24,54
1693678239226011500,1.018732786,-0.845153213,10.24000072,-0.060886677,0.000532925,-0.007860643,-26,37,83,9,-11,-0.10295067,2.420537949,10.22084713,0.0528928,-0.027578866,0.038637057,21,40,-17,-24,55
1693678239311960800,1.022324085,-0.85353291,10.23760605,-0.060486984,0.000399694,-0.007727412,-2,63,109,31,-5,-0.111330383,2.419340849,10.20528507,0.053026035,-0.027312404,0.037970904,18,32,-27,-28,50
1693678239312960800,1.023521185,-0.849941611,10.23281765,-0.060486984,0.000399694,-0.007993874,-22,44,85,12,-10,-0.111330383,2.420537949,10.20887566,0.053026035,-0.027312404,0.037970904,16,39,-23,-18,48
1693678239313960800,1.025915384,-0.851138711,10.23401546,-0.060620211,0.000399694,-0.007993874,-29,49,99,13,3,-0.112527482,2.422932148,10.21127033,0.0528928,-0.027312404,0.037970904,17,33,-25,-26,54
1693678239314960800,1.025915384,-0.85592711,10.24000072,-0.060620211,0.000399694,-0.007860643,-27,45,87,6,-9,-0.114921682,2.421735048,10.21486187,0.053026035,-0.027312404,0.037970904,20,43,-16,-22,53
1693678239315960800,1.030703783,-0.858321309,10.23880386,-0.060486984,0.000399694,-0.007860643,-29,41,88,6,-7,-0.118512981,2.421735048,10.21486187,0.053292494,-0.027312404,0.037837673,15,41,-19,-22,49
1693678239400909400,1.036689281,-0.85473001,10.23760605,-0.060353752,0.000266462,-0.007594181,-28,49,81,12,-8,-0.124498487,2.425326347,10.22084713,0.053159267,-0.027578866,0.037837673,14,35,-25,-26,49
1693678239401909400,1.035492182,-0.85592711,10.23760605,-0.060353752,0.000266462,-0.007594181,-24,38,86,11,-6,-0.122104287,2.426523447,10.22204399,0.053026035,-0.027712099,0.037837673,15,33,-24,-21,44
1693678239402909400,1.033097982,-0.859518409,10.23521233,-0.060486984,0.000266462,-0.007594181,-24,49,88,10,-12,-0.123301387,2.426523447,10.22204399,0.053159267,-0.027712099,0.037837673,19,38,-18,-24,49
1693678239403909400,1.031900883,-0.85592711,10.23521233,-0.060486984,0.000266462,-0.007727412,-26,43,85,0,-11,-0.123301387,2.424129248,10.22204399,0.053026035,-0.027578866,0.037837673,20,40,-25,-19,52
1693678239404909400,1.033097982,-0.851138711,10.23162079,-0.060486984,0.000399694,-0.007727412,-32,38,87,7,-11,-0.122104287,2.425326347,10.22443867,0.0528928,-0.027312404,0.037837673,15,31,-28,-23,51
1693678239474010900,1.021126986,-0.858321309,10.23640919,-0.060486984,0.000266462,-0.007727412,-27,43,88,8,-9,-0.10295067,2.424129248,10.22084713,0.053558957,-0.027578866,0.038503829,13,35,-27,-24,54
1693678239475010900,1.018732786,-0.859518409,10.23640919,-0.060486984,0.000266462,-0.007727412,-18,43,90,11,-7,-0.10175357,2.422932148,10.22204399,0.053425729,-0.027712099,0.038370594,17,39,-24,-21,50
1693678239476010900,1.018732786,-0.863109708,10.23401546,-0.060620211,0.000266462,-0.007594181,-24,45,86,2,-12,-0.10295067,2.422932148,10.22443867,0.053425729,-0.027712099,0.038104136,11,43,-22,-20,55
1693678239477010900,1.018732786,-0.869095206,10.23640919,-0.060486984,0.000133231,-0.007594181,-22,46,83,7,-11,-0.10295067,2.425326347,10.22563553,0.053292494,-0.027578866,0.038104136,17,32,-23,-23,48
1693678239478010900,1.019929886,-0.867898107,10.23880386,-0.060486984,0.000133231,-0.007727412,-31,37,85,7,-15,-0.105344877,2.424129248,10.22563553,0.053292494,-0.027445635,0.038237367,13,34,-27,-24,52
1693678239545969200,1.029506683,-0.863109708,10.23162079,-0.060753446,0.000133231,-0.007594181,-20,45,89,11,-8,-0.107739076,2.41455245,10.22204399,0.0528928,-0.028111791,0.038370594,16,40,-23,-23,54
1693678239546969200,1.031900883,-0.863109708,10.23042393,-0.060620211,0.000266462,-0.007727412,-22,51,88,11,-8,-0.107739076,2.41574955,10.22324085,0.053159267,-0.028245023,0.038237367,20,33,-25,-24,53
1693678239547969200,1.030703783,-0.864306808,10.22683239,-0.060753446,0.000266462,-0.007594181,-29,43,90,8,-7,-0.106541976,2.41574955,10.22802925,0.053292494,-0.028245023,0.038237367,15,35,-31,-20,52
1693678239548969200,1.034295082,-0.865503907,10.23281765,-0.060620211,0.000399694,-0.007594181,-27,42,86,6,-9,-0.106541976,2.41694665,10.22683239,0.053026035,-0.027845331,0.038237367,17,43,-17,-22,48
1693678239549969200,1.037886381,-0.864306808,10.23401546,-0.060753446,0.000399694,-0.007594181,-22,45,88,10,-9,-0.110133275,2.41455245,10.22204399,0.0528928,-0.027712099,0.038237367,19,31,-27,-24,48
1693678239600938800,1.033097982,-0.866701007,10.24239445,-0.060620211,0.000399694,-0.007460949,-20,47,88,13,-5,-0.116118781,2.418143749,10.21127033,0.0528928,-0.02797856,0.038370594,17,43,-24,-23,52
1693678239601938800,1.035492182,-0.865503907,10.24359226,-0.061019909,0.000532925,-0.007594181,-18,45,78,12,-1,-0.113724582,2.419340849,10.21366405,0.0528928,-0.02797856,0.038370594,15,41,-24,-19,54
1693678239602938800,1.031900883,-0.866701007,10.24598598,-0.060753446,0.000666156,-0.007460949,-25,41,89,4,-11,-0.113724582,2.419340849,10.21605873,0.0528928,-0.027845331,0.038370594,13,43,-24,-24,54
1693678239603938800,1.035492182,-0.867898107,10.24359226,-0.060753446,0.000666156,-0.007460949,-23,43,87,10,-15,-0.113724582,2.418143749,10.21605873,0.0528928,-0.027845331,0.038237367,15,35,-22,-20,52
1693678239604938800,1.035492182,-0.866701007,10.24000072,-0.060620211,0.000666156,-0.007460949,-28,46,89,12,-12,-0.116118781,2.419340849,10.21965027,0.052759573,-0.027845331,0.038104136,12,32,-26,-27,48
1693678239674893700,1.023521185,-0.867898107,10.23042393,-0.060220521,0.000666156,-0.007860643,-24,48,89,6,-9,-0.114921682,2.41574955,10.21007347,0.052759573,-0.027445635,0.037837673,13,36,-21,-22,53
1693678239675893700,1.024718285,-0.867898107,10.23162079,-0.060353752,0.000532925,-0.007594181,-20,45,88,10,-9,-0.113724582,2.41574955,10.21127033,0.052759573,-0.027445635,0.037970904,13,33,-24,-18,58
1693678239676893700,1.022324085,-0.866701007,10.22802925,-0.060353752,0.000399694,-0.007594181,-27,42,89,7,-7,-0.113724582,2.41335535,10.21246719,0.0528928,-0.027578866,0.037837673,16,35,-29,-22,50
1693678239677893700,1.022324085,-0.866701007,10.22683239,-0.060486984,0.000532925,-0.007327718,-24,38,87,12,-9,-0.112527482,2.41574955,10.21366405,0.053026035,-0.028245023,0.037704438,15,32,-27,-30,52
1693678239678893700,1.024718285,-0.865503907,10.22443867,-0.060486984,0.000399694,-0.007327718,-20,44,88,13,-8,-0.108936176,2.419340849,10.22084713,0.053292494,-0.028378254,0.037970904,13,36,-23,-20,50
1693678239738857200,1.025915384,-0.869095206,10.21605873,-0.060486984,0.000399694,-0.007460949,-18,45,81,12,-4,-0.120907187,2.41574955,10.21965027,0.0528928,-0.027179174,0.038104136,21,33,-20,-20,54
1693678239739857200,1.023521185,-0.869095206,10.21486187,-0.060486984,0.000266462,-0.007594181,-22,37,88,11,-9,-0.123301387,2.41694665,10.21486187,0.052759573,-0.02691271,0.038104136,19,39,-27,-24,48
1693678239740857200,1.025915384,-0.871489406,10.21725559,-0.060620211,0.000266462,-0.007594181,-20,38,88,11,-8,-0.122104287,2.41574955,10.21486187,0.052759573,-0.027045943,0.038104136,15,35,-32,-20,55
1693678239741857200,1.027112484,-0.872686505,10.21845245,-0.060620211,0.000133231,-0.007594181,-28,42,84,3,-11,-0.120907187,2.41574955,10.21486187,0.052759573,-0.027045943,0.038237367,13,30,-25,-22,48
1693678239742857200,1.023521185,-0.870292306,10.22084713,-0.060620211,0.000133231,-0.007594181,-22,39,89,10,-9,-0.119710088,2.41455245,10.21486187,0.0528928,-0.027179174,0.038237367,15,35,-29,-27,50
1693678239818041700,1.017535686,-0.85592711,10.22683239,-0.060486984,0.000666156,-0.007460949,-23,44,85,13,-7,-0.114921682,2.41694665,10.21246719,0.052759573,-0.027712099,0.038104136,11,41,-20,-20,55
1693678239819041700,1.018732786,-0.85592711,10.22922707,-0.060620211,0.000532925,-0.007594181,-23,47,87,12,-13,-0.112527482,2.41455245,10.21725559,0.0528928,-0.027712099,0.038104136,14,33,-26,-24,49
1693678239820041700,1.018732786,-0.85592711,10.22443867,-0.060486984,0.000532925,-0.007594181,-28,38,87,9,-13,-0.114921682,2.41335535,10.22084713,0.052759573,-0.027578866,0.038104136,11,40,-27,-22,52
1693678239821041700,1.021126986,-0.857124209,10.21965027,-0.060220521,0.000532925,-0.007727412,-18,38,84,6,-13,-0.116118781,2.41455245,10.22324085,0.052759573,-0.027578866,0.037970904,15,35,-22,-26,48
1693678239822041700,1.023521185,-0.857124209,10.22324085,-0.060220521,0.000666156,-0.007594181,-24,45,87,12,-8,-0.114921682,2.41574955,10.22443867,0.052626338,-0.027445635,0.037970904,15,33,-23,-28,50
1693678239888000800,1.023521185,-0.85473001,10.23880386,-0.060486984,0.00106585,-0.007327718,-20,45,87,6,-9,-0.117315881,2.406172752,10.24119759,0.0528928,-0.027712099,0.037704438,10,39,-27,-24,49
1693678239889000800,1.023521185,-0.85353291,10.23880386,-0.060486984,0.00106585,-0.007327718,-21,39,89,6,-15,-0.119710088,2.404975653,10.23880386,0.0528928,-0.027845331,0.037704438,9,36,-25,-28,47
1693678239890000800,1.027112484,-0.849941611,10.24000072,-0.060620211,0.000799387,-0.007327718,-28,43,90,10,-13,-0.119710088,2.408566952,10.23880386,0.052626338,-0.027845331,0.037704438,9,39,-29,-30,44
1693678239891000800,1.024718285,-0.852335811,10.24119759,-0.060486984,0.000932619,-0.007460949,-23,45,84,13,-11,-0.117315881,2.407369852,10.23162079,0.052759573,-0.027845331,0.037704438,11,37,-27,-27,49
1693678239892000800,1.022324085,-0.849941611,10.23521233,-0.060486984,0.000932619,-0.007460949,-19,43,87,12,-8,-0.117315881,2.407369852,10.23640919,0.053159267,-0.027712099,0.037704438,19,42,-24,-20,50
1693678240000992900,1.023521185,-0.85473001,10.21845245,-0.060753446,0.0,-0.008127105,-19,39,87,13,-11,-0.125695586,2.404975653,10.21486187,0.053825419,-0.02904441,0.038770292,19,30,-25,-23,52
1693678240001992900,1.024718285,-0.85473001,10.22204399,-0.060353752,-0.000133231,-0.007993874,-23,42,87,12,-9,-0.119710088,2.407369852,10.21845245,0.054491576,-0.03011026,0.038903523,8,30,-22,-25,49
1693678240002992900,1.027112484,-0.852335811,10.22204399,-0.060486984,-0.000399694,-0.007993874,-24,31,90,8,-5,-0.122104287,2.41574955,10.21845245,0.054358348,-0.030243492,0.039436448,15,40,-28,-21,50
1693678240003992900,1.029506683,-0.852335811,10.23521233,-0.060220521,-0.000399694,-0.008127105,-24,44,80,13,-11,-0.118512981,2.420537949,10.21845245,0.053825419,-0.029843798,0.039436448,20,41,-21,-19,52
1693678240004992900,1.034295082,-0.85353291,10.23760605,-0.060486984,-0.000399694,-0.007993874,-26,42,84,11,-8,-0.116118781,2.425326347,10.22084713,0.053425729,-0.029444104,0.039169986,13,33,-31,-24,48
1693678240075950500,1.024718285,-0.863109708,10.23760605,-0.060620211,0.0,-0.007860643,-22,47,81,13,-8,-0.114921682,2.422932148,10.20767879,0.051294025,-0.025846859,0.037970904,11,30,-25,-23,46
1693678240076950500,1.024718285,-0.866701007,10.24119759,-0.060486984,0.000266462,-0.007727412,-24,39,88,10,-12,-0.113724582,2.422932148,10.20887566,0.051693719,-0.026379786,0.038104136,14,30,-29,-24,49
1693678240077950500,1.022324085,-0.867898107,10.24119759,-0.060486984,0.000399694,-0.007860643,-31,41,85,16,-7,-0.116118781,2.421735048,10.20887566,0.052359879,-0.027179174,0.037970904,20,39,-23,-18,41
1693678240078950500,1.017535686,-0.866701007,10.24359226,-0.060486984,0.000532925,-0.007860643,-20,50,90,10,-8,-0.117315881,2.420537949,10.21725559,0.0528928,-0.027845331,0.038104136,21,43,-20,-18,54
1693678240079950500,1.018732786,-0.866701007,10.24239445,-0.060353752,0.000666156,-0.007727412,-23,41,90,13,-3,-0.113724582,2.419340849,10.21725559,0.0528928,-0.028245023,0.038237367,19,37,-23,-24,51
1693678240152908500,1.021126986,-0.863109708,10.22683239,-0.060486984,0.000532925,-0.007594181,-24,43,81,9,-9,-0.116118781,2.424129248,10.22084713,0.05249311,-0.02691271,0.037970904,9,31,-28,-23,37
1693678240153908500,1.017535686,-0.865503907,10.22563553,-0.060486984,0.000399694,-0.007594181,-24,48,87,6,-8,-0.114921682,2.425326347,10.22324085,0.052626338,-0.02691271,0.037970904,18,36,-23,-27,52
1693678240154908500,1.018732786,-0.865503907,10.22683239,-0.060486984,0.000266462,-0.007327718,-30,39,88,12,-8,-0.112527482,2.428917646,10.22443867,0.052626338,-0.02691271,0.038104136,19,39,-24,-18,55
1693678240155908500,1.018732786,-0.865503907,10.22683239,-0.060753446,0.000266462,-0.007460949,-22,38,87,8,-9,-0.116118781,2.428917646,10.22683239,0.0528928,-0.027045943,0.037970904,22,36,-29,-22,50
1693678240156908500,1.017535686,-0.866701007,10.23042393,-0.060753446,0.000133231,-0.007594181,-23,44,89,13,-1,-0.118512981,2.428917646,10.22802925,0.052759573,-0.027312404,0.037970904,13,29,-25,-29,44
1693678240236859300,1.029506683,-0.851138711,10.23880386,-0.060620211,0.000666156,-0.007460949,-24,48,87,6,-7,-0.111330383,2.419340849,10.21366405,0.053159267,-0.027445635,0.038370594,13,36,-22,-20,48
1693678240237859300,1.028309584,-0.85353291,10.23760605,-0.060486984,0.000666156,-0.007594181,-27,42,80,11,-9,-0.111330383,2.418143749,10.21007347,0.053159267,-0.027445635,0.038370594,17,35,-29,-20,48
1693678240238859300,1.028309584,-0.85473001,10.24000072,-0.060620211,0.000666156,-0.007594181,-30,43,86,8,-9,-0.111330383,2.421735048,10.20767879,0.053159267,-0.027445635,0.038237367,21,37,-19,-18,52
1693678240239859300,1.029506683,-0.85592711,10.23521233,-0.060486984,0.000666156,-0.007594181,-21,46,88,8,-8,-0.107739076,2.421735048,10.21246719,0.053159267,-0.027179174,0.038237367,16,33,-28,-22,52
1693678240240859300,1.030703783,-0.858321309,10.23640919,-0.060486984,0.000532925,-0.007727412,-18,48,88,9,-5,-0.105344877,2.425326347,10.21366405,0.0528928,-0.027045943,0.037970904,13,32,-31,-24,49
1693678240314813300,1.024718285,-0.85592711,10.23281765,-0.060753446,0.0,-0.007860643,-28,43,83,11,-16,-0.10295067,2.420537949,10.22084713,0.052626338,-0.026379786,0.037704438,24,33,-25,-26,52
1693678240315813300,1.025915384,-0.857124209,10.23042393,-0.061019909,0.000133231,-0.007727412,-27,38,87,2,-13,-0.106541976,2.421735048,10.22204399,0.052626338,-0.026646247,0.037704438,17,41,-21,-16,55
1693678240316813300,1.025915384,-0.85592711,10.22922707,-0.061019909,0.000266462,-0.007727412,-24,32,87,10,-5,-0.105344877,2.422932148,10.22324085,0.052626338,-0.02691271,0.03757121,11,31,-27,-23,42
1693678240317813300,1.024718285,-0.85592711,10.23640919,-0.060886677,0.000399694,-0.007860643,-20,38,87,13,-8,-0.106541976,2.420537949,10.21965027,0.052626338,-0.02691271,0.037704438,18,39,-27,-24,46
1693678240318813300,1.027112484,-0.85592711,10.23880386,-0.060753446,0.000399694,-0.007727412,-6,48,91,12,-5,-0.105344877,2.421735048,10.22084713,0.05249311,-0.02691271,0.03757121,17,30,-25,-20,45
1693678240388775500,1.031900883,-0.858321309,10.23281765,-0.060220521,0.000932619,-0.007727412,-22,46,90,13,-11,-0.111330383,2.41455245,10.23162079,0.0528928,-0.026646247,0.038104136,9,30,-23,-18,50
1693678240389775500,1.033097982,-0.857124209,10.22922707,-0.060220521,0.000932619,-0.007727412,-22,41,75,3,-13,-0.113724582,2.41335535,10.23042393,0.052759573,-0.026513018,0.038104136,18,35,-25,-16,52
1693678240390775500,1.034295082,-0.85592711,10.22802925,-0.060220521,0.000932619,-0.007727412,-28,45,77,7,-2,-0.116118781,2.41574955,10.23281765,0.052626338,-0.026513018,0.038104136,13,42,-25,-24,52
1693678240391775500,1.034295082,-0.857124209,10.22683239,-0.06008729,0.00106585,-0.007727412,-26,43,84,8,-9,-0.116118781,2.41574955,10.23640919,0.05249311,-0.026513018,0.037970904,15,41,-21,-29,46
1693678240392775500,1.033097982,-0.859518409,10.22324085,-0.06008729,0.00106585,-0.007727412,-19,47,90,14,-5,-0.117315881,2.41574955,10.23760605,0.052626338,-0.026646247,0.038104136,13,36,-33,-26,44
1693678240451698200,1.024718285,-0.85473001,10.22563553,-0.060486984,0.000666156,-0.007727412,-20,45,90,6,-9,-0.110133275,2.418143749,10.23401546,0.052759573,-0.027179174,0.038370594,13,37,-24,-29,53
1693678240452698200,1.023521185,-0.85353291,10.22443867,-0.060486984,0.000666156,-0.007594181,-31,43,83,10,-6,-0.110133275,2.420537949,10.23880386,0.052759573,-0.027179174,0.038370594,20,36,-22,-28,54
1693678240453698200,1.022324085,-0.85592711,10.22324085,-0.060620211,0.000666156,-0.007594181,-26,46,84,6,-9,-0.110133275,2.421735048,10.23521233,0.052759573,-0.027312404,0.038237367,17,39,-25,-27,53
1693678240454698200,1.023521185,-0.85473001,10.21965027,-0.060620211,0.000666156,-0.007727412,-27,47,84,11,-9,-0.108936176,2.425326347,10.23521233,0.0528928,-0.027312404,0.038104136,17,36,-31,-24,44
1693678240455698200,1.024718285,-0.85473001,10.21725559,-0.060753446,0.000799387,-0.007727412,-18,41,95,12,-8,-0.111330383,2.425326347,10.23521233,0.053026035,-0.027312404,0.037970904,5,34,-21,-22,49
1693678240518706700,1.024718285,-0.857124209,10.24598598,-0.060620211,0.000666156,-0.007860643,-24,42,84,4,-13,-0.113724582,2.427720547,10.22443867,0.053026035,-0.027712099,0.038104136,20,41,-20,-24,52
1693678240519706700,1.023521185,-0.857124209,10.24359226,-0.060753446,0.000666156,-0.007727412,-27,38,88,8,-13,-0.113724582,2.424129248,10.22324085,0.053159267,-0.027712099,0.038104136,18,36,-20,-19,49
1693678240520706700,1.022324085,-0.857124209,10.24239445,-0.060620211,0.000799387,-0.007860643,-28,46,87,12,-9,-0.112527482,2.425326347,10.21845245,0.053026035,-0.027578866,0.037970904,21,30,-29,-18,53
1693678240521706700,1.019929886,-0.857124209,10.23760605,-0.060620211,0.000666156,-0.007727412,-23,46,88,13,-8,-0.110133275,2.424129248,10.22324085,0.0528928,-0.027578866,0.038104136,13,34,-25,-27,55
1693678240522706700,1.019929886,-0.858321309,10.23640919,-0.060753446,0.000666156,-0.007727412,-22,47,90,13,-12,-0.112527482,2.425326347,10.22084713,0.052759573,-0.027578866,0.037837673,14,31,-30,-21,53
1693678240583669300,1.013944387,-0.859518409,10.24119759,-0.060620211,0.000532925,-0.007860643,-26,42,90,7,-9,-0.114921682,2.422932148,10.23281765,0.0528928,-0.028111791,0.037970904,15,40,-24,-24,52
1693678240584669300,1.013944387,-0.860715508,10.23521233,-0.060486984,0.000399694,-0.007727412,-36,42,85,10,-11,-0.114921682,2.424129248,10.23162079,0.0528928,-0.028245023,0.037837673,10,32,-23,-24,49
1693678240585669300,1.013944387,-0.858321309,10.23521233,-0.060353752,0.000266462,-0.007727412,-26,45,88,8,-11,-0.111330383,2.426523447,10.23401546,0.053026035,-0.028111791,0.037837673,6,31,-29,-28,45
1693678240586669300,1.012747288,-0.858321309,10.22922707,-0.060353752,0.000266462,-0.007993874,-19,46,85,12,-5,-0.108936176,2.428917646,10.23281765,0.0528928,-0.027845331,0.037704438,11,35,-28,-23,50
1693678240587669300,1.010353088,-0.861912608,10.22802925,-0.060486984,0.000266462,-0.007860643,-24,42,87,11,-10,-0.106541976,2.428917646,10.23162079,0.0528928,-0.027712099,0.037837673,14,36,-27,-26,53
1693678240650633300,1.016338587,-0.857124209,10.22443867,-0.060753446,0.000266462,-0.007460949,-27,33,85,7,-8,-0.108936176,2.412158251,10.23281765,0.05249311,-0.027312404,0.037970904,13,35,-21,-24,50
1693678240651633300,1.016338587,-0.859518409,10.22204399,-0.060886677,0.000399694,-0.007460949,-25,37,86,2,-5,-0.110133275,2.41335535,10.23521233,0.052626338,-0.027712099,0.037970904,17,39,-27,-29,49
1693678240652633300,1.012747288,-0.858321309,10.21725559,-0.060886677,0.000399694,-0.007460949,-20,41,90,9,-10,-0.111330383,2.41694665,10.23760605,0.0528928,-0.02797856,0.038104136,16,29,-24,-28,48
1693678240653633300,1.017535686,-0.857124209,10.21366405,-0.060753446,0.000399694,-0.007327718,-22,45,83,9,-10,-0.110133275,2.418143749,10.23760605,0.053026035,-0.028245023,0.038104136,20,37,-21,-18,52
1693678240654633300,1.016338587,-0.85592711,10.21486187,-0.060620211,0.000266462,-0.007194487,-32,42,85,7,-12,-0.108936176,2.420537949,10.23401546,0.053026035,-0.028111791,0.038104136,18,40,-25,-26,49
1693678240720712400,1.012747288,-0.858321309,10.21486187,-0.060486984,0.0,-0.007194487,-24,37,90,11,-12,-0.111330383,2.420537949,10.21605873,0.052759573,-0.027179174,0.037704438,15,41,-29,-30,43
1693678240721712400,1.011550188,-0.857124209,10.21486187,-0.060486984,0.0,-0.007194487,-25,43,88,5,-11,-0.114921682,2.41694665,10.22204399,0.052759573,-0.027045943,0.037837673,10,30,-31,-23,46
1693678240722712400,1.007958889,-0.859518409,10.21127033,-0.060620211,0.0,-0.007194487,-24,41,90,10,-9,-0.116118781,2.418143749,10.21725559,0.052759573,-0.027179174,0.037970904,18,36,-28,-20,46
1693678240723712400,1.009155989,-0.861912608,10.20887566,-0.060353752,-0.000133231,-0.007327718,-18,43,75,12,-7,-0.114921682,2.41574955,10.21845245,0.052759573,-0.027312404,0.038104136,23,43,-21,-21,53
1693678240724712400,1.009155989,-0.861912608,10.21007347,-0.060353752,-0.000133231,-0.007194487,-29,41,88,10,-9,-0.113724582,2.419340849,10.22204399,0.052759573,-0.027312404,0.038237367,20,40,-23,-18,55
1693678240789673000,1.017535686,-0.864306808,10.23521233,-0.06008729,0.000399694,-0.007594181,-2,37,88,8,-17,-0.110133275,2.41574955,10.22922707,0.052626338,-0.027445635,0.038370594,19,32,-18,-24,52
1693678240790673000,1.018732786,-0.863109708,10.23401546,-0.06008729,0.000399694,-0.007727412,-24,49,85,13,-18,-0.111330383,2.41335535,10.23281765,0.052626338,-0.027445635,0.038637057,17,35,-23,-28,49
1693678240791673000,1.018732786,-0.861912608,10.23640919,-0.059954058,0.000532925,-0.007727412,-24,48,88,10,-7,-0.111330383,2.41574955,10.22683239,0.05249311,-0.027712099,0.038503829,9,35,-24,-27,50
1693678240792673000,1.021126986,-0.860715508,10.23760605,-0.06008729,0.000399694,-0.007860643,-20,43,88,13,-4,-0.111330383,2.41694665,10.23162079,0.052626338,-0.027845331,0.038503829,13,46,-25,-26,48
1693678240793673000,1.019929886,-0.865503907,10.23521233,-0.06008729,0.000532925,-0.008127105,-21,41,87,7,-9,-0.110133275,2.41694665,10.23162079,0.052759573,-0.027845331,0.038503829,7,39,-25,-18,49
1693678240868628500,1.037886381,-0.85353291,10.24119759,-0.060620211,0.000399694,-0.007460949,-29,38,79,-1,-11,-0.113724582,2.412158251,10.22324085,0.052626338,-0.027845331,0.038370594,17,30,-29,-24,49
1693678240869628500,1.036689281,-0.85353291,10.24119759,-0.060486984,0.000266462,-0.007327718,-22,43,82,12,-7,-0.114921682,2.412158251,10.21965027,0.052759573,-0.027845331,0.038503829,15,40,-28,-24,53
1693678240870628500,1.033097982,-0.85473001,10.24598598,-0.060486984,0.000399694,-0.007327718,-20,47,88,13,-9,-0.113724582,2.410961151,10.22324085,0.052626338,-0.02797856,0.038503829,20,37,-31,-24,48
1693678240871628500,1.030703783,-0.858321309,10.24957752,-0.060486984,0.000532925,-0.007460949,-26,46,89,6,-8,-0.111330383,2.41455245,10.22443867,0.052759573,-0.02797856,0.038503829,17,36,-21,-22,54
1693678240872628500,1.025915384,-0.857124209,10.24957752,-0.060620211,0.000666156,-0.007594181,-21,48,90,13,-9,-0.113724582,2.41574955,10.22563553,0.052626338,-0.027845331,0.038503829,11,37,-19,-20,48
1693678240936061500,1.023521185,-0.85353291,10.23162079,-0.061419602,0.000666156,-0.007727412,-20,48,80,6,-12,-0.112527482,2.431311846,10.23401546,0.05249311,-0.027045943,0.037704438,17,35,-29,-28,50
1693678240937061500,1.023521185,-0.85353291,10.23760605,-0.061286367,0.000666156,-0.007460949,-23,41,91,7,-7,-0.114921682,2.428917646,10.22922707,0.052759573,-0.027045943,0.037837673,13,47,-23,-15,49
1693678240938061500,1.023521185,-0.85473001,10.24239445,-0.061286367,0.000532925,-0.007460949,-25,53,90,7,-9,-0.113724582,2.425326347,10.23162079,0.052759573,-0.027179174,0.037704438,17,43,-24,-23,49
1693678240939061500,1.025915384,-0.852335811,10.24718285,-0.061286367,0.000532925,-0.007460949,-27,41,90,12,-7,-0.114921682,2.425326347,10.23521233,0.052759573,-0.027312404,0.037837673,16,33,-23,-22,53
1693678240940061500,1.029506683,-0.852335811,10.24239445,-0.061286367,0.000532925,-0.007327718,-23,45,87,10,-9,-0.116118781,2.425326347,10.23521233,0.052626338,-0.027578866,0.037970904,23,39,-28,-24,48
1693678241017018700,1.027112484,-0.85353291,10.22563553,-0.060620211,0.000532925,-0.007727412,-27,47,90,10,-4,-0.116118781,2.426523447,10.22324085,0.053026035,-0.026779478,0.037837673,23,37,-26,-22,52
1693678241018018700,1.024718285,-0.85592711,10.22802925,-0.060753446,0.000666156,-0.007594181,-27,45,85,10,-13,-0.117315881,2.428917646,10.22443867,0.052759573,-0.026646247,0.037704438,11,35,-28,-20,51
1693678241019018700,1.027112484,-0.85592711,10.22922707,-0.060620211,0.000532925,-0.007460949,-27,42,86,10,-16,-0.118512981,2.430114746,10.22563553,0.052759573,-0.026646247,0.037970904,17,39,-24,-22,54
1693678241020018700,1.024718285,-0.85592711,10.23760605,-0.060620211,0.000532925,-0.007460949,-26,45,89,11,-9,-0.117315881,2.430114746,10.22563553,0.052759573,-0.026779478,0.038104136,20,32,-23,-24,53
1693678241021018700,1.023521185,-0.85592711,10.23760605,-0.060620211,0.000666156,-0.007460949,-16,49,89,13,-7,-0.116118781,2.426523447,10.22922707,0.052759573,-0.026779478,0.038104136,13,31,-29,-16,53
1693678241092973000,1.017535686,-0.863109708,10.23042393,-0.060620211,0.000532925,-0.007993874,-31,43,85,6,-8,-0.117315881,2.412158251,10.21965027,0.053159267,-0.027445635,0.038370594,15,35,-27,-27,45
1693678241093973000,1.019929886,-0.863109708,10.22802925,-0.060753446,0.000666156,-0.007993874,-24,43,84,10,-13,-0.114921682,2.41335535,10.22084713,0.053159267,-0.027578866,0.038370594,17,31,-25,-27,48
1693678241094973000,1.018732786,-0.861912608,10.22443867,-0.060620211,0.000532925,-0.007860643,-32,33,85,3,-18,-0.116118781,2.41574955,10.22443867,0.053026035,-0.027445635,0.038370594,19,30,-25,-22,48
1693678241095973000,1.017535686,-0.860715508,10.22204399,-0.060620211,0.000666156,-0.007860643,-32,45,85,-4,-11,-0.114921682,2.41574955,10.22204399,0.053425729,-0.027578866,0.038503829,19,34,-28,-21,44
1693678241096973000,1.015141487,-0.859518409,10.22204399,-0.060486984,0.000799387,-0.007727412,-30,43,89,12,-12,-0.112527482,2.419340849,10.22204399,0.053425729,-0.027712099,0.038370594,20,45,-25,-19,55
1693678241151943600,1.019929886,-0.858321309,10.23281765,-0.060620211,0.0,-0.007594181,1,57,108,27,11,-0.108936176,2.428917646,10.22204399,0.0528928,-0.028245023,0.038370594,17,45,-23,-24,49
1693678241152943600,1.021126986,-0.859518409,10.23042393,-0.060486984,0.0,-0.007460949,2,64,106,31,12,-0.106541976,2.427720547,10.22204399,0.0528928,-0.028378254,0.038370594,17,31,-21,-18,50
1693678241153943600,1.025915384,-0.85473001,10.22802925,-0.060486984,0.000133231,-0.007594181,-4,65,102,10,-5,-0.105344877,2.428917646,10.22563553,0.052759573,-0.028245023,0.038237367,14,39,-23,-21,49
1693678241154943600,1.024718285,-0.858321309,10.22922707,-0.060353752,0.000266462,-0.007460949,-28,33,77,3,1,-0.104147777,2.430114746,10.22443867,0.0528928,-0.027845331,0.038237367,20,37,-23,-26,49
1693678241155943600,1.024718285,-0.85353291,10.22802925,-0.060353752,0.000266462,-0.007460949,-14,53,99,20,1,-0.10055647,2.427720547,10.22324085,0.052759573,-0.027578866,0.038104136,17,36,-23,-19,52
1693678241222871100,1.025915384,-0.858321309,10.23640919,-0.059954058,0.000399694,-0.007993874,-31,34,87,8,-12,-0.111330383,2.418143749,10.24239445,0.0528928,-0.027312404,0.038104136,20,30,-16,-24,48
1693678241223871100,1.024718285,-0.858321309,10.23640919,-0.059954058,0.000532925,-0.007993874,-28,36,85,10,-9,-0.111330383,2.418143749,10.24359226,0.0528928,-0.027179174,0.037970904,13,41,-24,-28,53
1693678241224871100,1.027112484,-0.857124209,10.23880386,-0.059954058,0.000532925,-0.007993874,-23,47,83,6,-14,-0.112527482,2.418143749,10.23521233,0.052759573,-0.027045943,0.037970904,10,40,-28,-23,45
1693678241225871100,1.027112484,-0.857124209,10.23281765,-0.06008729,0.000666156,-0.007993874,-27,39,84,8,-15,-0.112527482,2.419340849,10.23401546,0.052759573,-0.02691271,0.037970904,22,33,-21,-22,55
1693678241226871100,1.024718285,-0.858321309,10.23401546,-0.06008729,0.000532925,-0.007993874,-34,38,84,2,-12,-0.110133275,2.419340849,10.23162079,0.053026035,-0.027179174,0.037970904,21,40,-27,-30,45
1693678241297828700,1.022324085,-0.861912608,10.24000072,-0.060620211,0.000666156,-0.007727412,-16,37,83,6,-14,-0.110133275,2.420537949,10.23640919,0.0528928,-0.027312404,0.037970904,11,30,-30,-36,43
1693678241298828700,1.021126986,-0.864306808,10.23401546,-0.060753446,0.000399694,-0.007860643,-26,43,89,8,-12,-0.108936176,2.419340849,10.23521233,0.052626338,-0.027179174,0.037837673,17,41,-23,-27,49
1693678241299828700,1.021126986,-0.863109708,10.23760605,-0.060753446,0.000532925,-0.007727412,-33,38,76,6,-9,-0.106541976,2.41694665,10.23401546,0.052626338,-0.027045943,0.037837673,20,39,-19,-20,56
1693678241300828700,1.019929886,-0.860715508,10.24000072,-0.060886677,0.000399694,-0.007727412,-28,40,84,7,-13,-0.105344877,2.419340849,10.23401546,0.052626338,-0.027179174,0.037837673,17,35,-25,-27,52
1693678241301828700,1.017535686,-0.861912608,10.23640919,-0.061019909,0.000532925,-0.007727412,-32,33,79,0,-16,-0.108936176,2.420537949,10.23521233,0.0528928,-0.027312404,0.037970904,9,36,-23,-30,51
1693678241360959500,1.018732786,-0.865503907,10.23281765,-0.060620211,0.000399694,-0.007727412,-32,41,82,5,-11,-0.114921682,2.420537949,10.22443867,0.052759573,-0.027445635,0.037837673,17,36,-23,-26,48
1693678241361959500,1.019929886,-0.865503907,10.23760605,-0.060486984,0.000532925,-0.007727412,-31,44,87,8,-12,-0.113724582,2.420537949,10.22443867,0.0528928,-0.027712099,0.037837673,17,39,-23,-23,48
1693678241362959500,1.018732786,-0.863109708,10.23401546,-0.060486984,0.000532925,-0.007594181,-26,38,88,7,-15,-0.119710088,2.420537949,10.22204399,0.052759573,-0.027578866,0.037704438,19,35,-24,-19,50
1693678241363959500,1.016338587,-0.858321309,10.24119759,-0.060353752,0.000532925,-0.007594181,-24,43,87,9,-13,-0.116118781,2.418143749,10.21845245,0.052759573,-0.027578866,0.037704438,19,35,-25,-24,52
1693678241364959500,1.016338587,-0.858321309,10.23880386,-0.060486984,0.000666156,-0.007594181,-11,53,91,24,1,-0.117315881,2.419340849,10.22084713,0.05249311,-0.027445635,0.037837673,19,30,-23,-27,50
1693678241433872500,1.017535686,-0.859518409,10.22324085,-0.060220521,0.000799387,-0.007594181,-3,62,95,19,5,-0.114921682,2.426523447,10.2028904,0.05249311,-0.027445635,0.038237367,13,35,-21,-18,54
1693678241434872500,1.017535686,-0.858321309,10.22563553,-0.060353752,0.00106585,-0.007594181,-2,59,94,32,9,-0.116118781,2.427720547,10.19929886,0.05249311,-0.027578866,0.038104136,20,35,-20,-23,54
1693678241435872500,1.017535686,-0.860715508,10.22443867,-0.060353752,0.00106585,-0.007727412,-23,39,81,2,-12,-0.117315881,2.425326347,10.20528507,0.05249311,-0.027578866,0.038104136,19,41,-23,-32,50
1693678241436872500,1.019929886,-0.859518409,10.22683239,-0.060486984,0.000932619,-0.007727412,-6,62,83,6,-13,-0.113724582,2.427720547,10.20887566,0.05249311,-0.027578866,0.037970904,11,38,-20,-22,50
1693678241437872500,1.021126986,-0.860715508,10.22802925,-0.060486984,0.00106585,-0.007594181,-22,41,80,2,-17,-0.114921682,2.427720547,10.20648193,0.05249311,-0.027445635,0.038104136,20,32,-31,-26,49
1693678241485843400,1.016338587,-0.85473001,10.22204399,-0.060486984,0.000666156,-0.007327718,-31,47,81,10,-12,-0.117315881,2.428917646,10.22443867,0.052759573,-0.027712099,0.038370594,17,35,-21,-23,51
1693678241486843400,1.017535686,-0.852335811,10.21965027,-0.060486984,0.000666156,-0.007460949,-32,38,84,7,-12,-0.113724582,2.428917646,10.22204399,0.052626338,-0.027712099,0.038237367,18,36,-19,-24,52
1693678241487843400,1.019929886,-0.85353291,10.22204399,-0.060620211,0.000666156,-0.007594181,-32,43,83,6,-14,-0.114921682,2.430114746,10.22443867,0.052359879,-0.027845331,0.038237367,17,43,-20,-23,53
1693678241488843400,1.019929886,-0.851138711,10.22204399,-0.060486984,0.000666156,-0.007727412,-28,35,84,13,-13,-0.113724582,2.430114746,10.22443867,0.052359879,-0.027845331,0.038104136,14,32,-22,-28,52
1693678241489843400,1.017535686,-0.852335811,10.22084713,-0.060486984,0.000666156,-0.007594181,-24,36,79,13,-9,-0.113724582,2.430114746,10.22563553,0.052093416,-0.027845331,0.037970904,13,43,-27,-23,50
1693678241545943700,1.025915384,-0.863109708,10.23880386,-0.060353752,0.000799387,-0.007727412,-33,37,79,7,-18,-0.120907187,2.419340849,10.23401546,0.05249311,-0.027578866,0.037970904,20,30,-20,-20,52
1693678241546943700,1.024718285,-0.863109708,10.23640919,-0.060353752,0.000799387,-0.007727412,-28,39,76,4,-5,-0.123301387,2.41694665,10.23162079,0.052359879,-0.027712099,0.038104136,15,43,-21,-18,50
1693678241547943700,1.023521185,-0.861912608,10.23880386,-0.060353752,0.000799387,-0.007727412,-27,35,88,9,-9,-0.122104287,2.41455245,10.23640919,0.05249311,-0.027712099,0.038237367,17,46,-21,-25,59
1693678241548943700,1.021126986,-0.863109708,10.23760605,-0.060353752,0.000799387,-0.007727412,-23,43,80,14,-7,-0.119710088,2.41574955,10.23880386,0.052359879,-0.027578866,0.038104136,13,32,-21,-24,44
1693678241549943700,1.023521185,-0.865503907,10.23760605,-0.060353752,0.000932619,-0.007727412,-31,32,85,1,-9,-0.117315881,2.41574955,10.24000072,0.052226644,-0.027312404,0.038104136,13,32,-28,-26,54
1693678241590913600,1.021126986,-0.866701007,10.22563553,-0.06008729,0.000399694,-0.007727412,-28,42,81,3,-15,-0.116118781,2.418143749,10.21605873,0.052626338,-0.027445635,0.037837673,20,41,-19,-17,51
1693678241591913600,1.021126986,-0.867898107,10.22802925,-0.060220521,0.000266462,-0.007594181,-32,39,79,8,-15,-0.117315881,2.418143749,10.21605873,0.052626338,-0.027578866,0.037704438,17,35,-24,-27,50
1693678241592913600,1.016338587,-0.870292306,10.22922707,-0.059954058,0.000266462,-0.007594181,-24,35,87,12,-14,-0.117315881,2.41694665,10.21725559,0.052759573,-0.027578866,0.037837673,10,31,-24,-24,51
1693678241593913600,1.015141487,-0.873883605,10.22802925,-0.059954058,0.000266462,-0.007727412,-23,45,84,11,-14,-0.111330383,2.419340849,10.22324085,0.0528928,-0.027578866,0.037970904,15,35,-28,-20,45
1693678241594913600,1.013944387,-0.870292306,10.22084713,-0.059954058,0.000399694,-0.007727412,-28,41,79,7,-18,-0.110133275,2.419340849,10.22802925,0.053026035,-0.027712099,0.037970904,15,35,-23,-24,52
1693678241653899200,1.012747288,-0.869095206,10.24000072,-0.060886677,0.000266462,-0.007727412,-36,41,83,4,-17,-0.112527482,2.41694665,10.21965027,0.0528928,-0.027045943,0.037837673,22,30,-27,-24,48
1693678241654899200,1.015141487,-0.870292306,10.23760605,-0.060886677,0.000399694,-0.007594181,-24,39,83,7,-11,-0.111330383,2.41694665,10.22204399,0.052759573,-0.02691271,0.037704438,14,32,-31,-23,50
1693678241655899200,1.015141487,-0.869095206,10.23760605,-0.060620211,0.000399694,-0.007594181,-23,43,86,9,-9,-0.108936176,2.41574955,10.21725559,0.052759573,-0.026779478,0.037704438,-2,35,-25,-27,49
1693678241656899200,1.013944387,-0.871489406,10.23760605,-0.060886677,0.000532925,-0.007594181,-30,46,85,7,-15,-0.108936176,2.41694665,10.22084713,0.052626338,-0.026646247,0.037837673,17,37,-23,-20,49
1693678241657899200,1.015141487,-0.866701007,10.23640919,-0.061019909,0.000532925,-0.007460949,-28,38,83,6,-14,-0.106541976,2.41335535,10.21486187,0.0528928,-0.027045943,0.037837673,12,36,-25,-28,52
1693678241713864200,1.015141487,-0.863109708,10.24119759,-0.060220521,0.000399694,-0.007993874,-33,41,83,8,-9,-0.114921682,2.418143749,10.22443867,0.052759573,-0.02691271,0.037837673,11,36,-25,-24,49
1693678241714864200,1.016338587,-0.864306808,10.24359226,-0.060220521,0.000399694,-0.008127105,-30,39,84,2,-12,-0.113724582,2.420537949,10.22324085,0.0528928,-0.027312404,0.037837673,18,36,-34,-26,49
1693678241715864200,1.017535686,-0.861912608,10.24359226,-0.060353752,0.000266462,-0.007993874,-38,32,89,7,-5,-0.116118781,2.421735048,10.22324085,0.0528928,-0.027312404,0.038104136,15,43,-25,-21,49
1693678241716864200,1.015141487,-0.861912608,10.24359226,-0.060353752,0.000532925,-0.007993874,-31,43,84,10,-12,-0.116118781,2.421735048,10.22563553,0.052759573,-0.027179174,0.037970904,22,41,-27,-28,54
1693678241717864200,1.013944387,-0.861912608,10.24119759,-0.060353752,0.000532925,-0.007860643,-27,34,80,4,-11,-0.113724582,2.419340849,10.22443867,0.052759573,-0.027445635,0.037970904,20,39,-23,-19,54
1693678241772831200,1.019929886,-0.859518409,10.23760605,-0.060220521,0.000266462,-0.007460949,-22,41,85,6,-7,-0.113724582,2.428917646,10.22443867,0.052759573,-0.027445635,0.038104136,21,43,-25,-22,53
1693678241773831200,1.022324085,-0.85592711,10.23401546,-0.060220521,0.000133231,-0.007594181,-26,35,79,11,-13,-0.114921682,2.430114746,10.22683239,0.052759573,-0.027312404,0.038104136,15,35,-23,-27,55
1693678241774831200,1.023521185,-0.85592711,10.23281765,-0.060220521,0.000133231,-0.007594181,-27,41,85,2,-16,-0.116118781,2.428917646,10.22802925,0.0528928,-0.027045943,0.038237367,20,36,-18,-28,52
1693678241775831200,1.024718285,-0.858321309,10.23162079,-0.060220521,0.000133231,-0.007727412,-30,33,83,3,-9,-0.116118781,2.427720547,10.22563553,0.0528928,-0.027312404,0.038370594,15,35,-19,-26,49
1693678241776831200,1.023521185,-0.85592711,10.22802925,-0.060220521,0.000133231,-0.007727412,-26,42,88,6,-15,-0.113724582,2.425326347,10.22324085,0.0528928,-0.027312404,0.038237367,20,43,-17,-19,50
1693678241837134200,1.023521185,-0.848744512,10.23401546,-0.060353752,0.000399694,-0.008393568,-28,42,77,10,-12,-0.099359371,2.421735048,10.23401546,0.052759573,-0.027045943,0.038104136,14,44,-24,-22,44
1693678241838134200,1.021126986,-0.849941611,10.23521233,-0.060486984,0.000399694,-0.008393568,-30,41,84,9,-8,-0.10055647,2.422932148,10.23640919,0.053026035,-0.027045943,0.038104136,17,30,-25,-26,53
1693678241839134200,1.019929886,-0.849941611,10.23521233,-0.060486984,0.000266462,-0.008393568,-24,39,85,3,-15,-0.104147777,2.421735048,10.24119759,0.052759573,-0.027045943,0.037970904,17,44,-24,-26,52
1693678241840134200,1.018732786,-0.851138711,10.23640919,-0.060486984,0.000532925,-0.008260337,-24,39,83,7,-14,-0.10295067,2.421735048,10.24359226,0.052759573,-0.027045943,0.038104136,13,38,-20,-22,54
1693678241841134200,1.018732786,-0.851138711,10.23521233,-0.060620211,0.000266462,-0.008260337,-31,39,83,6,-15,-0.105344877,2.422932148,10.24598598,0.052626338,-0.027045943,0.038104136,20,41,-23,-19,55
1693678241896101700,1.013944387,-0.867898107,10.22084713,-0.060486984,-0.000133231,-0.008127105,-27,39,83,10,-17,-0.105344877,2.41335535,10.23521233,0.053159267,-0.027578866,0.038104136,18,38,-31,-29,49
1693678241897101700,1.013944387,-0.871489406,10.22324085,-0.060353752,-0.000133231,-0.008393568,-38,35,83,11,-9,-0.10055647,2.418143749,10.23760605,0.053292494,-0.027578866,0.037970904,22,32,-25,-24,50
1693678241898101700,1.015141487,-0.869095206,10.22443867,-0.060353752,0.000133231,-0.008393568,-24,43,88,8,-15,-0.10295067,2.420537949,10.24119759,0.053292494,-0.027578866,0.037970904,15,34,-23,-16,50
1693678241899101700,1.013944387,-0.865503907,10.22443867,-0.060353752,0.000133231,-0.008393568,-26,44,85,7,-12,-0.10295067,2.420537949,10.24359226,0.053292494,-0.027578866,0.038104136,9,43,-14,-19,55
1693678241900101700,1.012747288,-0.869095206,10.21845245,-0.060353752,0.000133231,-0.008526799,-30,34,83,-1,-15,-0.107739076,2.422932148,10.24478912,0.053159267,-0.027578866,0.037970904,11,43,-19,-20,53
1693678241955072900,1.028309584,-0.865503907,10.22563553,-0.059687596,0.000399694,-0.007993874,-26,41,83,4,-11,-0.120907187,2.421735048,10.21486187,0.052626338,-0.027712099,0.038237367,20,29,-17,-24,50
1693678241956072900,1.027112484,-0.861912608,10.22443867,-0.059820827,0.000266462,-0.007860643,-24,49,85,8,-3,-0.123301387,2.420537949,10.21246719,0.0528928,-0.027578866,0.038237367,16,32,-21,-20,54
1693678241957072900,1.027112484,-0.859518409,10.22204399,-0.059954058,0.000133231,-0.007993874,-27,35,80,6,-13,-0.119710088,2.420537949,10.20648193,0.053026035,-0.027445635,0.038104136,16,43,-17,-18,53
1693678241958072900,1.025915384,-0.857124209,10.22324085,-0.059954058,0.0,-0.007993874,-26,40,79,-2,-14,-0.122104287,2.421735048,10.21366405,0.0528928,-0.027312404,0.038104136,11,40,-19,-24,53
1693678241959072900,1.025915384,-0.859518409,10.22204399,-0.059954058,0.000133231,-0.008127105,-30,43,83,9,-13,-0.119710088,2.421735048,10.21366405,0.052759573,-0.027312404,0.038104136,17,33,-21,-18,45
1693678242022028500,1.016338587,-0.848744512,10.23401546,-0.060486984,0.000133231,-0.007727412,-27,41,85,12,-9,-0.105344877,2.421735048,10.21965027,0.052626338,-0.027312404,0.037704438,11,39,-23,-28,53
1693678242023028500,1.019929886,-0.848744512,10.23281765,-0.060353752,0.000133231,-0.007727412,-27,41,86,6,-12,-0.107739076,2.424129248,10.21725559,0.05249311,-0.027712099,0.037837673,19,46,-24,-23,48
1693678242024028500,1.019929886,-0.846350312,10.23162079,-0.060486984,0.000133231,-0.007727412,-28,39,83,10,-11,-0.107739076,2.424129248,10.21965027,0.05249311,-0.027578866,0.037704438,19,37,-25,-22,50
1693678242025028500,1.018732786,-0.843956113,10.23162079,-0.060486984,0.000133231,-0.007594181,-43,32,83,0,-15,-0.108936176,2.424129248,10.21845245,0.05249311,-0.027445635,0.03757121,13,39,-24,-19,49
1693678242026028500,1.017535686,-0.846350312,10.23162079,-0.060486984,0.0,-0.007460949,-23,42,81,2,-17,-0.111330383,2.424129248,10.21725559,0.052359879,-0.027445635,0.037437979,11,35,-24,-22,52
1693678242083995700,1.018732786,-0.849941611,10.24000072,-0.060753446,0.000133231,-0.007594181,-23,38,84,7,-7,-0.107739076,2.41694665,10.21965027,0.052626338,-0.027312404,0.038104136,19,35,-14,-18,52
1693678242084995700,1.017535686,-0.848744512,10.24000072,-0.060886677,0.000399694,-0.007727412,-27,37,76,6,-9,-0.105344877,2.41574955,10.22204399,0.052626338,-0.027312404,0.038104136,20,35,-20,-19,55
1693678242085995700,1.019929886,-0.85353291,10.23760605,-0.060886677,0.000399694,-0.007594181,-32,42,84,6,-11,-0.10175357,2.41574955,10.22324085,0.052626338,-0.027312404,0.037837673,15,34,-27,-24,48
1693678242086995700,1.022324085,-0.858321309,10.23640919,-0.060753446,0.000399694,-0.007327718,-30,43,85,6,-15,-0.099359371,2.41574955,10.22922707,0.052626338,-0.027578866,0.037837673,19,35,-25,-28,49
1693678242087995700,1.024718285,-0.857124209,10.23521233,-0.060753446,0.000399694,-0.007460949,-48,41,84,9,-15,-0.10055647,2.41574955,10.22802925,0.05249311,-0.027312404,0.037837673,9,40,-24,-26,49
1693678242142959900,1.015141487,-0.863109708,10.22084713,-0.060220521,0.000399694,-0.007061256,-20,36,80,3,-9,-0.107739076,2.41694665,10.21965027,0.05249311,-0.027845331,0.038237367,19,43,-25,-27,54
1693678242143959900,1.013944387,-0.864306808,10.22324085,-0.06008729,0.000266462,-0.007327718,-33,42,83,12,-11,-0.104147777,2.418143749,10.22563553,0.052626338,-0.027845331,0.038104136,15,56,-19,-14,60
1693678242144959900,1.015141487,-0.860715508,10.22204399,-0.059954058,0.000399694,-0.007327718,-30,37,80,7,-15,-0.104147777,2.419340849,10.22563553,0.052759573,-0.02797856,0.038104136,17,37,-27,-27,52
1693678242145959900,1.015141487,-0.858321309,10.22443867,-0.06008729,0.000399694,-0.007460949,-27,41,79,2,-16,-0.105344877,2.420537949,10.22922707,0.052759573,-0.02797856,0.038237367,15,34,-24,-30,50
1693678242146959900,1.017535686,-0.85592711,10.22443867,-0.06008729,0.000266462,-0.007594181,-27,37,84,4,-13,-0.104147777,2.421735048,10.22563553,0.0528928,-0.02797856,0.038370594,9,31,-28,-17,44
1693678242240902300,1.019929886,-0.860715508,10.24957752,-0.060486984,0.000666156,-0.007594181,-22,42,79,13,-10,-0.116118781,2.422932148,10.24239445,0.053026035,-0.027578866,0.038104136,18,31,-21,-27,52
1693678242241902300,1.019929886,-0.859518409,10.24838066,-0.060620211,0.000799387,-0.007727412,-22,34,80,4,-13,-0.111330383,2.421735048,10.24359226,0.053026035,-0.027845331,0.038370594,15,36,-22,-31,54
1693678242242902300,1.021126986,-0.866701007,10.24718285,-0.060620211,0.000799387,-0.007727412,-22,35,76,-3,-16,-0.111330383,2.420537949,10.24000072,0.0528928,-0.027845331,0.038237367,9,43,-21,-27,53
1693678242243902300,1.024718285,-0.865503907,10.24239445,-0.060620211,0.000666156,-0.007594181,-33,34,79,8,-18,-0.112527482,2.419340849,10.24000072,0.053159267,-0.027712099,0.038104136,20,31,-28,-24,49
1693678242244902300,1.024718285,-0.863109708,10.24359226,-0.060753446,0.000666156,-0.007460949,-30,33,84,2,-13,-0.117315881,2.419340849,10.24119759,0.053026035,-0.027445635,0.037837673,9,36,-29,-24,46
1693678242302866600,1.018732786,-0.863109708,10.23521233,-0.060886677,0.000399694,-0.007727412,-8,49,97,26,5,-0.111330383,2.418143749,10.22204399,0.052759573,-0.027712099,0.037837673,20,30,-22,-23,48
1693678242303866600,1.015141487,-0.864306808,10.24000072,-0.06115314,0.000532925,-0.007727412,-28,34,80,0,-18,-0.114921682,2.418143749,10.22084713,0.052759573,-0.027578866,0.037837673,20,39,-25,-17,50
1693678242304866600,1.011550188,-0.866701007,10.23760605,-0.06115314,0.000666156,-0.007727412,-32,33,75,3,-18,-0.116118781,2.418143749,10.22204399,0.052626338,-0.027445635,0.037704438,20,30,-29,-20,52
1693678242305866600,1.012747288,-0.865503907,10.23162079,-0.06115314,0.000666156,-0.007727412,-32,35,83,3,-16,-0.113724582,2.420537949,10.22204399,0.05249311,-0.027445635,0.03757121,17,31,-27,-28,50
1693678242306866600,1.011550188,-0.861912608,10.22563553,-0.061286367,0.000799387,-0.007594181,-26,36,83,3,-14,-0.112527482,2.421735048,10.22802925,0.05249311,-0.027312404,0.037437979,17,30,-24,-27,50
1693678242367843800,1.022324085,-0.860715508,10.21845245,-0.060620211,0.000666156,-0.007993874,-27,39,87,12,-12,-0.112527482,2.41694665,10.23521233,0.052626338,-0.02691271,0.03757121,20,35,-23,-23,51
1693678242368843800,1.025915384,-0.860715508,10.22443867,-0.060620211,0.000666156,-0.007860643,-27,39,84,7,-18,-0.110133275,2.418143749,10.24000072,0.052759573,-0.027045943,0.037704438,14,33,-27,-28,53
1693678242369843800,1.030703783,-0.860715508,10.22563553,-0.060620211,0.000932619,-0.007860643,-33,41,81,10,-15,-0.108936176,2.41694665,10.23880386,0.05249311,-0.02691271,0.037837673,11,42,-23,-27,50
1693678242370843800,1.028309584,-0.860715508,10.22922707,-0.060753446,0.000932619,-0.007727412,-28,49,87,14,-2,-0.110133275,2.41455245,10.23640919,0.052626338,-0.02691271,0.037704438,20,30,-29,-26,49
1693678242371843800,1.025915384,-0.861912608,10.22802925,-0.060620211,0.000932619,-0.007727412,-22,45,88,12,-11,-0.110133275,2.41574955,10.23640919,0.052626338,-0.026779478,0.037704438,15,37,-30,-24,52
1693678242429808200,1.018732786,-0.860715508,10.22204399,-0.060486984,0.001199081,-0.007993874,-28,42,89,11,-9,-0.108936176,2.425326347,10.23640919,0.051960181,-0.026646247,0.037704438,23,36,-16,-14,47
1693678242430808200,1.019929886,-0.859518409,10.22204399,-0.060486984,0.00106585,-0.007727412,-27,40,86,9,-14,-0.108936176,2.424129248,10.23521233,0.052359879,-0.026646247,0.03757121,20,35,-18,-18,53
1693678242431808200,1.018732786,-0.85592711,10.22443867,-0.060353752,0.00106585,-0.007727412,-27,37,87,8,-12,-0.108936176,2.422932148,10.23401546,0.05249311,-0.026513018,0.037437979,9,31,-24,-21,46
1693678242432808200,1.018732786,-0.85473001,10.23042393,-0.060220521,0.000932619,-0.007727412,-27,41,89,12,-7,-0.112527482,2.421735048,10.22802925,0.052626338,-0.026513018,0.037437979,10,35,-29,-30,44
1693678242433808200,1.022324085,-0.85473001,10.22802925,-0.060220521,0.000932619,-0.007860643,-24,48,83,8,-13,-0.112527482,2.419340849,10.22922707,0.052626338,-0.026646247,0.037437979,14,39,-27,-20,50
1693678242474781300,1.022324085,-0.852335811,10.23880386,-0.060886677,0.000666156,-0.008127105,-28,45,83,4,-15,-0.112527482,2.421735048,10.23042393,0.052093416,-0.027045943,0.037704438,20,37,-19,-27,49
1693678242475781300,1.019929886,-0.857124209,10.24000072,-0.060886677,0.000799387,-0.008127105,-23,41,83,11,-17,-0.112527482,2.422932148,10.22922707,0.052226644,-0.027045943,0.03757121,17,37,-21,-26,55
1693678242476781300,1.019929886,-0.85592711,10.24000072,-0.060886677,0.000799387,-0.007993874,-32,36,85,8,-13,-0.108936176,2.424129248,10.22922707,0.052226644,-0.027179174,0.037304748,19,40,-27,-31,50
1693678242477781300,1.017535686,-0.85473001,10.23640919,-0.061019909,0.000666156,-0.007993874,-23,36,80,7,-15,-0.106541976,2.424129248,10.23281765,0.052093416,-0.027045943,0.037437979,8,35,-18,-28,53
1693678242478781300,1.019929886,-0.85473001,10.23760605,-0.060886677,0.000799387,-0.007993874,-24,41,83,12,-11,-0.106541976,2.424129248,10.23521233,0.051960181,-0.027045943,0.03757121,20,35,-27,-26,52
1693678242540866100,1.029506683,-0.863109708,10.22922707,-0.060753446,0.000799387,-0.007993874,-32,41,84,8,-17,-0.113724582,2.422932148,10.23162079,0.053026035,-0.026779478,0.037704438,21,35,-20,-24,48
1693678242541866100,1.028309584,-0.864306808,10.23401546,-0.060620211,0.000799387,-0.007860643,-20,48,79,-1,-18,-0.114921682,2.421735048,10.22922707,0.053159267,-0.02691271,0.037837673,19,45,-24,-24,53
1693678242542866100,1.025915384,-0.863109708,10.23521233,-0.060353752,0.000666156,-0.008127105,-31,39,85,13,-12,-0.113724582,2.420537949,10.22802925,0.053292494,-0.027045943,0.037837673,10,31,-27,-24,52
1693678242543866100,1.024718285,-0.863109708,10.23521233,-0.060486984,0.000799387,-0.007993874,-30,41,80,12,-12,-0.113724582,2.418143749,10.22084713,0.053026035,-0.027045943,0.037970904,20,40,-27,-26,50
1693678242544866100,1.023521185,-0.863109708,10.23521233,-0.060620211,0.000666156,-0.007860643,-12,42,85,6,-7,-0.113724582,2.418143749,10.21845245,0.052759573,-0.02691271,0.037970904,20,45,-25,-19,55
1693678242622818700,1.024718285,-0.860715508,10.23640919,-0.06008729,0.000666156,-0.007860643,-30,35,80,6,-11,-0.117315881,2.430114746,10.21127033,0.05249311,-0.027179174,0.037837673,16,43,-25,-24,48
1693678242623818700,1.023521185,-0.852335811,10.24000072,-0.06008729,0.000532925,-0.007993874,-25,32,79,5,-13,-0.118512981,2.428917646,10.21007347,0.052626338,-0.027045943,0.037970904,10,35,-28,-37,40
1693678242624818700,1.025915384,-0.85592711,10.23880386,-0.059954058,0.000399694,-0.007993874,-31,39,87,6,-12,-0.116118781,2.427720547,10.20767879,0.0528928,-0.027179174,0.038104136,15,35,-17,-20,44
1693678242625818700,1.025915384,-0.852335811,10.23640919,-0.059954058,0.000399694,-0.008260337,-28,47,85,6,-15,-0.114921682,2.427720547,10.20887566,0.052759573,-0.027179174,0.038104136,11,35,-21,-20,53
1693678242626818700,1.023521185,-0.85473001,10.23521233,-0.059820827,0.000532925,-0.008393568,-31,32,89,6,-9,-0.116118781,2.427720547,10.20887566,0.052626338,-0.027312404,0.038104136,21,35,-24,-24,49
1693678242701773200,1.018732786,-0.858321309,10.23281765,-0.060353752,0.000532925,-0.008127105,-29,35,84,6,-11,-0.111330383,2.424129248,10.23760605,0.05249311,-0.027445635,0.038104136,20,37,-23,-22,55
1693678242702773200,1.022324085,-0.859518409,10.23281765,-0.060353752,0.000666156,-0.007993874,-31,38,75,6,-16,-0.108936176,2.419340849,10.23760605,0.05249311,-0.027312404,0.037970904,13,33,-24,-27,55
1693678242703773200,1.021126986,-0.860715508,10.22922707,-0.060353752,0.000532925,-0.007860643,-30,41,84,4,-13,-0.110133275,2.41694665,10.23760605,0.052759573,-0.027445635,0.037837673,17,40,-19,-22,55
1693678242704773200,1.022324085,-0.864306808,10.22922707,-0.060353752,0.000532925,-0.007860643,-27,38,81,2,-6,-0.113724582,2.41694665,10.24000072,0.0528928,-0.027712099,0.037837673,15,35,-24,-24,48
1693678242705773200,1.018732786,-0.866701007,10.22683239,-0.060353752,0.000532925,-0.007727412,-28,35,80,8,-15,-0.113724582,2.418143749,10.23760605,0.053026035,-0.027845331,0.037704438,20,33,-24,-20,55
1693678242766845300,1.016338587,-0.860715508,10.22683239,-0.060220521,-0.000133231,-0.007727412,-32,33,82,2,-18,-0.122104287,2.41694665,10.22802925,0.053692192,-0.028644716,0.038370594,10,33,-25,-27,45
1693678242767845300,1.017535686,-0.865503907,10.22802925,-0.060353752,-0.000133231,-0.007727412,-23,41,85,12,-9,-0.123301387,2.41574955,10.23401546,0.053692192,-0.028378254,0.038237367,15,36,-25,-24,48
1693678242768845300,1.022324085,-0.865503907,10.23162079,-0.060220521,0.0,-0.007860643,-30,38,79,6,-11,-0.124498487,2.41574955,10.23042393,0.053692192,-0.028378254,0.038237367,17,23,-25,-26,49
1693678242769845300,1.023521185,-0.864306808,10.22563553,-0.06008729,0.0,-0.007860643,-19,41,88,8,-12,-0.125695586,2.41694665,10.22922707,0.053825419,-0.028245023,0.038370594,19,37,-24,-20,55
1693678242770845300,1.025915384,-0.861912608,10.22683239,-0.060220521,0.000266462,-0.007860643,-33,32,87,7,-12,-0.122104287,2.418143749,10.22922707,0.053825419,-0.028245023,0.038370594,16,39,-29,-26,53
1693678242829809500,1.022324085,-0.857124209,10.22922707,-0.06008729,0.000799387,-0.007993874,-30,43,79,6,-16,-0.118512981,2.420537949,10.23162079,0.053159267,-0.02691271,0.037970904,17,30,-22,-27,48
1693678242830809500,1.021126986,-0.858321309,10.22683239,-0.059820827,0.000532925,-0.008127105,-28,39,80,6,-13,-0.116118781,2.421735048,10.23281765,0.053159267,-0.026779478,0.038104136,19,39,-18,-23,52
1693678242831809500,1.022324085,-0.860715508,10.22563553,-0.059954058,0.000532925,-0.007993874,-22,42,87,7,-13,-0.116118781,2.419340849,10.23640919,0.053159267,-0.026779478,0.037970904,18,36,-24,-27,55
1693678242832809500,1.021126986,-0.859518409,10.22802925,-0.06008729,0.000532925,-0.008127105,-28,33,85,2,-13,-0.116118781,2.41694665,10.23640919,0.0528928,-0.026779478,0.038104136,18,32,-21,-22,53
1693678242833809500,1.021126986,-0.857124209,10.23042393,-0.06008729,0.000532925,-0.008260337,-31,45,75,2,-15,-0.117315881,2.41455245,10.23162079,0.0528928,-0.026779478,0.037970904,22,37,-25,-24,52
1693678242886778100,1.022324085,-0.85592711,10.22324085,-0.059954058,-0.000133231,-0.007727412,-29,37,81,6,-18,-0.107739076,2.41335535,10.21845245,0.053292494,-0.028245023,0.038237367,19,35,-27,-27,55
1693678242887778100,1.024718285,-0.858321309,10.22563553,-0.06008729,0.0,-0.007727412,-27,37,87,7,-12,-0.108936176,2.41574955,10.21486187,0.053292494,-0.028111791,0.038104136,19,35,-19,-20,52
1693678242888778100,1.025915384,-0.857124209,10.22802925,-0.06008729,0.0,-0.007727412,-33,47,84,7,-13,-0.112527482,2.41455245,10.21366405,0.053425729,-0.02797856,0.038104136,20,46,-26,-21,55
1693678242889778100,1.025915384,-0.85353291,10.22563553,-0.059954058,0.000133231,-0.007727412,-27,42,78,2,-11,-0.114921682,2.41574955,10.21007347,0.053292494,-0.02797856,0.037970904,18,45,-21,-26,53
1693678242890778100,1.023521185,-0.85353291,10.22563553,-0.059820827,0.000133231,-0.007727412,-27,35,87,6,-14,-0.118512981,2.41455245,10.21246719,0.053292494,-0.027845331,0.037704438,14,34,-29,-20,51
1693678242947853300,1.025915384,-0.852335811,10.24239445,-0.060353752,0.000666156,-0.007860643,-26,44,79,7,-16,-0.124498487,2.427720547,10.22443867,0.052759573,-0.027845331,0.038104136,19,33,-23,-19,50
1693678242948853300,1.027112484,-0.848744512,10.24838066,-0.060220521,0.000799387,-0.007860643,-33,42,80,4,-11,-0.124498487,2.426523447,10.22563553,0.052759573,-0.027712099,0.038104136,20,32,-23,-18,48
1693678242949853300,1.027112484,-0.847547412,10.25077438,-0.060353752,0.000799387,-0.007860643,-26,46,83,10,-13,-0.126892686,2.427720547,10.22683239,0.052759573,-0.027845331,0.037970904,21,39,-20,-21,49
1693678242950853300,1.025915384,-0.848744512,10.24359226,-0.060353752,0.000666156,-0.007860643,-23,42,105,9,-11,-0.123301387,2.428917646,10.22802925,0.052759573,-0.027845331,0.037970904,15,36,-21,-24,52
1693678242951853300,1.028309584,-0.85353291,10.24000072,-0.060220521,0.000666156,-0.007727412,-30,45,79,6,-13,-0.124498487,2.427720547,10.22802925,0.052626338,-0.027712099,0.038237367,18,39,-33,-22,48
1693678243002821300,1.024718285,-0.859518409,10.23880386,-0.060486984,0.000666156,-0.007860643,-30,41,79,4,-18,-0.122104287,2.419340849,10.23281765,0.052759573,-0.027045943,0.038104136,17,31,-27,-26,51
1693678243003821300,1.023521185,-0.861912608,10.23401546,-0.060486984,0.000666156,-0.007993874,-33,38,89,10,-15,-0.123301387,2.418143749,10.23042393,0.052759573,-0.027045943,0.038237367,18,33,-21,-16,55
1693678243004821300,1.025915384,-0.859518409,10.23281765,-0.060486984,0.000399694,-0.007993874,-32,42,81,4,-13,-0.122104287,2.418143749,10.23162079,0.052759573,-0.027045943,0.038237367,19,43,-21,-25,53
1693678243005821300,1.028309584,-0.857124209,10.23162079,-0.060353752,0.000399694,-0.007993874,-26,34,90,4,-12,-0.122104287,2.420537949,10.22922707,0.052759573,-0.02691271,0.038237367,13,25,-28,-27,50
1693678243006821300,1.029506683,-0.858321309,10.22683239,-0.060353752,0.000532925,-0.007993874,-26,41,82,7,-16,-0.117315881,2.419340849,10.22802925,0.053026035,-0.027045943,0.038237367,18,35,-23,-24,49
1693678243065846700,1.016338587,-0.857124209,10.24838066,-0.060220521,0.000266462,-0.007860643,-27,39,84,2,-13,-0.106541976,2.420537949,10.23401546,0.052759573,-0.027445635,0.038104136,19,42,-20,-19,55
1693678243066846700,1.019929886,-0.85592711,10.24478912,-0.060220521,0.000399694,-0.007993874,-28,38,79,8,-12,-0.108936176,2.422932148,10.23640919,0.052626338,-0.027445635,0.038104136,19,33,-21,-23,54
1693678243067846700,1.021126986,-0.858321309,10.24000072,-0.060220521,0.000399694,-0.007993874,-31,45,80,3,-17,-0.110133275,2.422932148,10.23281765,0.052626338,-0.027445635,0.037970904,20,34,-25,-22,52
1693678243068846700,1.022324085,-0.860715508,10.24000072,-0.060220521,0.000399694,-0.007993874,-30,37,86,6,-16,-0.110133275,2.422932148,10.23042393,0.052626338,-0.027445635,0.037970904,9,35,-29,-28,48
1693678243069846700,1.023521185,-0.860715508,10.24359226,-0.060220521,0.000399694,-0.008127105,-27,33,84,6,-16,-0.110133275,2.424129248,10.22802925,0.052626338,-0.027578866,0.037837673,20,41,-24,-19,55
1693678243123809600,1.027112484,-0.851138711,10.23401546,-0.060353752,0.000266462,-0.007727412,-33,36,89,7,-13,-0.111330383,2.420537949,10.22324085,0.0528928,-0.027845331,0.037837673,22,43,-23,-20,52
1693678243124809600,1.025915384,-0.852335811,10.23521233,-0.060353752,0.000133231,-0.007727412,-31,40,83,10,-12,-0.111330383,2.420537949,10.22204399,0.0528928,-0.02797856,0.037837673,17,34,-22,-22,52
1693678243125809600,1.023521185,-0.85473001,10.23760605,-0.060353752,0.000133231,-0.007727412,-31,45,85,-5,-13,-0.111330383,2.41694665,10.22443867,0.052759573,-0.027845331,0.037970904,15,36,-19,-19,53
1693678243126809600,1.018732786,-0.858321309,10.23281765,-0.060220521,-0.000133231,-0.007594181,-30,39,73,7,-13,-0.107739076,2.41574955,10.22683239,0.052759573,-0.028111791,0.037970904,19,30,-24,-23,48
1693678243127809600,1.016338587,-0.860715508,10.23640919,-0.060220521,-0.000133231,-0.007860643,-31,41,81,1,-15,-0.107739076,2.41694665,10.22802925,0.052759573,-0.028111791,0.038237367,19,41,-21,-18,51
1693678243180778600,1.016338587,-0.857124209,10.23042393,-0.060353752,0.000932619,-0.007327718,-28,37,80,8,-16,-0.110133275,2.409764051,10.21007347,0.053159267,-0.027312404,0.038237367,-6,41,-28,-20,48
1693678243181778600,1.015141487,-0.858321309,10.23162079,-0.060486984,0.000799387,-0.007327718,-31,26,83,7,-16,-0.107739076,2.408566952,10.21007347,0.053292494,-0.027179174,0.038237367,11,43,-21,-20,52
1693678243182778600,1.016338587,-0.857124209,10.23281765,-0.060353752,0.000666156,-0.007327718,-33,40,83,6,-17,-0.104147777,2.408566952,10.21366405,0.053159267,-0.027179174,0.038237367,9,36,-24,-23,45
1693678243183778600,1.019929886,-0.857124209,10.23401546,-0.060486984,0.000799387,-0.007460949,-31,39,79,2,-15,-0.106541976,2.408566952,10.21246719,0.053159267,-0.027312404,0.038104136,11,34,-24,-26,52
1693678243184778600,1.019929886,-0.85473001,10.24000072,-0.060486984,0.000666156,-0.007460949,-30,35,83,0,-15,-0.106541976,2.410961151,10.21605873,0.053159267,-0.027312404,0.038104136,15,41,-23,-19,53
1693678243249738400,1.009155989,-0.863109708,10.23521233,-0.06008729,0.000799387,-0.007327718,-4,32,101,22,1,-0.107739076,2.41335535,10.23281765,0.053026035,-0.027445635,0.037704438,17,33,-25,-27,42
1693678243250738400,1.010353088,-0.864306808,10.24359226,-0.06008729,0.000532925,-0.007327718,-10,57,100,22,1,-0.107739076,2.41335535,10.22802925,0.053026035,-0.027312404,0.037704438,19,33,-28,-27,50
1693678243251738400,1.010353088,-0.863109708,10.24478912,-0.06008729,0.000532925,-0.007327718,-8,57,104,19,4,-0.108936176,2.412158251,10.22802925,0.053159267,-0.027312404,0.03757121,19,36,-19,-23,49
1693678243252738400,1.011550188,-0.860715508,10.24119759,-0.060220521,0.000399694,-0.007460949,-29,32,75,2,-2,-0.110133275,2.409764051,10.22922707,0.053159267,-0.027312404,0.03757121,20,33,-21,-20,55
1693678243253738400,1.009155989,-0.860715508,10.24119759,-0.060220521,0.000399694,-0.007460949,-7,61,107,25,10,-0.110133275,2.407369852,10.23042393,0.053026035,-0.027578866,0.037704438,19,44,-20,-18,53
1693678243319699500,1.025915384,-0.85353291,10.22802925,-0.060620211,0.000266462,-0.007727412,-26,33,74,6,-19,-0.099359371,2.419340849,10.21486187,0.053026035,-0.027445635,0.038104136,11,43,-27,-23,53
1693678243320699500,1.025915384,-0.85592711,10.22922707,-0.060620211,0.000266462,-0.007727412,-28,37,85,1,-11,-0.10055647,2.419340849,10.21486187,0.053159267,-0.027445635,0.038104136,17,42,-30,-24,31
1693678243321699500,1.028309584,-0.857124209,10.22683239,-0.060620211,0.000266462,-0.007594181,-32,30,80,6,-6,-0.10295067,2.419340849,10.21725559,0.053425729,-0.027578866,0.038370594,13,37,-25,-24,53
1693678243322699500,1.033097982,-0.857124209,10.22324085,-0.060486984,0.000399694,-0.007594181,-33,41,84,0,-17,-0.105344877,2.419340849,10.22084713,0.053292494,-0.027712099,0.038370594,15,39,-18,-23,52
1693678243323699500,1.030703783,-0.858321309,10.21845245,-0.060486984,0.000532925,-0.007594181,-31,37,88,1,-16,-0.105344877,2.419340849,10.22324085,0.053292494,-0.027712099,0.038370594,19,40,-20,-24,53
1693678243404648900,1.024718285,-0.867898107,10.24119759,-0.060353752,0.000133231,-0.007594181,-31,38,83,4,-15,-0.118512981,2.426523447,10.23162079,0.053026035,-0.028111791,0.038237367,16,32,-34,-22,49
1693678243405648900,1.024718285,-0.869095206,10.23880386,-0.060220521,0.000266462,-0.007594181,-19,43,79,7,-13,-0.119710088,2.424129248,10.23042393,0.0528928,-0.02797856,0.038370594,15,34,-24,-23,45
1693678243406648900,1.027112484,-0.866701007,10.24119759,-0.060220521,0.000266462,-0.007727412,-30,37,88,3,-15,-0.122104287,2.419340849,10.22802925,0.052759573,-0.02797856,0.038503829,17,35,-27,-20,55
1693678243407648900,1.028309584,-0.870292306,10.23401546,-0.060220521,0.000266462,-0.007860643,-33,43,79,2,-13,-0.118512981,2.41694665,10.22802925,0.052759573,-0.028111791,0.038370594,15,37,-15,-19,55
1693678243408648900,1.027112484,-0.870292306,10.23162079,-0.060220521,0.000266462,-0.007860643,-31,32,84,0,-18,-0.116118781,2.41694665,10.23162079,0.0528928,-0.028111791,0.038370594,18,37,-24,-22,53
1693678243498595700,1.023521185,-0.873883605,10.23880386,-0.060220521,0.000399694,-0.007993874,-27,42,83,10,-7,-0.112527482,2.420537949,10.21605873,0.052626338,-0.027578866,0.038104136,13,33,-22,-21,50
1693678243499595700,1.027112484,-0.870292306,10.23281765,-0.060353752,0.000399694,-0.007860643,-23,46,87,10,-5,-0.113724582,2.419340849,10.21366405,0.052626338,-0.027312404,0.038237367,20,35,-19,-19,55
1693678243500595700,1.030703783,-0.870292306,10.23401546,-0.060220521,0.000266462,-0.007860643,-24,42,89,11,-9,-0.113724582,2.418143749,10.21007347,0.052626338,-0.027179174,0.038237367,15,43,-27,-28,49
1693678243501595700,1.031900883,-0.867898107,10.23042393,-0.060353752,0.000266462,-0.007993874,-27,37,85,8,-9,-0.110133275,2.418143749,10.21486187,0.052626338,-0.027179174,0.038237367,23,45,-21,-18,51
1693678243502595700,1.035492182,-0.871489406,10.23521233,-0.060353752,0.000399694,-0.007727412,-24,37,87,8,-12,-0.110133275,2.41455245,10.21605873,0.052626338,-0.027312404,0.038104136,19,39,-23,-18,52
1693678243583546200,1.021126986,-0.865503907,10.24718285,-0.060753446,0.000532925,-0.007860643,-12,30,85,13,-13,-0.116118781,2.421735048,10.23521233,0.0528928,-0.027712099,0.038503829,20,31,-26,-18,49
1693678243584546200,1.019929886,-0.865503907,10.24478912,-0.060753446,0.000532925,-0.007993874,-29,46,84,12,-12,-0.116118781,2.421735048,10.23760605,0.052759573,-0.027578866,0.038503829,13,32,-21,-24,50
1693678243585546200,1.019929886,-0.866701007,10.24359226,-0.060753446,0.000532925,-0.007993874,-23,37,87,4,-14,-0.116118781,2.419340849,10.23401546,0.053026035,-0.027445635,0.038370594,17,40,-21,-20,56
1693678243586546200,1.019929886,-0.869095206,10.24119759,-0.060753446,0.000532925,-0.007993874,-27,38,79,6,-14,-0.117315881,2.419340849,10.23162079,0.0528928,-0.027578866,0.038370594,20,44,-20,-22,50
1693678243587546200,1.018732786,-0.870292306,10.24359226,-0.060753446,0.000399694,-0.008127105,-24,39,84,2,-11,-0.116118781,2.41694665,10.23042393,0.053026035,-0.027578866,0.038370594,14,35,-21,-22,50
1693678243650513900,1.030703783,-0.852335811,10.23760605,-0.060353752,0.000133231,-0.007327718,-22,46,89,11,-6,-0.120907187,2.41455245,10.22443867,0.053159267,-0.02797856,0.038104136,13,35,-20,-24,53
1693678243651513900,1.031900883,-0.85353291,10.23880386,-0.060353752,0.0,-0.007327718,-24,37,89,12,-7,-0.117315881,2.41455245,10.21965027,0.053026035,-0.027845331,0.037970904,18,41,-20,-22,55
1693678243652513900,1.031900883,-0.852335811,10.24478912,-0.060486984,-0.000133231,-0.007460949,-20,48,87,11,-11,-0.117315881,2.41574955,10.22683239,0.053026035,-0.02797856,0.038104136,21,39,-21,-17,52
1693678243653513900,1.030703783,-0.85473001,10.24119759,-0.060620211,-0.000133231,-0.007594181,-22,37,86,2,-9,-0.117315881,2.41574955,10.22802925,0.0528928,-0.028111791,0.037970904,18,45,-25,-22,54
1693678243654513900,1.034295082,-0.857124209,10.23401546,-0.060486984,-0.000133231,-0.007727412,-20,42,87,12,-9,-0.114921682,2.41694665,10.22802925,0.0528928,-0.02797856,0.037837673,15,42,-25,-27,49
1693678243705484400,1.024718285,-0.861912608,10.23401546,-0.060353752,0.000266462,-0.007727412,-23,32,81,6,-5,-0.118512981,2.419340849,10.22563553,0.052093416,-0.027445635,0.038237367,22,36,-23,-24,55
1693678243706484400,1.023521185,-0.860715508,10.23521233,-0.060486984,0.000266462,-0.007594181,-26,47,87,9,-11,-0.119710088,2.420537949,10.22324085,0.052226644,-0.027578866,0.038237367,20,43,-20,-24,55
1693678243707484400,1.023521185,-0.861912608,10.23521233,-0.060486984,0.000266462,-0.007594181,-20,38,90,6,-8,-0.119710088,2.418143749,10.22204399,0.052093416,-0.027578866,0.038237367,19,35,-19,-22,52
1693678243708484400,1.024718285,-0.865503907,10.23401546,-0.060353752,0.000266462,-0.007460949,-24,42,87,6,-11,-0.118512981,2.41455245,10.22084713,0.052226644,-0.027578866,0.038104136,20,34,-25,-22,52
1693678243709484400,1.024718285,-0.866701007,10.22922707,-0.060353752,0.000266462,-0.007194487,-24,42,83,6,-9,-0.119710088,2.41335535,10.22204399,0.052226644,-0.027578866,0.038104136,13,41,-28,-27,46
1693678243778441200,1.016338587,-0.852335811,10.23281765,-0.060220521,0.000399694,-0.007327718,-28,35,79,3,-9,-0.117315881,2.421735048,10.22204399,0.052759573,-0.027712099,0.037837673,21,39,-25,-22,49
1693678243779441200,1.015141487,-0.85592711,10.23401546,-0.060220521,0.000399694,-0.007327718,-28,41,83,2,-12,-0.116118781,2.421735048,10.22683239,0.052626338,-0.027712099,0.037704438,17,45,-17,-28,54
1693678243780441200,1.015141487,-0.85353291,10.23760605,-0.060220521,0.000399694,-0.007327718,-25,38,85,9,-12,-0.113724582,2.422932148,10.22563553,0.0528928,-0.027845331,0.037704438,9,43,-27,-27,52
1693678243781441200,1.015141487,-0.857124209,10.24000072,-0.060353752,0.000399694,-0.007460949,-24,41,87,-1,-11,-0.114921682,2.424129248,10.22683239,0.0528928,-0.027712099,0.03757121,20,41,-19,-29,48
1693678243782441200,1.017535686,-0.859518409,10.23760605,-0.060486984,0.000532925,-0.007460949,-26,41,85,10,-9,-0.112527482,2.422932148,10.22443867,0.0528928,-0.027578866,0.03757121,17,41,-24,-26,50
1693678243844403900,1.019929886,-0.85473001,10.23760605,-0.060486984,0.000133231,-0.007327718,-23,38,88,8,-7,-0.126892686,2.426523447,10.22683239,0.053026035,-0.027845331,0.037970904,16,39,-18,-27,52
1693678243845403900,1.018732786,-0.859518409,10.23521233,-0.060486984,0.000266462,-0.007460949,-27,44,85,10,-11,-0.126892686,2.425326347,10.22683239,0.053026035,-0.02797856,0.037970904,22,41,-27,-22,55
1693678243846403900,1.015141487,-0.857124209,10.23521233,-0.060220521,0.000266462,-0.007460949,-62,41,79,8,-12,-0.124498487,2.424129248,10.22683239,0.053026035,-0.02797856,0.038104136,20,36,-23,-28,55
1693678243847403900,1.011550188,-0.861912608,10.23401546,-0.060353752,0.000399694,-0.007460949,-26,45,83,11,-11,-0.123301387,2.421735048,10.22802925,0.0528928,-0.027845331,0.038104136,11,30,-25,-26,51
1693678243848403900,1.013944387,-0.860715508,10.23521233,-0.060220521,0.000399694,-0.007327718,-22,38,88,10,-11,-0.119710088,2.422932148,10.22922707,0.0528928,-0.027845331,0.038237367,17,36,-19,-22,53
1693678243906366900,1.022324085,-0.846350312,10.23880386,-0.06008729,0.000266462,-0.007327718,-23,37,84,8,-11,-0.113724582,2.419340849,10.21366405,0.053026035,-0.027712099,0.03757121,16,41,-25,-21,44
1693678243907366900,1.022324085,-0.843956113,10.24239445,-0.06008729,0.000399694,-0.007327718,-28,42,84,6,-15,-0.113724582,2.418143749,10.21127033,0.053159267,-0.027712099,0.03757121,22,36,-20,-20,48
1693678243908366900,1.022324085,-0.845153213,10.23760605,-0.060220521,0.000399694,-0.007327718,-27,41,80,4,-11,-0.112527482,2.419340849,10.21246719,0.053159267,-0.027712099,0.037437979,14,40,-22,-23,49
1693678243909366900,1.022324085,-0.843956113,10.23880386,-0.06008729,0.000532925,-0.007194487,-19,40,84,10,-11,-0.110133275,2.420537949,10.21366405,0.053159267,-0.027712099,0.03757121,14,35,-24,-29,52
1693678243910366900,1.022324085,-0.840364814,10.24119759,-0.059954058,0.000399694,-0.007327718,-22,45,81,6,-9,-0.110133275,2.419340849,10.21486187,0.053026035,-0.027578866,0.037704438,17,32,-24,-24,52
1693678243968331900,1.015141487,-0.852335811,10.22683239,-0.060753446,0.000399694,-0.007327718,-27,41,89,9,-11,-0.118512981,2.41335535,10.22563553,0.05249311,-0.027845331,0.038370594,18,37,-20,-20,43
1693678243969331900,1.017535686,-0.849941611,10.23401546,-0.060486984,0.000399694,-0.007327718,-27,37,81,4,-22,-0.122104287,2.419340849,10.22324085,0.052359879,-0.027845331,0.038237367,19,39,-21,-20,55
1693678243970331900,1.019929886,-0.852335811,10.23521233,-0.060753446,0.000399694,-0.007594181,-26,42,85,2,-13,-0.120907187,2.419340849,10.22922707,0.052359879,-0.027845331,0.038237367,19,39,-25,-22,52
1693678243971331900,1.019929886,-0.852335811,10.23880386,-0.060753446,0.000666156,-0.007460949,-24,49,85,11,-12,-0.119710088,2.424129248,10.22802925,0.052626338,-0.027845331,0.038104136,16,36,-20,-29,50
1693678243972331900,1.019929886,-0.851138711,10.23521233,-0.060753446,0.000799387,-0.007327718,-22,45,90,7,-6,-0.118512981,2.421735048,10.22802925,0.052626338,-0.027845331,0.037970904,19,30,-21,-22,45
1693678244036292500,1.025915384,-0.857124209,10.22683239,-0.060220521,0.000532925,-0.007594181,-26,41,86,7,-12,-0.116118781,2.41574955,10.22084713,0.052759573,-0.027712099,0.038370594,17,41,-20,-19,58
1693678244037292500,1.027112484,-0.85592711,10.22922707,-0.060220521,0.000666156,-0.007594181,-24,41,80,12,-13,-0.118512981,2.419340849,10.22204399,0.052759573,-0.027712099,0.038237367,6,43,-28,-27,53
1693678244038292500,1.022324085,-0.857124209,10.23162079,-0.060486984,0.000799387,-0.007594181,-24,43,84,10,-9,-0.118512981,2.419340849,10.22683239,0.052759573,-0.027445635,0.038237367,20,36,-22,-27,52
1693678244039292500,1.022324085,-0.85592711,10.23401546,-0.060486984,0.000799387,-0.007460949,-24,46,88,4,-8,-0.117315881,2.418143749,10.23162079,0.0528928,-0.027578866,0.038104136,13,36,-22,-26,45
1693678244040292500,1.025915384,-0.85592711,10.23162079,-0.060486984,0.000799387,-0.007727412,-23,47,84,12,-14,-0.118512981,2.41694665,10.23042393,0.0528928,-0.027445635,0.038104136,21,36,-27,-18,52
1693678244099257800,1.031900883,-0.864306808,10.23640919,-0.06008729,0.000399694,-0.007460949,-26,39,81,7,-9,-0.114921682,2.410961151,10.22443867,0.0528928,-0.02797856,0.038237367,20,44,-25,-26,55
1693678244100257800,1.031900883,-0.864306808,10.23401546,-0.06008729,0.000532925,-0.007460949,-24,41,85,8,-7,-0.116118781,2.412158251,10.21965027,0.0528928,-0.02797856,0.038237367,11,37,-25,-25,52
1693678244101257800,1.028309584,-0.863109708,10.23760605,-0.060220521,0.000666156,-0.007460949,-27,38,81,13,-12,-0.113724582,2.409764051,10.22084713,0.0528928,-0.027712099,0.038237367,10,36,-21,-27,53
1693678244102257800,1.028309584,-0.863109708,10.23880386,-0.060220521,0.000532925,-0.007594181,-27,38,90,7,-11,-0.110133275,2.41335535,10.22084713,0.0528928,-0.027845331,0.038237367,13,40,-21,-22,54
1693678244103257800,1.027112484,-0.863109708,10.23521233,-0.060220521,0.000666156,-0.007727412,-21,46,86,10,-9,-0.111330383,2.41694665,10.22204399,0.0528928,-0.027712099,0.038104136,16,36,-27,-19,52
1693678244169216100,1.025915384,-0.85592711,10.23640919,-0.060486984,0.000399694,-0.007860643,-30,42,76,8,-15,-0.114921682,2.424129248,10.22204399,0.052759573,-0.027445635,0.038104136,15,35,-27,-22,52
1693678244170216100,1.023521185,-0.857124209,10.23401546,-0.060486984,0.000399694,-0.007860643,-13,53,95,22,5,-0.113724582,2.419340849,10.21965027,0.052626338,-0.027445635,0.037970904,15,35,-22,-23,49
1693678244171216100,1.028309584,-0.861912608,10.23640919,-0.060353752,0.000399694,-0.007860643,-10,64,104,22,7,-0.113724582,2.418143749,10.21605873,0.05249311,-0.027578866,0.037970904,18,43,-18,-24,52
1693678244172216100,1.024718285,-0.859518409,10.24119759,-0.060486984,0.000399694,-0.007860643,-27,52,69,13,-14,-0.114921682,2.41694665,10.21366405,0.052759573,-0.027712099,0.037837673,20,40,-24,-20,55
1693678244173216100,1.023521185,-0.859518409,10.24478912,-0.060486984,0.000399694,-0.007727412,-12,64,100,28,11,-0.114921682,2.421735048,10.21246719,0.052759573,-0.027712099,0.037704438,20,43,-20,-15,54
1693678244250170900,1.015141487,-0.85473001,10.24119759,-0.060353752,0.000399694,-0.007727412,-26,35,82,-2,-15,-0.112527482,2.426523447,10.22204399,0.0528928,-0.027578866,0.038104136,15,33,-21,-24,54
1693678244251170900,1.015141487,-0.85353291,10.24359226,-0.060353752,0.000399694,-0.007727412,-28,41,85,2,-9,-0.112527482,2.425326347,10.22204399,0.053026035,-0.027445635,0.038104136,17,39,-19,-30,50
1693678244252170900,1.017535686,-0.85473001,10.24478912,-0.060353752,0.000532925,-0.007860643,-28,42,81,6,-9,-0.112527482,2.424129248,10.22084713,0.053159267,-0.027445635,0.038237367,19,45,-27,-22,52
1693678244253170900,1.017535686,-0.85353291,10.24598598,-0.060220521,0.000532925,-0.007860643,-26,36,85,8,-14,-0.112527482,2.422932148,10.22084713,0.0528928,-0.027445635,0.038104136,15,43,-19,-19,55
1693678244254170900,1.018732786,-0.851138711,10.24598598,-0.060220521,0.000399694,-0.007993874,-33,42,79,6,-13,-0.111330383,2.422932148,10.22443867,0.0528928,-0.027445635,0.038104136,18,34,-24,-26,55
1693678244328127000,1.012747288,-0.85353291,10.23760605,-0.060486984,0.000266462,-0.007727412,-31,43,104,11,-9,-0.111330383,2.41694665,10.22922707,0.052759573,-0.027578866,0.037970904,19,42,-28,-24,49
1693678244329127000,1.013944387,-0.85473001,10.24000072,-0.060353752,0.000266462,-0.007727412,-28,43,88,13,-12,-0.108936176,2.418143749,10.23042393,0.052626338,-0.027445635,0.038104136,18,39,-22,-21,50
1693678244330127000,1.012747288,-0.85592711,10.24239445,-0.060353752,0.000399694,-0.007594181,-28,46,91,13,-3,-0.107739076,2.419340849,10.23042393,0.052626338,-0.027578866,0.037837673,14,44,-19,-18,54
1693678244331127000,1.015141487,-0.85592711,10.24239445,-0.060353752,0.000399694,-0.007594181,-28,43,86,12,-13,-0.106541976,2.420537949,10.22922707,0.05249311,-0.027445635,0.037837673,20,30,-29,-22,48
1693678244332127000,1.015141487,-0.85592711,10.24000072,-0.060220521,0.000399694,-0.007727412,-30,41,87,7,-12,-0.106541976,2.420537949,10.22683239,0.05249311,-0.027312404,0.037837673,13,37,-20,-24,53
1693678244389090200,1.028309584,-0.864306808,10.23760605,-0.060486984,0.000666156,-0.007460949,-28,42,86,8,-14,-0.108936176,2.41574955,10.23281765,0.052626338,-0.027578866,0.038104136,14,45,-22,-23,47
1693678244390090200,1.027112484,-0.865503907,10.23521233,-0.060353752,0.000799387,-0.007594181,-31,39,84,13,-13,-0.112527482,2.41335535,10.23401546,0.052626338,-0.027578866,0.038104136,17,36,-31,-26,54
1693678244391090200,1.024718285,-0.865503907,10.23880386,-0.060486984,0.000666156,-0.007460949,-19,55,89,8,-9,-0.114921682,2.41455245,10.23281765,0.0528928,-0.027578866,0.038237367,20,33,-19,-19,58
1693678244392090200,1.022324085,-0.860715508,10.24000072,-0.060486984,0.000532925,-0.007727412,-26,46,80,16,-9,-0.116118781,2.41335535,10.23401546,0.052759573,-0.027578866,0.038370594,10,39,-21,-22,49
1693678244393090200,1.027112484,-0.860715508,10.24000072,-0.060486984,0.000532925,-0.007594181,-24,39,89,8,-11,-0.117315881,2.41335535,10.23281765,0.052759573,-0.027312404,0.038370594,15,35,-24,-21,52
1693678244449058300,1.019929886,-0.85592711,10.23401546,-0.060620211,0.000666156,-0.007727412,-26,43,80,11,-7,-0.107739076,2.41335535,10.23281765,0.052759573,-0.027712099,0.038237367,13,35,-24,-18,53
1693678244450058300,1.019929886,-0.85592711,10.23401546,-0.060620211,0.000532925,-0.007727412,-20,41,88,12,-9,-0.104147777,2.412158251,10.23162079,0.052759573,-0.027578866,0.038370594,20,46,-22,-18,55
1693678244451058300,1.021126986,-0.85592711,10.23401546,-0.060886677,0.000532925,-0.007993874,-22,47,76,13,-11,-0.10175357,2.410961151,10.23521233,0.052759573,-0.027578866,0.038370594,20,46,-22,-20,57
1693678244452058300,1.019929886,-0.857124209,10.23401546,-0.061019909,0.000666156,-0.007993874,-28,43,85,11,-9,-0.099359371,2.410961151,10.23401546,0.052759573,-0.027578866,0.038370594,14,36,-28,-28,52
1693678244453058300,1.017535686,-0.85592711,10.23162079,-0.060886677,0.000666156,-0.007993874,-28,41,83,2,-11,-0.098162271,2.410961151,10.23401546,0.052759573,-0.027312404,0.038370594,10,39,-27,-30,45
1693678244508021900,1.023521185,-0.859518409,10.22563553,-0.060486984,0.000133231,-0.008393568,-22,44,86,6,-10,-0.106541976,2.420537949,10.22324085,0.0528928,-0.027712099,0.038503829,20,43,-19,-17,54
1693678244509021900,1.023521185,-0.860715508,10.22683239,-0.060486984,0.000133231,-0.008393568,-23,37,85,11,-7,-0.108936176,2.420537949,10.22683239,0.0528928,-0.027712099,0.038637057,20,46,-23,-22,48
1693678244510021900,1.022324085,-0.861912608,10.23162079,-0.060353752,0.000133231,-0.008393568,-28,45,85,11,-12,-0.108936176,2.422932148,10.22563553,0.052759573,-0.027712099,0.038503829,19,43,-18,-22,52
1693678244511021900,1.023521185,-0.860715508,10.22922707,-0.060353752,0.000133231,-0.008393568,-26,38,89,13,-13,-0.108936176,2.422932148,10.22683239,0.052759573,-0.027445635,0.038370594,19,39,-18,-20,48
1693678244512021900,1.021126986,-0.860715508,10.23162079,-0.060353752,0.000133231,-0.008660031,-24,39,83,8,-12,-0.110133275,2.422932148,10.22443867,0.0528928,-0.027578866,0.038237367,20,37,-21,-27,53
1693678244568988200,1.022324085,-0.866701007,10.24478912,-0.060620211,0.000266462,-0.007993874,-24,42,86,11,-7,-0.113724582,2.41335535,10.22324085,0.052626338,-0.027312404,0.038104136,14,39,-21,-22,55
1693678244569988200,1.021126986,-0.864306808,10.24359226,-0.060753446,0.000266462,-0.007993874,-27,47,89,18,-8,-0.114921682,2.41335535,10.22922707,0.052759573,-0.027445635,0.037970904,20,34,-25,-18,50
1693678244570988200,1.022324085,-0.865503907,10.24478912,-0.060753446,0.000133231,-0.007993874,-27,46,87,2,-9,-0.111330383,2.41694665,10.22563553,0.0528928,-0.027445635,0.037970904,19,33,-24,-24,68
1693678244571988200,1.022324085,-0.863109708,10.24598598,-0.060753446,0.000266462,-0.007860643,-31,43,85,8,-10,-0.112527482,2.418143749,10.22563553,0.0528928,-0.027445635,0.037837673,15,35,-24,-23,46
1693678244572988200,1.017535686,-0.858321309,10.24359226,-0.060753446,0.000266462,-0.007860643,-28,35,84,7,-13,-0.110133275,2.418143749,10.23162079,0.052759573,-0.027179174,0.037837673,17,30,-21,-22,48
1693678244634949800,1.015141487,-0.857124209,10.24359226,-0.060486984,0.000532925,-0.007727412,-25,41,87,9,-7,-0.119710088,2.418143749,10.21965027,0.053292494,-0.027445635,0.037970904,17,35,-21,-22,52
1693678244635949800,1.013944387,-0.860715508,10.24119759,-0.060620211,0.000666156,-0.007594181,-28,51,83,7,-5,-0.120907187,2.420537949,10.22324085,0.053159267,-0.027578866,0.037970904,20,35,-27,-24,65
1693678244636949800,1.019929886,-0.861912608,10.24119759,-0.060753446,0.000532925,-0.007727412,-24,47,83,6,-11,-0.118512981,2.418143749,10.22204399,0.053159267,-0.027578866,0.038104136,17,39,-24,-19,58
1693678244637949800,1.022324085,-0.863109708,10.24119759,-0.060620211,0.000666156,-0.007594181,-28,41,82,12,-15,-0.117315881,2.419340849,10.22084713,0.053159267,-0.027578866,0.038104136,17,37,-27,-22,54
1693678244638949800,1.025915384,-0.865503907,10.24000072,-0.060753446,0.000532925,-0.007594181,-27,35,88,12,-12,-0.116118781,2.420537949,10.22084713,0.0528928,-0.027578866,0.038104136,15,36,-19,-22,54
1693678244689918400,1.025915384,-0.859518409,10.24718285,-0.060220521,0.0,-0.007594181,-24,35,83,13,-8,-0.117315881,2.420537949,10.23760605,0.0528928,-0.027445635,0.038503829,20,36,-21,-20,50
1693678244690918400,1.024718285,-0.858321309,10.25197124,-0.060353752,-0.000266462,-0.007594181,-31,38,83,10,-12,-0.117315881,2.418143749,10.23640919,0.053026035,-0.027578866,0.038370594,20,39,-25,-21,55
1693678244691918400,1.025915384,-0.857124209,10.24838066,-0.060220521,-0.000133231,-0.007594181,-27,37,84,6,-9,-0.118512981,2.418143749,10.23880386,0.053026035,-0.027578866,0.038370594,19,35,-25,-31,49
1693678244692918400,1.025915384,-0.857124209,10.24239445,-0.06008729,0.0,-0.007460949,-30,38,84,8,-16,-0.118512981,2.41694665,10.23640919,0.053026035,-0.027445635,0.038370594,18,39,-21,-19,50
1693678244693918400,1.027112484,-0.858321309,10.23880386,-0.059954058,-0.000133231,-0.007460949,-28,40,79,10,-9,-0.116118781,2.420537949,10.23521233,0.0528928,-0.027312404,0.038237367,12,41,-21,-21,54
1693678244759878700,1.016338587,-0.864306808,10.24119759,-0.06008729,0.000133231,-0.007594181,-28,33,86,10,-8,-0.113724582,2.41574955,10.23401546,0.053026035,-0.027578866,0.038237367,19,43,-28,-22,50
1693678244760878700,1.016338587,-0.861912608,10.24478912,-0.06008729,0.000133231,-0.007594181,-24,47,86,7,-9,-0.114921682,2.409764051,10.23162079,0.053292494,-0.027845331,0.038237367,18,36,-20,-24,51
1693678244761878700,1.021126986,-0.863109708,10.24478912,-0.059954058,0.0,-0.007594181,-28,45,84,10,-13,-0.113724582,2.407369852,10.23401546,0.053026035,-0.027712099,0.038237367,19,30,-23,-21,49
1693678244762878700,1.022324085,-0.864306808,10.24598598,-0.059954058,0.000133231,-0.007460949,-32,36,83,2,-12,-0.111330383,2.409764051,10.23281765,0.053159267,-0.027845331,0.038104136,14,40,-21,-16,52
1693678244763878700,1.024718285,-0.864306808,10.24598598,-0.059954058,0.000133231,-0.007460949,-24,47,90,6,-11,-0.110133275,2.410961151,10.23521233,0.053292494,-0.027845331,0.038104136,19,44,-15,-19,55
1693678244825840300,1.022324085,-0.860715508,10.23640919,-0.060353752,0.000133231,-0.007727412,-22,39,89,11,-4,-0.118512981,2.41455245,10.23760605,0.0528928,-0.027845331,0.037970904,20,43,-30,-20,54
1693678244826840300,1.022324085,-0.858321309,10.24359226,-0.060486984,0.0,-0.007727412,-28,46,93,8,-13,-0.114921682,2.418143749,10.24000072,0.052759573,-0.027578866,0.037970904,20,45,-21,-21,52
1693678244827840300,1.023521185,-0.859518409,10.24239445,-0.060353752,0.000133231,-0.007860643,-28,38,87,4,-8,-0.116118781,2.418143749,10.24119759,0.0528928,-0.027578866,0.037970904,14,41,-28,-27,50
1693678244828840300,1.022324085,-0.859518409,10.23760605,-0.060353752,0.0,-0.007727412,-26,41,88,3,-13,-0.117315881,2.421735048,10.24239445,0.052759573,-0.027578866,0.038104136,20,37,-20,-27,50
1693678244829840300,1.022324085,-0.859518409,10.23281765,-0.060353752,0.0,-0.007460949,-21,41,84,8,-13,-0.117315881,2.422932148,10.23640919,0.052759573,-0.027712099,0.037970904,18,43,-21,-18,52
1693678244885807200,1.018732786,-0.864306808,10.24000072,-0.060753446,0.000133231,-0.007460949,-14,39,84,5,-9,-0.111330383,2.420537949,10.23521233,0.053026035,-0.028245023,0.037970904,19,33,-22,-21,55
1693678244886807200,1.019929886,-0.866701007,10.23521233,-0.060620211,0.0,-0.007460949,-36,42,82,5,-5,-0.107739076,2.418143749,10.23760605,0.053026035,-0.028245023,0.038104136,17,43,-22,-22,49
1693678244887807200,1.018732786,-0.866701007,10.23401546,-0.060620211,-0.000133231,-0.007460949,-27,41,83,8,-13,-0.108936176,2.420537949,10.23401546,0.053159267,-0.028111791,0.038370594,14,33,-24,-22,55
1693678244888807200,1.021126986,-0.865503907,10.23760605,-0.060620211,0.0,-0.007460949,-22,38,87,9,-12,-0.105344877,2.424129248,10.23162079,0.053026035,-0.028111791,0.038237367,20,37,-27,-19,52
1693678244889807200,1.017535686,-0.869095206,10.23640919,-0.060753446,0.0,-0.007460949,-27,43,74,6,-11,-0.106541976,2.425326347,10.23521233,0.052759573,-0.028111791,0.038104136,19,43,-24,-19,54
1693678244948769300,1.021126986,-0.864306808,10.24718285,-0.060486984,0.000399694,-0.007594181,-21,46,85,8,-9,-0.117315881,2.419340849,10.23880386,0.0528928,-0.028111791,0.038237367,9,35,-29,-22,52
1693678244949769300,1.022324085,-0.865503907,10.24359226,-0.060486984,0.000399694,-0.007594181,-31,37,85,10,-7,-0.113724582,2.418143749,10.23521233,0.052626338,-0.027845331,0.038370594,19,30,-24,-23,50
1693678244950769300,1.021126986,-0.865503907,10.24000072,-0.060486984,0.000399694,-0.007594181,-20,45,87,7,-9,-0.114921682,2.420537949,10.23401546,0.05249311,-0.027845331,0.038237367,20,36,-28,-30,54
1693678244951769300,1.024718285,-0.864306808,10.23760605,-0.060486984,0.000266462,-0.007594181,-32,42,83,12,-15,-0.112527482,2.420537949,10.23401546,0.05249311,-0.027712099,0.038237367,25,45,-20,-22,53
1693678244952769300,1.023521185,-0.864306808,10.24000072,-0.060486984,0.000266462,-0.007727412,-30,49,77,6,-15,-0.114921682,2.420537949,10.23521233,0.05249311,-0.027445635,0.038237367,13,37,-23,-20,54
1693678245009738700,1.030703783,-0.865503907,10.23640919,-0.060620211,0.000532925,-0.007993874,-26,43,83,4,-11,-0.113724582,2.41574955,10.22324085,0.0528928,-0.027712099,0.037970904,13,40,-20,-24,48
1693678245010738700,1.030703783,-0.867898107,10.23760605,-0.060486984,0.000666156,-0.008127105,-26,38,88,12,-9,-0.108936176,2.41335535,10.21965027,0.052759573,-0.027845331,0.037837673,15,32,-22,-21,50
1693678245011738700,1.027112484,-0.871489406,10.24119759,-0.060620211,0.000666156,-0.007993874,-30,37,89,10,-7,-0.108936176,2.41335535,10.21605873,0.052759573,-0.027712099,0.037970904,19,36,-23,-23,54
1693678245012738700,1.024718285,-0.870292306,10.24239445,-0.060620211,0.000666156,-0.007993874,-31,39,90,11,-11,-0.108936176,2.41574955,10.21725559,0.052759573,-0.027845331,0.037970904,26,45,-17,-14,55
1693678245013738700,1.024718285,-0.870292306,10.24838066,-0.060620211,0.000799387,-0.007993874,-27,37,76,8,-9,-0.111330383,2.41455245,10.21845245,0.052759573,-0.027578866,0.037837673,22,39,-17,-22,50
1693678245067702300,1.021126986,-0.85592711,10.24718285,-0.060620211,0.00106585,-0.008127105,-35,43,83,3,-15,-0.107739076,2.422932148,10.22802925,0.052626338,-0.027045943,0.038104136,13,36,-21,-23,49
1693678245068702300,1.018732786,-0.85592711,10.23640919,-0.060620211,0.00106585,-0.008127105,-24,38,85,13,-9,-0.108936176,2.424129248,10.22802925,0.052626338,-0.027312404,0.038104136,17,45,-25,-22,52
1693678245069702300,1.015141487,-0.85473001,10.24000072,-0.060486984,0.00106585,-0.008127105,-14,43,87,8,-11,-0.110133275,2.421735048,10.22922707,0.05249311,-0.027312404,0.037970904,12,41,-20,-24,54
1693678245070702300,1.013944387,-0.85473001,10.23521233,-0.060486984,0.000932619,-0.007993874,-23,44,81,3,-5,-0.107739076,2.424129248,10.23401546,0.05249311,-0.027179174,0.038104136,20,35,-17,-26,52
1693678245071702300,1.017535686,-0.85592711,10.23760605,-0.060353752,0.000932619,-0.008127105,-28,37,84,12,-9,-0.107739076,2.424129248,10.23401546,0.052359879,-0.027045943,0.038237367,20,40,-21,-23,55
1693678245134663500,1.018732786,-0.865503907,10.22683239,-0.060353752,0.000399694,-0.007860643,-29,43,88,7,-14,-0.120907187,2.421735048,10.22324085,0.0528928,-0.027312404,0.038237367,22,40,-28,-20,54
1693678245135663500,1.017535686,-0.866701007,10.22563553,-0.060353752,0.000399694,-0.007860643,-25,38,87,8,-9,-0.118512981,2.420537949,10.21965027,0.0528928,-0.027179174,0.038237367,11,36,-19,-23,55
1693678245136663500,1.021126986,-0.866701007,10.22084713,-0.060220521,0.000532925,-0.007993874,-14,62,104,28,11,-0.117315881,2.419340849,10.21725559,0.0528928,-0.027179174,0.038370594,20,46,-14,-16,55
1693678245137663500,1.019929886,-0.865503907,10.21965027,-0.060220521,0.000532925,-0.007993874,-4,67,104,28,12,-0.118512981,2.418143749,10.21605873,0.0528928,-0.027312404,0.038503829,20,39,-21,-20,54
1693678245138663500,1.018732786,-0.865503907,10.22084713,-0.059954058,0.000399694,-0.007993874,-15,53,101,19,2,-0.114921682,2.41694665,10.21725559,0.0528928,-0.027312404,0.038370594,20,35,-21,-23,52
1693678245238603600,1.007958889,-0.866701007,10.22802925,-0.060220521,0.000399694,-0.007727412,-28,34,85,11,-12,-0.111330383,2.424129248,10.23521233,0.053026035,-0.028111791,0.03757121,21,39,-23,-21,58
1693678245239603600,1.009155989,-0.859518409,10.22683239,-0.060486984,0.000266462,-0.007594181,-30,45,86,7,-12,-0.111330383,2.421735048,10.23521233,0.053026035,-0.028111791,0.03757121,19,40,-20,-20,54
1693678245240603600,1.007958889,-0.859518409,10.22802925,-0.060486984,0.000266462,-0.007594181,-24,46,87,3,-8,-0.113724582,2.421735048,10.23162079,0.053026035,-0.028245023,0.037704438,20,51,-21,-16,53
1693678245241603600,1.009155989,-0.859518409,10.23162079,-0.060353752,0.000266462,-0.007594181,-31,42,77,7,-9,-0.114921682,2.419340849,10.22802925,0.053026035,-0.02797856,0.037970904,9,36,-27,-27,51
1693678245242603600,1.011550188,-0.858321309,10.22922707,-0.060353752,0.000266462,-0.007460949,-27,42,87,11,-12,-0.114921682,2.419340849,10.22922707,0.053026035,-0.028111791,0.037970904,20,30,-25,-23,51
1693678245390517100,1.024718285,-0.846350312,10.22922707,-0.060753446,0.000266462,-0.007727412,-28,42,83,10,-11,-0.108936176,2.419340849,10.23281765,0.0528928,-0.027578866,0.038104136,18,35,-17,-20,55
1693678245391517100,1.023521185,-0.847547412,10.23162079,-0.060753446,0.000399694,-0.007594181,-24,49,90,9,-4,-0.111330383,2.420537949,10.23401546,0.052759573,-0.027578866,0.037837673,18,45,-22,-20,55
1693678245392517100,1.022324085,-0.847547412,10.23281765,-0.060753446,0.000266462,-0.007860643,-28,41,84,8,-9,-0.113724582,2.420537949,10.23640919,0.0528928,-0.027578866,0.037970904,21,43,-21,-17,53
1693678245393517100,1.019929886,-0.845153213,10.23521233,-0.060753446,0.000266462,-0.007727412,-33,41,83,13,-16,-0.116118781,2.422932148,10.23760605,0.0528928,-0.027578866,0.037837673,20,41,-19,-20,54
1693678245394517100,1.021126986,-0.845153213,10.23281765,-0.060753446,0.000266462,-0.007594181,-27,41,81,13,-12,-0.116118781,2.424129248,10.23521233,0.0528928,-0.027712099,0.037970904,15,33,-22,-27,45
1693678245487461300,1.021126986,-0.859518409,10.21845245,-0.060486984,0.000399694,-0.007727412,-22,47,90,6,-7,-0.110133275,2.410961151,10.22922707,0.05249311,-0.027845331,0.03757121,17,49,-18,-19,50
1693678245488461300,1.019929886,-0.860715508,10.22324085,-0.060620211,0.000399694,-0.007594181,-16,47,90,10,-13,-0.108936176,2.410961151,10.22922707,0.05249311,-0.027712099,0.037437979,18,41,-20,-19,55
1693678245489461300,1.021126986,-0.863109708,10.22443867,-0.060620211,0.000532925,-0.007594181,-20,41,81,6,-9,-0.110133275,2.41455245,10.23521233,0.052759573,-0.027712099,0.03757121,22,43,-22,-22,51
1693678245490461300,1.022324085,-0.863109708,10.22683239,-0.060753446,0.000532925,-0.007727412,-24,38,84,8,-9,-0.107739076,2.41574955,10.23760605,0.052759573,-0.027712099,0.03757121,20,44,-24,-22,53
1693678245491461300,1.019929886,-0.860715508,10.22922707,-0.060620211,0.000532925,-0.007727412,-21,43,87,8,-12,-0.104147777,2.41574955,10.23401546,0.052759573,-0.027578866,0.03757121,11,36,-21,-21,50
1693678245686468900,1.022324085,-0.866701007,10.22324085,-0.060753446,-0.000133231,-0.007727412,-27,48,85,8,-16,-0.117315881,2.41335535,10.21127033,0.05249311,-0.027712099,0.038104136,15,36,-17,-22,66
1693678245687468900,1.018732786,-0.864306808,10.22084713,-0.060753446,-0.000133231,-0.007727412,-24,39,87,3,-12,-0.119710088,2.41455245,10.21127033,0.052626338,-0.027712099,0.038237367,21,35,-18,-22,55
1693678245688468900,1.017535686,-0.861912608,10.21965027,-0.060753446,-0.000133231,-0.007860643,-32,42,83,11,-12,-0.116118781,2.412158251,10.21366405,0.052759573,-0.027712099,0.037970904,20,42,-25,-20,53
1693678245689468900,1.021126986,-0.863109708,10.21366405,-0.060753446,-0.000133231,-0.007727412,-32,43,87,12,-15,-0.117315881,2.41335535,10.21605873,0.052759573,-0.027712099,0.037970904,20,37,-27,-22,54
1693678245690468900,1.022324085,-0.863109708,10.21486187,-0.060753446,0.0,-0.007860643,-24,32,89,7,-9,-0.117315881,2.41694665,10.21965027,0.052759573,-0.027578866,0.037970904,10,40,-21,-22,53
1693678245840006500,1.016338587,-0.851138711,10.22563553,-0.060753446,0.000532925,-0.007993874,-26,37,83,11,-12,-0.113724582,2.412158251,10.22563553,0.052359879,-0.027578866,0.038237367,20,47,-19,-18,55
1693678245841006500,1.013944387,-0.852335811,10.22443867,-0.060753446,0.000532925,-0.007860643,-30,45,87,10,-9,-0.117315881,2.408566952,10.22683239,0.052359879,-0.027712099,0.038237367,10,40,-18,-19,55
1693678245842006500,1.017535686,-0.852335811,10.22683239,-0.060753446,0.000399694,-0.007860643,-32,42,84,7,-11,-0.116118781,2.410961151,10.22204399,0.052359879,-0.027445635,0.038237367,15,39,-25,-18,50
1693678245843006500,1.016338587,-0.85353291,10.22683239,-0.061019909,0.000532925,-0.007993874,-30,43,83,6,-18,-0.114921682,2.410961151,10.22324085,0.052359879,-0.027578866,0.038237367,14,39,-28,-22,53
1693678245844006500,1.017535686,-0.849941611,10.22802925,-0.06115314,0.000532925,-0.007993874,-28,45,90,8,-7,-0.114921682,2.410961151,10.23042393,0.05249311,-0.027712099,0.038237367,10,35,-21,-22,55
1693678245931952100,1.022324085,-0.858321309,10.23760605,-0.06008729,0.000266462,-0.007594181,-24,44,90,6,-11,-0.113724582,2.421735048,10.23162079,0.0528928,-0.027712099,0.038237367,18,37,-21,-19,72
1693678245932952100,1.027112484,-0.858321309,10.23281765,-0.06008729,0.000133231,-0.007594181,-28,41,84,2,-12,-0.113724582,2.424129248,10.23162079,0.052759573,-0.027845331,0.038237367,17,33,-21,-24,55
1693678245933952100,1.025915384,-0.860715508,10.22922707,-0.06008729,0.000133231,-0.007460949,-20,37,84,6,-13,-0.114921682,2.420537949,10.23162079,0.052759573,-0.027712099,0.038237367,13,32,-21,-20,55
1693678245934952100,1.025915384,-0.860715508,10.23042393,-0.060220521,0.000133231,-0.007727412,-28,42,89,13,-11,-0.113724582,2.421735048,10.23162079,0.0528928,-0.027578866,0.038237367,13,33,-20,-23,52
1693678245935952100,1.024718285,-0.860715508,10.22802925,-0.060220521,0.000399694,-0.007727412,-24,47,85,10,-7,-0.114921682,2.418143749,10.23162079,0.052759573,-0.027445635,0.038237367,18,47,-19,-16,55
1693678246023899400,1.024718285,-0.857124209,10.23880386,-0.060486984,0.000399694,-0.007594181,-22,43,86,7,-13,-0.117315881,2.418143749,10.22324085,0.053026035,-0.027578866,0.038104136,19,33,-28,-20,56
1693678246024899400,1.025915384,-0.85592711,10.24119759,-0.060353752,0.000399694,-0.007727412,-33,35,89,7,-12,-0.119710088,2.418143749,10.22324085,0.0528928,-0.027445635,0.038104136,17,44,-19,-24,55
1693678246025899400,1.025915384,-0.85473001,10.24000072,-0.060620211,0.000399694,-0.007993874,-30,39,89,7,-9,-0.119710088,2.41335535,10.22563553,0.0528928,-0.027312404,0.037970904,17,42,-24,-22,53
1693678246026899400,1.028309584,-0.857124209,10.23760605,-0.060620211,0.000399694,-0.007993874,-25,41,87,8,-8,-0.119710088,2.410961151,10.22802925,0.0528928,-0.027179174,0.037837673,20,42,-21,-19,54
1693678246027899400,1.028309584,-0.858321309,10.23760605,-0.060620211,0.000266462,-0.008127105,-24,42,79,10,-9,-0.118512981,2.410961151,10.22922707,0.0528928,-0.027179174,0.037970904,20,40,-19,-17,55
1693678246113850200,1.017535686,-0.851138711,10.23281765,-0.060486984,0.000666156,-0.007727412,-30,40,88,10,-11,-0.112527482,2.41335535,10.23760605,0.05249311,-0.027578866,0.037970904,19,30,-24,-21,55
1693678246114850200,1.015141487,-0.851138711,10.23162079,-0.060486984,0.000532925,-0.007860643,-24,43,84,-1,-15,-0.110133275,2.41694665,10.24119759,0.05249311,-0.027578866,0.037970904,15,43,-27,-20,51
1693678246115850200,1.011550188,-0.852335811,10.22922707,-0.060353752,0.000666156,-0.007993874,-22,42,83,6,-12,-0.111330383,2.418143749,10.24239445,0.05249311,-0.027578866,0.037970904,17,37,-25,-23,54
1693678246116850200,1.010353088,-0.852335811,10.23042393,-0.060353752,0.000666156,-0.007860643,-31,39,85,9,-12,-0.110133275,2.419340849,10.24359226,0.05249311,-0.027845331,0.037970904,20,37,-20,-20,54
1693678246117850200,1.013944387,-0.85473001,10.23281765,-0.060620211,0.000532925,-0.007727412,-24,45,81,13,-5,-0.113724582,2.422932148,10.24598598,0.05249311,-0.028111791,0.037970904,20,43,-19,-19,55
1693678246205795600,1.021126986,-0.85473001,10.24359226,-0.060353752,0.00106585,-0.008260337,-23,46,85,10,-13,-0.10295067,2.418143749,10.23401546,0.052759573,-0.027712099,0.038370594,20,35,-21,-20,54
1693678246206795600,1.021126986,-0.85473001,10.24000072,-0.060353752,0.001199081,-0.008127105,-32,43,87,6,-11,-0.10055647,2.422932148,10.23521233,0.0528928,-0.027445635,0.038370594,15,40,-25,-23,50
1693678246207795600,1.016338587,-0.85473001,10.23640919,-0.060486984,0.001199081,-0.007993874,-20,41,89,6,-9,-0.10055647,2.422932148,10.23281765,0.0528928,-0.027312404,0.038370594,19,43,-20,-19,55
1693678246208795600,1.012747288,-0.857124209,10.23640919,-0.060486984,0.001199081,-0.007993874,-27,33,87,11,-13,-0.10295067,2.422932148,10.23042393,0.052759573,-0.027312404,0.038104136,15,43,-24,-22,54
1693678246209795600,1.013944387,-0.85353291,10.23880386,-0.060620211,0.001199081,-0.007860643,-21,43,88,12,-11,-0.105344877,2.425326347,10.22922707,0.0528928,-0.027445635,0.038237367,19,41,-23,-20,54
1693678246333726100,1.013944387,-0.857124209,10.23162079,-0.06008729,0.000399694,-0.007594181,-23,33,81,10,-14,-0.108936176,2.419340849,10.22683239,0.052626338,-0.027045943,0.038104136,20,44,-21,-18,55
1693678246334726100,1.015141487,-0.85592711,10.23162079,-0.06008729,0.000266462,-0.007727412,-28,37,91,0,-13,-0.113724582,2.418143749,10.22922707,0.052359879,-0.027045943,0.037837673,15,40,-16,-20,54
1693678246335726100,1.017535686,-0.85473001,10.23521233,-0.060220521,0.000399694,-0.007727412,-23,42,88,6,-9,-0.111330383,2.41574955,10.23042393,0.052359879,-0.027045943,0.037970904,13,32,-20,-26,52
1693678246336726100,1.018732786,-0.852335811,10.24000072,-0.060220521,0.000399694,-0.007727412,-27,41,85,11,-7,-0.107739076,2.41574955,10.22922707,0.05249311,-0.027045943,0.037970904,20,40,-24,-20,48
1693678246337726100,1.016338587,-0.85353291,10.24239445,-0.060220521,0.000532925,-0.007594181,-23,46,85,12,-5,-0.111330383,2.41335535,10.22683239,0.05249311,-0.027045943,0.038104136,18,37,-19,-24,52
1693678246420673800,1.027112484,-0.866701007,10.23760605,-0.060753446,0.000399694,-0.007860643,-27,41,85,8,-15,-0.099359371,2.418143749,10.22922707,0.052226644,-0.027179174,0.037970904,17,34,-21,-19,55
1693678246421673800,1.028309584,-0.863109708,10.24000072,-0.060620211,0.000266462,-0.007860643,-27,37,88,6,-12,-0.10055647,2.419340849,10.22683239,0.052359879,-0.027045943,0.038104136,19,39,-20,-24,53
1693678246422673800,1.025915384,-0.861912608,10.24239445,-0.060620211,0.000399694,-0.007860643,-24,42,87,12,-12,-0.10175357,2.419340849,10.22443867,0.05249311,-0.027179174,0.037970904,17,43,-25,-27,50
1693678246423673800,1.029506683,-0.859518409,10.24119759,-0.060753446,0.000399694,-0.007993874,-27,42,89,7,-8,-0.106541976,2.420537949,10.22443867,0.05249311,-0.027179174,0.037837673,19,33,-23,-17,54
1693678246424673800,1.034295082,-0.857124209,10.23401546,-0.060753446,0.000266462,-0.007727412,-28,40,89,10,-8,-0.106541976,2.41694665,10.22563553,0.052359879,-0.027445635,0.037837673,20,33,-27,-23,55
1693678246505623100,1.024718285,-0.858321309,10.21965027,-0.060353752,0.000399694,-0.008127105,-19,37,87,10,-13,-0.106541976,2.420537949,10.24239445,0.052359879,-0.027312404,0.038237367,20,35,-26,-23,76
1693678246506623100,1.023521185,-0.860715508,10.22324085,-0.060353752,0.000266462,-0.008127105,-28,38,79,9,-12,-0.107739076,2.419340849,10.24000072,0.052359879,-0.027312404,0.038104136,15,40,-18,-26,49
1693678246507623100,1.022324085,-0.859518409,10.21845245,-0.060353752,0.000266462,-0.007993874,-22,41,83,7,-9,-0.111330383,2.418143749,10.23281765,0.052359879,-0.027312404,0.038237367,13,36,-23,-18,49
1693678246508623100,1.023521185,-0.859518409,10.22084713,-0.060353752,0.000266462,-0.008127105,-19,48,87,9,-8,-0.112527482,2.419340849,10.23162079,0.05249311,-0.027312404,0.038237367,20,39,-18,-22,54
1693678246509623100,1.025915384,-0.858321309,10.22802925,-0.060353752,0.000532925,-0.008127105,-26,41,87,6,-9,-0.111330383,2.420537949,10.23281765,0.052359879,-0.027312404,0.038237367,20,37,-19,-20,53
1693678246579581100,1.016338587,-0.863109708,10.23760605,-0.059954058,0.000266462,-0.007727412,-24,41,83,10,-15,-0.111330383,2.41455245,10.23042393,0.05249311,-0.02797856,0.038237367,15,39,-24,-20,50
1693678246580581100,1.015141487,-0.861912608,10.23880386,-0.06008729,0.000266462,-0.007727412,-31,44,81,12,-7,-0.112527482,2.41574955,10.22922707,0.052626338,-0.02797856,0.038237367,20,33,-25,-26,50
1693678246581581100,1.012747288,-0.864306808,10.24119759,-0.059954058,0.000133231,-0.007727412,-24,37,90,9,-11,-0.111330383,2.41574955,10.22922707,0.05249311,-0.02797856,0.038237367,19,41,-25,-24,55
1693678246582581100,1.013944387,-0.861912608,10.24359226,-0.059954058,0.000133231,-0.007727412,-23,45,90,8,-11,-0.111330383,2.41574955,10.22922707,0.052759573,-0.02797856,0.038237367,13,37,-9,-20,54
1693678246583581100,1.016338587,-0.861912608,10.24239445,-0.06008729,0.000266462,-0.007460949,-28,41,80,11,-12,-0.113724582,2.41574955,10.22922707,0.052759573,-0.028111791,0.038237367,19,45,-21,-17,56
1693678246655537700,1.023521185,-0.858321309,10.23162079,-0.060486984,0.000666156,-0.007727412,-27,35,95,16,5,-0.116118781,2.420537949,10.23521233,0.052759573,-0.028111791,0.038104136,13,43,-21,-22,55
1693678246656537700,1.022324085,-0.858321309,10.23162079,-0.060620211,0.000532925,-0.007594181,0,64,105,30,11,-0.114921682,2.419340849,10.23521233,0.052759573,-0.027845331,0.038104136,20,35,-27,-22,51
1693678246657537700,1.023521185,-0.858321309,10.22922707,-0.060620211,0.000532925,-0.007860643,-5,58,103,30,11,-0.117315881,2.41694665,10.23162079,0.052759573,-0.027578866,0.038237367,20,41,-21,-26,55
1693678246658537700,1.022324085,-0.858321309,10.23281765,-0.060620211,0.000666156,-0.007727412,-4,59,103,27,7,-0.118512981,2.41574955,10.23281765,0.052759573,-0.027445635,0.038237367,17,45,-24,-19,55
1693678246659537700,1.021126986,-0.860715508,10.23162079,-0.060353752,0.000799387,-0.007727412,-26,43,81,2,-15,-0.119710088,2.418143749,10.23162079,0.052626338,-0.027445635,0.038370594,17,42,-31,-18,51
1693678246734492800,1.021126986,-0.857124209,10.23281765,-0.060353752,0.000666156,-0.007993874,-7,57,55,22,15,-0.120907187,2.418143749,10.23640919,0.0528928,-0.027845331,0.038104136,13,35,-20,-26,47
1693678246735492800,1.022324085,-0.857124209,10.23162079,-0.060486984,0.000799387,-0.007993874,-4,61,105,28,11,-0.122104287,2.419340849,10.23760605,0.0528928,-0.027712099,0.038104136,20,39,-20,-15,54
1693678246736492800,1.024718285,-0.857124209,10.23401546,-0.060486984,0.000799387,-0.008127105,-1,63,107,23,11,-0.120907187,2.420537949,10.23281765,0.052759573,-0.027712099,0.038104136,20,44,-22,-16,55
1693678246737492800,1.025915384,-0.858321309,10.23760605,-0.060486984,0.000932619,-0.007993874,-20,49,87,9,-13,-0.120907187,2.422932148,10.23640919,0.052759573,-0.027712099,0.037970904,21,44,-19,-14,55
1693678246738492800,1.027112484,-0.859518409,10.23760605,-0.060620211,0.000799387,-0.007860643,-30,40,83,7,-15,-0.123301387,2.424129248,10.23640919,0.052626338,-0.027712099,0.038104136,20,34,-18,-20,51
1693678246829437900,1.024718285,-0.858321309,10.23281765,-0.060753446,0.000666156,-0.007460949,-22,44,84,7,-13,-0.124498487,2.418143749,10.24000072,0.053159267,-0.027578866,0.038104136,15,36,-23,-24,69
1693678246830437900,1.024718285,-0.861912608,10.23281765,-0.060753446,0.000399694,-0.007194487,-27,38,87,9,-12,-0.120907187,2.41694665,10.23880386,0.053159267,-0.027712099,0.037970904,20,46,-24,-20,53
1693678246831437900,1.022324085,-0.863109708,10.22922707,-0.060620211,0.000399694,-0.007194487,-30,48,85,11,-7,-0.119710088,2.41574955,10.24000072,0.053026035,-0.027712099,0.038104136,16,40,-23,-18,55
1693678246832437900,1.023521185,-0.861912608,10.22683239,-0.060620211,0.000266462,-0.007194487,-28,42,81,7,-4,-0.122104287,2.41335535,10.23760605,0.053026035,-0.027445635,0.038104136,18,40,-17,-19,55
1693678246833437900,1.022324085,-0.863109708,10.22802925,-0.060620211,0.000266462,-0.007327718,-27,45,85,8,-9,-0.120907187,2.41455245,10.23162079,0.0528928,-0.027578866,0.038104136,14,40,-21,-20,55
1693678246903396400,1.028309584,-0.859518409,10.23760605,-0.060353752,0.0,-0.007860643,-7,53,109,29,12,-0.114921682,2.41694665,10.23042393,0.0528928,-0.02691271,0.038503829,17,33,-23,-19,54
1693678246904396400,1.028309584,-0.861912608,10.23760605,-0.060353752,0.000266462,-0.007860643,-26,45,87,10,-4,-0.116118781,2.41574955,10.23042393,0.053026035,-0.027179174,0.038503829,18,36,-23,-22,49
1693678246905396400,1.027112484,-0.863109708,10.23760605,-0.060353752,0.000133231,-0.007993874,-31,35,85,1,-15,-0.112527482,2.419340849,10.22922707,0.052759573,-0.027179174,0.038503829,19,39,-14,-27,55
1693678246906396400,1.030703783,-0.863109708,10.23880386,-0.060353752,0.000266462,-0.007993874,-24,43,85,8,-12,-0.112527482,2.421735048,10.22204399,0.052759573,-0.027045943,0.038370594,11,35,-23,-21,55
1693678246907396400,1.030703783,-0.863109708,10.23760605,-0.060486984,0.000266462,-0.007860643,-28,42,84,2,-9,-0.113724582,2.422932148,10.21486187,0.052759573,-0.027179174,0.038503829,16,33,-25,-23,52
1693678247022327900,1.018732786,-0.861912608,10.24957752,-0.060620211,0.000532925,-0.007327718,-22,43,79,10,-4,-0.120907187,2.41455245,10.20887566,0.05249311,-0.027045943,0.038770292,24,41,-19,-24,55
1693678247023327900,1.022324085,-0.860715508,10.25077438,-0.060486984,0.000666156,-0.007327718,-29,36,84,11,-9,-0.119710088,2.41574955,10.21007347,0.052359879,-0.027045943,0.038637057,19,40,-24,-21,54
1693678247024327900,1.022324085,-0.858321309,10.24359226,-0.060486984,0.000666156,-0.007327718,-24,41,85,12,-13,-0.119710088,2.418143749,10.21246719,0.052626338,-0.027045943,0.038637057,20,40,-25,-24,55
1693678247025327900,1.023521185,-0.857124209,10.23760605,-0.060620211,0.000799387,-0.007460949,-29,43,78,2,-16,-0.122104287,2.41574955,10.21127033,0.052626338,-0.027312404,0.038503829,20,35,-21,-20,52
1693678247026327900,1.023521185,-0.857124209,10.23640919,-0.060620211,0.000666156,-0.007327718,-32,43,84,6,-13,-0.119710088,2.41455245,10.21007347,0.052626338,-0.027312404,0.038503829,9,32,-27,-24,50
1693678247119271800,1.029506683,-0.860715508,10.23401546,-0.060353752,0.000266462,-0.007460949,-22,31,89,6,-7,-0.116118781,2.422932148,10.23880386,0.053026035,-0.027445635,0.038370594,15,38,-17,-22,54
1693678247120271800,1.027112484,-0.859518409,10.22922707,-0.060353752,0.000133231,-0.007327718,-24,42,85,7,-11,-0.116118781,2.420537949,10.23521233,0.053026035,-0.027445635,0.038370594,19,43,-17,-20,55
1693678247121271800,1.024718285,-0.860715508,10.22683239,-0.060220521,0.000133231,-0.007327718,-28,43,83,8,-13,-0.117315881,2.418143749,10.23042393,0.053026035,-0.027578866,0.038237367,15,45,-24,-20,52
1693678247122271800,1.021126986,-0.863109708,10.22922707,-0.060353752,-0.000133231,-0.007460949,-44,35,87,4,-12,-0.114921682,2.419340849,10.23162079,0.0528928,-0.027578866,0.038503829,20,42,-19,-18,51
1693678247123271800,1.017535686,-0.864306808,10.23162079,-0.060220521,0.0,-0.007460949,-23,45,89,12,-11,-0.112527482,2.419340849,10.23042393,0.0528928,-0.027578866,0.038503829,20,37,-27,-20,54
1693678247214217200,1.028309584,-0.85592711,10.23162079,-0.060620211,0.000532925,-0.007460949,-24,42,83,13,-9,-0.10055647,2.41335535,10.22922707,0.052626338,-0.027712099,0.037970904,21,45,-17,-18,54
1693678247215217200,1.028309584,-0.85592711,10.23281765,-0.060620211,0.000532925,-0.007460949,-22,41,86,12,-15,-0.106541976,2.412158251,10.22922707,0.05249311,-0.027712099,0.037970904,19,42,-20,-17,53
