,timestamp,left_data_Ac_X,left_data_Ac_Y,left_data_Ac_Z,left_data_Gy_X,left_data_Gy_Y,left_data_Gy_Z,left_data_flex_1,left_data_flex_2,left_data_flex_3,left_data_flex_4,left_data_flex_5
0,1693677675551448100,1.031900883,-0.85473001,10.25436592,-0.061819296,-0.001332312,-0.008393568,-23,45,89,4,-9
1,1693677675552448100,1.030703783,-0.858321309,10.26154804,-0.061686065,-0.001332312,-0.008526799,-27,51,94,23,13
2,1693677675553448100,1.029506683,-0.858321309,10.26274586,-0.061686065,-0.001465544,-0.008660031,-33,46,90,5,-12
3,1693677675554448100,1.022324085,-0.85353291,10.24957752,-0.061952524,-0.001199081,-0.008793262,-22,38,80,15,3
4,1693677675555448100,1.022324085,-0.85353291,10.24838066,-0.062085759,-0.001332312,-0.008793262,-20,47,78,17,4
0,1693677675589426000,1.025915384,-0.858321309,10.26274586,-0.062485453,-0.001865237,-0.007860643,-27,43,83,5,-12
1,1693677675590426000,1.027112484,-0.852335811,10.26633644,-0.062352221,-0.001732006,-0.007993874,-27,42,86,13,-9
2,1693677675591426000,1.027112484,-0.852335811,10.26873112,-0.062218986,-0.001998469,-0.007993874,-23,34,85,4,-8
3,1693677675592426000,1.025915384,-0.847547412,10.26394272,-0.062485453,-0.001998469,-0.008127105,-27,46,84,8,-13
4,1693677675593426000,1.024718285,-0.849941611,10.25795746,-0.062352221,-0.001865237,-0.008127105,-26,38,90,4,-5
0,1693677675623406400,1.025915384,-0.852335811,10.26035118,-0.062218986,-0.001732006,-0.008260337,-27,41,85,6,-5
1,1693677675624406400,1.024718285,-0.85473001,10.26394272,-0.061952524,-0.001732006,-0.008260337,-24,39,84,10,-10
2,1693677675625406400,1.023521185,-0.85353291,10.25915432,-0.061952524,-0.001865237,-0.007993874,-18,45,87,10,-4
3,1693677675626406400,1.025915384,-0.85473001,10.25915432,-0.061952524,-0.001865237,-0.007993874,-3,65,104,28,14
4,1693677675627406400,1.025915384,-0.858321309,10.25915432,-0.061952524,-0.001998469,-0.007993874,-27,42,83,11,-8
0,1693677675652389400,1.039083481,-0.858321309,10.25316906,-0.061952524,-0.001598775,-0.008393568,-22,45,83,10,-9
1,1693677675653389400,1.04147768,-0.858321309,10.25077438,-0.062085759,-0.001598775,-0.008260337,-23,45,88,6,-7
2,1693677675654389400,1.036689281,-0.860715508,10.25316906,-0.062085759,-0.001598775,-0.008127105,-28,35,90,3,-12
3,1693677675655389400,1.034295082,-0.859518409,10.25077438,-0.062085759,-0.001598775,-0.008127105,-26,44,88,11,-10
4,1693677675656389400,1.031900883,-0.857124209,10.24957752,-0.062218986,-0.001332312,-0.008127105,-31,37,84,4,-15
0,1693677675672378000,1.024718285,-0.860715508,10.24359226,-0.062218986,-0.000932619,-0.008127105,-27,46,89,8,-11
1,1693677675673378000,1.027112484,-0.860715508,10.24119759,-0.062218986,-0.00106585,-0.007993874,-23,45,83,11,-6
2,1693677675674378000,1.027112484,-0.860715508,10.24838066,-0.062218986,-0.001199081,-0.008127105,-3,64,105,27,14
3,1693677675675378000,1.024718285,-0.859518409,10.25316906,-0.062218986,-0.001199081,-0.008127105,-1,60,107,29,11
4,1693677675676378000,1.024718285,-0.859518409,10.25795746,-0.062218986,-0.001199081,-0.008127105,-2,61,104,27,-8
0,1693677675694365100,1.016338587,-0.85592711,10.26513958,-0.061952524,-0.001465544,-0.008127105,-27,22,81,10,-5
1,1693677675695365100,1.018732786,-0.85473001,10.26633644,-0.061952524,-0.001465544,-0.008127105,-32,41,86,9,-8
2,1693677675696365100,1.018732786,-0.85473001,10.26992798,-0.061952524,-0.001332312,-0.008127105,-14,55,83,6,-9
3,1693677675697365100,1.019929886,-0.851138711,10.26513958,-0.061819296,-0.001332312,-0.008260337,-28,42,77,2,-8
4,1693677675698365100,1.021126986,-0.849941611,10.26633644,-0.061819296,-0.001332312,-0.008260337,-12,36,84,10,-8
0,1693677675712356600,1.021126986,-0.851138711,10.26154804,-0.061952524,-0.001598775,-0.008393568,-22,45,88,10,-5
1,1693677675713356600,1.021126986,-0.851138711,10.25915432,-0.062085759,-0.001598775,-0.008393568,-12,59,84,5,-11
2,1693677675714356600,1.023521185,-0.851138711,10.25795746,-0.062085759,-0.001598775,-0.008260337,-26,37,83,3,-9
3,1693677675715356600,1.023521185,-0.85353291,10.25915432,-0.061952524,-0.001598775,-0.008260337,-18,28,88,8,-11
4,1693677675716356600,1.023521185,-0.849941611,10.25915432,-0.061952524,-0.001598775,-0.008260337,-20,45,84,6,-13
0,1693677675730345700,1.018732786,-0.845153213,10.24718285,-0.061952524,-0.00106585,-0.008127105,-28,43,81,11,-2
1,1693677675731345700,1.023521185,-0.845153213,10.24957752,-0.061819296,-0.00106585,-0.008127105,-30,47,89,10,-9
2,1693677675732345700,1.024718285,-0.847547412,10.24838066,-0.062085759,-0.00106585,-0.008260337,-27,36,88,13,-13
3,1693677675733345700,1.024718285,-0.848744512,10.24359226,-0.062218986,-0.00106585,-0.008260337,-24,38,84,12,-9
4,1693677675734345700,1.022324085,-0.849941611,10.24359226,-0.062352221,-0.000932619,-0.008260337,-23,42,81,13,-9
0,1693677675747336100,1.023521185,-0.857124209,10.24838066,-0.062352221,-0.001332312,-0.008926493,-8,58,103,28,11
1,1693677675748336100,1.023521185,-0.857124209,10.24718285,-0.062352221,-0.001465544,-0.008793262,-1,65,117,31,8
2,1693677675749336100,1.025915384,-0.85353291,10.24718285,-0.062352221,-0.001465544,-0.008793262,-30,35,91,20,-1
3,1693677675750336100,1.024718285,-0.849941611,10.24718285,-0.062352221,-0.001465544,-0.008793262,-26,37,80,10,-9
4,1693677675751336100,1.027112484,-0.847547412,10.24957752,-0.062352221,-0.001332312,-0.008793262,-24,45,88,11,-7
0,1693677675765326700,1.036689281,-0.849941611,10.25316906,-0.062085759,-0.001465544,-0.008526799,-31,39,77,10,-8
1,1693677675766326700,1.036689281,-0.849941611,10.25795746,-0.062218986,-0.001598775,-0.008393568,-23,41,85,8,-7
2,1693677675767326700,1.039083481,-0.852335811,10.25915432,-0.062218986,-0.001598775,-0.008526799,-24,37,90,6,-8
3,1693677675768326700,1.040280581,-0.852335811,10.25795746,-0.062218986,-0.001732006,-0.008526799,-26,41,90,13,-6
4,1693677675769326700,1.036689281,-0.851138711,10.25556278,-0.062352221,-0.001732006,-0.008526799,-27,34,83,13,-9
0,1693677675782314700,1.036689281,-0.85353291,10.24957752,-0.062218986,-0.001199081,-0.008260337,-33,36,81,-1,-11
1,1693677675783314700,1.036689281,-0.852335811,10.25556278,-0.062352221,-0.001332312,-0.008260337,-28,43,80,12,-9
2,1693677675784314700,1.034295082,-0.851138711,10.25077438,-0.062485453,-0.001332312,-0.008393568,-21,45,83,13,-7
3,1693677675785314700,1.033097982,-0.85353291,10.25077438,-0.062485453,-0.001199081,-0.008260337,-24,41,92,11,-5
4,1693677675786314700,1.031900883,-0.852335811,10.25316906,-0.062485453,-0.001332312,-0.008393568,-31,37,85,7,-12
0,1693677675806304200,1.017535686,-0.852335811,10.25915432,-0.062485453,-0.001732006,-0.008393568,-28,45,83,2,-9
1,1693677675807304200,1.016338587,-0.85353291,10.26035118,-0.062352221,-0.001732006,-0.008393568,-26,36,88,3,-13
2,1693677675808304200,1.018732786,-0.85353291,10.25556278,-0.062352221,-0.001732006,-0.008393568,-20,47,89,2,-7
3,1693677675809304200,1.018732786,-0.85473001,10.25197124,-0.062352221,-0.001732006,-0.008393568,-28,41,87,10,-8
4,1693677675810304200,1.019929886,-0.857124209,10.25316906,-0.062218986,-0.001732006,-0.008260337,-26,41,89,13,-9
0,1693677675823293900,1.027112484,-0.852335811,10.25556278,-0.062085759,-0.001332312,-0.007860643,-24,41,83,6,-11
1,1693677675824293900,1.028309584,-0.846350312,10.25197124,-0.062085759,-0.001332312,-0.007860643,-20,41,89,10,-11
2,1693677675825293900,1.028309584,-0.848744512,10.25556278,-0.062085759,-0.001199081,-0.007727412,-28,47,83,13,-7
3,1693677675826293900,1.027112484,-0.848744512,10.25675964,-0.062085759,-0.001332312,-0.007727412,-28,42,80,3,-9
4,1693677675827293900,1.029506683,-0.849941611,10.25795746,-0.062085759,-0.001332312,-0.007727412,-27,41,90,10,-7
0,1693677675840281900,1.021126986,-0.85592711,10.26513958,-0.062352221,-0.001199081,-0.008260337,-24,33,85,10,-6
1,1693677675841281900,1.022324085,-0.85353291,10.26633644,-0.062352221,-0.001332312,-0.008260337,-26,48,89,2,-7
2,1693677675842281900,1.021126986,-0.851138711,10.26274586,-0.062352221,-0.001332312,-0.008127105,-23,45,88,8,-12
3,1693677675843281900,1.023521185,-0.849941611,10.26394272,-0.062352221,-0.001332312,-0.008260337,-24,36,83,10,-13
4,1693677675844281900,1.024718285,-0.85353291,10.26154804,-0.062218986,-0.001199081,-0.008260337,-33,43,76,8,-15
0,1693677675857271100,1.019929886,-0.843956113,10.26274586,-0.062352221,-0.001598775,-0.008926493,-22,45,87,10,-12
1,1693677675858271100,1.019929886,-0.842759013,10.26154804,-0.062485453,-0.001598775,-0.008793262,-18,45,84,6,-2
2,1693677675859271100,1.016338587,-0.845153213,10.26394272,-0.062485453,-0.001598775,-0.008526799,-32,38,81,6,-8
3,1693677675860271100,1.019929886,-0.843956113,10.25795746,-0.062485453,-0.001598775,-0.008526799,-24,44,83,6,-12
4,1693677675861271100,1.021126986,-0.843956113,10.25316906,-0.062485453,-0.001732006,-0.008393568,-28,33,83,4,-8
0,1693677675873263000,1.018732786,-0.85473001,10.26513958,-0.062218986,-0.001465544,-0.008260337,-27,37,89,11,-9
1,1693677675874263000,1.019929886,-0.852335811,10.26633644,-0.062352221,-0.001598775,-0.008526799,-16,38,87,6,-13
2,1693677675875263000,1.018732786,-0.85353291,10.26394272,-0.062218986,-0.001598775,-0.008393568,-23,42,81,0,-12
3,1693677675876263000,1.018732786,-0.852335811,10.26154804,-0.062352221,-0.001732006,-0.008526799,-27,35,84,12,-15
4,1693677675877263000,1.018732786,-0.852335811,10.26154804,-0.062352221,-0.001732006,-0.008393568,-30,42,81,10,-7
0,1693677675890252900,1.021126986,-0.849941611,10.25316906,-0.06261868,-0.001598775,-0.008793262,-20,43,81,0,-14
1,1693677675891252900,1.022324085,-0.85353291,10.25197124,-0.06261868,-0.001598775,-0.008793262,-30,42,81,6,-13
2,1693677675892252900,1.023521185,-0.85592711,10.25675964,-0.06261868,-0.001598775,-0.008660031,-29,42,81,2,-17
3,1693677675893252900,1.022324085,-0.85592711,10.25795746,-0.06261868,-0.001598775,-0.008660031,-20,34,78,7,-9
4,1693677675894252900,1.023521185,-0.85473001,10.25795746,-0.06261868,-0.001598775,-0.008793262,-30,57,95,10,-12
0,1693677675906243200,1.034295082,-0.85473001,10.24478912,-0.062218986,-0.001732006,-0.008127105,-24,38,87,-2,-10
1,1693677675907243200,1.031900883,-0.852335811,10.24598598,-0.062085759,-0.001865237,-0.008260337,-30,32,84,8,-9
2,1693677675908243200,1.034295082,-0.852335811,10.24838066,-0.062085759,-0.001732006,-0.008260337,-31,37,75,3,-9
3,1693677675909243200,1.033097982,-0.852335811,10.24598598,-0.062085759,-0.001865237,-0.008127105,-30,39,89,8,-7
4,1693677675910243200,1.033097982,-0.847547412,10.24598598,-0.061952524,-0.001865237,-0.008127105,-24,47,80,6,-9
0,1693677675921235900,1.029506683,-0.85592711,10.26035118,-0.062218986,-0.001865237,-0.008526799,-26,41,85,10,-9
1,1693677675922235900,1.030703783,-0.85592711,10.26154804,-0.062218986,-0.001865237,-0.008526799,-30,41,83,8,-9
2,1693677675923235900,1.031900883,-0.85353291,10.26513958,-0.062352221,-0.001732006,-0.008526799,-28,34,71,8,-4
3,1693677675924235900,1.031900883,-0.851138711,10.26394272,-0.062352221,-0.001465544,-0.008526799,-32,41,84,13,-9
4,1693677675925235900,1.031900883,-0.851138711,10.26394272,-0.062485453,-0.001598775,-0.008526799,-19,42,88,11,-12
0,1693677675937230400,1.025915384,-0.843956113,10.25915432,-0.062352221,-0.001998469,-0.008526799,-24,47,90,6,-7
1,1693677675938230400,1.025915384,-0.843956113,10.25915432,-0.062485453,-0.001998469,-0.008526799,-27,38,85,6,-15
2,1693677675939230400,1.024718285,-0.847547412,10.25795746,-0.062485453,-0.001865237,-0.008660031,-29,43,84,10,-8
3,1693677675940230400,1.023521185,-0.851138711,10.25556278,-0.062352221,-0.001865237,-0.008526799,-27,43,83,2,-9
4,1693677675941230400,1.022324085,-0.847547412,10.25795746,-0.062485453,-0.001998469,-0.008393568,-28,47,84,7,-4
0,1693677675953235400,1.017535686,-0.848744512,10.24478912,-0.062485453,-0.001199081,-0.008393568,-30,41,81,4,-14
1,1693677675954235400,1.018732786,-0.848744512,10.24718285,-0.062485453,-0.001332312,-0.008526799,-22,35,90,4,-8
2,1693677675955235400,1.021126986,-0.849941611,10.24359226,-0.06261868,-0.001332312,-0.008526799,-24,46,81,6,-9
3,1693677675956235400,1.022324085,-0.849941611,10.24359226,-0.062352221,-0.001332312,-0.008526799,-20,42,87,13,-8
4,1693677675957235400,1.021126986,-0.852335811,10.24359226,-0.062352221,-0.001332312,-0.008526799,-17,43,84,6,-6
0,1693677675970206900,1.022324085,-0.859518409,10.24957752,-0.062085759,-0.001465544,-0.007860643,-32,39,85,0,-11
1,1693677675971206900,1.024718285,-0.858321309,10.25316906,-0.062085759,-0.001465544,-0.007993874,-23,43,85,-1,-13
2,1693677675972206900,1.025915384,-0.859518409,10.25316906,-0.062218986,-0.001332312,-0.008260337,-27,37,85,6,-8
3,1693677675973206900,1.027112484,-0.857124209,10.25795746,-0.062218986,-0.001598775,-0.008393568,-24,43,86,8,3
4,1693677675974206900,1.030703783,-0.857124209,10.25795746,-0.062352221,-0.001598775,-0.008526799,-27,39,78,7,-12
0,1693677676007186000,1.023521185,-0.85353291,10.25556278,-0.061952524,-0.001598775,-0.008660031,-29,37,90,10,-7
1,1693677676008186000,1.024718285,-0.85473001,10.25675964,-0.061952524,-0.001465544,-0.008393568,-22,43,87,10,-12
2,1693677676009186000,1.023521185,-0.85592711,10.25436592,-0.061952524,-0.001332312,-0.008526799,-30,42,79,6,-13
3,1693677676010186000,1.022324085,-0.858321309,10.25077438,-0.061952524,-0.001332312,-0.008660031,-22,43,86,10,-9
4,1693677676011186000,1.019929886,-0.859518409,10.24598598,-0.061952524,-0.001465544,-0.008393568,-23,37,84,10,-9
0,1693677676030175200,1.024718285,-0.857124209,10.25436592,-0.062085759,-0.001332312,-0.008127105,-22,39,77,8,-5
1,1693677676031175200,1.023521185,-0.85592711,10.25436592,-0.062218986,-0.001332312,-0.008260337,-31,45,89,4,-7
2,1693677676032175200,1.023521185,-0.85353291,10.25197124,-0.062085759,-0.001332312,-0.008127105,-29,42,79,9,-7
3,1693677676033175200,1.023521185,-0.85353291,10.25077438,-0.062218986,-0.001199081,-0.007993874,-26,43,80,1,-15
4,1693677676034175200,1.023521185,-0.85473001,10.24718285,-0.062085759,-0.001199081,-0.008127105,-32,41,77,10,-8
0,1693677676049163900,1.022324085,-0.849941611,10.25556278,-0.062218986,-0.001332312,-0.007993874,-17,43,86,10,-6
1,1693677676050163900,1.018732786,-0.847547412,10.25556278,-0.062218986,-0.001465544,-0.007993874,-28,38,88,8,-18
2,1693677676051163900,1.016338587,-0.848744512,10.25675964,-0.062218986,-0.001465544,-0.007993874,-29,38,81,10,-11
3,1693677676052163900,1.021126986,-0.848744512,10.26154804,-0.062352221,-0.001465544,-0.007993874,-26,39,85,6,-13
4,1693677676053163900,1.023521185,-0.848744512,10.26513958,-0.062218986,-0.001465544,-0.007993874,-27,39,85,2,-7
0,1693677676065152600,1.030703783,-0.85592711,10.25795746,-0.062085759,-0.001332312,-0.008393568,-28,37,90,9,-5
1,1693677676066152600,1.028309584,-0.852335811,10.25795746,-0.062085759,-0.001465544,-0.008260337,-27,33,83,7,-8
2,1693677676067152600,1.028309584,-0.851138711,10.25316906,-0.062085759,-0.001598775,-0.008260337,-24,37,78,3,-15
3,1693677676068152600,1.029506683,-0.852335811,10.25436592,-0.062085759,-0.001465544,-0.008260337,-23,44,85,6,-13
4,1693677676069152600,1.028309584,-0.85353291,10.25556278,-0.062085759,-0.001332312,-0.008260337,-24,39,83,10,-10
0,1693677676082142600,1.013944387,-0.85473001,10.25795746,-0.062085759,-0.001199081,-0.008393568,-28,44,87,6,-9
1,1693677676083142600,1.016338587,-0.857124209,10.26154804,-0.062085759,-0.001332312,-0.008526799,-28,36,84,8,-12
2,1693677676084142600,1.019929886,-0.85473001,10.26513958,-0.062085759,-0.001332312,-0.008526799,-33,32,84,6,-15
3,1693677676085142600,1.019929886,-0.851138711,10.26154804,-0.062218986,-0.001199081,-0.008526799,-28,44,87,7,-7
4,1693677676086142600,1.018732786,-0.852335811,10.26035118,-0.062085759,-0.001332312,-0.008660031,-29,45,86,12,-12
0,1693677676099136100,1.025915384,-0.851138711,10.25675964,-0.06261868,-0.001199081,-0.008393568,-28,37,86,2,-11
1,1693677676100136100,1.023521185,-0.85353291,10.25556278,-0.06261868,-0.001199081,-0.008393568,-23,35,78,2,-9
2,1693677676101136100,1.024718285,-0.852335811,10.25675964,-0.062352221,-0.001199081,-0.008526799,-24,38,85,13,-12
3,1693677676102136100,1.023521185,-0.851138711,10.25795746,-0.062485453,-0.001199081,-0.008526799,-22,34,88,12,-9
4,1693677676103136100,1.023521185,-0.851138711,10.25795746,-0.062352221,-0.001332312,-0.008526799,-30,45,107,10,-4
0,1693677676117122500,1.025915384,-0.852335811,10.25436592,-0.061952524,-0.000666156,-0.008260337,-31,35,83,6,-12
1,1693677676118122500,1.025915384,-0.851138711,10.25556278,-0.061952524,-0.000666156,-0.008393568,-31,39,81,2,-9
2,1693677676119122500,1.024718285,-0.851138711,10.25675964,-0.061952524,-0.000799387,-0.008260337,-27,32,80,11,-12
3,1693677676120122500,1.024718285,-0.849941611,10.25675964,-0.061819296,-0.000666156,-0.008260337,-26,45,89,10,-8
4,1693677676121122500,1.025915384,-0.848744512,10.25795746,-0.061819296,-0.000799387,-0.008260337,-19,46,83,13,-16
0,1693677676131117200,1.025915384,-0.857124209,10.25556278,-0.062485453,-0.000932619,-0.008393568,-26,37,83,6,-9
1,1693677676132117200,1.023521185,-0.857124209,10.25675964,-0.062352221,-0.000932619,-0.008393568,-24,35,83,6,-9
2,1693677676133117200,1.023521185,-0.860715508,10.25316906,-0.062352221,-0.000932619,-0.008260337,-32,43,83,6,-14
3,1693677676134117200,1.024718285,-0.863109708,10.25675964,-0.062218986,-0.00106585,-0.008127105,-24,43,87,11,-9
4,1693677676135117200,1.028309584,-0.863109708,10.25316906,-0.062218986,-0.001199081,-0.008127105,-24,46,88,1,-2
0,1693677676146107200,1.011550188,-0.849941611,10.25556278,-0.062218986,-0.001332312,-0.008393568,-29,34,83,8,-15
1,1693677676147107200,1.011550188,-0.849941611,10.25197124,-0.062218986,-0.001465544,-0.008393568,-24,42,84,8,-8
2,1693677676148107200,1.012747288,-0.848744512,10.25436592,-0.062352221,-0.001332312,-0.008393568,-24,41,83,7,-6
3,1693677676149107200,1.010353088,-0.849941611,10.25316906,-0.062352221,-0.001465544,-0.008260337,-24,39,87,12,-4
4,1693677676150107200,1.011550188,-0.852335811,10.25556278,-0.062218986,-0.001465544,-0.008127105,-28,41,85,0,-15
0,1693677676165096900,1.023521185,-0.848744512,10.26633644,-0.062085759,-0.001865237,-0.008127105,-27,41,93,14,-15
1,1693677676166096900,1.023521185,-0.846350312,10.26753426,-0.062085759,-0.001732006,-0.008127105,-28,37,89,2,-11
2,1693677676167096900,1.024718285,-0.846350312,10.26633644,-0.062085759,-0.001732006,-0.008127105,-22,41,83,9,-4
3,1693677676168096900,1.024718285,-0.846350312,10.26274586,-0.061952524,-0.001598775,-0.008260337,-15,42,91,11,-12
4,1693677676169096900,1.024718285,-0.847547412,10.26154804,-0.061819296,-0.001465544,-0.008393568,-29,41,88,6,-7
0,1693677676181086200,1.023521185,-0.851138711,10.25436592,-0.061419602,-0.001199081,-0.008793262,-28,39,85,2,-12
1,1693677676182086200,1.023521185,-0.85353291,10.25197124,-0.061552834,-0.00106585,-0.008660031,-28,43,89,4,-11
2,1693677676183086200,1.024718285,-0.851138711,10.25436592,-0.061552834,-0.00106585,-0.008793262,-27,47,83,13,-7
3,1693677676184086200,1.023521185,-0.849941611,10.25316906,-0.061686065,-0.00106585,-0.008793262,-22,42,85,7,-12
4,1693677676185086200,1.021126986,-0.852335811,10.25436592,-0.061686065,-0.000932619,-0.008660031,-20,38,85,12,-12
0,1693677676198076900,1.016338587,-0.85473001,10.26513958,-0.062218986,-0.001465544,-0.008526799,-23,49,88,13,-8
1,1693677676199076900,1.016338587,-0.85592711,10.26394272,-0.062352221,-0.001332312,-0.008526799,-24,45,88,12,-7
2,1693677676200076900,1.017535686,-0.85473001,10.26513958,-0.062218986,-0.001332312,-0.008393568,-20,53,85,13,-9
3,1693677676201076900,1.023521185,-0.85353291,10.26873112,-0.062218986,-0.001598775,-0.008260337,-24,44,88,7,-7
4,1693677676202076900,1.021126986,-0.851138711,10.27112484,-0.062218986,-0.001598775,-0.008260337,-24,45,90,7,-8
0,1693677676213071000,1.031900883,-0.859518409,10.25675964,-0.061952524,-0.001199081,-0.008660031,-27,43,84,11,-4
1,1693677676214071000,1.029506683,-0.858321309,10.25795746,-0.061952524,-0.001332312,-0.008793262,-21,50,90,13,-4
2,1693677676215071000,1.025915384,-0.85592711,10.26154804,-0.061952524,-0.001332312,-0.008793262,-33,43,91,12,-6
3,1693677676216071000,1.029506683,-0.852335811,10.26274586,-0.061686065,-0.001465544,-0.008793262,-20,45,87,13,-5
4,1693677676217071000,1.031900883,-0.849941611,10.26633644,-0.061686065,-0.001332312,-0.008660031,-20,47,90,-14,-7
0,1693677676229058400,1.024718285,-0.848744512,10.25197124,-0.062085759,-0.001465544,-0.008793262,-24,47,90,12,-7
1,1693677676230058400,1.025915384,-0.851138711,10.25436592,-0.062085759,-0.001598775,-0.008926493,-19,46,86,13,-7
2,1693677676231058400,1.022324085,-0.851138711,10.25675964,-0.062085759,-0.001598775,-0.008926493,-18,46,89,11,-11
3,1693677676232058400,1.023521185,-0.85353291,10.25795746,-0.062218986,-0.001598775,-0.008926493,-24,34,77,14,-18
4,1693677676233058400,1.025915384,-0.852335811,10.25795746,-0.062085759,-0.001465544,-0.009059724,-27,50,90,12,-7
0,1693677676244050200,1.019929886,-0.842759013,10.24957752,-0.062218986,-0.001199081,-0.008260337,-19,47,85,12,-7
1,1693677676245050200,1.019929886,-0.845153213,10.25077438,-0.062218986,-0.001332312,-0.008393568,-22,45,90,12,-7
2,1693677676246050200,1.021126986,-0.843956113,10.25197124,-0.062352221,-0.001332312,-0.008260337,-20,50,90,12,-5
3,1693677676247050200,1.022324085,-0.845153213,10.25077438,-0.062218986,-0.001465544,-0.008260337,-25,45,88,11,-7
4,1693677676248050200,1.021126986,-0.842759013,10.24957752,-0.062218986,-0.001598775,-0.008260337,-21,46,79,10,-9
0,1693677676261041200,1.011550188,-0.858321309,10.25197124,-0.062485453,-0.001598775,-0.008393568,-27,47,87,6,-9
1,1693677676262041200,1.011550188,-0.85353291,10.25436592,-0.062352221,-0.001598775,-0.008393568,-20,37,83,2,-15
2,1693677676263041200,1.012747288,-0.851138711,10.25316906,-0.062352221,-0.001598775,-0.008260337,-24,43,89,6,-5
3,1693677676264041200,1.011550188,-0.849941611,10.24718285,-0.062352221,-0.001465544,-0.008260337,-28,35,79,6,-12
4,1693677676265041200,1.015141487,-0.848744512,10.24838066,-0.062485453,-0.001465544,-0.008260337,-30,42,77,3,-9
0,1693677676279031900,1.024718285,-0.852335811,10.25077438,-0.062218986,-0.001598775,-0.008660031,-1,62,90,26,12
1,1693677676280031900,1.024718285,-0.852335811,10.25436592,-0.062218986,-0.001598775,-0.008793262,-6,51,97,19,3
2,1693677676281031900,1.028309584,-0.85353291,10.25675964,-0.062085759,-0.001732006,-0.008660031,-7,53,100,18,7
3,1693677676282031900,1.025915384,-0.852335811,10.25675964,-0.061952524,-0.001598775,-0.008526799,-2,59,100,28,7
4,1693677676283031900,1.024718285,-0.85592711,10.25197124,-0.061819296,-0.001332312,-0.008393568,-12,55,96,23,-11
0,1693677676294044500,1.034295082,-0.860715508,10.25675964,-0.061686065,-0.001332312,-0.008393568,-29,47,81,10,-11
1,1693677676295044500,1.033097982,-0.863109708,10.25795746,-0.061819296,-0.001332312,-0.008393568,-30,37,83,8,-13
2,1693677676296044500,1.033097982,-0.864306808,10.25915432,-0.061819296,-0.00106585,-0.008260337,-32,45,85,11,-8
3,1693677676297044500,1.033097982,-0.861912608,10.25675964,-0.061952524,-0.00106585,-0.008260337,-27,37,83,10,-12
4,1693677676298044500,1.031900883,-0.857124209,10.25675964,-0.061952524,-0.000799387,-0.008526799,-28,47,87,13,-5
0,1693677676311012000,1.024718285,-0.851138711,10.25197124,-0.062085759,-0.000932619,-0.008393568,-24,41,89,13,-7
1,1693677676312012000,1.025915384,-0.849941611,10.24718285,-0.062218986,-0.000932619,-0.008393568,-28,37,83,13,-8
2,1693677676313012000,1.027112484,-0.851138711,10.24838066,-0.062085759,-0.000932619,-0.008526799,-24,41,88,13,-9
3,1693677676314012000,1.025915384,-0.85353291,10.25077438,-0.062085759,-0.001199081,-0.008660031,-22,45,83,13,-7
4,1693677676315012000,1.024718285,-0.85473001,10.25316906,-0.062218986,-0.001199081,-0.008660031,-23,48,85,6,-18
0,1693677676329024900,1.035492182,-0.857124209,10.26035118,-0.062218986,-0.001199081,-0.008127105,-27,44,87,3,-15
1,1693677676330024900,1.035492182,-0.852335811,10.25675964,-0.062218986,-0.001332312,-0.008260337,-31,45,86,10,-9
2,1693677676331024900,1.035492182,-0.852335811,10.25675964,-0.062218986,-0.001332312,-0.008260337,-27,35,83,7,-11
3,1693677676332024900,1.037886381,-0.849941611,10.25915432,-0.062352221,-0.001332312,-0.008393568,-29,46,88,10,-12
4,1693677676333024900,1.034295082,-0.848744512,10.25675964,-0.062352221,-0.001199081,-0.008393568,-31,41,81,9,-11
0,1693677676344004500,1.035492182,-0.861912608,10.25197124,-0.061819296,-0.001332312,-0.008127105,-26,45,83,7,-12
1,1693677676345004500,1.034295082,-0.860715508,10.25316906,-0.061819296,-0.001465544,-0.007993874,-26,47,85,10,-9
2,1693677676346004500,1.030703783,-0.861912608,10.25077438,-0.061819296,-0.001465544,-0.007860643,-17,39,85,8,-13
3,1693677676347004500,1.028309584,-0.860715508,10.25077438,-0.061819296,-0.001332312,-0.007993874,-24,49,85,4,-12
4,1693677676348004500,1.025915384,-0.858321309,10.25556278,-0.061686065,-0.001332312,-0.007993874,-27,43,79,4,-12
0,1693677676359007300,1.019929886,-0.847547412,10.26274586,-0.062085759,-0.001199081,-0.008526799,-23,45,88,6,-9
1,1693677676360007300,1.022324085,-0.849941611,10.26513958,-0.061819296,-0.001199081,-0.008526799,-23,42,80,6,-13
2,1693677676361007300,1.023521185,-0.85473001,10.26633644,-0.061819296,-0.001332312,-0.008526799,-23,39,84,6,-8
3,1693677676362007300,1.021126986,-0.85592711,10.26753426,-0.061952524,-0.001332312,-0.008526799,-30,43,88,6,-9
4,1693677676363007300,1.019929886,-0.85592711,10.26274586,-0.062085759,-0.001332312,-0.008393568,-28,38,87,8,-13
0,1693677676373979500,1.021126986,-0.847547412,10.25077438,-0.062085759,-0.001465544,-0.008793262,-26,39,77,8,-13
1,1693677676374979500,1.018732786,-0.849941611,10.25316906,-0.062085759,-0.001332312,-0.008660031,-24,57,90,12,-7
2,1693677676375979500,1.017535686,-0.849941611,10.25795746,-0.062085759,-0.001465544,-0.008660031,-30,41,89,11,-9
3,1693677676376979500,1.018732786,-0.848744512,10.25556278,-0.062085759,-0.001465544,-0.008793262,-29,42,79,3,-11
4,1693677676377979500,1.019929886,-0.848744512,10.25316906,-0.062085759,-0.001332312,-0.008793262,-23,44,83,6,-8
0,1693677676391966100,1.022324085,-0.85592711,10.26154804,-0.062085759,-0.001465544,-0.008127105,-28,33,81,13,-9
1,1693677676392966100,1.019929886,-0.857124209,10.26154804,-0.062085759,-0.001465544,-0.008260337,-24,45,79,7,-5
2,1693677676393966100,1.019929886,-0.859518409,10.26035118,-0.062085759,-0.001332312,-0.008260337,-28,44,80,5,-16
3,1693677676394966100,1.018732786,-0.864306808,10.25915432,-0.061952524,-0.001332312,-0.007993874,-26,37,84,13,-12
4,1693677676395966100,1.021126986,-0.864306808,10.26274586,-0.061686065,-0.001332312,-0.007993874,-22,45,84,8,-7
0,1693677676436089800,1.029506683,-0.849941611,10.24718285,-0.061952524,-0.001332312,-0.008260337,-23,42,84,12,-5
1,1693677676437089800,1.028309584,-0.851138711,10.24359226,-0.061819296,-0.001332312,-0.008260337,-20,42,81,13,-12
2,1693677676438089800,1.028309584,-0.852335811,10.24478912,-0.061686065,-0.001199081,-0.008260337,-30,45,87,10,-11
3,1693677676439089800,1.027112484,-0.85353291,10.24718285,-0.061686065,-0.001465544,-0.008260337,-28,44,77,3,-12
4,1693677676440089800,1.029506683,-0.85353291,10.25197124,-0.061686065,-0.001332312,-0.008260337,-29,38,87,10,-11
0,1693677676504482000,1.027112484,-0.848744512,10.25556278,-0.062085759,-0.00106585,-0.008127105,-22,53,85,6,-4
1,1693677676505482000,1.028309584,-0.851138711,10.25675964,-0.062085759,-0.00106585,-0.008260337,-26,41,81,8,-11
2,1693677676506482000,1.027112484,-0.85353291,10.26035118,-0.062085759,-0.00106585,-0.008260337,-33,61,83,2,-4
3,1693677676507482000,1.029506683,-0.852335811,10.25556278,-0.062218986,-0.001199081,-0.008127105,-28,37,65,3,-4
4,1693677676508482000,1.030703783,-0.849941611,10.25795746,-0.062352221,-0.00106585,-0.008260337,-27,38,87,5,-9
0,1693677676582189800,1.028309584,-0.85592711,10.25795746,-0.062218986,-0.000932619,-0.008393568,-27,42,87,6,-13
1,1693677676583189800,1.027112484,-0.85592711,10.25915432,-0.062218986,-0.000799387,-0.008393568,-24,39,83,2,-8
2,1693677676584189800,1.025915384,-0.85592711,10.25436592,-0.062218986,-0.000932619,-0.008393568,-24,39,81,2,-10
3,1693677676585189800,1.024718285,-0.852335811,10.25077438,-0.062352221,-0.000932619,-0.008393568,-31,40,84,11,-11
4,1693677676586189800,1.025915384,-0.848744512,10.26035118,-0.062485453,-0.00106585,-0.008260337,-24,39,82,6,-9
0,1693677676653500100,1.028309584,-0.864306808,10.26035118,-0.061952524,-0.001199081,-0.008127105,-24,46,87,10,-9
1,1693677676654500100,1.027112484,-0.865503907,10.25675964,-0.061819296,-0.001199081,-0.008260337,-33,42,84,1,-14
2,1693677676655500100,1.023521185,-0.867898107,10.25556278,-0.061819296,-0.001199081,-0.008260337,-30,41,80,10,-8
3,1693677676656500100,1.022324085,-0.869095206,10.25436592,-0.061819296,-0.001199081,-0.008260337,-27,45,81,8,-9
4,1693677676657500100,1.023521185,-0.866701007,10.25915432,-0.061686065,-0.001199081,-0.008393568,-33,42,87,10,-9
0,1693677676701147000,1.017535686,-0.857124209,10.25556278,-0.062352221,-0.000932619,-0.008260337,-31,42,85,10,-8
1,1693677676702147000,1.017535686,-0.85353291,10.25197124,-0.062352221,-0.00106585,-0.008260337,-29,38,79,10,-15
2,1693677676703147000,1.019929886,-0.849941611,10.24838066,-0.062218986,-0.001199081,-0.008393568,-24,34,88,12,-8
3,1693677676704147000,1.022324085,-0.852335811,10.25077438,-0.062218986,-0.001199081,-0.008526799,-27,42,79,9,-9
4,1693677676705147000,1.022324085,-0.852335811,10.25197124,-0.062352221,-0.001199081,-0.008526799,-31,42,88,13,-16
0,1693677676807086700,1.023521185,-0.85353291,10.26394272,-0.062085759,-0.000799387,-0.008526799,-28,37,84,6,-17
1,1693677676808086700,1.022324085,-0.851138711,10.26513958,-0.062218986,-0.000666156,-0.008526799,-26,53,90,6,-12
2,1693677676809086700,1.018732786,-0.85473001,10.26154804,-0.062218986,-0.000799387,-0.008660031,-31,42,79,10,-9
3,1693677676810086700,1.023521185,-0.85592711,10.26154804,-0.062085759,-0.000932619,-0.008660031,-16,43,84,9,-9
4,1693677676811086700,1.023521185,-0.857124209,10.26154804,-0.062085759,-0.000932619,-0.008660031,-27,42,84,10,-11
0,1693677676877047500,1.016338587,-0.847547412,10.25436592,-0.061819296,-0.000799387,-0.008260337,-22,46,76,11,-7
1,1693677676878047500,1.015141487,-0.847547412,10.25077438,-0.061819296,-0.000799387,-0.008127105,-28,43,81,8,-15
2,1693677676879047500,1.016338587,-0.851138711,10.24957752,-0.061819296,-0.000799387,-0.008260337,-27,44,89,11,-8
3,1693677676880047500,1.019929886,-0.851138711,10.24957752,-0.061819296,-0.000932619,-0.008127105,-28,47,81,10,-11
4,1693677676881047500,1.016338587,-0.851138711,10.25197124,-0.061952524,-0.000932619,-0.008127105,-26,49,88,7,-13
0,1693677676927848100,1.024718285,-0.847547412,10.25915432,-0.061952524,-0.001199081,-0.007860643,-25,45,79,8,-7
1,1693677676928848100,1.022324085,-0.843956113,10.26154804,-0.061952524,-0.00106585,-0.007993874,-24,46,85,12,-9
2,1693677676929848100,1.023521185,-0.841561913,10.26154804,-0.061952524,-0.00106585,-0.007860643,-22,49,90,12,-4
3,1693677676930848100,1.022324085,-0.840364814,10.26394272,-0.062085759,-0.00106585,-0.007860643,-22,41,85,11,-11
4,1693677676931848100,1.023521185,-0.842759013,10.26394272,-0.061952524,-0.00106585,-0.007860643,-28,42,89,10,-9
0,1693677677012574500,1.019929886,-0.848744512,10.24119759,-0.062352221,-0.001332312,-0.008393568,-11,48,84,10,-8
1,1693677677013574500,1.019929886,-0.852335811,10.24478912,-0.062085759,-0.001332312,-0.008393568,-1,64,94,30,9
2,1693677677014574500,1.021126986,-0.852335811,10.24718285,-0.061952524,-0.001332312,-0.008393568,-13,65,87,16,-7
3,1693677677015574500,1.021126986,-0.851138711,10.25077438,-0.061952524,-0.00106585,-0.008260337,-24,41,85,8,-7
4,1693677677016574500,1.019929886,-0.85353291,10.24957752,-0.061952524,-0.00106585,-0.008127105,-14,52,77,12,-11
0,1693677677040570000,1.033097982,-0.846350312,10.25675964,-0.061952524,-0.001865237,-0.008526799,-23,40,87,8,-9
1,1693677677041570000,1.031900883,-0.847547412,10.25556278,-0.061952524,-0.001732006,-0.008526799,-22,45,83,7,-13
2,1693677677042570000,1.031900883,-0.848744512,10.26035118,-0.062085759,-0.001732006,-0.008660031,-24,39,89,10,-12
3,1693677677043570000,1.028309584,-0.85353291,10.25915432,-0.062085759,-0.001465544,-0.008526799,-24,42,89,10,-9
4,1693677677044570000,1.030703783,-0.85473001,10.24838066,-0.061952524,-0.001332312,-0.008660031,-28,43,90,11,-13
0,1693677677127050200,1.033097982,-0.849941611,10.26394272,-0.061819296,-0.001865237,-0.008393568,-18,42,89,11,-5
1,1693677677128050200,1.034295082,-0.851138711,10.26394272,-0.061819296,-0.001732006,-0.008393568,-20,46,85,13,-8
2,1693677677129050200,1.030703783,-0.849941611,10.26513958,-0.061952524,-0.001732006,-0.008260337,-26,41,87,5,-12
3,1693677677130050200,1.034295082,-0.851138711,10.26394272,-0.061952524,-0.001598775,-0.008260337,-26,39,82,7,-11
4,1693677677131050200,1.036689281,-0.851138711,10.26274586,-0.061952524,-0.001732006,-0.008260337,-15,47,84,6,-12
0,1693677677193000700,1.023521185,-0.834379315,10.24957752,-0.062485453,-0.001732006,-0.008526799,-26,39,84,12,-5
1,1693677677194000700,1.023521185,-0.834379315,10.24957752,-0.062485453,-0.001598775,-0.008660031,-22,49,79,8,-8
2,1693677677195000700,1.027112484,-0.836773515,10.25077438,-0.06261868,-0.001598775,-0.008393568,-31,41,89,1,-15
3,1693677677196000700,1.028309584,-0.834379315,10.25556278,-0.062485453,-0.001732006,-0.008526799,-24,35,82,8,-9
4,1693677677197000700,1.023521185,-0.834379315,10.25316906,-0.062352221,-0.001732006,-0.008526799,-29,43,81,10,-9
0,1693677677271073000,1.015141487,-0.848744512,10.24239445,-0.061686065,-0.001865237,-0.008393568,-28,45,88,10,-13
1,1693677677272073000,1.013944387,-0.848744512,10.24598598,-0.061686065,-0.001865237,-0.008393568,-28,41,89,2,-7
2,1693677677273073000,1.017535686,-0.848744512,10.24359226,-0.061552834,-0.001998469,-0.008526799,-32,42,83,6,-11
3,1693677677274073000,1.018732786,-0.848744512,10.24838066,-0.061686065,-0.001998469,-0.008393568,-32,41,81,11,-6
4,1693677677275073000,1.018732786,-0.851138711,10.24957752,-0.061686065,-0.001998469,-0.008393568,-29,41,86,7,-5
0,1693677677353149300,1.018732786,-0.847547412,10.25316906,-0.061819296,-0.001998469,-0.008260337,-24,43,85,3,-11
1,1693677677354149300,1.021126986,-0.845153213,10.25556278,-0.061819296,-0.001865237,-0.008260337,-28,37,89,-6,-15
2,1693677677355149300,1.018732786,-0.846350312,10.25197124,-0.061819296,-0.001998469,-0.008260337,-28,39,75,8,-9
3,1693677677356149300,1.021126986,-0.847547412,10.25436592,-0.061819296,-0.0021317,-0.008260337,-26,45,87,12,-9
4,1693677677357149300,1.021126986,-0.848744512,10.25675964,-0.061819296,-0.001998469,-0.008393568,-27,46,89,7,-3
0,1693677677383966100,1.025915384,-0.852335811,10.25436592,-0.062218986,-0.001465544,-0.008260337,-27,41,83,10,-11
1,1693677677384966100,1.024718285,-0.852335811,10.25556278,-0.062218986,-0.001332312,-0.008393568,-35,37,80,-1,-7
2,1693677677385966100,1.024718285,-0.849941611,10.25436592,-0.062085759,-0.001332312,-0.008526799,-21,41,86,8,-12
3,1693677677386966100,1.025915384,-0.848744512,10.25436592,-0.062085759,-0.001199081,-0.008660031,-28,43,81,6,-9
4,1693677677387966100,1.028309584,-0.851138711,10.25436592,-0.062218986,-0.001332312,-0.008526799,-27,39,85,10,-9
0,1693677677449148000,1.018732786,-0.85353291,10.25795746,-0.061686065,-0.001332312,-0.008260337,-26,38,85,-10,-18
1,1693677677450148000,1.018732786,-0.85353291,10.25795746,-0.061686065,-0.001332312,-0.008260337,-19,41,84,3,-8
2,1693677677451148000,1.016338587,-0.852335811,10.25556278,-0.061952524,-0.001332312,-0.008260337,-22,37,84,4,-9
3,1693677677452148000,1.017535686,-0.85353291,10.25795746,-0.061952524,-0.001465544,-0.008260337,-20,45,88,13,-8
4,1693677677453148000,1.019929886,-0.857124209,10.25675964,-0.061952524,-0.001465544,-0.008127105,-27,43,84,7,-7
0,1693677677540870800,1.022324085,-0.846350312,10.23521233,-0.061819296,-0.001598775,-0.008393568,-26,29,87,7,-9
1,1693677677541870800,1.023521185,-0.847547412,10.23401546,-0.061952524,-0.001598775,-0.008526799,-28,35,87,7,-7
2,1693677677542870800,1.023521185,-0.849941611,10.23162079,-0.061952524,-0.001465544,-0.008526799,-18,43,86,14,-6
3,1693677677543870800,1.021126986,-0.851138711,10.23640919,-0.061819296,-0.001598775,-0.008526799,-26,32,84,10,-5
4,1693677677544870800,1.018732786,-0.85353291,10.23760605,-0.061952524,-0.001598775,-0.008393568,-24,44,83,2,-9
0,1693677677617014400,1.019929886,-0.85592711,10.25675964,-0.062352221,-0.001332312,-0.008526799,-32,43,88,12,-8
1,1693677677618014400,1.021126986,-0.852335811,10.25675964,-0.062485453,-0.001199081,-0.008393568,-28,41,84,12,-8
2,1693677677619014400,1.023521185,-0.851138711,10.25436592,-0.062485453,-0.001332312,-0.008526799,-22,43,87,10,-6
3,1693677677620014400,1.022324085,-0.85473001,10.25675964,-0.062352221,-0.001332312,-0.008393568,-25,42,80,7,-11
4,1693677677621014400,1.022324085,-0.85473001,10.25915432,-0.06261868,-0.001332312,-0.008526799,-27,33,80,10,-8
0,1693677677668561100,1.023521185,-0.860715508,10.24838066,-0.062085759,-0.001465544,-0.008393568,-30,41,85,6,-11
1,1693677677669561100,1.022324085,-0.860715508,10.24478912,-0.062085759,-0.001465544,-0.008526799,-18,42,80,8,-2
2,1693677677670561100,1.021126986,-0.861912608,10.25197124,-0.061952524,-0.001465544,-0.008660031,-23,37,87,16,-8
3,1693677677671561100,1.022324085,-0.861912608,10.25436592,-0.061819296,-0.001598775,-0.008526799,-27,43,81,4,-8
4,1693677677672561100,1.021126986,-0.860715508,10.25436592,-0.061819296,-0.001732006,-0.008526799,-19,34,84,8,-13
0,1693677677732168100,1.029506683,-0.85353291,10.26633644,-0.061819296,-0.001998469,-0.008127105,-31,42,90,10,-9
1,1693677677733168100,1.031900883,-0.85353291,10.26154804,-0.061952524,-0.001998469,-0.008260337,-23,47,84,10,-7
2,1693677677734168100,1.033097982,-0.849941611,10.26035118,-0.061952524,-0.001732006,-0.008127105,-28,41,84,13,-13
3,1693677677735168100,1.030703783,-0.847547412,10.25675964,-0.061819296,-0.001865237,-0.008127105,-26,31,80,10,-11
4,1693677677736168100,1.033097982,-0.846350312,10.25675964,-0.061819296,-0.001732006,-0.008260337,-29,46,83,8,-15
0,1693677677797540100,1.023521185,-0.852335811,10.24838066,-0.062485453,-0.001465544,-0.008393568,-30,45,83,6,-3
1,1693677677798540100,1.024718285,-0.852335811,10.24957752,-0.062485453,-0.001465544,-0.008526799,-27,34,75,4,-12
2,1693677677799540100,1.027112484,-0.852335811,10.24957752,-0.062485453,-0.001465544,-0.008526799,-27,41,75,2,-14
3,1693677677800540100,1.027112484,-0.851138711,10.25197124,-0.062485453,-0.001332312,-0.008526799,-32,38,80,3,-13
4,1693677677801540100,1.028309584,-0.851138711,10.24957752,-0.062352221,-0.001465544,-0.008526799,-25,53,83,8,-9
0,1693677677867172100,1.024718285,-0.851138711,10.24718285,-0.062352221,-0.001732006,-0.008260337,-23,50,80,10,-7
1,1693677677868172100,1.024718285,-0.851138711,10.24598598,-0.062352221,-0.001732006,-0.008393568,-28,45,87,6,-12
2,1693677677869172100,1.023521185,-0.852335811,10.24239445,-0.062218986,-0.001732006,-0.008393568,-28,41,81,2,-22
3,1693677677870172100,1.023521185,-0.852335811,10.24718285,-0.062218986,-0.001732006,-0.008260337,-26,39,89,4,-9
4,1693677677871172100,1.028309584,-0.851138711,10.24119759,-0.062352221,-0.001598775,-0.008393568,-26,35,85,12,-9
0,1693677677933520700,1.021126986,-0.85353291,10.26753426,-0.062085759,-0.00106585,-0.008526799,-28,34,90,10,-9
1,1693677677934520700,1.018732786,-0.85353291,10.26154804,-0.061952524,-0.001199081,-0.008393568,-26,38,83,2,-15
2,1693677677935520700,1.021126986,-0.851138711,10.25915432,-0.061819296,-0.00106585,-0.008393568,-27,43,86,11,-11
3,1693677677936520700,1.023521185,-0.849941611,10.26035118,-0.061952524,-0.001199081,-0.008260337,-31,38,85,8,-8
4,1693677677937520700,1.022324085,-0.846350312,10.26513958,-0.062085759,-0.001199081,-0.008260337,-31,47,85,10,-5
0,1693677678097444900,1.023521185,-0.860715508,10.25795746,-0.062218986,-0.001332312,-0.007860643,-25,40,79,9,-8
1,1693677678098444900,1.022324085,-0.857124209,10.25436592,-0.062218986,-0.001199081,-0.007860643,-31,42,74,7,-12
2,1693677678099444900,1.022324085,-0.85473001,10.25316906,-0.062352221,-0.001199081,-0.007993874,-2,66,105,35,7
3,1693677678100444900,1.023521185,-0.85353291,10.25077438,-0.062485453,-0.001199081,-0.007860643,-29,32,89,8,-9
4,1693677678101444900,1.021126986,-0.851138711,10.25077438,-0.062485453,-0.001465544,-0.007727412,-20,49,82,13,-4
0,1693677678129404400,1.019929886,-0.846350312,10.25795746,-0.062352221,-0.001199081,-0.008526799,-19,51,95,16,0
1,1693677678130404400,1.018732786,-0.846350312,10.26274586,-0.062352221,-0.001465544,-0.008393568,-30,37,81,8,-11
2,1693677678131404400,1.018732786,-0.849941611,10.26154804,-0.062352221,-0.001199081,-0.008526799,-12,61,97,6,-15
3,1693677678132404400,1.019929886,-0.851138711,10.25795746,-0.062352221,-0.00106585,-0.008393568,-28,43,88,11,-9
4,1693677678133404400,1.015141487,-0.847547412,10.25436592,-0.062352221,-0.000932619,-0.008393568,-29,47,89,13,-7
0,1693677678151392700,1.013944387,-0.848744512,10.25316906,-0.062085759,-0.001465544,-0.008660031,-27,37,83,8,-13
1,1693677678152392700,1.013944387,-0.848744512,10.25077438,-0.061952524,-0.001199081,-0.008793262,-24,38,83,8,-7
2,1693677678153392700,1.012747288,-0.852335811,10.25197124,-0.061952524,-0.001199081,-0.008660031,-27,37,87,10,-9
3,1693677678154392700,1.012747288,-0.85592711,10.25197124,-0.061952524,-0.001332312,-0.008793262,-21,41,83,10,-11
4,1693677678155392700,1.016338587,-0.857124209,10.25316906,-0.062085759,-0.001332312,-0.008793262,-23,42,86,8,-9
0,1693677678209977000,1.023521185,-0.849941611,10.25556278,-0.061686065,-0.001332312,-0.008526799,-20,42,89,10,-7
1,1693677678210977000,1.021126986,-0.849941611,10.26035118,-0.061952524,-0.001332312,-0.008526799,-24,47,87,2,-13
2,1693677678211977000,1.022324085,-0.852335811,10.26394272,-0.061952524,-0.001332312,-0.008526799,-26,45,88,7,-1
3,1693677678212977000,1.022324085,-0.849941611,10.26873112,-0.061952524,-0.001332312,-0.008393568,-29,49,71,12,-9
4,1693677678213977000,1.023521185,-0.848744512,10.26633644,-0.061952524,-0.001199081,-0.008393568,-30,36,87,4,-11
0,1693677678300546900,1.028309584,-0.841561913,10.27471638,-0.062085759,-0.001199081,-0.008793262,-20,47,83,8,-9
1,1693677678301546900,1.028309584,-0.842759013,10.27591324,-0.062085759,-0.001199081,-0.008793262,-15,57,97,24,10
2,1693677678302546900,1.027112484,-0.842759013,10.27351952,-0.062085759,-0.00106585,-0.008793262,-24,44,83,8,-7
3,1693677678303546900,1.028309584,-0.840364814,10.27351952,-0.062085759,-0.001199081,-0.008793262,-30,43,81,7,-7
4,1693677678304546900,1.028309584,-0.837970614,10.27232265,-0.062085759,-0.001199081,-0.008926493,-22,43,80,11,-11
0,1693677678363046100,1.029506683,-0.85592711,10.25675964,-0.061419602,-0.001865237,-0.008526799,-23,41,85,10,-13
1,1693677678364046100,1.031900883,-0.85592711,10.26035118,-0.061552834,-0.001865237,-0.008526799,-24,49,85,8,-4
2,1693677678365046100,1.029506683,-0.85473001,10.26513958,-0.061552834,-0.001732006,-0.008526799,-23,53,88,8,-11
3,1693677678366046100,1.028309584,-0.85353291,10.26633644,-0.061686065,-0.001732006,-0.008526799,-24,41,79,10,-11
4,1693677678367046100,1.028309584,-0.85353291,10.26873112,-0.061686065,-0.001732006,-0.008526799,-26,39,87,8,-11
0,1693677678431127300,1.030703783,-0.857124209,10.25795746,-0.061419602,-0.001199081,-0.008393568,-23,43,87,7,-11
1,1693677678432127300,1.028309584,-0.857124209,10.25556278,-0.061419602,-0.00106585,-0.008660031,-16,45,90,12,-3
2,1693677678433127300,1.029506683,-0.858321309,10.25556278,-0.061419602,-0.001199081,-0.008526799,-20,43,79,10,-12
3,1693677678434127300,1.030703783,-0.860715508,10.25197124,-0.061419602,-0.001199081,-0.008526799,-19,35,86,11,-10
4,1693677678435127300,1.024718285,-0.861912608,10.25675964,-0.061419602,-0.001465544,-0.008793262,-27,42,88,-6,-11
0,1693677678534499100,1.021126986,-0.843956113,10.25316906,-0.062218986,-0.001465544,-0.008526799,-24,47,86,6,-2
1,1693677678535499100,1.025915384,-0.846350312,10.25436592,-0.062218986,-0.001332312,-0.008393568,-26,38,80,6,-9
2,1693677678536499100,1.024718285,-0.846350312,10.25556278,-0.062085759,-0.001332312,-0.008526799,-31,37,83,7,-12
3,1693677678537499100,1.027112484,-0.846350312,10.25436592,-0.062085759,-0.001332312,-0.008526799,-22,34,77,1,-9
4,1693677678538499100,1.024718285,-0.845153213,10.25197124,-0.062085759,-0.001465544,-0.008526799,-23,39,77,3,-9
0,1693677678559465300,1.022324085,-0.85473001,10.24478912,-0.061952524,-0.000799387,-0.008260337,-21,41,85,10,3
1,1693677678560465300,1.022324085,-0.852335811,10.24838066,-0.061952524,-0.000932619,-0.008393568,-27,38,79,10,-8
2,1693677678561465300,1.018732786,-0.85592711,10.24838066,-0.061952524,-0.000932619,-0.008393568,-26,38,81,8,-13
3,1693677678562465300,1.021126986,-0.85353291,10.24838066,-0.061952524,-0.00106585,-0.008526799,-37,47,87,7,-5
4,1693677678563465300,1.022324085,-0.851138711,10.24838066,-0.062085759,-0.00106585,-0.008526799,-24,44,85,10,-8
0,1693677678641414100,1.018732786,-0.851138711,10.25556278,-0.062085759,-0.001598775,-0.009059724,-27,42,81,10,-15
1,1693677678642414100,1.018732786,-0.847547412,10.25675964,-0.062085759,-0.001598775,-0.009059724,-33,44,81,2,-14
2,1693677678643414100,1.021126986,-0.847547412,10.25795746,-0.062218986,-0.001465544,-0.008926493,-23,38,79,3,-9
3,1693677678644414100,1.023521185,-0.848744512,10.25316906,-0.062218986,-0.001465544,-0.008926493,-28,47,84,6,-8
4,1693677678645414100,1.027112484,-0.846350312,10.25316906,-0.062085759,-0.001465544,-0.008793262,-23,42,87,2,-12
0,1693677678684795600,1.031900883,-0.842759013,10.25197124,-0.062218986,-0.001465544,-0.008393568,-28,43,79,3,-13
1,1693677678685795600,1.029506683,-0.841561913,10.25197124,-0.062218986,-0.001465544,-0.008393568,-33,37,83,7,-17
2,1693677678686795600,1.025915384,-0.841561913,10.25077438,-0.062218986,-0.001465544,-0.008260337,-31,43,79,7,-17
3,1693677678687795600,1.028309584,-0.845153213,10.24957752,-0.062352221,-0.001598775,-0.008127105,-24,41,80,11,-11
4,1693677678688795600,1.028309584,-0.847547412,10.24598598,-0.062218986,-0.001598775,-0.008260337,-12,41,89,10,-12
0,1693677678761678200,1.025915384,-0.85473001,10.24478912,-0.061952524,-0.001732006,-0.008526799,-19,45,87,12,-11
1,1693677678762678200,1.027112484,-0.852335811,10.24718285,-0.061819296,-0.001732006,-0.008393568,-23,41,84,6,-9
2,1693677678763678200,1.023521185,-0.85353291,10.24838066,-0.062085759,-0.001865237,-0.008526799,-24,34,85,6,-9
3,1693677678764678200,1.024718285,-0.852335811,10.24718285,-0.061952524,-0.001865237,-0.008660031,-22,48,87,9,-7
4,1693677678765678200,1.023521185,-0.848744512,10.24718285,-0.061952524,-0.001732006,-0.008660031,-14,19,80,4,-16
0,1693677678826353100,1.024718285,-0.848744512,10.25316906,-0.061552834,-0.001199081,-0.008526799,-27,35,75,4,-13
1,1693677678827353100,1.023521185,-0.845153213,10.25675964,-0.061419602,-0.00106585,-0.008393568,-24,43,81,6,-8
2,1693677678828353100,1.023521185,-0.843956113,10.25556278,-0.061552834,-0.000932619,-0.008526799,-24,49,81,6,-7
3,1693677678829353100,1.024718285,-0.845153213,10.25316906,-0.061552834,-0.00106585,-0.008526799,-28,46,81,11,-5
4,1693677678830353100,1.024718285,-0.845153213,10.25556278,-0.061686065,-0.001199081,-0.008393568,-26,39,85,3,-11
0,1693677678887175800,1.035492182,-0.85353291,10.25915432,-0.061686065,-0.001199081,-0.008526799,-20,43,85,2,-16
1,1693677678888175800,1.037886381,-0.85473001,10.25675964,-0.061819296,-0.00106585,-0.008660031,-20,41,81,11,-23
2,1693677678889175800,1.037886381,-0.858321309,10.25197124,-0.061952524,-0.00106585,-0.008393568,-27,47,81,14,-3
3,1693677678890175800,1.039083481,-0.85473001,10.24718285,-0.062085759,-0.001199081,-0.008393568,-14,45,85,8,-9
4,1693677678891175800,1.039083481,-0.857124209,10.24957752,-0.061952524,-0.001199081,-0.008526799,-23,41,87,7,-15
0,1693677679007026000,1.029506683,-0.847547412,10.25316906,-0.061819296,-0.001332312,-0.008393568,-23,41,85,12,-12
1,1693677679008026000,1.029506683,-0.848744512,10.25197124,-0.061819296,-0.001332312,-0.008393568,-26,38,87,7,-12
2,1693677679009026000,1.029506683,-0.845153213,10.25197124,-0.061686065,-0.001199081,-0.008526799,-24,45,87,6,-13
3,1693677679010026000,1.028309584,-0.843956113,10.24838066,-0.061686065,-0.001199081,-0.008526799,-31,35,84,10,-9
4,1693677679011026000,1.028309584,-0.846350312,10.25197124,-0.061686065,-0.001199081,-0.008660031,-28,35,83,10,-16
0,1693677679042048500,1.023521185,-0.848744512,10.25436592,-0.061952524,-0.001732006,-0.008260337,-25,37,84,11,-8
1,1693677679043048500,1.023521185,-0.846350312,10.25077438,-0.061952524,-0.001465544,-0.008393568,-27,37,89,8,-8
2,1693677679044048500,1.025915384,-0.847547412,10.25316906,-0.061952524,-0.001465544,-0.008526799,-24,44,87,10,-13
3,1693677679045048500,1.024718285,-0.847547412,10.25436592,-0.061952524,-0.001332312,-0.008260337,-27,35,87,7,-8
4,1693677679046048500,1.025915384,-0.848744512,10.25556278,-0.061952524,-0.001199081,-0.008127105,-27,41,85,8,-17
0,1693677679104018900,1.025915384,-0.848744512,10.24478912,-0.062218986,-0.00106585,-0.008260337,-22,43,89,7,-4
1,1693677679105018900,1.030703783,-0.847547412,10.24598598,-0.062218986,-0.00106585,-0.008393568,-20,45,80,12,-9
2,1693677679106018900,1.029506683,-0.849941611,10.24838066,-0.062485453,-0.001199081,-0.008260337,-23,41,80,13,-13
3,1693677679107018900,1.027112484,-0.851138711,10.25197124,-0.062485453,-0.001199081,-0.008260337,-30,33,87,0,-15
4,1693677679108018900,1.023521185,-0.851138711,10.25675964,-0.062485453,-0.001465544,-0.008260337,-23,43,81,7,-15
0,1693677679166566100,1.025915384,-0.85353291,10.26633644,-0.062085759,-0.001732006,-0.008393568,-20,44,84,7,-5
1,1693677679167566100,1.024718285,-0.85592711,10.26873112,-0.062218986,-0.001598775,-0.008660031,-28,47,80,6,-9
2,1693677679168566100,1.024718285,-0.85592711,10.26873112,-0.062085759,-0.001732006,-0.008660031,-30,48,83,2,-9
3,1693677679169566100,1.024718285,-0.85592711,10.26992798,-0.062085759,-0.001732006,-0.008660031,-23,41,77,7,-11
4,1693677679170566100,1.023521185,-0.857124209,10.26633644,-0.062085759,-0.001598775,-0.008660031,-27,47,87,2,-8
0,1693677679225562600,1.027112484,-0.863109708,10.25675964,-0.061686065,-0.001332312,-0.008393568,-22,45,85,8,-5
1,1693677679226562600,1.025915384,-0.867898107,10.25556278,-0.061686065,-0.001332312,-0.008127105,-19,38,81,10,-9
2,1693677679227562600,1.024718285,-0.866701007,10.25556278,-0.061686065,-0.001199081,-0.008127105,-26,42,81,10,-15
3,1693677679228562600,1.022324085,-0.867898107,10.25197124,-0.061819296,-0.001199081,-0.008127105,-30,45,83,1,-8
4,1693677679229562600,1.023521185,-0.863109708,10.24957752,-0.061819296,-0.001199081,-0.007993874,-28,39,80,11,-5
0,1693677679331296200,1.024718285,-0.85353291,10.26274586,-0.062218986,-0.001732006,-0.008260337,-23,35,87,11,-8
1,1693677679332296200,1.023521185,-0.85592711,10.25915432,-0.062218986,-0.001598775,-0.008260337,-28,38,84,9,-12
2,1693677679333296200,1.024718285,-0.857124209,10.25795746,-0.062218986,-0.001598775,-0.008260337,-28,47,87,12,-9
3,1693677679334296200,1.021126986,-0.859518409,10.25556278,-0.062085759,-0.001732006,-0.008260337,-28,38,83,8,-7
4,1693677679335296200,1.018732786,-0.860715508,10.25436592,-0.062085759,-0.001732006,-0.008127105,-21,39,90,8,-9
0,1693677679401256800,1.024718285,-0.846350312,10.25436592,-0.061952524,-0.001732006,-0.008127105,-24,45,85,9,-4
1,1693677679402256800,1.028309584,-0.843956113,10.25436592,-0.061952524,-0.001732006,-0.008127105,-28,46,90,2,-13
2,1693677679403256800,1.028309584,-0.845153213,10.24838066,-0.061819296,-0.001865237,-0.008127105,-34,39,85,10,-11
3,1693677679404256800,1.027112484,-0.845153213,10.24838066,-0.061819296,-0.001865237,-0.008260337,-26,41,87,11,-12
4,1693677679405256800,1.027112484,-0.846350312,10.25436592,-0.061819296,-0.001865237,-0.008260337,-18,32,86,7,-4
0,1693677679452498400,1.028309584,-0.85473001,10.27232265,-0.061952524,-0.001199081,-0.008127105,-27,41,85,4,-16
1,1693677679453498400,1.027112484,-0.851138711,10.27112484,-0.061952524,-0.001199081,-0.008127105,-32,37,85,6,-16
2,1693677679454498400,1.028309584,-0.852335811,10.27351952,-0.061952524,-0.001199081,-0.008260337,-22,45,86,8,-5
3,1693677679455498400,1.027112484,-0.852335811,10.27471638,-0.061952524,-0.001332312,-0.008127105,-22,47,85,9,-8
4,1693677679456498400,1.025915384,-0.851138711,10.27591324,-0.061952524,-0.001332312,-0.008127105,-27,41,89,8,-11
0,1693677679512538400,1.028309584,-0.857124209,10.26394272,-0.062085759,-0.001732006,-0.008793262,-27,35,83,4,-11
1,1693677679513538400,1.028309584,-0.85592711,10.26274586,-0.062085759,-0.001732006,-0.008660031,-19,46,84,8,-7
2,1693677679514538400,1.033097982,-0.85473001,10.26394272,-0.062085759,-0.001732006,-0.008660031,-27,43,87,8,-9
3,1693677679515538400,1.031900883,-0.85353291,10.26274586,-0.062085759,-0.001598775,-0.008660031,-22,50,88,13,-7
4,1693677679516538400,1.029506683,-0.85473001,10.25675964,-0.062218986,-0.001465544,-0.008660031,-20,34,83,4,-8
0,1693677679569202100,1.028309584,-0.849941611,10.26274586,-0.061952524,-0.001199081,-0.008526799,-26,43,88,6,-9
1,1693677679570202100,1.027112484,-0.849941611,10.26274586,-0.061819296,-0.001199081,-0.008526799,-27,41,84,8,-8
2,1693677679571202100,1.028309584,-0.849941611,10.26394272,-0.061952524,-0.00106585,-0.008526799,-21,46,90,13,-9
3,1693677679572202100,1.027112484,-0.847547412,10.26633644,-0.061819296,-0.00106585,-0.008526799,-24,50,83,8,-7
4,1693677679573202100,1.024718285,-0.846350312,10.26394272,-0.061819296,-0.000932619,-0.008660031,-24,33,86,11,-7
0,1693677679650019900,1.019929886,-0.842759013,10.25316906,-0.061952524,-0.001465544,-0.008260337,-22,39,80,7,-10
1,1693677679651019900,1.015141487,-0.842759013,10.25197124,-0.061819296,-0.001465544,-0.008260337,-30,46,83,7,-11
2,1693677679652019900,1.015141487,-0.842759013,10.25316906,-0.061819296,-0.001465544,-0.008260337,-24,43,87,13,-7
3,1693677679653019900,1.016338587,-0.846350312,10.25077438,-0.061952524,-0.001465544,-0.008260337,-17,51,83,12,-9
4,1693677679654019900,1.016338587,-0.846350312,10.25077438,-0.061952524,-0.001465544,-0.008393568,-27,39,88,10,-9
0,1693677679725288100,1.027112484,-0.85473001,10.24718285,-0.061952524,-0.001465544,-0.008260337,-28,43,83,7,-13
1,1693677679726288100,1.029506683,-0.858321309,10.24718285,-0.061952524,-0.001332312,-0.008393568,-22,41,83,3,-8
2,1693677679727288100,1.025915384,-0.860715508,10.24000072,-0.062218986,-0.001332312,-0.008393568,-21,43,80,7,-8
3,1693677679728288100,1.024718285,-0.861912608,10.23760605,-0.062218986,-0.001332312,-0.008393568,-27,46,84,7,-9
4,1693677679729288100,1.024718285,-0.860715508,10.23640919,-0.062218986,-0.001465544,-0.008260337,-27,33,84,8,-12
0,1693677679779195100,1.024718285,-0.851138711,10.25077438,-0.062485453,-0.001465544,-0.008526799,-28,41,81,10,-8
1,1693677679780195100,1.024718285,-0.848744512,10.25077438,-0.06261868,-0.001598775,-0.008526799,-23,48,90,-3,-9
2,1693677679781195100,1.024718285,-0.847547412,10.24598598,-0.06261868,-0.001598775,-0.008393568,-30,38,79,7,-11
3,1693677679782195100,1.029506683,-0.847547412,10.24838066,-0.062485453,-0.001598775,-0.008660031,-22,35,81,6,-13
4,1693677679783195100,1.027112484,-0.848744512,10.24838066,-0.062485453,-0.001465544,-0.008526799,-22,37,79,7,-13
0,1693677679864260900,1.033097982,-0.845153213,10.24478912,-0.062218986,-0.001199081,-0.008127105,-28,50,80,8,-9
1,1693677679865260900,1.029506683,-0.843956113,10.24359226,-0.062218986,-0.00106585,-0.008127105,-26,41,80,4,-17
2,1693677679866260900,1.028309584,-0.842759013,10.24119759,-0.062085759,-0.001199081,-0.008260337,-26,41,81,6,-8
3,1693677679867260900,1.030703783,-0.842759013,10.23760605,-0.062085759,-0.00106585,-0.008393568,-42,41,86,10,-9
4,1693677679868260900,1.028309584,-0.843956113,10.23281765,-0.062085759,-0.00106585,-0.008660031,-24,33,84,10,-11
0,1693677679928819300,1.022324085,-0.847547412,10.26513958,-0.061686065,-0.001598775,-0.008260337,-30,43,85,6,-7
1,1693677679929819300,1.023521185,-0.848744512,10.26394272,-0.061686065,-0.001598775,-0.008260337,-32,41,88,6,-11
2,1693677679930819300,1.023521185,-0.846350312,10.26154804,-0.061819296,-0.001598775,-0.008260337,-32,38,85,6,-13
3,1693677679931819300,1.023521185,-0.847547412,10.26035118,-0.061819296,-0.001598775,-0.008260337,-26,41,75,6,-12
4,1693677679932819300,1.022324085,-0.847547412,10.26154804,-0.061819296,-0.001732006,-0.008393568,-27,39,86,12,-10
0,1693677679996138900,1.018732786,-0.848744512,10.25436592,-0.062352221,-0.001465544,-0.008393568,-19,42,87,4,-12
1,1693677679997138900,1.018732786,-0.847547412,10.25556278,-0.062352221,-0.001598775,-0.008127105,-22,38,79,10,-11
2,1693677679998138900,1.024718285,-0.847547412,10.25675964,-0.062218986,-0.001598775,-0.007993874,-32,35,77,9,-9
3,1693677679999138900,1.028309584,-0.846350312,10.26035118,-0.062218986,-0.001732006,-0.008127105,-24,43,81,12,-9
4,1693677680000138900,1.028309584,-0.846350312,10.25795746,-0.062085759,-0.001465544,-0.008127105,-28,47,83,8,-11
0,1693677680052660900,1.016338587,-0.857124209,10.24359226,-0.061952524,-0.001465544,-0.008526799,-31,45,85,6,-11
1,1693677680053660900,1.011550188,-0.857124209,10.24239445,-0.062218986,-0.001332312,-0.008526799,-26,27,77,4,-13
2,1693677680054660900,1.011550188,-0.85592711,10.24359226,-0.062218986,-0.001465544,-0.008393568,-32,41,86,6,-13
3,1693677680055660900,1.010353088,-0.85353291,10.24718285,-0.062218986,-0.001465544,-0.008526799,-18,32,87,8,-12
4,1693677680056660900,1.013944387,-0.851138711,10.24478912,-0.062352221,-0.001465544,-0.008526799,-28,40,83,10,-7
0,1693677680140162400,1.023521185,-0.85592711,10.26274586,-0.061952524,-0.001865237,-0.008926493,-24,35,79,8,-11
1,1693677680141162400,1.028309584,-0.85353291,10.26154804,-0.061952524,-0.001865237,-0.008793262,-28,37,78,3,-9
2,1693677680142162400,1.030703783,-0.851138711,10.25915432,-0.061952524,-0.001998469,-0.008926493,-29,37,83,9,-8
3,1693677680143162400,1.029506683,-0.85353291,10.25556278,-0.061952524,-0.001865237,-0.008793262,-19,46,87,12,-8
4,1693677680144162400,1.027112484,-0.85353291,10.25675964,-0.061952524,-0.001865237,-0.008526799,-32,45,83,13,-13
0,1693677680196534400,1.021126986,-0.848744512,10.24957752,-0.062218986,-0.001998469,-0.008526799,-26,41,79,8,-13
1,1693677680197534400,1.021126986,-0.848744512,10.25197124,-0.062352221,-0.001998469,-0.008526799,-33,42,83,-9,-5
2,1693677680198534400,1.023521185,-0.851138711,10.25316906,-0.062352221,-0.001998469,-0.008393568,-26,33,75,8,-9
3,1693677680199534400,1.022324085,-0.848744512,10.25197124,-0.062485453,-0.001865237,-0.008393568,-31,43,80,3,-15
4,1693677680200534400,1.023521185,-0.849941611,10.24838066,-0.062352221,-0.001865237,-0.008260337,-28,39,79,7,-7
0,1693677680268534600,1.017535686,-0.857124209,10.24838066,-0.061952524,-0.001465544,-0.008260337,-31,43,80,6,-11
1,1693677680269534600,1.017535686,-0.860715508,10.24838066,-0.061952524,-0.001598775,-0.008260337,-23,38,86,10,-12
2,1693677680270534600,1.017535686,-0.861912608,10.25675964,-0.061952524,-0.001598775,-0.008260337,-28,43,90,7,-17
3,1693677680271534600,1.019929886,-0.859518409,10.26035118,-0.061952524,-0.001598775,-0.008127105,-24,39,85,7,-9
4,1693677680272534600,1.018732786,-0.85592711,10.25795746,-0.061952524,-0.001465544,-0.008260337,-24,37,75,2,-10
0,1693677680338265500,1.019929886,-0.858321309,10.24957752,-0.062085759,-0.001732006,-0.008393568,-26,42,84,6,-9
1,1693677680339265500,1.019929886,-0.85473001,10.24838066,-0.062085759,-0.001598775,-0.008393568,-28,33,79,11,-11
2,1693677680340265500,1.021126986,-0.851138711,10.25556278,-0.062085759,-0.001732006,-0.008526799,-22,44,79,11,-12
3,1693677680341265500,1.022324085,-0.849941611,10.25675964,-0.061952524,-0.001732006,-0.008393568,-28,32,77,10,-12
4,1693677680342265500,1.017535686,-0.851138711,10.26035118,-0.061952524,-0.001732006,-0.008526799,-30,36,83,7,-13
0,1693677680398252000,1.025915384,-0.85592711,10.25795746,-0.061819296,-0.001199081,-0.008260337,-28,32,84,7,-12
1,1693677680399252000,1.025915384,-0.852335811,10.25795746,-0.061819296,-0.00106585,-0.008393568,-22,38,87,8,-9
2,1693677680400252000,1.025915384,-0.852335811,10.25795746,-0.061686065,-0.00106585,-0.008526799,-21,42,80,11,-13
3,1693677680401252000,1.025915384,-0.85353291,10.25197124,-0.061686065,-0.00106585,-0.008526799,-27,41,84,8,-9
4,1693677680402252000,1.024718285,-0.85473001,10.25316906,-0.061686065,-0.00106585,-0.008526799,-23,43,91,2,-16
0,1693677680458543400,1.015141487,-0.852335811,10.25436592,-0.061686065,-0.001865237,-0.008393568,-30,38,79,8,-11
1,1693677680459543400,1.013944387,-0.852335811,10.25077438,-0.061952524,-0.001998469,-0.008393568,-28,38,85,7,-9
2,1693677680460543400,1.016338587,-0.852335811,10.25197124,-0.061952524,-0.001865237,-0.008260337,-28,43,84,6,-11
3,1693677680461543400,1.016338587,-0.858321309,10.25197124,-0.061819296,-0.001865237,-0.008260337,-30,42,81,6,-13
4,1693677680462543400,1.015141487,-0.858321309,10.24957752,-0.061686065,-0.001732006,-0.008260337,-27,34,79,9,-15
0,1693677680544391600,1.024718285,-0.842759013,10.25436592,-0.061819296,-0.001465544,-0.008127105,-28,42,83,10,-3
1,1693677680545391600,1.024718285,-0.845153213,10.25675964,-0.061819296,-0.001598775,-0.008260337,-31,45,88,12,-3
2,1693677680546391600,1.027112484,-0.847547412,10.25915432,-0.061686065,-0.001732006,-0.008260337,-31,35,80,-2,-13
3,1693677680547391600,1.027112484,-0.845153213,10.25675964,-0.061686065,-0.001598775,-0.008260337,-32,32,71,8,-14
4,1693677680548391600,1.025915384,-0.842759013,10.25915432,-0.061819296,-0.001598775,-0.008393568,-24,32,80,7,-9
0,1693677680648530800,1.023521185,-0.848744512,10.26394272,-0.062085759,-0.001332312,-0.008526799,-24,46,81,16,-13
1,1693677680649530800,1.025915384,-0.849941611,10.26394272,-0.062085759,-0.001332312,-0.008393568,-28,41,78,4,-12
2,1693677680650530800,1.027112484,-0.85473001,10.26633644,-0.062085759,-0.001598775,-0.008393568,-26,37,87,-9,-15
3,1693677680651530800,1.028309584,-0.852335811,10.26154804,-0.062218986,-0.001465544,-0.008660031,-29,37,81,2,-11
4,1693677680652530800,1.028309584,-0.851138711,10.25915432,-0.062218986,-0.001465544,-0.008660031,-28,42,79,4,-11
0,1693677680688509800,1.033097982,-0.85353291,10.26274586,-0.062218986,-0.001598775,-0.008260337,-32,43,85,11,-16
1,1693677680689509800,1.031900883,-0.85473001,10.26873112,-0.062218986,-0.001598775,-0.008260337,-26,35,88,8,-14
2,1693677680690509800,1.033097982,-0.85353291,10.27112484,-0.062352221,-0.001598775,-0.008393568,-31,47,77,10,-12
3,1693677680691509800,1.029506683,-0.85592711,10.26633644,-0.062485453,-0.001732006,-0.008393568,-24,37,88,4,-11
4,1693677680692509800,1.028309584,-0.85592711,10.26513958,-0.062218986,-0.001598775,-0.008526799,-20,45,84,4,-13
0,1693677680749200800,1.023521185,-0.85592711,10.25795746,-0.061686065,-0.001332312,-0.008127105,-28,34,83,7,-13
1,1693677680750200800,1.021126986,-0.85592711,10.25795746,-0.061819296,-0.001199081,-0.008127105,-26,38,88,2,-18
2,1693677680751200800,1.023521185,-0.85592711,10.26154804,-0.061819296,-0.001199081,-0.008127105,-28,42,85,11,-9
3,1693677680752200800,1.027112484,-0.85353291,10.25795746,-0.061819296,-0.00106585,-0.008127105,-26,38,84,13,-11
4,1693677680753200800,1.027112484,-0.851138711,10.25556278,-0.061952524,-0.00106585,-0.008260337,-27,41,85,12,-8
0,1693677680807264500,1.018732786,-0.852335811,10.25915432,-0.061686065,-0.000932619,-0.008127105,-28,38,82,2,-13
1,1693677680808264500,1.018732786,-0.85353291,10.25795746,-0.061819296,-0.000799387,-0.007993874,-24,43,85,11,-11
2,1693677680809264500,1.017535686,-0.851138711,10.25795746,-0.061819296,-0.000932619,-0.008127105,-25,43,85,3,-11
3,1693677680810264500,1.016338587,-0.852335811,10.25675964,-0.061819296,-0.00106585,-0.007993874,-16,39,83,8,-9
4,1693677680811264500,1.013944387,-0.851138711,10.25556278,-0.061952524,-0.000932619,-0.007993874,-20,33,85,8,-9
0,1693677680874570800,1.028309584,-0.843956113,10.24359226,-0.062218986,-0.001332312,-0.008127105,-26,39,84,7,-14
1,1693677680875570800,1.029506683,-0.845153213,10.24359226,-0.062218986,-0.001465544,-0.008260337,-21,37,87,2,-12
2,1693677680876570800,1.030703783,-0.845153213,10.24478912,-0.062218986,-0.001465544,-0.008127105,-28,38,89,11,-7
3,1693677680877570800,1.027112484,-0.842759013,10.24239445,-0.062352221,-0.001465544,-0.008260337,-30,48,76,11,-5
4,1693677680878570800,1.023521185,-0.841561913,10.24478912,-0.062352221,-0.001465544,-0.008260337,-28,41,88,12,-12
0,1693677680953540900,1.034295082,-0.842759013,10.24598598,-0.062218986,-0.001465544,-0.008127105,-31,44,87,10,-12
1,1693677680954540900,1.030703783,-0.840364814,10.24718285,-0.062085759,-0.001332312,-0.008127105,-22,42,83,8,-13
2,1693677680955540900,1.030703783,-0.837970614,10.25197124,-0.062218986,-0.001332312,-0.008127105,-25,46,87,12,-9
3,1693677680956540900,1.030703783,-0.837970614,10.25436592,-0.062085759,-0.001332312,-0.008260337,-22,42,86,7,-12
4,1693677680957540900,1.029506683,-0.839167714,10.25675964,-0.062085759,-0.001332312,-0.008260337,-24,32,85,6,-12
0,1693677681025824000,1.031900883,-0.851138711,10.25915432,-0.061686065,-0.001199081,-0.008393568,-32,41,80,6,-17
1,1693677681026824000,1.029506683,-0.851138711,10.25675964,-0.061686065,-0.001465544,-0.008393568,-22,38,85,3,-8
2,1693677681027824000,1.027112484,-0.852335811,10.26154804,-0.061686065,-0.001465544,-0.008393568,-24,33,90,7,-11
3,1693677681028824000,1.024718285,-0.849941611,10.26394272,-0.061686065,-0.001598775,-0.008526799,-24,39,85,4,-7
4,1693677681029824000,1.023521185,-0.848744512,10.26394272,-0.061819296,-0.001465544,-0.008526799,-28,35,83,2,-18
0,1693677681089822800,1.015141487,-0.859518409,10.27112484,-0.061952524,-0.001199081,-0.008127105,-24,42,84,9,-11
1,1693677681090822800,1.012747288,-0.859518409,10.27232265,-0.061952524,-0.001199081,-0.008127105,-26,49,90,13,-10
2,1693677681091822800,1.011550188,-0.860715508,10.27471638,-0.062085759,-0.001332312,-0.008127105,-32,34,86,7,-9
3,1693677681092822800,1.015141487,-0.858321309,10.27112484,-0.062218986,-0.001465544,-0.007993874,-31,41,87,8,-13
4,1693677681093822800,1.013944387,-0.85592711,10.26992798,-0.062352221,-0.001332312,-0.007993874,-33,43,71,-5,-12
0,1693677681153480200,1.021126986,-0.852335811,10.26274586,-0.061819296,-0.001598775,-0.007993874,-23,41,84,12,-13
1,1693677681154480200,1.018732786,-0.851138711,10.25795746,-0.061686065,-0.001598775,-0.008127105,-28,35,87,7,-12
2,1693677681155480200,1.018732786,-0.851138711,10.25316906,-0.061686065,-0.001332312,-0.008127105,-26,38,88,10,-7
3,1693677681156480200,1.021126986,-0.85353291,10.25556278,-0.061686065,-0.001199081,-0.008127105,-28,37,88,8,-15
4,1693677681157480200,1.025915384,-0.852335811,10.25915432,-0.061686065,-0.001199081,-0.008127105,-26,38,77,13,-9
0,1693677681225145600,1.029506683,-0.859518409,10.26274586,-0.061419602,-0.001199081,-0.008260337,-24,43,90,-3,-11
1,1693677681226145600,1.031900883,-0.859518409,10.26035118,-0.061286367,-0.001199081,-0.008260337,-31,33,83,5,-11
2,1693677681227145600,1.030703783,-0.858321309,10.25316906,-0.061419602,-0.001199081,-0.008393568,-23,39,85,10,-12
3,1693677681228145600,1.029506683,-0.860715508,10.25197124,-0.061419602,-0.00106585,-0.008260337,-26,62,83,3,-16
4,1693677681229145600,1.027112484,-0.859518409,10.25197124,-0.061419602,-0.00106585,-0.008127105,-28,41,86,8,-15
0,1693677681280312100,1.023521185,-0.85473001,10.25436592,-0.061952524,-0.001332312,-0.007993874,-18,41,84,8,-14
1,1693677681281312100,1.023521185,-0.85353291,10.26274586,-0.062085759,-0.001332312,-0.007993874,-23,39,87,3,-14
2,1693677681282312100,1.025915384,-0.852335811,10.26274586,-0.062085759,-0.001199081,-0.007993874,-36,32,81,6,-15
3,1693677681283312100,1.029506683,-0.85473001,10.26394272,-0.062085759,-0.001199081,-0.007993874,-23,33,83,8,-12
4,1693677681284312100,1.028309584,-0.85592711,10.26873112,-0.061952524,-0.00106585,-0.007993874,-23,41,87,6,-13
0,1693677681363568700,1.027112484,-0.85353291,10.26035118,-0.062085759,-0.000932619,-0.008260337,-24,36,84,8,-9
1,1693677681364568700,1.023521185,-0.849941611,10.25316906,-0.061952524,-0.000932619,-0.008526799,-26,43,83,7,-18
2,1693677681365568700,1.023521185,-0.848744512,10.25556278,-0.061819296,-0.000932619,-0.008660031,-22,44,83,7,-11
3,1693677681366568700,1.024718285,-0.851138711,10.26035118,-0.061686065,-0.00106585,-0.008793262,-24,35,88,4,-9
4,1693677681367568700,1.025915384,-0.849941611,10.26394272,-0.061819296,-0.001199081,-0.008526799,-28,45,88,9,-7
0,1693677681427257600,1.028309584,-0.845153213,10.25197124,-0.061686065,-0.001465544,-0.008660031,-24,37,83,11,-13
1,1693677681428257600,1.030703783,-0.841561913,10.25316906,-0.061819296,-0.001332312,-0.008793262,-26,38,85,4,-19
2,1693677681429257600,1.028309584,-0.842759013,10.24957752,-0.061686065,-0.001332312,-0.008660031,-23,38,89,4,-11
3,1693677681430257600,1.024718285,-0.841561913,10.25077438,-0.061552834,-0.001199081,-0.008660031,-28,39,85,7,-11
4,1693677681431257600,1.023521185,-0.842759013,10.24838066,-0.061552834,-0.001332312,-0.008660031,-31,45,83,14,-8
0,1693677681485584600,1.030703783,-0.858321309,10.25197124,-0.061686065,-0.001332312,-0.008526799,-24,41,79,6,-14
1,1693677681486584600,1.029506683,-0.85592711,10.25316906,-0.061819296,-0.001465544,-0.008660031,-32,39,82,2,-13
2,1693677681487584600,1.028309584,-0.851138711,10.25436592,-0.061952524,-0.001598775,-0.008526799,-31,42,89,6,-11
3,1693677681488584600,1.028309584,-0.851138711,10.25675964,-0.061952524,-0.001465544,-0.008526799,-22,45,85,8,-8
4,1693677681489584600,1.030703783,-0.852335811,10.26154804,-0.061819296,-0.001732006,-0.008793262,-26,41,86,8,-9
0,1693677681587464100,1.022324085,-0.851138711,10.24359226,-0.062085759,-0.001465544,-0.008393568,-30,34,77,-1,-11
1,1693677681588464100,1.021126986,-0.851138711,10.24359226,-0.062085759,-0.001332312,-0.008260337,-29,36,85,10,-14
2,1693677681589464100,1.022324085,-0.851138711,10.24957752,-0.062218986,-0.001332312,-0.008260337,-26,34,86,12,-13
3,1693677681590464100,1.025915384,-0.849941611,10.25197124,-0.062218986,-0.001199081,-0.008260337,-23,33,85,7,-8
4,1693677681591464100,1.025915384,-0.85353291,10.25436592,-0.062218986,-0.001199081,-0.008260337,-23,45,83,1,-17
0,1693677681638059500,1.025915384,-0.849941611,10.25795746,-0.061552834,-0.000932619,-0.008393568,-28,45,87,-4,-9
1,1693677681639059500,1.024718285,-0.852335811,10.25436592,-0.061552834,-0.00106585,-0.008526799,-23,36,83,6,-13
2,1693677681640059500,1.024718285,-0.849941611,10.25675964,-0.061552834,-0.00106585,-0.008393568,-20,47,84,6,-8
3,1693677681641059500,1.024718285,-0.849941611,10.25795746,-0.061552834,-0.00106585,-0.008393568,-33,51,83,12,-13
4,1693677681642059500,1.024718285,-0.848744512,10.25675964,-0.061419602,-0.00106585,-0.008260337,-22,42,80,6,-7
0,1693677681724365600,1.023521185,-0.852335811,10.26154804,-0.061952524,-0.001598775,-0.008260337,-24,42,80,10,3
1,1693677681725365600,1.025915384,-0.847547412,10.26035118,-0.061952524,-0.001865237,-0.008260337,-30,39,88,9,-8
2,1693677681726365600,1.021126986,-0.847547412,10.26035118,-0.062085759,-0.001732006,-0.008260337,-26,38,87,7,-11
3,1693677681727365600,1.022324085,-0.849941611,10.25795746,-0.062218986,-0.001865237,-0.008127105,-30,46,84,6,-11
4,1693677681728365600,1.022324085,-0.849941611,10.25795746,-0.062085759,-0.001865237,-0.008127105,-36,41,79,6,-8
0,1693677681774208900,1.027112484,-0.85473001,10.25197124,-0.062218986,-0.001465544,-0.008127105,-25,44,84,10,-15
1,1693677681775208900,1.025915384,-0.860715508,10.25556278,-0.062218986,-0.001332312,-0.008260337,-30,42,80,12,-7
2,1693677681776208900,1.022324085,-0.863109708,10.25675964,-0.062218986,-0.001465544,-0.008526799,-26,40,80,13,-13
3,1693677681777208900,1.023521185,-0.863109708,10.25915432,-0.062218986,-0.001598775,-0.008526799,-31,33,87,10,-11
4,1693677681778208900,1.023521185,-0.863109708,10.25556278,-0.062218986,-0.001465544,-0.008660031,-30,39,84,4,-16
0,1693677681834844400,1.023521185,-0.848744512,10.25556278,-0.061819296,-0.001332312,-0.008260337,-24,45,86,10,-8
1,1693677681835844400,1.024718285,-0.849941611,10.25556278,-0.061819296,-0.001199081,-0.008393568,-16,45,83,8,1
2,1693677681836844400,1.025915384,-0.849941611,10.25556278,-0.061819296,-0.001332312,-0.008393568,-28,41,84,0,-7
3,1693677681837844400,1.025915384,-0.851138711,10.26035118,-0.061819296,-0.001465544,-0.008526799,-33,39,87,8,-15
4,1693677681838844400,1.024718285,-0.851138711,10.25915432,-0.061819296,-0.001332312,-0.008393568,-26,39,85,11,-9
0,1693677681895562900,1.013944387,-0.846350312,10.25197124,-0.061952524,-0.001598775,-0.008660031,-23,43,85,10,-13
1,1693677681896562900,1.013944387,-0.842759013,10.25077438,-0.061952524,-0.001465544,-0.008660031,-26,45,84,0,-13
2,1693677681897562900,1.015141487,-0.842759013,10.25316906,-0.062085759,-0.001465544,-0.008793262,-27,36,85,12,-15
3,1693677681898562900,1.013944387,-0.842759013,10.25316906,-0.062085759,-0.001465544,-0.008793262,-26,41,90,11,-13
4,1693677681899562900,1.015141487,-0.847547412,10.25316906,-0.062218986,-0.001465544,-0.008793262,-27,45,87,7,-13
0,1693677681980265700,1.018732786,-0.85473001,10.25675964,-0.062352221,-0.001732006,-0.008526799,-27,43,87,6,-9
1,1693677681981265700,1.017535686,-0.85353291,10.25795746,-0.062352221,-0.001732006,-0.008526799,-23,42,89,7,-15
2,1693677681982265700,1.019929886,-0.852335811,10.25795746,-0.062218986,-0.001865237,-0.008526799,-28,39,90,11,-11
3,1693677681983265700,1.018732786,-0.851138711,10.26035118,-0.062218986,-0.001865237,-0.008393568,-23,41,87,5,-11
4,1693677681984265700,1.017535686,-0.849941611,10.25556278,-0.062085759,-0.001598775,-0.008260337,-26,35,80,7,-13
0,1693677682051867200,1.027112484,-0.859518409,10.25556278,-0.061686065,-0.001332312,-0.008393568,-28,43,88,3,-11
1,1693677682052867200,1.028309584,-0.858321309,10.25436592,-0.061686065,-0.001465544,-0.008526799,-27,32,88,12,-8
2,1693677682053867200,1.024718285,-0.85473001,10.25197124,-0.061686065,-0.001465544,-0.008393568,-29,39,84,2,-9
3,1693677682054867200,1.021126986,-0.85592711,10.25197124,-0.061819296,-0.001465544,-0.008393568,-24,43,85,10,-12
4,1693677682055867200,1.019929886,-0.85592711,10.25556278,-0.061819296,-0.001465544,-0.008393568,-23,51,90,8,-9
0,1693677682110891100,1.018732786,-0.85353291,10.25675964,-0.061686065,-0.001732006,-0.008260337,-31,35,83,8,-14
1,1693677682111891100,1.016338587,-0.852335811,10.26035118,-0.061686065,-0.001732006,-0.008127105,-28,38,77,8,-13
2,1693677682112891100,1.013944387,-0.85473001,10.26513958,-0.061686065,-0.001598775,-0.008260337,-27,43,88,10,-11
3,1693677682113891100,1.016338587,-0.85473001,10.26274586,-0.061686065,-0.001598775,-0.008393568,-24,43,81,9,-7
4,1693677682114891100,1.015141487,-0.851138711,10.26394272,-0.061686065,-0.001598775,-0.008660031,-28,40,88,13,-9
0,1693677682169524300,1.021126986,-0.846350312,10.22922707,-0.062218986,-0.001598775,-0.007993874,-32,35,84,1,-13
1,1693677682170524300,1.022324085,-0.843956113,10.23162079,-0.062218986,-0.001465544,-0.008127105,-26,45,97,8,-7
2,1693677682171524300,1.021126986,-0.839167714,10.23521233,-0.062218986,-0.001465544,-0.008127105,-28,34,88,2,-9
3,1693677682172524300,1.024718285,-0.839167714,10.24000072,-0.062218986,-0.001332312,-0.008127105,-30,34,85,10,-8
4,1693677682173524300,1.023521185,-0.837970614,10.24119759,-0.062218986,-0.001465544,-0.008127105,-28,41,89,4,-13
0,1693677682254503800,1.018732786,-0.847547412,10.24000072,-0.061686065,-0.001465544,-0.008127105,-30,46,83,7,-9
1,1693677682255503800,1.016338587,-0.845153213,10.24239445,-0.061819296,-0.001465544,-0.008127105,-27,40,86,4,-11
2,1693677682256503800,1.016338587,-0.846350312,10.24478912,-0.061819296,-0.001465544,-0.007993874,-8,42,79,11,-8
3,1693677682257503800,1.015141487,-0.847547412,10.24239445,-0.061952524,-0.001332312,-0.008127105,-24,44,85,8,-9
4,1693677682258503800,1.011550188,-0.848744512,10.24239445,-0.061952524,-0.001332312,-0.007993874,-28,39,83,10,-9
0,1693677682331486100,1.024718285,-0.85353291,10.25915432,-0.061952524,-0.001598775,-0.007860643,-18,42,86,10,-8
1,1693677682332486100,1.027112484,-0.85353291,10.26035118,-0.062085759,-0.001465544,-0.007727412,-20,42,83,12,-8
2,1693677682333486100,1.029506683,-0.85353291,10.25915432,-0.062085759,-0.001332312,-0.007727412,-16,49,85,11,-2
3,1693677682334486100,1.028309584,-0.852335811,10.25915432,-0.062085759,-0.001199081,-0.007860643,-22,43,82,11,-8
4,1693677682335486100,1.029506683,-0.85473001,10.26154804,-0.061686065,-0.00106585,-0.007727412,-24,41,90,11,-7
0,1693677682412308100,1.021126986,-0.852335811,10.25915432,-0.062085759,-0.001199081,-0.008260337,-22,43,90,10,-5
1,1693677682413308100,1.023521185,-0.85353291,10.26154804,-0.062085759,-0.001332312,-0.008127105,-26,52,90,13,-7
2,1693677682414308100,1.023521185,-0.851138711,10.26154804,-0.062218986,-0.001332312,-0.008260337,-23,48,89,8,-5
3,1693677682415308100,1.023521185,-0.852335811,10.25795746,-0.062218986,-0.001332312,-0.008260337,-22,44,87,12,-9
4,1693677682416308100,1.024718285,-0.852335811,10.25795746,-0.062218986,-0.001199081,-0.008260337,-24,30,84,10,-15
0,1693677682476941500,1.025915384,-0.859518409,10.26035118,-0.062218986,-0.001332312,-0.008393568,-24,41,85,9,-7
1,1693677682477941500,1.027112484,-0.859518409,10.26633644,-0.062218986,-0.001465544,-0.008260337,-36,45,89,6,-9
2,1693677682478941500,1.024718285,-0.858321309,10.26753426,-0.062085759,-0.001465544,-0.008393568,-32,42,91,14,-9
3,1693677682479941500,1.024718285,-0.857124209,10.26753426,-0.061952524,-0.001465544,-0.008260337,-28,41,80,7,-13
4,1693677682480941500,1.023521185,-0.861912608,10.26513958,-0.061952524,-0.001465544,-0.008526799,-24,42,79,8,-15
0,1693677682530768200,1.021126986,-0.85592711,10.26633644,-0.061686065,-0.001465544,-0.008260337,-26,45,85,11,-5
1,1693677682531768200,1.018732786,-0.85473001,10.26274586,-0.061686065,-0.001465544,-0.008526799,-24,37,93,6,-13
2,1693677682532768200,1.019929886,-0.858321309,10.25915432,-0.061552834,-0.001598775,-0.008526799,-30,38,83,7,-13
3,1693677682533768200,1.019929886,-0.858321309,10.25795746,-0.061552834,-0.001199081,-0.008526799,-29,32,84,14,-15
4,1693677682534768200,1.021126986,-0.859518409,10.25675964,-0.061552834,-0.001199081,-0.008260337,-34,36,89,2,-12
0,1693677682584830400,1.023521185,-0.859518409,10.24718285,-0.062218986,-0.001465544,-0.008393568,-31,46,85,3,-11
1,1693677682585830400,1.022324085,-0.85592711,10.24598598,-0.062085759,-0.001598775,-0.008127105,-30,38,85,2,-13
2,1693677682586830400,1.018732786,-0.85473001,10.24598598,-0.062085759,-0.001465544,-0.008127105,-32,32,84,1,-13
3,1693677682587830400,1.019929886,-0.857124209,10.25077438,-0.062085759,-0.001598775,-0.008127105,-33,39,87,6,-15
4,1693677682588830400,1.016338587,-0.85353291,10.25077438,-0.062085759,-0.001598775,-0.008260337,-25,39,89,10,-13
0,1693677682649563500,1.029506683,-0.843956113,10.25436592,-0.062218986,-0.001598775,-0.008260337,-28,38,81,10,-12
1,1693677682650563500,1.031900883,-0.843956113,10.25556278,-0.062218986,-0.001598775,-0.008260337,-26,41,87,4,-13
2,1693677682651563500,1.033097982,-0.843956113,10.25915432,-0.062352221,-0.001598775,-0.008393568,-23,39,80,6,-9
3,1693677682652563500,1.034295082,-0.842759013,10.25556278,-0.062352221,-0.001465544,-0.008260337,-30,45,84,9,-10
4,1693677682653563500,1.031900883,-0.843956113,10.25556278,-0.062485453,-0.001465544,-0.008260337,-20,46,85,10,-8
0,1693677682729124000,1.030703783,-0.849941611,10.25795746,-0.061952524,-0.001598775,-0.008260337,-31,41,87,12,-15
1,1693677682730124000,1.029506683,-0.85353291,10.25675964,-0.061952524,-0.001598775,-0.008260337,-30,35,83,4,-9
2,1693677682731124000,1.028309584,-0.85592711,10.25436592,-0.061819296,-0.001598775,-0.008127105,-30,32,84,10,-8
3,1693677682732124000,1.027112484,-0.85592711,10.25436592,-0.061819296,-0.001598775,-0.008127105,-33,38,83,4,-14
4,1693677682733124000,1.023521185,-0.858321309,10.25675964,-0.061819296,-0.001732006,-0.008127105,-28,41,86,13,-11
0,1693677682794000300,1.027112484,-0.840364814,10.25316906,-0.062085759,-0.001199081,-0.008393568,-30,37,90,2,-14
1,1693677682795000300,1.029506683,-0.841561913,10.25675964,-0.062085759,-0.001332312,-0.008393568,-23,45,81,10,-15
2,1693677682796000300,1.025915384,-0.843956113,10.26274586,-0.062218986,-0.001332312,-0.008393568,-31,42,83,10,-12
3,1693677682797000300,1.029506683,-0.848744512,10.26035118,-0.062085759,-0.001465544,-0.008393568,-25,49,84,12,-9
4,1693677682798000300,1.029506683,-0.849941611,10.26394272,-0.062218986,-0.001465544,-0.008393568,-29,46,88,7,-13
0,1693677682873137100,1.018732786,-0.863109708,10.26035118,-0.062218986,-0.000799387,-0.008127105,-33,38,86,11,-13
1,1693677682874137100,1.017535686,-0.863109708,10.26394272,-0.061952524,-0.000666156,-0.008260337,-28,37,85,10,-13
2,1693677682875137100,1.019929886,-0.861912608,10.26274586,-0.061952524,-0.000666156,-0.008260337,-27,44,84,12,-8
3,1693677682876137100,1.021126986,-0.860715508,10.26513958,-0.061952524,-0.000799387,-0.008260337,-22,41,87,10,-9
4,1693677682877137100,1.018732786,-0.858321309,10.26753426,-0.061952524,-0.000799387,-0.008127105,-24,42,88,8,-9
0,1693677682933996600,1.028309584,-0.840364814,10.24718285,-0.062218986,-0.001465544,-0.007993874,-32,37,85,6,-14
1,1693677682934996600,1.028309584,-0.839167714,10.25077438,-0.062085759,-0.001598775,-0.007860643,-27,42,87,6,-14
2,1693677682935996600,1.030703783,-0.841561913,10.24957752,-0.062085759,-0.001598775,-0.007860643,-26,46,90,10,-8
3,1693677682936996600,1.033097982,-0.842759013,10.24478912,-0.061819296,-0.001598775,-0.007993874,-28,45,88,6,-11
4,1693677682937996600,1.030703783,-0.841561913,10.24359226,-0.061686065,-0.001598775,-0.007993874,-28,44,87,10,-12
0,1693677682992566300,1.024718285,-0.842759013,10.25675964,-0.061952524,-0.001465544,-0.008260337,-27,42,80,8,-12
1,1693677682993566300,1.024718285,-0.845153213,10.25316906,-0.062085759,-0.001465544,-0.008127105,-29,41,88,12,-8
2,1693677682994566300,1.023521185,-0.845153213,10.25795746,-0.061952524,-0.001332312,-0.008260337,-27,35,85,12,-8
3,1693677682995566300,1.021126986,-0.845153213,10.25436592,-0.062085759,-0.00106585,-0.008260337,-30,41,89,8,-13
4,1693677682996566300,1.023521185,-0.846350312,10.25556278,-0.062085759,-0.001199081,-0.008260337,-27,42,90,3,-18
0,1693677683056477800,1.024718285,-0.859518409,10.26633644,-0.062085759,-0.001332312,-0.008260337,-21,49,85,11,-9
1,1693677683057477800,1.027112484,-0.858321309,10.26633644,-0.061952524,-0.001332312,-0.008127105,-20,38,88,12,-7
2,1693677683058477800,1.028309584,-0.85592711,10.27112484,-0.061952524,-0.001199081,-0.008127105,-26,45,84,9,-8
3,1693677683059477800,1.027112484,-0.85592711,10.27112484,-0.062085759,-0.001199081,-0.008127105,-33,39,90,0,-15
4,1693677683060477800,1.025915384,-0.85473001,10.26873112,-0.062218986,-0.001199081,-0.008127105,-21,43,86,11,-18
0,1693677683124562700,1.024718285,-0.859518409,10.25915432,-0.061952524,-0.001732006,-0.008526799,-35,45,88,7,-9
1,1693677683125562700,1.028309584,-0.861912608,10.26274586,-0.061952524,-0.001732006,-0.008526799,-22,40,89,3,-11
2,1693677683126562700,1.027112484,-0.861912608,10.25915432,-0.062085759,-0.001732006,-0.008526799,-33,41,85,7,-9
3,1693677683127562700,1.025915384,-0.861912608,10.26154804,-0.062085759,-0.001598775,-0.008526799,-32,42,85,2,-14
4,1693677683128562700,1.028309584,-0.861912608,10.26394272,-0.062085759,-0.001465544,-0.008526799,-30,41,81,8,-12
0,1693677683215499700,1.016338587,-0.859518409,10.25795746,-0.061686065,-0.001332312,-0.008793262,-20,39,87,12,-7
1,1693677683216499700,1.019929886,-0.861912608,10.25675964,-0.061686065,-0.001199081,-0.008526799,-27,41,84,7,-11
2,1693677683217499700,1.019929886,-0.861912608,10.26035118,-0.061686065,-0.00106585,-0.008660031,-26,29,89,7,-13
3,1693677683218499700,1.022324085,-0.861912608,10.25556278,-0.061819296,-0.001199081,-0.008793262,-27,41,84,13,-9
4,1693677683219499700,1.021126986,-0.861912608,10.25795746,-0.061686065,-0.001332312,-0.008793262,-23,37,87,11,-8
0,1693677683274524600,1.024718285,-0.847547412,10.26873112,-0.061819296,-0.001598775,-0.008526799,-23,47,86,11,-6
1,1693677683275524600,1.025915384,-0.849941611,10.26513958,-0.061686065,-0.001598775,-0.008393568,-23,42,85,7,-11
2,1693677683276524600,1.027112484,-0.847547412,10.26873112,-0.061686065,-0.001598775,-0.008393568,-25,39,84,8,-4
3,1693677683277524600,1.028309584,-0.848744512,10.26873112,-0.061819296,-0.001732006,-0.008393568,-20,43,87,9,-7
4,1693677683278524600,1.030703783,-0.849941611,10.26633644,-0.061686065,-0.001865237,-0.008393568,-23,47,89,10,-7
0,1693677683362588000,1.034295082,-0.845153213,10.26035118,-0.061952524,-0.001598775,-0.008393568,-22,42,90,10,-14
1,1693677683363588000,1.033097982,-0.847547412,10.25795746,-0.061952524,-0.001199081,-0.008393568,-26,39,87,8,-17
2,1693677683364588000,1.030703783,-0.85353291,10.25077438,-0.062085759,-0.001332312,-0.008260337,-79,41,83,12,-9
3,1693677683365588000,1.029506683,-0.85473001,10.24957752,-0.062085759,-0.001332312,-0.008260337,-22,45,81,10,-8
4,1693677683366588000,1.029506683,-0.85592711,10.24838066,-0.061952524,-0.001465544,-0.008260337,-16,46,88,13,-4
0,1693677683398037700,1.024718285,-0.85592711,10.25556278,-0.062085759,-0.001465544,-0.008793262,-27,38,89,7,-11
1,1693677683399037700,1.027112484,-0.857124209,10.25795746,-0.062085759,-0.001465544,-0.008660031,-24,39,88,11,-10
2,1693677683400037700,1.024718285,-0.852335811,10.26035118,-0.062085759,-0.001465544,-0.008660031,-24,47,90,6,-11
3,1693677683401037700,1.025915384,-0.851138711,10.26873112,-0.062085759,-0.001465544,-0.008526799,-22,48,90,9,-9
4,1693677683402037700,1.027112484,-0.849941611,10.26873112,-0.062218986,-0.001332312,-0.008526799,-22,41,89,11,-12
0,1693677683480287900,1.024718285,-0.843956113,10.25316906,-0.062485453,-0.001465544,-0.008926493,-27,51,82,9,-11
1,1693677683481287900,1.024718285,-0.840364814,10.24957752,-0.062352221,-0.001465544,-0.008793262,-18,43,84,12,-7
2,1693677683482287900,1.025915384,-0.841561913,10.24838066,-0.062352221,-0.001465544,-0.008793262,-23,45,89,10,-7
3,1693677683483287900,1.025915384,-0.843956113,10.24718285,-0.062485453,-0.001465544,-0.008793262,-18,49,91,11,-9
4,1693677683484287900,1.027112484,-0.845153213,10.24718285,-0.062352221,-0.001332312,-0.008793262,-22,44,85,12,-6
0,1693677683570755700,1.021126986,-0.847547412,10.25795746,-0.062085759,-0.000932619,-0.007993874,-65,46,85,4,-12
1,1693677683571755700,1.021126986,-0.848744512,10.25316906,-0.062218986,-0.00106585,-0.008127105,-28,38,89,13,-7
2,1693677683572755700,1.019929886,-0.849941611,10.24957752,-0.062085759,-0.000932619,-0.008393568,-24,46,85,9,-9
3,1693677683573755700,1.019929886,-0.851138711,10.25077438,-0.062085759,-0.000799387,-0.008393568,-20,33,85,10,-16
4,1693677683574755700,1.018732786,-0.851138711,10.25675964,-0.062218986,-0.000799387,-0.008526799,-21,43,87,9,-9
0,1693677683611311700,1.023521185,-0.852335811,10.24838066,-0.061686065,-0.001332312,-0.008260337,-27,34,90,11,-7
1,1693677683612311700,1.021126986,-0.85473001,10.24838066,-0.061819296,-0.001199081,-0.008127105,-20,46,90,8,-5
2,1693677683613311700,1.021126986,-0.85353291,10.24838066,-0.061819296,-0.001332312,-0.008260337,-24,47,90,8,-9
3,1693677683614311700,1.021126986,-0.85473001,10.24359226,-0.062085759,-0.001332312,-0.008393568,-31,37,89,7,-12
4,1693677683615311700,1.023521185,-0.851138711,10.24119759,-0.062085759,-0.001332312,-0.008526799,-18,57,87,13,-9
0,1693677683677059400,1.023521185,-0.865503907,10.26394272,-0.061952524,-0.001332312,-0.008127105,-27,38,87,10,-7
1,1693677683678059400,1.023521185,-0.860715508,10.26633644,-0.061952524,-0.001199081,-0.007993874,-20,47,90,7,-8
2,1693677683679059400,1.024718285,-0.857124209,10.26035118,-0.062085759,-0.001332312,-0.007993874,-28,49,86,10,-3
3,1693677683680059400,1.023521185,-0.858321309,10.25675964,-0.062085759,-0.001598775,-0.008127105,-31,33,87,6,-7
4,1693677683681059400,1.023521185,-0.857124209,10.25675964,-0.062352221,-0.001598775,-0.008127105,-24,39,90,7,-9
0,1693677683775500400,1.023521185,-0.846350312,10.25316906,-0.062085759,-0.001598775,-0.008393568,-26,41,90,10,-8
1,1693677683776500400,1.025915384,-0.847547412,10.25675964,-0.062085759,-0.001598775,-0.008260337,-20,43,88,10,-9
2,1693677683777500400,1.025915384,-0.845153213,10.25556278,-0.061952524,-0.001598775,-0.008127105,-28,39,87,13,-6
3,1693677683778500400,1.029506683,-0.842759013,10.25915432,-0.061819296,-0.001598775,-0.008260337,-23,51,85,6,-16
4,1693677683779500400,1.030703783,-0.843956113,10.25675964,-0.061819296,-0.001598775,-0.008127105,-22,43,84,1,-14
0,1693677683811956200,1.030703783,-0.848744512,10.25556278,-0.061419602,-0.001598775,-0.008260337,-19,55,84,13,-6
1,1693677683812956200,1.031900883,-0.851138711,10.25915432,-0.061419602,-0.001732006,-0.008127105,-22,50,85,7,-5
2,1693677683813956200,1.031900883,-0.848744512,10.25795746,-0.061552834,-0.001732006,-0.008393568,-20,45,87,4,-8
3,1693677683814956200,1.029506683,-0.845153213,10.25675964,-0.061419602,-0.001598775,-0.008526799,-31,46,84,9,-9
4,1693677683815956200,1.028309584,-0.846350312,10.25915432,-0.061552834,-0.001598775,-0.008526799,-24,46,88,13,-6
0,1693677683889955500,1.024718285,-0.846350312,10.27232265,-0.061686065,-0.000932619,-0.008260337,-19,41,89,10,-7
1,1693677683890955500,1.024718285,-0.845153213,10.27112484,-0.061552834,-0.000799387,-0.008393568,-18,47,84,12,-8
2,1693677683891955500,1.021126986,-0.846350312,10.27232265,-0.061819296,-0.000799387,-0.008393568,-28,41,90,2,-9
3,1693677683892955500,1.022324085,-0.847547412,10.27711105,-0.061819296,-0.000666156,-0.008393568,-32,33,88,7,-6
4,1693677683893955500,1.022324085,-0.848744512,10.27591324,-0.061819296,-0.000532925,-0.008660031,-22,39,89,11,-8
0,1693677683949037500,1.027112484,-0.842759013,10.26274586,-0.062085759,-0.001465544,-0.008393568,-27,47,90,10,-6
1,1693677683950037500,1.025915384,-0.840364814,10.25795746,-0.062085759,-0.001332312,-0.008393568,-20,42,85,7,-7
2,1693677683951037500,1.024718285,-0.840364814,10.25077438,-0.062085759,-0.001465544,-0.008526799,-21,45,85,10,-15
3,1693677683952037500,1.025915384,-0.840364814,10.24478912,-0.061952524,-0.001332312,-0.008526799,-23,42,87,10,-5
4,1693677683953037500,1.024718285,-0.840364814,10.24239445,-0.061952524,-0.001465544,-0.008526799,-18,43,85,10,-5
0,1693677684032523100,1.028309584,-0.85473001,10.26394272,-0.062085759,-0.001598775,-0.008127105,-23,46,91,11,-15
1,1693677684033523100,1.027112484,-0.85592711,10.26394272,-0.061952524,-0.001732006,-0.008127105,-27,39,90,4,-13
2,1693677684034523100,1.029506683,-0.857124209,10.26394272,-0.061952524,-0.001732006,-0.008127105,-15,45,87,11,-9
3,1693677684035523100,1.030703783,-0.85592711,10.26513958,-0.061952524,-0.001732006,-0.007993874,-22,44,91,3,-8
4,1693677684036523100,1.030703783,-0.85592711,10.26274586,-0.061819296,-0.001598775,-0.007993874,-28,49,90,11,-8
0,1693677684093556900,1.018732786,-0.85473001,10.24838066,-0.061819296,-0.001465544,-0.008526799,-26,44,90,8,-9
1,1693677684094556900,1.016338587,-0.85473001,10.24718285,-0.061952524,-0.001332312,-0.008393568,-28,45,75,13,-5
2,1693677684095556900,1.018732786,-0.852335811,10.24718285,-0.061819296,-0.001332312,-0.008393568,-24,38,85,8,-7
3,1693677684096556900,1.019929886,-0.848744512,10.24598598,-0.062085759,-0.001465544,-0.008260337,-15,51,90,14,-4
4,1693677684097556900,1.022324085,-0.848744512,10.24598598,-0.061952524,-0.001199081,-0.008260337,-23,54,85,10,-5
0,1693677684151994700,1.030703783,-0.847547412,10.25077438,-0.062218986,-0.001199081,-0.008127105,-26,39,83,8,-8
1,1693677684152994700,1.034295082,-0.847547412,10.24957752,-0.062218986,-0.001199081,-0.008127105,-24,48,88,9,-5
2,1693677684153994700,1.036689281,-0.847547412,10.24957752,-0.062218986,-0.001199081,-0.008260337,-25,46,90,6,-5
3,1693677684154994700,1.035492182,-0.846350312,10.24838066,-0.061952524,-0.001199081,-0.007993874,-16,50,87,13,-6
4,1693677684155994700,1.034295082,-0.849941611,10.24718285,-0.061952524,-0.00106585,-0.007860643,-23,42,90,7,-7
0,1693677684235411000,1.030703783,-0.845153213,10.25675964,-0.061686065,-0.001199081,-0.008260337,-23,42,87,9,-7
1,1693677684236411000,1.028309584,-0.847547412,10.25556278,-0.061686065,-0.001199081,-0.008393568,-22,46,88,12,-8
2,1693677684237411000,1.030703783,-0.847547412,10.25077438,-0.061819296,-0.001199081,-0.008393568,-16,45,87,10,-4
3,1693677684238411000,1.029506683,-0.847547412,10.25556278,-0.061819296,-0.001199081,-0.008393568,-24,51,88,12,-2
4,1693677684239411000,1.029506683,-0.851138711,10.25795746,-0.061819296,-0.00106585,-0.008260337,-33,41,87,12,-6
0,1693677684294811600,1.030703783,-0.847547412,10.26154804,-0.061686065,-0.00106585,-0.007993874,-22,41,87,12,-9
1,1693677684295811600,1.027112484,-0.847547412,10.26992798,-0.061552834,-0.001199081,-0.008260337,-27,45,85,11,-6
2,1693677684296811600,1.023521185,-0.846350312,10.26753426,-0.061819296,-0.001199081,-0.008260337,-15,32,90,12,-13
3,1693677684297811600,1.023521185,-0.846350312,10.26753426,-0.061686065,-0.001199081,-0.008260337,-21,45,89,11,-9
4,1693677684298811600,1.027112484,-0.848744512,10.26873112,-0.061686065,-0.001332312,-0.008260337,-28,35,89,10,-8
0,1693677684379818100,1.029506683,-0.849941611,10.24718285,-0.062218986,-0.001199081,-0.008260337,-27,45,86,13,-8
1,1693677684380818100,1.028309584,-0.849941611,10.24957752,-0.061952524,-0.001332312,-0.008127105,-22,46,89,7,-4
2,1693677684381818100,1.025915384,-0.851138711,10.25077438,-0.061819296,-0.001465544,-0.007993874,-23,43,90,10,-4
3,1693677684382818100,1.028309584,-0.847547412,10.24957752,-0.061952524,-0.001332312,-0.008260337,-31,42,86,13,-9
4,1693677684383818100,1.028309584,-0.848744512,10.25436592,-0.061819296,-0.001332312,-0.008260337,-25,32,83,6,-9
0,1693677684436563800,1.034295082,-0.843956113,10.25077438,-0.061952524,-0.000932619,-0.008260337,-26,45,86,11,-9
1,1693677684437563800,1.028309584,-0.842759013,10.25197124,-0.061952524,-0.00106585,-0.008260337,-30,47,88,7,-7
2,1693677684438563800,1.027112484,-0.847547412,10.25436592,-0.062085759,-0.00106585,-0.008260337,-23,50,85,12,-11
3,1693677684439563800,1.028309584,-0.851138711,10.25197124,-0.061952524,-0.001199081,-0.008260337,-23,42,84,6,-12
4,1693677684440563800,1.024718285,-0.851138711,10.24957752,-0.062085759,-0.001332312,-0.008260337,-21,45,91,9,-11
0,1693677684499934900,1.022324085,-0.85353291,10.24119759,-0.061952524,-0.001465544,-0.008526799,-23,38,99,13,-3
1,1693677684500934900,1.023521185,-0.85353291,10.24598598,-0.062085759,-0.001465544,-0.008526799,-20,47,90,8,-13
2,1693677684501934900,1.022324085,-0.85353291,10.24478912,-0.062218986,-0.001465544,-0.008393568,-23,48,88,7,-8
3,1693677684502934900,1.021126986,-0.85353291,10.24598598,-0.062085759,-0.001465544,-0.008260337,-18,44,87,12,-11
4,1693677684503934900,1.019929886,-0.85353291,10.24359226,-0.062085759,-0.001465544,-0.008127105,-26,48,88,12,-9
0,1693677684562614900,1.021126986,-0.85353291,10.25556278,-0.061952524,-0.001332312,-0.007993874,-24,51,90,19,-5
1,1693677684563614900,1.019929886,-0.85353291,10.25915432,-0.061952524,-0.001465544,-0.007993874,-30,43,85,9,-7
2,1693677684564614900,1.017535686,-0.851138711,10.25915432,-0.061952524,-0.001199081,-0.007993874,-27,41,82,10,-11
3,1693677684565614900,1.018732786,-0.846350312,10.26035118,-0.062218986,-0.001199081,-0.007993874,-21,46,85,6,-13
4,1693677684566614900,1.017535686,-0.843956113,10.26154804,-0.062085759,-0.00106585,-0.007860643,-23,46,87,13,-7
0,1693677684660557400,1.030703783,-0.848744512,10.25915432,-0.062085759,-0.000666156,-0.008127105,-21,44,86,10,-8
1,1693677684661557400,1.034295082,-0.849941611,10.26154804,-0.061952524,-0.000799387,-0.008260337,-33,45,89,12,-8
2,1693677684662557400,1.031900883,-0.851138711,10.25915432,-0.061952524,-0.000799387,-0.008127105,-29,43,85,13,-5
3,1693677684663557400,1.028309584,-0.851138711,10.26513958,-0.061819296,-0.000932619,-0.008393568,-22,47,88,12,-7
4,1693677684664557400,1.027112484,-0.849941611,10.26753426,-0.061952524,-0.000932619,-0.008393568,-24,43,90,8,-6
0,1693677684741229500,1.021126986,-0.847547412,10.25675964,-0.062218986,-0.000799387,-0.007860643,-28,42,90,6,-9
1,1693677684742229500,1.021126986,-0.846350312,10.25197124,-0.062085759,-0.00106585,-0.007993874,-27,39,89,7,-13
2,1693677684743229500,1.021126986,-0.845153213,10.25197124,-0.062085759,-0.00106585,-0.008127105,-24,41,89,11,-10
3,1693677684744229500,1.023521185,-0.846350312,10.24838066,-0.062218986,-0.001199081,-0.007993874,-20,44,90,11,-7
4,1693677684745229500,1.025915384,-0.845153213,10.24478912,-0.062218986,-0.001199081,-0.008260337,-28,50,86,13,-4
0,1693677684776142800,1.031900883,-0.849941611,10.24000072,-0.062085759,-0.001465544,-0.008127105,-27,35,89,6,-11
1,1693677684777142800,1.033097982,-0.848744512,10.24359226,-0.062085759,-0.001465544,-0.008127105,-20,42,90,11,-11
2,1693677684778142800,1.029506683,-0.845153213,10.24239445,-0.062085759,-0.001465544,-0.008127105,-22,49,87,13,-3
3,1693677684779142800,1.028309584,-0.846350312,10.24598598,-0.062218986,-0.001465544,-0.007993874,-20,43,90,13,-4
4,1693677684780142800,1.030703783,-0.846350312,10.25197124,-0.062218986,-0.001332312,-0.008127105,-22,50,90,12,-9
0,1693677684845523800,1.021126986,-0.848744512,10.24718285,-0.062085759,-0.001732006,-0.008393568,-24,43,81,4,-8
1,1693677684846523800,1.018732786,-0.851138711,10.24239445,-0.062085759,-0.001732006,-0.008393568,-20,43,92,13,-5
2,1693677684847523800,1.019929886,-0.85473001,10.23880386,-0.062085759,-0.001598775,-0.008393568,-24,49,91,8,-9
3,1693677684848523800,1.018732786,-0.85353291,10.24000072,-0.062085759,-0.001598775,-0.008260337,-26,50,84,11,-7
4,1693677684849523800,1.016338587,-0.852335811,10.24239445,-0.062085759,-0.001332312,-0.008260337,-22,42,89,10,-7
0,1693677684924560300,1.022324085,-0.851138711,10.24957752,-0.061552834,-0.000932619,-0.007860643,-26,45,88,-2,-5
1,1693677684925560300,1.023521185,-0.849941611,10.24957752,-0.061819296,-0.00106585,-0.007993874,-20,45,88,11,-5
2,1693677684926560300,1.022324085,-0.849941611,10.24838066,-0.061686065,-0.00106585,-0.007860643,-27,57,89,15,-5
3,1693677684927560300,1.022324085,-0.85473001,10.24239445,-0.061686065,-0.001332312,-0.007993874,-26,37,89,7,-9
4,1693677684928560300,1.021126986,-0.85592711,10.24359226,-0.061552834,-0.001332312,-0.007993874,-22,42,89,10,-7
0,1693677684993567500,1.017535686,-0.85592711,10.25675964,-0.061819296,-0.001332312,-0.008260337,-26,39,88,13,-9
1,1693677684994567500,1.017535686,-0.858321309,10.25675964,-0.061819296,-0.001199081,-0.008260337,-21,51,90,11,-7
2,1693677684995567500,1.018732786,-0.858321309,10.25556278,-0.061952524,-0.00106585,-0.008260337,-21,42,86,12,-7
3,1693677684996567500,1.017535686,-0.859518409,10.25795746,-0.061952524,-0.001199081,-0.008393568,-26,44,85,6,-9
4,1693677684997567500,1.017535686,-0.860715508,10.26394272,-0.062085759,-0.001199081,-0.008393568,-23,51,79,2,-11
0,1693677685058796700,1.030703783,-0.860715508,10.26633644,-0.061952524,-0.001465544,-0.008393568,-24,44,89,12,-5
1,1693677685059796700,1.028309584,-0.860715508,10.26154804,-0.061952524,-0.001332312,-0.008393568,-27,37,90,11,-6
2,1693677685060796700,1.031900883,-0.858321309,10.26274586,-0.061819296,-0.001465544,-0.008260337,-24,43,90,13,-4
3,1693677685061796700,1.033097982,-0.85592711,10.26274586,-0.061952524,-0.001465544,-0.008127105,-16,41,90,9,-7
4,1693677685062796700,1.034295082,-0.85592711,10.26753426,-0.062218986,-0.001598775,-0.007993874,-23,42,84,13,-9
0,1693677685126777500,1.016338587,-0.849941611,10.26992798,-0.061952524,-0.001732006,-0.008127105,-22,45,85,11,-7
1,1693677685127777500,1.016338587,-0.851138711,10.26873112,-0.061819296,-0.001865237,-0.008127105,-24,45,91,13,-8
2,1693677685128777500,1.017535686,-0.85473001,10.26633644,-0.061819296,-0.001865237,-0.008127105,-27,38,88,6,-9
3,1693677685129777500,1.017535686,-0.857124209,10.26633644,-0.061819296,-0.001998469,-0.008127105,-28,39,79,-2,-9
4,1693677685130777500,1.015141487,-0.858321309,10.26035118,-0.061952524,-0.001865237,-0.008260337,-24,43,90,6,-4
0,1693677685194426200,1.025915384,-0.863109708,10.25436592,-0.062352221,-0.001332312,-0.007860643,-33,41,89,12,-5
1,1693677685195426200,1.027112484,-0.861912608,10.25556278,-0.062352221,-0.001465544,-0.007860643,-22,49,87,7,-7
2,1693677685196426200,1.028309584,-0.863109708,10.25556278,-0.062218986,-0.001332312,-0.007860643,-23,48,85,10,-9
3,1693677685197426200,1.027112484,-0.864306808,10.25675964,-0.062085759,-0.001465544,-0.007993874,-24,41,87,7,-19
4,1693677685198426200,1.029506683,-0.863109708,10.25197124,-0.061952524,-0.001465544,-0.007993874,-24,43,90,13,-7
0,1693677685303363700,1.030703783,-0.85473001,10.24838066,-0.062085759,-0.00106585,-0.008526799,-28,49,90,8,-6
1,1693677685304363700,1.031900883,-0.857124209,10.25197124,-0.062085759,-0.000932619,-0.008393568,-24,37,89,13,-8
2,1693677685305363700,1.033097982,-0.859518409,10.25316906,-0.062085759,-0.000932619,-0.008660031,-18,43,88,7,-10
3,1693677685306363700,1.030703783,-0.863109708,10.25436592,-0.061819296,-0.00106585,-0.008660031,-22,47,80,11,-11
4,1693677685307363700,1.028309584,-0.863109708,10.25675964,-0.061952524,-0.00106585,-0.008660031,-20,43,91,8,-9
0,1693677685349337300,1.019929886,-0.85592711,10.25556278,-0.061686065,-0.001465544,-0.008260337,-22,49,84,13,-7
1,1693677685350337300,1.021126986,-0.85592711,10.25915432,-0.061819296,-0.001465544,-0.008260337,-24,44,85,7,-10
2,1693677685351337300,1.023521185,-0.85473001,10.25316906,-0.061819296,-0.001598775,-0.008260337,-28,41,85,11,-6
3,1693677685352337300,1.028309584,-0.85353291,10.25316906,-0.061552834,-0.001598775,-0.008260337,-20,49,91,8,-10
4,1693677685353337300,1.028309584,-0.852335811,10.25556278,-0.061419602,-0.001598775,-0.008127105,-17,43,87,7,-9
0,1693677685394310400,1.023521185,-0.848744512,10.23760605,-0.061952524,-0.001465544,-0.008526799,-19,45,84,11,-7
1,1693677685395310400,1.024718285,-0.848744512,10.23760605,-0.061952524,-0.001465544,-0.008393568,-27,36,88,10,-12
2,1693677685396310400,1.022324085,-0.846350312,10.23521233,-0.061952524,-0.001332312,-0.008393568,-27,43,87,9,-6
3,1693677685397310400,1.021126986,-0.846350312,10.24119759,-0.061952524,-0.001199081,-0.008526799,-21,46,84,11,-4
4,1693677685398310400,1.024718285,-0.849941611,10.24359226,-0.061819296,-0.001199081,-0.008526799,-22,46,85,13,1
0,1693677685496406200,1.027112484,-0.849941611,10.25675964,-0.061686065,-0.001732006,-0.008526799,-28,38,80,7,1
1,1693677685497406200,1.025915384,-0.852335811,10.25675964,-0.061686065,-0.001732006,-0.008660031,-17,38,89,10,-8
2,1693677685498406200,1.027112484,-0.85473001,10.25436592,-0.061686065,-0.001865237,-0.008660031,-20,41,87,13,-8
3,1693677685499406200,1.025915384,-0.85592711,10.25675964,-0.061686065,-0.001865237,-0.008526799,-22,46,90,11,-3
4,1693677685500406200,1.025915384,-0.849941611,10.25675964,-0.061686065,-0.001865237,-0.008526799,-19,42,81,18,-4
0,1693677685548565500,1.035492182,-0.857124209,10.26035118,-0.061819296,-0.001332312,-0.008260337,-31,43,84,6,-6
1,1693677685549565500,1.037886381,-0.858321309,10.25316906,-0.061952524,-0.001332312,-0.008260337,-31,48,89,12,-11
2,1693677685550565500,1.036689281,-0.859518409,10.25077438,-0.061952524,-0.001332312,-0.008260337,-24,42,87,4,-4
3,1693677685551565500,1.036689281,-0.859518409,10.25197124,-0.061952524,-0.001332312,-0.008127105,-18,43,99,11,-6
4,1693677685552565500,1.036689281,-0.85592711,10.25436592,-0.061952524,-0.001465544,-0.008127105,-22,41,87,13,-9
