timestamp,left_data_Ac_X,left_data_Ac_Y,left_data_Ac_Z,left_data_Gy_X,left_data_Gy_Y,left_data_Gy_Z,left_data_flex_1,left_data_flex_2,left_data_flex_3,left_data_flex_4,left_data_flex_5,right_data_Ac_X,right_data_Ac_Y,right_data_Ac_Z,right_data_Gy_X,right_data_Gy_Y,right_data_Gy_Z,right_data_flex_1,right_data_flex_2,right_data_flex_3,right_data_flex_4,right_data_flex_5
1693677863138568000,1.016338587,-0.859518409,10.24598598,-0.061552834,-0.000532925,-0.007727412,-8,45,71,9,-7,-0.116118781,2.41574955,10.21366405,0.053825419,-0.027179174,0.037837673,19,30,-21,-22,52
1693677863139568000,1.016338587,-0.85592711,10.24718285,-0.061686065,-0.000666156,-0.007594181,-24,35,86,10,-7,-0.116118781,2.41694665,10.21605873,0.053825419,-0.027045943,0.037704438,20,38,-24,-27,53
1693677863140568000,1.016338587,-0.858321309,10.24359226,-0.061552834,-0.000666156,-0.007727412,-22,45,89,13,8,-0.114921682,2.422932148,10.21246719,0.053692192,-0.027179174,0.037837673,21,43,-28,-17,42
1693677863141568000,1.018732786,-0.858321309,10.24359226,-0.061419602,-0.000532925,-0.007727412,-24,45,90,13,-5,-0.113724582,2.421735048,10.21007347,0.053958651,-0.027045943,0.037837673,10,41,-23,-23,45
1693677863142568000,1.016338587,-0.859518409,10.25316906,-0.06115314,-0.000133231,-0.007860643,-25,43,83,11,-3,-0.114921682,2.420537949,10.21486187,0.053825419,-0.027045943,0.037837673,15,33,-23,-20,60
1693677863208354600,1.022324085,-0.859518409,10.23281765,-0.060886677,-0.000799387,-0.008260337,-27,49,89,8,-11,-0.117315881,2.420537949,10.23281765,0.053159267,-0.027445635,0.037837673,15,37,-32,-23,48
1693677863209354600,1.021126986,-0.863109708,10.22922707,-0.061286367,-0.000399694,-0.008526799,-27,45,87,13,-6,-0.119710088,2.421735048,10.22443867,0.053026035,-0.027179174,0.037704438,17,41,-21,-19,57
1693677863210354600,1.017535686,-0.864306808,10.22563553,-0.061286367,-0.000799387,-0.008393568,-24,45,90,13,-16,-0.123301387,2.419340849,10.22324085,0.053159267,-0.027045943,0.037837673,15,36,-23,-22,50
1693677863211354600,1.024718285,-0.865503907,10.23880386,-0.061019909,-0.000666156,-0.008260337,-19,48,85,10,-9,-0.128089786,2.420537949,10.22204399,0.053292494,-0.02691271,0.037837673,18,39,-23,-22,53
1693677863212354600,1.021126986,-0.865503907,10.24000072,-0.06115314,-0.000666156,-0.008260337,-26,41,83,13,-9,-0.128089786,2.419340849,10.22563553,0.053292494,-0.02691271,0.037704438,17,35,-24,-17,48
1693677863259317900,1.019929886,-0.85353291,10.23760605,-0.061552834,-0.000532925,-0.007993874,-26,38,85,8,-11,-0.108936176,2.418143749,10.21725559,0.054091886,-0.027312404,0.037837673,15,32,-31,-23,39
1693677863260317900,1.018732786,-0.85592711,10.23640919,-0.061552834,-0.000666156,-0.008127105,-20,48,83,13,-7,-0.108936176,2.41694665,10.21486187,0.054091886,-0.027045943,0.037704438,19,35,-25,-24,52
1693677863261317900,1.019929886,-0.85592711,10.23640919,-0.061419602,-0.000799387,-0.007993874,-20,47,88,11,0,-0.108936176,2.41574955,10.21845245,0.053958651,-0.027045943,0.03757121,20,36,-23,-27,51
1693677863262317900,1.019929886,-0.85353291,10.23880386,-0.061419602,-0.000666156,-0.007860643,-23,43,86,10,-8,-0.111330383,2.41574955,10.21486187,0.054091886,-0.027045943,0.037704438,13,41,-25,-19,53
1693677863263317900,1.018732786,-0.849941611,10.24000072,-0.061286367,-0.000532925,-0.007727412,-26,43,80,10,-8,-0.112527482,2.418143749,10.21605873,0.054091886,-0.027045943,0.037704438,20,39,-31,-24,52
1693677863301292800,1.011550188,-0.85473001,10.23880386,-0.061419602,-0.00106585,-0.007860643,-24,42,103,19,-5,-0.114921682,2.404975653,10.23042393,0.053425729,-0.026646247,0.037704438,15,35,-32,-18,50
1693677863302292800,1.013944387,-0.859518409,10.24239445,-0.061552834,-0.00106585,-0.007860643,-23,49,88,6,-6,-0.118512981,2.406172752,10.22443867,0.053425729,-0.02691271,0.037970904,17,36,-21,-24,55
1693677863303292800,1.012747288,-0.859518409,10.24359226,-0.061419602,-0.000932619,-0.007860643,-25,42,83,12,-9,-0.117315881,2.409764051,10.22683239,0.053825419,-0.027312404,0.038104136,21,45,-15,-20,55
1693677863304292800,1.011550188,-0.858321309,10.24478912,-0.061552834,-0.000932619,-0.007993874,-23,43,90,11,-8,-0.116118781,2.412158251,10.23401546,0.054091886,-0.027712099,0.038104136,20,43,-29,-26,52
1693677863305292800,1.012747288,-0.858321309,10.23640919,-0.061552834,-0.000799387,-0.007993874,-37,41,90,10,-6,-0.112527482,2.41574955,10.23760605,0.054225113,-0.027712099,0.038104136,18,37,-23,-24,52
1693677863337272600,1.016338587,-0.849941611,10.22922707,-0.06115314,-0.000399694,-0.007727412,-31,43,91,13,-9,-0.113724582,2.421735048,10.22443867,0.053558957,-0.026646247,0.037171517,14,39,-23,-28,51
1693677863338272600,1.017535686,-0.847547412,10.23162079,-0.06115314,-0.000532925,-0.007727412,-27,46,85,13,-5,-0.113724582,2.419340849,10.22204399,0.053558957,-0.026646247,0.03757121,19,39,-21,-22,50
1693677863339272600,1.018732786,-0.845153213,10.23162079,-0.06115314,-0.000532925,-0.007860643,-1,71,109,34,14,-0.117315881,2.41574955,10.22084713,0.053692192,-0.02691271,0.037704438,20,44,-24,-13,53
1693677863340272600,1.018732786,-0.841561913,10.23042393,-0.061019909,-0.000666156,-0.007993874,-21,41,79,11,-9,-0.119710088,2.41455245,10.21845245,0.053692192,-0.027179174,0.037970904,18,41,-25,-26,50
1693677863341272600,1.017535686,-0.847547412,10.23042393,-0.061019909,-0.000666156,-0.008127105,-23,38,83,6,-13,-0.120907187,2.41694665,10.21845245,0.053825419,-0.027312404,0.038237367,18,46,-21,-26,52
1693677863378249200,1.024718285,-0.85592711,10.23162079,-0.06115314,-0.000399694,-0.007727412,-20,42,91,13,-4,-0.111330383,2.410961151,10.22683239,0.053825419,-0.02691271,0.037704438,19,36,-23,-18,50
1693677863379249200,1.025915384,-0.85353291,10.22802925,-0.061286367,-0.000399694,-0.007727412,-16,46,90,7,-8,-0.111330383,2.41335535,10.22802925,0.053825419,-0.026646247,0.03757121,15,40,-25,-26,50
1693677863380249200,1.027112484,-0.85473001,10.22443867,-0.061286367,-0.000133231,-0.007860643,-26,41,89,12,-12,-0.112527482,2.41455245,10.23401546,0.053825419,-0.026513018,0.03757121,15,35,-25,-25,53
1693677863381249200,1.029506683,-0.85592711,10.22683239,-0.061286367,-0.000266462,-0.007860643,-33,51,88,11,-7,-0.112527482,2.41335535,10.24000072,0.053958651,-0.026379786,0.037704438,17,41,-25,-16,52
1693677863382249200,1.031900883,-0.858321309,10.22922707,-0.061286367,-0.000399694,-0.007993874,-24,45,87,10,-7,-0.112527482,2.409764051,10.24000072,0.053958651,-0.026779478,0.037837673,15,30,-23,-26,52
1693677863417227600,1.031900883,-0.864306808,10.24359226,-0.061552834,-0.000799387,-0.008127105,-30,45,87,12,-7,-0.105344877,2.408566952,10.22922707,0.053425729,-0.026246555,0.037704438,20,44,-17,-17,38
1693677863418227600,1.031900883,-0.861912608,10.24718285,-0.061552834,-0.000666156,-0.008260337,-24,43,83,9,-8,-0.108936176,2.409764051,10.22802925,0.053425729,-0.026379786,0.037704438,20,36,-21,-24,82
1693677863419227600,1.035492182,-0.861912608,10.25316906,-0.061552834,-0.000799387,-0.008127105,-27,45,84,12,-8,-0.105344877,2.409764051,10.22922707,0.053692192,-0.02691271,0.037704438,17,41,-21,-28,55
1693677863420227600,1.031900883,-0.860715508,10.25915432,-0.061419602,-0.000932619,-0.008127105,-19,42,84,3,-4,-0.104147777,2.408566952,10.22802925,0.054091886,-0.027179174,0.037704438,17,35,-25,-20,51
1693677863421227600,1.029506683,-0.858321309,10.25556278,-0.061419602,-0.000932619,-0.007860643,-26,48,87,13,-9,-0.106541976,2.408566952,10.22563553,0.054091886,-0.027445635,0.037970904,20,41,-22,-20,49
1693677863451207000,1.012747288,-0.85473001,10.26035118,-0.061419602,-0.000399694,-0.007594181,-17,43,91,12,-6,-0.111330383,2.410961151,10.23521233,0.053558957,-0.027045943,0.037704438,23,44,-19,-19,54
1693677863452207000,1.013944387,-0.85353291,10.26154804,-0.061552834,-0.000399694,-0.007727412,-28,45,89,13,-8,-0.111330383,2.409764051,10.23281765,0.053558957,-0.027045943,0.037837673,20,36,-25,-28,55
1693677863453207000,1.013944387,-0.849941611,10.25316906,-0.061552834,-0.000399694,-0.007860643,-27,38,83,12,-12,-0.111330383,2.412158251,10.23162079,0.053425729,-0.02691271,0.037837673,18,30,-28,-27,49
1693677863454207000,1.012747288,-0.848744512,10.25675964,-0.061419602,-0.000399694,-0.007727412,-24,43,83,12,-8,-0.113724582,2.412158251,10.23162079,0.053558957,-0.027179174,0.037837673,13,42,-23,-23,52
1693677863455207000,1.015141487,-0.85353291,10.25316906,-0.061419602,-0.000532925,-0.007860643,-26,45,90,13,-9,-0.118512981,2.41335535,10.22922707,0.053825419,-0.027179174,0.037970904,12,44,-23,-24,53
1693677863490187800,1.019929886,-0.85592711,10.24000072,-0.061552834,-0.000666156,-0.008526799,-21,42,90,13,-3,-0.116118781,2.406172752,10.22084713,0.053825419,-0.026779478,0.037837673,14,31,-24,-23,49
1693677863491187800,1.021126986,-0.85473001,10.24000072,-0.061552834,-0.000532925,-0.008393568,-28,43,87,10,-7,-0.118512981,2.409764051,10.22084713,0.053692192,-0.026779478,0.03757121,14,39,-23,-18,50
1693677863492187800,1.022324085,-0.852335811,10.24598598,-0.061686065,-0.000532925,-0.008393568,-21,46,85,13,-6,-0.116118781,2.410961151,10.21725559,0.053692192,-0.02691271,0.03757121,17,32,-28,-31,51
1693677863493187800,1.024718285,-0.851138711,10.24359226,-0.061552834,-0.000399694,-0.008393568,-23,47,90,12,-9,-0.114921682,2.410961151,10.22084713,0.053558957,-0.02691271,0.037704438,17,41,-25,-17,52
1693677863494187800,1.024718285,-0.851138711,10.24359226,-0.061686065,-0.000266462,-0.008393568,-18,50,85,9,-3,-0.114921682,2.412158251,10.21965027,0.053692192,-0.027045943,0.037704438,18,48,-24,-26,55
1693677863525165200,1.018732786,-0.857124209,10.23880386,-0.061552834,-0.000799387,-0.008260337,-24,36,85,13,-3,-0.111330383,2.412158251,10.23281765,0.053825419,-0.027312404,0.037837673,6,36,-25,-26,50
1693677863526165200,1.017535686,-0.85592711,10.24000072,-0.061419602,-0.000799387,-0.008127105,-31,39,86,8,-13,-0.108936176,2.41335535,10.23401546,0.053692192,-0.027312404,0.038104136,18,39,-24,-27,48
1693677863527165200,1.016338587,-0.852335811,10.24000072,-0.061686065,-0.000799387,-0.007860643,-16,46,88,8,-5,-0.108936176,2.410961151,10.23640919,0.053825419,-0.027179174,0.037970904,14,30,-21,-27,46
1693677863528165200,1.018732786,-0.848744512,10.24478912,-0.061552834,-0.000932619,-0.007993874,-24,42,87,12,-8,-0.111330383,2.410961151,10.23401546,0.053825419,-0.027179174,0.037837673,18,39,-23,-22,52
1693677863529165200,1.022324085,-0.848744512,10.24478912,-0.061552834,-0.000799387,-0.007860643,-26,45,85,12,-5,-0.111330383,2.409764051,10.23640919,0.053958651,-0.027179174,0.037970904,20,41,-23,-20,55
1693677863566142400,1.019929886,-0.859518409,10.23162079,-0.061419602,-0.001465544,-0.007727412,-24,39,86,13,-5,-0.1316811,2.419340849,10.23162079,0.054091886,-0.02691271,0.038237367,14,32,-29,-23,49
1693677863567142400,1.017535686,-0.860715508,10.22922707,-0.061419602,-0.001465544,-0.007860643,-25,46,83,11,-7,-0.129286885,2.418143749,10.23042393,0.054091886,-0.026779478,0.038237367,14,30,-24,-24,48
1693677863568142400,1.017535686,-0.861912608,10.22683239,-0.061686065,-0.001465544,-0.007860643,-26,47,89,13,-5,-0.1316811,2.41694665,10.22563553,0.053958651,-0.026513018,0.037970904,19,30,-24,-18,54
1693677863569142400,1.016338587,-0.860715508,10.22922707,-0.061686065,-0.001465544,-0.007993874,-33,53,87,12,-1,-0.126892686,2.41694665,10.22802925,0.054091886,-0.026646247,0.037837673,16,35,-21,-22,48
1693677863570142400,1.018732786,-0.859518409,10.23760605,-0.061686065,-0.001465544,-0.007860643,-18,51,87,14,-6,-0.124498487,2.41455245,10.23162079,0.054225113,-0.026779478,0.037970904,21,38,-16,-18,55
1693677863602121500,1.019929886,-0.861912608,10.23401546,-0.061552834,-0.001199081,-0.007993874,-24,38,81,10,-7,-0.110133275,2.41335535,10.22922707,0.054091886,-0.026646247,0.037704438,18,31,-24,-27,52
1693677863603121500,1.019929886,-0.859518409,10.23281765,-0.061552834,-0.001199081,-0.007993874,-21,49,85,8,-7,-0.111330383,2.41335535,10.22563553,0.054091886,-0.026646247,0.037437979,18,41,-27,-23,49
1693677863604121500,1.022324085,-0.857124209,10.22802925,-0.061552834,-0.001199081,-0.008127105,-22,46,90,10,-5,-0.110133275,2.412158251,10.22204399,0.054091886,-0.026646247,0.037437979,15,45,-21,-24,56
1693677863605121500,1.025915384,-0.857124209,10.22204399,-0.061419602,-0.001199081,-0.007993874,-19,45,89,12,-6,-0.111330383,2.409764051,10.22324085,0.054091886,-0.026646247,0.037437979,20,36,-21,-20,52
1693677863606121500,1.029506683,-0.85592711,10.22443867,-0.061419602,-0.00106585,-0.008127105,-16,46,84,12,-5,-0.113724582,2.41335535,10.21965027,0.054091886,-0.026646247,0.037304748,19,44,-23,-22,55
1693677863639099600,1.033097982,-0.851138711,10.25077438,-0.061552834,-0.001199081,-0.007727412,-19,42,88,9,-5,-0.122104287,2.421735048,10.21845245,0.053825419,-0.026779478,0.03757121,13,36,-23,-27,54
1693677863640099600,1.031900883,-0.851138711,10.24718285,-0.061686065,-0.001199081,-0.007594181,-23,47,90,8,-3,-0.124498487,2.422932148,10.22084713,0.053825419,-0.026646247,0.037704438,16,39,-18,-23,54
1693677863641099600,1.029506683,-0.849941611,10.24359226,-0.061686065,-0.00106585,-0.007460949,-20,47,86,12,-7,-0.122104287,2.424129248,10.22084713,0.053958651,-0.026779478,0.037704438,9,39,-21,-20,52
1693677863642099600,1.029506683,-0.851138711,10.24478912,-0.061686065,-0.00106585,-0.007594181,-19,47,89,14,-3,-0.124498487,2.422932148,10.22204399,0.054091886,-0.026513018,0.037704438,22,48,-21,-15,58
1693677863643099600,1.028309584,-0.851138711,10.24478912,-0.061552834,-0.00106585,-0.007594181,-24,43,90,13,-9,-0.123301387,2.424129248,10.21725559,0.054091886,-0.026646247,0.037837673,20,47,-17,-24,56
1693677863674078800,1.022324085,-0.843956113,10.25077438,-0.061686065,-0.00106585,-0.008393568,-22,49,87,12,-12,-0.117315881,2.419340849,10.22922707,0.053692192,-0.027045943,0.037970904,15,41,-26,-23,49
1693677863675078800,1.022324085,-0.845153213,10.25436592,-0.061419602,-0.00106585,-0.008260337,-16,46,89,13,-7,-0.114921682,2.421735048,10.22802925,0.053825419,-0.027045943,0.037970904,5,42,-21,-19,44
1693677863676078800,1.023521185,-0.847547412,10.25556278,-0.061419602,-0.00106585,-0.008393568,-17,43,90,14,-11,-0.114921682,2.424129248,10.22802925,0.053825419,-0.027045943,0.037970904,20,45,-19,-22,55
1693677863677078800,1.022324085,-0.849941611,10.25795746,-0.061286367,-0.000932619,-0.008260337,-20,37,86,13,-13,-0.116118781,2.420537949,10.22922707,0.053692192,-0.02691271,0.038104136,13,41,-29,-20,51
1693677863678078800,1.022324085,-0.848744512,10.25795746,-0.061286367,-0.000666156,-0.008393568,-30,44,84,11,-7,-0.111330383,2.418143749,10.22802925,0.053692192,-0.026779478,0.038104136,20,31,-25,-26,51
1693677863713060500,1.021126986,-0.863109708,10.24718285,-0.060886677,0.000266462,-0.008660031,-22,51,85,12,-7,-0.118512981,2.41694665,10.21965027,0.053425729,-0.026779478,0.037970904,19,30,-16,-27,48
1693677863714060500,1.023521185,-0.861912608,10.25197124,-0.061019909,0.000399694,-0.008793262,-20,44,90,14,-4,-0.119710088,2.41694665,10.22204399,0.053558957,-0.026646247,0.037970904,20,36,-23,-20,54
1693677863715060500,1.021126986,-0.861912608,10.25436592,-0.061019909,0.000532925,-0.008793262,-26,49,88,6,-3,-0.117315881,2.418143749,10.22443867,0.053558957,-0.026513018,0.038104136,17,31,-22,-20,53
1693677863716060500,1.021126986,-0.861912608,10.25556278,-0.06115314,0.000532925,-0.008660031,-28,42,88,10,-5,-0.118512981,2.41694665,10.22563553,0.053692192,-0.026646247,0.038237367,17,31,-20,-27,48
1693677863717060500,1.022324085,-0.866701007,10.25197124,-0.06115314,0.000399694,-0.008660031,-22,45,83,7,-13,-0.117315881,2.41694665,10.22563553,0.053825419,-0.026779478,0.038237367,13,37,-28,-23,49
1693677863750036100,1.024718285,-0.860715508,10.23760605,-0.061286367,0.0,-0.007860643,-22,45,87,12,-6,-0.124498487,2.409764051,10.22204399,0.053958651,-0.02691271,0.037970904,20,35,-20,-20,54
1693677863751036100,1.024718285,-0.859518409,10.24359226,-0.061286367,-0.000399694,-0.007860643,-19,44,90,14,-3,-0.123301387,2.410961151,10.21965027,0.053958651,-0.026779478,0.038104136,17,48,-23,-20,54
1693677863752036100,1.023521185,-0.858321309,10.24119759,-0.06115314,-0.00106585,-0.007860643,-24,48,85,14,-2,-0.120907187,2.41335535,10.21845245,0.054091886,-0.026646247,0.037970904,6,39,-20,-23,54
1693677863753036100,1.025915384,-0.860715508,10.25316906,-0.060753446,-0.000666156,-0.007993874,-19,48,87,12,-9,-0.123301387,2.410961151,10.22204399,0.053825419,-0.026513018,0.038104136,17,30,-28,-31,49
1693677863754036100,1.019929886,-0.85592711,10.22922707,-0.061686065,-0.000799387,-0.008260337,-26,46,88,13,-9,-0.123301387,2.412158251,10.22443867,0.053958651,-0.026779478,0.037970904,14,44,-25,-22,55
1693677863786037500,1.019929886,-0.846350312,10.24957752,-0.060886677,-0.000932619,-0.007860643,-22,45,90,11,-11,-0.112527482,2.41335535,10.21725559,0.053558957,-0.027445635,0.037704438,13,29,-16,-24,55
1693677863787037500,1.017535686,-0.849941611,10.26274586,-0.061419602,-0.00106585,-0.007860643,-18,50,91,12,-6,-0.112527482,2.41335535,10.21605873,0.053558957,-0.027445635,0.037704438,20,46,-22,-22,52
1693677863788037500,1.016338587,-0.848744512,10.25556278,-0.061686065,-0.001199081,-0.008127105,-23,45,85,13,-4,-0.116118781,2.412158251,10.22084713,0.053558957,-0.027179174,0.03757121,17,32,-19,-27,52
1693677863789037500,1.013944387,-0.845153213,10.25675964,-0.06115314,-0.000932619,-0.007993874,-26,45,90,13,-7,-0.119710088,2.41574955,10.22324085,0.053558957,-0.027179174,0.037704438,18,37,-24,-24,53
1693677863790037500,1.013944387,-0.849941611,10.26394272,-0.061552834,-0.001199081,-0.007993874,-22,43,83,11,-5,-0.119710088,2.41694665,10.22802925,0.053425729,-0.027312404,0.037704438,16,34,-31,-24,48
1693677863824993000,1.028309584,-0.851138711,10.24119759,-0.06115314,-0.001465544,-0.008127105,-23,46,85,12,-8,-0.116118781,2.41455245,10.23760605,0.053558957,-0.027179174,0.037970904,19,43,-13,-27,55
1693677863825993000,1.029506683,-0.852335811,10.23880386,-0.060886677,-0.001332312,-0.008260337,-20,43,84,12,-7,-0.116118781,2.41335535,10.23640919,0.053558957,-0.027045943,0.037837673,23,45,-29,-20,49
1693677863826993000,1.028309584,-0.85592711,10.24239445,-0.061019909,-0.001332312,-0.008260337,-19,47,87,2,-8,-0.113724582,2.41455245,10.23760605,0.053425729,-0.027045943,0.037837673,14,33,-23,-20,53
1693677863827993000,1.027112484,-0.85353291,10.24718285,-0.061286367,-0.00106585,-0.008260337,-24,47,85,7,-6,-0.110133275,2.41574955,10.23640919,0.053558957,-0.027179174,0.037837673,11,37,-25,-24,50
1693677863828993000,1.028309584,-0.852335811,10.24359226,-0.061286367,-0.000799387,-0.008260337,-39,41,84,13,-7,-0.110133275,2.41455245,10.23640919,0.053692192,-0.027045943,0.037970904,19,35,-19,-32,50
1693677863858976100,1.025915384,-0.85353291,10.24359226,-0.062085759,-0.000799387,-0.009059724,-23,45,89,13,-2,-0.120907187,2.41574955,10.23162079,0.053558957,-0.027312404,0.037837673,19,39,-18,-23,55
1693677863859976100,1.027112484,-0.852335811,10.24119759,-0.061419602,-0.000532925,-0.008926493,-24,43,83,10,-5,-0.122104287,2.41455245,10.23281765,0.053692192,-0.027179174,0.037704438,20,45,-25,-24,53
1693677863860976100,1.027112484,-0.85592711,10.24478912,-0.061686065,-0.000666156,-0.009059724,-19,41,89,7,-7,-0.120907187,2.41335535,10.23281765,0.053825419,-0.027445635,0.03757121,14,36,-25,-27,53
1693677863861976100,1.028309584,-0.857124209,10.23401546,-0.061686065,-0.000532925,-0.008926493,-20,42,86,13,-17,-0.123301387,2.41694665,10.23401546,0.053825419,-0.027445635,0.037437979,20,30,-25,-24,55
1693677863862976100,1.027112484,-0.85592711,10.23521233,-0.061419602,-0.000399694,-0.008926493,-20,45,83,12,-11,-0.124498487,2.41574955,10.22922707,0.053825419,-0.027312404,0.037437979,16,36,-27,-24,53
1693677863893953300,1.019929886,-0.859518409,10.24598598,-0.061686065,-0.000266462,-0.008127105,-28,51,87,10,-12,-0.113724582,2.410961151,10.22324085,0.053692192,-0.026779478,0.037837673,13,36,-31,-24,55
1693677863894953300,1.021126986,-0.859518409,10.24598598,-0.061819296,-0.000532925,-0.008260337,-20,41,84,11,-7,-0.114921682,2.410961151,10.22324085,0.053425729,-0.026646247,0.037837673,21,36,-24,-27,53
1693677863895953300,1.024718285,-0.863109708,10.24359226,-0.061686065,-0.000532925,-0.008260337,-28,48,87,6,-7,-0.117315881,2.41455245,10.22563553,0.053558957,-0.026779478,0.037970904,11,30,-23,-22,50
1693677863896953300,1.024718285,-0.860715508,10.24359226,-0.061819296,-0.000666156,-0.008393568,-27,49,85,8,-8,-0.114921682,2.41455245,10.22922707,0.053425729,-0.02691271,0.037837673,20,41,-24,-24,53
1693677863897953300,1.024718285,-0.861912608,10.24478912,-0.061552834,-0.000666156,-0.008260337,-22,43,90,6,-6,-0.117315881,2.408566952,10.22802925,0.053425729,-0.02691271,0.037970904,18,45,-25,-24,54
1693677863932932200,1.036689281,-0.867898107,10.23880386,-0.061286367,-0.000532925,-0.007993874,-10,42,80,12,-9,-0.116118781,2.408566952,10.22084713,0.053558957,-0.027712099,0.038104136,18,39,-22,-19,47
1693677863933932200,1.030703783,-0.866701007,10.23880386,-0.061419602,-0.000532925,-0.008127105,-18,49,88,9,-7,-0.113724582,2.409764051,10.21845245,0.053825419,-0.027845331,0.038104136,22,36,-21,-23,51
1693677863934932200,1.030703783,-0.865503907,10.24239445,-0.061286367,-0.000666156,-0.007860643,-32,41,83,8,-7,-0.113724582,2.409764051,10.22084713,0.053825419,-0.02797856,0.037970904,13,37,-22,-26,50
1693677863935932200,1.028309584,-0.860715508,10.24239445,-0.061286367,-0.000666156,-0.007993874,-22,53,90,7,-8,-0.112527482,2.412158251,10.22324085,0.053692192,-0.027845331,0.037970904,20,40,-27,-18,51
1693677863936932200,1.027112484,-0.863109708,10.24359226,-0.061419602,-0.000666156,-0.007993874,-16,49,89,18,-4,-0.113724582,2.41455245,10.22563553,0.053692192,-0.027578866,0.037837673,19,40,-23,-20,54
1693677863972912400,1.029506683,-0.861912608,10.24838066,-0.061019909,-0.000932619,-0.007860643,-22,45,87,12,-3,-0.122104287,2.418143749,10.21366405,0.053026035,-0.02571363,0.03757121,20,35,-23,-27,51
1693677863973912400,1.029506683,-0.859518409,10.24718285,-0.061286367,-0.000799387,-0.007860643,-20,43,87,14,-7,-0.118512981,2.412158251,10.21366405,0.053159267,-0.025447167,0.03757121,17,41,-23,-27,41
1693677863974912400,1.027112484,-0.860715508,10.24718285,-0.061286367,-0.000666156,-0.007993874,-24,45,83,10,-9,-0.118512981,2.409764051,10.21605873,0.053159267,-0.02571363,0.03757121,14,33,-24,-26,49
1693677863975912400,1.027112484,-0.858321309,10.24598598,-0.061286367,-0.000799387,-0.007860643,-1,67,92,11,-4,-0.122104287,2.408566952,10.22204399,0.053292494,-0.025846859,0.037837673,13,35,-25,-23,52
1693677863976912400,1.025915384,-0.859518409,10.24359226,-0.061286367,-0.000666156,-0.007993874,-26,50,83,5,-7,-0.123301387,2.408566952,10.22324085,0.053159267,-0.026113322,0.038104136,17,44,-21,-23,53
1693677864027877500,1.025915384,-0.849941611,10.22802925,-0.061819296,-0.000666156,-0.008260337,-24,42,90,11,-11,-0.118512981,2.420537949,10.22563553,0.053825419,-0.027179174,0.037837673,22,30,-19,-24,53
1693677864028877500,1.030703783,-0.848744512,10.22922707,-0.061819296,-0.000532925,-0.008127105,-24,49,76,7,-5,-0.119710088,2.420537949,10.22563553,0.053825419,-0.027045943,0.037837673,13,35,-23,-28,53
1693677864029877500,1.028309584,-0.849941611,10.23640919,-0.061819296,-0.000532925,-0.007860643,-22,45,91,9,-7,-0.118512981,2.420537949,10.22563553,0.053692192,-0.02691271,0.037704438,11,41,-23,-18,55
1693677864030877500,1.028309584,-0.848744512,10.23880386,-0.061952524,-0.000532925,-0.007993874,-10,49,81,13,-3,-0.117315881,2.420537949,10.22683239,0.053558957,-0.02691271,0.037704438,14,40,-24,-22,44
1693677864031877500,1.028309584,-0.848744512,10.23880386,-0.061952524,-0.000532925,-0.007993874,-20,45,89,10,-7,-0.114921682,2.419340849,10.22443867,0.053558957,-0.02691271,0.037837673,19,31,-29,-26,52
1693677864075849500,1.018732786,-0.843956113,10.23521233,-0.060886677,-0.00106585,-0.007860643,-27,35,81,9,-8,-0.106541976,2.412158251,10.21845245,0.053825419,-0.026513018,0.037704438,20,30,-17,-21,65
1693677864076849500,1.019929886,-0.846350312,10.23640919,-0.061019909,-0.000932619,-0.007860643,-29,43,86,4,-9,-0.108936176,2.412158251,10.21965027,0.053825419,-0.026513018,0.037704438,21,46,-25,-23,52
1693677864077849500,1.018732786,-0.845153213,10.23281765,-0.061019909,-0.001199081,-0.007993874,-20,45,83,6,-6,-0.108936176,2.410961151,10.22204399,0.053692192,-0.026113322,0.037704438,20,37,-19,-16,53
1693677864078849500,1.017535686,-0.843956113,10.23760605,-0.06115314,-0.00106585,-0.007860643,-24,43,81,6,-11,-0.108936176,2.412158251,10.22683239,0.053692192,-0.026379786,0.037837673,20,39,-23,-22,54
1693677864079849500,1.017535686,-0.846350312,10.23880386,-0.06115314,-0.000932619,-0.007993874,-31,47,85,10,-12,-0.108936176,2.41455245,10.22922707,0.053825419,-0.026513018,0.037970904,5,30,-28,-28,50
1693677864114828100,1.027112484,-0.859518409,10.24359226,-0.061686065,-0.000799387,-0.008127105,-30,41,87,4,-9,-0.122104287,2.41335535,10.22563553,0.053292494,-0.025980091,0.03757121,20,46,-16,-16,54
1693677864115828100,1.027112484,-0.859518409,10.24838066,-0.061686065,-0.000799387,-0.008127105,-24,45,85,6,-8,-0.122104287,2.412158251,10.22683239,0.053026035,-0.025580399,0.03757121,21,37,-21,-20,55
1693677864116828100,1.025915384,-0.864306808,10.25197124,-0.061552834,-0.000666156,-0.008127105,-24,77,79,7,-7,-0.119710088,2.41335535,10.22443867,0.053026035,-0.026113322,0.03757121,18,44,-24,-19,50
1693677864117828100,1.027112484,-0.863109708,10.24478912,-0.061819296,-0.000799387,-0.008127105,-23,41,84,10,-8,-0.120907187,2.412158251,10.22084713,0.053558957,-0.026779478,0.037437979,-1,40,-28,-29,48
1693677864118828100,1.027112484,-0.861912608,10.24838066,-0.061686065,-0.000799387,-0.008127105,-27,43,84,8,-16,-0.119710088,2.409764051,10.21725559,0.054225113,-0.027445635,0.037304748,20,36,-27,-23,53
1693677864149809500,1.024718285,-0.859518409,10.24239445,-0.061419602,-0.000932619,-0.007460949,-26,43,83,9,-11,-0.123301387,2.41574955,10.21605873,0.053026035,-0.025980091,0.037171517,20,35,-27,-20,36
1693677864150809500,1.024718285,-0.858321309,10.24239445,-0.061286367,-0.000666156,-0.007594181,-22,41,88,3,-7,-0.122104287,2.410961151,10.21486187,0.053292494,-0.026113322,0.037304748,20,45,-24,-20,45
1693677864151809500,1.025915384,-0.85592711,10.24359226,-0.061286367,-0.000799387,-0.007727412,-28,42,81,3,-8,-0.126892686,2.409764051,10.21725559,0.053558957,-0.02691271,0.03757121,15,37,-17,-20,52
1693677864152809500,1.027112484,-0.857124209,10.24119759,-0.061286367,-0.000799387,-0.007860643,-30,46,85,6,-13,-0.128089786,2.41335535,10.21965027,0.053958651,-0.027578866,0.037837673,13,40,-21,-24,52
1693677864153809500,1.027112484,-0.857124209,10.24598598,-0.06115314,-0.000799387,-0.007860643,-24,43,83,12,-13,-0.124498487,2.418143749,10.22443867,0.054358348,-0.028245023,0.037837673,20,43,-21,-20,51
1693677864184786600,1.023521185,-0.857124209,10.23042393,-0.061552834,-0.00106585,-0.007993874,-28,35,85,10,-9,-0.112527482,2.412158251,10.22563553,0.053292494,-0.026246555,0.038104136,20,40,-23,-22,51
1693677864185786600,1.023521185,-0.857124209,10.23401546,-0.061686065,-0.000932619,-0.007860643,-16,46,83,11,-8,-0.113724582,2.412158251,10.22204399,0.053292494,-0.025980091,0.038104136,20,40,-23,-22,54
1693677864186786600,1.027112484,-0.85592711,10.23401546,-0.061552834,-0.000799387,-0.007727412,-24,45,83,6,-11,-0.114921682,2.41335535,10.21845245,0.053425729,-0.025980091,0.037970904,18,35,-20,-22,50
1693677864187786600,1.030703783,-0.849941611,10.24359226,-0.061686065,-0.000932619,-0.007727412,-26,36,88,8,-7,-0.117315881,2.41574955,10.21725559,0.053692192,-0.026246555,0.038104136,10,40,-20,-22,53
1693677864188786600,1.033097982,-0.85353291,10.24598598,-0.061686065,-0.000932619,-0.007727412,-30,39,78,11,-11,-0.119710088,2.412158251,10.21845245,0.053825419,-0.026513018,0.038237367,19,39,-25,-24,53
1693677864218769200,1.023521185,-0.857124209,10.24957752,-0.061552834,-0.000799387,-0.007727412,-24,47,86,12,-7,-0.117315881,2.410961151,10.22443867,0.053825419,-0.026646247,0.037704438,17,41,-27,-22,55
1693677864219769200,1.023521185,-0.85353291,10.24838066,-0.061552834,-0.000932619,-0.007727412,-28,34,81,8,-12,-0.116118781,2.41335535,10.22922707,0.053958651,-0.026246555,0.037704438,18,36,-25,-27,49
1693677864220769200,1.023521185,-0.85353291,10.24957752,-0.061552834,-0.000799387,-0.007727412,-24,36,89,2,-12,-0.116118781,2.41455245,10.22922707,0.053825419,-0.026246555,0.03757121,20,28,-17,-22,53
1693677864221769200,1.023521185,-0.858321309,10.24478912,-0.061686065,-0.000666156,-0.007727412,-15,41,79,12,-15,-0.117315881,2.41574955,10.22802925,0.053692192,-0.026379786,0.03757121,14,43,-22,-27,49
1693677864222769200,1.022324085,-0.860715508,10.24478912,-0.061686065,-0.000532925,-0.007727412,-33,43,83,8,-12,-0.114921682,2.41694665,10.23521233,0.053825419,-0.026246555,0.037837673,20,41,-21,-16,55
1693677864272736000,1.022324085,-0.85353291,10.23401546,-0.061552834,-0.000399694,-0.008260337,-19,41,91,4,-9,-0.116118781,2.41694665,10.23042393,0.053558957,-0.026646247,0.037970904,20,32,-23,-23,53
1693677864273736000,1.022324085,-0.852335811,10.23281765,-0.061419602,-0.000532925,-0.008260337,-32,41,85,10,-12,-0.114921682,2.419340849,10.23042393,0.053692192,-0.026646247,0.037970904,7,39,-27,-30,52
1693677864274736000,1.024718285,-0.852335811,10.23042393,-0.061286367,-0.000532925,-0.008260337,-32,44,88,6,-8,-0.113724582,2.41694665,10.22922707,0.053558957,-0.026646247,0.037837673,18,35,-29,-22,62
1693677864275736000,1.027112484,-0.85353291,10.23521233,-0.061286367,-0.000666156,-0.008127105,-33,46,79,4,-9,-0.114921682,2.418143749,10.22922707,0.053558957,-0.026646247,0.037704438,13,39,-23,-20,53
1693677864276736000,1.025915384,-0.85353291,10.23640919,-0.061286367,-0.000799387,-0.008127105,-22,43,87,3,-9,-0.116118781,2.418143749,10.23042393,0.053692192,-0.026513018,0.037837673,17,33,-19,-26,53
1693677864308717700,1.025915384,-0.843956113,10.23401546,-0.061019909,-0.000932619,-0.008127105,-27,42,80,14,-9,-0.117315881,2.406172752,10.22683239,0.053558957,-0.02691271,0.037304748,14,39,-30,-29,51
1693677864309717700,1.022324085,-0.845153213,10.23401546,-0.06115314,-0.000932619,-0.008127105,-24,41,87,2,-11,-0.114921682,2.409764051,10.22683239,0.053692192,-0.02691271,0.037437979,23,39,-24,-28,52
1693677864310717700,1.021126986,-0.846350312,10.23521233,-0.06115314,-0.000932619,-0.007860643,-28,38,85,0,-14,-0.114921682,2.412158251,10.22683239,0.053958651,-0.027045943,0.03757121,20,41,-21,-20,55
1693677864311717700,1.022324085,-0.845153213,10.23880386,-0.061419602,-0.00106585,-0.007860643,-30,42,88,10,-13,-0.117315881,2.41455245,10.22802925,0.054225113,-0.02691271,0.037437979,14,44,-18,-12,55
1693677864312717700,1.022324085,-0.846350312,10.23760605,-0.061419602,-0.000932619,-0.007993874,-28,45,83,15,-13,-0.116118781,2.41574955,10.22563553,0.054225113,-0.02691271,0.037437979,21,40,-22,-19,52
1693677864344695600,1.017535686,-0.85473001,10.23640919,-0.061286367,-0.000666156,-0.008260337,-24,39,77,13,-12,-0.122104287,2.412158251,10.21845245,0.053825419,-0.026779478,0.037704438,9,37,-25,-24,52
1693677864345695600,1.016338587,-0.85353291,10.23640919,-0.06115314,-0.000666156,-0.008127105,-24,41,76,8,-17,-0.120907187,2.41335535,10.21605873,0.053825419,-0.027179174,0.03757121,19,44,-21,-23,53
1693677864346695600,1.018732786,-0.85473001,10.23640919,-0.061286367,-0.000532925,-0.008127105,-30,44,83,6,-7,-0.120907187,2.412158251,10.21845245,0.053958651,-0.027045943,0.037704438,21,37,-21,-23,55
1693677864347695600,1.018732786,-0.852335811,10.23281765,-0.06115314,-0.000666156,-0.008393568,-25,47,85,7,-8,-0.119710088,2.412158251,10.21965027,0.053825419,-0.02691271,0.03757121,20,39,-21,-26,55
1693677864348695600,1.019929886,-0.85473001,10.23401546,-0.061286367,-0.000666156,-0.008393568,-22,41,79,6,-9,-0.116118781,2.410961151,10.21965027,0.053692192,-0.027179174,0.03757121,9,36,-18,-24,51
1693677864380674300,1.030703783,-0.859518409,10.23760605,-0.061819296,-0.000133231,-0.008260337,-28,38,84,11,-8,-0.125695586,2.410961151,10.21486187,0.053825419,-0.02691271,0.03757121,17,39,-24,-26,39
1693677864381674300,1.030703783,-0.858321309,10.24000072,-0.061686065,0.0,-0.008260337,-30,35,76,10,-9,-0.124498487,2.410961151,10.21366405,0.053958651,-0.02691271,0.03757121,17,36,-25,-26,53
1693677864382674300,1.028309584,-0.859518409,10.24838066,-0.061686065,-0.000133231,-0.008127105,-24,42,83,10,-9,-0.122104287,2.410961151,10.20767879,0.054091886,-0.027045943,0.03757121,21,40,-30,-18,68
1693677864383674300,1.027112484,-0.858321309,10.24359226,-0.061686065,-0.000133231,-0.008127105,-22,38,90,9,-13,-0.123301387,2.412158251,10.21007347,0.054091886,-0.027045943,0.03757121,23,33,-25,-16,48
1693677864384674300,1.028309584,-0.859518409,10.24359226,-0.061686065,0.000133231,-0.008260337,-26,42,90,6,-8,-0.122104287,2.410961151,10.21486187,0.054091886,-0.027045943,0.037437979,18,30,-27,-26,54
1693677864416656700,1.018732786,-0.852335811,10.23521233,-0.061419602,-0.000399694,-0.008393568,-20,41,80,3,-7,-0.125695586,2.41335535,10.23162079,0.053825419,-0.026779478,0.03757121,20,42,-21,-20,50
1693677864417656700,1.018732786,-0.85353291,10.23162079,-0.061419602,-0.000532925,-0.008260337,-27,35,80,2,-18,-0.123301387,2.412158251,10.23042393,0.053825419,-0.026779478,0.03757121,19,44,-24,-20,54
1693677864418656700,1.018732786,-0.851138711,10.23521233,-0.06115314,-0.000532925,-0.008260337,-24,42,81,11,-8,-0.120907187,2.406172752,10.22563553,0.053958651,-0.026779478,0.03757121,23,39,-25,-17,55
1693677864419656700,1.019929886,-0.852335811,10.24000072,-0.06115314,-0.000666156,-0.008127105,-24,43,83,9,-12,-0.119710088,2.404975653,10.22324085,0.054091886,-0.02691271,0.03757121,19,38,-29,-18,50
1693677864420656700,1.022324085,-0.852335811,10.24478912,-0.06115314,-0.000666156,-0.008260337,-26,41,79,11,-5,-0.117315881,2.404975653,10.22084713,0.054091886,-0.026779478,0.037704438,15,35,-21,-25,50
1693677864449638000,1.022324085,-0.847547412,10.23640919,-0.061552834,-0.000532925,-0.008127105,-23,38,88,3,-12,-0.107739076,2.410961151,10.23760605,0.053292494,-0.027045943,0.038104136,18,35,-25,-33,53
1693677864450638000,1.022324085,-0.848744512,10.24000072,-0.061552834,-0.000666156,-0.008127105,-30,41,80,3,-15,-0.108936176,2.409764051,10.23521233,0.053425729,-0.027045943,0.038104136,17,42,-18,-22,54
1693677864451638000,1.022324085,-0.851138711,10.24718285,-0.061686065,-0.000799387,-0.008127105,-17,39,81,12,-10,-0.111330383,2.408566952,10.23640919,0.053425729,-0.027045943,0.038104136,18,43,-19,-23,49
1693677864452638000,1.022324085,-0.849941611,10.24957752,-0.061686065,-0.000799387,-0.008127105,-23,42,81,6,-11,-0.110133275,2.407369852,10.23162079,0.053425729,-0.027045943,0.038237367,13,33,-29,-24,48
1693677864453638000,1.019929886,-0.851138711,10.24359226,-0.061686065,-0.000799387,-0.008127105,-28,47,86,6,3,-0.108936176,2.408566952,10.23042393,0.053425729,-0.027179174,0.037970904,19,36,-25,-23,55
1693677864484638400,1.017535686,-0.859518409,10.24478912,-0.061419602,-0.000799387,-0.008260337,-28,42,83,7,-16,-0.106541976,2.41455245,10.21366405,0.053558957,-0.027045943,0.037970904,14,41,-25,-23,54
1693677864485638400,1.015141487,-0.85473001,10.24598598,-0.061552834,-0.000799387,-0.008393568,-32,37,77,3,-6,-0.107739076,2.41574955,10.21605873,0.053692192,-0.02691271,0.038104136,18,41,-19,-23,58
1693677864486638400,1.015141487,-0.85353291,10.24957752,-0.061552834,-0.00106585,-0.008393568,-26,41,87,4,-12,-0.107739076,2.41574955,10.21366405,0.053692192,-0.02691271,0.038237367,21,40,-23,-22,52
1693677864487638400,1.016338587,-0.85353291,10.25077438,-0.061419602,-0.00106585,-0.008260337,-22,41,82,12,-8,-0.111330383,2.41574955,10.21366405,0.053425729,-0.026779478,0.038237367,20,33,-25,-22,48
1693677864488638400,1.018732786,-0.852335811,10.25316906,-0.061419602,-0.00106585,-0.008260337,-27,43,84,7,-9,-0.113724582,2.41694665,10.21725559,0.053292494,-0.026779478,0.038104136,19,35,-21,-20,50
1693677864523593400,1.030703783,-0.860715508,10.24239445,-0.061552834,-0.000532925,-0.007594181,-20,45,84,12,-11,-0.119710088,2.410961151,10.21246719,0.053825419,-0.027179174,0.037704438,23,42,-21,-22,55
1693677864524593400,1.028309584,-0.863109708,10.23760605,-0.061552834,-0.000532925,-0.007594181,-28,43,83,9,-11,-0.118512981,2.410961151,10.20887566,0.053558957,-0.026779478,0.037704438,17,39,-21,-24,48
1693677864525593400,1.029506683,-0.865503907,10.23760605,-0.061419602,-0.000532925,-0.007460949,-23,51,83,4,-9,-0.118512981,2.410961151,10.21725559,0.053558957,-0.026646247,0.037704438,10,39,-21,-23,53
1693677864526593400,1.025915384,-0.866701007,10.23880386,-0.061286367,-0.000666156,-0.007594181,-23,43,87,3,-8,-0.117315881,2.41335535,10.22084713,0.053425729,-0.026646247,0.037837673,16,33,-24,-19,54
1693677864527593400,1.025915384,-0.865503907,10.23760605,-0.061286367,-0.000666156,-0.007460949,-22,57,85,13,-11,-0.117315881,2.41574955,10.22563553,0.053292494,-0.026379786,0.037704438,18,33,-23,-22,52
1693677864560596600,1.031900883,-0.851138711,10.25077438,-0.061286367,-0.000799387,-0.007993874,-28,42,85,6,-13,-0.104147777,2.410961151,10.22563553,0.054091886,-0.027045943,0.037038282,17,37,-16,-22,50
1693677864561596600,1.029506683,-0.847547412,10.25436592,-0.061419602,-0.000799387,-0.007993874,-22,51,90,10,-7,-0.105344877,2.410961151,10.23162079,0.053425729,-0.02691271,0.037171517,20,41,-22,-16,62
1693677864562596600,1.024718285,-0.847547412,10.26394272,-0.061686065,-0.000799387,-0.007993874,-22,36,87,7,-9,-0.10295067,2.410961151,10.22443867,0.053159267,-0.027045943,0.037437979,20,36,-21,-27,53
1693677864563596600,1.022324085,-0.847547412,10.26394272,-0.061552834,-0.000666156,-0.007993874,-22,43,88,14,-7,-0.099359371,2.41574955,10.21605873,0.053292494,-0.027445635,0.037704438,20,39,-24,-20,49
1693677864564596600,1.023521185,-0.848744512,10.26035118,-0.061552834,-0.000666156,-0.007993874,-26,37,83,4,-13,-0.10175357,2.41455245,10.21366405,0.053958651,-0.027712099,0.037704438,23,39,-21,-23,52
1693677864594551400,1.036689281,-0.845153213,10.23640919,-0.061019909,-0.00106585,-0.008127105,-26,43,85,8,-17,-0.104147777,2.425326347,10.21127033,0.053425729,-0.02691271,0.037837673,9,35,-24,-26,40
1693677864595551400,1.037886381,-0.849941611,10.23760605,-0.061019909,-0.001199081,-0.008127105,-24,39,83,12,-12,-0.104147777,2.428917646,10.21127033,0.053292494,-0.026779478,0.037837673,20,44,-24,-28,46
1693677864596551400,1.035492182,-0.849941611,10.23760605,-0.061019909,-0.001199081,-0.007993874,-22,42,83,8,-14,-0.10295067,2.431311846,10.20887566,0.053159267,-0.02691271,0.037837673,15,44,-17,-19,55
1693677864597551400,1.031900883,-0.847547412,10.24119759,-0.060886677,-0.001199081,-0.007860643,-23,42,84,13,-14,-0.106541976,2.431311846,10.21127033,0.053026035,-0.027045943,0.037837673,21,42,-19,-23,55
1693677864598551400,1.031900883,-0.845153213,10.23760605,-0.061019909,-0.001199081,-0.007860643,-27,42,83,8,-16,-0.105344877,2.428917646,10.21127033,0.053159267,-0.027045943,0.037704438,17,38,-21,-29,51
1693677864628532000,1.031900883,-0.845153213,10.24000072,-0.06115314,-0.000666156,-0.008127105,-27,36,79,0,-18,-0.107739076,2.41694665,10.21845245,0.053825419,-0.026646247,0.038104136,20,39,-19,-22,55
1693677864629532000,1.033097982,-0.845153213,10.23521233,-0.061019909,-0.000799387,-0.007993874,-30,37,77,1,-17,-0.106541976,2.41574955,10.21965027,0.053558957,-0.026646247,0.037970904,17,46,-20,-22,52
1693677864630532000,1.029506683,-0.848744512,10.23880386,-0.06115314,-0.000666156,-0.007993874,-32,40,81,20,-17,-0.111330383,2.41335535,10.21605873,0.053425729,-0.026379786,0.037970904,21,47,-20,-26,54
1693677864631532000,1.030703783,-0.846350312,10.23401546,-0.06115314,-0.000799387,-0.007860643,-30,35,78,-1,-18,-0.112527482,2.412158251,10.21725559,0.053425729,-0.026379786,0.037837673,17,34,-23,-17,52
1693677864632532000,1.033097982,-0.842759013,10.23401546,-0.06115314,-0.000799387,-0.007993874,-33,39,78,0,-18,-0.111330383,2.41455245,10.21845245,0.053425729,-0.026246555,0.037970904,18,46,-21,-23,54
1693677864664522600,1.019929886,-0.863109708,10.23162079,-0.061286367,-0.000399694,-0.008393568,-1,67,105,38,11,-0.114921682,2.41335535,10.23521233,0.053292494,-0.026379786,0.038370594,15,30,-21,-19,48
1693677864665522600,1.021126986,-0.866701007,10.23042393,-0.061419602,-0.000532925,-0.008393568,-28,47,79,9,3,-0.113724582,2.412158251,10.23162079,0.053159267,-0.026113322,0.038370594,13,35,-22,-27,50
1693677864666522600,1.019929886,-0.866701007,10.22563553,-0.061419602,-0.000532925,-0.008526799,-8,50,104,31,14,-0.113724582,2.412158251,10.23042393,0.053026035,-0.026113322,0.038370594,20,42,-25,-20,52
1693677864667522600,1.019929886,-0.866701007,10.22683239,-0.061419602,-0.000266462,-0.008660031,-22,42,89,10,-8,-0.114921682,2.41455245,10.23760605,0.053026035,-0.026113322,0.038104136,19,37,-24,-26,55
1693677864668522600,1.019929886,-0.864306808,10.23042393,-0.061419602,-0.000133231,-0.008660031,-24,41,87,13,-6,-0.112527482,2.41455245,10.23880386,0.053026035,-0.025980091,0.038104136,18,30,-28,-32,43
1693677864707488300,1.025915384,-0.85473001,10.24598598,-0.061552834,-0.000399694,-0.008260337,-26,42,79,12,-11,-0.10175357,2.418143749,10.23521233,0.053825419,-0.026779478,0.037437979,15,31,-18,-22,57
1693677864708488300,1.024718285,-0.85353291,10.25197124,-0.061819296,-0.000532925,-0.008393568,-27,38,81,2,-11,-0.106541976,2.418143749,10.23880386,0.053558957,-0.026646247,0.037437979,16,43,-21,-19,55
1693677864709488300,1.024718285,-0.85353291,10.25077438,-0.061819296,-0.000399694,-0.008393568,-24,32,87,13,-11,-0.106541976,2.419340849,10.23401546,0.053558957,-0.026513018,0.037437979,19,32,-27,-20,54
1693677864710488300,1.024718285,-0.85353291,10.25197124,-0.061686065,-0.000266462,-0.008393568,-22,45,79,7,-9,-0.106541976,2.420537949,10.23042393,0.053425729,-0.026513018,0.03757121,14,36,-15,-22,48
1693677864711488300,1.021126986,-0.852335811,10.24598598,-0.061686065,-0.000133231,-0.008393568,-26,53,87,11,-7,-0.106541976,2.419340849,10.22802925,0.053692192,-0.026779478,0.037437979,13,16,-28,-22,54
1693677864741469000,1.024718285,-0.852335811,10.23760605,-0.061686065,-0.000266462,-0.007993874,-28,45,87,12,-9,-0.111330383,2.41455245,10.21366405,0.053159267,-0.026646247,0.037970904,15,39,-24,-21,54
1693677864742469000,1.025915384,-0.852335811,10.24000072,-0.061552834,-0.000399694,-0.007993874,-28,43,79,9,-11,-0.110133275,2.41574955,10.21007347,0.0528928,-0.026646247,0.037970904,10,43,-33,-21,48
1693677864743469000,1.025915384,-0.85592711,10.24718285,-0.061552834,-0.000399694,-0.007860643,-18,57,90,4,-16,-0.110133275,2.419340849,10.2028904,0.0528928,-0.026379786,0.037970904,22,40,-25,-20,52
1693677864744469000,1.025915384,-0.859518409,10.24957752,-0.061419602,-0.000532925,-0.007860643,-16,44,85,13,-9,-0.108936176,2.41574955,10.20169353,0.053026035,-0.026379786,0.037970904,17,33,-21,-22,52
1693677864745469000,1.027112484,-0.857124209,10.24478912,-0.061419602,-0.000399694,-0.007727412,5,64,110,28,14,-0.108936176,2.41455245,10.2028904,0.053159267,-0.026379786,0.037837673,17,44,-27,-20,55
1693677864774448900,1.022324085,-0.851138711,10.23281765,-0.060753446,-0.000133231,-0.007993874,-32,39,84,0,-12,-0.112527482,2.41574955,10.23042393,0.053558957,-0.02691271,0.037837673,19,33,-22,-26,52
1693677864775448900,1.021126986,-0.851138711,10.23042393,-0.060620211,-0.000266462,-0.007993874,-6,58,103,14,-5,-0.110133275,2.41694665,10.23880386,0.053692192,-0.027179174,0.03757121,19,35,-29,-27,53
1693677864776448900,1.021126986,-0.849941611,10.22922707,-0.060620211,-0.000133231,-0.007860643,-26,41,88,9,-12,-0.112527482,2.41574955,10.24000072,0.053558957,-0.027179174,0.03757121,21,33,-21,-23,51
1693677864777448900,1.017535686,-0.852335811,10.23042393,-0.060486984,-0.000266462,-0.007993874,-24,57,96,26,11,-0.108936176,2.41455245,10.23640919,0.053558957,-0.027179174,0.03757121,17,40,-22,-24,53
1693677864778448900,1.017535686,-0.852335811,10.23162079,-0.060753446,-0.000133231,-0.007860643,-28,35,82,4,-14,-0.108936176,2.41694665,10.23521233,0.053558957,-0.027312404,0.03757121,10,45,-28,-18,55
1693677864808430100,1.019929886,-0.859518409,10.24359226,-0.06115314,-0.000532925,-0.007860643,-36,44,88,3,-11,-0.112527482,2.421735048,10.22443867,0.053159267,-0.027312404,0.038237367,13,35,-21,-23,52
1693677864809430100,1.017535686,-0.860715508,10.24119759,-0.061286367,-0.000399694,-0.007993874,-24,37,84,10,-12,-0.112527482,2.422932148,10.22802925,0.053292494,-0.027445635,0.038104136,15,18,-29,-23,48
1693677864810430100,1.013944387,-0.863109708,10.23760605,-0.061286367,-0.000666156,-0.007993874,-22,37,79,8,-9,-0.111330383,2.425326347,10.23042393,0.053692192,-0.027445635,0.037970904,18,31,-27,-18,52
1693677864811430100,1.016338587,-0.861912608,10.23760605,-0.061286367,-0.000532925,-0.007860643,-27,38,86,6,-12,-0.108936176,2.425326347,10.23162079,0.053558957,-0.027312404,0.037970904,21,39,-25,-19,53
1693677864812430100,1.016338587,-0.861912608,10.23880386,-0.061286367,-0.000666156,-0.007727412,-23,41,85,8,-9,-0.112527482,2.426523447,10.22802925,0.053292494,-0.027445635,0.037970904,20,46,-22,-19,55
1693677864842409700,1.023521185,-0.851138711,10.23760605,-0.06115314,-0.001199081,-0.008127105,-8,62,107,26,9,-0.114921682,2.403778553,10.21725559,0.053425729,-0.026779478,0.037970904,23,43,-19,-23,49
1693677864843409700,1.021126986,-0.846350312,10.23401546,-0.06115314,-0.001199081,-0.007860643,-28,39,81,6,-10,-0.114921682,2.408566952,10.21965027,0.053425729,-0.027045943,0.037837673,13,35,-17,-30,51
1693677864844409700,1.021126986,-0.845153213,10.23521233,-0.06115314,-0.001199081,-0.007993874,-30,35,84,3,-7,-0.112527482,2.412158251,10.21486187,0.053558957,-0.027045943,0.037837673,15,41,-25,-22,54
1693677864845409700,1.021126986,-0.846350312,10.23640919,-0.061286367,-0.001199081,-0.008127105,-24,39,85,6,-14,-0.111330383,2.41335535,10.21845245,0.053558957,-0.027179174,0.037837673,10,39,-23,-17,54
1693677864846409700,1.024718285,-0.845153213,10.24119759,-0.061286367,-0.00106585,-0.007993874,-22,38,80,8,-13,-0.110133275,2.41335535,10.22084713,0.053558957,-0.027045943,0.037970904,20,39,-15,-18,55
1693677864878389200,1.025915384,-0.85592711,10.23880386,-0.061419602,-0.000532925,-0.007594181,-29,42,84,4,-9,-0.114921682,2.419340849,10.21965027,0.053692192,-0.026513018,0.037837673,20,42,-24,-23,55
1693677864879389200,1.024718285,-0.85592711,10.23760605,-0.061286367,-0.000399694,-0.007727412,-22,43,85,10,-11,-0.114921682,2.419340849,10.21965027,0.053825419,-0.026513018,0.037837673,15,36,-24,-23,54
1693677864880389200,1.025915384,-0.860715508,10.23760605,-0.06115314,-0.000399694,-0.007727412,-29,41,83,7,-10,-0.119710088,2.41694665,10.22204399,0.053692192,-0.026646247,0.037837673,20,43,-17,-14,52
1693677864881389200,1.025915384,-0.860715508,10.23521233,-0.06115314,-0.000399694,-0.007594181,-26,43,85,11,-17,-0.120907187,2.41574955,10.22802925,0.053692192,-0.026646247,0.037704438,20,42,-17,-13,56
1693677864882389200,1.027112484,-0.857124209,10.23401546,-0.06115314,-0.000399694,-0.007594181,-32,46,80,9,-13,-0.124498487,2.41694665,10.22563553,0.053558957,-0.026646247,0.037704438,17,39,-22,-21,52
1693677864916392100,1.027112484,-0.866701007,10.24000072,-0.061419602,-0.000666156,-0.007993874,-28,32,86,9,-13,-0.112527482,2.41694665,10.23640919,0.053026035,-0.026646247,0.037970904,-2,34,-23,-31,44
1693677864917392100,1.027112484,-0.864306808,10.23760605,-0.061419602,-0.000532925,-0.008127105,-27,41,84,6,-3,-0.108936176,2.41574955,10.23521233,0.053159267,-0.026646247,0.038104136,18,45,-22,-19,55
1693677864918392100,1.027112484,-0.859518409,10.24000072,-0.061419602,-0.000666156,-0.007993874,-27,44,84,6,-12,-0.107739076,2.41694665,10.23640919,0.053159267,-0.026646247,0.038237367,19,43,-18,-18,54
1693677864919392100,1.025915384,-0.857124209,10.23521233,-0.061419602,-0.000666156,-0.008127105,-30,38,83,6,-16,-0.110133275,2.418143749,10.23401546,0.053159267,-0.026779478,0.038370594,18,35,-17,-16,52
1693677864920392100,1.023521185,-0.85592711,10.23281765,-0.061286367,-0.000666156,-0.008127105,-28,45,79,6,-13,-0.113724582,2.421735048,10.23401546,0.053292494,-0.026646247,0.038370594,14,39,-25,-22,49
1693677864956345200,1.027112484,-0.85592711,10.24957752,-0.061419602,-0.000799387,-0.007727412,-28,41,88,13,-7,-0.106541976,2.41335535,10.23880386,0.053825419,-0.026379786,0.037970904,17,37,-24,-23,52
1693677864957345200,1.028309584,-0.858321309,10.24838066,-0.061419602,-0.000666156,-0.007727412,-24,43,89,11,-8,-0.107739076,2.410961151,10.23640919,0.053825419,-0.026379786,0.037837673,7,39,-23,-27,51
1693677864958345200,1.028309584,-0.858321309,10.25675964,-0.061552834,-0.000799387,-0.007727412,-29,47,85,11,-11,-0.107739076,2.409764051,10.23521233,0.053825419,-0.026513018,0.037970904,15,41,-21,-18,54
1693677864959345200,1.025915384,-0.859518409,10.25915432,-0.061552834,-0.000799387,-0.007860643,-31,37,87,7,-10,-0.105344877,2.412158251,10.23880386,0.053825419,-0.026379786,0.037970904,18,45,-21,-22,55
1693677864960345200,1.030703783,-0.858321309,10.25915432,-0.061286367,-0.000932619,-0.007860643,-27,39,85,12,-11,-0.104147777,2.41335535,10.23521233,0.053958651,-0.026513018,0.037837673,15,30,-27,-11,53
1693677864995344600,1.030703783,-0.852335811,10.24119759,-0.06115314,-0.000266462,-0.007727412,-23,45,88,11,-7,-0.122104287,2.409764051,10.22802925,0.053958651,-0.027179174,0.037704438,19,35,-22,-22,53
1693677864996344600,1.029506683,-0.849941611,10.24000072,-0.061286367,-0.000399694,-0.007727412,-28,32,87,-4,2,-0.117315881,2.409764051,10.23162079,0.053825419,-0.027045943,0.03757121,20,30,-24,-22,55
1693677864997344600,1.024718285,-0.85353291,10.24478912,-0.061286367,-0.000266462,-0.007860643,-31,45,83,7,-9,-0.116118781,2.410961151,10.23521233,0.053825419,-0.027179174,0.037437979,20,41,-23,-19,54
1693677864998344600,1.022324085,-0.852335811,10.24718285,-0.06115314,-0.000266462,-0.007860643,-15,41,79,6,-11,-0.114921682,2.412158251,10.23521233,0.053958651,-0.027045943,0.037171517,17,32,-28,-24,53
1693677864999344600,1.022324085,-0.848744512,10.24957752,-0.06115314,-0.000399694,-0.007993874,-31,42,85,11,-7,-0.113724582,2.41335535,10.23162079,0.053958651,-0.027045943,0.037437979,20,32,-21,-22,53
1693677865031301900,1.031900883,-0.848744512,10.24000072,-0.061286367,-0.000666156,-0.007860643,-20,48,89,9,-5,-0.118512981,2.41574955,10.21965027,0.053558957,-0.026779478,0.037704438,17,35,-19,-23,50
1693677865032301900,1.031900883,-0.847547412,10.24838066,-0.061286367,-0.000666156,-0.007860643,-29,42,81,12,-8,-0.119710088,2.418143749,10.21486187,0.053558957,-0.026779478,0.03757121,18,37,-19,-19,58
1693677865033301900,1.031900883,-0.849941611,10.24718285,-0.06115314,-0.000799387,-0.007860643,-23,43,79,8,-13,-0.114921682,2.418143749,10.21486187,0.053292494,-0.026779478,0.03757121,20,40,-19,-19,55
1693677865034301900,1.033097982,-0.85353291,10.24957752,-0.061019909,-0.000666156,-0.007860643,-30,38,89,6,-11,-0.114921682,2.419340849,10.21845245,0.053425729,-0.02691271,0.037704438,20,35,-18,-24,49
1693677865035301900,1.034295082,-0.85353291,10.25197124,-0.06115314,-0.000666156,-0.007727412,-26,42,84,8,-6,-0.114921682,2.419340849,10.22084713,0.053558957,-0.02691271,0.037704438,15,32,-23,-22,50
1693677865068282900,1.025915384,-0.847547412,10.23880386,-0.061286367,-0.000532925,-0.008127105,-19,46,89,11,-7,-0.113724582,2.418143749,10.22204399,0.053692192,-0.027045943,0.03757121,20,41,-24,-24,55
1693677865069282900,1.027112484,-0.848744512,10.24119759,-0.06115314,-0.000532925,-0.007993874,-24,42,89,4,-12,-0.116118781,2.418143749,10.22443867,0.053692192,-0.027179174,0.037837673,20,36,-23,-22,55
1693677865070282900,1.027112484,-0.847547412,10.24000072,-0.061019909,-0.000666156,-0.008127105,-30,41,85,7,-15,-0.116118781,2.420537949,10.22324085,0.053958651,-0.027179174,0.037704438,20,45,-23,-20,55
1693677865071282900,1.025915384,-0.849941611,10.23880386,-0.060886677,-0.000799387,-0.008260337,-34,41,73,10,-15,-0.117315881,2.421735048,10.22683239,0.053958651,-0.027445635,0.037837673,15,39,-27,-23,50
1693677865072282900,1.023521185,-0.847547412,10.23760605,-0.060886677,-0.000799387,-0.008260337,-26,42,86,8,-5,-0.118512981,2.421735048,10.22563553,0.053958651,-0.027445635,0.037837673,27,37,-27,-22,54
1693677865101261200,1.021126986,-0.851138711,10.24838066,-0.061019909,-0.00106585,-0.007860643,-24,37,84,2,-8,-0.116118781,2.412158251,10.22204399,0.054091886,-0.02691271,0.037970904,20,44,-21,-19,55
1693677865102261200,1.022324085,-0.848744512,10.24359226,-0.061019909,-0.00106585,-0.007993874,-24,43,83,7,-12,-0.114921682,2.408566952,10.22443867,0.053825419,-0.026646247,0.037970904,17,40,-25,-24,55
1693677865103261200,1.023521185,-0.849941611,10.24119759,-0.060886677,-0.000799387,-0.007993874,-23,37,81,13,-9,-0.112527482,2.408566952,10.23042393,0.053825419,-0.026513018,0.037970904,18,36,-25,-23,52
1693677865104261200,1.027112484,-0.851138711,10.23760605,-0.060886677,-0.000799387,-0.007993874,-21,42,83,12,-4,-0.111330383,2.408566952,10.22802925,0.053425729,-0.026513018,0.037970904,19,31,-23,-20,53
1693677865105261200,1.029506683,-0.851138711,10.23521233,-0.060886677,-0.000666156,-0.008260337,-27,46,89,4,-10,-0.111330383,2.408566952,10.22802925,0.053425729,-0.026646247,0.037970904,5,36,-23,-21,54
1693677865134244500,1.022324085,-0.860715508,10.24478912,-0.06115314,-0.000666156,-0.007327718,-26,47,84,6,-11,-0.114921682,2.41455245,10.21486187,0.053692192,-0.027445635,0.037970904,20,41,-23,-19,53
1693677865135244500,1.023521185,-0.863109708,10.24359226,-0.06115314,-0.000532925,-0.007460949,-22,43,79,8,-5,-0.114921682,2.418143749,10.21246719,0.053692192,-0.027445635,0.037837673,20,40,-24,-30,55
1693677865136244500,1.025915384,-0.858321309,10.24119759,-0.061286367,-0.000532925,-0.007460949,-28,34,86,8,-8,-0.116118781,2.420537949,10.21007347,0.053425729,-0.02691271,0.037837673,13,30,-25,-22,52
1693677865137244500,1.023521185,-0.860715508,10.24000072,-0.061419602,-0.000532925,-0.007460949,-27,45,86,13,-15,-0.116118781,2.419340849,10.20887566,0.053292494,-0.026779478,0.037704438,20,46,-28,-20,55
1693677865138244500,1.027112484,-0.859518409,10.24000072,-0.061419602,-0.000666156,-0.007460949,-35,44,87,12,-3,-0.114921682,2.421735048,10.21246719,0.053159267,-0.026646247,0.037304748,18,33,-22,-23,51
1693677865167223600,1.024718285,-0.858321309,10.23162079,-0.061419602,-0.000799387,-0.008260337,-28,42,79,10,-9,-0.120907187,2.412158251,10.21486187,0.053825419,-0.027179174,0.038104136,20,43,-21,-19,54
1693677865168223600,1.023521185,-0.85592711,10.23760605,-0.061419602,-0.000666156,-0.008260337,-24,32,85,8,-16,-0.122104287,2.412158251,10.21246719,0.053825419,-0.027312404,0.038237367,15,35,-23,-26,54
1693677865169223600,1.024718285,-0.85353291,10.24359226,-0.061552834,-0.000666156,-0.008260337,-34,42,83,11,-9,-0.123301387,2.41335535,10.21486187,0.053958651,-0.027179174,0.038104136,17,35,-20,-22,49
1693677865170223600,1.023521185,-0.852335811,10.24478912,-0.061419602,-0.000666156,-0.008260337,-23,43,87,10,-6,-0.123301387,2.418143749,10.21605873,0.053825419,-0.027045943,0.037970904,17,44,-21,-20,55
1693677865171223600,1.019929886,-0.851138711,10.24359226,-0.061419602,-0.000932619,-0.008260337,-18,38,89,8,-8,-0.119710088,2.418143749,10.21605873,0.053825419,-0.026646247,0.037970904,18,46,-22,-27,53
1693677865202206400,1.031900883,-0.852335811,10.23640919,-0.061552834,-0.000666156,-0.007727412,-27,45,85,6,-12,-0.117315881,2.41694665,10.22443867,0.053558957,-0.02691271,0.03757121,18,36,-21,-24,52
1693677865203206400,1.029506683,-0.852335811,10.23281765,-0.061552834,-0.000532925,-0.007860643,-28,41,81,10,-13,-0.117315881,2.418143749,10.22563553,0.053558957,-0.027045943,0.03757121,15,30,-15,-21,50
1693677865204206400,1.027112484,-0.851138711,10.22922707,-0.061419602,-0.000666156,-0.007860643,-26,42,86,7,-12,-0.116118781,2.419340849,10.22443867,0.053825419,-0.027179174,0.037704438,24,39,-25,-35,52
1693677865205206400,1.028309584,-0.849941611,10.22922707,-0.061286367,-0.000666156,-0.007860643,-23,43,88,10,-8,-0.118512981,2.419340849,10.22443867,0.053692192,-0.027179174,0.03757121,20,37,-20,-18,52
1693677865206206400,1.028309584,-0.847547412,10.23640919,-0.061286367,-0.000666156,-0.007860643,-30,53,87,13,-8,-0.114921682,2.420537949,10.22802925,0.053692192,-0.027179174,0.037704438,20,50,-20,-16,54
1693677865238183200,1.028309584,-0.857124209,10.23640919,-0.061019909,-0.001199081,-0.008260337,-25,35,83,11,-17,-0.113724582,2.418143749,10.22443867,0.053825419,-0.02691271,0.03757121,17,30,-20,-28,52
1693677865239183200,1.025915384,-0.857124209,10.24119759,-0.06115314,-0.001199081,-0.008127105,-24,35,81,11,-9,-0.113724582,2.418143749,10.22324085,0.053958651,-0.02691271,0.037437979,20,42,-17,-20,52
1693677865240183200,1.024718285,-0.858321309,10.24478912,-0.061019909,-0.001199081,-0.007860643,-26,42,79,12,-11,-0.116118781,2.41694665,10.22324085,0.053825419,-0.027045943,0.037437979,11,37,-25,-20,52
1693677865241183200,1.025915384,-0.858321309,10.24478912,-0.061286367,-0.00106585,-0.007993874,-17,33,89,12,-7,-0.112527482,2.418143749,10.22204399,0.053692192,-0.02691271,0.037437979,20,31,-17,-22,55
1693677865242183200,1.024718285,-0.859518409,10.24119759,-0.061419602,-0.000932619,-0.007993874,-26,42,87,8,-11,-0.107739076,2.419340849,10.22084713,0.053692192,-0.026779478,0.037437979,14,43,-21,-15,42
1693677865273162400,1.027112484,-0.851138711,10.24957752,-0.061686065,-0.000799387,-0.007993874,-35,41,88,6,-12,-0.124498487,2.412158251,10.23162079,0.053425729,-0.026646247,0.037837673,17,29,-28,-24,46
1693677865274162400,1.025915384,-0.847547412,10.25077438,-0.061686065,-0.000666156,-0.007993874,-22,39,80,9,-9,-0.123301387,2.41335535,10.23042393,0.053425729,-0.026646247,0.037704438,18,34,-24,-26,52
1693677865275162400,1.025915384,-0.848744512,10.25556278,-0.061819296,-0.000666156,-0.008127105,-27,46,90,7,-11,-0.123301387,2.41574955,10.23401546,0.053425729,-0.026646247,0.037837673,17,39,-20,-24,56
1693677865276162400,1.029506683,-0.848744512,10.25436592,-0.061552834,-0.000666156,-0.008127105,-27,41,85,10,-8,-0.122104287,2.418143749,10.22802925,0.053558957,-0.026513018,0.03757121,17,40,-24,-20,55
1693677865277162400,1.033097982,-0.852335811,10.25316906,-0.061819296,-0.000532925,-0.008260337,-23,43,86,9,-9,-0.119710088,2.418143749,10.22922707,0.053425729,-0.026246555,0.037437979,17,35,-23,-16,55
1693677865306145400,1.023521185,-0.85353291,10.25077438,-0.061419602,-0.000932619,-0.008127105,-24,41,77,6,-9,-0.113724582,2.41335535,10.22204399,0.053692192,-0.026779478,0.037437979,20,39,-24,-22,55
1693677865307145400,1.023521185,-0.852335811,10.25077438,-0.061286367,-0.000932619,-0.007993874,-31,43,84,7,-8,-0.113724582,2.410961151,10.22204399,0.053558957,-0.026646247,0.037437979,21,37,-25,-24,52
1693677865308145400,1.025915384,-0.85353291,10.25077438,-0.061286367,-0.000932619,-0.007993874,-35,42,85,9,-13,-0.114921682,2.409764051,10.22324085,0.053558957,-0.026646247,0.03757121,20,43,-24,-18,43
1693677865309145400,1.029506683,-0.85353291,10.25077438,-0.061286367,-0.000932619,-0.007860643,-23,37,81,2,-9,-0.113724582,2.407369852,10.22802925,0.053558957,-0.026779478,0.037437979,14,37,-25,-21,52
1693677865310145400,1.028309584,-0.852335811,10.24718285,-0.06115314,-0.000799387,-0.007993874,-30,39,87,4,-11,-0.113724582,2.407369852,10.23042393,0.053692192,-0.026779478,0.037437979,15,37,-25,-18,51
1693677865338147600,1.018732786,-0.842759013,10.22324085,-0.061286367,-0.000932619,-0.007594181,-19,37,81,13,-9,-0.120907187,2.41335535,10.23042393,0.053026035,-0.02691271,0.037837673,15,43,-22,-24,71
1693677865339147600,1.015141487,-0.841561913,10.22204399,-0.061286367,-0.000666156,-0.007727412,-28,41,80,6,-11,-0.120907187,2.41455245,10.22922707,0.053026035,-0.02691271,0.037837673,20,42,-24,-19,51
1693677865340147600,1.013944387,-0.840364814,10.22204399,-0.061286367,-0.00106585,-0.007727412,-15,49,88,6,-15,-0.119710088,2.41335535,10.22922707,0.053026035,-0.026779478,0.037704438,18,40,-29,-24,55
1693677865341147600,1.016338587,-0.841561913,10.22324085,-0.061286367,-0.001199081,-0.007594181,-33,41,83,10,-11,-0.118512981,2.409764051,10.23162079,0.0528928,-0.02691271,0.037704438,18,37,-25,-22,54
1693677865342147600,1.016338587,-0.841561913,10.22443867,-0.061419602,-0.001199081,-0.007594181,-30,42,84,2,-11,-0.119710088,2.408566952,10.23042393,0.0528928,-0.026779478,0.037437979,11,33,-23,-31,50
1693677865374127800,1.011550188,-0.85592711,10.25316906,-0.061552834,-0.000666156,-0.008260337,-22,38,81,-1,-11,-0.118512981,2.404975653,10.22802925,0.053292494,-0.02691271,0.037704438,19,45,-23,-23,51
1693677865375127800,1.011550188,-0.85353291,10.25316906,-0.061686065,-0.000532925,-0.008393568,-23,48,83,12,-7,-0.117315881,2.403778553,10.23162079,0.053292494,-0.027045943,0.037704438,20,44,-17,-20,56
1693677865376127800,1.017535686,-0.858321309,10.25197124,-0.061686065,-0.000666156,-0.008260337,-30,46,83,11,-9,-0.117315881,2.403778553,10.23281765,0.053425729,-0.027045943,0.037704438,19,40,-25,-18,54
1693677865377127800,1.018732786,-0.859518409,10.25077438,-0.061686065,-0.000532925,-0.007993874,-26,42,84,6,-12,-0.116118781,2.404975653,10.23401546,0.053425729,-0.027045943,0.037704438,17,34,-18,-18,52
1693677865378127800,1.018732786,-0.857124209,10.24718285,-0.061819296,-0.000532925,-0.008260337,-24,39,79,12,-14,-0.113724582,2.404975653,10.23281765,0.053292494,-0.027045943,0.037837673,10,33,-25,-19,54
1693677865408089300,1.023521185,-0.85473001,10.24598598,-0.061286367,-0.000266462,-0.008260337,-23,50,87,8,-9,-0.116118781,2.419340849,10.22683239,0.053425729,-0.026646247,0.03757121,20,41,-18,-20,54
1693677865409089300,1.019929886,-0.85592711,10.24838066,-0.061286367,-0.000266462,-0.008260337,-23,37,90,11,-9,-0.117315881,2.418143749,10.22563553,0.053425729,-0.02691271,0.037704438,21,42,-27,-24,55
1693677865410089300,1.019929886,-0.85473001,10.24838066,-0.06115314,-0.000266462,-0.008260337,-27,41,83,7,-15,-0.116118781,2.418143749,10.22324085,0.053425729,-0.02691271,0.037704438,25,40,-18,-26,56
1693677865411089300,1.018732786,-0.85353291,10.24838066,-0.061019909,-0.000532925,-0.008260337,-30,47,88,7,-11,-0.117315881,2.419340849,10.22443867,0.053558957,-0.02691271,0.037704438,20,46,-14,-18,53
1693677865412089300,1.019929886,-0.85353291,10.24359226,-0.060886677,-0.000799387,-0.008260337,-24,34,85,6,-9,-0.116118781,2.419340849,10.22204399,0.053825419,-0.027179174,0.037837673,19,41,-21,-33,54
1693677865441066600,1.019929886,-0.85592711,10.22563553,-0.061419602,-0.000532925,-0.008260337,-23,35,83,11,-15,-0.117315881,2.420537949,10.22563553,0.053558957,-0.026246555,0.037704438,25,40,-23,-18,55
1693677865442066600,1.022324085,-0.85473001,10.22802925,-0.061419602,-0.000399694,-0.008260337,-25,36,87,10,-18,-0.118512981,2.419340849,10.22563553,0.053292494,-0.026379786,0.03757121,23,46,-18,-15,55
1693677865443066600,1.024718285,-0.852335811,10.22683239,-0.061552834,-0.000266462,-0.008260337,-31,36,83,4,-13,-0.116118781,2.418143749,10.22922707,0.053292494,-0.026513018,0.03757121,17,35,-24,-23,49
1693677865444066600,1.028309584,-0.849941611,10.22683239,-0.061286367,-0.000399694,-0.008393568,-26,39,83,-16,-15,-0.116118781,2.41455245,10.23162079,0.053292494,-0.026779478,0.03757121,27,36,-22,-26,52
1693677865445066600,1.028309584,-0.848744512,10.22324085,-0.061286367,-0.000399694,-0.008260337,-19,37,81,4,-13,-0.117315881,2.41335535,10.23281765,0.053425729,-0.02691271,0.03757121,21,46,-20,-24,55
1693677865477048300,1.025915384,-0.857124209,10.24239445,-0.061552834,-0.000666156,-0.008393568,-27,43,86,10,-12,-0.110133275,2.406172752,10.22802925,0.053825419,-0.027045943,0.037704438,25,43,-24,-20,55
1693677865478048300,1.025915384,-0.859518409,10.24718285,-0.061552834,-0.000799387,-0.008393568,-33,43,79,8,-9,-0.112527482,2.407369852,10.22563553,0.053558957,-0.026779478,0.037704438,20,31,-24,-21,53
1693677865479048300,1.025915384,-0.860715508,10.25197124,-0.061552834,-0.000666156,-0.008393568,-26,41,85,7,-8,-0.116118781,2.408566952,10.22563553,0.053558957,-0.026513018,0.03757121,20,37,-29,-24,57
1693677865480048300,1.024718285,-0.861912608,10.25675964,-0.061686065,-0.000799387,-0.008260337,-28,40,81,11,-17,-0.116118781,2.410961151,10.22324085,0.053558957,-0.026513018,0.037437979,13,35,-21,-23,53
1693677865481048300,1.022324085,-0.861912608,10.25556278,-0.061686065,-0.000666156,-0.008393568,-27,45,84,6,-7,-0.114921682,2.409764051,10.22443867,0.053558957,-0.026513018,0.037304748,21,44,-19,-24,54
1693677865511029700,1.024718285,-0.85473001,10.22683239,-0.061286367,-0.000532925,-0.007727412,-20,47,90,7,-7,-0.113724582,2.407369852,10.22563553,0.053558957,-0.027312404,0.037837673,19,33,-29,-18,52
1693677865512029700,1.023521185,-0.85592711,10.23162079,-0.061286367,-0.000666156,-0.007727412,-24,33,91,25,1,-0.117315881,2.409764051,10.22443867,0.053558957,-0.027179174,0.03757121,20,37,-19,-24,55
1693677865513029700,1.021126986,-0.85592711,10.23162079,-0.06115314,-0.000532925,-0.007727412,-30,45,87,6,-15,-0.120907187,2.41455245,10.22204399,0.053558957,-0.027179174,0.03757121,13,30,-21,-31,54
1693677865514029700,1.018732786,-0.85592711,10.23281765,-0.06115314,-0.000399694,-0.007727412,-13,57,87,6,-14,-0.122104287,2.41455245,10.22084713,0.053425729,-0.02691271,0.03757121,18,35,-23,-19,54
1693677865515029700,1.017535686,-0.85473001,10.23401546,-0.061286367,-0.000266462,-0.007860643,-20,37,85,12,-12,-0.122104287,2.41694665,10.21845245,0.053292494,-0.026646247,0.037704438,19,43,-25,-23,52
1693677865544025200,1.023521185,-0.852335811,10.24359226,-0.06115314,-0.000799387,-0.008260337,-44,41,88,6,-13,-0.113724582,2.41694665,10.22443867,0.053958651,-0.026513018,0.037970904,18,36,-20,-24,47
1693677865545025200,1.025915384,-0.85353291,10.24957752,-0.06115314,-0.000666156,-0.008260337,-31,35,81,10,-9,-0.113724582,2.41574955,10.22084713,0.053958651,-0.026513018,0.038104136,13,39,-23,-23,49
1693677865546025200,1.025915384,-0.852335811,10.24718285,-0.061019909,-0.000666156,-0.008260337,-29,32,79,8,-11,-0.112527482,2.41455245,10.22204399,0.053825419,-0.026513018,0.038104136,14,31,-21,-27,53
1693677865547025200,1.025915384,-0.852335811,10.25077438,-0.060886677,-0.000799387,-0.008127105,-28,41,81,6,-12,-0.110133275,2.418143749,10.22204399,0.053825419,-0.026513018,0.037970904,18,43,-21,-23,52
1693677865548025200,1.024718285,-0.851138711,10.25197124,-0.060886677,-0.000799387,-0.007993874,-30,45,80,8,-11,-0.113724582,2.418143749,10.22084713,0.053692192,-0.026513018,0.038104136,20,45,-20,-19,57
1693677865580991800,1.028309584,-0.847547412,10.25556278,-0.061019909,-0.002264931,-0.007860643,-28,35,77,10,1,-0.114921682,2.418143749,10.23401546,0.054358348,-0.02797856,0.038770292,16,40,-20,-19,52
1693677865581991800,1.030703783,-0.848744512,10.25436592,-0.060886677,-0.002398162,-0.007860643,-23,46,83,10,-13,-0.111330383,2.419340849,10.24598598,0.053958651,-0.027712099,0.039169986,10,30,-23,-23,50
1693677865582991800,1.030703783,-0.849941611,10.25436592,-0.061019909,-0.002398162,-0.007860643,-28,41,85,10,-11,-0.111330383,2.421735048,10.25077438,0.053825419,-0.027845331,0.039169986,20,39,-21,-23,46
1693677865583991800,1.027112484,-0.852335811,10.25197124,-0.060886677,-0.002398162,-0.007993874,-28,37,85,10,-12,-0.112527482,2.425326347,10.24957752,0.053825419,-0.028245023,0.039169986,20,52,-18,-22,51
1693677865584991800,1.024718285,-0.847547412,10.24957752,-0.060886677,-0.002531394,-0.007860643,-26,43,90,13,-8,-0.114921682,2.427720547,10.24239445,0.054225113,-0.028511487,0.038637057,18,41,-13,-16,55
1693677865614968000,1.033097982,-0.851138711,10.25316906,-0.061552834,-0.000932619,-0.007860643,-24,38,84,12,-12,-0.123301387,2.397793055,10.21007347,0.052093416,-0.02358193,0.036771823,15,34,-27,-27,53
1693677865615968000,1.030703783,-0.847547412,10.24838066,-0.061552834,-0.000799387,-0.007860643,-28,33,87,6,-15,-0.124498487,2.393004656,10.20767879,0.052626338,-0.024647778,0.037171517,19,18,-23,-19,53
1693677865616968000,1.029506683,-0.846350312,10.24598598,-0.061552834,-0.000799387,-0.007993874,-31,43,87,9,-9,-0.126892686,2.390610456,10.20528507,0.053558957,-0.026379786,0.037704438,18,40,-19,-22,50
1693677865617968000,1.031900883,-0.847547412,10.24119759,-0.061686065,-0.000666156,-0.007993874,-30,38,83,9,-9,-0.122104287,2.396595955,10.21007347,0.054358348,-0.028378254,0.038503829,18,45,-22,-17,53
1693677865618968000,1.029506683,-0.847547412,10.24119759,-0.061552834,-0.000799387,-0.007860643,-20,44,83,6,-9,-0.114921682,2.398990154,10.21366405,0.055157732,-0.03011026,0.039036751,11,41,-23,-23,54
1693677865646948500,1.029506683,-0.859518409,10.24478912,-0.061286367,-0.001199081,-0.008127105,-32,39,86,6,-12,-0.104147777,2.418143749,10.23640919,0.053159267,-0.026646247,0.037171517,15,37,-27,-23,48
1693677865647948500,1.031900883,-0.864306808,10.24239445,-0.061286367,-0.001199081,-0.007993874,-24,38,87,4,-15,-0.106541976,2.41455245,10.23281765,0.0528928,-0.02571363,0.036905054,15,36,-21,-22,52
1693677865648948500,1.033097982,-0.863109708,10.24598598,-0.061286367,-0.001199081,-0.008127105,-23,39,79,4,-7,-0.112527482,2.409764051,10.22802925,0.052759573,-0.025313934,0.036771823,20,39,-21,-24,44
1693677865649948500,1.033097982,-0.863109708,10.24359226,-0.06115314,-0.00106585,-0.008127105,-26,43,87,13,1,-0.113724582,2.404975653,10.22084713,0.0528928,-0.025447167,0.036771823,20,40,-33,-16,54
1693677865650948500,1.033097982,-0.864306808,10.24239445,-0.061019909,-0.001199081,-0.008127105,-24,41,84,7,-11,-0.117315881,2.401384354,10.21605873,0.053159267,-0.025846859,0.036905054,17,28,-19,-16,52
1693677865679937000,1.022324085,-0.857124209,10.24957752,-0.06115314,-0.000799387,-0.008127105,-31,36,80,16,-12,-0.106541976,2.422932148,10.23281765,0.054624807,-0.028245023,0.038104136,6,47,-29,-28,52
1693677865680937000,1.019929886,-0.857124209,10.24718285,-0.061019909,-0.00106585,-0.008260337,-33,39,84,6,-12,-0.107739076,2.422932148,10.23521233,0.054624807,-0.027845331,0.038104136,19,37,-24,-23,53
1693677865681937000,1.019929886,-0.85473001,10.24957752,-0.061019909,-0.00106585,-0.008127105,-23,45,84,4,-7,-0.107739076,2.421735048,10.23640919,0.054091886,-0.027712099,0.037970904,19,45,-20,-22,56
1693677865682937000,1.018732786,-0.857124209,10.24239445,-0.061019909,-0.001199081,-0.008127105,-24,41,90,11,-11,-0.106541976,2.419340849,10.23760605,0.053825419,-0.02691271,0.037837673,10,43,-28,-23,55
1693677865683937000,1.018732786,-0.85592711,10.24239445,-0.061019909,-0.000932619,-0.007993874,-29,41,81,8,-9,-0.110133275,2.41694665,10.23640919,0.053692192,-0.026646247,0.037837673,19,41,-25,-21,55
1693677865730543200,1.029506683,-0.852335811,10.24359226,-0.061552834,-0.001732006,-0.007993874,-29,41,81,-2,-15,-0.112527482,2.41335535,10.23880386,0.053558957,-0.027045943,0.03757121,17,40,-18,-22,54
1693677865731543200,1.030703783,-0.85353291,10.24239445,-0.061552834,-0.001732006,-0.007860643,-24,37,83,13,-13,-0.114921682,2.41574955,10.23521233,0.053425729,-0.027312404,0.037704438,20,37,-28,-16,51
1693677865732543200,1.028309584,-0.85353291,10.24838066,-0.061419602,-0.001598775,-0.007993874,-28,39,80,8,-11,-0.116118781,2.418143749,10.23162079,0.053425729,-0.027845331,0.037704438,18,36,-24,-20,53
1693677865733543200,1.028309584,-0.85592711,10.24838066,-0.061286367,-0.001598775,-0.007993874,-26,42,76,-1,-9,-0.114921682,2.418143749,10.23042393,0.053692192,-0.028111791,0.037837673,19,44,-21,-20,51
1693677865734543200,1.027112484,-0.858321309,10.24478912,-0.061286367,-0.001732006,-0.007993874,-24,42,84,7,-12,-0.116118781,2.418143749,10.23162079,0.053692192,-0.028245023,0.037837673,17,35,-31,-32,50
1693677865808501600,1.027112484,-0.851138711,10.25316906,-0.061286367,-0.001465544,-0.007993874,-24,45,83,-5,-9,-0.119710088,2.41335535,10.23521233,0.053558957,-0.027312404,0.037704438,20,38,-23,-18,50
1693677865809501600,1.028309584,-0.848744512,10.25795746,-0.06115314,-0.001465544,-0.008127105,-27,43,85,12,-10,-0.118512981,2.412158251,10.23880386,0.053558957,-0.027179174,0.037704438,20,47,-22,-19,55
1693677865810501600,1.027112484,-0.848744512,10.25316906,-0.06115314,-0.001598775,-0.008260337,-18,37,90,15,-12,-0.117315881,2.41335535,10.23521233,0.053692192,-0.027179174,0.03757121,20,37,-31,-20,54
1693677865811501600,1.027112484,-0.849941611,10.25316906,-0.061019909,-0.001598775,-0.008260337,-33,45,84,13,-9,-0.117315881,2.41455245,10.23162079,0.053558957,-0.027179174,0.037704438,14,47,-20,-22,53
1693677865812501600,1.025915384,-0.846350312,10.25197124,-0.06115314,-0.001598775,-0.008127105,-30,45,86,9,-13,-0.116118781,2.41335535,10.23162079,0.053692192,-0.027312404,0.037970904,17,31,-28,-26,52
1693677865864473800,1.028309584,-0.851138711,10.23521233,-0.061286367,-0.000932619,-0.007860643,-22,44,84,12,-7,-0.107739076,2.420537949,10.22443867,0.054225113,-0.027179174,0.038104136,20,46,-21,-20,55
1693677865865473800,1.029506683,-0.85473001,10.23401546,-0.061286367,-0.000799387,-0.007860643,-27,43,91,11,-6,-0.107739076,2.422932148,10.22683239,0.054091886,-0.02691271,0.037837673,17,32,-22,-24,68
1693677865866473800,1.025915384,-0.85473001,10.23760605,-0.061286367,-0.000932619,-0.007860643,-23,42,88,9,-9,-0.105344877,2.421735048,10.22324085,0.053958651,-0.026779478,0.037837673,20,30,-29,-24,50
1693677865867473800,1.025915384,-0.85473001,10.23880386,-0.061286367,-0.000932619,-0.007993874,-28,44,87,-1,-15,-0.105344877,2.420537949,10.22324085,0.053825419,-0.026646247,0.037837673,13,41,-27,-28,50
1693677865868473800,1.029506683,-0.85473001,10.24119759,-0.061286367,-0.000932619,-0.008127105,-29,44,80,6,-15,-0.106541976,2.418143749,10.22204399,0.053825419,-0.026513018,0.037970904,20,39,-23,-20,55
1693677865993942800,1.023521185,-0.863109708,10.23521233,-0.061686065,-0.00106585,-0.008260337,-19,42,83,7,-11,-0.118512981,2.41455245,10.22683239,0.053958651,-0.027445635,0.03757121,17,49,-21,-15,55
1693677865994942800,1.023521185,-0.861912608,10.23521233,-0.061552834,-0.00106585,-0.008260337,-12,59,89,12,-5,-0.118512981,2.412158251,10.22922707,0.053825419,-0.027445635,0.03757121,20,39,-19,-24,54
1693677865995942800,1.021126986,-0.859518409,10.23521233,-0.061552834,-0.001199081,-0.007860643,-27,45,85,14,-9,-0.116118781,2.409764051,10.22922707,0.053958651,-0.027179174,0.037437979,15,33,-19,-29,55
1693677865996942800,1.023521185,-0.860715508,10.23162079,-0.061686065,-0.001199081,-0.007993874,-10,59,97,20,12,-0.113724582,2.410961151,10.22324085,0.053825419,-0.027179174,0.037437979,14,44,-19,-23,48
1693677865997942800,1.024718285,-0.859518409,10.23401546,-0.061686065,-0.001199081,-0.007860643,-4,57,99,27,8,-0.114921682,2.408566952,10.22443867,0.053825419,-0.027179174,0.037437979,19,39,-28,-20,54
1693677866037940300,1.025915384,-0.859518409,10.25077438,-0.06115314,-0.000266462,-0.007860643,-24,45,79,8,-13,-0.114921682,2.41455245,10.21605873,0.053425729,-0.027445635,0.037837673,20,37,-23,-28,54
1693677866038940300,1.028309584,-0.858321309,10.24957752,-0.061019909,-0.000532925,-0.007993874,-27,43,84,6,-9,-0.112527482,2.41574955,10.21965027,0.053292494,-0.027578866,0.037970904,21,41,-24,-19,52
1693677866039940300,1.029506683,-0.858321309,10.25077438,-0.061019909,-0.000666156,-0.007993874,-20,42,87,10,-8,-0.110133275,2.41694665,10.21845245,0.053425729,-0.027578866,0.038104136,17,39,-29,-31,40
1693677866040940300,1.031900883,-0.858321309,10.25556278,-0.061019909,-0.000666156,-0.007993874,-30,37,81,2,-13,-0.107739076,2.419340849,10.21605873,0.053692192,-0.027578866,0.038104136,20,33,-29,-22,51
1693677866041940300,1.033097982,-0.858321309,10.25436592,-0.061019909,-0.000666156,-0.007860643,-27,42,87,10,-8,-0.106541976,2.419340849,10.21605873,0.053425729,-0.027445635,0.038104136,29,44,-23,-24,48
1693677866083084900,1.037886381,-0.857124209,10.24598598,-0.06115314,-0.001199081,-0.007860643,-26,42,87,10,-8,-0.092176765,2.410961151,10.22802925,0.053692192,-0.027179174,0.038370594,20,36,-22,-22,55
1693677866084084900,1.037886381,-0.85592711,10.24359226,-0.06115314,-0.001199081,-0.007993874,-24,32,87,13,3,-0.090979666,2.41455245,10.22443867,0.053692192,-0.027179174,0.038237367,15,30,-19,-31,55
1693677866085084900,1.037886381,-0.85353291,10.24239445,-0.061019909,-0.001199081,-0.007993874,-24,35,85,2,-9,-0.094570965,2.41455245,10.22563553,0.053692192,-0.027045943,0.038237367,17,37,-25,-27,53
1693677866086084900,1.037886381,-0.852335811,10.23880386,-0.06115314,-0.001332312,-0.008127105,-25,41,78,6,-13,-0.10055647,2.41455245,10.22802925,0.053558957,-0.027045943,0.038104136,20,35,-17,-18,55
1693677866087084900,1.037886381,-0.85353291,10.24239445,-0.06115314,-0.001199081,-0.007993874,-26,42,83,10,-9,-0.10175357,2.41574955,10.22563553,0.053292494,-0.027179174,0.038237367,17,40,-23,-20,55
1693677866136517100,1.039083481,-0.852335811,10.22563553,-0.061552834,-0.000666156,-0.007860643,-24,49,85,9,-11,-0.111330383,2.421735048,10.22084713,0.053692192,-0.026379786,0.038104136,19,34,-19,-21,46
1693677866137517100,1.036689281,-0.85353291,10.22563553,-0.061552834,-0.000666156,-0.007860643,-32,40,84,10,-15,-0.113724582,2.419340849,10.21605873,0.053825419,-0.026779478,0.038104136,13,36,-21,-24,50
1693677866138517100,1.036689281,-0.85473001,10.23281765,-0.061419602,-0.000666156,-0.008127105,-27,47,83,4,-13,-0.112527482,2.419340849,10.21725559,0.053692192,-0.027045943,0.038237367,20,40,-23,-20,54
1693677866139517100,1.037886381,-0.85592711,10.23521233,-0.061552834,-0.000666156,-0.007993874,-30,40,87,8,-13,-0.112527482,2.420537949,10.21845245,0.053692192,-0.027179174,0.038237367,21,36,-17,-23,55
1693677866140517100,1.042674899,-0.85473001,10.23401546,-0.061552834,-0.000666156,-0.008127105,-24,39,85,13,-11,-0.116118781,2.421735048,10.22084713,0.053558957,-0.027312404,0.038237367,20,47,-16,-19,55
1693677866206521000,1.034295082,-0.845153213,10.24239445,-0.061419602,-0.000932619,-0.008127105,-30,38,90,10,-9,-0.112527482,2.409764051,10.22324085,0.053292494,-0.027845331,0.038104136,20,37,-20,-23,55
1693677866207521000,1.036689281,-0.848744512,10.24119759,-0.061286367,-0.000932619,-0.008127105,-31,38,83,12,-15,-0.114921682,2.407369852,10.22563553,0.053558957,-0.027712099,0.038237367,20,37,-25,-27,54
1693677866208521000,1.035492182,-0.849941611,10.24239445,-0.061286367,-0.000932619,-0.008127105,-24,42,89,6,-11,-0.118512981,2.406172752,10.22324085,0.053692192,-0.02797856,0.038104136,20,41,-21,-22,54
1693677866209521000,1.036689281,-0.85353291,10.24359226,-0.06115314,-0.000799387,-0.008127105,-27,45,83,10,-8,-0.118512981,2.404975653,10.22443867,0.053692192,-0.027845331,0.037837673,20,39,-24,-19,55
1693677866210521000,1.035492182,-0.85353291,10.24119759,-0.061286367,-0.000932619,-0.008127105,-28,35,89,4,-9,-0.117315881,2.404975653,10.22443867,0.053692192,-0.02797856,0.037837673,22,44,-24,-16,52
1693677866282337600,1.028309584,-0.85473001,10.25197124,-0.060886677,-0.00106585,-0.007594181,-23,41,92,11,-13,-0.105344877,2.41335535,10.21366405,0.054225113,-0.027445635,0.037970904,13,30,-20,-24,49
1693677866283337600,1.029506683,-0.85592711,10.25436592,-0.061019909,-0.00106585,-0.007594181,-28,41,86,9,-12,-0.10295067,2.41455245,10.21845245,0.053958651,-0.027578866,0.038104136,13,41,-19,-19,54
1693677866284337600,1.029506683,-0.85353291,10.25795746,-0.06115314,-0.001199081,-0.007594181,-23,35,83,7,-9,-0.10295067,2.41694665,10.21965027,0.053558957,-0.02797856,0.038104136,20,37,-23,-18,52
1693677866285337600,1.027112484,-0.852335811,10.24957752,-0.061286367,-0.001465544,-0.007727412,-28,39,89,6,-13,-0.10055647,2.419340849,10.21605873,0.053958651,-0.028378254,0.038237367,20,39,-20,-23,55
1693677866286337600,1.029506683,-0.852335811,10.24598598,-0.061286367,-0.001732006,-0.007860643,-22,49,87,13,-12,-0.10175357,2.418143749,10.21965027,0.054358348,-0.028644716,0.038104136,17,30,-24,-20,55
1693677866344568700,1.030703783,-0.85353291,10.24119759,-0.061286367,-0.001199081,-0.007860643,-24,44,83,11,-12,-0.105344877,2.420537949,10.23162079,0.053425729,-0.02691271,0.037970904,13,40,-21,-19,54
1693677866345568700,1.029506683,-0.85353291,10.24119759,-0.061419602,-0.001199081,-0.007727412,-24,41,81,3,-15,-0.106541976,2.420537949,10.23281765,0.053558957,-0.026779478,0.038104136,17,43,-27,-19,52
1693677866346568700,1.028309584,-0.851138711,10.24000072,-0.061552834,-0.001199081,-0.007727412,-4,50,85,9,-9,-0.107739076,2.41694665,10.23162079,0.053692192,-0.026779478,0.037970904,10,36,-23,-22,52
1693677866347568700,1.029506683,-0.851138711,10.24119759,-0.061419602,-0.001332312,-0.007727412,-24,45,90,4,-7,-0.106541976,2.41574955,10.23042393,0.053825419,-0.027045943,0.037970904,20,41,-23,-20,48
1693677866348568700,1.033097982,-0.849941611,10.24119759,-0.061552834,-0.001332312,-0.007860643,-27,42,83,9,-3,-0.107739076,2.41694665,10.22922707,0.053825419,-0.027312404,0.038237367,17,44,-20,-24,52
1693677866417693100,1.027112484,-0.85353291,10.24000072,-0.061419602,-0.001199081,-0.007860643,-22,42,81,10,-12,-0.104147777,2.409764051,10.22922707,0.053558957,-0.026646247,0.038237367,14,39,-20,-22,54
1693677866418693100,1.025915384,-0.85353291,10.24239445,-0.061552834,-0.00106585,-0.007860643,-28,45,80,2,-13,-0.10295067,2.406172752,10.22802925,0.053425729,-0.026379786,0.038104136,13,35,-23,-27,53
1693677866419693100,1.024718285,-0.852335811,10.24359226,-0.061419602,-0.000932619,-0.007727412,-25,38,84,13,-12,-0.10175357,2.407369852,10.22683239,0.053159267,-0.026379786,0.037970904,20,40,-18,-18,55
1693677866420693100,1.024718285,-0.848744512,10.24598598,-0.061419602,-0.000799387,-0.007860643,-20,46,81,8,-5,-0.10295067,2.408566952,10.22443867,0.053159267,-0.026513018,0.037970904,20,44,-25,-24,54
1693677866421693100,1.022324085,-0.847547412,10.24359226,-0.061419602,-0.000666156,-0.007727412,-26,41,90,6,-9,-0.10175357,2.410961151,10.21965027,0.053292494,-0.026779478,0.037837673,17,44,-25,-19,54
1693677866488507500,1.031900883,-0.857124209,10.24598598,-0.06115314,-0.000799387,-0.008127105,-28,42,95,18,0,-0.104147777,2.420537949,10.22204399,0.053558957,-0.026646247,0.037837673,16,38,-23,-20,52
1693677866489507500,1.035492182,-0.857124209,10.24598598,-0.06115314,-0.000532925,-0.008260337,-30,37,89,-1,-5,-0.105344877,2.418143749,10.22563553,0.053425729,-0.02691271,0.037837673,20,41,-21,-20,55
1693677866490507500,1.034295082,-0.85592711,10.24957752,-0.06115314,-0.000532925,-0.008260337,-33,46,89,9,-9,-0.104147777,2.412158251,10.22563553,0.053292494,-0.02691271,0.037837673,23,37,-25,-21,55
1693677866491507500,1.031900883,-0.860715508,10.24359226,-0.061019909,-0.000666156,-0.008127105,-20,47,86,13,-8,-0.10295067,2.41455245,10.22802925,0.053425729,-0.027045943,0.037704438,19,42,-17,-26,53
1693677866492507500,1.030703783,-0.861912608,10.24359226,-0.060753446,-0.000532925,-0.008127105,-26,45,88,11,-12,-0.10295067,2.418143749,10.22204399,0.053558957,-0.027179174,0.037704438,20,35,-24,-22,43
1693677866554463800,1.031900883,-0.852335811,10.24119759,-0.061019909,-0.000799387,-0.008393568,-28,33,87,2,-9,-0.111330383,2.41694665,10.22084713,0.053558957,-0.027179174,0.03757121,21,34,-23,-15,44
1693677866555463800,1.031900883,-0.852335811,10.24359226,-0.060886677,-0.000666156,-0.008393568,-26,41,81,6,-11,-0.111330383,2.41455245,10.22324085,0.053692192,-0.027179174,0.03757121,15,43,-18,-19,55
1693677866556463800,1.030703783,-0.85592711,10.24718285,-0.061019909,-0.000666156,-0.008260337,-20,40,85,10,-13,-0.112527482,2.412158251,10.22084713,0.053558957,-0.027179174,0.03757121,17,44,-9,-27,50
1693677866557463800,1.029506683,-0.858321309,10.24119759,-0.061019909,-0.000666156,-0.008260337,-18,45,85,8,-13,-0.111330383,2.41455245,10.21605873,0.053558957,-0.027179174,0.037437979,20,35,-21,-23,55
1693677866558463800,1.028309584,-0.85473001,10.23760605,-0.06115314,-0.000799387,-0.008260337,-29,44,87,8,-12,-0.107739076,2.41694665,10.21725559,0.053425729,-0.027312404,0.037704438,17,32,-25,-23,53
1693677866645693800,1.036689281,-0.859518409,10.24359226,-0.061419602,-0.00106585,-0.008127105,-28,33,80,8,-17,-0.107739076,2.420537949,10.22802925,0.053692192,-0.026379786,0.037837673,20,44,-21,-20,53
1693677866646693800,1.036689281,-0.859518409,10.24478912,-0.061419602,-0.000932619,-0.008260337,-26,35,84,9,-13,-0.108936176,2.420537949,10.23162079,0.053425729,-0.026379786,0.037970904,30,45,-16,-18,60
1693677866647693800,1.036689281,-0.85592711,10.23880386,-0.061419602,-0.000932619,-0.008260337,-29,37,81,13,-11,-0.111330383,2.420537949,10.22802925,0.053425729,-0.026246555,0.037970904,20,33,-28,-15,55
1693677866648693800,1.040280581,-0.859518409,10.23880386,-0.061552834,-0.00106585,-0.008260337,-24,42,88,9,-9,-0.113724582,2.419340849,10.23042393,0.053292494,-0.026379786,0.037970904,17,42,-26,-33,50
1693677866649693800,1.037886381,-0.859518409,10.23401546,-0.061419602,-0.000932619,-0.008127105,-13,38,80,-4,-13,-0.117315881,2.41455245,10.23042393,0.053292494,-0.026513018,0.037704438,17,40,-20,-18,49
1693677866684674200,1.034295082,-0.85592711,10.24957752,-0.060886677,-0.00106585,-0.008260337,-23,39,84,5,-11,-0.10175357,2.410961151,10.21965027,0.053825419,-0.027045943,0.03757121,21,45,-19,-17,57
1693677866685674200,1.033097982,-0.858321309,10.25077438,-0.060886677,-0.000799387,-0.008260337,-26,41,79,15,-9,-0.10175357,2.412158251,10.21965027,0.053692192,-0.027045943,0.03757121,20,39,-23,-23,53
1693677866686674200,1.033097982,-0.857124209,10.24838066,-0.060753446,-0.000799387,-0.008260337,-28,41,87,2,-13,-0.105344877,2.412158251,10.21725559,0.053425729,-0.027045943,0.03757121,20,40,-21,-19,52
1693677866687674200,1.031900883,-0.85592711,10.24838066,-0.060886677,-0.000799387,-0.008260337,-12,43,85,0,-11,-0.107739076,2.41694665,10.21725559,0.053425729,-0.027179174,0.037437979,13,33,-29,-26,49
1693677866688674200,1.030703783,-0.85353291,10.24838066,-0.061019909,-0.000932619,-0.008127105,-32,38,79,6,-15,-0.105344877,2.418143749,10.21366405,0.053425729,-0.027179174,0.037171517,14,35,-32,-20,55
1693677866771506500,1.030703783,-0.857124209,10.24598598,-0.061019909,-0.000799387,-0.007993874,-25,42,81,6,-15,-0.112527482,2.419340849,10.21246719,0.053825419,-0.02691271,0.037437979,20,41,-20,-18,56
1693677866772506500,1.030703783,-0.85592711,10.24598598,-0.060886677,-0.000532925,-0.008127105,-21,45,83,6,-15,-0.111330383,2.418143749,10.21366405,0.053692192,-0.02691271,0.03757121,20,43,-21,-26,49
1693677866773506500,1.028309584,-0.85353291,10.23760605,-0.061019909,-0.000532925,-0.008127105,-27,41,80,11,-11,-0.112527482,2.41574955,10.21127033,0.053825419,-0.02691271,0.037437979,20,31,-20,-20,51
1693677866774506500,1.028309584,-0.85473001,10.24000072,-0.061019909,-0.000532925,-0.008127105,-26,39,87,8,-13,-0.110133275,2.41455245,10.21246719,0.053825419,-0.02691271,0.037437979,20,30,-20,-19,50
1693677866775506500,1.025915384,-0.859518409,10.24239445,-0.060886677,-0.000532925,-0.008260337,-22,38,89,8,-13,-0.108936176,2.41335535,10.21845245,0.053825419,-0.02691271,0.037304748,15,35,-23,-19,52
1693677866819553100,1.027112484,-0.858321309,10.25197124,-0.061419602,-0.000266462,-0.007727412,-23,43,82,11,-9,-0.105344877,2.406172752,10.22922707,0.053692192,-0.026779478,0.03757121,17,40,-20,-23,55
1693677866820553100,1.028309584,-0.858321309,10.25197124,-0.061552834,-0.000532925,-0.007594181,-26,46,88,12,-8,-0.107739076,2.406172752,10.23401546,0.053692192,-0.02691271,0.037437979,20,35,-21,-24,51
1693677866821553100,1.030703783,-0.857124209,10.24957752,-0.061552834,-0.000532925,-0.007594181,-27,39,84,8,-13,-0.110133275,2.406172752,10.23281765,0.053558957,-0.027045943,0.037704438,17,35,-31,-17,51
1693677866822553100,1.029506683,-0.859518409,10.24957752,-0.061552834,-0.000399694,-0.007727412,-29,42,88,6,-14,-0.108936176,2.406172752,10.23042393,0.053292494,-0.02691271,0.037837673,16,36,-22,-22,54
1693677866823553100,1.029506683,-0.860715508,10.24718285,-0.061686065,-0.000399694,-0.007860643,-24,42,85,2,-17,-0.104147777,2.407369852,10.23281765,0.053292494,-0.02691271,0.037837673,19,33,-22,-19,53
1693677866895968500,1.027112484,-0.857124209,10.24598598,-0.060886677,-0.000799387,-0.008260337,-27,36,81,20,3,-0.10295067,2.419340849,10.21605873,0.053292494,-0.026379786,0.037837673,17,33,-21,-20,50
1693677866896968500,1.024718285,-0.85592711,10.25077438,-0.060886677,-0.000799387,-0.008127105,-23,48,83,7,-12,-0.105344877,2.419340849,10.21725559,0.053159267,-0.026379786,0.037704438,18,36,-24,-21,55
1693677866897968500,1.025915384,-0.85473001,10.25077438,-0.061019909,-0.000799387,-0.008127105,-23,39,87,10,-9,-0.105344877,2.420537949,10.21605873,0.053292494,-0.026246555,0.037837673,20,39,-22,-20,53
1693677866898968500,1.023521185,-0.85592711,10.25197124,-0.061019909,-0.000799387,-0.008127105,-24,46,89,11,-12,-0.106541976,2.419340849,10.21246719,0.053159267,-0.026379786,0.037837673,18,35,-25,-24,55
1693677866899968500,1.025915384,-0.85592711,10.24957752,-0.060886677,-0.000799387,-0.008127105,-26,35,89,7,-13,-0.107739076,2.419340849,10.21246719,0.053159267,-0.026379786,0.037970904,13,52,-17,-27,54
1693677866954483800,1.036689281,-0.842759013,10.23640919,-0.061286367,-0.000133231,-0.008393568,-24,42,81,13,-7,-0.114921682,2.41455245,10.22922707,0.053825419,-0.027179174,0.037837673,17,47,-17,-22,51
1693677866955483800,1.036689281,-0.843956113,10.23281765,-0.06115314,-0.000266462,-0.008393568,-22,42,85,8,-9,-0.113724582,2.41574955,10.23401546,0.053825419,-0.027045943,0.037837673,17,46,-21,-20,50
1693677866956483800,1.035492182,-0.843956113,10.22683239,-0.061286367,-0.000399694,-0.008260337,-26,37,87,6,-13,-0.113724582,2.41455245,10.23640919,0.053825419,-0.027179174,0.037970904,18,39,-29,-24,52
1693677866957483800,1.036689281,-0.840364814,10.22683239,-0.061286367,-0.000399694,-0.008127105,-26,37,87,-6,-18,-0.113724582,2.41694665,10.23281765,0.053958651,-0.027179174,0.038104136,20,44,-20,-22,55
1693677866958483800,1.037886381,-0.840364814,10.23042393,-0.061286367,-0.000666156,-0.008127105,-22,42,90,7,-7,-0.112527482,2.41694665,10.22922707,0.053825419,-0.027179174,0.037970904,17,40,-23,-19,57
1693677867020992700,1.036689281,-0.85353291,10.22324085,-0.061686065,-0.000666156,-0.008260337,-27,45,80,10,-13,-0.108936176,2.41574955,10.22802925,0.053159267,-0.027179174,0.038370594,18,39,-25,-27,50
1693677867021992700,1.035492182,-0.849941611,10.22204399,-0.061552834,-0.000666156,-0.008393568,-26,43,87,4,-7,-0.107739076,2.41574955,10.23162079,0.053292494,-0.027312404,0.038503829,20,36,-25,-20,54
1693677867022992700,1.034295082,-0.849941611,10.22324085,-0.061552834,-0.000532925,-0.008393568,-23,38,83,7,-15,-0.105344877,2.41455245,10.23162079,0.053292494,-0.027312404,0.038503829,15,39,-21,-20,51
1693677867023992700,1.037886381,-0.852335811,10.22802925,-0.061552834,-0.000532925,-0.008526799,-24,47,81,4,-12,-0.106541976,2.418143749,10.23042393,0.053292494,-0.027312404,0.038503829,21,37,-20,-20,56
1693677867024992700,1.04147768,-0.849941611,10.22563553,-0.061552834,-0.000532925,-0.008526799,-28,37,89,13,-9,-0.106541976,2.420537949,10.22922707,0.053292494,-0.027445635,0.038237367,21,37,-23,-23,55
1693677867083712300,1.018732786,-0.845153213,10.22802925,-0.061419602,-0.000666156,-0.007860643,-28,39,87,6,-13,-0.107739076,2.41694665,10.21965027,0.053692192,-0.026513018,0.038104136,18,35,-23,-19,54
1693677867084712300,1.021126986,-0.842759013,10.23162079,-0.061286367,-0.000532925,-0.007860643,-23,42,83,11,-16,-0.107739076,2.41694665,10.21486187,0.053692192,-0.026513018,0.038104136,20,39,-17,-24,55
1693677867085712300,1.023521185,-0.843956113,10.23162079,-0.061286367,-0.000666156,-0.007860643,-23,37,85,13,-14,-0.107739076,2.41694665,10.21486187,0.053692192,-0.026379786,0.038104136,26,40,-20,-16,55
1693677867086712300,1.021126986,-0.846350312,10.22443867,-0.061286367,-0.000532925,-0.007993874,-26,41,85,6,-11,-0.107739076,2.41574955,10.21725559,0.053425729,-0.026513018,0.038104136,19,46,-17,-20,55
1693677867087712300,1.022324085,-0.845153213,10.22443867,-0.061286367,-0.000532925,-0.007993874,-22,47,90,8,-12,-0.107739076,2.41335535,10.21965027,0.053558957,-0.026513018,0.038104136,19,44,-27,-27,53
1693677867157524200,1.018732786,-0.852335811,10.23281765,-0.06115314,-0.000666156,-0.007860643,-24,32,87,2,-7,-0.113724582,2.41455245,10.22324085,0.053425729,-0.026379786,0.03757121,20,39,-30,-22,54
1693677867158524200,1.022324085,-0.85353291,10.23521233,-0.061286367,-0.000666156,-0.007860643,-29,42,90,10,-11,-0.117315881,2.412158251,10.22443867,0.053425729,-0.026379786,0.037437979,14,39,-20,-20,55
1693677867159524200,1.023521185,-0.857124209,10.24359226,-0.061286367,-0.000532925,-0.007860643,-33,38,86,-2,-16,-0.112527482,2.410961151,10.22204399,0.053425729,-0.026513018,0.037304748,15,42,-19,-18,53
1693677867160524200,1.024718285,-0.860715508,10.24478912,-0.061286367,-0.000666156,-0.007860643,-27,43,89,13,-11,-0.111330383,2.410961151,10.22204399,0.053425729,-0.026379786,0.037304748,20,39,-24,-23,54
1693677867161524200,1.027112484,-0.859518409,10.24478912,-0.061286367,-0.000666156,-0.007860643,-22,38,85,8,-9,-0.107739076,2.410961151,10.22204399,0.053425729,-0.026246555,0.037437979,13,43,-17,-21,54
1693677867242558800,1.025915384,-0.852335811,10.24359226,-0.061286367,-0.000266462,-0.007727412,-24,35,81,11,-13,-0.113724582,2.409764051,10.22204399,0.053425729,-0.026779478,0.037837673,16,46,-23,-20,54
1693677867243558800,1.023521185,-0.85473001,10.23640919,-0.061419602,-0.000399694,-0.007594181,-33,43,80,0,-15,-0.116118781,2.408566952,10.22084713,0.053425729,-0.026646247,0.037704438,19,43,-25,-19,53
1693677867244558800,1.022324085,-0.85353291,10.23281765,-0.061419602,-0.000532925,-0.007594181,-22,40,80,12,-9,-0.119710088,2.412158251,10.21845245,0.053558957,-0.026646247,0.037837673,18,43,-21,-20,53
1693677867245558800,1.021126986,-0.852335811,10.23640919,-0.061419602,-0.000532925,-0.007594181,-23,37,90,9,-11,-0.116118781,2.41335535,10.22084713,0.053558957,-0.026646247,0.037970904,15,44,-23,-28,53
1693677867246558800,1.023521185,-0.85353291,10.23760605,-0.061552834,-0.000266462,-0.007594181,-19,41,85,7,-9,-0.113724582,2.412158251,10.22324085,0.053558957,-0.026646247,0.037970904,18,39,-24,-19,53
1693677867306507700,1.029506683,-0.858321309,10.24957752,-0.061419602,-0.000532925,-0.007727412,-27,44,85,8,-13,-0.110133275,2.418143749,10.22204399,0.053292494,-0.026379786,0.037704438,11,43,-23,-14,50
1693677867307507700,1.030703783,-0.85473001,10.24838066,-0.061419602,-0.000666156,-0.007594181,-27,36,79,-2,-8,-0.110133275,2.41574955,10.21486187,0.053159267,-0.026513018,0.037837673,20,39,-20,-20,49
1693677867308507700,1.031900883,-0.85353291,10.24239445,-0.061419602,-0.000799387,-0.007594181,-23,42,87,8,-9,-0.108936176,2.41455245,10.21007347,0.0528928,-0.026513018,0.037837673,8,40,-20,-18,55
1693677867309507700,1.030703783,-0.851138711,10.24000072,-0.061419602,-0.000932619,-0.007594181,-23,44,84,10,-12,-0.107739076,2.41694665,10.21486187,0.0528928,-0.026513018,0.037837673,10,35,-28,-22,53
1693677867310507700,1.033097982,-0.847547412,10.23760605,-0.061419602,-0.000932619,-0.007460949,-27,39,88,11,-11,-0.106541976,2.41694665,10.21725559,0.0528928,-0.026379786,0.037970904,13,33,-28,-28,49
1693677867367528700,1.031900883,-0.85353291,10.23162079,-0.061286367,-0.000266462,-0.007727412,-23,37,81,10,-15,-0.111330383,2.418143749,10.22802925,0.053026035,-0.026646247,0.038370594,20,35,-25,-20,56
1693677867368528700,1.030703783,-0.85473001,10.23401546,-0.06115314,-0.000266462,-0.007727412,-23,38,87,8,-12,-0.114921682,2.41694665,10.22443867,0.053292494,-0.026646247,0.038370594,20,41,-17,-19,55
1693677867369528700,1.030703783,-0.85353291,10.23640919,-0.061019909,-0.000266462,-0.007594181,-29,37,85,10,-9,-0.118512981,2.41335535,10.22204399,0.053292494,-0.026779478,0.038237367,13,40,-19,-22,55
1693677867370528700,1.031900883,-0.85473001,10.24000072,-0.061019909,-0.000266462,-0.007594181,-20,50,90,11,-11,-0.116118781,2.41455245,10.21965027,0.053159267,-0.02691271,0.037970904,15,39,-21,-22,58
1693677867371528700,1.031900883,-0.852335811,10.24598598,-0.06115314,-0.000266462,-0.007460949,-26,71,80,11,-4,-0.113724582,2.419340849,10.22324085,0.053558957,-0.02691271,0.037970904,7,40,-24,-22,49
1693677867432466800,1.035492182,-0.847547412,10.24838066,-0.061286367,-0.000266462,-0.007993874,-32,38,84,7,-14,-0.117315881,2.418143749,10.21605873,0.053159267,-0.026779478,0.037837673,22,44,-21,-19,55
1693677867433466800,1.035492182,-0.846350312,10.24598598,-0.06115314,-0.000133231,-0.007993874,-20,46,85,14,-11,-0.116118781,2.41574955,10.21605873,0.053159267,-0.026779478,0.037704438,14,29,-25,-23,54
1693677867434466800,1.039083481,-0.847547412,10.24119759,-0.061286367,-0.000266462,-0.007993874,-30,42,88,9,-9,-0.116118781,2.41574955,10.21845245,0.053292494,-0.026646247,0.037837673,19,32,-23,-20,51
1693677867435466800,1.04147768,-0.848744512,10.23880386,-0.06115314,-0.000133231,-0.007993874,-22,49,90,7,-8,-0.114921682,2.41455245,10.21486187,0.053026035,-0.026779478,0.037837673,17,40,-22,-27,44
1693677867436466800,1.040280581,-0.847547412,10.23880386,-0.06115314,0.0,-0.008127105,-24,45,83,6,-8,-0.112527482,2.41455245,10.21845245,0.053159267,-0.026779478,0.037970904,15,41,-23,-22,50
1693677867494461900,1.040280581,-0.851138711,10.23760605,-0.061686065,-0.000399694,-0.008127105,-18,42,89,13,-15,-0.098162271,2.412158251,10.22324085,0.053159267,-0.02691271,0.037704438,21,43,-24,-18,55
1693677867495461900,1.040280581,-0.851138711,10.23521233,-0.061686065,-0.000532925,-0.008127105,-24,43,88,10,-9,-0.099359371,2.41335535,10.22802925,0.053292494,-0.027045943,0.037704438,14,35,-31,-23,53
1693677867496461900,1.04147768,-0.848744512,10.23521233,-0.061552834,-0.000399694,-0.007993874,-31,41,86,10,-11,-0.098162271,2.412158251,10.23640919,0.053292494,-0.02691271,0.037704438,20,31,-19,-24,48
1693677867497461900,1.045069098,-0.847547412,10.23521233,-0.061686065,-0.000666156,-0.007993874,-18,38,79,8,-5,-0.10055647,2.409764051,10.24000072,0.053159267,-0.026779478,0.03757121,17,33,-24,-24,55
1693677867498461900,1.045069098,-0.845153213,10.23281765,-0.061552834,-0.000799387,-0.007860643,-28,35,79,8,-15,-0.10055647,2.412158251,10.24000072,0.053026035,-0.026779478,0.037837673,19,36,-25,-23,54
1693677867567358600,1.046266198,-0.852335811,10.23760605,-0.061286367,-0.000399694,-0.007993874,-22,42,88,7,-16,-0.108936176,2.41574955,10.22084713,0.053825419,-0.027845331,0.03757121,20,44,-20,-17,52
1693677867568358600,1.047463298,-0.851138711,10.24239445,-0.061286367,-0.000532925,-0.007993874,-26,38,88,10,-9,-0.107739076,2.41455245,10.21845245,0.053825419,-0.027712099,0.03757121,19,42,-23,-24,53
1693677867569358600,1.046266198,-0.85353291,10.24478912,-0.061286367,-0.000532925,-0.008127105,-20,45,87,9,-5,-0.107739076,2.41574955,10.22204399,0.053958651,-0.027712099,0.037704438,18,30,-20,-33,48
1693677867570358600,1.045069098,-0.85473001,10.24000072,-0.061286367,-0.000532925,-0.007993874,-28,46,85,12,-9,-0.108936176,2.41335535,10.21845245,0.053825419,-0.027578866,0.03757121,20,40,-24,-24,53
1693677867571358600,1.043871999,-0.85592711,10.23760605,-0.061286367,-0.000532925,-0.007860643,-28,43,84,10,-12,-0.107739076,2.41694665,10.21965027,0.053825419,-0.027445635,0.03757121,14,41,-16,-21,55
1693677867627274900,1.040280581,-0.85592711,10.23760605,-0.06115314,-0.000666156,-0.007727412,-23,40,83,13,-11,-0.108936176,2.422932148,10.21007347,0.053292494,-0.027179174,0.037970904,20,44,-24,-24,53
1693677867628274900,1.04147768,-0.858321309,10.23760605,-0.06115314,-0.000799387,-0.007727412,-26,46,85,6,-14,-0.108936176,2.422932148,10.21366405,0.053425729,-0.027312404,0.037837673,20,40,-24,-24,53
1693677867629274900,1.040280581,-0.859518409,10.24000072,-0.06115314,-0.000799387,-0.007727412,-24,41,90,13,-11,-0.108936176,2.424129248,10.21366405,0.053425729,-0.027445635,0.037704438,19,37,-28,-22,54
1693677867630274900,1.040280581,-0.860715508,10.24000072,-0.06115314,-0.000666156,-0.007860643,-27,41,84,8,-13,-0.106541976,2.420537949,10.21486187,0.053692192,-0.027578866,0.037704438,18,41,-17,-24,52
1693677867631274900,1.04147768,-0.863109708,10.23880386,-0.061019909,-0.000666156,-0.007993874,-32,39,87,8,-14,-0.106541976,2.421735048,10.21366405,0.053692192,-0.027578866,0.037837673,13,47,-19,-19,54
1693677867702912000,1.024718285,-0.85353291,10.23640919,-0.06115314,-0.000399694,-0.008260337,-26,39,83,7,-9,-0.110133275,2.41574955,10.22084713,0.053558957,-0.026646247,0.037704438,17,40,-23,-27,33
1693677867703912000,1.024718285,-0.852335811,10.24119759,-0.06115314,-0.000399694,-0.008260337,-20,46,87,11,-9,-0.107739076,2.419340849,10.22443867,0.053825419,-0.026513018,0.037704438,16,31,-25,-22,54
1693677867704912000,1.027112484,-0.851138711,10.24119759,-0.06115314,-0.000532925,-0.008260337,-23,41,85,10,-13,-0.105344877,2.419340849,10.22802925,0.053558957,-0.026379786,0.03757121,13,33,-21,-20,45
1693677867705912000,1.025915384,-0.852335811,10.24478912,-0.06115314,-0.000532925,-0.008127105,-29,44,89,6,-17,-0.108936176,2.41694665,10.22324085,0.053292494,-0.026513018,0.03757121,20,45,-22,-20,51
1693677867706912000,1.023521185,-0.85592711,10.24838066,-0.061286367,-0.000532925,-0.007993874,-31,39,87,3,-12,-0.108936176,2.418143749,10.22084713,0.053425729,-0.026379786,0.03757121,13,40,-25,-21,55
1693677867766511600,1.037886381,-0.859518409,10.24838066,-0.06115314,-0.000266462,-0.008127105,-28,44,86,10,-12,-0.108936176,2.409764051,10.22802925,0.053558957,-0.027045943,0.037837673,15,39,-21,-26,50
1693677867767511600,1.039083481,-0.858321309,10.24598598,-0.06115314,-0.000399694,-0.008260337,-21,49,85,3,-8,-0.108936176,2.412158251,10.23162079,0.053425729,-0.027045943,0.037970904,19,41,-22,-27,55
1693677867768511600,1.039083481,-0.85592711,10.24718285,-0.06115314,-0.000532925,-0.008127105,-27,48,89,2,-8,-0.108936176,2.41455245,10.22802925,0.053292494,-0.027045943,0.037837673,20,33,-17,-23,54
1693677867769511600,1.036689281,-0.85353291,10.24718285,-0.060886677,-0.000532925,-0.007993874,-27,46,86,6,-13,-0.108936176,2.41455245,10.22563553,0.053292494,-0.027045943,0.037970904,15,41,-27,-24,55
1693677867770511600,1.034295082,-0.851138711,10.24478912,-0.060886677,-0.000532925,-0.007993874,-32,37,83,6,-9,-0.110133275,2.41574955,10.22922707,0.053292494,-0.027045943,0.037837673,17,41,-22,-19,55
1693677867829552100,1.018732786,-0.85592711,10.24478912,-0.060620211,-0.000399694,-0.007860643,-27,45,85,10,-11,-0.117315881,2.41335535,10.23162079,0.053026035,-0.025980091,0.037704438,15,33,-25,-20,37
1693677867830552100,1.017535686,-0.857124209,10.24359226,-0.060753446,-0.000532925,-0.007993874,-23,46,88,10,-11,-0.114921682,2.41335535,10.22802925,0.053026035,-0.025980091,0.037704438,11,35,-20,-27,52
1693677867831552100,1.018732786,-0.857124209,10.24000072,-0.060753446,-0.000666156,-0.007993874,-30,33,85,7,-11,-0.112527482,2.412158251,10.23042393,0.053159267,-0.026246555,0.037837673,20,45,-19,-15,55
1693677867832552100,1.021126986,-0.85592711,10.24239445,-0.060886677,-0.000799387,-0.008127105,-31,43,83,6,-14,-0.110133275,2.412158251,10.23281765,0.053292494,-0.026246555,0.037704438,18,36,-23,-20,55
1693677867833552100,1.019929886,-0.858321309,10.24119759,-0.061019909,-0.000799387,-0.007993874,-24,41,81,4,-12,-0.111330383,2.412158251,10.23281765,0.053292494,-0.026513018,0.037704438,18,37,-23,-17,48
1693677867905131400,1.031900883,-0.85353291,10.23640919,-0.061686065,-0.000133231,-0.007860643,-22,39,85,7,-2,-0.117315881,2.409764051,10.23281765,0.0528928,-0.026513018,0.037970904,18,33,-20,-23,55
1693677867906131400,1.034295082,-0.85592711,10.23640919,-0.061552834,-0.000133231,-0.007993874,-28,42,83,10,-11,-0.117315881,2.410961151,10.23042393,0.0528928,-0.026379786,0.037837673,21,35,-19,-19,55
1693677867907131400,1.036689281,-0.85592711,10.24478912,-0.061686065,-0.000133231,-0.007860643,-24,41,81,10,-12,-0.114921682,2.409764051,10.23401546,0.0528928,-0.026113322,0.037837673,18,43,-19,-20,55
1693677867908131400,1.039083481,-0.85473001,10.24239445,-0.061686065,0.000133231,-0.007727412,-30,38,85,7,-15,-0.112527482,2.408566952,10.23281765,0.0528928,-0.026246555,0.037970904,14,45,-20,-23,55
1693677867909131400,1.037886381,-0.85473001,10.23760605,-0.061552834,0.000266462,-0.007860643,-28,37,80,11,-8,-0.110133275,2.408566952,10.23042393,0.0528928,-0.026379786,0.038104136,21,39,-25,-17,50
1693677867977990500,1.037886381,-0.849941611,10.26154804,-0.061419602,-0.000133231,-0.007860643,-24,45,90,12,-4,-0.116118781,2.412158251,10.22683239,0.053558957,-0.027045943,0.037970904,18,35,-22,-24,49
1693677867978990500,1.039083481,-0.852335811,10.26274586,-0.061419602,0.0,-0.007993874,-24,42,85,10,-12,-0.113724582,2.41335535,10.22443867,0.053292494,-0.02691271,0.03757121,18,40,-21,-19,52
1693677867979990500,1.040280581,-0.852335811,10.25915432,-0.061419602,0.0,-0.007993874,-28,43,84,6,-9,-0.114921682,2.412158251,10.22204399,0.053159267,-0.02691271,0.037837673,23,33,-19,-16,55
1693677867980990500,1.039083481,-0.851138711,10.25556278,-0.061419602,0.000133231,-0.007993874,-22,37,80,9,-13,-0.113724582,2.41694665,10.21845245,0.053292494,-0.027045943,0.037970904,10,43,-25,-22,52
1693677867981990500,1.04147768,-0.851138711,10.25436592,-0.06115314,0.0,-0.007993874,-26,37,88,13,-9,-0.113724582,2.419340849,10.21965027,0.053292494,-0.027045943,0.037970904,20,43,-22,-23,54
1693677868084968600,1.030703783,-0.851138711,10.24838066,-0.061019909,0.000133231,-0.008260337,-24,46,83,10,-9,-0.10295067,2.412158251,10.21127033,0.053292494,-0.026513018,0.037970904,15,45,-22,-24,58
1693677868085968600,1.029506683,-0.849941611,10.25316906,-0.06115314,0.000133231,-0.008393568,-35,41,87,12,-15,-0.10055647,2.410961151,10.21486187,0.053292494,-0.026779478,0.037970904,20,41,-27,-22,49
1693677868086968600,1.030703783,-0.849941611,10.25316906,-0.06115314,0.0,-0.008393568,-27,37,83,11,-9,-0.098162271,2.412158251,10.21127033,0.053292494,-0.02691271,0.037970904,15,45,-20,-20,55
1693677868087968600,1.031900883,-0.847547412,10.24957752,-0.061019909,0.0,-0.008260337,-26,41,83,4,-12,-0.095768064,2.410961151,10.20767879,0.053159267,-0.026779478,0.037837673,21,34,-23,-19,54
1693677868088968600,1.030703783,-0.846350312,10.24478912,-0.06115314,-0.000133231,-0.008127105,-28,43,85,10,-14,-0.094570965,2.409764051,10.20767879,0.053292494,-0.026779478,0.037837673,12,41,-21,-23,52
1693677868116927400,1.023521185,-0.848744512,10.24718285,-0.06115314,-0.000266462,-0.008260337,-24,37,80,10,-5,-0.110133275,2.420537949,10.21965027,0.053026035,-0.026246555,0.03757121,19,37,-21,-24,48
1693677868117927400,1.024718285,-0.848744512,10.24598598,-0.06115314,-0.000266462,-0.008127105,-16,39,84,10,-8,-0.113724582,2.41694665,10.22084713,0.053026035,-0.026246555,0.037704438,20,43,-20,-24,58
1693677868118927400,1.024718285,-0.846350312,10.24838066,-0.06115314,-0.000532925,-0.008127105,-26,42,86,4,-11,-0.113724582,2.418143749,10.21965027,0.052759573,-0.026379786,0.037970904,18,48,-23,-18,50
1693677868119927400,1.025915384,-0.846350312,10.24838066,-0.06115314,-0.000399694,-0.008127105,-30,37,83,13,-9,-0.114921682,2.418143749,10.21965027,0.052626338,-0.026513018,0.037837673,16,36,-20,-22,54
1693677868120927400,1.025915384,-0.842759013,10.24598598,-0.06115314,-0.000399694,-0.008260337,-30,46,83,13,-7,-0.112527482,2.420537949,10.22204399,0.0528928,-0.026379786,0.037837673,17,33,-29,-28,52
1693677868225985800,1.036689281,-0.85473001,10.24119759,-0.061552834,-0.000266462,-0.007860643,-20,37,84,11,-13,-0.106541976,2.419340849,10.23162079,0.053825419,-0.026513018,0.037704438,21,39,-19,-24,53
1693677868226985800,1.036689281,-0.85473001,10.24119759,-0.061552834,-0.000266462,-0.007727412,0,39,83,12,-7,-0.110133275,2.418143749,10.22802925,0.053825419,-0.026513018,0.03757121,16,39,-23,-16,55
1693677868227985800,1.035492182,-0.852335811,10.24478912,-0.061552834,-0.000266462,-0.007860643,-24,35,85,13,-13,-0.112527482,2.41574955,10.22324085,0.053692192,-0.026513018,0.037704438,20,40,-20,-27,52
1693677868228985800,1.034295082,-0.85473001,10.24478912,-0.061686065,0.0,-0.007860643,-37,17,91,18,1,-0.112527482,2.41574955,10.22084713,0.053692192,-0.026513018,0.037837673,20,35,-22,-24,46
1693677868229985800,1.033097982,-0.85353291,10.24359226,-0.061686065,-0.000133231,-0.008127105,-32,42,83,7,-12,-0.113724582,2.41455245,10.21605873,0.053425729,-0.026513018,0.037970904,18,41,-31,-20,53
1693677868259965800,1.031900883,-0.860715508,10.24359226,-0.061019909,-0.000133231,-0.007594181,-26,42,88,6,-7,-0.108936176,2.418143749,10.22084713,0.053558957,-0.026646247,0.037837673,21,41,-15,-24,55
1693677868260965800,1.030703783,-0.860715508,10.24359226,-0.060886677,-0.000266462,-0.007727412,-24,50,83,12,-2,-0.107739076,2.41694665,10.21725559,0.053692192,-0.026646247,0.037837673,17,44,-24,-20,53
1693677868261965800,1.029506683,-0.858321309,10.24359226,-0.061019909,-0.000399694,-0.007594181,-26,36,87,10,-13,-0.106541976,2.41335535,10.21246719,0.053692192,-0.026646247,0.037837673,17,34,-24,-26,54
1693677868262965800,1.031900883,-0.860715508,10.24359226,-0.06115314,-0.000399694,-0.007727412,-32,35,84,8,-14,-0.104147777,2.412158251,10.20767879,0.053558957,-0.026513018,0.037704438,14,35,-24,-20,50
1693677868263965800,1.030703783,-0.859518409,10.24000072,-0.06115314,-0.000399694,-0.007727412,-24,39,86,5,-13,-0.106541976,2.41455245,10.20887566,0.053825419,-0.026513018,0.037837673,22,45,-23,-20,51
1693677868330460300,1.035492182,-0.860715508,10.24718285,-0.061419602,-0.000266462,-0.007993874,-18,42,88,13,-3,-0.099359371,2.408566952,10.21007347,0.053958651,-0.027312404,0.038237367,15,41,-16,-22,51
1693677868331460300,1.036689281,-0.859518409,10.24478912,-0.061419602,-0.000133231,-0.007993874,-22,48,93,12,-9,-0.098162271,2.407369852,10.20887566,0.053692192,-0.027312404,0.038104136,15,45,-28,-22,54
1693677868332460300,1.036689281,-0.85592711,10.24838066,-0.061419602,-0.000266462,-0.007993874,-39,43,84,7,-5,-0.10175357,2.407369852,10.21007347,0.053692192,-0.027179174,0.038237367,7,37,-23,-15,48
1693677868333460300,1.037886381,-0.85592711,10.25077438,-0.061286367,-0.000399694,-0.007993874,-27,45,83,10,-9,-0.104147777,2.407369852,10.21007347,0.053692192,-0.027045943,0.038104136,20,35,-17,-16,54
1693677868334460300,1.036689281,-0.85473001,10.25316906,-0.061286367,-0.000399694,-0.008127105,-26,45,83,6,-5,-0.10295067,2.407369852,10.21246719,0.053558957,-0.02691271,0.038237367,20,39,-20,-23,55
1693677868379778000,1.025915384,-0.841561913,10.24119759,-0.06115314,-0.000932619,-0.007993874,-20,46,84,12,-7,-0.10295067,2.412158251,10.21366405,0.053825419,-0.026779478,0.037970904,16,31,-21,-19,55
1693677868380778000,1.025915384,-0.841561913,10.24359226,-0.06115314,-0.000932619,-0.007860643,-28,45,89,7,-12,-0.104147777,2.410961151,10.21725559,0.053692192,-0.026779478,0.037837673,14,36,-21,-24,51
1693677868381778000,1.024718285,-0.843956113,10.24239445,-0.061419602,-0.000932619,-0.007860643,-23,42,80,12,-8,-0.104147777,2.41335535,10.21366405,0.053558957,-0.026646247,0.037970904,19,40,-24,-24,55
1693677868382778000,1.022324085,-0.842759013,10.24359226,-0.061286367,-0.000932619,-0.007860643,-24,39,85,12,-13,-0.105344877,2.41574955,10.21486187,0.053558957,-0.026646247,0.037970904,19,42,-27,-23,53
1693677868383778000,1.024718285,-0.843956113,10.24239445,-0.06115314,-0.000932619,-0.007860643,-24,42,86,9,-7,-0.105344877,2.41455245,10.21845245,0.053425729,-0.026513018,0.037837673,19,38,-19,-23,52
1693677868503507200,1.023521185,-0.857124209,10.24000072,-0.061286367,-0.000666156,-0.007993874,-20,38,87,8,-6,-0.106541976,2.410961151,10.23162079,0.053558957,-0.026779478,0.037437979,14,34,-23,-22,53
1693677868504507200,1.023521185,-0.857124209,10.24119759,-0.061286367,-0.000799387,-0.007993874,-19,41,87,8,-13,-0.106541976,2.410961151,10.23521233,0.053558957,-0.027179174,0.03757121,15,42,-29,-23,50
1693677868505507200,1.027112484,-0.858321309,10.24000072,-0.061286367,-0.000799387,-0.007727412,-24,46,87,2,-11,-0.108936176,2.412158251,10.24359226,0.053558957,-0.027179174,0.037704438,16,37,-25,-28,55
1693677868506507200,1.028309584,-0.85473001,10.24000072,-0.061286367,-0.000932619,-0.007727412,-23,39,89,10,-12,-0.107739076,2.412158251,10.24598598,0.053558957,-0.027312404,0.037704438,19,39,-23,-18,55
1693677868507507200,1.029506683,-0.85473001,10.24478912,-0.061419602,-0.000799387,-0.007727412,-23,44,87,13,-5,-0.105344877,2.41335535,10.24119759,0.053692192,-0.027712099,0.037704438,20,39,-17,-20,55
1693677868545458400,1.024718285,-0.846350312,10.23880386,-0.061419602,-0.001332312,-0.008393568,-25,48,84,10,-9,-0.093373865,2.410961151,10.24239445,0.053425729,-0.027179174,0.03757121,15,44,-24,-20,48
1693677868546458400,1.024718285,-0.845153213,10.23162079,-0.061286367,-0.001465544,-0.008260337,-20,46,81,12,-8,-0.095768064,2.412158251,10.23880386,0.053558957,-0.027045943,0.037704438,20,37,-25,-22,48
1693677868547458400,1.027112484,-0.843956113,10.22922707,-0.06115314,-0.001332312,-0.008260337,-26,36,89,13,-8,-0.095768064,2.410961151,10.23401546,0.053558957,-0.027045943,0.03757121,20,40,-28,-24,52
1693677868548458400,1.029506683,-0.848744512,10.22922707,-0.06115314,-0.001199081,-0.008127105,-22,47,90,13,-7,-0.094570965,2.409764051,10.23401546,0.053692192,-0.027045943,0.037704438,10,36,-21,-16,55
1693677868549458400,1.025915384,-0.849941611,10.22802925,-0.06115314,-0.00106585,-0.008127105,-22,32,89,13,-7,-0.093373865,2.407369852,10.23880386,0.053692192,-0.027312404,0.037704438,16,40,-23,-30,54
1693677868676106000,1.035492182,-0.85353291,10.23880386,-0.061286367,-0.000532925,-0.007993874,-22,45,84,7,-7,-0.113724582,2.409764051,10.21605873,0.053692192,-0.02691271,0.037837673,17,32,-25,-28,46
1693677868677106000,1.036689281,-0.85473001,10.24239445,-0.061286367,-0.000532925,-0.007993874,-16,39,86,10,-12,-0.114921682,2.409764051,10.21725559,0.053692192,-0.026779478,0.037704438,20,46,-19,-27,54
1693677868678106000,1.035492182,-0.852335811,10.23880386,-0.06115314,-0.000532925,-0.008127105,-20,43,87,0,-5,-0.112527482,2.412158251,10.21965027,0.053692192,-0.026779478,0.037837673,19,40,-18,-20,52
1693677868679106000,1.033097982,-0.846350312,10.23521233,-0.061286367,-0.000399694,-0.008127105,-22,46,87,13,-6,-0.111330383,2.41455245,10.22204399,0.053692192,-0.026646247,0.037837673,20,36,-21,-19,56
1693677868680106000,1.031900883,-0.847547412,10.23281765,-0.06115314,-0.000399694,-0.007993874,-18,52,91,13,-3,-0.110133275,2.41455245,10.22443867,0.053558957,-0.026513018,0.037704438,13,36,-28,-22,39
1693677868736069600,1.022324085,-0.851138711,10.23640919,-0.06115314,-0.000266462,-0.007860643,-26,45,87,12,-6,-0.10175357,2.421735048,10.23521233,0.053825419,-0.026646247,0.037704438,13,36,-17,-20,49
1693677868737069600,1.019929886,-0.849941611,10.23640919,-0.06115314,-0.000532925,-0.007860643,-27,31,84,11,-8,-0.10175357,2.419340849,10.23401546,0.053825419,-0.02691271,0.037837673,20,39,-18,-18,55
1693677868738069600,1.024718285,-0.848744512,10.23640919,-0.06115314,-0.000666156,-0.007993874,-22,45,90,12,-9,-0.10175357,2.418143749,10.23401546,0.053692192,-0.027045943,0.037837673,21,41,-16,-20,54
1693677868739069600,1.024718285,-0.847547412,10.23521233,-0.061019909,-0.000666156,-0.007860643,-19,47,90,10,-8,-0.10055647,2.418143749,10.23521233,0.053825419,-0.02691271,0.037837673,5,46,-20,-18,50
1693677868740069600,1.024718285,-0.847547412,10.23521233,-0.06115314,-0.000399694,-0.007993874,-20,46,90,8,-9,-0.098162271,2.419340849,10.23640919,0.053958651,-0.02691271,0.037704438,14,43,-25,-22,55
1693677868770048800,1.035492182,-0.849941611,10.24598598,-0.061419602,-0.000666156,-0.008127105,-30,31,85,10,-11,-0.110133275,2.41335535,10.22084713,0.053825419,-0.027045943,0.038104136,20,46,-25,-19,54
1693677868771048800,1.035492182,-0.851138711,10.24957752,-0.061419602,-0.000799387,-0.008127105,-27,49,81,9,-7,-0.111330383,2.41335535,10.22683239,0.053692192,-0.027179174,0.037970904,20,40,-17,-24,53
1693677868772048800,1.031900883,-0.85473001,10.25197124,-0.061552834,-0.000799387,-0.008127105,-27,43,96,19,-18,-0.108936176,2.41574955,10.23042393,0.053692192,-0.027179174,0.037837673,17,41,-19,-14,68
1693677868773048800,1.030703783,-0.852335811,10.24957752,-0.061686065,-0.000666156,-0.008127105,-17,42,87,11,-9,-0.108936176,2.418143749,10.23281765,0.053558957,-0.027312404,0.037837673,15,41,-20,-19,53
1693677868774048800,1.029506683,-0.851138711,10.24478912,-0.061686065,-0.000532925,-0.008260337,-23,55,90,9,-9,-0.108936176,2.41574955,10.22802925,0.053558957,-0.027045943,0.037837673,18,36,-22,-22,50
1693677868807028100,1.028309584,-0.858321309,10.23760605,-0.061419602,0.0,-0.007993874,-20,42,90,6,-9,-0.112527482,2.409764051,10.23521233,0.053026035,-0.026246555,0.037704438,19,40,-24,-23,64
1693677868808028100,1.025915384,-0.863109708,10.23640919,-0.061552834,0.0,-0.007993874,-24,46,87,13,-7,-0.111330383,2.410961151,10.24000072,0.0528928,-0.026113322,0.037704438,20,41,-23,-19,42
1693677868809028100,1.025915384,-0.864306808,10.23760605,-0.061686065,-0.000133231,-0.007993874,-29,43,85,13,-11,-0.112527482,2.412158251,10.23880386,0.0528928,-0.026246555,0.037704438,20,41,-23,-20,54
1693677868810028100,1.025915384,-0.861912608,10.24000072,-0.061686065,-0.000133231,-0.008127105,-18,50,85,13,-5,-0.112527482,2.412158251,10.23640919,0.0528928,-0.026246555,0.037837673,19,40,-22,-19,49
1693677868811028100,1.027112484,-0.863109708,10.24239445,-0.061819296,-0.000133231,-0.008127105,-21,50,90,11,-5,-0.111330383,2.41335535,10.23760605,0.0528928,-0.025980091,0.037704438,17,36,-29,-22,52
1693677868870494300,1.025915384,-0.859518409,10.23640919,-0.061819296,0.000799387,-0.007860643,-24,43,77,2,-11,-0.114921682,2.418143749,10.23042393,0.0528928,-0.024381317,0.036905054,16,37,-21,-24,55
1693677868871494300,1.024718285,-0.857124209,10.23521233,-0.061686065,0.000799387,-0.007594181,-16,44,88,11,-6,-0.113724582,2.41694665,10.22802925,0.052759573,-0.024647778,0.037038282,20,43,-17,-18,55
1693677868872494300,1.028309584,-0.85353291,10.24000072,-0.061686065,0.000799387,-0.007460949,-24,43,89,9,-8,-0.112527482,2.41694665,10.22802925,0.052759573,-0.024514547,0.036905054,17,39,-21,-20,50
1693677868873494300,1.023521185,-0.85353291,10.24000072,-0.061552834,0.000932619,-0.007460949,-20,49,90,8,-7,-0.113724582,2.41455245,10.22563553,0.052626338,-0.024514547,0.036905054,13,37,-29,-22,52
1693677868874494300,1.022324085,-0.857124209,10.24359226,-0.061552834,0.00106585,-0.007460949,-23,51,87,13,-9,-0.114921682,2.410961151,10.22324085,0.052626338,-0.024514547,0.037038282,19,37,-19,-23,49
1693677868936668700,1.022324085,-0.859518409,10.24359226,-0.061419602,0.001465544,-0.008393568,-31,38,83,11,-8,-0.122104287,2.41455245,10.20049667,0.05249311,-0.025846859,0.037704438,15,37,-27,-20,53
1693677868937668700,1.019929886,-0.859518409,10.24359226,-0.061419602,0.001465544,-0.008393568,-24,43,88,12,-7,-0.120907187,2.410961151,10.20049667,0.053026035,-0.026113322,0.037437979,16,43,-34,-23,55
1693677868938668700,1.022324085,-0.858321309,10.24478912,-0.061552834,0.001465544,-0.008260337,-20,43,83,12,-9,-0.117315881,2.407369852,10.21127033,0.053692192,-0.02571363,0.037437979,17,45,-21,-21,55
1693677868939668700,1.022324085,-0.85473001,10.24718285,-0.061552834,0.001465544,-0.008127105,-20,45,89,8,-7,-0.112527482,2.409764051,10.21605873,0.053159267,-0.025447167,0.037704438,19,41,-28,-21,53
1693677868940668700,1.021126986,-0.851138711,10.24838066,-0.061686065,0.001332312,-0.008127105,-26,45,87,7,-9,-0.113724582,2.408566952,10.21366405,0.05249311,-0.025580399,0.037837673,17,42,-18,-21,50
1693677869022515100,1.019929886,-0.849941611,10.24478912,-0.061686065,0.000532925,-0.007860643,-19,50,84,8,-6,-0.114921682,2.41694665,10.20887566,0.053558957,-0.026379786,0.037304748,20,40,-17,-23,53
1693677869023515100,1.023521185,-0.85473001,10.24478912,-0.061552834,0.000399694,-0.007727412,-17,45,88,7,-8,-0.112527482,2.41455245,10.20887566,0.053425729,-0.026113322,0.037304748,20,32,-20,-24,55
1693677869024515100,1.022324085,-0.857124209,10.24359226,-0.061552834,0.000133231,-0.007860643,-22,42,84,9,-3,-0.112527482,2.412158251,10.20648193,0.053159267,-0.025980091,0.037437979,19,41,-23,-23,55
1693677869025515100,1.017535686,-0.85592711,10.24598598,-0.06115314,0.000266462,-0.007993874,-23,41,88,14,-7,-0.113724582,2.409764051,10.20767879,0.053159267,-0.026113322,0.037437979,13,39,-17,-23,52
1693677869026515100,1.017535686,-0.857124209,10.24478912,-0.06115314,0.000532925,-0.008260337,-27,46,89,12,-7,-0.112527482,2.408566952,10.20648193,0.053159267,-0.026113322,0.037437979,20,41,-21,-20,53
1693677869057473800,1.025915384,-0.85353291,10.24478912,-0.061286367,-0.000666156,-0.008660031,-22,42,80,13,-8,-0.107739076,2.408566952,10.22563553,0.053692192,-0.027578866,0.038104136,22,41,-27,-20,55
1693677869058473800,1.027112484,-0.851138711,10.24838066,-0.061286367,-0.000666156,-0.008526799,-30,39,83,13,-7,-0.104147777,2.409764051,10.22563553,0.053558957,-0.027445635,0.038104136,20,37,-24,-22,48
1693677869059473800,1.027112484,-0.851138711,10.24478912,-0.06115314,-0.000532925,-0.008526799,-20,45,90,13,-7,-0.106541976,2.409764051,10.22563553,0.053558957,-0.027312404,0.037837673,18,33,-24,-20,45
