,timestamp,left_data_Ac_X,left_data_Ac_Y,left_data_Ac_Z,left_data_Gy_X,left_data_Gy_Y,left_data_Gy_Z,left_data_flex_1,left_data_flex_2,left_data_flex_3,left_data_flex_4,left_data_flex_5
0,1693677649472008600,1.024718285,-0.85473001,10.26873112,-0.062885143,-0.001332312,-0.008793262,-18,42,83,11,-2
1,1693677649473008600,1.029506683,-0.85473001,10.26633644,-0.062885143,-0.001332312,-0.008793262,-23,42,83,13,-13
2,1693677649474008600,1.027112484,-0.85473001,10.26394272,-0.062751912,-0.001465544,-0.008926493,-20,46,87,13,-4
3,1693677649475008600,1.025915384,-0.85353291,10.26633644,-0.06261868,-0.001465544,-0.008793262,-19,48,93,13,-4
4,1693677649476008600,1.024718285,-0.85353291,10.26274586,-0.06261868,-0.001465544,-0.008926493,-20,43,90,11,-5
0,1693677649503991000,1.028309584,-0.847547412,10.26992798,-0.062751912,-0.001732006,-0.009192956,-20,43,90,13,-13
1,1693677649504991000,1.031900883,-0.843956113,10.27112484,-0.062751912,-0.001865237,-0.009192956,-16,50,85,10,-5
2,1693677649505991000,1.033097982,-0.841561913,10.27351952,-0.062751912,-0.001865237,-0.009059724,-20,51,88,13,-3
3,1693677649506991000,1.031900883,-0.839167714,10.27711105,-0.06261868,-0.001865237,-0.008926493,-12,49,89,10,-4
4,1693677649507991000,1.031900883,-0.839167714,10.27351952,-0.062485453,-0.001732006,-0.009059724,-24,52,90,13,-7
0,1693677649525980300,1.025915384,-0.85353291,10.26633644,-0.062485453,-0.001865237,-0.008926493,-27,46,90,10,-9
1,1693677649526980300,1.024718285,-0.85353291,10.26753426,-0.062352221,-0.001865237,-0.008926493,-18,42,88,10,-5
2,1693677649527980300,1.021126986,-0.851138711,10.26633644,-0.062352221,-0.0021317,-0.008926493,-8,53,91,12,-2
3,1693677649528980300,1.017535686,-0.851138711,10.26513958,-0.062352221,-0.001998469,-0.008926493,-18,57,91,14,-3
4,1693677649529980300,1.019929886,-0.849941611,10.26035118,-0.062352221,-0.001998469,-0.008926493,-20,46,90,8,-4
0,1693677649543967100,1.022324085,-0.857124209,10.28429317,-0.062751912,-0.0021317,-0.008393568,-1,64,90,11,-5
1,1693677649544967100,1.022324085,-0.85592711,10.27711105,-0.062751912,-0.001998469,-0.008526799,-18,49,84,13,-5
2,1693677649545967100,1.022324085,-0.85353291,10.27591324,-0.062751912,-0.001865237,-0.008526799,-18,43,89,13,0
3,1693677649546967100,1.019929886,-0.852335811,10.27591324,-0.062751912,-0.001865237,-0.008526799,-19,51,90,11,-5
4,1693677649547967100,1.019929886,-0.85353291,10.27711105,-0.06261868,-0.001865237,-0.008526799,-18,49,90,9,-5
0,1693677649561957000,1.022324085,-0.85473001,10.26992798,-0.062352221,-0.001865237,-0.008526799,-3,64,89,14,-3
1,1693677649562957000,1.022324085,-0.85353291,10.26753426,-0.062485453,-0.001865237,-0.008526799,-22,43,95,13,-4
2,1693677649563957000,1.022324085,-0.857124209,10.27112484,-0.062485453,-0.001865237,-0.008660031,-20,50,90,13,-2
3,1693677649564957000,1.022324085,-0.857124209,10.27112484,-0.06261868,-0.001998469,-0.008526799,-21,45,88,10,-4
4,1693677649565957000,1.022324085,-0.85473001,10.27351952,-0.06261868,-0.001998469,-0.008660031,-20,45,88,11,-8
0,1693677649578948800,1.023521185,-0.852335811,10.26035118,-0.062218986,-0.001865237,-0.008526799,-27,43,88,4,-7
1,1693677649579948800,1.024718285,-0.851138711,10.25915432,-0.062085759,-0.001865237,-0.008526799,-20,50,90,14,-6
2,1693677649580948800,1.025915384,-0.851138711,10.25436592,-0.062218986,-0.001865237,-0.008393568,-18,42,76,3,-5
3,1693677649581948800,1.025915384,-0.852335811,10.24838066,-0.062218986,-0.001732006,-0.008526799,-32,39,87,6,-12
4,1693677649582948800,1.027112484,-0.849941611,10.24598598,-0.062218986,-0.001598775,-0.008660031,-18,42,83,11,-12
0,1693677649595938800,1.021126986,-0.859518409,10.27112484,-0.062352221,-0.001732006,-0.008793262,-33,42,85,10,-5
1,1693677649596938800,1.019929886,-0.859518409,10.26753426,-0.062352221,-0.001865237,-0.008660031,-23,42,90,12,-7
2,1693677649597938800,1.018732786,-0.858321309,10.26753426,-0.062485453,-0.001732006,-0.008926493,-27,41,88,9,-8
3,1693677649598938800,1.018732786,-0.863109708,10.26992798,-0.062485453,-0.001732006,-0.008926493,-18,38,87,10,-13
4,1693677649599938800,1.019929886,-0.863109708,10.27112484,-0.062485453,-0.001732006,-0.008660031,-27,41,91,9,-7
0,1693677649611931500,1.029506683,-0.846350312,10.27591324,-0.062352221,-0.001732006,-0.008793262,-16,39,88,13,-4
1,1693677649612931500,1.025915384,-0.846350312,10.27112484,-0.062352221,-0.001732006,-0.008926493,-24,43,85,11,-10
2,1693677649613931500,1.027112484,-0.851138711,10.27351952,-0.062218986,-0.001732006,-0.008926493,-32,38,94,26,4
3,1693677649614931500,1.027112484,-0.852335811,10.26873112,-0.062352221,-0.001598775,-0.008926493,-29,36,83,0,-12
4,1693677649615931500,1.024718285,-0.852335811,10.26873112,-0.062218986,-0.001598775,-0.008660031,-18,42,90,10,-11
0,1693677649630918000,1.024718285,-0.860715508,10.26992798,-0.061819296,-0.001732006,-0.009059724,-26,45,90,10,-7
1,1693677649631918000,1.028309584,-0.861912608,10.26633644,-0.061952524,-0.001732006,-0.008926493,-27,41,90,6,-12
2,1693677649632918000,1.027112484,-0.859518409,10.26992798,-0.061819296,-0.001732006,-0.008926493,-22,43,85,10,-9
3,1693677649633918000,1.028309584,-0.857124209,10.26873112,-0.062085759,-0.001732006,-0.008793262,-14,64,80,4,-9
4,1693677649634918000,1.022324085,-0.858321309,10.27232265,-0.062085759,-0.001865237,-0.008926493,-27,41,88,9,-8
0,1693677649647909600,1.018732786,-0.852335811,10.27232265,-0.062485453,-0.001732006,-0.008660031,-21,35,88,2,-3
1,1693677649648909600,1.018732786,-0.85592711,10.27232265,-0.062352221,-0.001732006,-0.008526799,-28,47,84,7,-9
2,1693677649649909600,1.015141487,-0.85353291,10.26873112,-0.062352221,-0.001598775,-0.008526799,-34,41,86,8,-8
3,1693677649650909600,1.015141487,-0.85473001,10.27112484,-0.062352221,-0.001598775,-0.008793262,-16,46,87,8,-7
4,1693677649651909600,1.017535686,-0.852335811,10.27112484,-0.062218986,-0.001732006,-0.008793262,-24,49,88,9,-5
0,1693677649661899600,1.018732786,-0.848744512,10.26154804,-0.062352221,-0.001865237,-0.009059724,-28,43,85,13,-11
1,1693677649662899600,1.019929886,-0.851138711,10.26035118,-0.062218986,-0.001998469,-0.009059724,-31,39,79,11,-12
2,1693677649663899600,1.017535686,-0.85473001,10.25915432,-0.062352221,-0.001998469,-0.009059724,-24,46,85,7,-8
3,1693677649664899600,1.018732786,-0.85592711,10.26035118,-0.062352221,-0.001998469,-0.009192956,-20,39,85,4,-9
4,1693677649665899600,1.021126986,-0.85473001,10.25915432,-0.062352221,-0.001865237,-0.009059724,-23,43,88,13,-8
0,1693677649677890500,1.035492182,-0.85353291,10.27112484,-0.062085759,-0.001998469,-0.008660031,-29,43,88,9,-5
1,1693677649678890500,1.035492182,-0.85473001,10.26992798,-0.062085759,-0.002264931,-0.008660031,-19,44,88,8,-9
2,1693677649679890500,1.035492182,-0.852335811,10.26992798,-0.062085759,-0.0021317,-0.008526799,-22,43,87,7,-8
3,1693677649680890500,1.031900883,-0.849941611,10.26992798,-0.062085759,-0.0021317,-0.008526799,-23,44,88,10,-8
4,1693677649681890500,1.029506683,-0.849941611,10.26513958,-0.062218986,-0.001998469,-0.008660031,-18,48,93,2,-11
0,1693677649693881100,1.025915384,-0.843956113,10.26274586,-0.062485453,-0.001598775,-0.008793262,-23,41,88,6,-8
1,1693677649694881100,1.024718285,-0.842759013,10.26633644,-0.062485453,-0.001598775,-0.008793262,-27,43,81,12,-8
2,1693677649695881100,1.024718285,-0.841561913,10.27232265,-0.062352221,-0.001732006,-0.008660031,-26,45,80,11,-7
3,1693677649696881100,1.022324085,-0.842759013,10.27711105,-0.062485453,-0.001865237,-0.008660031,-24,41,83,7,-9
4,1693677649697881100,1.021126986,-0.842759013,10.26992798,-0.062352221,-0.001732006,-0.008660031,-24,38,88,6,-9
0,1693677649708873500,1.028309584,-0.852335811,10.26513958,-0.062751912,-0.001732006,-0.008660031,-21,39,87,12,-12
1,1693677649709873500,1.028309584,-0.85353291,10.25675964,-0.063018374,-0.001732006,-0.008660031,-28,39,83,7,-9
2,1693677649710873500,1.027112484,-0.857124209,10.26035118,-0.062751912,-0.001865237,-0.008526799,-22,44,80,10,-7
3,1693677649711873500,1.030703783,-0.85473001,10.25795746,-0.062885143,-0.001732006,-0.008526799,-1,68,89,6,-7
4,1693677649712873500,1.030703783,-0.85353291,10.25795746,-0.062885143,-0.001598775,-0.008526799,-24,48,90,12,-6
0,1693677649724863800,1.030703783,-0.845153213,10.25795746,-0.062485453,-0.001465544,-0.008260337,-23,31,81,2,-17
1,1693677649725863800,1.030703783,-0.846350312,10.25436592,-0.062485453,-0.001465544,-0.008260337,-27,43,86,13,-8
2,1693677649726863800,1.030703783,-0.848744512,10.25795746,-0.062352221,-0.001465544,-0.008260337,-23,42,85,13,-7
3,1693677649727863800,1.028309584,-0.851138711,10.25556278,-0.062352221,-0.001332312,-0.008393568,-19,37,89,13,-5
4,1693677649728863800,1.029506683,-0.849941611,10.25675964,-0.062485453,-0.001332312,-0.008526799,-30,41,88,13,-7
0,1693677649741854100,1.027112484,-0.85353291,10.27471638,-0.062751912,-0.001865237,-0.009059724,-23,39,90,6,-7
1,1693677649742854100,1.028309584,-0.85353291,10.27591324,-0.062885143,-0.001865237,-0.008926493,-20,39,79,11,-11
2,1693677649743854100,1.024718285,-0.852335811,10.27351952,-0.062885143,-0.001732006,-0.008926493,-24,45,91,12,-5
3,1693677649744854100,1.024718285,-0.851138711,10.26992798,-0.062751912,-0.001732006,-0.008926493,-22,45,86,8,-7
4,1693677649745854100,1.024718285,-0.85353291,10.26873112,-0.062885143,-0.001865237,-0.008926493,-28,43,85,7,-7
0,1693677649758847000,1.023521185,-0.85353291,10.27830791,-0.062751912,-0.001865237,-0.008526799,-20,41,88,-2,-12
1,1693677649759847000,1.021126986,-0.85592711,10.27471638,-0.06261868,-0.001865237,-0.008526799,-23,43,90,12,-4
2,1693677649760847000,1.021126986,-0.859518409,10.27711105,-0.062751912,-0.001732006,-0.008526799,-20,36,87,10,-5
3,1693677649761847000,1.021126986,-0.859518409,10.27950478,-0.062885143,-0.001865237,-0.008393568,-24,33,84,4,-8
4,1693677649762847000,1.024718285,-0.858321309,10.28070164,-0.062885143,-0.001732006,-0.008526799,-26,43,88,8,-7
0,1693677649774858100,1.033097982,-0.85473001,10.27112484,-0.062085759,-0.001598775,-0.008793262,-24,39,86,13,-9
1,1693677649775858100,1.029506683,-0.85353291,10.27112484,-0.062085759,-0.001598775,-0.008926493,-24,44,90,8,-7
2,1693677649776858100,1.028309584,-0.857124209,10.26753426,-0.062218986,-0.001598775,-0.009192956,-27,41,88,8,-9
3,1693677649777858100,1.031900883,-0.858321309,10.26633644,-0.062085759,-0.001598775,-0.008926493,-24,39,81,12,-11
4,1693677649778858100,1.031900883,-0.857124209,10.26513958,-0.062085759,-0.001465544,-0.008926493,-27,38,76,11,-9
0,1693677649798824300,1.023521185,-0.840364814,10.27471638,-0.062485453,-0.001998469,-0.008526799,-20,41,87,13,-7
1,1693677649799824300,1.023521185,-0.843956113,10.27471638,-0.062485453,-0.001998469,-0.008660031,-27,42,89,9,-5
2,1693677649800824300,1.024718285,-0.842759013,10.27711105,-0.062485453,-0.001865237,-0.008660031,-23,34,89,11,-7
3,1693677649801824300,1.025915384,-0.845153213,10.27591324,-0.06261868,-0.001998469,-0.008526799,-16,43,85,7,-11
4,1693677649802824300,1.028309584,-0.845153213,10.27471638,-0.06261868,-0.001998469,-0.008660031,-25,41,83,8,-9
0,1693677649819809400,1.021126986,-0.847547412,10.26873112,-0.062485453,-0.001732006,-0.008793262,-27,43,89,8,-8
1,1693677649820809400,1.022324085,-0.849941611,10.26513958,-0.06261868,-0.001732006,-0.008660031,-27,51,89,6,-11
2,1693677649821809400,1.022324085,-0.851138711,10.26513958,-0.062485453,-0.001732006,-0.008660031,-20,43,90,9,-9
3,1693677649822809400,1.021126986,-0.845153213,10.26035118,-0.062485453,-0.001598775,-0.008660031,-24,42,84,12,-9
4,1693677649823809400,1.022324085,-0.847547412,10.25915432,-0.062485453,-0.001732006,-0.008660031,-23,44,86,8,-12
0,1693677649838798000,1.022324085,-0.858321309,10.25197124,-0.062485453,-0.001998469,-0.009326187,-22,47,89,10,-5
1,1693677649839798000,1.028309584,-0.85353291,10.25556278,-0.062352221,-0.001998469,-0.009326187,-23,46,85,11,-13
2,1693677649840798000,1.028309584,-0.852335811,10.25436592,-0.062485453,-0.001998469,-0.009059724,-30,43,87,7,-10
3,1693677649841798000,1.027112484,-0.849941611,10.25077438,-0.062485453,-0.0021317,-0.009059724,-30,35,85,8,-13
4,1693677649842798000,1.028309584,-0.852335811,10.24718285,-0.062485453,-0.001865237,-0.008926493,-25,42,84,10,-8
0,1693677649855813200,1.019929886,-0.848744512,10.27232265,-0.062085759,-0.001598775,-0.008926493,-22,51,88,3,-4
1,1693677649856813200,1.022324085,-0.847547412,10.27351952,-0.062085759,-0.001732006,-0.008660031,-23,41,83,7,-11
2,1693677649857813200,1.022324085,-0.851138711,10.27351952,-0.062085759,-0.001598775,-0.008660031,-21,41,87,13,-7
3,1693677649858813200,1.022324085,-0.852335811,10.27112484,-0.062085759,-0.001598775,-0.008793262,-23,46,87,11,-9
4,1693677649859813200,1.023521185,-0.849941611,10.27112484,-0.062218986,-0.001465544,-0.008926493,-23,49,84,11,-8
0,1693677650174380900,1.024718285,-0.845153213,10.26992798,-0.062218986,-0.001465544,-0.008393568,-26,41,79,8,-15
1,1693677650175380900,1.022324085,-0.848744512,10.26753426,-0.062218986,-0.001598775,-0.008393568,-26,44,85,7,-9
2,1693677650176380900,1.023521185,-0.851138711,10.26513958,-0.062218986,-0.001465544,-0.008393568,-28,41,85,8,-9
3,1693677650177380900,1.024718285,-0.849941611,10.26154804,-0.062218986,-0.001332312,-0.008393568,-21,41,88,13,-7
4,1693677650178380900,1.025915384,-0.852335811,10.26633644,-0.062218986,-0.001199081,-0.008393568,-20,35,85,8,-12
0,1693677650193373900,1.025915384,-0.841561913,10.26633644,-0.062218986,-0.001598775,-0.008660031,-28,38,90,11,-9
1,1693677650194373900,1.021126986,-0.842759013,10.26513958,-0.062218986,-0.001732006,-0.008660031,-26,40,86,9,-5
2,1693677650195373900,1.023521185,-0.841561913,10.26394272,-0.062218986,-0.001598775,-0.008793262,-23,42,81,12,-7
3,1693677650196373900,1.023521185,-0.841561913,10.26154804,-0.062218986,-0.001465544,-0.008793262,-16,37,89,11,4
4,1693677650197373900,1.023521185,-0.842759013,10.26035118,-0.062218986,-0.001465544,-0.008660031,-30,46,84,10,-9
0,1693677650213363100,1.024718285,-0.846350312,10.27112484,-0.06261868,-0.001865237,-0.008660031,-22,45,76,6,-12
1,1693677650214363100,1.027112484,-0.846350312,10.27351952,-0.062485453,-0.001865237,-0.008660031,-27,45,84,7,-9
2,1693677650215363100,1.027112484,-0.846350312,10.27112484,-0.06261868,-0.001865237,-0.008660031,-21,47,90,10,-4
3,1693677650216363100,1.030703783,-0.847547412,10.27112484,-0.062485453,-0.001865237,-0.008793262,-26,47,86,-12,-9
4,1693677650217363100,1.034295082,-0.851138711,10.26992798,-0.06261868,-0.001865237,-0.008793262,-23,42,90,4,-5
0,1693677650232352100,1.022324085,-0.849941611,10.26873112,-0.06261868,-0.001465544,-0.008793262,-28,39,88,7,-7
1,1693677650233352100,1.023521185,-0.851138711,10.26753426,-0.06261868,-0.001465544,-0.008793262,-23,41,87,8,-8
2,1693677650234352100,1.023521185,-0.849941611,10.26753426,-0.06261868,-0.001465544,-0.008793262,-19,43,86,10,-7
3,1693677650235352100,1.021126986,-0.851138711,10.26753426,-0.062352221,-0.001199081,-0.008793262,-24,39,87,6,-9
4,1693677650236352100,1.021126986,-0.852335811,10.27112484,-0.062352221,-0.001465544,-0.008793262,-28,42,87,13,-8
0,1693677650248342800,1.021126986,-0.849941611,10.26035118,-0.06261868,-0.001865237,-0.008526799,-22,45,89,11,-5
1,1693677650249342800,1.021126986,-0.848744512,10.26154804,-0.062751912,-0.001865237,-0.008660031,-27,45,87,13,-15
2,1693677650250342800,1.022324085,-0.848744512,10.26035118,-0.062751912,-0.001998469,-0.008660031,-24,38,86,10,-12
3,1693677650251342800,1.023521185,-0.849941611,10.26513958,-0.062885143,-0.001865237,-0.008526799,-23,38,89,10,-13
4,1693677650252342800,1.022324085,-0.848744512,10.26394272,-0.062885143,-0.001865237,-0.008526799,-32,41,79,10,-14
0,1693677650266332300,1.019929886,-0.852335811,10.26753426,-0.062751912,-0.001998469,-0.009326187,-26,43,89,10,-8
1,1693677650267332300,1.022324085,-0.851138711,10.26992798,-0.062885143,-0.001865237,-0.009059724,-22,39,84,13,-3
2,1693677650268332300,1.019929886,-0.849941611,10.26513958,-0.062751912,-0.001998469,-0.008926493,-26,39,90,12,-10
3,1693677650269332300,1.022324085,-0.851138711,10.26274586,-0.062751912,-0.001998469,-0.008793262,-24,46,83,12,-12
4,1693677650270332300,1.022324085,-0.848744512,10.26394272,-0.06261868,-0.0021317,-0.008660031,-28,37,87,8,-13
0,1693677650282322300,1.023521185,-0.85353291,10.26753426,-0.062352221,-0.001332312,-0.008127105,-23,46,89,13,-17
1,1693677650283322300,1.027112484,-0.85473001,10.26992798,-0.062352221,-0.001332312,-0.008260337,-35,46,77,2,-11
2,1693677650284322300,1.025915384,-0.85353291,10.27112484,-0.06261868,-0.001332312,-0.008260337,-30,45,85,12,-7
3,1693677650285322300,1.027112484,-0.851138711,10.26873112,-0.06261868,-0.001598775,-0.008260337,-23,37,75,11,-2
4,1693677650286322300,1.025915384,-0.849941611,10.26753426,-0.062485453,-0.001465544,-0.008393568,-27,36,85,47,-11
0,1693677650298315100,1.027112484,-0.85473001,10.26394272,-0.062352221,-0.0021317,-0.008393568,-21,45,87,11,-8
1,1693677650299315100,1.024718285,-0.85473001,10.26513958,-0.062485453,-0.001998469,-0.008393568,-21,45,87,10,-9
2,1693677650300315100,1.022324085,-0.85353291,10.26513958,-0.062485453,-0.001865237,-0.008260337,-17,42,79,12,-15
3,1693677650301315100,1.023521185,-0.851138711,10.26633644,-0.062751912,-0.001998469,-0.008526799,-26,47,88,10,-9
4,1693677650302315100,1.024718285,-0.851138711,10.26753426,-0.062751912,-0.001865237,-0.008526799,-24,46,88,11,-6
0,1693677650319301700,1.023521185,-0.852335811,10.25915432,-0.062352221,-0.001332312,-0.008526799,-20,42,85,7,-7
1,1693677650320301700,1.024718285,-0.851138711,10.25795746,-0.062218986,-0.001465544,-0.008526799,-23,45,85,8,-9
2,1693677650321301700,1.025915384,-0.852335811,10.25915432,-0.062218986,-0.001465544,-0.008393568,-27,43,70,10,-11
3,1693677650322301700,1.027112484,-0.849941611,10.26035118,-0.062218986,-0.001465544,-0.008393568,-28,39,88,10,-9
4,1693677650323301700,1.030703783,-0.851138711,10.26394272,-0.062218986,-0.001332312,-0.008260337,-23,45,89,8,-12
0,1693677650336293700,1.024718285,-0.85353291,10.26513958,-0.062352221,-0.001465544,-0.008926493,-22,39,89,11,-13
1,1693677650337293700,1.027112484,-0.85353291,10.27232265,-0.062218986,-0.001598775,-0.008926493,-22,39,85,8,-10
2,1693677650338293700,1.029506683,-0.848744512,10.26753426,-0.062218986,-0.001465544,-0.008793262,-20,44,84,8,-5
3,1693677650339293700,1.029506683,-0.846350312,10.26992798,-0.062218986,-0.001598775,-0.008793262,-22,48,88,13,-7
4,1693677650340293700,1.029506683,-0.847547412,10.26873112,-0.062218986,-0.001598775,-0.008926493,-17,45,90,11,-7
0,1693677650352284800,1.015141487,-0.837970614,10.26513958,-0.062352221,-0.001598775,-0.009059724,-24,38,88,4,-5
1,1693677650353284800,1.017535686,-0.836773515,10.26513958,-0.062352221,-0.001598775,-0.009059724,-28,48,83,11,-18
2,1693677650354284800,1.018732786,-0.837970614,10.26513958,-0.062218986,-0.001598775,-0.009059724,-28,41,87,6,-9
3,1693677650355284800,1.018732786,-0.841561913,10.26394272,-0.062352221,-0.001598775,-0.009059724,-27,45,85,8,-9
4,1693677650356284800,1.017535686,-0.846350312,10.26753426,-0.062218986,-0.001465544,-0.009059724,-19,47,89,13,-2
0,1693677650368295500,1.021126986,-0.848744512,10.27351952,-0.062485453,-0.001865237,-0.009192956,-23,41,83,10,-12
1,1693677650369295500,1.017535686,-0.847547412,10.27112484,-0.062352221,-0.001732006,-0.009192956,-28,42,84,4,-13
2,1693677650370295500,1.022324085,-0.847547412,10.27112484,-0.062352221,-0.001732006,-0.009192956,-28,45,87,13,-9
3,1693677650371295500,1.025915384,-0.851138711,10.26873112,-0.06261868,-0.001598775,-0.009326187,-24,39,89,8,-5
4,1693677650372295500,1.025915384,-0.851138711,10.26513958,-0.062485453,-0.001598775,-0.009192956,-24,42,83,6,-7
0,1693677650384267700,1.027112484,-0.851138711,10.26633644,-0.06261868,-0.001598775,-0.009059724,-27,40,88,8,-6
1,1693677650385267700,1.025915384,-0.852335811,10.26753426,-0.062485453,-0.001465544,-0.009192956,-28,38,85,-1,-10
2,1693677650386267700,1.025915384,-0.85473001,10.26633644,-0.06261868,-0.001598775,-0.009059724,-24,35,85,13,-12
3,1693677650387267700,1.025915384,-0.85592711,10.26633644,-0.062485453,-0.001732006,-0.009059724,-22,43,88,13,-9
4,1693677650388267700,1.024718285,-0.852335811,10.26633644,-0.062485453,-0.001732006,-0.009059724,-15,47,90,13,-6
0,1693677650401277400,1.024718285,-0.857124209,10.26633644,-0.062085759,-0.001732006,-0.008393568,-20,46,89,14,-5
1,1693677650402277400,1.021126986,-0.85592711,10.25795746,-0.062218986,-0.001598775,-0.008526799,-21,49,90,10,-8
2,1693677650403277400,1.022324085,-0.85473001,10.26274586,-0.062218986,-0.001465544,-0.008526799,-19,49,93,10,-8
3,1693677650404277400,1.023521185,-0.857124209,10.26035118,-0.062218986,-0.001465544,-0.008526799,-27,45,90,8,-4
4,1693677650405277400,1.023521185,-0.859518409,10.25795746,-0.062218986,-0.001465544,-0.008393568,-24,53,90,13,-4
0,1693677650418267600,1.027112484,-0.85353291,10.25675964,-0.062085759,-0.001465544,-0.008526799,-17,46,90,12,-9
1,1693677650419267600,1.027112484,-0.85353291,10.25316906,-0.062085759,-0.001332312,-0.008526799,-25,43,83,12,-14
2,1693677650420267600,1.021126986,-0.85473001,10.25795746,-0.062085759,-0.001332312,-0.008393568,-20,44,91,4,-4
3,1693677650421267600,1.021126986,-0.852335811,10.25795746,-0.062085759,-0.001199081,-0.008393568,-20,47,90,11,-7
4,1693677650422267600,1.022324085,-0.851138711,10.26274586,-0.061952524,-0.001332312,-0.008393568,-17,48,85,13,-4
0,1693677650454992500,1.022324085,-0.847547412,10.24359226,-0.062218986,-0.001598775,-0.008926493,-32,32,74,2,-18
1,1693677650455992500,1.023521185,-0.849941611,10.23760605,-0.062218986,-0.001865237,-0.009059724,-33,35,77,-8,-19
2,1693677650456992500,1.024718285,-0.847547412,10.23880386,-0.062085759,-0.001998469,-0.008926493,-32,32,81,-4,-17
3,1693677650457992500,1.027112484,-0.848744512,10.24000072,-0.062085759,-0.001732006,-0.008926493,-20,50,87,14,-8
4,1693677650458992500,1.027112484,-0.849941611,10.24239445,-0.062218986,-0.001598775,-0.009059724,-20,41,90,3,-5
0,1693677650470009900,1.024718285,-0.849941611,10.27112484,-0.062751912,-0.001465544,-0.008660031,-3,54,97,10,-5
1,1693677650471009900,1.024718285,-0.852335811,10.26394272,-0.062751912,-0.001199081,-0.008660031,-23,45,81,10,7
2,1693677650472009900,1.028309584,-0.851138711,10.26154804,-0.062885143,-0.00106585,-0.008526799,-6,67,112,24,14
3,1693677650473009900,1.028309584,-0.851138711,10.26154804,-0.062751912,-0.00106585,-0.008660031,31,78,110,23,-2
4,1693677650474009900,1.029506683,-0.85353291,10.26154804,-0.062885143,-0.00106585,-0.008660031,-15,64,102,18,3
0,1693677650486000900,1.028309584,-0.85473001,10.24838066,-0.062352221,-0.001998469,-0.008926493,-19,43,83,12,-9
1,1693677650487000900,1.025915384,-0.857124209,10.24718285,-0.062352221,-0.001865237,-0.008926493,-1,67,101,38,15
2,1693677650488000900,1.027112484,-0.857124209,10.24598598,-0.062352221,-0.001732006,-0.008793262,-28,37,86,11,-8
3,1693677650489000900,1.031900883,-0.85592711,10.24359226,-0.062352221,-0.001732006,-0.008660031,-27,51,100,24,-11
4,1693677650490000900,1.029506683,-0.85473001,10.24598598,-0.062485453,-0.001732006,-0.008660031,-30,43,80,6,-7
0,1693677650519962800,1.027112484,-0.849941611,10.26394272,-0.062352221,-0.001998469,-0.009192956,-24,44,87,12,-9
1,1693677650520962800,1.024718285,-0.851138711,10.26035118,-0.062352221,-0.001998469,-0.009326187,-33,39,84,13,-4
2,1693677650521962800,1.027112484,-0.85592711,10.26513958,-0.062352221,-0.001998469,-0.009326187,-24,42,87,13,-8
3,1693677650522962800,1.027112484,-0.85473001,10.26274586,-0.062218986,-0.001865237,-0.009192956,-26,37,83,-2,-6
4,1693677650523962800,1.024718285,-0.852335811,10.25915432,-0.062085759,-0.001865237,-0.009192956,-15,41,88,6,-5
0,1693677650546944700,1.024718285,-0.848744512,10.26513958,-0.062352221,-0.001598775,-0.008526799,-30,45,90,12,-12
1,1693677650547944700,1.027112484,-0.849941611,10.26154804,-0.062352221,-0.001598775,-0.008660031,-30,41,85,11,-13
2,1693677650548944700,1.027112484,-0.852335811,10.25795746,-0.06261868,-0.001598775,-0.008660031,-29,42,79,9,-9
3,1693677650549944700,1.022324085,-0.85353291,10.25915432,-0.062485453,-0.001465544,-0.008660031,-28,40,88,2,-9
4,1693677650550944700,1.022324085,-0.851138711,10.26154804,-0.06261868,-0.001465544,-0.008660031,-24,43,90,12,-7
0,1693677650570931000,1.012747288,-0.846350312,10.25077438,-0.062085759,-0.001998469,-0.008127105,-32,43,87,8,-3
1,1693677650571931000,1.013944387,-0.848744512,10.25316906,-0.062085759,-0.002264931,-0.008127105,-20,43,87,6,-7
2,1693677650572931000,1.013944387,-0.845153213,10.24838066,-0.061819296,-0.002264931,-0.008393568,-26,39,86,3,-8
3,1693677650573931000,1.012747288,-0.843956113,10.24838066,-0.061686065,-0.002797856,-0.008393568,-28,38,89,11,-9
4,1693677650574931000,1.015141487,-0.849941611,10.25675964,-0.061552834,-0.002931087,-0.008526799,-26,41,92,11,-7
0,1693677650591917500,1.018732786,-0.85473001,10.26753426,-0.062352221,-0.0021317,-0.008660031,-24,45,90,10,-18
1,1693677650592917500,1.019929886,-0.85473001,10.26394272,-0.062218986,-0.0021317,-0.008793262,-23,45,89,13,-8
2,1693677650593917500,1.022324085,-0.85353291,10.25316906,-0.062218986,-0.001865237,-0.008926493,-24,43,81,6,-12
3,1693677650594917500,1.023521185,-0.85353291,10.25077438,-0.062218986,-0.001598775,-0.008793262,-23,47,90,8,-3
4,1693677650595917500,1.027112484,-0.852335811,10.24957752,-0.062085759,-0.001332312,-0.008926493,-21,46,90,13,-12
0,1693677650608910200,1.024718285,-0.842759013,10.26753426,-0.062352221,-0.001332312,-0.008526799,-16,45,89,11,-7
1,1693677650609910200,1.021126986,-0.846350312,10.26633644,-0.062485453,-0.001598775,-0.008526799,-30,37,83,8,-7
2,1693677650610910200,1.019929886,-0.852335811,10.26035118,-0.062485453,-0.001865237,-0.008526799,-24,41,85,11,-9
3,1693677650611910200,1.022324085,-0.851138711,10.25915432,-0.062218986,-0.001865237,-0.008526799,-24,43,90,8,-9
4,1693677650612910200,1.022324085,-0.851138711,10.25077438,-0.062352221,-0.001998469,-0.008526799,-16,47,90,13,-3
0,1693677650658998200,1.021126986,-0.849941611,10.26992798,-0.062751912,-0.001732006,-0.008793262,-20,42,90,7,-4
1,1693677650659998200,1.023521185,-0.847547412,10.26753426,-0.062751912,-0.001465544,-0.008793262,-26,41,86,0,-15
2,1693677650660998200,1.023521185,-0.845153213,10.26753426,-0.06261868,-0.001598775,-0.008660031,-27,39,89,8,-5
3,1693677650661998200,1.025915384,-0.842759013,10.27112484,-0.06261868,-0.001598775,-0.008793262,-20,43,90,10,-6
4,1693677650662998200,1.023521185,-0.842759013,10.26992798,-0.06261868,-0.001598775,-0.008793262,-19,44,89,12,-5
0,1693677650713416700,1.022324085,-0.851138711,10.25795746,-0.062085759,-0.001865237,-0.008526799,-30,45,85,3,-5
1,1693677650714416700,1.023521185,-0.848744512,10.25915432,-0.062085759,-0.001998469,-0.008526799,-27,43,84,10,-12
2,1693677650715416700,1.018732786,-0.847547412,10.25675964,-0.062085759,-0.0021317,-0.008660031,-20,45,84,10,-8
3,1693677650716416700,1.018732786,-0.845153213,10.25915432,-0.062218986,-0.0021317,-0.008793262,-27,43,85,13,-4
4,1693677650717416700,1.016338587,-0.846350312,10.25795746,-0.062485453,-0.0021317,-0.008793262,-20,51,87,7,-7
0,1693677650827140100,1.021126986,-0.849941611,10.25436592,-0.062218986,-0.0021317,-0.008127105,-24,46,84,3,-14
1,1693677650828140100,1.023521185,-0.848744512,10.25436592,-0.062218986,-0.001998469,-0.008393568,-23,38,84,9,-11
2,1693677650829140100,1.024718285,-0.849941611,10.25436592,-0.062352221,-0.001998469,-0.008260337,-22,41,89,12,-7
3,1693677650830140100,1.023521185,-0.852335811,10.24718285,-0.062352221,-0.001732006,-0.008260337,-23,43,89,13,-8
4,1693677650831140100,1.022324085,-0.851138711,10.24718285,-0.062352221,-0.001732006,-0.008393568,-24,47,89,13,-4
0,1693677650869543400,1.022324085,-0.859518409,10.25556278,-0.062485453,-0.001465544,-0.008793262,-19,37,80,9,-15
1,1693677650870543400,1.023521185,-0.857124209,10.26154804,-0.062485453,-0.001332312,-0.008793262,-24,43,84,13,-7
2,1693677650871543400,1.024718285,-0.859518409,10.26154804,-0.062485453,-0.001332312,-0.008526799,-22,45,89,3,-9
3,1693677650872543400,1.022324085,-0.858321309,10.26154804,-0.062352221,-0.001332312,-0.008526799,-26,42,83,12,-9
4,1693677650873543400,1.025915384,-0.858321309,10.26873112,-0.062218986,-0.001465544,-0.008526799,-24,45,85,10,-9
0,1693677650954016400,1.028309584,-0.847547412,10.25316906,-0.062085759,-0.001732006,-0.008526799,-26,43,89,6,-11
1,1693677650955016400,1.030703783,-0.851138711,10.25675964,-0.062085759,-0.001732006,-0.008393568,-23,38,88,10,-9
2,1693677650956016400,1.029506683,-0.849941611,10.25795746,-0.061952524,-0.001598775,-0.008526799,-11,46,90,10,-7
3,1693677650957016400,1.027112484,-0.852335811,10.26154804,-0.062085759,-0.001598775,-0.008526799,-20,37,88,10,-9
4,1693677650958016400,1.024718285,-0.852335811,10.26274586,-0.061952524,-0.001465544,-0.008526799,-21,41,88,8,-9
0,1693677651027677600,1.021126986,-0.842759013,10.26154804,-0.062352221,-0.001332312,-0.008660031,-25,47,89,12,-8
1,1693677651028677600,1.019929886,-0.841561913,10.26154804,-0.062352221,-0.001332312,-0.008660031,-26,42,87,8,-6
2,1693677651029677600,1.015141487,-0.842759013,10.26154804,-0.062352221,-0.001465544,-0.008660031,-16,44,90,13,-6
3,1693677651030677600,1.017535686,-0.841561913,10.25915432,-0.062352221,-0.001865237,-0.008660031,-30,47,90,11,-7
4,1693677651031677600,1.018732786,-0.841561913,10.25795746,-0.062218986,-0.001865237,-0.008660031,-22,43,85,3,-5
0,1693677651065585400,1.022324085,-0.859518409,10.25556278,-0.06261868,-0.001598775,-0.008393568,-24,42,87,8,-4
1,1693677651066585400,1.022324085,-0.860715508,10.25556278,-0.062485453,-0.001465544,-0.008526799,-18,47,89,13,-5
2,1693677651067585400,1.022324085,-0.859518409,10.25675964,-0.062485453,-0.001465544,-0.008526799,-27,44,91,13,-3
3,1693677651068585400,1.023521185,-0.857124209,10.26394272,-0.062485453,-0.001598775,-0.008393568,-22,46,87,4,-8
4,1693677651069585400,1.019929886,-0.85592711,10.26274586,-0.062485453,-0.001598775,-0.008393568,-27,37,90,10,-9
0,1693677651127072600,1.030703783,-0.852335811,10.27471638,-0.062352221,-0.001998469,-0.008127105,-23,43,90,10,-9
1,1693677651128072600,1.029506683,-0.85473001,10.27351952,-0.062352221,-0.001998469,-0.008127105,-24,47,89,-1,-5
2,1693677651129072600,1.029506683,-0.859518409,10.26633644,-0.062352221,-0.001865237,-0.008393568,-23,48,90,11,-12
3,1693677651130072600,1.028309584,-0.858321309,10.26633644,-0.062352221,-0.001732006,-0.008393568,-24,35,85,8,-12
4,1693677651131072600,1.028309584,-0.857124209,10.26154804,-0.062485453,-0.001865237,-0.008393568,-34,35,89,4,-11
0,1693677651187932800,1.027112484,-0.847547412,10.25197124,-0.062085759,-0.001199081,-0.008393568,-18,48,90,12,-5
1,1693677651188932800,1.027112484,-0.847547412,10.25556278,-0.062218986,-0.001199081,-0.008660031,-23,47,89,13,-2
2,1693677651189932800,1.027112484,-0.848744512,10.25556278,-0.062218986,-0.001199081,-0.008660031,-23,41,85,12,-5
3,1693677651190932800,1.025915384,-0.852335811,10.25436592,-0.062218986,-0.001332312,-0.008660031,-30,41,86,11,-13
4,1693677651191932800,1.024718285,-0.852335811,10.25795746,-0.062352221,-0.00106585,-0.008660031,-37,39,83,9,-11
0,1693677651276045900,1.024718285,-0.845153213,10.26873112,-0.062485453,-0.001199081,-0.008660031,-16,43,85,13,-3
1,1693677651277045900,1.022324085,-0.846350312,10.26873112,-0.062485453,-0.001465544,-0.008660031,-24,35,90,13,-8
2,1693677651278045900,1.022324085,-0.847547412,10.26274586,-0.062485453,-0.001598775,-0.008660031,-24,38,83,13,-7
3,1693677651279045900,1.022324085,-0.843956113,10.26274586,-0.062485453,-0.001465544,-0.008393568,-18,43,85,10,-11
4,1693677651280045900,1.021126986,-0.845153213,10.26513958,-0.06261868,-0.001465544,-0.008393568,-24,42,91,12,-9
0,1693677651335540500,1.031900883,-0.846350312,10.27112484,-0.062485453,-0.001332312,-0.009059724,-22,45,86,10,-12
1,1693677651336540500,1.031900883,-0.847547412,10.26633644,-0.062485453,-0.001332312,-0.009059724,-33,37,89,12,-5
2,1693677651337540500,1.031900883,-0.848744512,10.26753426,-0.062485453,-0.001332312,-0.009059724,-28,41,87,10,-12
3,1693677651338540500,1.031900883,-0.851138711,10.26753426,-0.06261868,-0.001199081,-0.008926493,-19,43,84,9,-8
4,1693677651339540500,1.027112484,-0.848744512,10.27591324,-0.06261868,-0.001332312,-0.008793262,-23,41,85,7,-8
0,1693677651400822200,1.027112484,-0.85592711,10.26154804,-0.06261868,-0.000932619,-0.008393568,-20,37,87,9,-8
1,1693677651401822200,1.025915384,-0.857124209,10.26633644,-0.062485453,-0.000932619,-0.008526799,-24,45,87,6,-7
2,1693677651402822200,1.028309584,-0.85592711,10.26873112,-0.06261868,-0.000932619,-0.008660031,-26,45,89,7,-11
3,1693677651403822200,1.025915384,-0.85592711,10.26753426,-0.062485453,-0.000932619,-0.008660031,-26,46,90,7,-12
4,1693677651404822200,1.023521185,-0.85473001,10.26633644,-0.062352221,-0.00106585,-0.008660031,-20,57,90,12,7
0,1693677651459995800,1.030703783,-0.85353291,10.26394272,-0.062218986,-0.001598775,-0.008526799,-27,48,89,4,-9
1,1693677651460995800,1.028309584,-0.852335811,10.26513958,-0.062218986,-0.001732006,-0.008393568,-22,28,101,7,-4
2,1693677651461995800,1.025915384,-0.85473001,10.25915432,-0.062218986,-0.001732006,-0.008526799,-27,43,85,13,-11
3,1693677651462995800,1.021126986,-0.852335811,10.25556278,-0.062085759,-0.001598775,-0.008526799,-23,47,87,10,-8
4,1693677651463995800,1.018732786,-0.85473001,10.25795746,-0.061952524,-0.001598775,-0.008660031,-34,47,90,16,-3
0,1693677651545501100,1.030703783,-0.847547412,10.27591324,-0.061952524,-0.001598775,-0.008793262,-28,34,81,10,-7
1,1693677651546501100,1.028309584,-0.848744512,10.27351952,-0.061952524,-0.001732006,-0.008793262,-29,45,85,13,-9
2,1693677651547501100,1.029506683,-0.852335811,10.27830791,-0.061819296,-0.001865237,-0.008660031,-23,44,87,13,-7
3,1693677651548501100,1.025915384,-0.852335811,10.27232265,-0.061819296,-0.001865237,-0.008526799,-18,42,90,6,-6
4,1693677651549501100,1.024718285,-0.849941611,10.26873112,-0.061686065,-0.001732006,-0.008660031,-22,46,90,11,-5
0,1693677651611536100,1.022324085,-0.85473001,10.25915432,-0.061952524,-0.002264931,-0.008526799,-27,45,83,10,8
1,1693677651612536100,1.022324085,-0.85473001,10.25316906,-0.061819296,-0.0021317,-0.008526799,-20,37,79,9,-7
2,1693677651613536100,1.022324085,-0.852335811,10.26035118,-0.061952524,-0.0021317,-0.008393568,-20,42,90,12,-7
3,1693677651614536100,1.019929886,-0.852335811,10.26274586,-0.061952524,-0.0021317,-0.008526799,-20,37,93,13,-3
4,1693677651615536100,1.022324085,-0.849941611,10.26394272,-0.062085759,-0.001998469,-0.008393568,-20,39,87,8,-8
0,1693677651667997200,1.021126986,-0.834379315,10.25795746,-0.062352221,-0.001998469,-0.008660031,-30,33,78,-1,-7
1,1693677651668997200,1.022324085,-0.833182216,10.25915432,-0.062218986,-0.001998469,-0.008660031,-20,37,83,5,-7
2,1693677651669997200,1.022324085,-0.833182216,10.26394272,-0.062352221,-0.001998469,-0.008660031,-29,41,89,11,-16
3,1693677651670997200,1.022324085,-0.834379315,10.26274586,-0.062352221,-0.001998469,-0.008793262,-17,49,90,2,1
4,1693677651671997200,1.024718285,-0.837970614,10.26035118,-0.062352221,-0.001865237,-0.008660031,-23,45,83,10,-9
0,1693677651745936700,1.017535686,-0.852335811,10.25915432,-0.06261868,-0.002664625,-0.008926493,-24,45,85,10,-11
1,1693677651746936700,1.021126986,-0.851138711,10.25316906,-0.062485453,-0.002664625,-0.008926493,-24,43,90,6,-9
2,1693677651747936700,1.021126986,-0.85473001,10.24957752,-0.062485453,-0.002664625,-0.008793262,-31,42,83,9,-11
3,1693677651748936700,1.019929886,-0.85353291,10.24718285,-0.06261868,-0.002797856,-0.008793262,-21,49,90,7,-5
4,1693677651749936700,1.019929886,-0.85473001,10.24957752,-0.06261868,-0.002797856,-0.008926493,-20,41,84,7,-9
0,1693677651802567600,1.025915384,-0.851138711,10.24478912,-0.062485453,-0.001598775,-0.008260337,-20,32,80,6,-7
1,1693677651803567600,1.027112484,-0.849941611,10.24119759,-0.062485453,-0.001465544,-0.008393568,-24,43,88,6,-8
2,1693677651804567600,1.027112484,-0.846350312,10.24359226,-0.062485453,-0.001598775,-0.008127105,-26,47,88,13,0
3,1693677651805567600,1.024718285,-0.846350312,10.24598598,-0.062218986,-0.001732006,-0.008127105,-33,47,89,11,-8
4,1693677651806567600,1.024718285,-0.846350312,10.25077438,-0.062218986,-0.001465544,-0.008260337,-25,41,82,7,-13
0,1693677651899538700,1.021126986,-0.85353291,10.25795746,-0.062485453,-0.001598775,-0.008793262,-27,41,84,8,-9
1,1693677651900538700,1.022324085,-0.85592711,10.25675964,-0.062352221,-0.001732006,-0.008660031,-26,43,83,8,-6
2,1693677651901538700,1.025915384,-0.85592711,10.25436592,-0.062218986,-0.001598775,-0.008526799,-18,47,89,12,-9
3,1693677651902538700,1.028309584,-0.85473001,10.25675964,-0.062218986,-0.001732006,-0.008526799,-26,42,87,6,-8
4,1693677651903538700,1.028309584,-0.859518409,10.26035118,-0.062218986,-0.001732006,-0.008526799,-22,41,87,8,-8
0,1693677651947481900,1.027112484,-0.849941611,10.26753426,-0.062352221,-0.001732006,-0.008926493,-23,38,87,11,-4
1,1693677651948481900,1.027112484,-0.848744512,10.26753426,-0.06261868,-0.001465544,-0.008793262,-28,44,89,8,-9
2,1693677651949481900,1.031900883,-0.847547412,10.26873112,-0.062485453,-0.001465544,-0.008926493,-22,41,80,8,-11
3,1693677651950481900,1.027112484,-0.847547412,10.26513958,-0.062485453,-0.001465544,-0.008793262,-24,47,89,10,-13
4,1693677651951481900,1.023521185,-0.848744512,10.26873112,-0.062485453,-0.001598775,-0.008793262,-29,37,79,2,-12
0,1693677652048553200,1.028309584,-0.857124209,10.27471638,-0.062085759,-0.001732006,-0.008926493,-18,48,88,11,-9
1,1693677652049553200,1.029506683,-0.857124209,10.27351952,-0.062085759,-0.001732006,-0.008926493,-20,38,90,8,-3
2,1693677652050553200,1.027112484,-0.857124209,10.27591324,-0.062085759,-0.001598775,-0.009059724,-26,46,88,10,-6
3,1693677652051553200,1.027112484,-0.85353291,10.27591324,-0.061952524,-0.001598775,-0.009059724,-27,45,90,2,-9
4,1693677652052553200,1.028309584,-0.858321309,10.27351952,-0.062085759,-0.001732006,-0.009059724,-28,38,86,12,-9
0,1693677652089566000,1.030703783,-0.849941611,10.26513958,-0.062218986,-0.001598775,-0.008526799,-20,45,89,6,-7
1,1693677652090566000,1.029506683,-0.851138711,10.26633644,-0.062352221,-0.001732006,-0.008260337,-25,41,89,7,-7
2,1693677652091566000,1.027112484,-0.849941611,10.26633644,-0.062352221,-0.001732006,-0.008260337,-23,47,84,9,-11
3,1693677652092566000,1.023521185,-0.851138711,10.26394272,-0.062352221,-0.001865237,-0.008260337,-20,41,85,8,-14
4,1693677652093566000,1.027112484,-0.852335811,10.26394272,-0.062485453,-0.001865237,-0.008260337,-28,53,91,11,-14
0,1693677652149990300,1.022324085,-0.849941611,10.26274586,-0.062218986,-0.001465544,-0.008393568,-20,45,91,14,-2
1,1693677652150990300,1.024718285,-0.847547412,10.26154804,-0.062085759,-0.001332312,-0.008393568,-26,42,79,11,-9
2,1693677652151990300,1.023521185,-0.849941611,10.26394272,-0.062218986,-0.001332312,-0.008260337,-20,43,85,9,-9
3,1693677652152990300,1.022324085,-0.85353291,10.26154804,-0.062218986,-0.001332312,-0.008127105,-23,45,81,10,-11
4,1693677652153990300,1.024718285,-0.85592711,10.25915432,-0.062085759,-0.001199081,-0.007993874,-26,43,87,9,-8
0,1693677652232795900,1.023521185,-0.859518409,10.27112484,-0.062352221,-0.001732006,-0.008260337,-24,39,90,8,-9
1,1693677652233795900,1.022324085,-0.857124209,10.26753426,-0.062218986,-0.001598775,-0.008393568,-28,44,87,2,-9
2,1693677652234795900,1.022324085,-0.858321309,10.26394272,-0.062352221,-0.001598775,-0.008393568,-23,45,83,6,-9
3,1693677652235795900,1.023521185,-0.859518409,10.26513958,-0.062352221,-0.001732006,-0.008393568,-27,42,95,12,-9
4,1693677652236795900,1.022324085,-0.860715508,10.27232265,-0.062352221,-0.001598775,-0.008526799,-23,42,85,10,-9
0,1693677652289269600,1.011550188,-0.857124209,10.26394272,-0.062085759,-0.001332312,-0.008926493,-24,43,89,-2,-6
1,1693677652290269600,1.013944387,-0.857124209,10.26394272,-0.062085759,-0.001332312,-0.009059724,-24,46,84,13,-8
2,1693677652291269600,1.019929886,-0.858321309,10.26513958,-0.062218986,-0.001332312,-0.008926493,-24,34,89,13,-12
3,1693677652292269600,1.023521185,-0.860715508,10.26753426,-0.062352221,-0.001332312,-0.008926493,-26,38,87,9,-2
4,1693677652293269600,1.023521185,-0.858321309,10.26753426,-0.062352221,-0.001332312,-0.008793262,-20,44,84,7,-11
0,1693677652348418500,1.017535686,-0.85473001,10.25436592,-0.062352221,-0.001465544,-0.008660031,-24,42,87,6,-11
1,1693677652349418500,1.017535686,-0.85473001,10.25077438,-0.062218986,-0.001598775,-0.008660031,-28,37,87,13,-8
2,1693677652350418500,1.021126986,-0.85353291,10.25077438,-0.062218986,-0.001465544,-0.008660031,-33,35,81,6,-11
3,1693677652351418500,1.022324085,-0.85473001,10.25436592,-0.062218986,-0.001598775,-0.008660031,-19,41,84,9,-9
4,1693677652352418500,1.019929886,-0.852335811,10.25197124,-0.062218986,-0.001465544,-0.008793262,-19,36,89,8,-4
0,1693677652437659900,1.023521185,-0.845153213,10.26753426,-0.062352221,-0.001732006,-0.008393568,-26,45,88,8,-12
1,1693677652438659900,1.024718285,-0.847547412,10.27112484,-0.062218986,-0.001598775,-0.008260337,-31,33,89,8,-13
2,1693677652439659900,1.023521185,-0.849941611,10.26873112,-0.062485453,-0.001865237,-0.008393568,-23,43,87,3,-9
3,1693677652440659900,1.024718285,-0.852335811,10.27112484,-0.062352221,-0.001732006,-0.008393568,-30,47,83,9,-8
4,1693677652441659900,1.024718285,-0.851138711,10.27351952,-0.062352221,-0.001732006,-0.008660031,-22,41,85,4,-5
0,1693677652505562800,1.035492182,-0.848744512,10.25915432,-0.062085759,-0.001465544,-0.008660031,-28,42,86,2,-9
1,1693677652506562800,1.034295082,-0.849941611,10.26274586,-0.061952524,-0.001598775,-0.008660031,-22,38,84,19,-8
2,1693677652507562800,1.033097982,-0.847547412,10.25675964,-0.061952524,-0.001465544,-0.008660031,-22,37,87,8,-8
3,1693677652508562800,1.030703783,-0.846350312,10.25316906,-0.061819296,-0.001465544,-0.008660031,-24,44,86,2,-9
4,1693677652509562800,1.025915384,-0.847547412,10.25556278,-0.062085759,-0.001465544,-0.008926493,-22,41,88,4,-5
0,1693677652560320500,1.029506683,-0.85473001,10.26035118,-0.062218986,-0.001199081,-0.009059724,-23,33,86,12,-13
1,1693677652561320500,1.028309584,-0.85592711,10.26035118,-0.062085759,-0.001332312,-0.008926493,-22,45,74,7,-9
2,1693677652562320500,1.028309584,-0.859518409,10.26035118,-0.062085759,-0.001332312,-0.009059724,-20,41,90,10,-12
3,1693677652563320500,1.025915384,-0.863109708,10.26035118,-0.062218986,-0.001332312,-0.008793262,-33,47,85,13,-9
4,1693677652564320500,1.025915384,-0.863109708,10.25915432,-0.062218986,-0.001332312,-0.008660031,-22,31,85,7,-8
0,1693677652610923200,1.033097982,-0.845153213,10.25436592,-0.06261868,-0.001732006,-0.008526799,-11,34,86,7,-12
1,1693677652611923200,1.034295082,-0.843956113,10.25556278,-0.06261868,-0.001865237,-0.008526799,-28,38,80,10,-11
2,1693677652612923200,1.034295082,-0.842759013,10.25915432,-0.062485453,-0.001732006,-0.008393568,-20,39,86,6,-4
3,1693677652613923200,1.034295082,-0.842759013,10.25556278,-0.06261868,-0.001865237,-0.008526799,-23,37,89,5,-9
4,1693677652614923200,1.035492182,-0.843956113,10.25795746,-0.06261868,-0.001998469,-0.008526799,-24,49,87,13,-7
0,1693677652691981800,1.024718285,-0.848744512,10.26513958,-0.062085759,-0.001732006,-0.008660031,-34,43,85,8,-15
1,1693677652692981800,1.024718285,-0.851138711,10.26513958,-0.062085759,-0.001998469,-0.008660031,-30,43,87,10,-8
2,1693677652693981800,1.023521185,-0.85353291,10.26154804,-0.062218986,-0.0021317,-0.008660031,-24,45,90,12,-8
3,1693677652694981800,1.023521185,-0.851138711,10.26035118,-0.062218986,-0.001865237,-0.008793262,-22,41,90,13,-10
4,1693677652695981800,1.021126986,-0.851138711,10.26035118,-0.062218986,-0.001865237,-0.008660031,-27,37,89,13,-8
0,1693677652752312700,1.016338587,-0.851138711,10.26035118,-0.061952524,-0.001465544,-0.008526799,-27,41,87,11,-9
1,1693677652753312700,1.019929886,-0.851138711,10.26513958,-0.061952524,-0.001465544,-0.008660031,-20,42,87,11,-8
2,1693677652754312700,1.018732786,-0.85353291,10.26633644,-0.061952524,-0.001332312,-0.008660031,-26,45,86,11,-6
3,1693677652755312700,1.017535686,-0.85353291,10.27232265,-0.062085759,-0.001598775,-0.008660031,-23,47,87,11,-11
4,1693677652756312700,1.018732786,-0.85353291,10.27112484,-0.061952524,-0.001598775,-0.008526799,-26,42,87,8,-9
0,1693677652832996600,1.021126986,-0.85473001,10.25915432,-0.062352221,-0.001332312,-0.009059724,-30,47,83,10,-8
1,1693677652833996600,1.022324085,-0.857124209,10.25915432,-0.062218986,-0.001332312,-0.009059724,-22,43,90,13,-6
2,1693677652834996600,1.022324085,-0.857124209,10.26154804,-0.062218986,-0.001465544,-0.009059724,-27,46,90,10,-8
3,1693677652835996600,1.021126986,-0.85473001,10.26154804,-0.062218986,-0.001199081,-0.009059724,-31,37,89,4,-7
4,1693677652836996600,1.021126986,-0.85473001,10.26035118,-0.062085759,-0.001332312,-0.009059724,-33,45,84,6,-15
0,1693677652892047500,1.040280581,-0.864306808,10.26992798,-0.062218986,-0.001732006,-0.008660031,-30,45,90,8,-13
1,1693677652893047500,1.039083481,-0.860715508,10.26513958,-0.062218986,-0.001732006,-0.008793262,-21,47,85,8,-3
2,1693677652894047500,1.042674899,-0.860715508,10.26274586,-0.062218986,-0.001598775,-0.008660031,-27,49,88,6,-9
3,1693677652895047500,1.043871999,-0.864306808,10.26753426,-0.062218986,-0.001598775,-0.008526799,-23,43,77,12,-8
4,1693677652896047500,1.040280581,-0.860715508,10.26753426,-0.062218986,-0.001465544,-0.008526799,-28,39,81,10,-13
0,1693677652952500000,1.024718285,-0.848744512,10.25077438,-0.062085759,-0.001865237,-0.008127105,-22,41,90,8,-3
1,1693677652953500000,1.019929886,-0.846350312,10.25077438,-0.061952524,-0.001865237,-0.008260337,-16,49,77,12,-11
2,1693677652954500000,1.021126986,-0.845153213,10.25436592,-0.061952524,-0.001998469,-0.008260337,-22,47,87,9,-9
3,1693677652955500000,1.021126986,-0.847547412,10.25795746,-0.062085759,-0.001998469,-0.008260337,-27,41,85,8,-12
4,1693677652956500000,1.023521185,-0.846350312,10.25915432,-0.062085759,-0.001865237,-0.008260337,-27,42,86,13,-9
0,1693677653035584400,1.028309584,-0.847547412,10.26154804,-0.062485453,-0.001598775,-0.008660031,-24,44,86,12,-16
1,1693677653036584400,1.030703783,-0.849941611,10.26154804,-0.062485453,-0.001465544,-0.008660031,-20,41,88,11,-8
2,1693677653037584400,1.027112484,-0.851138711,10.26154804,-0.062352221,-0.001332312,-0.008526799,-22,44,85,2,-9
3,1693677653038584400,1.025915384,-0.85592711,10.26873112,-0.062218986,-0.001199081,-0.008526799,-22,43,88,13,-10
4,1693677653039584400,1.028309584,-0.85473001,10.27112484,-0.062218986,-0.001332312,-0.008526799,-23,45,87,13,-7
0,1693677653091015400,1.022324085,-0.847547412,10.26992798,-0.061819296,-0.001732006,-0.008260337,-28,47,90,9,-12
1,1693677653092015400,1.022324085,-0.851138711,10.26992798,-0.061686065,-0.001865237,-0.008393568,-20,41,83,8,-11
2,1693677653093015400,1.018732786,-0.851138711,10.26513958,-0.061819296,-0.001732006,-0.008393568,-30,43,83,7,-15
3,1693677653094015400,1.016338587,-0.849941611,10.26154804,-0.061819296,-0.001598775,-0.008260337,-27,41,81,6,-9
4,1693677653095015400,1.017535686,-0.847547412,10.26154804,-0.061952524,-0.001732006,-0.008393568,-24,44,87,7,-7
0,1693677653194420300,1.028309584,-0.859518409,10.27351952,-0.062085759,-0.001598775,-0.008526799,-28,46,84,12,-12
1,1693677653195420300,1.027112484,-0.859518409,10.27471638,-0.062085759,-0.001598775,-0.008393568,-24,39,85,10,-7
2,1693677653196420300,1.025915384,-0.857124209,10.26873112,-0.062085759,-0.001732006,-0.008393568,-20,46,87,10,-13
3,1693677653197420300,1.023521185,-0.859518409,10.26753426,-0.062085759,-0.001732006,-0.008393568,-28,44,87,0,-8
4,1693677653198420300,1.023521185,-0.857124209,10.26753426,-0.062085759,-0.001732006,-0.008393568,-28,42,83,8,-8
0,1693677653229050500,1.021126986,-0.851138711,10.24478912,-0.062485453,-0.001732006,-0.008660031,-30,41,87,10,-9
1,1693677653230050500,1.019929886,-0.85473001,10.25077438,-0.06261868,-0.001732006,-0.008526799,-20,34,85,12,-15
2,1693677653231050500,1.022324085,-0.85353291,10.25675964,-0.062485453,-0.001598775,-0.008660031,-30,44,91,7,-15
3,1693677653232050500,1.024718285,-0.852335811,10.25556278,-0.062352221,-0.001598775,-0.008660031,-31,38,87,3,-8
4,1693677653233050500,1.025915384,-0.85353291,10.25197124,-0.06261868,-0.001732006,-0.008526799,-14,45,89,11,-8
0,1693677653288947700,1.029506683,-0.848744512,10.25077438,-0.062085759,-0.001598775,-0.008926493,-26,41,79,10,-9
1,1693677653289947700,1.033097982,-0.851138711,10.24957752,-0.062085759,-0.001465544,-0.009059724,-31,38,77,3,-9
2,1693677653290947700,1.029506683,-0.849941611,10.25077438,-0.062218986,-0.001332312,-0.009059724,-22,46,87,13,-7
3,1693677653291947700,1.029506683,-0.852335811,10.25556278,-0.062085759,-0.001332312,-0.008926493,-25,43,91,6,-6
4,1693677653292947700,1.030703783,-0.85473001,10.25795746,-0.061952524,-0.001199081,-0.008926493,-27,36,87,12,-5
0,1693677653377475400,1.029506683,-0.843956113,10.26154804,-0.062352221,-0.001732006,-0.008127105,-24,43,84,10,-11
1,1693677653378475400,1.029506683,-0.846350312,10.26035118,-0.062218986,-0.001732006,-0.008127105,-24,41,88,4,-12
2,1693677653379475400,1.028309584,-0.847547412,10.26035118,-0.062218986,-0.001598775,-0.007993874,-28,47,84,9,-8
3,1693677653380475400,1.029506683,-0.848744512,10.25915432,-0.062218986,-0.001465544,-0.007993874,-22,43,80,16,-8
4,1693677653381475400,1.030703783,-0.847547412,10.25915432,-0.062085759,-0.001598775,-0.007993874,-28,42,90,10,-4
0,1693677653449186800,1.034295082,-0.858321309,10.26154804,-0.062485453,-0.001332312,-0.008393568,-29,35,79,2,-13
1,1693677653450186800,1.031900883,-0.857124209,10.26035118,-0.06261868,-0.001332312,-0.008393568,-21,38,80,4,-4
2,1693677653451186800,1.030703783,-0.857124209,10.25556278,-0.062751912,-0.001199081,-0.008260337,-27,34,89,4,-8
3,1693677653452186800,1.030703783,-0.858321309,10.24718285,-0.06261868,-0.00106585,-0.008127105,-21,41,85,13,-9
4,1693677653453186800,1.028309584,-0.85473001,10.24598598,-0.06261868,-0.00106585,-0.007993874,-28,45,81,-1,-8
0,1693677653537135900,1.021126986,-0.851138711,10.26035118,-0.062485453,-0.001998469,-0.008260337,-28,41,83,9,-11
1,1693677653538135900,1.016338587,-0.849941611,10.25915432,-0.062485453,-0.001998469,-0.008260337,-28,38,83,10,-7
2,1693677653539135900,1.016338587,-0.846350312,10.25915432,-0.062485453,-0.001865237,-0.008393568,-24,42,90,8,-8
3,1693677653540135900,1.016338587,-0.845153213,10.26035118,-0.062352221,-0.001732006,-0.008127105,-28,38,87,6,-11
4,1693677653541135900,1.019929886,-0.843956113,10.26154804,-0.062218986,-0.001732006,-0.008127105,-30,48,81,10,-11
0,1693677653592104600,1.036689281,-0.85353291,10.26394272,-0.061552834,-0.001332312,-0.008260337,-30,43,87,2,-14
1,1693677653593104600,1.035492182,-0.857124209,10.26394272,-0.061419602,-0.001465544,-0.008526799,-28,42,81,11,-7
2,1693677653594104600,1.034295082,-0.85592711,10.25915432,-0.061686065,-0.001465544,-0.008393568,-19,42,87,8,-9
3,1693677653595104600,1.036689281,-0.85473001,10.25795746,-0.061819296,-0.001465544,-0.008526799,-20,41,89,4,-11
4,1693677653596104600,1.036689281,-0.85592711,10.25675964,-0.061952524,-0.001598775,-0.008393568,-29,42,83,13,-9
0,1693677653644074400,1.024718285,-0.85592711,10.24239445,-0.062485453,-0.001998469,-0.008526799,-22,42,89,8,-15
1,1693677653645074400,1.024718285,-0.85353291,10.24478912,-0.062485453,-0.0021317,-0.008526799,-22,43,85,10,-8
2,1693677653646074400,1.022324085,-0.85592711,10.24359226,-0.06261868,-0.001865237,-0.008526799,-23,42,89,6,-7
3,1693677653647074400,1.017535686,-0.859518409,10.24838066,-0.06261868,-0.001865237,-0.008526799,-24,34,80,11,-8
4,1693677653648074400,1.017535686,-0.858321309,10.24957752,-0.06261868,-0.001732006,-0.008526799,-27,32,80,1,-15
0,1693677653768004600,1.028309584,-0.849941611,10.25316906,-0.06261868,-0.001598775,-0.008660031,-23,45,87,7,-5
1,1693677653769004600,1.028309584,-0.851138711,10.25436592,-0.062751912,-0.001732006,-0.008526799,-24,45,90,10,-6
2,1693677653770004600,1.027112484,-0.851138711,10.25556278,-0.06261868,-0.001598775,-0.008526799,-27,41,85,7,-11
3,1693677653771004600,1.025915384,-0.852335811,10.25436592,-0.06261868,-0.001465544,-0.008660031,-26,45,85,11,-12
4,1693677653772004600,1.025915384,-0.852335811,10.25556278,-0.062485453,-0.001598775,-0.008926493,-28,39,81,6,-13
0,1693677653867946600,1.013944387,-0.849941611,10.26154804,-0.062085759,-0.00106585,-0.008393568,-24,37,86,11,-8
1,1693677653868946600,1.013944387,-0.851138711,10.26394272,-0.061819296,-0.00106585,-0.008260337,-24,49,89,12,-7
2,1693677653869946600,1.015141487,-0.852335811,10.26513958,-0.061952524,-0.00106585,-0.008260337,-31,37,85,8,-15
3,1693677653870946600,1.017535686,-0.85473001,10.26394272,-0.061819296,-0.00106585,-0.008393568,-24,37,85,7,-15
4,1693677653871946600,1.021126986,-0.85592711,10.26394272,-0.061819296,-0.00106585,-0.008393568,-23,47,85,13,-11
0,1693677653922915100,1.019929886,-0.85353291,10.25915432,-0.062352221,-0.001465544,-0.008660031,-26,42,84,6,-11
1,1693677653923915100,1.019929886,-0.851138711,10.25795746,-0.062485453,-0.001465544,-0.008660031,-26,33,74,7,-13
2,1693677653924915100,1.018732786,-0.847547412,10.26035118,-0.062352221,-0.001199081,-0.008660031,-29,41,81,6,-9
3,1693677653925915100,1.021126986,-0.845153213,10.26154804,-0.062352221,-0.00106585,-0.008660031,-21,40,80,3,-13
4,1693677653926915100,1.019929886,-0.846350312,10.26394272,-0.062485453,-0.001199081,-0.008660031,-19,45,87,7,-8
0,1693677653960893400,1.017535686,-0.85592711,10.25915432,-0.06261868,-0.001465544,-0.008660031,-16,42,90,8,-9
1,1693677653961893400,1.015141487,-0.85473001,10.25556278,-0.062485453,-0.001332312,-0.008660031,-21,42,89,2,-7
2,1693677653962893400,1.016338587,-0.85473001,10.25675964,-0.062485453,-0.001465544,-0.008526799,-24,37,83,0,-8
3,1693677653963893400,1.018732786,-0.85473001,10.25915432,-0.062485453,-0.001465544,-0.008526799,-30,38,82,6,-6
4,1693677653964893400,1.018732786,-0.852335811,10.26154804,-0.062352221,-0.001465544,-0.008393568,-28,36,86,11,-14
0,1693677654005868100,1.023521185,-0.843956113,10.27112484,-0.062218986,-0.001199081,-0.008660031,-24,47,87,9,-9
1,1693677654006868100,1.027112484,-0.848744512,10.26992798,-0.062085759,-0.001199081,-0.008793262,-33,39,87,11,-13
2,1693677654007868100,1.025915384,-0.849941611,10.26873112,-0.062218986,-0.001332312,-0.008660031,-21,41,76,6,-14
3,1693677654008868100,1.022324085,-0.851138711,10.26394272,-0.062218986,-0.001465544,-0.008526799,-28,43,87,3,-6
4,1693677654009868100,1.021126986,-0.851138711,10.26154804,-0.062352221,-0.001598775,-0.008526799,-23,38,81,4,-13
0,1693677654067832500,1.021126986,-0.851138711,10.24718285,-0.062085759,-0.001865237,-0.008526799,-27,47,85,10,-12
1,1693677654068832500,1.018732786,-0.852335811,10.24957752,-0.062085759,-0.001865237,-0.008660031,-33,42,83,4,-12
2,1693677654069832500,1.018732786,-0.85473001,10.24957752,-0.062085759,-0.001865237,-0.008526799,-24,32,80,6,-12
3,1693677654070832500,1.022324085,-0.85592711,10.25197124,-0.062218986,-0.001865237,-0.008526799,-30,47,80,6,-9
4,1693677654071832500,1.025915384,-0.849941611,10.25316906,-0.062218986,-0.001732006,-0.008526799,-24,39,81,2,-8
0,1693677654135793200,1.012747288,-0.85592711,10.27830791,-0.062352221,-0.001732006,-0.008660031,-26,42,83,8,-9
1,1693677654136793200,1.013944387,-0.857124209,10.27950478,-0.062485453,-0.001732006,-0.008660031,-28,42,81,2,-9
2,1693677654137793200,1.017535686,-0.85353291,10.28309631,-0.062352221,-0.001465544,-0.008660031,-23,42,85,2,-8
3,1693677654138793200,1.019929886,-0.85473001,10.27830791,-0.06261868,-0.001332312,-0.008526799,-28,43,85,4,-8
4,1693677654139793200,1.019929886,-0.85353291,10.27950478,-0.062352221,-0.001332312,-0.008526799,-27,46,80,7,-13
0,1693677654194758700,1.019929886,-0.848744512,10.26274586,-0.061952524,-0.001465544,-0.008260337,-23,45,86,12,-14
1,1693677654195758700,1.021126986,-0.851138711,10.26633644,-0.061952524,-0.001598775,-0.008393568,-33,42,83,3,-11
2,1693677654196758700,1.018732786,-0.851138711,10.26873112,-0.062218986,-0.001598775,-0.008127105,-24,43,77,7,-11
3,1693677654197758700,1.017535686,-0.85353291,10.26633644,-0.062218986,-0.001465544,-0.008260337,-23,47,77,4,-11
4,1693677654198758700,1.017535686,-0.852335811,10.26753426,-0.062085759,-0.001332312,-0.008260337,-24,41,89,12,-15
0,1693677654285707300,1.030703783,-0.842759013,10.26035118,-0.061952524,-0.001465544,-0.008793262,-31,45,87,12,-8
1,1693677654286707300,1.028309584,-0.843956113,10.25795746,-0.061952524,-0.001332312,-0.008793262,-30,46,83,12,-11
2,1693677654287707300,1.029506683,-0.843956113,10.25077438,-0.061952524,-0.001332312,-0.008793262,-18,45,87,8,-11
3,1693677654288707300,1.027112484,-0.842759013,10.25436592,-0.061952524,-0.001332312,-0.008526799,-24,41,84,14,-11
4,1693677654289707300,1.029506683,-0.843956113,10.24838066,-0.062085759,-0.001465544,-0.008793262,-24,43,90,13,-5
0,1693677654388648400,1.036689281,-0.861912608,10.26394272,-0.062352221,-0.001199081,-0.008793262,-24,38,81,0,-13
1,1693677654389648400,1.034295082,-0.863109708,10.26394272,-0.062352221,-0.001332312,-0.008660031,-22,42,81,11,-11
2,1693677654390648400,1.034295082,-0.860715508,10.26274586,-0.062352221,-0.001332312,-0.008660031,-23,47,80,7,-11
3,1693677654391648400,1.031900883,-0.860715508,10.26154804,-0.062352221,-0.001598775,-0.008793262,-26,48,84,11,-13
4,1693677654392648400,1.030703783,-0.860715508,10.26394272,-0.062352221,-0.001732006,-0.008793262,-24,45,85,7,-13
0,1693677654491589100,1.033097982,-0.858321309,10.25077438,-0.062085759,-0.001865237,-0.008926493,-26,37,85,-3,-13
1,1693677654492589100,1.034295082,-0.858321309,10.25077438,-0.062085759,-0.001865237,-0.009059724,-27,46,87,10,-6
2,1693677654493589100,1.029506683,-0.858321309,10.24957752,-0.061952524,-0.001865237,-0.008926493,-26,45,78,7,-5
3,1693677654494589100,1.028309584,-0.859518409,10.24838066,-0.061952524,-0.001865237,-0.009059724,-28,45,86,13,-6
4,1693677654495589100,1.024718285,-0.860715508,10.24718285,-0.061952524,-0.001998469,-0.008926493,-24,38,79,4,-12
0,1693677654568546000,1.024718285,-0.852335811,10.26274586,-0.062085759,-0.001732006,-0.008926493,-19,45,81,10,-12
1,1693677654569546000,1.023521185,-0.85473001,10.25915432,-0.062085759,-0.001598775,-0.008793262,-27,38,87,11,-9
2,1693677654570546000,1.023521185,-0.85353291,10.25675964,-0.062218986,-0.001465544,-0.008660031,-26,43,86,3,-6
3,1693677654571546000,1.022324085,-0.847547412,10.25436592,-0.062352221,-0.001465544,-0.008793262,-19,43,85,6,-12
4,1693677654572546000,1.024718285,-0.847547412,10.25316906,-0.062352221,-0.001598775,-0.008660031,-28,53,84,3,-12
0,1693677654622513400,1.028309584,-0.851138711,10.26633644,-0.06261868,-0.001332312,-0.008260337,-24,43,83,6,-7
1,1693677654623513400,1.027112484,-0.848744512,10.26035118,-0.06261868,-0.001332312,-0.008393568,-28,39,83,4,-9
2,1693677654624513400,1.023521185,-0.847547412,10.25795746,-0.06261868,-0.001465544,-0.008393568,-27,55,88,8,-11
3,1693677654625513400,1.022324085,-0.849941611,10.25795746,-0.06261868,-0.001598775,-0.008660031,-28,37,85,12,-13
4,1693677654626513400,1.019929886,-0.848744512,10.26394272,-0.062751912,-0.001465544,-0.008660031,-30,38,83,3,-18
0,1693677654672485000,1.030703783,-0.858321309,10.26274586,-0.062352221,-0.001465544,-0.008260337,-28,43,83,11,-13
1,1693677654673485000,1.029506683,-0.859518409,10.26513958,-0.062352221,-0.001732006,-0.008260337,-28,48,86,7,-11
2,1693677654674485000,1.028309584,-0.861912608,10.26394272,-0.062352221,-0.001732006,-0.008393568,-26,41,87,23,-9
3,1693677654675485000,1.027112484,-0.858321309,10.25795746,-0.062352221,-0.001865237,-0.008260337,-24,37,88,2,-12
4,1693677654676485000,1.027112484,-0.857124209,10.25795746,-0.062352221,-0.001865237,-0.008260337,-23,39,80,5,-15
0,1693677654715460900,1.027112484,-0.849941611,10.24718285,-0.062352221,-0.001865237,-0.008660031,-20,43,87,13,-9
1,1693677654716460900,1.024718285,-0.851138711,10.24598598,-0.062352221,-0.001865237,-0.008526799,-19,41,87,7,-3
2,1693677654717460900,1.025915384,-0.849941611,10.24478912,-0.062352221,-0.001865237,-0.008526799,-26,38,81,6,-12
3,1693677654718460900,1.027112484,-0.848744512,10.25316906,-0.062485453,-0.001865237,-0.008526799,-35,37,83,0,-20
4,1693677654719460900,1.024718285,-0.847547412,10.25556278,-0.062485453,-0.001865237,-0.008393568,-27,32,90,7,-8
0,1693677654758439300,1.023521185,-0.857124209,10.26035118,-0.06261868,-0.001332312,-0.008393568,-23,43,90,8,-11
1,1693677654759439300,1.025915384,-0.85473001,10.25915432,-0.06261868,-0.001332312,-0.008526799,-24,32,122,8,-7
2,1693677654760439300,1.022324085,-0.85473001,10.26035118,-0.062485453,-0.001332312,-0.008526799,-29,38,79,4,-12
3,1693677654761439300,1.018732786,-0.857124209,10.26274586,-0.062485453,-0.001199081,-0.008660031,-28,38,79,9,-15
4,1693677654762439300,1.015141487,-0.857124209,10.26154804,-0.062485453,-0.001199081,-0.008526799,-30,38,83,8,-6
0,1693677654823398500,1.019929886,-0.85592711,10.26753426,-0.062218986,-0.001732006,-0.008526799,-27,42,81,3,-8
1,1693677654824398500,1.018732786,-0.857124209,10.26992798,-0.062352221,-0.001732006,-0.008393568,-23,43,87,11,-9
2,1693677654825398500,1.022324085,-0.852335811,10.26873112,-0.062218986,-0.001732006,-0.008260337,-27,41,80,7,-13
3,1693677654826398500,1.023521185,-0.849941611,10.26633644,-0.062085759,-0.001732006,-0.008260337,-30,42,89,-2,-7
4,1693677654827398500,1.024718285,-0.85353291,10.26633644,-0.062085759,-0.001732006,-0.008393568,-24,45,88,6,-9
0,1693677654903353600,1.039083481,-0.849941611,10.25436592,-0.062485453,-0.00106585,-0.008526799,-28,41,87,-4,-9
1,1693677654904353600,1.034295082,-0.848744512,10.25675964,-0.062485453,-0.001199081,-0.008526799,-27,41,79,7,-13
2,1693677654905353600,1.031900883,-0.848744512,10.25436592,-0.062485453,-0.001332312,-0.008393568,-31,41,85,11,-14
3,1693677654906353600,1.030703783,-0.847547412,10.25795746,-0.062485453,-0.001332312,-0.008393568,-30,45,83,10,-13
4,1693677654907353600,1.031900883,-0.849941611,10.26154804,-0.062485453,-0.001332312,-0.008526799,-26,34,83,10,-13
0,1693677655013290100,1.028309584,-0.85353291,10.24718285,-0.062218986,-0.001598775,-0.008526799,-28,39,90,6,-11
1,1693677655014290100,1.025915384,-0.851138711,10.24598598,-0.062218986,-0.001465544,-0.008526799,-32,38,79,7,-11
2,1693677655015290100,1.025915384,-0.85353291,10.25077438,-0.062352221,-0.001465544,-0.008526799,-23,38,80,4,-9
3,1693677655016290100,1.027112484,-0.85473001,10.24718285,-0.062352221,-0.001332312,-0.008793262,-32,45,89,3,-8
4,1693677655017290100,1.028309584,-0.85473001,10.24838066,-0.062352221,-0.001332312,-0.008793262,-25,42,84,3,-6
0,1693677655101239000,1.028309584,-0.852335811,10.26035118,-0.06261868,-0.001732006,-0.008793262,-27,41,85,3,-13
1,1693677655102239000,1.027112484,-0.85353291,10.26753426,-0.06261868,-0.001732006,-0.008660031,-30,41,85,6,-11
2,1693677655103239000,1.027112484,-0.85473001,10.26633644,-0.062751912,-0.001865237,-0.008526799,-30,43,79,4,-13
3,1693677655104239000,1.023521185,-0.85473001,10.26513958,-0.06261868,-0.001865237,-0.008526799,-28,44,90,8,-9
4,1693677655105239000,1.023521185,-0.851138711,10.25795746,-0.062751912,-0.001865237,-0.008526799,-28,39,88,10,-9
0,1693677655171199900,1.028309584,-0.842759013,10.27471638,-0.061819296,-0.001732006,-0.008393568,-27,41,83,2,-11
1,1693677655172199900,1.027112484,-0.843956113,10.27471638,-0.061819296,-0.001598775,-0.008260337,-26,35,77,6,-13
2,1693677655173199900,1.025915384,-0.848744512,10.27232265,-0.061686065,-0.001598775,-0.008127105,-24,40,86,10,-9
3,1693677655174199900,1.028309584,-0.849941611,10.27232265,-0.061686065,-0.001465544,-0.008260337,-24,45,88,7,-11
4,1693677655175199900,1.028309584,-0.846350312,10.27112484,-0.061819296,-0.001465544,-0.008260337,-28,42,84,8,-8
0,1693677655205180400,1.029506683,-0.852335811,10.26035118,-0.062218986,-0.001732006,-0.007993874,-33,34,68,7,-8
1,1693677655206180400,1.028309584,-0.851138711,10.26035118,-0.062352221,-0.001865237,-0.007993874,-24,33,85,6,-13
2,1693677655207180400,1.027112484,-0.852335811,10.26035118,-0.062218986,-0.001865237,-0.008127105,-28,50,93,27,13
3,1693677655208180400,1.027112484,-0.85473001,10.26035118,-0.062218986,-0.001865237,-0.008260337,-30,44,89,6,-13
4,1693677655209180400,1.027112484,-0.85473001,10.26154804,-0.062352221,-0.001998469,-0.008260337,-38,36,83,6,-9
0,1693677655238161900,1.025915384,-0.85473001,10.24957752,-0.062751912,-0.001732006,-0.008526799,-27,42,83,8,-9
1,1693677655239161900,1.022324085,-0.85353291,10.25436592,-0.062751912,-0.001598775,-0.008526799,-20,41,88,6,-13
2,1693677655240161900,1.023521185,-0.849941611,10.25915432,-0.062751912,-0.001598775,-0.008393568,-28,42,88,10,-8
3,1693677655241161900,1.022324085,-0.851138711,10.26035118,-0.063018374,-0.001598775,-0.008393568,-19,48,83,10,-9
4,1693677655242161900,1.021126986,-0.852335811,10.26274586,-0.063018374,-0.001598775,-0.008260337,-24,32,85,7,-9
0,1693677655322113400,1.031900883,-0.851138711,10.26274586,-0.062352221,-0.001732006,-0.008526799,-4,63,103,26,8
1,1693677655323113400,1.028309584,-0.846350312,10.26035118,-0.062352221,-0.001865237,-0.008526799,-22,41,84,6,-13
2,1693677655324113400,1.024718285,-0.845153213,10.26274586,-0.062352221,-0.001732006,-0.008660031,-28,42,87,8,-7
3,1693677655325113400,1.024718285,-0.842759013,10.26394272,-0.062352221,-0.001732006,-0.008393568,-27,44,79,10,1
4,1693677655326113400,1.027112484,-0.843956113,10.26394272,-0.062485453,-0.001865237,-0.008393568,-24,39,81,11,-15
0,1693677655361091300,1.030703783,-0.848744512,10.27351952,-0.062485453,-0.001865237,-0.008393568,-28,39,85,2,-13
1,1693677655362091300,1.029506683,-0.847547412,10.27112484,-0.062751912,-0.001865237,-0.008526799,-22,42,86,8,-2
2,1693677655363091300,1.027112484,-0.848744512,10.26992798,-0.062751912,-0.001598775,-0.008526799,-27,45,90,7,-9
3,1693677655364091300,1.021126986,-0.851138711,10.26873112,-0.062751912,-0.001732006,-0.008526799,-30,43,85,6,-13
4,1693677655365091300,1.021126986,-0.851138711,10.27232265,-0.062751912,-0.001865237,-0.008393568,-33,43,83,6,-12
0,1693677655431051000,1.013944387,-0.864306808,10.27232265,-0.062751912,-0.001732006,-0.008793262,-19,37,84,12,-11
1,1693677655432051000,1.012747288,-0.859518409,10.26753426,-0.062885143,-0.001732006,-0.008793262,-26,39,83,12,-5
2,1693677655433051000,1.012747288,-0.859518409,10.26513958,-0.062885143,-0.001598775,-0.008660031,-22,48,86,12,-9
3,1693677655434051000,1.013944387,-0.859518409,10.26753426,-0.063018374,-0.001732006,-0.008793262,-24,45,88,9,-11
4,1693677655435051000,1.015141487,-0.858321309,10.26274586,-0.062885143,-0.001732006,-0.008660031,-26,41,85,7,-9
0,1693677655506007500,1.019929886,-0.843956113,10.25795746,-0.061952524,-0.002264931,-0.008393568,-26,38,90,8,-11
1,1693677655507007500,1.018732786,-0.843956113,10.25795746,-0.061952524,-0.002264931,-0.008393568,-27,47,80,3,-8
2,1693677655508007500,1.017535686,-0.846350312,10.24957752,-0.061952524,-0.0021317,-0.008526799,-24,38,85,10,-9
3,1693677655509007500,1.015141487,-0.845153213,10.25316906,-0.061952524,-0.001998469,-0.008526799,-27,33,80,-2,-13
4,1693677655510007500,1.015141487,-0.841561913,10.25556278,-0.061952524,-0.0021317,-0.008260337,-35,38,90,6,-13
0,1693677655659920200,1.027112484,-0.846350312,10.24359226,-0.062352221,-0.001598775,-0.008393568,-24,39,89,3,-5
1,1693677655660920200,1.022324085,-0.849941611,10.24598598,-0.062352221,-0.001598775,-0.008260337,-29,53,83,8,-7
2,1693677655661920200,1.019929886,-0.848744512,10.24478912,-0.062352221,-0.001598775,-0.008393568,-12,49,93,8,-13
3,1693677655662920200,1.017535686,-0.847547412,10.24838066,-0.062352221,-0.001732006,-0.008526799,-27,34,77,14,-13
4,1693677655663920200,1.017535686,-0.848744512,10.25556278,-0.062352221,-0.001732006,-0.008393568,-24,45,82,12,-8
0,1693677655708891200,1.023521185,-0.847547412,10.25436592,-0.062352221,-0.001732006,-0.008393568,-22,48,84,10,-7
1,1693677655709891200,1.022324085,-0.848744512,10.24957752,-0.062352221,-0.001865237,-0.008393568,-24,45,85,8,-12
2,1693677655710891200,1.019929886,-0.848744512,10.24957752,-0.062352221,-0.001998469,-0.008526799,-28,39,87,6,-12
3,1693677655711891200,1.021126986,-0.851138711,10.25556278,-0.062352221,-0.001865237,-0.008526799,-33,35,84,8,-7
4,1693677655712891200,1.021126986,-0.851138711,10.25795746,-0.062218986,-0.001998469,-0.008526799,-27,38,85,10,-7
0,1693677655767857300,1.029506683,-0.852335811,10.26513958,-0.062085759,-0.001998469,-0.008526799,-28,42,81,9,-18
1,1693677655768857300,1.024718285,-0.846350312,10.26753426,-0.061952524,-0.001865237,-0.008660031,-26,42,89,5,-7
2,1693677655769857300,1.022324085,-0.843956113,10.27232265,-0.061952524,-0.001865237,-0.008660031,-23,33,84,6,-12
3,1693677655770857300,1.021126986,-0.841561913,10.27232265,-0.062085759,-0.0021317,-0.008660031,-30,45,77,3,-6
4,1693677655771857300,1.021126986,-0.841561913,10.27232265,-0.061952524,-0.0021317,-0.008660031,-33,45,79,11,-6
0,1693677655834819700,1.039083481,-0.849941611,10.25795746,-0.062218986,-0.001598775,-0.008393568,-24,42,77,10,-12
1,1693677655835819700,1.036689281,-0.849941611,10.25675964,-0.062218986,-0.001732006,-0.008260337,-30,43,88,9,-12
2,1693677655836819700,1.035492182,-0.852335811,10.26035118,-0.062218986,-0.001732006,-0.008260337,-16,43,82,0,-9
3,1693677655837819700,1.033097982,-0.85473001,10.26394272,-0.062485453,-0.001732006,-0.008127105,-23,41,80,8,-8
4,1693677655838819700,1.029506683,-0.857124209,10.25915432,-0.062352221,-0.001865237,-0.007993874,-27,41,87,11,-5
0,1693677655873797700,1.015141487,-0.851138711,10.24838066,-0.062352221,-0.001598775,-0.008660031,-31,36,79,19,5
1,1693677655874797700,1.012747288,-0.85353291,10.25077438,-0.062485453,-0.001465544,-0.008660031,-29,41,83,4,-16
2,1693677655875797700,1.012747288,-0.85592711,10.25077438,-0.062485453,-0.001732006,-0.008660031,-23,39,81,-2,-13
3,1693677655876797700,1.013944387,-0.85592711,10.25316906,-0.062352221,-0.001732006,-0.008526799,-26,39,84,7,-11
4,1693677655877797700,1.016338587,-0.858321309,10.25556278,-0.062352221,-0.001732006,-0.008526799,-28,34,83,12,-4
0,1693677655940758900,1.019929886,-0.847547412,10.25077438,-0.062218986,-0.001732006,-0.008660031,-31,39,79,7,-13
1,1693677655941758900,1.018732786,-0.851138711,10.24838066,-0.062352221,-0.001732006,-0.008793262,-32,37,81,10,-15
2,1693677655942758900,1.018732786,-0.852335811,10.24957752,-0.062218986,-0.001598775,-0.008793262,-33,45,85,11,-10
3,1693677655943758900,1.018732786,-0.849941611,10.24838066,-0.062218986,-0.001465544,-0.008793262,-27,41,79,10,-8
4,1693677655944758900,1.018732786,-0.851138711,10.24957752,-0.062218986,-0.001465544,-0.008926493,-28,42,90,10,-11
0,1693677656007724000,1.023521185,-0.859518409,10.25077438,-0.062085759,-0.001732006,-0.009059724,-30,32,83,3,-7
1,1693677656008724000,1.025915384,-0.85473001,10.25077438,-0.062085759,-0.001465544,-0.009059724,-27,38,87,10,-11
2,1693677656009724000,1.027112484,-0.85353291,10.25077438,-0.062085759,-0.001465544,-0.009059724,-21,42,81,8,-14
3,1693677656010724000,1.025915384,-0.85592711,10.25915432,-0.061819296,-0.001598775,-0.009059724,-23,40,89,8,-9
4,1693677656011724000,1.024718285,-0.85592711,10.25795746,-0.061952524,-0.001732006,-0.008793262,-29,42,87,6,-12
0,1693677656064688500,1.024718285,-0.860715508,10.25077438,-0.062085759,-0.001598775,-0.008393568,-28,37,81,10,-12
1,1693677656065688500,1.021126986,-0.860715508,10.25197124,-0.062218986,-0.001598775,-0.008526799,-28,45,83,10,-6
2,1693677656066688500,1.019929886,-0.859518409,10.24957752,-0.062218986,-0.001598775,-0.008526799,-27,37,88,8,-9
3,1693677656067688500,1.021126986,-0.861912608,10.25556278,-0.062085759,-0.001732006,-0.008660031,-22,41,89,8,-7
4,1693677656068688500,1.022324085,-0.864306808,10.25316906,-0.062085759,-0.001732006,-0.008393568,-24,43,86,11,-10
0,1693677656117687800,1.017535686,-0.857124209,10.24838066,-0.062485453,-0.001998469,-0.008793262,-30,46,80,12,-7
1,1693677656118687800,1.019929886,-0.857124209,10.24718285,-0.062485453,-0.001998469,-0.008926493,-23,33,90,3,-7
2,1693677656119687800,1.019929886,-0.859518409,10.24478912,-0.062485453,-0.001998469,-0.008926493,-19,39,87,9,-11
3,1693677656120687800,1.018732786,-0.861912608,10.24718285,-0.062485453,-0.001998469,-0.008926493,-39,47,87,12,-13
4,1693677656121687800,1.018732786,-0.863109708,10.25197124,-0.062485453,-0.001865237,-0.008926493,-26,41,80,7,-11
0,1693677656236227500,1.023521185,-0.85353291,10.26513958,-0.062218986,-0.001465544,-0.008660031,-23,42,89,11,-9
1,1693677656237227500,1.025915384,-0.851138711,10.26633644,-0.062218986,-0.001465544,-0.008793262,-30,41,89,12,-9
2,1693677656238227500,1.025915384,-0.851138711,10.26873112,-0.062352221,-0.001465544,-0.008793262,-28,38,85,9,-10
3,1693677656239227500,1.024718285,-0.851138711,10.26633644,-0.062352221,-0.001598775,-0.008660031,-23,46,84,3,-13
4,1693677656240227500,1.027112484,-0.848744512,10.26753426,-0.062352221,-0.001465544,-0.008660031,-31,47,89,7,-12
0,1693677656301190200,1.021126986,-0.849941611,10.25077438,-0.062485453,-0.001332312,-0.008926493,-28,35,90,11,-11
1,1693677656302190200,1.022324085,-0.845153213,10.25077438,-0.06261868,-0.001332312,-0.008793262,-24,42,84,3,-8
2,1693677656303190200,1.021126986,-0.846350312,10.24957752,-0.06261868,-0.001332312,-0.008926493,-23,39,83,11,-11
3,1693677656304190200,1.023521185,-0.848744512,10.24957752,-0.06261868,-0.001598775,-0.008926493,-28,38,86,11,-9
4,1693677656305190200,1.023521185,-0.851138711,10.24957752,-0.062485453,-0.001465544,-0.008926493,-30,41,81,10,-16
0,1693677656359157400,1.025915384,-0.848744512,10.25795746,-0.062352221,-0.001465544,-0.008660031,-22,46,85,12,-4
1,1693677656360157400,1.025915384,-0.848744512,10.26394272,-0.062485453,-0.001598775,-0.008660031,-25,44,86,6,-8
2,1693677656361157400,1.027112484,-0.848744512,10.26992798,-0.062352221,-0.001598775,-0.008793262,-24,38,84,6,-9
3,1693677656362157400,1.028309584,-0.848744512,10.26633644,-0.062485453,-0.001598775,-0.008926493,-31,37,83,0,-16
4,1693677656363157400,1.029506683,-0.849941611,10.26394272,-0.062485453,-0.001732006,-0.009059724,-22,42,84,12,-11
0,1693677656418122400,1.022324085,-0.847547412,10.27591324,-0.062352221,-0.001598775,-0.008526799,-24,44,88,12,-6
1,1693677656419122400,1.022324085,-0.849941611,10.27232265,-0.062218986,-0.001865237,-0.008526799,-30,39,85,9,-9
2,1693677656420122400,1.028309584,-0.851138711,10.27711105,-0.062352221,-0.001865237,-0.008526799,-29,43,80,7,-9
3,1693677656421122400,1.029506683,-0.85353291,10.27591324,-0.062218986,-0.001732006,-0.008526799,-20,48,81,9,-9
4,1693677656422122400,1.030703783,-0.85473001,10.27711105,-0.062218986,-0.001732006,-0.008526799,-22,39,83,7,-7
0,1693677656500594100,1.027112484,-0.848744512,10.26992798,-0.062485453,-0.001465544,-0.008526799,-35,45,89,8,-8
1,1693677656501594100,1.027112484,-0.847547412,10.26992798,-0.062485453,-0.001598775,-0.008526799,-27,39,87,9,-7
2,1693677656502594100,1.027112484,-0.847547412,10.27232265,-0.06261868,-0.001598775,-0.008660031,-26,41,85,2,-15
3,1693677656503594100,1.028309584,-0.846350312,10.26992798,-0.062485453,-0.001598775,-0.008660031,-28,38,84,10,-6
4,1693677656504594100,1.028309584,-0.845153213,10.26992798,-0.06261868,-0.001598775,-0.008660031,-26,38,83,6,-9
0,1693677656548562200,1.029506683,-0.849941611,10.25556278,-0.062885143,-0.001465544,-0.008526799,-8,42,85,2,-12
1,1693677656549562200,1.029506683,-0.849941611,10.25316906,-0.062751912,-0.001465544,-0.008660031,-24,41,77,3,-11
2,1693677656550562200,1.025915384,-0.848744512,10.25197124,-0.062751912,-0.001598775,-0.008793262,-36,35,76,3,-16
3,1693677656551562200,1.027112484,-0.851138711,10.25436592,-0.06261868,-0.001465544,-0.008660031,-17,41,80,8,-8
4,1693677656552562200,1.028309584,-0.85353291,10.25436592,-0.062218986,-0.001598775,-0.008793262,-23,35,88,3,-7
0,1693677656587539900,1.013944387,-0.852335811,10.26873112,-0.061819296,-0.001598775,-0.008926493,-23,43,89,7,-11
1,1693677656588539900,1.015141487,-0.85353291,10.26753426,-0.061819296,-0.001465544,-0.008926493,-20,37,83,11,-12
2,1693677656589539900,1.016338587,-0.85353291,10.26753426,-0.061952524,-0.001332312,-0.008926493,-28,37,88,7,-11
3,1693677656590539900,1.017535686,-0.851138711,10.27112484,-0.061952524,-0.001465544,-0.008926493,-23,42,85,2,-10
4,1693677656591539900,1.015141487,-0.847547412,10.27232265,-0.062085759,-0.001199081,-0.008660031,-27,49,86,6,-13
0,1693677656666495500,1.035492182,-0.859518409,10.26154804,-0.062352221,-0.001732006,-0.008526799,-26,44,90,4,-7
1,1693677656667495500,1.034295082,-0.85473001,10.26274586,-0.062352221,-0.001598775,-0.008526799,-30,39,88,2,-15
2,1693677656668495500,1.029506683,-0.85353291,10.26274586,-0.062218986,-0.001598775,-0.008393568,-28,43,85,7,-9
3,1693677656669495500,1.029506683,-0.851138711,10.26394272,-0.062485453,-0.001598775,-0.008260337,-24,39,88,13,-11
4,1693677656670495500,1.030703783,-0.848744512,10.26753426,-0.062352221,-0.001598775,-0.008393568,-20,46,83,13,-12
0,1693677656736453900,1.023521185,-0.848744512,10.26035118,-0.06261868,-0.001865237,-0.008526799,-26,39,87,6,-9
1,1693677656737453900,1.022324085,-0.849941611,10.26513958,-0.062751912,-0.001732006,-0.008660031,-26,32,89,6,-9
2,1693677656738453900,1.025915384,-0.852335811,10.26154804,-0.062485453,-0.001465544,-0.008793262,-24,39,83,12,-7
3,1693677656739453900,1.028309584,-0.85353291,10.26633644,-0.06261868,-0.001465544,-0.008793262,-24,42,85,6,-11
4,1693677656740453900,1.029506683,-0.85473001,10.27112484,-0.062485453,-0.001598775,-0.008793262,-19,43,86,11,-12
0,1693677656805414200,1.017535686,-0.85353291,10.26035118,-0.062085759,-0.001732006,-0.008260337,-30,32,80,3,-5
1,1693677656806414200,1.018732786,-0.85473001,10.26154804,-0.062085759,-0.001732006,-0.008260337,-28,37,88,7,-12
2,1693677656807414200,1.022324085,-0.85592711,10.25915432,-0.062218986,-0.001865237,-0.008260337,-24,42,84,10,-13
3,1693677656808414200,1.022324085,-0.85473001,10.25316906,-0.062085759,-0.001998469,-0.008393568,-25,46,87,10,-7
4,1693677656809414200,1.019929886,-0.852335811,10.25556278,-0.062085759,-0.001865237,-0.008526799,-29,41,85,8,-8
0,1693677656867378900,1.018732786,-0.848744512,10.25675964,-0.061552834,-0.001598775,-0.008526799,-17,42,81,1,-13
1,1693677656868378900,1.019929886,-0.849941611,10.25675964,-0.061552834,-0.001732006,-0.008526799,-32,37,84,9,-8
2,1693677656869378900,1.022324085,-0.85473001,10.24957752,-0.061552834,-0.001732006,-0.008660031,-27,38,84,8,-12
3,1693677656870378900,1.018732786,-0.852335811,10.24478912,-0.061552834,-0.001732006,-0.008793262,-24,41,90,8,-3
4,1693677656871378900,1.016338587,-0.85353291,10.24598598,-0.061686065,-0.001598775,-0.008793262,-3,41,90,10,-9
0,1693677656941400900,1.010353088,-0.85473001,10.26513958,-0.06261868,-0.001598775,-0.008526799,-26,41,86,9,-12
1,1693677656942400900,1.012747288,-0.859518409,10.26633644,-0.062751912,-0.001732006,-0.008793262,-29,41,81,6,-13
2,1693677656943400900,1.013944387,-0.857124209,10.26154804,-0.062751912,-0.001732006,-0.008793262,-24,39,89,7,-7
3,1693677656944400900,1.015141487,-0.85473001,10.25795746,-0.06261868,-0.001598775,-0.008926493,-23,45,87,8,24
4,1693677656945400900,1.016338587,-0.85353291,10.25077438,-0.06261868,-0.001598775,-0.008660031,-32,37,80,6,-9
0,1693677657022442300,1.013944387,-0.836773515,10.24718285,-0.062218986,-0.001732006,-0.008793262,-30,41,80,14,-18
1,1693677657023442300,1.015141487,-0.840364814,10.24598598,-0.062352221,-0.001732006,-0.008793262,-28,45,83,9,-9
2,1693677657024442300,1.016338587,-0.842759013,10.25077438,-0.062485453,-0.001732006,-0.008526799,-19,38,91,10,-9
3,1693677657025442300,1.019929886,-0.845153213,10.24838066,-0.062485453,-0.001732006,-0.008393568,-23,39,89,12,-9
4,1693677657026442300,1.022324085,-0.848744512,10.24957752,-0.06261868,-0.001732006,-0.008393568,-22,41,87,10,-13
0,1693677657098428900,1.025915384,-0.851138711,10.27232265,-0.062085759,-0.001598775,-0.008526799,-28,42,80,10,-10
1,1693677657099428900,1.024718285,-0.848744512,10.26992798,-0.062085759,-0.001732006,-0.008660031,-32,43,86,8,-11
2,1693677657100428900,1.025915384,-0.851138711,10.26633644,-0.061952524,-0.001732006,-0.008526799,-19,50,86,7,-9
3,1693677657101428900,1.027112484,-0.849941611,10.26633644,-0.061952524,-0.001732006,-0.008526799,-23,39,88,11,-9
4,1693677657102428900,1.029506683,-0.848744512,10.26873112,-0.062085759,-0.001865237,-0.008526799,-23,35,90,8,-11
0,1693677657152460100,1.017535686,-0.85473001,10.26753426,-0.062352221,-0.001332312,-0.008926493,-23,41,83,10,-8
1,1693677657153460100,1.016338587,-0.85473001,10.26992798,-0.062218986,-0.001332312,-0.008926493,-19,34,81,10,-9
2,1693677657154460100,1.016338587,-0.85473001,10.26873112,-0.062485453,-0.001199081,-0.008926493,-28,42,85,7,-8
3,1693677657155460100,1.017535686,-0.852335811,10.26753426,-0.062352221,-0.001199081,-0.008926493,-29,40,88,4,-13
4,1693677657156460100,1.017535686,-0.852335811,10.26513958,-0.062352221,-0.001199081,-0.008926493,-28,33,86,7,-15
0,1693677657201519900,1.023521185,-0.849941611,10.26274586,-0.06261868,-0.001332312,-0.008526799,-20,48,87,7,-9
1,1693677657202519900,1.024718285,-0.849941611,10.26513958,-0.06261868,-0.001332312,-0.008526799,-27,38,88,4,-5
2,1693677657203519900,1.023521185,-0.848744512,10.26274586,-0.062485453,-0.001332312,-0.008526799,-26,45,88,8,-13
3,1693677657204519900,1.025915384,-0.85353291,10.26154804,-0.062218986,-0.001199081,-0.008526799,-31,38,83,7,-12
4,1693677657205519900,1.029506683,-0.852335811,10.26035118,-0.062218986,-0.001199081,-0.008260337,-33,29,81,10,-13
0,1693677657276477600,1.018732786,-0.857124209,10.25436592,-0.062218986,-0.001732006,-0.008127105,-19,42,90,6,-11
1,1693677657277477600,1.019929886,-0.858321309,10.25915432,-0.062218986,-0.001732006,-0.008127105,-16,45,86,8,-9
2,1693677657278477600,1.021126986,-0.858321309,10.26274586,-0.062218986,-0.001732006,-0.008260337,-26,46,77,10,-15
3,1693677657279477600,1.021126986,-0.858321309,10.26274586,-0.062352221,-0.001732006,-0.008127105,-24,40,83,10,-16
4,1693677657280477600,1.022324085,-0.858321309,10.25556278,-0.062218986,-0.001865237,-0.008260337,-30,45,85,7,-8
0,1693677657402436800,1.021126986,-0.845153213,10.24957752,-0.062218986,-0.001865237,-0.008260337,-22,48,90,6,-9
1,1693677657403436800,1.019929886,-0.849941611,10.25077438,-0.062218986,-0.001998469,-0.008127105,-27,45,87,4,-9
2,1693677657404436800,1.021126986,-0.847547412,10.24957752,-0.062352221,-0.001998469,-0.008260337,-28,35,87,-1,-13
3,1693677657405436800,1.023521185,-0.847547412,10.25436592,-0.062218986,-0.001998469,-0.008127105,-18,36,80,13,-7
4,1693677657406436800,1.021126986,-0.847547412,10.25436592,-0.062218986,-0.0021317,-0.008127105,-28,41,83,-1,-9
0,1693677657438415000,1.019929886,-0.849941611,10.25795746,-0.06261868,-0.001732006,-0.008926493,-28,41,84,4,-13
1,1693677657439415000,1.022324085,-0.848744512,10.26154804,-0.06261868,-0.001732006,-0.008793262,-26,34,88,7,-14
2,1693677657440415000,1.021126986,-0.846350312,10.26274586,-0.06261868,-0.001732006,-0.008793262,-33,35,84,6,-11
3,1693677657441415000,1.019929886,-0.847547412,10.26035118,-0.06261868,-0.001732006,-0.008660031,-26,46,83,7,-11
4,1693677657442415000,1.018732786,-0.847547412,10.26274586,-0.062485453,-0.001598775,-0.008526799,-24,46,85,6,-8
0,1693677657482428000,1.018732786,-0.846350312,10.26154804,-0.062085759,-0.001598775,-0.008393568,-21,39,76,7,-11
1,1693677657483428000,1.019929886,-0.845153213,10.26035118,-0.062085759,-0.001332312,-0.008393568,-25,37,83,9,-15
2,1693677657484428000,1.024718285,-0.843956113,10.26035118,-0.061819296,-0.001199081,-0.008260337,-28,37,85,3,-12
3,1693677657485428000,1.024718285,-0.842759013,10.26154804,-0.061952524,-0.001332312,-0.008393568,-23,33,81,10,-11
4,1693677657486428000,1.024718285,-0.842759013,10.26394272,-0.061819296,-0.001332312,-0.008393568,-28,41,76,8,-9
0,1693677657550389100,1.024718285,-0.851138711,10.26992798,-0.062352221,-0.001598775,-0.008793262,-25,47,85,8,-12
1,1693677657551389100,1.025915384,-0.852335811,10.26513958,-0.062352221,-0.001598775,-0.008793262,-28,39,83,-1,-13
2,1693677657552389100,1.027112484,-0.851138711,10.26394272,-0.062485453,-0.001598775,-0.008793262,-28,45,83,6,-12
3,1693677657553389100,1.030703783,-0.849941611,10.26633644,-0.062485453,-0.001732006,-0.008526799,-21,37,89,7,-11
4,1693677657554389100,1.029506683,-0.846350312,10.26633644,-0.062352221,-0.001598775,-0.008393568,-22,42,89,10,1
0,1693677657617348600,1.027112484,-0.846350312,10.26633644,-0.062352221,-0.001732006,-0.008660031,-27,41,85,12,-6
1,1693677657618348600,1.028309584,-0.846350312,10.26992798,-0.062352221,-0.001598775,-0.008793262,-31,39,90,11,-9
2,1693677657619348600,1.029506683,-0.847547412,10.26633644,-0.062352221,-0.001598775,-0.008926493,-26,47,89,10,-8
3,1693677657620348600,1.030703783,-0.846350312,10.26513958,-0.062352221,-0.001465544,-0.009059724,-21,47,90,13,-10
4,1693677657621348600,1.031900883,-0.843956113,10.26873112,-0.062485453,-0.001732006,-0.008926493,-24,45,89,10,-5
0,1693677657706299500,1.021126986,-0.845153213,10.26992798,-0.061952524,-0.001998469,-0.008393568,-31,41,79,10,-9
1,1693677657707299500,1.021126986,-0.843956113,10.26992798,-0.062085759,-0.001865237,-0.008393568,-19,43,90,7,-9
2,1693677657708299500,1.025915384,-0.843956113,10.27351952,-0.062085759,-0.001865237,-0.008260337,-20,51,89,12,-7
3,1693677657709299500,1.025915384,-0.846350312,10.27232265,-0.061952524,-0.001865237,-0.008393568,-19,41,89,13,-2
4,1693677657710299500,1.025915384,-0.845153213,10.27232265,-0.061819296,-0.001865237,-0.008660031,-38,41,90,13,-11
0,1693677657894209300,1.022324085,-0.848744512,10.25675964,-0.062085759,-0.001732006,-0.008660031,-25,42,84,11,-11
1,1693677657895209300,1.021126986,-0.848744512,10.25915432,-0.062085759,-0.001732006,-0.008660031,-23,42,90,13,-3
2,1693677657896209300,1.024718285,-0.849941611,10.26274586,-0.062218986,-0.001598775,-0.008393568,-18,46,90,11,-8
3,1693677657897209300,1.027112484,-0.847547412,10.26394272,-0.062352221,-0.001598775,-0.008260337,-18,46,88,6,-7
4,1693677657898209300,1.028309584,-0.846350312,10.26154804,-0.062352221,-0.001598775,-0.008526799,-23,46,88,10,-7
0,1693677657953175400,1.017535686,-0.864306808,10.25556278,-0.062218986,-0.001865237,-0.008926493,-22,41,90,9,-9
1,1693677657954175400,1.017535686,-0.860715508,10.25197124,-0.062352221,-0.001865237,-0.008793262,-18,42,90,12,-7
2,1693677657955175400,1.016338587,-0.857124209,10.25197124,-0.062352221,-0.001998469,-0.008926493,-18,46,87,10,-5
3,1693677657956175400,1.015141487,-0.857124209,10.25316906,-0.062352221,-0.0021317,-0.008793262,-39,45,90,11,-5
4,1693677657957175400,1.017535686,-0.858321309,10.25436592,-0.062352221,-0.0021317,-0.008793262,-25,39,87,9,-6
0,1693677657999149400,1.028309584,-0.85473001,10.26633644,-0.062485453,-0.001598775,-0.008526799,-22,40,90,10,-11
1,1693677658000149400,1.027112484,-0.85353291,10.26513958,-0.062352221,-0.001465544,-0.008393568,-10,53,90,10,-7
2,1693677658001149400,1.030703783,-0.852335811,10.26873112,-0.062218986,-0.001332312,-0.008127105,-24,46,89,6,-3
3,1693677658002149400,1.028309584,-0.852335811,10.26513958,-0.062352221,-0.001332312,-0.008260337,-23,41,85,12,-5
4,1693677658003149400,1.025915384,-0.852335811,10.26154804,-0.062352221,-0.001465544,-0.008260337,-27,44,83,6,-9
0,1693677658034128600,1.018732786,-0.85353291,10.25915432,-0.061819296,-0.001998469,-0.008793262,-26,47,92,13,-5
1,1693677658035128600,1.019929886,-0.852335811,10.26154804,-0.061686065,-0.001865237,-0.008793262,-24,51,91,13,-3
2,1693677658036128600,1.021126986,-0.85473001,10.26274586,-0.061686065,-0.001865237,-0.008793262,-25,43,83,13,-5
3,1693677658037128600,1.021126986,-0.85592711,10.26513958,-0.061686065,-0.001865237,-0.008660031,-22,41,88,11,-9
4,1693677658038128600,1.019929886,-0.85473001,10.26873112,-0.061686065,-0.001998469,-0.008660031,-27,41,87,10,-4
0,1693677658073107300,1.024718285,-0.849941611,10.26873112,-0.062352221,-0.0021317,-0.008526799,-22,42,85,10,-7
1,1693677658074107300,1.023521185,-0.848744512,10.27591324,-0.062352221,-0.0021317,-0.008526799,-22,46,90,10,-3
2,1693677658075107300,1.024718285,-0.849941611,10.27232265,-0.062352221,-0.001998469,-0.008660031,-22,46,87,11,-11
3,1693677658076107300,1.024718285,-0.848744512,10.27112484,-0.062218986,-0.001998469,-0.008526799,-16,37,79,10,-11
4,1693677658077107300,1.025915384,-0.847547412,10.26274586,-0.062485453,-0.001998469,-0.008526799,-31,51,89,12,-8
0,1693677658109086200,1.029506683,-0.843956113,10.24957752,-0.062218986,-0.001465544,-0.008660031,-23,45,89,13,-12
1,1693677658110086200,1.034295082,-0.847547412,10.25316906,-0.062085759,-0.001465544,-0.008660031,-21,39,87,13,-7
2,1693677658111086200,1.035492182,-0.848744512,10.25436592,-0.062085759,-0.001332312,-0.008526799,-18,43,86,10,-5
3,1693677658112086200,1.035492182,-0.852335811,10.25915432,-0.062085759,-0.001332312,-0.008660031,-12,41,85,12,-12
4,1693677658113086200,1.035492182,-0.848744512,10.25915432,-0.062085759,-0.001199081,-0.008526799,-20,42,84,11,-9
0,1693677658165084000,1.028309584,-0.851138711,10.26992798,-0.06261868,-0.001598775,-0.008526799,-29,39,90,8,-2
1,1693677658166084000,1.031900883,-0.85353291,10.26753426,-0.06261868,-0.001865237,-0.008660031,-17,45,93,7,-5
2,1693677658167084000,1.033097982,-0.85592711,10.26873112,-0.062485453,-0.001732006,-0.008660031,-32,38,87,11,-11
3,1693677658168084000,1.029506683,-0.85592711,10.27112484,-0.062485453,-0.001598775,-0.008660031,-26,42,90,12,-7
4,1693677658169084000,1.028309584,-0.857124209,10.26992798,-0.062352221,-0.001465544,-0.008793262,-20,46,91,11,-7
0,1693677658231047400,1.029506683,-0.848744512,10.27112484,-0.062352221,-0.001998469,-0.008127105,-27,43,79,10,-8
1,1693677658232047400,1.030703783,-0.848744512,10.27112484,-0.062218986,-0.001865237,-0.008127105,-27,45,88,6,-8
2,1693677658233047400,1.031900883,-0.852335811,10.27351952,-0.062218986,-0.001865237,-0.008260337,-27,37,76,4,-13
3,1693677658234047400,1.031900883,-0.852335811,10.27232265,-0.062218986,-0.001865237,-0.008393568,-28,41,86,4,-9
4,1693677658235047400,1.030703783,-0.851138711,10.27232265,-0.062218986,-0.001598775,-0.008526799,-27,42,85,6,-9
0,1693677658288015300,1.036689281,-0.843956113,10.26992798,-0.062352221,-0.001332312,-0.008660031,-24,39,87,8,-9
1,1693677658289015300,1.031900883,-0.843956113,10.26873112,-0.062218986,-0.001199081,-0.008793262,-26,39,84,2,-9
2,1693677658290015300,1.030703783,-0.843956113,10.26633644,-0.062218986,-0.001199081,-0.008793262,-26,38,86,6,-13
3,1693677658291015300,1.028309584,-0.842759013,10.26274586,-0.062218986,-0.00106585,-0.008793262,-21,37,85,8,-8
4,1693677658292015300,1.027112484,-0.845153213,10.25915432,-0.062352221,-0.00106585,-0.008660031,-31,39,80,13,-8
0,1693677658356974700,1.022324085,-0.843956113,10.25316906,-0.062218986,-0.001598775,-0.008127105,-22,46,84,4,-12
1,1693677658357974700,1.023521185,-0.847547412,10.24957752,-0.062218986,-0.001598775,-0.008393568,-27,45,81,3,-16
2,1693677658358974700,1.023521185,-0.852335811,10.25077438,-0.062218986,-0.001598775,-0.008260337,-28,38,85,8,-8
3,1693677658359974700,1.025915384,-0.851138711,10.25197124,-0.062352221,-0.001598775,-0.008260337,-31,45,79,2,-9
4,1693677658360974700,1.025915384,-0.849941611,10.24957752,-0.062218986,-0.001598775,-0.008393568,-22,41,79,2,-5
0,1693677658438927800,1.022324085,-0.849941611,10.25316906,-0.062485453,-0.001598775,-0.008660031,-23,38,80,7,-11
1,1693677658439927800,1.019929886,-0.849941611,10.25316906,-0.06261868,-0.001598775,-0.008526799,-28,35,80,8,-8
2,1693677658440927800,1.016338587,-0.845153213,10.24957752,-0.062485453,-0.001732006,-0.008660031,-29,43,87,2,-9
3,1693677658441927800,1.018732786,-0.840364814,10.24957752,-0.062352221,-0.001598775,-0.008526799,-23,42,85,12,-9
4,1693677658442927800,1.019929886,-0.837970614,10.25077438,-0.062218986,-0.001598775,-0.008526799,-30,43,84,13,-5
0,1693677658491896900,1.033097982,-0.845153213,10.26873112,-0.062352221,-0.001332312,-0.008793262,-31,35,84,7,-18
1,1693677658492896900,1.035492182,-0.845153213,10.27112484,-0.062352221,-0.00106585,-0.008793262,-26,39,77,12,-15
2,1693677658493896900,1.036689281,-0.847547412,10.26992798,-0.062352221,-0.001199081,-0.008793262,-24,34,80,7,-8
3,1693677658494896900,1.034295082,-0.847547412,10.26753426,-0.062352221,-0.001199081,-0.008793262,-22,48,84,3,-2
4,1693677658495896900,1.031900883,-0.842759013,10.26753426,-0.062352221,-0.001332312,-0.008660031,-31,45,84,13,-8
0,1693677658581846400,1.017535686,-0.846350312,10.25316906,-0.06261868,-0.001465544,-0.008793262,-31,39,83,10,-13
1,1693677658582846400,1.017535686,-0.845153213,10.25197124,-0.06261868,-0.001465544,-0.008793262,-23,43,84,3,-13
2,1693677658583846400,1.017535686,-0.843956113,10.25556278,-0.062485453,-0.001199081,-0.008793262,-30,43,85,10,-11
3,1693677658584846400,1.018732786,-0.846350312,10.25556278,-0.062352221,-0.001332312,-0.008793262,-28,42,89,2,-9
4,1693677658585846400,1.019929886,-0.847547412,10.25556278,-0.062218986,-0.001332312,-0.008660031,-24,41,85,8,-12
0,1693677658669795000,1.027112484,-0.845153213,10.26274586,-0.062085759,-0.002264931,-0.008127105,-32,37,87,5,-12
1,1693677658670795000,1.029506683,-0.842759013,10.26154804,-0.062352221,-0.0021317,-0.008127105,-25,41,81,12,-8
2,1693677658671795000,1.025915384,-0.843956113,10.26274586,-0.062352221,-0.0021317,-0.008127105,-22,39,79,8,-8
3,1693677658672795000,1.021126986,-0.845153213,10.26633644,-0.062218986,-0.001998469,-0.008127105,-26,57,92,23,-1
4,1693677658673795000,1.019929886,-0.845153213,10.26394272,-0.062352221,-0.001998469,-0.008260337,-27,35,80,10,-14
0,1693677658727761400,1.028309584,-0.840364814,10.26274586,-0.062485453,-0.001465544,-0.008260337,-24,39,81,6,-12
1,1693677658728761400,1.027112484,-0.841561913,10.25675964,-0.06261868,-0.001465544,-0.008393568,-22,44,80,2,-9
2,1693677658729761400,1.030703783,-0.840364814,10.25915432,-0.06261868,-0.001465544,-0.008393568,-19,38,86,10,-11
3,1693677658730761400,1.027112484,-0.842759013,10.26154804,-0.062751912,-0.001332312,-0.008393568,-6,42,88,4,-12
4,1693677658731761400,1.029506683,-0.843956113,10.26154804,-0.062751912,-0.001332312,-0.008526799,-31,32,87,4,-18
0,1693677658790725200,1.027112484,-0.85592711,10.26753426,-0.062352221,-0.001598775,-0.008660031,-27,38,75,3,-8
1,1693677658791725200,1.025915384,-0.85353291,10.26394272,-0.062218986,-0.001598775,-0.008793262,-22,45,83,6,-7
2,1693677658792725200,1.029506683,-0.85592711,10.26035118,-0.062218986,-0.001598775,-0.008793262,-22,43,89,3,-13
3,1693677658793725200,1.030703783,-0.858321309,10.26154804,-0.062218986,-0.001332312,-0.008793262,-28,41,85,9,-9
4,1693677658794725200,1.031900883,-0.85473001,10.25795746,-0.062352221,-0.001199081,-0.008793262,-33,33,75,3,-13
0,1693677658835700000,1.016338587,-0.846350312,10.25436592,-0.061952524,-0.001199081,-0.008793262,-24,45,84,10,-13
1,1693677658836700000,1.018732786,-0.846350312,10.25915432,-0.061952524,-0.001199081,-0.008793262,-20,44,85,7,-9
2,1693677658837700000,1.018732786,-0.847547412,10.26154804,-0.062085759,-0.00106585,-0.008926493,-31,45,89,6,-11
3,1693677658838700000,1.021126986,-0.848744512,10.26394272,-0.062085759,-0.00106585,-0.008926493,-30,38,83,6,-9
4,1693677658839700000,1.024718285,-0.849941611,10.25556278,-0.062085759,-0.001199081,-0.008926493,-23,33,87,4,-13
0,1693677658943638000,1.022324085,-0.85353291,10.25675964,-0.062218986,-0.001199081,-0.008660031,-23,41,80,12,-8
1,1693677658944638000,1.023521185,-0.85592711,10.26035118,-0.062218986,-0.001332312,-0.008526799,-33,37,90,4,-6
2,1693677658945638000,1.023521185,-0.85473001,10.26633644,-0.062218986,-0.001199081,-0.008660031,-25,39,83,12,-13
3,1693677658946638000,1.023521185,-0.858321309,10.26753426,-0.062218986,-0.001199081,-0.008793262,-30,34,85,1,-12
4,1693677658947638000,1.027112484,-0.857124209,10.26873112,-0.062218986,-0.001332312,-0.008926493,-27,36,79,8,-15
0,1693677659001444600,1.029506683,-0.851138711,10.25197124,-0.062218986,-0.001598775,-0.009059724,-26,43,84,3,-10
1,1693677659002444600,1.028309584,-0.85473001,10.25675964,-0.061819296,-0.001465544,-0.009059724,-29,41,86,6,-9
2,1693677659003444600,1.028309584,-0.852335811,10.24957752,-0.061952524,-0.001732006,-0.009059724,-24,33,85,3,-12
3,1693677659004444600,1.027112484,-0.85592711,10.25436592,-0.061686065,-0.001598775,-0.009059724,-27,41,83,11,-13
4,1693677659005444600,1.028309584,-0.857124209,10.24718285,-0.062085759,-0.001732006,-0.009059724,-27,39,85,11,-13
0,1693677659035424800,1.04147768,-0.849941611,10.25795746,-0.062218986,-0.001598775,-0.008660031,-24,35,85,10,-13
1,1693677659036424800,1.037886381,-0.849941611,10.25915432,-0.062218986,-0.001598775,-0.008793262,-24,35,83,8,-17
2,1693677659037424800,1.036689281,-0.851138711,10.25795746,-0.062352221,-0.001465544,-0.008660031,-33,35,75,10,-13
3,1693677659038424800,1.037886381,-0.849941611,10.25675964,-0.062352221,-0.001598775,-0.008526799,-22,41,88,8,-12
4,1693677659039424800,1.037886381,-0.849941611,10.25316906,-0.062352221,-0.001598775,-0.008526799,-21,37,83,9,-9
0,1693677659132481000,1.024718285,-0.847547412,10.25197124,-0.062218986,-0.00106585,-0.008926493,-23,37,83,3,-13
1,1693677659133481000,1.022324085,-0.848744512,10.25556278,-0.062085759,-0.001199081,-0.008793262,-32,37,81,2,-15
2,1693677659134481000,1.024718285,-0.846350312,10.24957752,-0.062085759,-0.001199081,-0.008660031,-11,51,99,29,11
3,1693677659135481000,1.025915384,-0.845153213,10.24957752,-0.062085759,-0.001199081,-0.008660031,-32,38,79,6,-12
4,1693677659136481000,1.024718285,-0.845153213,10.24598598,-0.062085759,-0.001199081,-0.008660031,-27,47,81,7,-7
0,1693677659188342400,1.021126986,-0.845153213,10.25915432,-0.061952524,-0.001732006,-0.008660031,-28,38,83,8,-11
1,1693677659189342400,1.022324085,-0.846350312,10.26394272,-0.061819296,-0.001732006,-0.008660031,-31,33,84,-1,-17
2,1693677659190342400,1.023521185,-0.846350312,10.26274586,-0.061952524,-0.001865237,-0.008660031,-28,39,79,-2,-12
3,1693677659191342400,1.024718285,-0.847547412,10.26633644,-0.061819296,-0.001865237,-0.008660031,-27,39,88,10,-12
4,1693677659192342400,1.024718285,-0.849941611,10.26633644,-0.061819296,-0.001865237,-0.008660031,-24,37,85,2,-11
0,1693677659222339000,1.018732786,-0.85353291,10.26274586,-0.061952524,-0.001865237,-0.008660031,-24,35,86,7,-9
1,1693677659223339000,1.018732786,-0.85353291,10.25556278,-0.062085759,-0.001732006,-0.008660031,-26,37,85,7,-10
2,1693677659224339000,1.019929886,-0.851138711,10.25556278,-0.062085759,-0.001732006,-0.008660031,-27,32,84,11,-9
3,1693677659225339000,1.016338587,-0.848744512,10.25436592,-0.062352221,-0.001732006,-0.008793262,-20,51,89,7,-8
4,1693677659226339000,1.017535686,-0.847547412,10.25675964,-0.062218986,-0.001732006,-0.008660031,-23,35,76,-4,-12
0,1693677659288079400,1.025915384,-0.851138711,10.25915432,-0.062485453,-0.001732006,-0.008660031,-23,42,83,8,-17
1,1693677659289079400,1.024718285,-0.847547412,10.25915432,-0.062352221,-0.001865237,-0.008660031,-35,34,78,6,-11
2,1693677659290079400,1.025915384,-0.847547412,10.26035118,-0.062218986,-0.001732006,-0.008793262,-21,43,81,7,-9
3,1693677659291079400,1.025915384,-0.845153213,10.25915432,-0.062218986,-0.001998469,-0.008793262,-24,44,87,13,-3
4,1693677659292079400,1.025915384,-0.843956113,10.26394272,-0.062218986,-0.001998469,-0.008660031,-27,39,86,8,-8
0,1693677659372961200,1.030703783,-0.845153213,10.25436592,-0.062352221,-0.001732006,-0.008526799,-24,37,75,7,-11
1,1693677659373961200,1.029506683,-0.843956113,10.25316906,-0.062218986,-0.001732006,-0.008526799,-23,43,85,5,-7
2,1693677659374961200,1.027112484,-0.847547412,10.26154804,-0.062218986,-0.001865237,-0.008526799,-24,43,87,11,-8
3,1693677659375961200,1.025915384,-0.848744512,10.26154804,-0.062352221,-0.001998469,-0.008660031,-22,37,81,7,-8
4,1693677659376961200,1.025915384,-0.848744512,10.25795746,-0.062485453,-0.001998469,-0.008660031,-24,45,83,8,-11
0,1693677659448492600,1.012747288,-0.852335811,10.26154804,-0.062218986,-0.001865237,-0.008526799,-26,38,80,5,-14
1,1693677659449492600,1.013944387,-0.852335811,10.26633644,-0.062085759,-0.001998469,-0.008526799,-20,43,87,10,-12
2,1693677659450492600,1.015141487,-0.852335811,10.26154804,-0.062218986,-0.001732006,-0.008660031,-17,33,90,7,-11
3,1693677659451492600,1.011550188,-0.849941611,10.25675964,-0.062218986,-0.001865237,-0.008660031,-20,34,83,6,-12
4,1693677659452492600,1.015141487,-0.848744512,10.26274586,-0.062218986,-0.001865237,-0.008660031,-27,45,87,8,-6
