timestamp,EMG_s0,EMG_s1,EMG_s2,EMG_s3,EMG_s4,EMG_s5,EMG_s6,EMG_s7
1.695160186969276e+18,-1.0,-2.0,-1.0,-1.0,-1.0,-1.0,3.0,2.0
1.695160186969276e+18,0.0,1.0,0.0,-1.0,3.0,2.0,2.0,2.0
1.6951601869702758e+18,-1.0,1.0,1.0,2.0,2.0,1.0,0.0,0.0
1.6951601869702758e+18,2.0,1.0,1.0,0.0,1.0,0.0,-1.0,-1.0
1.695160186973273e+18,1.0,1.0,3.0,0.0,1.0,1.0,-1.0,1.0
1.695160186973273e+18,2.0,2.0,1.0,1.0,-1.0,-1.0,-1.0,0.0
1.695160186974275e+18,2.0,-2.0,-2.0,0.0,0.0,-1.0,-1.0,0.0
1.695160186974275e+18,-2.0,-1.0,-1.0,-1.0,0.0,-1.0,0.0,1.0
1.6951601869882647e+18,0.0,1.0,0.0,0.0,0.0,0.0,0.0,0.0
1.6951601869892646e+18,1.0,-2.0,0.0,-1.0,-2.0,0.0,-1.0,-1.0
1.6951601869902643e+18,0.0,0.0,1.0,-1.0,0.0,0.0,-2.0,-2.0
1.695160186991264e+18,-1.0,0.0,-1.0,-1.0,-1.0,0.0,-1.0,0.0
1.6951601870132508e+18,-1.0,-1.0,-1.0,0.0,0.0,-1.0,-1.0,0.0
1.6951601870132508e+18,0.0,-1.0,-1.0,0.0,-1.0,-3.0,-1.0,0.0
1.6951601870152502e+18,-1.0,0.0,0.0,-1.0,-2.0,-1.0,2.0,0.0
1.6951601870152502e+18,-1.0,-2.0,0.0,0.0,0.0,0.0,0.0,0.0
1.6951601870422364e+18,0.0,-1.0,0.0,-3.0,-1.0,-2.0,-1.0,-1.0
1.695160187043234e+18,-1.0,0.0,-1.0,0.0,0.0,-2.0,0.0,0.0
1.6951601870442332e+18,1.0,1.0,0.0,1.0,0.0,-3.0,-1.0,0.0
1.6951601870442332e+18,0.0,-1.0,1.0,1.0,-1.0,-2.0,0.0,-1.0
1.6951601870442332e+18,-2.0,-1.0,-1.0,2.0,0.0,-1.0,0.0,0.0
1.6951601870452324e+18,-1.0,0.0,0.0,-3.0,-1.0,0.0,0.0,0.0
1.695160187075216e+18,0.0,-2.0,-3.0,-5.0,-1.0,-1.0,1.0,0.0
1.695160187075216e+18,-1.0,-1.0,-2.0,1.0,-6.0,-4.0,-2.0,-1.0
1.6951601870762156e+18,0.0,0.0,-3.0,-1.0,2.0,0.0,-1.0,-2.0
1.6951601870762156e+18,-2.0,0.0,0.0,-3.0,-2.0,0.0,-1.0,1.0
1.6951601870802125e+18,0.0,-1.0,-1.0,5.0,4.0,0.0,0.0,1.0
1.6951601870802125e+18,-1.0,-2.0,-2.0,-6.0,-4.0,1.0,-1.0,0.0
1.695160187082212e+18,0.0,0.0,-2.0,-3.0,-8.0,-3.0,-3.0,-1.0
1.6951601870832164e+18,0.0,-1.0,-2.0,3.0,-3.0,-1.0,-2.0,-3.0
1.6951601870922063e+18,0.0,-1.0,-2.0,-9.0,-6.0,-2.0,-1.0,0.0
1.6951601870922063e+18,0.0,1.0,-1.0,0.0,7.0,2.0,0.0,-2.0
1.6951601871012004e+18,-1.0,-2.0,-1.0,7.0,3.0,1.0,-1.0,-3.0
1.6951601871022e+18,-1.0,-1.0,-2.0,-2.0,-3.0,0.0,0.0,-1.0
1.6951601871161935e+18,-2.0,-2.0,0.0,-1.0,-4.0,-2.0,0.0,-1.0
1.6951601871161935e+18,1.0,-1.0,0.0,-3.0,-5.0,-2.0,-1.0,0.0
1.6951601871781563e+18,-1.0,0.0,-1.0,1.0,2.0,2.0,0.0,0.0
1.6951601871781563e+18,-1.0,-1.0,0.0,1.0,2.0,0.0,0.0,0.0
1.6951601871781563e+18,-2.0,0.0,-2.0,1.0,-1.0,0.0,1.0,0.0
1.6951601871791555e+18,-2.0,-2.0,0.0,-2.0,0.0,0.0,0.0,3.0
1.6951601871791555e+18,1.0,-1.0,2.0,-1.0,2.0,0.0,-1.0,1.0
1.6951601871791555e+18,2.0,0.0,1.0,0.0,0.0,0.0,-2.0,1.0
1.6951601871841528e+18,1.0,1.0,1.0,-1.0,-1.0,-3.0,-3.0,1.0
1.6951601871841528e+18,1.0,2.0,1.0,2.0,3.0,1.0,0.0,0.0
1.695160187186152e+18,-1.0,-1.0,0.0,-1.0,1.0,0.0,-1.0,-1.0
1.6951601871871514e+18,0.0,-1.0,-1.0,-1.0,-2.0,-2.0,0.0,-2.0
1.6951601871971448e+18,1.0,-1.0,1.0,-2.0,0.0,0.0,2.0,-1.0
1.6951601871981453e+18,1.0,0.0,-3.0,0.0,-1.0,-3.0,-1.0,-2.0
1.695160187213138e+18,-1.0,-2.0,-2.0,-3.0,-2.0,-1.0,1.0,-1.0
1.6951601872141366e+18,-1.0,1.0,1.0,1.0,-2.0,0.0,0.0,1.0
1.6951601872201341e+18,0.0,-1.0,2.0,2.0,0.0,0.0,-1.0,0.0
1.6951601872211343e+18,0.0,-1.0,-1.0,-1.0,0.0,0.0,1.0,0.0
1.6951601872281283e+18,0.0,2.0,-2.0,-1.0,-1.0,0.0,-1.0,1.0
1.695160187229128e+18,-3.0,-5.0,-1.0,-2.0,-1.0,-1.0,-1.0,-2.0
1.6951601872481165e+18,0.0,-1.0,0.0,-1.0,-1.0,-3.0,-1.0,1.0
1.6951601872481165e+18,-1.0,-1.0,1.0,3.0,2.0,2.0,1.0,0.0
1.6951601872481165e+18,-1.0,-1.0,-1.0,-1.0,1.0,0.0,0.0,1.0
1.6951601872491164e+18,-3.0,-1.0,-3.0,0.0,-2.0,0.0,-1.0,-1.0
1.6951601872661059e+18,-1.0,-2.0,-3.0,-3.0,-2.0,-1.0,-1.0,-2.0
1.6951601872661059e+18,-1.0,0.0,0.0,-5.0,-6.0,-3.0,-1.0,-2.0
1.695160187268105e+18,0.0,-1.0,-1.0,0.0,-2.0,-3.0,0.0,-2.0
1.695160187268105e+18,1.0,-2.0,2.0,0.0,0.0,0.0,3.0,0.0
1.6951601872880955e+18,-1.0,-2.0,0.0,0.0,-1.0,-1.0,-1.0,-3.0
1.6951601872890957e+18,-1.0,0.0,-1.0,2.0,-1.0,-1.0,1.0,1.0
1.6951601872900923e+18,-1.0,0.0,-2.0,-1.0,-2.0,0.0,-1.0,-1.0
1.6951601872900923e+18,1.0,1.0,-1.0,-1.0,2.0,-1.0,-1.0,0.0
1.6951601873100805e+18,1.0,5.0,1.0,4.0,3.0,3.0,1.0,2.0
1.6951601873100805e+18,-3.0,-3.0,-4.0,-2.0,-1.0,-1.0,-2.0,-3.0
1.695160187339064e+18,-2.0,-1.0,-2.0,-4.0,-5.0,-3.0,-2.0,-2.0
1.6951601873400643e+18,-1.0,-1.0,0.0,-3.0,-3.0,1.0,0.0,0.0
1.6951601873400643e+18,1.0,0.0,0.0,-2.0,1.0,0.0,0.0,0.0
1.6951601873400643e+18,0.0,1.0,3.0,1.0,2.0,0.0,-1.0,0.0
1.6951601873410637e+18,-1.0,-3.0,-2.0,-1.0,-3.0,-2.0,-3.0,1.0
1.6951601873410637e+18,1.0,3.0,-2.0,-3.0,-2.0,-3.0,-3.0,0.0
1.6951601873410637e+18,0.0,-2.0,0.0,2.0,0.0,-2.0,-1.0,-1.0
1.6951601873410637e+18,-1.0,-2.0,-2.0,0.0,0.0,1.0,3.0,0.0
1.6951601873500588e+18,-1.0,-3.0,-1.0,0.0,1.0,0.0,-1.0,0.0
1.6951601873500588e+18,-1.0,-2.0,0.0,-1.0,-2.0,-2.0,0.0,-2.0
1.6951601873720458e+18,-1.0,0.0,-3.0,-2.0,0.0,-1.0,-1.0,0.0
1.6951601873720458e+18,-1.0,-2.0,-3.0,-3.0,-6.0,-3.0,-1.0,-3.0
1.6951601873720458e+18,-2.0,-1.0,-3.0,1.0,-1.0,-1.0,-2.0,-4.0
1.695160187373045e+18,0.0,1.0,2.0,2.0,0.0,-1.0,-1.0,-1.0
1.6951601873970312e+18,-2.0,-4.0,-4.0,-6.0,-4.0,-5.0,-4.0,-2.0
1.6951601873970312e+18,-1.0,-1.0,-4.0,-4.0,-4.0,-2.0,-4.0,-3.0
1.6951601873970312e+18,1.0,1.0,1.0,3.0,0.0,-1.0,4.0,-1.0
1.6951601873970312e+18,-4.0,-3.0,-4.0,-3.0,-4.0,-2.0,-5.0,-3.0
1.695160187408025e+18,-2.0,-3.0,-3.0,-1.0,0.0,1.0,4.0,-2.0
1.695160187408025e+18,-2.0,-3.0,-3.0,-7.0,-4.0,-3.0,-5.0,-2.0
1.6951601874599954e+18,-2.0,1.0,2.0,1.0,1.0,-1.0,-1.0,0.0
1.6951601874599954e+18,-1.0,0.0,0.0,2.0,-1.0,2.0,-1.0,-2.0
1.6951601874599954e+18,-1.0,-2.0,-4.0,-1.0,0.0,-1.0,-3.0,-2.0
1.6951601874599954e+18,2.0,2.0,4.0,7.0,2.0,-1.0,-1.0,0.0
1.6951601874609946e+18,-4.0,-6.0,-2.0,-3.0,-2.0,0.0,0.0,-1.0
1.6951601874609946e+18,5.0,13.0,5.0,5.0,5.0,1.0,3.0,1.0
1.6951601874609946e+18,-5.0,-11.0,-4.0,-7.0,-5.0,-2.0,-2.0,-3.0
1.6951601874609946e+18,-1.0,-1.0,-1.0,-1.0,0.0,2.0,-1.0,-2.0
1.6951601874609946e+18,0.0,3.0,1.0,0.0,1.0,0.0,1.0,0.0
1.6951601874609946e+18,-3.0,-7.0,-3.0,-8.0,-8.0,-2.0,-1.0,-2.0
1.6951601874609946e+18,0.0,-1.0,0.0,3.0,0.0,-1.0,-1.0,-1.0
1.6951601874609946e+18,-1.0,-2.0,-1.0,-2.0,-1.0,0.0,-4.0,0.0
1.6951601875149637e+18,2.0,2.0,1.0,5.0,1.0,-3.0,-2.0,0.0
1.6951601875149637e+18,-4.0,-10.0,-11.0,-3.0,-3.0,-1.0,1.0,-1.0
1.6951601875149637e+18,-1.0,0.0,-2.0,-2.0,-2.0,-4.0,-9.0,-3.0
1.6951601875149637e+18,3.0,1.0,-3.0,1.0,1.0,0.0,7.0,4.0
1.6951601875159634e+18,-1.0,0.0,0.0,0.0,0.0,0.0,-3.0,-2.0
1.6951601875159634e+18,-1.0,-1.0,-2.0,-7.0,-6.0,-2.0,-2.0,-3.0
1.6951601875259597e+18,3.0,9.0,8.0,-1.0,-4.0,1.0,-1.0,1.0
1.6951601875259597e+18,0.0,-2.0,-4.0,-6.0,-5.0,-8.0,-2.0,-4.0
1.695160187526957e+18,-5.0,-14.0,1.0,10.0,4.0,3.0,0.0,-3.0
1.695160187526957e+18,-5.0,-11.0,-13.0,-6.0,-4.0,-6.0,-3.0,-4.0
1.695160187526957e+18,-4.0,-7.0,-6.0,-7.0,-4.0,1.0,-6.0,-3.0
1.695160187526957e+18,6.0,17.0,13.0,5.0,3.0,-1.0,6.0,3.0
1.6951601875289562e+18,-7.0,-14.0,-5.0,-1.0,-2.0,3.0,1.0,-3.0
1.6951601875289562e+18,2.0,6.0,-1.0,1.0,2.0,-3.0,-2.0,0.0
1.6951601875429473e+18,2.0,7.0,2.0,7.0,6.0,2.0,4.0,2.0
1.6951601875429473e+18,-2.0,-6.0,2.0,2.0,1.0,-1.0,-6.0,-4.0
1.695160187566934e+18,-2.0,3.0,-1.0,-9.0,-7.0,-7.0,-9.0,-2.0
1.695160187566934e+18,3.0,9.0,-3.0,2.0,2.0,8.0,11.0,2.0
1.6951601875679332e+18,-7.0,-21.0,-10.0,-2.0,3.0,-5.0,-11.0,-5.0
1.6951601875679332e+18,4.0,5.0,11.0,8.0,0.0,9.0,6.0,8.0
1.6951601875819254e+18,9.0,16.0,11.0,8.0,3.0,4.0,7.0,5.0
1.6951601875819254e+18,-7.0,-18.0,-7.0,-7.0,-4.0,-7.0,-14.0,-4.0
1.6951601875839245e+18,4.0,17.0,5.0,5.0,0.0,2.0,11.0,4.0
1.6951601875839245e+18,-7.0,-8.0,-3.0,0.0,-2.0,-8.0,-14.0,-8.0
1.6951601876338957e+18,3.0,9.0,6.0,8.0,4.0,-1.0,0.0,-1.0
1.6951601876338957e+18,4.0,5.0,-7.0,-20.0,-6.0,-2.0,0.0,0.0
1.6951601876338957e+18,-4.0,-6.0,1.0,0.0,-4.0,-4.0,-4.0,-3.0
1.6951601876338957e+18,-4.0,-7.0,-10.0,-3.0,-1.0,-4.0,-8.0,-3.0
1.6951601876428908e+18,1.0,0.0,3.0,0.0,0.0,0.0,3.0,1.0
1.6951601876428908e+18,1.0,3.0,3.0,5.0,-1.0,-3.0,-3.0,0.0
1.6951601876508854e+18,1.0,-1.0,5.0,3.0,2.0,4.0,2.0,2.0
1.6951601876508854e+18,0.0,6.0,-9.0,-11.0,-4.0,-4.0,-2.0,-1.0
1.6951601876508854e+18,-3.0,-1.0,-5.0,-8.0,-11.0,-8.0,-5.0,-4.0
1.695160187651885e+18,-2.0,-3.0,-4.0,-5.0,-2.0,1.0,5.0,-1.0
1.695160187694861e+18,3.0,5.0,-3.0,-13.0,-3.0,-2.0,-3.0,0.0
1.695160187694861e+18,-2.0,-11.0,-2.0,1.0,-1.0,1.0,1.0,-1.0
1.695160187694861e+18,-3.0,2.0,1.0,0.0,-1.0,-3.0,-3.0,0.0
1.695160187694861e+18,-7.0,-18.0,-9.0,9.0,3.0,2.0,-1.0,-2.0
1.6951601877038556e+18,-4.0,-6.0,-13.0,-19.0,-9.0,0.0,0.0,0.0
1.6951601877038556e+18,1.0,8.0,7.0,3.0,2.0,-5.0,-6.0,-2.0
1.695160187718847e+18,0.0,10.0,6.0,4.0,1.0,2.0,9.0,-1.0
1.695160187718847e+18,1.0,-5.0,-2.0,1.0,2.0,-4.0,-7.0,-1.0
1.695160187718847e+18,0.0,3.0,2.0,1.0,1.0,-3.0,-3.0,2.0
1.695160187719847e+18,-4.0,-14.0,0.0,2.0,1.0,1.0,5.0,0.0
1.6951601877218455e+18,4.0,-2.0,-8.0,-7.0,-3.0,-3.0,-2.0,0.0
1.6951601877218455e+18,-3.0,-5.0,0.0,4.0,1.0,-4.0,-5.0,-4.0
1.6951601877428342e+18,2.0,-3.0,1.0,3.0,2.0,6.0,6.0,1.0
1.6951601877478308e+18,5.0,16.0,6.0,-3.0,3.0,1.0,1.0,1.0
1.6951601877478308e+18,0.0,-6.0,-8.0,-2.0,2.0,5.0,7.0,3.0
1.6951601877478308e+18,-1.0,-2.0,-1.0,-6.0,-4.0,1.0,5.0,-3.0
1.6951601877578253e+18,-3.0,1.0,-6.0,-5.0,-5.0,-7.0,-7.0,-3.0
1.6951601877578253e+18,-2.0,-1.0,2.0,3.0,2.0,3.0,2.0,0.0
1.6951601877578253e+18,2.0,5.0,4.0,0.0,-1.0,1.0,0.0,-1.0
1.6951601877578253e+18,0.0,2.0,1.0,-4.0,-3.0,1.0,1.0,1.0
1.695160187758824e+18,0.0,3.0,2.0,5.0,4.0,5.0,1.0,-1.0
1.695160187758824e+18,1.0,8.0,0.0,-2.0,0.0,0.0,4.0,0.0
1.695160187770817e+18,-2.0,-4.0,-3.0,0.0,-2.0,-2.0,-3.0,-1.0
1.695160187770817e+18,-1.0,4.0,8.0,2.0,-1.0,-3.0,-4.0,-2.0
1.695160187770817e+18,0.0,0.0,-2.0,-4.0,-5.0,-6.0,-5.0,-3.0
1.6951601877718167e+18,-1.0,-1.0,-3.0,-1.0,-1.0,1.0,4.0,5.0
1.6951601877978022e+18,-2.0,-5.0,-6.0,-5.0,-3.0,-2.0,-12.0,-2.0
1.6951601877978022e+18,-1.0,-2.0,-3.0,-1.0,-2.0,-4.0,-1.0,0.0
1.695160187811794e+18,-3.0,-3.0,-7.0,-3.0,-6.0,1.0,11.0,0.0
1.695160187811794e+18,1.0,-2.0,0.0,1.0,3.0,4.0,2.0,-2.0
1.6951601878127933e+18,2.0,-2.0,2.0,1.0,1.0,-1.0,11.0,3.0
1.6951601878127933e+18,2.0,0.0,0.0,-4.0,-5.0,-6.0,-12.0,-2.0
1.6951601878367795e+18,-2.0,-5.0,-7.0,-4.0,-2.0,-9.0,-14.0,-3.0
1.6951601878367795e+18,-3.0,-6.0,-5.0,2.0,1.0,11.0,0.0,-1.0
1.6951601878437755e+18,-1.0,0.0,5.0,5.0,2.0,-12.0,-12.0,-3.0
1.6951601878437755e+18,0.0,2.0,-4.0,-1.0,3.0,8.0,16.0,3.0
1.6951601878467753e+18,3.0,2.0,1.0,-6.0,-5.0,-9.0,-5.0,0.0
1.6951601878477732e+18,-1.0,-1.0,-1.0,-5.0,-6.0,6.0,6.0,-3.0
1.6951601878667622e+18,-1.0,1.0,6.0,2.0,-10.0,-16.0,-2.0,-1.0
1.6951601878667622e+18,1.0,3.0,-7.0,-4.0,4.0,8.0,0.0,-1.0
1.6951601878677635e+18,2.0,0.0,5.0,-1.0,24.0,15.0,2.0,-2.0
1.6951601878687634e+18,3.0,-3.0,6.0,1.0,-13.0,-18.0,-7.0,3.0
1.6951601878747584e+18,-1.0,-6.0,-16.0,-11.0,3.0,36.0,6.0,-1.0
1.6951601878757576e+18,-1.0,-2.0,1.0,-1.0,-29.0,-48.0,2.0,-3.0
1.6951601878757576e+18,-4.0,1.0,16.0,3.0,-12.0,12.0,1.0,-4.0
1.6951601878757576e+18,0.0,2.0,-6.0,14.0,58.0,18.0,19.0,5.0
1.695160187903741e+18,1.0,0.0,-9.0,-1.0,14.0,6.0,5.0,3.0
1.6951601879047409e+18,2.0,1.0,-9.0,-14.0,2.0,23.0,1.0,1.0
1.6951601879057398e+18,-3.0,-1.0,1.0,-7.0,-16.0,-9.0,3.0,1.0
1.6951601879057398e+18,-2.0,1.0,9.0,-4.0,-28.0,-17.0,-22.0,-8.0
1.695160187908739e+18,-1.0,1.0,4.0,10.0,-1.0,-8.0,0.0,1.0
1.695160187909738e+18,-3.0,-4.0,-2.0,-2.0,2.0,-2.0,-4.0,-2.0
1.695160187911737e+18,2.0,-1.0,-6.0,-4.0,-7.0,-19.0,-14.0,-3.0
1.695160187911737e+18,0.0,-1.0,0.0,-6.0,-6.0,-4.0,-2.0,1.0
1.6951601879257285e+18,-2.0,3.0,19.0,5.0,0.0,2.0,-10.0,-5.0
1.6951601879257285e+18,-2.0,-1.0,-18.0,1.0,10.0,11.0,1.0,1.0
1.6951601879277266e+18,-4.0,-4.0,1.0,4.0,-5.0,-2.0,2.0,-1.0
1.6951601879277266e+18,-2.0,0.0,3.0,-3.0,-4.0,-1.0,-9.0,-3.0
1.6951601879477158e+18,1.0,-1.0,4.0,-9.0,-6.0,-15.0,-6.0,-4.0
1.6951601879477158e+18,1.0,-1.0,-7.0,11.0,11.0,16.0,7.0,4.0
1.695160187970702e+18,3.0,0.0,-1.0,13.0,18.0,15.0,10.0,5.0
1.695160187970702e+18,-7.0,-10.0,-11.0,-4.0,-13.0,-9.0,-10.0,-10.0
1.695160187971702e+18,-2.0,-1.0,11.0,-2.0,-8.0,-7.0,-7.0,-4.0
1.695160187971702e+18,1.0,-1.0,17.0,-6.0,-6.0,-6.0,-2.0,0.0
1.6951601879956887e+18,1.0,-5.0,-43.0,-13.0,10.0,7.0,14.0,5.0
1.6951601879956887e+18,0.0,-4.0,8.0,10.0,-1.0,0.0,-4.0,0.0
1.6951601879966904e+18,2.0,-3.0,-3.0,11.0,6.0,7.0,5.0,1.0
1.6951601879966904e+18,-4.0,-3.0,15.0,-4.0,5.0,5.0,2.0,0.0
1.6951601880436616e+18,1.0,1.0,-17.0,-11.0,-11.0,-14.0,-11.0,-4.0
1.6951601880436616e+18,-2.0,2.0,1.0,-7.0,1.0,3.0,19.0,2.0
1.6951601880436616e+18,1.0,2.0,-16.0,-11.0,-5.0,4.0,3.0,2.0
1.6951601880436616e+18,-3.0,2.0,3.0,17.0,0.0,-15.0,-28.0,-10.0
1.6951601880436616e+18,2.0,3.0,17.0,-8.0,-6.0,19.0,47.0,8.0
1.6951601880436616e+18,0.0,3.0,11.0,20.0,10.0,2.0,-1.0,0.0
1.6951601880526556e+18,-2.0,-4.0,-10.0,-4.0,-6.0,-3.0,8.0,2.0
1.6951601880536558e+18,2.0,1.0,2.0,10.0,2.0,2.0,4.0,2.0
1.6951601880536558e+18,-4.0,0.0,-7.0,-9.0,-3.0,-12.0,-23.0,-6.0
1.6951601880536558e+18,-1.0,-2.0,-4.0,-10.0,-2.0,2.0,3.0,0.0
1.6951601880536558e+18,1.0,3.0,16.0,20.0,12.0,4.0,-2.0,-7.0
1.6951601880536558e+18,-2.0,-1.0,-14.0,-11.0,-6.0,0.0,-8.0,6.0
1.6951601880556544e+18,1.0,2.0,19.0,7.0,-2.0,-7.0,-6.0,-1.0
1.6951601880566536e+18,0.0,-3.0,-41.0,-33.0,-4.0,0.0,-6.0,-1.0
1.6951601880716447e+18,0.0,0.0,9.0,-5.0,-6.0,-15.0,-27.0,-6.0
1.695160188072644e+18,-3.0,-1.0,9.0,1.0,-5.0,14.0,40.0,2.0
1.695160188072644e+18,-3.0,-4.0,0.0,-2.0,-2.0,-6.0,-34.0,-9.0
1.695160188072644e+18,-1.0,0.0,-4.0,-7.0,-2.0,2.0,26.0,7.0
1.6951601880836383e+18,2.0,1.0,-8.0,2.0,2.0,5.0,8.0,0.0
1.6951601880846395e+18,-2.0,-1.0,1.0,6.0,-4.0,-9.0,-11.0,-6.0
1.69516018811362e+18,0.0,0.0,0.0,-10.0,1.0,2.0,-1.0,2.0
1.6951601881146204e+18,1.0,4.0,23.0,13.0,-1.0,-3.0,-14.0,-6.0
1.6951601881146204e+18,0.0,-3.0,-37.0,-21.0,-1.0,-1.0,0.0,4.0
1.6951601881146204e+18,2.0,1.0,12.0,8.0,1.0,-3.0,-2.0,-1.0
1.695160188116619e+18,-3.0,-1.0,3.0,9.0,3.0,-3.0,-8.0,-3.0
1.6951601881176192e+18,-1.0,1.0,10.0,19.0,1.0,-2.0,-9.0,0.0
1.6951601881436032e+18,-2.0,-2.0,1.0,-9.0,-5.0,0.0,8.0,2.0
1.6951601881436032e+18,5.0,3.0,6.0,1.0,10.0,8.0,1.0,1.0
1.695160188144603e+18,-2.0,-7.0,-4.0,13.0,-8.0,-6.0,-1.0,-2.0
1.695160188144603e+18,-2.0,-5.0,-13.0,-35.0,-4.0,-1.0,-6.0,-1.0
1.6951601881825818e+18,-1.0,2.0,9.0,7.0,3.0,2.0,8.0,2.0
1.6951601881825818e+18,-1.0,2.0,-4.0,-22.0,-6.0,-6.0,-4.0,-3.0
1.6951601881845804e+18,0.0,-6.0,-14.0,-10.0,0.0,5.0,9.0,3.0
1.6951601881845804e+18,-1.0,2.0,12.0,22.0,2.0,-7.0,-7.0,-3.0
1.6951601881845804e+18,-5.0,-8.0,-4.0,0.0,-1.0,-5.0,-11.0,-2.0
1.6951601881845804e+18,0.0,0.0,-11.0,-21.0,-1.0,-1.0,-3.0,0.0
1.6951601881965732e+18,3.0,5.0,-23.0,-9.0,-1.0,8.0,18.0,3.0
1.6951601881965732e+18,-1.0,-9.0,23.0,32.0,-1.0,-2.0,-2.0,-3.0
1.6951601882025695e+18,-3.0,-3.0,-12.0,-18.0,-4.0,0.0,2.0,0.0
1.6951601882025695e+18,-3.0,-5.0,-2.0,0.0,3.0,-1.0,-2.0,-3.0
1.6951601882305546e+18,2.0,5.0,39.0,20.0,4.0,-2.0,-7.0,0.0
1.6951601882305546e+18,0.0,-1.0,-44.0,-21.0,-7.0,-3.0,-3.0,-1.0
1.6951601882305546e+18,-3.0,-3.0,9.0,10.0,0.0,-4.0,-1.0,-4.0
1.6951601882305546e+18,-1.0,-1.0,6.0,10.0,-2.0,6.0,13.0,6.0
1.695160188231554e+18,1.0,5.0,5.0,1.0,4.0,-2.0,-7.0,1.0
1.695160188231554e+18,-1.0,3.0,8.0,20.0,9.0,3.0,-2.0,1.0
1.6951601882405476e+18,-3.0,-4.0,-5.0,-17.0,-8.0,-4.0,-5.0,-4.0
1.6951601882415496e+18,-2.0,-3.0,-18.0,-8.0,0.0,4.0,8.0,0.0
1.6951601882425485e+18,0.0,-4.0,12.0,13.0,3.0,0.0,0.0,-2.0
1.6951601882425485e+18,2.0,5.0,-3.0,-19.0,-10.0,-7.0,-13.0,-4.0
1.695160188247543e+18,-4.0,-3.0,1.0,-9.0,1.0,0.0,-15.0,-3.0
1.695160188247543e+18,0.0,-1.0,7.0,45.0,-3.0,-6.0,-5.0,-3.0
1.6951601882685322e+18,-1.0,-2.0,-22.0,-19.0,-1.0,1.0,6.0,-3.0
1.6951601882685322e+18,-1.0,-3.0,-2.0,-20.0,-5.0,1.0,9.0,6.0
1.6951601882855224e+18,1.0,1.0,-5.0,-3.0,2.0,3.0,-1.0,1.0
1.6951601882865224e+18,2.0,1.0,2.0,-7.0,1.0,0.0,-8.0,-2.0
1.695160188288521e+18,-1.0,1.0,3.0,6.0,-1.0,-3.0,-2.0,-3.0
1.695160188288521e+18,-4.0,-6.0,-5.0,-7.0,-7.0,-6.0,-15.0,-4.0
1.6951601882935183e+18,1.0,2.0,11.0,12.0,2.0,-2.0,3.0,2.0
1.6951601882935183e+18,2.0,1.0,-3.0,-15.0,-1.0,4.0,9.0,3.0
1.6951601882955167e+18,-1.0,-1.0,6.0,23.0,1.0,-2.0,-6.0,-2.0
1.6951601882955167e+18,-2.0,1.0,0.0,-2.0,-1.0,-6.0,-10.0,-5.0
1.6951601883065106e+18,0.0,1.0,0.0,3.0,-1.0,1.0,-3.0,0.0
1.69516018830751e+18,-2.0,-3.0,-3.0,-5.0,-3.0,-3.0,0.0,-2.0
1.6951601883165048e+18,-1.0,1.0,-2.0,-6.0,2.0,6.0,6.0,2.0
1.6951601883165048e+18,0.0,1.0,2.0,-6.0,-2.0,-5.0,-15.0,-5.0
1.6951601883304975e+18,0.0,-1.0,0.0,12.0,1.0,12.0,37.0,7.0
1.6951601883314964e+18,-2.0,-1.0,-4.0,-5.0,-4.0,-11.0,-28.0,-9.0
1.695160188333499e+18,-1.0,0.0,6.0,4.0,0.0,1.0,2.0,1.0
1.695160188333499e+18,0.0,-1.0,0.0,2.0,1.0,1.0,3.0,1.0
1.695160188353484e+18,0.0,0.0,-4.0,-11.0,-4.0,-1.0,-1.0,1.0
1.695160188353484e+18,0.0,-2.0,0.0,7.0,0.0,-2.0,0.0,0.0
1.6951601883544835e+18,-1.0,-2.0,-3.0,-5.0,-3.0,-4.0,-3.0,-2.0
1.6951601883554826e+18,2.0,0.0,1.0,7.0,0.0,2.0,2.0,1.0
1.6951601883754706e+18,-1.0,1.0,-2.0,-2.0,-1.0,-2.0,-3.0,-2.0
1.6951601883764705e+18,0.0,-1.0,-2.0,-6.0,-2.0,1.0,3.0,1.0
1.695160188378469e+18,-2.0,-3.0,-2.0,-3.0,-2.0,-4.0,-8.0,-3.0
1.695160188378469e+18,0.0,1.0,0.0,0.0,-1.0,2.0,7.0,1.0
1.6951601883914624e+18,0.0,1.0,5.0,6.0,-1.0,-3.0,-4.0,-3.0
1.6951601883914624e+18,-1.0,-1.0,-2.0,-5.0,-1.0,-1.0,3.0,-1.0
1.6951601883924613e+18,-1.0,-1.0,-2.0,-5.0,-2.0,-2.0,-3.0,-2.0
1.6951601883924613e+18,2.0,1.0,4.0,4.0,3.0,6.0,19.0,3.0
1.6951601884124493e+18,-1.0,-1.0,-7.0,-4.0,0.0,-1.0,0.0,0.0
1.6951601884124493e+18,-3.0,-1.0,4.0,1.0,0.0,-3.0,-1.0,0.0
1.6951601884204452e+18,2.0,-1.0,-2.0,-7.0,-3.0,-1.0,-2.0,1.0
1.6951601884214454e+18,0.0,1.0,3.0,13.0,7.0,-1.0,-2.0,-1.0
1.6951601884594227e+18,-1.0,0.0,4.0,8.0,2.0,0.0,-4.0,-1.0
1.6951601884604221e+18,-1.0,0.0,-4.0,-4.0,5.0,4.0,1.0,0.0
1.695160188461424e+18,-3.0,0.0,-7.0,-14.0,-3.0,-2.0,-2.0,1.0
1.695160188461424e+18,-1.0,-1.0,1.0,-2.0,-2.0,-1.0,2.0,1.0
1.695160188462422e+18,-1.0,0.0,0.0,-7.0,-5.0,-3.0,0.0,-1.0
1.695160188462422e+18,0.0,-2.0,1.0,12.0,7.0,0.0,-3.0,-1.0
1.6951601884664195e+18,-1.0,0.0,-2.0,-2.0,0.0,0.0,0.0,-1.0
1.6951601884664195e+18,-3.0,0.0,-3.0,-2.0,-3.0,0.0,0.0,-1.0
1.6951601884804111e+18,-3.0,-2.0,1.0,0.0,-1.0,-2.0,0.0,-2.0
1.695160188481411e+18,-1.0,3.0,0.0,-8.0,-7.0,-2.0,-1.0,-1.0
1.6951601884834094e+18,-2.0,-3.0,-1.0,4.0,0.0,-2.0,-1.0,-2.0
1.6951601884834094e+18,0.0,-3.0,-2.0,1.0,1.0,-1.0,2.0,-3.0
1.695160188504397e+18,-2.0,-3.0,2.0,6.0,1.0,-1.0,-3.0,-3.0
1.695160188504397e+18,0.0,-1.0,-4.0,-7.0,-2.0,0.0,-2.0,0.0
1.695160188505397e+18,1.0,2.0,0.0,1.0,2.0,1.0,-1.0,-1.0
1.695160188505397e+18,0.0,-1.0,-3.0,-2.0,-3.0,0.0,-1.0,-2.0
1.6951601885253847e+18,2.0,0.0,3.0,5.0,1.0,0.0,0.0,-2.0
1.6951601885283835e+18,-1.0,-4.0,-1.0,-2.0,-3.0,-1.0,-1.0,-2.0
1.6951601885293847e+18,0.0,-1.0,-1.0,0.0,-1.0,-1.0,-2.0,0.0
1.6951601885293847e+18,1.0,2.0,-3.0,-4.0,-3.0,-1.0,-1.0,1.0
1.6951601885343798e+18,0.0,0.0,-2.0,1.0,1.0,0.0,0.0,1.0
1.6951601885343798e+18,-1.0,-1.0,-1.0,-3.0,-4.0,-2.0,1.0,-2.0
1.6951601885353797e+18,-1.0,2.0,0.0,3.0,0.0,-2.0,-1.0,-2.0
1.6951601885353797e+18,-1.0,0.0,1.0,-1.0,-2.0,1.0,2.0,-1.0
1.6951601885633638e+18,-1.0,-2.0,-5.0,-2.0,-1.0,-2.0,-2.0,-1.0
1.6951601885633638e+18,2.0,-1.0,-5.0,-11.0,0.0,0.0,-1.0,0.0
1.6951601885723587e+18,-4.0,-4.0,6.0,9.0,2.0,-2.0,-2.0,-1.0
1.6951601885723587e+18,-1.0,-3.0,-3.0,-11.0,-3.0,-4.0,-2.0,-1.0
1.6951601885723587e+18,0.0,0.0,0.0,4.0,0.0,-2.0,-2.0,-3.0
1.695160188575357e+18,0.0,0.0,-3.0,-8.0,-5.0,-3.0,-1.0,-1.0
1.6951601885773558e+18,3.0,-1.0,-3.0,-2.0,-2.0,0.0,1.0,-1.0
1.6951601885773558e+18,-3.0,-3.0,-1.0,6.0,2.0,2.0,-2.0,-1.0
1.695160188593346e+18,1.0,-1.0,-5.0,0.0,-1.0,0.0,1.0,2.0
1.695160188593346e+18,-3.0,0.0,2.0,-4.0,2.0,-2.0,-2.0,-3.0
1.6951601885943455e+18,0.0,-1.0,7.0,14.0,-2.0,-1.0,-1.0,0.0
1.695160188595345e+18,-2.0,0.0,0.0,3.0,-3.0,-2.0,0.0,-1.0
1.6951601886073382e+18,-1.0,0.0,-2.0,-2.0,0.0,-1.0,-1.0,-1.0
1.6951601886083382e+18,0.0,-3.0,0.0,11.0,3.0,1.0,-1.0,-1.0
1.6951601886323249e+18,0.0,-1.0,-3.0,-14.0,-5.0,-3.0,1.0,-2.0
1.6951601886323249e+18,0.0,1.0,3.0,7.0,0.0,-3.0,-1.0,1.0
1.6951601886363215e+18,0.0,3.0,-2.0,-5.0,-2.0,0.0,-2.0,-1.0
1.6951601886363215e+18,2.0,7.0,0.0,-1.0,-2.0,-2.0,-1.0,0.0
1.6951601886363215e+18,-5.0,-8.0,2.0,-2.0,1.0,-1.0,-3.0,-3.0
1.6951601886373207e+18,-2.0,-12.0,-5.0,5.0,3.0,1.0,-1.0,-1.0
1.695160188655311e+18,-1.0,0.0,-1.0,-7.0,-2.0,-1.0,-1.0,-1.0
1.6951601886563103e+18,-1.0,0.0,1.0,3.0,0.0,2.0,3.0,1.0
1.6951601886563103e+18,1.0,2.0,-4.0,-6.0,-2.0,-1.0,-1.0,0.0
1.6951601886563103e+18,1.0,3.0,-3.0,-7.0,-4.0,-1.0,-4.0,0.0
1.695160188667304e+18,-2.0,2.0,2.0,3.0,-1.0,0.0,1.0,-1.0
1.695160188667304e+18,-3.0,-5.0,0.0,2.0,0.0,-1.0,-1.0,0.0
1.6951601886772977e+18,-2.0,2.0,-4.0,-3.0,0.0,-1.0,-3.0,0.0
1.695160188678297e+18,-1.0,0.0,1.0,-2.0,1.0,1.0,1.0,-1.0
1.695160188700707e+18,2.0,0.0,-2.0,1.0,2.0,2.0,1.0,2.0
1.695160188700707e+18,0.0,-1.0,0.0,-3.0,-2.0,-3.0,2.0,0.0
1.695160188700707e+18,1.0,-1.0,-2.0,-2.0,0.0,-2.0,0.0,0.0
1.695160188700707e+18,2.0,1.0,0.0,-1.0,-6.0,-4.0,-4.0,1.0
1.6951601887426857e+18,-4.0,-2.0,0.0,0.0,5.0,4.0,5.0,1.0
1.6951601887436823e+18,-2.0,-3.0,-2.0,-4.0,-6.0,-4.0,-3.0,-2.0
1.6951601887446848e+18,-2.0,-1.0,-1.0,-2.0,0.0,-1.0,-1.0,1.0
1.6951601887446848e+18,-1.0,0.0,0.0,0.0,2.0,1.0,2.0,-1.0
1.6951601887446848e+18,0.0,-1.0,0.0,-1.0,-3.0,0.0,-2.0,-2.0
1.6951601887446848e+18,-1.0,-2.0,0.0,1.0,3.0,-2.0,-3.0,-1.0
1.6951601887606715e+18,0.0,1.0,0.0,-2.0,0.0,1.0,1.0,1.0
1.6951601887606715e+18,0.0,1.0,0.0,-5.0,0.0,-1.0,-1.0,-1.0
1.6951601887606715e+18,-1.0,-2.0,-1.0,-2.0,-3.0,-2.0,-2.0,-1.0
1.695160188761695e+18,-1.0,1.0,0.0,4.0,0.0,-1.0,-1.0,-1.0
1.6951601887736655e+18,1.0,-1.0,-1.0,0.0,0.0,1.0,0.0,1.0
1.6951601887746634e+18,-2.0,0.0,0.0,-5.0,0.0,-1.0,0.0,1.0
1.6951601887746634e+18,-2.0,-1.0,0.0,-1.0,0.0,-2.0,-3.0,-1.0
1.6951601887746634e+18,-2.0,0.0,-1.0,-1.0,-2.0,-1.0,-1.0,0.0
1.6951601887766623e+18,-1.0,-1.0,0.0,0.0,-1.0,0.0,-1.0,-1.0
1.6951601887766623e+18,0.0,-2.0,-1.0,-1.0,-2.0,-1.0,-1.0,-1.0
1.6951601887956577e+18,1.0,-3.0,0.0,0.0,0.0,0.0,-2.0,-3.0
1.6951601887966528e+18,-3.0,-1.0,-1.0,-1.0,1.0,0.0,2.0,0.0
1.695160188797651e+18,-1.0,-1.0,-1.0,-2.0,-3.0,0.0,-2.0,0.0
1.695160188797651e+18,-1.0,0.0,-1.0,-1.0,-1.0,0.0,1.0,-3.0
1.6951601888466222e+18,1.0,-1.0,-2.0,-2.0,-2.0,-3.0,0.0,-2.0
1.6951601888466222e+18,0.0,-1.0,-2.0,-1.0,-2.0,-1.0,-3.0,-2.0
1.6951601888466222e+18,-1.0,0.0,-1.0,1.0,2.0,1.0,-1.0,-2.0
1.695160188847622e+18,-1.0,0.0,0.0,0.0,-1.0,0.0,0.0,0.0
1.695160188847622e+18,-1.0,-1.0,0.0,-1.0,-3.0,-1.0,-1.0,-1.0
1.695160188847622e+18,-2.0,-1.0,-1.0,-1.0,0.0,0.0,0.0,-2.0
1.6951601888496212e+18,-2.0,-2.0,-1.0,-1.0,-1.0,-2.0,0.0,-1.0
1.6951601888496212e+18,0.0,1.0,-2.0,-2.0,-1.0,-3.0,-2.0,-1.0
1.6951601888506204e+18,-3.0,-2.0,-1.0,-1.0,-2.0,-1.0,0.0,0.0
1.6951601888506204e+18,1.0,0.0,-1.0,0.0,1.0,1.0,-1.0,0.0
1.6951601888636127e+18,0.0,-1.0,-1.0,0.0,-1.0,-1.0,1.0,0.0
1.6951601888636127e+18,-1.0,-1.0,0.0,-2.0,-1.0,-1.0,1.0,-1.0
1.6951601888856003e+18,-1.0,0.0,1.0,2.0,-1.0,-1.0,0.0,-1.0
1.6951601888856003e+18,-1.0,-1.0,-3.0,2.0,-1.0,-1.0,0.0,-2.0
1.695160188887603e+18,-1.0,-1.0,-2.0,0.0,-2.0,-1.0,0.0,-1.0
1.695160188887603e+18,0.0,-2.0,0.0,-1.0,-2.0,1.0,-1.0,-2.0
1.6951601889095885e+18,-1.0,0.0,-3.0,-3.0,-3.0,-1.0,-2.0,1.0
1.6951601889095885e+18,-1.0,-2.0,-1.0,-1.0,-3.0,-1.0,-1.0,0.0
1.6951601889106117e+18,-1.0,-2.0,-1.0,2.0,0.0,-1.0,0.0,-1.0
1.6951601889106117e+18,-1.0,-2.0,-1.0,0.0,-1.0,-1.0,-1.0,-1.0
1.6951601889115965e+18,-1.0,-2.0,-1.0,0.0,0.0,-1.0,-2.0,-2.0
1.6951601889115965e+18,0.0,1.0,-1.0,0.0,1.0,-1.0,-1.0,0.0
1.6951601889305733e+18,-1.0,-1.0,-1.0,-2.0,0.0,1.0,-2.0,0.0
1.6951601889305733e+18,-1.0,-1.0,-1.0,1.0,-2.0,1.0,-1.0,0.0
1.695160188931576e+18,-1.0,-1.0,1.0,-1.0,-1.0,-1.0,0.0,-1.0
1.695160188931576e+18,0.0,-1.0,-1.0,1.0,-2.0,-2.0,-1.0,-2.0
1.6951601889445673e+18,0.0,1.0,0.0,-1.0,-1.0,-1.0,-1.0,0.0
1.6951601889445673e+18,0.0,-1.0,-1.0,-2.0,-2.0,-1.0,0.0,-1.0
1.6951601889685755e+18,-1.0,-1.0,-1.0,-1.0,0.0,0.0,-1.0,-1.0
1.695160188969555e+18,-1.0,-1.0,-1.0,-1.0,-1.0,0.0,0.0,0.0
1.6951601889705546e+18,0.0,-2.0,-3.0,0.0,-2.0,-1.0,-1.0,1.0
1.6951601889705546e+18,-2.0,0.0,1.0,0.0,0.0,0.0,-1.0,1.0
1.6951601889715515e+18,0.0,0.0,0.0,-1.0,-2.0,-1.0,0.0,0.0
1.6951601889715515e+18,0.0,0.0,-1.0,1.0,-3.0,-2.0,-1.0,0.0
1.6951601889765504e+18,-1.0,-1.0,-2.0,-1.0,-2.0,-1.0,-1.0,-2.0
1.6951601889765504e+18,-1.0,-1.0,-1.0,-1.0,1.0,-1.0,0.0,0.0
1.6951601889905403e+18,0.0,-1.0,0.0,0.0,0.0,-2.0,-2.0,-1.0
1.6951601889905403e+18,-2.0,0.0,-1.0,-1.0,-1.0,-1.0,-1.0,-1.0
1.695160189013526e+18,0.0,-1.0,0.0,-2.0,-1.0,-1.0,0.0,0.0
1.6951601890145308e+18,-2.0,2.0,0.0,-1.0,1.0,-1.0,-1.0,0.0
1.6951601890145308e+18,-1.0,0.0,-1.0,-1.0,0.0,-1.0,0.0,0.0
1.6951601890145308e+18,-1.0,1.0,0.0,1.0,-1.0,-1.0,-1.0,0.0
1.6951601890165256e+18,0.0,1.0,0.0,-1.0,-1.0,-2.0,-1.0,0.0
1.6951601890165256e+18,0.0,-1.0,-2.0,0.0,-1.0,0.0,0.0,0.0
1.695160189035514e+18,-1.0,-1.0,-3.0,0.0,-2.0,1.0,-1.0,-1.0
1.695160189035514e+18,0.0,-2.0,-1.0,-1.0,1.0,-1.0,-1.0,-2.0
1.6951601890375158e+18,-1.0,0.0,-2.0,0.0,0.0,-1.0,0.0,-1.0
1.6951601890375158e+18,0.0,0.0,-2.0,0.0,-1.0,-4.0,-1.0,-3.0
1.6951601890585208e+18,0.0,0.0,0.0,0.0,1.0,-1.0,-2.0,-1.0
1.6951601890585208e+18,-1.0,0.0,-1.0,0.0,-1.0,0.0,0.0,-1.0
1.6951601890595005e+18,-1.0,-2.0,0.0,-1.0,0.0,0.0,-1.0,-1.0
1.6951601890595005e+18,-2.0,-2.0,0.0,1.0,0.0,-1.0,1.0,-1.0
1.6951601890734948e+18,-1.0,-1.0,0.0,-1.0,-1.0,0.0,-2.0,0.0
1.6951601890734948e+18,-1.0,-2.0,0.0,-2.0,-1.0,-2.0,2.0,-1.0
1.6951601890754947e+18,-1.0,0.0,-1.0,-1.0,0.0,0.0,1.0,-1.0
1.6951601890754947e+18,0.0,0.0,-1.0,-1.0,-2.0,0.0,0.0,0.0
1.6951601890944832e+18,0.0,-1.0,-1.0,-1.0,0.0,-2.0,-1.0,0.0
1.6951601890944832e+18,-1.0,-1.0,0.0,-2.0,1.0,-1.0,0.0,-1.0
1.6951601891024758e+18,-1.0,1.0,1.0,0.0,0.0,-1.0,-2.0,-1.0
1.6951601891024758e+18,-1.0,-1.0,1.0,-1.0,0.0,-2.0,0.0,0.0
1.6951601891184673e+18,-2.0,-2.0,0.0,-1.0,-2.0,-2.0,0.0,0.0
1.6951601891184673e+18,1.0,-1.0,-2.0,-2.0,-1.0,-1.0,-1.0,-1.0
1.6951601891204664e+18,0.0,-1.0,-2.0,-1.0,0.0,-1.0,0.0,-3.0
1.6951601891204664e+18,1.0,0.0,-2.0,0.0,0.0,0.0,-1.0,0.0
1.6951601891324585e+18,1.0,-1.0,0.0,0.0,-2.0,0.0,-1.0,-1.0
1.6951601891334612e+18,-1.0,0.0,0.0,-1.0,-1.0,-1.0,-2.0,-1.0
1.6951601891414554e+18,0.0,0.0,-1.0,0.0,0.0,0.0,1.0,-1.0
1.6951601891414554e+18,-2.0,-1.0,-1.0,-1.0,-1.0,-1.0,0.0,-1.0
1.6951601891554455e+18,-1.0,-2.0,-1.0,-1.0,-1.0,-1.0,2.0,-2.0
1.6951601891554455e+18,-1.0,0.0,0.0,1.0,-1.0,0.0,0.0,0.0
1.6951601891624417e+18,-1.0,-1.0,-1.0,-1.0,-1.0,0.0,-1.0,0.0
1.6951601891624417e+18,-1.0,-1.0,0.0,-2.0,-1.0,-1.0,-1.0,0.0
1.695160189170437e+18,-1.0,-1.0,-1.0,-1.0,-1.0,0.0,0.0,1.0
1.695160189170437e+18,-2.0,-1.0,-1.0,0.0,-1.0,-1.0,-1.0,-1.0
1.6951601891844296e+18,-1.0,0.0,0.0,-3.0,0.0,-1.0,2.0,-1.0
1.6951601891844296e+18,0.0,-2.0,-2.0,-1.0,-2.0,-1.0,-1.0,-2.0
1.6951601892004204e+18,0.0,-1.0,-1.0,-1.0,-2.0,-1.0,-2.0,0.0
1.6951601892004204e+18,-1.0,-2.0,1.0,-2.0,-2.0,-1.0,-1.0,-2.0
1.6951601892014208e+18,-1.0,-2.0,-1.0,-1.0,-1.0,-1.0,-2.0,-1.0
1.6951601892014208e+18,-1.0,0.0,0.0,-1.0,2.0,0.0,-2.0,-1.0
1.695160189254389e+18,0.0,-1.0,-2.0,0.0,0.0,-2.0,0.0,-2.0
1.6951601892553887e+18,0.0,-2.0,-1.0,1.0,-1.0,0.0,0.0,0.0
1.6951601892563878e+18,-1.0,0.0,0.0,-1.0,-2.0,-2.0,-2.0,0.0
1.6951601892563878e+18,0.0,-1.0,-1.0,-1.0,0.0,1.0,-1.0,-1.0
1.6951601892573875e+18,0.0,-1.0,-2.0,-1.0,-1.0,0.0,-1.0,-1.0
1.6951601892573875e+18,-2.0,-1.0,0.0,-2.0,-1.0,0.0,-1.0,0.0
1.695160189263384e+18,-1.0,-1.0,-1.0,-1.0,-1.0,-1.0,-1.0,-1.0
1.6951601892733793e+18,-1.0,-2.0,0.0,0.0,-3.0,-1.0,-1.0,-1.0
1.6951601892733793e+18,-1.0,1.0,0.0,1.0,1.0,-2.0,-1.0,-2.0
1.6951601892733793e+18,-2.0,0.0,-1.0,-2.0,1.0,-2.0,0.0,1.0
1.6951601892913682e+18,-1.0,-2.0,1.0,-2.0,-1.0,0.0,-1.0,-1.0
1.6951601892923681e+18,1.0,0.0,-1.0,0.0,0.0,-1.0,-1.0,-1.0
1.6951601892933676e+18,-2.0,-1.0,-2.0,0.0,1.0,0.0,-2.0,1.0
1.6951601892933676e+18,1.0,-1.0,-2.0,-1.0,1.0,-1.0,-1.0,-2.0
1.6951601892943672e+18,-1.0,-1.0,0.0,-1.0,-3.0,-3.0,-1.0,0.0
1.6951601892943672e+18,-2.0,-1.0,-3.0,-1.0,0.0,0.0,-2.0,0.0
1.695160189300363e+18,0.0,-2.0,-1.0,-1.0,0.0,-2.0,-1.0,-1.0
1.6951601893013632e+18,-1.0,0.0,0.0,1.0,0.0,-1.0,-1.0,0.0
1.6951601893133555e+18,0.0,-1.0,-1.0,-2.0,-1.0,-1.0,0.0,-1.0
1.6951601893133555e+18,0.0,-1.0,0.0,0.0,-1.0,-1.0,-2.0,-1.0
1.695160189315354e+18,-1.0,1.0,-1.0,0.0,-1.0,1.0,1.0,-1.0
1.695160189315354e+18,-1.0,-1.0,-1.0,-2.0,-1.0,-1.0,1.0,0.0
1.6951601893423396e+18,-1.0,0.0,-1.0,-2.0,-1.0,-1.0,0.0,0.0
1.6951601893433388e+18,0.0,0.0,0.0,-1.0,-2.0,-1.0,-1.0,0.0
1.6951601893603282e+18,0.0,-2.0,0.0,2.0,-2.0,0.0,0.0,-2.0
1.6951601893603282e+18,-1.0,0.0,-1.0,-1.0,0.0,0.0,-1.0,-1.0
1.6951601893613279e+18,-3.0,0.0,0.0,-1.0,-2.0,1.0,-2.0,-1.0
1.6951601893613279e+18,-1.0,-2.0,-2.0,-1.0,-1.0,-1.0,0.0,-1.0
1.6951601893893115e+18,0.0,-1.0,-1.0,-3.0,-1.0,0.0,-2.0,0.0
1.6951601893893115e+18,2.0,0.0,1.0,-2.0,-1.0,-1.0,0.0,-1.0
1.6951601893903117e+18,0.0,-2.0,-1.0,-2.0,1.0,-1.0,-1.0,0.0
1.6951601893903117e+18,-1.0,-1.0,-1.0,-1.0,-1.0,-2.0,-1.0,-1.0
1.6951601893913108e+18,-2.0,0.0,-3.0,-1.0,-1.0,0.0,1.0,0.0
1.6951601893913108e+18,-1.0,1.0,0.0,0.0,-1.0,-1.0,-2.0,0.0
1.695160189398309e+18,-2.0,-1.0,-1.0,2.0,-1.0,-2.0,0.0,-1.0
1.695160189398309e+18,1.0,-1.0,-1.0,-1.0,1.0,0.0,2.0,-2.0
1.695160189398309e+18,-1.0,-2.0,-2.0,-1.0,0.0,-3.0,-1.0,-1.0
1.695160189398309e+18,-1.0,-1.0,-1.0,0.0,-2.0,-1.0,0.0,-2.0
1.6951601894182948e+18,1.0,-1.0,-3.0,0.0,-2.0,0.0,-2.0,-1.0
1.6951601894182948e+18,-3.0,-1.0,1.0,-1.0,-2.0,0.0,-3.0,-1.0
1.6951601894202941e+18,-1.0,1.0,0.0,1.0,-1.0,-1.0,0.0,-1.0
1.6951601894202941e+18,-4.0,-1.0,0.0,0.0,0.0,-1.0,-1.0,-2.0
1.6951601894342863e+18,-1.0,-1.0,0.0,-1.0,1.0,-1.0,0.0,-1.0
1.6951601894342863e+18,-1.0,-1.0,0.0,0.0,-1.0,-1.0,-1.0,-2.0
1.6951601894352858e+18,-1.0,0.0,-1.0,-1.0,-1.0,1.0,-2.0,-2.0
1.6951601894352858e+18,-1.0,-2.0,0.0,0.0,-2.0,0.0,-1.0,1.0
1.695160189471265e+18,-2.0,-1.0,-2.0,-1.0,-2.0,0.0,0.0,0.0
1.6951601894722642e+18,-1.0,0.0,-1.0,-2.0,0.0,0.0,-1.0,-1.0
1.6951601894722642e+18,0.0,-1.0,0.0,1.0,-1.0,-2.0,0.0,-1.0
1.6951601894722642e+18,0.0,-1.0,1.0,1.0,1.0,0.0,-1.0,-2.0
1.695160189486257e+18,-1.0,-2.0,-2.0,-2.0,0.0,-1.0,-1.0,0.0
1.695160189486257e+18,0.0,0.0,-1.0,0.0,-2.0,-1.0,-1.0,0.0
1.6951601894882557e+18,0.0,-1.0,-1.0,-1.0,1.0,0.0,-2.0,0.0
1.6951601894882557e+18,2.0,-3.0,-3.0,0.0,0.0,1.0,-2.0,-1.0
1.6951601895012477e+18,0.0,-1.0,-1.0,1.0,0.0,-1.0,0.0,0.0
1.6951601895012477e+18,0.0,-1.0,-3.0,-2.0,0.0,0.0,0.0,0.0
1.6951601895022477e+18,0.0,1.0,1.0,-2.0,-2.0,0.0,-1.0,-1.0
1.6951601895022477e+18,-1.0,-1.0,-1.0,-3.0,-2.0,-1.0,0.0,-1.0
1.6951601895272328e+18,-1.0,-1.0,1.0,-1.0,-1.0,-2.0,-1.0,-2.0
1.6951601895282332e+18,0.0,0.0,-1.0,0.0,0.0,-2.0,-1.0,-1.0
1.6951601895282332e+18,-1.0,-1.0,-1.0,-1.0,-1.0,-2.0,1.0,0.0
1.6951601895292316e+18,-2.0,-1.0,-1.0,-2.0,0.0,-1.0,0.0,0.0
1.695160189538227e+18,0.0,-1.0,-1.0,-1.0,-1.0,-1.0,-2.0,-1.0
1.6951601895392266e+18,-2.0,-1.0,-1.0,-1.0,-1.0,-1.0,-2.0,0.0
1.695160189542225e+18,0.0,-2.0,0.0,0.0,-2.0,-1.0,-1.0,-1.0
1.695160189542225e+18,-1.0,-1.0,-3.0,-1.0,-1.0,-1.0,0.0,0.0
1.6951601895612127e+18,-2.0,-1.0,-1.0,-1.0,0.0,1.0,1.0,-1.0
1.6951601895612127e+18,-1.0,0.0,0.0,-1.0,1.0,-2.0,1.0,-2.0
1.6951601895632123e+18,-1.0,-1.0,0.0,-1.0,-1.0,-1.0,-1.0,1.0
1.6951601895632123e+18,0.0,1.0,-1.0,1.0,-1.0,-1.0,-1.0,-1.0
1.695160189575205e+18,-2.0,-1.0,-1.0,-1.0,1.0,0.0,0.0,0.0
1.695160189575205e+18,-1.0,-2.0,-1.0,-1.0,-3.0,0.0,-1.0,0.0
1.695160189576205e+18,-3.0,1.0,-2.0,0.0,-1.0,-2.0,-1.0,-1.0
1.695160189576205e+18,-1.0,0.0,1.0,-1.0,-2.0,0.0,-1.0,0.0
1.6951601896051873e+18,0.0,-1.0,-1.0,-1.0,-1.0,1.0,-2.0,-1.0
1.6951601896061883e+18,0.0,-2.0,-1.0,-2.0,-1.0,-1.0,-1.0,1.0
1.6951601896061883e+18,-1.0,-3.0,-1.0,0.0,1.0,-1.0,-1.0,0.0
1.6951601896061883e+18,-1.0,0.0,-1.0,0.0,1.0,0.0,-2.0,-1.0
1.6951601896141824e+18,0.0,-1.0,0.0,-2.0,-2.0,0.0,-1.0,0.0
1.6951601896141824e+18,-1.0,-1.0,0.0,-2.0,0.0,0.0,0.0,-1.0
1.695160189615182e+18,0.0,0.0,0.0,-3.0,-1.0,-1.0,-1.0,-2.0
1.695160189615182e+18,-2.0,-1.0,0.0,1.0,-1.0,-2.0,0.0,-1.0
1.6951601896371717e+18,-1.0,-1.0,-1.0,-1.0,-2.0,-1.0,0.0,-1.0
1.6951601896371717e+18,-2.0,0.0,-1.0,0.0,-1.0,-1.0,0.0,0.0
1.6951601896371717e+18,-1.0,1.0,-1.0,-2.0,-2.0,-1.0,1.0,0.0
1.6951601896371717e+18,0.0,0.0,0.0,0.0,-1.0,1.0,0.0,-1.0
1.695160189660157e+18,0.0,-1.0,-2.0,-1.0,-1.0,0.0,-1.0,0.0
1.6951601896611566e+18,0.0,0.0,-1.0,0.0,-1.0,-3.0,-2.0,0.0
1.6951601896611566e+18,1.0,-1.0,0.0,0.0,0.0,-2.0,-1.0,-1.0
1.6951601896611566e+18,1.0,0.0,-1.0,-1.0,-2.0,-2.0,-1.0,0.0
1.6951601896831442e+18,-1.0,-2.0,-1.0,0.0,0.0,-2.0,-1.0,-1.0
1.695160189684143e+18,-1.0,0.0,-2.0,-2.0,0.0,0.0,-2.0,-1.0
1.695160189684143e+18,0.0,-2.0,-3.0,0.0,-2.0,-1.0,0.0,1.0
1.6951601896851423e+18,-1.0,-1.0,0.0,-1.0,0.0,-3.0,-1.0,-1.0
1.695160189695136e+18,-1.0,1.0,-1.0,0.0,1.0,0.0,0.0,1.0
1.6951601896961362e+18,0.0,-1.0,-1.0,1.0,-2.0,-1.0,-1.0,-1.0
1.6951601896961362e+18,-1.0,1.0,-1.0,0.0,0.0,0.0,-2.0,-1.0
1.6951601896961362e+18,0.0,-1.0,-1.0,-1.0,0.0,0.0,-2.0,-1.0
1.6951601897171244e+18,0.0,0.0,-2.0,-2.0,-2.0,-3.0,-1.0,0.0
1.6951601897181235e+18,-1.0,1.0,0.0,0.0,1.0,1.0,-1.0,-1.0
1.6951601897421112e+18,0.0,-3.0,0.0,-1.0,-1.0,-1.0,-1.0,-1.0
1.6951601897421112e+18,0.0,-1.0,-1.0,0.0,-2.0,-1.0,0.0,-1.0
1.6951601897431094e+18,0.0,-2.0,-1.0,-1.0,0.0,1.0,-1.0,-2.0
1.6951601897441083e+18,0.0,-1.0,0.0,-1.0,-2.0,-3.0,1.0,1.0
1.6951601897441083e+18,0.0,-2.0,-1.0,-2.0,0.0,0.0,-1.0,-2.0
1.6951601897441083e+18,-2.0,-1.0,-1.0,-1.0,0.0,0.0,0.0,0.0
1.695160189763097e+18,0.0,0.0,0.0,-1.0,-3.0,0.0,0.0,1.0
1.695160189763097e+18,1.0,-1.0,-1.0,0.0,-2.0,0.0,-2.0,0.0
1.695160189764097e+18,0.0,-1.0,0.0,-1.0,0.0,0.0,-1.0,0.0
1.695160189764097e+18,1.0,0.0,-1.0,-1.0,-1.0,-1.0,0.0,-3.0
1.6951601897770895e+18,0.0,0.0,0.0,-1.0,0.0,-2.0,0.0,0.0
1.6951601897780905e+18,-2.0,-2.0,0.0,0.0,0.0,-1.0,-1.0,-2.0
1.6951601897780905e+18,-1.0,-2.0,1.0,-2.0,0.0,0.0,0.0,-1.0
1.6951601897780905e+18,-2.0,-1.0,-1.0,-1.0,-2.0,-1.0,-3.0,-1.0
1.6951601898030756e+18,-1.0,0.0,-1.0,0.0,-2.0,-1.0,-2.0,-2.0
1.6951601898030756e+18,0.0,-1.0,-1.0,0.0,0.0,0.0,-2.0,-1.0
1.6951601898030756e+18,0.0,0.0,-1.0,0.0,-2.0,0.0,-2.0,0.0
1.695160189804075e+18,0.0,-1.0,-1.0,-2.0,-1.0,0.0,-2.0,1.0
1.6951601898150687e+18,-1.0,-1.0,0.0,2.0,1.0,0.0,-1.0,-1.0
1.695160189816068e+18,0.0,-1.0,0.0,-1.0,0.0,-1.0,-1.0,0.0
1.6951601898170673e+18,-1.0,-4.0,-1.0,-1.0,-2.0,-1.0,-2.0,-1.0
1.6951601898170673e+18,0.0,-2.0,0.0,0.0,-1.0,1.0,-2.0,0.0
1.69516018984605e+18,-1.0,0.0,-1.0,-2.0,-2.0,1.0,-2.0,0.0
1.69516018984605e+18,-1.0,-2.0,0.0,-2.0,-1.0,0.0,-1.0,-1.0
1.69516018984605e+18,0.0,-1.0,0.0,-1.0,-1.0,-1.0,-1.0,-1.0
1.6951601898470515e+18,0.0,-1.0,1.0,-2.0,-1.0,-2.0,1.0,-1.0
1.6951601898540472e+18,-1.0,-1.0,-1.0,0.0,-1.0,0.0,-1.0,-1.0
1.695160189860043e+18,-1.0,0.0,-1.0,-1.0,-1.0,2.0,1.0,-2.0
1.6951601898650455e+18,-3.0,0.0,-1.0,-1.0,-1.0,0.0,-2.0,-1.0
1.6951601898660393e+18,-1.0,-1.0,-3.0,0.0,1.0,-1.0,1.0,0.0
1.6951601898750339e+18,0.0,0.0,-2.0,-2.0,-2.0,0.0,-1.0,0.0
1.6951601898760333e+18,-1.0,0.0,-2.0,-1.0,2.0,0.0,0.0,-1.0
1.6951601898900252e+18,-2.0,0.0,-3.0,1.0,0.0,-1.0,-1.0,0.0
1.6951601898910254e+18,-2.0,0.0,1.0,1.0,-2.0,0.0,0.0,-1.0
1.6951601899220073e+18,-2.0,-2.0,-1.0,-2.0,-1.0,0.0,0.0,0.0
1.6951601899220073e+18,-1.0,0.0,-1.0,0.0,-4.0,-1.0,-2.0,-1.0
1.695160189923007e+18,-1.0,0.0,-1.0,-1.0,-1.0,-2.0,-1.0,0.0
1.695160189923007e+18,-1.0,0.0,-2.0,0.0,0.0,-2.0,1.0,0.0
1.695160189923007e+18,0.0,-2.0,-2.0,0.0,-1.0,-1.0,0.0,-1.0
1.6951601899250058e+18,-1.0,-1.0,0.0,-3.0,0.0,0.0,-1.0,0.0
1.6951601899250058e+18,-1.0,-1.0,-1.0,-1.0,1.0,0.0,-1.0,-1.0
1.6951601899260052e+18,-1.0,-1.0,0.0,0.0,-1.0,0.0,-1.0,-1.0
1.695160189935999e+18,0.0,-1.0,1.0,1.0,-1.0,-1.0,0.0,0.0
1.695160189935999e+18,-2.0,-1.0,-1.0,0.0,-1.0,-2.0,-2.0,1.0
1.6951601899369997e+18,0.0,0.0,-1.0,0.0,-2.0,-1.0,0.0,-1.0
1.6951601899369997e+18,-1.0,-1.0,-3.0,-1.0,0.0,-1.0,-2.0,0.0
1.6951601899579868e+18,-1.0,-1.0,0.0,-2.0,-1.0,0.0,0.0,-1.0
1.6951601899579868e+18,-1.0,-1.0,0.0,0.0,-1.0,0.0,-1.0,1.0
1.6951601899589857e+18,0.0,-1.0,-2.0,-1.0,0.0,0.0,0.0,-2.0
1.6951601899589857e+18,0.0,-1.0,0.0,-1.0,0.0,1.0,-2.0,0.0
1.6951601899789745e+18,-3.0,0.0,-2.0,-1.0,-1.0,-1.0,-2.0,-1.0
1.6951601899819732e+18,-1.0,1.0,-1.0,-1.0,-1.0,0.0,0.0,0.0
1.695160189982972e+18,-1.0,0.0,-1.0,0.0,-2.0,0.0,-2.0,-1.0
1.6951601899839718e+18,-1.0,-1.0,0.0,-1.0,-2.0,-1.0,0.0,-1.0
1.6951601899949645e+18,1.0,0.0,0.0,0.0,0.0,-1.0,0.0,-3.0
1.6951601899959642e+18,-1.0,0.0,-1.0,-1.0,-1.0,0.0,-1.0,-1.0
1.6951601899959642e+18,0.0,0.0,-2.0,0.0,-2.0,-1.0,-1.0,0.0
1.6951601899959642e+18,0.0,0.0,0.0,-1.0,-1.0,-2.0,0.0,-2.0
1.6951601900179515e+18,1.0,-1.0,0.0,-2.0,-1.0,-2.0,-3.0,0.0
1.6951601900179515e+18,-1.0,-1.0,-2.0,-1.0,0.0,0.0,1.0,0.0
1.6951601900179515e+18,0.0,-1.0,-2.0,-1.0,1.0,-1.0,0.0,-2.0
1.6951601900189512e+18,0.0,-2.0,-3.0,-1.0,0.0,-1.0,-1.0,0.0
1.695160190048935e+18,0.0,-2.0,0.0,0.0,0.0,0.0,0.0,-2.0
1.6951601900499338e+18,-1.0,-1.0,-2.0,-2.0,-1.0,-1.0,-1.0,-2.0
1.6951601900499338e+18,-2.0,-1.0,-2.0,-2.0,0.0,-1.0,-2.0,-2.0
1.6951601900519327e+18,-2.0,-3.0,-1.0,-3.0,-2.0,0.0,-1.0,-2.0
1.6951601900549307e+18,-2.0,0.0,-1.0,1.0,-1.0,-3.0,0.0,0.0
1.69516019005593e+18,0.0,-3.0,-1.0,1.0,-2.0,-1.0,-2.0,-1.0
1.69516019005593e+18,-1.0,-3.0,-1.0,2.0,0.0,-1.0,-1.0,-1.0
1.69516019005593e+18,0.0,0.0,-1.0,-1.0,-2.0,-1.0,-1.0,-3.0
1.6951601900859123e+18,-2.0,-1.0,-1.0,-1.0,0.0,-1.0,-1.0,-2.0
1.6951601900859123e+18,-2.0,2.0,-3.0,1.0,0.0,-2.0,0.0,-3.0
1.6951601900859123e+18,-1.0,0.0,0.0,-2.0,-1.0,-1.0,0.0,-2.0
1.695160190086913e+18,-1.0,-1.0,0.0,1.0,3.0,0.0,0.0,0.0
1.695160190102903e+18,-2.0,-1.0,0.0,1.0,1.0,-1.0,0.0,-1.0
1.6951601901039025e+18,2.0,-2.0,1.0,-1.0,-1.0,-3.0,0.0,-3.0
1.6951601901039025e+18,-1.0,-2.0,0.0,1.0,0.0,-1.0,-2.0,0.0
1.6951601901039025e+18,1.0,-2.0,1.0,0.0,0.0,-3.0,-1.0,0.0
1.6951601901238912e+18,0.0,-1.0,-2.0,-1.0,0.0,-2.0,-3.0,0.0
1.6951601901238912e+18,-1.0,0.0,-1.0,0.0,0.0,0.0,0.0,-2.0
1.6951601901238912e+18,-1.0,0.0,0.0,-1.0,0.0,1.0,0.0,0.0
1.6951601901248916e+18,-1.0,-2.0,-1.0,-2.0,-1.0,1.0,-1.0,-1.0
1.6951601901458785e+18,0.0,-2.0,0.0,1.0,0.0,1.0,0.0,0.0
1.6951601901458785e+18,-1.0,-1.0,-1.0,-1.0,-2.0,-1.0,-2.0,0.0
1.6951601901468774e+18,0.0,0.0,-1.0,-1.0,1.0,-2.0,0.0,-1.0
1.6951601901468774e+18,-3.0,-1.0,0.0,0.0,2.0,-2.0,0.0,-2.0
1.6951601901538742e+18,1.0,1.0,0.0,-1.0,-1.0,-1.0,1.0,-2.0
1.6951601901648678e+18,0.0,-2.0,0.0,-2.0,1.0,2.0,1.0,2.0
1.695160190165868e+18,-1.0,-2.0,3.0,-1.0,0.0,0.0,2.0,2.0
1.6951601901668677e+18,1.0,3.0,2.0,1.0,1.0,0.0,-1.0,1.0
1.6951601901908534e+18,1.0,1.0,3.0,0.0,0.0,-1.0,-1.0,0.0
1.6951601901918533e+18,1.0,1.0,2.0,0.0,0.0,0.0,-1.0,-2.0
1.6951601901918533e+18,0.0,1.0,-2.0,-1.0,-1.0,0.0,-1.0,-1.0
1.6951601901928517e+18,0.0,-1.0,-2.0,-2.0,-2.0,1.0,-1.0,1.0
1.69516019021584e+18,-1.0,0.0,0.0,0.0,-1.0,0.0,-1.0,0.0
1.6951601902168376e+18,0.0,0.0,-2.0,2.0,1.0,-1.0,2.0,1.0
1.6951601902168376e+18,1.0,-1.0,1.0,-1.0,0.0,-1.0,-1.0,0.0
1.6951601902168376e+18,-1.0,0.0,0.0,-1.0,-1.0,-1.0,-3.0,-1.0
1.6951601902178376e+18,-1.0,0.0,-1.0,-2.0,0.0,0.0,-2.0,1.0
1.6951601902178376e+18,0.0,1.0,0.0,-1.0,-1.0,-2.0,-1.0,-1.0
1.6951601902278323e+18,0.0,0.0,-1.0,-1.0,-1.0,-2.0,-1.0,-2.0
1.6951601902288317e+18,0.0,-2.0,-2.0,0.0,-1.0,0.0,0.0,-1.0
1.6951601902348278e+18,0.0,-1.0,-1.0,-3.0,-1.0,-2.0,0.0,-1.0
1.6951601902358272e+18,0.0,0.0,0.0,-1.0,0.0,0.0,-1.0,2.0
1.6951601902368266e+18,0.0,2.0,-1.0,0.0,-1.0,-1.0,1.0,1.0
1.6951601902368266e+18,0.0,-1.0,1.0,-1.0,-1.0,0.0,-1.0,0.0
1.6951601902708068e+18,-1.0,-2.0,-1.0,0.0,1.0,0.0,0.0,-2.0
1.6951601902708068e+18,-2.0,-2.0,-1.0,-1.0,-1.0,-3.0,-2.0,-2.0
1.6951601902718067e+18,-1.0,-1.0,-2.0,-1.0,-1.0,0.0,0.0,-2.0
1.6951601902718067e+18,-1.0,-1.0,-1.0,-1.0,-1.0,-1.0,1.0,-1.0
1.6951601902728067e+18,0.0,-1.0,-1.0,-1.0,-1.0,2.0,-1.0,1.0
1.6951601902738056e+18,-1.0,-2.0,-1.0,-2.0,-1.0,0.0,-2.0,0.0
1.6951601902738056e+18,0.0,-2.0,-1.0,-1.0,-1.0,1.0,-2.0,-1.0
1.6951601902748076e+18,0.0,-1.0,-2.0,1.0,1.0,-1.0,-1.0,-1.0
1.6951601902987927e+18,-1.0,0.0,-2.0,-1.0,0.0,-1.0,-1.0,-1.0
1.6951601902997906e+18,-3.0,0.0,-1.0,-1.0,0.0,-2.0,-2.0,-1.0
1.6951601902997906e+18,-2.0,0.0,-1.0,-1.0,-1.0,1.0,0.0,-2.0
1.6951601902997906e+18,0.0,-1.0,-1.0,1.0,-2.0,0.0,3.0,-1.0
1.6951601903197796e+18,0.0,-1.0,-2.0,0.0,-2.0,-1.0,0.0,0.0
1.6951601903197796e+18,-1.0,-1.0,0.0,-1.0,-3.0,-4.0,1.0,0.0
1.6951601903207795e+18,-1.0,-1.0,-2.0,-1.0,1.0,-1.0,0.0,0.0
1.6951601903207795e+18,0.0,0.0,-1.0,-1.0,-3.0,-2.0,-1.0,0.0
1.6951601903427658e+18,0.0,0.0,0.0,0.0,1.0,1.0,-1.0,-1.0
1.6951601903427658e+18,-2.0,-2.0,0.0,0.0,1.0,4.0,1.0,1.0
1.6951601903427658e+18,-1.0,-2.0,-2.0,-6.0,-6.0,-1.0,-2.0,-3.0
1.6951601903427658e+18,-2.0,-2.0,0.0,-2.0,-3.0,0.0,-2.0,-1.0
1.6951601903547592e+18,0.0,1.0,1.0,7.0,8.0,1.0,0.0,1.0
1.6951601903557614e+18,0.0,-1.0,1.0,-1.0,-3.0,-2.0,-2.0,-1.0
1.6951601903577577e+18,0.0,-1.0,0.0,5.0,3.0,0.0,1.0,1.0
1.6951601903577577e+18,-2.0,-1.0,-2.0,-5.0,-7.0,-2.0,-1.0,0.0
1.6951601903787459e+18,-2.0,-2.0,-1.0,-5.0,-4.0,-1.0,-1.0,0.0
1.6951601903797453e+18,1.0,-1.0,-1.0,-1.0,1.0,2.0,0.0,-1.0
1.6951601903807442e+18,-1.0,-3.0,-2.0,0.0,0.0,1.0,1.0,-1.0
1.6951601903807442e+18,-1.0,-1.0,-1.0,2.0,1.0,-1.0,-1.0,-1.0
1.6951601903937364e+18,-1.0,-2.0,-2.0,0.0,-4.0,-3.0,-1.0,-1.0
1.6951601903937364e+18,0.0,0.0,0.0,-1.0,1.0,0.0,-1.0,0.0
1.6951601904077279e+18,0.0,3.0,-2.0,-2.0,0.0,-1.0,-2.0,0.0
1.6951601904077279e+18,-1.0,-1.0,-1.0,-2.0,1.0,-2.0,-1.0,0.0
1.69516019042372e+18,-2.0,0.0,0.0,-2.0,-3.0,-2.0,-3.0,0.0
1.69516019042372e+18,0.0,-3.0,-3.0,-2.0,-5.0,-3.0,-2.0,-2.0
1.695160190424719e+18,-1.0,0.0,0.0,-1.0,-1.0,-2.0,-2.0,0.0
1.695160190424719e+18,-1.0,-1.0,-3.0,-2.0,0.0,-1.0,-2.0,0.0
1.695160190438711e+18,-2.0,-1.0,-1.0,0.0,-3.0,0.0,0.0,-1.0
1.695160190444708e+18,-2.0,-2.0,1.0,1.0,-2.0,0.0,0.0,0.0
1.6951601904457075e+18,-1.0,1.0,1.0,1.0,1.0,-1.0,0.0,0.0
1.6951601904457075e+18,0.0,0.0,1.0,1.0,0.0,1.0,1.0,-1.0
1.6951601904517043e+18,0.0,1.0,0.0,-4.0,-4.0,-2.0,-1.0,0.0
1.6951601904527032e+18,0.0,2.0,-1.0,4.0,4.0,0.0,0.0,-1.0
1.6951601904606994e+18,-1.0,-1.0,0.0,-2.0,0.0,2.0,-1.0,-2.0
1.6951601904606994e+18,0.0,2.0,3.0,5.0,5.0,6.0,2.0,0.0
1.6951601904756897e+18,-2.0,-8.0,-5.0,-8.0,-4.0,-2.0,-1.0,-3.0
1.6951601904756897e+18,2.0,3.0,-1.0,-3.0,2.0,2.0,2.0,3.0
1.6951601904826865e+18,-2.0,-3.0,1.0,0.0,-1.0,-4.0,-2.0,-1.0
1.6951601904836856e+18,1.0,6.0,2.0,2.0,-2.0,-3.0,-4.0,0.0
1.695160190513669e+18,0.0,4.0,1.0,-2.0,-1.0,-2.0,-3.0,-3.0
1.695160190514668e+18,-7.0,-21.0,-10.0,-8.0,-7.0,-4.0,-5.0,-4.0
1.695160190514668e+18,2.0,6.0,4.0,7.0,0.0,-2.0,0.0,2.0
1.6951601905156677e+18,-6.0,-12.0,-14.0,-17.0,-8.0,-4.0,-4.0,-5.0
1.6951601905166712e+18,3.0,4.0,3.0,9.0,2.0,1.0,1.0,0.0
1.6951601905176658e+18,0.0,2.0,-4.0,-8.0,-1.0,-1.0,0.0,0.0
1.6951601905276598e+18,2.0,5.0,4.0,1.0,1.0,2.0,2.0,0.0
1.6951601905286597e+18,-4.0,-4.0,7.0,16.0,4.0,-2.0,-3.0,-2.0
1.695160190550647e+18,-3.0,-4.0,-4.0,-12.0,-3.0,1.0,1.0,-1.0
1.6951601905516462e+18,1.0,1.0,-2.0,-3.0,-7.0,-9.0,-9.0,-4.0
1.6951601905516462e+18,-4.0,-12.0,-5.0,3.0,3.0,6.0,3.0,-1.0
1.6951601905516462e+18,2.0,-5.0,-5.0,-3.0,0.0,2.0,2.0,3.0
1.6951601905826296e+18,1.0,3.0,0.0,-2.0,2.0,1.0,-1.0,-1.0
1.6951601905836283e+18,6.0,14.0,6.0,15.0,9.0,5.0,4.0,4.0
1.6951601905836283e+18,-7.0,-19.0,-12.0,-13.0,-11.0,-7.0,-6.0,-5.0
1.6951601905836283e+18,3.0,11.0,9.0,4.0,-2.0,-6.0,-1.0,-2.0
1.6951601905846275e+18,-2.0,-11.0,1.0,14.0,8.0,3.0,3.0,1.0
1.6951601905846275e+18,-6.0,-17.0,-3.0,-6.0,-1.0,0.0,-1.0,-4.0
1.6951601905876255e+18,8.0,21.0,16.0,11.0,6.0,5.0,6.0,5.0
1.6951601905876255e+18,-9.0,-20.0,-20.0,-4.0,-6.0,-2.0,-5.0,-4.0
1.6951601905946232e+18,0.0,5.0,-7.0,-8.0,-5.0,-7.0,-6.0,-2.0
1.6951601905956209e+18,5.0,19.0,8.0,1.0,0.0,-1.0,3.0,0.0
1.6951601905956209e+18,-6.0,-18.0,-4.0,1.0,3.0,4.0,2.0,-1.0
1.6951601905966213e+18,2.0,2.0,2.0,-6.0,-1.0,1.0,2.0,0.0
1.6951601906196083e+18,8.0,23.0,11.0,10.0,2.0,-1.0,1.0,3.0
1.6951601906306017e+18,-8.0,-20.0,0.0,13.0,7.0,3.0,-2.0,-5.0
1.6951601906316014e+18,2.0,3.0,-9.0,-12.0,-7.0,-4.0,-3.0,0.0
1.6951601906316014e+18,0.0,0.0,-6.0,-6.0,-1.0,-1.0,0.0,1.0
1.6951601906425953e+18,-7.0,-17.0,-13.0,-6.0,-6.0,-3.0,-2.0,-5.0
1.6951601906425953e+18,-1.0,0.0,10.0,6.0,1.0,0.0,1.0,1.0
1.6951601906565865e+18,1.0,2.0,0.0,0.0,0.0,-2.0,-4.0,0.0
1.6951601906565865e+18,-1.0,-3.0,-8.0,-3.0,4.0,0.0,-3.0,-1.0
1.6951601906585859e+18,3.0,9.0,4.0,0.0,0.0,3.0,4.0,2.0
1.6951601906585859e+18,0.0,-4.0,-2.0,-2.0,-2.0,0.0,0.0,-2.0
1.6951601906585859e+18,-4.0,-3.0,-5.0,-4.0,-2.0,-6.0,-2.0,-3.0
1.695160190659584e+18,-4.0,5.0,10.0,1.0,-2.0,-2.0,-3.0,-6.0
1.6951601906875704e+18,4.0,0.0,1.0,-1.0,-2.0,3.0,1.0,6.0
1.6951601906875704e+18,0.0,1.0,-11.0,-8.0,-3.0,-3.0,0.0,-1.0
1.6951601906875704e+18,3.0,6.0,8.0,8.0,5.0,2.0,-1.0,1.0
1.695160190692568e+18,4.0,10.0,10.0,5.0,0.0,0.0,6.0,2.0
1.6951601907005627e+18,-5.0,-6.0,-6.0,-5.0,-6.0,-6.0,-9.0,-4.0
1.6951601907005627e+18,0.0,5.0,9.0,9.0,4.0,7.0,10.0,0.0
1.6951601907005627e+18,0.0,3.0,-5.0,-10.0,-7.0,-2.0,-3.0,-1.0
1.6951601907015606e+18,1.0,-2.0,-3.0,-6.0,-2.0,0.0,-2.0,1.0
1.695160190723548e+18,-5.0,-2.0,1.0,3.0,-1.0,-4.0,-5.0,-5.0
1.695160190723548e+18,4.0,4.0,-2.0,-9.0,-7.0,-6.0,-4.0,-1.0
1.6951601907245476e+18,-2.0,0.0,-2.0,1.0,-1.0,-4.0,2.0,-3.0
1.6951601907245476e+18,-2.0,8.0,1.0,-1.0,0.0,3.0,0.0,1.0
1.695160190753532e+18,5.0,-1.0,-1.0,-4.0,1.0,7.0,5.0,2.0
1.69516019075453e+18,-4.0,-10.0,-14.0,-9.0,-5.0,-4.0,-6.0,-6.0
1.69516019075453e+18,-8.0,-2.0,1.0,0.0,-2.0,-2.0,-4.0,3.0
1.69516019075453e+18,8.0,1.0,1.0,-2.0,-3.0,0.0,4.0,-5.0
1.6951601907565297e+18,1.0,-5.0,-3.0,-1.0,1.0,1.0,0.0,-1.0
1.695160190757529e+18,11.0,1.0,3.0,5.0,0.0,1.0,-5.0,7.0
1.6951601907925102e+18,-10.0,-6.0,-2.0,0.0,3.0,3.0,6.0,0.0
1.6951601907925102e+18,-6.0,-5.0,-6.0,-5.0,-5.0,-6.0,-9.0,-17.0
1.695160190793508e+18,-3.0,-2.0,-4.0,-5.0,-5.0,-6.0,7.0,2.0
1.6951601907945075e+18,3.0,-2.0,-2.0,0.0,3.0,4.0,-3.0,7.0
1.6951601907945075e+18,2.0,2.0,-3.0,-2.0,-2.0,-4.0,-6.0,-3.0
1.6951601907945075e+18,2.0,2.0,4.0,4.0,-2.0,-6.0,1.0,5.0
1.695160190811499e+18,1.0,2.0,2.0,1.0,1.0,5.0,-4.0,-5.0
1.695160190811499e+18,-6.0,4.0,1.0,3.0,7.0,-3.0,1.0,-3.0
1.695160190811499e+18,2.0,-3.0,0.0,-2.0,-5.0,-1.0,-12.0,-2.0
1.6951601908134973e+18,-1.0,-2.0,-3.0,-1.0,3.0,10.0,21.0,4.0
1.6951601908284887e+18,-3.0,-2.0,1.0,-9.0,-8.0,-21.0,-9.0,-3.0
1.6951601908284887e+18,-5.0,4.0,-3.0,-2.0,-8.0,6.0,-7.0,-5.0
1.6951601908284887e+18,3.0,-1.0,-6.0,-6.0,7.0,11.0,6.0,3.0
1.6951601908294876e+18,1.0,-1.0,5.0,6.0,-3.0,-6.0,0.0,2.0
1.695160190850475e+18,-4.0,-4.0,-7.0,-4.0,-13.0,-5.0,3.0,-1.0
1.6951601908514762e+18,0.0,0.0,5.0,-4.0,-16.0,-15.0,-2.0,1.0
1.6951601908514762e+18,1.0,0.0,7.0,10.0,17.0,4.0,-7.0,-8.0
1.6951601908524744e+18,1.0,0.0,7.0,5.0,26.0,23.0,2.0,11.0
1.6951601908574707e+18,-1.0,-2.0,-8.0,-1.0,2.0,18.0,12.0,2.0
1.6951601908574707e+18,-3.0,-2.0,-1.0,-7.0,1.0,-6.0,-7.0,-5.0
1.6951601908624694e+18,-2.0,-4.0,-3.0,-9.0,-24.0,-12.0,-2.0,-4.0
1.6951601908624694e+18,-6.0,-4.0,3.0,17.0,-6.0,-28.0,-11.0,-1.0
1.6951601908924541e+18,-2.0,-2.0,13.0,0.0,2.0,12.0,-7.0,-3.0
1.6951601908934513e+18,0.0,1.0,-4.0,-6.0,-8.0,1.0,16.0,5.0
1.6951601908934513e+18,2.0,5.0,1.0,-4.0,-9.0,-4.0,1.0,3.0
1.6951601908934513e+18,1.0,1.0,8.0,-4.0,12.0,21.0,5.0,1.0
1.6951601908954499e+18,1.0,-1.0,8.0,10.0,18.0,-1.0,-5.0,1.0
1.6951601908954499e+18,-3.0,-3.0,-12.0,-6.0,8.0,-5.0,-9.0,-6.0
1.6951601908954499e+18,1.0,-2.0,-11.0,-1.0,-16.0,-22.0,7.0,2.0
1.695160190896449e+18,1.0,2.0,6.0,-1.0,7.0,2.0,-4.0,-1.0
1.695160190927431e+18,-1.0,4.0,33.0,13.0,3.0,21.0,0.0,1.0
1.6951601909284306e+18,-2.0,-2.0,-25.0,-11.0,9.0,5.0,11.0,0.0
1.6951601909294303e+18,1.0,-2.0,9.0,4.0,-7.0,8.0,-3.0,-2.0
1.6951601909294303e+18,-2.0,-3.0,-2.0,-14.0,-25.0,-23.0,-9.0,-3.0
1.6951601909404252e+18,-3.0,-4.0,-26.0,-3.0,-15.0,-5.0,-3.0,-3.0
1.6951601909404252e+18,-2.0,0.0,13.0,17.0,29.0,4.0,2.0,-1.0
1.6951601909414228e+18,2.0,0.0,-4.0,-14.0,-4.0,-9.0,-8.0,-2.0
1.6951601909414228e+18,0.0,-1.0,2.0,9.0,13.0,18.0,15.0,3.0
1.6951601909584146e+18,-3.0,-6.0,-27.0,-20.0,-12.0,-9.0,-6.0,-3.0
1.6951601909584146e+18,-2.0,0.0,11.0,0.0,-27.0,-19.0,-7.0,-3.0
1.6951601909584146e+18,1.0,4.0,7.0,18.0,10.0,10.0,9.0,3.0
1.6951601909584146e+18,-1.0,-1.0,-20.0,-14.0,-6.0,0.0,-11.0,-5.0
1.6951601909784049e+18,-2.0,-1.0,-1.0,-7.0,10.0,-11.0,2.0,0.0
1.6951601909784049e+18,3.0,0.0,5.0,2.0,-4.0,5.0,7.0,3.0
1.6951601909784049e+18,-6.0,-3.0,14.0,1.0,7.0,20.0,-5.0,-5.0
1.6951601909794038e+18,1.0,-2.0,-11.0,-6.0,-6.0,-8.0,1.0,1.0
1.695160191000389e+18,0.0,0.0,4.0,8.0,11.0,7.0,2.0,-1.0
1.695160191000389e+18,0.0,0.0,17.0,-7.0,-11.0,-6.0,-5.0,-2.0
1.695160191000389e+18,0.0,1.0,-9.0,3.0,0.0,-4.0,-5.0,-1.0
1.695160191000389e+18,-8.0,-13.0,-47.0,-26.0,-14.0,-9.0,-5.0,-5.0
1.695160191024376e+18,-1.0,-3.0,-4.0,-3.0,-6.0,-5.0,6.0,-1.0
1.695160191024376e+18,1.0,0.0,11.0,1.0,-4.0,6.0,-1.0,0.0
1.6951601910253745e+18,1.0,0.0,14.0,24.0,16.0,-4.0,7.0,3.0
1.6951601910253745e+18,2.0,0.0,9.0,-11.0,-5.0,8.0,10.0,4.0
1.6951601910373673e+18,2.0,2.0,-5.0,3.0,12.0,-6.0,-4.0,1.0
1.6951601910383672e+18,-2.0,2.0,10.0,18.0,7.0,4.0,-3.0,-5.0
1.695160191045363e+18,0.0,-2.0,-31.0,-27.0,-9.0,-3.0,-8.0,1.0
1.695160191045363e+18,-1.0,4.0,12.0,7.0,-1.0,-5.0,-9.0,-4.0
1.6951601910643558e+18,-1.0,0.0,14.0,6.0,-3.0,-1.0,-1.0,1.0
1.6951601910643558e+18,-1.0,-7.0,-28.0,-11.0,-3.0,-1.0,0.0,-2.0
1.6951601910653535e+18,-4.0,-5.0,-15.0,-8.0,-5.0,-10.0,-9.0,-6.0
1.6951601910653535e+18,0.0,-1.0,-18.0,-14.0,1.0,-3.0,-5.0,-1.0
1.6951601910763464e+18,-2.0,1.0,20.0,9.0,-7.0,-3.0,-2.0,-5.0
1.6951601910773455e+18,4.0,1.0,-8.0,-13.0,3.0,6.0,2.0,4.0
1.6951601910783455e+18,-3.0,-1.0,7.0,0.0,1.0,1.0,7.0,1.0
1.6951601910783455e+18,-2.0,-2.0,10.0,1.0,-4.0,1.0,-1.0,-2.0
1.6951601911143245e+18,-1.0,-3.0,-13.0,5.0,1.0,1.0,-1.0,-1.0
1.6951601911153267e+18,-2.0,0.0,11.0,18.0,-1.0,-4.0,-3.0,-1.0
1.6951601911213192e+18,0.0,0.0,-5.0,-16.0,-7.0,-3.0,-3.0,-2.0
1.6951601911223194e+18,-1.0,-3.0,6.0,0.0,-3.0,2.0,10.0,-3.0
1.6951601911233193e+18,0.0,-1.0,1.0,8.0,4.0,-5.0,-11.0,-1.0
1.6951601911243187e+18,-1.0,0.0,-2.0,-5.0,-1.0,8.0,15.0,1.0
1.6951601911243187e+18,0.0,-3.0,-4.0,-6.0,-2.0,-2.0,-3.0,-2.0
1.6951601911243187e+18,-2.0,-2.0,-4.0,9.0,-2.0,-8.0,-14.0,-4.0
1.6951601911363116e+18,1.0,1.0,-3.0,-8.0,-2.0,0.0,0.0,-1.0
1.6951601911363116e+18,-2.0,-2.0,3.0,0.0,-6.0,-4.0,-7.0,-3.0
1.69516019117529e+18,-1.0,4.0,5.0,9.0,1.0,2.0,7.0,1.0
1.69516019117529e+18,-1.0,-1.0,-12.0,8.0,12.0,5.0,3.0,2.0
1.6951601911772887e+18,-2.0,1.0,7.0,7.0,-1.0,-1.0,1.0,-1.0
1.6951601911772887e+18,-3.0,-3.0,-8.0,-22.0,-6.0,-2.0,-4.0,-3.0
1.6951601911782874e+18,2.0,0.0,11.0,6.0,3.0,0.0,-4.0,0.0
1.6951601911782874e+18,2.0,7.0,8.0,21.0,4.0,3.0,7.0,3.0
1.6951601911892808e+18,-6.0,-11.0,-20.0,-23.0,-11.0,-5.0,3.0,0.0
1.6951601911902817e+18,1.0,5.0,5.0,16.0,8.0,3.0,-4.0,-2.0
1.6951601911902817e+18,-3.0,-6.0,-39.0,-31.0,-9.0,-5.0,-2.0,-3.0
1.6951601911902817e+18,0.0,2.0,21.0,4.0,1.0,1.0,-5.0,3.0
1.6951601911952778e+18,1.0,1.0,-7.0,-10.0,-3.0,2.0,7.0,3.0
1.6951601911952778e+18,0.0,1.0,15.0,35.0,5.0,-1.0,-2.0,0.0
1.6951601911962793e+18,-1.0,-3.0,-10.0,-27.0,0.0,1.0,0.0,0.0
1.6951601911962793e+18,0.0,-3.0,0.0,3.0,-3.0,-6.0,-11.0,-5.0
1.6951601912172652e+18,0.0,4.0,5.0,-10.0,-4.0,-3.0,-8.0,-3.0
1.6951601912182648e+18,1.0,4.0,-24.0,-5.0,-5.0,-1.0,1.0,2.0
1.6951601912182648e+18,-5.0,-13.0,13.0,30.0,7.0,1.0,-3.0,-4.0
1.695160191219265e+18,0.0,-1.0,4.0,-16.0,-6.0,-4.0,0.0,-2.0
1.6951601912402516e+18,1.0,-2.0,-1.0,-4.0,1.0,0.0,-4.0,-2.0
1.6951601912402516e+18,-1.0,1.0,2.0,0.0,3.0,-1.0,3.0,0.0
1.695160191241252e+18,-1.0,4.0,1.0,-1.0,-3.0,-4.0,-2.0,-1.0
1.695160191241252e+18,-4.0,-5.0,-12.0,0.0,-3.0,-1.0,1.0,-3.0
1.695160191281229e+18,-1.0,0.0,4.0,1.0,3.0,-4.0,-7.0,0.0
1.695160191281229e+18,2.0,1.0,1.0,-7.0,2.0,10.0,23.0,7.0
1.695160191290224e+18,-2.0,-1.0,8.0,10.0,-3.0,-5.0,-1.0,-5.0
1.695160191290224e+18,1.0,0.0,-2.0,-9.0,3.0,-3.0,-5.0,0.0
1.6951601912912233e+18,0.0,0.0,-1.0,6.0,-2.0,4.0,10.0,1.0
1.6951601912912233e+18,-6.0,-6.0,-9.0,-18.0,-5.0,-9.0,-24.0,-6.0
1.695160191293223e+18,1.0,3.0,16.0,25.0,4.0,1.0,6.0,2.0
1.6951601912942216e+18,1.0,2.0,-16.0,-22.0,-8.0,2.0,16.0,0.0
1.695160191300218e+18,1.0,3.0,3.0,6.0,4.0,9.0,8.0,1.0
1.695160191300218e+18,-3.0,-5.0,-8.0,-13.0,-7.0,-8.0,-3.0,0.0
1.6951601913012183e+18,0.0,3.0,4.0,10.0,4.0,6.0,0.0,-3.0
1.6951601913012183e+18,0.0,0.0,2.0,9.0,1.0,-2.0,-8.0,1.0
1.6951601913162086e+18,-1.0,-3.0,-3.0,-2.0,-7.0,-8.0,-9.0,-6.0
1.6951601913162086e+18,-3.0,-3.0,2.0,-4.0,-3.0,-6.0,-11.0,-5.0
1.6951601913162086e+18,3.0,3.0,-6.0,-18.0,1.0,6.0,14.0,5.0
1.695160191317208e+18,0.0,0.0,9.0,23.0,6.0,2.0,-1.0,0.0
1.6951601913391954e+18,-3.0,-2.0,1.0,4.0,1.0,3.0,2.0,2.0
1.695160191340195e+18,1.0,-2.0,-13.0,-16.0,-2.0,-3.0,-6.0,-3.0
1.695160191340195e+18,2.0,4.0,5.0,4.0,-1.0,-1.0,2.0,1.0
1.6951601913411945e+18,-1.0,-2.0,4.0,3.0,-2.0,-4.0,-6.0,-3.0
1.6951601913601828e+18,-1.0,-1.0,-5.0,-4.0,3.0,-2.0,0.0,-1.0
1.6951601913601828e+18,1.0,0.0,3.0,3.0,4.0,1.0,0.0,-1.0
1.6951601913611825e+18,0.0,0.0,-2.0,-5.0,-4.0,-3.0,-6.0,-2.0
1.6951601913611825e+18,0.0,0.0,-3.0,-3.0,-3.0,1.0,1.0,2.0
1.6951601913831708e+18,-2.0,-2.0,-4.0,2.0,3.0,-5.0,-2.0,-1.0
1.6951601913831708e+18,0.0,-1.0,-1.0,-6.0,2.0,8.0,16.0,3.0
1.69516019138417e+18,-2.0,-1.0,9.0,23.0,5.0,1.0,-6.0,-2.0
1.69516019138417e+18,0.0,2.0,-10.0,-12.0,-4.0,-2.0,-3.0,-3.0
1.6951601914091564e+18,0.0,1.0,0.0,3.0,0.0,1.0,-1.0,-1.0
1.6951601914091564e+18,0.0,-1.0,11.0,0.0,-3.0,-3.0,-5.0,-2.0
1.6951601914091564e+18,0.0,-5.0,-13.0,-3.0,-4.0,-2.0,-3.0,-1.0
1.6951601914091564e+18,-2.0,-3.0,-7.0,-8.0,-2.0,-3.0,-1.0,-1.0
1.695160191420149e+18,-3.0,-2.0,3.0,-1.0,-4.0,-2.0,2.0,0.0
1.6951601914211484e+18,-2.0,1.0,3.0,10.0,4.0,1.0,0.0,0.0
1.6951601914211484e+18,0.0,0.0,2.0,-10.0,-6.0,-2.0,-1.0,-2.0
1.6951601914211484e+18,-2.0,-1.0,7.0,5.0,2.0,-1.0,0.0,-1.0
1.6951601914361403e+18,0.0,-5.0,-3.0,0.0,-1.0,0.0,-1.0,1.0
1.6951601914371392e+18,0.0,-2.0,-21.0,-9.0,-4.0,-2.0,-3.0,-2.0
1.6951601914371392e+18,-1.0,1.0,3.0,-1.0,1.0,-2.0,-1.0,0.0
1.6951601914371392e+18,-1.0,1.0,2.0,-3.0,-3.0,1.0,0.0,-1.0
1.6951601914751196e+18,0.0,0.0,3.0,-7.0,0.0,-1.0,-2.0,-1.0
1.6951601914751196e+18,-2.0,0.0,10.0,23.0,2.0,0.0,-2.0,-2.0
1.695160191476118e+18,1.0,0.0,-9.0,-14.0,-3.0,1.0,1.0,-1.0
1.695160191476118e+18,-1.0,-4.0,3.0,5.0,-1.0,-1.0,-3.0,-3.0
1.695160191512095e+18,-1.0,-1.0,-3.0,0.0,-1.0,-1.0,0.0,-2.0
1.695160191512095e+18,-1.0,1.0,-1.0,-5.0,-2.0,0.0,-1.0,0.0
1.6951601915130957e+18,0.0,0.0,-1.0,-2.0,0.0,-1.0,-2.0,1.0
1.6951601915130957e+18,-3.0,0.0,2.0,3.0,0.0,1.0,2.0,-1.0
1.6951601915150973e+18,-1.0,-1.0,-1.0,1.0,-1.0,-2.0,-1.0,-2.0
1.6951601915150973e+18,-1.0,-1.0,-3.0,-4.0,-2.0,-1.0,-1.0,-1.0
1.695160191520092e+18,-1.0,-3.0,-3.0,-2.0,-1.0,0.0,-3.0,-1.0
1.6951601915280883e+18,-1.0,0.0,0.0,2.0,-1.0,0.0,-1.0,-1.0
1.6951601915290885e+18,-1.0,0.0,-3.0,-3.0,-1.0,0.0,0.0,-1.0
1.6951601915290885e+18,0.0,0.0,0.0,-2.0,-3.0,-1.0,0.0,1.0
1.6951601915290885e+18,-1.0,-1.0,-1.0,1.0,-1.0,0.0,0.0,2.0
1.6951601915290885e+18,0.0,-1.0,-3.0,-1.0,-3.0,-3.0,-3.0,-2.0
1.6951601915440786e+18,-1.0,-2.0,-1.0,0.0,0.0,-2.0,0.0,0.0
1.6951601915450775e+18,-1.0,0.0,2.0,-1.0,0.0,-1.0,-1.0,-2.0
1.6951601915450775e+18,-1.0,-2.0,1.0,0.0,2.0,0.0,-1.0,-1.0
1.6951601915450775e+18,-1.0,0.0,0.0,0.0,-2.0,-1.0,-1.0,0.0
1.6951601915540723e+18,1.0,0.0,-1.0,1.0,-2.0,-2.0,-1.0,1.0
1.695160191555072e+18,0.0,-2.0,0.0,0.0,-1.0,-1.0,0.0,-2.0
1.6951601915900526e+18,-1.0,1.0,-3.0,-3.0,-1.0,-1.0,-1.0,0.0
1.695160191591052e+18,-2.0,-1.0,4.0,4.0,3.0,2.0,-2.0,0.0
1.6951601915920512e+18,0.0,1.0,-2.0,-2.0,-2.0,-1.0,-1.0,-1.0
1.6951601915920512e+18,-2.0,-1.0,0.0,-1.0,-2.0,0.0,-1.0,0.0
1.6951601915920512e+18,0.0,3.0,2.0,2.0,3.0,2.0,-1.0,-2.0
1.6951601915920512e+18,-1.0,-1.0,-10.0,-3.0,3.0,2.0,1.0,1.0
1.695160191604045e+18,-3.0,-2.0,-2.0,-4.0,-3.0,-1.0,-1.0,0.0
1.6951601916050447e+18,-1.0,-2.0,2.0,2.0,0.0,-1.0,2.0,-1.0
1.6951601916050447e+18,-1.0,0.0,1.0,2.0,0.0,-3.0,-2.0,-2.0
1.6951601916050447e+18,1.0,-1.0,0.0,-2.0,-4.0,-2.0,1.0,0.0
1.6951601916150374e+18,0.0,-2.0,-3.0,-2.0,0.0,2.0,-2.0,0.0
1.6951601916150374e+18,-2.0,-2.0,-1.0,-6.0,-4.0,-3.0,-1.0,0.0
1.6951601916230328e+18,0.0,-2.0,-2.0,-3.0,1.0,-3.0,0.0,1.0
1.6951601916230328e+18,0.0,-1.0,1.0,0.0,0.0,1.0,1.0,-1.0
1.6951601916390244e+18,-1.0,0.0,-2.0,3.0,-2.0,-2.0,-3.0,-4.0
1.6951601916480187e+18,0.0,0.0,3.0,3.0,1.0,2.0,-1.0,1.0
1.6951601916480187e+18,1.0,-2.0,-1.0,-1.0,-4.0,-3.0,-2.0,-1.0
1.6951601916490186e+18,-1.0,-2.0,-2.0,-4.0,-2.0,1.0,-2.0,-1.0
1.6951601916600146e+18,0.0,2.0,0.0,2.0,-1.0,1.0,0.0,0.0
1.6951601916610117e+18,-1.0,0.0,-2.0,0.0,0.0,-4.0,-2.0,-1.0
1.6951601916610117e+18,-2.0,-2.0,-1.0,0.0,-1.0,-1.0,-1.0,0.0
1.6951601916610117e+18,0.0,-1.0,-1.0,0.0,-2.0,-3.0,-1.0,-1.0
1.6951601916849969e+18,-2.0,-2.0,0.0,0.0,0.0,0.0,-1.0,-1.0
1.6951601916849969e+18,-2.0,-2.0,-2.0,-1.0,2.0,1.0,-1.0,-1.0
1.6951601916859965e+18,-1.0,0.0,-1.0,0.0,-1.0,0.0,0.0,0.0
1.6951601916859965e+18,0.0,-1.0,3.0,-1.0,-1.0,0.0,-1.0,-1.0
1.6951601917059853e+18,-2.0,0.0,0.0,1.0,-2.0,-2.0,0.0,-1.0
1.6951601917059853e+18,-2.0,-2.0,-4.0,-2.0,-1.0,0.0,-2.0,0.0
1.6951601917069847e+18,0.0,0.0,0.0,-4.0,-2.0,-3.0,0.0,-2.0
1.6951601917069847e+18,-1.0,-2.0,0.0,1.0,-2.0,0.0,-3.0,-2.0
1.6951601917199772e+18,0.0,-1.0,1.0,-1.0,1.0,1.0,0.0,-2.0
1.6951601917209764e+18,0.0,-1.0,-1.0,0.0,1.0,-1.0,0.0,-1.0
1.6951601917209764e+18,-3.0,0.0,-3.0,-3.0,-3.0,-2.0,-1.0,0.0
1.6951601917209764e+18,-1.0,0.0,0.0,-2.0,0.0,-1.0,1.0,-1.0
1.695160191734968e+18,-1.0,0.0,1.0,-1.0,0.0,0.0,0.0,0.0
1.695160191734968e+18,1.0,1.0,0.0,0.0,2.0,1.0,2.0,0.0
1.695160191765952e+18,-1.0,0.0,4.0,1.0,-1.0,2.0,2.0,0.0
1.6951601917669504e+18,-1.0,-2.0,-4.0,2.0,-1.0,-4.0,-1.0,-2.0
1.695160191792936e+18,-2.0,0.0,-1.0,0.0,0.0,0.0,0.0,-1.0
1.695160191792936e+18,-2.0,-1.0,-1.0,-4.0,-3.0,-2.0,-2.0,-2.0
1.6951601917939374e+18,-1.0,-1.0,-1.0,-1.0,1.0,1.0,-1.0,-1.0
1.6951601917939374e+18,-2.0,1.0,1.0,-2.0,0.0,-1.0,-1.0,1.0
1.6951601917949363e+18,0.0,0.0,-2.0,-2.0,-4.0,-2.0,-1.0,1.0
1.6951601917949363e+18,0.0,-1.0,-2.0,1.0,-3.0,-2.0,-2.0,-1.0
1.6951601917959342e+18,-1.0,-1.0,2.0,0.0,1.0,2.0,2.0,-2.0
1.6951601917959342e+18,-1.0,0.0,0.0,1.0,-2.0,0.0,-1.0,1.0
1.6951601917989368e+18,0.0,-1.0,-3.0,0.0,0.0,-1.0,-1.0,-1.0
1.6951601918009316e+18,-3.0,-1.0,1.0,0.0,-1.0,0.0,0.0,0.0
1.695160191809926e+18,0.0,-1.0,-1.0,1.0,0.0,-1.0,1.0,-1.0
1.695160191809926e+18,1.0,-1.0,-1.0,-1.0,0.0,-1.0,-1.0,0.0
1.695160191834912e+18,0.0,-1.0,-1.0,-1.0,-2.0,-2.0,0.0,-2.0
1.695160191834912e+18,-1.0,-1.0,0.0,-2.0,2.0,0.0,0.0,0.0
1.6951601918359117e+18,1.0,-1.0,-2.0,-1.0,0.0,0.0,-1.0,-1.0
1.6951601918359117e+18,-3.0,0.0,-1.0,0.0,-1.0,-1.0,-2.0,-1.0
1.6951601918489042e+18,1.0,-1.0,1.0,-2.0,-1.0,0.0,-1.0,0.0
1.6951601918499028e+18,-1.0,-1.0,0.0,-2.0,0.0,-2.0,-1.0,-2.0
1.6951601918499028e+18,-2.0,0.0,-1.0,-3.0,-1.0,-2.0,-2.0,1.0
1.6951601918509023e+18,0.0,0.0,0.0,-3.0,-1.0,-2.0,0.0,-2.0
1.6951601918549e+18,-1.0,-1.0,-1.0,-2.0,-2.0,-1.0,-1.0,-2.0
1.6951601918549e+18,0.0,0.0,0.0,2.0,-2.0,-1.0,0.0,-1.0
1.695160191869891e+18,0.0,0.0,-2.0,0.0,-2.0,1.0,0.0,0.0
1.695160191869891e+18,1.0,-1.0,0.0,-1.0,-2.0,1.0,-1.0,0.0
1.6951601918808855e+18,-1.0,-1.0,0.0,0.0,-1.0,0.0,1.0,-1.0
1.695160191886883e+18,-1.0,-1.0,-1.0,-1.0,0.0,-1.0,-1.0,-3.0
1.6951601918878812e+18,-1.0,-2.0,-1.0,-3.0,-1.0,-2.0,-1.0,0.0
1.6951601918878812e+18,-2.0,-1.0,0.0,0.0,1.0,-3.0,1.0,-1.0
1.695160191900874e+18,0.0,-1.0,-3.0,-2.0,3.0,1.0,-1.0,0.0
1.695160191900874e+18,-2.0,-3.0,-1.0,1.0,0.0,-2.0,0.0,0.0
1.6951601919018747e+18,0.0,1.0,-2.0,-1.0,-1.0,-2.0,0.0,-1.0
1.6951601919018747e+18,-2.0,-2.0,-1.0,-1.0,0.0,-1.0,1.0,-1.0
1.6951601919168648e+18,-1.0,-2.0,-1.0,-3.0,0.0,-1.0,-2.0,-1.0
1.6951601919168648e+18,0.0,-2.0,-1.0,-1.0,-1.0,-2.0,1.0,0.0
1.6951601919228605e+18,-2.0,-2.0,0.0,0.0,-1.0,0.0,-1.0,-2.0
1.6951601919228605e+18,1.0,-1.0,-1.0,0.0,0.0,0.0,0.0,-1.0
1.695160191937853e+18,1.0,-1.0,1.0,2.0,-1.0,1.0,0.0,1.0
1.695160191937853e+18,-1.0,0.0,-1.0,-1.0,0.0,0.0,-1.0,-1.0
1.6951601919388526e+18,-1.0,-2.0,0.0,-1.0,-3.0,-2.0,-1.0,-1.0
1.6951601919388526e+18,-2.0,1.0,1.0,-1.0,-1.0,-1.0,-1.0,-1.0
1.6951601919608392e+18,0.0,0.0,1.0,1.0,-1.0,0.0,0.0,-1.0
1.6951601919618394e+18,1.0,-2.0,-1.0,-3.0,-1.0,-1.0,-2.0,-2.0
1.6951601919618394e+18,-1.0,-2.0,0.0,1.0,-1.0,0.0,-2.0,-1.0
1.6951601919618394e+18,1.0,-1.0,-1.0,-1.0,0.0,-1.0,0.0,-1.0
1.6951601919838267e+18,0.0,-1.0,-1.0,0.0,-2.0,0.0,0.0,-1.0
1.6951601919838267e+18,-1.0,2.0,-1.0,0.0,-2.0,0.0,1.0,0.0
1.6951601919838267e+18,0.0,0.0,-1.0,-1.0,2.0,0.0,1.0,-2.0
1.6951601919848256e+18,0.0,-2.0,-1.0,0.0,1.0,0.0,-2.0,0.0
1.695160191997818e+18,-1.0,0.0,0.0,-1.0,-1.0,-1.0,-1.0,-1.0
1.695160191997818e+18,-1.0,-1.0,-1.0,0.0,0.0,0.0,0.0,-1.0
1.6951601919988242e+18,-1.0,-1.0,-1.0,1.0,-1.0,-2.0,-2.0,-1.0
1.6951601919988242e+18,0.0,-1.0,-1.0,-1.0,-1.0,-2.0,0.0,-2.0
1.6951601920198054e+18,-2.0,-1.0,0.0,-1.0,0.0,-1.0,-1.0,-1.0
1.695160192020805e+18,-1.0,-3.0,-2.0,0.0,-2.0,-1.0,-3.0,-1.0
1.695160192020805e+18,1.0,-1.0,-2.0,-3.0,-1.0,-1.0,-1.0,-1.0
1.695160192020805e+18,1.0,0.0,-1.0,0.0,0.0,-1.0,0.0,-1.0
1.6951601920437921e+18,-1.0,-1.0,-2.0,0.0,-1.0,-1.0,-1.0,1.0
1.6951601920437921e+18,0.0,2.0,-1.0,-2.0,1.0,0.0,0.0,0.0
1.6951601920447918e+18,0.0,-1.0,1.0,-1.0,-2.0,1.0,-1.0,0.0
1.6951601920447918e+18,-2.0,0.0,0.0,-1.0,-1.0,0.0,-1.0,0.0
1.695160192069777e+18,-1.0,1.0,-2.0,-1.0,-1.0,0.0,0.0,0.0
1.695160192069777e+18,0.0,-1.0,1.0,0.0,-1.0,-1.0,-1.0,0.0
1.6951601920707776e+18,-1.0,0.0,1.0,-1.0,0.0,-1.0,0.0,-1.0
1.6951601920707776e+18,-1.0,1.0,-1.0,0.0,0.0,0.0,-1.0,0.0
1.6951601920797714e+18,-1.0,-1.0,-1.0,0.0,0.0,-3.0,0.0,0.0
1.6951601920807708e+18,-1.0,0.0,-2.0,0.0,-1.0,1.0,1.0,0.0
1.6951601920827694e+18,-1.0,0.0,0.0,-2.0,1.0,-1.0,1.0,-1.0
1.6951601920827694e+18,-2.0,-1.0,0.0,1.0,-1.0,-1.0,0.0,0.0
1.6951601921107533e+18,-2.0,-1.0,-2.0,0.0,1.0,-1.0,0.0,0.0
1.6951601921107533e+18,-1.0,-1.0,-2.0,-1.0,-1.0,0.0,1.0,-1.0
1.6951601921117527e+18,-2.0,0.0,-3.0,-1.0,0.0,-1.0,-1.0,0.0
1.6951601921117527e+18,0.0,-1.0,-2.0,-1.0,-1.0,-1.0,-2.0,-2.0
1.6951601921177495e+18,-1.0,-2.0,-1.0,-1.0,0.0,0.0,-1.0,-1.0
1.6951601921177495e+18,1.0,0.0,0.0,-3.0,-1.0,-2.0,0.0,1.0
1.6951601921187494e+18,-1.0,0.0,-3.0,0.0,-2.0,1.0,0.0,0.0
1.6951601921187494e+18,0.0,0.0,0.0,0.0,-1.0,-2.0,-1.0,-1.0
1.695160192140737e+18,1.0,0.0,0.0,-2.0,-2.0,-1.0,-1.0,-1.0
1.695160192140737e+18,-1.0,-3.0,-2.0,-1.0,-2.0,-1.0,-3.0,0.0
1.6951601921417367e+18,0.0,-1.0,-2.0,-1.0,-2.0,-1.0,-1.0,-1.0
1.6951601921417367e+18,-1.0,-1.0,-2.0,-3.0,-1.0,1.0,-2.0,0.0
1.6951601921847117e+18,-2.0,0.0,1.0,0.0,-1.0,-1.0,0.0,-1.0
1.6951601921857106e+18,-2.0,-1.0,-1.0,-1.0,-1.0,-1.0,0.0,-1.0
1.6951601921857106e+18,-1.0,0.0,0.0,-1.0,0.0,-1.0,-1.0,-1.0
1.6951601921857106e+18,-1.0,-1.0,-1.0,-2.0,-1.0,-1.0,0.0,0.0
1.6951601921857106e+18,1.0,-2.0,-1.0,0.0,1.0,0.0,-2.0,-1.0
1.6951601921857106e+18,-1.0,-2.0,-1.0,-1.0,-3.0,-1.0,-1.0,-1.0
1.6951601921857106e+18,-2.0,0.0,-1.0,0.0,-1.0,-1.0,-3.0,1.0
1.6951601921857106e+18,1.0,1.0,2.0,-1.0,0.0,-1.0,-2.0,-1.0
1.6951601922017032e+18,0.0,1.0,-1.0,0.0,-1.0,-3.0,-1.0,-1.0
1.6951601922017032e+18,-1.0,1.0,-1.0,3.0,-1.0,0.0,0.0,0.0
1.6951601922017032e+18,0.0,-1.0,0.0,-1.0,1.0,0.0,-1.0,-3.0
1.6951601922017032e+18,-1.0,-2.0,-4.0,-2.0,0.0,0.0,0.0,1.0
1.695160192224689e+18,-1.0,0.0,-2.0,-1.0,-1.0,-2.0,-1.0,0.0
1.695160192224689e+18,0.0,-1.0,-1.0,-1.0,0.0,-1.0,-1.0,-1.0
1.695160192224689e+18,1.0,0.0,-1.0,-1.0,-1.0,0.0,1.0,-2.0
1.695160192224689e+18,-1.0,-1.0,0.0,-1.0,0.0,0.0,0.0,0.0
1.69516019223768e+18,-1.0,-2.0,-1.0,-2.0,-2.0,1.0,0.0,-3.0
1.6951601922386808e+18,0.0,-1.0,-1.0,-1.0,-1.0,-2.0,-3.0,-2.0
1.6951601922386808e+18,0.0,0.0,0.0,0.0,-2.0,-1.0,-2.0,0.0
1.6951601922386808e+18,0.0,-1.0,-1.0,-2.0,-1.0,-1.0,0.0,-2.0
1.6951601922676641e+18,0.0,0.0,-1.0,0.0,-1.0,1.0,-2.0,0.0
1.6951601922686633e+18,-1.0,-1.0,0.0,0.0,0.0,1.0,-1.0,0.0
1.6951601922686633e+18,0.0,-1.0,-3.0,-1.0,-3.0,-2.0,0.0,0.0
1.6951601922686633e+18,-1.0,-2.0,-2.0,0.0,-2.0,1.0,-1.0,-2.0
1.6951601922836544e+18,-1.0,-1.0,-2.0,-1.0,-1.0,-1.0,-2.0,0.0
1.6951601922836544e+18,-1.0,-1.0,0.0,-1.0,0.0,-2.0,-1.0,-1.0
1.6951601922836544e+18,-1.0,-1.0,-1.0,1.0,0.0,2.0,-1.0,0.0
1.6951601922846538e+18,0.0,0.0,-1.0,-1.0,-2.0,0.0,1.0,1.0
1.6951601922996465e+18,-1.0,-3.0,-1.0,0.0,0.0,0.0,1.0,0.0
1.695160192300646e+18,1.0,-2.0,-1.0,-2.0,1.0,0.0,-3.0,-2.0
1.695160192300646e+18,-2.0,0.0,-1.0,-1.0,1.0,-1.0,1.0,0.0
1.695160192300646e+18,-1.0,1.0,-1.0,-1.0,0.0,-2.0,0.0,-1.0
1.6951601923236324e+18,-1.0,-1.0,0.0,1.0,0.0,1.0,-1.0,-1.0
1.6951601923276293e+18,2.0,1.0,-2.0,0.0,-1.0,-1.0,-2.0,-1.0
1.6951601923286282e+18,-2.0,0.0,0.0,1.0,-2.0,-1.0,-1.0,-1.0
1.6951601923286282e+18,-1.0,-1.0,-2.0,2.0,0.0,-1.0,-2.0,-2.0
1.6951601923426212e+18,0.0,1.0,0.0,-3.0,-1.0,-3.0,1.0,-1.0
1.6951601923426212e+18,-1.0,-1.0,0.0,-2.0,2.0,0.0,-1.0,-1.0
1.6951601923436209e+18,-1.0,0.0,0.0,-1.0,-1.0,0.0,0.0,-2.0
1.6951601923436209e+18,1.0,-1.0,0.0,-1.0,1.0,-2.0,-1.0,1.0
1.695160192366607e+18,-1.0,1.0,0.0,1.0,-1.0,-2.0,0.0,0.0
1.695160192366607e+18,-1.0,-1.0,-1.0,0.0,-1.0,0.0,-1.0,-1.0
1.695160192366607e+18,1.0,-1.0,-1.0,-1.0,1.0,0.0,-1.0,-1.0
1.6951601923676093e+18,0.0,-1.0,1.0,-4.0,-1.0,0.0,0.0,-1.0
1.695160192381599e+18,0.0,1.0,-1.0,-1.0,0.0,-1.0,-2.0,0.0
1.6951601923825981e+18,-1.0,-1.0,-3.0,0.0,0.0,-1.0,0.0,-1.0
1.6951601923825981e+18,0.0,-2.0,-1.0,1.0,0.0,0.0,-1.0,-1.0
1.695160192383597e+18,-2.0,-1.0,0.0,1.0,-2.0,-2.0,-1.0,-2.0
1.6951601924105828e+18,-1.0,0.0,0.0,-1.0,-2.0,0.0,0.0,-1.0
1.6951601924115822e+18,-1.0,0.0,1.0,-2.0,-2.0,0.0,-3.0,-2.0
1.6951601924115822e+18,-1.0,-1.0,-1.0,-4.0,-1.0,-1.0,-2.0,0.0
1.6951601924115822e+18,0.0,0.0,-1.0,-2.0,1.0,1.0,0.0,0.0
1.695160192427572e+18,-1.0,-1.0,-1.0,0.0,0.0,1.0,0.0,-1.0
1.6951601924375665e+18,1.0,0.0,-1.0,0.0,-1.0,-2.0,0.0,0.0
1.6951601924375665e+18,-2.0,-1.0,0.0,0.0,-1.0,-1.0,0.0,0.0
1.6951601924375665e+18,-1.0,-1.0,-1.0,-1.0,-1.0,-1.0,0.0,-2.0
1.6951601924405647e+18,-1.0,-4.0,-1.0,-2.0,-1.0,-4.0,0.0,1.0
1.6951601924405647e+18,1.0,0.0,2.0,-1.0,-1.0,1.0,0.0,-1.0
1.6951601924415642e+18,-1.0,-2.0,-1.0,-1.0,-1.0,-2.0,-1.0,1.0
1.6951601924415642e+18,-1.0,0.0,-1.0,0.0,0.0,-1.0,0.0,-1.0
1.6951601924625518e+18,0.0,0.0,-1.0,0.0,-1.0,-1.0,1.0,-1.0
1.6951601924625518e+18,-1.0,-1.0,-1.0,0.0,-1.0,-1.0,1.0,2.0
1.695160192470547e+18,1.0,0.0,-1.0,-3.0,1.0,1.0,0.0,0.0
1.695160192470547e+18,-1.0,0.0,-2.0,1.0,0.0,0.0,0.0,-1.0
1.6951601924915356e+18,0.0,-2.0,-2.0,0.0,0.0,1.0,-2.0,-1.0
1.6951601924945347e+18,-1.0,1.0,-3.0,-1.0,-1.0,-1.0,-2.0,-1.0
1.6951601924955338e+18,-1.0,-1.0,1.0,2.0,-2.0,0.0,-1.0,0.0
1.6951601924955338e+18,-2.0,-1.0,0.0,-2.0,0.0,0.0,-2.0,-2.0
1.695160192500531e+18,0.0,-1.0,0.0,-3.0,-1.0,-1.0,0.0,0.0
1.695160192500531e+18,-2.0,-2.0,0.0,0.0,0.0,-2.0,2.0,1.0
1.695160192500531e+18,-1.0,-1.0,-2.0,-1.0,1.0,-1.0,-1.0,0.0
1.6951601925015299e+18,-1.0,0.0,0.0,-1.0,0.0,-2.0,1.0,0.0
1.6951601925295155e+18,0.0,-1.0,0.0,0.0,-1.0,1.0,0.0,-2.0
1.6951601925295155e+18,0.0,0.0,-3.0,-1.0,-2.0,-1.0,-1.0,0.0
1.6951601925305134e+18,-1.0,-1.0,-2.0,-1.0,-1.0,0.0,0.0,-1.0
1.6951601925305134e+18,-1.0,0.0,-1.0,1.0,-1.0,0.0,-1.0,-1.0
1.695160192536509e+18,0.0,-1.0,-1.0,-1.0,0.0,-1.0,-1.0,0.0
1.6951601925375089e+18,-1.0,-1.0,-1.0,-1.0,0.0,-1.0,-1.0,-1.0
1.6951601925535002e+18,0.0,0.0,0.0,0.0,-2.0,-1.0,-2.0,-2.0
1.6951601925554988e+18,-2.0,-3.0,-1.0,-1.0,0.0,-1.0,-1.0,-1.0
1.6951601925604956e+18,-2.0,0.0,-2.0,-1.0,-1.0,0.0,-1.0,-1.0
1.6951601925604956e+18,0.0,-1.0,0.0,0.0,-1.0,0.0,1.0,-2.0
1.6951601925604956e+18,-1.0,-1.0,1.0,-3.0,-2.0,0.0,0.0,-1.0
1.6951601925614968e+18,-1.0,0.0,0.0,-2.0,-1.0,1.0,-1.0,-1.0
1.6951601925844823e+18,-2.0,1.0,-3.0,-2.0,0.0,-1.0,-2.0,0.0
1.6951601925844823e+18,-2.0,-1.0,-1.0,0.0,0.0,1.0,-2.0,0.0
1.6951601925844823e+18,-2.0,0.0,0.0,-1.0,1.0,0.0,0.0,-1.0
1.6951601925854833e+18,0.0,-1.0,-1.0,-2.0,0.0,0.0,-1.0,-1.0
1.695160192596475e+18,-1.0,0.0,-1.0,0.0,0.0,0.0,-1.0,-1.0
1.6951601925974746e+18,-2.0,-1.0,-1.0,-1.0,-3.0,-1.0,-2.0,-1.0
1.6951601926134664e+18,0.0,-1.0,-2.0,1.0,-3.0,-1.0,0.0,-1.0
1.695160192616464e+18,1.0,0.0,-1.0,-2.0,-2.0,0.0,-1.0,-1.0
1.6951601926204628e+18,0.0,-1.0,0.0,0.0,-1.0,-1.0,0.0,0.0
1.6951601926204628e+18,0.0,0.0,1.0,-2.0,0.0,-2.0,0.0,1.0
1.6951601926274565e+18,0.0,-1.0,0.0,0.0,1.0,-1.0,0.0,1.0
1.6951601926274565e+18,0.0,-1.0,0.0,0.0,0.0,-2.0,-2.0,-1.0
1.6951601926434483e+18,0.0,-1.0,1.0,-3.0,-2.0,-1.0,-1.0,0.0
1.6951601926434483e+18,0.0,-1.0,-3.0,-1.0,0.0,0.0,-2.0,-2.0
1.6951601926434483e+18,-1.0,0.0,-2.0,0.0,0.0,-1.0,-1.0,-3.0
1.695160192644448e+18,-1.0,0.0,-2.0,-1.0,-2.0,-1.0,0.0,0.0
1.695160192667436e+18,1.0,0.0,0.0,1.0,0.0,2.0,0.0,-2.0
1.6951601926684344e+18,-2.0,0.0,0.0,-3.0,0.0,-1.0,0.0,-2.0
1.6951601926684344e+18,-1.0,0.0,-1.0,-2.0,0.0,-1.0,1.0,-1.0
1.6951601926684344e+18,0.0,-2.0,-2.0,-1.0,-1.0,-1.0,-1.0,0.0
1.6951601926804273e+18,-1.0,-2.0,-1.0,0.0,-1.0,0.0,0.0,-1.0
1.6951601926804273e+18,0.0,-1.0,0.0,0.0,0.0,1.0,-2.0,0.0
1.695160192681428e+18,0.0,-1.0,-1.0,0.0,-2.0,0.0,-1.0,-1.0
1.695160192681428e+18,-1.0,-3.0,0.0,0.0,-1.0,-1.0,1.0,0.0
1.695160192711409e+18,-2.0,0.0,-1.0,-1.0,1.0,-1.0,1.0,-2.0
1.6951601927204052e+18,-1.0,-1.0,-2.0,-1.0,-2.0,-1.0,0.0,0.0
1.6951601927204052e+18,1.0,1.0,-1.0,-2.0,-1.0,-1.0,0.0,0.0
1.6951601927214042e+18,-1.0,1.0,1.0,-1.0,-1.0,1.0,0.0,-3.0
1.6951601927254024e+18,0.0,0.0,-2.0,1.0,0.0,0.0,-2.0,0.0
1.6951601927264013e+18,-1.0,1.0,-1.0,0.0,-1.0,-2.0,0.0,-1.0
1.6951601927264013e+18,0.0,-1.0,0.0,-1.0,1.0,-1.0,-1.0,-2.0
1.6951601927274002e+18,1.0,-1.0,0.0,-2.0,-1.0,-1.0,-2.0,-1.0
1.6951601927483886e+18,0.0,-1.0,-1.0,-2.0,-2.0,-3.0,1.0,-1.0
1.695160192749388e+18,-2.0,-1.0,0.0,-2.0,0.0,-2.0,1.0,0.0
1.6951601927503928e+18,0.0,0.0,0.0,0.0,-1.0,-1.0,-3.0,-1.0
1.6951601927513874e+18,0.0,-1.0,1.0,-1.0,1.0,-1.0,-2.0,-1.0
1.695160192771376e+18,-2.0,-1.0,-1.0,-3.0,0.0,-2.0,0.0,-1.0
1.695160192771376e+18,-1.0,-2.0,1.0,-1.0,-1.0,-1.0,-1.0,0.0
1.695160192771376e+18,-2.0,-1.0,0.0,1.0,0.0,-1.0,0.0,0.0
1.695160192774374e+18,-1.0,0.0,-2.0,-1.0,-1.0,-2.0,1.0,1.0
1.695160192793363e+18,0.0,1.0,-1.0,0.0,-1.0,0.0,-1.0,-1.0
1.695160192793363e+18,-1.0,-1.0,-2.0,-1.0,0.0,-1.0,-1.0,-1.0
1.6951601927943626e+18,-2.0,0.0,-1.0,-2.0,-2.0,-2.0,0.0,0.0
1.6951601927943626e+18,-1.0,1.0,-1.0,1.0,-1.0,0.0,-2.0,-1.0
1.6951601928003592e+18,-1.0,-1.0,1.0,2.0,0.0,-2.0,-2.0,-1.0
1.6951601928003592e+18,1.0,0.0,-1.0,0.0,0.0,-1.0,-3.0,-2.0
1.695160192808356e+18,-1.0,-1.0,-1.0,-1.0,-1.0,-1.0,-2.0,-2.0
1.695160192808356e+18,0.0,0.0,-2.0,-1.0,2.0,0.0,-1.0,0.0
1.6951601928313413e+18,-1.0,-1.0,-1.0,0.0,-2.0,0.0,-1.0,-1.0
1.6951601928313413e+18,0.0,-1.0,0.0,0.0,-1.0,-1.0,1.0,-1.0
1.6951601928323405e+18,-2.0,-2.0,-2.0,-2.0,-1.0,0.0,-2.0,1.0
1.695160192833345e+18,-2.0,-1.0,-1.0,-2.0,-2.0,0.0,-2.0,0.0
1.695160192837337e+18,0.0,-1.0,-3.0,-3.0,-1.0,-1.0,-2.0,-1.0
1.695160192837337e+18,1.0,-2.0,-2.0,0.0,1.0,0.0,-1.0,0.0
1.695160192856328e+18,0.0,0.0,0.0,-1.0,0.0,-1.0,-2.0,0.0
1.6951601928583265e+18,-1.0,-2.0,-1.0,0.0,-1.0,-1.0,-1.0,-1.0
1.695160192861324e+18,0.0,-1.0,-1.0,2.0,-1.0,-1.0,0.0,-1.0
1.695160192861324e+18,-2.0,-2.0,0.0,-2.0,-2.0,0.0,-1.0,-1.0
1.695160192861324e+18,1.0,-1.0,-2.0,-1.0,0.0,-2.0,1.0,-3.0
1.695160192861324e+18,0.0,-1.0,-2.0,-2.0,1.0,-1.0,0.0,-1.0
1.695160192883311e+18,0.0,0.0,0.0,-3.0,-1.0,-1.0,-1.0,0.0
1.695160192883311e+18,0.0,0.0,-2.0,-1.0,0.0,1.0,-1.0,-1.0
1.69516019288431e+18,0.0,-2.0,-1.0,0.0,0.0,0.0,1.0,-1.0
1.69516019288431e+18,0.0,1.0,-1.0,0.0,-3.0,-1.0,0.0,-2.0
1.6951601929003013e+18,0.0,-1.0,-2.0,-3.0,1.0,-1.0,-4.0,0.0
1.6951601929003013e+18,-1.0,-1.0,-1.0,0.0,-1.0,0.0,-1.0,0.0
1.6951601929052987e+18,0.0,-1.0,-2.0,-1.0,-1.0,-1.0,-2.0,-3.0
1.6951601929052987e+18,0.0,-1.0,0.0,0.0,-1.0,-1.0,0.0,-1.0
1.6951601929232888e+18,1.0,0.0,0.0,0.0,0.0,-1.0,-1.0,-2.0
1.695160192924288e+18,-1.0,1.0,-2.0,-2.0,-1.0,-1.0,-2.0,0.0
1.695160192924288e+18,0.0,-2.0,-1.0,-2.0,-1.0,0.0,1.0,-1.0
1.695160192925288e+18,-1.0,0.0,-1.0,-1.0,0.0,0.0,0.0,-1.0
1.6951601929432763e+18,-2.0,0.0,-1.0,-1.0,0.0,-1.0,0.0,-1.0
1.6951601929432763e+18,0.0,-1.0,0.0,0.0,1.0,0.0,-1.0,-1.0
1.6951601929442765e+18,0.0,-1.0,-1.0,0.0,1.0,0.0,-1.0,0.0
1.6951601929442765e+18,0.0,0.0,1.0,-2.0,-2.0,-1.0,0.0,0.0
1.6951601929662638e+18,-2.0,-1.0,0.0,-3.0,0.0,-1.0,0.0,-2.0
1.6951601929662638e+18,0.0,-1.0,-1.0,0.0,0.0,-2.0,-1.0,0.0
1.6951601929672648e+18,-1.0,0.0,0.0,-2.0,-2.0,-1.0,1.0,0.0
1.6951601929672648e+18,-2.0,-1.0,-2.0,0.0,-1.0,0.0,-1.0,0.0
1.6951601929892508e+18,-1.0,-1.0,1.0,-1.0,-2.0,-1.0,-1.0,-1.0
1.6951601929902502e+18,-1.0,-1.0,0.0,-1.0,0.0,1.0,0.0,-2.0
1.6951601929902502e+18,-1.0,1.0,0.0,0.0,-1.0,0.0,-3.0,-1.0
1.6951601929902502e+18,0.0,-2.0,-3.0,0.0,-1.0,-1.0,-2.0,-1.0
1.6951601930032425e+18,0.0,-1.0,-1.0,0.0,-1.0,-1.0,0.0,0.0
1.6951601930032425e+18,-1.0,0.0,-1.0,-1.0,-1.0,-2.0,0.0,0.0
1.6951601930042427e+18,0.0,-1.0,-1.0,-2.0,-1.0,0.0,2.0,0.0
1.6951601930042427e+18,-3.0,0.0,0.0,-2.0,-1.0,-2.0,-2.0,0.0
1.6951601930272284e+18,-2.0,-1.0,-1.0,0.0,1.0,0.0,-3.0,1.0
1.6951601930272284e+18,-1.0,0.0,-3.0,1.0,-2.0,-2.0,-1.0,0.0
1.6951601930282284e+18,-1.0,-1.0,-1.0,0.0,1.0,-2.0,-2.0,1.0
1.6951601930282284e+18,0.0,-1.0,0.0,1.0,-1.0,-1.0,0.0,0.0
1.695160193048217e+18,1.0,-2.0,-2.0,0.0,-1.0,-2.0,-1.0,-2.0
1.6951601930492224e+18,-3.0,-2.0,-2.0,0.0,-2.0,0.0,-2.0,-2.0
1.695160193050216e+18,-2.0,-2.0,-3.0,1.0,-1.0,0.0,-2.0,-1.0
1.695160193051215e+18,-2.0,-2.0,-2.0,0.0,-1.0,-1.0,1.0,-2.0
1.6951601930712036e+18,-1.0,1.0,-1.0,-2.0,-1.0,0.0,0.0,-2.0
1.6951601930712036e+18,-2.0,-1.0,0.0,0.0,-2.0,-1.0,-1.0,-1.0
1.6951601930712036e+18,-2.0,-1.0,-1.0,-1.0,-2.0,0.0,1.0,0.0
1.695160193072203e+18,-2.0,-1.0,-2.0,0.0,-1.0,0.0,-3.0,-1.0
1.6951601930931907e+18,-1.0,-3.0,1.0,2.0,-1.0,0.0,0.0,1.0
1.6951601930941903e+18,-1.0,0.0,-1.0,-2.0,1.0,-1.0,0.0,-1.0
1.6951601930941903e+18,-2.0,-3.0,-1.0,0.0,-1.0,0.0,0.0,0.0
1.6951601930941903e+18,0.0,0.0,-2.0,0.0,0.0,-1.0,0.0,-1.0
1.6951601931001866e+18,-2.0,-2.0,-2.0,0.0,1.0,-2.0,-1.0,0.0
1.6951601931081828e+18,-1.0,-1.0,0.0,-1.0,-1.0,1.0,-2.0,0.0
1.6951601931091814e+18,-1.0,0.0,1.0,0.0,0.0,-1.0,-1.0,0.0
1.6951601931091814e+18,-1.0,0.0,-1.0,-3.0,-3.0,0.0,0.0,-1.0
1.695160193138165e+18,0.0,0.0,-2.0,-1.0,-2.0,-2.0,-1.0,-4.0
1.695160193138165e+18,1.0,0.0,-1.0,-4.0,-1.0,-1.0,-1.0,-1.0
1.6951601931391652e+18,-1.0,1.0,0.0,0.0,-1.0,0.0,-1.0,-1.0
1.695160193140165e+18,-1.0,-1.0,1.0,1.0,2.0,-1.0,-1.0,0.0
1.69516019314616e+18,0.0,0.0,-1.0,0.0,0.0,0.0,1.0,0.0
1.69516019314616e+18,0.0,-1.0,0.0,0.0,2.0,-1.0,-1.0,-1.0
1.69516019314616e+18,0.0,-2.0,-1.0,-3.0,-3.0,-3.0,0.0,-2.0
1.6951601931471598e+18,-1.0,-2.0,-1.0,0.0,-1.0,0.0,0.0,-1.0
1.6951601931621514e+18,-2.0,-1.0,-1.0,-1.0,0.0,1.0,1.0,-1.0
1.6951601931621514e+18,-1.0,-1.0,2.0,-1.0,3.0,3.0,1.0,2.0
1.6951601931681472e+18,0.0,2.0,1.0,1.0,4.0,1.0,0.0,0.0
1.6951601931681472e+18,1.0,1.0,1.0,0.0,2.0,1.0,1.0,1.0
1.69516019318314e+18,0.0,3.0,1.0,0.0,1.0,1.0,1.0,1.0
1.69516019318314e+18,1.0,1.0,0.0,0.0,-2.0,-1.0,1.0,0.0
1.6951601931841395e+18,-1.0,-1.0,0.0,-1.0,0.0,-2.0,1.0,0.0
1.6951601931841395e+18,1.0,0.0,0.0,-2.0,0.0,-1.0,-1.0,-1.0
1.6951601932141215e+18,-1.0,1.0,0.0,-2.0,0.0,1.0,-1.0,0.0
1.6951601932171197e+18,-1.0,-2.0,1.0,0.0,0.0,-1.0,-1.0,0.0
1.6951601932171197e+18,0.0,0.0,0.0,-1.0,-4.0,0.0,0.0,1.0
1.6951601932181207e+18,-1.0,0.0,1.0,0.0,-1.0,-1.0,-1.0,-2.0
1.6951601932201183e+18,0.0,-1.0,1.0,0.0,-2.0,-1.0,0.0,-1.0
1.6951601932201183e+18,-1.0,-1.0,0.0,-1.0,0.0,2.0,0.0,-1.0
1.6951601932211172e+18,-1.0,-3.0,0.0,-1.0,0.0,0.0,0.0,-1.0
1.6951601932211172e+18,-1.0,0.0,-1.0,-1.0,-1.0,-1.0,-1.0,0.0
1.6951601932441052e+18,0.0,0.0,1.0,1.0,-1.0,-2.0,-1.0,0.0
1.6951601932451046e+18,-1.0,-3.0,0.0,-2.0,1.0,-2.0,-2.0,-1.0
1.6951601932451046e+18,0.0,0.0,0.0,0.0,-1.0,0.0,-3.0,-1.0
1.6951601932451046e+18,-1.0,-1.0,-1.0,-3.0,0.0,-1.0,1.0,-3.0
1.6951601932670912e+18,-1.0,-1.0,-2.0,-2.0,-2.0,-1.0,0.0,0.0
1.6951601932710897e+18,-1.0,1.0,-2.0,-1.0,-1.0,-1.0,0.0,-2.0
1.6951601932720886e+18,1.0,1.0,-1.0,-1.0,0.0,1.0,0.0,-1.0
1.6951601932720886e+18,-2.0,0.0,0.0,-3.0,0.0,-1.0,-2.0,-1.0
1.6951601932800837e+18,-1.0,-1.0,-1.0,1.0,0.0,-1.0,-1.0,-2.0
1.6951601932800837e+18,-1.0,0.0,-1.0,0.0,-1.0,-2.0,0.0,-1.0
1.695160193281084e+18,1.0,-1.0,-1.0,-2.0,0.0,-2.0,0.0,1.0
1.695160193281084e+18,-1.0,0.0,0.0,-3.0,-1.0,-1.0,0.0,0.0
1.695160193303071e+18,1.0,0.0,-1.0,-2.0,-1.0,-1.0,-1.0,1.0
1.695160193303071e+18,-2.0,-1.0,0.0,1.0,1.0,0.0,0.0,0.0
1.695160193303071e+18,-2.0,0.0,-1.0,0.0,1.0,2.0,1.0,1.0
1.6951601933040714e+18,0.0,-2.0,-3.0,-2.0,-5.0,-2.0,-1.0,-3.0
1.695160193327057e+18,-1.0,-2.0,-1.0,-1.0,1.0,0.0,-2.0,-2.0
1.695160193327057e+18,0.0,1.0,-1.0,-2.0,-2.0,-1.0,-2.0,-3.0
1.6951601933280563e+18,-1.0,-1.0,0.0,0.0,0.0,0.0,-1.0,0.0
1.6951601933280563e+18,-1.0,0.0,0.0,0.0,1.0,-1.0,1.0,1.0
1.6951601933420483e+18,0.0,-1.0,-2.0,-3.0,-3.0,-2.0,-1.0,-2.0
1.6951601933420483e+18,0.0,1.0,-1.0,-2.0,-4.0,-3.0,-1.0,-1.0
1.6951601933430497e+18,-1.0,-1.0,-1.0,-3.0,-1.0,-1.0,-2.0,-2.0
1.6951601933430497e+18,0.0,-1.0,0.0,3.0,0.0,1.0,0.0,-2.0
1.695160193363036e+18,-1.0,0.0,0.0,-2.0,-5.0,-4.0,-1.0,-2.0
1.695160193363036e+18,-1.0,-1.0,-2.0,0.0,5.0,5.0,1.0,0.0
1.695160193363036e+18,0.0,-1.0,-2.0,-2.0,-3.0,0.0,0.0,0.0
1.695160193363036e+18,-1.0,-1.0,-1.0,-2.0,-2.0,0.0,0.0,-3.0
1.6951601933860242e+18,0.0,1.0,1.0,1.0,-1.0,-1.0,-1.0,0.0
1.6951601933870234e+18,-2.0,-1.0,0.0,0.0,2.0,-1.0,0.0,-1.0
1.6951601933870234e+18,-2.0,0.0,0.0,1.0,-2.0,-4.0,-2.0,-1.0
1.6951601933870234e+18,-1.0,0.0,-3.0,-1.0,0.0,1.0,0.0,2.0
1.6951601934080113e+18,-2.0,-3.0,-2.0,-2.0,-2.0,-1.0,0.0,0.0
1.6951601934090102e+18,-1.0,-1.0,-2.0,0.0,-3.0,-3.0,-2.0,-1.0
1.6951601934090102e+18,-2.0,-4.0,-5.0,-4.0,-3.0,-3.0,-2.0,-1.0
1.6951601934090102e+18,-2.0,-1.0,-2.0,-5.0,-7.0,-2.0,-1.0,0.0
1.6951601934309975e+18,-2.0,1.0,1.0,2.0,2.0,0.0,-4.0,-1.0
1.6951601934319985e+18,0.0,-1.0,-1.0,1.0,2.0,4.0,6.0,0.0
1.6951601934319985e+18,-1.0,1.0,-1.0,1.0,1.0,-1.0,-4.0,-4.0
1.695160193432997e+18,0.0,-1.0,3.0,4.0,3.0,0.0,5.0,1.0
1.695160193452985e+18,-3.0,-2.0,-7.0,-7.0,-3.0,1.0,1.0,-1.0
1.6951601934539845e+18,0.0,0.0,0.0,3.0,-2.0,-3.0,-4.0,1.0
1.695160193454984e+18,-1.0,1.0,2.0,5.0,4.0,2.0,-1.0,0.0
1.695160193454984e+18,2.0,8.0,-4.0,-11.0,-3.0,-4.0,-1.0,0.0
1.6951601934599808e+18,2.0,3.0,4.0,10.0,3.0,4.0,-1.0,0.0
1.6951601934609805e+18,0.0,-1.0,0.0,-5.0,-3.0,-2.0,-2.0,-1.0
1.6951601934619807e+18,3.0,3.0,1.0,-2.0,-3.0,-2.0,3.0,0.0
1.6951601934619807e+18,-2.0,-5.0,-4.0,-3.0,-1.0,1.0,1.0,-1.0
1.6951601935149496e+18,0.0,1.0,-3.0,-8.0,-6.0,-3.0,1.0,0.0
1.6951601935149496e+18,-3.0,-5.0,-6.0,3.0,2.0,2.0,-2.0,-1.0
1.6951601935159488e+18,-1.0,-2.0,-3.0,-9.0,-7.0,-2.0,-1.0,0.0
1.6951601935159488e+18,0.0,0.0,0.0,-1.0,-1.0,-1.0,-4.0,-2.0
1.695160193516948e+18,-1.0,-1.0,3.0,3.0,1.0,0.0,0.0,-1.0
1.695160193516948e+18,-2.0,0.0,0.0,-2.0,-2.0,-3.0,-1.0,1.0
1.6951601935209457e+18,1.0,0.0,-7.0,-2.0,4.0,2.0,1.0,1.0
1.6951601935209457e+18,-6.0,-9.0,3.0,6.0,2.0,-2.0,-1.0,-3.0
1.695160193523944e+18,-1.0,0.0,2.0,0.0,1.0,0.0,0.0,-2.0
1.6951601935249441e+18,0.0,-4.0,1.0,0.0,-3.0,-4.0,-1.0,-1.0
1.6951601935279414e+18,-2.0,-2.0,-8.0,0.0,6.0,2.0,3.0,1.0
1.6951601935279414e+18,1.0,4.0,7.0,7.0,1.0,1.0,-2.0,0.0
1.6951601935429332e+18,-2.0,-1.0,-5.0,-5.0,-4.0,-3.0,-1.0,-3.0
1.6951601935429332e+18,0.0,1.0,0.0,-7.0,-3.0,1.0,-1.0,1.0
1.6951601935429332e+18,-2.0,-5.0,1.0,4.0,2.0,0.0,-7.0,-2.0
1.6951601935439327e+18,-4.0,-4.0,-7.0,-5.0,-1.0,-1.0,4.0,0.0
1.6951601935679204e+18,2.0,9.0,2.0,4.0,3.0,1.0,-1.0,1.0
1.6951601935689198e+18,-1.0,0.0,3.0,-4.0,-2.0,0.0,10.0,1.0
1.6951601935689198e+18,-1.0,-2.0,3.0,2.0,-3.0,-6.0,-2.0,-3.0
1.6951601935689198e+18,-2.0,-7.0,-10.0,-3.0,0.0,1.0,-4.0,-3.0
1.6951601935789125e+18,3.0,7.0,1.0,0.0,-1.0,-3.0,-2.0,0.0
1.6951601935799114e+18,-7.0,-17.0,-6.0,0.0,-6.0,-5.0,-5.0,-6.0
1.695160193587907e+18,1.0,4.0,0.0,-3.0,-2.0,-2.0,-3.0,1.0
1.695160193587907e+18,2.0,-4.0,1.0,5.0,5.0,-1.0,2.0,4.0
1.6951601936028995e+18,-3.0,-5.0,1.0,-4.0,-4.0,3.0,2.0,0.0
1.6951601936028995e+18,2.0,4.0,-3.0,-5.0,-1.0,-2.0,-5.0,-1.0
1.6951601936028995e+18,0.0,5.0,3.0,3.0,0.0,4.0,5.0,-1.0
1.6951601936038984e+18,-1.0,-1.0,0.0,4.0,-1.0,-2.0,-5.0,-1.0
1.6951601936298836e+18,-1.0,-1.0,-4.0,-3.0,-1.0,4.0,4.0,1.0
1.6951601936308836e+18,-4.0,-11.0,2.0,14.0,12.0,6.0,1.0,0.0
1.6951601936308836e+18,-5.0,-8.0,-11.0,-10.0,-8.0,-4.0,-3.0,-1.0
1.6951601936308836e+18,4.0,13.0,10.0,3.0,6.0,5.0,5.0,3.0
1.6951601936498732e+18,-6.0,-13.0,-12.0,-7.0,-3.0,-3.0,-7.0,-5.0
1.6951601936498732e+18,-2.0,5.0,4.0,7.0,4.0,-1.0,1.0,-4.0
1.6951601936508746e+18,5.0,-3.0,1.0,0.0,2.0,1.0,2.0,3.0
1.6951601936508746e+18,1.0,4.0,1.0,0.0,-1.0,-1.0,0.0,1.0
1.695160193662865e+18,0.0,-4.0,2.0,10.0,7.0,0.0,-1.0,0.0
1.695160193662865e+18,-7.0,-20.0,-15.0,-4.0,1.0,1.0,-2.0,-2.0
1.695160193662865e+18,-1.0,2.0,4.0,-1.0,-2.0,-2.0,3.0,-2.0
1.6951601936638638e+18,2.0,6.0,-5.0,-7.0,-4.0,-2.0,-2.0,1.0
1.6951601936928504e+18,4.0,1.0,3.0,3.0,5.0,2.0,2.0,3.0
1.6951601936928504e+18,2.0,10.0,1.0,-5.0,-5.0,-4.0,-3.0,4.0
1.695160193693847e+18,-4.0,10.0,8.0,0.0,-6.0,-8.0,-10.0,-6.0
1.695160193693847e+18,1.0,2.0,2.0,-3.0,-3.0,1.0,-2.0,-4.0
1.6951601937008448e+18,-7.0,-9.0,-8.0,-3.0,-3.0,-1.0,8.0,1.0
1.6951601937008448e+18,-2.0,4.0,0.0,-3.0,-6.0,-1.0,-7.0,-13.0
1.6951601937328253e+18,0.0,-14.0,0.0,0.0,1.0,1.0,2.0,6.0
1.6951601937348232e+18,1.0,0.0,5.0,1.0,-1.0,-1.0,-1.0,-1.0
1.6951601937348232e+18,-4.0,-9.0,-5.0,-4.0,-5.0,-2.0,0.0,-1.0
1.6951601937358236e+18,3.0,0.0,0.0,0.0,-1.0,-2.0,0.0,4.0
1.6951601937358236e+18,-9.0,-3.0,8.0,11.0,-1.0,-1.0,0.0,-6.0
1.6951601937358236e+18,-4.0,1.0,-13.0,-13.0,-8.0,-6.0,-5.0,-5.0
1.695160193752815e+18,2.0,0.0,4.0,6.0,2.0,3.0,2.0,3.0
1.6951601937538138e+18,2.0,7.0,2.0,-3.0,-6.0,-2.0,-1.0,1.0
1.6951601937538138e+18,2.0,1.0,-7.0,-8.0,-2.0,-1.0,1.0,-1.0
1.6951601937548116e+18,-5.0,-2.0,0.0,0.0,-2.0,-6.0,-5.0,-3.0
1.6951601937688046e+18,1.0,7.0,4.0,0.0,-1.0,-7.0,-9.0,-3.0
1.6951601937688046e+18,0.0,5.0,-1.0,-1.0,3.0,7.0,4.0,3.0
1.6951601937688046e+18,-3.0,-4.0,-6.0,-8.0,-6.0,-8.0,-9.0,-6.0
1.6951601937698043e+18,0.0,-3.0,2.0,3.0,2.0,1.0,9.0,1.0
1.6951601937997865e+18,-1.0,2.0,-2.0,-5.0,-1.0,7.0,6.0,2.0
1.6951601937997865e+18,-1.0,2.0,2.0,1.0,-5.0,-7.0,-9.0,-2.0
1.6951601937997865e+18,-2.0,-4.0,1.0,2.0,1.0,8.0,-4.0,2.0
1.6951601937997865e+18,-3.0,-3.0,-1.0,1.0,5.0,-13.0,-19.0,-6.0
1.695160193850757e+18,-1.0,0.0,-4.0,-5.0,5.0,12.0,16.0,2.0
1.695160193850757e+18,2.0,-1.0,-3.0,-8.0,-5.0,-20.0,-4.0,0.0
1.695160193850757e+18,-1.0,4.0,-1.0,7.0,-13.0,20.0,3.0,1.0
1.6951601938517565e+18,-2.0,-6.0,7.0,7.0,9.0,-10.0,-16.0,-3.0
1.6951601938517565e+18,2.0,0.0,0.0,2.0,-4.0,-1.0,4.0,-1.0
1.695160193852756e+18,-2.0,-3.0,0.0,-5.0,10.0,16.0,8.0,3.0
1.695160193852756e+18,1.0,0.0,-2.0,-4.0,-6.0,-24.0,1.0,1.0
1.695160193852756e+18,-1.0,-7.0,1.0,0.0,10.0,29.0,2.0,0.0
1.695160193882739e+18,-1.0,-6.0,-1.0,14.0,11.0,-20.0,-18.0,-4.0
1.695160193882739e+18,3.0,7.0,13.0,-2.0,34.0,66.0,27.0,9.0
1.695160193882739e+18,1.0,-2.0,1.0,13.0,27.0,22.0,1.0,0.0
1.6951601938837386e+18,-2.0,-1.0,8.0,-1.0,-16.0,-25.0,9.0,3.0
1.6951601939097231e+18,-1.0,0.0,4.0,-7.0,-1.0,8.0,-11.0,-8.0
1.6951601939107228e+18,-8.0,-8.0,-24.0,-18.0,-24.0,-33.0,-4.0,-4.0
1.6951601939107228e+18,6.0,4.0,-4.0,1.0,-13.0,-12.0,4.0,6.0
1.6951601939107228e+18,-5.0,-5.0,3.0,11.0,5.0,24.0,-5.0,-6.0
1.6951601939107228e+18,4.0,5.0,-5.0,-6.0,-8.0,-10.0,4.0,2.0
1.6951601939107228e+18,3.0,4.0,8.0,16.0,9.0,1.0,5.0,0.0
1.6951601939367089e+18,-4.0,-7.0,-21.0,-27.0,-4.0,-5.0,-11.0,-7.0
1.6951601939367089e+18,-3.0,-4.0,-9.0,-3.0,-3.0,-8.0,2.0,-3.0
1.6951601939367089e+18,-4.0,-3.0,18.0,0.0,-9.0,6.0,2.0,-4.0
1.6951601939367089e+18,4.0,7.0,-4.0,2.0,18.0,-8.0,1.0,5.0
1.6951601939367089e+18,1.0,3.0,30.0,10.0,3.0,8.0,3.0,2.0
1.6951601939367089e+18,1.0,-4.0,-33.0,-25.0,-7.0,11.0,0.0,-1.0
1.6951601939497024e+18,-1.0,-6.0,15.0,13.0,1.0,-6.0,-2.0,2.0
1.6951601939497024e+18,-5.0,-10.0,8.0,2.0,-20.0,-12.0,-19.0,-10.0
1.6951601939497024e+18,5.0,1.0,16.0,25.0,28.0,4.0,16.0,8.0
1.6951601939497024e+18,6.0,-4.0,-24.0,-37.0,-7.0,-1.0,1.0,4.0
1.695160193971688e+18,-3.0,-7.0,-22.0,-18.0,-10.0,-5.0,-3.0,-2.0
1.695160193971688e+18,3.0,2.0,8.0,2.0,1.0,-4.0,-3.0,0.0
1.6951601939726881e+18,-10.0,-3.0,-6.0,9.0,6.0,9.0,-1.0,-3.0
1.695160193973687e+18,-5.0,5.0,23.0,34.0,11.0,4.0,4.0,0.0
1.695160194009666e+18,7.0,11.0,-4.0,-22.0,-1.0,2.0,11.0,9.0
1.695160194009666e+18,-3.0,-1.0,-21.0,-7.0,-15.0,-18.0,-24.0,-8.0
1.6951601940106655e+18,-1.0,2.0,-3.0,-9.0,2.0,10.0,16.0,-1.0
1.6951601940106655e+18,-1.0,1.0,10.0,9.0,0.0,-7.0,0.0,-1.0
1.695160194011665e+18,-4.0,1.0,-5.0,2.0,-5.0,-5.0,-12.0,-6.0
1.695160194011665e+18,2.0,3.0,8.0,7.0,0.0,11.0,16.0,3.0
1.695160194015668e+18,1.0,1.0,4.0,5.0,1.0,0.0,-2.0,-2.0
1.695160194015668e+18,0.0,1.0,-2.0,-6.0,-2.0,-6.0,1.0,0.0
1.6951601940306537e+18,-3.0,-4.0,-4.0,-2.0,-3.0,-2.0,-5.0,-1.0
1.6951601940316582e+18,-4.0,-1.0,2.0,4.0,2.0,5.0,-20.0,-4.0
1.6951601940326523e+18,1.0,4.0,10.0,16.0,3.0,-3.0,13.0,-1.0
1.6951601940326523e+18,-2.0,-5.0,-23.0,-20.0,-10.0,-3.0,1.0,0.0
1.6951601940456456e+18,-2.0,0.0,-6.0,5.0,1.0,-2.0,-5.0,-1.0
1.6951601940456456e+18,1.0,1.0,-3.0,-13.0,4.0,7.0,6.0,2.0
1.6951601940466473e+18,-2.0,-3.0,-4.0,5.0,1.0,-8.0,-15.0,-6.0
1.6951601940466473e+18,2.0,0.0,22.0,10.0,-4.0,-4.0,-1.0,4.0
1.695160194068632e+18,0.0,-2.0,-24.0,-18.0,-1.0,6.0,10.0,2.0
1.695160194068632e+18,-3.0,-1.0,1.0,2.0,-4.0,-10.0,-11.0,-3.0
1.6951601940696315e+18,-2.0,-3.0,-26.0,-36.0,-13.0,-2.0,5.0,-1.0
1.6951601940696315e+18,-1.0,0.0,6.0,26.0,15.0,0.0,-4.0,-4.0
1.695160194097616e+18,0.0,0.0,9.0,18.0,4.0,6.0,13.0,3.0
1.695160194097616e+18,3.0,2.0,14.0,-8.0,-5.0,1.0,1.0,0.0
1.6951601941126077e+18,-2.0,-4.0,-10.0,-1.0,0.0,-6.0,-13.0,-3.0
1.695160194117605e+18,-1.0,-2.0,6.0,5.0,-5.0,-3.0,-2.0,-2.0
1.6951601941375926e+18,2.0,3.0,4.0,-7.0,3.0,7.0,6.0,3.0
1.6951601941375926e+18,-2.0,-6.0,-8.0,-13.0,-6.0,-3.0,-1.0,-3.0
1.6951601941375926e+18,-1.0,4.0,20.0,22.0,6.0,-6.0,-17.0,-3.0
1.695160194138592e+18,-1.0,-2.0,-30.0,-21.0,-8.0,3.0,22.0,5.0
1.6951601941435894e+18,-1.0,6.0,26.0,32.0,5.0,-4.0,-9.0,-3.0
1.6951601941435894e+18,-2.0,0.0,3.0,6.0,1.0,7.0,9.0,2.0
1.6951601941445888e+18,-3.0,-11.0,-13.0,-25.0,-10.0,-7.0,-5.0,-4.0
1.6951601941445888e+18,-2.0,-2.0,-6.0,-10.0,-5.0,-3.0,-11.0,-4.0
1.6951601941585805e+18,0.0,1.0,5.0,-12.0,0.0,3.0,0.0,-1.0
1.6951601941585805e+18,-1.0,0.0,-22.0,0.0,-4.0,-2.0,-1.0,0.0
1.6951601941585805e+18,0.0,3.0,-6.0,-7.0,-1.0,-7.0,-5.0,-2.0
1.695160194159581e+18,-2.0,-5.0,-5.0,-5.0,2.0,5.0,7.0,3.0
1.6951601941825672e+18,-2.0,-8.0,-3.0,10.0,-6.0,-1.0,2.0,-2.0
1.6951601941825672e+18,0.0,0.0,-1.0,-25.0,0.0,0.0,5.0,-1.0
1.6951601941835666e+18,0.0,-1.0,22.0,25.0,-1.0,0.0,-3.0,2.0
1.6951601941835666e+18,0.0,5.0,7.0,20.0,3.0,-1.0,-1.0,-1.0
1.6951601941875635e+18,-1.0,-7.0,-14.0,-16.0,-2.0,-3.0,-3.0,-2.0
1.6951601941875635e+18,-1.0,-1.0,-19.0,-5.0,-4.0,-5.0,-4.0,0.0
1.6951601942035548e+18,-2.0,-5.0,-18.0,-28.0,-4.0,-1.0,2.0,-1.0
1.6951601942045545e+18,-2.0,2.0,21.0,22.0,1.0,-7.0,-32.0,-1.0
1.6951601942055542e+18,1.0,1.0,-4.0,-13.0,1.0,16.0,39.0,8.0
1.6951601942065536e+18,-2.0,-1.0,7.0,9.0,1.0,-1.0,3.0,1.0
1.6951601942065536e+18,0.0,2.0,-10.0,-14.0,2.0,-1.0,-2.0,2.0
1.695160194207553e+18,2.0,1.0,7.0,12.0,-4.0,-1.0,5.0,-5.0
1.695160194227542e+18,-1.0,-2.0,7.0,0.0,0.0,-2.0,-6.0,0.0
1.695160194235537e+18,1.0,-1.0,-1.0,-1.0,2.0,3.0,-1.0,0.0
1.6951601942365366e+18,1.0,0.0,-4.0,-4.0,-2.0,0.0,6.0,0.0
1.6951601942365366e+18,-2.0,-1.0,7.0,17.0,1.0,-3.0,-6.0,-2.0
1.69516019424853e+18,-1.0,0.0,-9.0,-15.0,-3.0,-9.0,-15.0,-2.0
1.6951601942495286e+18,0.0,-4.0,5.0,10.0,2.0,2.0,7.0,-1.0
1.6951601942495286e+18,-2.0,-1.0,-1.0,-10.0,-4.0,-4.0,-2.0,-3.0
1.6951601942495286e+18,-1.0,-2.0,-3.0,-14.0,-1.0,3.0,2.0,-3.0
1.695160194262522e+18,-3.0,-2.0,2.0,3.0,-6.0,-4.0,-10.0,-1.0
1.695160194262522e+18,0.0,2.0,1.0,8.0,0.0,-3.0,-11.0,-2.0
1.6951601942635208e+18,1.0,0.0,-1.0,8.0,1.0,0.0,5.0,2.0
1.6951601942635208e+18,-2.0,-3.0,-9.0,-21.0,-3.0,0.0,-4.0,2.0
1.6951601942925038e+18,-1.0,2.0,-6.0,3.0,4.0,3.0,2.0,-4.0
1.6951601942925038e+18,-2.0,0.0,8.0,9.0,1.0,2.0,9.0,1.0
1.6951601943094935e+18,-1.0,0.0,-1.0,0.0,0.0,1.0,2.0,-1.0
1.6951601943094935e+18,2.0,2.0,-1.0,-5.0,0.0,0.0,10.0,2.0
1.6951601943114929e+18,-1.0,0.0,0.0,4.0,0.0,-6.0,-14.0,-3.0
1.6951601943114929e+18,-1.0,-1.0,-1.0,-1.0,-2.0,-6.0,-12.0,-3.0
1.6951601943124923e+18,-1.0,-1.0,0.0,0.0,-2.0,2.0,1.0,0.0
1.6951601943124923e+18,-1.0,-2.0,-7.0,-9.0,-2.0,-8.0,-9.0,-3.0
1.6951601943314819e+18,-2.0,-3.0,4.0,4.0,0.0,-1.0,-7.0,-1.0
1.6951601943314819e+18,0.0,-1.0,-2.0,-10.0,4.0,5.0,6.0,2.0
1.6951601943314819e+18,-1.0,0.0,2.0,16.0,-5.0,-5.0,-8.0,-2.0
1.6951601943324818e+18,0.0,0.0,1.0,-5.0,-1.0,3.0,7.0,1.0
1.695160194345476e+18,-2.0,0.0,0.0,4.0,0.0,-7.0,-6.0,-5.0
1.6951601943524716e+18,0.0,0.0,-8.0,-15.0,-4.0,-1.0,-1.0,0.0
1.6951601943534694e+18,2.0,0.0,2.0,8.0,2.0,1.0,0.0,-2.0
1.6951601943544686e+18,-1.0,-4.0,-1.0,-12.0,-4.0,-2.0,-4.0,-1.0
1.6951601943784556e+18,-2.0,0.0,5.0,8.0,1.0,-1.0,3.0,0.0
1.6951601943784556e+18,1.0,2.0,-2.0,-7.0,-1.0,0.0,-4.0,-1.0
1.6951601943784556e+18,-1.0,0.0,0.0,1.0,-1.0,-1.0,1.0,0.0
1.6951601943784556e+18,0.0,-1.0,-1.0,-5.0,1.0,2.0,7.0,3.0
1.6951601943914483e+18,-3.0,-3.0,-7.0,-6.0,-4.0,-2.0,-2.0,0.0
1.695160194392447e+18,0.0,1.0,2.0,6.0,3.0,2.0,0.0,-1.0
1.695160194392447e+18,-2.0,0.0,0.0,-6.0,-1.0,-2.0,-3.0,-1.0
1.695160194392447e+18,0.0,0.0,-3.0,-15.0,-4.0,-1.0,3.0,2.0
1.6951601944134346e+18,-3.0,-1.0,8.0,18.0,-1.0,-2.0,-1.0,-3.0
1.6951601944134346e+18,0.0,0.0,0.0,2.0,1.0,-4.0,-4.0,-1.0
1.6951601944154335e+18,0.0,0.0,-6.0,-3.0,0.0,1.0,0.0,1.0
1.6951601944174336e+18,-2.0,0.0,-1.0,-12.0,0.0,1.0,0.0,0.0
1.6951601944304256e+18,-1.0,-1.0,1.0,-1.0,1.0,0.0,-1.0,-1.0
1.6951601944314248e+18,0.0,-3.0,-1.0,7.0,-1.0,-1.0,2.0,-1.0
1.695160194442418e+18,-1.0,-1.0,-3.0,-6.0,-2.0,0.0,-2.0,-1.0
1.695160194442418e+18,0.0,-1.0,1.0,8.0,-1.0,0.0,1.0,-1.0
1.6951601944604083e+18,1.0,-1.0,-4.0,-5.0,0.0,0.0,0.0,0.0
1.6951601944604083e+18,-4.0,-2.0,6.0,11.0,3.0,-2.0,0.0,-3.0
1.6951601944614088e+18,-1.0,-1.0,-1.0,-5.0,1.0,0.0,0.0,0.0
1.6951601944614088e+18,-2.0,0.0,2.0,7.0,0.0,-1.0,-2.0,-1.0
1.695160194476403e+18,0.0,-1.0,0.0,-1.0,-1.0,2.0,1.0,-1.0
1.695160194476403e+18,0.0,0.0,-4.0,-5.0,-2.0,0.0,-1.0,1.0
1.6951601944774003e+18,-2.0,-1.0,0.0,-1.0,-1.0,-1.0,0.0,-2.0
1.6951601944774003e+18,-2.0,-1.0,0.0,4.0,1.0,1.0,2.0,-1.0
1.6951601944883914e+18,1.0,1.0,-2.0,-2.0,1.0,-2.0,-1.0,-2.0
1.6951601944883914e+18,-1.0,-2.0,1.0,2.0,-1.0,-1.0,-1.0,0.0
1.6951601944893908e+18,-2.0,-2.0,-2.0,-1.0,-3.0,-2.0,-2.0,-1.0
1.6951601944893908e+18,0.0,-1.0,0.0,2.0,0.0,1.0,1.0,1.0
1.6951601945023836e+18,1.0,1.0,-1.0,-1.0,-1.0,0.0,1.0,0.0
1.6951601945023836e+18,-1.0,-1.0,1.0,1.0,-1.0,-1.0,-2.0,-2.0
1.6951601945493576e+18,0.0,-2.0,-3.0,-3.0,-2.0,0.0,-1.0,-1.0
1.695160194550357e+18,-2.0,-1.0,0.0,0.0,-1.0,-2.0,-2.0,-3.0
1.695160194551356e+18,0.0,0.0,1.0,-2.0,1.0,-3.0,-1.0,1.0
1.695160194551356e+18,-2.0,-1.0,-3.0,-3.0,-2.0,-4.0,-5.0,-5.0
1.6951601945523566e+18,2.0,3.0,3.0,4.0,1.0,3.0,13.0,4.0
1.6951601945523566e+18,0.0,-1.0,-4.0,-2.0,-2.0,-1.0,-4.0,0.0
1.6951601945723448e+18,0.0,-1.0,-2.0,-2.0,-2.0,-4.0,-6.0,-1.0
1.6951601945723448e+18,-2.0,0.0,-4.0,-2.0,2.0,8.0,18.0,4.0
1.6951601945733435e+18,0.0,1.0,1.0,2.0,1.0,0.0,-2.0,-1.0
1.6951601945733435e+18,-1.0,-2.0,0.0,-2.0,-3.0,-2.0,-6.0,-2.0
1.6951601945873352e+18,0.0,1.0,-1.0,2.0,0.0,0.0,-1.0,-1.0
1.6951601945933322e+18,-2.0,-1.0,-3.0,-5.0,-2.0,-1.0,2.0,-1.0
1.695160194594333e+18,0.0,-2.0,1.0,-4.0,-1.0,-1.0,1.0,-2.0
1.695160194594333e+18,-1.0,-1.0,-1.0,0.0,-3.0,-3.0,-3.0,-1.0
1.695160194594333e+18,-2.0,-2.0,0.0,0.0,-2.0,-1.0,1.0,-1.0
1.695160194594333e+18,1.0,-2.0,1.0,1.0,0.0,-2.0,-3.0,-3.0
1.695160194607325e+18,-1.0,0.0,1.0,0.0,-2.0,0.0,0.0,1.0
1.695160194607325e+18,-1.0,-1.0,3.0,4.0,2.0,1.0,-2.0,1.0
1.6951601946333092e+18,1.0,-1.0,-4.0,-4.0,2.0,1.0,0.0,0.0
1.6951601946333092e+18,-2.0,0.0,-2.0,2.0,-2.0,-1.0,0.0,0.0
1.6951601946333092e+18,0.0,-1.0,0.0,-3.0,-2.0,-2.0,0.0,-1.0
1.6951601946333092e+18,0.0,0.0,0.0,2.0,-1.0,-4.0,-2.0,0.0
1.6951601946333092e+18,-2.0,-2.0,-3.0,-2.0,-1.0,-1.0,-3.0,-2.0
1.6951601946343086e+18,-1.0,0.0,-1.0,1.0,0.0,0.0,0.0,-1.0
1.695160194654298e+18,1.0,-2.0,3.0,3.0,-3.0,0.0,2.0,-2.0
1.695160194654298e+18,0.0,0.0,1.0,3.0,1.0,0.0,-2.0,-3.0
1.695160194654298e+18,0.0,-2.0,-2.0,-4.0,0.0,0.0,0.0,-1.0
1.6951601946552973e+18,-1.0,0.0,0.0,-1.0,-1.0,0.0,1.0,0.0
1.695160194668289e+18,-2.0,2.0,3.0,7.0,0.0,0.0,0.0,-2.0
1.695160194668289e+18,0.0,-3.0,-9.0,-10.0,-2.0,-3.0,-1.0,-1.0
1.6951601946692884e+18,-1.0,0.0,9.0,13.0,-1.0,-2.0,-3.0,-2.0
1.6951601946692884e+18,-3.0,-1.0,0.0,3.0,1.0,0.0,0.0,-1.0
1.6951601946912763e+18,-1.0,-1.0,-4.0,-7.0,-1.0,0.0,-1.0,0.0
1.6951601946912763e+18,0.0,1.0,2.0,0.0,0.0,0.0,1.0,-1.0
1.6951601946912763e+18,1.0,0.0,-4.0,-5.0,0.0,-1.0,-1.0,-1.0
1.6951601946912763e+18,-2.0,-1.0,-1.0,-3.0,-3.0,-2.0,-2.0,-1.0
1.6951601947142628e+18,-2.0,-2.0,-2.0,1.0,1.0,0.0,-1.0,-1.0
1.695160194715263e+18,0.0,-2.0,-7.0,-1.0,-1.0,0.0,-1.0,-1.0
1.695160194716262e+18,-2.0,1.0,-2.0,-2.0,-3.0,-2.0,-3.0,-2.0
1.6951601947172613e+18,0.0,0.0,1.0,1.0,-1.0,0.0,1.0,0.0
1.6951601947362496e+18,-1.0,-1.0,-2.0,-3.0,0.0,2.0,0.0,1.0
1.6951601947362496e+18,0.0,-1.0,0.0,-1.0,-1.0,0.0,-2.0,0.0
1.6951601947362496e+18,0.0,-1.0,-2.0,-4.0,0.0,-1.0,-2.0,0.0
1.695160194737249e+18,-1.0,0.0,-1.0,1.0,-2.0,-1.0,0.0,0.0
1.6951601947422474e+18,-2.0,-1.0,-5.0,0.0,1.0,-2.0,-1.0,-2.0
1.6951601947422474e+18,0.0,-2.0,9.0,3.0,-2.0,-2.0,-1.0,-2.0
1.6951601947512422e+18,0.0,-1.0,-2.0,-2.0,1.0,-1.0,-4.0,0.0
1.6951601947512422e+18,1.0,0.0,-1.0,0.0,0.0,1.0,-1.0,-1.0
1.6951601947742292e+18,-1.0,0.0,-4.0,-2.0,-1.0,0.0,0.0,0.0
1.6951601947742292e+18,0.0,1.0,-3.0,0.0,-3.0,-1.0,-1.0,-1.0
1.6951601947742292e+18,0.0,-1.0,-1.0,2.0,-1.0,-2.0,0.0,0.0
1.6951601947752282e+18,0.0,0.0,2.0,0.0,0.0,-2.0,-2.0,0.0
1.6951601947952161e+18,0.0,-1.0,-2.0,-3.0,0.0,-2.0,-2.0,-2.0
1.6951601947952161e+18,0.0,-1.0,0.0,3.0,-1.0,-2.0,0.0,-2.0
1.6951601948022134e+18,-1.0,-2.0,0.0,-4.0,1.0,1.0,1.0,2.0
1.6951601948032118e+18,0.0,-1.0,-1.0,-1.0,-1.0,-3.0,-1.0,-1.0
1.6951601948271982e+18,-2.0,-1.0,0.0,0.0,0.0,0.0,2.0,-1.0
1.695160194828197e+18,-2.0,-1.0,-2.0,-2.0,0.0,0.0,-1.0,2.0
1.695160194828197e+18,-1.0,-2.0,-1.0,-1.0,-1.0,-1.0,0.0,-4.0
1.695160194828197e+18,1.0,-1.0,-1.0,-2.0,0.0,-1.0,0.0,-1.0
1.6951601948291965e+18,-2.0,-1.0,0.0,-2.0,-3.0,1.0,-1.0,-1.0
1.6951601948291965e+18,0.0,-1.0,-2.0,-2.0,-1.0,1.0,-2.0,-2.0
1.695160194832196e+18,-1.0,0.0,-2.0,-3.0,-1.0,1.0,-2.0,-1.0
1.6951601948331942e+18,0.0,-2.0,0.0,-1.0,-2.0,0.0,0.0,1.0
1.6951601948511844e+18,-1.0,-1.0,-1.0,0.0,-3.0,-1.0,0.0,0.0
1.6951601948511844e+18,-2.0,-2.0,0.0,0.0,-1.0,-2.0,-2.0,-3.0
1.695160194852186e+18,-1.0,-1.0,-1.0,0.0,0.0,-1.0,0.0,1.0
1.695160194852186e+18,-3.0,-1.0,-2.0,-1.0,-1.0,1.0,-1.0,0.0
1.6951601948781696e+18,1.0,0.0,0.0,-1.0,-2.0,0.0,-2.0,-1.0
1.6951601948871634e+18,-2.0,-2.0,0.0,-2.0,-1.0,0.0,-2.0,0.0
1.6951601949031542e+18,0.0,-3.0,-3.0,-1.0,0.0,0.0,0.0,0.0
1.6951601949031542e+18,-1.0,0.0,-2.0,0.0,0.0,-1.0,-1.0,0.0
1.6951601949041533e+18,2.0,0.0,0.0,0.0,0.0,0.0,-1.0,-1.0
1.695160194905153e+18,0.0,0.0,-1.0,-3.0,-1.0,-1.0,-1.0,0.0
1.695160194909152e+18,1.0,-2.0,-1.0,-2.0,-1.0,-1.0,-1.0,-3.0
1.695160194909152e+18,0.0,-1.0,0.0,-2.0,-1.0,-2.0,-2.0,0.0
1.6951601949101512e+18,-2.0,-2.0,0.0,1.0,0.0,-2.0,1.0,0.0
1.6951601949101512e+18,-1.0,-1.0,-2.0,1.0,0.0,-1.0,1.0,0.0
1.6951601949111506e+18,-2.0,0.0,-1.0,-1.0,-2.0,-2.0,0.0,2.0
1.6951601949111506e+18,-1.0,0.0,0.0,-1.0,0.0,0.0,-1.0,-2.0
1.6951601949311378e+18,-1.0,-1.0,-2.0,-3.0,1.0,-1.0,-2.0,0.0
1.6951601949311378e+18,-1.0,0.0,1.0,-2.0,2.0,1.0,-2.0,1.0
1.695160194932143e+18,-1.0,1.0,-1.0,-2.0,-1.0,-1.0,1.0,0.0
1.695160194933137e+18,1.0,-1.0,-2.0,-1.0,1.0,0.0,-3.0,-2.0
1.6951601949461307e+18,-1.0,-2.0,0.0,0.0,-2.0,-1.0,-1.0,0.0
1.6951601949461307e+18,0.0,-1.0,-1.0,1.0,-2.0,0.0,0.0,-1.0
1.695160194953126e+18,-1.0,0.0,1.0,-1.0,0.0,0.0,-2.0,0.0
1.695160194954126e+18,-3.0,-3.0,-1.0,-2.0,-1.0,-2.0,0.0,-2.0
1.695160194969117e+18,1.0,-1.0,0.0,-1.0,-1.0,-1.0,-2.0,-1.0
1.695160194969117e+18,0.0,0.0,1.0,-2.0,0.0,0.0,0.0,-1.0
1.6951601949701164e+18,-1.0,0.0,0.0,0.0,0.0,-1.0,0.0,-1.0
1.6951601949701164e+18,1.0,1.0,0.0,-1.0,-1.0,-2.0,-1.0,0.0
1.6951601949911045e+18,0.0,0.0,-1.0,-2.0,1.0,-1.0,0.0,-1.0
1.6951601949911045e+18,-2.0,0.0,-1.0,-1.0,-2.0,-1.0,-1.0,-1.0
1.6951601949921047e+18,0.0,-1.0,0.0,1.0,0.0,-1.0,-1.0,-1.0
1.6951601949921047e+18,-2.0,-2.0,0.0,1.0,0.0,-1.0,-1.0,1.0
1.6951601950130908e+18,-1.0,-1.0,0.0,1.0,0.0,-1.0,0.0,-1.0
1.6951601950140908e+18,-2.0,0.0,-1.0,-1.0,0.0,0.0,1.0,-1.0
1.6951601950150912e+18,-2.0,0.0,-1.0,-1.0,-2.0,-2.0,1.0,0.0
1.69516019501609e+18,0.0,0.0,-2.0,-1.0,-2.0,1.0,0.0,0.0
1.6951601950280824e+18,-1.0,-1.0,-1.0,0.0,0.0,0.0,-1.0,1.0
1.6951601950290816e+18,0.0,-2.0,0.0,0.0,-2.0,-1.0,0.0,-1.0
1.6951601950300813e+18,0.0,-3.0,-1.0,-2.0,-2.0,-2.0,-2.0,-2.0
1.6951601950300813e+18,-1.0,0.0,-1.0,0.0,0.0,-1.0,-1.0,-1.0
1.6951601950510694e+18,0.0,1.0,0.0,-1.0,0.0,0.0,-1.0,0.0
1.6951601950580664e+18,0.0,-1.0,0.0,-1.0,-2.0,-1.0,-2.0,0.0
1.6951601950580664e+18,-1.0,0.0,-1.0,-2.0,-2.0,0.0,0.0,-1.0
1.695160195059068e+18,-1.0,0.0,0.0,-1.0,0.0,0.0,1.0,0.0
1.6951601950730632e+18,0.0,-3.0,0.0,0.0,-1.0,-1.0,0.0,-2.0
1.6951601950740577e+18,2.0,-1.0,0.0,1.0,-1.0,0.0,0.0,0.0
1.6951601950750564e+18,-2.0,0.0,-1.0,-2.0,0.0,-1.0,0.0,-2.0
1.6951601950750564e+18,-1.0,0.0,0.0,-2.0,0.0,-2.0,-1.0,-1.0
1.6951601951010412e+18,-1.0,-2.0,0.0,0.0,-1.0,1.0,1.0,0.0
1.69516019510304e+18,0.0,0.0,-1.0,-3.0,-1.0,0.0,1.0,-1.0
1.6951601951040402e+18,0.0,-1.0,-2.0,1.0,-1.0,0.0,-3.0,0.0
1.6951601951040402e+18,-2.0,0.0,1.0,-1.0,-1.0,0.0,1.0,0.0
1.6951601951180324e+18,-1.0,-1.0,-1.0,0.0,-1.0,0.0,-2.0,0.0
1.6951601951190313e+18,-2.0,-1.0,-1.0,0.0,-1.0,1.0,-3.0,-1.0
1.6951601951200302e+18,0.0,0.0,1.0,0.0,0.0,-1.0,-2.0,-1.0
1.6951601951200302e+18,1.0,-1.0,-1.0,0.0,-1.0,0.0,0.0,-1.0
1.6951601951240282e+18,0.0,0.0,-2.0,-1.0,-3.0,-1.0,-1.0,0.0
1.6951601951250273e+18,-1.0,-2.0,0.0,0.0,0.0,-1.0,1.0,-1.0
1.6951601951410186e+18,-1.0,-3.0,-1.0,-1.0,-1.0,1.0,0.0,-1.0
1.6951601951410186e+18,0.0,0.0,0.0,-2.0,-3.0,0.0,-1.0,-1.0
1.69516019515601e+18,1.0,-1.0,-1.0,-2.0,-2.0,0.0,-1.0,-1.0
1.6951601951590085e+18,0.0,-1.0,-2.0,0.0,0.0,0.0,-3.0,-2.0
1.6951601951590085e+18,0.0,-2.0,0.0,-1.0,1.0,0.0,-2.0,1.0
1.6951601951590085e+18,-1.0,-2.0,0.0,-1.0,0.0,1.0,-1.0,-1.0
1.6951601951779973e+18,-1.0,0.0,-1.0,-1.0,1.0,0.0,-1.0,-2.0
1.6951601951779973e+18,2.0,0.0,-1.0,0.0,-1.0,-2.0,-1.0,1.0
1.6951601951849943e+18,0.0,0.0,1.0,-2.0,0.0,-2.0,0.0,-1.0
1.6951601951849943e+18,-1.0,-2.0,0.0,0.0,-1.0,0.0,-1.0,-1.0
1.6951601951859932e+18,-3.0,-2.0,-2.0,-2.0,0.0,-2.0,0.0,-1.0
1.6951601951859932e+18,-1.0,-2.0,-2.0,0.0,2.0,-1.0,0.0,0.0
1.6951601951929882e+18,-2.0,0.0,-3.0,-1.0,0.0,-1.0,0.0,0.0
1.6951601951929882e+18,1.0,-2.0,-2.0,0.0,1.0,-2.0,-1.0,0.0
1.695160195211978e+18,0.0,0.0,0.0,-2.0,0.0,0.0,-1.0,-2.0
1.695160195211978e+18,-1.0,-2.0,0.0,0.0,0.0,-1.0,-1.0,-1.0
1.6951601952129795e+18,-1.0,-1.0,0.0,1.0,-2.0,0.0,0.0,-1.0
1.6951601952129795e+18,0.0,0.0,0.0,0.0,1.0,-2.0,-1.0,-2.0
1.6951601952309663e+18,0.0,-1.0,-3.0,-2.0,-2.0,1.0,-2.0,0.0
1.6951601952309663e+18,1.0,1.0,0.0,-2.0,1.0,-1.0,-1.0,-1.0
1.6951601952319729e+18,1.0,-2.0,0.0,0.0,1.0,0.0,0.0,1.0
1.6951601952319729e+18,0.0,0.0,-1.0,-1.0,-2.0,-1.0,-1.0,0.0
1.6951601952449597e+18,0.0,0.0,-1.0,-1.0,0.0,-1.0,-1.0,-1.0
1.6951601952449597e+18,-1.0,-2.0,-2.0,-2.0,-2.0,-2.0,2.0,-2.0
1.6951601952539553e+18,-2.0,0.0,-2.0,-1.0,1.0,-1.0,-1.0,-1.0
1.6951601952539553e+18,-2.0,-1.0,-2.0,-1.0,-1.0,-1.0,0.0,-1.0
1.6951601952689457e+18,0.0,0.0,0.0,1.0,-1.0,-1.0,0.0,-1.0
1.6951601952749414e+18,-1.0,0.0,-1.0,-1.0,0.0,-1.0,-2.0,1.0
1.6951601952799388e+18,1.0,0.0,-2.0,0.0,-2.0,-1.0,-1.0,-2.0
1.6951601952809395e+18,-1.0,-2.0,-2.0,-1.0,-1.0,-1.0,0.0,-2.0
1.6951601952909322e+18,-1.0,0.0,-1.0,0.0,0.0,-1.0,-1.0,0.0
1.695160195291932e+18,-1.0,-1.0,-1.0,-1.0,-2.0,-2.0,-2.0,-1.0
1.6951601952929318e+18,0.0,1.0,-2.0,0.0,-2.0,0.0,-1.0,-2.0
1.6951601952929318e+18,-3.0,0.0,0.0,0.0,0.0,0.0,-1.0,0.0
1.69516019531292e+18,0.0,0.0,-1.0,-1.0,-2.0,-2.0,-2.0,-1.0
1.6951601953139195e+18,-2.0,0.0,-2.0,-1.0,0.0,0.0,-1.0,0.0
1.6951601953149194e+18,-1.0,-2.0,1.0,-2.0,0.0,-1.0,1.0,-2.0
1.6951601953149194e+18,0.0,-1.0,-2.0,0.0,0.0,-1.0,1.0,0.0
1.6951601953359055e+18,-1.0,-1.0,-1.0,-2.0,-1.0,-1.0,-1.0,0.0
1.6951601953369062e+18,-1.0,2.0,-1.0,-1.0,-2.0,1.0,-1.0,0.0
1.6951601953369062e+18,0.0,0.0,0.0,-2.0,-1.0,-2.0,-2.0,0.0
1.6951601953379054e+18,1.0,-2.0,-2.0,1.0,-1.0,-2.0,-1.0,-1.0
1.6951601953548956e+18,-2.0,-2.0,1.0,2.0,2.0,-1.0,1.0,0.0
1.695160195355896e+18,-1.0,0.0,-1.0,0.0,1.0,1.0,2.0,0.0
1.695160195355896e+18,-1.0,0.0,-2.0,1.0,-2.0,-1.0,-2.0,0.0
1.695160195355896e+18,1.0,1.0,-1.0,-2.0,-1.0,1.0,-1.0,0.0
1.6951601953648932e+18,0.0,-1.0,-2.0,-1.0,-1.0,0.0,0.0,-1.0
1.6951601953658895e+18,2.0,-2.0,-3.0,0.0,-2.0,0.0,1.0,-2.0
1.6951601953738852e+18,0.0,-3.0,-1.0,-1.0,0.0,1.0,-1.0,0.0
1.6951601953738852e+18,0.0,-1.0,1.0,-1.0,-2.0,0.0,-1.0,-1.0
1.6951601953878776e+18,-1.0,0.0,0.0,-1.0,0.0,-1.0,-3.0,-1.0
1.6951601953888768e+18,-1.0,-2.0,0.0,-1.0,-1.0,0.0,-1.0,-2.0
1.6951601953898762e+18,-1.0,0.0,-1.0,-1.0,0.0,-1.0,0.0,-1.0
1.6951601953898762e+18,-2.0,0.0,0.0,-3.0,0.0,0.0,-2.0,-1.0
1.6951601954108639e+18,0.0,-2.0,-1.0,-2.0,-1.0,1.0,2.0,-1.0
1.6951601954108639e+18,0.0,-1.0,-2.0,-1.0,-1.0,0.0,-1.0,-2.0
1.695160195411863e+18,-2.0,-2.0,-1.0,0.0,0.0,-4.0,-1.0,0.0
1.6951601954128622e+18,0.0,1.0,0.0,0.0,1.0,-1.0,-1.0,-1.0
1.6951601954328517e+18,1.0,-2.0,-1.0,-2.0,0.0,-1.0,-1.0,1.0
1.6951601954338514e+18,-1.0,-1.0,0.0,-1.0,-1.0,-1.0,0.0,-1.0
1.6951601954398477e+18,1.0,1.0,-1.0,0.0,-1.0,1.0,0.0,-3.0
1.6951601954398477e+18,0.0,-1.0,1.0,-1.0,-1.0,0.0,0.0,0.0
1.6951601954478482e+18,0.0,0.0,0.0,0.0,-1.0,-2.0,0.0,0.0
1.6951601954488428e+18,-1.0,0.0,-1.0,1.0,1.0,-1.0,-2.0,-1.0
1.6951601954558382e+18,-1.0,-2.0,-2.0,0.0,-1.0,0.0,1.0,0.0
1.695160195456838e+18,-1.0,0.0,-2.0,0.0,-3.0,-1.0,-1.0,-1.0
1.6951601954888192e+18,-2.0,0.0,1.0,-1.0,-1.0,-1.0,-2.0,-1.0
1.6951601954888192e+18,-2.0,-1.0,0.0,-4.0,0.0,-1.0,-3.0,0.0
1.695160195499812e+18,-1.0,1.0,0.0,-2.0,0.0,-1.0,-1.0,0.0
1.695160195499812e+18,0.0,-2.0,-3.0,1.0,0.0,0.0,-1.0,0.0
1.695160195499812e+18,0.0,0.0,0.0,1.0,-1.0,1.0,0.0,-2.0
1.695160195500812e+18,-2.0,0.0,1.0,-1.0,0.0,-3.0,1.0,1.0
1.695160195500812e+18,-1.0,-1.0,0.0,1.0,0.0,0.0,-1.0,-1.0
1.695160195501813e+18,0.0,0.0,0.0,-1.0,-1.0,-2.0,-1.0,0.0
1.6951601955088072e+18,-3.0,-2.0,-2.0,-1.0,0.0,-1.0,1.0,-1.0
1.6951601955088072e+18,1.0,-1.0,-1.0,1.0,0.0,-2.0,-1.0,-1.0
1.6951601955098066e+18,1.0,0.0,0.0,-4.0,0.0,-1.0,-2.0,-2.0
1.6951601955098066e+18,0.0,0.0,-1.0,0.0,0.0,0.0,-1.0,0.0
1.6951601955377915e+18,-1.0,0.0,0.0,0.0,-1.0,-1.0,-2.0,-1.0
1.695160195538791e+18,-2.0,0.0,-1.0,-1.0,-1.0,2.0,0.0,-1.0
1.6951601955407895e+18,-2.0,-2.0,0.0,0.0,-1.0,0.0,0.0,-1.0
1.6951601955407895e+18,-2.0,0.0,-1.0,-1.0,1.0,-1.0,-2.0,-1.0
1.6951601955447867e+18,-1.0,-1.0,0.0,1.0,-1.0,-1.0,-1.0,0.0
1.6951601955447867e+18,0.0,0.0,-1.0,-3.0,0.0,0.0,-1.0,0.0
1.6951601955537818e+18,1.0,1.0,1.0,-3.0,0.0,-1.0,0.0,2.0
1.6951601955537818e+18,0.0,-1.0,-2.0,1.0,-1.0,-1.0,-1.0,0.0
1.695160195568776e+18,-2.0,-2.0,1.0,0.0,-1.0,-1.0,-1.0,-1.0
1.695160195568776e+18,-1.0,-1.0,0.0,0.0,-1.0,-2.0,-2.0,-1.0
1.6951601955697748e+18,-2.0,-2.0,-2.0,2.0,1.0,1.0,-1.0,-1.0
1.6951601955697748e+18,-1.0,0.0,1.0,-1.0,-2.0,-2.0,-1.0,-2.0
1.6951601955907597e+18,-3.0,-1.0,-1.0,0.0,-4.0,-1.0,-1.0,0.0
1.6951601955907597e+18,0.0,-2.0,0.0,1.0,0.0,0.0,-1.0,0.0
1.6951601955917604e+18,-1.0,-1.0,-1.0,-1.0,-1.0,0.0,1.0,-1.0
1.6951601955927593e+18,0.0,0.0,0.0,0.0,1.0,-1.0,1.0,-2.0
1.6951601956047521e+18,-1.0,-2.0,-2.0,-2.0,-2.0,0.0,-1.0,0.0
1.6951601956047521e+18,0.0,-1.0,0.0,-2.0,0.0,-1.0,0.0,-1.0
1.6951601956167455e+18,-1.0,-1.0,0.0,-1.0,-1.0,-1.0,0.0,0.0
1.6951601956237422e+18,-1.0,0.0,-2.0,-2.0,0.0,-1.0,-3.0,0.0
1.6951601956287396e+18,-1.0,0.0,-1.0,-2.0,0.0,1.0,-1.0,0.0
1.6951601956287396e+18,-2.0,-1.0,0.0,-2.0,0.0,-1.0,-2.0,0.0
1.6951601956297382e+18,-2.0,0.0,-1.0,-1.0,-1.0,0.0,0.0,-2.0
1.6951601956297382e+18,-2.0,-3.0,-2.0,-1.0,-2.0,-1.0,0.0,-2.0
1.6951601956497272e+18,-2.0,1.0,-2.0,-1.0,0.0,-1.0,-1.0,-1.0
1.6951601956507264e+18,0.0,-2.0,-1.0,0.0,-1.0,-1.0,1.0,1.0
1.6951601956587218e+18,0.0,-1.0,-1.0,0.0,-3.0,-2.0,-2.0,0.0
1.6951601956587218e+18,0.0,-1.0,0.0,-1.0,-1.0,0.0,0.0,-1.0
1.6951601956727137e+18,0.0,0.0,-1.0,-1.0,0.0,0.0,0.0,0.0
1.6951601956727137e+18,-1.0,0.0,-1.0,-1.0,-1.0,0.0,-2.0,0.0
1.6951601956887045e+18,0.0,-2.0,-1.0,0.0,0.0,-2.0,-2.0,-1.0
1.6951601956887045e+18,0.0,0.0,-1.0,0.0,-2.0,-1.0,0.0,-1.0
1.695160195689705e+18,1.0,0.0,-2.0,0.0,-1.0,-2.0,-1.0,0.0
1.695160195689705e+18,-1.0,-1.0,-1.0,0.0,-2.0,0.0,0.0,0.0
1.6951601956907044e+18,-1.0,-2.0,-1.0,-2.0,-3.0,-2.0,-2.0,1.0
1.6951601956907044e+18,0.0,0.0,0.0,-1.0,-2.0,0.0,-1.0,-1.0
1.6951601957106916e+18,0.0,-2.0,1.0,1.0,1.0,0.0,-2.0,-3.0
1.6951601957106916e+18,0.0,-1.0,0.0,-2.0,-2.0,1.0,-2.0,-2.0
1.6951601957126907e+18,-1.0,1.0,0.0,0.0,-2.0,-1.0,1.0,0.0
1.6951601957126907e+18,-1.0,0.0,-1.0,-1.0,0.0,1.0,0.0,-1.0
1.6951601957406748e+18,2.0,-1.0,-1.0,-3.0,-2.0,0.0,-1.0,-1.0
1.6951601957406748e+18,0.0,0.0,0.0,-1.0,-1.0,-1.0,0.0,0.0
1.6951601957426732e+18,-2.0,0.0,-1.0,1.0,1.0,0.0,-1.0,-2.0
1.6951601957426732e+18,0.0,0.0,-1.0,-1.0,-1.0,-4.0,-1.0,0.0
1.6951601957486712e+18,1.0,1.0,-1.0,1.0,1.0,-2.0,-2.0,-3.0
1.6951601957486712e+18,-2.0,0.0,0.0,-2.0,-1.0,-1.0,0.0,0.0
1.6951601957516685e+18,-2.0,-1.0,-1.0,0.0,-1.0,1.0,0.0,0.0
1.695160195760664e+18,-1.0,-1.0,-3.0,-1.0,-1.0,-1.0,-1.0,0.0
1.695160195778653e+18,-3.0,-1.0,0.0,0.0,-1.0,-1.0,-1.0,1.0
1.695160195778653e+18,-1.0,-1.0,0.0,-2.0,0.0,-1.0,-1.0,-3.0
1.6951601957796534e+18,-1.0,0.0,0.0,1.0,0.0,0.0,1.0,-1.0
1.6951601957806523e+18,-2.0,-1.0,0.0,-2.0,0.0,1.0,0.0,0.0
1.6951601958006428e+18,-1.0,-1.0,0.0,0.0,-1.0,0.0,1.0,0.0
1.6951601958006428e+18,0.0,0.0,-2.0,-1.0,0.0,0.0,0.0,-1.0
1.6951601958026394e+18,0.0,-1.0,-2.0,-2.0,0.0,0.0,-2.0,-1.0
1.6951601958026394e+18,-1.0,0.0,-1.0,0.0,-2.0,-1.0,-1.0,0.0
1.6951601958236275e+18,2.0,0.0,0.0,-1.0,-2.0,-2.0,-1.0,-1.0
1.6951601958236275e+18,1.0,-1.0,1.0,0.0,-2.0,-3.0,-1.0,0.0
1.6951601958246277e+18,-1.0,-3.0,-2.0,1.0,1.0,-1.0,0.0,-1.0
1.6951601958246277e+18,-2.0,1.0,2.0,-2.0,-1.0,-1.0,-1.0,-1.0
1.6951601958306227e+18,-2.0,1.0,0.0,-1.0,0.0,0.0,-1.0,0.0
1.6951601958316232e+18,0.0,-1.0,-2.0,0.0,-1.0,0.0,-1.0,-1.0
1.6951601958326218e+18,-1.0,-1.0,-1.0,-1.0,-1.0,0.0,0.0,-1.0
1.6951601958326218e+18,1.0,-2.0,0.0,0.0,0.0,-1.0,-2.0,0.0
1.695160195853611e+18,1.0,-1.0,-1.0,-3.0,-1.0,-1.0,-1.0,-2.0
1.695160195853611e+18,-2.0,-1.0,-1.0,-1.0,-3.0,1.0,-2.0,-1.0
1.6951601958596065e+18,-2.0,1.0,-1.0,-1.0,-1.0,-1.0,0.0,0.0
1.6951601958596065e+18,-3.0,0.0,-2.0,0.0,2.0,0.0,-1.0,1.0
1.695160195868602e+18,-1.0,0.0,-2.0,-1.0,0.0,0.0,0.0,0.0
1.695160195868602e+18,1.0,-2.0,-2.0,-1.0,-1.0,-2.0,1.0,-1.0
1.6951601958696013e+18,0.0,-1.0,0.0,0.0,-1.0,0.0,-1.0,0.0
1.6951601958706012e+18,-1.0,0.0,1.0,0.0,1.0,-2.0,1.0,-1.0
1.695160195890589e+18,-1.0,-1.0,0.0,1.0,0.0,-1.0,-1.0,0.0
1.6951601958915896e+18,-2.0,0.0,-2.0,0.0,0.0,-1.0,-1.0,-2.0
1.6951601958925875e+18,-1.0,-1.0,0.0,0.0,-1.0,0.0,-1.0,0.0
1.6951601958925875e+18,0.0,-1.0,-3.0,0.0,0.0,0.0,-1.0,-1.0
1.6951601959135757e+18,-1.0,-1.0,1.0,-2.0,-1.0,0.0,-2.0,-1.0
1.6951601959135757e+18,-1.0,0.0,-1.0,-2.0,-2.0,0.0,1.0,1.0
1.695160195914576e+18,-1.0,0.0,-1.0,-2.0,-1.0,-1.0,-1.0,-2.0
1.6951601959155822e+18,0.0,-1.0,0.0,-3.0,-2.0,-1.0,0.0,-1.0
1.6951601959265682e+18,-2.0,-1.0,-3.0,0.0,-1.0,-1.0,1.0,1.0
1.6951601959275712e+18,-2.0,-1.0,1.0,0.0,0.0,-1.0,-2.0,-1.0
1.6951601959355625e+18,-1.0,-1.0,1.0,-1.0,1.0,-1.0,-1.0,0.0
1.6951601959365624e+18,-2.0,-2.0,0.0,-1.0,-2.0,0.0,0.0,-1.0
1.695160195950554e+18,-1.0,-2.0,0.0,0.0,0.0,0.0,-1.0,0.0
1.6951601959515543e+18,2.0,0.0,0.0,-2.0,-3.0,0.0,0.0,0.0
1.6951601959525537e+18,0.0,-1.0,-1.0,0.0,-2.0,-2.0,-1.0,-2.0
1.6951601959525537e+18,1.0,-2.0,-2.0,-1.0,-1.0,-1.0,0.0,-1.0
1.6951601959735427e+18,1.0,-1.0,-2.0,-1.0,-1.0,0.0,0.0,-1.0
1.6951601959735427e+18,-1.0,0.0,-2.0,-2.0,0.0,-1.0,1.0,-2.0
1.6951601959745416e+18,0.0,-1.0,0.0,0.0,-1.0,-1.0,-1.0,1.0
1.6951601959755415e+18,-1.0,0.0,1.0,0.0,-2.0,0.0,-1.0,-2.0
1.6951601959875356e+18,-1.0,-1.0,-1.0,2.0,0.0,-2.0,-2.0,-2.0
1.6951601959875356e+18,-1.0,0.0,-1.0,0.0,-2.0,-2.0,0.0,0.0
1.6951601960005258e+18,0.0,1.0,-1.0,0.0,0.0,-2.0,-1.0,-1.0
1.6951601960005258e+18,0.0,-1.0,1.0,-1.0,2.0,-2.0,0.0,-1.0
1.6951601960105203e+18,-1.0,0.0,1.0,-2.0,-1.0,0.0,0.0,-1.0
1.6951601960105203e+18,-2.0,-1.0,-1.0,0.0,-1.0,0.0,-2.0,-2.0
1.6951601960125194e+18,0.0,0.0,-4.0,-2.0,0.0,0.0,0.0,-2.0
1.6951601960125194e+18,0.0,0.0,0.0,-1.0,-4.0,-2.0,-2.0,0.0
1.6951601960405033e+18,-2.0,-1.0,0.0,-1.0,0.0,-1.0,-2.0,0.0
1.695160196041502e+18,0.0,-1.0,0.0,-1.0,-1.0,0.0,-1.0,0.0
1.6951601960425014e+18,-1.0,0.0,-1.0,-2.0,0.0,0.0,2.0,-1.0
1.6951601960425014e+18,-1.0,-1.0,0.0,-1.0,-1.0,0.0,-1.0,1.0
1.695160196055495e+18,0.0,2.0,0.0,-2.0,-3.0,-1.0,0.0,-2.0
1.6951601960564938e+18,-1.0,-1.0,-2.0,1.0,0.0,-2.0,-2.0,-1.0
1.6951601960574938e+18,-2.0,-2.0,0.0,-3.0,-2.0,-1.0,-1.0,0.0
1.6951601960574938e+18,0.0,1.0,-2.0,0.0,0.0,-1.0,0.0,-2.0
1.6951601960704886e+18,-2.0,0.0,-2.0,-1.0,0.0,-1.0,-1.0,1.0
1.6951601960704886e+18,-1.0,-2.0,-3.0,-2.0,-1.0,-2.0,-1.0,-1.0
1.6951601960724846e+18,-1.0,0.0,-2.0,0.0,-1.0,-2.0,-2.0,0.0
1.6951601960724846e+18,-1.0,-1.0,1.0,-2.0,-1.0,0.0,-1.0,0.0
1.6951601961004685e+18,-1.0,-2.0,-1.0,0.0,-2.0,0.0,0.0,-2.0
1.6951601961014692e+18,0.0,0.0,1.0,0.0,1.0,0.0,0.0,-1.0
1.6951601961024678e+18,-1.0,-1.0,0.0,0.0,-1.0,0.0,-1.0,-1.0
1.6951601961024678e+18,-1.0,0.0,-1.0,0.0,0.0,-2.0,-1.0,0.0
1.6951601961144673e+18,0.0,0.0,-1.0,0.0,-1.0,-1.0,-1.0,-2.0
1.69516019611546e+18,0.0,-2.0,0.0,-3.0,-1.0,-1.0,-1.0,0.0
1.69516019611546e+18,1.0,-2.0,0.0,-1.0,0.0,-1.0,-1.0,0.0
1.69516019611546e+18,-1.0,-2.0,-2.0,0.0,0.0,0.0,-2.0,-1.0
1.6951601961304515e+18,-2.0,2.0,-1.0,-1.0,2.0,0.0,-1.0,-2.0
1.6951601961314511e+18,-2.0,0.0,-2.0,2.0,1.0,-2.0,-1.0,-1.0
1.6951601961324503e+18,0.0,-1.0,-1.0,0.0,-1.0,-1.0,-2.0,-2.0
1.6951601961324503e+18,-3.0,-1.0,0.0,-1.0,1.0,-1.0,-2.0,-2.0
1.6951601961534387e+18,0.0,-2.0,0.0,-1.0,0.0,0.0,-1.0,0.0
1.6951601961534387e+18,-1.0,-1.0,2.0,-1.0,0.0,0.0,-2.0,-2.0
1.695160196155438e+18,-2.0,0.0,0.0,-1.0,-1.0,-2.0,-2.0,0.0
1.6951601961564372e+18,-2.0,-1.0,0.0,-2.0,-1.0,-1.0,-1.0,-1.0
1.6951601961674312e+18,-1.0,0.0,0.0,-1.0,-2.0,-1.0,-1.0,2.0
1.6951601961674312e+18,-1.0,1.0,0.0,-3.0,1.0,2.0,2.0,2.0
1.695160196174427e+18,1.0,-1.0,2.0,1.0,2.0,1.0,1.0,1.0
1.695160196174427e+18,1.0,1.0,1.0,2.0,0.0,1.0,1.0,-1.0
1.6951601961904174e+18,1.0,2.0,1.0,1.0,2.0,-1.0,-1.0,-1.0
1.6951601961914168e+18,1.0,0.0,0.0,0.0,0.0,-1.0,-1.0,-2.0
1.6951601961924165e+18,0.0,1.0,1.0,-1.0,0.0,0.0,0.0,1.0
1.6951601961924165e+18,-1.0,-1.0,-1.0,-2.0,2.0,1.0,-1.0,2.0
1.695160196213404e+18,1.0,0.0,-1.0,-3.0,-2.0,0.0,1.0,-1.0
1.6951601962144061e+18,-1.0,-2.0,1.0,-1.0,-3.0,-1.0,-1.0,-1.0
1.6951601962154076e+18,0.0,0.0,-1.0,-1.0,1.0,0.0,1.0,-1.0
1.695160196216402e+18,0.0,0.0,-1.0,-2.0,-3.0,0.0,1.0,0.0
1.6951601962273956e+18,-2.0,-1.0,0.0,1.0,2.0,-1.0,0.0,-2.0
1.6951601962273956e+18,0.0,1.0,0.0,0.0,2.0,0.0,2.0,0.0
1.6951601962543813e+18,0.0,-2.0,-1.0,1.0,0.0,0.0,-1.0,-2.0
1.6951601962553818e+18,-1.0,-1.0,0.0,0.0,-1.0,0.0,-1.0,-2.0
1.6951601962553818e+18,-1.0,-1.0,-2.0,-1.0,-2.0,1.0,-2.0,-2.0
1.6951601962553818e+18,-2.0,0.0,0.0,-1.0,-2.0,-2.0,0.0,0.0
1.6951601962553818e+18,-1.0,-2.0,0.0,-2.0,-1.0,-2.0,-1.0,0.0
1.6951601962563791e+18,2.0,2.0,-2.0,-2.0,-1.0,-1.0,-1.0,2.0
1.6951601962803648e+18,1.0,-2.0,-2.0,-1.0,-1.0,-2.0,-1.0,0.0
1.6951601962813665e+18,0.0,1.0,0.0,2.0,3.0,-1.0,-2.0,1.0
1.695160196282365e+18,0.0,1.0,0.0,-1.0,-3.0,-2.0,0.0,-1.0
1.695160196282365e+18,-2.0,-2.0,0.0,-1.0,7.0,0.0,0.0,-2.0
1.6951601962863613e+18,-2.0,-2.0,1.0,0.0,-5.0,-3.0,-3.0,-2.0
1.6951601962873615e+18,-1.0,-2.0,-1.0,-4.0,-1.0,0.0,-1.0,-1.0
1.6951601962953564e+18,1.0,3.0,3.0,-4.0,-4.0,3.0,1.0,1.0
1.6951601962963569e+18,-1.0,-7.0,-8.0,-6.0,-8.0,-4.0,-3.0,-2.0
1.6951601963113492e+18,-1.0,-2.0,-2.0,8.0,11.0,3.0,2.0,-1.0
1.6951601963123494e+18,0.0,-2.0,0.0,8.0,10.0,4.0,-1.0,-1.0
1.6951601963163456e+18,-1.0,-1.0,-1.0,1.0,-5.0,-1.0,0.0,0.0
1.6951601963163456e+18,-1.0,1.0,1.0,-2.0,5.0,4.0,-1.0,-2.0
1.6951601963333345e+18,-1.0,0.0,1.0,-4.0,-10.0,-5.0,-4.0,-1.0
1.6951601963333345e+18,-3.0,-2.0,-3.0,-4.0,-5.0,0.0,-1.0,-1.0
1.695160196334335e+18,0.0,-1.0,0.0,1.0,6.0,2.0,1.0,0.0
1.695160196335334e+18,0.0,-2.0,-3.0,-4.0,-5.0,-5.0,-2.0,-1.0
1.6951601963483277e+18,0.0,-2.0,-2.0,-2.0,0.0,-1.0,-1.0,0.0
1.6951601963483277e+18,-1.0,3.0,2.0,3.0,-2.0,0.0,-1.0,1.0
1.6951601963593247e+18,-3.0,-4.0,-5.0,-7.0,-4.0,-3.0,-2.0,-2.0
1.6951601963593247e+18,0.0,-1.0,1.0,3.0,-1.0,-1.0,-1.0,-2.0
1.6951601963783104e+18,0.0,0.0,-1.0,-1.0,3.0,0.0,2.0,-1.0
1.6951601963783104e+18,0.0,1.0,1.0,0.0,-1.0,2.0,1.0,1.0
1.6951601963803095e+18,1.0,0.0,-3.0,-3.0,-4.0,-5.0,-7.0,-2.0
1.6951601963803095e+18,1.0,1.0,1.0,3.0,2.0,1.0,5.0,-2.0
1.695160196393301e+18,-2.0,1.0,0.0,1.0,2.0,-2.0,-7.0,-2.0
1.6951601963943014e+18,-2.0,-2.0,0.0,-2.0,-1.0,4.0,13.0,2.0
1.6951601963953e+18,-1.0,-1.0,-1.0,0.0,2.0,0.0,3.0,-1.0
1.6951601963953e+18,0.0,2.0,3.0,3.0,-2.0,-6.0,-10.0,-3.0
1.6951601964082926e+18,2.0,2.0,1.0,-2.0,-3.0,3.0,5.0,3.0
1.6951601964082926e+18,0.0,-4.0,-5.0,-9.0,-7.0,-3.0,3.0,0.0
1.695160196416288e+18,-2.0,-1.0,-5.0,-3.0,-1.0,4.0,8.0,2.0
1.695160196416288e+18,-3.0,-3.0,0.0,-4.0,-6.0,-3.0,-5.0,-5.0
1.6951601964382756e+18,0.0,1.0,3.0,5.0,2.0,-7.0,-12.0,-1.0
1.6951601964382756e+18,1.0,1.0,0.0,4.0,2.0,-5.0,-25.0,-5.0
1.6951601964442719e+18,1.0,2.0,2.0,-2.0,2.0,6.0,18.0,6.0
1.6951601964442719e+18,0.0,-2.0,-3.0,1.0,-1.0,0.0,1.0,2.0
1.6951601964522675e+18,2.0,3.0,1.0,1.0,2.0,3.0,2.0,-1.0
1.6951601964522675e+18,-4.0,-10.0,-13.0,-16.0,-9.0,-2.0,-6.0,-3.0
1.6951601964672586e+18,-1.0,-1.0,7.0,6.0,0.0,-7.0,-12.0,-4.0
1.6951601964672586e+18,-1.0,5.0,-3.0,6.0,0.0,0.0,0.0,2.0
1.6951601964692577e+18,-2.0,2.0,2.0,-1.0,0.0,1.0,-3.0,-3.0
1.6951601964692577e+18,0.0,1.0,-2.0,-6.0,-2.0,-6.0,2.0,-1.0
1.6951601964922452e+18,-2.0,-3.0,8.0,15.0,1.0,-2.0,-6.0,-3.0
1.6951601964922452e+18,0.0,3.0,-2.0,-6.0,2.0,3.0,9.0,3.0
1.6951601964942436e+18,2.0,2.0,-3.0,-2.0,-1.0,0.0,1.0,-1.0
1.6951601964942436e+18,-2.0,2.0,5.0,4.0,0.0,1.0,1.0,-2.0
1.6951601964942436e+18,2.0,1.0,2.0,-1.0,0.0,2.0,3.0,3.0
1.6951601964952433e+18,-2.0,-4.0,0.0,-5.0,-2.0,-2.0,-5.0,-4.0
1.6951601965302228e+18,-3.0,-2.0,-5.0,-7.0,-8.0,-6.0,-2.0,-1.0
1.6951601965302228e+18,2.0,-5.0,-14.0,-9.0,2.0,-2.0,-10.0,1.0
1.6951601965302228e+18,-3.0,-1.0,5.0,9.0,0.0,-1.0,4.0,1.0
1.6951601965312266e+18,0.0,3.0,0.0,-4.0,-3.0,-2.0,-6.0,-1.0
1.6951601965312266e+18,-2.0,-1.0,-3.0,-7.0,-4.0,-5.0,-9.0,-2.0
1.6951601965312266e+18,0.0,0.0,9.0,7.0,2.0,11.0,28.0,3.0
1.6951601965542095e+18,0.0,4.0,-11.0,-10.0,-4.0,-6.0,-12.0,-2.0
1.6951601965542095e+18,-7.0,-20.0,-12.0,-8.0,-6.0,-4.0,-12.0,-6.0
1.6951601965542095e+18,-5.0,-13.0,-6.0,1.0,1.0,0.0,9.0,0.0
1.6951601965542095e+18,3.0,12.0,15.0,21.0,6.0,4.0,3.0,3.0
1.6951601965751972e+18,-1.0,-1.0,-2.0,-4.0,2.0,0.0,-4.0,-3.0
1.6951601965751972e+18,-1.0,-1.0,-10.0,-15.0,-5.0,-2.0,3.0,1.0
1.6951601965751972e+18,1.0,7.0,23.0,21.0,0.0,-2.0,-4.0,0.0
1.6951601965751972e+18,-1.0,-9.0,-13.0,-4.0,-2.0,-5.0,-2.0,-1.0
1.6951601965771963e+18,4.0,16.0,-7.0,-13.0,-6.0,-1.0,2.0,1.0
1.6951601965771963e+18,4.0,7.0,5.0,5.0,1.0,2.0,0.0,3.0
1.695160196596185e+18,-5.0,-9.0,-3.0,-6.0,-4.0,5.0,6.0,-1.0
1.695160196596185e+18,-2.0,3.0,3.0,12.0,5.0,1.0,-1.0,-2.0
1.6951601965991836e+18,-6.0,-16.0,-6.0,-6.0,-3.0,-2.0,-2.0,-4.0
1.6951601965991836e+18,4.0,14.0,6.0,-1.0,0.0,1.0,5.0,2.0
1.695160196636163e+18,2.0,-1.0,-5.0,-3.0,-1.0,0.0,-1.0,1.0
1.695160196636163e+18,-6.0,-10.0,2.0,0.0,-4.0,-6.0,-6.0,-3.0
1.695160196645156e+18,-1.0,-1.0,-4.0,-4.0,1.0,-3.0,-9.0,-5.0
1.695160196645156e+18,2.0,5.0,3.0,5.0,2.0,-1.0,-7.0,-2.0
1.695160196645156e+18,-1.0,-7.0,-6.0,0.0,7.0,12.0,22.0,4.0
1.695160196645156e+18,-1.0,2.0,-3.0,-10.0,-6.0,-9.0,-10.0,-3.0
1.6951601966591485e+18,-4.0,-10.0,-2.0,-4.0,-1.0,-2.0,1.0,-2.0
1.6951601966591485e+18,1.0,7.0,7.0,4.0,0.0,-2.0,-1.0,1.0
1.695160196660148e+18,0.0,6.0,3.0,-1.0,1.0,0.0,-6.0,0.0
1.695160196660148e+18,-3.0,-5.0,-3.0,-11.0,-4.0,-4.0,-3.0,-3.0
1.695160196679137e+18,-1.0,0.0,8.0,17.0,6.0,0.0,1.0,0.0
1.695160196679137e+18,-1.0,-2.0,-3.0,0.0,0.0,-9.0,-4.0,-4.0
1.6951601966801388e+18,1.0,2.0,-1.0,0.0,-2.0,8.0,5.0,2.0
1.6951601966801388e+18,1.0,3.0,-2.0,-9.0,-5.0,0.0,-2.0,0.0
1.6951601966811425e+18,1.0,2.0,0.0,-1.0,2.0,-4.0,-4.0,3.0
1.6951601966821358e+18,-3.0,-6.0,-11.0,-6.0,0.0,10.0,14.0,0.0
1.6951601967011267e+18,-6.0,-11.0,-11.0,-12.0,-9.0,-10.0,-11.0,-5.0
1.6951601967021258e+18,3.0,2.0,3.0,7.0,4.0,6.0,3.0,0.0
1.695160196725111e+18,1.0,-1.0,3.0,-4.0,-6.0,-7.0,1.0,0.0
1.695160196725111e+18,-5.0,-10.0,4.0,5.0,2.0,7.0,1.0,-2.0
1.6951601967261105e+18,2.0,3.0,0.0,-4.0,0.0,-6.0,-7.0,0.0
1.6951601967261105e+18,1.0,5.0,0.0,2.0,3.0,4.0,4.0,1.0
1.6951601967530947e+18,-2.0,-10.0,-6.0,-1.0,-3.0,-3.0,0.0,-2.0
1.6951601967530947e+18,-1.0,-1.0,-1.0,2.0,-1.0,0.0,0.0,0.0
1.695160196768088e+18,0.0,2.0,2.0,1.0,3.0,-1.0,-3.0,1.0
1.695160196768088e+18,1.0,2.0,7.0,2.0,-6.0,-10.0,-4.0,-2.0
1.6951601967850767e+18,-1.0,1.0,-10.0,-3.0,-4.0,4.0,-8.0,0.0
1.6951601967860774e+18,-1.0,-3.0,1.0,0.0,3.0,6.0,10.0,3.0
1.6951601967860774e+18,-2.0,2.0,-1.0,-1.0,5.0,-18.0,-10.0,-6.0
1.6951601967870766e+18,-2.0,-2.0,-14.0,0.0,3.0,22.0,5.0,5.0
1.6951601967910743e+18,-3.0,1.0,-2.0,-6.0,-7.0,-11.0,-3.0,-6.0
1.6951601967910743e+18,0.0,1.0,-2.0,-5.0,-5.0,-14.0,-11.0,-2.0
1.6951601967910743e+18,3.0,2.0,10.0,14.0,2.0,16.0,13.0,6.0
1.6951601967910743e+18,-3.0,-2.0,-4.0,-6.0,-6.0,-10.0,-13.0,-5.0
1.6951601968060644e+18,-3.0,-1.0,-4.0,-6.0,-9.0,-11.0,21.0,4.0
1.6951601968060644e+18,-1.0,-1.0,9.0,-3.0,-8.0,-14.0,-9.0,-9.0
1.6951601968070643e+18,-4.0,0.0,-1.0,1.0,-4.0,17.0,13.0,2.0
1.6951601968070643e+18,0.0,-6.0,-17.0,-7.0,-33.0,-36.0,6.0,3.0
1.6951601968520384e+18,-4.0,-7.0,-13.0,-17.0,10.0,41.0,-7.0,-7.0
1.6951601968520384e+18,4.0,0.0,19.0,21.0,37.0,14.0,28.0,9.0
1.6951601968540372e+18,-2.0,2.0,0.0,-23.0,-12.0,-10.0,-4.0,-8.0
1.6951601968540372e+18,-4.0,-6.0,11.0,18.0,2.0,-10.0,-18.0,-7.0
1.6951601968550367e+18,8.0,2.0,-20.0,4.0,-4.0,-7.0,1.0,7.0
1.6951601968550367e+18,-6.0,-6.0,21.0,-23.0,-9.0,-2.0,-20.0,-7.0
1.6951601968790234e+18,6.0,7.0,-21.0,19.0,9.0,-24.0,-12.0,2.0
1.6951601968800225e+18,0.0,0.0,17.0,6.0,-17.0,27.0,-4.0,3.0
1.6951601968800225e+18,0.0,3.0,6.0,17.0,21.0,0.0,17.0,11.0
1.6951601968800225e+18,-3.0,3.0,0.0,-10.0,-6.0,-2.0,-12.0,-8.0
1.6951601968800225e+18,0.0,4.0,-2.0,30.0,6.0,7.0,1.0,-2.0
1.6951601968800225e+18,-2.0,-1.0,12.0,-5.0,-2.0,-19.0,3.0,5.0
1.6951601969030093e+18,2.0,-2.0,10.0,1.0,-5.0,6.0,4.0,2.0
1.6951601969030093e+18,-2.0,-2.0,-2.0,-10.0,-9.0,-9.0,-8.0,-4.0
1.695160196915004e+18,-2.0,-6.0,-12.0,-13.0,-12.0,-13.0,-18.0,-8.0
1.695160196915004e+18,-3.0,-12.0,-22.0,-1.0,7.0,1.0,7.0,3.0
1.6951601969349908e+18,4.0,0.0,-8.0,-2.0,-4.0,5.0,0.0,0.0
1.6951601969349908e+18,-1.0,-8.0,-18.0,0.0,8.0,3.0,8.0,1.0
1.6951601969349908e+18,0.0,-1.0,15.0,-28.0,-8.0,-2.0,-6.0,-2.0
1.6951601969359908e+18,0.0,2.0,1.0,9.0,-8.0,-12.0,-10.0,-2.0
1.6951601969369902e+18,-5.0,-9.0,-8.0,-9.0,0.0,3.0,-6.0,-3.0
1.6951601969369902e+18,0.0,4.0,-6.0,14.0,4.0,2.0,8.0,-1.0
1.6951601969509832e+18,1.0,9.0,14.0,0.0,4.0,-12.0,-7.0,-4.0
1.6951601969519826e+18,-6.0,6.0,-19.0,-6.0,-10.0,10.0,17.0,3.0
1.6951601969519826e+18,8.0,4.0,16.0,15.0,9.0,10.0,2.0,1.0
1.6951601969519826e+18,4.0,8.0,13.0,16.0,12.0,2.0,7.0,5.0
1.6951601969639747e+18,-4.0,-4.0,-12.0,-18.0,-27.0,-17.0,-11.0,-8.0
1.6951601969649795e+18,0.0,-7.0,-7.0,6.0,17.0,8.0,14.0,-1.0
1.6951601969649795e+18,-1.0,-1.0,-12.0,-11.0,-8.0,-3.0,-15.0,-2.0
1.6951601969649795e+18,-2.0,-1.0,4.0,0.0,0.0,-3.0,4.0,-1.0
1.6951601969919603e+18,4.0,5.0,6.0,4.0,-2.0,-3.0,-1.0,1.0
1.6951601969919603e+18,-2.0,2.0,-8.0,-11.0,-2.0,-7.0,3.0,1.0
1.6951601969919603e+18,-5.0,-2.0,6.0,1.0,-9.0,1.0,-2.0,-8.0
1.6951601969919603e+18,2.0,1.0,-12.0,-12.0,2.0,-5.0,-4.0,-1.0
1.6951601970199421e+18,0.0,5.0,18.0,27.0,17.0,18.0,7.0,4.0
1.6951601970209418e+18,-2.0,-5.0,-20.0,-18.0,-15.0,-13.0,-11.0,-6.0
1.6951601970209418e+18,-1.0,0.0,3.0,5.0,4.0,2.0,4.0,0.0
1.6951601970209418e+18,1.0,0.0,4.0,-5.0,-2.0,-5.0,-4.0,2.0
1.6951601970209418e+18,-2.0,-2.0,-5.0,-7.0,0.0,-2.0,-1.0,-1.0
1.6951601970209418e+18,-1.0,-1.0,-4.0,10.0,4.0,0.0,-12.0,0.0
1.6951601970239404e+18,0.0,0.0,1.0,-1.0,-4.0,-2.0,-4.0,-3.0
1.6951601970249398e+18,-2.0,-5.0,-7.0,-20.0,-3.0,-2.0,-3.0,-4.0
1.6951601970849047e+18,-3.0,-4.0,8.0,1.0,-4.0,1.0,5.0,-1.0
1.6951601970849047e+18,3.0,1.0,-12.0,-1.0,0.0,-1.0,-9.0,1.0
1.695160197085906e+18,-4.0,-2.0,7.0,1.0,-2.0,-2.0,-4.0,-3.0
1.6951601970869038e+18,-3.0,-1.0,9.0,14.0,3.0,6.0,2.0,2.0
1.6951601970869038e+18,-1.0,-3.0,-17.0,-17.0,-4.0,1.0,-4.0,-1.0
1.6951601970869038e+18,2.0,4.0,15.0,7.0,-3.0,-4.0,-1.0,1.0
1.6951601971078922e+18,-4.0,-4.0,-2.0,6.0,0.0,-1.0,1.0,-2.0
1.6951601971078922e+18,1.0,0.0,-1.0,1.0,5.0,2.0,2.0,1.0
1.695160197108894e+18,-1.0,0.0,-1.0,9.0,5.0,0.0,3.0,0.0
1.695160197108894e+18,2.0,2.0,-5.0,-11.0,-4.0,-4.0,-3.0,-2.0
1.695160197121884e+18,1.0,-1.0,-11.0,-2.0,4.0,5.0,6.0,2.0
1.695160197121884e+18,-2.0,-2.0,9.0,12.0,-4.0,-2.0,0.0,-1.0
1.6951601971228836e+18,-1.0,-1.0,-11.0,-18.0,-3.0,1.0,3.0,1.0
1.6951601971228836e+18,1.0,0.0,2.0,8.0,-2.0,-1.0,0.0,-1.0
1.6951601971238838e+18,-1.0,3.0,-13.0,-15.0,-1.0,-2.0,-4.0,-1.0
1.6951601971238838e+18,-4.0,-6.0,-4.0,-9.0,-3.0,-5.0,-6.0,-3.0
1.6951601971668577e+18,3.0,14.0,3.0,4.0,2.0,0.0,3.0,1.0
1.695160197167858e+18,-5.0,-18.0,7.0,10.0,-4.0,0.0,0.0,-5.0
1.695160197168857e+18,0.0,3.0,-4.0,-9.0,-3.0,-1.0,0.0,0.0
1.695160197168857e+18,1.0,2.0,-1.0,3.0,4.0,4.0,4.0,-1.0
1.6951601971698565e+18,-1.0,-3.0,1.0,5.0,-2.0,-3.0,-6.0,-2.0
