timestamp,left_data_Ac_X,left_data_Ac_Y,left_data_Ac_Z,left_data_Gy_X,left_data_Gy_Y,left_data_Gy_Z,left_data_flex_1,left_data_flex_2,left_data_flex_3,left_data_flex_4,left_data_flex_5,right_data_Ac_X,right_data_Ac_Y,right_data_Ac_Z,right_data_Gy_X,right_data_Gy_Y,right_data_Gy_Z,right_data_flex_1,right_data_flex_2,right_data_flex_3,right_data_flex_4,right_data_flex_5
1695160374606196100,-9.864110947,-1.902193308,-0.365115762,0.161742732,0.124970905,-0.199713632,16,31,-8,16,15,-8.535328865,4.112041473,1.057040095,0.046497703,-0.014921899,0.110448696,-40,30,-2,48,170
1695160374607196100,-9.8940382,-1.89860189,-0.368707061,0.166539043,0.115777947,-0.203044415,9,30,-9,24,14,-8.538920403,4.108449936,1.060631394,0.04769678,-0.014921899,0.111647777,-34,29,2,45,170
1695160374608196100,-9.909601212,-1.893813491,-0.37229836,0.173067391,0.104453288,-0.207441032,16,25,-12,18,15,-8.538920403,4.106055737,1.058237195,0.048629403,-0.014921899,0.112580396,-39,31,0,38,165
1695160374609196100,-9.91438961,-1.891419291,-0.378283858,0.177330777,0.0976585,-0.209839195,8,31,-9,20,14,-8.537723541,4.101267338,1.058237195,0.04969525,-0.01505513,0.113646246,-37,32,2,50,170
1695160374610196100,-9.910798073,-1.886630893,-0.379480958,0.181460962,0.090996936,-0.212104142,16,31,-9,25,15,-8.543708801,4.098873138,1.066616893,0.051027562,-0.01505513,0.114978559,-38,33,1,45,169
1695160374682152300,-9.210494041,-1.690306425,-0.511162043,0.200246558,0.033174578,-0.288578868,16,29,-9,24,17,-8.550890923,4.052186489,1.034295082,0.046364475,-0.003996937,0.112846859,-38,32,3,48,170
1695160374683152300,-9.168595314,-1.674744129,-0.51954174,0.195983157,0.032108728,-0.295506895,7,26,-9,20,15,-8.55448246,4.045003891,1.035492182,0.045298621,-0.003730475,0.111647777,-38,30,1,47,168
1695160374684152300,-9.125499725,-1.659181833,-0.524330199,0.190920368,0.031176111,-0.3028346,16,27,-8,22,14,-8.553285599,4.039018154,1.036689281,0.044632465,-0.003464012,0.110182241,-38,31,3,48,168
1695160374685152300,-9.081207275,-1.646013618,-0.530315697,0.185591117,0.029977029,-0.310029089,9,30,-6,27,15,-8.553285599,4.031835556,1.037886381,0.043966308,-0.003064318,0.109116383,-38,30,3,49,168
1695160374686152300,-9.044096947,-1.624465823,-0.543483794,0.17972894,0.028911179,-0.317090333,9,26,-8,23,14,-8.55448246,4.024652958,1.040280581,0.043433387,-0.002931087,0.10805054,-34,30,4,48,170
1695160374721132400,-8.773551941,-1.334767461,-0.713472128,0.040635526,-0.024381317,-0.406888187,10,31,-6,22,17,-8.54251194,3.875015497,1.034295082,0.027445635,0.004529862,0.103387438,-35,31,4,52,172
1695160374722132400,-8.781931877,-1.323993564,-0.725443125,0.03237519,-0.02917764,-0.406355262,16,29,-9,24,17,-8.5484972,3.873818398,1.023521185,0.02904441,0.004396631,0.10178867,-35,30,2,46,168
1695160374723132400,-8.790311813,-1.313219666,-0.736217022,0.023715161,-0.03437366,-0.404756516,16,29,-6,24,14,-8.555679321,3.871424198,1.018732786,0.030376723,0.003996937,0.099790201,-39,30,3,48,171
1695160374724132400,-8.793902397,-1.297657371,-0.741005421,0.014788668,-0.039836142,-0.402491599,16,30,-6,24,15,-8.558073997,3.866635799,1.018732786,0.031842265,0.003597243,0.09739203,-37,31,4,46,170
1695160374725132400,-8.792705536,-1.285686255,-0.751779318,0.005862175,-0.04516539,-0.399027556,16,31,-7,24,14,-8.556877136,3.867832899,1.016338587,0.033307809,0.003597243,0.094727404,-38,30,4,48,171
1695160374757109400,-8.756793022,-1.276109457,-0.993593693,-0.149485439,-0.131366,-0.176797852,16,30,-6,24,14,-8.5484972,3.875015497,1.045069098,0.013323124,0.023715161,0.018385911,-37,32,4,42,168
1695160374758109400,-8.742427826,-1.283292055,-1.00436759,-0.154947937,-0.132165387,-0.158278719,10,31,-5,26,17,-8.552088737,3.876212597,1.043871999,0.011591119,0.024914242,0.013189893,-35,30,3,49,171
1695160374759109400,-8.732851028,-1.290474772,-1.013944387,-0.160143942,-0.132565081,-0.139626339,4,27,-3,28,16,-8.555679321,3.879803896,1.04147768,0.009992342,0.026113322,0.008127105,-38,29,2,48,169
1695160374760109400,-8.719682693,-1.30124867,-1.024718285,-0.164807037,-0.132298619,-0.120441042,16,29,-4,26,14,-8.555679321,3.882198095,1.037886381,0.008660031,0.027179174,0.002931087,-38,30,2,48,168
1695160374761109400,-8.706514359,-1.315613866,-1.035492182,-0.168670759,-0.131366,-0.100989282,6,32,-4,24,16,-8.553285599,3.884592295,1.035492182,0.007460949,0.02797856,-0.002264931,-39,30,0,48,168
1695160374794112100,-8.546102524,-1.651999116,-1.145625472,-0.122572735,-0.025180703,0.261133224,16,30,-1,27,15,-8.58081913,3.988739967,1.096544385,0.006794794,0.01612098,-0.048629403,-39,31,3,56,169
1695160374795112100,-8.544905663,-1.678335428,-1.156399369,-0.113246553,-0.016787136,0.278719753,8,30,-1,24,18,-8.58081913,3.992331266,1.101332784,0.007194487,0.014921899,-0.048229709,-37,31,1,54,168
1695160374796112100,-8.5484972,-1.705868721,-1.161187768,-0.102987751,-0.008393568,0.29603982,16,30,-5,29,16,-8.583212852,3.997119665,1.108515382,0.007860643,0.013189893,-0.04729709,-39,30,3,53,170
1695160374797112100,-8.5484972,-1.723825216,-1.161187768,-0.095660031,-0.003064318,0.307364464,12,27,0,28,15,-8.577227592,3.999513865,1.118092179,0.008526799,0.011457887,-0.045964777,-37,32,3,52,168
1695160374798112100,-8.553285599,-1.74776721,-1.167173386,-0.084068909,0.004929556,0.324018389,9,29,-2,26,16,-8.579621315,4.000710964,1.121683478,0.009192956,0.009725881,-0.044366002,-35,32,7,56,172
1695160374830067800,-8.85495472,-2.050633669,-1.231816769,0.253139347,0.067415006,0.546781003,9,29,-4,26,16,-8.621520042,4.082113743,1.127668977,0.039169986,-0.022382848,0.008526799,-42,31,9,59,170
1695160374831067800,-8.881291389,-2.053027868,-1.231816769,0.272591114,0.067148544,0.553176105,10,27,-4,24,14,-8.622717857,4.089296341,1.130063176,0.039836142,-0.023448698,0.010924961,-37,31,4,58,172
1695160374832067800,-8.908824921,-2.056619167,-1.234210968,0.291110277,0.066615619,0.558905005,9,25,-6,28,16,-8.62511158,4.096478939,1.136048675,0.040102605,-0.024647778,0.013323124,-35,30,3,57,170
1695160374833067800,-8.931569099,-2.060210466,-1.233013868,0.308963239,0.066215925,0.564234257,4,27,-5,26,17,-8.628703117,4.100070477,1.133654475,0.03996937,-0.025846859,0.016387442,-33,30,4,60,172
1695160374834067800,-8.944737434,-2.057816267,-1.235408068,0.320554376,0.065949462,0.567565084,6,26,-8,29,14,-8.63109684,4.104858875,1.130063176,0.03956968,-0.026246555,0.017986218,-38,31,7,58,168
1695160374864047300,-9.263166428,-2.002749681,-1.253364563,0.45911485,0.07820674,0.572228134,10,31,-4,25,14,-8.598775864,4.08570528,1.079784989,0.031575806,-0.053292494,0.071811639,-40,32,5,58,172
1695160374865047300,-9.267954826,-2.001552582,-1.253364563,0.458048999,0.079272583,0.569030643,5,21,-6,19,14,-8.598775864,4.082113743,1.074996591,0.032508422,-0.054758042,0.074076563,-38,30,3,58,172
1695160374866047300,-9.279925346,-1.999158382,-1.255758762,0.454851478,0.081137821,0.561969399,6,26,-3,24,15,-8.596381187,4.080916882,1.067813993,0.034240428,-0.057022974,0.077673815,-38,30,5,58,172
1695160374867047300,-9.28591156,-1.997961283,-1.256955862,0.451787144,0.082603365,0.556107163,8,26,-3,23,15,-8.596381187,4.078522682,1.060631394,0.035972435,-0.059287902,0.081137821,-35,33,2,58,168
1695160374868047300,-9.29189682,-1.995567083,-1.256955862,0.449388951,0.083669223,0.551843762,5,22,-6,28,16,-8.590395927,4.078522682,1.059434295,0.038104136,-0.061686065,0.084468603,-36,30,5,57,172
1695160374898052900,-9.306262016,-2.003946781,-1.224634171,0.298837662,0.135362938,0.37344715,8,30,1,27,18,-8.562862396,4.072536945,1.011550188,0.051826954,-0.077407345,0.124704443,-38,30,3,57,169
1695160374899052900,-9.305065155,-2.00753808,-1.218648672,0.287912726,0.139093414,0.361722827,8,30,-5,29,17,-8.561665535,4.072536945,1.000776291,0.050894335,-0.077807046,0.125370592,-35,31,3,60,170
1695160374900052900,-9.300276756,-2.00993228,-1.211466074,0.276721269,0.142690659,0.349865228,16,27,-3,28,16,-8.556877136,4.068945885,0.995987892,0.049828485,-0.078339972,0.12616998,-35,31,3,60,169
1695160374901052900,-9.296685219,-2.018311977,-1.207874775,0.265663087,0.146154657,0.338140905,16,32,-4,25,17,-8.550890923,4.065354347,0.993593693,0.048895866,-0.078473203,0.126969382,-38,30,0,58,173
1695160374902052900,-9.296685219,-2.019509077,-1.200692177,0.254738122,0.149618685,0.326283306,8,31,-5,28,46,-8.547300339,4.061763287,0.990002394,0.047963247,-0.078872897,0.127768755,-38,30,4,58,170
1695160374934007500,-9.325415611,-2.148796082,-1.134851575,0.138427258,0.177464008,0.13243185,6,28,-4,27,15,-8.5484972,3.970783472,0.871489406,0.059287902,-0.084735066,0.143356815,-38,31,4,58,170
1695160374935007500,-9.326612473,-2.15358448,-1.125274777,0.138427258,0.177197546,0.124437973,6,28,-6,26,14,-8.55448246,3.967192173,0.871489406,0.061019909,-0.084068909,0.143756509,-39,31,7,56,168
1695160374936007500,-9.326612473,-2.161964178,-1.11569798,0.138960183,0.176398173,0.116710559,9,27,-4,28,16,-8.56046772,3.962403774,0.864306808,0.06261868,-0.08313629,0.14388974,-40,30,0,57,172
1695160374937007500,-9.331400871,-2.161964178,-1.107318282,0.13975957,0.17559877,0.109249614,8,27,0,26,17,-8.565256119,3.956418276,0.857124209,0.064217456,-0.082203679,0.14388974,-37,30,3,60,173
1695160374938007500,-9.33618927,-2.164358377,-1.096544385,0.140958652,0.174799383,0.102321595,9,31,-3,28,17,-8.570044518,3.950432777,0.859518409,0.065683,-0.080871366,0.143756509,-39,31,3,58,169
1695160374970010900,-9.28591156,-2.132036686,-1.027112484,0.178396642,0.159078106,0.016653905,16,29,-5,27,16,-8.59278965,3.849876404,0.787692368,0.086999997,-0.057555895,0.126569673,-37,30,2,61,170
1695160374971010900,-9.283516884,-2.126051188,-1.028309584,0.179062784,0.158678412,0.012790199,5,29,-5,28,16,-8.591592789,3.840299606,0.784101069,0.088865243,-0.056889739,0.125503823,-37,31,4,58,170
1695160374972010900,-9.279925346,-2.120065689,-1.022324085,0.179595709,0.158145472,0.008660031,17,29,-2,23,16,-8.58680439,3.828328609,0.776918471,0.090996936,-0.056223582,0.124437973,-41,36,5,58,169
1695160374973010900,-9.281123161,-2.11647439,-1.023521185,0.179995403,0.157612562,0.004396631,6,29,-4,24,15,-8.588001251,3.819948912,0.770932972,0.092595711,-0.055823889,0.123638593,-35,30,1,60,172
1695160374974010900,-9.282320023,-2.110488892,-1.021126986,0.180128634,0.157079637,0.0,6,29,-5,26,14,-8.591592789,3.806780815,0.768538773,0.095127106,-0.055290964,0.122173049,-39,30,3,56,170
1695160375013964800,-9.340977669,-2.094926596,-0.968454599,0.167871356,0.13456355,-0.08020521,5,26,-5,23,15,-8.482656479,3.694253206,0.85592711,0.120574266,0.003996937,0.023182238,-38,30,1,59,172
1695160375014964800,-9.345766068,-2.094926596,-0.9648633,0.167604893,0.132165387,-0.084735066,7,29,-6,28,16,-8.467094421,3.703830004,0.867898107,0.117509954,0.009326187,0.013323124,-37,31,13,60,170
1695160375015964800,-9.352949142,-2.096123695,-0.963666201,0.167471662,0.129900455,-0.089264929,2,27,-5,22,20,-8.459911346,3.711012602,0.876277804,0.115111791,0.01292343,0.006528331,-38,30,1,60,172
1695160375016964800,-9.357737541,-2.098517895,-0.958877802,0.167338446,0.127502292,-0.09352833,16,29,-6,26,15,-8.452729225,3.7181952,0.887051702,0.110981621,0.017986218,-0.003730475,-35,32,4,61,172
1695160375017964800,-9.361329079,-2.099714994,-0.948103845,0.167071983,0.124837674,-0.097924963,16,27,-4,29,19,-8.446743965,3.727771997,0.899022758,0.106451757,0.023182238,-0.014522205,-39,33,11,58,176
1695160375048942700,-9.409213066,-2.038662672,-0.945709646,0.160943344,0.084601834,-0.176931083,5,25,-6,26,15,-8.429984093,3.958812475,1.089361787,0.002931087,0.057422664,-0.174932614,-38,29,4,60,168
1695160375049942700,-9.41280365,-2.035071373,-0.948103845,0.159611031,0.082736596,-0.181460962,8,27,-7,26,17,-8.440757751,3.973177671,1.091755986,0.000399694,0.056356817,-0.179595709,-39,31,7,60,172
1695160375050942700,-9.418789864,-2.026691675,-0.951695204,0.15841195,0.081004597,-0.185857579,16,26,-4,27,14,-8.456320763,3.985148668,1.092953086,-0.001465544,0.055424199,-0.18385911,-35,30,5,59,168
1695160375051942700,-9.419986725,-2.021903276,-0.952892303,0.157212853,0.079272583,-0.190254211,6,29,-3,26,15,-8.467094421,4.003105164,1.092953086,-0.003064318,0.054091886,-0.187456369,-38,30,3,58,168
1695160375052942700,-9.423578262,-2.013523579,-0.956483603,0.156013787,0.077407345,-0.19478406,3,27,0,28,15,-8.476671219,4.023456097,1.101332784,-0.003996937,0.0528928,-0.190520674,-39,32,5,60,168
1695160375083922400,-9.402029991,-1.904587507,-0.976834297,0.133630931,0.04769678,-0.273390502,6,27,-3,28,16,-8.531737328,4.412513733,1.186326981,-0.008793262,0.036905054,-0.150418073,-34,33,8,61,172
1695160375084922400,-9.397241592,-1.89740479,-0.975637197,0.133098006,0.04623124,-0.277120978,16,28,-6,20,15,-8.538920403,4.428076267,1.192312479,-0.011324655,0.037171517,-0.144422665,-38,32,2,59,183
1695160375085922400,-9.390059471,-1.892616391,-0.973242998,0.132565081,0.044632465,-0.281117916,16,29,-5,26,16,-8.543708801,4.444835663,1.193509579,-0.014388974,0.037837673,-0.138294026,-35,31,4,57,171
1695160375086922400,-9.384073257,-1.889025092,-0.975637197,0.131898925,0.043033689,-0.284848392,9,29,-5,19,14,-8.546102524,4.465186119,1.197100878,-0.018119449,0.038637057,-0.131765693,-38,30,4,60,174
1695160375087922400,-9.376891136,-1.886630893,-0.980425596,0.131366,0.041568145,-0.288578868,9,29,-6,24,17,-8.549694061,4.481945515,1.200692177,-0.022249617,0.03956968,-0.125237361,-40,31,0,58,169
1695160375123899300,-9.184157372,-1.750161409,-1.053448796,0.128035218,0.028245023,-0.332012266,16,26,-3,26,17,-8.354566574,4.471171856,1.210268974,-0.176264927,0.068747319,0.0042634,-39,33,1,56,170
1695160375124899300,-9.17697525,-1.742978811,-1.059434295,0.128434911,0.027578866,-0.332811654,16,30,-3,25,19,-8.344989777,4.45680666,1.207874775,-0.184392035,0.07087902,0.009592649,-35,32,5,57,168
1695160375125899300,-9.168595314,-1.734599113,-1.059434295,0.128967836,0.02691271,-0.333344579,16,31,-4,27,16,-8.340201378,4.442441463,1.206677675,-0.192119434,0.073143952,0.014388974,-33,32,5,61,173
1695160375126899300,-9.161413193,-1.731007814,-1.063025594,0.129767224,0.026379786,-0.333611012,4,26,-6,26,17,-8.334216118,4.425682068,1.204283476,-0.199713632,0.075542115,0.018785605,-34,31,4,61,170
1695160375127899300,-9.157821655,-1.722628117,-1.064222693,0.130699843,0.025846859,-0.333611012,8,28,-3,24,16,-8.327033043,4.407725334,1.201889277,-0.207441032,0.07820674,0.023182238,-35,31,8,55,170
1695160375171874100,-8.998606682,-1.600523829,-1.110909581,0.150817752,0.0021317,-0.290177643,5,27,-1,27,15,-8.305485725,4.107253075,1.039083481,-0.321353763,0.099523738,0.044499233,-39,35,5,58,172
1695160375172874100,-8.992621422,-1.595735431,-1.11569798,0.151084229,0.000266462,-0.286313951,10,29,-2,25,14,-8.306682587,4.095282078,1.024718285,-0.325750381,0.100189894,0.042900458,-33,31,4,58,172
1695160375173874100,-8.987833023,-1.586158633,-1.11569798,0.151483908,-0.001732006,-0.282183766,9,27,-5,24,16,-8.310274124,4.086902142,1.006761789,-0.330280244,0.100989282,0.041168455,-38,31,3,56,170
1695160375174874100,-8.983044624,-1.583764434,-1.11569798,0.151750386,-0.003996937,-0.278053582,2,29,-3,24,15,-8.313865662,4.072536945,0.995987892,-0.334810108,0.102188364,0.039169986,-40,30,0,60,169
1695160375175874100,-8.978256226,-1.578976035,-1.119289279,0.151750386,-0.006261868,-0.273390502,4,30,1,24,17,-8.317456245,4.061763287,0.988805294,-0.337741196,0.103120975,0.03757121,-35,30,2,57,169
1695160375206851700,-8.883685112,-1.493981838,-1.197100878,0.132298619,-0.036372125,-0.168137819,8,30,0,22,16,-8.553285599,4.023456097,0.993593693,-0.446591109,0.201312408,-0.100323126,-30,30,3,60,170
1695160375207851700,-8.884882927,-1.495178938,-1.205480576,0.129900455,-0.037704438,-0.161875948,8,31,-1,26,19,-8.578424454,4.039018154,1.001973391,-0.456317008,0.207707509,-0.111248083,-34,30,4,56,172
1695160375208851700,-8.884882927,-1.492784739,-1.210268974,0.12723583,-0.039169986,-0.155747324,4,29,0,22,15,-8.596381187,4.05577755,1.017535686,-0.466442585,0.213702917,-0.121906579,-37,31,4,53,167
1695160375209851700,-8.884882927,-1.491587639,-1.212663174,0.124571204,-0.040635526,-0.149485439,2,27,3,26,17,-8.608352661,4.064157486,1.023521185,-0.473237365,0.217166916,-0.128967836,-34,34,7,60,172
1695160375210851700,-8.883685112,-1.489193439,-1.221042871,0.121640123,-0.042234302,-0.143356815,16,31,0,28,15,-8.626308441,4.073734283,1.034295082,-0.483362943,0.222096488,-0.138960183,-35,31,5,57,169
1695160375246830500,-8.874108315,-1.489193439,-1.347935557,0.052359879,-0.064217456,-0.046364475,8,31,-3,27,19,-8.875306129,4.187458992,1.133654475,-0.482696772,0.190120965,-0.176664621,-42,30,5,58,170
1695160375247830500,-8.876502991,-1.493981838,-1.350329757,0.048629403,-0.063950993,-0.041701376,9,27,-1,27,16,-8.904036522,4.19464159,1.137245774,-0.470839173,0.183192953,-0.170003071,-35,31,3,60,169
1695160375248830500,-8.878896713,-1.498770237,-1.356315255,0.045032158,-0.063418068,-0.037038282,9,26,0,23,15,-8.933963776,4.203021049,1.140837073,-0.458048999,0.175732017,-0.162542105,-37,30,4,56,170
1695160375249830500,-8.884882927,-1.502361536,-1.365892053,0.041301683,-0.063018374,-0.032241959,16,28,1,28,19,-8.957905769,4.213795185,1.138442874,-0.444592625,0.167604893,-0.154415011,-41,33,2,61,169
1695160375250830500,-8.889671326,-1.502361536,-1.373074651,0.037970904,-0.062218986,-0.027712099,9,29,4,26,17,-8.984241486,4.223371983,1.142034173,-0.430203676,0.159078106,-0.145621747,-40,31,4,59,172
1695160375299799600,-8.980650902,-1.584961534,-1.48799634,-0.013189893,-0.022116385,0.043433387,16,23,3,27,14,-9.042900085,4.218583584,1.165976286,-0.127369061,-0.00106585,0.084868304,-37,30,3,58,176
1695160375300799600,-8.983044624,-1.589749932,-1.496376038,-0.015454824,-0.019052068,0.045831546,16,32,5,30,17,-9.024943352,4.216189384,1.176750183,-0.117243491,-0.003730475,0.095260337,-37,30,3,60,169
1695160375301799600,-8.986636162,-1.592144132,-1.496376038,-0.017053599,-0.017053599,0.047430322,16,32,7,30,23,-9.008183479,4.218583584,1.179144382,-0.108183771,-0.005862175,0.105252676,-37,30,4,58,171
1695160375302799600,-8.989029884,-1.595735431,-1.496376038,-0.019318528,-0.01398928,0.049828485,16,32,8,24,21,-8.990227699,4.217386246,1.18752408,-0.100323126,-0.007460949,0.114578865,-37,30,1,61,172
1695160375303799600,-8.992621422,-1.601720929,-1.498770237,-0.021716693,-0.011058193,0.052093416,16,32,5,27,17,-8.979453087,4.216189384,1.192312479,-0.095926493,-0.008393568,0.120441042,-38,30,4,60,173
1695160375338776900,-9.09437561,-1.680729628,-1.513135433,-0.062485453,0.048096478,0.073410407,16,32,8,29,19,-8.681375504,3.913322687,1.322796464,-0.070346095,-0.071012251,0.230756521,-38,30,1,57,170
1695160375339776900,-9.09437561,-1.684320927,-1.508347034,-0.063817769,0.051960181,0.074076563,16,32,5,27,17,-8.668207169,3.886986494,1.315613866,-0.063151613,-0.078872897,0.236618683,-35,32,4,59,172
1695160375340776900,-9.095572472,-1.690306425,-1.502361536,-0.065016843,0.05595712,0.074875958,16,32,8,31,20,-8.655038834,3.859453201,1.312022567,-0.054491576,-0.086866774,0.24261409,-39,30,4,57,172
1695160375341776900,-9.095572472,-1.698686123,-1.501164436,-0.066082694,0.06008729,0.075675346,17,32,7,29,18,-8.640673637,3.834314108,1.316810966,-0.044232771,-0.094993874,0.248609498,-37,31,9,58,172
1695160375342776900,-9.090784073,-1.703474522,-1.492784739,-0.067015313,0.064217456,0.076474734,16,32,8,32,20,-8.62511158,3.805583715,1.315613866,-0.032774884,-0.103254206,0.254604906,-38,30,0,58,170
1695160375377753800,-9.075222015,-1.784877419,-1.340752959,-0.074609496,0.133231238,0.080871366,18,32,4,30,20,-8.491036415,3.684676409,1.314416766,0.246344566,-0.237418056,0.362522215,-35,31,4,54,171
1695160375378753800,-9.080010414,-1.790862918,-1.328781962,-0.074476264,0.135895863,0.081004597,17,32,5,29,23,-8.488641739,3.688267708,1.312022567,0.258468598,-0.244745791,0.367585003,-35,30,4,61,172
1695160375379753800,-9.078812599,-1.793257117,-1.315613866,-0.074343033,0.138427258,0.081004597,16,32,9,29,14,-8.493430138,3.690661907,1.304839969,0.270192951,-0.252073497,0.372781008,-37,30,5,59,172
1695160375380753800,-9.077615738,-1.799242616,-1.306037068,-0.073943339,0.140692189,0.081271052,16,29,4,29,19,-8.493430138,3.691859007,1.294066072,0.281384379,-0.259534448,0.37811026,-37,31,7,58,172
1695160375381753800,-9.078812599,-1.799242616,-1.292868972,-0.073410407,0.143090352,0.081670754,10,31,7,29,21,-8.492233276,3.695450306,1.286883354,0.292575806,-0.267261863,0.383572727,-37,35,4,58,167
1695160375414732100,-9.109937668,-1.881842494,-1.07858789,-0.026646247,0.163607955,0.100589581,11,30,3,30,16,-8.719682693,3.670311213,1.016338587,0.486427277,-0.381041348,0.509343028,-37,30,7,57,170
1695160375415732100,-9.111134529,-1.879448295,-1.071405292,-0.023315467,0.164007664,0.101522207,16,32,6,29,23,-8.741230011,3.671508312,0.995987892,0.494421154,-0.383972436,0.514539063,-34,33,7,59,172
1695160375416732100,-9.114726067,-1.877054095,-1.058237195,-0.020117918,0.164274111,0.102721281,8,31,4,28,20,-8.754398346,3.670311213,0.982819796,0.499483913,-0.385437965,0.51786983,-37,31,4,56,170
1695160375417732100,-9.115922928,-1.874659896,-1.046266198,-0.016920367,0.16467382,0.103520676,16,32,9,28,19,-8.76636982,3.670311213,0.969651699,0.50641191,-0.387303203,0.522266448,-38,30,7,57,173
1695160375418732100,-9.115922928,-1.873462796,-1.036689281,-0.01398928,0.164807037,0.104453288,17,28,6,27,19,-8.779537201,3.669114113,0.962469101,0.512673795,-0.388369083,0.526396632,-35,31,5,60,171
1695160375453710700,-9.18296051,-1.884236693,-0.879869103,-0.013722817,0.153748855,0.097791731,5,32,7,29,18,-8.731653214,3.53384161,0.865503907,0.514405787,-0.310295552,0.522799373,-35,31,0,57,182
1695160375454710700,-9.190143585,-1.884236693,-0.869095206,-0.016254211,0.151883617,0.096192956,16,31,4,29,19,-8.725667953,3.518279314,0.864306808,0.514139354,-0.306298614,0.519335389,-33,32,7,58,173
1695160375455710700,-9.193734169,-1.885433793,-0.860715508,-0.018918836,0.149885148,0.094594181,16,26,6,24,16,-8.723274231,3.501519918,0.863109708,0.514006138,-0.3028346,0.515471697,-37,31,7,60,173
1695160375456710700,-9.199720383,-1.889025092,-0.85473001,-0.02158346,0.147753447,0.092862174,17,30,7,26,17,-8.711302757,3.487154722,0.861912608,0.514006138,-0.299503833,0.511208296,-39,32,5,61,172
1695160375457710700,-9.202114105,-1.891419291,-0.847547412,-0.024514547,0.145355284,0.090996936,16,32,7,26,19,-8.70172596,3.473986626,0.867898107,0.514272571,-0.296173036,0.506678402,-34,33,7,60,173
1695160375820596700,-8.995016098,-1.838746905,-1.176750183,-0.016653905,0.026779478,-0.119108729,16,30,4,29,19,-8.226476669,5.234921932,1.623268723,-0.194384381,-0.08833231,0.206908107,-37,31,3,54,171
1695160375821596700,-8.995016098,-1.835155606,-1.170764685,-0.01718683,0.028777948,-0.118842266,16,29,5,27,19,-8.226476669,5.209783077,1.610100627,-0.238350689,-0.09352833,0.205842257,-38,30,1,58,172
1695160375822596700,-8.993818283,-1.831564307,-1.167173386,-0.017852986,0.030776417,-0.118709028,17,32,7,30,20,-8.228871346,5.178658485,1.589749932,-0.280718207,-0.097924963,0.204509944,-38,30,4,55,167
1695160375823596700,-8.992621422,-1.826775908,-1.165976286,-0.018519141,0.032774884,-0.11817611,16,30,2,30,21,-8.230068207,5.143942356,1.572990537,-0.321353763,-0.101255737,0.202777937,-37,30,1,56,171
1695160375824596700,-8.991424561,-1.825578809,-1.161187768,-0.019318528,0.035039816,-0.117776416,16,29,9,29,19,-8.230068207,5.102043629,1.553836942,-0.359591126,-0.103787132,0.200912714,-38,31,3,56,172
1695160375871571200,-9.004592896,-1.825578809,-1.060631394,0.0,0.065549769,-0.092995405,8,31,7,29,19,-8.409633636,4.187458992,1.122880578,-0.44405973,-0.018652374,0.16773814,-31,33,8,56,173
1695160375872571200,-9.008183479,-1.824381709,-1.054645896,0.001732006,0.066215925,-0.091396637,17,31,7,31,23,-8.422801971,4.165910721,1.119289279,-0.419944882,-0.012124043,0.167338446,-35,30,4,58,170
1695160375873571200,-9.010578156,-1.82079041,-1.048660398,0.00319755,0.067281775,-0.089664623,20,30,5,28,21,-8.431180954,4.147954464,1.119289279,-0.394764155,-0.005995406,0.167071983,-39,30,1,55,172
1695160375874571200,-9.014169693,-1.82079041,-1.039083481,0.004529862,0.068081163,-0.087799385,17,31,7,28,17,-8.43956089,4.131195068,1.122880578,-0.368650824,0.0,0.166672289,-41,33,4,56,170
1695160375875571200,-9.016563416,-1.816002011,-1.036689281,0.005728943,0.068880551,-0.085934147,16,32,7,30,15,-8.446743965,4.116829872,1.125274777,-0.34227106,0.005728943,0.166672289,-35,31,4,58,168
1695160375916542700,-9.058462143,-1.786074519,-0.9648633,0.004529862,0.074209802,-0.057955589,18,32,2,28,20,-8.59278965,4.259284973,1.422155857,-0.009992342,0.045831546,0.186523736,-35,31,3,57,171
1695160375917542700,-9.060855865,-1.789665818,-0.963666201,0.003863706,0.073943339,-0.056889739,18,31,5,30,17,-8.593987465,4.267664433,1.437718153,-0.006128637,0.046497703,0.187056661,-37,30,2,52,170
1695160375918542700,-9.064447403,-1.788468719,-0.958877802,0.00319755,0.073676877,-0.055424199,9,31,1,29,19,-8.591592789,4.273650169,1.453280449,-0.003330781,0.04729709,0.187456369,-39,30,3,54,170
1695160375919542700,-9.070432663,-1.788468719,-0.951695204,0.002398162,0.073277183,-0.054225113,16,28,5,30,17,-8.588001251,4.279635429,1.462857246,-0.001598775,0.048229709,0.187856048,-37,31,4,56,170
1695160375920542700,-9.077615738,-1.789665818,-0.950498104,0.001465544,0.072877489,-0.053159267,16,32,7,29,21,-8.583212852,4.282029629,1.477222443,-0.000666156,0.049162328,0.188122496,-37,32,7,52,172
1695160375966514100,-9.125499725,-1.786074519,-0.899022758,-0.015188362,0.05808882,-0.032641653,10,30,7,29,17,-8.501810074,3.877409697,1.37666595,0.095127106,0.02904441,0.232088804,-31,33,8,60,175
1695160375967514100,-9.127894402,-1.788468719,-0.899022758,-0.015854517,0.057156201,-0.031442571,9,30,4,30,17,-8.512583733,3.855861902,1.370680451,0.110448696,0.026246555,0.234886676,-35,31,2,57,170
1695160375968514100,-9.131484985,-1.789665818,-0.896628559,-0.016254211,0.056090351,-0.030243492,16,30,5,29,17,-8.518569946,3.836708307,1.362300754,0.12616998,0.023448698,0.237418056,-39,31,3,54,170
1695160375969514100,-9.1326828,-1.793257117,-0.89303726,-0.016520673,0.055024505,-0.029310873,16,30,10,30,18,-8.524555206,3.818751812,1.356315255,0.14282389,0.020917306,0.239549771,-41,35,5,57,167
1695160375970514100,-9.1326828,-1.793257117,-0.889445961,-0.017053599,0.053958651,-0.028245023,16,30,4,28,21,-8.530540466,3.804386616,1.351526856,0.160010725,0.018385911,0.24154824,-38,30,1,57,169
1695160376007490600,-9.145850182,-1.786074519,-0.889445961,-0.021050537,0.034640122,-0.0063951,8,30,7,28,17,-8.649053574,3.871424198,1.41257906,0.386237353,-0.004529862,0.214369074,-39,31,5,57,174
1695160376008490600,-9.143456459,-1.78368032,-0.89184016,-0.021183766,0.033707503,-0.004929556,8,30,3,27,19,-8.658630371,3.889380693,1.422155857,0.387836158,-0.004529862,0.210372135,-41,30,8,56,173
1695160376009490600,-9.14465332,-1.78368032,-0.895431459,-0.021450229,0.032774884,-0.003330781,16,32,1,28,21,-8.665813446,3.907337189,1.432929754,0.388235807,-0.004396631,0.206641659,-38,30,4,53,171
1695160376010490600,-9.145850182,-1.78368032,-0.894234359,-0.021983154,0.031975497,-0.001865237,18,28,6,34,19,-8.671798706,3.930082083,1.44729495,0.387169987,-0.004396631,0.202777937,-36,30,2,60,165
1695160376011490600,-9.145850182,-1.780089021,-0.894234359,-0.022116385,0.030909648,-0.000133231,16,33,5,28,18,-8.676587105,3.946841478,1.460463047,0.384638578,-0.0042634,0.199047476,-35,32,7,58,170
1695160376048469600,-9.137471199,-1.788468719,-0.895431459,-0.027045943,0.009992342,0.028511487,16,32,8,30,19,-8.597578049,4.103661537,1.41138196,0.149352223,-0.045431852,0.150551304,-41,29,1,58,180
1695160376049469600,-9.137471199,-1.790862918,-0.895431459,-0.027179174,0.008526799,0.030243492,16,29,7,28,22,-8.590395927,4.090493679,1.400607944,0.135629401,-0.050361406,0.151350692,-35,30,3,58,169
1695160376050469600,-9.137471199,-1.793257117,-0.89303726,-0.027179174,0.007327718,0.031975497,16,31,3,30,16,-8.583212852,4.071340084,1.385045648,0.122705974,-0.055424199,0.152283311,-37,32,4,59,172
1695160376051469600,-9.136273384,-1.798045516,-0.895431459,-0.027179174,0.006261868,0.033707503,10,27,8,31,20,-8.573636055,4.05338335,1.365892053,0.110981621,-0.060353752,0.153615624,-39,30,2,54,171
1695160376052469600,-9.135076523,-1.800439715,-0.896628559,-0.027312404,0.005062787,0.03543951,16,27,7,28,17,-8.566453934,4.029441357,1.353921056,0.100323126,-0.065150075,0.155081168,-35,31,5,57,168
1695160376082448100,-9.125499725,-1.854309201,-0.93014735,-0.01612098,-0.012523737,0.064483918,16,29,9,29,19,-8.342596054,3.758896589,1.097741485,0.071278714,-0.093661562,0.179329246,-38,32,7,58,168
1695160376083448100,-9.121908188,-1.8579005,-0.93014735,-0.01612098,-0.013589587,0.065150075,17,31,1,29,20,-8.352172852,3.75530529,1.083376288,0.071012251,-0.094993874,0.179062784,-37,30,3,56,170
1695160376084448100,-9.117119789,-1.856703401,-0.93134445,-0.01612098,-0.014921899,0.065816231,16,32,7,28,17,-8.365341187,3.750516891,1.070208192,0.070479326,-0.096859112,0.17866309,-34,30,14,60,171
1695160376085448100,-9.114726067,-1.853112102,-0.936132848,-0.016520673,-0.01612098,0.066082694,16,32,5,28,19,-8.373720169,3.746925592,1.058237195,0.069946401,-0.098324656,0.178130165,-38,32,4,58,174
1695160376086448100,-9.114726067,-1.853112102,-0.938527048,-0.016920367,-0.017586524,0.066349156,16,31,1,32,17,-8.388085365,3.742137194,1.043871999,0.069013782,-0.100189894,0.177197546,-37,30,4,54,170
1695160376116451700,-9.129091263,-1.875856996,-0.987608194,-0.043433387,-0.034906585,0.05808882,16,32,-3,30,19,-8.626308441,3.660734415,0.843956113,0.059154671,-0.093261868,0.082470134,-37,32,8,57,171
1695160376117451700,-9.130288124,-1.883039594,-0.992396593,-0.044499233,-0.035039816,0.057555895,16,31,3,28,19,-8.632294655,3.664325714,0.837970614,0.059687596,-0.089664623,0.073543645,-42,30,4,58,172
1695160376118451700,-9.127894402,-1.889025092,-1.000776291,-0.04516539,-0.035039816,0.057022974,6,29,5,29,17,-8.633491516,3.667917013,0.835576415,0.06008729,-0.086866774,0.067548238,-38,33,4,60,172
1695160376119451700,-9.130288124,-1.893813491,-1.006761789,-0.045698319,-0.034906585,0.056623276,16,30,8,29,19,-8.641871452,3.670311213,0.836773515,0.060620211,-0.082603365,0.05808882,-39,31,4,60,172
1695160376120451700,-9.131484985,-1.900996208,-1.012747288,-0.045964777,-0.034773353,0.056090351,6,31,3,30,19,-8.645462036,3.676296711,0.831985116,0.06115314,-0.07794027,0.048496172,-42,30,3,56,170
1695160376152407300,-9.130288124,-1.9309237,-1.074996591,-0.039303213,-0.030376723,0.03996937,16,31,8,29,17,-8.494627953,3.8642416,0.876277804,0.008260337,0.044232771,-0.113379791,-35,32,5,56,173
1695160376153407300,-9.127894402,-1.929726601,-1.07739079,-0.039836142,-0.030376723,0.038370594,9,31,3,27,20,-8.498218536,3.8654387,0.865503907,0.003863706,0.047163859,-0.119375192,-34,31,8,58,170
1695160376154407300,-9.127894402,-1.928529501,-1.082179189,-0.040369064,-0.030376723,0.036905054,16,29,5,26,19,-8.50420475,3.8642416,0.859518409,0.0,0.049428791,-0.125104129,-38,31,5,60,172
1695160376155407300,-9.125499725,-1.927332401,-1.07739079,-0.04103522,-0.030243492,0.035039816,17,32,5,28,18,-8.508993149,3.8630445,0.85473001,-0.00319755,0.050761104,-0.130433381,-38,33,5,57,171
1695160376156407300,-9.125499725,-1.9321208,-1.080982089,-0.041834611,-0.029977029,0.033574272,16,32,6,31,19,-8.51617527,3.861847401,0.847547412,-0.005595712,0.051693719,-0.135629401,-38,33,7,58,172
1695160376195386600,-9.096769333,-1.936909199,-1.079784989,-0.040102605,-0.011058193,0.002398162,18,29,9,28,23,-8.617929459,3.914519787,0.987608194,0.010258805,0.074209802,-0.228891268,-37,33,1,64,172
1695160376196386600,-9.095572472,-1.934514999,-1.080982089,-0.039836142,-0.010658499,0.000266462,16,31,4,30,17,-8.61912632,3.931279182,0.993593693,0.009059724,0.077673815,-0.235686064,-36,32,3,58,173
1695160376197386600,-9.09437561,-1.9321208,-1.079784989,-0.039702907,-0.010392036,-0.001998469,10,32,8,28,18,-8.626308441,3.949235678,1.00317049,0.007460949,0.081271052,-0.242747322,-38,30,4,58,172
1695160376198386600,-9.093177795,-1.928529501,-1.080982089,-0.03956968,-0.010258805,-0.003996937,16,29,6,29,17,-8.637083054,3.968389273,1.011550188,0.005196018,0.084601834,-0.249542102,-37,33,4,56,172
1695160376199386600,-9.091980934,-1.926135302,-1.085770488,-0.03956968,-0.010125575,-0.006261868,16,28,7,28,20,-8.649053574,3.986345768,1.025915384,0.002398162,0.087666154,-0.256470144,-37,32,7,58,172
1695160376230363700,-3.110068083,0.550666392,10.76672459,0.177996933,0.2831164,0.274722815,-2,30,10,19,7,-8.680178642,4.205415249,1.238999367,-0.060886677,0.10258805,-0.297638565,-35,33,7,57,170
1695160376231363700,-3.086126089,0.600944638,10.75355721,0.126969382,0.283249617,0.252739668,-2,30,7,18,7,-8.674192429,4.20062685,1.229422569,-0.056756508,0.097525269,-0.291110277,-34,30,4,58,174
1695160376232363700,-3.068169594,0.63087213,10.73560047,0.073810108,0.280318528,0.230623275,-1,28,10,20,9,-8.668207169,4.193444252,1.222239971,-0.051027562,0.091663092,-0.283516079,-41,31,3,59,172
1695160376233363700,-3.062183857,0.641646028,10.69729328,0.019984685,0.274456352,0.208773345,-2,29,9,18,9,-8.659827232,4.183867455,1.218648672,-0.043833077,0.084868304,-0.274722815,-39,33,8,58,174
1695160376234363700,-3.065775394,0.63087213,10.64701462,-0.033574272,0.265396625,0.187323123,-2,30,11,18,8,-8.650250435,4.177882195,1.213860273,-0.035173047,0.077540584,-0.2648637,-37,32,5,58,172
1695160376266345600,-9.919178009,-1.780089021,-1.191115379,1.552143931,-0.419145465,-0.393565059,6,32,33,28,16,-8.839392662,3.987542868,0.774524271,-0.906638563,0.06008729,0.131765693,-39,32,8,56,172
1695160376267345600,-9.886856079,-1.733402014,-1.199495077,1.560271144,-0.393431842,-0.373580426,16,31,30,29,16,-8.847772598,3.975571871,0.764947414,-0.890650809,0.053825419,0.143356815,-37,31,3,60,176
1695160376268345600,-9.84974575,-1.685518026,-1.205480576,1.564667702,-0.367318511,-0.355061263,16,29,31,28,15,-8.858546257,3.961206675,0.74459672,-0.866535962,0.04516539,0.160410419,-33,33,7,57,172
1695160376269345600,-9.812635422,-1.643619418,-1.209071875,1.565467119,-0.341205209,-0.337874413,16,31,33,29,14,-8.869319916,3.950432777,0.729034424,-0.842287898,0.037304748,0.177064329,-35,31,5,58,173
1695160376270345600,-9.775525093,-1.59812963,-1.212663174,1.562669158,-0.314958632,-0.32255286,16,30,31,28,16,-8.877699852,3.944447279,0.718260527,-0.818439543,0.029977029,0.193451747,-35,33,7,57,172
1695160376305344200,-9.507374763,-1.355118155,-0.031124622,-0.669220507,0.100056656,-0.30856356,16,28,16,27,17,-7.58722496,5.292382717,1.777694821,0.41861257,-0.302967817,0.656963229,-76,33,39,91,174
1695160376306344200,-9.507374763,-1.248576164,-0.073023155,-0.723445654,0.088465542,-0.328415006,8,32,21,28,20,-7.592013359,5.264849663,1.778891921,0.394364446,-0.284049004,0.65549767,-75,31,39,90,179
1695160376307344200,-9.504981041,-1.139639974,-0.122104287,-0.784199059,0.07301072,-0.350531399,5,27,19,26,19,-7.601590633,5.23851347,1.777694821,0.371581942,-0.264464021,0.652966261,-76,32,39,92,178
1695160376308344200,-9.501389503,-1.028309584,-0.175973818,-0.851214409,0.054091886,-0.37451303,16,29,13,30,19,-7.605181694,5.214571476,1.776497602,0.35013172,-0.243813157,0.649102569,-76,32,37,89,172
1695160376309344200,-9.493009567,-0.916979253,-0.234631762,-0.925157726,0.032241959,-0.400493115,9,33,15,27,16,-7.611167431,5.20379734,1.775300503,0.3365421,-0.229557425,0.645638585,-76,31,39,91,176
1695160376340303300,-9.034520149,-3.063380957,-0.22146365,0.070479326,0.249009192,1.122073531,1,17,-24,14,8,-8.305485725,4.853046894,0.857124209,-0.086067379,-0.023049004,-0.335209787,-45,32,18,64,176
1695160376341303300,-8.950722694,-3.057395458,-0.243011475,0.080871366,0.252473205,1.128068924,4,17,-23,13,7,-8.29231739,4.824316502,0.843956113,-0.129500762,-0.028911179,-0.344802469,-44,32,17,63,170
1695160376342303300,-8.869319916,-3.04901576,-0.266953498,0.089931086,0.255803972,1.131532907,1,17,-21,14,2,-8.282740593,4.791994572,0.82001406,-0.170136288,-0.037304748,-0.353062779,-44,31,17,61,174
1695160376343303300,-8.792705536,-3.031059265,-0.290895492,0.097791731,0.258468598,1.132199168,1,11,-19,13,5,-8.269572258,4.762067318,0.791283667,-0.20824042,-0.047830015,-0.359990805,-44,33,21,63,172
1695160376344303300,-8.719682693,-3.008314371,-0.317231715,0.104186833,0.26020062,1.129800916,-1,18,-23,13,4,-8.257601738,4.727351189,0.764947414,-0.243413478,-0.060353752,-0.365719765,-45,31,15,64,172
1695160376374287500,-9.02973175,-1.874659896,-1.231816769,0.200513005,-0.075142421,0.128301695,3,18,-1,19,14,-8.453926086,3.392583847,1.161187768,0.056490045,0.156546697,-0.027179174,-44,31,15,54,173
1695160376375287500,-9.039308548,-1.868674397,-1.242590666,0.195450217,-0.075542115,0.125237361,4,19,3,22,9,-8.456320763,3.391386747,1.179144382,0.063551299,0.158545166,-0.039836142,-57,20,3,46,157
1695160376376287500,-9.048885345,-1.862688899,-1.246181965,0.189987749,-0.075675346,0.122173049,0,22,1,20,11,-8.461109161,3.396175146,1.197100878,0.071278714,0.160277188,-0.052626338,-57,20,5,44,158
1695160376377287500,-9.054870605,-1.856703401,-1.259350061,0.184258804,-0.075675346,0.11924196,4,18,5,23,11,-8.464699745,3.399766445,1.213860273,0.079539053,0.161742732,-0.065416537,-54,23,5,46,161
1695160376378287500,-9.060855865,-1.854309201,-1.270123959,0.178263396,-0.075941809,0.115911178,1,18,5,20,12,-8.469488144,3.402160645,1.236605167,0.088199086,0.163208261,-0.07820674,-57,20,5,48,162
1695160376410261200,-9.060855865,-1.570596337,-1.218648672,-0.02051761,0.014522205,0.011724349,1,19,3,23,12,-8.605957985,3.830722809,0.958877802,0.083269522,-0.043433387,0.065816231,-58,20,5,46,163
1695160376411261200,-9.064447403,-1.568202138,-1.216254473,-0.020384381,0.01505513,0.01185758,2,19,3,19,11,-8.605957985,3.831919909,0.968454599,0.083402753,-0.042900458,0.063151613,-58,23,4,45,158
1695160376412261200,-9.060855865,-1.565807939,-1.216254473,-0.02051761,0.015588055,0.01185758,1,20,-1,22,11,-8.605957985,3.828328609,0.974440098,0.083535992,-0.042234302,0.060220521,-55,23,7,45,158
1695160376413261200,-9.06205368,-1.567005038,-1.213860273,-0.020384381,0.01612098,0.01185758,4,20,3,22,11,-8.603564262,3.828328609,0.976834297,0.083535992,-0.041568145,0.057289433,-58,21,4,45,160
1695160376414261200,-9.065644264,-1.565807939,-1.213860273,-0.02051761,0.016653905,0.01185758,0,19,3,26,12,-8.597578049,3.82473731,0.976834297,0.083535992,-0.04103522,0.054358348,-58,20,4,45,161
1695160376441245300,-9.713275909,-3.292027235,-1.600523829,-1.121673822,0.355327696,-0.80818069,18,29,10,30,14,-8.58081913,3.918111086,0.871489406,0.051027562,-0.020917306,0.051826954,-46,30,1,49,167
1695160376442245300,-9.706093788,-3.372233152,-1.620874524,-1.200546741,0.367052078,-0.86120671,10,26,10,29,14,-8.582015991,3.931279182,0.867898107,0.053425729,-0.021050537,0.050627869,-49,27,0,49,166
1695160376443245300,-9.701305389,-3.45722723,-1.640028119,-1.277421117,0.378243476,-0.913699865,16,25,11,28,14,-8.58081913,3.948038578,0.863109708,0.056756508,-0.021183766,0.049162328,-51,27,1,52,166
1695160376444245300,-9.698910713,-3.555389643,-1.648407817,-1.351231217,0.389301687,-0.96512711,5,27,8,28,14,-8.576030731,3.970783472,0.860715508,0.061552834,-0.020650841,0.047163859,-46,30,1,51,167
1695160376445245300,-9.695320129,-3.658340216,-1.655590534,-1.421577215,0.400359869,-1.015621662,8,32,7,29,14,-8.578424454,3.993528366,0.857124209,0.068214394,-0.019851454,0.044765696,-49,30,1,48,168
1695160376475226400,-9.661801338,-5.322310448,-1.830367208,-1.550145507,0.45085454,-1.74679482,8,27,8,29,15,-8.610746384,5.301959515,0.319625914,0.858275652,0.146154657,0.215301678,-51,29,1,46,166
1695160376476226400,-9.645041466,-5.337872505,-1.838746905,-1.504713535,0.43939665,-1.781035185,8,29,10,30,20,-8.607154846,5.432443619,0.310049117,0.952869833,0.159344569,0.253405809,-51,26,-2,52,167
1695160376477226400,-9.625887871,-5.342660904,-1.8590976,-1.457682967,0.426073521,-1.815808654,9,29,11,34,17,-8.611943245,5.57250452,0.300472319,1.048663139,0.171468601,0.295506895,-53,30,0,49,168
1695160376478226400,-9.604340553,-5.342660904,-1.884236693,-1.409320116,0.411284834,-1.850981593,10,27,11,34,19,-8.608352661,5.726930618,0.299275219,1.145255804,0.183192953,0.341338426,-50,27,3,46,168
1695160376479226400,-9.578003883,-5.325901508,-1.915361404,-1.360024571,0.394897372,-1.887486935,9,27,13,34,18,-8.604761124,5.892130375,0.299275219,1.240249515,0.193584993,0.390367538,-47,28,0,50,168
1695160376511202600,-7.791929245,-2.503137827,-2.443282843,-2.139427185,0.580088794,-2.762816191,16,26,32,38,24,-8.566453934,8.667010307,0.391451985,1.904274106,0.045565084,1.49698627,-47,29,3,50,169
1695160376512202600,-7.606379032,-2.296039343,-2.548627615,-2.409886837,0.684275687,-2.825967789,8,27,35,34,17,-8.555679321,8.668207169,0.33399114,1.890951037,0.024514547,1.549079537,-47,30,1,50,168
1695160376513202600,-7.481880188,-2.158372879,-2.63721323,-2.626387358,0.765946448,-2.872998476,16,29,36,35,25,-8.54251194,8.649053574,0.277727395,1.8786937,0.004130168,1.60024035,-49,29,1,50,168
1695160376514202600,-7.334636688,-2.015917778,-2.768894196,-2.931087255,0.880658507,-2.935350895,9,29,31,34,25,-8.52216053,8.61314106,0.219069451,1.868168473,-0.014921899,1.650868297,-51,30,0,49,168
1695160376515202600,-7.232883453,-1.9333179,-2.873042107,-3.172768593,0.970989287,-2.981581926,16,28,35,35,27,-8.486248016,8.564059258,0.164002821,1.860707521,-0.031575806,1.701362967,-51,30,1,48,168
1695160376550182400,-5.884947777,-3.415328741,-6.118382454,-4.365721226,2.633448601,-3.63628006,16,27,15,29,24,-7.313088894,7.10359621,-1.625662923,2.695934296,0.072477795,2.513140917,-51,27,4,54,168
1695160376551182400,-5.815515995,-3.428496838,-6.301538944,-4.365721226,2.695401192,-3.667855978,4,27,13,28,23,-7.242460251,7.049726963,-1.679532528,2.770543814,0.096192956,2.542318583,-53,29,0,54,168
1695160376552182400,-5.734113216,-3.439270735,-6.478709698,-4.365721226,2.7581532,-3.701696634,6,29,10,28,24,-7.152677536,6.967126846,-1.78128612,2.888453245,0.135496169,2.586418152,-51,29,2,51,168
1695160376553182400,-5.64552784,-3.452438831,-6.665457726,-4.365721226,2.821438074,-3.737136126,5,25,7,26,25,-6.9108634,6.703764915,-2.244564056,3.37501359,0.291243494,2.750558853,-53,29,0,52,170
1695160376554182400,-5.549759388,-3.470395327,-6.855796337,-4.365721226,2.88432312,-3.773241997,6,26,8,29,26,-6.76721096,6.580463409,-2.456450939,3.670387506,0.381307811,2.842222214,-57,29,1,52,170
1695160376583164200,-3.991134167,-3.713406801,-9.139864922,-4.365721226,2.970257282,-4.29710722,-1,27,-19,14,17,-5.692214489,6.979097843,-3.928884983,4.365588188,1.064917326,3.538488626,-60,26,-5,56,169
1695160376584164200,-3.944447279,-3.699041605,-9.136273384,-4.365721226,2.952004671,-4.31322813,0,27,-22,18,17,-5.601234913,6.961141586,-3.997119665,4.365588188,1.095293999,3.577658415,-62,27,-7,52,168
1695160376585164200,-3.876212597,-3.687070608,-9.120711327,-4.365721226,2.924026012,-4.336277008,-1,29,-20,16,18,-5.544970989,6.947973251,-4.035427094,4.365588188,1.111415029,3.5996418,-65,27,-6,53,167
1695160376586164200,-3.812766314,-3.682282209,-9.103952408,-4.365721226,2.894582033,-4.357327938,-1,28,-22,14,16,-5.488707542,6.941987991,-4.076128483,4.365588188,1.125803947,3.620292425,-66,27,-5,53,168
1695160376587164200,-3.763684988,-3.664325714,-9.083600998,-4.365721226,2.863672256,-4.365721226,-1,30,-22,19,14,-5.431246758,6.941987991,-4.118026733,4.365588188,1.138194442,3.638411999,-61,29,-7,53,168
1695160376617141000,-3.769670486,-3.414131641,-8.237251282,-4.365721226,1.365620255,-3.962030411,-3,21,-38,8,12,-4.969165802,6.185420036,-4.16231966,4.365588188,0.966192961,3.298938751,-66,27,-18,50,168
1695160376618141000,-3.758896589,-3.239354849,-8.130708694,-4.365721226,1.269693732,-3.892350674,-3,18,-40,10,13,-4.959589005,6.136339188,-4.147954464,4.365588188,0.94687438,3.267229557,-60,27,-13,51,168
1695160376619141000,-3.746925592,-3.053804159,-8.014590263,-4.27019453,1.178830028,-3.82080555,-3,25,-38,7,14,-4.94043541,6.059724331,-4.116829872,4.365588188,0.917297065,3.218200684,-61,27,-17,48,168
1695160376620141000,-3.721786499,-2.870647907,-7.904457092,-4.139760971,1.094627857,-3.747128725,-4,25,-38,12,12,-4.921281815,5.983109951,-4.078522682,4.365588188,0.887852967,3.168372154,-63,27,-16,54,170
1695160376621141000,-3.699041605,-2.698265314,-7.793126583,-4.019586563,1.017220497,-3.672519207,-2,18,-37,10,12,-4.894945145,5.896918774,-4.058171749,4.365588188,0.857476294,3.117877483,-60,26,-15,53,169
1695160376652134600,-3.713406801,-0.963666201,-7.942764282,-2.06614995,0.079672284,-2.193785667,-8,18,-49,10,10,-4.311957359,4.49271965,-4.101267338,2.651301861,0.350264937,2.079206705,-65,23,-23,46,170
1695160376653134600,-3.709815502,-0.89064306,-7.983465672,-2.002465487,0.057289433,-2.150218964,-7,22,-49,6,9,-4.302380562,4.429273129,-4.12640667,2.590548038,0.342004567,2.040169954,-60,24,-25,45,166
1695160376654134600,-3.700238705,-0.701501071,-8.092401505,-1.85071516,0.005728943,-2.044433355,-11,21,-51,2,7,-4.279635429,4.329913616,-4.168305397,2.50261569,0.326549739,1.983946323,-62,23,-21,47,173
1695160376655134600,-3.696647406,-0.624886632,-8.136694908,-1.793292522,-0.013323124,-2.003131866,-10,21,-57,8,7,-4.262876034,4.250905037,-4.209006786,2.418147087,0.310562044,1.928788662,-60,25,-22,47,174
1695160376656134600,-3.687070608,-0.511162043,-8.209717751,-1.710955501,-0.039836142,-1.942511439,-8,19,-53,2,5,-4.255693436,4.169502258,-4.244919777,2.337142467,0.294307798,1.874830008,-61,25,-22,46,170
1695160376697096500,-3.460818529,1.423352957,-10.0317049,-0.720248044,-0.257269531,-1.103687525,-7,21,-53,7,4,-3.955221176,3.258508444,-5.380968094,1.344836116,-0.449388951,1.240382791,-61,23,-27,42,170
1695160376698096500,-3.440467834,1.511938334,-10.1885252,-0.674683034,-0.262598753,-1.075442553,-6,21,-51,4,8,-3.936067581,3.254917145,-5.505466938,1.29700613,-0.504679918,1.222663164,-63,24,-29,37,168
1695160376699096500,-3.422511339,1.605312228,-10.35372543,-0.626986206,-0.268727422,-1.049462438,-8,18,-50,0,12,-3.912125587,3.248931646,-5.631162167,1.24864316,-0.560903549,1.206275582,-62,26,-25,40,171
1695160376700096500,-3.405751944,1.704671621,-10.52491093,-0.577557385,-0.276055127,-1.026013732,-14,22,-49,2,7,-3.879803896,3.256114244,-5.759252071,1.199747324,-0.616194487,1.190287828,-61,21,-25,36,173
1695160376701096500,-3.390189648,1.805228114,-10.699687,-0.525730491,-0.284848392,-1.005229712,-8,25,-50,2,8,-3.846285105,3.263296843,-5.896918774,1.150718212,-0.669886649,1.1733675,-61,21,-20,42,169
1695160376733077800,-2.547430515,2.863465309,-12.52047825,0.536788702,-0.024514547,-0.483895868,-4,25,-49,4,9,-3.306392431,3.215412855,-9.745597839,0.34906584,-1.142591119,0.747294068,-62,28,-25,42,176
1695160376734077800,-2.522291422,2.846705914,-12.58871269,0.600606382,0.025047474,-0.419545174,-7,27,-49,4,12,-3.284844637,3.207033157,-10.01733971,0.322153151,-1.148719788,0.727709055,-60,23,-28,43,173
1695160376735077800,-2.501940727,2.827552319,-12.65455341,0.668954015,0.075275652,-0.351863712,-3,25,-48,7,11,-3.270479441,3.209427357,-10.18972206,0.303767234,-1.151784062,0.71571821,-60,23,-29,41,173
1695160376736077800,-2.493561029,2.808398485,-12.71919632,0.741298616,0.12616998,-0.281917304,-3,21,-50,6,12,-3.236960649,3.223792553,-10.43991661,0.275388956,-1.153516173,0.698664606,-58,25,-26,41,169
1695160376737077800,-2.49236393,2.79044199,-12.7910223,0.818172991,0.176797852,-0.210105672,-7,25,-53,0,13,-3.19506216,3.241749048,-10.67694283,0.245811626,-1.152317047,0.682943344,-60,22,-25,42,173
1695160376769057700,-2.34033227,1.70946002,-13.00769806,3.411519289,0.910502255,0.702794731,5,25,-60,4,15,-2.497152328,4.475960255,-13.13219643,-1.029744267,-0.394098014,0.631649256,-55,23,-25,37,173
1695160376770057700,-2.30681324,1.657984734,-13.02685165,3.613231182,0.948073506,0.711987734,8,27,-60,2,15,-2.486378431,4.534617901,-13.16092682,-1.13393116,-0.323885113,0.61965853,-55,23,-27,40,172
1695160376771057700,-2.260126352,1.612494826,-13.04959679,3.814943314,0.98844254,0.718116403,8,24,-53,7,16,-2.474407434,4.581305027,-13.18486881,-1.239849925,-0.25300613,0.605535984,-60,23,-25,41,176
1695160376772057700,-2.208651066,1.574187636,-13.07832718,4.014390469,1.032009244,0.721980095,9,25,-49,0,14,-2.463633537,4.623203278,-13.20521927,-1.347101092,-0.181594178,0.589281797,-55,20,-25,44,177
1695160376773057700,-2.173935175,1.557428241,-13.0950861,4.146022797,1.062252641,0.723445654,17,27,-52,4,14,-2.45166254,4.668693542,-13.21719074,-1.455284715,-0.110049009,0.570895851,-53,24,-28,40,174
1695160376808036400,-1.921346903,0.553060591,-13.15494156,4.365588188,2.240416527,0.251673818,31,23,-65,4,19,-2.384624958,6.50983429,-13.08790398,-3.823203564,1.138460875,0.420344561,-48,24,-25,41,174
1695160376809036400,-1.964442492,0.472854823,-13.0902977,4.365588188,2.297306299,0.194117904,31,25,-63,2,17,-2.33793807,6.672640324,-13.04720211,-4.009061337,1.204543591,0.435000002,-50,24,-24,42,173
1695160376810036400,-1.962048292,0.385466486,-13.02445698,4.365588188,2.350199223,0.137894332,31,21,-64,-1,20,-2.288856745,6.841431141,-12.99093819,-4.199715137,1.275022984,0.452453285,-58,20,-27,40,176
1695160376811036400,-1.951274395,0.33399114,-12.96699619,4.365588188,2.383640289,0.104986221,31,22,-68,6,20,-2.233790159,7.02937603,-12.92509747,-4.365721226,1.350032091,0.47163859,-45,27,-25,41,177
1695160376812036400,-1.945288897,0.268150598,-12.86284828,4.365588188,2.432269573,0.051960181,31,22,-69,2,19,-2.171540976,7.213729858,-12.8688345,-4.365721226,1.429571152,0.491889745,-46,24,-25,40,173
1695160376848010400,-2.59890604,-1.663970232,-10.07120991,4.177865028,3.02554822,-1.024814725,36,23,-70,-1,17,-2.287659645,9.102754593,-11.15219116,-4.365721226,2.466110229,1.046931148,-43,18,-28,40,171
1695160376849010400,-2.656366825,-1.929726601,-9.885659218,4.055292606,3.014889717,-1.073577404,40,25,-69,4,16,-2.300827742,9.066842079,-10.9989624,-4.365721226,2.483963251,1.099024534,-39,20,-27,44,173
1695160376850010400,-2.728192806,-2.205059767,-9.692925453,3.942712069,2.995571136,-1.121140838,42,20,-69,-2,18,-2.318784237,8.997409821,-10.84214211,-4.365721226,2.497552872,1.152983069,-42,24,-30,37,172
1695160376851010400,-2.786850691,-2.479195833,-9.506177902,3.839990854,2.967992306,-1.168304801,40,28,-70,1,21,-2.33793807,8.899248123,-10.69370174,-4.365721226,2.506612539,1.210139275,-42,23,-26,40,173
1695160376852010400,-2.825158119,-2.748543501,-9.314641953,3.747528315,2.932019949,-1.212537527,44,22,-70,-1,18,-2.345120668,8.775946617,-10.53328991,-4.365721226,2.511142492,1.270759583,-43,21,-25,33,173
1695160376885987600,-1.082179189,-5.303156853,-5.207388878,2.031909704,2.528862,-1.617960215,52,26,-74,-2,18,-2.618059635,6.06451273,-5.883750439,-4.365721226,2.059621811,2.900310755,-42,21,-28,31,170
1695160376886987600,-1.027112484,-5.443217754,-5.036203384,1.954902053,2.507544994,-1.629551291,48,22,-75,-1,20,-2.535459518,5.961562157,-5.584475517,-4.365721226,2.038970947,2.975186825,-43,23,-27,31,170
1695160376887987600,-0.978031397,-5.573701382,-4.855441093,1.884156227,2.483829975,-1.640476227,50,24,-77,-4,15,-2.437297344,5.869385242,-5.287594318,-4.365721226,2.02311635,3.046065807,-43,19,-33,28,169
1695160376888987600,-0.921767652,-5.692214489,-4.662707806,1.812211275,2.45638442,-1.649802446,53,19,-84,-2,16,-2.345120668,5.779603004,-4.996698856,-4.365721226,2.01165843,3.113347769,-38,20,-32,30,171
1695160376889987600,-0.847547412,-5.7963624,-4.46279192,1.7353369,2.426140785,-1.655797839,53,19,-82,-2,16,-2.266111851,5.706579685,-4.711789131,-4.365721226,2.004463911,3.176499128,-42,21,-30,31,170
1695160376917969700,0.666785181,-6.665457726,-2.069787264,-0.067947932,1.784898877,-1.267162323,57,22,-88,-2,14,-1.624465823,5.175066948,-0.393846184,-1.274756551,2.305566788,3.224995375,-45,23,-34,18,173
1695160376918969700,0.719457626,-6.7612257,-1.996764183,-0.162941799,1.738268018,-1.239050508,56,22,-85,-6,16,-1.593341231,5.194220543,-0.158017308,-1.103954077,2.313294172,3.1860919,-44,21,-34,16,174
1695160376919969700,0.768538773,-6.87016201,-1.916558504,-0.251007646,1.690571189,-1.210539103,58,19,-87,-4,19,-1.550245643,5.240907669,0.063446343,-0.945009172,2.317957163,3.142658472,-44,21,-36,15,174
1695160376920969700,0.821211159,-6.987477779,-1.849520802,-0.331079632,1.642741203,-1.181894422,59,23,-88,-4,15,-1.498770237,5.254075527,0.292092621,-0.794324696,2.319822311,3.098026037,-44,21,-35,16,176
1695160376921969700,0.879869103,-7.10599041,-1.787271619,-0.403024495,1.594511509,-1.15258348,59,19,-87,-3,14,-1.464054346,5.267243862,0.529118598,-0.648569643,2.318490028,3.054992199,-44,21,-36,16,177
1695160376953948900,2.286462545,-7.159860134,-1.662773132,-0.94114548,1.006828427,-0.484029084,57,21,-93,-9,14,-0.027533319,5.960365295,4.316745758,1.058122516,1.848716736,2.322753429,-50,20,-41,-1,178
1695160376954948900,2.315192938,-7.113173485,-1.726219416,-0.94580853,0.994837642,-0.442594171,61,21,-91,-8,16,0.076614454,6.035782337,4.499902248,1.089964747,1.815542102,2.275323153,-51,23,-49,-1,181
1695160376955948900,2.347514868,-7.06169796,-1.798045516,-0.949272573,0.982180715,-0.401292503,62,21,-90,-5,14,0.172382519,6.121973515,4.665102005,1.113946438,1.781834602,2.22522831,-48,21,-49,-2,179
1695160376956948900,2.382230759,-7.007828236,-1.869871497,-0.951803982,0.969390512,-0.359724343,58,17,-93,-5,15,0.274136096,6.175843239,4.800374508,1.131399632,1.747860551,2.171535969,-47,23,-48,-3,178
1695160376957948900,2.420537949,-6.945579052,-1.946485996,-0.955001533,0.958065867,-0.316557437,62,20,-91,-7,14,0.40940848,6.190208435,4.926070213,1.152450204,1.713487029,2.118376732,-50,23,-49,-4,178
1695160376989930900,3.459621429,-13.86242771,2.244564056,-1.528029084,-0.636179149,0.082470134,72,19,-89,-8,3,1.505952835,6.416460514,4.874594688,1.737335324,0.779935658,1.080638647,-55,19,-57,-5,171
1695160376990930900,4.084507942,-14.02403641,1.70946002,-1.472205162,-0.845618665,-0.000799387,80,17,-94,-10,4,1.59932673,6.470330238,4.79678297,1.774506807,0.729840755,1.035872936,-49,19,-65,-15,181
1695160376991930900,4.726154327,-13.60265732,1.283292055,-1.345235705,-1.006828427,-0.06461715,73,17,-88,-12,2,1.698686123,6.519411087,4.71657753,1.808214307,0.683609486,0.991240382,-53,24,-64,-15,174
1695160376992930900,5.42166996,-12.83292103,1.034295082,-1.183626413,-1.098358274,-0.11711026,74,22,-92,-9,8,1.794454217,6.562506676,4.629189014,1.837525249,0.641375184,0.947407365,-53,24,-57,-15,172
1695160376993930900,5.882553577,-12.22000504,0.903811157,-1.069980145,-1.119408846,-0.131632462,78,18,-88,-13,7,1.89740479,6.605602264,4.535815239,1.862705946,0.603271008,0.904240429,-53,20,-63,-16,169
1695160377023911800,3.883395195,-6.495469093,-2.804807186,-0.254871368,0.241281778,0.366252691,64,19,-89,-9,7,1.798045516,9.06205368,10.18972206,2.653433323,-1.084235907,0.369450212,-12,-37,-66,-17,161
1695160377024911800,3.79241538,-6.50384903,-2.926911592,-0.191852987,0.246877491,0.341604888,64,11,-91,-8,5,2.970007181,9.467870712,10.3309803,2.587084055,-1.29127717,0.343869835,-13,-40,-66,-17,162
1695160377025911800,3.725377798,-6.50744009,-3.041833162,-0.131232768,0.250075042,0.318289429,66,21,-89,-10,9,4.046200752,9.647436142,10.36210537,2.491823912,-1.432235718,0.310428768,-12,-37,-61,-16,160
1695160377026911800,3.67988801,-6.519411087,-3.15795207,-0.075808577,0.251807034,0.296439528,64,19,-93,-10,5,4.995501995,9.763554573,10.21246719,2.389369011,-1.498851418,0.27272436,-11,-39,-61,-14,162
1695160377027911800,3.658340216,-6.537367821,-3.270479441,-0.027312404,0.25194028,0.276188374,64,17,-89,-8,3,5.786785603,9.829395294,9.832986832,2.279853106,-1.494321704,0.23475343,-12,-34,-66,-17,158
1695160377057892500,3.551798105,-6.919242859,-3.784035683,0.098857582,0.153215915,0.535856009,61,18,-93,-10,5,4.876988888,9.180566788,2.573766708,0.198780999,0.370116383,-0.245012254,-31,-18,-66,-18,160
1695160377058892500,3.505111217,-6.919242859,-3.715801001,0.048229709,0.136162326,0.564367533,60,18,-95,-4,4,4.802768707,9.059659004,2.425326347,0.129767224,0.381174594,-0.22702603,-33,-16,-66,-19,151
1695160377059892500,3.451241732,-6.925228596,-3.643975019,-0.008260337,0.119108729,0.593545139,62,11,-95,-8,7,4.723760128,8.878896713,2.23139596,0.035705972,0.391433388,-0.202777937,-36,-11,-61,-17,158
1695160377060892500,3.398569345,-6.932411194,-3.563769341,-0.069946401,0.102321595,0.623122513,62,19,-94,-10,5,4.637568474,8.730456352,2.056619167,-0.050761104,0.398094952,-0.182260334,-35,-12,-64,-14,160
1695160377061892500,3.34230566,-6.940790653,-3.490746021,-0.134963244,0.085667685,0.651633978,62,20,-93,-6,5,4.587290287,8.546102524,1.877054095,-0.129500762,0.398494661,-0.166672289,-38,-17,-65,-14,161
1695160377092869300,2.458845139,-7.424419403,-1.675941229,-0.591679931,-0.493222058,0.976318538,58,29,-90,-8,7,4.206612587,7.074865818,1.863885999,0.856410444,0.478966326,-0.399160802,-45,-9,-63,-1,162
1695160377093869300,2.477998734,-7.362170219,-1.595735431,-0.579289377,-0.511607945,1.007228136,56,26,-88,-8,5,4.033032894,7.011419773,1.880645394,0.959131658,0.456317008,-0.430869848,-44,-12,-62,-1,157
1695160377094869300,2.48996973,-7.2915411,-1.521515131,-0.5662328,-0.526396632,1.039603353,61,29,-92,-5,8,3.854664803,6.949170589,1.899798989,1.0658499,0.4264732,-0.460313946,-45,-13,-63,0,159
1695160377095869300,2.49116683,-7.216124058,-1.465251446,-0.551843762,-0.538520634,1.073044419,57,29,-86,-6,5,3.676296711,6.904877663,1.9321208,1.173634052,0.390634,-0.487493098,-47,-9,-65,-1,158
1695160377096869300,2.473210335,-7.13831234,-1.416170359,-0.534124076,-0.549712121,1.106751919,60,30,-89,-3,5,3.49433732,6.886921406,1.974019289,1.279819369,0.348799407,-0.512407362,-44,-9,-64,-1,157
1695160377127875000,1.437718153,-5.040991783,-1.522712231,-0.660960138,-0.947407365,2.171669245,54,35,-75,4,13,1.895010591,6.125565052,2.721010208,2.334477663,-0.695200622,-1.048130155,-46,-9,-61,10,158
1695160377128875000,1.345541358,-4.914099216,-1.632845521,-0.749292493,-0.96872437,2.264398336,53,32,-80,0,7,1.841141105,6.027402878,2.699462414,2.368718147,-0.719848394,-1.08809948,-48,-13,-60,14,157
1695160377129875000,1.244984865,-4.803965569,-1.738190413,-0.843753397,-0.991773367,2.358992338,50,35,-75,4,10,1.763329506,5.9436059,2.671929121,2.399494648,-0.74223125,-1.129534483,-46,-13,-59,14,158
1695160377130875000,1.142034173,-4.721365929,-1.832761407,-0.946341515,-1.016820788,2.455851555,54,32,-75,7,13,1.713051319,5.882553577,2.645592928,2.418147087,-0.756753445,-1.158045888,-45,-9,-60,14,158
1695160377131875000,1.023521185,-4.660313606,-1.950077295,-1.052127123,-1.04146862,2.557640314,53,34,-74,6,13,1.641225219,5.774814606,2.596511841,2.447057962,-0.7770046,-1.201346159,-50,-13,-59,16,154
1695160377162853200,-2.029085875,-5.600037575,-3.916913986,-1.588649392,-1.617294073,4.175733566,48,34,-15,38,15,-0.942118347,4.985925198,1.441309452,2.298638582,-1.253439546,-1.643673897,-43,-6,-57,31,160
1695160377163853200,-2.126051188,-5.656301498,-3.983951569,-1.493921876,-1.643007636,4.198116302,46,38,-13,32,24,-1.104924083,5.12957716,1.419761658,2.192852974,-1.327782512,-1.626220584,-40,-4,-60,36,156
1695160377164853200,-2.26970315,-5.730521679,-4.104858875,-1.337242007,-1.684709072,4.226894379,48,37,-16,34,23,-1.260547161,5.300762653,1.404199243,2.068148613,-1.410918713,-1.606102586,-42,-6,-60,32,156
1695160377165853200,-2.424129248,-5.791574001,-4.254496574,-1.163774848,-1.731606364,4.249277115,45,37,-9,33,25,-1.41257906,5.505466938,1.394622445,1.919728875,-1.503647804,-1.583186746,-39,-7,-59,36,156
1695160377166853200,-2.589329243,-5.83466959,-4.443638325,-0.97232157,-1.784898877,4.266197681,45,35,-11,36,25,-1.553836942,5.723339081,1.381454349,1.747594118,-1.603837609,-1.559205174,-38,-7,-57,40,158
1695160377203808600,-5.27682066,-5.088875771,-8.895656586,2.954535961,-3.661860704,3.938981771,41,45,14,40,27,-3.154360771,10.77390766,-1.326387763,-4.365721226,-3.149986029,-1.98261404,-14,-3,-31,49,164
1695160377204808600,-5.195417881,-5.019443989,-8.831012726,3.080705881,-3.726344585,3.913800955,41,46,15,39,27,-3.250128746,10.96424675,-1.78128612,-4.365721226,-3.145856142,-2.111315489,-12,-3,-31,48,167
1695160377205808600,-5.105635166,-4.953603268,-8.735244751,3.19648385,-3.778704405,3.888753414,40,43,18,43,31,-3.353079557,11.14500904,-2.23019886,-4.365721226,-3.136796236,-2.25280714,-12,-4,-28,46,167
1695160377206808600,-5.045780182,-4.914099216,-8.655038834,3.267762661,-3.806549788,3.872232676,40,46,16,38,25,-3.436876535,11.30542088,-2.668337822,-4.365721226,-3.12227416,-2.407222033,-12,-2,-29,49,168
1695160377207808600,-4.959589005,-4.855441093,-8.511386871,3.365687609,-3.838258743,3.847851515,38,47,17,41,27,-3.475183725,11.39759731,-2.93529129,-4.365721226,-3.106819153,-2.516072035,-12,-3,-24,48,167
1695160377237810300,-6.771999359,-5.471948147,-6.033388138,3.660261869,-2.917897463,3.806949377,31,41,19,35,27,-0.651222885,7.062894821,-2.671929121,-4.365721226,0.031975497,-4.365721226,-12,-2,-8,48,167
1695160377238810300,-7.022193432,-5.554547787,-5.983109951,3.588450193,-2.834095001,3.859975576,36,41,19,38,28,-0.603338838,6.770802498,-2.486378431,-4.365721226,0.221297085,-4.365721226,-13,-2,-7,48,168
1695160377239810300,-7.269993305,-5.621585369,-5.931634903,3.504781008,-2.748960018,3.918463945,34,41,21,33,29,-0.574608386,6.380547523,-2.202665567,-4.365721226,0.50641191,-4.365721226,-14,-2,-12,46,167
1695160377240810300,-7.509413719,-5.674258232,-5.865794182,3.409520864,-2.663026094,3.980816126,31,38,23,33,27,-0.606930137,6.052541733,-1.927332401,-4.365721226,0.791393518,-4.365721226,-13,-3,-9,46,168
1695160377241810300,-7.73446846,-5.698200226,-5.791574001,3.303201914,-2.576025963,4.045433044,31,41,21,39,28,-0.689530075,5.774814606,-1.662773132,-4.365721226,1.073444128,-4.365721226,-16,-2,-13,44,167
1695160377273783800,-10.05684471,-5.213374138,-3.784035683,0.990973949,-1.092895865,4.237286568,30,37,10,30,25,-7.195773125,4.134786129,0.55904609,-1.365886688,4.365588188,-3.466010571,-28,-2,-18,42,168
1695160377274783800,-10.13704967,-5.23851347,-3.703830004,0.920361459,-1.036405802,4.17346859,25,38,9,32,28,-7.633912086,4.141968727,0.672770679,-1.157779455,4.365588188,-3.395797729,-29,-2,-17,33,168
1695160377275783800,-10.18972206,-5.254075527,-3.657143116,0.878926516,-1.000033736,4.128436565,30,37,8,34,26,-8.094796181,4.186261654,0.757764816,-0.958865225,4.365588188,-3.337309361,-27,-2,-17,41,168
1695160377276783800,-10.26513958,-5.298368454,-3.586514235,0.822969377,-0.947407365,4.057424068,28,38,10,30,27,-8.571242332,4.252102375,0.841561913,-0.763947904,4.365588188,-3.288546562,-29,-2,-21,42,170
1695160377277783800,-10.33936024,-5.358223438,-3.518279314,0.775938749,-0.898245037,3.983614206,28,37,9,30,28,-9.063250542,4.333505154,0.915782154,-0.580355287,4.365588188,-3.252174616,-30,-2,-19,38,168
1695160377315741200,-12.00452709,-5.64313364,-3.072957993,0.860407352,-0.495753467,2.687140942,25,38,6,30,26,-15.08706188,6.787561893,1.752555609,1.554808617,3.644540548,-4.116579056,-35,-5,-28,40,168
1695160377316741200,-12.05839729,-5.57489872,-3.074155092,0.850681484,-0.498418063,2.641176224,29,38,6,29,26,-15.16367626,6.87614727,1.725022316,1.588515997,3.480532885,-4.17027092,-38,1,-20,40,165
1695160377317741200,-12.09550667,-5.506663799,-3.072957993,0.834826946,-0.50174886,2.596543789,28,34,6,32,27,-15.22353172,6.971915245,1.690306425,1.613430381,3.31226182,-4.217168331,-43,-2,-24,36,167
1695160377318741200,-12.11106968,-5.458779812,-3.071760893,0.820970893,-0.504146993,2.567499161,24,38,5,29,24,-15.26662731,7.068880558,1.654393315,1.628219008,3.14026022,-4.255805492,-42,-2,-20,36,169
1695160377319741200,-12.1182518,-5.388150692,-3.062183857,0.79525727,-0.508010745,2.524732113,24,32,7,30,28,-15.2953577,7.169436932,1.618480325,1.633814692,2.966393709,-4.285516262,-36,0,-21,38,167
1695160377353723000,-11.08275986,-4.666299343,-2.467224836,-0.26339817,-0.43220216,1.708024502,22,36,7,31,25,-13.6206131,8.937555313,1.642422318,0.512940288,0.336275637,-3.450822353,-41,-2,-24,31,170
1695160377354723000,-11.00015926,-4.662707806,-2.432508945,-0.320021451,-0.41608116,1.65539813,27,33,7,29,25,-13.44823074,8.941145897,1.684320927,0.432468593,0.281117916,-3.357693672,-41,-1,-18,33,167
1695160377355723000,-10.9199543,-4.657919407,-2.402581453,-0.373713642,-0.399027556,1.601839185,24,33,5,32,22,-13.28063679,8.926780701,1.71065712,0.355061263,0.234353751,-3.262300253,-40,-4,-23,34,156
1695160377356723000,-10.83735371,-4.655525208,-2.365471363,-0.423808575,-0.380641639,1.547480822,22,35,7,29,21,-13.10585976,8.898050308,1.731007814,0.281251162,0.195183769,-3.164774895,-40,-2,-12,36,167
1695160377357723000,-10.75595093,-4.653131008,-2.327163935,-0.470705956,-0.361056656,1.492189884,27,36,7,27,25,-12.928689,8.853757858,1.74657011,0.212104142,0.163474724,-3.065117836,-39,-2,-20,36,168
1695160377389698900,-9.750386238,-4.680664539,-1.847126603,-0.620857537,0.001598775,0.490024507,28,36,7,31,25,-10.46505547,6.358999729,1.495178938,0.295240432,0.330280244,-0.963661551,-38,-2,-19,31,168
1695160377390698900,-9.721655846,-4.680664539,-1.835155606,-0.591280222,0.01185758,0.446324646,17,35,5,29,24,-10.41118622,6.277596951,1.48560214,0.342537522,0.345601827,-0.889585018,-42,-2,-21,36,167
1695160377391698900,-9.710882187,-4.674678802,-1.826775908,-0.571162283,0.017719755,0.417413473,26,35,8,30,24,-10.3357687,6.157886982,1.474828243,0.41608116,0.367451757,-0.779802442,-41,-2,-17,36,168
1695160377392698900,-9.696516991,-4.669890404,-1.817199111,-0.539852977,0.025180703,0.374912739,23,33,10,30,24,-10.26513958,6.050147533,1.460463047,0.491889745,0.387836158,-0.671485424,-40,-1,-21,37,169
1695160377393698900,-9.673771858,-4.668693542,-1.810016513,-0.506012261,0.030776417,0.334676892,22,33,8,29,24,-10.198102,5.946000099,1.446097851,0.569430292,0.406355262,-0.564634025,-38,-2,-17,36,167
1695160377482719300,-9.446322441,-3.8642416,-1.790862918,0.236085743,-0.071411945,-0.184125587,26,33,13,30,25,-9.331400871,5.081693172,1.109712481,1.764248013,0.323485464,1.044532895,-41,-2,-21,34,164
1695160377483719300,-9.436745644,-3.806780815,-1.777694821,0.264330775,-0.078606427,-0.202245027,20,33,10,29,20,-9.317035675,5.072116375,1.085770488,1.797822356,0.295373648,1.1016891,-39,-1,-17,37,167
1695160377484719300,-9.421183586,-3.752911091,-1.771709204,0.29031086,-0.084735066,-0.219565079,22,33,8,31,23,-9.308655739,5.070919037,1.064222693,1.826866746,0.265396625,1.155381322,-41,-1,-20,40,164
1695160377485719300,-9.411606789,-3.696647406,-1.759738207,0.314026028,-0.090064317,-0.235686064,24,37,8,33,20,-9.300276756,5.070919037,1.036689281,1.851647854,0.233287901,1.205476284,-39,-1,-17,40,164
1695160377486719300,-9.40681839,-3.655946016,-1.751358509,0.328947932,-0.092995405,-0.245811626,20,37,13,31,21,-9.29189682,5.066130638,1.006761789,1.873098016,0.199180692,1.252240419,-41,1,-17,40,166
1695160377516684800,-9.223662376,-2.732981205,-1.52390933,0.355860651,-0.016920367,-0.388635516,21,35,15,31,25,-9.142259598,5.221754074,0.74339962,1.676981568,-0.556640089,1.528295636,-42,-1,-9,46,167
1695160377517684800,-9.217676163,-2.695871115,-1.510741234,0.339872897,-0.006528331,-0.389834613,21,35,19,30,20,-9.126696587,5.221754074,0.729034424,1.639143944,-0.592612505,1.51777029,-42,-2,-9,42,166
1695160377518684800,-9.20929718,-2.664746523,-1.496376038,0.322686076,0.003863706,-0.390634,21,35,16,30,24,-9.10634613,5.222950935,0.713472128,1.599174619,-0.627252638,1.505246639,-38,-2,-9,48,165
1695160377519684800,-9.199720383,-2.633621931,-1.48560214,0.304699838,0.014655436,-0.391033709,18,37,15,31,20,-9.082404137,5.216965675,0.693121374,1.557339907,-0.660693705,1.49125731,-41,-2,-7,44,167
1695160377520684800,-9.190143585,-2.604891539,-1.476025343,0.285781026,0.02571363,-0.391166925,20,34,15,30,23,-9.058462143,5.20379734,0.675164878,1.514439583,-0.69240278,1.475802422,-38,-2,-6,45,164
1695160377751170100,-9.058462143,-2.41574955,-1.285686255,-0.063018374,0.233687595,-0.34906584,22,36,17,31,29,-8.468291283,4.75847578,0.585382342,0.680678427,-0.85547775,1.096759558,-35,-2,3,51,165
1695160377752170100,-9.057265282,-2.422932148,-1.271321058,-0.075675346,0.24461256,-0.344935685,24,39,21,30,24,-8.440757751,4.728548527,0.586579442,0.644705951,-0.839756489,1.075708985,-39,-2,-2,50,162
1695160377753170100,-9.058462143,-2.430114746,-1.249773264,-0.087133229,0.25553751,-0.340672255,25,32,14,32,24,-8.413225174,4.697423935,0.582988143,0.61033231,-0.822036743,1.054924965,-39,-2,-2,48,167
1695160377754170100,-9.060855865,-2.436100245,-1.22822547,-0.09739203,0.266196012,-0.336142421,22,34,16,22,27,-8.388085365,4.667496204,0.584185243,0.577823877,-0.802585006,1.034140825,-41,-2,-2,49,165
1695160377755170100,-9.063250542,-2.444479942,-1.205480576,-0.106451757,0.276987731,-0.331612557,21,33,15,30,27,-8.364143372,4.641160011,0.579396784,0.547180712,-0.781268001,1.013356805,-39,-2,-2,52,162
1695160377853113100,-9.162610054,-2.436100245,-1.282094955,-0.248476252,0.355460972,-0.237018377,19,33,14,30,24,-8.239645004,4.201824188,0.611718535,0.307098001,-0.209572732,0.659894347,-37,-1,-2,50,165
1695160377854113100,-9.159018517,-2.437297344,-1.289277673,-0.261000007,0.351064324,-0.23528637,21,32,16,29,23,-8.246828079,4.197035789,0.620098233,0.303633988,-0.179995403,0.644572735,-37,-1,0,52,168
1695160377855113100,-9.157821655,-2.437297344,-1.294066072,-0.273656964,0.346267998,-0.233820826,25,33,15,30,21,-8.261193275,4.195838451,0.629675031,0.300036758,-0.151217461,0.629384398,-39,-1,-2,49,167
1695160377856113100,-9.151836395,-2.445677042,-1.30124867,-0.285914242,0.341471672,-0.233021438,22,32,16,31,23,-8.271966934,4.19464159,0.638054729,0.297505349,-0.132698312,0.619525254,-38,-1,-1,52,166
1695160377857113100,-9.147047997,-2.455253839,-1.302445769,-0.297905058,0.336808592,-0.232754961,19,37,16,28,24,-8.285135269,4.192247391,0.656011283,0.292842269,-0.105519146,0.605136335,-37,1,-1,50,167
1695160377937086200,-9.056067467,-2.853888512,-1.118092179,-0.224627867,0.288712084,-0.255137831,20,35,10,28,27,-8.615534782,4.30956316,0.995987892,0.002398162,0.137361407,0.377444088,-38,-2,-2,48,165
1695160377938086200,-9.054870605,-2.85867691,-1.11450088,-0.20464319,0.285781026,-0.25766921,26,32,13,29,25,-8.622717857,4.303577423,1.011550188,-0.020117918,0.136029094,0.365320057,-38,-2,-1,49,167
1695160377939086200,-9.054870605,-2.86107111,-1.112106681,-0.183592647,0.282183766,-0.260600299,24,33,13,30,24,-8.635885239,4.296394825,1.028309584,-0.042900458,0.134030625,0.353196025,-41,-2,0,48,165
1695160377940086200,-9.059659004,-2.86107111,-1.113303781,-0.161609486,0.278186828,-0.263931066,25,35,16,31,26,-8.645462036,4.286818027,1.045069098,-0.065549769,0.131099537,0.341471672,-39,-2,-2,48,167
1695160377941086200,-9.066842079,-2.85867691,-1.109712481,-0.139359877,0.273257256,-0.267395109,25,33,18,32,26,-8.65144825,4.280832767,1.053448796,-0.08833231,0.127502292,0.329747319,-40,-2,-2,48,166
1695160378021018100,-9.070432663,-2.497152328,-0.999579191,0.19838132,0.096725874,-0.317623258,21,33,16,27,28,-8.562862396,3.907337189,1.108515382,-0.41394946,0.028111791,0.21610108,-39,-3,3,46,165
1695160378022018100,-9.059659004,-2.460042238,-0.992396593,0.20624195,0.087799385,-0.316690654,25,32,19,28,24,-8.56046772,3.873818398,1.101332784,-0.418479323,0.024514547,0.214768767,-39,-1,-2,46,165
1695160378023018100,-9.056067467,-2.430114746,-0.982819796,0.210238889,0.08233691,-0.315491587,26,34,16,30,23,-8.556877136,3.839102507,1.094150186,-0.42074427,0.021050537,0.213436455,-39,-2,-2,49,165
1695160378024018100,-9.051279068,-2.398990154,-0.980425596,0.212637067,0.077540584,-0.314026028,22,34,15,30,25,-8.553285599,3.806780815,1.085770488,-0.420877486,0.017852986,0.212104142,-39,-2,1,47,165
1695160378025018100,-9.044096947,-2.375048161,-0.974440098,0.213569671,0.073410407,-0.312027574,20,36,17,30,24,-8.5484972,3.773261786,1.074996591,-0.418479323,0.01505513,0.211038291,-42,-2,-2,41,165
1695160378104967000,-8.895656586,-2.102109194,-0.933738649,0.051294025,0.104986221,-0.228358343,20,37,20,34,23,-8.538920403,3.485957623,0.974440098,-0.042633995,-0.000532925,0.191719756,-42,-3,-3,46,166
1695160378105967000,-8.893261909,-2.097320795,-0.939724147,0.039036751,0.108849928,-0.22236295,20,34,15,31,25,-8.538920403,3.501519918,0.980425596,-0.018385911,0.000932619,0.189588055,-35,-1,-2,50,167
1695160378106967000,-8.889671326,-2.096123695,-0.942118347,0.02691271,0.112713635,-0.21610108,20,35,20,31,25,-8.538920403,3.520673513,0.991199493,0.004396631,0.002398162,0.187056661,-41,-2,3,49,165
1695160378107967000,-8.893261909,-2.098517895,-0.945709646,0.015188362,0.116444103,-0.209839195,20,32,19,28,24,-8.538920403,3.542221308,1.009155989,0.026113322,0.004396631,0.184525266,-37,-2,-1,49,166
1695160378108967000,-8.893261909,-2.102109194,-0.956483603,0.003597243,0.119774885,-0.20357734,20,35,17,32,21,-8.537723541,3.568557739,1.023521185,0.046098009,0.0063951,0.181594178,-39,-3,-2,47,166
1695160378182924400,-8.942343712,-2.246958256,-1.118092179,-0.11298009,0.092329249,-0.123505361,20,34,16,30,25,-8.506598473,3.955221176,1.067813993,0.096725874,-0.001598775,0.111514546,-42,-2,1,44,165
1695160378183924400,-8.945934296,-2.254140854,-1.127668977,-0.113246553,0.08753293,-0.120707504,23,33,17,29,20,-8.501810074,3.963600874,1.071405292,0.086600304,-0.005196018,0.107384384,-42,-1,2,48,151
1695160378184924400,-8.942343712,-2.258929253,-1.136048675,-0.11298009,0.082736596,-0.11817611,20,33,15,31,20,-8.503006935,3.971980572,1.070208192,0.075941809,-0.009059724,0.102987751,-39,-2,-2,46,165
1695160378185924400,-8.943540573,-2.266111851,-1.137245774,-0.112180702,0.077807046,-0.115511484,21,35,19,29,23,-8.501810074,3.98036027,1.061828494,0.065016843,-0.012656967,0.098724343,-33,-2,-1,48,166
1695160378186924400,-8.943540573,-2.272097349,-1.140837073,-0.111381322,0.07474272,-0.113779478,21,33,12,29,24,-8.503006935,3.982754469,1.059434295,0.053958651,-0.016653905,0.094327718,-42,-2,-2,46,165
1695160378225895100,-8.916007042,-2.316390038,-1.280897856,-0.085800916,0.009725881,-0.05249311,21,34,17,32,20,-8.47786808,3.852270603,0.85592711,-0.030509954,-0.059421133,-0.003330781,-39,-2,-2,46,167
1695160378226895100,-8.917203903,-2.322375536,-1.283292055,-0.084868304,0.007993874,-0.049295556,22,34,19,32,20,-8.475474358,3.852270603,0.848744512,-0.026113322,-0.059554365,-0.008926493,-39,-1,-2,47,167
1695160378227895100,-8.911218643,-2.327163935,-1.294066072,-0.084202148,0.006261868,-0.04623124,24,33,15,29,26,-8.474276543,3.852270603,0.837970614,-0.021183766,-0.059287902,-0.014522205,-41,-1,-2,47,165
1695160378228895100,-8.902838707,-2.331952572,-1.306037068,-0.083535992,0.004663093,-0.043033689,24,35,19,30,23,-8.475474358,3.852270603,0.829590917,-0.017719755,-0.059021436,-0.01825268,-39,-2,-9,48,165
1695160378229895100,-8.895656586,-2.333149672,-1.315613866,-0.082869835,0.00319755,-0.040235836,21,35,15,32,28,-8.47188282,3.853467703,0.822408259,-0.012124043,-0.058621746,-0.02358193,-35,0,0,49,167
1695160378268872400,-8.833407402,-2.432508945,-1.430535555,-0.090197548,0.003064318,0.010658499,20,32,17,31,23,-8.459911346,4.01747036,0.725443125,0.07194487,-0.067281775,-0.092062794,-41,-2,-1,46,166
1695160378269872400,-8.832210541,-2.437297344,-1.435323954,-0.09246248,0.0042634,0.012790199,20,32,17,32,24,-8.464699745,4.024652958,0.721851826,0.073277183,-0.068081163,-0.094061248,-39,-2,-3,47,166
1695160378270872400,-8.832210541,-2.443282843,-1.444900751,-0.094727404,0.005462481,0.014522205,20,34,11,32,25,-8.464699745,4.035427094,0.715866327,0.074076563,-0.069013782,-0.096192956,-39,-2,-3,45,167
1695160378271872400,-8.829815865,-2.450465441,-1.44729495,-0.097125575,0.006794794,0.01612098,23,32,16,31,25,-8.462306023,4.041412354,0.713472128,0.07474272,-0.069546707,-0.097525269,-39,-2,-2,49,167
1695160378272872400,-8.826224327,-2.456450939,-1.453280449,-0.099390499,0.007993874,0.017586524,25,34,16,32,23,-8.462306023,4.052186489,0.718260527,0.075408876,-0.070346095,-0.099656969,-39,-2,-2,48,166
1695160378304853500,-8.801085472,-2.606088638,-1.466448545,-0.129767224,0.025180703,0.040235836,26,33,16,30,24,-8.464699745,4.187458992,0.663193882,0.073676877,-0.056490045,-0.132032156,-39,-2,-2,49,166
1695160378305853500,-8.803479195,-2.610877037,-1.465251446,-0.130566612,0.024781011,0.041301683,21,35,19,30,24,-8.462306023,4.192247391,0.659602582,0.073277183,-0.054491576,-0.132565081,-39,0,-2,47,166
1695160378306853500,-8.808267593,-2.616862535,-1.465251446,-0.131099537,0.024248086,0.042500768,25,32,17,32,25,-8.457517624,4.199429989,0.660799682,0.07301072,-0.052359879,-0.132698312,-35,-7,-2,49,165
1695160378307853500,-8.809465408,-2.622848034,-1.464054346,-0.131499231,0.023448698,0.043300152,16,35,13,30,23,-8.453926086,4.205415249,0.656011283,0.07274425,-0.050494641,-0.132831544,-34,-2,-2,46,165
1695160378308853500,-8.808267593,-2.630030632,-1.462857246,-0.131632462,0.022382848,0.044499233,22,35,12,32,26,-8.452729225,4.209006786,0.653617084,0.072477795,-0.048362937,-0.132298619,-33,-2,-2,49,164
1695160378339838600,-8.808267593,-2.7509377,-1.490390539,-0.104719758,-0.000266462,0.055690661,24,32,14,30,25,-8.459911346,4.273650169,0.638054729,0.08233691,-0.024647778,-0.094594181,-39,-2,-4,47,164
1695160378340838600,-8.807070732,-2.759317398,-1.493981838,-0.102721281,0.0,0.056090351,17,32,13,32,23,-8.459911346,4.273650169,0.642843127,0.083669223,-0.024514547,-0.09246248,-38,-2,-3,49,164
1695160378341838600,-8.808267593,-2.764105797,-1.498770237,-0.100856051,0.000666156,0.056623276,17,32,17,30,23,-8.459911346,4.273650169,0.648828685,0.084735066,-0.023981623,-0.090464011,-30,-2,-8,48,164
1695160378342838600,-8.813055992,-2.764105797,-1.502361536,-0.099390499,0.001332312,0.057289433,24,32,16,30,23,-8.462306023,4.272452831,0.657208383,0.086200617,-0.023448698,-0.08833231,-39,-3,-2,48,164
1695160378343838600,-8.815450668,-2.761711597,-1.504755735,-0.098058186,0.0021317,0.057955589,19,36,17,26,23,-8.463502884,4.278438568,0.666785181,0.08726646,-0.023049004,-0.086333841,-38,-2,-2,45,165
1695160378380807300,-8.871714592,-2.828749418,-1.511938334,-0.085267991,0.025447167,0.063418068,24,34,16,30,19,-8.481459618,4.326322556,0.723048925,0.088598773,-0.009859112,-0.051693719,-39,-1,-2,46,165
1695160378381807300,-8.876502991,-2.835932016,-1.513135433,-0.084335379,0.026379786,0.063151613,16,33,15,29,24,-8.48385334,4.327519417,0.723048925,0.087666154,-0.009326187,-0.049562022,-39,-3,-18,43,166
1695160378382807300,-8.881291389,-2.843114614,-1.520318031,-0.08313629,0.027179174,0.062885143,23,33,15,28,27,-8.487444878,4.328716755,0.730231524,0.086999997,-0.008793262,-0.047430322,-38,-2,-3,47,167
1695160378383807300,-8.890868187,-2.847903013,-1.52510643,-0.081670754,0.027845331,0.062485453,20,33,17,30,20,-8.488641739,4.329913616,0.726640224,0.086467072,-0.008393568,-0.04516539,-38,-1,-2,47,165
1695160378384807300,-8.893261909,-2.853888512,-1.52630353,-0.080071971,0.028378254,0.061952524,21,38,16,30,28,-8.488641739,4.329913616,0.726640224,0.085800916,-0.007860643,-0.042900458,-35,-1,-3,47,166
1695160378432777400,-8.902838707,-2.874239206,-1.522712231,-0.046630934,0.03996937,0.018918836,18,32,13,29,23,-8.476671219,4.302380562,0.786495268,0.086866774,-0.003064318,0.002797856,-43,-2,-2,48,164
1695160378433777400,-8.904036522,-2.883816004,-1.521515131,-0.046630934,0.040369064,0.016254211,20,32,15,29,22,-8.473079681,4.303577423,0.788889468,0.086866774,-0.002398162,0.004796324,-38,-2,-3,49,166
1695160378434777400,-8.908824921,-2.888604403,-1.52630353,-0.047030624,0.040901989,0.01385605,19,34,15,30,21,-8.470685959,4.302380562,0.788889468,0.086733535,-0.001865237,0.006794794,-35,-2,-2,48,166
1695160378435777400,-8.917203903,-2.8969841,-1.533486247,-0.048096478,0.041434918,0.011724349,24,33,15,28,21,-8.469488144,4.303577423,0.793677866,0.086467072,-0.001332312,0.008660031,-36,-2,-2,47,167
1695160378436777400,-8.924386978,-2.904166698,-1.538274646,-0.049428791,0.041834611,0.009859112,25,33,13,30,21,-8.474276543,4.305971622,0.799663365,0.086067379,-0.00106585,0.010525269,-39,-2,-2,46,165
1695160378495740700,-9.266757965,-3.738545895,-1.754949808,-0.084868304,0.096725874,-0.044099543,24,32,11,30,27,-8.43956089,4.783615112,0.81642276,0.159744263,0.049029093,0.024514547,-38,-2,-1,48,166
1695160378496740700,-9.284713745,-3.811569214,-1.78128612,-0.084735066,0.103254206,-0.055024505,19,33,12,31,23,-8.444349289,4.855441093,0.811634362,0.174799383,0.058754977,0.030376723,-31,-2,-2,50,162
1695160378497740700,-9.299078941,-3.860650301,-1.799242616,-0.084601834,0.107517615,-0.063551299,20,33,10,30,26,-8.456320763,4.935647011,0.808043063,0.190387443,0.068747319,0.03757121,-39,-2,-2,48,165
1695160378498740700,-9.319430351,-3.931279182,-1.831564307,-0.084468603,0.114312403,-0.07794027,26,31,16,30,21,-8.463502884,5.01465559,0.814028561,0.208640128,0.078872897,0.047030624,-27,7,-2,47,164
1695160378499740700,-9.337387085,-4.000710964,-1.856703401,-0.084335379,0.121373661,-0.094594181,23,34,15,30,23,-8.469488144,5.099649429,0.821211159,0.2290245,0.089131698,0.058754977,-37,-2,-2,46,167
1695160378546714200,-9.28591156,-4.945223808,-2.215833664,-0.209306285,0.382107198,-0.90064317,20,33,17,34,23,-8.696937561,7.564480305,1.024718285,0.7131868,0.132964775,0.720514536,-35,-2,-2,45,165
1695160378547714200,-9.293093681,-5.000290394,-2.238578558,-0.223562017,0.398094952,-0.958598793,22,32,10,30,20,-8.708909035,7.702147007,1.028309584,0.72717613,0.121640123,0.777404308,-37,-2,-2,48,167
1695160378548714200,-9.302670479,-5.051765442,-2.263717651,-0.238084227,0.413150072,-1.016687512,24,35,13,36,21,-8.720879555,7.836222172,1.024718285,0.739433408,0.108183771,0.835493088,-41,-2,-3,48,166
1695160378549714200,-9.312247276,-5.103240967,-2.280477047,-0.25300613,0.429537535,-1.074776411,25,34,12,34,24,-8.725667953,7.960720539,1.027112484,0.750358343,0.093794793,0.894914269,-39,-2,-7,46,167
1695160378550714200,-9.326612473,-5.148730755,-2.30561614,-0.270059735,0.445791721,-1.130600333,26,34,13,32,23,-8.726864815,8.074444771,1.023521185,0.759551287,0.078339972,0.955401242,-37,-2,-3,46,167
1695160378590688800,-8.998606682,-5.401319027,-2.701856613,-0.652566612,0.801652372,-2.071079731,21,34,15,31,27,-8.596381187,8.797493935,0.344765037,0.956600308,-0.156413481,2.078274012,-34,-2,-2,48,164
1695160378591688800,-8.967482567,-5.407304764,-2.71502471,-0.682810128,0.830430329,-2.113580465,24,34,17,31,27,-8.590395927,8.801085472,0.290895492,0.983246505,-0.15841195,2.129301786,-39,-2,-4,47,167
1695160378592688800,-8.936357498,-5.416881561,-2.731784105,-0.715185285,0.860407352,-2.155281782,26,34,19,32,25,-8.585607529,8.796297073,0.237025961,1.012957096,-0.159078106,2.180062771,-39,-2,-8,47,167
1695160378593688800,-8.895656586,-5.430049419,-2.742558002,-0.749958694,0.891849875,-2.196050406,21,33,21,32,23,-8.579621315,8.786720276,0.175973818,1.046398163,-0.158678412,2.231090307,-39,-2,-2,48,165
1695160378594688800,-8.857349396,-5.445611954,-2.756923199,-0.787663102,0.925024509,-2.235486984,20,35,18,32,27,-8.572439194,8.771158218,0.110133275,1.083303213,-0.15681316,2.283050537,-43,-2,-2,47,165
1695160378633662300,-7.686584473,-5.142745018,-4.583699226,-2.359791517,1.833395004,-3.070580482,22,32,13,30,28,-7.795520782,7.481880188,-1.873462796,2.966127157,0.096992344,3.482398033,-50,-2,-4,47,162
1695160378634662300,-7.630321026,-5.143942356,-4.745307922,-2.505413532,1.880026102,-3.111482382,18,33,12,30,25,-7.741651058,7.453149796,-1.951274395,3.082437992,0.113246553,3.530361414,-47,-2,-3,46,167
1695160378635662300,-7.569268703,-5.143942356,-4.899733543,-2.659162283,1.925058126,-3.15131855,18,32,8,28,25,-7.667430878,7.431602001,-2.067393064,3.259902,0.139493108,3.601773262,-47,-2,-3,48,164
1695160378636662300,-7.502231121,-5.118803024,-5.040991783,-2.819839001,1.969690681,-3.189156055,20,32,12,30,25,-7.594407558,7.437587738,-2.176329374,3.439497471,0.1672052,3.672385931,-49,-2,-3,48,166
1695160378637662300,-7.422025204,-5.084087372,-5.178658485,-2.987843752,2.016188383,-3.227526665,18,34,13,26,24,-7.520187378,7.461529732,-2.286462545,3.619359732,0.196249619,3.741399527,-51,-2,-5,47,166
1695160378678638400,-4.302380562,-3.930082083,-9.038111687,-4.365721226,3.565534353,-4.365721226,0,33,-24,20,17,-5.698200226,8.601169586,-3.907337189,4.365588188,0.888119459,4.365588188,-60,-5,-21,40,167
1695160378679638400,-4.121618271,-3.943250179,-9.2212677,-4.365721226,3.646805525,-4.365721226,1,32,-21,14,19,-5.586869717,8.604761124,-3.94205308,4.365588188,0.941012263,4.365588188,-59,-5,-23,38,165
1695160378680638400,-3.948038578,-3.97796607,-9.398438454,-4.365721226,3.719549656,-4.365721226,1,32,-23,18,23,-5.475539207,8.588001251,-3.98036027,4.365588188,0.993505359,4.365588188,-60,-4,-21,34,168
1695160378681638400,-3.774458885,-4.025850296,-9.58039856,-4.365721226,3.783367634,-4.365721226,5,32,-23,19,18,-5.366602898,8.568847656,-4.0090909,4.365588188,1.045199156,4.365588188,-62,-2,-25,38,165
1695160378682638400,-3.661931515,-4.064157486,-9.698910713,-4.365721226,3.820672274,-4.365721226,6,32,-29,18,15,-5.295974255,8.552088737,-4.021061897,4.365588188,1.078906655,4.365588188,-60,-3,-24,30,167
1695160378744598600,-1.289277673,-4.973954201,-10.13585281,-4.365721226,3.368752003,-4.365721226,-4,30,-48,12,14,-3.655946016,6.593631268,-3.531447411,4.365588188,1.499784112,4.180263042,-67,-5,-34,31,165
1695160378745598600,-1.277306557,-5.100846767,-10.0412817,-4.365721226,3.288813353,-4.365721226,-2,31,-50,13,12,-3.592499733,6.42723465,-3.508702517,4.365588188,1.478999972,4.134165287,-67,-4,-37,31,166
1695160378746598600,-1.26653266,-5.289988518,-9.885659218,-4.365721226,3.161577225,-4.365721226,-2,31,-50,13,14,-3.524264812,6.295553207,-3.479972124,4.365588188,1.452620149,4.090332508,-69,-8,-35,31,166
1695160378747598600,-1.261744261,-5.470750809,-9.722852707,-4.365721226,3.027280092,-4.365721226,-1,31,-52,13,13,-3.439270735,6.177040577,-3.442862034,4.365588188,1.422509909,4.046099663,-67,-7,-35,31,165
1695160378748598600,-1.261744261,-5.64313364,-9.540893555,-4.365721226,2.885122538,-4.365721226,-3,25,-52,13,11,-3.349488258,6.054935932,-3.400963545,4.365588188,1.389468551,4.001333714,-63,-4,-36,31,162
1695160378782600900,-1.640028119,-4.068945885,-6.196194172,-3.551278591,0.528794825,-3.911402702,-7,27,-53,13,13,-2.175132275,4.548983097,-2.785653591,4.365588188,0.247143939,3.096427202,-76,-8,-41,27,162
1695160378783600900,-1.665167332,-3.695450306,-6.193799973,-3.32332015,0.488825411,-3.731407404,-4,30,-53,13,11,-2.144007683,4.475960255,-2.807201385,4.315226555,0.166938737,3.042335272,-67,-7,-39,32,160
1695160378784600900,-1.691503525,-3.309983969,-6.206967831,-3.112148523,0.456450224,-3.550879002,-8,30,-53,14,12,-2.120065689,4.411316395,-2.834734917,4.189723015,0.087399691,2.987177372,-70,-7,-36,31,157
1695160378785600900,-1.731007814,-2.914940596,-6.235698223,-2.916431904,0.43220216,-3.372215986,-8,30,-53,13,10,-2.097320795,4.343081951,-2.874239206,4.059422493,0.008793262,2.930421114,-74,-9,-37,33,162
1695160378786600900,-1.763329506,-2.651578426,-6.264428616,-2.794525146,0.419545174,-3.254439592,-6,25,-51,13,10,-2.079364061,4.27724123,-2.940079689,3.925658464,-0.069147013,2.872598648,-73,-7,-37,33,162
1695160378864771800,-2.630030632,3.087323189,-9.465476036,-0.651767194,-0.025313934,-1.228525281,-16,25,-49,13,7,-1.575384736,1.752555609,-6.710947514,1.511508346,-1.202944875,1.719349146,-71,-6,-34,34,162
1695160378865771800,-2.621650934,3.317166567,-9.659406662,-0.571029067,-0.059954058,-1.18948853,-7,29,-53,13,9,-1.56221664,1.655590534,-6.928819656,1.455284715,-1.233055115,1.685241938,-67,-8,-35,37,162
1695160378866771800,-2.608482838,3.538630009,-9.852140427,-0.49348852,-0.094061248,-1.153249502,-6,23,-53,13,10,-1.534683347,1.511938334,-7.261613846,1.37441349,-1.277287841,1.635280252,-73,-11,-35,35,168
1695160378867771800,-2.594117641,3.750516891,-10.0364933,-0.418479323,-0.126569673,-1.119009137,-7,28,-53,14,7,-1.497573137,1.370680451,-7.592013359,1.298871279,-1.317390561,1.586650729,-69,-7,-36,36,164
1695160378868771800,-2.574964046,3.956418276,-10.21965027,-0.344535977,-0.156413481,-1.085834622,-7,31,-53,14,11,-1.453280449,1.22583127,-7.931990147,1.228658557,-1.35509491,1.540286303,-66,-7,-35,38,162
1695160378916037300,-1.519120932,5.615600109,-11.7399683,0.938347638,0.058488514,0.004796324,-2,29,-53,13,9,-0.9648633,0.052672438,-13.54998493,-0.423808575,-1.58838284,0.844286382,-59,-9,-34,40,167
1695160378917037300,-1.480813742,5.628767967,-11.80221748,1.029344559,0.086467072,0.082736596,-6,30,-51,13,11,-0.950498104,0.062249243,-13.7582798,-0.549978554,-1.554542065,0.813776374,-57,-10,-31,41,166
1695160378918037300,-1.452083349,5.633556366,-11.85728359,1.125271082,0.112180702,0.159477785,-1,31,-51,14,13,-0.934935749,0.081402861,-13.95340729,-0.678813219,-1.513773322,0.782600284,-55,-6,-31,42,168
1695160378919037300,-1.423352957,5.632359505,-11.91474438,1.226660013,0.135229707,0.234620214,-7,31,-51,13,13,-0.918176353,0.10175357,-14.13536644,-0.808580399,-1.466209888,0.751024485,-56,-5,-34,40,172
1695160378920037300,-1.397016644,5.628767967,-11.97340298,1.332712054,0.155214384,0.307630926,-6,31,-53,11,11,-0.900219858,0.1316811,-14.29936981,-0.939413488,-1.411851406,0.718915761,-57,-8,-29,42,168
1695160378964658500,-0.529118598,4.593276024,-12.64258194,3.986678362,0.548779488,1.194551349,9,26,-53,13,14,-0.687135875,2.889801502,-15.13734055,-3.804684639,0.29031086,0.19838132,-44,-9,-27,42,166
1695160378965658500,-0.505176544,4.523844242,-12.67969227,4.15055275,0.602338433,1.185624838,6,27,-51,13,15,-0.640448928,3.08253479,-15.07149982,-3.993606329,0.392499238,0.192519143,-44,-8,-29,41,165
1695160378966658500,-0.488417149,4.444835663,-12.7072258,4.308831692,0.661892772,1.168571234,8,31,-53,10,16,-0.598550439,3.295618534,-14.99129391,-4.185059547,0.499350697,0.192252681,-44,-11,-28,41,166
1695160378967658500,-0.471657723,4.350264549,-12.73356152,4.365588188,0.727309346,1.142990828,8,29,-52,13,14,-0.562637389,3.517082214,-14.91348267,-4.365721226,0.610732019,0.196116373,-42,-13,-28,40,166
1695160378968658500,-0.458489627,4.240131378,-12.77067184,4.365588188,0.798188388,1.110082746,8,27,-53,13,16,-0.536301196,3.744531393,-14.84644508,-4.365721226,0.725977063,0.20411025,-43,-8,-28,40,166
1695160379112681300,-0.162805721,-0.326808542,-13.07952404,4.365588188,2.460914135,0.259134769,27,29,-53,13,20,-0.799663365,7.697358608,-12.86045456,-4.365721226,2.705393553,1.042001486,-34,-7,-27,39,163
1695160379113681300,-0.144849196,-0.501585245,-13.06156731,4.365588188,2.535124063,0.21503523,31,26,-61,13,23,-0.835576415,7.778761387,-12.67370701,-4.365721226,2.774540663,1.132865191,-35,-8,-24,37,167
1695160379114681300,-0.160411507,-0.63206923,-13.01727486,4.365588188,2.603871346,0.16773814,30,27,-60,10,20,-0.882263303,7.850587368,-12.48935318,-4.365721226,2.834095001,1.228125572,-33,-5,-25,36,167
1695160379115681300,-0.173579618,-0.735019922,-12.96579933,4.365588188,2.667555809,0.118442573,31,27,-53,13,23,-0.948103845,7.892486095,-12.31218243,-4.365721226,2.884056807,1.323385835,-34,-3,-24,35,163
1695160379116681300,-0.198718742,-0.774524271,-12.92629528,4.365588188,2.707525253,0.083669223,31,26,-53,11,23,-0.986411095,7.885303497,-12.19486618,-4.365721226,2.912967682,1.387470126,-33,-7,-29,36,164
1695160379183639800,-1.215057373,-1.674744129,-9.070432663,4.148287773,3.264298677,-1.298205137,36,29,-63,4,19,-1.170764685,4.691438198,-6.500257492,-4.365721226,2.960931063,3.404591084,-34,-5,-32,31,164
1695160379184639800,-1.183932781,-1.916558504,-8.817844391,3.929255724,3.256171465,-1.338441014,37,27,-61,6,17,-1.119289279,4.624400616,-6.141127586,-4.365721226,2.954802513,3.47027421,-35,-9,-33,31,165
1695160379185639800,-1.140837073,-2.166752577,-8.567650795,3.715153217,3.241516113,-1.370949507,40,25,-59,10,18,-1.080982089,4.600458622,-5.781997204,-4.365721226,2.948673725,3.52436614,-35,-8,-31,31,166
1695160379186639800,-1.097741485,-2.418143749,-8.316259384,3.508244991,3.221131563,-1.395996928,37,27,-61,8,17,-1.039083481,4.583699226,-5.450400352,-4.365721226,2.943477631,3.566999912,-33,-12,-33,31,162
1695160379187639800,-1.053448796,-2.655169725,-8.06127739,3.310663223,3.196084023,-1.413450241,37,27,-53,4,18,-0.995987892,4.580107689,-5.130774021,-4.163209915,2.938947916,3.600307703,-34,-8,-33,31,164
1695160379265619900,-0.174776718,-4.894945145,-3.761290789,1.255304813,2.151551247,-1.30420053,50,26,-61,3,15,-0.106541976,5.659893036,0.04189853,-0.503081143,2.678214312,2.814643383,-37,-10,-38,26,167
1695160379266619900,-0.044292733,-4.876988888,-3.585317135,1.162176013,2.104653835,-1.296739578,49,27,-66,-1,16,0.011971008,5.674258232,0.271741897,-0.419811636,2.65210104,2.751091957,-35,-7,-37,25,167
1695160379267619900,0.090979666,-4.86741209,-3.42131424,1.063052058,2.061486959,-1.288745761,51,30,-65,2,15,0.090979666,5.68144083,0.412999779,-0.366252691,2.635580301,2.708990812,-35,-11,-34,28,164
1695160379268619900,0.232237563,-4.86741209,-3.266888142,0.956733584,2.022183657,-1.280218959,46,32,-63,4,17,0.207098454,5.694608688,0.615309834,-0.290843785,2.60946703,2.645838976,-34,-11,-37,24,167
1695160379269619900,0.328005642,-4.86980629,-3.167528868,0.8830567,1.997935653,-1.274356842,50,26,-65,4,15,0.338779539,5.688623428,0.841561913,-0.220364481,2.582421303,2.583087206,-33,-8,-37,22,166
1695160379360538000,2.571372509,-6.80551815,-1.272518158,-0.618059695,1.582121015,-0.598341525,56,20,-70,-2,13,1.697489023,5.579687119,3.843890905,0.817506909,2.076275587,1.566266418,-38,-9,-49,10,167
1695160379361538000,2.604891539,-6.852205276,-1.244984865,-0.618725896,1.557606459,-0.574892759,56,28,-68,3,12,1.697489023,5.625176907,3.946841478,0.843087316,2.01165843,1.525097966,-38,-15,-47,13,167
1695160379362538000,2.653972626,-6.901286602,-1.209071875,-0.616594136,1.518436432,-0.542384386,52,29,-70,-4,11,1.696291924,5.670666695,4.037821293,0.865070403,1.940646291,1.485794783,-41,-7,-54,4,167
1695160379363538000,2.711433411,-6.926425457,-1.170764685,-0.613263428,1.477534413,-0.513073504,57,25,-70,-2,11,1.702277422,5.71974802,4.12999773,0.883189917,1.864171505,1.447557449,-38,-8,-47,6,167
1695160379364538000,2.777273893,-6.938396454,-1.138442874,-0.610865235,1.436232805,-0.48669371,57,25,-70,-1,12,1.729810715,5.762843609,4.224568844,0.897845328,1.78516531,1.409986258,-38,-9,-48,4,168
1695160379406512400,3.834314108,-7.012616634,-1.657984734,-1.071179152,0.893581927,-0.028511487,68,17,-77,-8,4,3.052607059,6.252457619,3.852270603,1.179362893,0.701462448,0.502548277,-39,-35,-57,-36,170
1695160379407512400,3.560178041,-7.302315235,-1.132457376,-1.049995422,0.775938749,-0.037437979,70,9,-77,-6,1,3.005920172,6.173449039,3.734954596,1.221996903,0.693202138,0.44872281,-35,-34,-55,-35,171
1695160379408512400,3.313575268,-7.87931776,-0.193930343,-0.982047439,0.570496202,-0.064750381,73,8,-77,-6,3,2.770091295,6.17105484,3.593696833,1.24611187,0.687073529,0.408886671,-34,-34,-49,-33,180
1695160379409512400,3.295618534,-8.859743118,1.066616893,-0.895846844,0.292975485,-0.125370592,79,9,-76,-8,3,2.276885748,6.290764809,3.702632904,1.250641584,0.652966261,0.389967829,-33,-34,-59,-32,183
1695160379410512400,3.622427225,-9.992200851,2.11647439,-0.831762671,-0.009059724,-0.212104142,78,10,-79,-15,5,1.589749932,6.576871872,4.125209332,1.201879025,0.569963276,0.375845343,-29,-35,-57,-30,182
1695160379461480500,5.810727596,-6.526593685,-2.981978178,-0.397428781,-0.213569671,0.1672052,64,17,-76,-6,1,7.151480675,5.893327713,4.53102684,0.609399676,-0.598741174,-0.143490046,5,-28,-49,-18,160
1695160379462480500,5.564124584,-6.442796707,-3.130418777,-0.309096456,-0.151350692,0.195849925,64,17,-73,-8,3,7.020996571,5.883750439,4.23294878,0.673617184,-0.497352213,-0.184658498,5,-34,-55,-18,155
1695160379463480500,5.413290024,-6.368576527,-3.223792553,-0.246611029,-0.115777947,0.209839195,64,8,-75,-8,-1,6.901286602,5.942408562,4.04979229,0.698797822,-0.428205222,-0.210905045,7,-32,-55,-20,156
1695160379464480500,5.212177277,-6.230909824,-3.349488258,-0.150684536,-0.071278714,0.224228173,63,9,-73,-6,1,6.685808182,6.054935932,3.772064686,0.709722817,-0.328015327,-0.25087443,9,-34,-48,-16,158
1695160379465480500,5.035006046,-6.069301128,-3.450044632,-0.054091886,-0.036638591,0.231822357,63,7,-75,-5,2,6.443994045,6.120776653,3.500322819,0.700796306,-0.237551302,-0.288312376,-3,-34,-47,-20,160
1695160379507454300,4.641160011,-4.6842556,-2.785653591,0.520800948,0.093928024,0.473104149,63,17,-73,-9,1,4.850652695,5.475539207,1.904587507,0.45658344,0.252073497,-0.313359886,-12,-28,-56,-23,150
1695160379508454300,4.648342609,-4.679467201,-2.652775526,0.547447205,0.099390499,0.506278694,61,10,-75,-3,0,4.854243755,5.522226334,1.989581585,0.419944882,0.272857577,-0.327615619,-12,-33,-49,-22,148
1695160379509454300,4.65193367,-4.667496204,-2.522291422,0.576358318,0.105785601,0.539986193,62,5,-77,-6,-2,4.854243755,5.562927723,2.078166962,0.379442573,0.291643173,-0.344003052,-12,-29,-57,-22,150
1695160379510454300,4.648342609,-4.656722069,-2.389413357,0.607134759,0.113379791,0.574093461,63,6,-74,-6,3,4.849455357,5.596446514,2.165555477,0.335875928,0.307764143,-0.363454819,-12,-33,-60,-26,149
1695160379511454300,4.638765812,-4.641160011,-2.298433542,0.628584981,0.118709028,0.59674269,62,6,-73,-6,3,4.8291049,5.61320591,2.249352455,0.290044397,0.321087271,-0.386503845,-12,-34,-49,-28,151
1695160379557426500,3.077746391,-5.220556736,0.159214407,1.369483948,0.228491575,1.281950951,58,9,-73,0,4,3.266888142,4.558559895,3.554192305,-0.303101093,0.326016843,-1.465410352,-17,-18,-43,11,149
1695160379558426500,2.986766577,-5.294776917,0.263362199,1.435033679,0.230756521,1.336842299,58,9,-73,-1,7,3.214215755,4.471171856,3.653551817,-0.305366009,0.34906584,-1.549212813,-15,-19,-41,-6,146
1695160379559426500,2.8969841,-5.361814499,0.354341865,1.49951756,0.235952526,1.392666101,57,17,-71,-1,7,3.143586874,4.387374401,3.750516891,-0.303234309,0.375978559,-1.634214401,-15,-19,-41,10,150
1695160379560426500,2.801215887,-5.431246758,0.433350503,1.563601732,0.243946403,1.448356867,56,3,-72,2,5,3.074155092,4.321534157,3.846285105,-0.298970878,0.407287896,-1.722946405,-17,-18,-41,13,150
1695160379561426500,2.697068214,-5.505466938,0.499191046,1.627952576,0.253139347,1.505113363,57,5,-70,0,7,2.999934673,4.243722439,3.928884983,-0.294574291,0.443260312,-1.816874385,-15,-20,-44,15,151
1695160379601401400,0.901416957,-6.497863293,0.839167714,2.50048399,0.19784838,2.880326033,51,21,-51,8,10,-1.44968915,4.849455357,2.651578426,0.062218986,1.461679935,-3.748194456,-19,-11,-33,31,153
1695160379602401400,0.846350312,-6.594828606,0.775721371,2.527663231,0.212637067,2.989975452,52,19,-53,6,4,-1.975216389,5.225345135,2.345120668,0.010125575,1.419445634,-3.889686108,-22,-7,-32,32,152
1695160379603401400,0.776918471,-6.679822922,0.694318473,2.548313856,0.229823887,3.101490021,52,21,-52,8,5,-2.345120668,5.519832134,2.106897593,-0.045032158,1.368817806,-3.994938612,-20,-13,-33,32,152
1695160379604401400,0.700303972,-6.7612257,0.575805485,2.563768625,0.247543648,3.214203835,48,21,-49,11,7,-2.591723442,5.726930618,1.953668594,-0.089797854,1.326183796,-4.065817833,-21,-7,-33,33,152
1695160379605401400,0.602141738,-6.84023428,0.440533102,2.577624798,0.26339817,3.327849865,49,21,-47,9,7,-2.928108692,6.042964935,1.744175911,-0.169603363,1.24970901,-4.172935486,-22,-12,-34,31,153
1695160379738321900,-2.442085743,-8.643068314,-2.261323452,2.782268047,-0.033041347,4.365588188,46,21,-38,12,12,-4.378994942,10.14902115,-0.010773907,-1.74892652,-0.964993894,-4.365721226,-16,-5,-34,31,162
1695160379739321900,-2.578555346,-8.722076416,-2.343923569,2.770410299,-0.059687596,4.365588188,46,23,-38,13,9,-4.322731018,10.34175396,-0.026336219,-1.740932584,-1.021217465,-4.365721226,-19,-5,-34,29,167
1695160379740321900,-2.729389906,-8.799888611,-2.410961151,2.755887985,-0.089531392,4.365588188,46,22,-39,12,9,-4.242525578,10.50096893,-0.021547815,-1.725877523,-1.064517617,-4.365721226,-15,-10,-34,29,162
1695160379741321900,-2.835932016,-8.853757858,-2.45405674,2.745895863,-0.111248083,4.365588188,44,22,-39,12,5,-4.138377666,10.61948204,0.004788403,-1.705493093,-1.093162298,-4.365721226,-20,-5,-35,30,164
1695160379742321900,-2.996343374,-8.938752174,-2.510320425,2.731240511,-0.146421134,4.365588188,42,18,-38,13,9,-4.012681961,10.69489861,0.056263741,-1.680179119,-1.10528636,-4.365721226,-19,-5,-34,30,165
1695160379784295400,-4.334702015,-9.662998199,-1.714248419,2.68367672,-0.572894335,4.365588188,34,22,-38,13,6,-2.133233786,9.002198219,2.001552582,-1.464877486,0.737701356,-4.365721226,-28,-5,-34,29,162
1695160379785295400,-4.393360138,-9.512163162,-1.622071624,2.687407255,-0.537854493,4.365588188,34,21,-32,11,7,-2.220622063,8.850166321,2.014720678,-1.492589474,0.852147043,-4.365721226,-22,-7,-34,30,164
1695160379786295400,-4.469974518,-9.379284859,-1.547851443,2.687540531,-0.494287878,4.365588188,34,21,-38,13,3,-2.391807556,8.761581421,2.025494576,-1.515771866,0.963794768,-4.365721226,-26,-7,-34,27,164
1695160379787295400,-4.599261284,-9.300276756,-1.514332533,2.68940568,-0.446990818,4.365588188,33,23,-38,13,1,-2.649184227,8.74601841,2.011129379,-1.55041194,1.066915751,-4.365721226,-26,-5,-34,28,162
1695160379788295400,-4.765658379,-9.249998093,-1.480813742,2.69007206,-0.400626332,4.365588188,33,21,-39,13,4,-2.953247786,8.735244751,1.947683096,-1.592379808,1.160444021,-4.355462551,-25,-5,-34,26,164
1695160379818279600,-7.614758492,-7.927201748,-0.506373644,1.871499181,0.491223574,4.365588188,31,21,-29,13,8,-8.352172852,7.637503624,1.478419542,-1.697765708,1.558805585,-3.052993774,-32,-4,-33,28,162
1695160379819279600,-7.808688641,-7.781155586,-0.514753342,1.802885056,0.536655426,4.365588188,31,11,-31,13,9,-8.485051155,7.526173115,1.555034041,-1.65286684,1.549879074,-3.050062656,-30,-5,-34,24,164
1695160379820279600,-8.010998726,-7.633912086,-0.529118598,1.730940342,0.581021428,4.365588188,31,21,-30,11,9,-8.603564262,7.418434143,1.63643682,-1.603571177,1.541618705,-3.050062656,-33,-4,-34,27,165
1695160379821279600,-8.215703011,-7.477091789,-0.541089594,1.655264854,0.624454796,4.365588188,29,20,-27,13,9,-8.678980827,7.356184959,1.693897724,-1.569064379,1.536023021,-3.051928043,-33,-5,-31,26,163
1695160379822279600,-8.425195694,-7.320271492,-0.562637389,1.575992227,0.667355299,4.365588188,28,19,-29,13,8,-8.783128738,7.262810707,1.78248322,-1.516438007,1.528029084,-3.056857586,-29,-5,-34,28,164
1695160379866728700,-11.55681133,-5.604825974,-1.138442874,-0.281650841,1.103687525,4.365588188,26,10,-23,13,7,-10.1837368,4.914099216,2.292448044,0.144689128,1.436365962,-3.146122456,-30,-4,-29,29,164
1695160379867728700,-11.62504673,-5.561730385,-1.159990668,-0.376111776,1.106618643,4.365588188,24,21,-27,12,7,-10.27591324,4.781220913,2.218227863,0.275388956,1.421977043,-3.12800312,-33,-9,-34,29,161
1695160379868728700,-11.69328117,-5.522226334,-1.18752408,-0.466709018,1.107551336,4.365588188,25,17,-23,13,7,-10.36689377,4.648342609,2.136825085,0.4103522,1.404790163,-3.106286287,-34,-4,-33,28,165
1695160379869728700,-11.76271248,-5.489904404,-1.213860273,-0.552243471,1.106618643,4.365588188,21,18,-25,12,4,-10.46266174,4.535815239,2.055422068,0.549712121,1.38480556,-3.081238985,-30,-5,-32,26,162
1695160379870728700,-11.82615948,-5.45997715,-1.241393566,-0.63471365,1.10422051,4.365588188,18,18,-25,13,4,-10.55124664,4.436455727,1.96923089,0.693202138,1.362022996,-3.05352664,-31,-7,-31,31,162
1695160379918696000,-12.20803452,-5.070919037,-1.838746905,-1.435833097,0.67268455,2.950139284,18,19,-21,13,4,-11.98417664,5.134365559,0.960074902,3.08283782,0.641641676,-2.310762644,-35,-4,-18,28,157
1695160379919696000,-12.19845772,-5.051765442,-1.865083098,-1.445159316,0.634846866,2.863405704,20,20,-15,15,8,-12.04283428,5.28041172,0.950498104,3.14558959,0.599540591,-2.271859169,-39,-2,-19,28,162
1695160379920696000,-12.18289566,-5.042188644,-1.887827992,-1.452087283,0.596209764,2.776938677,19,18,-19,13,7,-12.11585808,5.463568211,0.948103845,3.19715023,0.557039797,-2.234287977,-31,-9,-20,29,162
1695160379921696000,-12.16374207,-5.038597584,-1.915361404,-1.455950975,0.557439506,2.691271067,18,17,-21,7,4,-12.19965458,5.68742609,0.933738649,3.223796368,0.510808587,-2.202845335,-34,-7,-23,28,160
1695160379922696000,-12.13381386,-5.039794445,-1.934514999,-1.455684543,0.518669248,2.608268023,20,17,-16,13,5,-12.23317337,5.832275391,0.925358951,3.244180679,0.465509921,-2.174200535,-31,-3,-21,30,158
1695160380083641200,-11.48139381,-5.239710331,-1.837549806,-1.102488518,-0.100456357,1.373214364,21,19,-7,14,7,-12.09670448,8.081627846,0.581790984,2.229091883,-0.251807034,-1.831663013,-34,-5,-13,30,162
1695160380084641200,-11.42632771,-5.230133533,-1.82079041,-1.073177576,-0.115511484,1.327249527,21,19,-12,11,3,-12.01649857,8.119935036,0.562637389,2.125704288,-0.283516079,-1.81847322,-34,-3,-8,31,162
1695160380085641200,-11.36288166,-5.210979939,-1.802833915,-1.044532895,-0.128301695,1.282750368,20,19,-12,14,1,-11.93150425,8.147468567,0.537498295,2.019252777,-0.314159274,-1.803951025,-33,-5,-16,31,163
1695160380086641200,-11.30182934,-5.191826344,-1.786074519,-1.016954064,-0.138960183,1.239450216,18,21,-10,13,4,-11.8429184,8.166622162,0.514753342,1.911202073,-0.343603373,-1.787829995,-34,-3,-13,31,164
1695160380087641200,-11.23958015,-5.164293289,-1.774103403,-0.990973949,-0.147353753,1.197482347,20,18,-10,14,7,-11.74236202,8.167819023,0.495599747,1.802618623,-0.371182233,-1.769843817,-35,-4,-19,31,162
1695160380145605100,-10.18134308,-4.082113743,-1.695094824,-0.950738132,-0.086733535,0.404090345,24,22,-5,14,3,-9.720458984,6.649895191,0.234631762,0.216767237,-0.447124034,-0.987110257,-40,-2,-13,31,160
1695160380146605100,-10.12747288,-4.037821293,-1.673547029,-0.968191385,-0.079805516,0.359591126,10,20,-4,14,-1,-9.63666153,6.527791023,0.22146365,0.186257273,-0.430736601,-0.929421127,-33,-7,-12,31,161
1695160380147605100,-10.06642151,-3.995922565,-1.656787634,-0.986177683,-0.072211333,0.315358341,20,19,-5,14,7,-9.556455612,6.405686855,0.213083953,0.162275642,-0.413016826,-0.871199071,-34,-5,-17,31,160
1695160380148605100,-10.01015759,-3.954024076,-1.632845521,-1.004830003,-0.064350687,0.27165848,10,20,-6,13,5,-9.47744751,6.284779549,0.197521642,0.145088822,-0.394098014,-0.812977076,-34,-7,-12,33,160
1695160380149605100,-9.957485199,-3.914519787,-1.610100627,-1.023615599,-0.056090351,0.228225112,9,23,-6,15,4,-9.405621529,6.167463779,0.190339029,0.133630931,-0.37451303,-0.754754961,-38,-3,-9,31,162
1695160380180585600,-9.14465332,-3.459621429,-1.442506552,-1.230523705,0.113246553,-0.458981633,21,20,6,18,5,-8.702922821,4.838681698,0.247799873,0.637777925,-0.023182238,0.146421134,-33,-5,-6,34,158
1695160380181585600,-9.125499725,-3.439270735,-1.444900751,-1.230124116,0.120041348,-0.48775959,18,21,7,18,7,-8.68975544,4.825513363,0.262165099,0.674416542,-0.01185758,0.178263396,-39,-2,-8,36,154
1695160380182585600,-9.111134529,-3.41892004,-1.44729495,-1.229191422,0.126036748,-0.515871346,20,26,7,17,9,-8.677783966,4.814739704,0.274136096,0.709989309,-0.00106585,0.208373666,-33,-8,-7,36,156
1695160380183585600,-9.10634613,-3.398569345,-1.446097851,-1.228525281,0.131632462,-0.543450236,20,22,7,22,9,-8.664615631,4.807557106,0.284909993,0.744096458,0.008926493,0.237151608,-35,-8,-7,32,158
1695160380184585600,-9.091980934,-3.384204149,-1.459265947,-1.226660013,0.136828482,-0.570362926,17,26,7,13,7,-8.653841972,4.800374508,0.300472319,0.7770046,0.018119449,0.264197558,-37,-7,-8,32,157
1695160380218563700,-9.151836395,-3.283647537,-1.467645645,-1.007228136,0.170802444,-0.818839192,20,23,12,19,7,-8.682572365,4.942829609,0.415394008,1.033474684,0.016387442,0.548512995,-35,-5,-11,34,160
1695160380219563700,-9.169792175,-3.283647537,-1.461660147,-0.986577332,0.172001526,-0.819105625,18,25,17,20,8,-8.687360764,4.957194805,0.428562105,1.026147008,0.010658499,0.555441022,-35,-3,-8,36,158
1695160380220563700,-9.181763649,-3.284844637,-1.453280449,-0.964993894,0.173200607,-0.818039775,20,21,17,23,9,-8.688557625,4.971560001,0.441730201,1.016687512,0.005062787,0.561836123,-34,-4,-8,37,157
1695160380221563700,-9.190143585,-3.284844637,-1.44968915,-0.950205207,0.173866764,-0.816574275,17,22,12,22,11,-8.68975544,4.984727859,0.453701228,1.005229712,-0.000666156,0.567565084,-33,-5,-7,37,158
1695160380222563700,-9.205705643,-3.286041737,-1.444900751,-0.927289426,0.174932614,-0.813776374,16,23,19,20,7,-8.693346024,4.997896194,0.466869324,0.991240382,-0.0063951,0.572761118,-33,-7,-8,33,157
1695160380274904300,-9.289502144,-3.166331768,-1.355118155,-0.353995383,0.183992341,-0.644173086,16,26,25,16,8,-8.677783966,4.953603268,0.555454791,0.485761106,-0.067947932,0.625920355,-34,-5,-3,38,160
1695160380275904300,-9.29189682,-3.149572372,-1.357512355,-0.319754958,0.184258804,-0.632848382,17,25,22,19,10,-8.672995567,4.935647011,0.55665189,0.467508405,-0.067281775,0.628451765,-34,-13,-5,36,161
1695160380276904300,-9.295488358,-3.139995575,-1.353921056,-0.285781026,0.18385911,-0.620990813,20,21,24,24,11,-8.667010307,4.914099216,0.561440289,0.441128641,-0.065416537,0.63258189,-35,-4,-5,36,156
1695160380277904300,-9.296685219,-3.125630379,-1.346738458,-0.251807034,0.183326185,-0.609133244,20,22,22,23,10,-8.661025047,4.891354084,0.561440289,0.415814698,-0.063151613,0.636978507,-35,-7,-7,40,160
1695160380278904300,-9.296685219,-3.113659382,-1.344344258,-0.217966303,0.182127118,-0.597275674,18,27,19,22,14,-8.655038834,4.866214752,0.565031588,0.391433388,-0.060220521,0.641908109,-33,-12,-2,40,160
1695160380477776400,-9.077615738,-2.557007313,-1.26413846,0.183326185,0.162275642,-0.423808575,16,26,26,23,9,-8.668207169,4.463989258,0.74220252,0.070479326,0.073676877,0.777271032,-35,-5,-3,37,156
1695160380478776400,-9.066842079,-2.52827692,-1.26294136,0.187589586,0.165073514,-0.420344561,21,25,23,18,8,-8.677783966,4.449624062,0.758961916,0.057289433,0.082736596,0.784332275,-39,-7,-5,38,161
1695160380479776400,-9.056067467,-2.497152328,-1.259350061,0.190520674,0.168404296,-0.417280257,21,24,19,18,9,-8.687360764,4.435258865,0.773327172,0.044232771,0.091796324,0.790993869,-35,-9,-6,38,156
1695160380480776400,-9.044096947,-2.469619036,-1.252167463,0.192252681,0.172001526,-0.41501531,17,21,24,23,9,-8.696937561,4.42209053,0.784101069,0.031176111,0.100589581,0.79778862,-34,-4,-7,36,157
1695160380481776400,-9.039308548,-2.448071241,-1.244984865,0.1931853,0.175998464,-0.413283318,8,22,21,27,8,-8.705317497,4.408922195,0.800860465,0.017986218,0.109382853,0.804316998,-35,-7,-11,37,157
1695160380560724800,-9.004592896,-2.252943754,-1.131260276,0.175465539,0.24261409,-0.410751909,20,26,24,22,7,-8.884882927,4.118026733,0.939724147,-0.214901984,0.208107188,0.878660023,-35,-6,-9,36,156
1695160380561724800,-9.005789757,-2.242169857,-1.130063176,0.17506586,0.244879022,-0.411151588,17,26,23,23,7,-8.896853447,4.102464676,0.944512546,-0.225294024,0.209439516,0.879725873,-33,-5,-6,37,158
1695160380562724800,-9.004592896,-2.233790159,-1.126471877,0.174666151,0.246477783,-0.41141808,17,21,21,22,11,-8.904036522,4.08809948,0.950498104,-0.235153139,0.210105672,0.880658507,-34,-5,-5,37,157
1695160380563724800,-9.008183479,-2.220622063,-1.121683478,0.174266458,0.248609498,-0.411684513,20,26,24,24,9,-8.912415504,4.072536945,0.955286503,-0.244879022,0.210238889,0.88092494,-35,-6,-8,37,160
1695160380564724800,-9.010578156,-2.209848166,-1.122880578,0.173866764,0.250474721,-0.412084222,20,23,24,20,11,-8.919598579,4.05338335,0.958877802,-0.254205197,0.210105672,0.881058156,-34,-8,-5,36,156
1695160380638678400,-9.021351814,-2.172738075,-1.113303781,0.228758052,0.195450217,-0.370116383,18,21,20,23,8,-8.933963776,3.739742994,1.00556469,-0.342537522,0.160676882,0.817906559,-35,-5,-8,34,155
1695160380639678400,-9.012971878,-2.173935175,-1.104924083,0.23635222,0.191852987,-0.364520669,19,26,25,23,7,-8.924386978,3.724180698,1.007958889,-0.342937201,0.157212853,0.811378241,-34,-5,-7,37,161
1695160380640678400,-9.003395081,-2.177526474,-1.101332784,0.244346097,0.188655436,-0.35839203,21,25,20,25,9,-8.917203903,3.709815502,1.010353088,-0.343203664,0.153748855,0.804849863,-39,-9,-8,36,156
1695160380641678400,-8.995016098,-2.178723574,-1.098938584,0.252606452,0.185724348,-0.351996928,17,27,22,26,11,-8.908824921,3.695450306,1.013944387,-0.342937201,0.150551304,0.798188388,-35,-5,-7,40,153
1695160380642678400,-8.990227699,-2.179920673,-1.096544385,0.258202136,0.183725879,-0.347200602,16,25,21,22,11,-8.900444984,3.682282209,1.016338587,-0.342537522,0.14748697,0.791260302,-34,-5,-7,39,158
1695160380692646500,-8.880094528,-2.220622063,-0.9648633,0.416480839,0.216234297,-0.160010725,17,28,24,22,8,-8.719682693,3.416525841,1.052251697,-0.286447167,0.086866774,0.634313881,-41,-5,-2,38,157
1695160380693646500,-8.878896713,-2.218227863,-0.958877802,0.42327565,0.221963242,-0.149218991,16,27,23,27,9,-8.710105896,3.402160645,1.052251697,-0.280451775,0.083003066,0.624588013,-33,-7,-5,36,160
1695160380694646500,-8.882488251,-2.214636564,-0.952892303,0.429803967,0.227692187,-0.138826951,18,25,19,22,6,-8.705317497,3.392583847,1.052251697,-0.274589568,0.079139359,0.614728928,-34,-5,-4,34,162
1695160380695646500,-8.878896713,-2.211045265,-0.942118347,0.436065853,0.233421117,-0.128834605,16,25,21,24,10,-8.696937561,3.38180995,1.055842996,-0.268327713,0.075275652,0.604869843,-35,-4,-5,41,158
1695160380696646500,-8.877699852,-2.202665567,-0.933738649,0.441794783,0.238750383,-0.11924196,17,23,19,24,9,-8.690952301,3.375824451,1.055842996,-0.264064312,0.072877489,0.598075032,-37,-6,-4,40,160
1695160380733624800,-8.991424561,-2.037465572,-0.937329948,0.441261858,0.200113311,-0.036105666,16,29,21,24,4,-8.518569946,3.266888142,1.019929886,-0.127901986,0.009992342,0.365852982,-35,-4,-4,40,157
1695160380734624800,-8.993818283,-2.031480074,-0.937329948,0.434067398,0.189454809,-0.033574272,18,21,22,23,11,-8.51019001,3.260902643,1.018732786,-0.121640123,0.006794794,0.351730466,-38,-9,-7,37,157
1695160380735624800,-8.996212959,-2.029085875,-0.936132848,0.426073521,0.178130165,-0.030509954,18,26,25,24,9,-8.503006935,3.256114244,1.024718285,-0.115378261,0.003730475,0.337341517,-35,-4,-2,38,158
1695160380736624800,-9.001001358,-2.025494576,-0.936132848,0.417280257,0.166405827,-0.027712099,16,26,23,22,13,-8.494627953,3.252522945,1.022324085,-0.109516084,0.000799387,0.322686076,-35,-5,-7,42,160
1695160380737624800,-9.002198219,-2.023100376,-0.934935749,0.411018372,0.15841195,-0.025580399,17,23,23,24,11,-8.487444878,3.252522945,1.021126986,-0.103787132,-0.002398162,0.307764143,-33,-5,-4,40,158
1695160380771609000,-8.925583839,-1.996764183,-0.9648633,0.12936753,-0.001332312,0.015987748,24,26,21,26,9,-8.366538048,3.341108561,0.92895025,-0.009059724,-0.074609496,0.003464012,-37,-3,-2,41,160
1695160380772609000,-8.919598579,-2.003946781,-0.9672575,0.109915771,-0.004529862,0.017320061,17,22,20,19,7,-8.361749649,3.351882458,0.925358951,-0.004796324,-0.07794027,-0.01292343,-39,-4,-4,44,158
1695160380773609000,-8.917203903,-2.011129379,-0.9672575,0.096992344,-0.006261868,0.018385911,18,25,21,22,11,-8.35696125,3.363853455,0.916979253,-0.00106585,-0.081271052,-0.02917764,-35,-7,-2,41,155
1695160380774609000,-8.912415504,-2.019509077,-0.975637197,0.077407345,-0.008660031,0.019984685,18,27,23,25,11,-8.353369713,3.379415751,0.908599555,0.002531394,-0.084068909,-0.045565084,-37,-5,-4,41,154
1695160380775609000,-8.910021782,-2.032677174,-0.988805294,0.057822358,-0.01079173,0.02158346,20,26,23,24,11,-8.353369713,3.388992548,0.903811157,0.004796324,-0.085800916,-0.056223582,-35,-8,-6,36,157
1695160380805582200,-8.860940933,-2.391807556,-1.140837073,-0.244346097,0.007460949,0.046630934,16,23,20,23,13,-8.32463932,3.7169981,0.793677866,0.034107197,-0.081404284,-0.316690654,-35,-3,-3,38,161
1695160380806582200,-8.858546257,-2.41694665,-1.142034173,-0.253805518,0.009859112,0.046098009,11,22,21,18,9,-8.325836182,3.732560396,0.782903969,0.035173047,-0.079139359,-0.327615619,-37,-8,-7,40,158
1695160380807582200,-8.856152534,-2.436100245,-1.150413871,-0.262465537,0.012257273,0.044898927,19,22,20,22,12,-8.325836182,3.752911091,0.774524271,0.036372125,-0.077007659,-0.338407338,-31,-4,-3,43,158
1695160380808582200,-8.856152534,-2.460042238,-1.156399369,-0.270192951,0.014122511,0.043833077,16,26,19,24,12,-8.331821442,3.773261786,0.766144514,0.038237367,-0.07500919,-0.34906584,-37,-6,-12,40,158
1695160380809582200,-8.857349396,-2.476801634,-1.161187768,-0.277120978,0.015588055,0.042500768,18,21,21,23,12,-8.336610794,3.791218281,0.758961916,0.040502299,-0.072877489,-0.359591126,-35,-7,-2,38,157
1695160380839587100,-8.920795441,-2.783259392,-1.248576164,-0.281917304,-0.017986218,0.023182238,16,26,21,24,13,-8.47188282,4.237737179,0.541089594,0.268460959,0.008393568,-0.523332298,-33,-5,-2,40,157
1695160380840587100,-8.921992302,-2.795230389,-1.247379065,-0.276055127,-0.021050537,0.023049004,17,28,19,20,9,-8.474276543,4.264073372,0.538695395,0.28777948,0.014388974,-0.523865223,-38,-4,-5,38,160
1695160380841587100,-8.925583839,-2.806004286,-1.247379065,-0.269793272,-0.02384839,0.022782542,17,25,19,24,8,-8.473079681,4.291606426,0.539892495,0.307098001,0.020384381,-0.522932589,-37,-3,-4,36,158
1695160380842587100,-8.924386978,-2.814383984,-1.247379065,-0.263131708,-0.026379786,0.022649311,17,20,19,24,9,-8.476671219,4.314351559,0.543483794,0.326016843,0.026246555,-0.520534456,-37,-8,-4,40,156
1695160380843587100,-8.919598579,-2.82156682,-1.248576164,-0.256203681,-0.028777948,0.022782542,17,20,21,23,11,-8.480262756,4.339490414,0.544680893,0.34440276,0.031709034,-0.516537488,-35,-5,-7,38,157
1695160381044687400,-8.866926193,-2.855085611,-1.295263171,-0.138160795,-0.030376723,0.037304748,16,28,25,26,13,-8.517372131,4.791994572,0.611718535,0.475768775,0.03650536,-0.27379021,-32,-5,-5,36,158
1695160381045687400,-8.864531517,-2.851494312,-1.296460271,-0.136295557,-0.029977029,0.037704438,17,23,21,26,9,-8.524555206,4.812345505,0.611718535,0.469640136,0.031042879,-0.258868307,-34,-7,-7,38,151
1695160381046687400,-8.864531517,-2.850297213,-1.302445769,-0.134963244,-0.029843798,0.037837673,19,25,21,20,11,-8.525752068,4.825513363,0.610521436,0.462445647,0.024914242,-0.244479313,-37,-7,-3,37,156
1695160381047687400,-8.866926193,-2.846705914,-1.29885447,-0.134030625,-0.029444104,0.037970904,20,27,24,28,13,-8.528146744,4.843470097,0.609324336,0.454318523,0.018785605,-0.230623275,-42,-2,-5,40,157
1695160381048687400,-8.866926193,-2.846705914,-1.296460271,-0.133764163,-0.029444104,0.037970904,18,27,23,25,11,-8.530540466,4.860229492,0.608127236,0.445258796,0.012257273,-0.217566609,-32,-5,-3,43,154
1695160381121649900,-8.815450668,-2.907757998,-1.322796464,-0.141358346,-0.044366002,0.014122511,19,26,25,26,14,-8.422801971,4.86741209,0.563834488,0.162808567,-0.091796324,-0.083003066,-35,-5,-4,38,157
1695160381122649900,-8.815450668,-2.906560898,-1.327584863,-0.139892802,-0.04516539,0.013056661,17,26,20,23,12,-8.413225174,4.856637955,0.554257691,0.147220522,-0.093128636,-0.079006128,-33,-7,-5,41,158
1695160381123649900,-8.815450668,-2.907757998,-1.333570361,-0.138027564,-0.045831546,0.011990812,17,27,23,26,13,-8.408436775,4.848258495,0.549469292,0.137094945,-0.093794793,-0.076474734,-34,-7,-4,41,161
1695160381124649900,-8.808267593,-2.910152197,-1.33955586,-0.135895863,-0.04623124,0.011058193,16,29,20,24,13,-8.400056839,4.8314991,0.537498295,0.122705974,-0.094460949,-0.072611026,-34,-4,-2,41,158
1695160381125649900,-8.805873871,-2.912546396,-1.344344258,-0.133630931,-0.046364475,0.010392036,21,29,21,27,13,-8.394071579,4.813542366,0.527921498,0.108983152,-0.094727404,-0.068880551,-35,-5,-5,40,160
1695160381198606000,-8.769960403,-2.923320293,-1.44849205,-0.081271052,-0.020251149,0.026646247,18,21,20,22,13,-8.347384453,4.50109911,0.426167905,0.024647778,-0.058621746,0.0021317,-35,-7,-4,40,154
1695160381199606000,-8.77235508,-2.926911592,-1.44849205,-0.080871366,-0.018119449,0.027179174,20,25,25,23,14,-8.35097599,4.491522312,0.424970806,0.026246555,-0.056356817,0.005862175,-31,-8,-3,35,158
1695160381200606000,-8.774748802,-2.929305792,-1.455674648,-0.080738127,-0.01612098,0.027445635,17,25,23,23,11,-8.354566574,4.484339714,0.424970806,0.028111791,-0.054225113,0.009459418,-41,-7,-6,40,154
1695160381201606000,-8.777143478,-2.93529129,-1.467645645,-0.080604896,-0.013323124,0.027712099,17,20,26,24,13,-8.35696125,4.481945515,0.426167905,0.029710567,-0.052093416,0.01292343,-39,-7,-5,40,154
1695160381202606000,-8.775946617,-2.941276789,-1.476025343,-0.080738127,-0.011324655,0.027445635,18,27,21,24,14,-8.36294651,4.479551315,0.430956304,0.031042879,-0.049828485,0.016254211,-39,-6,-4,40,160
1695160381262586600,-8.827422142,-3.01310277,-1.476025343,-0.07087902,0.01292343,0.000932619,16,28,23,24,13,-8.453926086,4.447229862,0.508767843,-0.016653905,-0.031575806,0.073143952,-35,-4,-7,40,161
