timestamp,EMG_s0,EMG_s1,EMG_s2,EMG_s3,EMG_s4,EMG_s5,EMG_s6,EMG_s7
1.6951607405043996e+18,-1.0,1.0,0.0,2.0,2.0,1.0,0.0,-1.0
1.6951607405043996e+18,-1.0,-1.0,1.0,-1.0,-2.0,0.0,-1.0,-1.0
1.6951607405163948e+18,-1.0,0.0,-1.0,0.0,-1.0,-1.0,-1.0,0.0
1.6951607405163948e+18,0.0,1.0,0.0,-2.0,-2.0,-1.0,0.0,-1.0
1.6951607405173947e+18,1.0,-2.0,0.0,-1.0,0.0,-1.0,0.0,0.0
1.6951607405173947e+18,-1.0,-2.0,-3.0,-1.0,-2.0,-1.0,-1.0,-1.0
1.6951607405183918e+18,-2.0,-2.0,1.0,-1.0,-2.0,-1.0,-1.0,-1.0
1.6951607405183918e+18,-2.0,0.0,-1.0,-2.0,0.0,0.0,0.0,-1.0
1.6951607405283876e+18,0.0,-1.0,-1.0,1.0,-2.0,0.0,1.0,0.0
1.6951607405283876e+18,2.0,-1.0,0.0,0.0,0.0,0.0,1.0,-1.0
1.6951607405383813e+18,-1.0,0.0,0.0,0.0,-1.0,-1.0,0.0,0.0
1.6951607405393892e+18,0.0,-2.0,-2.0,0.0,0.0,-1.0,-1.0,-2.0
1.6951607405403812e+18,-1.0,0.0,-2.0,-1.0,0.0,-1.0,-1.0,-1.0
1.6951607405403812e+18,-1.0,-1.0,-1.0,-1.0,-1.0,0.0,-1.0,-2.0
1.6951607405413783e+18,0.0,-1.0,-1.0,-1.0,-1.0,-2.0,0.0,-1.0
1.6951607405413783e+18,-2.0,-2.0,0.0,-1.0,-2.0,-1.0,-1.0,-2.0
1.6951607405553923e+18,-2.0,0.0,-1.0,-1.0,0.0,0.0,0.0,-1.0
1.6951607405553923e+18,-1.0,0.0,0.0,0.0,-1.0,-2.0,-1.0,-1.0
1.6951607405683625e+18,-2.0,-1.0,-1.0,0.0,-1.0,1.0,0.0,-3.0
1.6951607405683625e+18,0.0,0.0,-1.0,-1.0,0.0,0.0,-2.0,-1.0
1.6951607405693622e+18,-1.0,-2.0,1.0,-2.0,0.0,-1.0,-2.0,0.0
1.6951607405703636e+18,-2.0,0.0,-1.0,-2.0,-1.0,1.0,-1.0,0.0
1.6951607405903724e+18,-1.0,-1.0,-1.0,-1.0,0.0,-1.0,0.0,-1.0
1.6951607405903724e+18,-1.0,-1.0,0.0,-1.0,0.0,-2.0,0.0,0.0
1.695160740606343e+18,-2.0,1.0,-1.0,-2.0,0.0,-1.0,0.0,-1.0
1.6951607406073418e+18,-2.0,-1.0,-1.0,0.0,-1.0,-1.0,0.0,0.0
1.6951607406093612e+18,-2.0,0.0,-1.0,-2.0,-1.0,0.0,1.0,1.0
1.6951607406093612e+18,0.0,-1.0,-2.0,-1.0,-1.0,-1.0,-2.0,0.0
1.6951607406113385e+18,-2.0,-1.0,-1.0,-2.0,-3.0,-2.0,-3.0,-1.0
1.6951607406113385e+18,0.0,-1.0,-1.0,-1.0,0.0,-2.0,-2.0,0.0
1.6951607406203548e+18,0.0,0.0,-2.0,-1.0,0.0,0.0,-2.0,-1.0
1.6951607406203548e+18,-1.0,-1.0,-1.0,-2.0,-1.0,-3.0,-1.0,-1.0
1.6951607406283282e+18,-1.0,-2.0,1.0,-2.0,-1.0,0.0,1.0,-1.0
1.6951607406283282e+18,0.0,-1.0,1.0,-1.0,-2.0,-1.0,-2.0,1.0
1.695160740643322e+18,0.0,-1.0,-3.0,0.0,-2.0,-2.0,-1.0,-1.0
1.695160740643322e+18,0.0,-1.0,-2.0,-1.0,-1.0,0.0,0.0,0.0
1.6951607406443215e+18,0.0,0.0,-2.0,1.0,-1.0,-1.0,0.0,0.0
1.6951607406453187e+18,1.0,-2.0,-1.0,-1.0,0.0,0.0,0.0,0.0
1.6951607406902935e+18,-1.0,0.0,0.0,-1.0,0.0,1.0,-1.0,0.0
1.6951607406902935e+18,1.0,1.0,0.0,1.0,1.0,0.0,0.0,-2.0
1.6951607406902935e+18,-1.0,-3.0,0.0,-3.0,-2.0,-1.0,-1.0,1.0
1.695160740691293e+18,-1.0,-1.0,0.0,0.0,-2.0,0.0,0.0,-1.0
1.695160740691293e+18,0.0,-1.0,-2.0,0.0,0.0,-1.0,0.0,-2.0
1.695160740691293e+18,-2.0,-2.0,-2.0,-1.0,-1.0,-1.0,-2.0,0.0
1.6951607406942904e+18,1.0,-2.0,-2.0,0.0,-1.0,-2.0,0.0,-2.0
1.6951607406942904e+18,-1.0,-1.0,0.0,-1.0,0.0,-1.0,0.0,-2.0
1.695160740702286e+18,1.0,-1.0,-1.0,0.0,-1.0,-2.0,0.0,3.0
1.6951607407052874e+18,1.0,0.0,-2.0,-2.0,-2.0,0.0,1.0,-1.0
1.6951607407172787e+18,-1.0,0.0,-1.0,-1.0,-1.0,-1.0,0.0,-2.0
1.6951607407172787e+18,0.0,-1.0,-1.0,-1.0,0.0,0.0,-2.0,1.0
1.695160740718278e+18,-2.0,-1.0,-1.0,-1.0,-1.0,-1.0,1.0,-1.0
1.695160740718278e+18,-1.0,1.0,0.0,-2.0,-1.0,-2.0,-1.0,-1.0
1.695160740731271e+18,0.0,1.0,1.0,1.0,1.0,-1.0,-1.0,1.0
1.6951607407322714e+18,0.0,1.0,0.0,-2.0,-2.0,1.0,-1.0,1.0
1.695160740743266e+18,-2.0,0.0,0.0,-2.0,-1.0,0.0,-2.0,-1.0
1.695160740743266e+18,2.0,0.0,-1.0,0.0,-1.0,1.0,0.0,0.0
1.6951607407542566e+18,-1.0,0.0,-1.0,-2.0,0.0,0.0,-1.0,-1.0
1.6951607407542566e+18,1.0,0.0,1.0,-1.0,-1.0,-2.0,-2.0,-1.0
1.6951607407622513e+18,-1.0,-1.0,-1.0,-1.0,-3.0,0.0,-1.0,0.0
1.6951607407622513e+18,1.0,-2.0,0.0,-2.0,-2.0,-1.0,-1.0,-2.0
1.695160740777266e+18,1.0,0.0,-1.0,-1.0,-1.0,0.0,-2.0,-1.0
1.695160740777266e+18,-2.0,-2.0,-3.0,0.0,0.0,-2.0,0.0,0.0
1.6951607407782438e+18,1.0,1.0,0.0,-1.0,-1.0,-1.0,-2.0,1.0
1.6951607407782438e+18,0.0,-1.0,1.0,-1.0,0.0,0.0,-2.0,0.0
1.6951607408162227e+18,-1.0,-1.0,0.0,-1.0,-2.0,1.0,-1.0,-1.0
1.6951607408162227e+18,0.0,-2.0,-1.0,-1.0,-2.0,0.0,0.0,-1.0
1.6951607408172221e+18,-1.0,-2.0,-1.0,0.0,0.0,-1.0,-2.0,-4.0
1.6951607408172221e+18,-1.0,-4.0,-2.0,0.0,-1.0,-2.0,0.0,-1.0
1.6951607408182226e+18,0.0,1.0,-3.0,-2.0,-3.0,-1.0,0.0,0.0
1.6951607408182226e+18,1.0,-2.0,-3.0,-2.0,-3.0,-1.0,-1.0,-1.0
1.6951607408222193e+18,0.0,0.0,-1.0,-2.0,0.0,-2.0,-1.0,0.0
1.6951607408222193e+18,-1.0,-1.0,-1.0,-1.0,0.0,-1.0,-2.0,0.0
1.695160740845226e+18,0.0,-3.0,0.0,0.0,0.0,-2.0,0.0,0.0
1.6951607408462047e+18,-1.0,0.0,-2.0,0.0,-1.0,-2.0,0.0,-1.0
1.6951607408462047e+18,-1.0,0.0,-1.0,-1.0,0.0,1.0,0.0,-2.0
1.6951607408462047e+18,-2.0,-1.0,-1.0,-1.0,-2.0,-1.0,-3.0,0.0
1.6951607408681917e+18,-1.0,0.0,-2.0,0.0,-3.0,-4.0,-3.0,-3.0
1.6951607408681917e+18,-3.0,-2.0,-2.0,-3.0,-3.0,-2.0,-1.0,-1.0
1.6951607408691914e+18,-3.0,-3.0,-3.0,-1.0,-1.0,-2.0,-4.0,-1.0
1.6951607408691914e+18,-3.0,-2.0,-3.0,-2.0,-1.0,0.0,-1.0,-1.0
1.6951607408841833e+18,-1.0,-3.0,-3.0,-1.0,-2.0,-2.0,-1.0,-1.0
1.6951607408841833e+18,-1.0,-1.0,-1.0,0.0,-1.0,-2.0,-1.0,-2.0
1.6951607408841833e+18,-2.0,-3.0,-2.0,-1.0,-1.0,-2.0,-2.0,-2.0
1.6951607408841833e+18,0.0,-1.0,-2.0,0.0,-2.0,-1.0,-1.0,-1.0
1.6951607409051922e+18,-3.0,-1.0,-3.0,0.0,0.0,1.0,-1.0,0.0
1.6951607409051922e+18,-2.0,-1.0,-1.0,0.0,0.0,-1.0,-3.0,-2.0
1.6951607409061727e+18,-1.0,0.0,-3.0,-1.0,-2.0,0.0,0.0,0.0
1.6951607409061727e+18,-2.0,-2.0,-1.0,0.0,0.0,-2.0,-2.0,-2.0
1.695160740928157e+18,-2.0,0.0,1.0,-1.0,1.0,-2.0,1.0,-1.0
1.695160740928157e+18,0.0,0.0,0.0,-1.0,-1.0,-1.0,-2.0,-1.0
1.695160740928157e+18,-1.0,0.0,-1.0,-2.0,-2.0,0.0,-1.0,-1.0
1.6951607409291684e+18,-1.0,1.0,-2.0,0.0,0.0,0.0,0.0,-2.0
1.6951607409431483e+18,-3.0,-2.0,-2.0,-1.0,0.0,0.0,-3.0,-1.0
1.6951607409431483e+18,-1.0,-2.0,0.0,-3.0,-2.0,0.0,1.0,-1.0
1.6951607409441485e+18,-1.0,0.0,-1.0,0.0,0.0,-2.0,1.0,0.0
1.6951607409441485e+18,-1.0,-1.0,-2.0,-1.0,-2.0,-1.0,0.0,0.0
1.6951607409581407e+18,-1.0,-3.0,0.0,-1.0,0.0,-2.0,-1.0,-1.0
1.6951607409581407e+18,0.0,0.0,0.0,0.0,2.0,-1.0,0.0,-1.0
1.6951607409591404e+18,-1.0,-2.0,-2.0,-1.0,-1.0,-2.0,1.0,0.0
1.6951607409641362e+18,-1.0,-1.0,0.0,-1.0,0.0,0.0,-1.0,-1.0
1.6951607409801298e+18,0.0,1.0,-2.0,0.0,0.0,-1.0,-3.0,-1.0
1.6951607409801298e+18,0.0,0.0,-2.0,-1.0,-1.0,-1.0,-1.0,-3.0
1.6951607409801298e+18,-1.0,-1.0,0.0,0.0,0.0,-2.0,-1.0,-2.0
1.6951607409801298e+18,-2.0,1.0,-3.0,-2.0,-1.0,0.0,1.0,-2.0
1.6951607410035814e+18,-1.0,-2.0,-1.0,0.0,1.0,-1.0,0.0,1.0
1.6951607410035814e+18,-2.0,0.0,0.0,-1.0,0.0,1.0,2.0,1.0
1.6951607410035814e+18,-1.0,-2.0,-1.0,1.0,3.0,1.0,1.0,2.0
1.6951607410035814e+18,-2.0,0.0,1.0,-1.0,1.0,0.0,-1.0,0.0
1.695160741017287e+18,1.0,2.0,3.0,-1.0,-2.0,0.0,0.0,0.0
1.695160741017287e+18,1.0,1.0,1.0,-2.0,0.0,0.0,-1.0,-2.0
1.6951607410182953e+18,0.0,1.0,-2.0,0.0,-1.0,0.0,-1.0,-1.0
1.6951607410182953e+18,1.0,-3.0,1.0,-1.0,2.0,-1.0,-1.0,0.0
1.6951607410405276e+18,-1.0,-1.0,-2.0,-1.0,0.0,-1.0,2.0,-2.0
1.6951607410405276e+18,0.0,0.0,-1.0,0.0,-1.0,0.0,0.0,1.0
1.695160741047222e+18,0.0,-1.0,2.0,-1.0,-3.0,1.0,0.0,-1.0
1.6951607410482255e+18,0.0,1.0,2.0,-3.0,0.0,0.0,0.0,-1.0
1.6951607410712087e+18,-1.0,-1.0,0.0,-1.0,-2.0,-1.0,0.0,-1.0
1.6951607410722076e+18,-1.0,-2.0,0.0,0.0,-1.0,-1.0,0.0,0.0
1.6951607410732065e+18,-1.0,0.0,0.0,-1.0,-1.0,0.0,-2.0,0.0
1.6951607410732065e+18,-1.0,0.0,-2.0,0.0,-1.0,0.0,-1.0,0.0
1.695160741077205e+18,-1.0,-1.0,0.0,-2.0,-2.0,0.0,-1.0,0.0
1.695160741077205e+18,0.0,0.0,0.0,0.0,-3.0,-1.0,0.0,0.0
1.6951607410931948e+18,1.0,-1.0,0.0,0.0,-1.0,0.0,1.0,-1.0
1.6951607410931948e+18,1.0,-1.0,-1.0,-1.0,0.0,-1.0,-1.0,-1.0
1.6951607411095255e+18,0.0,-1.0,0.0,-1.0,1.0,-1.0,0.0,1.0
1.6951607411105257e+18,-1.0,-1.0,-3.0,0.0,-1.0,0.0,0.0,0.0
1.6951607411105257e+18,-1.0,0.0,-1.0,-1.0,0.0,-2.0,0.0,1.0
1.6951607411105257e+18,1.0,0.0,0.0,-1.0,-1.0,-1.0,1.0,0.0
1.6951607411395996e+18,0.0,0.0,0.0,-2.0,-1.0,0.0,1.0,0.0
1.6951607411405975e+18,-1.0,0.0,-1.0,-2.0,0.0,-2.0,-2.0,-2.0
1.6951607411405975e+18,0.0,-1.0,-1.0,-2.0,-1.0,0.0,-1.0,-1.0
1.6951607411405975e+18,-1.0,-3.0,1.0,-1.0,-1.0,-2.0,0.0,0.0
1.6951607411415977e+18,-2.0,-1.0,-1.0,1.0,-1.0,0.0,-1.0,-1.0
1.6951607411415977e+18,-1.0,0.0,0.0,-1.0,-1.0,0.0,1.0,-1.0
1.695160741145576e+18,-1.0,-1.0,-1.0,-1.0,-1.0,-1.0,0.0,1.0
1.695160741145576e+18,-1.0,0.0,0.0,1.0,-2.0,-1.0,-3.0,-1.0
1.6951607411605274e+18,1.0,-1.0,-2.0,-2.0,-1.0,-1.0,-2.0,0.0
1.6951607411605274e+18,0.0,-1.0,-1.0,1.0,0.0,-2.0,0.0,1.0
1.695160741161571e+18,0.0,-1.0,-2.0,-1.0,0.0,-1.0,1.0,-1.0
1.695160741161571e+18,0.0,-2.0,-2.0,0.0,0.0,0.0,0.0,1.0
1.695160741183603e+18,-2.0,-1.0,-2.0,-1.0,-1.0,0.0,0.0,-1.0
1.6951607411846031e+18,-2.0,0.0,-2.0,-1.0,1.0,1.0,0.0,0.0
1.6951607411846031e+18,0.0,1.0,0.0,-1.0,-1.0,-1.0,-1.0,-1.0
1.6951607411846031e+18,-1.0,-1.0,-1.0,0.0,-1.0,-3.0,-3.0,-3.0
1.6951607411975936e+18,-2.0,0.0,0.0,0.0,-1.0,-1.0,-4.0,0.0
1.6951607411975936e+18,0.0,-1.0,-2.0,0.0,-1.0,0.0,-1.0,-1.0
1.6951607412065894e+18,1.0,-2.0,0.0,-1.0,-2.0,0.0,-1.0,0.0
1.6951607412065894e+18,-1.0,-1.0,0.0,-2.0,-2.0,1.0,1.0,1.0
1.695160741222582e+18,0.0,-1.0,0.0,2.0,0.0,-1.0,-1.0,-1.0
1.695160741222582e+18,0.0,0.0,0.0,-2.0,-1.0,-1.0,-2.0,-1.0
1.6951607412235812e+18,-1.0,-1.0,-1.0,0.0,-1.0,-1.0,-2.0,-2.0
1.6951607412235812e+18,-1.0,0.0,0.0,-1.0,-2.0,-2.0,-1.0,-2.0
1.6951607412435666e+18,-1.0,0.0,-4.0,-3.0,-2.0,-1.0,-2.0,-3.0
1.6951607412435666e+18,-1.0,-3.0,-3.0,0.0,-3.0,-1.0,-2.0,-1.0
1.6951607412435666e+18,-2.0,-1.0,-2.0,1.0,-3.0,-2.0,-1.0,-2.0
1.6951607412445699e+18,-2.0,-2.0,-1.0,1.0,-3.0,0.0,-2.0,0.0
1.695160741256565e+18,-3.0,-2.0,-3.0,-1.0,-2.0,1.0,0.0,-1.0
1.695160741256565e+18,-1.0,-1.0,-3.0,-2.0,-1.0,-2.0,-2.0,-2.0
1.6951607412725504e+18,-2.0,-1.0,-3.0,-2.0,-1.0,-2.0,-1.0,-2.0
1.6951607412725504e+18,-1.0,-1.0,-1.0,-1.0,-1.0,-1.0,0.0,-1.0
1.6951607412795512e+18,0.0,-1.0,-2.0,-2.0,-1.0,0.0,-1.0,-2.0
1.695160741280546e+18,-3.0,-2.0,1.0,0.0,-2.0,-1.0,-1.0,-2.0
1.695160741280546e+18,-1.0,-2.0,-1.0,0.0,-2.0,0.0,0.0,0.0
1.695160741280546e+18,-2.0,-2.0,-3.0,-1.0,-1.0,-2.0,-1.0,-2.0
1.6951607413125276e+18,-1.0,-1.0,0.0,0.0,1.0,0.0,-1.0,-2.0
1.6951607413125276e+18,-1.0,-1.0,2.0,0.0,-1.0,-1.0,-2.0,-1.0
1.6951607413125276e+18,0.0,0.0,-1.0,1.0,-2.0,-1.0,-1.0,0.0
1.6951607413135283e+18,-2.0,-2.0,-1.0,1.0,-2.0,-1.0,-1.0,-1.0
1.6951607413165315e+18,-1.0,-1.0,-2.0,-1.0,-2.0,-2.0,2.0,-2.0
1.6951607413175252e+18,-1.0,-2.0,-1.0,-1.0,-2.0,-3.0,-2.0,-2.0
1.6951607413255196e+18,-1.0,-2.0,2.0,-2.0,-2.0,0.0,-1.0,-1.0
1.6951607413255196e+18,0.0,0.0,0.0,-2.0,1.0,0.0,0.0,0.0
1.6951607413397002e+18,-1.0,-3.0,-2.0,0.0,0.0,-1.0,-1.0,-2.0
1.6951607413397002e+18,-1.0,0.0,-1.0,0.0,1.0,0.0,0.0,0.0
1.6951607413406784e+18,0.0,0.0,0.0,-2.0,1.0,-1.0,-1.0,-1.0
1.6951607413406784e+18,1.0,2.0,-1.0,-1.0,1.0,-1.0,1.0,0.0
1.6951607413635648e+18,-1.0,0.0,0.0,0.0,1.0,-1.0,-1.0,-1.0
1.6951607413635648e+18,-1.0,0.0,-1.0,0.0,-1.0,-1.0,0.0,-1.0
1.695160741364566e+18,0.0,-1.0,-2.0,0.0,0.0,0.0,-1.0,-2.0
1.695160741364566e+18,-2.0,0.0,0.0,-1.0,-2.0,0.0,-1.0,1.0
1.6951607413765972e+18,0.0,-2.0,-1.0,1.0,-1.0,0.0,3.0,2.0
1.6951607413776369e+18,0.0,0.0,0.0,-1.0,1.0,3.0,1.0,1.0
1.6951607413847462e+18,-1.0,1.0,1.0,1.0,1.0,3.0,2.0,1.0
1.6951607413857674e+18,2.0,1.0,1.0,0.0,1.0,0.0,0.0,-2.0
1.6951607414005335e+18,1.0,1.0,3.0,0.0,-1.0,-1.0,-1.0,0.0
1.6951607414005335e+18,1.0,-1.0,-1.0,-1.0,-1.0,0.0,-1.0,-1.0
1.695160741401541e+18,-1.0,1.0,-1.0,-1.0,0.0,-2.0,-1.0,1.0
1.695160741401541e+18,-1.0,-1.0,-1.0,-1.0,2.0,0.0,-2.0,-1.0
1.6951607414235901e+18,0.0,-1.0,-1.0,-2.0,-1.0,-1.0,0.0,-1.0
1.6951607414245944e+18,0.0,-1.0,0.0,-1.0,-1.0,-3.0,0.0,0.0
1.6951607414245944e+18,0.0,-1.0,-2.0,-1.0,-2.0,-1.0,-1.0,-1.0
1.6951607414245944e+18,-2.0,-1.0,-3.0,1.0,-1.0,-2.0,0.0,1.0
1.6951607414375828e+18,0.0,0.0,0.0,-2.0,-2.0,-3.0,-1.0,-1.0
1.6951607414375828e+18,-1.0,-2.0,-2.0,-4.0,-3.0,-2.0,-1.0,-2.0
1.6951607414455762e+18,1.0,0.0,-2.0,-2.0,0.0,0.0,0.0,-1.0
1.6951607414475758e+18,-2.0,-3.0,-1.0,4.0,2.0,0.0,1.0,-2.0
1.6951607414636017e+18,0.0,0.0,1.0,0.0,-7.0,-2.0,-1.0,0.0
1.6951607414636017e+18,-1.0,0.0,0.0,5.0,14.0,5.0,2.0,2.0
1.6951607414645655e+18,-1.0,0.0,1.0,-1.0,-4.0,-3.0,-1.0,-1.0
1.695160741478568e+18,0.0,0.0,-2.0,-4.0,-1.0,-2.0,-2.0,-1.0
1.695160741488589e+18,1.0,0.0,1.0,0.0,-1.0,0.0,1.0,-1.0
1.695160741488589e+18,-1.0,0.0,-1.0,-1.0,-10.0,-6.0,-5.0,-1.0
1.6951607414895508e+18,-2.0,-1.0,-2.0,1.0,8.0,2.0,0.0,-3.0
1.6951607414895508e+18,2.0,0.0,-1.0,-4.0,-2.0,1.0,4.0,2.0
1.6951607414985464e+18,-2.0,-1.0,0.0,0.0,6.0,0.0,1.0,-1.0
1.6951607414985464e+18,-2.0,-2.0,-3.0,-2.0,-5.0,-1.0,0.0,-2.0
1.6951607415065413e+18,-1.0,-1.0,-1.0,-2.0,-3.0,-1.0,-2.0,0.0
1.6951607415065413e+18,-2.0,-1.0,0.0,0.0,-4.0,-1.0,-3.0,-3.0
1.695160741521533e+18,-1.0,-1.0,-2.0,0.0,2.0,0.0,-1.0,-2.0
1.6951607415225398e+18,1.0,-1.0,-1.0,-2.0,1.0,-1.0,-1.0,0.0
1.6951607415225398e+18,0.0,-2.0,0.0,-1.0,-5.0,-1.0,0.0,0.0
1.6951607415235372e+18,-1.0,-3.0,-2.0,-3.0,-3.0,-2.0,-2.0,-3.0
1.6951607415425183e+18,0.0,1.0,-1.0,-1.0,-2.0,-3.0,-3.0,0.0
1.6951607415425183e+18,-1.0,3.0,5.0,3.0,1.0,1.0,0.0,-1.0
1.695160741543519e+18,-1.0,-2.0,-2.0,2.0,3.0,3.0,1.0,0.0
1.695160741543519e+18,-2.0,-4.0,-4.0,-5.0,-4.0,-2.0,1.0,0.0
1.6951607415575114e+18,0.0,2.0,2.0,0.0,-1.0,0.0,-1.0,1.0
1.6951607415575114e+18,0.0,-6.0,-5.0,-3.0,-5.0,-4.0,-2.0,-2.0
1.6951607415685056e+18,2.0,3.0,4.0,5.0,3.0,-1.0,-9.0,-1.0
1.695160741569505e+18,-1.0,1.0,1.0,1.0,1.0,0.0,10.0,0.0
1.695160741579502e+18,-4.0,-3.0,-4.0,-5.0,-6.0,-2.0,-6.0,-3.0
1.6951607415804974e+18,1.0,2.0,1.0,0.0,2.0,0.0,7.0,2.0
1.6951607415884948e+18,-1.0,-3.0,-3.0,-6.0,-3.0,-5.0,-12.0,-3.0
1.6951607415904937e+18,-1.0,0.0,-1.0,4.0,-1.0,-12.0,-36.0,-6.0
1.6951607416034872e+18,2.0,3.0,3.0,5.0,7.0,18.0,54.0,12.0
1.695160741604487e+18,0.0,0.0,-1.0,2.0,1.0,9.0,20.0,4.0
1.695160741605486e+18,0.0,1.0,1.0,-3.0,-2.0,1.0,6.0,0.0
1.695160741605486e+18,-4.0,-11.0,-9.0,-4.0,-4.0,0.0,-2.0,-2.0
1.6951607416254733e+18,1.0,7.0,4.0,1.0,1.0,-6.0,-20.0,-2.0
1.6951607416264737e+18,-8.0,-15.0,-6.0,-11.0,-11.0,-7.0,-11.0,-6.0
1.6951607416264737e+18,3.0,13.0,8.0,5.0,-1.0,-3.0,2.0,1.0
1.6951607416264737e+18,-2.0,-6.0,-5.0,-6.0,-6.0,2.0,0.0,-1.0
1.695160741648459e+18,-2.0,-1.0,-4.0,-4.0,-2.0,-3.0,-7.0,-1.0
1.695160741648459e+18,1.0,2.0,2.0,5.0,6.0,2.0,-2.0,-1.0
1.695160741648459e+18,-1.0,-1.0,-5.0,-7.0,-5.0,-11.0,-12.0,-4.0
1.6951607416494633e+18,3.0,6.0,15.0,10.0,5.0,5.0,13.0,4.0
1.6951607416614505e+18,-1.0,-4.0,-2.0,-1.0,-1.0,-3.0,-6.0,-2.0
1.6951607416614505e+18,0.0,-1.0,-6.0,-6.0,-6.0,-5.0,-5.0,0.0
1.6951607416884367e+18,-6.0,-10.0,-3.0,-4.0,-1.0,4.0,9.0,-1.0
1.6951607416884367e+18,5.0,14.0,0.0,1.0,-1.0,2.0,4.0,3.0
1.6951607416884367e+18,-5.0,-10.0,10.0,8.0,0.0,1.0,-3.0,-1.0
1.6951607416884367e+18,9.0,31.0,23.0,12.0,-4.0,-10.0,-14.0,0.0
1.695160741691432e+18,0.0,-7.0,8.0,3.0,9.0,9.0,10.0,3.0
1.695160741691432e+18,-6.0,-12.0,-14.0,0.0,-5.0,-6.0,-3.0,-5.0
1.6951607417194163e+18,3.0,9.0,-2.0,-10.0,-4.0,-1.0,-6.0,-1.0
1.6951607417194163e+18,1.0,3.0,-10.0,-7.0,2.0,1.0,1.0,0.0
1.6951607417204183e+18,3.0,2.0,4.0,5.0,0.0,2.0,5.0,4.0
1.6951607417204183e+18,3.0,10.0,7.0,-9.0,-6.0,-5.0,-3.0,-1.0
1.6951607417214164e+18,-2.0,-10.0,3.0,14.0,9.0,4.0,0.0,1.0
1.6951607417214164e+18,-5.0,-7.0,0.0,-3.0,-1.0,1.0,-1.0,-2.0
1.695160741738407e+18,2.0,-1.0,-2.0,8.0,3.0,7.0,6.0,3.0
1.695160741738407e+18,1.0,-1.0,4.0,1.0,2.0,-1.0,2.0,0.0
1.6951607417603932e+18,-1.0,-3.0,-12.0,-7.0,-4.0,-3.0,-5.0,-5.0
1.6951607417603932e+18,-3.0,-7.0,-13.0,-19.0,-7.0,0.0,1.0,-1.0
1.6951607417623918e+18,1.0,-1.0,-7.0,1.0,0.0,2.0,1.0,1.0
1.6951607417623918e+18,-6.0,-9.0,4.0,8.0,4.0,-2.0,-5.0,-7.0
1.6951607417673892e+18,0.0,-4.0,-4.0,-5.0,-5.0,-1.0,1.0,0.0
1.6951607417673892e+18,-2.0,0.0,4.0,16.0,10.0,6.0,4.0,0.0
1.6951607417753856e+18,-7.0,-12.0,-12.0,-10.0,-6.0,1.0,0.0,-3.0
1.6951607417753856e+18,0.0,8.0,-4.0,-9.0,-1.0,2.0,2.0,0.0
1.6951607417983718e+18,-5.0,-11.0,-4.0,1.0,3.0,0.0,0.0,-2.0
1.6951607417983718e+18,1.0,-1.0,3.0,3.0,1.0,2.0,0.0,-1.0
1.6951607417993715e+18,-4.0,-8.0,-10.0,-9.0,-4.0,-2.0,0.0,-1.0
1.6951607417993715e+18,1.0,6.0,14.0,14.0,9.0,5.0,2.0,1.0
1.6951607418133655e+18,-5.0,-9.0,-22.0,-22.0,-9.0,-5.0,-6.0,-5.0
1.6951607418133655e+18,2.0,11.0,6.0,4.0,-1.0,-3.0,-3.0,1.0
1.6951607418143644e+18,-1.0,-3.0,-2.0,4.0,5.0,-3.0,-1.0,-1.0
1.6951607418143644e+18,0.0,-3.0,-2.0,-2.0,1.0,2.0,2.0,2.0
1.6951607418283763e+18,2.0,9.0,7.0,9.0,0.0,-2.0,-2.0,-3.0
1.6951607418283763e+18,4.0,4.0,-8.0,-10.0,-4.0,-6.0,-1.0,3.0
1.6951607418303534e+18,-2.0,-2.0,3.0,-2.0,-7.0,-4.0,-1.0,-2.0
1.6951607418303534e+18,-2.0,-3.0,-2.0,0.0,-2.0,-1.0,-2.0,1.0
1.6951607418503636e+18,0.0,-4.0,1.0,-1.0,-3.0,0.0,0.0,-1.0
1.6951607418503636e+18,-3.0,-7.0,-4.0,1.0,3.0,2.0,0.0,0.0
1.695160741852341e+18,-4.0,-2.0,-1.0,0.0,-6.0,-4.0,-5.0,-4.0
1.695160741852341e+18,4.0,10.0,8.0,-2.0,-2.0,0.0,2.0,1.0
1.6951607418733284e+18,0.0,6.0,-2.0,-8.0,-5.0,-6.0,-7.0,0.0
1.6951607418733284e+18,-6.0,-16.0,0.0,3.0,1.0,1.0,5.0,-3.0
1.6951607418743283e+18,-3.0,-7.0,-8.0,-8.0,-5.0,-7.0,-9.0,-3.0
1.6951607418743283e+18,-4.0,-8.0,-3.0,-3.0,0.0,3.0,2.0,-1.0
1.6951607418923397e+18,-1.0,1.0,4.0,4.0,0.0,-8.0,-11.0,-3.0
1.6951607418923397e+18,-3.0,-5.0,-5.0,0.0,0.0,2.0,5.0,-2.0
1.6951607418923397e+18,1.0,11.0,4.0,3.0,-1.0,-3.0,-2.0,1.0
1.6951607418923397e+18,-2.0,-6.0,-6.0,-4.0,0.0,5.0,14.0,0.0
1.6951607419013117e+18,0.0,1.0,1.0,1.0,0.0,0.0,4.0,1.0
1.6951607419013117e+18,1.0,0.0,-1.0,0.0,-3.0,-2.0,-2.0,-3.0
1.6951607419103073e+18,4.0,5.0,2.0,0.0,0.0,-7.0,-7.0,2.0
1.6951607419103073e+18,-1.0,6.0,-1.0,-2.0,-1.0,-3.0,-6.0,-3.0
1.695160741925302e+18,-6.0,-7.0,0.0,1.0,2.0,1.0,3.0,-1.0
1.695160741925302e+18,-3.0,-2.0,0.0,1.0,-2.0,-3.0,-9.0,-6.0
1.6951607419272983e+18,1.0,0.0,4.0,-2.0,-1.0,2.0,7.0,0.0
1.6951607419272983e+18,0.0,-6.0,-21.0,-12.0,0.0,-1.0,-3.0,-3.0
1.6951607419472855e+18,0.0,4.0,2.0,1.0,1.0,0.0,1.0,0.0
1.6951607419482852e+18,-1.0,3.0,3.0,1.0,-1.0,-6.0,-8.0,-2.0
1.695160741962278e+18,-1.0,-5.0,-4.0,-6.0,-1.0,3.0,-3.0,-2.0
1.695160741962278e+18,-3.0,-6.0,5.0,12.0,1.0,2.0,3.0,2.0
1.695160741963277e+18,-2.0,-5.0,-4.0,-1.0,-4.0,-16.0,-29.0,-7.0
1.695160741963277e+18,2.0,-1.0,0.0,-1.0,4.0,23.0,35.0,9.0
1.6951607419762913e+18,-2.0,4.0,4.0,-5.0,-2.0,-5.0,-1.0,-4.0
1.6951607419762913e+18,-1.0,-4.0,3.0,1.0,2.0,0.0,-3.0,3.0
1.6951607419882655e+18,3.0,3.0,4.0,5.0,0.0,4.0,6.0,0.0
1.6951607419882655e+18,-2.0,-2.0,-3.0,-5.0,-1.0,-22.0,-24.0,-4.0
1.6951607419882655e+18,0.0,0.0,-7.0,5.0,-1.0,6.0,13.0,-1.0
1.6951607419882655e+18,-4.0,-2.0,0.0,-2.0,-3.0,1.0,-12.0,-2.0
1.6951607420072737e+18,3.0,3.0,5.0,-1.0,6.0,0.0,7.0,4.0
1.6951607420082527e+18,-3.0,-2.0,3.0,-1.0,-3.0,2.0,1.0,0.0
1.6951607420162465e+18,2.0,4.0,14.0,8.0,5.0,-3.0,2.0,2.0
1.6951607420162465e+18,0.0,-4.0,-20.0,-5.0,-9.0,-3.0,-9.0,-4.0
1.6951607420212444e+18,0.0,2.0,8.0,2.0,-2.0,-8.0,-4.0,2.0
1.6951607420212444e+18,-2.0,0.0,-3.0,-9.0,-14.0,1.0,3.0,-1.0
1.695160742047235e+18,1.0,4.0,8.0,23.0,35.0,7.0,-13.0,-1.0
1.6951607420482516e+18,-1.0,-3.0,0.0,0.0,-6.0,-24.0,0.0,-1.0
1.6951607420482516e+18,1.0,-2.0,-5.0,-5.0,4.0,24.0,36.0,6.0
1.6951607420482516e+18,0.0,-5.0,-7.0,-14.0,0.0,24.0,6.0,1.0
1.6951607420532265e+18,0.0,0.0,13.0,-2.0,-6.0,24.0,7.0,-1.0
1.6951607420532265e+18,-2.0,1.0,4.0,4.0,12.0,-11.0,-22.0,-10.0
1.6951607420672166e+18,2.0,1.0,-18.0,9.0,6.0,-13.0,4.0,5.0
1.69516074206822e+18,-2.0,-3.0,9.0,6.0,-1.0,-16.0,-5.0,-4.0
1.6951607420752125e+18,-2.0,2.0,-6.0,-12.0,-15.0,-10.0,-2.0,-1.0
1.6951607420752125e+18,-2.0,-2.0,12.0,-5.0,-9.0,1.0,5.0,-1.0
1.6951607420902067e+18,-2.0,5.0,-5.0,3.0,-2.0,0.0,-3.0,-1.0
1.6951607420902067e+18,1.0,0.0,-11.0,-1.0,-10.0,-9.0,-14.0,-1.0
1.6951607420922038e+18,-2.0,-1.0,9.0,-2.0,2.0,1.0,5.0,6.0
1.6951607420922038e+18,5.0,4.0,7.0,18.0,11.0,13.0,12.0,7.0
1.695160742104219e+18,0.0,-1.0,19.0,15.0,4.0,6.0,7.0,2.0
1.6951607421051955e+18,2.0,1.0,-45.0,-19.0,11.0,26.0,-5.0,-1.0
1.6951607421152125e+18,-2.0,0.0,19.0,-1.0,-9.0,-22.0,-12.0,-9.0
1.6951607421152125e+18,-8.0,-7.0,-32.0,-27.0,-8.0,-1.0,-5.0,-9.0
1.6951607421281846e+18,-3.0,-2.0,1.0,-11.0,-14.0,-12.0,-16.0,-8.0
1.6951607421281846e+18,-4.0,-2.0,-6.0,-15.0,-10.0,-13.0,-1.0,0.0
1.6951607421291843e+18,0.0,-3.0,-13.0,4.0,-2.0,5.0,4.0,0.0
1.6951607421291843e+18,4.0,4.0,13.0,0.0,-11.0,-7.0,-3.0,-3.0
1.6951607421461893e+18,0.0,0.0,-3.0,12.0,20.0,10.0,14.0,2.0
1.6951607421471752e+18,3.0,4.0,-7.0,-7.0,6.0,-6.0,-1.0,3.0
1.695160742167163e+18,-6.0,-5.0,-32.0,-6.0,0.0,8.0,-3.0,-4.0
1.695160742167163e+18,-1.0,2.0,22.0,-3.0,-4.0,-2.0,-5.0,1.0
1.6951607421681603e+18,-6.0,-3.0,-7.0,-18.0,-13.0,-5.0,-12.0,-6.0
1.6951607421681603e+18,-3.0,-3.0,24.0,-13.0,-17.0,-15.0,-5.0,-7.0
1.69516074217118e+18,4.0,3.0,13.0,22.0,22.0,9.0,11.0,8.0
1.69516074217118e+18,-4.0,-7.0,-28.0,-8.0,-2.0,1.0,-6.0,-2.0
1.6951607421881482e+18,-1.0,-2.0,6.0,0.0,-6.0,-3.0,-8.0,-6.0
1.6951607421881482e+18,1.0,0.0,13.0,6.0,11.0,-1.0,5.0,7.0
1.6951607421891507e+18,2.0,-2.0,-34.0,-12.0,-11.0,-2.0,-2.0,-2.0
1.6951607421891507e+18,-4.0,-4.0,15.0,2.0,-7.0,-4.0,-3.0,-4.0
1.6951607422011405e+18,0.0,3.0,6.0,3.0,4.0,8.0,0.0,1.0
1.695160742202142e+18,-2.0,-3.0,12.0,23.0,3.0,-7.0,-5.0,-3.0
1.695160742213134e+18,1.0,1.0,-1.0,-13.0,-9.0,-8.0,-1.0,-2.0
1.695160742213134e+18,2.0,1.0,-12.0,-27.0,2.0,3.0,0.0,4.0
1.6951607422411218e+18,1.0,0.0,15.0,29.0,2.0,2.0,-2.0,-1.0
1.6951607422421184e+18,-4.0,-5.0,-7.0,-11.0,-2.0,1.0,2.0,-3.0
1.6951607422421184e+18,-3.0,-2.0,8.0,-11.0,-2.0,-6.0,-14.0,-2.0
1.6951607422421184e+18,1.0,-3.0,-25.0,-1.0,-1.0,7.0,23.0,3.0
1.6951607422551101e+18,0.0,2.0,1.0,-3.0,-6.0,-5.0,-5.0,-2.0
1.6951607422551101e+18,-1.0,4.0,2.0,10.0,9.0,6.0,2.0,-1.0
1.6951607422571085e+18,-5.0,-5.0,-11.0,-10.0,-3.0,-3.0,-5.0,-3.0
1.6951607422571085e+18,0.0,2.0,-7.0,-12.0,-3.0,-2.0,-2.0,2.0
1.6951607422611057e+18,0.0,2.0,6.0,11.0,-4.0,-2.0,2.0,0.0
1.6951607422611057e+18,1.0,0.0,-5.0,-1.0,4.0,-1.0,1.0,1.0
1.6951607422711101e+18,-4.0,-4.0,6.0,18.0,-7.0,-4.0,4.0,-3.0
1.6951607422711101e+18,1.0,4.0,5.0,4.0,6.0,3.0,5.0,1.0
1.6951607422860938e+18,-3.0,-4.0,-6.0,8.0,4.0,2.0,-3.0,-1.0
1.6951607422870925e+18,1.0,1.0,5.0,-13.0,-3.0,-1.0,-2.0,1.0
1.69516074229209e+18,-2.0,-3.0,-1.0,-4.0,4.0,0.0,0.0,-3.0
1.69516074229209e+18,0.0,2.0,18.0,38.0,7.0,3.0,1.0,-1.0
1.695160742321075e+18,-4.0,-7.0,-24.0,-42.0,-12.0,-5.0,-4.0,-5.0
1.695160742321075e+18,-1.0,-3.0,22.0,60.0,11.0,0.0,-2.0,-1.0
1.695160742322072e+18,3.0,3.0,-12.0,-51.0,-8.0,-1.0,0.0,3.0
1.695160742322072e+18,-1.0,-7.0,7.0,17.0,-3.0,0.0,1.0,1.0
1.6951607423460605e+18,2.0,1.0,-2.0,-13.0,8.0,5.0,3.0,1.0
1.6951607423460605e+18,0.0,-2.0,8.0,14.0,-6.0,-5.0,-2.0,-4.0
1.695160742348057e+18,-2.0,0.0,0.0,-2.0,-1.0,0.0,3.0,2.0
1.695160742348057e+18,0.0,2.0,0.0,2.0,7.0,0.0,-1.0,0.0
1.6951607423570514e+18,-1.0,2.0,-14.0,-32.0,-8.0,-2.0,-3.0,-2.0
1.6951607423570514e+18,-4.0,-7.0,-12.0,11.0,-5.0,2.0,1.0,-1.0
1.6951607423570514e+18,2.0,2.0,15.0,9.0,5.0,2.0,-1.0,2.0
1.6951607423570514e+18,-1.0,2.0,-13.0,-19.0,-10.0,-6.0,-5.0,-3.0
1.6951607423830364e+18,-1.0,0.0,11.0,25.0,5.0,0.0,-6.0,-1.0
1.6951607423880563e+18,-3.0,-3.0,-41.0,-63.0,-7.0,0.0,4.0,-3.0
1.6951607423880563e+18,1.0,4.0,12.0,33.0,2.0,-3.0,-2.0,0.0
1.6951607423880563e+18,-3.0,-6.0,3.0,-14.0,-5.0,0.0,-3.0,-1.0
1.6951607423900562e+18,2.0,2.0,-9.0,1.0,0.0,-1.0,-4.0,1.0
1.6951607423900562e+18,-2.0,3.0,9.0,-7.0,2.0,-2.0,-10.0,-3.0
1.6951607423980503e+18,-2.0,-6.0,-5.0,2.0,-3.0,2.0,15.0,1.0
1.6951607423980503e+18,3.0,2.0,6.0,7.0,2.0,2.0,2.0,1.0
1.6951607424050268e+18,1.0,0.0,6.0,5.0,-2.0,0.0,2.0,1.0
1.6951607424050268e+18,-5.0,-7.0,-11.0,-3.0,-1.0,-6.0,-11.0,-5.0
1.6951607424440072e+18,0.0,0.0,-4.0,3.0,-4.0,-3.0,-11.0,-1.0
1.6951607424440072e+18,1.0,1.0,2.0,-7.0,7.0,1.0,-1.0,0.0
1.6951607424440072e+18,-1.0,-4.0,23.0,32.0,1.0,-3.0,-4.0,-1.0
1.6951607424440072e+18,1.0,5.0,-18.0,-32.0,-1.0,4.0,7.0,3.0
1.6951607424479997e+18,-3.0,-4.0,7.0,28.0,3.0,-1.0,1.0,-2.0
1.6951607424479997e+18,-2.0,-2.0,-14.0,-13.0,-5.0,1.0,0.0,-1.0
1.6951607424579963e+18,-1.0,-2.0,-15.0,-28.0,-6.0,0.0,6.0,1.0
1.6951607424579963e+18,1.0,2.0,19.0,42.0,4.0,-3.0,-9.0,-5.0
1.695160742458996e+18,-3.0,-3.0,-14.0,-28.0,-3.0,2.0,1.0,-2.0
1.6951607424599956e+18,-3.0,-1.0,6.0,7.0,1.0,-3.0,-6.0,-1.0
1.6951607424969746e+18,0.0,1.0,-7.0,-2.0,-2.0,-2.0,4.0,0.0
1.6951607424969746e+18,0.0,1.0,14.0,9.0,-2.0,-2.0,-3.0,-1.0
1.6951607424979935e+18,-1.0,-1.0,-11.0,-18.0,-1.0,-3.0,-4.0,-1.0
1.6951607424979935e+18,0.0,1.0,2.0,2.0,-1.0,-1.0,2.0,-2.0
1.695160742518958e+18,-3.0,-7.0,-5.0,-1.0,-3.0,3.0,15.0,0.0
1.6951607425199636e+18,-1.0,2.0,10.0,11.0,0.0,-3.0,-2.0,1.0
1.6951607425209574e+18,0.0,-1.0,-5.0,-2.0,-5.0,-4.0,-7.0,-2.0
1.6951607425209574e+18,-2.0,-2.0,0.0,-1.0,8.0,-2.0,-5.0,-1.0
1.6951607425219574e+18,-1.0,1.0,1.0,-1.0,0.0,-3.0,-3.0,-3.0
1.6951607425219574e+18,1.0,-1.0,-9.0,-11.0,-1.0,2.0,3.0,1.0
1.6951607425729285e+18,-2.0,-1.0,3.0,3.0,4.0,2.0,-1.0,1.0
1.6951607425759263e+18,0.0,0.0,4.0,9.0,-3.0,-5.0,4.0,0.0
1.6951607425779256e+18,-2.0,-4.0,-13.0,-22.0,-4.0,0.0,-2.0,-1.0
1.6951607425779256e+18,1.0,2.0,3.0,2.0,1.0,0.0,-3.0,-1.0
1.6951607425779256e+18,-2.0,-1.0,-1.0,-5.0,-10.0,-11.0,-15.0,-4.0
1.6951607425779256e+18,-1.0,-2.0,8.0,14.0,6.0,13.0,21.0,6.0
1.695160742631904e+18,2.0,2.0,0.0,-1.0,5.0,3.0,-4.0,1.0
1.695160742631904e+18,-2.0,-1.0,4.0,1.0,-4.0,0.0,4.0,0.0
1.6951607426338936e+18,0.0,0.0,-1.0,-1.0,1.0,2.0,6.0,1.0
1.6951607426338936e+18,-2.0,-1.0,1.0,7.0,-3.0,-5.0,-7.0,-1.0
1.69516074263989e+18,-2.0,0.0,2.0,-11.0,-5.0,-2.0,6.0,-1.0
1.69516074263989e+18,0.0,0.0,-5.0,-7.0,-1.0,-1.0,-4.0,-2.0
1.69516074263989e+18,-4.0,-2.0,-2.0,4.0,-2.0,-6.0,-13.0,-2.0
1.69516074263989e+18,-1.0,-1.0,-1.0,-3.0,-4.0,0.0,0.0,-1.0
1.6951607426688732e+18,0.0,1.0,2.0,11.0,3.0,-4.0,-4.0,-3.0
1.6951607426688732e+18,-2.0,-2.0,5.0,1.0,-2.0,0.0,0.0,0.0
1.6951607426698726e+18,-2.0,-2.0,-6.0,6.0,1.0,1.0,2.0,0.0
1.6951607426708948e+18,-1.0,-2.0,-9.0,-18.0,-5.0,-1.0,-2.0,-2.0
1.6951607426828662e+18,0.0,3.0,1.0,-2.0,-1.0,0.0,-1.0,1.0
1.6951607426828662e+18,0.0,1.0,-2.0,0.0,-1.0,0.0,-2.0,0.0
1.6951607426838646e+18,-2.0,-4.0,-5.0,-9.0,-3.0,0.0,1.0,0.0
1.6951607426848653e+18,0.0,3.0,2.0,1.0,-1.0,-2.0,-2.0,-2.0
1.6951607427008548e+18,-2.0,-2.0,-3.0,-1.0,1.0,0.0,-1.0,0.0
1.6951607427008548e+18,-1.0,0.0,-4.0,-5.0,2.0,0.0,-1.0,0.0
1.6951607427228426e+18,1.0,-1.0,3.0,-7.0,-2.0,0.0,3.0,1.0
1.6951607427228426e+18,-2.0,-2.0,1.0,14.0,0.0,0.0,0.0,-2.0
1.6951607427228426e+18,-1.0,1.0,0.0,-6.0,0.0,-1.0,-2.0,-3.0
1.6951607427238413e+18,0.0,0.0,2.0,3.0,0.0,-3.0,-2.0,-2.0
1.6951607427268618e+18,1.0,0.0,1.0,3.0,0.0,1.0,2.0,1.0
1.6951607427268618e+18,0.0,-3.0,-2.0,2.0,-1.0,-1.0,-2.0,0.0
1.6951607427348367e+18,0.0,1.0,0.0,-6.0,-3.0,-1.0,-2.0,-3.0
1.6951607427348367e+18,-3.0,-3.0,-2.0,6.0,0.0,-2.0,-1.0,-1.0
1.695160742742833e+18,0.0,0.0,2.0,-1.0,-1.0,-1.0,1.0,-2.0
1.695160742742833e+18,-2.0,-2.0,-3.0,-8.0,-3.0,-1.0,0.0,-1.0
1.695160742757844e+18,-1.0,1.0,-1.0,0.0,1.0,2.0,2.0,2.0
1.695160742757844e+18,-3.0,0.0,-1.0,-3.0,-1.0,0.0,-2.0,0.0
1.6951607427598208e+18,0.0,-2.0,-3.0,-3.0,1.0,0.0,-1.0,0.0
1.6951607427598208e+18,-1.0,-2.0,3.0,4.0,-1.0,-1.0,-1.0,0.0
1.6951607427878042e+18,-2.0,-1.0,-2.0,-1.0,-1.0,-2.0,-3.0,-3.0
1.6951607427878042e+18,1.0,0.0,0.0,1.0,-4.0,-1.0,-1.0,0.0
1.6951607427948024e+18,0.0,-1.0,0.0,0.0,-1.0,-1.0,1.0,-2.0
1.6951607427958003e+18,-2.0,-2.0,-5.0,-3.0,-5.0,0.0,0.0,-2.0
1.6951607427958003e+18,-1.0,-1.0,-1.0,0.0,0.0,1.0,-2.0,2.0
1.6951607427958003e+18,-1.0,-2.0,-1.0,0.0,-1.0,-1.0,0.0,0.0
1.6951607428258053e+18,-2.0,-1.0,0.0,0.0,2.0,-1.0,-1.0,-2.0
1.6951607428258053e+18,-2.0,1.0,1.0,-2.0,-1.0,-1.0,-1.0,-2.0
1.6951607428267848e+18,0.0,-1.0,-1.0,-6.0,-4.0,-3.0,-2.0,-1.0
1.6951607428267848e+18,-1.0,0.0,-1.0,1.0,4.0,2.0,1.0,0.0
1.6951607428357778e+18,-1.0,-2.0,0.0,0.0,2.0,1.0,1.0,3.0
1.695160742836778e+18,0.0,-3.0,-1.0,6.0,2.0,-1.0,-1.0,-1.0
1.695160742836778e+18,0.0,0.0,0.0,-9.0,-10.0,-4.0,-2.0,-1.0
1.695160742836778e+18,0.0,0.0,-1.0,-2.0,-2.0,-3.0,-3.0,0.0
1.6951607428387766e+18,-2.0,-1.0,0.0,-1.0,3.0,2.0,0.0,1.0
1.6951607428387766e+18,1.0,-2.0,-2.0,-1.0,2.0,0.0,-1.0,-1.0
1.695160742847771e+18,0.0,0.0,-1.0,2.0,0.0,0.0,-2.0,-1.0
1.6951607428487708e+18,0.0,-2.0,-1.0,-4.0,-7.0,-3.0,-1.0,-2.0
1.6951607428497702e+18,0.0,-1.0,0.0,6.0,4.0,1.0,0.0,0.0
1.6951607428497702e+18,-1.0,-1.0,-1.0,-6.0,-1.0,1.0,0.0,0.0
1.6951607428707581e+18,1.0,0.0,-1.0,2.0,2.0,0.0,1.0,-1.0
1.6951607428707581e+18,-2.0,-1.0,-2.0,1.0,0.0,1.0,0.0,0.0
1.6951607428767542e+18,-1.0,0.0,0.0,0.0,-4.0,-1.0,-2.0,0.0
1.6951607428767542e+18,0.0,-3.0,-2.0,-2.0,-2.0,-1.0,-1.0,0.0
1.69516074288375e+18,-1.0,0.0,-1.0,0.0,-1.0,1.0,-1.0,-2.0
1.6951607428847532e+18,0.0,-1.0,-1.0,-2.0,1.0,-1.0,0.0,-2.0
1.6951607428927452e+18,0.0,0.0,0.0,-1.0,-2.0,-2.0,1.0,-1.0
1.6951607428927452e+18,-1.0,0.0,0.0,-3.0,0.0,-2.0,-1.0,0.0
1.6951607429107354e+18,-2.0,-1.0,0.0,1.0,1.0,-1.0,0.0,0.0
1.6951607429107354e+18,-1.0,-1.0,-2.0,1.0,1.0,0.0,1.0,0.0
1.6951607429107354e+18,-1.0,-3.0,0.0,0.0,-2.0,0.0,-2.0,0.0
1.6951607429107354e+18,0.0,0.0,-1.0,-3.0,0.0,0.0,-1.0,1.0
1.6951607429307233e+18,1.0,-1.0,0.0,-1.0,1.0,-1.0,-1.0,0.0
1.6951607429307233e+18,1.0,1.0,-2.0,-3.0,-2.0,-3.0,-1.0,-3.0
1.6951607429317228e+18,-1.0,-3.0,-1.0,5.0,0.0,-1.0,1.0,-2.0
1.6951607429317228e+18,-1.0,-2.0,-12.0,-4.0,0.0,-1.0,0.0,-2.0
1.6951607429437174e+18,-2.0,-1.0,0.0,7.0,3.0,0.0,1.0,-2.0
1.6951607429447178e+18,0.0,-1.0,-2.0,-1.0,-1.0,-1.0,-2.0,-1.0
1.6951607429527112e+18,0.0,1.0,3.0,-1.0,-3.0,-2.0,-2.0,-2.0
1.695160742953711e+18,-2.0,-1.0,0.0,-2.0,-1.0,0.0,-2.0,-2.0
1.6951607429756972e+18,0.0,-3.0,-2.0,-1.0,0.0,0.0,-1.0,1.0
1.6951607429756972e+18,-1.0,-1.0,1.0,0.0,0.0,-2.0,-2.0,0.0
1.6951607429766996e+18,0.0,-1.0,-2.0,-4.0,-1.0,-1.0,-2.0,-1.0
1.6951607429766996e+18,0.0,-1.0,4.0,-1.0,0.0,0.0,0.0,0.0
1.6951607429906888e+18,0.0,-1.0,-4.0,-1.0,-1.0,-1.0,-2.0,0.0
1.6951607429906888e+18,-1.0,0.0,4.0,1.0,0.0,0.0,-1.0,-1.0
1.695160742991691e+18,-2.0,0.0,-4.0,-4.0,-3.0,-1.0,-1.0,-1.0
1.695160742991691e+18,-2.0,0.0,-2.0,0.0,-2.0,0.0,-2.0,0.0
1.6951607430037033e+18,-2.0,-1.0,-1.0,1.0,-1.0,-3.0,-2.0,-2.0
1.6951607430037033e+18,0.0,-1.0,-1.0,-1.0,-2.0,0.0,-2.0,-1.0
1.695160743012678e+18,0.0,-2.0,-3.0,0.0,-2.0,-2.0,1.0,-3.0
1.695160743012678e+18,0.0,-1.0,1.0,0.0,-1.0,0.0,-1.0,-1.0
1.695160743027667e+18,1.0,1.0,-2.0,0.0,-1.0,1.0,1.0,-1.0
1.695160743027667e+18,-2.0,-2.0,0.0,0.0,-3.0,-1.0,-1.0,0.0
1.6951607430296666e+18,0.0,0.0,0.0,-1.0,-2.0,-2.0,0.0,0.0
1.6951607430296666e+18,-1.0,-2.0,1.0,0.0,0.0,-1.0,-1.0,-2.0
1.6951607430526536e+18,-1.0,-2.0,-1.0,0.0,0.0,0.0,-2.0,-1.0
1.6951607430526536e+18,1.0,-2.0,-3.0,0.0,0.0,0.0,0.0,2.0
1.6951607430526536e+18,-2.0,2.0,1.0,-2.0,0.0,1.0,-1.0,1.0
1.6951607430526536e+18,0.0,-1.0,0.0,-2.0,-2.0,-2.0,0.0,0.0
1.6951607430636465e+18,-1.0,-1.0,-1.0,-2.0,-2.0,-1.0,1.0,-1.0
1.6951607430646477e+18,-1.0,1.0,-1.0,1.0,1.0,-1.0,0.0,-3.0
1.6951607430726415e+18,-1.0,-1.0,-1.0,-1.0,-1.0,-1.0,-3.0,0.0
1.6951607430726415e+18,0.0,-1.0,0.0,0.0,-1.0,-2.0,1.0,-1.0
1.6951607430876334e+18,-2.0,-1.0,1.0,-2.0,-1.0,-1.0,-1.0,0.0
1.6951607430876334e+18,-2.0,0.0,0.0,-1.0,-1.0,0.0,0.0,-2.0
1.6951607430936522e+18,-2.0,-2.0,-1.0,0.0,1.0,-2.0,-2.0,0.0
1.6951607430946312e+18,-1.0,0.0,-3.0,0.0,-1.0,-1.0,-1.0,-2.0
1.695160743113641e+18,-1.0,1.0,-1.0,-2.0,-1.0,-1.0,0.0,-1.0
1.69516074311464e+18,-1.0,-5.0,2.0,-1.0,-1.0,0.0,-1.0,0.0
1.6951607431156206e+18,0.0,-1.0,-1.0,-1.0,-1.0,1.0,2.0,-1.0
1.6951607431156206e+18,-1.0,0.0,0.0,-1.0,-1.0,1.0,-1.0,0.0
1.695160743124634e+18,0.0,0.0,-2.0,0.0,-2.0,-1.0,0.0,-1.0
1.695160743124634e+18,-1.0,0.0,-2.0,0.0,-2.0,-1.0,-1.0,-1.0
1.6951607431495985e+18,-3.0,-1.0,0.0,-2.0,1.0,-1.0,-1.0,-1.0
1.6951607431495985e+18,-1.0,-2.0,1.0,0.0,0.0,-1.0,-1.0,-1.0
1.6951607431505997e+18,1.0,-1.0,-2.0,-1.0,-2.0,-1.0,-1.0,-2.0
1.6951607431505997e+18,-1.0,-1.0,-1.0,-2.0,-1.0,0.0,0.0,-2.0
1.695160743153618e+18,1.0,-1.0,0.0,0.0,-3.0,0.0,0.0,-1.0
1.695160743154596e+18,0.0,0.0,0.0,-1.0,0.0,0.0,0.0,-2.0
1.6951607431785843e+18,-1.0,-1.0,0.0,0.0,1.0,-1.0,-1.0,-1.0
1.6951607431785843e+18,-2.0,0.0,0.0,0.0,0.0,0.0,-3.0,0.0
1.6951607431795812e+18,0.0,1.0,-1.0,-1.0,-3.0,1.0,0.0,0.0
1.6951607431795812e+18,-3.0,-1.0,-1.0,-2.0,0.0,-1.0,-2.0,-1.0
1.6951607431836004e+18,-2.0,0.0,-2.0,-2.0,-1.0,-2.0,1.0,-2.0
1.6951607431845893e+18,-3.0,-1.0,-2.0,0.0,-1.0,-2.0,-1.0,-1.0
1.6951607432005686e+18,-1.0,0.0,0.0,-1.0,1.0,-2.0,0.0,0.0
1.6951607432005686e+18,0.0,-3.0,-2.0,0.0,0.0,-3.0,0.0,-1.0
1.6951607432154616e+18,-1.0,-1.0,1.0,0.0,0.0,0.0,-2.0,0.0
1.6951607432154616e+18,1.0,-1.0,-1.0,-2.0,1.0,-1.0,1.0,-1.0
1.6951607432174697e+18,0.0,-1.0,-1.0,-1.0,0.0,-1.0,-1.0,0.0
1.6951607432174697e+18,-1.0,1.0,0.0,0.0,-1.0,1.0,0.0,0.0
1.695160743237541e+18,-2.0,-3.0,-2.0,0.0,-1.0,0.0,-2.0,0.0
1.6951607432385216e+18,-1.0,0.0,-2.0,-1.0,-1.0,0.0,-2.0,-1.0
1.6951607432395295e+18,-1.0,-1.0,0.0,-1.0,-2.0,2.0,0.0,1.0
1.6951607432395295e+18,0.0,-1.0,-2.0,-2.0,-3.0,-1.0,-3.0,0.0
1.6951607432525809e+18,1.0,-1.0,0.0,-1.0,-2.0,0.0,-1.0,0.0
1.6951607432525809e+18,0.0,-1.0,-1.0,-1.0,-1.0,-1.0,0.0,1.0
1.6951607432605297e+18,-2.0,-2.0,-1.0,0.0,0.0,-2.0,-1.0,-3.0
1.6951607432605297e+18,-1.0,0.0,-2.0,-2.0,-1.0,-3.0,0.0,0.0
1.6951607432673106e+18,0.0,0.0,-1.0,0.0,-2.0,-2.0,0.0,1.0
1.6951607432673106e+18,-1.0,-1.0,-1.0,0.0,-1.0,-3.0,-1.0,-2.0
1.695160743274315e+18,-2.0,1.0,-2.0,-1.0,-1.0,-2.0,0.0,-1.0
1.695160743274315e+18,-1.0,-1.0,0.0,1.0,0.0,0.0,-2.0,1.0
1.69516074329056e+18,-2.0,0.0,0.0,-1.0,1.0,0.0,-1.0,-1.0
1.6951607432915717e+18,-1.0,-1.0,-2.0,-1.0,0.0,-1.0,-2.0,-1.0
1.69516074329256e+18,0.0,0.0,-1.0,-1.0,-2.0,1.0,-1.0,-1.0
1.69516074329256e+18,0.0,-1.0,-2.0,0.0,-2.0,0.0,-2.0,0.0
1.6951607433135473e+18,-1.0,-2.0,1.0,0.0,-1.0,-1.0,-1.0,0.0
1.6951607433145464e+18,-1.0,-1.0,-2.0,-1.0,0.0,0.0,-1.0,-1.0
1.6951607433155466e+18,0.0,0.0,-2.0,-1.0,-1.0,0.0,0.0,-2.0
1.6951607433155466e+18,0.0,-1.0,0.0,-2.0,-1.0,0.0,0.0,0.0
1.6951607433285384e+18,-1.0,-1.0,-1.0,0.0,0.0,0.0,-1.0,0.0
1.6951607433285384e+18,0.0,0.0,0.0,-1.0,0.0,-3.0,-1.0,-1.0
1.6951607433355356e+18,0.0,-2.0,-1.0,-1.0,1.0,0.0,-1.0,-1.0
1.6951607433355356e+18,-2.0,0.0,-1.0,1.0,0.0,-1.0,1.0,-2.0
1.6951607433575217e+18,-1.0,-2.0,-1.0,-2.0,0.0,-1.0,-1.0,0.0
1.6951607433705231e+18,-2.0,-1.0,0.0,0.0,-1.0,1.0,0.0,0.0
1.6951607433715256e+18,-1.0,0.0,-1.0,-1.0,0.0,-1.0,0.0,-2.0
1.695160743375518e+18,0.0,-1.0,-1.0,-2.0,-1.0,0.0,-1.0,-1.0
1.695160743376512e+18,-1.0,-1.0,0.0,0.0,-1.0,-2.0,0.0,-3.0
1.695160743376512e+18,-1.0,0.0,-1.0,-1.0,0.0,0.0,-3.0,0.0
1.695160743376512e+18,-1.0,-2.0,0.0,-1.0,-2.0,-1.0,-1.0,1.0
1.6951607433785121e+18,-2.0,-1.0,-1.0,0.0,1.0,-2.0,-1.0,-2.0
1.6951607433885315e+18,-1.0,0.0,-3.0,0.0,-2.0,1.0,1.0,-1.0
1.6951607433895068e+18,0.0,0.0,0.0,0.0,-2.0,-2.0,-1.0,0.0
1.695160743409499e+18,0.0,0.0,0.0,1.0,0.0,-2.0,-1.0,1.0
1.6951607434104922e+18,0.0,-1.0,0.0,1.0,0.0,-1.0,-3.0,-2.0
1.6951607434164887e+18,0.0,1.0,-1.0,-3.0,-2.0,-2.0,-1.0,-1.0
1.6951607434174884e+18,-1.0,-1.0,-3.0,1.0,-1.0,-1.0,0.0,-3.0
1.6951607434174884e+18,-2.0,2.0,2.0,-2.0,0.0,-2.0,-1.0,0.0
1.6951607434174884e+18,-1.0,-2.0,2.0,1.0,0.0,-1.0,1.0,-1.0
1.6951607434334774e+18,-2.0,-1.0,-2.0,1.0,1.0,-1.0,-1.0,-2.0
1.6951607434334774e+18,-2.0,-4.0,1.0,0.0,-1.0,-1.0,0.0,1.0
1.695160743434477e+18,1.0,-3.0,-12.0,-3.0,0.0,0.0,0.0,-2.0
1.6951607434354793e+18,-1.0,0.0,-3.0,-1.0,-1.0,-1.0,1.0,-2.0
1.695160743447473e+18,-2.0,-1.0,3.0,0.0,-2.0,-1.0,-1.0,-1.0
1.695160743447473e+18,0.0,-2.0,0.0,1.0,1.0,-1.0,1.0,-1.0
1.6951607434634596e+18,0.0,-1.0,0.0,-2.0,-3.0,-2.0,1.0,0.0
1.6951607434664607e+18,0.0,0.0,-1.0,-3.0,0.0,0.0,-2.0,-1.0
1.695160743470461e+18,-1.0,-1.0,-3.0,-3.0,-1.0,-1.0,0.0,0.0
1.695160743470461e+18,-1.0,0.0,5.0,0.0,-2.0,-1.0,0.0,-2.0
1.6951607434724554e+18,-2.0,-1.0,-6.0,-1.0,-2.0,-2.0,-2.0,-2.0
1.6951607434724554e+18,-1.0,0.0,0.0,-1.0,-1.0,-1.0,1.0,0.0
1.6951607434934464e+18,0.0,-1.0,1.0,1.0,-2.0,0.0,-1.0,-2.0
1.6951607434934464e+18,-1.0,0.0,-2.0,-1.0,-2.0,0.0,-1.0,-2.0
1.695160743494442e+18,-1.0,-1.0,4.0,0.0,0.0,-1.0,0.0,-1.0
1.695160743494442e+18,0.0,-1.0,-2.0,0.0,-1.0,-1.0,0.0,1.0
1.6951607435064346e+18,0.0,0.0,0.0,-2.0,1.0,1.0,-2.0,0.0
1.6951607435064346e+18,0.0,-1.0,-1.0,-1.0,-1.0,-1.0,-1.0,-1.0
1.6951607435214323e+18,0.0,0.0,2.0,-1.0,0.0,1.0,0.0,0.0
1.6951607435254292e+18,0.0,-1.0,-2.0,0.0,-1.0,0.0,0.0,0.0
1.695160743530426e+18,0.0,-1.0,0.0,-1.0,-1.0,-2.0,0.0,-1.0
1.695160743530426e+18,-1.0,2.0,-3.0,0.0,-2.0,-2.0,-1.0,-1.0
1.6951607435324206e+18,-2.0,-1.0,3.0,-1.0,1.0,0.0,-2.0,-1.0
1.6951607435324206e+18,-1.0,-1.0,-1.0,-1.0,0.0,0.0,-1.0,-1.0
1.695160743553409e+18,-1.0,-1.0,0.0,0.0,0.0,-2.0,0.0,1.0
1.695160743553409e+18,-2.0,0.0,-2.0,-1.0,-1.0,0.0,-2.0,0.0
1.6951607435544125e+18,1.0,-2.0,-1.0,-1.0,-2.0,-1.0,-1.0,-1.0
1.6951607435544125e+18,1.0,-1.0,0.0,-2.0,-3.0,-1.0,0.0,2.0
1.6951607435833915e+18,-1.0,0.0,-2.0,-1.0,2.0,1.0,-1.0,-1.0
1.6951607435833915e+18,-1.0,-1.0,-2.0,-2.0,-1.0,-2.0,0.0,0.0
1.6951607435853952e+18,0.0,-3.0,2.0,0.0,0.0,0.0,-2.0,-1.0
1.6951607435853952e+18,-2.0,-1.0,-2.0,0.0,-2.0,-2.0,-3.0,-1.0
1.69516074359039e+18,-1.0,-2.0,-1.0,0.0,-3.0,0.0,0.0,0.0
1.6951607435913884e+18,0.0,-1.0,-2.0,-2.0,1.0,-1.0,-1.0,-1.0
1.6951607435923866e+18,0.0,2.0,0.0,0.0,1.0,-1.0,-1.0,-1.0
1.6951607435923866e+18,-2.0,0.0,1.0,-1.0,-1.0,-1.0,-1.0,-1.0
1.6951607436193787e+18,0.0,0.0,-1.0,-2.0,-1.0,0.0,-2.0,-1.0
1.6951607436193787e+18,-1.0,-1.0,0.0,0.0,0.0,1.0,-1.0,0.0
1.6951607436293678e+18,0.0,-1.0,-1.0,0.0,-1.0,0.0,1.0,-1.0
1.6951607436303672e+18,-1.0,1.0,-1.0,0.0,1.0,-1.0,-1.0,-1.0
1.6951607436303672e+18,0.0,-1.0,-1.0,0.0,0.0,-2.0,0.0,0.0
1.6951607436303672e+18,-1.0,-1.0,1.0,-1.0,-1.0,-2.0,0.0,1.0
1.6951607436373673e+18,-1.0,0.0,0.0,-1.0,1.0,2.0,1.0,2.0
1.6951607436373673e+18,0.0,-2.0,0.0,0.0,2.0,2.0,0.0,0.0
1.695160743650352e+18,0.0,0.0,1.0,0.0,1.0,0.0,1.0,1.0
1.695160743650352e+18,2.0,1.0,1.0,-1.0,1.0,1.0,1.0,-1.0
1.6951607436523517e+18,0.0,0.0,-1.0,1.0,-1.0,-1.0,-1.0,0.0
1.6951607436523517e+18,0.0,0.0,-1.0,-1.0,-2.0,-1.0,0.0,-2.0
1.6951607436733448e+18,-2.0,-2.0,1.0,-1.0,2.0,0.0,-2.0,-1.0
1.6951607436733448e+18,-1.0,-2.0,-1.0,0.0,1.0,0.0,1.0,1.0
1.6951607436743388e+18,0.0,0.0,-2.0,0.0,-1.0,-1.0,-1.0,0.0
1.6951607436743388e+18,0.0,-1.0,0.0,0.0,2.0,1.0,0.0,-1.0
1.695160743695327e+18,1.0,0.0,0.0,-1.0,-1.0,-1.0,0.0,-1.0
1.695160743695327e+18,0.0,2.0,0.0,-2.0,0.0,1.0,0.0,0.0
1.6951607436993265e+18,0.0,0.0,-1.0,0.0,-1.0,-2.0,-1.0,-1.0
1.6951607436993265e+18,-1.0,1.0,0.0,-1.0,0.0,-2.0,-1.0,0.0
1.6951607437104538e+18,0.0,-2.0,0.0,0.0,-1.0,0.0,-1.0,1.0
1.6951607437104538e+18,0.0,-2.0,-2.0,1.0,-1.0,-1.0,0.0,0.0
1.6951607437123863e+18,0.0,-1.0,1.0,-1.0,-1.0,1.0,-2.0,-2.0
1.6951607437123863e+18,-1.0,0.0,-1.0,-2.0,-1.0,-1.0,0.0,-1.0
1.6951607437326502e+18,-1.0,1.0,0.0,-1.0,-1.0,2.0,0.0,-2.0
1.6951607437336105e+18,-1.0,0.0,-2.0,-2.0,1.0,-1.0,-3.0,0.0
1.6951607437346122e+18,-1.0,0.0,-1.0,-2.0,0.0,-1.0,-1.0,0.0
1.6951607437346122e+18,0.0,-1.0,0.0,0.0,-3.0,-2.0,-1.0,0.0
1.6951607437554877e+18,-1.0,0.0,-2.0,-1.0,1.0,0.0,-1.0,-1.0
1.6951607437554877e+18,-1.0,-1.0,-2.0,0.0,-1.0,0.0,-2.0,-2.0
1.6951607437574935e+18,-2.0,1.0,1.0,0.0,0.0,-1.0,0.0,2.0
1.6951607437574935e+18,-1.0,-1.0,0.0,0.0,-2.0,0.0,-1.0,-1.0
1.6951607437744835e+18,0.0,0.0,-1.0,1.0,-1.0,-2.0,1.0,-1.0
1.6951607437754847e+18,-2.0,0.0,-1.0,-2.0,-1.0,-2.0,0.0,-1.0
1.6951607437764826e+18,-2.0,-1.0,-1.0,-2.0,-3.0,-3.0,-1.0,-1.0
1.6951607437764826e+18,-1.0,0.0,0.0,-1.0,-2.0,-2.0,-2.0,0.0
1.695160743793472e+18,-1.0,-2.0,0.0,-1.0,1.0,0.0,1.0,-1.0
1.6951607437944712e+18,-2.0,-1.0,0.0,1.0,1.0,0.0,0.0,-1.0
1.6951607437954724e+18,1.0,-3.0,-1.0,-3.0,-3.0,-1.0,-2.0,-1.0
1.6951607437954724e+18,-1.0,-1.0,-1.0,0.0,4.0,2.0,-1.0,1.0
1.6951607438074714e+18,0.0,0.0,-2.0,-2.0,-2.0,-1.0,0.0,-1.0
1.6951607438084728e+18,1.0,-2.0,1.0,-1.0,-3.0,-1.0,0.0,-2.0
1.6951607438224563e+18,0.0,0.0,-1.0,3.0,4.0,2.0,-1.0,-1.0
1.6951607438224563e+18,-1.0,-1.0,-2.0,-3.0,-3.0,-4.0,-2.0,-1.0
1.6951607438314516e+18,-1.0,0.0,0.0,-1.0,-2.0,-1.0,-1.0,1.0
1.6951607438324567e+18,-2.0,-1.0,0.0,-2.0,-2.0,0.0,1.0,-1.0
1.6951607438324567e+18,0.0,0.0,-1.0,0.0,0.0,-2.0,-1.0,-2.0
1.6951607438334492e+18,-1.0,-2.0,0.0,-1.0,-6.0,1.0,1.0,0.0
1.6951607438694287e+18,0.0,-2.0,0.0,-4.0,3.0,2.0,1.0,-1.0
1.6951607438704287e+18,1.0,1.0,-1.0,2.0,3.0,1.0,0.0,2.0
1.6951607438714276e+18,0.0,-1.0,-1.0,1.0,5.0,-1.0,-3.0,-1.0
1.6951607438714276e+18,-2.0,-2.0,-2.0,-4.0,-2.0,-6.0,-7.0,-3.0
1.6951607438724357e+18,-2.0,0.0,0.0,0.0,-5.0,-4.0,-4.0,-1.0
1.6951607438724357e+18,0.0,-3.0,-5.0,-7.0,-6.0,2.0,10.0,0.0
1.6951607438824225e+18,-1.0,1.0,0.0,1.0,-4.0,-8.0,-17.0,-3.0
1.6951607438824225e+18,0.0,2.0,-1.0,4.0,3.0,3.0,7.0,-1.0
1.695160743897413e+18,-2.0,-4.0,-6.0,-2.0,-1.0,3.0,22.0,4.0
1.6951607438984128e+18,-1.0,-2.0,1.0,3.0,1.0,6.0,1.0,1.0
1.695160743906409e+18,0.0,-1.0,-1.0,-1.0,0.0,3.0,4.0,0.0
1.695160743906409e+18,0.0,1.0,1.0,1.0,-2.0,0.0,-2.0,-2.0
1.695160743920405e+18,-1.0,0.0,0.0,0.0,-3.0,-7.0,-14.0,-5.0
1.695160743921398e+18,0.0,-1.0,-1.0,0.0,-2.0,-2.0,-5.0,-1.0
1.6951607439223974e+18,-1.0,-3.0,-4.0,-4.0,-2.0,3.0,13.0,1.0
1.6951607439223974e+18,0.0,-1.0,0.0,2.0,3.0,-3.0,-5.0,0.0
1.6951607439363904e+18,1.0,1.0,-1.0,0.0,0.0,0.0,-3.0,-1.0
1.6951607439363904e+18,0.0,1.0,1.0,-5.0,-1.0,-3.0,-5.0,-3.0
1.6951607439373893e+18,-2.0,-1.0,2.0,0.0,-2.0,-2.0,-7.0,-1.0
1.6951607439373893e+18,-1.0,-2.0,-1.0,-2.0,-2.0,0.0,1.0,0.0
1.6951607439583754e+18,-2.0,-3.0,-2.0,-1.0,0.0,-3.0,-1.0,0.0
1.6951607439583754e+18,1.0,4.0,1.0,4.0,-1.0,-1.0,-4.0,1.0
1.695160743959377e+18,-1.0,1.0,3.0,1.0,1.0,2.0,2.0,-1.0
1.695160743959377e+18,0.0,-2.0,-5.0,-7.0,1.0,3.0,0.0,0.0
1.695160743980385e+18,-3.0,-2.0,5.0,1.0,-2.0,-5.0,0.0,-3.0
1.695160743980385e+18,2.0,2.0,-4.0,-1.0,-2.0,-5.0,-18.0,-1.0
1.6951607439823619e+18,-1.0,1.0,4.0,1.0,0.0,-6.0,0.0,0.0
1.6951607439823619e+18,1.0,5.0,4.0,4.0,-2.0,8.0,16.0,3.0
1.695160743986362e+18,-1.0,-6.0,-6.0,-7.0,-2.0,2.0,-8.0,0.0
1.695160743986362e+18,-3.0,-3.0,-4.0,-1.0,-3.0,-3.0,4.0,0.0
1.6951607439953564e+18,0.0,-1.0,2.0,0.0,-6.0,-3.0,-6.0,-2.0
1.6951607439953564e+18,-1.0,-2.0,3.0,4.0,-1.0,-1.0,-3.0,-1.0
1.6951607440103478e+18,2.0,4.0,-3.0,-2.0,1.0,-1.0,0.0,0.0
1.6951607440103478e+18,-2.0,0.0,-4.0,-8.0,0.0,-2.0,6.0,-2.0
1.6951607440183442e+18,-1.0,-6.0,-2.0,2.0,-1.0,-2.0,-5.0,-2.0
1.6951607440183442e+18,0.0,1.0,-8.0,-9.0,-1.0,-3.0,-3.0,1.0
1.6951607440323323e+18,0.0,-5.0,-2.0,5.0,-2.0,1.0,-2.0,-2.0
1.6951607440333348e+18,-1.0,1.0,7.0,2.0,0.0,1.0,-1.0,-1.0
1.6951607440343544e+18,2.0,7.0,2.0,-6.0,-3.0,1.0,3.0,1.0
1.6951607440343544e+18,1.0,1.0,1.0,4.0,7.0,3.0,-2.0,0.0
1.695160744046325e+18,-3.0,-6.0,-8.0,-11.0,-3.0,-1.0,1.0,1.0
1.6951607440473247e+18,2.0,7.0,8.0,10.0,4.0,1.0,3.0,3.0
1.695160744055322e+18,-1.0,3.0,-3.0,5.0,3.0,4.0,10.0,1.0
1.695160744055322e+18,0.0,5.0,5.0,-3.0,-2.0,-2.0,-4.0,0.0
1.6951607440694423e+18,1.0,4.0,15.0,5.0,-1.0,0.0,0.0,2.0
1.6951607440704317e+18,-8.0,-13.0,-23.0,-5.0,-5.0,-6.0,-7.0,-7.0
1.695160744093625e+18,3.0,7.0,1.0,1.0,1.0,1.0,1.0,3.0
1.695160744093625e+18,-5.0,-9.0,-13.0,-8.0,-2.0,-2.0,-3.0,-4.0
1.6951607440945984e+18,0.0,6.0,5.0,-2.0,-1.0,-7.0,-7.0,-2.0
1.6951607440945984e+18,-3.0,-5.0,2.0,-2.0,-1.0,0.0,3.0,0.0
1.6951607440991414e+18,-1.0,-1.0,-3.0,-4.0,-4.0,-5.0,-2.0,0.0
1.6951607440991414e+18,-5.0,-14.0,-5.0,2.0,4.0,-1.0,-1.0,-2.0
1.6951607441064087e+18,3.0,3.0,-2.0,1.0,-2.0,-1.0,-4.0,0.0
1.695160744107438e+18,2.0,-2.0,5.0,3.0,-2.0,2.0,2.0,2.0
1.6951607441235866e+18,5.0,17.0,2.0,-2.0,-3.0,-3.0,-3.0,-2.0
1.6951607441245883e+18,-6.0,-15.0,5.0,-2.0,1.0,-4.0,-7.0,-3.0
1.6951607441465367e+18,-1.0,2.0,-1.0,4.0,1.0,1.0,0.0,-1.0
1.6951607441465367e+18,1.0,2.0,-12.0,-10.0,-3.0,-4.0,-2.0,0.0
1.695160744147536e+18,-1.0,-4.0,-5.0,-8.0,0.0,2.0,1.0,0.0
1.695160744147536e+18,0.0,2.0,7.0,11.0,0.0,-1.0,-1.0,-1.0
1.695160744160536e+18,-3.0,-5.0,-2.0,5.0,1.0,1.0,-1.0,-1.0
1.6951607441615278e+18,2.0,8.0,3.0,-1.0,1.0,-1.0,0.0,-3.0
1.6951607441625428e+18,-10.0,-22.0,-1.0,7.0,2.0,0.0,-3.0,-2.0
1.6951607441625428e+18,0.0,6.0,7.0,-1.0,-4.0,-3.0,-2.0,-1.0
1.695160744183516e+18,-1.0,-4.0,-20.0,-13.0,-1.0,-2.0,1.0,-1.0
1.695160744184514e+18,2.0,-3.0,3.0,5.0,2.0,2.0,1.0,1.0
1.695160744185519e+18,0.0,5.0,-5.0,-4.0,-1.0,1.0,2.0,0.0
1.6951607441865231e+18,2.0,6.0,1.0,-1.0,-1.0,-3.0,-1.0,1.0
1.6951607442045074e+18,0.0,-1.0,0.0,-1.0,2.0,1.0,1.0,2.0
1.695160744205503e+18,-2.0,-2.0,0.0,-3.0,-3.0,-1.0,-1.0,-3.0
1.6951607442234926e+18,-10.0,-9.0,0.0,4.0,-1.0,2.0,2.0,-2.0
1.6951607442234926e+18,4.0,-1.0,-5.0,-4.0,-4.0,0.0,1.0,4.0
1.6951607442244992e+18,3.0,6.0,2.0,1.0,-2.0,-6.0,-3.0,0.0
1.6951607442255e+18,3.0,8.0,2.0,-1.0,-2.0,-2.0,-16.0,7.0
1.6951607442464804e+18,-11.0,-3.0,1.0,-5.0,-2.0,3.0,10.0,-6.0
1.6951607442464804e+18,0.0,1.0,-3.0,1.0,-2.0,1.0,-5.0,-1.0
1.6951607442464804e+18,-4.0,-2.0,4.0,-1.0,-2.0,2.0,1.0,-9.0
1.69516074424748e+18,-3.0,0.0,3.0,2.0,-2.0,-5.0,-4.0,0.0
1.6951607442484787e+18,3.0,-1.0,-3.0,1.0,-1.0,-4.0,-6.0,-3.0
1.6951607442524774e+18,-2.0,-7.0,-2.0,-4.0,-2.0,1.0,3.0,0.0
1.6951607442524774e+18,-4.0,1.0,-1.0,2.0,2.0,1.0,-1.0,2.0
1.6951607442534835e+18,-3.0,-7.0,-4.0,2.0,1.0,-1.0,2.0,-4.0
1.6951607442584722e+18,1.0,-1.0,-3.0,-4.0,0.0,0.0,-3.0,1.0
1.6951607442594806e+18,0.0,8.0,1.0,-1.0,-4.0,-4.0,-1.0,-3.0
1.6951607442764628e+18,4.0,2.0,6.0,1.0,0.0,5.0,8.0,3.0
1.6951607442774633e+18,-2.0,3.0,4.0,5.0,0.0,-7.0,-2.0,-6.0
1.6951607442774633e+18,0.0,-5.0,-9.0,-5.0,-2.0,0.0,-6.0,-2.0
1.6951607442784676e+18,0.0,6.0,-2.0,-3.0,-1.0,1.0,5.0,3.0
1.6951607442964506e+18,-5.0,-9.0,-4.0,0.0,0.0,0.0,-2.0,-3.0
1.69516074429745e+18,-1.0,-6.0,-1.0,-5.0,-1.0,-1.0,-3.0,-2.0
1.6951607442984494e+18,1.0,5.0,0.0,-4.0,0.0,0.0,-5.0,1.0
1.695160744299464e+18,-1.0,-1.0,2.0,9.0,-1.0,-6.0,-1.0,-4.0
1.6951607443104422e+18,-1.0,-4.0,-4.0,-3.0,0.0,0.0,3.0,-1.0
1.6951607443114432e+18,-2.0,-6.0,1.0,2.0,1.0,-4.0,-6.0,-2.0
1.6951607443344284e+18,2.0,-7.0,3.0,0.0,2.0,2.0,-11.0,1.0
1.6951607443354348e+18,1.0,2.0,-6.0,-2.0,4.0,13.0,20.0,3.0
1.6951607443354348e+18,-2.0,-5.0,-5.0,-1.0,-2.0,-2.0,-3.0,-2.0
1.6951607443364283e+18,-1.0,-2.0,-2.0,1.0,-1.0,-1.0,2.0,-1.0
1.6951607443374413e+18,-2.0,0.0,8.0,4.0,0.0,-3.0,3.0,0.0
1.6951607443374413e+18,-1.0,-5.0,-4.0,-4.0,-2.0,-7.0,-18.0,-3.0
1.6951607443814013e+18,1.0,5.0,2.0,-3.0,0.0,0.0,3.0,-2.0
1.6951607443814013e+18,0.0,0.0,-5.0,2.0,-2.0,3.0,4.0,0.0
1.6951607443814013e+18,1.0,0.0,1.0,-4.0,-1.0,-3.0,-1.0,0.0
1.6951607443824023e+18,-1.0,-2.0,0.0,-2.0,-3.0,-6.0,-11.0,-4.0
1.6951607443834007e+18,-1.0,-2.0,-1.0,-4.0,0.0,3.0,6.0,1.0
1.6951607443834007e+18,-3.0,-3.0,-12.0,-8.0,-5.0,-4.0,-6.0,-2.0
1.6951607443863997e+18,0.0,1.0,1.0,11.0,0.0,0.0,-4.0,-2.0
1.6951607443863997e+18,-2.0,-1.0,-10.0,-13.0,-3.0,-3.0,1.0,-1.0
1.6951607444003978e+18,-1.0,-1.0,16.0,18.0,5.0,-9.0,-6.0,-2.0
1.6951607444003978e+18,1.0,-2.0,5.0,-4.0,-6.0,12.0,3.0,3.0
1.6951607444093862e+18,0.0,-3.0,-2.0,-4.0,3.0,-4.0,-3.0,-4.0
1.6951607444093862e+18,-1.0,-1.0,-8.0,-1.0,0.0,0.0,2.0,-2.0
1.6951607444253765e+18,1.0,2.0,-9.0,-17.0,-3.0,-2.0,-4.0,-1.0
1.6951607444253765e+18,-5.0,-5.0,-3.0,11.0,2.0,-6.0,15.0,-2.0
1.6951607444263767e+18,0.0,-1.0,-7.0,10.0,-4.0,-18.0,-18.0,-4.0
1.695160744427378e+18,1.0,5.0,25.0,7.0,11.0,38.0,31.0,7.0
1.6951607444303741e+18,-1.0,-3.0,-21.0,-5.0,-1.0,-20.0,-3.0,-3.0
1.695160744431381e+18,1.0,3.0,3.0,-6.0,-13.0,39.0,5.0,0.0
1.6951607444393695e+18,2.0,0.0,-4.0,-3.0,25.0,14.0,15.0,10.0
1.6951607444393695e+18,0.0,-1.0,-7.0,1.0,8.0,-1.0,0.0,-3.0
1.6951607444543588e+18,-1.0,2.0,22.0,25.0,-5.0,0.0,2.0,2.0
1.6951607444543588e+18,1.0,-1.0,-5.0,-9.0,-12.0,-21.0,-3.0,0.0
1.6951607444553585e+18,-9.0,-1.0,3.0,-6.0,-12.0,-8.0,3.0,-4.0
1.6951607444563825e+18,-4.0,-3.0,-9.0,-14.0,-9.0,-15.0,-14.0,-7.0
1.695160744486347e+18,-2.0,-2.0,-7.0,-16.0,-6.0,2.0,-7.0,-4.0
1.695160744487342e+18,-1.0,-1.0,14.0,5.0,-4.0,-13.0,-8.0,-6.0
1.695160744487342e+18,7.0,4.0,-4.0,28.0,14.0,19.0,16.0,9.0
1.695160744487342e+18,-1.0,-7.0,-40.0,-23.0,9.0,-3.0,-6.0,-1.0
1.6951607444893384e+18,-5.0,-3.0,2.0,6.0,-4.0,5.0,-7.0,-5.0
1.695160744490344e+18,4.0,3.0,14.0,16.0,15.0,5.0,16.0,10.0
1.6951607444983334e+18,2.0,-1.0,0.0,-15.0,-11.0,-2.0,3.0,-1.0
1.6951607444983334e+18,-4.0,0.0,7.0,-14.0,-3.0,5.0,2.0,0.0
1.6951607445133256e+18,4.0,1.0,6.0,7.0,-2.0,-12.0,-2.0,-1.0
1.6951607445133256e+18,-1.0,0.0,7.0,12.0,5.0,-1.0,-11.0,-3.0
1.6951607445143268e+18,-3.0,-5.0,-3.0,-3.0,3.0,-5.0,-6.0,0.0
1.6951607445153308e+18,4.0,-1.0,1.0,5.0,-1.0,3.0,8.0,6.0
1.6951607445363123e+18,-3.0,-2.0,-9.0,3.0,-4.0,3.0,-5.0,-4.0
1.6951607445363123e+18,0.0,2.0,22.0,10.0,11.0,-3.0,4.0,1.0
1.695160744537312e+18,-6.0,-4.0,-20.0,-25.0,-21.0,-15.0,-17.0,-12.0
1.695160744537312e+18,2.0,2.0,0.0,2.0,-6.0,-8.0,-7.0,-1.0
1.6951607445503053e+18,3.0,8.0,6.0,-5.0,11.0,10.0,7.0,5.0
1.6951607445553052e+18,0.0,-1.0,15.0,22.0,7.0,-10.0,-18.0,-5.0
1.6951607445582986e+18,0.0,-1.0,-1.0,4.0,-4.0,6.0,4.0,0.0
1.6951607445582986e+18,-1.0,-1.0,-6.0,-13.0,-11.0,-11.0,-14.0,-3.0
1.6951607445732905e+18,-3.0,-1.0,25.0,3.0,-7.0,0.0,4.0,-2.0
1.69516074457429e+18,3.0,0.0,-39.0,-11.0,13.0,2.0,-4.0,0.0
1.69516074457429e+18,-4.0,-2.0,0.0,-12.0,2.0,6.0,15.0,3.0
1.695160744575295e+18,0.0,2.0,26.0,33.0,0.0,-5.0,-5.0,-2.0
1.6951607446032737e+18,-2.0,-7.0,-11.0,-15.0,-4.0,0.0,-10.0,2.0
1.6951607446032737e+18,-2.0,-3.0,-20.0,-9.0,-5.0,3.0,6.0,-2.0
1.695160744604277e+18,0.0,1.0,7.0,-4.0,-1.0,0.0,0.0,0.0
1.6951607446052818e+18,-2.0,-2.0,9.0,6.0,-5.0,-8.0,-7.0,-2.0
1.6951607446092705e+18,0.0,2.0,2.0,2.0,4.0,-2.0,-4.0,-1.0
1.6951607446092705e+18,-2.0,-2.0,-2.0,-7.0,-2.0,0.0,0.0,-3.0
1.6951607446222628e+18,0.0,2.0,4.0,12.0,-5.0,3.0,6.0,-1.0
1.6951607446232622e+18,-2.0,-7.0,0.0,-6.0,0.0,-9.0,-5.0,-1.0
1.6951607446482476e+18,1.0,3.0,1.0,26.0,9.0,9.0,1.0,1.0
1.6951607446482476e+18,-2.0,1.0,2.0,-13.0,1.0,6.0,6.0,1.0
1.6951607446502474e+18,-4.0,-6.0,-18.0,-30.0,-10.0,-9.0,-1.0,-5.0
1.6951607446502474e+18,0.0,3.0,17.0,22.0,6.0,2.0,-5.0,-1.0
1.6951607446552476e+18,-5.0,-4.0,-5.0,-6.0,-5.0,3.0,14.0,-2.0
1.6951607446552476e+18,-2.0,-2.0,-12.0,-16.0,-8.0,-7.0,-2.0,-5.0
1.6951607446632392e+18,2.0,0.0,26.0,35.0,2.0,-4.0,-13.0,-2.0
1.6951607446632392e+18,0.0,-3.0,-29.0,-33.0,-1.0,3.0,7.0,0.0
1.6951607446792307e+18,1.0,1.0,0.0,-4.0,2.0,1.0,-4.0,1.0
1.6951607446792307e+18,-2.0,-1.0,11.0,14.0,-3.0,-1.0,-3.0,-3.0
1.6951607446892493e+18,2.0,-2.0,-17.0,-32.0,-6.0,-3.0,-4.0,-2.0
1.6951607446902487e+18,-2.0,1.0,9.0,10.0,-1.0,-2.0,2.0,1.0
1.6951607447002212e+18,-3.0,-3.0,-13.0,-22.0,-2.0,1.0,-4.0,-2.0
1.6951607447012209e+18,-1.0,-1.0,-12.0,-19.0,-6.0,-4.0,-4.0,-2.0
1.6951607447022172e+18,0.0,0.0,11.0,17.0,3.0,3.0,2.0,2.0
1.6951607447032215e+18,1.0,1.0,11.0,5.0,-1.0,0.0,0.0,0.0
1.6951607447152138e+18,2.0,0.0,-2.0,22.0,1.0,-1.0,-2.0,0.0
1.6951607447162092e+18,-3.0,-1.0,-5.0,3.0,-2.0,-1.0,-1.0,-2.0
1.6951607447172132e+18,-1.0,-4.0,-15.0,-38.0,-4.0,-1.0,-1.0,0.0
1.6951607447172132e+18,-2.0,0.0,5.0,3.0,-3.0,-3.0,-3.0,-2.0
1.6951607447381957e+18,-4.0,-7.0,8.0,-4.0,-3.0,-4.0,0.0,-2.0
1.6951607447381957e+18,0.0,1.0,-14.0,-12.0,-1.0,-5.0,-8.0,-1.0
1.6951607447391997e+18,-1.0,0.0,18.0,31.0,4.0,4.0,8.0,0.0
1.695160744740201e+18,-1.0,0.0,-9.0,-5.0,-1.0,1.0,4.0,0.0
1.6951607447601874e+18,1.0,-6.0,-24.0,-36.0,-6.0,-4.0,-4.0,-1.0
1.695160744761191e+18,0.0,0.0,10.0,8.0,1.0,2.0,3.0,1.0
1.6951607447681792e+18,-1.0,1.0,-6.0,4.0,2.0,-2.0,-6.0,-2.0
1.6951607447691791e+18,-2.0,2.0,-3.0,0.0,-1.0,-3.0,-3.0,-2.0
1.6951607447761787e+18,3.0,3.0,2.0,-2.0,2.0,4.0,6.0,2.0
1.6951607447761787e+18,-3.0,-3.0,1.0,-3.0,1.0,-5.0,-9.0,-4.0
1.69516074477718e+18,-1.0,-1.0,0.0,7.0,5.0,-3.0,-7.0,-3.0
1.69516074477718e+18,1.0,0.0,-9.0,-23.0,-1.0,9.0,17.0,6.0
1.6951607447911703e+18,2.0,3.0,13.0,45.0,0.0,-2.0,-2.0,1.0
1.6951607447921784e+18,-1.0,-5.0,-13.0,-21.0,-5.0,-1.0,6.0,0.0
1.6951607447981668e+18,-1.0,1.0,1.0,-17.0,-3.0,-4.0,-5.0,-1.0
1.6951607447981668e+18,-5.0,-4.0,5.0,27.0,-1.0,-7.0,-9.0,-5.0
1.6951607448131533e+18,-1.0,2.0,-2.0,-11.0,9.0,-2.0,-7.0,-2.0
1.6951607448131533e+18,0.0,2.0,12.0,1.0,-2.0,4.0,10.0,4.0
1.6951607448141568e+18,-3.0,-3.0,-10.0,-6.0,-9.0,-4.0,-8.0,-4.0
1.6951607448151567e+18,0.0,-1.0,-1.0,-4.0,-1.0,2.0,-7.0,1.0
1.6951607448421407e+18,-2.0,1.0,11.0,15.0,-1.0,-3.0,-1.0,-4.0
1.6951607448421407e+18,0.0,-1.0,-3.0,-3.0,4.0,2.0,7.0,2.0
1.695160744851136e+18,1.0,3.0,1.0,-3.0,4.0,4.0,3.0,2.0
1.695160744852131e+18,0.0,2.0,4.0,4.0,1.0,-1.0,0.0,0.0
1.695160744853135e+18,-3.0,-4.0,-6.0,-16.0,-5.0,-9.0,-17.0,-4.0
1.695160744853135e+18,1.0,-1.0,2.0,11.0,2.0,2.0,15.0,3.0
1.6951607448661312e+18,0.0,-1.0,2.0,-1.0,-1.0,5.0,4.0,2.0
1.6951607448661312e+18,-1.0,-4.0,-5.0,2.0,-5.0,-9.0,-23.0,-9.0
1.6951607448881103e+18,1.0,3.0,-4.0,-6.0,4.0,12.0,30.0,6.0
1.69516074488911e+18,-1.0,-3.0,2.0,-4.0,-7.0,-6.0,-6.0,-2.0
1.6951607448901102e+18,1.0,1.0,4.0,8.0,4.0,3.0,10.0,-1.0
1.6951607448901102e+18,-2.0,-2.0,-4.0,-7.0,1.0,0.0,4.0,1.0
1.6951607449041024e+18,-2.0,-4.0,-7.0,-11.0,-11.0,-8.0,-13.0,-3.0
1.6951607449051016e+18,0.0,-2.0,-1.0,0.0,9.0,2.0,0.0,-4.0
1.6951607449061015e+18,-1.0,-2.0,0.0,4.0,-1.0,4.0,16.0,4.0
1.6951607449061015e+18,0.0,0.0,-1.0,10.0,0.0,1.0,8.0,0.0
1.6951607449180925e+18,0.0,1.0,-6.0,-17.0,0.0,1.0,0.0,-1.0
1.6951607449180925e+18,-2.0,1.0,8.0,29.0,0.0,-3.0,-4.0,-2.0
1.6951607449200955e+18,-1.0,-2.0,-3.0,-6.0,-3.0,-11.0,-21.0,-7.0
1.6951607449200955e+18,1.0,1.0,1.0,-2.0,3.0,5.0,9.0,2.0
1.6951607449400806e+18,-1.0,-2.0,-4.0,-5.0,1.0,0.0,0.0,0.0
1.6951607449400806e+18,0.0,-1.0,1.0,-1.0,-4.0,-5.0,-24.0,-4.0
1.6951607449490755e+18,1.0,1.0,2.0,1.0,4.0,10.0,27.0,4.0
1.6951607449490755e+18,-2.0,-2.0,7.0,9.0,-3.0,-1.0,-1.0,-3.0
1.695160744956085e+18,0.0,-2.0,-9.0,-1.0,-3.0,-2.0,1.0,-2.0
1.695160744956085e+18,-3.0,1.0,0.0,-4.0,0.0,-1.0,-6.0,1.0
1.6951607449570762e+18,1.0,-1.0,-7.0,-10.0,1.0,-2.0,-7.0,1.0
1.6951607449570762e+18,-1.0,-2.0,0.0,-12.0,-1.0,1.0,3.0,0.0
1.6951607449780641e+18,0.0,-2.0,5.0,17.0,-3.0,-3.0,-8.0,0.0
1.695160744979059e+18,-1.0,-2.0,-9.0,-18.0,-5.0,0.0,4.0,0.0
1.6951607449800579e+18,-1.0,-1.0,0.0,8.0,2.0,1.0,-1.0,1.0
1.6951607449800579e+18,1.0,-1.0,1.0,-1.0,-1.0,-2.0,0.0,-1.0
1.695160744992072e+18,-1.0,-3.0,-13.0,-19.0,3.0,2.0,0.0,-2.0
1.695160744992072e+18,-1.0,0.0,0.0,-6.0,-6.0,-1.0,-1.0,-1.0
1.6951607449990477e+18,-1.0,2.0,18.0,11.0,-1.0,-3.0,-2.0,-2.0
1.6951607449990477e+18,-5.0,-5.0,-21.0,-8.0,-3.0,-3.0,-9.0,-2.0
1.6951607450154593e+18,0.0,1.0,8.0,7.0,-1.0,0.0,0.0,0.0
1.6951607450154593e+18,-3.0,-3.0,-8.0,-17.0,-7.0,-2.0,2.0,-2.0
1.6951607450174659e+18,0.0,-1.0,-10.0,-11.0,-2.0,-4.0,-9.0,-2.0
1.6951607450174659e+18,-1.0,0.0,19.0,13.0,2.0,1.0,1.0,-1.0
1.6951607450306033e+18,-1.0,-3.0,-5.0,0.0,-2.0,0.0,2.0,2.0
1.6951607450306033e+18,0.0,0.0,-2.0,-2.0,3.0,1.0,1.0,-1.0
1.6951607450383311e+18,-1.0,-1.0,1.0,-8.0,-3.0,-2.0,-6.0,-2.0
1.695160745039339e+18,1.0,0.0,-10.0,-6.0,-3.0,-2.0,-3.0,-1.0
1.695160745060597e+18,-2.0,-1.0,4.0,5.0,2.0,1.0,1.0,0.0
1.695160745061589e+18,1.0,-1.0,-3.0,-2.0,-1.0,1.0,-2.0,-1.0
1.695160745067637e+18,-2.0,-3.0,-1.0,3.0,-2.0,-1.0,-2.0,-2.0
1.695160745067637e+18,1.0,-1.0,7.0,-1.0,-1.0,-2.0,0.0,1.0
1.6951607450747607e+18,-1.0,1.0,2.0,2.0,-1.0,-3.0,-3.0,-3.0
1.6951607450757565e+18,-2.0,-2.0,-5.0,-3.0,-1.0,0.0,0.0,0.0
1.6951607450927383e+18,-1.0,1.0,-4.0,1.0,-1.0,-2.0,-2.0,0.0
1.6951607451027313e+18,-1.0,0.0,0.0,6.0,1.0,3.0,0.0,-1.0
1.6951607451037668e+18,-3.0,-1.0,4.0,-3.0,-3.0,-2.0,-1.0,0.0
1.6951607451037668e+18,-1.0,-1.0,5.0,11.0,2.0,-2.0,0.0,0.0
1.6951607451047304e+18,-1.0,-2.0,-7.0,-1.0,-2.0,0.0,-3.0,0.0
1.6951607451047304e+18,0.0,0.0,-4.0,-7.0,0.0,0.0,0.0,0.0
1.6951607451207214e+18,-1.0,0.0,1.0,-1.0,1.0,1.0,0.0,0.0
1.6951607451217267e+18,-1.0,-2.0,0.0,15.0,-1.0,0.0,1.0,-1.0
1.6951607451437074e+18,1.0,-2.0,-8.0,-24.0,-1.0,0.0,-2.0,-1.0
1.6951607451437074e+18,-5.0,-1.0,2.0,7.0,3.0,0.0,1.0,-2.0
1.6951607451507095e+18,-7.0,-1.0,2.0,0.0,-2.0,-1.0,0.0,-2.0
1.6951607451517048e+18,-2.0,-1.0,-5.0,-5.0,1.0,1.0,0.0,1.0
1.6951607451527045e+18,3.0,3.0,14.0,16.0,0.0,-2.0,-3.0,-2.0
1.695160745153707e+18,1.0,-2.0,-4.0,-3.0,-2.0,-3.0,-2.0,-1.0
1.6951607451587003e+18,3.0,-1.0,-9.0,1.0,3.0,1.0,0.0,-1.0
1.6951607451587003e+18,-7.0,1.0,6.0,0.0,1.0,-2.0,-3.0,0.0
1.6951607451596992e+18,3.0,-1.0,0.0,5.0,-1.0,-1.0,0.0,1.0
1.6951607451607076e+18,-1.0,0.0,3.0,-3.0,-5.0,-3.0,0.0,-1.0
1.6951607451816937e+18,-1.0,1.0,0.0,1.0,2.0,2.0,2.0,-2.0
1.6951607451816937e+18,-1.0,-1.0,-1.0,-1.0,-1.0,1.0,2.0,-2.0
1.695160745205672e+18,-2.0,0.0,-5.0,3.0,0.0,1.0,-1.0,-1.0
1.6951607452126735e+18,0.0,-1.0,4.0,-8.0,-2.0,-2.0,-3.0,-2.0
1.6951607452136668e+18,-1.0,-1.0,1.0,4.0,0.0,-2.0,0.0,-1.0
1.6951607452136668e+18,4.0,-1.0,-5.0,-1.0,1.0,-1.0,-1.0,0.0
1.6951607452136668e+18,-3.0,-3.0,5.0,-4.0,0.0,0.0,2.0,0.0
1.6951607452136668e+18,-2.0,2.0,4.0,5.0,3.0,0.0,-2.0,1.0
1.6951607452346547e+18,1.0,4.0,3.0,-2.0,-3.0,-3.0,-1.0,-1.0
1.6951607452356554e+18,1.0,-5.0,2.0,4.0,1.0,-1.0,1.0,1.0
1.695160745236667e+18,-5.0,-2.0,-16.0,4.0,0.0,-5.0,-3.0,-2.0
1.695160745236667e+18,-1.0,1.0,14.0,-8.0,-2.0,0.0,-1.0,-1.0
1.695160745236667e+18,1.0,-1.0,2.0,1.0,-2.0,1.0,-1.0,0.0
1.6951607452376548e+18,1.0,1.0,-4.0,-2.0,-1.0,0.0,0.0,-1.0
1.6951607452566426e+18,-2.0,-1.0,11.0,17.0,1.0,0.0,-1.0,-1.0
1.6951607452566426e+18,0.0,-4.0,-15.0,-6.0,-2.0,0.0,0.0,0.0
1.6951607452576425e+18,0.0,0.0,1.0,1.0,0.0,-1.0,-3.0,-1.0
1.6951607452576425e+18,-2.0,0.0,8.0,1.0,-2.0,-1.0,2.0,-3.0
1.6951607452586412e+18,-3.0,-4.0,-14.0,-8.0,-5.0,-3.0,-2.0,-1.0
1.6951607452586412e+18,-1.0,0.0,-3.0,4.0,1.0,0.0,-1.0,0.0
1.6951607452796283e+18,-2.0,-5.0,-2.0,-5.0,0.0,1.0,1.0,1.0
1.6951607452796283e+18,-1.0,-2.0,-5.0,-3.0,-1.0,-1.0,-1.0,-1.0
1.6951607452936207e+18,0.0,-3.0,8.0,-2.0,-1.0,-1.0,0.0,-3.0
1.6951607452936207e+18,0.0,0.0,-8.0,-4.0,0.0,1.0,0.0,-2.0
1.6951607452946202e+18,-1.0,-4.0,0.0,-1.0,-4.0,-4.0,-4.0,-2.0
1.6951607452946202e+18,0.0,3.0,-6.0,-14.0,-2.0,-4.0,-3.0,1.0
1.6951607453166116e+18,-3.0,-3.0,-9.0,8.0,-2.0,-3.0,-1.0,-2.0
1.6951607453166116e+18,-1.0,-1.0,7.0,5.0,4.0,2.0,0.0,-1.0
1.6951607453166116e+18,0.0,0.0,-1.0,1.0,1.0,3.0,-1.0,1.0
1.6951607453166116e+18,1.0,3.0,5.0,1.0,-1.0,-1.0,-2.0,0.0
1.6951607453186058e+18,-1.0,1.0,-2.0,-9.0,-4.0,-1.0,0.0,-1.0
1.6951607453196086e+18,0.0,-1.0,-1.0,2.0,1.0,0.0,-1.0,-2.0
1.6951607453695788e+18,-1.0,-1.0,-2.0,-1.0,0.0,-1.0,-1.0,-1.0
1.6951607453695788e+18,-2.0,1.0,-7.0,-2.0,0.0,-1.0,1.0,-1.0
1.6951607453705787e+18,0.0,-2.0,9.0,-1.0,1.0,0.0,-2.0,0.0
1.6951607453705787e+18,0.0,-1.0,-5.0,-3.0,-2.0,-1.0,-2.0,-1.0
1.6951607453715768e+18,1.0,-1.0,-8.0,-6.0,-4.0,-4.0,-3.0,-3.0
1.6951607453715768e+18,0.0,-1.0,1.0,1.0,1.0,0.0,-1.0,-1.0
1.6951607453815703e+18,-3.0,-4.0,-3.0,3.0,5.0,2.0,4.0,0.0
1.6951607453815703e+18,-1.0,-2.0,-5.0,0.0,0.0,0.0,-1.0,-1.0
1.6951607453825692e+18,1.0,4.0,4.0,-4.0,-2.0,-3.0,-1.0,-2.0
1.6951607453825692e+18,-2.0,-1.0,2.0,2.0,-2.0,0.0,-2.0,-2.0
1.6951607453825692e+18,-1.0,2.0,-2.0,-2.0,-1.0,-1.0,-1.0,0.0
1.6951607453825692e+18,-1.0,-2.0,-3.0,-4.0,-2.0,-1.0,-3.0,0.0
1.6951607453975619e+18,1.0,-1.0,-1.0,1.0,-1.0,-1.0,0.0,0.0
1.6951607453985605e+18,1.0,0.0,1.0,2.0,-2.0,-1.0,-2.0,0.0
1.695160745399577e+18,0.0,1.0,4.0,-1.0,0.0,-2.0,0.0,-2.0
1.695160745399577e+18,-1.0,-3.0,-1.0,0.0,-2.0,0.0,2.0,0.0
1.6951607454205489e+18,0.0,-1.0,-1.0,0.0,3.0,1.0,-1.0,2.0
1.6951607454205489e+18,1.0,-2.0,4.0,0.0,-1.0,-2.0,-1.0,0.0
1.695160745421547e+18,-1.0,1.0,-4.0,-4.0,-2.0,0.0,-2.0,1.0
1.695160745422549e+18,-1.0,1.0,-1.0,0.0,-1.0,-1.0,0.0,-1.0
1.695160745435541e+18,-1.0,-2.0,-1.0,-1.0,0.0,-1.0,-1.0,-1.0
1.695160745435541e+18,-2.0,-2.0,-2.0,0.0,0.0,0.0,2.0,0.0
1.6951607454365407e+18,0.0,0.0,0.0,0.0,-3.0,-2.0,-2.0,-1.0
1.6951607454375375e+18,0.0,0.0,-2.0,1.0,-2.0,-2.0,-1.0,0.0
1.6951607454575265e+18,-1.0,0.0,-1.0,0.0,0.0,0.0,-1.0,-2.0
1.6951607454585272e+18,-2.0,-1.0,-1.0,0.0,0.0,1.0,-1.0,0.0
1.695160745459525e+18,-1.0,-1.0,0.0,-2.0,-2.0,1.0,1.0,0.0
1.695160745459525e+18,0.0,1.0,3.0,2.0,0.0,0.0,1.0,-1.0
1.6951607454805125e+18,1.0,-2.0,-5.0,-2.0,-1.0,0.0,-3.0,-1.0
1.6951607454805125e+18,-1.0,-1.0,6.0,1.0,0.0,0.0,-1.0,-2.0
1.695160745481515e+18,-1.0,-3.0,-10.0,-1.0,-1.0,-2.0,-2.0,0.0
1.6951607454825121e+18,0.0,-8.0,-8.0,0.0,1.0,0.0,1.0,1.0
1.695160745495504e+18,0.0,5.0,20.0,-1.0,-2.0,-1.0,-1.0,1.0
1.695160745495504e+18,1.0,14.0,-3.0,-7.0,-5.0,-5.0,-5.0,-3.0
1.6951607454965043e+18,-5.0,-17.0,10.0,7.0,6.0,3.0,0.0,1.0
1.6951607454975027e+18,1.0,9.0,1.0,-2.0,-4.0,-3.0,-4.0,-2.0
1.695160745533482e+18,-1.0,-5.0,-21.0,-2.0,-1.0,-1.0,-1.0,-1.0
1.695160745533482e+18,-2.0,0.0,8.0,-1.0,0.0,1.0,1.0,-1.0
1.695160745535482e+18,1.0,5.0,-1.0,-2.0,-3.0,-2.0,0.0,-1.0
1.695160745535482e+18,-1.0,0.0,-1.0,-1.0,-1.0,-2.0,-2.0,-1.0
1.695160745535482e+18,-2.0,-4.0,4.0,0.0,0.0,0.0,0.0,0.0
1.6951607455364813e+18,-2.0,-6.0,-4.0,1.0,3.0,1.0,-1.0,1.0
1.6951607455484736e+18,-1.0,5.0,-2.0,-3.0,-2.0,-1.0,-1.0,-2.0
1.6951607455484736e+18,-2.0,-4.0,1.0,0.0,0.0,0.0,-1.0,1.0
1.6951607455704735e+18,-2.0,2.0,-2.0,-1.0,-1.0,-1.0,-1.0,-2.0
1.6951607455704735e+18,-1.0,-4.0,-1.0,2.0,0.0,0.0,1.0,0.0
1.695160745571474e+18,-1.0,-1.0,-9.0,-4.0,-1.0,-1.0,-3.0,0.0
1.6951607455724925e+18,1.0,2.0,3.0,-1.0,-1.0,0.0,-2.0,-1.0
1.6951607455774712e+18,-4.0,-2.0,-1.0,0.0,-1.0,1.0,1.0,-1.0
1.6951607455774712e+18,-3.0,-2.0,-4.0,-2.0,-2.0,0.0,-2.0,-1.0
1.6951607455855076e+18,0.0,0.0,2.0,-1.0,-1.0,0.0,0.0,0.0
1.6951607455855076e+18,0.0,-4.0,1.0,1.0,-2.0,1.0,1.0,-2.0
1.6951607455925125e+18,-1.0,-1.0,-4.0,-1.0,-1.0,-1.0,0.0,0.0
1.6951607455925125e+18,0.0,-4.0,-2.0,1.0,-1.0,1.0,-1.0,-1.0
1.6951607456164908e+18,0.0,2.0,-1.0,-1.0,1.0,-2.0,-1.0,-2.0
1.6951607456184899e+18,-1.0,0.0,-2.0,-3.0,2.0,-2.0,-1.0,0.0
1.6951607456264858e+18,0.0,-1.0,1.0,0.0,-1.0,-1.0,0.0,-2.0
1.6951607456274867e+18,0.0,-2.0,-2.0,-1.0,-1.0,-2.0,0.0,-1.0
1.6951607456274867e+18,0.0,1.0,2.0,-1.0,-1.0,-2.0,-1.0,-1.0
1.6951607456284913e+18,-1.0,-1.0,-2.0,0.0,-1.0,0.0,-2.0,-2.0
1.6951607456464755e+18,-1.0,-2.0,-1.0,0.0,0.0,-2.0,-1.0,0.0
1.6951607456474744e+18,-1.0,-1.0,-3.0,-1.0,0.0,1.0,0.0,1.0
1.6951607456474744e+18,-1.0,1.0,0.0,-3.0,-1.0,0.0,0.0,1.0
1.6951607456484739e+18,0.0,-3.0,-1.0,0.0,-1.0,0.0,1.0,1.0
1.6951607456524708e+18,1.0,0.0,0.0,-2.0,-3.0,0.0,0.0,1.0
1.6951607456534702e+18,1.0,-2.0,-2.0,1.0,-1.0,0.0,-1.0,-1.0
1.695160745661465e+18,-1.0,0.0,0.0,-1.0,-1.0,1.0,-2.0,0.0
1.6951607456624653e+18,-3.0,1.0,-1.0,-1.0,-1.0,-2.0,-1.0,-2.0
1.6951607456774564e+18,0.0,-1.0,1.0,-1.0,-2.0,-1.0,0.0,-1.0
1.6951607456774564e+18,-1.0,-1.0,-2.0,-1.0,-1.0,-2.0,-2.0,0.0
1.6951607456784558e+18,0.0,0.0,2.0,-1.0,-1.0,1.0,-1.0,-1.0
1.6951607456784558e+18,-1.0,1.0,-2.0,-2.0,1.0,-1.0,-2.0,-2.0
1.6951607456984456e+18,-1.0,-2.0,-2.0,-1.0,-1.0,2.0,-2.0,0.0
1.6951607456994432e+18,-2.0,-2.0,-4.0,1.0,0.0,-1.0,2.0,-1.0
1.695160745700443e+18,-1.0,0.0,0.0,1.0,-1.0,-1.0,0.0,-2.0
1.695160745700443e+18,0.0,-2.0,-1.0,1.0,-1.0,-1.0,-1.0,0.0
1.6951607457124426e+18,0.0,-2.0,-2.0,-3.0,-1.0,-3.0,-1.0,-1.0
1.6951607457124426e+18,-1.0,-1.0,-3.0,-2.0,-1.0,-2.0,0.0,-2.0
1.695160745721433e+18,0.0,0.0,-1.0,-1.0,1.0,-2.0,-1.0,0.0
1.695160745721433e+18,0.0,-1.0,-1.0,-2.0,-1.0,-1.0,1.0,-3.0
1.695160745761408e+18,0.0,0.0,0.0,-2.0,0.0,1.0,-2.0,-1.0
1.6951607457624077e+18,-1.0,-2.0,0.0,0.0,-1.0,1.0,1.0,-3.0
1.6951607457624077e+18,-1.0,-3.0,-3.0,0.0,-1.0,0.0,-2.0,-1.0
1.6951607457634102e+18,-1.0,0.0,-1.0,-2.0,-3.0,-1.0,0.0,0.0
1.6951607457634102e+18,-1.0,1.0,-2.0,0.0,0.0,-1.0,-1.0,0.0
1.6951607457644063e+18,-2.0,-1.0,0.0,-2.0,-1.0,-1.0,0.0,-1.0
1.6951607457664067e+18,-1.0,0.0,-2.0,0.0,-1.0,0.0,-1.0,0.0
1.6951607457664067e+18,0.0,-1.0,1.0,-1.0,1.0,0.0,-1.0,-1.0
1.6951607457734016e+18,0.0,1.0,4.0,-1.0,-1.0,-2.0,-1.0,0.0
1.6951607457734016e+18,0.0,-1.0,-4.0,-1.0,-2.0,0.0,-1.0,-1.0
1.6951607457813978e+18,0.0,-1.0,0.0,0.0,-1.0,0.0,1.0,-1.0
1.6951607457813978e+18,0.0,-2.0,-2.0,0.0,0.0,0.0,0.0,0.0
1.6951607457973893e+18,-2.0,-1.0,-1.0,1.0,0.0,-1.0,0.0,-3.0
1.6951607457983892e+18,-3.0,-2.0,1.0,-1.0,1.0,0.0,-1.0,-2.0
1.6951607457993866e+18,0.0,0.0,-1.0,-2.0,0.0,0.0,1.0,-2.0
1.6951607458003855e+18,-1.0,-1.0,0.0,1.0,-1.0,0.0,-1.0,-1.0
1.6951607458203766e+18,0.0,-2.0,-3.0,0.0,-1.0,-1.0,0.0,0.0
1.6951607458213755e+18,1.0,0.0,0.0,2.0,-1.0,-1.0,0.0,0.0
1.6951607458223747e+18,0.0,0.0,-2.0,0.0,0.0,-1.0,-1.0,-1.0
1.6951607458223747e+18,-1.0,-1.0,0.0,-1.0,0.0,0.0,-1.0,0.0
1.6951607458323676e+18,-2.0,-2.0,-2.0,-2.0,-1.0,1.0,1.0,-1.0
1.6951607458323676e+18,0.0,-1.0,-1.0,-2.0,-2.0,-1.0,-2.0,-1.0
1.6951607458413624e+18,0.0,-2.0,1.0,-2.0,0.0,-1.0,-1.0,0.0
1.6951607458413624e+18,-2.0,0.0,-1.0,0.0,-1.0,-1.0,0.0,0.0
1.69516074586335e+18,-1.0,-2.0,-1.0,-1.0,0.0,1.0,-1.0,-2.0
1.6951607458643502e+18,1.0,0.0,0.0,1.0,0.0,-3.0,0.0,0.0
1.6951607458653522e+18,-2.0,1.0,-2.0,1.0,-2.0,1.0,-1.0,-1.0
1.6951607458653522e+18,-1.0,-2.0,-2.0,-1.0,0.0,1.0,-2.0,-1.0
1.6951607458793408e+18,-1.0,0.0,-2.0,-2.0,-1.0,0.0,1.0,-2.0
1.695160745897331e+18,-1.0,-1.0,1.0,-2.0,0.0,0.0,0.0,-1.0
1.6951607458993313e+18,0.0,-1.0,-2.0,0.0,-1.0,-1.0,0.0,-1.0
1.6951607459003295e+18,1.0,-1.0,-1.0,-1.0,-1.0,-2.0,0.0,-1.0
1.6951607459003295e+18,0.0,0.0,0.0,-1.0,1.0,-1.0,-1.0,0.0
1.6951607459003295e+18,1.0,0.0,1.0,0.0,1.0,1.0,0.0,-1.0
1.6951607459073262e+18,-2.0,-1.0,-1.0,-2.0,-1.0,-3.0,0.0,-1.0
1.6951607459083254e+18,-2.0,0.0,4.0,1.0,-2.0,-2.0,0.0,-2.0
1.69516074591732e+18,-1.0,-2.0,-8.0,-1.0,1.0,-1.0,-1.0,0.0
1.6951607459193188e+18,0.0,-1.0,2.0,1.0,-1.0,1.0,-2.0,1.0
1.6951607459233162e+18,1.0,-2.0,-5.0,-3.0,-1.0,-1.0,1.0,-2.0
1.6951607459233162e+18,0.0,1.0,1.0,-2.0,-1.0,-2.0,-2.0,-1.0
1.695160745939306e+18,0.0,0.0,3.0,1.0,-1.0,-2.0,-1.0,-2.0
1.695160745939306e+18,-2.0,-1.0,-1.0,-3.0,1.0,1.0,-1.0,-1.0
1.6951607459403067e+18,0.0,-2.0,2.0,0.0,0.0,-1.0,-1.0,-1.0
1.695160745941305e+18,-1.0,0.0,-1.0,0.0,0.0,0.0,-1.0,-2.0
1.6951607459522982e+18,-1.0,-2.0,-3.0,1.0,-1.0,-1.0,0.0,0.0
1.6951607459522982e+18,-1.0,1.0,-1.0,-2.0,-2.0,-1.0,-1.0,0.0
1.695160745960294e+18,-1.0,-1.0,2.0,-2.0,0.0,0.0,-1.0,-2.0
1.695160745961295e+18,-1.0,-3.0,-3.0,-1.0,-3.0,1.0,0.0,-2.0
1.6951607459822807e+18,-2.0,0.0,-1.0,-1.0,-1.0,0.0,0.0,0.0
1.6951607459832799e+18,-1.0,-2.0,-2.0,1.0,0.0,-2.0,-1.0,0.0
1.6951607459832799e+18,0.0,2.0,0.0,1.0,1.0,-1.0,-1.0,1.0
1.6951607459832799e+18,1.0,1.0,-4.0,-2.0,-1.0,-1.0,-1.0,0.0
1.6951607460022694e+18,-2.0,-1.0,0.0,0.0,-2.0,0.0,-1.0,0.0
1.6951607460032676e+18,0.0,-2.0,-1.0,-1.0,0.0,-1.0,-1.0,-1.0
1.6951607460032676e+18,0.0,0.0,-1.0,-1.0,-1.0,0.0,-1.0,0.0
1.6951607460032676e+18,-1.0,-1.0,-1.0,1.0,-2.0,-1.0,0.0,1.0
1.6951607460112625e+18,1.0,-2.0,-1.0,-2.0,-1.0,-1.0,-2.0,-2.0
1.6951607460112625e+18,-2.0,-3.0,-2.0,-1.0,0.0,-2.0,0.0,-1.0
1.6951607460372485e+18,-2.0,-2.0,0.0,0.0,0.0,-1.0,-1.0,-2.0
1.6951607460372485e+18,-1.0,-2.0,-1.0,-2.0,-1.0,0.0,1.0,0.0
1.6951607460382487e+18,1.0,0.0,2.0,1.0,-2.0,0.0,0.0,-2.0
1.6951607460382487e+18,-1.0,0.0,-1.0,0.0,-1.0,0.0,-1.0,0.0
1.6951607460412454e+18,0.0,0.0,0.0,1.0,2.0,0.0,0.0,0.0
1.6951607460412454e+18,0.0,0.0,0.0,-1.0,0.0,0.0,-1.0,-1.0
1.6951607460582364e+18,-1.0,-1.0,-1.0,0.0,0.0,-1.0,-1.0,-1.0
1.6951607460582364e+18,-2.0,1.0,-3.0,-1.0,-2.0,-2.0,-1.0,-1.0
1.6951607460592525e+18,0.0,-1.0,-2.0,-1.0,-1.0,-1.0,0.0,0.0
1.6951607460592525e+18,-2.0,-2.0,-2.0,-1.0,-1.0,-1.0,-1.0,-1.0
1.6951607460712512e+18,-1.0,1.0,-1.0,-1.0,0.0,-1.0,0.0,-1.0
1.6951607460722284e+18,-2.0,-3.0,-1.0,-2.0,-1.0,0.0,-1.0,-1.0
1.6951607460882196e+18,-1.0,-1.0,-1.0,-1.0,-1.0,0.0,0.0,-1.0
1.6951607460882196e+18,-1.0,-1.0,0.0,-1.0,-1.0,-1.0,1.0,0.0
1.6951607460952366e+18,-1.0,-2.0,0.0,-2.0,-1.0,-1.0,2.0,-1.0
1.6951607460952366e+18,0.0,-2.0,-2.0,1.0,-2.0,-2.0,-1.0,-1.0
1.695160746097214e+18,0.0,0.0,-1.0,-1.0,-3.0,0.0,-2.0,0.0
1.695160746097214e+18,0.0,-1.0,-2.0,1.0,-1.0,0.0,-1.0,-2.0
1.6951607461192028e+18,-1.0,-1.0,-1.0,-1.0,0.0,-1.0,-2.0,-1.0
1.6951607461192028e+18,0.0,-1.0,0.0,0.0,-1.0,0.0,-1.0,-3.0
1.6951607461202007e+18,0.0,-2.0,-1.0,-1.0,-2.0,-1.0,-1.0,-3.0
1.6951607461202007e+18,-1.0,0.0,-2.0,-1.0,0.0,0.0,0.0,-1.0
1.6951607461481843e+18,1.0,1.0,-1.0,-1.0,-1.0,1.0,0.0,0.0
1.6951607461481843e+18,-1.0,-9.0,4.0,4.0,1.0,0.0,0.0,1.0
1.695160746149184e+18,-2.0,0.0,-1.0,-2.0,-1.0,-1.0,-1.0,0.0
1.695160746149184e+18,-1.0,-1.0,0.0,-2.0,-2.0,-1.0,0.0,0.0
1.6951607461551798e+18,-2.0,-2.0,0.0,-3.0,-1.0,-2.0,-1.0,0.0
1.6951607461551798e+18,-1.0,3.0,-2.0,-3.0,0.0,0.0,-1.0,-2.0
1.6951607461571794e+18,0.0,0.0,0.0,0.0,-2.0,-2.0,0.0,-1.0
1.6951607461571794e+18,-1.0,-2.0,-2.0,0.0,1.0,-1.0,-1.0,1.0
1.6951607461781678e+18,-1.0,-1.0,-1.0,-2.0,-2.0,-1.0,-1.0,0.0
1.695160746183175e+18,-1.0,0.0,-1.0,-2.0,-1.0,-1.0,-1.0,-3.0
1.695160746183175e+18,0.0,0.0,1.0,1.0,1.0,0.0,-3.0,-1.0
1.6951607461841646e+18,-1.0,0.0,-1.0,-1.0,0.0,0.0,-2.0,-1.0
1.6951607462001764e+18,-1.0,-1.0,-1.0,2.0,0.0,-2.0,0.0,-1.0
1.6951607462011538e+18,0.0,2.0,-2.0,-1.0,0.0,-1.0,1.0,-1.0
1.6951607462021555e+18,0.0,-2.0,-1.0,0.0,1.0,-2.0,0.0,-1.0
1.6951607462021555e+18,-1.0,-1.0,-1.0,0.0,-2.0,-1.0,-1.0,1.0
1.6951607462161452e+18,-1.0,0.0,-1.0,-1.0,-1.0,1.0,1.0,-1.0
1.6951607462171497e+18,-1.0,-1.0,-1.0,0.0,-2.0,0.0,-1.0,-1.0
1.695160746229138e+18,-1.0,-3.0,0.0,0.0,0.0,-1.0,1.0,-1.0
1.695160746229138e+18,-1.0,-1.0,1.0,-2.0,0.0,-2.0,-1.0,-1.0
1.6951607462381327e+18,-1.0,-1.0,-1.0,-2.0,1.0,0.0,0.0,-1.0
1.6951607462381327e+18,0.0,1.0,-1.0,-1.0,1.0,0.0,0.0,-1.0
1.6951607462391324e+18,-1.0,0.0,-2.0,-1.0,-3.0,-1.0,-1.0,-1.0
1.6951607462391324e+18,1.0,-1.0,-1.0,1.0,-3.0,-1.0,-2.0,-1.0
1.6951607462625134e+18,-2.0,1.0,-1.0,0.0,-2.0,-2.0,-1.0,0.0
1.6951607462635123e+18,0.0,-3.0,-1.0,0.0,0.0,-1.0,-1.0,0.0
1.6951607462635123e+18,0.0,-1.0,-1.0,0.0,0.0,-1.0,0.0,1.0
1.6951607462635123e+18,0.0,-1.0,0.0,0.0,-1.0,0.0,-1.0,-1.0
1.6951607462745267e+18,1.0,1.0,-1.0,0.0,-2.0,-1.0,-2.0,0.0
1.6951607462745267e+18,0.0,-1.0,-1.0,-1.0,-4.0,0.0,-1.0,-1.0
1.6951607462891776e+18,0.0,0.0,0.0,-1.0,0.0,-1.0,-2.0,0.0
1.6951607462891776e+18,-1.0,0.0,-2.0,-1.0,-2.0,-1.0,0.0,0.0
1.6951607463055905e+18,-2.0,-1.0,0.0,-4.0,-1.0,-1.0,-1.0,0.0
1.6951607463055905e+18,-1.0,-2.0,-2.0,-1.0,1.0,0.0,-1.0,-1.0
1.6951607463111918e+18,-1.0,-2.0,-2.0,1.0,-1.0,-1.0,0.0,-1.0
1.6951607463121948e+18,0.0,-1.0,-1.0,-1.0,0.0,-2.0,0.0,-2.0
1.6951607463205238e+18,-1.0,-1.0,1.0,1.0,-2.0,-1.0,-1.0,-1.0
1.6951607463205238e+18,0.0,1.0,0.0,-2.0,-1.0,-2.0,-1.0,0.0
1.6951607463225198e+18,-3.0,0.0,-1.0,-3.0,-1.0,-1.0,0.0,-2.0
1.6951607463225198e+18,0.0,0.0,0.0,1.0,0.0,-1.0,0.0,0.0
1.6951607463345116e+18,-2.0,0.0,-1.0,1.0,0.0,0.0,0.0,-2.0
1.6951607463345116e+18,-1.0,1.0,-1.0,-2.0,-2.0,-1.0,-1.0,-1.0
1.6951607463435072e+18,0.0,-2.0,0.0,-1.0,-1.0,0.0,-2.0,1.0
1.6951607463435072e+18,-1.0,-1.0,-1.0,-1.0,0.0,0.0,0.0,-2.0
1.6951607463654935e+18,0.0,-2.0,-1.0,0.0,-1.0,0.0,0.0,-2.0
1.6951607463654935e+18,-1.0,-1.0,-1.0,-2.0,-1.0,-1.0,-1.0,0.0
1.6951607463664932e+18,0.0,0.0,-1.0,0.0,-1.0,-2.0,0.0,-1.0
1.6951607463674929e+18,-1.0,-1.0,-2.0,-1.0,-2.0,0.0,-1.0,-2.0
1.695160746380485e+18,0.0,0.0,-1.0,-2.0,1.0,-1.0,-1.0,-1.0
1.695160746380485e+18,-1.0,-1.0,-1.0,0.0,0.0,-2.0,-1.0,-1.0
1.6951607463814876e+18,-1.0,-1.0,0.0,-1.0,-1.0,1.0,1.0,0.0
1.6951607463824842e+18,0.0,0.0,-1.0,1.0,0.0,-2.0,-2.0,-1.0
1.695160746394478e+18,-1.0,-2.0,-1.0,0.0,-1.0,-3.0,-1.0,-2.0
1.695160746394478e+18,-1.0,1.0,-1.0,-2.0,1.0,-1.0,0.0,-2.0
1.6951607464014738e+18,-1.0,-2.0,-1.0,-3.0,-3.0,-2.0,-1.0,0.0
1.6951607464024776e+18,-2.0,-1.0,-1.0,0.0,-1.0,-1.0,-1.0,-1.0
1.695160746425462e+18,0.0,-1.0,-1.0,2.0,1.0,1.0,-2.0,1.0
1.695160746425462e+18,0.0,-1.0,0.0,1.0,-1.0,0.0,0.0,1.0
1.6951607464264604e+18,0.0,-1.0,-1.0,-1.0,0.0,0.0,-2.0,-1.0
1.6951607464274614e+18,-3.0,-1.0,0.0,-3.0,1.0,0.0,0.0,0.0
1.6951607464404508e+18,0.0,-1.0,-1.0,-1.0,-1.0,-3.0,0.0,0.0
1.6951607464404508e+18,0.0,0.0,-2.0,2.0,0.0,0.0,-1.0,0.0
1.6951607464414505e+18,0.0,0.0,-1.0,-1.0,-2.0,-2.0,-1.0,-1.0
1.6951607464424502e+18,-1.0,0.0,0.0,-1.0,0.0,-2.0,0.0,-1.0
1.6951607464553687e+18,0.0,-2.0,-1.0,-2.0,-3.0,1.0,-2.0,0.0
1.6951607464553687e+18,-2.0,0.0,-2.0,-1.0,-1.0,-2.0,-1.0,0.0
1.6951607464614339e+18,-1.0,0.0,-3.0,1.0,0.0,0.0,-1.0,-1.0
1.6951607464614339e+18,0.0,-2.0,-1.0,-1.0,-1.0,-1.0,-1.0,0.0
1.6951607464785477e+18,-1.0,1.0,0.0,-1.0,0.0,-2.0,0.0,-1.0
1.6951607464785477e+18,-1.0,-1.0,-2.0,-2.0,-1.0,-2.0,-1.0,-1.0
1.6951607464795471e+18,-1.0,0.0,-2.0,-1.0,0.0,-1.0,-1.0,-2.0
1.6951607464805468e+18,-1.0,-1.0,-1.0,0.0,-2.0,0.0,-1.0,-2.0
1.6951607465075338e+18,-1.0,-1.0,-1.0,0.0,0.0,-1.0,-2.0,-2.0
1.6951607465085146e+18,0.0,-1.0,0.0,0.0,-2.0,-1.0,1.0,0.0
1.695160746514514e+18,0.0,-3.0,-2.0,-1.0,0.0,-2.0,1.0,1.0
1.6951607465165082e+18,-1.0,-1.0,-1.0,-2.0,0.0,-1.0,-2.0,-1.0
1.6951607465165082e+18,0.0,1.0,-1.0,1.0,-2.0,1.0,1.0,0.0
1.6951607465165082e+18,-2.0,-1.0,-1.0,1.0,-1.0,0.0,-1.0,-1.0
1.6951607465305047e+18,0.0,-2.0,2.0,-2.0,-2.0,0.0,-2.0,0.0
1.6951607465314998e+18,-1.0,-1.0,0.0,0.0,0.0,-2.0,0.0,-2.0
1.6951607465454907e+18,-1.0,-2.0,1.0,-1.0,-1.0,-2.0,1.0,-1.0
1.6951607465464906e+18,-2.0,0.0,-1.0,-1.0,-1.0,-2.0,-1.0,-1.0
1.6951607465474913e+18,-1.0,0.0,0.0,-1.0,-1.0,0.0,0.0,0.0
1.6951607465484902e+18,0.0,-1.0,-2.0,0.0,0.0,0.0,0.0,-1.0
1.6951607465604828e+18,0.0,-1.0,-1.0,-1.0,-1.0,-2.0,-1.0,0.0
1.6951607465604828e+18,-1.0,-1.0,-1.0,0.0,-1.0,1.0,0.0,-1.0
1.695160746562481e+18,-1.0,-1.0,-1.0,1.0,0.0,-2.0,-2.0,-1.0
1.695160746562481e+18,-2.0,1.0,-1.0,-2.0,-2.0,-1.0,-1.0,-1.0
1.6951607465834685e+18,-2.0,0.0,-2.0,0.0,1.0,1.0,0.0,0.0
1.6951607465834685e+18,-1.0,-1.0,-1.0,0.0,0.0,-1.0,0.0,0.0
1.6951607465884654e+18,-2.0,-1.0,-1.0,0.0,-1.0,-1.0,-1.0,-2.0
1.6951607465894653e+18,-1.0,0.0,-1.0,1.0,-2.0,-2.0,-1.0,-1.0
1.6951607465974623e+18,0.0,0.0,-1.0,-2.0,-1.0,-2.0,-2.0,-1.0
1.6951607465974623e+18,1.0,0.0,0.0,-2.0,0.0,0.0,-1.0,-2.0
1.6951607465994813e+18,-2.0,0.0,-3.0,0.0,0.0,1.0,-1.0,-2.0
1.6951607465994813e+18,0.0,-1.0,-2.0,-1.0,1.0,1.0,-1.0,0.0
1.695160746620447e+18,-2.0,-2.0,0.0,-2.0,1.0,-1.0,-1.0,-1.0
1.695160746620447e+18,0.0,-2.0,-1.0,-3.0,1.0,-1.0,-1.0,-1.0
1.6951607466214474e+18,-1.0,-2.0,1.0,0.0,0.0,-2.0,-1.0,-1.0
1.6951607466224507e+18,-1.0,-1.0,1.0,-1.0,-2.0,0.0,-2.0,-2.0
1.6951607466436086e+18,0.0,-1.0,-2.0,0.0,0.0,-1.0,-1.0,-1.0
1.6951607466436086e+18,-1.0,0.0,-2.0,0.0,0.0,-1.0,0.0,1.0
1.6951607466446113e+18,-2.0,0.0,1.0,0.0,-1.0,0.0,2.0,-1.0
1.6951607466446113e+18,-2.0,0.0,1.0,0.0,3.0,1.0,2.0,-1.0
1.6951607466594952e+18,0.0,0.0,3.0,2.0,2.0,0.0,0.0,0.0
1.6951607466604946e+18,1.0,1.0,2.0,2.0,-1.0,0.0,0.0,-1.0
1.6951607466604946e+18,2.0,2.0,2.0,0.0,1.0,1.0,-1.0,1.0
1.6951607466604946e+18,0.0,-1.0,0.0,-1.0,0.0,1.0,0.0,-1.0
1.6951607466814833e+18,-1.0,-2.0,-1.0,-1.0,0.0,-1.0,0.0,-1.0
1.695160746682488e+18,-2.0,-1.0,0.0,-2.0,-1.0,-1.0,0.0,0.0
1.6951607466835064e+18,1.0,-1.0,1.0,-1.0,-2.0,-1.0,0.0,-1.0
1.6951607466835064e+18,1.0,-1.0,2.0,1.0,-1.0,-2.0,-1.0,1.0
1.695160746694487e+18,-2.0,0.0,-4.0,-2.0,0.0,-1.0,-1.0,-1.0
1.695160746694487e+18,-1.0,0.0,0.0,-2.0,0.0,1.0,-1.0,0.0
1.6951607467204613e+18,1.0,0.0,-1.0,-1.0,0.0,0.0,-1.0,1.0
1.6951607467214648e+18,-1.0,0.0,0.0,1.0,0.0,-1.0,0.0,-1.0
1.6951607467214648e+18,0.0,0.0,0.0,-1.0,-1.0,1.0,-1.0,-1.0
1.6951607467224668e+18,0.0,0.0,-1.0,0.0,-1.0,0.0,-1.0,0.0
1.6951607467224668e+18,-2.0,0.0,-2.0,-1.0,1.0,-1.0,0.0,-1.0
1.6951607467224668e+18,0.0,-2.0,-1.0,-2.0,-2.0,1.0,0.0,0.0
1.6951607467564398e+18,1.0,0.0,2.0,-1.0,0.0,0.0,-1.0,-1.0
1.6951607467574397e+18,-2.0,-2.0,1.0,-2.0,-1.0,0.0,-3.0,-1.0
1.6951607467584433e+18,-1.0,-2.0,-2.0,-2.0,0.0,-1.0,-1.0,-2.0
1.6951607467584433e+18,0.0,0.0,-2.0,-1.0,-2.0,0.0,0.0,-1.0
1.6951607467634378e+18,0.0,0.0,0.0,-1.0,-1.0,-1.0,-1.0,0.0
1.6951607467634378e+18,0.0,1.0,-1.0,-1.0,-2.0,-3.0,-1.0,-2.0
1.6951607467644562e+18,1.0,0.0,-1.0,-1.0,-4.0,-2.0,-1.0,-1.0
1.6951607467644562e+18,-1.0,1.0,1.0,4.0,5.0,2.0,0.0,1.0
1.6951607467774262e+18,0.0,-1.0,0.0,-1.0,1.0,1.0,4.0,1.0
1.6951607467784253e+18,-1.0,-1.0,-1.0,-3.0,-5.0,-2.0,-1.0,-2.0
1.6951607467884247e+18,0.0,1.0,0.0,1.0,5.0,3.0,-3.0,-1.0
1.6951607467924178e+18,0.0,0.0,-2.0,-3.0,-1.0,0.0,-1.0,-1.0
1.6951607468084096e+18,-1.0,-2.0,-1.0,3.0,0.0,-1.0,-1.0,0.0
1.6951607468094095e+18,0.0,-1.0,1.0,0.0,-2.0,0.0,0.0,2.0
1.6951607468094095e+18,-1.0,-2.0,-1.0,-2.0,-5.0,-1.0,1.0,-1.0
1.6951607468094095e+18,0.0,-1.0,-1.0,-4.0,-3.0,-1.0,-3.0,0.0
1.695160746814405e+18,1.0,0.0,0.0,-1.0,1.0,0.0,-2.0,-1.0
1.695160746814405e+18,-1.0,-3.0,-2.0,0.0,-1.0,-1.0,-1.0,-1.0
1.6951607468234002e+18,-2.0,-1.0,0.0,1.0,0.0,-1.0,-1.0,-1.0
1.6951607468234002e+18,0.0,-1.0,0.0,-1.0,-2.0,-2.0,-1.0,1.0
1.6951607468453865e+18,-1.0,-1.0,-1.0,-2.0,-6.0,-4.0,-3.0,-2.0
1.6951607468463872e+18,1.0,-1.0,-1.0,5.0,6.0,5.0,2.0,0.0
1.6951607468473866e+18,0.0,-2.0,-3.0,-3.0,-8.0,-3.0,-3.0,-1.0
1.6951607468473866e+18,-2.0,0.0,-2.0,-3.0,-3.0,-3.0,-5.0,-3.0
1.695160746868374e+18,-1.0,-4.0,-1.0,-4.0,-3.0,0.0,3.0,1.0
1.695160746868374e+18,0.0,1.0,1.0,0.0,0.0,1.0,5.0,0.0
1.6951607468693786e+18,0.0,2.0,2.0,4.0,5.0,2.0,9.0,1.0
1.6951607468693786e+18,-2.0,-4.0,-3.0,-5.0,-3.0,-3.0,0.0,-1.0
1.6951607468743703e+18,-3.0,-1.0,-1.0,-1.0,-2.0,-2.0,-7.0,-5.0
1.6951607468743703e+18,-2.0,0.0,1.0,-1.0,-2.0,-2.0,-3.0,-1.0
1.6951607468833687e+18,-1.0,-2.0,-2.0,-2.0,-2.0,-1.0,-3.0,0.0
1.6951607468833687e+18,1.0,0.0,0.0,-2.0,-1.0,-2.0,1.0,0.0
1.695160746898357e+18,3.0,7.0,2.0,-2.0,-2.0,1.0,-1.0,1.0
1.695160746898357e+18,-4.0,-10.0,-2.0,0.0,0.0,-1.0,-2.0,-2.0
1.6951607468993567e+18,-2.0,-1.0,0.0,0.0,-1.0,-3.0,-2.0,-1.0
1.695160746900356e+18,0.0,0.0,0.0,0.0,-1.0,0.0,-1.0,-1.0
1.6951607469203653e+18,-2.0,0.0,-1.0,-1.0,1.0,1.0,3.0,0.0
1.6951607469203653e+18,-1.0,0.0,-1.0,-2.0,-6.0,-3.0,-2.0,0.0
1.6951607469223427e+18,2.0,-2.0,1.0,-1.0,1.0,-1.0,5.0,1.0
1.6951607469223427e+18,0.0,1.0,0.0,2.0,3.0,-1.0,-2.0,1.0
1.695160746934336e+18,-4.0,-5.0,-1.0,2.0,1.0,-1.0,0.0,0.0
1.695160746934336e+18,1.0,3.0,-2.0,-6.0,-4.0,-3.0,-5.0,-1.0
1.6951607469576113e+18,-4.0,-7.0,-2.0,-4.0,-5.0,-10.0,-16.0,-7.0
1.6951607469576113e+18,1.0,4.0,3.0,6.0,6.0,8.0,13.0,3.0
1.695160746958535e+18,0.0,-3.0,0.0,-4.0,0.0,2.0,8.0,0.0
1.695160746958535e+18,-4.0,-3.0,-1.0,1.0,0.0,0.0,3.0,-1.0
1.6951607469715748e+18,-1.0,4.0,-3.0,-4.0,-1.0,-9.0,-28.0,-6.0
1.6951607469715748e+18,1.0,1.0,1.0,-4.0,-1.0,8.0,20.0,6.0
1.6951607469805263e+18,-2.0,-7.0,-4.0,3.0,-5.0,-4.0,-3.0,-3.0
1.6951607469805263e+18,1.0,1.0,0.0,0.0,3.0,2.0,8.0,0.0
1.6951607469835256e+18,0.0,-1.0,-3.0,-2.0,-1.0,2.0,4.0,0.0
1.6951607469885222e+18,-3.0,-6.0,-3.0,-9.0,-7.0,-9.0,-15.0,-6.0
1.695160746994518e+18,2.0,-1.0,-3.0,1.0,3.0,4.0,-1.0,1.0
1.695160746994518e+18,0.0,0.0,2.0,6.0,4.0,-2.0,-1.0,0.0
1.6951607470105306e+18,-1.0,1.0,-4.0,1.0,7.0,6.0,6.0,1.0
1.6951607470105306e+18,-1.0,-4.0,-2.0,-2.0,-1.0,-4.0,-6.0,-4.0
1.6951607470235036e+18,2.0,0.0,-4.0,1.0,-1.0,-1.0,-2.0,0.0
1.6951607470235036e+18,2.0,8.0,4.0,0.0,-1.0,-2.0,4.0,1.0
1.695160747031498e+18,-3.0,-2.0,9.0,5.0,-6.0,-6.0,-5.0,-2.0
1.695160747031498e+18,-5.0,-13.0,-5.0,-1.0,0.0,3.0,6.0,0.0
1.6951607470404974e+18,3.0,11.0,8.0,5.0,-2.0,-11.0,-18.0,-3.0
1.6951607470404974e+18,-4.0,-13.0,-5.0,5.0,8.0,10.0,16.0,2.0
1.695160747042492e+18,1.0,5.0,-1.0,-6.0,-3.0,2.0,6.0,2.0
1.695160747042492e+18,1.0,5.0,2.0,2.0,-2.0,0.0,-1.0,-2.0
1.695160747070563e+18,-4.0,-7.0,-10.0,-6.0,-2.0,-6.0,-9.0,-3.0
1.695160747070563e+18,1.0,1.0,-2.0,-5.0,-4.0,-3.0,-4.0,1.0
1.6951607470715425e+18,-6.0,-14.0,-5.0,3.0,0.0,3.0,5.0,0.0
1.695160747072538e+18,0.0,2.0,-5.0,-1.0,-1.0,-6.0,-9.0,-3.0
1.6951607470765576e+18,0.0,5.0,4.0,-3.0,4.0,7.0,6.0,2.0
1.6951607470775383e+18,0.0,4.0,3.0,3.0,-3.0,-5.0,-10.0,-4.0
1.6951607470855532e+18,-5.0,-13.0,-4.0,-6.0,-5.0,0.0,2.0,-2.0
1.6951607470855532e+18,5.0,10.0,-6.0,-2.0,0.0,-5.0,-6.0,0.0
1.6951607471005235e+18,-5.0,-8.0,2.0,1.0,-1.0,-1.0,1.0,-1.0
1.6951607471005235e+18,1.0,9.0,-6.0,-12.0,-7.0,-6.0,-7.0,-3.0
1.6951607471015245e+18,5.0,6.0,8.0,6.0,6.0,6.0,7.0,4.0
1.695160747102524e+18,1.0,13.0,0.0,-4.0,-3.0,-4.0,-2.0,-1.0
1.695160747122589e+18,1.0,2.0,1.0,-5.0,3.0,1.0,3.0,0.0
1.69516074712353e+18,-1.0,-2.0,1.0,-7.0,-1.0,0.0,-5.0,0.0
1.6951607471455163e+18,2.0,7.0,8.0,6.0,0.0,-2.0,0.0,0.0
1.6951607471465185e+18,0.0,-7.0,-5.0,-3.0,3.0,5.0,2.0,1.0
1.6951607471605489e+18,-1.0,4.0,-4.0,-4.0,-8.0,-7.0,-5.0,-2.0
1.69516074716151e+18,1.0,3.0,0.0,4.0,5.0,4.0,0.0,2.0
1.6951607471625385e+18,-1.0,2.0,-3.0,-4.0,0.0,-1.0,1.0,0.0
1.6951607471625385e+18,-1.0,0.0,6.0,2.0,-4.0,-2.0,-2.0,-3.0
1.69516074717536e+18,-2.0,-6.0,-2.0,1.0,0.0,1.0,0.0,0.0
1.69516074717536e+18,-1.0,-6.0,-4.0,-2.0,3.0,2.0,-2.0,-1.0
1.6951607471773637e+18,-3.0,-5.0,-4.0,-2.0,-2.0,-1.0,1.0,-2.0
1.6951607471773637e+18,2.0,-2.0,8.0,6.0,3.0,2.0,0.0,3.0
1.69516074719989e+18,-2.0,-4.0,-8.0,0.0,-2.0,-2.0,1.0,-1.0
1.69516074719989e+18,1.0,-3.0,2.0,-5.0,-3.0,-2.0,-2.0,0.0
1.6951607472008883e+18,-3.0,0.0,-8.0,-8.0,-3.0,-3.0,-3.0,0.0
1.6951607472008883e+18,-3.0,3.0,1.0,-1.0,-1.0,1.0,0.0,-2.0
1.695160747201886e+18,-2.0,-3.0,-2.0,-2.0,-1.0,2.0,2.0,-2.0
1.695160747201886e+18,1.0,3.0,1.0,2.0,0.0,-3.0,-5.0,-2.0
1.6951607472128786e+18,-7.0,-9.0,-5.0,-6.0,-5.0,-2.0,3.0,-3.0
1.695160747213882e+18,6.0,-6.0,2.0,2.0,0.0,-7.0,-10.0,-2.0
1.695160747228869e+18,-1.0,5.0,4.0,1.0,-1.0,3.0,5.0,0.0
1.695160747228869e+18,-4.0,-9.0,-5.0,-1.0,-3.0,-1.0,1.0,4.0
1.6951607472298688e+18,8.0,6.0,3.0,4.0,2.0,5.0,3.0,-6.0
1.6951607472308685e+18,-7.0,-7.0,-4.0,-3.0,-4.0,-10.0,-12.0,-7.0
1.6951607472708454e+18,-3.0,-1.0,3.0,-3.0,-2.0,6.0,10.0,0.0
1.6951607472718446e+18,1.0,1.0,-1.0,-1.0,-2.0,0.0,-2.0,3.0
1.6951607472718446e+18,-1.0,3.0,1.0,2.0,2.0,-2.0,-1.0,-3.0
1.6951607472728443e+18,-6.0,-9.0,-2.0,-1.0,-1.0,6.0,8.0,6.0
1.6951607472728443e+18,1.0,0.0,-2.0,-4.0,-2.0,-7.0,-6.0,-3.0
1.6951607472728443e+18,0.0,-1.0,1.0,3.0,1.0,-2.0,0.0,-2.0
1.6951607472728443e+18,-2.0,-2.0,-3.0,0.0,0.0,-4.0,-4.0,-1.0
1.6951607472738447e+18,-1.0,8.0,5.0,4.0,2.0,-2.0,-4.0,-5.0
1.6951607472808394e+18,0.0,-4.0,0.0,-1.0,-2.0,2.0,-2.0,2.0
1.6951607472818383e+18,-2.0,-3.0,-9.0,-9.0,-2.0,-2.0,-1.0,-4.0
1.695160747282838e+18,2.0,3.0,7.0,5.0,-1.0,-1.0,-4.0,1.0
1.695160747282838e+18,0.0,4.0,-2.0,-2.0,5.0,2.0,1.0,2.0
1.6951607473268124e+18,0.0,-1.0,2.0,6.0,3.0,3.0,4.0,2.0
1.6951607473278172e+18,-1.0,0.0,-1.0,-5.0,-3.0,-5.0,-7.0,-5.0
1.6951607473288123e+18,-2.0,2.0,-3.0,5.0,0.0,-7.0,-12.0,-1.0
1.6951607473288123e+18,-2.0,-7.0,-7.0,-13.0,-4.0,11.0,22.0,3.0
1.6951607473288123e+18,0.0,-1.0,-8.0,-2.0,-3.0,-11.0,-8.0,-4.0
1.6951607473298102e+18,-1.0,-1.0,8.0,8.0,-1.0,9.0,3.0,-2.0
1.6951607473408023e+18,0.0,-4.0,-3.0,-7.0,0.0,4.0,5.0,4.0
1.6951607473408023e+18,-2.0,-6.0,-3.0,-5.0,-3.0,-17.0,-11.0,-2.0
1.6951607473418043e+18,2.0,4.0,-1.0,12.0,3.0,4.0,1.0,1.0
1.6951607473418043e+18,-1.0,0.0,27.0,8.0,7.0,4.0,-2.0,2.0
1.6951607473438019e+18,0.0,5.0,9.0,-9.0,-3.0,4.0,3.0,1.0
1.6951607473438019e+18,0.0,-5.0,-49.0,-14.0,-5.0,-13.0,-17.0,-7.0
1.6951607473627901e+18,-4.0,-3.0,-2.0,1.0,-9.0,-1.0,12.0,12.0
1.6951607473627901e+18,1.0,3.0,33.0,25.0,-7.0,-14.0,-7.0,-11.0
1.69516074736479e+18,1.0,3.0,-12.0,7.0,-2.0,5.0,5.0,-3.0
1.69516074736479e+18,-7.0,-11.0,18.0,-12.0,7.0,-28.0,1.0,-5.0
1.695160747376782e+18,-4.0,-5.0,-61.0,-17.0,18.0,41.0,-8.0,-5.0
1.695160747376782e+18,0.0,-2.0,4.0,0.0,3.0,10.0,5.0,-1.0
1.6951607473857777e+18,2.0,2.0,14.0,-11.0,-18.0,-11.0,-2.0,2.0
1.6951607473857777e+18,-1.0,3.0,11.0,12.0,-6.0,4.0,-2.0,0.0
1.6951607474007703e+18,3.0,5.0,20.0,-1.0,-10.0,-24.0,-9.0,-3.0
1.6951607474017692e+18,-1.0,-1.0,-20.0,-3.0,12.0,-1.0,-2.0,0.0
1.6951607474017692e+18,0.0,-3.0,10.0,9.0,9.0,3.0,14.0,3.0
1.6951607474017692e+18,3.0,3.0,-10.0,-18.0,-8.0,12.0,6.0,4.0
1.695160747422756e+18,-4.0,-7.0,23.0,-3.0,0.0,-4.0,0.0,-4.0
1.695160747422756e+18,1.0,3.0,-15.0,-7.0,-19.0,-7.0,-3.0,-5.0
1.6951607474247557e+18,-3.0,-2.0,-22.0,2.0,4.0,-41.0,-32.0,-6.0
1.6951607474247557e+18,2.0,4.0,21.0,17.0,23.0,61.0,49.0,15.0
1.695160747439746e+18,4.0,3.0,19.0,15.0,4.0,16.0,11.0,-4.0
1.6951607474407498e+18,-3.0,-4.0,-20.0,-25.0,-3.0,-11.0,-9.0,4.0
1.6951607474457426e+18,1.0,-4.0,-24.0,0.0,-5.0,10.0,28.0,7.0
1.6951607474467466e+18,-5.0,-2.0,25.0,28.0,-4.0,-13.0,-19.0,-13.0
1.6951607474667315e+18,0.0,4.0,33.0,15.0,3.0,-14.0,0.0,2.0
1.6951607474677315e+18,1.0,-4.0,-20.0,-11.0,-1.0,10.0,8.0,1.0
1.695160747483721e+18,1.0,0.0,3.0,-6.0,7.0,9.0,7.0,2.0
1.695160747483721e+18,2.0,1.0,-2.0,-1.0,-2.0,0.0,-5.0,-1.0
1.6951607474847227e+18,-3.0,-8.0,-34.0,-28.0,-13.0,-19.0,-13.0,-5.0
1.6951607474847227e+18,-7.0,-5.0,-4.0,9.0,5.0,3.0,-2.0,-5.0
1.695160747485721e+18,-2.0,-2.0,6.0,-8.0,2.0,0.0,-7.0,-3.0
1.695160747485721e+18,-5.0,0.0,12.0,16.0,-9.0,-4.0,-9.0,-5.0
1.6951607475047094e+18,1.0,-3.0,8.0,5.0,-8.0,-13.0,-12.0,-1.0
1.6951607475047094e+18,1.0,1.0,8.0,-6.0,0.0,-2.0,1.0,2.0
1.6951607475127045e+18,-2.0,-3.0,-31.0,-16.0,-7.0,10.0,-2.0,-3.0
1.6951607475127045e+18,0.0,-1.0,-4.0,-2.0,2.0,-12.0,-17.0,-4.0
1.695160747536551e+18,-1.0,4.0,20.0,9.0,4.0,13.0,20.0,5.0
1.695160747536551e+18,1.0,1.0,12.0,-5.0,-5.0,-2.0,-13.0,2.0
1.6951607475379727e+18,-2.0,-4.0,-25.0,0.0,-8.0,-9.0,-5.0,-5.0
1.6951607475379727e+18,-2.0,0.0,5.0,-18.0,-10.0,0.0,-7.0,-3.0
1.6951607475434532e+18,-3.0,-4.0,-21.0,-20.0,-13.0,-5.0,-9.0,-5.0
1.6951607475434532e+18,4.0,-2.0,7.0,14.0,17.0,6.0,10.0,6.0
1.6951607475444536e+18,3.0,7.0,36.0,35.0,20.0,7.0,2.0,4.0
1.6951607475454523e+18,-3.0,-5.0,-19.0,10.0,-7.0,-10.0,-16.0,-3.0
1.6951607475664404e+18,2.0,-1.0,-1.0,-14.0,1.0,-1.0,1.0,-2.0
1.6951607475664404e+18,-2.0,0.0,8.0,9.0,-12.0,-6.0,5.0,-2.0
1.69516074756744e+18,-1.0,-4.0,6.0,-7.0,-6.0,-2.0,-11.0,-2.0
1.6951607475684403e+18,-1.0,-3.0,-28.0,-13.0,3.0,0.0,2.0,1.0
1.6951607475894267e+18,0.0,3.0,16.0,-3.0,0.0,-1.0,-3.0,1.0
1.695160747605418e+18,-2.0,-2.0,-14.0,-11.0,3.0,-1.0,3.0,-1.0
1.6951607476064174e+18,-1.0,2.0,17.0,24.0,7.0,4.0,-5.0,-2.0
1.695160747607418e+18,-2.0,-1.0,-9.0,-24.0,-4.0,-3.0,7.0,2.0
1.695160747607418e+18,-1.0,-2.0,-5.0,29.0,3.0,-1.0,-5.0,-4.0
1.6951607476084227e+18,0.0,4.0,3.0,-1.0,2.0,3.0,4.0,1.0
1.6951607476114143e+18,-2.0,-7.0,-6.0,-9.0,-2.0,-3.0,-1.0,-3.0
1.6951607476114143e+18,4.0,6.0,31.0,35.0,2.0,7.0,12.0,6.0
1.6951607476264061e+18,-4.0,-8.0,-35.0,-32.0,-1.0,-7.0,-23.0,-8.0
1.6951607476264061e+18,-3.0,-2.0,-7.0,-22.0,-3.0,-1.0,4.0,-3.0
1.6951607476274058e+18,0.0,1.0,2.0,0.0,-2.0,5.0,7.0,0.0
1.695160747628417e+18,-1.0,1.0,8.0,1.0,-3.0,-5.0,8.0,0.0
1.6951607476414044e+18,3.0,2.0,-3.0,16.0,8.0,6.0,17.0,6.0
1.6951607476423967e+18,-4.0,-4.0,-14.0,-20.0,-4.0,-5.0,-15.0,-5.0
1.6951607476433953e+18,-2.0,0.0,6.0,5.0,-5.0,-3.0,-1.0,2.0
1.6951607476433953e+18,3.0,3.0,3.0,14.0,6.0,3.0,0.0,1.0
1.6951607476794903e+18,-1.0,-2.0,-8.0,-15.0,9.0,3.0,-2.0,1.0
1.6951607476794903e+18,-4.0,-4.0,1.0,-12.0,-26.0,-10.0,-5.0,-6.0
1.6951607476804892e+18,1.0,2.0,-10.0,-30.0,10.0,3.0,0.0,0.0
1.6951607476804892e+18,-2.0,-6.0,-25.0,-12.0,0.0,3.0,3.0,-2.0
1.69516074768149e+18,-1.0,5.0,21.0,26.0,7.0,3.0,4.0,2.0
1.69516074768149e+18,7.0,3.0,-8.0,-12.0,-6.0,-5.0,-2.0,1.0
1.6951607477016067e+18,-4.0,-6.0,15.0,27.0,5.0,3.0,-4.0,-1.0
1.695160747702606e+18,1.0,5.0,-1.0,-11.0,-1.0,-7.0,-15.0,-5.0
1.695160747702606e+18,1.0,2.0,0.0,-4.0,0.0,2.0,4.0,1.0
1.695160747702606e+18,0.0,2.0,16.0,27.0,10.0,6.0,-5.0,3.0
1.6951607477156065e+18,-1.0,-3.0,-23.0,-21.0,-15.0,-16.0,-34.0,-11.0
1.6951607477166395e+18,5.0,-3.0,3.0,7.0,-5.0,-3.0,-7.0,-3.0
1.6951607477305416e+18,-6.0,-7.0,0.0,1.0,-13.0,-9.0,8.0,0.0
1.6951607477315346e+18,0.0,3.0,7.0,16.0,18.0,15.0,22.0,5.0
1.695160747732533e+18,0.0,-6.0,-8.0,1.0,0.0,0.0,-11.0,-1.0
1.695160747732533e+18,-5.0,-1.0,-1.0,-7.0,-1.0,0.0,-3.0,-3.0
1.6951607477535224e+18,-1.0,-2.0,-4.0,-3.0,-5.0,-6.0,-12.0,-6.0
1.6951607477545244e+18,0.0,-7.0,-9.0,-3.0,-2.0,-9.0,-11.0,0.0
1.6951607477695137e+18,-1.0,8.0,1.0,-11.0,-2.0,1.0,17.0,0.0
1.6951607477755428e+18,0.0,-12.0,2.0,4.0,4.0,8.0,9.0,2.0
1.6951607477925012e+18,4.0,5.0,13.0,2.0,3.0,2.0,-1.0,2.0
1.6951607477935014e+18,-3.0,2.0,-8.0,13.0,-7.0,-4.0,-1.0,-3.0
1.6951607477935014e+18,-1.0,-1.0,-4.0,0.0,3.0,5.0,6.0,5.0
1.6951607477955e+18,-2.0,-1.0,-4.0,8.0,-3.0,-8.0,-6.0,-5.0
1.6951607477965053e+18,2.0,-2.0,-6.0,-19.0,-10.0,8.0,19.0,6.0
1.695160747797499e+18,-4.0,-3.0,5.0,21.0,17.0,-2.0,-7.0,-4.0
1.6951607478444708e+18,0.0,-2.0,-5.0,-29.0,-14.0,-13.0,-22.0,-5.0
1.695160747845471e+18,-3.0,2.0,3.0,13.0,2.0,-1.0,9.0,-1.0
1.6951607478464704e+18,-2.0,-2.0,-6.0,-5.0,-3.0,4.0,-1.0,8.0
1.6951607478464704e+18,2.0,-4.0,-6.0,-15.0,-10.0,1.0,16.0,0.0
1.6951607478474708e+18,-1.0,4.0,1.0,5.0,-5.0,-3.0,12.0,3.0
1.6951607478474708e+18,1.0,-7.0,-9.0,-18.0,3.0,-5.0,-10.0,-2.0
1.6951607478954427e+18,-6.0,0.0,-1.0,-4.0,3.0,-6.0,-22.0,-9.0
1.695160747896442e+18,-3.0,-3.0,-1.0,5.0,3.0,6.0,8.0,2.0
1.6951607479044424e+18,0.0,0.0,4.0,8.0,10.0,15.0,48.0,12.0
1.6951607479054377e+18,-5.0,-2.0,0.0,1.0,-3.0,-2.0,0.0,-5.0
1.6951607479064356e+18,0.0,0.0,0.0,1.0,-3.0,0.0,-8.0,0.0
1.6951607479064356e+18,1.0,4.0,4.0,3.0,3.0,-7.0,-12.0,-3.0
1.6951607479074373e+18,1.0,1.0,-11.0,-34.0,-8.0,-5.0,-17.0,-4.0
1.6951607479074373e+18,-4.0,-2.0,4.0,20.0,-5.0,-1.0,3.0,-2.0
1.6951607479584054e+18,-1.0,-8.0,9.0,14.0,-4.0,-6.0,-9.0,-3.0
1.6951607479584054e+18,3.0,1.0,-10.0,-15.0,-1.0,1.0,-1.0,4.0
1.695160747959406e+18,4.0,4.0,-9.0,-20.0,-12.0,-4.0,-5.0,-2.0
1.695160747959406e+18,-2.0,-2.0,5.0,13.0,10.0,0.0,-4.0,-1.0
1.6951607479893875e+18,-3.0,-1.0,11.0,11.0,-1.0,2.0,4.0,-1.0
1.6951607479953856e+18,-3.0,-6.0,-16.0,-15.0,-6.0,-5.0,-6.0,-2.0
1.6951607479963848e+18,0.0,-1.0,0.0,6.0,3.0,1.0,4.0,0.0
1.6951607479973842e+18,0.0,0.0,-6.0,-15.0,-8.0,0.0,-3.0,0.0
1.6951607479973842e+18,0.0,2.0,5.0,2.0,-1.0,-2.0,-4.0,1.0
1.6951607479973842e+18,-3.0,-2.0,0.0,1.0,10.0,5.0,1.0,1.0
1.6951607479973842e+18,-2.0,-4.0,1.0,-2.0,3.0,0.0,0.0,-1.0
1.6951607479983826e+18,0.0,4.0,3.0,17.0,-2.0,-2.0,0.0,-2.0
1.6951607479983826e+18,-2.0,-2.0,-2.0,9.0,-2.0,-1.0,0.0,-3.0
1.6951607479983826e+18,-1.0,-1.0,8.0,-3.0,-7.0,-3.0,-6.0,-1.0
1.6951607480183703e+18,0.0,-2.0,0.0,9.0,6.0,3.0,0.0,-2.0
1.6951607480183703e+18,1.0,1.0,0.0,-11.0,-3.0,-2.0,-1.0,1.0
1.6951607480183703e+18,-3.0,-2.0,-1.0,7.0,0.0,-3.0,-4.0,-4.0
1.6951607480193715e+18,2.0,3.0,1.0,2.0,7.0,1.0,0.0,0.0
1.695160748022368e+18,1.0,4.0,-5.0,-13.0,-8.0,-1.0,-4.0,-1.0
1.695160748022368e+18,-4.0,-12.0,-13.0,-2.0,-2.0,-1.0,0.0,-1.0
1.695160748030363e+18,0.0,0.0,8.0,10.0,7.0,-1.0,-1.0,-2.0
1.6951607480313636e+18,1.0,0.0,-10.0,-14.0,-7.0,-4.0,-1.0,1.0
1.695160748032363e+18,-1.0,2.0,4.0,5.0,0.0,0.0,1.0,-3.0
1.6951607480333624e+18,2.0,4.0,1.0,0.0,1.0,-1.0,1.0,0.0
1.695160748069341e+18,-2.0,-1.0,-1.0,-3.0,-4.0,0.0,1.0,-2.0
1.695160748069341e+18,-2.0,-3.0,-2.0,1.0,-4.0,-3.0,-3.0,-1.0
1.695160748071341e+18,0.0,-2.0,-2.0,-2.0,0.0,1.0,0.0,-1.0
1.695160748071341e+18,1.0,4.0,1.0,-7.0,-1.0,1.0,-1.0,-1.0
1.6951607480723402e+18,0.0,-1.0,-3.0,5.0,1.0,1.0,-1.0,1.0
1.6951607480723402e+18,0.0,1.0,0.0,-1.0,-3.0,-2.0,-1.0,0.0
1.695160748075339e+18,-1.0,-2.0,-2.0,-2.0,-4.0,-4.0,-1.0,0.0
1.6951607480763423e+18,-1.0,0.0,4.0,2.0,1.0,-1.0,-2.0,1.0
1.6951607480833334e+18,1.0,2.0,0.0,-5.0,1.0,1.0,0.0,-3.0
1.6951607480833334e+18,0.0,0.0,-2.0,1.0,0.0,-1.0,-2.0,-1.0
1.695160748084333e+18,-1.0,-4.0,0.0,2.0,-2.0,1.0,0.0,-1.0
1.6951607480853335e+18,-1.0,1.0,-2.0,-6.0,-1.0,0.0,-1.0,-2.0
1.6951607481053212e+18,-1.0,-2.0,0.0,2.0,1.0,-1.0,-1.0,1.0
1.6951607481053212e+18,-1.0,0.0,-2.0,-2.0,-4.0,-3.0,-3.0,0.0
1.69516074812531e+18,-2.0,-1.0,-1.0,-2.0,-2.0,-1.0,-2.0,-2.0
1.695160748128308e+18,-1.0,2.0,3.0,3.0,0.0,0.0,1.0,-1.0
1.695160748128308e+18,0.0,-1.0,-9.0,-14.0,-3.0,1.0,0.0,0.0
1.695160748128308e+18,-1.0,-2.0,0.0,1.0,-1.0,-2.0,0.0,-2.0
1.6951607481452977e+18,-1.0,-4.0,-2.0,-2.0,0.0,-1.0,-1.0,-2.0
1.6951607481452977e+18,0.0,2.0,0.0,0.0,0.0,-1.0,-3.0,-2.0
1.6951607481452977e+18,0.0,0.0,1.0,-8.0,-3.0,1.0,1.0,-1.0
1.6951607481462966e+18,-1.0,-2.0,-3.0,13.0,2.0,-2.0,-1.0,-2.0
1.695160748149297e+18,-2.0,-1.0,0.0,-7.0,-1.0,-2.0,-1.0,0.0
1.695160748149297e+18,2.0,3.0,-1.0,-2.0,1.0,-1.0,-2.0,0.0
1.6951607481722819e+18,0.0,-1.0,8.0,6.0,3.0,0.0,0.0,2.0
1.6951607481722819e+18,0.0,1.0,-14.0,-10.0,1.0,2.0,0.0,-1.0
1.6951607481812813e+18,-2.0,-1.0,2.0,6.0,1.0,0.0,0.0,-2.0
1.6951607481812813e+18,-2.0,-1.0,-4.0,0.0,0.0,0.0,1.0,1.0
1.6951607481822766e+18,-1.0,-1.0,2.0,2.0,0.0,-2.0,-1.0,0.0
1.6951607481822766e+18,0.0,-2.0,3.0,-3.0,-5.0,-3.0,-2.0,-1.0
1.6951607481972677e+18,1.0,1.0,-1.0,0.0,-4.0,-2.0,-3.0,-2.0
1.6951607481972677e+18,0.0,0.0,-2.0,-4.0,-1.0,1.0,0.0,-1.0
1.6951607482032637e+18,0.0,0.0,2.0,7.0,2.0,2.0,1.0,-2.0
1.6951607482032637e+18,-1.0,-2.0,-2.0,-5.0,-3.0,1.0,3.0,0.0
1.6951607482042634e+18,-1.0,2.0,1.0,1.0,-2.0,-3.0,-3.0,-2.0
1.6951607482042634e+18,-1.0,-7.0,-3.0,-4.0,-5.0,-3.0,-2.0,-1.0
1.6951607482322473e+18,-1.0,1.0,-2.0,4.0,-1.0,-1.0,-3.0,-2.0
1.6951607482322473e+18,-1.0,-1.0,0.0,-2.0,0.0,0.0,0.0,-1.0
1.6951607482502374e+18,0.0,0.0,-2.0,-2.0,2.0,1.0,2.0,0.0
1.6951607482502374e+18,1.0,3.0,8.0,3.0,2.0,0.0,1.0,0.0
1.6951607482512376e+18,0.0,-1.0,-1.0,2.0,-2.0,-2.0,-1.0,-2.0
1.6951607482512376e+18,1.0,-2.0,7.0,-1.0,0.0,-1.0,0.0,-1.0
1.6951607482542346e+18,1.0,-4.0,-17.0,-2.0,1.0,4.0,0.0,0.0
1.6951607482542346e+18,-2.0,1.0,11.0,5.0,-1.0,-1.0,-1.0,-1.0
1.6951607482632294e+18,1.0,-2.0,-5.0,-1.0,-1.0,0.0,1.0,1.0
1.6951607482632294e+18,-1.0,1.0,9.0,-5.0,-5.0,-2.0,-1.0,1.0
1.6951607482642317e+18,0.0,-1.0,1.0,-1.0,-2.0,-1.0,-1.0,-1.0
1.6951607482642317e+18,0.0,-1.0,-5.0,-3.0,-1.0,0.0,-3.0,-1.0
1.6951607482912297e+18,-1.0,0.0,-4.0,1.0,-1.0,0.0,-1.0,-1.0
1.6951607482922143e+18,-1.0,4.0,-4.0,-1.0,-1.0,-2.0,-2.0,-1.0
1.6951607482922143e+18,-1.0,-1.0,8.0,2.0,-1.0,0.0,-1.0,-1.0
1.6951607482922143e+18,-2.0,-5.0,-11.0,-2.0,1.0,0.0,0.0,-1.0
1.695160748308514e+18,0.0,-1.0,1.0,-2.0,-1.0,-1.0,0.0,-1.0
1.695160748308514e+18,-1.0,0.0,3.0,-1.0,-2.0,-2.0,-1.0,-2.0
1.6951607483095805e+18,0.0,2.0,12.0,1.0,-3.0,-2.0,-1.0,0.0
1.6951607483095805e+18,1.0,0.0,-10.0,-3.0,-3.0,-2.0,0.0,0.0
1.695160748322534e+18,0.0,6.0,3.0,5.0,2.0,-1.0,-2.0,1.0
1.6951607483235126e+18,-1.0,-8.0,-9.0,-3.0,3.0,0.0,0.0,0.0
1.695160748324515e+18,-3.0,2.0,19.0,-5.0,-5.0,-3.0,-1.0,-1.0
1.695160748324515e+18,-2.0,-8.0,-29.0,-1.0,-1.0,-1.0,-2.0,-2.0
1.6951607483454986e+18,0.0,-2.0,10.0,7.0,3.0,1.0,1.0,1.0
1.6951607483454986e+18,0.0,0.0,-10.0,-6.0,-4.0,-1.0,-3.0,-2.0
1.6951607483464988e+18,-2.0,2.0,7.0,1.0,1.0,2.0,-1.0,1.0
1.6951607483474975e+18,1.0,2.0,-1.0,-2.0,-1.0,-1.0,0.0,0.0
1.6951607483591096e+18,2.0,-3.0,-3.0,-1.0,-3.0,-1.0,-1.0,1.0
1.6951607483591096e+18,0.0,2.0,-1.0,0.0,-1.0,-1.0,-3.0,-1.0
1.6951607483745329e+18,-1.0,-1.0,1.0,3.0,2.0,0.0,1.0,-1.0
1.6951607483745329e+18,1.0,5.0,13.0,-3.0,0.0,-1.0,-1.0,0.0
1.695160748382553e+18,-2.0,-1.0,-6.0,1.0,-1.0,-3.0,-2.0,-2.0
1.6951607483835287e+18,-1.0,-5.0,2.0,1.0,-2.0,-1.0,0.0,-1.0
1.6951607483845302e+18,0.0,-5.0,-14.0,-2.0,-1.0,-1.0,-1.0,-1.0
1.6951607483845302e+18,1.0,0.0,10.0,2.0,-2.0,1.0,3.0,0.0
1.6951607484215946e+18,-1.0,1.0,-4.0,-6.0,-1.0,-1.0,-1.0,-1.0
1.6951607484215946e+18,-1.0,-2.0,-3.0,0.0,0.0,-1.0,1.0,-2.0
1.6951607484226322e+18,0.0,2.0,-4.0,2.0,0.0,-1.0,-2.0,-1.0
1.6951607484226322e+18,0.0,-3.0,-3.0,-3.0,-2.0,-1.0,0.0,0.0
1.695160748423593e+18,-1.0,-2.0,1.0,-4.0,-2.0,2.0,-1.0,0.0
1.695160748423593e+18,-1.0,1.0,2.0,2.0,1.0,1.0,0.0,0.0
1.6951607484356954e+18,1.0,-4.0,-7.0,0.0,-1.0,-2.0,-1.0,0.0
1.6951607484356954e+18,-1.0,1.0,4.0,0.0,1.0,-2.0,-1.0,-1.0
1.695160748443606e+18,-2.0,-2.0,-7.0,-4.0,-3.0,-2.0,-1.0,-1.0
1.6951607484445786e+18,-1.0,1.0,9.0,0.0,0.0,-1.0,-1.0,0.0
1.6951607484455782e+18,-1.0,-2.0,-6.0,-2.0,0.0,0.0,-1.0,1.0
1.6951607484455782e+18,-2.0,0.0,1.0,0.0,-2.0,-2.0,-3.0,-2.0
1.695160748473567e+18,-1.0,0.0,7.0,2.0,0.0,1.0,1.0,0.0
1.695160748473567e+18,-1.0,-3.0,-18.0,-2.0,-3.0,-1.0,-2.0,-1.0
1.6951607484745649e+18,-1.0,-3.0,-3.0,-1.0,0.0,-2.0,-1.0,-1.0
1.6951607484745649e+18,-2.0,-1.0,4.0,0.0,0.0,1.0,-1.0,0.0
1.695160748487554e+18,0.0,1.0,-1.0,1.0,1.0,-3.0,-2.0,-2.0
1.6951607484925535e+18,1.0,1.0,3.0,0.0,-1.0,-2.0,-1.0,-1.0
1.6951607484935514e+18,0.0,-1.0,-2.0,-2.0,0.0,-1.0,-1.0,1.0
1.6951607484945518e+18,-1.0,-2.0,-1.0,0.0,-2.0,0.0,0.0,-1.0
1.6951607485105454e+18,0.0,0.0,-3.0,-3.0,-1.0,0.0,-2.0,-2.0
1.6951607485105454e+18,-1.0,0.0,0.0,0.0,-2.0,-1.0,0.0,1.0
1.6951607485125396e+18,0.0,0.0,-3.0,1.0,0.0,0.0,0.0,-2.0
1.6951607485125396e+18,-1.0,1.0,1.0,1.0,0.0,-2.0,-1.0,-1.0
1.6951607485255314e+18,-2.0,-5.0,-3.0,-2.0,-2.0,-2.0,-1.0,-2.0
1.6951607485265318e+18,1.0,0.0,5.0,-2.0,-1.0,-2.0,0.0,-3.0
1.6951607485275313e+18,-1.0,-2.0,-3.0,-1.0,0.0,-1.0,0.0,-3.0
1.6951607485275313e+18,-2.0,-1.0,-1.0,-3.0,0.0,-2.0,-2.0,1.0
1.6951607485485192e+18,-2.0,0.0,-2.0,1.0,-2.0,-2.0,0.0,-1.0
1.6951607485485192e+18,-1.0,0.0,-2.0,-1.0,0.0,1.0,0.0,1.0
1.6951607485495176e+18,0.0,0.0,0.0,-1.0,-1.0,0.0,1.0,0.0
1.695160748550518e+18,1.0,-1.0,-1.0,-2.0,-1.0,0.0,0.0,-1.0
1.6951607485665162e+18,0.0,-2.0,4.0,0.0,-1.0,0.0,-1.0,-1.0
1.6951607485715318e+18,-4.0,-1.0,-4.0,-2.0,-1.0,0.0,1.0,-1.0
1.6951607485725317e+18,-1.0,1.0,0.0,0.0,0.0,-2.0,-1.0,0.0
1.6951607485725317e+18,-1.0,0.0,0.0,0.0,1.0,-1.0,0.0,-1.0
1.6951607485854979e+18,-1.0,0.0,6.0,0.0,1.0,-1.0,-1.0,0.0
1.6951607485865052e+18,1.0,1.0,0.0,1.0,-1.0,1.0,-1.0,-1.0
1.6951607485874967e+18,-1.0,-1.0,-3.0,-3.0,-2.0,0.0,-1.0,1.0
1.6951607485874967e+18,-2.0,0.0,5.0,-1.0,-3.0,0.0,-1.0,-1.0
1.6951607485994903e+18,0.0,0.0,-3.0,-2.0,-1.0,0.0,-1.0,0.0
1.6951607486004908e+18,-1.0,-1.0,0.0,-1.0,1.0,-2.0,-3.0,-1.0
1.6951607486264732e+18,0.0,-1.0,0.0,0.0,-1.0,0.0,-1.0,-2.0
1.6951607486304707e+18,-1.0,-1.0,0.0,-1.0,0.0,0.0,-3.0,-1.0
1.6951607486304707e+18,-1.0,-1.0,-3.0,-2.0,-1.0,0.0,1.0,0.0
1.6951607486314714e+18,-1.0,1.0,-2.0,0.0,-1.0,0.0,-1.0,-1.0
1.6951607486465667e+18,-1.0,0.0,1.0,0.0,-2.0,0.0,0.0,0.0
1.6951607486465667e+18,1.0,1.0,-3.0,-1.0,-1.0,-1.0,1.0,-1.0
1.6951607486465667e+18,-2.0,1.0,3.0,-3.0,-1.0,-1.0,0.0,1.0
1.6951607486465667e+18,-1.0,-2.0,-3.0,0.0,0.0,-1.0,0.0,-2.0
1.6951607486485883e+18,-1.0,-2.0,-3.0,0.0,1.0,-2.0,-1.0,-1.0
1.6951607486485883e+18,0.0,1.0,2.0,1.0,2.0,-1.0,-1.0,0.0
1.6951607486592392e+18,0.0,-2.0,-2.0,-1.0,-1.0,-1.0,0.0,-1.0
1.6951607486592392e+18,0.0,-1.0,1.0,-2.0,-2.0,-1.0,0.0,-1.0
1.6951607486685586e+18,-2.0,-3.0,-7.0,-2.0,1.0,0.0,0.0,-3.0
1.6951607486685586e+18,0.0,-1.0,-3.0,-1.0,-1.0,-1.0,-1.0,0.0
1.6951607486985185e+18,-2.0,1.0,-2.0,-1.0,0.0,-1.0,0.0,-1.0
1.6951607486985185e+18,-1.0,-1.0,3.0,0.0,0.0,1.0,-2.0,-1.0
1.6951607486995832e+18,-1.0,1.0,0.0,2.0,-3.0,-2.0,-1.0,-2.0
1.6951607486995832e+18,-2.0,-2.0,-3.0,-1.0,-2.0,-1.0,0.0,-1.0
1.6951607487054354e+18,-2.0,-2.0,-1.0,-1.0,-1.0,0.0,-1.0,-3.0
1.6951607487054354e+18,0.0,0.0,-1.0,0.0,1.0,0.0,-2.0,0.0
1.6951607487074435e+18,2.0,0.0,1.0,-1.0,0.0,0.0,0.0,0.0
1.6951607487074435e+18,-1.0,-1.0,0.0,-1.0,-1.0,-1.0,1.0,0.0
1.6951607487201055e+18,0.0,-2.0,-2.0,-2.0,-2.0,-2.0,0.0,0.0
1.6951607487201055e+18,0.0,-1.0,-3.0,0.0,0.0,-2.0,-1.0,-1.0
1.695160748728355e+18,-3.0,1.0,2.0,-1.0,1.0,-2.0,0.0,0.0
1.695160748729354e+18,0.0,-1.0,0.0,0.0,0.0,0.0,-1.0,-1.0
1.6951607487513416e+18,-1.0,0.0,-2.0,0.0,-1.0,1.0,0.0,0.0
1.6951607487523415e+18,0.0,-1.0,-2.0,-2.0,-2.0,-1.0,0.0,1.0
1.695160748753341e+18,0.0,0.0,0.0,-3.0,-1.0,0.0,-1.0,1.0
1.695160748753341e+18,-1.0,-1.0,5.0,-1.0,-2.0,0.0,0.0,-2.0
1.6951607487663337e+18,-1.0,-1.0,-13.0,-3.0,0.0,-1.0,-2.0,-2.0
1.6951607487663337e+18,-1.0,-1.0,-1.0,0.0,0.0,0.0,2.0,0.0
1.6951607487673329e+18,2.0,-2.0,-2.0,-2.0,-1.0,-2.0,-1.0,-1.0
1.6951607487683325e+18,0.0,-1.0,-1.0,0.0,0.0,-1.0,-1.0,0.0
1.6951607487933548e+18,0.0,0.0,2.0,0.0,1.0,0.0,-2.0,0.0
1.6951607487933548e+18,-1.0,-1.0,3.0,-2.0,-2.0,-1.0,0.0,-3.0
1.6951607487943526e+18,-1.0,0.0,-3.0,0.0,-1.0,-1.0,-1.0,-2.0
1.6951607487943526e+18,-2.0,-2.0,-4.0,0.0,-3.0,-1.0,-1.0,0.0
1.6951607488113073e+18,0.0,-3.0,1.0,0.0,-2.0,-1.0,-1.0,-1.0
1.695160748812313e+18,0.0,-1.0,-2.0,-1.0,-1.0,-1.0,0.0,-1.0
1.6951607488133146e+18,0.0,-1.0,1.0,0.0,-1.0,0.0,-1.0,0.0
1.6951607488133146e+18,-1.0,-1.0,-2.0,-1.0,0.0,-1.0,-1.0,-3.0
1.6951607488283008e+18,0.0,1.0,1.0,-1.0,-2.0,0.0,0.0,1.0
1.695160748829298e+18,-2.0,-1.0,-1.0,1.0,-1.0,-1.0,-1.0,-1.0
1.695160748830304e+18,-1.0,-1.0,-1.0,0.0,0.0,-1.0,-1.0,-1.0
1.6951607488312968e+18,0.0,0.0,-3.0,-1.0,0.0,0.0,0.0,0.0
1.6951607488402929e+18,0.0,-1.0,-2.0,1.0,0.0,-1.0,0.0,1.0
1.6951607488402929e+18,-1.0,1.0,6.0,1.0,-1.0,1.0,-1.0,0.0
1.695160748865276e+18,-1.0,-1.0,-9.0,-4.0,-2.0,-1.0,-2.0,-2.0
1.6951607488662753e+18,-2.0,-3.0,1.0,-1.0,0.0,-2.0,-1.0,-3.0
1.6951607488662753e+18,-1.0,-2.0,4.0,-2.0,0.0,-1.0,-1.0,-1.0
1.695160748867275e+18,-1.0,0.0,-2.0,-2.0,-1.0,-2.0,-1.0,-1.0
1.6951607488772695e+18,0.0,-1.0,3.0,1.0,0.0,0.0,0.0,-2.0
1.6951607488772695e+18,1.0,-1.0,-1.0,-3.0,-2.0,-3.0,-1.0,-1.0
1.6951607488922609e+18,-1.0,1.0,1.0,-1.0,-2.0,-2.0,-1.0,-1.0
1.6951607488932692e+18,0.0,-1.0,0.0,0.0,-2.0,-1.0,-1.0,0.0
1.6951607489022556e+18,0.0,-1.0,1.0,0.0,-1.0,0.0,-1.0,0.0
1.6951607489032673e+18,-1.0,-1.0,-12.0,-2.0,-1.0,1.0,0.0,-1.0
1.6951607489032673e+18,-2.0,-2.0,-2.0,-4.0,-2.0,1.0,-2.0,-1.0
1.6951607489212795e+18,0.0,0.0,2.0,-1.0,-3.0,0.0,-1.0,1.0
1.6951607489262408e+18,0.0,1.0,1.0,0.0,-1.0,-1.0,1.0,0.0
1.6951607489262408e+18,0.0,1.0,5.0,0.0,-1.0,-2.0,-1.0,-1.0
1.69516074892725e+18,-2.0,-1.0,-7.0,0.0,-1.0,-1.0,0.0,-1.0
1.6951607489282424e+18,-1.0,-1.0,2.0,-1.0,0.0,0.0,-1.0,-1.0
1.6951607489302403e+18,0.0,-1.0,-2.0,0.0,0.0,-2.0,0.0,-1.0
1.6951607489312474e+18,-2.0,-1.0,4.0,1.0,1.0,-2.0,-1.0,0.0
1.6951607489462356e+18,0.0,-2.0,-13.0,-2.0,-1.0,-3.0,0.0,-1.0
1.6951607489472294e+18,0.0,1.0,1.0,0.0,-2.0,-1.0,0.0,0.0
1.6951607489482353e+18,-2.0,0.0,0.0,-1.0,-2.0,1.0,-1.0,-1.0
1.6951607489482353e+18,2.0,1.0,4.0,0.0,-3.0,0.0,-2.0,-1.0
1.6951607489752366e+18,1.0,-1.0,-2.0,-1.0,-1.0,-2.0,0.0,0.0
1.6951607489762117e+18,0.0,-2.0,-3.0,-3.0,0.0,-1.0,0.0,-2.0
1.6951607489772111e+18,-1.0,-1.0,-5.0,-3.0,-1.0,-1.0,0.0,1.0
1.6951607489772111e+18,0.0,-1.0,-3.0,2.0,-2.0,-1.0,-1.0,-1.0
1.6951607489832074e+18,0.0,1.0,5.0,1.0,-1.0,0.0,0.0,0.0
1.6951607489832074e+18,1.0,0.0,1.0,0.0,0.0,-1.0,-1.0,-1.0
1.6951607489892035e+18,-1.0,-3.0,-12.0,-4.0,0.0,0.0,-2.0,-2.0
1.6951607489902044e+18,-2.0,-2.0,-5.0,1.0,-1.0,0.0,0.0,0.0
1.6951607490071939e+18,-1.0,1.0,11.0,0.0,-3.0,-1.0,0.0,-1.0
1.6951607490081938e+18,-1.0,0.0,2.0,1.0,0.0,-2.0,0.0,-1.0
1.6951607490081938e+18,0.0,-1.0,-6.0,-1.0,-3.0,-1.0,0.0,0.0
1.6951607490081938e+18,-1.0,-1.0,-3.0,-2.0,0.0,-2.0,1.0,-1.0
1.695160749028181e+18,1.0,-2.0,0.0,1.0,1.0,1.0,-1.0,-2.0
1.695160749028181e+18,0.0,0.0,-3.0,-1.0,-2.0,-2.0,-1.0,0.0
1.6951607490291855e+18,0.0,0.0,11.0,2.0,0.0,-1.0,1.0,-1.0
1.6951607490301852e+18,0.0,2.0,2.0,-3.0,-3.0,-4.0,-3.0,-1.0
1.695160749043172e+18,-2.0,-7.0,-5.0,-1.0,0.0,-3.0,0.0,-1.0
1.695160749043172e+18,-1.0,-2.0,-2.0,-1.0,0.0,0.0,-1.0,0.0
1.6951607490441733e+18,-1.0,-1.0,0.0,-1.0,0.0,-1.0,-2.0,0.0
1.6951607490451748e+18,-2.0,0.0,0.0,-1.0,0.0,1.0,0.0,0.0
1.695160749065162e+18,-1.0,0.0,1.0,0.0,-1.0,1.0,-3.0,-1.0
1.6951607490661647e+18,-2.0,-2.0,-4.0,0.0,-1.0,-1.0,-1.0,0.0
1.6951607490671642e+18,-1.0,-1.0,-1.0,-1.0,-3.0,-1.0,0.0,0.0
1.6951607490681605e+18,-1.0,-1.0,0.0,0.0,0.0,0.0,-1.0,0.0
1.6951607490881467e+18,0.0,-1.0,8.0,-1.0,-1.0,0.0,0.0,-1.0
1.6951607490881467e+18,0.0,-4.0,-9.0,-2.0,0.0,-1.0,0.0,-1.0
1.6951607490891502e+18,0.0,0.0,1.0,-1.0,-1.0,0.0,-1.0,-2.0
1.6951607490901486e+18,1.0,-2.0,2.0,-1.0,1.0,1.0,1.0,0.0
1.695160749102139e+18,0.0,-2.0,-2.0,0.0,0.0,0.0,0.0,0.0
1.6951607491031437e+18,-1.0,1.0,1.0,0.0,-2.0,-2.0,-1.0,-1.0
1.6951607491171313e+18,0.0,0.0,0.0,1.0,1.0,-2.0,0.0,0.0
1.6951607491171313e+18,0.0,-2.0,3.0,-2.0,1.0,-1.0,-2.0,-2.0
1.6951607491251295e+18,-2.0,-2.0,-8.0,0.0,-1.0,0.0,-2.0,-2.0
1.695160749126125e+18,-1.0,-3.0,-1.0,-1.0,-1.0,0.0,-1.0,-1.0
1.6951607491511122e+18,-1.0,-1.0,5.0,0.0,-1.0,0.0,-2.0,-1.0
1.6951607491521116e+18,1.0,-1.0,-3.0,-1.0,-1.0,0.0,-1.0,-1.0
1.6951607491561083e+18,-3.0,2.0,-1.0,-1.0,-3.0,-1.0,-1.0,1.0
1.6951607491561083e+18,-1.0,-2.0,-1.0,-2.0,2.0,0.0,0.0,-1.0
1.6951607491571128e+18,1.0,0.0,-2.0,-1.0,-1.0,0.0,0.0,-1.0
1.6951607491571128e+18,0.0,-2.0,-2.0,-1.0,-1.0,-1.0,0.0,-1.0
1.6951607491621087e+18,1.0,2.0,1.0,-1.0,2.0,1.0,-2.0,-2.0
1.6951607491631089e+18,0.0,-2.0,-2.0,-1.0,1.0,0.0,-2.0,-2.0
1.6951607491691052e+18,-2.0,0.0,8.0,0.0,1.0,-2.0,-1.0,-2.0
1.6951607491691052e+18,0.0,0.0,-12.0,-1.0,-1.0,-2.0,0.0,-1.0
1.695160749193087e+18,0.0,-1.0,3.0,1.0,0.0,0.0,0.0,1.0
1.695160749193087e+18,-1.0,0.0,0.0,-2.0,-1.0,-1.0,-1.0,-1.0
1.6951607491950876e+18,-1.0,-1.0,-2.0,0.0,0.0,-1.0,-1.0,-1.0
1.6951607491950876e+18,-2.0,0.0,1.0,-1.0,-3.0,1.0,-2.0,-1.0
1.6951607492090813e+18,-2.0,-1.0,-3.0,-2.0,1.0,-2.0,-1.0,0.0
1.695160749220077e+18,1.0,-2.0,0.0,1.0,-3.0,-2.0,-1.0,0.0
1.695160749221077e+18,0.0,0.0,-1.0,0.0,3.0,2.0,1.0,0.0
1.695160749221077e+18,-1.0,-2.0,1.0,-1.0,0.0,-2.0,-1.0,-1.0
1.69516074923107e+18,0.0,-1.0,-1.0,1.0,-1.0,-1.0,0.0,-1.0
1.69516074923107e+18,-3.0,-2.0,-1.0,-3.0,-2.0,-2.0,0.0,0.0
1.6951607492320704e+18,-1.0,0.0,-2.0,-2.0,-3.0,-1.0,0.0,-1.0
1.6951607492320704e+18,-1.0,-2.0,-1.0,0.0,-2.0,1.0,0.0,-1.0
1.6951607492530524e+18,-2.0,-1.0,-1.0,-2.0,-1.0,1.0,-1.0,-2.0
1.6951607492530524e+18,0.0,0.0,-2.0,0.0,0.0,0.0,-2.0,0.0
1.695160749255052e+18,0.0,-1.0,-2.0,0.0,-1.0,-3.0,-2.0,0.0
1.695160749255052e+18,-1.0,-1.0,3.0,0.0,0.0,-3.0,-1.0,0.0
1.695160749268044e+18,2.0,-1.0,-4.0,-1.0,-1.0,-4.0,0.0,-2.0
1.6951607492690473e+18,-1.0,-2.0,-1.0,1.0,0.0,-1.0,-1.0,0.0
1.6951607492700477e+18,-2.0,0.0,-1.0,-1.0,-1.0,0.0,-1.0,0.0
1.6951607492700477e+18,-1.0,-1.0,1.0,1.0,-1.0,0.0,-3.0,0.0
1.6951607492860372e+18,-3.0,0.0,1.0,-1.0,-1.0,0.0,-2.0,-1.0
1.6951607492860372e+18,-1.0,1.0,0.0,-1.0,0.0,-1.0,0.0,-1.0
1.695160749291031e+18,0.0,-2.0,-4.0,-1.0,-1.0,-2.0,0.0,-1.0
1.6951607492920358e+18,0.0,-2.0,1.0,0.0,0.0,1.0,0.0,-1.0
1.6951607493060232e+18,0.0,-2.0,0.0,0.0,-1.0,-1.0,-2.0,0.0
1.6951607493060232e+18,1.0,-1.0,-2.0,0.0,-1.0,-1.0,-2.0,0.0
1.6951607493070252e+18,-1.0,0.0,1.0,-1.0,-2.0,-1.0,-1.0,0.0
1.6951607493080223e+18,0.0,-1.0,-4.0,-2.0,1.0,-2.0,0.0,0.0
1.6951607493290156e+18,-2.0,0.0,1.0,-2.0,-1.0,0.0,-2.0,-2.0
1.6951607493300096e+18,-1.0,-1.0,0.0,-1.0,-1.0,0.0,0.0,0.0
1.6951607493310213e+18,-2.0,-2.0,0.0,1.0,-1.0,0.0,-2.0,-1.0
1.6951607493310213e+18,-2.0,1.0,3.0,0.0,-1.0,-2.0,0.0,1.0
1.6951607493420265e+18,1.0,-3.0,-7.0,0.0,-1.0,0.0,1.0,-1.0
1.695160749343005e+18,-2.0,1.0,2.0,-2.0,-2.0,-1.0,0.0,-1.0
1.6951607493569953e+18,-1.0,-1.0,-2.0,0.0,-2.0,0.0,-1.0,0.0
1.6951607493619914e+18,0.0,0.0,-1.0,-2.0,-1.0,-1.0,-1.0,-1.0
1.695160749365988e+18,1.0,2.0,2.0,0.0,0.0,-2.0,0.0,0.0
1.695160749365988e+18,-1.0,-1.0,0.0,-3.0,1.0,-1.0,0.0,0.0
1.6951607493669924e+18,1.0,-2.0,-4.0,-1.0,-1.0,0.0,-1.0,-2.0
1.6951607493679877e+18,-1.0,0.0,-1.0,-1.0,0.0,-1.0,-1.0,-2.0
1.6951607493879795e+18,0.0,0.0,6.0,0.0,0.0,0.0,-2.0,0.0
1.6951607493889759e+18,-1.0,-2.0,-12.0,-2.0,-2.0,-1.0,-1.0,-1.0
1.6951607493899756e+18,-1.0,-2.0,0.0,-2.0,-1.0,-1.0,-1.0,-1.0
1.6951607493899756e+18,-2.0,-2.0,-2.0,-2.0,-3.0,0.0,1.0,-1.0
1.6951607494029722e+18,-1.0,1.0,0.0,0.0,-1.0,-3.0,1.0,0.0
1.6951607494029722e+18,0.0,-1.0,1.0,0.0,1.0,-1.0,-2.0,-1.0
1.695160749410963e+18,-1.0,-2.0,-2.0,-1.0,0.0,0.0,-1.0,-1.0
1.695160749410963e+18,-1.0,0.0,0.0,0.0,-1.0,0.0,-1.0,0.0
1.695160749426978e+18,-2.0,-3.0,-2.0,-1.0,0.0,-2.0,-1.0,0.0
1.6951607494289572e+18,0.0,0.0,-1.0,0.0,-2.0,1.0,-2.0,0.0
1.6951607494299574e+18,-1.0,0.0,-3.0,0.0,0.0,0.0,0.0,-1.0
1.6951607494299574e+18,0.0,-1.0,1.0,-1.0,-1.0,1.0,0.0,-1.0
1.6951607494489403e+18,-1.0,0.0,0.0,-2.0,-3.0,0.0,-1.0,0.0
1.6951607494489403e+18,-1.0,-1.0,-1.0,-3.0,1.0,-1.0,-1.0,1.0
1.6951607494499453e+18,-2.0,0.0,2.0,0.0,-1.0,-1.0,-1.0,-1.0
1.6951607494509437e+18,-1.0,-1.0,-1.0,0.0,-3.0,-2.0,0.0,0.0
1.695160749470929e+18,0.0,-1.0,-3.0,-3.0,-1.0,-1.0,-1.0,-3.0
1.695160749470929e+18,0.0,0.0,0.0,0.0,-1.0,0.0,-1.0,-3.0
1.6951607494719332e+18,-1.0,-1.0,0.0,0.0,0.0,-1.0,0.0,0.0
1.6951607494729283e+18,1.0,-2.0,-3.0,-2.0,-1.0,-1.0,-1.0,-1.0
1.695160749485921e+18,0.0,0.0,3.0,1.0,1.0,2.0,-1.0,1.0
1.6951607494959142e+18,-1.0,-2.0,-8.0,-3.0,-2.0,-2.0,-1.0,-2.0
1.6951607494969157e+18,-1.0,-1.0,-1.0,0.0,0.0,-2.0,-1.0,0.0
1.6951607494979387e+18,0.0,1.0,-1.0,-2.0,-1.0,-2.0,-3.0,-1.0
1.695160749507927e+18,-1.0,0.0,-2.0,0.0,0.0,0.0,-2.0,0.0
1.6951607495089078e+18,-2.0,-2.0,2.0,1.0,-2.0,-1.0,0.0,0.0
1.695160749509906e+18,-3.0,-1.0,-1.0,-2.0,1.0,-1.0,-2.0,0.0
1.695160749509906e+18,-2.0,-2.0,-3.0,0.0,0.0,1.0,1.0,-2.0
1.695160749523898e+18,-1.0,-2.0,-2.0,-2.0,-2.0,-1.0,-1.0,0.0
1.695160749523898e+18,0.0,-1.0,-1.0,0.0,-1.0,1.0,0.0,-1.0
1.695160749530898e+18,-1.0,0.0,-1.0,-1.0,-4.0,0.0,0.0,-1.0
1.695160749530898e+18,-3.0,1.0,0.0,-3.0,-1.0,0.0,-2.0,1.0
1.6951607495458854e+18,0.0,-2.0,2.0,1.0,0.0,-2.0,0.0,-2.0
1.6951607495458854e+18,-2.0,-2.0,-1.0,2.0,0.0,-1.0,1.0,-1.0
1.6951607495468905e+18,0.0,1.0,1.0,1.0,0.0,-2.0,-2.0,0.0
1.6951607495468905e+18,0.0,0.0,0.0,1.0,0.0,-1.0,0.0,0.0
1.695160749569873e+18,-2.0,0.0,-2.0,-1.0,0.0,-1.0,0.0,-1.0
1.695160749569873e+18,-1.0,0.0,2.0,-1.0,0.0,0.0,-2.0,-2.0
1.695160749572873e+18,-1.0,-1.0,-1.0,-2.0,-2.0,0.0,0.0,-1.0
1.6951607495738732e+18,1.0,-2.0,0.0,0.0,-1.0,0.0,-4.0,-1.0
1.6951607495818647e+18,0.0,-2.0,-3.0,-3.0,-1.0,-1.0,-1.0,-1.0
1.6951607495818647e+18,0.0,0.0,0.0,1.0,0.0,-1.0,1.0,-1.0
1.695160749590864e+18,0.0,-1.0,2.0,1.0,2.0,-1.0,0.0,0.0
1.6951607495918643e+18,0.0,1.0,-6.0,-1.0,0.0,-2.0,0.0,0.0
1.6951607496058511e+18,0.0,-1.0,0.0,0.0,-3.0,-1.0,-3.0,-2.0
1.6951607496058511e+18,-1.0,-1.0,1.0,-1.0,0.0,-1.0,-2.0,1.0
1.6951607496068508e+18,0.0,-1.0,-1.0,0.0,-1.0,-1.0,-1.0,-2.0
1.695160749607854e+18,-1.0,-1.0,1.0,-1.0,-1.0,0.0,0.0,1.0
1.6951607496358336e+18,-1.0,1.0,-2.0,-1.0,-2.0,0.0,-2.0,0.0
1.6951607496368366e+18,0.0,-1.0,-2.0,-2.0,-1.0,0.0,-1.0,0.0
1.6951607496368366e+18,0.0,0.0,6.0,-1.0,-1.0,-2.0,-1.0,1.0
1.695160749637838e+18,-1.0,-2.0,-12.0,-1.0,-1.0,-1.0,0.0,-1.0
1.6951607496518497e+18,-3.0,0.0,0.0,-1.0,-1.0,0.0,0.0,1.0
1.6951607496528494e+18,-2.0,0.0,2.0,-2.0,1.0,1.0,-1.0,0.0
1.6951607496528494e+18,0.0,-2.0,-3.0,-1.0,1.0,2.0,3.0,2.0
1.6951607496528494e+18,0.0,1.0,4.0,0.0,5.0,2.0,2.0,0.0
1.695160749665816e+18,-2.0,0.0,-2.0,1.0,2.0,0.0,1.0,1.0
1.695160749665816e+18,1.0,1.0,3.0,-1.0,-1.0,-1.0,-1.0,0.0
1.6951607496668188e+18,2.0,2.0,0.0,-1.0,-2.0,-1.0,-2.0,-1.0
1.6951607496678157e+18,1.0,-1.0,2.0,-1.0,-1.0,0.0,-2.0,0.0
1.695160749695799e+18,1.0,0.0,2.0,1.0,0.0,-1.0,0.0,0.0
1.695160749695799e+18,-1.0,0.0,0.0,-1.0,-3.0,-1.0,0.0,-1.0
1.6951607496968036e+18,0.0,-1.0,-2.0,-1.0,1.0,-1.0,-1.0,0.0
1.695160749697799e+18,0.0,0.0,1.0,0.0,-2.0,1.0,2.0,-3.0
1.6951607497017953e+18,1.0,-1.0,-2.0,-1.0,0.0,0.0,-1.0,-1.0
1.6951607497017953e+18,-1.0,0.0,0.0,-1.0,0.0,0.0,0.0,-1.0
1.695160749717792e+18,0.0,0.0,-2.0,-1.0,0.0,0.0,-1.0,-1.0
1.6951607497188124e+18,-2.0,-2.0,-1.0,-1.0,-1.0,0.0,0.0,0.0
1.6951607497257815e+18,-1.0,-1.0,-1.0,0.0,-1.0,-1.0,-1.0,0.0
1.6951607497257815e+18,1.0,0.0,-3.0,-2.0,-2.0,-2.0,-1.0,0.0
1.6951607497267858e+18,0.0,-1.0,-1.0,-2.0,-1.0,0.0,-1.0,-2.0
1.6951607497277824e+18,0.0,-2.0,1.0,-1.0,0.0,-1.0,-1.0,0.0
1.6951607497477745e+18,0.0,0.0,0.0,-3.0,-3.0,-2.0,-1.0,-1.0
1.6951607497487734e+18,-1.0,0.0,-2.0,1.0,-1.0,1.0,-1.0,0.0
1.6951607497497692e+18,-1.0,0.0,-1.0,0.0,-1.0,-1.0,-1.0,0.0
1.6951607497497692e+18,0.0,-2.0,1.0,1.0,-2.0,-1.0,-2.0,0.0
1.695160749761761e+18,-1.0,1.0,0.0,-3.0,-3.0,-1.0,-1.0,0.0
1.695160749762767e+18,1.0,-1.0,-1.0,0.0,0.0,-1.0,-2.0,-1.0
1.695160749770756e+18,0.0,0.0,-1.0,-1.0,-1.0,-1.0,0.0,-1.0
1.695160749770756e+18,-3.0,1.0,-1.0,-1.0,-2.0,-2.0,-1.0,-3.0
1.6951607497847498e+18,1.0,-1.0,1.0,0.0,0.0,1.0,0.0,-1.0
1.6951607497857544e+18,0.0,0.0,0.0,-1.0,0.0,1.0,-1.0,0.0
1.6951607498107343e+18,0.0,-1.0,-1.0,-4.0,-1.0,1.0,-1.0,0.0
1.6951607498107343e+18,-1.0,-2.0,0.0,-1.0,-5.0,-5.0,-2.0,0.0
1.6951607498117325e+18,-1.0,0.0,4.0,2.0,0.0,-2.0,-2.0,-4.0
1.6951607498127368e+18,0.0,-2.0,-11.0,-6.0,-6.0,-2.0,-2.0,-3.0
1.6951607498137367e+18,-1.0,1.0,3.0,-3.0,2.0,2.0,4.0,1.0
1.6951607498147308e+18,0.0,2.0,-1.0,5.0,3.0,1.0,-1.0,-1.0
1.6951607498217262e+18,1.0,-5.0,-5.0,-8.0,1.0,0.0,-1.0,2.0
1.6951607498217262e+18,-3.0,0.0,2.0,0.0,-7.0,-3.0,-2.0,-2.0
1.6951607498377224e+18,0.0,-2.0,-2.0,-2.0,-3.0,2.0,1.0,0.0
1.6951607498387182e+18,0.0,0.0,0.0,-7.0,-7.0,-3.0,-2.0,0.0
1.6951607498537103e+18,0.0,-1.0,0.0,4.0,0.0,0.0,0.0,0.0
1.6951607498537103e+18,1.0,0.0,1.0,1.0,5.0,1.0,0.0,2.0
1.6951607498557097e+18,-1.0,-1.0,-3.0,-1.0,-5.0,-4.0,-4.0,-4.0
1.6951607498557097e+18,1.0,0.0,2.0,2.0,2.0,2.0,0.0,-1.0
1.6951607498756966e+18,-3.0,-3.0,-5.0,-7.0,-5.0,-2.0,-9.0,-2.0
1.6951607498756966e+18,1.0,1.0,1.0,0.0,3.0,3.0,7.0,2.0
1.6951607498766963e+18,-3.0,-2.0,-2.0,5.0,3.0,2.0,3.0,-1.0
1.6951607498777037e+18,-2.0,-6.0,-4.0,-2.0,-1.0,0.0,4.0,-3.0
1.6951607498816934e+18,1.0,1.0,0.0,0.0,-4.0,-14.0,-38.0,-9.0
1.695160749882698e+18,2.0,-1.0,1.0,0.0,0.0,13.0,42.0,10.0
1.6951607498986831e+18,-3.0,-4.0,-3.0,-6.0,-7.0,-8.0,-15.0,-4.0
1.6951607498986831e+18,3.0,2.0,3.0,5.0,8.0,15.0,33.0,4.0
1.6951607499226803e+18,-1.0,1.0,-3.0,-1.0,3.0,4.0,1.0,3.0
1.6951607499306665e+18,-2.0,-1.0,0.0,-4.0,-4.0,-1.0,0.0,-1.0
1.6951607499316654e+18,0.0,1.0,1.0,-2.0,-1.0,-7.0,-11.0,-3.0
1.6951607499316654e+18,-2.0,2.0,-1.0,1.0,1.0,-7.0,-15.0,0.0
1.6951607499316654e+18,-4.0,-8.0,-6.0,1.0,1.0,0.0,4.0,-3.0
1.6951607499316654e+18,0.0,5.0,1.0,4.0,2.0,-5.0,-16.0,-3.0
1.6951607499326646e+18,-3.0,-6.0,-2.0,-2.0,-4.0,-1.0,2.0,-3.0
1.6951607499336883e+18,2.0,4.0,-1.0,-6.0,2.0,-2.0,-9.0,0.0
1.695160749950653e+18,-2.0,-4.0,3.0,-1.0,-3.0,1.0,9.0,0.0
1.6951607499516544e+18,0.0,1.0,3.0,6.0,6.0,4.0,-3.0,0.0
1.695160749952652e+18,0.0,-1.0,-5.0,-8.0,-1.0,-2.0,-5.0,-2.0
1.695160749952652e+18,-1.0,-3.0,-3.0,-9.0,-7.0,-4.0,-2.0,-2.0
1.695160749972644e+18,2.0,7.0,8.0,9.0,3.0,-1.0,5.0,1.0
1.6951607499736435e+18,-4.0,-7.0,-4.0,-5.0,-2.0,-3.0,-7.0,-3.0
1.6951607499746394e+18,6.0,11.0,3.0,5.0,2.0,4.0,2.0,4.0
1.6951607499746394e+18,-4.0,-7.0,-2.0,2.0,-4.0,-4.0,-5.0,-3.0
1.695160749989631e+18,2.0,1.0,-6.0,-4.0,3.0,6.0,11.0,3.0
1.6951607499976259e+18,-2.0,-2.0,1.0,3.0,2.0,-2.0,-6.0,-2.0
1.6951607499976259e+18,3.0,4.0,2.0,-1.0,-1.0,-1.0,3.0,2.0
1.6951607499986258e+18,2.0,-1.0,-2.0,-4.0,-2.0,1.0,-3.0,-1.0
1.6951607500106186e+18,-5.0,-12.0,-3.0,2.0,1.0,2.0,2.0,-2.0
1.6951607500116183e+18,1.0,7.0,-1.0,-3.0,-3.0,-4.0,-5.0,-2.0
1.6951607500126182e+18,-3.0,-5.0,0.0,-1.0,-2.0,-2.0,0.0,0.0
1.6951607500126182e+18,1.0,2.0,-2.0,-7.0,-2.0,-4.0,-2.0,-1.0
1.6951607500336074e+18,-3.0,-4.0,-1.0,1.0,-2.0,0.0,1.0,0.0
1.6951607500336074e+18,-3.0,-5.0,-4.0,-4.0,-5.0,-6.0,-7.0,-4.0
1.695160750039604e+18,1.0,-1.0,-3.0,6.0,2.0,4.0,3.0,2.0
1.695160750039604e+18,-3.0,-5.0,3.0,1.0,-2.0,-4.0,-5.0,-2.0
1.6951607500485967e+18,-2.0,1.0,8.0,3.0,0.0,1.0,2.0,-2.0
1.6951607500485967e+18,0.0,-3.0,-5.0,2.0,0.0,-1.0,-2.0,-4.0
1.6951607500496028e+18,2.0,15.0,-7.0,-9.0,-4.0,-2.0,0.0,-1.0
1.695160750050602e+18,-3.0,-3.0,0.0,-4.0,-3.0,-3.0,-3.0,-3.0
1.6951607500786053e+18,0.0,-5.0,-13.0,-9.0,1.0,2.0,5.0,3.0
1.6951607500796042e+18,1.0,2.0,7.0,0.0,2.0,1.0,-1.0,0.0
1.6951607500796042e+18,0.0,11.0,7.0,5.0,0.0,-4.0,-2.0,-1.0
1.6951607500796042e+18,-1.0,-5.0,3.0,8.0,1.0,5.0,4.0,1.0
1.695160750084577e+18,-6.0,-3.0,-5.0,-9.0,-4.0,-4.0,-5.0,-4.0
1.695160750084577e+18,-2.0,-4.0,-5.0,-8.0,-1.0,-2.0,-2.0,-1.0
1.695160750099568e+18,-3.0,-8.0,-2.0,2.0,2.0,2.0,1.0,1.0
1.695160750099568e+18,1.0,8.0,-3.0,-6.0,-1.0,-1.0,-1.0,-1.0
1.6951607501075638e+18,-3.0,-10.0,-3.0,3.0,-4.0,-7.0,-4.0,-3.0
1.6951607501075638e+18,0.0,1.0,2.0,3.0,2.0,5.0,2.0,1.0
1.6951607501235546e+18,2.0,5.0,-1.0,1.0,1.0,-2.0,-1.0,1.0
1.6951607501235546e+18,-5.0,-13.0,-3.0,4.0,5.0,4.0,2.0,0.0
1.6951607501295506e+18,3.0,7.0,3.0,0.0,-2.0,-2.0,0.0,0.0
1.6951607501295506e+18,-1.0,1.0,-3.0,-2.0,-1.0,-2.0,-2.0,-2.0
1.6951607501385454e+18,-2.0,-2.0,2.0,2.0,-1.0,2.0,3.0,-3.0
1.6951607501385454e+18,-6.0,1.0,-5.0,-4.0,-1.0,1.0,-1.0,-4.0
1.6951607501605317e+18,6.0,5.0,0.0,-3.0,-3.0,-2.0,-3.0,2.0
1.6951607501615327e+18,6.0,1.0,0.0,-2.0,-2.0,-1.0,2.0,14.0
1.6951607501625318e+18,-5.0,-6.0,0.0,0.0,0.0,-2.0,-5.0,-22.0
1.6951607501625318e+18,-4.0,0.0,0.0,3.0,0.0,-2.0,0.0,-2.0
1.6951607501675323e+18,7.0,10.0,4.0,-2.0,-5.0,-3.0,-4.0,8.0
1.6951607501685286e+18,-1.0,-7.0,-7.0,-2.0,0.0,3.0,5.0,-14.0
1.695160750174525e+18,-3.0,-8.0,4.0,5.0,3.0,3.0,0.0,5.0
1.695160750174525e+18,5.0,0.0,-7.0,-5.0,-1.0,0.0,-1.0,-1.0
1.6951607501985114e+18,-9.0,0.0,2.0,0.0,-1.0,-2.0,-1.0,-4.0
1.6951607501985114e+18,-1.0,7.0,5.0,-3.0,-1.0,-3.0,-8.0,-1.0
1.6951607501995108e+18,-5.0,-19.0,-7.0,-2.0,-1.0,1.0,2.0,-1.0
1.6951607501995108e+18,-2.0,-1.0,2.0,1.0,0.0,-3.0,-1.0,-4.0
1.6951607502045087e+18,2.0,0.0,-3.0,-1.0,4.0,-1.0,-6.0,1.0
1.6951607502045087e+18,-1.0,4.0,1.0,-4.0,-8.0,-5.0,-1.0,-3.0
1.6951607502135037e+18,-1.0,6.0,1.0,1.0,3.0,4.0,4.0,-1.0
1.6951607502135037e+18,4.0,8.0,4.0,3.0,-1.0,-2.0,-1.0,7.0
1.6951607502284938e+18,-2.0,1.0,0.0,0.0,0.0,-1.0,0.0,-4.0
1.695160750229494e+18,0.0,-2.0,-6.0,1.0,1.0,-1.0,3.0,1.0
1.695160750229494e+18,-10.0,-8.0,-1.0,-2.0,-5.0,-5.0,-5.0,-3.0
1.6951607502304934e+18,10.0,-3.0,-2.0,0.0,-2.0,0.0,-4.0,6.0
1.695160750250486e+18,3.0,4.0,1.0,1.0,1.0,3.0,13.0,-2.0
1.6951607502514813e+18,-4.0,-3.0,2.0,6.0,4.0,2.0,-1.0,-1.0
1.6951607502524805e+18,-5.0,-1.0,-3.0,-3.0,1.0,-1.0,4.0,4.0
1.69516075025348e+18,-2.0,2.0,0.0,-4.0,-2.0,-5.0,-4.0,-3.0
1.695160750264473e+18,-4.0,-5.0,-3.0,-3.0,-4.0,3.0,0.0,-2.0
1.695160750264473e+18,-1.0,-2.0,0.0,1.0,-5.0,-9.0,-12.0,-1.0
1.6951607502924575e+18,4.0,4.0,-2.0,-4.0,0.0,3.0,8.0,2.0
1.6951607502934612e+18,-3.0,-2.0,2.0,1.0,-1.0,-4.0,-9.0,-5.0
1.6951607503014554e+18,3.0,2.0,5.0,1.0,6.0,7.0,8.0,2.0
1.6951607503024783e+18,-5.0,-11.0,-9.0,-1.0,-3.0,0.0,-1.0,-2.0
1.6951607503024783e+18,1.0,-3.0,-2.0,-2.0,-2.0,-14.0,-16.0,0.0
1.6951607503024783e+18,3.0,-2.0,-1.0,-4.0,-1.0,-2.0,-10.0,-4.0
1.695160750310447e+18,1.0,0.0,1.0,1.0,-2.0,-5.0,14.0,-2.0
1.6951607503114473e+18,3.0,0.0,5.0,5.0,-1.0,8.0,10.0,-3.0
1.6951607503124462e+18,-1.0,-2.0,-6.0,-2.0,4.0,10.0,-14.0,-2.0
1.6951607503124462e+18,-2.0,0.0,-6.0,-5.0,-6.0,-10.0,-7.0,5.0
1.6951607503244393e+18,-2.0,-1.0,3.0,-2.0,-13.0,6.0,-3.0,2.0
1.69516075032544e+18,-2.0,-3.0,-23.0,-9.0,15.0,-3.0,5.0,0.0
1.6951607503414305e+18,5.0,-1.0,4.0,5.0,-10.0,-17.0,-11.0,-2.0
1.6951607503414305e+18,-6.0,-6.0,-7.0,2.0,-5.0,-15.0,-13.0,-8.0
1.695160750355423e+18,0.0,2.0,9.0,14.0,18.0,18.0,10.0,0.0
1.695160750355423e+18,0.0,3.0,5.0,4.0,7.0,-25.0,-6.0,1.0
1.695160750363417e+18,3.0,1.0,-3.0,-13.0,-10.0,36.0,4.0,0.0
1.695160750363417e+18,-2.0,-3.0,-12.0,-10.0,10.0,2.0,-2.0,-3.0
1.6951607503794112e+18,-1.0,1.0,-28.0,-15.0,-15.0,-30.0,-1.0,2.0
1.695160750380415e+18,-4.0,-2.0,7.0,18.0,11.0,31.0,-4.0,-4.0
1.695160750380415e+18,-3.0,-8.0,-59.0,-43.0,-11.0,-19.0,-3.0,3.0
1.6951607503824307e+18,4.0,5.0,28.0,39.0,-11.0,1.0,24.0,2.0
1.6951607503924004e+18,2.0,1.0,-4.0,-4.0,16.0,4.0,-54.0,0.0
1.6951607503924004e+18,-3.0,-3.0,12.0,-7.0,-13.0,-7.0,45.0,6.0
1.6951607504013972e+18,0.0,2.0,15.0,8.0,-16.0,9.0,0.0,0.0
1.6951607504013972e+18,-1.0,2.0,14.0,-11.0,11.0,9.0,19.0,0.0
1.6951607504153912e+18,4.0,3.0,6.0,21.0,23.0,25.0,8.0,1.0
1.6951607504163868e+18,4.0,-1.0,-20.0,-16.0,20.0,8.0,-16.0,5.0
1.6951607504173857e+18,-1.0,0.0,37.0,30.0,6.0,3.0,23.0,3.0
1.6951607504183923e+18,-2.0,2.0,-30.0,-20.0,-20.0,-31.0,-38.0,-15.0
1.6951607504303846e+18,-3.0,-4.0,20.0,-9.0,-20.0,-4.0,-6.0,0.0
1.695160750431378e+18,-1.0,-5.0,-26.0,-17.0,-24.0,-8.0,-3.0,0.0
1.6951607504323779e+18,-6.0,-2.0,7.0,12.0,0.0,-6.0,5.0,-7.0
1.6951607504323779e+18,-1.0,-4.0,-34.0,-12.0,1.0,-5.0,-7.0,1.0
1.6951607504543657e+18,-1.0,-3.0,-7.0,-13.0,-5.0,-10.0,-5.0,-9.0
1.6951607504553654e+18,-8.0,-4.0,5.0,11.0,2.0,6.0,-7.0,-6.0
1.6951607504553654e+18,7.0,3.0,6.0,0.0,0.0,-18.0,-19.0,1.0
1.6951607504553654e+18,-5.0,-4.0,8.0,2.0,0.0,8.0,15.0,-1.0
1.6951607504763523e+18,-2.0,0.0,-3.0,-1.0,0.0,-2.0,16.0,2.0
1.6951607504763523e+18,2.0,3.0,12.0,-12.0,-1.0,11.0,-4.0,0.0
1.6951607504783562e+18,-4.0,-4.0,-4.0,18.0,16.0,3.0,-4.0,-4.0
1.6951607504783562e+18,3.0,3.0,3.0,-13.0,0.0,15.0,8.0,5.0
1.6951607504903455e+18,-8.0,-9.0,1.0,6.0,-11.0,-8.0,-4.0,-10.0
1.6951607504903455e+18,0.0,0.0,7.0,-5.0,-9.0,-16.0,-9.0,-3.0
1.695160750506336e+18,2.0,5.0,25.0,11.0,-2.0,-5.0,-6.0,2.0
1.695160750506336e+18,1.0,-4.0,-24.0,-5.0,4.0,13.0,8.0,2.0
1.6951607505073347e+18,-5.0,-3.0,19.0,28.0,5.0,-2.0,2.0,-2.0
1.6951607505073347e+18,3.0,6.0,16.0,-8.0,-6.0,-13.0,-23.0,-4.0
1.6951607505453138e+18,-3.0,-3.0,-22.0,-20.0,-4.0,-3.0,-1.0,-5.0
1.6951607505463145e+18,-1.0,-6.0,-4.0,-19.0,-5.0,18.0,22.0,9.0
1.6951607505463145e+18,2.0,1.0,-10.0,-9.0,4.0,-4.0,15.0,6.0
1.6951607505463145e+18,-1.0,3.0,27.0,57.0,6.0,9.0,1.0,-2.0
1.6951607505483203e+18,-2.0,-3.0,-26.0,-36.0,-10.0,-6.0,-11.0,-5.0
1.6951607505483203e+18,1.0,5.0,25.0,-14.0,3.0,0.0,1.0,1.0
1.695160750557305e+18,-2.0,-2.0,-16.0,13.0,7.0,2.0,-4.0,0.0
1.695160750557305e+18,-2.0,0.0,6.0,-16.0,-5.0,-6.0,-5.0,-3.0
1.695160750566306e+18,-1.0,-3.0,21.0,47.0,15.0,2.0,10.0,0.0
1.695160750566306e+18,-1.0,-1.0,10.0,13.0,-8.0,-7.0,-4.0,1.0
1.6951607505673e+18,3.0,3.0,-9.0,-25.0,1.0,-1.0,3.0,1.0
1.6951607505682998e+18,-1.0,-3.0,-4.0,6.0,-2.0,6.0,7.0,-1.0
1.695160750620271e+18,0.0,1.0,-7.0,-13.0,0.0,0.0,3.0,1.0
1.695160750620271e+18,-3.0,6.0,-40.0,-50.0,-10.0,-5.0,-6.0,-5.0
1.6951607506212695e+18,-3.0,-11.0,23.0,35.0,-3.0,-8.0,-2.0,-1.0
1.6951607506222728e+18,-3.0,-3.0,-36.0,-53.0,-10.0,-6.0,-3.0,-1.0
1.6951607506552545e+18,0.0,-5.0,6.0,66.0,9.0,5.0,6.0,3.0
1.6951607506552545e+18,-6.0,-4.0,4.0,-13.0,-2.0,-10.0,-28.0,-9.0
1.6951607506702472e+18,1.0,5.0,0.0,2.0,4.0,1.0,1.0,1.0
1.6951607506702472e+18,0.0,-2.0,-6.0,-17.0,-10.0,3.0,-2.0,-2.0
1.6951607506822382e+18,-5.0,-13.0,-35.0,-76.0,-15.0,-11.0,-23.0,-11.0
1.6951607506942546e+18,0.0,4.0,32.0,53.0,13.0,10.0,12.0,3.0
1.695160750695227e+18,0.0,1.0,-20.0,-26.0,1.0,1.0,9.0,7.0
1.695160750696227e+18,-1.0,-4.0,18.0,22.0,2.0,3.0,-1.0,-1.0
1.695160750696227e+18,1.0,9.0,9.0,-2.0,-6.0,-2.0,-6.0,2.0
1.695160750696227e+18,-2.0,-6.0,-15.0,-4.0,9.0,0.0,-1.0,-1.0
1.695160750696227e+18,3.0,8.0,-31.0,-26.0,1.0,8.0,7.0,1.0
1.695160750698226e+18,3.0,-2.0,-1.0,-44.0,-17.0,-11.0,-6.0,-1.0
1.695160750698226e+18,-4.0,2.0,15.0,24.0,4.0,11.0,25.0,0.0
1.6951607506992292e+18,0.0,-2.0,7.0,13.0,-4.0,-11.0,-11.0,-1.0
1.6951607507072205e+18,-1.0,0.0,-18.0,-29.0,-3.0,-5.0,4.0,-2.0
1.6951607507082232e+18,-1.0,-2.0,9.0,1.0,8.0,19.0,22.0,4.0
