timestamp,left_data_Ac_X,left_data_Ac_Y,left_data_Ac_Z,left_data_Gy_X,left_data_Gy_Y,left_data_Gy_Z,left_data_flex_1,left_data_flex_2,left_data_flex_3,left_data_flex_4,left_data_flex_5,right_data_Ac_X,right_data_Ac_Y,right_data_Ac_Z,right_data_Gy_X,right_data_Gy_Y,right_data_Gy_Z,right_data_flex_1,right_data_flex_2,right_data_flex_3,right_data_flex_4,right_data_flex_5
1695160186663449700,-8.833407402,-1.638831019,-1.137245774,-0.119508423,0.104852989,-0.192385912,9,31,30,45,25,-8.607154846,3.8630445,0.828393817,0.051294025,-0.016653905,0.03130934,-28,-23,-25,37,129
1695160186664449700,-8.833407402,-1.630451322,-1.140837073,-0.118842266,0.107650839,-0.190787122,8,32,29,51,25,-8.609549522,3.861847401,0.829590917,0.051693719,-0.017586524,0.032641653,-29,-25,-19,38,129
1695160186665449700,-8.832210541,-1.623268723,-1.144428372,-0.117643185,0.110182241,-0.188921899,6,30,26,46,25,-8.611943245,3.858256102,0.823605359,0.05249311,-0.018519141,0.033840735,-29,-23,-24,34,125
1695160186666449700,-8.835801125,-1.613691926,-1.149216771,-0.116310872,0.112846859,-0.186656967,8,30,29,45,27,-8.610746384,3.852270603,0.821211159,0.053692192,-0.019584993,0.034906585,-34,-24,-20,36,128
1695160186667449700,-8.834604263,-1.605312228,-1.146822572,-0.114578865,0.115378261,-0.183992341,8,29,30,48,24,-8.61314106,3.851073503,0.822408259,0.054624807,-0.020650841,0.036105666,-27,-21,-21,37,129
1695160186777387600,-8.893261909,-1.496376038,-1.15280807,-0.027045943,0.145088822,-0.062352221,9,32,29,45,27,-8.63109684,3.823540211,0.798466265,0.066215925,-0.032241959,0.043033689,-28,-25,-23,36,125
1695160186778387600,-8.899248123,-1.491587639,-1.15280807,-0.021316998,0.145754978,-0.0528928,9,29,28,45,23,-8.632294655,3.819948912,0.798466265,0.065949462,-0.032241959,0.042633995,-26,-21,-20,37,129
1695160186779387600,-8.906430244,-1.48799634,-1.15400517,-0.015721286,0.146421134,-0.043033689,8,32,26,45,25,-8.634688377,3.818751812,0.796072066,0.065416537,-0.031975497,0.042101074,-30,-22,-21,40,132
1695160186780387600,-8.914810181,-1.482010841,-1.15520227,-0.010258805,0.14695406,-0.032908116,8,31,31,47,25,-8.635885239,3.819948912,0.792480767,0.064883612,-0.031575806,0.041434918,-29,-23,-23,32,129
1695160186781387600,-8.925583839,-1.477222443,-1.149216771,-0.004796324,0.14748697,-0.022782542,3,27,26,47,25,-8.639476776,3.817554712,0.785298169,0.064483918,-0.031176111,0.040768761,-31,-21,-23,36,130
1695160186838348900,-9.070432663,-1.568202138,-1.118092179,0.081004597,0.143756509,0.165606424,6,30,28,44,21,-8.639476776,3.787626982,0.776918471,0.056623276,-0.021450229,0.033174578,-27,-24,-27,36,129
1695160186839348900,-9.084798813,-1.576581836,-1.11689508,0.084868304,0.143090352,0.173999995,8,32,29,47,24,-8.638279915,3.788824081,0.778115571,0.056623276,-0.021316998,0.032774884,-25,-22,-25,38,130
1695160186840348900,-9.097966194,-1.586158633,-1.11689508,0.088598773,0.142557427,0.181993872,8,30,27,46,24,-8.638279915,3.790021181,0.784101069,0.056490045,-0.021316998,0.03237519,-27,-23,-21,34,129
1695160186841348900,-9.111134529,-1.593341231,-1.11450088,0.09246248,0.142024502,0.190254211,6,30,27,47,23,-8.639476776,3.791218281,0.788889468,0.056490045,-0.021316998,0.031975497,-27,-23,-25,36,130
1695160186842348900,-9.127894402,-1.605312228,-1.112106681,0.095926493,0.141358346,0.19784838,5,31,28,45,24,-8.635885239,3.788824081,0.792480767,0.056090351,-0.021183766,0.031442571,-29,-21,-22,37,130
1695160186893317800,-9.334992409,-1.887827992,-0.963666201,0.155081168,0.118442573,0.29817152,5,29,26,46,24,-8.643068314,3.807977915,0.78050977,0.049029093,-0.023182238,0.014255743,-29,-23,-23,37,129
1695160186894317800,-9.343372345,-1.902193308,-0.961272001,0.15841195,0.115111791,0.299637049,4,32,26,48,25,-8.645462036,3.812766314,0.78050977,0.048762634,-0.023182238,0.013589587,-29,-24,-21,36,128
1695160186895317800,-9.351752281,-1.915361404,-0.958877802,0.161609486,0.111381322,0.300569683,16,31,25,46,25,-8.645462036,3.818751812,0.782903969,0.048629403,-0.023315467,0.01292343,-22,-21,-21,38,130
1695160186896317800,-9.357737541,-1.928529501,-0.955286503,0.16467382,0.107517615,0.300836146,9,31,27,47,25,-8.644265175,3.822343111,0.786495268,0.048496172,-0.023315467,0.012390506,-27,-21,-28,37,129
1695160186897317800,-9.361329079,-1.942894697,-0.952892303,0.167338446,0.103254206,0.300569683,9,32,30,48,25,-8.643068314,3.82473731,0.791283667,0.048496172,-0.023315467,0.011990812,-25,-19,-20,40,130
1695160186945287000,-9.385271072,-2.059013367,-0.948103845,0.164274111,0.032641653,0.217300147,6,29,28,47,21,-8.645462036,3.877409697,0.809240162,0.049295556,-0.024114855,0.020117918,-29,-21,-21,36,131
1695160186946287000,-9.386467934,-2.063801765,-0.950498104,0.161609486,0.030509954,0.210771829,9,32,28,45,27,-8.647856712,3.877409697,0.812831461,0.049428791,-0.024248086,0.021183766,-29,-21,-20,34,130
1695160186947287000,-9.385271072,-2.066195965,-0.950498104,0.159078106,0.028644716,0.203977033,4,29,27,46,26,-8.646659851,3.879803896,0.812831461,0.049562022,-0.024514547,0.022116385,-28,-20,-21,36,130
1695160186948287000,-9.382876396,-2.070984364,-0.955286503,0.156413481,0.026513018,0.197581932,9,32,27,48,27,-8.647856712,3.883395195,0.810437262,0.04969525,-0.024914242,0.023182238,-30,-25,-21,35,129
1695160186949287000,-9.385271072,-2.075772762,-0.956483603,0.153748855,0.024781011,0.19118683,6,32,26,46,25,-8.649053574,3.884592295,0.815225661,0.04969525,-0.025180703,0.024248086,-29,-21,-24,36,126
1695160187009250900,-9.339780807,-2.087743998,-1.052251697,0.153882071,-0.014788668,0.091263399,8,31,27,46,21,-8.646659851,3.870227098,0.793677866,0.053026035,-0.033707503,0.03956968,-31,-21,-27,34,130
1695160187010250900,-9.333795547,-2.080561161,-1.061828494,0.154548228,-0.01718683,0.086200617,9,32,27,47,23,-8.644265175,3.870227098,0.790086567,0.053159267,-0.033840735,0.03996937,-26,-23,-19,40,128
1695160187011250900,-9.325415611,-2.073378563,-1.073799491,0.15481469,-0.019451762,0.081004597,6,32,29,45,23,-8.646659851,3.867832899,0.785298169,0.053292494,-0.034107197,0.040369064,-27,-24,-23,33,130
1695160187012250900,-9.317035675,-2.064998865,-1.082179189,0.154947937,-0.02158346,0.075808577,4,30,29,47,27,-8.643068314,3.867832899,0.78050977,0.053425729,-0.034506891,0.040635526,-31,-18,-23,37,130
1695160187013250900,-9.315838814,-2.056619167,-1.086967587,0.154681474,-0.023715161,0.070745789,8,31,26,48,25,-8.640673637,3.866635799,0.776918471,0.053692192,-0.034640122,0.04103522,-27,-21,-22,34,130
1695160187074213700,-9.232041359,-1.903390408,-1.201889277,0.117909648,-0.037038282,-0.02158346,4,31,29,47,25,-8.640673637,3.860650301,0.800860465,0.050361406,-0.033041347,0.044632465,-30,-20,-24,39,132
1695160187075213700,-9.224859238,-1.89620769,-1.213860273,0.116177641,-0.03757121,-0.026246555,16,30,29,48,23,-8.637083054,3.860650301,0.796072066,0.050094947,-0.033307809,0.045032158,-27,-23,-19,37,132
1695160187076213700,-9.217676163,-1.887827992,-1.217451572,0.114578865,-0.037970904,-0.030643184,4,30,28,45,23,-8.639476776,3.859453201,0.793677866,0.049562022,-0.033441041,0.045565084,-27,-23,-19,37,130
1695160187077213700,-9.212887764,-1.880645394,-1.22583127,0.11298009,-0.038237367,-0.035173047,8,32,31,48,21,-8.640673637,3.861847401,0.793677866,0.049162328,-0.033707503,0.046098009,-26,-23,-23,35,130
1695160187078213700,-9.20929718,-1.872265697,-1.236605167,0.111647777,-0.038637057,-0.039702907,6,32,28,47,25,-8.640673637,3.860650301,0.797269166,0.048762634,-0.033973966,0.046497703,-25,-25,-25,34,130
1695160187142175200,-9.123106003,-1.687912226,-1.304839969,0.113912709,-0.02571363,-0.090730481,6,31,29,45,24,-8.638279915,3.82593441,0.797269166,0.051560488,-0.036105666,0.05489127,-29,-24,-23,36,129
1695160187143175200,-9.124302864,-1.678335428,-1.312022567,0.114312403,-0.023315467,-0.091130167,5,30,27,44,26,-8.639476776,3.82593441,0.798466265,0.051960181,-0.036105666,0.055024505,-27,-22,-21,38,131
1695160187144175200,-9.119514465,-1.666364431,-1.312022567,0.114712104,-0.020784073,-0.091529861,4,29,26,50,23,-8.638279915,3.82473731,0.792480767,0.052359879,-0.036238898,0.055424199,-25,-25,-23,38,128
1695160187145175200,-9.117119789,-1.656787634,-1.309628367,0.115511484,-0.01825268,-0.091663092,9,32,28,46,24,-8.639476776,3.82473731,0.790086567,0.052759573,-0.036372125,0.055557426,-29,-27,-23,42,130
1695160187146175200,-9.114726067,-1.646013618,-1.312022567,0.116310872,-0.015721286,-0.091663092,8,31,30,46,19,-8.638279915,3.822343111,0.793677866,0.053159267,-0.03650536,0.055690661,-25,-22,-20,40,133
1695160187210136600,-9.085995674,-1.538274646,-1.29885447,0.125903517,0.010658499,-0.073543645,8,30,27,49,24,-8.627506256,3.790021181,0.792480767,0.056889739,-0.03650536,0.054624807,-26,-19,-21,37,130
1695160187211136600,-9.085995674,-1.532289028,-1.303642869,0.126969382,0.011591119,-0.07194487,8,27,28,50,21,-8.628703117,3.787626982,0.785298169,0.056889739,-0.03650536,0.054358348,-27,-20,-20,38,130
1695160187212136600,-9.089587212,-1.529894829,-1.308431268,0.128035218,0.012390506,-0.070346095,6,32,29,46,21,-8.632294655,3.786429882,0.78050977,0.057022974,-0.036372125,0.053825419,-26,-21,-22,38,128
1695160187213136600,-9.089587212,-1.52510643,-1.307234168,0.129234299,0.013189893,-0.068347625,8,33,27,45,21,-8.63109684,3.785232782,0.782903969,0.057022974,-0.036372125,0.053425729,-26,-19,-24,37,130
1695160187214136600,-9.087192535,-1.520318031,-1.303642869,0.130300149,0.014122511,-0.066482387,5,32,28,46,20,-8.628703117,3.785232782,0.78050977,0.057022974,-0.036372125,0.0528928,-27,-21,-20,40,129
1695160187284095500,-9.063250542,-1.502361536,-1.22583127,0.158811629,0.038104136,-0.015188362,8,25,29,48,24,-8.629899979,3.779247284,0.755370617,0.053558957,-0.030243492,0.044765696,-26,-19,-19,38,131
1695160187285095500,-9.054870605,-1.503558636,-1.224634171,0.161609486,0.039836142,-0.011457887,5,32,29,50,17,-8.632294655,3.776853085,0.754173517,0.053692192,-0.030243492,0.044765696,-26,-20,-23,40,128
1695160187286095500,-9.047688484,-1.507149935,-1.216254473,0.164407358,0.041834611,-0.007993874,9,28,28,45,25,-8.633491516,3.778050184,0.752976418,0.053958651,-0.03011026,0.044632465,-27,-25,-19,39,133
1695160187287095500,-9.040505409,-1.509544134,-1.212663174,0.166539043,0.043033689,-0.005862175,9,28,26,48,25,-8.637083054,3.778050184,0.752976418,0.054091886,-0.029710567,0.044499233,-26,-21,-19,40,132
1695160187288095500,-9.036913872,-1.515529633,-1.209071875,0.169736609,0.044765696,-0.002398162,16,32,26,45,27,-8.638279915,3.778050184,0.754173517,0.054225113,-0.029710567,0.044632465,-26,-21,-17,42,130
1695160187339062300,-8.995016098,-1.532289028,-1.051054597,0.218898922,0.055823889,0.05768913,10,31,27,46,27,-8.678980827,3.857059002,0.725443125,0.052759573,-0.051960181,0.021450229,-29,-19,-18,38,135
1695160187340062300,-8.993818283,-1.537077546,-1.034295082,0.220098019,0.055424199,0.060620211,10,32,29,48,25,-8.647856712,3.8654387,0.758961916,0.049162328,-0.0528928,0.02051761,-26,-23,-21,42,132
1695160187341062300,-8.992621422,-1.540668845,-1.022324085,0.221696794,0.05489127,0.063817769,5,30,31,46,23,-8.615534782,3.859453201,0.787692368,0.045964777,-0.051693719,0.02051761,-22,-23,-34,42,130
1695160187342062300,-8.992621422,-1.541865945,-1.016338587,0.223162323,0.054358348,0.066882081,8,32,29,45,23,-8.603564262,3.853467703,0.787692368,0.044099543,-0.049162328,0.02051761,-23,-18,-21,37,132
1695160187343062300,-8.989029884,-1.547851443,-1.006761789,0.224494636,0.053425729,0.069946401,4,32,27,47,25,-8.614337921,3.854664803,0.751779318,0.043966308,-0.048229709,0.019984685,-28,-20,-21,40,130
1695160187397028400,-9.085995674,-1.543063045,-0.962469101,0.217433393,0.010125575,0.091263399,2,27,26,46,19,-8.623914719,3.894169092,0.699106872,0.086333841,-0.049162328,0.033574272,-21,-23,-19,37,132
1695160187398028400,-9.096769333,-1.540668845,-0.968454599,0.214369074,0.007460949,0.091263399,9,29,26,46,23,-8.627506256,3.904942989,0.684741676,0.088465542,-0.051826954,0.031842265,-26,-21,-21,36,129
1695160187399028400,-9.108740807,-1.540668845,-0.969651699,0.211437985,0.005062787,0.091396637,4,31,26,45,23,-8.632294655,3.920505285,0.672770679,0.090730481,-0.055690661,0.029843798,-26,-21,-21,37,130
1695160187400028400,-9.115922928,-1.543063045,-0.969651699,0.208107188,0.002797856,0.091663092,8,31,30,45,24,-8.633491516,3.934870481,0.66917938,0.092595711,-0.060220521,0.02691271,-23,-21,-18,42,132
1695160187401028400,-9.124302864,-1.543063045,-0.970848799,0.205042884,0.000932619,0.092196018,2,32,26,45,19,-8.628703117,3.946841478,0.678756177,0.093261868,-0.06461715,0.02358193,-27,-21,-20,40,130
1695160187479982000,-9.166201591,-1.662773132,-1.007958889,0.210238889,-0.010924961,0.123771824,10,30,27,48,21,-8.566453934,3.982754469,0.839167714,0.005728943,-0.066082694,-0.063950993,-26,-21,-19,40,130
1695160187480982000,-9.162610054,-1.663970232,-1.009155989,0.212637067,-0.011457887,0.125104129,1,31,26,47,23,-8.56046772,3.967192173,0.840364814,0.004529862,-0.063418068,-0.062485453,-29,-20,-21,36,130
1695160187481982000,-9.153033257,-1.668758631,-1.007958889,0.21503523,-0.01185758,0.126436442,4,30,26,45,23,-8.56046772,3.951629877,0.839167714,0.002264931,-0.059820827,-0.058488514,-28,-20,-21,40,127
1695160187482982000,-9.145850182,-1.668758631,-1.00317049,0.216767237,-0.012257273,0.127502292,5,26,26,45,19,-8.570044518,3.943250179,0.840364814,-0.000133231,-0.057022974,-0.054225113,-26,-21,-23,36,132
1695160187483982000,-9.137471199,-1.667561531,-0.994790792,0.217966303,-0.012790199,0.128168449,6,31,28,47,23,-8.567650795,3.924096584,0.842759013,-0.001465544,-0.054358348,-0.049828485,-27,-24,-21,35,130
1695160187552939000,-9.058462143,-1.699883223,-1.012747288,0.122972436,-0.027045943,0.065683,8,32,27,46,25,-8.627506256,3.883395195,0.939724147,-0.008660031,-0.040901989,-0.005728943,-26,-20,-21,38,132
1695160187553939000,-9.057265282,-1.707065821,-1.018732786,0.113379791,-0.028511487,0.057955589,2,32,27,48,23,-8.628703117,3.870227098,0.960074902,-0.013456355,-0.03757121,0.00106585,-26,-23,-21,37,133
1695160187554939000,-9.060855865,-1.70946002,-1.021126986,0.103787132,-0.029843798,0.050094947,8,29,28,45,23,-8.628703117,3.861847401,0.981622696,-0.017053599,-0.033441041,0.007860643,-26,-25,-21,38,132
1695160187555939000,-9.064447403,-1.716642618,-1.028309584,0.094194487,-0.031042879,0.041834611,3,30,26,48,24,-8.63109684,3.8630445,0.984016895,-0.020384381,-0.028911179,0.014788668,-27,-21,-22,40,129
1695160187556939000,-9.072827339,-1.721431017,-1.034295082,0.084601834,-0.032508422,0.033174578,4,32,28,47,23,-8.633491516,3.872621298,0.979228497,-0.024514547,-0.024647778,0.021183766,-26,-25,-21,38,132
1695160187620901400,-9.180566788,-1.71065712,-1.163581967,-0.036105666,-0.030509954,-0.124437973,7,31,27,45,23,-8.65144825,3.817554712,0.942118347,-0.042500768,0.002664625,0.055024505,-28,-21,-27,40,130
1695160187621901400,-9.186552048,-1.707065821,-1.168370485,-0.039303213,-0.027712099,-0.130833074,5,32,26,47,23,-8.655038834,3.803189516,0.943315446,-0.041834611,0.002931087,0.058222052,-27,-19,-19,38,128
1695160187622901400,-9.190143585,-1.698686123,-1.175553083,-0.042101074,-0.024514547,-0.136961713,8,30,29,45,23,-8.662221909,3.797203779,0.943315446,-0.040102605,0.002931087,0.062352221,-25,-21,-19,41,147
1695160187623901400,-9.197325706,-1.689109325,-1.181538582,-0.044366002,-0.021316998,-0.14282389,8,31,27,47,25,-8.664615631,3.801992416,0.948103845,-0.038370594,0.002664625,0.065949462,-29,-24,-24,42,132
1695160187624901400,-9.204508781,-1.675941229,-1.18752408,-0.04623124,-0.017986218,-0.148286372,4,31,26,46,23,-8.661025047,3.813963413,0.958877802,-0.037304748,0.002931087,0.068614088,-24,-20,-23,45,132
1695160187679869300,-9.205705643,-1.572990537,-1.139639974,-0.050094947,0.031709034,-0.196649313,8,29,29,46,21,-8.713697433,3.738545895,0.824802458,0.003597243,-0.028245023,0.108983152,-26,-21,-20,41,134
1695160187680869300,-9.199720383,-1.568202138,-1.136048675,-0.048496172,0.033840735,-0.197182223,10,29,27,45,20,-8.710105896,3.742137194,0.834379315,0.010658499,-0.035039816,0.107251145,-25,-21,-20,37,130
1695160187681869300,-9.192537308,-1.565807939,-1.130063176,-0.046630934,0.03543951,-0.197715163,8,31,31,45,23,-8.718485832,3.750516891,0.82001406,0.01825268,-0.041301683,0.105252676,-24,-19,-19,40,132
1695160187682869300,-9.184157372,-1.563413739,-1.125274777,-0.044898927,0.037437979,-0.198248088,6,30,29,45,24,-8.750806808,3.807977915,0.757764816,0.03011026,-0.050627869,0.099390499,-26,-23,-20,37,129
1695160187683869300,-9.175778389,-1.557428241,-1.124077678,-0.043166921,0.038903523,-0.198647782,16,31,29,49,21,-8.747216225,3.818751812,0.757764816,0.038237367,-0.062352221,0.091529861,-25,-23,-21,37,129
1695160187754824000,-9.02973175,-1.430535555,-1.009155989,-0.078073502,0.037171517,-0.217966303,6,29,26,48,23,-8.626308441,3.676296711,0.895431459,0.067548238,-0.04276723,0.125237361,-26,-22,-21,37,132
1695160187755824000,-9.026140213,-1.426944256,-1.010353088,-0.083402753,0.036372125,-0.218898922,4,32,26,50,23,-8.628703117,3.675099611,0.89303726,0.066349156,-0.039836142,0.126969382,-23,-21,-21,38,132
1695160187756824000,-9.021351814,-1.424550056,-1.011550188,-0.088865243,0.035306279,-0.219831541,4,30,27,48,24,-8.63109684,3.675099611,0.887051702,0.065416537,-0.03757121,0.128434911,-25,-20,-19,37,130
1695160187757824000,-9.021351814,-1.420958757,-1.010353088,-0.094460949,0.034506891,-0.220764175,6,30,28,46,23,-8.627506256,3.677493811,0.883460402,0.064350687,-0.035173047,0.129500762,-29,-23,-16,37,128
1695160187758824000,-9.018958092,-1.416170359,-1.006761789,-0.100056656,0.033441041,-0.221696794,16,32,27,46,21,-8.623914719,3.67869091,0.889445961,0.062885143,-0.032774884,0.130166918,-27,-21,-21,38,130
1695160187835778100,-9.028534889,-1.407790542,-1.025915384,-0.170935676,0.020384381,-0.207307816,16,30,26,45,28,-8.671798706,3.600879431,0.889445961,0.022116385,0.048762634,0.141891271,-25,-20,-21,40,130
1695160187836778100,-9.028534889,-1.406593442,-1.027112484,-0.172667682,0.020117918,-0.204376727,5,30,26,48,24,-8.675390244,3.609259129,0.884657502,0.022249617,0.047963247,0.135762632,-27,-19,-19,41,136
1695160187837778100,-9.028534889,-1.405396342,-1.031900883,-0.173999995,0.019851454,-0.201445624,5,31,27,45,26,-8.680178642,3.621230125,0.883460402,0.022516079,0.046630934,0.128568143,-27,-23,-17,41,132
1695160187838778100,-9.028534889,-1.405396342,-1.037886381,-0.175199077,0.019584993,-0.19838132,3,29,27,46,24,-8.687360764,3.624821424,0.883460402,0.022516079,0.044366002,0.120840736,-26,-21,-19,40,132
1695160187839778100,-9.030928612,-1.404199243,-1.043871999,-0.176398173,0.019318528,-0.195183769,8,27,27,48,25,-8.690952301,3.624821424,0.888248801,0.022116385,0.041568145,0.11298009,-27,-22,-23,38,130
1695160187897742500,-9.078812599,-1.414973259,-1.023521185,-0.181460962,0.021849923,-0.111514546,5,28,26,47,23,-8.706514359,3.705027103,0.847547412,0.000799387,-0.029977029,-0.005728943,-25,-21,-23,40,130
1695160187898742500,-9.085995674,-1.417367458,-1.022324085,-0.181327716,0.021849923,-0.106451757,6,30,28,48,19,-8.704120636,3.703830004,0.85353291,0.001865237,-0.032908116,-0.009859112,-23,-23,-20,37,129
1695160187899742500,-9.088389397,-1.422155857,-1.022324085,-0.181594178,0.02158346,-0.101522207,2,31,30,46,23,-8.70172596,3.705027103,0.85592711,0.00319755,-0.03543951,-0.013589587,-22,-21,-21,40,132
1695160187900742500,-9.093177795,-1.423352957,-1.015141487,-0.181860641,0.021316998,-0.096459419,8,30,27,45,23,-8.699332237,3.708618402,0.85473001,0.004529862,-0.037970904,-0.016787136,-25,-21,-23,38,131
1695160187901742500,-9.096769333,-1.426944256,-1.009155989,-0.182260334,0.021050537,-0.091396637,2,27,26,47,24,-8.696937561,3.708618402,0.85592711,0.006128637,-0.040235836,-0.019451762,-26,-24,-20,37,130
1695160187968702400,-9.118317604,-1.520318031,-0.940921247,-0.193318531,-0.00319755,0.0063951,8,29,26,45,20,-8.656236649,3.800795317,0.881066203,0.036771823,-0.032241959,-0.004529862,-27,-19,-21,40,129
1695160187969702400,-9.117119789,-1.528697729,-0.938527048,-0.193718225,-0.005595712,0.011724349,4,30,26,45,20,-8.655038834,3.807977915,0.887051702,0.036638591,-0.030243492,-0.003597243,-27,-20,-18,38,132
1695160187970702400,-9.111134529,-1.533486247,-0.932541549,-0.193984687,-0.007860643,0.017053599,5,21,27,45,25,-8.652645111,3.815160513,0.89184016,0.03650536,-0.028378254,-0.002398162,-27,-23,-21,38,132
1695160187971702400,-9.113529205,-1.538274646,-0.92895025,-0.194517612,-0.010525269,0.022382848,5,32,28,45,20,-8.653841972,3.822343111,0.89184016,0.036105666,-0.027045943,-0.001332312,-26,-21,-22,34,129
1695160187972702400,-9.114726067,-1.545457244,-0.93014735,-0.194917306,-0.013189893,0.027578866,2,30,26,46,20,-8.65144825,3.830722809,0.888248801,0.035572741,-0.026113322,-0.000532925,-26,-20,-19,41,131
1695160188045657500,-9.088389397,-1.683123827,-0.912190855,-0.216500759,-0.061286367,0.119108729,6,29,27,46,23,-8.626308441,3.843890905,0.814028561,0.051560488,-0.047830015,0.002664625,-25,-23,-21,40,132
1695160188046657500,-9.088389397,-1.693897724,-0.910993755,-0.217433393,-0.063151613,0.123238891,2,25,26,45,19,-8.622717857,3.840299606,0.811634362,0.054624807,-0.049029093,0.003597243,-26,-22,-22,41,131
1695160188047657500,-9.085995674,-1.705868721,-0.912190855,-0.218366012,-0.064883612,0.127102599,0,30,27,45,17,-8.62511158,3.835511208,0.811634362,0.057955589,-0.050094947,0.004663093,-25,-19,-17,40,133
1695160188048657500,-9.082404137,-1.717839718,-0.912190855,-0.219298616,-0.06674885,0.130699843,6,22,26,45,21,-8.62511158,3.834314108,0.808043063,0.06115314,-0.050627869,0.006128637,-25,-21,-20,36,133
1695160188049657500,-9.083600998,-1.722628117,-0.913387954,-0.220231235,-0.068614088,0.134030625,1,29,26,45,15,-8.623914719,3.835511208,0.810437262,0.064350687,-0.051160797,0.007460949,-26,-20,-21,36,129
1695160188107621700,-9.159018517,-1.851915002,-0.9660604,-0.251274139,-0.109516084,0.151883617,2,29,26,45,19,-8.611943245,3.889380693,0.895431459,0.044099543,-0.012390506,0.039036751,-27,-20,-21,38,131
1695160188108621700,-9.163806915,-1.861491799,-0.972045898,-0.25447166,-0.11191424,0.150018379,1,27,28,45,17,-8.616731644,3.878606796,0.89303726,0.040768761,-0.009592649,0.041434918,-23,-19,-20,36,132
1695160188109621700,-9.169792175,-1.871068597,-0.979228497,-0.25766921,-0.114312403,0.148153126,2,30,26,46,21,-8.623914719,3.866635799,0.89303726,0.037970904,-0.006661562,0.043833077,-26,-23,-20,44,130
1695160188110621700,-9.174580574,-1.875856996,-0.986411095,-0.261000007,-0.116444103,0.146021441,3,27,26,45,20,-8.63109684,3.855861902,0.89064306,0.035839204,-0.003730475,0.046497703,-25,-20,-23,37,129
1695160188111621700,-9.178172112,-1.879448295,-0.991199493,-0.264330775,-0.118442573,0.143756509,5,28,25,45,20,-8.638279915,3.843890905,0.894234359,0.034107197,-0.000399694,0.049162328,-26,-23,-20,39,131
1695160188198569500,-9.15063858,-2.172738075,-1.033097982,-0.17506586,-0.037970904,0.058355279,2,26,26,45,17,-8.671798706,3.776853085,0.865503907,0.04103522,-0.028245023,0.089931086,-25,-21,-19,41,132
1695160188199569500,-9.14465332,-2.170343876,-1.036689281,-0.174266458,-0.037970904,0.055424199,8,32,26,44,16,-8.671798706,3.772064686,0.864306808,0.040502299,-0.028245023,0.089664623,-26,-18,-18,42,132
1695160188200569500,-9.142259598,-2.171540976,-1.035492182,-0.173600301,-0.037837673,0.052226644,6,31,26,43,20,-8.671798706,3.769670486,0.861912608,0.039702907,-0.028245023,0.089398161,-26,-20,-19,38,136
1695160188201569500,-9.141061783,-2.170343876,-1.040280581,-0.172934145,-0.037704438,0.048895866,8,30,26,45,20,-8.668207169,3.764882088,0.866701007,0.039036751,-0.028245023,0.088998467,-25,-21,-20,36,130
1695160188202569500,-9.13866806,-2.170343876,-1.045069098,-0.172134757,-0.037704438,0.045565084,4,29,27,45,23,-8.66940403,3.761290789,0.866701007,0.038237367,-0.028111791,0.088465542,-22,-21,-18,41,135
1695160188267530200,-9.131484985,-2.135627985,-1.088164687,-0.150817752,-0.03011026,-0.015588055,3,30,28,45,24,-8.672995567,3.705027103,0.843956113,0.023981623,-0.024248086,0.075542115,-26,-21,-20,37,132
1695160188268530200,-9.133879662,-2.129642487,-1.094150186,-0.149352223,-0.029710567,-0.018652374,5,29,26,44,21,-8.670601845,3.703830004,0.845153213,0.023315467,-0.024248086,0.07474272,-27,-20,-23,38,130
1695160188269530200,-9.135076523,-2.124854088,-1.096544385,-0.147886679,-0.029310873,-0.02158346,6,27,26,47,23,-8.670601845,3.702632904,0.845153213,0.022782542,-0.024248086,0.073943339,-28,-19,-21,39,128
1695160188270530200,-9.135076523,-2.122459888,-1.103726983,-0.146421134,-0.02904441,-0.024647778,2,29,26,48,19,-8.672995567,3.700238705,0.847547412,0.022249617,-0.024248086,0.073143952,-24,-20,-20,37,132
1695160188271530200,-9.133879662,-2.118868589,-1.109712481,-0.14495559,-0.028378254,-0.027445635,1,27,25,48,20,-8.675390244,3.699041605,0.847547412,0.021716693,-0.024114855,0.072344564,-23,-21,-18,40,133
1695160188326497500,-9.090784073,-2.019509077,-1.157596469,-0.121906579,-0.008127105,-0.077274114,3,31,26,45,21,-8.675390244,3.671508312,0.822408259,0.025180703,-0.025846859,0.058888208,-26,-20,-21,38,133
1695160188327497500,-9.091980934,-2.00993228,-1.159990668,-0.121906579,-0.007327718,-0.08020521,5,30,27,45,20,-8.675390244,3.672705412,0.827196658,0.025580399,-0.025846859,0.057822358,-26,-21,-21,40,132
1695160188328497500,-9.093177795,-1.999158382,-1.164779186,-0.122173049,-0.006528331,-0.083003066,5,27,26,45,19,-8.678980827,3.672705412,0.827196658,0.025846859,-0.025846859,0.057156201,-26,-19,-19,44,130
1695160188329497500,-9.095572472,-1.991975784,-1.163581967,-0.122039817,-0.005862175,-0.085800916,6,31,26,45,20,-8.682572365,3.671508312,0.827196658,0.026113322,-0.025980091,0.056223582,-31,-20,-21,40,130
1695160188330497500,-9.096769333,-1.983596087,-1.170764685,-0.122173049,-0.005329249,-0.088598773,1,29,27,46,21,-8.683769226,3.669114113,0.827196658,0.026246555,-0.026113322,0.055557426,-25,-20,-20,42,134
1695160188387462500,-9.076418877,-1.912967205,-1.128866076,-0.097525269,0.02384839,-0.109782539,8,29,25,45,20,-8.68975544,3.695450306,0.833182216,0.01718683,-0.019451762,0.03130934,-28,-18,-21,40,134
1695160188388462500,-9.076418877,-1.906981707,-1.124077678,-0.094460949,0.025447167,-0.110049009,6,27,27,45,19,-8.687360764,3.697844505,0.830788016,0.016254211,-0.018785605,0.029977029,-27,-21,-20,34,131
1695160188389462500,-9.081207275,-1.900996208,-1.125274777,-0.091529861,0.027045943,-0.110448696,4,26,27,45,21,-8.686163902,3.699041605,0.831985116,0.015321592,-0.017986218,0.028911179,-26,-23,-20,37,134
1695160188390462500,-9.077615738,-1.89860189,-1.125274777,-0.088732004,0.028378254,-0.110848397,0,30,26,45,21,-8.682572365,3.700238705,0.831985116,0.014522205,-0.017586524,0.02797856,-28,-21,-19,38,130
1695160188391462500,-9.0740242,-1.891419291,-1.125274777,-0.086200617,0.029577335,-0.111381322,2,27,26,45,20,-8.681375504,3.700238705,0.830788016,0.013722817,-0.017053599,0.027045943,-27,-23,-23,37,132
1695160188437432900,-9.039308548,-1.786074519,-1.064222693,-0.075941809,0.034640122,-0.118575804,4,27,27,45,22,-8.675390244,3.744531393,0.841561913,0.016254211,-0.019984685,0.018652374,-26,-19,-20,38,129
1695160188438432900,-9.033323288,-1.78128612,-1.064222693,-0.075941809,0.034640122,-0.118042871,2,28,26,45,21,-8.674192429,3.746925592,0.841561913,0.016653905,-0.02051761,0.018385911,-24,-19,-18,41,132
1695160188439432900,-9.033323288,-1.777694821,-1.063025594,-0.075675346,0.034506891,-0.116977029,1,31,26,45,17,-8.675390244,3.749319792,0.845153213,0.016920367,-0.021050537,0.01825268,-25,-19,-20,41,132
1695160188440432900,-9.036913872,-1.775300503,-1.057040095,-0.075142421,0.034240428,-0.116310872,4,30,30,45,17,-8.678980827,3.746925592,0.848744512,0.017053599,-0.021450229,0.01825268,-26,-22,-19,40,132
1695160188441432900,-9.03571701,-1.775300503,-1.057040095,-0.074476264,0.033973966,-0.114978559,3,29,27,45,20,-8.680178642,3.750516891,0.85592711,0.017320061,-0.021716693,0.01825268,-22,-21,-18,41,136
1695160188500397000,-9.057265282,-1.71065712,-1.027112484,-0.057022974,0.025447167,-0.07500919,2,27,26,45,24,-8.671798706,3.797203779,0.85592711,0.019052068,-0.028245023,0.019718224,-22,-19,-19,36,134
1695160188501397000,-9.057265282,-1.70826292,-1.019929886,-0.056756508,0.025313934,-0.072211333,4,27,27,45,23,-8.66940403,3.798400879,0.859518409,0.019318528,-0.028511487,0.020117918,-19,-21,-19,42,133
1695160188502397000,-9.058462143,-1.70826292,-1.016338587,-0.056490045,0.024914242,-0.069280244,4,27,26,46,20,-8.671798706,3.798400879,0.863109708,0.019451762,-0.028777948,0.020650841,-26,-21,-17,40,131
1695160188503397000,-9.058462143,-1.71065712,-1.015141487,-0.056223582,0.024781011,-0.066349156,4,26,22,44,23,-8.674192429,3.798400879,0.861912608,0.019718224,-0.02904441,0.021183766,-23,-20,-19,38,133
1695160188504397000,-9.057265282,-1.713051319,-1.015141487,-0.055690661,0.024647778,-0.063151613,1,27,26,45,20,-8.674192429,3.799597979,0.859518409,0.019851454,-0.029710567,0.02158346,-26,-20,-20,40,132
1695160188573355700,-9.084798813,-1.765723705,-1.006761789,-0.022116385,0.015454824,-0.013056661,6,28,29,46,16,-8.683769226,3.834314108,0.866701007,0.021983154,-0.034240428,0.026113322,-26,-20,-20,38,134
1695160188574355700,-9.084798813,-1.765723705,-1.007958889,-0.020784073,0.014522205,-0.011058193,5,26,26,45,20,-8.678980827,3.839102507,0.871489406,0.021316998,-0.033441041,0.025980091,-26,-18,-19,38,135
1695160188575355700,-9.088389397,-1.765723705,-1.007958889,-0.019584993,0.013722817,-0.009192956,6,25,26,46,21,-8.677783966,3.841496706,0.867898107,0.020650841,-0.032774884,0.026513018,-25,-18,-19,41,133
1695160188576355700,-9.089587212,-1.766920805,-1.009155989,-0.018652374,0.013189893,-0.007194487,6,27,25,45,20,-8.675390244,3.845088005,0.870292306,0.019851454,-0.032241959,0.026646247,-25,-23,-18,38,132
1695160188577355700,-9.090784073,-1.766920805,-1.016338587,-0.017852986,0.012656967,-0.005329249,2,29,26,45,20,-8.675390244,3.848679304,0.873883605,0.019185297,-0.031709034,0.02691271,-23,-18,-20,42,133
1695160188635319300,-9.115922928,-1.808819413,-0.997184992,-0.028245023,0.003863706,0.002931087,4,26,26,45,19,-8.643068314,3.821146011,0.851138711,0.027578866,-0.041568145,0.054624807,-24,-18,-18,41,133
1695160188636319300,-9.119514465,-1.814804912,-0.991199493,-0.029310873,0.003330781,0.002664625,4,31,26,45,21,-8.643068314,3.816357613,0.849941611,0.028777948,-0.042367533,0.056090351,-24,-21,-20,40,133
1695160188637319300,-9.121908188,-1.818396211,-0.991199493,-0.029977029,0.002664625,0.002264931,5,31,27,44,18,-8.643068314,3.807977915,0.843956113,0.029977029,-0.043033689,0.057422664,-35,-18,-17,40,134
1695160188638319300,-9.125499725,-1.82198751,-0.993593693,-0.030643184,0.0021317,0.001598775,3,27,28,47,17,-8.640673637,3.807977915,0.841561913,0.031176111,-0.043566614,0.058355279,-22,-19,-18,43,130
1695160188639319300,-9.127894402,-1.829170108,-0.992396593,-0.031442571,0.001732006,0.001465544,3,31,26,46,19,-8.644265175,3.804386616,0.840364814,0.032108728,-0.043966308,0.059154671,-27,-19,-28,40,134
1695160188692704900,-9.118317604,-1.944091797,-1.063025594,-0.042101074,0.016787136,-0.018918836,6,31,27,45,26,-8.649053574,3.773261786,0.800860465,0.031709034,-0.040502299,0.060886677,-23,-20,-19,42,134
1695160188693704900,-9.118317604,-1.942894697,-1.069011092,-0.040369064,0.016254211,-0.019451762,9,29,27,46,23,-8.646659851,3.772064686,0.802057564,0.031575806,-0.03996937,0.061019909,-24,-19,-17,38,136
1695160188694704900,-9.119514465,-1.936909199,-1.066616893,-0.039036751,0.015721286,-0.019984685,8,30,28,46,23,-8.644265175,3.768473387,0.805648863,0.031575806,-0.039436448,0.061286367,-23,-19,-20,38,136
1695160188695704900,-9.120711327,-1.9309237,-1.060631394,-0.037704438,0.015321592,-0.020650841,9,31,27,47,23,-8.643068314,3.767276287,0.810437262,0.031575806,-0.038637057,0.061552834,-23,-18,-19,42,135
1695160188696704900,-9.118317604,-1.929726601,-1.058237195,-0.03650536,0.015188362,-0.021316998,8,31,28,46,23,-8.639476776,3.767276287,0.814028561,0.031709034,-0.037970904,0.061819296,-25,-22,-20,40,131
1695160188741706900,-9.099164009,-1.855506301,-1.039083481,-0.055424199,0.007061256,0.006128637,3,31,26,45,25,-8.670601845,3.697844505,0.857124209,0.06008729,-0.049295556,0.059154671,-25,-18,-20,40,132
1695160188742706900,-9.09437561,-1.8602947,-1.037886381,-0.055557426,0.007061256,0.005862175,4,29,27,50,21,-8.671798706,3.694253206,0.860715508,0.059554365,-0.048762634,0.058888208,-23,-18,-17,43,136
1695160188743706900,-9.091980934,-1.862688899,-1.037886381,-0.055557426,0.007061256,0.005728943,2,29,26,48,24,-8.672995567,3.691859007,0.864306808,0.059287902,-0.048496172,0.058754977,-19,-20,-19,42,133
1695160188744706900,-9.09437561,-1.867477298,-1.040280581,-0.05595712,0.007061256,0.005462481,6,31,27,45,24,-8.675390244,3.689464808,0.865503907,0.058621746,-0.047963247,0.058621746,-25,-12,-19,41,135
1695160188745706900,-9.096769333,-1.872265697,-1.037886381,-0.056090351,0.007327718,0.005329249,4,28,27,45,23,-8.677783966,3.684676409,0.872686505,0.057822358,-0.047163859,0.058355279,-25,-18,-15,44,133
1695160188791657600,-9.072827339,-1.841141105,-1.120486379,-0.04969525,0.020251149,0.001732006,5,31,26,45,20,-8.65743351,3.749319792,0.796072066,0.08313629,-0.023182238,0.046098009,-27,-16,-21,44,135
1695160188792657600,-9.071630478,-1.844732404,-1.126471877,-0.050094947,0.020251149,0.001865237,6,32,26,46,18,-8.659827232,3.748122692,0.796072066,0.08313629,-0.023049004,0.045964777,-24,-19,-16,43,137
1695160188793657600,-9.069235802,-1.845929503,-1.133654475,-0.050761104,0.02051761,0.001998469,8,31,26,45,19,-8.659827232,3.748122692,0.794874966,0.083003066,-0.022915773,0.045964777,-23,-18,-20,45,136
1695160188794657600,-9.065644264,-1.845929503,-1.137245774,-0.051693719,0.020650841,0.001998469,5,29,27,45,21,-8.66341877,3.746925592,0.793677866,0.082869835,-0.022649311,0.045831546,-25,-17,-26,42,136
1695160188795657600,-9.064447403,-1.849520802,-1.139639974,-0.052359879,0.020917306,0.001998469,17,29,26,45,20,-8.665813446,3.749319792,0.797269166,0.082603365,-0.022649311,0.045698319,-26,-18,-15,44,132
1695160188832652200,-9.036913872,-1.837549806,-1.086967587,-0.065150075,0.006128637,-0.018785605,4,29,26,45,25,-8.779537201,3.53264451,0.950498104,-0.075808577,-0.164407358,0.070745789,-26,-21,-17,41,133
1695160188833652200,-9.036913872,-1.835155606,-1.088164687,-0.065283306,0.006128637,-0.018652374,-3,18,15,35,12,-8.774748802,3.529053211,0.933738649,-0.068880551,-0.169470131,0.073143952,-23,-21,-19,39,132
1695160188834652200,-9.036913872,-1.832761407,-1.085770488,-0.065150075,0.006261868,-0.018385911,-1,19,17,38,14,-8.76636982,3.523067713,0.915782154,-0.062218986,-0.174266458,0.075408876,-27,-18,-18,41,134
1695160188835652200,-9.03571701,-1.833958507,-1.088164687,-0.065150075,0.006261868,-0.018385911,-1,21,17,39,14,-8.756793022,3.514688015,0.894234359,-0.055424199,-0.178796321,0.077807046,-26,-20,-22,41,132
1695160188836652200,-9.034520149,-1.832761407,-1.089361787,-0.065016843,0.005995406,-0.01825268,-1,25,21,41,14,-8.754398346,3.508702517,0.873883605,-0.048629403,-0.183326185,0.080071971,-27,-18,-18,39,133
1695160188880600700,-9.107542992,-1.600523829,-0.93134445,0.092595711,0.087133229,0.064084224,0,22,19,39,14,-8.750806808,3.675099611,0.849941611,0.045032158,-0.021450229,0.02691271,-41,-32,-32,29,122
1695160188881600700,-9.107542992,-1.601720929,-0.922964752,0.094727404,0.087799385,0.065549769,-1,25,23,43,15,-8.750806808,3.676296711,0.847547412,0.044898927,-0.022382848,0.027045943,-36,-32,-34,30,130
1695160188882600700,-9.108740807,-1.59932673,-0.916979253,0.096192956,0.087932616,0.066615619,-1,29,23,40,14,-8.750806808,3.677493811,0.847547412,0.044765696,-0.023315467,0.027179174,-39,-31,-32,31,120
1695160188883600700,-9.10634613,-1.595735431,-0.903811157,0.096859112,0.087399691,0.067281775,0,21,26,43,15,-8.750806808,3.677493811,0.842759013,0.044765696,-0.024381317,0.027312404,-39,-33,-31,31,120
1695160188884600700,-9.10634613,-1.595735431,-0.89303726,0.096992344,0.086999997,0.067548238,0,26,19,42,14,-8.752004623,3.67869091,0.840364814,0.044765696,-0.025047474,0.027578866,-39,-33,-31,30,119
1695160188922587300,-9.103952408,-1.789665818,-1.029506683,-0.065016843,-0.010924961,0.004130168,0,21,23,43,17,-8.717288017,3.684676409,0.787692368,0.059820827,-0.002264931,0.028777948,-29,-25,-23,36,128
1695160188923587300,-9.102754593,-1.789665818,-1.030703783,-0.064750381,-0.011724349,0.003996937,0,22,20,40,15,-8.712499619,3.685873508,0.791283667,0.059554365,-0.002264931,0.029310873,-31,-25,-25,34,126
1695160188924587300,-9.101557732,-1.792060018,-1.031900883,-0.065016843,-0.012257273,0.003863706,0,21,22,42,15,-8.710105896,3.682282209,0.793677866,0.059421133,-0.002398162,0.029710567,-31,-27,-21,36,129
1695160188925587300,-9.102754593,-1.790862918,-1.028309584,-0.065283306,-0.01292343,0.003863706,-1,20,23,42,14,-8.710105896,3.68108511,0.798466265,0.059154671,-0.002531394,0.030243492,-29,-24,-28,36,128
1695160188926587300,-9.10036087,-1.789665818,-1.025915384,-0.065549769,-0.013323124,0.003863706,-1,20,23,42,17,-8.705317497,3.67869091,0.800860465,0.058888208,-0.002797856,0.030776417,-31,-23,-24,36,128
1695160188962557200,-9.0740242,-1.798045516,-1.040280581,-0.066349156,0.002531394,-0.001465544,20,33,32,55,29,-8.693346024,3.691859007,0.788889468,0.030643184,-0.028511487,0.04103522,-43,-34,-34,29,119
1695160188963557200,-9.0740242,-1.801636815,-1.042674899,-0.067015313,0.001865237,-0.001199081,18,33,36,53,27,-8.694543839,3.689464808,0.790086567,0.030509954,-0.028644716,0.040901989,-39,-34,-34,29,119
1695160188964557200,-9.076418877,-1.806425214,-1.045069098,-0.067281775,0.00106585,-0.001199081,18,30,29,50,25,-8.692149162,3.688267708,0.796072066,0.030509954,-0.028911179,0.040635526,-40,-34,-34,29,118
1695160188965557200,-9.076418877,-1.808819413,-1.037886381,-0.067415006,0.000266462,-0.00106585,16,35,33,49,28,-8.68975544,3.688267708,0.798466265,0.030776417,-0.02917764,0.040369064,-41,-34,-34,30,119
1695160188966557200,-9.075222015,-1.812410712,-1.039083481,-0.067415006,0.0,-0.000799387,16,33,30,48,27,-8.688557625,3.690661907,0.800860465,0.030909648,-0.029444104,0.040102605,-42,-34,-33,29,119
1695160189007527900,-9.10036087,-1.823184609,-1.07619369,-0.049562022,0.009059724,-0.009192956,2,23,26,44,19,-8.670601845,3.699041605,0.708683729,0.057289433,-0.032641653,0.035705972,-43,-34,-33,27,119
1695160189008527900,-9.103952408,-1.82198751,-1.07739079,-0.048229709,0.009059724,-0.008926493,2,29,25,44,16,-8.672995567,3.702632904,0.712275028,0.05768913,-0.032241959,0.035572741,-43,-35,-34,25,119
1695160189009527900,-9.107542992,-1.826775908,-1.07739079,-0.046897396,0.009192956,-0.008393568,0,27,26,44,16,-8.674192429,3.706224203,0.719457626,0.05808882,-0.031842265,0.035306279,-39,-34,-34,30,119
1695160189010527900,-9.107542992,-1.827973008,-1.079784989,-0.045565084,0.009592649,-0.007993874,0,27,25,46,15,-8.677783966,3.711012602,0.719457626,0.058355279,-0.031176111,0.034773353,-43,-34,-34,26,118
1695160189011527900,-9.107542992,-1.830367208,-1.082179189,-0.044499233,0.009592649,-0.007327718,2,29,26,45,17,-8.680178642,3.712209702,0.723048925,0.058621746,-0.030509954,0.034240428,-41,-34,-34,28,119
1695160189048528700,-9.107542992,-1.787271619,-1.064222693,-0.050094947,0.006794794,-0.018652374,-2,26,23,40,14,-1.812410712,7.149086475,-12.22958183,-4.365721226,2.905773401,0.604336917,-7,-25,-35,36,144
1695160189049528700,-9.111134529,-1.789665818,-1.066616893,-0.04969525,0.007061256,-0.018119449,-3,23,23,43,17,-1.8579005,7.241262913,-12.12543488,-4.365721226,2.923093319,0.638710558,-7,-31,-37,40,141
1695160189050528700,-9.11233139,-1.788468719,-1.065419793,-0.049562022,0.007194487,-0.017986218,-1,26,25,42,14,-1.885433793,7.279570103,-12.06557941,-4.365721226,2.932153225,0.662692189,-7,-27,-34,36,140
1695160189051528700,-9.109937668,-1.78368032,-1.064222693,-0.049295556,0.007194487,-0.017852986,-1,21,23,44,16,-1.928529501,7.293935299,-11.97459984,-4.365721226,2.940146923,0.701595724,-5,-22,-34,38,144
1695160189052528700,-9.111134529,-1.78248322,-1.063025594,-0.049162328,0.007194487,-0.017852986,0,25,21,44,15,-1.97162509,7.271190643,-11.88362026,-4.365721226,2.9424119,0.744096458,-1,-28,-34,38,142
1695160189092479300,-3.251325846,-3.790021181,-9.525331497,-4.365721226,3.332912683,-3.284949541,-2,27,-13,30,29,-2.627636433,3.493140221,-8.180987358,-4.365721226,2.089598656,2.277721167,-10,-31,-39,33,136
1695160189093479300,-3.216609955,-3.855861902,-9.572018623,-4.365721226,3.275490046,-3.301869869,-1,28,-12,29,29,-2.554613113,3.324349165,-7.8757267,-4.365721226,2.035906553,2.3711164,-10,-28,-39,31,141
1695160189094479300,-3.187879562,-3.90374589,-9.58638382,-4.365721226,3.208874464,-3.316925049,-2,29,-17,31,21,-2.463633537,3.175908566,-7.569268703,-4.365721226,1.987010717,2.461047411,-11,-25,-44,35,144
1695160189095479300,-3.15914917,-4.001908302,-9.566033363,-4.365721226,3.109483957,-3.333178997,-3,29,-21,29,19,-2.336740971,3.009511471,-7.278373241,-4.365721226,1.94424355,2.54818058,-10,-32,-41,31,140
1695160189096479300,-3.139995575,-4.072536945,-9.518148422,-4.365721226,3.028479338,-3.341972351,-5,27,-21,26,24,-2.226607561,2.8981812,-6.969521046,-4.365721226,1.907871366,2.633981705,-8,-30,-35,34,142
1695160189139482200,-2.776076794,-4.436455727,-7.343016624,-4.365721226,0.829497695,-2.986111641,-7,31,-32,26,21,-0.679953277,3.938461781,-2.352303267,-0.878260314,1.980215907,2.569897413,-12,-29,-45,31,139
1695160189140482200,-2.742558002,-4.266467571,-7.240066051,-4.365721226,0.719715178,-2.941879034,-6,29,-35,22,25,-0.638054729,3.987542868,-2.132036686,-0.615528286,2.001799345,2.474104166,-12,-28,-45,33,138
1695160189141482200,-2.707842112,-4.086902142,-7.146692276,-4.328416348,0.61752677,-2.895248175,-8,31,-36,24,20,-0.623689532,4.027047157,-1.958456993,-0.420477778,2.012990713,2.403491735,-12,-28,-45,25,137
1695160189142482200,-2.670732021,-3.90135169,-7.064092159,-4.160944939,0.522932589,-2.8463521,-4,30,-38,26,19,-0.59256494,4.074931145,-1.78128612,-0.228358343,2.019519091,2.33314538,-12,-30,-44,31,138
1695160189143482200,-2.633621931,-3.705027103,-6.994660378,-4.004264832,0.436465532,-2.796123981,-3,32,-37,26,20,-0.55904609,4.151545525,-1.580173135,-0.040235836,2.019785643,2.264131546,-12,-27,-44,31,137
1695160189198418700,-2.612074137,-1.163581967,-7.776367188,-2.152084112,-0.398361385,-1.89228332,-3,30,-37,24,17,1.946485996,6.398504257,2.828749418,1.659394979,1.599174619,1.115944862,-22,-32,-58,26,138
1695160189199418700,-2.615665436,-1.066616893,-7.869740963,-2.063885212,-0.433534473,-1.855511546,-8,32,-38,24,21,2.04584527,6.489483833,2.942473888,1.674583435,1.55933845,1.063318491,-23,-29,-59,24,139
1695160189200418700,-2.612074137,-0.961272001,-7.976283073,-1.975286365,-0.468707502,-1.819006085,-8,32,-37,20,23,2.094926596,6.590040207,3.052607059,1.687240362,1.515372038,1.01388967,-23,-29,-56,22,139
1695160189201418700,-2.606088638,-0.848744512,-8.088809967,-1.887220502,-0.504013777,-1.78263402,-8,32,-37,23,17,2.112883091,6.707355976,3.150769472,1.691903591,1.467009187,0.965926468,-23,-31,-56,22,133
1695160189202418700,-2.597708941,-0.717063427,-8.198944092,-1.799154639,-0.538787127,-1.74679482,-11,28,-38,23,19,2.142810583,6.80791235,3.232172251,1.691104054,1.412384391,0.919695258,-25,-29,-63,21,135
1695160189271377700,-1.855506301,2.835932016,-11.29464626,-0.689071953,-0.72357887,-1.30273509,-10,30,-38,23,24,3.585317135,7.354987621,2.287659645,1.180295587,0.425807029,0.551310837,-27,-31,-64,14,136
1695160189272377700,-1.805228114,2.996343374,-11.52568722,-0.637644708,-0.717583418,-1.278620243,-10,32,-37,28,20,3.626018524,7.356184959,2.183511972,1.169503927,0.421277195,0.548512995,-22,-27,-56,15,136
1695160189273377700,-1.750161409,3.166331768,-11.7447567,-0.58488518,-0.709989309,-1.251840711,-6,31,-32,26,22,3.694253206,7.371747017,1.960851192,1.149785519,0.420611024,0.541851461,-24,-30,-62,15,134
1695160189274377700,-1.691503525,3.335123062,-11.94467258,-0.529993892,-0.700263441,-1.222663164,-8,33,-38,24,20,3.732560396,7.378929615,1.792060018,1.136196017,0.427139342,0.534257293,-26,-19,-63,14,137
1695160189275377700,-1.630451322,3.49433732,-12.13381386,-0.470039815,-0.686807096,-1.190287828,-11,31,-37,27,23,3.750516891,7.378929615,1.679532528,1.128335357,0.433934122,0.528528333,-23,-29,-64,12,133
1695160189342336900,-0.976834297,5.12957716,-14.07192039,0.87519604,0.130833074,0.015588055,-6,32,-38,24,24,1.329979062,9.490615845,6.847416878,-0.426339954,0.808846831,0.213702917,-12,-53,-66,14,136
1695160189343336900,-0.951695204,5.093664169,-14.05875206,0.977650821,0.18798928,0.103920363,-7,32,-36,25,25,1.879448295,10.05205631,7.724891663,-0.647104144,0.462578863,0.23941654,-12,-60,-66,15,133
1695160189344336900,-0.921767652,5.044582844,-14.04319,1.085701346,0.246078104,0.191986218,-8,32,-38,25,27,2.652775526,10.43393135,8.463502884,-0.786730468,0.14388974,0.215168446,-3,-56,-66,12,130
1695160189345336900,-0.883460402,4.994304657,-14.03241634,1.200413465,0.305632442,0.280318528,-2,32,-36,25,28,3.42131424,10.41836834,8.876502991,-0.835626304,-0.067548238,0.161742732,-2,-55,-65,12,132
1695160189346336900,-0.840364814,4.953603268,-14.02643108,1.319522142,0.365852982,0.367451757,-4,32,-38,26,27,4.127603531,9.877279282,8.841787338,-0.747826934,-0.182526797,0.116710559,-6,-60,-65,9,128
1695160189408299300,-0.899022758,4.149151325,-13.09269238,3.597110271,1.801153064,1.052659988,5,32,-38,22,39,5.317522049,7.389703751,3.135207176,0.288712084,0.87519604,-0.36305514,-12,-60,-66,8,126
1695160189409299300,-0.984016895,3.991134167,-13.09149456,3.713154554,1.862572789,1.040136337,5,31,-38,21,37,5.050568581,7.350199223,2.960430384,0.230756521,0.888385952,-0.38383922,-12,-57,-67,6,130
1695160189410299300,-1.067813993,3.809175014,-13.09149456,3.83439517,1.91919601,1.024681449,7,31,-38,24,39,4.800374508,7.344213486,2.786850691,0.17972894,0.889718235,-0.393698305,-13,-60,-65,5,121
1695160189411299300,-1.144428372,3.615244627,-13.08790398,3.959765673,1.971822262,1.007894397,8,32,-38,22,36,4.604049683,7.369352818,2.604891539,0.131765693,0.880392075,-0.398361385,-14,-57,-65,11,119
1695160189412299300,-1.216254473,3.42011714,-13.0759325,4.089133263,2.02098465,0.990041316,18,32,-39,19,41,4.472368717,7.404068947,2.422932148,0.081537522,0.862272561,-0.401825428,-12,-64,-66,9,122
1695160189471263700,-1.642422318,0.393846184,-12.38400841,4.365588188,2.779336929,0.14801991,31,30,-37,20,44,4.375403404,7.2891469,2.364274263,-0.643373668,0.651633978,-0.681877494,-20,-57,-60,16,122
1695160189472263700,-1.638831019,0.29688102,-12.2654953,4.365588188,2.85314703,0.037038282,31,32,-37,19,40,4.311957359,7.201758862,2.421735048,-0.640575767,0.676148593,-0.715185285,-18,-53,-61,16,126
1695160189473263700,-1.641225219,0.250194073,-12.19965458,4.365588188,2.886854649,-0.019584993,30,32,-37,18,42,4.229357243,7.109581947,2.476801634,-0.631782591,0.699863672,-0.75155741,-17,-55,-62,14,123
1695160189474263700,-1.643619418,0.196324542,-12.08233929,4.365588188,2.935483932,-0.106718227,33,30,-38,19,43,4.12999773,7.006631374,2.515108824,-0.618192911,0.722113311,-0.790594161,-18,-56,-61,14,125
1695160189475263700,-1.647210717,0.140060797,-11.93748951,4.365588188,2.986111641,-0.198647782,32,31,-37,16,43,4.01747036,6.882133007,2.549824715,-0.597941756,0.742897391,-0.831496119,-19,-57,-62,16,124
1695160189526231000,-2.218227863,-1.367089152,-8.834604263,4.365588188,3.150652409,-1.704427242,36,30,-39,14,41,1.286883354,4.860229492,2.548627615,0.567298651,0.913699865,-1.790361404,-26,-34,-56,28,129
1695160189527231000,-2.220622063,-1.405396342,-8.617929459,4.365588188,3.071912527,-1.747460961,32,31,-41,16,35,1.106121182,4.769249916,2.436100245,0.641774893,0.898111761,-1.846185327,-26,-34,-56,31,128
1695160189528231000,-2.202665567,-1.416170359,-8.361749649,4.365588188,2.987977028,-1.78516531,35,32,-38,14,43,0.921767652,4.71657753,2.334346771,0.714252651,0.875728905,-1.900810003,-25,-32,-58,31,125
1695160189529231000,-2.169146776,-1.406593442,-8.080430984,4.365588188,2.903641701,-1.81847322,36,32,-37,18,40,0.732625723,4.6842556,2.238578558,0.782600284,0.847350657,-1.957300067,-27,-34,-55,31,128
1695160189530231000,-2.100912094,-1.398213744,-7.788338184,4.365588188,2.821171522,-1.848450184,34,31,-38,18,41,0.547075093,4.650736809,2.134430885,0.847617149,0.812977076,-2.014056683,-24,-33,-49,31,128
1695160189595199200,0.379480958,-3.321954966,-3.859453201,0.811777949,1.475935698,-1.618359804,46,29,-41,13,40,-1.37666595,5.585672379,0.81881696,1.093562007,-1.190554261,-2.653833151,-27,-32,-49,35,131
1695160189596199200,0.545877993,-3.469198227,-3.696647406,0.636978507,1.430503845,-1.563468575,46,31,-39,10,41,-1.423352957,5.614402771,0.641646028,1.070113301,-1.354029059,-2.678081274,-29,-32,-57,33,132
1695160189597199200,0.700303972,-3.635595322,-3.539827108,0.468041331,1.388802409,-1.505779505,48,29,-40,12,39,-1.471236944,5.635950565,0.451307029,1.051727414,-1.520701289,-2.707391977,-29,-34,-57,34,129
1695160189598199200,0.837970614,-3.816357613,-3.405751944,0.306831539,1.350032091,-1.446624875,48,30,-37,13,41,-1.501164436,5.635950565,0.314837515,1.045065761,-1.632615566,-2.729908228,-28,-30,-56,37,134
1695160189599199200,0.951695204,-4.006696701,-3.289633036,0.156679943,1.311928034,-1.387736559,52,33,-39,14,39,-1.551442742,5.615600109,0.114921682,1.048396587,-1.800753474,-2.766946316,-27,-29,-49,37,136
1695160189635170700,2.881421804,-6.489483833,-2.23259306,-0.78486526,0.679346085,-0.663225114,56,31,-50,12,37,-2.82396102,7.617152691,-3.15914917,3.483330727,-4.051428795,-3.724212885,-18,-33,-34,46,143
1695160189636170700,3.023876667,-6.512228489,-2.225410461,-0.8149755,0.686807096,-0.634846866,60,30,-48,10,32,-2.85987401,7.837419033,-3.193865061,3.580056429,-4.099658489,-3.744730473,-23,-32,-34,47,141
1695160189637170700,3.166331768,-6.546944618,-2.227804661,-0.847483873,0.701595724,-0.606068909,60,27,-47,11,33,-2.906560898,8.139088631,-3.163937569,3.644540548,-4.141093254,-3.75805378,-22,-33,-34,43,141
1695160189638170700,3.282450438,-6.593631268,-2.246958256,-0.878660023,0.721846879,-0.576491535,57,29,-44,10,35,-2.955641985,8.458714485,-3.116053581,3.674117804,-4.172402859,-3.770577192,-18,-28,-31,44,142
1695160189639170700,3.379415751,-6.645106792,-2.263717651,-0.907304764,0.745695233,-0.54691422,54,30,-52,10,37,-3.01190567,8.731653214,-3.060986757,3.677448511,-4.195318222,-3.779503822,-17,-25,-32,44,140
1695160189678144700,3.434482336,-6.272808552,-3.23456645,-0.597941756,0.730107188,-0.089664623,57,25,-60,7,29,-3.038241863,10.77869606,-1.514332533,-1.260900497,-2.970656872,-2.992240429,-14,-29,-13,43,144
1695160189679144700,3.484760523,-6.183025837,-3.292027235,-0.593678415,0.709722817,-0.055024505,58,25,-61,3,31,-3.08373189,10.65539455,-1.509544134,-1.608367562,-2.818640232,-2.933351994,-14,-29,-12,42,140
1695160189680144700,3.527856112,-6.095637321,-3.357867956,-0.590480864,0.690804005,-0.016387442,60,30,-52,6,30,-3.172317266,10.53448772,-1.520318031,-1.945042849,-2.664225101,-2.876196146,-12,-29,-9,44,142
1695160189681144700,3.60207653,-6.028599739,-3.408146143,-0.590880513,0.674416542,0.025447167,62,29,-60,2,35,-3.293224335,10.43153667,-1.55862534,-2.269460917,-2.509410381,-2.823169947,-13,-27,-11,40,140
1695160189682144700,3.682282209,-5.961562157,-3.454833031,-0.595410407,0.662692189,0.070612557,60,26,-53,2,32,-3.450044632,10.33217716,-1.623268723,-2.578823805,-2.355128765,-2.776539087,-16,-15,-11,41,140
1695160189736111300,4.12640667,-11.66933918,1.26533556,0.945675313,-0.362655431,0.137761101,85,22,-71,-2,15,-7.281964302,8.61314106,-1.890222192,-4.365721226,0.288179159,-3.069381237,-18,-31,-5,40,141
1695160189737111300,4.673481941,-11.68968964,1.046266198,0.891849875,-0.556240439,-0.022382848,85,27,-70,-2,14,-7.395689011,8.511386871,-1.833958507,-4.365721226,0.407421142,-3.12587142,-18,-33,-4,48,144
1695160189738111300,5.269638062,-11.19049835,0.762553215,0.763548255,-0.706125557,-0.178396642,88,27,-69,-2,15,-7.50462532,8.4012537,-1.772906303,-4.365721226,0.524398148,-3.182228088,-22,-28,-5,38,142
1695160189739111300,5.864596844,-10.58356857,0.529118598,0.612996936,-0.821770251,-0.324418068,82,25,-71,-4,14,-7.571662903,8.327033043,-1.726219416,-4.365721226,0.601672292,-3.219932795,-21,-29,-7,41,140
1695160189740111300,6.259640217,-10.24119759,0.404620081,0.521866739,-0.883323133,-0.412350684,86,25,-70,-7,17,-7.668628216,8.220491409,-1.653196216,-4.365721226,0.716117859,-3.275756598,-21,-29,-8,37,140
1695160189799075500,5.088875771,-5.828683853,-2.734178305,0.295240432,0.413682997,0.303500772,65,29,-70,-4,17,-10.40160942,6.864176273,-0.442927301,-2.78146863,2.289045811,-4.160278797,-28,-30,-9,37,144
1695160189800075500,4.967968464,-5.556941986,-2.82156682,0.362255752,0.430336893,0.317090333,72,27,-70,-5,14,-10.49019432,6.791152954,-0.347159237,-2.620258808,2.338075161,-4.163476467,-26,-28,-9,37,141
1695160189801075500,4.863820553,-5.309142113,-2.904166698,0.422343016,0.438197553,0.329747319,68,27,-71,-1,15,-10.57399178,6.72531271,-0.264559299,-2.461047411,2.383240461,-4.160278797,-31,-32,-13,34,142
1695160189802075500,4.75847578,-5.103240967,-2.949656487,0.471505344,0.43939665,0.341471672,63,27,-69,-4,15,-10.65898609,6.671442986,-0.187944829,-2.302102566,2.424542189,-4.15015316,-30,-29,-11,37,148
1695160189803075500,4.647145271,-4.936843872,-2.986766577,0.507344544,0.437398165,0.353062779,67,27,-71,-4,17,-10.74876881,6.636727333,-0.111330383,-2.145822287,2.461180925,-4.134032249,-29,-28,-13,37,145
1695160189864037800,4.167108059,-6.172252178,-2.806004286,0.524264932,0.554508388,0.733171523,61,27,-71,-5,17,-11.46104336,7.357381821,0.741005421,-0.457516104,2.293842077,-3.052993774,-31,-31,-13,34,144
1695160189865037800,4.122815132,-6.287173748,-2.747346401,0.534523726,0.560237348,0.765679896,60,27,-72,-1,16,-11.44428444,7.393294811,0.745793819,-0.452320069,2.243347645,-2.977984905,-35,-27,-16,37,140
1695160189866037800,4.072536945,-6.379350662,-2.688688517,0.544915795,0.563568175,0.79885453,62,26,-70,-5,19,-11.42034245,7.425616741,0.749385118,-0.453119457,2.189122438,-2.902575731,-33,-29,-17,34,146
1695160189867037800,4.018667698,-6.455965042,-2.628833532,0.554508388,0.564234257,0.831895888,60,29,-70,0,20,-11.39999104,7.445967197,0.746990919,-0.459781021,2.131300211,-2.82730031,-35,-28,-15,34,145
1695160189868037800,3.970783472,-6.520608425,-2.564189911,0.562502325,0.562901974,0.864670753,59,28,-71,2,17,-11.37245846,7.462726593,0.736217022,-0.471105665,2.070546627,-2.751891136,-31,-27,-15,37,146
1695160189922005200,3.065775394,-6.568492413,-1.452083349,0.21503523,0.320154667,1.47047317,52,32,-60,29,24,-10.72123528,6.494272232,0.814028561,-0.755687594,0.745029092,-1.425840735,-31,-29,-13,36,144
1695160189923005200,3.020285368,-6.540958881,-1.428141356,0.201045945,0.306165397,1.511641622,52,31,-59,25,26,-10.67813969,6.398504257,0.803254664,-0.739033639,0.681611061,-1.368284941,-32,-25,-13,36,144
1695160189924005200,2.972401381,-6.497863293,-1.424550056,0.190787122,0.291509956,1.554542065,52,34,-60,29,25,-10.6350441,6.295553207,0.796072066,-0.717316985,0.619525254,-1.311128616,-35,-28,-16,32,140
1695160189925005200,2.905363798,-6.449979305,-1.422155857,0.181327716,0.274589568,1.597975492,54,34,-49,28,24,-10.59554005,6.190208435,0.782903969,-0.69027102,0.559038281,-1.25437212,-30,-28,-15,37,146
1695160189926005200,2.831143618,-6.402095318,-1.404199243,0.170402765,0.254871368,1.64034307,53,32,-63,29,25,-10.55004978,6.080075264,0.773327172,-0.65762943,0.500150084,-1.198015332,-31,-25,-13,39,145
1695160189980970900,2.245761156,-6.077681065,-1.021126986,0.487892807,-0.392366022,2.702329159,46,41,-27,40,28,-9.549273491,4.473566055,0.617704034,0.687339962,-0.239683002,-0.083269522,-31,-29,-16,35,141
1695160189981970900,2.263717651,-6.003460884,-1.052251697,0.493088841,-0.421943337,2.799454689,47,39,-23,35,28,-9.508571625,4.453215122,0.626083732,0.769143939,-0.257402748,-0.026646247,-38,-25,-14,38,144
1695160189982970900,2.264914751,-5.919663906,-1.11569798,0.489358336,-0.448323131,2.903774738,48,42,-22,39,30,-9.469067574,4.437653065,0.623689532,0.849349201,-0.273390502,0.028777948,-33,-26,-17,38,140
1695160189983970900,2.238578558,-5.829881191,-1.215057373,0.47416997,-0.473770291,3.014756441,47,45,-17,38,29,-9.430760384,4.423287868,0.624886632,0.927422702,-0.287912726,0.082736596,-35,-29,-15,34,135
1695160189984970900,2.208651066,-5.773617268,-1.291671872,0.456317008,-0.490957111,3.093096495,46,38,-12,36,29,-9.39484787,4.41610527,0.63206923,1.003364444,-0.300836146,0.135096475,-35,-30,-17,34,141
1695160190047932700,-3.283647537,-4.497508049,-5.61679697,-2.916964769,-1.512574315,4.365588188,44,37,-11,40,37,-8.974664688,4.862623692,0.681150377,1.804350615,-0.361056656,0.722646236,-33,-25,-13,41,142
1695160190048932700,-3.508702517,-4.79678297,-5.815515995,-3.113747358,-1.644339919,4.365588188,46,39,-6,36,33,-8.954314232,4.886565685,0.693121374,1.810612559,-0.360923439,0.731572747,-35,-30,-16,38,144
1695160190049932700,-3.648763418,-5.018246651,-5.959167957,-3.230724335,-1.734537482,4.365588188,46,38,-6,38,33,-8.938752174,4.928464413,0.703895271,1.812344432,-0.35945788,0.73863399,-34,-28,-15,42,145
1695160190050932700,-3.846285105,-5.385756493,-6.174646378,-3.381808519,-1.874696851,4.365588188,45,39,-7,40,30,-8.930372238,4.954800606,0.702698171,1.810745835,-0.358258814,0.74223125,-31,-28,-13,36,139
1695160190051932700,-4.028244495,-5.776011467,-6.405686855,-3.500251293,-2.020185232,4.365588188,46,36,-6,40,35,-8.914810181,4.988319397,0.70509243,1.804883599,-0.356793284,0.746361434,-37,-30,-15,37,140
1695160190101902000,-4.187458992,-9.819818497,-7.147889137,-0.763281822,-4.266064167,3.367019892,41,46,25,45,29,-8.687360764,5.267243862,0.693121374,1.063185334,-0.368517607,0.614062786,-34,-28,-11,38,145
1695160190102902000,-4.192247391,-9.755174637,-7.102399349,-0.480831534,-4.275923252,3.353963137,40,47,26,45,29,-8.675390244,5.257667065,0.685938776,1.005496144,-0.368917316,0.602205217,-32,-29,-17,42,145
1695160190103902000,-4.206612587,-9.672574997,-7.058106422,-0.199713632,-4.2756567,3.345170021,40,48,25,45,27,-8.664615631,5.24449873,0.682347476,0.947540581,-0.369183779,0.590480864,-31,-27,-13,38,141
1695160190104902000,-4.23294878,-9.566033363,-7.028179169,0.078073502,-4.266330719,3.340640306,37,47,26,45,29,-8.652645111,5.230133533,0.677559078,0.889451802,-0.369050533,0.578756511,-35,-25,-15,38,142
1695160190105902000,-4.272452831,-9.44512558,-6.992266178,0.349732012,-4.248077869,3.339574099,40,49,28,46,30,-8.645462036,5.219359875,0.67037648,0.8508147,-0.368650824,0.571029067,-34,-25,-17,41,140
1695160190163866600,-5.304353714,-6.262034416,-5.207388878,3.491724253,-2.719782591,3.387804031,32,49,27,45,29,-8.537723541,4.616020679,0.463278025,0.006128637,-0.258068919,0.395563543,-34,-31,-13,41,149
1695160190164866600,-5.396530628,-6.192602634,-5.140350819,3.547814608,-2.644107103,3.38354063,34,47,26,45,28,-8.541314125,4.582501888,0.454898328,-0.014522205,-0.247810096,0.390500784,-32,-24,-13,40,136
1695160190165866600,-5.54257679,-6.099228859,-5.060145378,3.62801981,-2.531260252,3.376212835,31,47,26,46,28,-8.544905663,4.550180435,0.44532153,-0.033174578,-0.237151608,0.386237353,-37,-29,-14,40,138
1695160190166866600,-5.704185486,-6.022614479,-4.988319397,3.70289588,-2.420678377,3.369684458,31,45,26,45,26,-8.547300339,4.515464306,0.440533102,-0.049961712,-0.226493105,0.382506907,-30,-21,-13,41,140
1695160190167866600,-5.883750439,-5.963956356,-4.933252811,3.774707556,-2.312094927,3.363955736,33,45,23,45,33,-8.550890923,4.480748653,0.433350503,-0.064350687,-0.215834603,0.379042894,-33,-30,-15,41,138
1695160190226830000,-10.0460701,-5.831078053,-4.455609322,3.839990854,-0.939280272,3.874098063,25,43,19,42,27,-8.719682693,4.078522682,0.383072257,-0.083669223,-0.047030624,0.389834613,-33,-31,-15,37,141
1695160190227830000,-10.17535686,-5.801150799,-4.369418144,3.784166813,-0.886254191,3.921395063,29,41,19,44,24,-8.723274231,4.065354347,0.389057785,-0.07794027,-0.042101074,0.393032134,-34,-28,-14,40,140
1695160190228830000,-10.28788471,-5.762843609,-4.265270233,3.723680019,-0.832695246,3.966160774,26,43,17,41,29,-8.725667953,4.060565948,0.391451985,-0.072078094,-0.037437979,0.396629393,-34,-23,-13,40,141
1695160190229830000,-10.37886429,-5.710171223,-4.16231966,3.658396721,-0.778869808,4.007862091,30,38,17,43,27,-8.730456352,4.054580688,0.396240383,-0.066349156,-0.033307809,0.400093406,-37,-31,-11,36,139
1695160190230830000,-10.45308495,-5.669469833,-4.061763287,3.590182066,-0.724777937,4.045566559,31,42,20,44,25,-8.731653214,4.050989151,0.399831682,-0.06261868,-0.030776417,0.402491599,-33,-24,-11,38,140
1695160190304786800,-10.95586681,-4.612429619,-2.553416014,2.32781601,0.027445635,3.81507659,24,37,13,44,27,-8.756793022,3.925293684,0.48482585,-0.027179174,-0.022382848,0.483229697,-32,-28,-13,38,138
1695160190305786800,-10.94389629,-4.548983097,-2.493561029,2.273724318,0.051826954,3.758186817,23,38,9,42,23,-8.759186745,3.918111086,0.487220049,-0.029310873,-0.024248086,0.486826956,-41,-25,-13,40,142
1695160190306786800,-10.9295311,-4.483142853,-2.439691544,2.219898939,0.075142421,3.697833061,25,39,15,44,24,-8.754398346,3.908534288,0.494402647,-0.031442571,-0.025980091,0.49029094,-33,-30,-12,40,142
1695160190307786800,-10.91875648,-4.413711071,-2.394201756,2.16647315,0.097258806,3.634548187,21,38,14,39,25,-8.755595207,3.896563292,0.501585245,-0.033840735,-0.027712099,0.49348852,-35,-29,-14,40,139
1695160190308786800,-10.91157436,-4.338293552,-2.347514868,2.113047361,0.118042871,3.568865061,21,35,11,39,28,-8.755595207,3.885789394,0.505176544,-0.036238898,-0.029444104,0.496419609,-33,-28,-11,38,141
1695160190379742300,-10.94030476,-3.34469986,-1.818396211,0.882124007,0.258868307,2.266529799,19,41,9,42,23,-8.684967041,3.655946016,0.514753342,-0.066482387,-0.039702907,0.489225119,-34,-27,-13,40,140
1695160190380742300,-10.94509315,-3.326743364,-1.796848416,0.798454821,0.256736606,2.205110312,17,39,9,43,20,-8.678980827,3.648763418,0.514753342,-0.06674885,-0.038903523,0.485361397,-30,-25,-9,37,140
1695160190381742300,-10.94988155,-3.309983969,-1.780089021,0.713986218,0.254338443,2.145422697,26,41,12,44,24,-8.674192429,3.645172119,0.513556242,-0.067415006,-0.038237367,0.480831534,-35,-33,-13,38,141
1695160190382742300,-10.95466995,-3.298012733,-1.763329506,0.629117966,0.251007646,2.087600231,20,40,11,40,24,-8.678980827,3.657143116,0.513556242,-0.070479326,-0.038237367,0.475635529,-33,-29,-11,37,139
1695160190383742300,-10.95586681,-3.289633036,-1.74776721,0.544116378,0.247143939,2.031510115,16,38,14,40,24,-8.668207169,3.637989521,0.505176544,-0.074076563,-0.038770292,0.469107211,-34,-29,-12,40,142
1695160190442706600,-10.82538319,-3.579331636,-1.640028119,-0.754488528,0.090464011,1.175499201,20,36,11,42,23,-8.532935143,3.478775024,0.517147541,-0.056223582,-0.02384839,0.348799407,-31,-28,-13,41,142
1695160190443706600,-10.80024433,-3.60327363,-1.640028119,-0.795923412,0.079272583,1.130733609,18,38,10,35,21,-8.532935143,3.475183725,0.515950441,-0.055823889,-0.023448698,0.341205209,-33,-32,-12,37,140
1695160190444706600,-10.77031612,-3.618835926,-1.641225219,-0.833361447,0.068214394,1.08556819,18,37,8,42,21,-8.531737328,3.472789526,0.52073884,-0.055557426,-0.023182238,0.336009204,-24,-27,-9,42,138
1695160190445706600,-10.74278259,-3.633201122,-1.643619418,-0.867335379,0.057555895,1.040136337,22,37,13,40,25,-8.528146744,3.468001127,0.521935999,-0.055157732,-0.022782542,0.328148544,-31,-28,-11,40,141
1695160190446706600,-10.71046162,-3.64277792,-1.642422318,-0.897712111,0.047163859,0.994038224,20,39,12,40,27,-8.525752068,3.466804028,0.524330199,-0.05489127,-0.022382848,0.320021451,-30,-24,-11,38,140
1695160190506671800,-9.981427193,-3.41772294,-1.572990537,-1.010958672,-0.009859112,0.142157733,16,39,10,40,23,-8.518569946,3.482366323,0.55665189,-0.053692192,-0.013722817,0.135362938,-30,-25,-8,40,141
1695160190507671800,-9.639056206,-3.16034627,-1.519120932,-0.954202175,0.061419602,-0.205442563,20,35,13,42,19,-8.519766808,3.487154722,0.551863492,-0.052759573,-0.01385605,0.125503823,-34,-25,-12,40,138
1695160190508671800,-9.607931137,-3.134010077,-1.513135433,-0.948872924,0.07087902,-0.233820826,18,34,9,36,23,-8.517372131,3.489548922,0.555454791,-0.051826954,-0.014122511,0.115777947,-35,-28,-12,38,138
1695160190509671800,-9.58039856,-3.112462282,-1.513135433,-0.943943322,0.08020521,-0.260333836,17,32,9,36,17,-8.512583733,3.488351822,0.551863492,-0.050627869,-0.014388974,0.106318533,-36,-27,-14,40,137
1695160190510671800,-9.557653427,-3.090914488,-1.517923832,-0.939147055,0.089931086,-0.285514534,18,32,8,38,21,-8.511386871,3.491943121,0.555454791,-0.049428791,-0.014522205,0.097125575,-37,-27,-9,38,138
1695160190566636100,-9.360131264,-3.023876667,-1.440112352,-0.844286382,0.221430331,-0.477500767,16,34,9,41,20,-8.556877136,3.580528736,0.524330199,0.004929556,-0.033973966,-0.039036751,-31,-29,-9,40,138
1695160190567636100,-9.360131264,-3.032256365,-1.435323954,-0.832295537,0.223295555,-0.47523582,9,35,13,36,20,-8.562862396,3.591302633,0.52073884,0.009059724,-0.034773353,-0.044499233,-28,-27,-8,41,136
1695160190568636100,-9.357737541,-3.044227362,-1.437718153,-0.819505334,0.224494636,-0.472171485,16,39,11,44,21,-8.561665535,3.60207653,0.518344641,0.013056661,-0.035705972,-0.04969525,-31,-25,-11,41,142
1695160190569636100,-9.35654068,-3.05140996,-1.435323954,-0.805516064,0.22542727,-0.468174547,18,33,11,40,17,-8.562862396,3.609259129,0.517147541,0.015854517,-0.036372125,-0.053159267,-31,-28,-12,41,138
1695160190570636100,-9.350554466,-3.058592558,-1.435323954,-0.790594161,0.226093426,-0.463511467,16,38,10,35,21,-8.566453934,3.620033026,0.523133099,0.019851454,-0.037038282,-0.05808882,-33,-25,-6,41,137
1695160190630599000,-9.199720383,-2.883816004,-1.408987641,-0.390767217,0.156546697,-0.380375206,17,34,14,39,21,-8.561665535,3.812766314,0.51954174,0.07087902,-0.040768761,-0.125370592,-33,-27,-9,37,139
1695160190631599000,-9.190143585,-2.865859509,-1.407790542,-0.36878407,0.150551304,-0.379975498,18,41,10,40,21,-8.561665535,3.821146011,0.521935999,0.072477795,-0.040635526,-0.127768755,-33,-27,-12,40,139
1695160190632599000,-9.181763649,-2.844311714,-1.404199243,-0.347333819,0.144822344,-0.380375206,19,34,12,40,20,-8.562862396,3.828328609,0.52073884,0.073943339,-0.040502299,-0.130033687,-32,-27,-9,40,140
1695160190633599000,-9.174580574,-2.819172382,-1.399410844,-0.326683015,0.139093414,-0.381307811,18,41,13,43,20,-8.56046772,3.834314108,0.515950441,0.075275652,-0.040502299,-0.13243185,-34,-28,-12,40,139
1695160190634599000,-9.166201591,-2.79163909,-1.395819545,-0.299903542,0.131898925,-0.383039832,17,37,13,40,21,-8.56046772,3.841496706,0.514753342,0.076741189,-0.040235836,-0.134830013,-33,-28,-11,40,142
1695160190690565200,-9.129091263,-2.381033659,-1.319205165,-0.128834605,0.112580396,-0.438863724,16,35,10,38,19,-8.571242332,4.0114851,0.509964943,0.08207044,-0.036105666,-0.168004602,-31,-25,-13,40,138
1695160190691565200,-9.133879662,-2.361880064,-1.314416766,-0.129767224,0.114978559,-0.443393588,17,36,10,42,20,-8.571242332,4.018667698,0.512359142,0.081004597,-0.034906585,-0.169203669,-32,-28,-13,40,138
1695160190692565200,-9.133879662,-2.346317768,-1.315613866,-0.131499231,0.117376715,-0.448189914,16,33,10,44,19,-8.570044518,4.023456097,0.518344641,0.07993874,-0.033840735,-0.170136288,-33,-28,-9,43,142
1695160190693565200,-9.137471199,-2.330755472,-1.316810966,-0.133764163,0.119908117,-0.452986211,18,32,10,38,23,-8.567650795,4.033032894,0.515950441,0.078872897,-0.032508422,-0.171068922,-34,-27,-12,42,142
1695160190694565200,-9.137471199,-2.315192938,-1.318008065,-0.136428788,0.122439511,-0.458182245,16,32,11,39,19,-8.567650795,4.039018154,0.517147541,0.077807046,-0.031575806,-0.171868294,-29,-27,-9,40,137
1695160190745533100,-9.156624794,-2.161964178,-1.26653266,-0.15681316,0.163607955,-0.572228134,9,36,11,42,19,-8.556877136,4.115632534,0.525527298,0.074343033,-0.032774884,-0.164007664,-34,-28,-14,40,138
1695160190746533100,-9.162610054,-2.159569979,-1.26533556,-0.152949467,0.165473193,-0.577690661,20,37,11,34,23,-8.552088737,4.121618271,0.525527298,0.075408876,-0.033441041,-0.162542105,-32,-33,-13,34,138
1695160190747533100,-9.169792175,-2.158372879,-1.258152962,-0.148686066,0.1672052,-0.582620203,22,35,7,44,23,-8.550890923,4.12640667,0.529118598,0.076607957,-0.033840735,-0.161076576,-32,-27,-13,40,139
1695160190748533100,-9.17697525,-2.151190281,-1.247379065,-0.14388974,0.169070452,-0.587416589,18,35,11,39,20,-8.55448246,4.13239193,0.529118598,0.077673815,-0.034107197,-0.159477785,-29,-28,-9,44,140
1695160190749533100,-9.184157372,-2.145204782,-1.246181965,-0.138560489,0.170669213,-0.591946423,16,36,11,43,23,-8.553285599,4.139574528,0.530315697,0.078739658,-0.03437366,-0.158012256,-33,-24,-9,40,139
1695160190809497400,-9.216479301,-1.924938202,-1.18991828,-0.044632465,0.178929552,-0.633381307,17,35,11,36,26,-8.549694061,4.242525578,0.55784899,0.081137821,-0.027578866,-0.122839205,-35,-28,-13,38,138
1695160190810497400,-9.210494041,-1.910573006,-1.192312479,-0.04276723,0.177730486,-0.634047449,18,35,12,44,23,-8.550890923,4.244919777,0.551863492,0.07993874,-0.027179174,-0.120574266,-34,-27,-15,36,137
1695160190811497400,-9.204508781,-1.892616391,-1.18752408,-0.041701376,0.176264927,-0.63471365,17,35,10,38,25,-8.550890923,4.247313976,0.555454791,0.079272583,-0.027045943,-0.118842266,-29,-27,-12,41,139
1695160190812497400,-9.197325706,-1.878251195,-1.18752408,-0.040768761,0.174666151,-0.634980083,21,38,9,40,23,-8.55448246,4.249708176,0.560243189,0.078073502,-0.026646247,-0.116444103,-34,-28,-12,41,141
1695160190813497400,-9.186552048,-1.867477298,-1.186326981,-0.040235836,0.172800913,-0.635246515,17,37,10,41,20,-8.556877136,4.250905037,0.563834488,0.076874427,-0.026379786,-0.113912709,-35,-29,-12,36,138
1695160190875459300,-9.016563416,-1.728613615,-1.139639974,-0.047963247,0.136029094,-0.589148581,16,35,10,41,24,-8.572439194,4.272452831,0.577002585,0.057022974,-0.024248086,-0.053692192,-36,-25,-11,41,139
1695160190876459300,-9.005789757,-1.727416515,-1.138442874,-0.047563553,0.13456355,-0.583286345,18,42,11,44,23,-8.571242332,4.267664433,0.574608386,0.056223582,-0.024114855,-0.04969525,-35,-25,-12,40,140
1695160190877459300,-9.001001358,-1.725022316,-1.142034173,-0.047030624,0.133098006,-0.576891303,17,35,12,43,25,-8.576030731,4.266467571,0.577002585,0.055690661,-0.024514547,-0.045831546,-37,-30,-15,34,138
1695160190878459300,-8.990227699,-1.719036818,-1.140837073,-0.046364475,0.131765693,-0.570229709,20,35,10,39,23,-8.576030731,4.265270233,0.574608386,0.055024505,-0.024781011,-0.042101074,-30,-28,-8,40,141
1695160190879459300,-8.984241486,-1.719036818,-1.144428372,-0.045565084,0.130433381,-0.563301682,18,38,15,42,20,-8.574832916,4.264073372,0.574608386,0.054491576,-0.025313934,-0.038104136,-34,-29,-8,41,138
1695160190930426900,-8.85495472,-1.681926727,-1.119289279,-0.021450229,0.078606427,-0.381574243,17,36,13,41,19,-8.590395927,4.216189384,0.574608386,0.053558957,-0.03437366,0.036105666,-33,-29,-16,36,137
1695160190931426900,-8.84896946,-1.681926727,-1.120486379,-0.020784073,0.07474272,-0.369716704,18,33,11,41,23,-8.58680439,4.212597847,0.575805485,0.053292494,-0.03437366,0.039303213,-40,-29,-13,36,138
1695160190932426900,-8.8429842,-1.680729628,-1.122880578,-0.019984685,0.070745789,-0.357459426,16,37,12,40,21,-8.589199066,4.210203648,0.579396784,0.0528928,-0.034240428,0.042367533,-46,-27,-12,37,140
1695160190933426900,-8.839392662,-1.679532528,-1.124077678,-0.019318528,0.066615619,-0.345202148,18,41,8,38,25,-8.589199066,4.207809448,0.580593884,0.05249311,-0.034240428,0.045298621,-32,-34,-12,40,140
1695160190934426900,-8.839392662,-1.678335428,-1.125274777,-0.018785605,0.062352221,-0.33294487,18,34,17,43,20,-8.58680439,4.205415249,0.584185243,0.051960181,-0.033973966,0.048229709,-34,-28,-13,38,140
1695160190976404900,-8.82263279,-1.784877419,-1.234210968,-0.054358348,-0.017320061,-0.074209802,20,38,11,39,21,-8.574832916,4.083311081,0.581790984,0.042633995,-0.042101074,0.101388969,-29,-29,-11,40,141
1695160190977404900,-8.817844391,-1.794454217,-1.247379065,-0.058488514,-0.020784073,-0.062352221,18,35,13,42,22,-8.576030731,4.077325344,0.575805485,0.042500768,-0.042633995,0.103787132,-32,-23,-12,38,140
1695160190978404900,-8.815450668,-1.805228114,-1.254561663,-0.062352221,-0.023715161,-0.050761104,12,34,11,41,21,-8.58081913,4.071340084,0.573411286,0.042900458,-0.043300152,0.105652377,-32,-27,-12,36,137
1695160190979404900,-8.81066227,-1.818396211,-1.259350061,-0.066482387,-0.026379786,-0.03996937,17,33,10,44,24,-8.58081913,4.067748547,0.574608386,0.042900458,-0.043699846,0.106984682,-31,-28,-13,42,140
1695160190980404900,-8.808267593,-1.827973008,-1.26533556,-0.070612557,-0.028644716,-0.029577335,20,37,13,39,20,-8.579621315,4.059369087,0.572214186,0.043300152,-0.044232771,0.108716697,-32,-30,-15,41,135
1695160191013382500,-8.755595207,-2.003946781,-1.371877551,-0.147753447,-0.019584993,0.101388969,18,34,10,41,23,-8.561665535,4.012681961,0.535104096,0.046764165,-0.035039816,0.128701374,-30,-23,-11,41,138
1695160191014382500,-8.756793022,-2.017114878,-1.381454349,-0.153882071,-0.019052068,0.107117914,16,40,12,43,21,-8.564059258,4.023456097,0.532709897,0.04729709,-0.033707503,0.128834605,-33,-28,-13,45,141
1695160191015382500,-8.760383606,-2.027888775,-1.387439847,-0.160543635,-0.018652374,0.112846859,16,42,13,42,21,-8.562862396,4.034229755,0.531512797,0.048629403,-0.032108728,0.128568143,-29,-24,-7,42,138
1695160191016382500,-8.765172005,-2.039859772,-1.395819545,-0.167871356,-0.018119449,0.118842266,16,36,13,42,20,-8.561665535,4.046200752,0.529118598,0.050761104,-0.03011026,0.127901986,-33,-29,-9,36,140
1695160191017382500,-8.769960403,-2.055422068,-1.400607944,-0.175332308,-0.017453292,0.124837674,22,37,11,42,27,-8.564059258,4.066551685,0.523133099,0.053292494,-0.027445635,0.126969382,-34,-27,-15,36,141
1695160191069347800,-8.860940933,-2.329558372,-1.580173135,-0.36305514,0.006528331,0.206774876,20,37,15,38,19,-8.7843256,5.749675274,0.547075093,0.205842257,0.114179172,0.181860641,-37,-27,-15,37,146
1695160191070347800,-8.862137794,-2.34033227,-1.590947032,-0.372248113,0.009059724,0.206108719,18,37,14,40,20,-8.793902397,5.882553577,0.571017087,0.205575794,0.124837674,0.205842257,-31,-27,-12,37,141
1695160191071347800,-8.863334656,-2.352303267,-1.59693253,-0.381441027,0.01185758,0.2051761,17,37,15,42,20,-8.798690796,6.013037682,0.59256494,0.202911183,0.13456355,0.233154669,-35,-30,-12,38,136
1695160191072347800,-8.868123055,-2.360682964,-1.59932673,-0.38743645,0.013456355,0.204376727,8,35,12,44,15,-8.80467701,6.136339188,0.615309834,0.198647782,0.14282389,0.264330775,-33,-28,-14,36,140
1695160191073347800,-8.866926193,-2.371456861,-1.602918029,-0.396229684,0.015987748,0.202511474,18,38,11,42,23,-8.809465408,6.260837555,0.640448928,0.192385912,0.149751917,0.299104154,-34,-27,-11,40,138
1695160191114322600,-8.85495472,-2.618059635,-1.707065821,-0.470972449,0.027445635,0.127901986,10,38,12,41,24,-9.015366554,7.428010941,0.464475125,0.359857589,0.023315467,1.346035242,-29,-27,-12,36,142
1695160191115322600,-8.856152534,-2.633621931,-1.70826292,-0.466442585,0.025447167,0.124304749,16,35,9,40,19,-9.009381294,7.450755596,0.438138902,0.406355262,0.014522205,1.408920288,-35,-28,-12,36,137
1695160191116322600,-8.853757858,-2.649184227,-1.70826292,-0.460713625,0.02358193,0.121240422,18,37,11,42,23,-9.008183479,7.477091789,0.404620081,0.45658344,0.006261868,1.470872879,-31,-29,-11,40,138
1695160191117322600,-8.856152534,-2.664746523,-1.705868721,-0.454185307,0.021183766,0.118442573,20,38,12,44,19,-9.009381294,7.50462532,0.378283858,0.51000917,-0.001332312,1.532026052,-33,-28,-13,40,140
1695160191118322600,-8.856152534,-2.683900118,-1.70946002,-0.44619143,0.018519141,0.115911178,16,34,11,42,25,-9.005789757,7.533355713,0.338779539,0.56663245,-0.008526799,1.592379808,-37,-25,-9,42,140
1695160191173288700,-8.869319916,-2.765302896,-1.74776721,-0.17972894,-0.042234302,0.124837674,17,35,13,42,20,-7.813477039,7.211335659,-1.284489155,2.207508564,0.045298621,3.017954111,-39,-25,-9,40,139
1695160191174288700,-8.860940933,-2.756923199,-1.750161409,-0.16467382,-0.04516539,0.126569673,17,35,17,42,18,-7.681796074,7.16824007,-1.385045648,2.358859062,0.074609496,3.121208191,-39,-29,-11,37,136
1695160191175288700,-8.857349396,-2.748543501,-1.752555609,-0.150151595,-0.047830015,0.128301695,16,38,15,40,20,-7.569268703,7.12993288,-1.514332533,2.518070459,0.107917301,3.225261927,-39,-32,-12,40,138
1695160191176288700,-8.853757858,-2.740163803,-1.751358509,-0.136295557,-0.050228179,0.129633993,20,34,11,40,19,-7.469909191,7.083245754,-1.660378933,2.685142517,0.143623278,3.330914259,-38,-29,-15,40,137
1695160191177288700,-8.850166321,-2.734178305,-1.74896431,-0.123238891,-0.052359879,0.130966306,19,37,15,43,21,-7.377732754,7.043741226,-1.817199111,2.861140966,0.180128634,3.437765598,-42,-24,-8,45,141
1695160191230258900,-8.863334656,-2.560598612,-1.723825216,-0.024914242,-0.042234302,0.130166918,17,37,12,35,17,-5.5042696,7.593210697,-4.566939831,4.365588188,0.92968756,4.365588188,-54,-32,-25,46,141
1695160191231258900,-8.862137794,-2.554613113,-1.723825216,-0.025047474,-0.041568145,0.128301695,16,35,14,40,22,-5.404910564,7.669825077,-4.690241337,4.365588188,0.954601824,4.365588188,-49,-31,-25,41,139
1695160191232258900,-8.863334656,-2.549824715,-1.725022316,-0.025180703,-0.04103522,0.126436442,16,38,13,43,23,-5.301959515,7.73446846,-4.801571369,4.365588188,0.97698468,4.365588188,-50,-25,-27,43,138
1695160191233258900,-8.868123055,-2.549824715,-1.723825216,-0.02571363,-0.040502299,0.124304749,18,37,11,44,24,-5.20020628,7.803900242,-4.90811348,4.365588188,0.997369051,4.365588188,-53,-31,-29,48,139
1695160191234258900,-8.874108315,-2.541445017,-1.719036818,-0.026379786,-0.040369064,0.122039817,16,36,12,41,23,-5.090072632,7.867346764,-5.006275654,4.365588188,1.015755057,4.365588188,-47,-28,-29,42,141
1695160191290221500,-8.917203903,-2.52947402,-1.656787634,-0.014122511,-0.042367533,0.082869835,10,38,10,44,23,-3.162740469,8.161833763,-5.042188644,4.365588188,0.753289402,4.365588188,-50,-31,-37,44,138
1695160191291221500,-8.918401718,-2.525882721,-1.649604917,-0.011058193,-0.041701376,0.081271052,17,35,13,40,21,-3.094505787,8.167819023,-4.94043541,4.365588188,0.715984643,4.365588188,-50,-29,-37,38,137
1695160191292221500,-8.918401718,-2.524685621,-1.638831019,-0.007860643,-0.04103522,0.079672284,21,37,12,40,19,-3.047818661,8.171410561,-4.838681698,4.365588188,0.676148593,4.365588188,-51,-32,-35,42,136
1695160191293221500,-8.921992302,-2.523488522,-1.63643682,-0.004396631,-0.040235836,0.07820674,18,33,10,40,23,-3.017891169,8.161833763,-4.75249052,4.365588188,0.632981598,4.365588188,-50,-25,-37,44,140
1695160191294221500,-8.920795441,-2.522291422,-1.63643682,-0.000799387,-0.039303213,0.076474734,20,37,9,44,23,-2.995146275,8.131906509,-4.669890404,4.365588188,0.587150037,4.365588188,-49,-31,-37,41,137
1695160191352185600,-8.944737434,-2.436100245,-1.576581836,0.066615619,-0.032108728,0.047030624,16,37,11,42,25,-2.970007181,5.923254967,-3.657143116,4.365588188,-0.551044405,3.804418087,-45,-30,-35,44,130
1695160191353185600,-8.949525833,-2.431311846,-1.570596337,0.069546707,-0.032508422,0.045431852,19,37,13,45,20,-2.986766577,5.734113216,-3.697844505,4.365588188,-0.613663077,3.715686083,-45,-31,-35,45,138
1695160191354185600,-8.951920509,-2.422932148,-1.567005038,0.072477795,-0.033041347,0.043699846,20,37,13,40,23,-2.997540474,5.54018259,-3.742137194,4.365588188,-0.67415005,3.626954079,-44,-32,-39,44,138
1695160191355185600,-8.954314232,-2.41455245,-1.563413739,0.075142421,-0.033574272,0.042101074,19,38,13,42,25,-3.007117271,5.35343504,-3.800795317,4.265798092,-0.731705964,3.538222075,-44,-30,-37,47,140
1695160191356185600,-8.955511093,-2.408566952,-1.55982244,0.077807046,-0.03437366,0.040502299,16,34,10,42,20,-3.007117271,5.175066948,-3.869029999,4.07954073,-0.785398185,3.448957205,-43,-29,-35,50,141
1695160191406154700,-8.941145897,-2.258929253,-1.55982244,0.073277183,-0.045698319,0.01385605,16,36,11,39,20,-3.099294186,1.808819413,-6.775590897,1.385738134,-1.123139262,1.573860645,-41,-29,-35,48,145
1695160191407154700,-8.939949036,-2.254140854,-1.55982244,0.068880551,-0.044499233,0.013056661,22,37,15,43,19,-3.088520288,1.642422318,-7.005434036,1.283150077,-1.115811586,1.478866816,-39,-33,-36,48,143
1695160191408154700,-8.937555313,-2.249352455,-1.555034041,0.064350687,-0.042900458,0.012257273,20,39,11,42,23,-3.076549292,1.484405041,-7.231686115,1.18162787,-1.107684493,1.386803985,-39,-31,-35,48,144
1695160191409154700,-8.935160637,-2.243366957,-1.556231141,0.059287902,-0.041168455,0.011457887,17,39,10,44,20,-3.060986757,1.33955586,-7.462726593,1.080638647,-1.098891258,1.297139287,-41,-31,-36,49,142
1695160191410154700,-8.933963776,-2.239775658,-1.555034041,0.055823889,-0.03996937,0.010924961,18,34,11,38,19,-3.039438963,1.185129881,-7.714118004,0.98058188,-1.089431763,1.210405827,-42,-29,-36,46,141
1695160191466120900,-9.130288124,-2.691082716,-1.679532528,-0.085667685,0.024781011,0.011591119,18,41,11,42,21,-2.039859772,-0.89184016,-12.78264332,-0.62645334,-0.793392062,0.418346077,-35,-33,-34,44,146
1695160191467120900,-9.167398453,-2.774879694,-1.699883223,-0.093395106,0.031176111,0.009192956,18,42,10,41,21,-1.984793186,-0.92895025,-12.98974133,-0.683609486,-0.759950995,0.406621754,-33,-34,-34,48,148
1695160191468120900,-9.205705643,-2.870647907,-1.722628117,-0.100189894,0.037837673,0.005595712,17,35,9,42,21,-1.920149803,-0.960074902,-13.18367195,-0.73756814,-0.723312438,0.394497722,-35,-29,-34,46,142
1695160191469120900,-9.246406555,-2.97479558,-1.753752708,-0.106451757,0.044765696,0.000399694,16,33,11,42,23,-1.849520802,-0.981622696,-13.3608427,-0.788595676,-0.684009135,0.382506907,-31,-32,-34,48,142
1695160191470120900,-9.288305283,-3.080140591,-1.784877419,-0.11191424,0.052359879,-0.006528331,20,39,10,43,19,-1.775300503,-0.978031397,-13.5128746,-0.837624788,-0.640975475,0.36984992,-33,-32,-34,47,146
1695160191527085500,-9.792284966,-4.440047264,-2.630030632,-0.314958632,0.198248088,-0.816840708,17,39,12,44,24,-1.26653266,0.063446343,-14.5040741,-2.124905109,0.573560476,0.014122511,-23,-29,-34,47,147
1695160191528085500,-9.809044838,-4.49271965,-2.67552042,-0.344935685,0.211171508,-0.895580411,20,37,11,42,24,-1.274912357,0.111330383,-14.56153488,-2.214436293,0.641375184,0.004663093,-26,-32,-34,46,144
1695160191529085500,-9.822212219,-4.5394063,-2.716221809,-0.377177656,0.225160792,-0.975385964,16,36,10,42,21,-1.277306557,0.156820208,-14.60463047,-2.300503731,0.708790183,-0.002664625,-28,-31,-33,45,148
1695160191530085500,-9.828198433,-4.582501888,-2.756923199,-0.412350684,0.240615621,-1.056257248,20,38,13,43,25,-1.282094955,0.201112941,-14.63336086,-2.382574081,0.775539041,-0.008526799,-23,-29,-34,48,142
1695160191531085500,-9.830592155,-4.610035419,-2.783259392,-0.437398165,0.25194028,-1.110748768,18,34,12,43,21,-1.280897856,0.243011475,-14.64054298,-2.459048986,0.842421114,-0.012257273,-25,-24,-33,47,146
1695160191588051200,-8.951920509,-4.961983204,-3.879803896,-1.597042799,0.952869833,-2.765480757,20,37,17,43,23,-1.953668594,2.632424831,-12.95023727,-3.099225283,2.194584846,0.175465539,-23,-30,-34,43,146
1695160191589051200,-8.874108315,-4.965574265,-3.957615376,-1.692436457,1.016820788,-2.856211185,18,33,25,40,21,-2.011129379,2.892195702,-12.82693577,-3.165441036,2.24388051,0.193052068,-21,-33,-34,44,140
1695160191590051200,-8.796297073,-4.958391666,-4.039018154,-1.793558955,1.083169937,-2.943744183,18,39,19,43,23,-2.064998865,3.143586874,-12.70123959,-3.24378109,2.289045811,0.210238889,-22,-27,-34,40,149
1695160191591051200,-8.712499619,-4.941632271,-4.121618271,-1.901076674,1.152317047,-3.028212786,16,35,19,42,25,-2.124854088,3.386598349,-12.57195282,-3.335710526,2.329148531,0.228358343,-15,-31,-33,46,146
1695160191592051200,-8.623914719,-4.918887615,-4.209006786,-2.01525569,1.224128604,-3.109350443,18,33,23,44,25,-2.19189167,3.626018524,-12.4318924,-3.439764023,2.364588022,0.247810096,-15,-31,-33,44,146
1695160191646017600,-6.208165169,-3.465606928,-6.582857609,-4.365721226,3.061920404,-3.941779613,6,42,12,38,25,-2.023100376,6.868964672,-9.089587212,-4.365721226,2.977052212,1.084635496,-14,-34,-34,37,145
1695160191647017600,-6.025008678,-3.410540342,-6.791152954,-4.365721226,3.19075489,-3.973088741,9,37,13,38,23,-2.011129379,6.873753071,-8.987833023,-4.365721226,3.015156031,1.159511447,-13,-33,-32,38,148
1695160191648017600,-5.828683853,-3.331531763,-6.94677639,-4.365721226,3.321454763,-4.003465652,10,34,13,38,25,-2.001552582,6.856993675,-8.888473511,-4.365721226,3.04846406,1.238517523,-12,-33,-34,36,142
1695160191649017600,-5.705382824,-3.303998232,-7.082048416,-4.365721226,3.411119461,-4.025715351,8,35,8,38,23,-1.995567083,6.851007938,-8.779537201,-4.365721226,3.07750845,1.320854545,-14,-30,-31,38,138
1695160191650017600,-5.532999992,-3.303998232,-7.335834026,-4.365721226,3.546482325,-4.056624889,8,35,7,39,25,-2.012326479,6.839036942,-8.659827232,-4.365721226,3.102156162,1.404923439,-12,-34,-34,34,142
1695160191699986300,-3.453635931,-5.124788761,-10.30464458,-4.365721226,4.317758083,-4.365721226,-1,37,-20,29,20,-2.446874142,3.82593441,-5.893327713,-4.365721226,2.638245106,2.792393684,-15,-31,-35,33,139
1695160191700986300,-3.378218651,-5.191826344,-10.28189945,-4.365721226,4.238751888,-4.365721226,-3,33,-15,24,23,-2.384624958,3.693056107,-5.747281075,-4.365721226,2.616128683,2.813444138,-13,-28,-35,32,143
1695160191701986300,-3.312378168,-5.239710331,-10.25795746,-4.365721226,4.149886608,-4.365721226,-3,33,-21,25,23,-2.290053844,3.511096716,-5.511452198,-4.365721226,2.586817741,2.840223551,-13,-32,-37,31,141
1695160191702986300,-3.236960649,-5.284003258,-10.20528507,-4.365721226,4.016788483,-4.365721226,-4,34,-21,26,19,-2.182314873,3.353079557,-5.262455463,-4.365721226,2.563102722,2.860741138,-12,-27,-37,33,144
1695160191703986300,-3.203441858,-5.298368454,-10.16697788,-4.365721226,3.943911076,-4.365721226,-1,36,-24,27,17,-2.070984364,3.223792553,-5.011064053,-4.365721226,2.545382738,2.874597073,-13,-34,-34,32,140
1695160191764949800,-2.840720415,-5.295974255,-7.234080315,-4.365721226,1.164574265,-4.365721226,-10,36,-29,26,17,-0.500388145,4.958391666,0.573411286,0.01185758,2.662626266,1.851514578,-15,-32,-40,31,144
1695160191765949800,-2.837129116,-5.19781208,-7.111976147,-4.365721226,1.050128579,-4.365721226,-8,35,-27,26,15,-0.451307029,5.057751179,0.74339962,0.085401222,2.643174648,1.801153064,-16,-31,-43,31,144
1695160191766949800,-2.829946518,-5.117606163,-7.034164429,-4.365721226,0.977650821,-4.365721226,-12,38,-31,27,18,-0.363918662,5.221754074,1.009155989,0.183059722,2.608934164,1.726943254,-17,-33,-45,31,141
1695160191767949800,-2.82276392,-4.9763484,-6.931213856,-4.365721226,0.875329256,-4.365721226,-8,33,-28,28,17,-0.271741897,5.385756493,1.274912357,0.262865245,2.568698168,1.653932571,-17,-31,-44,24,145
1695160191768949800,-2.807201385,-4.805162907,-6.852205276,-4.365721226,0.781001568,-4.365721226,-14,35,-32,26,17,-0.169988319,5.541379929,1.535880446,0.32468453,2.523266554,1.580788612,-15,-29,-44,31,148
1695160191824917800,-3.242946148,-1.028309584,-7.25083971,-2.175133228,0.150284842,-2.327416658,-11,32,-38,25,19,1.698686123,5.901707172,3.42011714,0.839489996,1.416781068,0.610065818,-21,-31,-49,20,140
1695160191825917800,-3.301604033,-0.866701007,-7.354987621,-2.068548203,0.128701374,-2.23029089,-12,33,-38,28,15,1.74896431,5.944802761,3.388992548,0.865336955,1.366419554,0.56876421,-19,-29,-49,21,144
1695160191826917800,-3.361459255,-0.688332975,-7.46631813,-1.96396172,0.105119444,-2.136895895,-15,32,-38,26,14,1.784877419,5.98550415,3.348291159,0.889851451,1.317523718,0.527862132,-19,-33,-49,22,141
1695160191827917800,-3.412934542,-0.494402647,-7.578845501,-1.862572789,0.079672284,-2.047631025,-13,35,-37,28,16,1.82079041,6.036979675,3.301604033,0.912767231,1.269960165,0.487226635,-19,-33,-57,18,142
1695160191828917800,-3.45722723,-0.284909993,-7.69855547,-1.764514565,0.0528928,-1.96289587,-14,37,-33,28,16,1.861491799,6.09444046,3.248931646,0.933018386,1.224261761,0.446591109,-21,-34,-49,20,144
1695160191885879700,-3.147178173,3.453635931,-10.41477776,-0.647370577,-0.344269514,-1.207075119,-11,34,-33,24,15,3.576937437,9.340977669,9.927556992,0.257802457,-0.526663125,0.307364464,10,-45,-57,6,138
1695160191886879700,-3.060986757,3.551798105,-10.55364132,-0.593811631,-0.352529854,-1.175765634,-11,38,-35,27,19,4.660313606,10.16578007,10.25077438,0.308430314,-0.723045945,0.363188356,13,-45,-57,9,138
1695160191887879700,-2.965218782,3.639186621,-10.68053341,-0.537721276,-0.357192963,-1.140592575,-12,37,-36,28,16,5.544970989,10.64102936,10.12268448,0.338407338,-0.845485449,0.380375206,21,-43,-49,10,137
1695160191888879700,-2.862268209,3.724180698,-10.80024433,-0.479366004,-0.357059717,-1.101156235,-14,34,-38,26,16,6.24766922,10.6446209,9.647436142,0.336408883,-0.913033664,0.374912739,18,-45,-56,12,134
1695160191889879700,-2.7533319,3.818751812,-10.90917969,-0.420877486,-0.352263391,-1.057189822,-11,35,-38,26,21,6.748057365,10.31781197,8.997409821,0.331212848,-0.949539006,0.367451757,17,-44,-49,11,135
1695160191951844000,-1.851915002,5.829881191,-13.49252415,0.964460909,0.118442573,0.102055125,-9,32,-38,25,24,4.896142483,7.020996571,2.075772762,0.622856021,0.32828176,-0.43366769,-3,-40,-61,12,132
1695160191952844000,-1.792060018,5.942408562,-13.52005672,1.044532895,0.161875948,0.160810098,-5,35,-38,25,26,4.75488472,6.959944248,1.916558504,0.587816238,0.338407338,-0.425007641,-2,-39,-59,10,132
1695160191953844000,-1.70946002,6.053739071,-13.51646614,1.119408846,0.214635521,0.220098019,-6,34,-38,26,27,4.647145271,6.921637058,1.793257117,0.54438287,0.342937201,-0.412617147,-5,-34,-56,10,133
1695160191954844000,-1.616086125,6.154295444,-13.49132633,1.186157703,0.276188374,0.279652387,-2,35,-32,28,27,4.529829502,6.861782074,1.659181833,0.498418063,0.34227106,-0.398228168,-5,-36,-57,11,130
1695160191955844000,-1.508347034,6.248866558,-13.4494276,1.243846774,0.346800923,0.339872897,-4,32,-36,28,26,4.410119534,6.798335552,1.528697729,0.456849933,0.333344579,-0.38024193,5,-34,-59,12,130
1695160192006813500,-1.290474772,5.740098476,-12.93946266,1.282217503,1.876828432,1.305932522,2,32,-38,28,31,4.280832767,6.698976517,2.148796082,-0.454851478,0.376644701,-0.332545161,-11,-29,-55,16,128
1695160192007813500,-1.347935557,5.527014732,-12.88679028,1.320321679,1.922393441,1.331912756,4,34,-37,28,31,4.211400986,6.623558998,2.234987259,-0.503747284,0.390367538,-0.346667677,-9,-34,-49,15,126
1695160192008813500,-1.403002143,5.311536312,-12.83770943,1.373880625,1.96183002,1.35509491,4,35,-37,27,32,4.143166065,6.532579422,2.324769735,-0.54691422,0.406088829,-0.361189902,-11,-32,-49,15,129
1695160192009813500,-1.461660147,5.081693172,-12.78503704,1.441162348,1.992872834,1.373880625,3,35,-38,26,31,4.064157486,6.439205647,2.41574955,-0.586084247,0.422875971,-0.376511484,-9,-29,-47,18,128
1695160192010813500,-1.515529633,4.842272758,-12.72398472,1.525897384,2.016188383,1.389868379,3,32,-38,26,32,3.968389273,6.336254597,2.500743628,-0.621124089,0.439796329,-0.393298626,-11,-30,-47,19,130
1695160192067776600,-1.883039594,2.483984232,-11.34372807,4.161478043,2.205243349,1.322053552,26,35,-38,24,36,1.938106298,4.807557106,3.736151695,-1.096626401,0.86373812,-1.148320079,-12,-35,-34,37,130
1695160192068776600,-1.97162509,2.381033659,-11.3173914,4.315759659,2.234820843,1.274223685,26,32,-39,21,32,1.795651317,4.775235176,3.7181952,-1.127003074,0.892516077,-1.221996903,-13,-34,-33,40,132
1695160192069776600,-2.042253971,2.290053844,-11.27549267,4.365588188,2.258669138,1.23212254,30,32,-39,17,32,1.650802016,4.742913723,3.688267708,-1.156047463,0.92142725,-1.30206883,-12,-39,-34,37,134
1695160192070776600,-2.106897593,2.185906172,-11.21563816,4.365588188,2.285048962,1.185491681,30,33,-38,23,35,1.510741234,4.707000732,3.657143116,-1.180562019,0.950604916,-1.388136268,-12,-36,-32,37,134
1695160192071776600,-2.171540976,2.063801765,-11.15338898,4.365588188,2.313560486,1.134597301,30,32,-37,22,33,1.37546885,4.662707806,3.611653328,-1.200813174,0.981114864,-1.479666114,-12,-36,-29,40,133
1695160192133738500,-2.889801502,-0.679953277,-9.431957245,4.365588188,2.677015305,-0.137894332,35,32,-44,15,32,-1.705868721,4.744110584,1.108515382,-0.719848394,1.323785543,-3.742199183,-12,-25,-27,42,136
1695160192134738500,-2.916137695,-0.822408259,-9.294290543,4.365588188,2.665557384,-0.208107188,34,33,-39,15,33,-1.891419291,4.904522419,0.934935749,-0.668287933,1.280352235,-3.862373829,-12,-29,-28,46,135
1695160192135738500,-2.931699991,-0.951695204,-9.160215378,4.365588188,2.650768757,-0.276721269,34,33,-49,14,31,-2.073378563,5.096058369,0.755370617,-0.612730443,1.227459431,-3.981082678,-13,-25,-25,44,136
1695160192136738500,-2.946065187,-1.072602391,-9.026140213,4.365588188,2.632782698,-0.344535977,37,33,-43,13,30,-2.245761156,5.310339451,0.585382342,-0.555441022,1.164707541,-4.097793102,-12,-26,-29,37,136
1695160192137738500,-2.946065187,-1.185129881,-8.889671326,4.365588188,2.611732006,-0.410751909,37,38,-41,15,35,-2.408566952,5.54257679,0.433350503,-0.495087296,1.093562007,-4.211972237,-12,-25,-28,46,139
1695160192208696300,-1.623268723,-1.144428372,-5.461174011,2.890718222,2.315425634,-0.809779465,42,31,-52,10,25,-2.499546528,9.472659111,0.300472319,1.091563582,-0.654831588,-4.365721226,-12,-27,-23,44,141
1695160192209696300,-1.568202138,-1.285686255,-5.292382717,2.614796162,2.325551271,-0.774339974,45,33,-49,10,14,-2.383427858,9.642647743,0.40940848,1.125537515,-0.685741186,-4.365721226,-12,-28,-21,46,139
1695160192210696300,-1.531091928,-1.405396342,-5.177461147,2.431736708,2.33101368,-0.74902606,44,32,-49,13,27,-2.286462545,9.791088104,0.493205547,1.15364933,-0.707724333,-4.365721226,-12,-27,-21,43,140
1695160192211696300,-1.465251446,-1.618480325,-5.003881454,2.163675308,2.336076736,-0.709456325,41,32,-51,7,27,-2.189497471,9.955090523,0.628477931,1.1733675,-0.721980095,-4.365721226,-12,-24,-23,44,140
1695160192212696300,-1.406593442,-1.856703401,-4.838681698,1.90880394,2.337008953,-0.668820798,42,30,-51,9,28,-2.094926596,10.13704967,0.749385118,1.174966335,-0.721180677,-4.365721226,-12,-23,-20,45,139
1695160192265665300,0.424970806,-5.707777023,-2.207453966,0.239283308,1.239450216,-0.166539043,48,33,-61,3,25,-3.657143116,9.982624054,0.921767652,0.258735061,0.07194487,-3.685176134,-15,-25,-17,40,139
1695160192266665300,0.701501071,-5.770026207,-2.109291792,0.200646251,1.199480772,-0.146421134,47,31,-63,3,24,-3.813963413,9.889249802,0.906205356,0.206108719,0.113513015,-3.64227581,-14,-27,-17,42,140
1695160192267665300,0.961272001,-5.832275391,-2.033874273,0.158145472,1.167638659,-0.126036748,47,30,-67,6,25,-3.97916317,9.8054533,0.888248801,0.152283311,0.152816221,-3.600707531,-18,-24,-17,41,144
1695160192268665300,1.210268974,-5.900510311,-1.97042799,0.111381322,1.143124104,-0.105785601,48,31,-67,3,23,-4.147954464,9.725247383,0.867898107,0.097125575,0.189721286,-3.560471535,-15,-29,-16,42,141
1695160192269665300,1.454477549,-5.963956356,-1.910573006,0.06115314,1.125937223,-0.085934147,52,29,-70,0,23,-4.321534157,9.651026726,0.842759013,0.03996937,0.224094957,-3.521568298,-13,-28,-19,42,144
1695160192325629400,3.238157749,-7.710526466,-2.719813108,-0.312560499,0.989241958,-0.044232771,50,22,-73,-3,18,-7.939172745,8.986636162,0.172382519,-1.188689113,0.432468593,-3.390735149,-25,-29,-15,41,144
1695160192326629400,3.300406933,-7.706935406,-2.816778183,-0.307630926,0.97232157,-0.040635526,50,21,-73,0,24,-8.090007782,8.916007042,0.158017308,-1.211338401,0.433134764,-3.416714907,-22,-23,-16,37,148
1695160192327629400,3.356670856,-7.69017601,-2.925714493,-0.303101093,0.957000017,-0.033973966,47,20,-71,-3,16,-8.232462883,8.8429842,0.155623108,-1.225194454,0.435266435,-3.443094969,-23,-27,-18,37,151
1695160192328629400,3.409343243,-7.666234016,-3.035847664,-0.301901996,0.943143904,-0.023049004,54,21,-73,-2,15,-8.361749649,8.77834034,0.160411507,-1.230790138,0.438996941,-3.47000742,-23,-27,-21,37,140
1695160192329629400,3.473986626,-7.58722496,-3.202244759,-0.305099547,0.932485461,-0.008793262,60,21,-75,-1,14,-8.487444878,8.712499619,0.16759412,-1.22892499,0.444859117,-3.497186661,-24,-24,-13,38,138
1695160192376598700,6.944382191,-8.243236542,-1.545457244,-0.593012273,-0.796856046,-0.405289441,64,25,-80,-6,7,-9.386467934,7.229291916,0.562637389,-0.376511484,0.642041326,-3.461347818,-27,-23,-17,41,146
1695160192377598700,6.809109688,-7.779958248,-1.879448295,-0.608733535,-0.676548243,-0.316157728,73,22,-75,-5,9,-9.414001465,7.192182064,0.575805485,-0.320687592,0.64976877,-3.425908089,-25,-25,-17,37,144
1695160192378598700,6.634333134,-7.400477409,-2.151190281,-0.622589588,-0.556506872,-0.224094957,69,19,-75,-8,11,-9.446322441,7.161057472,0.588973641,-0.266462475,0.656696796,-3.388470173,-27,-27,-19,38,140
1695160192379598700,6.445190907,-7.109581947,-2.394201756,-0.631782591,-0.43833077,-0.135629401,70,18,-79,-6,9,-9.481039047,7.128735542,0.599747539,-0.214235827,0.662425697,-3.349566698,-28,-25,-16,36,141
1695160192380598700,6.258443356,-6.896498203,-2.640804529,-0.6357795,-0.323218971,-0.054624807,70,19,-81,-3,8,-9.514557838,7.10359621,0.615309834,-0.164407358,0.666689157,-3.309330702,-25,-24,-17,33,144
1695160192435565400,4.465186119,-4.98233366,-4.235342979,0.46697551,0.385970891,0.333477795,62,10,-74,-5,11,-10.24957752,7.090428352,1.146822572,0.257136285,0.648169994,-2.528196096,-28,-29,-20,42,142
1695160192436565400,4.53102684,-4.977545261,-4.199429989,0.488825411,0.417280257,0.346534461,66,9,-77,-4,12,-10.29386997,7.123947144,1.168370485,0.249275655,0.644839168,-2.498618841,-27,-25,-21,36,144
1695160192437565400,4.588487625,-4.981136799,-4.163516521,0.509875953,0.451254189,0.36305514,62,17,-84,-2,10,-10.34175396,7.158663273,1.182735682,0.238350689,0.640975475,-2.471173048,-27,-25,-18,37,140
1695160192438565400,4.636371613,-4.993107796,-4.119224072,0.53292495,0.485228181,0.382240415,61,17,-77,-6,9,-10.39083576,7.188590527,1.18991828,0.22489433,0.636445642,-2.445592642,-32,-24,-17,33,138
1695160192439565400,4.687847137,-5.021838188,-4.067748547,0.558771789,0.520401239,0.404223561,62,11,-80,-4,11,-10.43393135,7.217320919,1.191115379,0.209173039,0.630716681,-2.421877384,-30,-27,-21,37,140
1695160192493531600,3.831919909,-5.674258232,-1.895010591,1.180961728,0.893448651,0.817506909,61,18,-73,0,12,-10.60751057,7.311892033,1.134851575,-0.194650844,0.391966313,-2.091330767,-29,-25,-19,40,142
1695160192494531600,3.733757496,-5.743690014,-1.745373011,1.207741141,0.88918525,0.832828462,61,11,-74,-1,12,-10.57399178,7.28316164,1.134851575,-0.207840726,0.380908102,-2.066283226,-30,-28,-15,38,138
1695160192495531600,3.622427225,-5.827486992,-1.595735431,1.234520674,0.8845222,0.850548267,53,11,-75,0,13,-10.54286766,7.252037048,1.128866076,-0.219298616,0.370116383,-2.039104223,-26,-27,-19,37,140
1695160192496531600,3.502717018,-5.936423302,-1.461660147,1.262499213,0.880258799,0.872931063,56,17,-76,1,11,-10.50815105,7.216124058,1.11569798,-0.228891268,0.359591126,-2.009793282,-27,-19,-21,37,144
1695160192497531600,3.373430252,-6.038176537,-1.33835876,1.29234302,0.87626189,0.901042879,56,18,-76,2,13,-10.47104073,7.175422668,1.109712481,-0.236085743,0.349199086,-1.977684617,-28,-28,-18,40,145
1695160192554499600,0.767341673,-6.28597641,-1.139639974,1.462879062,0.550511479,2.162076473,45,9,-67,7,13,-9.661801338,5.798756599,0.635660529,0.237817764,0.103920363,-0.867601812,-31,-25,-17,37,146
1695160192555499600,0.560243189,-6.3242836,-1.199495077,1.435966372,0.488292485,2.226560354,45,21,-65,14,14,-9.625887871,5.738901615,0.621295333,0.290977001,0.089398161,-0.79419142,-31,-25,-18,34,140
1695160192556499600,0.356736064,-6.380547523,-1.253364563,1.41025269,0.417147011,2.288379669,42,21,-67,14,16,-9.582792282,5.670666695,0.614112735,0.345335364,0.075142421,-0.720514536,-27,-21,-21,37,144
1695160192557499600,0.169988319,-6.459556103,-1.30005157,1.386271119,0.338007659,2.348999977,45,25,-61,13,17,-9.552865028,5.632359505,0.612915635,0.382107198,0.065816231,-0.67161864,-28,-21,-16,40,144
1695160192558499600,-0.004788403,-6.552929878,-1.33955586,1.365486979,0.252739668,2.409087181,46,29,-64,13,16,-9.513360023,5.576095581,0.617704034,0.437931061,0.052226644,-0.598341525,-31,-24,-17,40,135
1695160192614462300,-0.656011283,-7.948749542,-2.173935175,1.62568748,-1.146721363,3.674517632,40,32,-25,24,15,-9.005789757,4.926070213,0.63326633,1.278886676,-0.139093414,0.553309321,-30,-24,-19,36,140
1695160192615462300,-0.642843127,-7.926004887,-2.26730895,1.646738052,-1.192153096,3.759252548,44,37,-27,28,15,-8.990227699,4.909310818,0.627280831,1.30206883,-0.146554366,0.594877481,-31,-24,-21,38,140
1695160192616462300,-0.634463429,-7.898471355,-2.37863946,1.661526799,-1.233055115,3.844254017,42,33,-24,24,14,-8.973467827,4.894945145,0.624886632,1.322986245,-0.154015318,0.634580433,-30,-25,-19,38,138
1695160192617462300,-0.636857629,-7.8733325,-2.498349428,1.670986176,-1.269560456,3.929122448,45,35,-25,24,16,-8.959102631,4.87579155,0.626083732,1.341638684,-0.161343038,0.672418058,-30,-26,-21,33,136
1695160192618462300,-0.661996782,-7.842207432,-2.628833532,1.67618227,-1.301802397,4.012791634,44,37,-21,28,15,-8.944737434,4.862623692,0.616506934,1.358026028,-0.168537512,0.70852375,-28,-25,-17,40,144
1695160192666432700,-2.670732021,-7.350199223,-3.689464808,0.48562786,-1.829264879,4.365588188,40,33,-3,29,16,-8.700529099,4.717774391,0.550666392,1.295274019,-0.29244259,1.001632452,-33,-27,-15,40,132
1695160192667432700,-2.736572504,-7.437587738,-3.658340216,0.409552813,-1.853912711,4.365588188,37,33,-5,29,16,-8.690952301,4.718971729,0.549469292,1.275955677,-0.296839207,0.99776876,-29,-24,-11,38,141
1695160192668432700,-2.806004286,-7.533355713,-3.623624325,0.338940263,-1.876029015,4.365588188,36,33,0,30,14,-8.677783966,4.71657753,0.544680893,1.25543797,-0.300569683,0.992173016,-27,-24,-12,37,139
1695160192669432700,-2.871845007,-7.623138428,-3.587711334,0.274056673,-1.895480752,4.365588188,41,32,0,31,16,-8.66341877,4.711789131,0.541089594,1.233854532,-0.304166913,0.985111773,-30,-21,-11,41,140
1695160192670432700,-2.938882589,-7.712920666,-3.542221308,0.215434924,-1.911868334,4.365588188,40,32,5,28,17,-8.647856712,4.711789131,0.542286694,1.211071968,-0.30749771,0.976318538,-31,-23,-12,42,139
1695160192720402900,-5.230133533,-8.056488991,-3.114856482,0.08020521,-1.430637121,4.324419498,34,34,12,30,14,-8.408436775,4.654327869,0.579396784,0.61033231,-0.250474721,0.629251182,-29,-21,-8,40,144
1695160192721402900,-5.445611954,-8.009801865,-3.153163671,0.071545176,-1.383473158,4.330947876,34,33,9,29,15,-8.400056839,4.644751072,0.585382342,0.575692177,-0.240615621,0.608733535,-30,-23,-7,44,144
1695160192722402900,-5.658695698,-7.95832634,-3.19865346,0.059154671,-1.338041306,4.338142395,33,33,9,29,14,-8.394071579,4.633977413,0.587776542,0.54118526,-0.230356812,0.58848238,-29,-21,-12,44,140
1695160192723402900,-5.866991043,-7.893682957,-3.246537447,0.043033689,-1.294474721,4.344937325,38,33,12,30,15,-8.385691643,4.622006416,0.590170741,0.507078111,-0.219964772,0.568897426,-27,-25,-9,44,144
1695160192724402900,-6.072892666,-7.807491779,-3.283647537,0.022649311,-1.25290668,4.350399494,36,33,13,30,17,-8.379706383,4.611232281,0.587776542,0.473503798,-0.208773345,0.549712121,-28,-23,-7,42,141
1695160192789363000,-8.523358345,-6.475118637,-3.469198227,-0.43260181,-0.696666181,4.042635441,34,35,13,28,16,-8.455122948,4.350264549,0.572214186,0.038503829,0.022649311,0.319088817,-31,-25,-11,40,145
1695160192790363000,-8.584410667,-6.399701118,-3.472789526,-0.432468593,-0.673350692,3.98707819,31,34,9,30,14,-8.467094421,4.343081951,0.574608386,0.025447167,0.031842265,0.313892812,-28,-25,-8,40,139
1695160192791363000,-8.650250435,-6.335057735,-3.493140221,-0.427672267,-0.652699828,3.929522038,31,32,10,28,13,-8.47786808,4.339490414,0.579396784,0.01718683,0.03757121,0.310828477,-29,-27,-11,38,141
1695160192792363000,-8.720879555,-6.268020153,-3.514688015,-0.418479323,-0.63471365,3.871166945,31,32,13,28,14,-8.488641739,4.334702015,0.584185243,0.005062787,0.045698319,0.306698322,-28,-21,-10,42,142
1695160192793363000,-8.805873871,-6.199785233,-3.539827108,-0.406088829,-0.618459463,3.811346054,31,37,11,30,14,-8.503006935,4.333505154,0.584185243,-0.006528331,0.053159267,0.302967817,-25,-24,-11,36,139
1695160192858323300,-10.63264942,-5.056553841,-4.505887508,-0.548912704,-0.686407328,2.787064314,29,35,9,29,14,-8.73404789,4.187458992,0.678756177,-0.160810098,0.091263399,0.328548223,-30,-27,-11,44,144
1695160192859323300,-10.64581776,-4.995501995,-4.526238441,-0.595810115,-0.707058191,2.735370636,28,37,9,31,14,-8.737639427,4.173093796,0.681150377,-0.16467382,0.089131698,0.332678407,-29,-23,-9,38,142
1695160192860323300,-10.64701462,-4.939238071,-4.544194698,-0.645638585,-0.728641689,2.683143854,31,32,10,30,14,-8.748413086,4.161122322,0.682347476,-0.167871356,0.086866774,0.337075025,-27,-33,-5,40,144
1695160192861323300,-10.64102936,-4.886565685,-4.551377296,-0.697199047,-0.750891268,2.630251169,29,35,9,32,14,-8.756793022,4.146757126,0.685938776,-0.170535982,0.084601834,0.341471672,-28,-23,-8,42,145
1695160192862323300,-10.62786102,-4.83509016,-4.553771496,-0.750358343,-0.773806989,2.577358246,31,32,9,30,14,-8.759186745,4.13239193,0.691924274,-0.172800913,0.081803977,0.346001506,-27,-25,-9,42,141
1695160192922286600,-10.13944435,-4.898536682,-4.065354347,-1.402258873,-1.127269506,1.631016731,28,32,10,31,14,-8.723274231,3.82593441,0.761356115,-0.121506892,0.041701376,0.400093406,-33,-24,-13,42,139
1695160192923286600,-10.12867069,-4.914099216,-4.035427094,-1.405456305,-1.139393568,1.593978643,24,34,11,34,14,-8.713697433,3.815160513,0.767341673,-0.115378261,0.040502299,0.39996019,-31,-24,-12,31,137
1695160192924286600,-10.12268448,-4.932055473,-4.007893562,-1.405323029,-1.150451779,1.558672309,24,35,11,35,14,-8.706514359,3.801992416,0.769735873,-0.109382853,0.039702907,0.399427265,-30,-25,-9,38,141
1695160192925286600,-10.11789608,-4.947618008,-3.982754469,-1.402658463,-1.160444021,1.524964809,22,32,12,34,14,-8.699332237,3.790021181,0.767341673,-0.103120975,0.038637057,0.398761094,-29,-27,-8,40,141
1695160192926286600,-10.11669922,-4.958391666,-3.963600874,-1.399061322,-1.166705966,1.503514528,29,38,11,35,15,-8.693346024,3.782838583,0.764947414,-0.097125575,0.037837673,0.39782849,-29,-25,-8,41,137
1695160192986250300,-10.01374817,-4.994304657,-3.462015629,-0.816441,-1.22066462,1.149119377,25,34,21,38,14,-8.583212852,3.697844505,0.808043063,-0.034506891,0.02384839,0.328148544,-31,-25,-8,40,141
1695160192987250300,-10.01374817,-4.981136799,-3.432088137,-0.769410431,-1.216267943,1.141658545,25,38,19,38,16,-8.582015991,3.695450306,0.810437262,-0.034906585,0.022516079,0.322153151,-32,-28,-10,44,138
1695160192988250300,-10.01614285,-4.975151062,-3.408146143,-0.722379804,-1.210539103,1.134996891,25,36,12,39,15,-8.58081913,3.691859007,0.815225661,-0.035705972,0.021050537,0.315891296,-30,-24,-12,42,140
1695160192989250300,-10.01614285,-4.963180065,-3.384204149,-0.675482392,-1.204143882,1.129134774,26,37,17,35,15,-8.577227592,3.689464808,0.812831461,-0.036771823,0.019718224,0.309496164,-27,-25,-8,40,138
1695160192990250300,-10.01733971,-4.94402647,-3.363853455,-0.628851414,-1.196949482,1.124205232,26,43,17,42,16,-8.576030731,3.690661907,0.809240162,-0.038104136,0.01825268,0.302568167,-31,-24,-11,44,140
1695160193047215200,-9.892841339,-4.450820923,-2.93529129,0.088199086,-0.920894325,1.036006093,22,38,16,38,16,-8.51617527,3.660734415,0.760159016,-0.075808577,-0.003863706,0.146421134,-29,-25,-13,40,140
1695160193048215200,-9.874884605,-4.41610527,-2.913743496,0.116444103,-0.901309311,1.02428174,24,43,21,38,16,-8.51019001,3.653551817,0.752976418,-0.076474734,-0.004529862,0.138027564,-29,-24,-9,41,140
1695160193049215200,-9.856928825,-4.38378334,-2.890998602,0.143356815,-0.881591141,1.011491537,28,37,19,39,19,-8.507795334,3.647566319,0.746990919,-0.076874427,-0.005462481,0.129900455,-28,-25,-12,42,139
1695160193050215200,-9.842563629,-4.363432407,-2.871845007,0.160810098,-0.868268013,1.002298594,28,37,21,36,15,-8.50420475,3.64038372,0.74220252,-0.076874427,-0.006261868,0.122039817,-29,-24,-13,38,136
1695160193051215200,-9.827000618,-4.328716755,-2.847903013,0.186390504,-0.847750366,0.98737669,24,38,15,39,17,-8.499416351,3.633201122,0.738611221,-0.076741189,-0.007327718,0.114312403,-28,-25,-9,44,141
1695160193106180900,-9.514557838,-3.788824081,-2.357091665,0.536655426,-0.428071976,0.557705998,28,37,12,35,15,-8.488641739,3.666719913,0.671573579,-0.035572741,-0.030243492,-0.021849923,-27,-28,-12,34,140
1695160193107180900,-9.501389503,-3.763684988,-2.327163935,0.551444113,-0.403157741,0.530926466,21,34,14,37,16,-8.488641739,3.675099611,0.673967779,-0.033707503,-0.030509954,-0.028777948,-29,-24,-7,41,140
1695160193108180900,-9.495404243,-3.739742994,-2.294842243,0.565699816,-0.377710581,0.504413486,24,37,14,38,16,-8.486248016,3.683479309,0.672770679,-0.031975497,-0.030643184,-0.035705972,-31,-28,-9,43,142
1695160193109180900,-9.487024307,-3.715801001,-2.256535053,0.579822361,-0.352130175,0.478033692,22,36,16,36,15,-8.487444878,3.690661907,0.66798228,-0.029977029,-0.030643184,-0.042367533,-29,-23,-15,38,138
1695160193110180900,-9.472659111,-3.694253206,-2.224213362,0.593678415,-0.326416522,0.45192036,21,37,19,35,17,-8.486248016,3.695450306,0.664390981,-0.028245023,-0.030776417,-0.049029093,-31,-28,-9,40,141
1695160193160152100,-9.314641953,-3.199850559,-1.705868721,0.780735075,0.142424196,0.033973966,26,36,19,33,15,-8.486248016,3.806780815,0.609324336,0.016787136,-0.045698319,-0.150950998,-28,-27,-13,37,138
1695160193161152100,-9.302670479,-3.178302765,-1.687912226,0.784332275,0.163741201,0.015721286,23,33,12,34,14,-8.487444878,3.813963413,0.608127236,0.020251149,-0.047163859,-0.154415011,-28,-29,-9,41,141
1695160193162152100,-9.296685219,-3.149572372,-1.66995573,0.786330819,0.185058191,-0.001598775,20,34,13,36,15,-8.486248016,3.819948912,0.603338838,0.023981623,-0.048629403,-0.157745793,-31,-25,-9,37,141
1695160193163152100,-9.293093681,-3.12084198,-1.655590534,0.787529886,0.20570904,-0.018652374,20,32,12,35,15,-8.48385334,3.82473731,0.603338838,0.027712099,-0.050228179,-0.161076576,-29,-23,-7,40,141
1695160193164152100,-9.288305283,-3.094505787,-1.643619418,0.787796319,0.22489433,-0.035173047,26,32,12,34,14,-8.485051155,3.833117008,0.600944638,0.031442571,-0.051693719,-0.164274111,-30,-27,-9,40,140
1695160193215121100,-9.169792175,-2.663549423,-1.44968915,0.61859268,0.462045938,-0.253672272,22,33,11,38,15,-8.479064941,4.030638695,0.568622887,0.070479326,-0.047430322,-0.212770298,-30,-25,-8,40,138
1695160193216121100,-9.173383713,-2.651578426,-1.440112352,0.603004575,0.468840718,-0.261133224,26,35,17,38,14,-8.482656479,4.043806553,0.567425787,0.069946401,-0.045964777,-0.215168446,-30,-21,-8,40,139
1695160193217121100,-9.17697525,-2.63721323,-1.428141356,0.587016821,0.474569678,-0.267928004,18,39,12,38,14,-8.485051155,4.05577755,0.561440289,0.068880551,-0.044632465,-0.217566609,-27,-23,-12,40,138
1695160193218121100,-9.178172112,-2.630030632,-1.419761658,0.576358318,0.4784334,-0.272457898,23,37,14,33,14,-8.486248016,4.065354347,0.560243189,0.0678147,-0.043166921,-0.219831541,-30,-25,-11,42,140
1695160193219121100,-9.181763649,-2.621650934,-1.41257906,0.560370564,0.483629376,-0.278852999,19,32,15,32,14,-8.485051155,4.073734283,0.554257691,0.067015313,-0.042234302,-0.221297085,-29,-21,-9,41,142
1695160193270088000,-9.165003777,-2.443282843,-1.289277673,0.303500772,0.486960173,-0.379042894,29,37,17,35,19,-8.52216053,4.282029629,0.518344641,0.038903523,-0.004396631,-0.221030638,-30,-25,-11,42,141
1695160193271088000,-9.163806915,-2.433706045,-1.278503656,0.293774903,0.483229697,-0.383972436,25,35,20,39,19,-8.525752068,4.289212227,0.518344641,0.037171517,-0.002398162,-0.218232766,-29,-24,-3,40,140
1695160193272088000,-9.161413193,-2.428917646,-1.274912357,0.284715146,0.479632467,-0.389168471,25,41,19,40,19,-8.525752068,4.294000626,0.521935999,0.03543951,-0.000532925,-0.215168446,-31,-26,-7,41,140
1695160193273088000,-9.159018517,-2.427720547,-1.268926859,0.27632159,0.475768775,-0.394098014,26,34,17,34,17,-8.528146744,4.301183224,0.529118598,0.033840735,0.001332312,-0.21197091,-29,-25,-8,41,140
1695160193274088000,-9.161413193,-2.426523447,-1.260547161,0.268993855,0.472171485,-0.399027556,26,37,18,41,15,-8.529343605,4.30956316,0.530315697,0.032108728,0.002931087,-0.208640128,-30,-25,-15,40,140
1695160193322058000,-9.224859238,-2.381033659,-1.112106681,0.234886676,0.396762639,-0.456050515,24,37,16,38,18,-8.582015991,4.352658749,0.590170741,0.013722817,0.011990812,-0.119108729,-31,-22,-9,40,140
1695160193323058000,-9.22725296,-2.37624526,-1.107318282,0.236485451,0.392765701,-0.45764932,24,37,12,37,19,-8.58081913,4.350264549,0.591367841,0.014788668,0.01079173,-0.113113321,-31,-27,-13,37,140
1695160193324058000,-9.232041359,-2.370259762,-1.097741485,0.238350689,0.388768762,-0.459248066,25,37,13,42,23,-8.58081913,4.34787035,0.59256494,0.015987748,0.009859112,-0.107117914,-29,-24,-9,40,141
1695160193325058000,-9.229647636,-2.363077164,-1.088164687,0.240482375,0.384771824,-0.460846871,22,37,17,34,18,-8.579621315,4.345476151,0.591367841,0.017453292,0.008660031,-0.101255737,-27,-20,-7,38,142
1695160193326058000,-9.229647636,-2.359485865,-1.083376288,0.242880553,0.381174594,-0.462179184,27,37,18,41,17,-8.583212852,4.345476151,0.59615624,0.019185297,0.007460949,-0.095127106,-29,-24,-9,42,142
1695160193382024100,-9.156624794,-2.122459888,-0.963666201,0.272457898,0.324151605,-0.480565071,25,41,21,39,20,-8.56046772,4.317942619,0.629675031,0.055557426,-0.009592649,0.019984685,-29,-25,-13,36,141
1695160193383024100,-9.145850182,-2.104503393,-0.961272001,0.269660026,0.321620196,-0.481764168,21,37,15,35,19,-8.56046772,4.314351559,0.63206923,0.056490045,-0.010125575,0.025180703,-29,-30,-13,40,141
1695160193384024100,-9.137471199,-2.086546898,-0.960074902,0.266196012,0.319088817,-0.482963234,24,37,15,40,17,-8.558073997,4.311957359,0.634463429,0.057022974,-0.010525269,0.028511487,-30,-24,-8,42,141
1695160193385024100,-9.121908188,-2.067393064,-0.955286503,0.262065858,0.316690654,-0.483895868,28,38,11,38,17,-8.558073997,4.307168961,0.635660529,0.057555895,-0.011058193,0.033441041,-30,-22,-9,38,141
1695160193386024100,-9.109937668,-2.04584527,-0.949300945,0.257269531,0.314159274,-0.484961689,26,38,20,37,19,-8.559270859,4.301183224,0.636857629,0.057955589,-0.011591119,0.037970904,-31,-25,-13,40,140
1695160193446987100,-8.962694168,-1.885433793,-0.842759013,0.113379791,0.284848392,-0.446591109,22,39,15,42,19,-8.552088737,4.193444252,0.666785181,0.050494641,-0.020917306,0.10258805,-30,-22,-12,41,140
1695160193447987100,-8.961497307,-1.890222192,-0.835576415,0.106185302,0.283249617,-0.44046247,24,35,16,41,20,-8.550890923,4.185064793,0.666785181,0.050094947,-0.021316998,0.104053594,-33,-25,-13,37,138
1695160193448987100,-8.957905769,-1.89620769,-0.829590917,0.099124044,0.281251162,-0.433800906,26,38,15,39,14,-8.553285599,4.181473255,0.66798228,0.049562022,-0.021716693,0.106052071,-28,-21,-13,42,141
1695160193449987100,-8.957905769,-1.900996208,-0.823605359,0.094727404,0.280052066,-0.428738147,17,35,14,39,17,-8.552088737,4.177882195,0.665588081,0.049162328,-0.022382848,0.107917301,-29,-25,-11,40,138
1695160193450987100,-8.956708908,-1.902193308,-0.81761986,0.08833231,0.27845329,-0.421143949,26,41,18,42,20,-8.550890923,4.174290657,0.664390981,0.048762634,-0.023049004,0.109915771,-29,-23,-5,44,138
1695160193503955400,-8.878896713,-1.904587507,-0.905008256,0.035972435,0.174133226,-0.240215927,28,38,12,39,20,-8.55448246,4.070142746,0.647631586,0.042633995,-0.03650536,0.136162326,-27,-21,-8,43,140
1695160193504955400,-8.871714592,-1.903390408,-0.908599555,0.034506891,0.165606424,-0.229157731,25,40,16,40,19,-8.553285599,4.064157486,0.647631586,0.042367533,-0.036771823,0.136961713,-30,-25,-12,37,145
1695160193505955400,-8.870517731,-1.906981707,-0.908599555,0.033307809,0.156679943,-0.218099549,29,34,15,39,17,-8.555679321,4.059369087,0.647631586,0.041967839,-0.036905054,0.13762787,-30,-24,-9,40,140
1695160193506955400,-8.865729332,-1.905784607,-0.907402456,0.032108728,0.147220522,-0.207307816,24,37,15,39,15,-8.55448246,4.056974888,0.647631586,0.041701376,-0.037038282,0.138427258,-26,-23,-11,42,142
1695160193507955400,-8.865729332,-1.908178806,-0.910993755,0.03130934,0.137361407,-0.196249619,22,38,17,38,16,-8.555679321,4.05577755,0.650025785,0.041568145,-0.037038282,0.138826951,-27,-28,-11,43,140
1695160193566917900,-8.890868187,-2.099714994,-1.058237195,-0.007194487,-0.043300152,0.019052068,24,41,15,42,17,-8.525752068,4.119224072,0.59615624,0.085800916,-0.021983154,0.136428788,-29,-22,-8,42,144
1695160193567917900,-8.889671326,-2.106897593,-1.07739079,-0.011191424,-0.050627869,0.029310873,25,37,20,39,19,-8.524555206,4.128800869,0.59495914,0.088865243,-0.020117918,0.137494639,-19,-21,-16,41,142
1695160193568917900,-8.889671326,-2.11647439,-1.096544385,-0.015854517,-0.057422664,0.039036751,22,38,19,38,23,-8.519766808,4.145560265,0.599747539,0.09352833,-0.017453292,0.139493108,-29,-27,-12,41,140
1695160193569917900,-8.889671326,-2.126051188,-1.113303781,-0.021183766,-0.063684531,0.048496172,28,43,14,40,19,-8.514978409,4.16471386,0.603338838,0.097791731,-0.014255743,0.14175804,-29,-23,-9,40,141
1695160193570917900,-8.887276649,-2.134430885,-1.132457376,-0.027312404,-0.069280244,0.057422664,28,39,19,39,19,-8.512583733,4.181473255,0.612915635,0.101522207,-0.010525269,0.144289434,-26,-25,-12,42,144
1695160193628882700,-8.808267593,-2.239775658,-1.400607944,-0.273257256,-0.05142726,0.119108729,22,38,15,38,19,-8.706514359,5.462371349,0.749385118,0.130699843,0.086999997,0.167871356,-28,-25,-10,40,136
1695160193629882700,-8.802282333,-2.249352455,-1.406593442,-0.291509956,-0.044099543,0.117243491,24,34,15,40,17,-8.705317497,5.562927723,0.761356115,0.127768755,0.092329249,0.174799383,-32,-21,-9,40,142
1695160193630882700,-8.796297073,-2.255337954,-1.413776159,-0.309629381,-0.036238898,0.115245022,24,39,17,39,19,-8.711302757,5.675455093,0.776918471,0.125104129,0.097924963,0.183725879,-33,-26,-11,38,140
1695160193631882700,-8.795100212,-2.270900249,-1.420958757,-0.327482402,-0.028378254,0.11298009,25,37,19,42,17,-8.718485832,5.7963624,0.78170687,0.121640123,0.103920363,0.193984687,-34,-23,-15,40,140
1695160193632882700,-8.791508675,-2.284068346,-1.425747156,-0.345068902,-0.020251149,0.110581927,22,37,16,37,17,-8.72806263,5.916072369,0.784101069,0.11924196,0.109915771,0.206108719,-30,-23,-8,42,144
1695160193680855200,-8.827422142,-2.653972626,-1.520318031,-0.49135682,0.061419602,0.082203679,25,33,17,36,18,-8.865729332,7.582436562,0.345962137,0.36878407,0.06261868,1.084102511,-26,-27,-11,41,140
1695160193681855200,-8.827422142,-2.67552042,-1.521515131,-0.484428793,0.059421133,0.08233691,25,38,13,38,16,-8.858546257,7.618350029,0.29568392,0.415548235,0.055024505,1.170303226,-29,-23,-11,46,144
1695160193682855200,-8.828619003,-2.694674015,-1.520318031,-0.475502282,0.056756508,0.082736596,21,35,19,40,17,-8.845377922,7.65186882,0.233434662,0.467108727,0.048762634,1.259301662,-28,-24,-9,37,143
1695160193683855200,-8.828619003,-2.717418909,-1.519120932,-0.465110272,0.053558957,0.083535992,22,39,11,34,16,-8.834604263,7.677007675,0.195127442,0.504146993,0.04516539,1.319788694,-28,-28,-8,42,141
1695160193684855200,-8.829815865,-2.738966703,-1.519120932,-0.452852994,0.049961712,0.084601834,24,35,15,38,19,-8.81664753,7.720103264,0.134075299,0.563434958,0.04103522,1.411984682,-31,-29,-12,37,138
1695160193732822000,-8.839392662,-2.839523315,-1.508347034,-0.067148544,-0.065549769,0.140159264,21,39,16,39,17,-7.808688641,7.171831131,-1.855506301,2.769744158,0.371049017,3.1144135,-31,-23,-8,41,140
1695160193733822000,-8.835801125,-2.82276392,-1.502361536,-0.048362937,-0.071811639,0.14388974,24,37,13,40,19,-7.686584473,7.134721279,-2.00993228,2.976119518,0.421277195,3.21407032,-37,-23,-8,37,139
1695160193734822000,-8.835801125,-2.804807186,-1.501164436,-0.031042879,-0.07714089,0.147353753,24,42,19,39,16,-7.576451302,7.110779285,-2.157175779,3.189955711,0.473903507,3.316525221,-39,-24,-14,40,138
1695160193735822000,-8.834604263,-2.78924489,-1.504755735,-0.015188362,-0.082470134,0.150950998,20,35,16,35,15,-7.448361397,7.109581947,-2.309207439,3.410986185,0.528128624,3.419779539,-41,-25,-8,42,140
