timestamp,left_data_Ac_X,left_data_Ac_Y,left_data_Ac_Z,left_data_Gy_X,left_data_Gy_Y,left_data_Gy_Z,left_data_flex_1,left_data_flex_2,left_data_flex_3,left_data_flex_4,left_data_flex_5,right_data_Ac_X,right_data_Ac_Y,right_data_Ac_Z,right_data_Gy_X,right_data_Gy_Y,right_data_Gy_Z,right_data_flex_1,right_data_flex_2,right_data_flex_3,right_data_flex_4,right_data_flex_5
1695160849686519500,-10.27471638,0.40940848,2.646790028,1.385738134,0.171068922,1.394797802,-8,20,-6,13,14,-8.549694061,3.919308186,0.574608386,0.043166921,-0.041568145,0.057156201,-34,-20,-35,2,138
1695160849687519500,-10.26035118,0.435744703,2.625242233,1.270626426,0.110182241,1.404923439,-7,20,-8,13,14,-8.546102524,3.918111086,0.574608386,0.042900458,-0.041301683,0.055823889,-30,-22,-36,1,139
1695160849688519500,-10.24478912,0.457292527,2.59890604,1.154448628,0.048629403,1.413450241,-12,21,-9,13,16,-8.544905663,3.914519787,0.571017087,0.04276723,-0.040901989,0.054491576,-33,-21,-35,3,137
1695160849689519500,-10.22084713,0.468066424,2.573766708,1.037871361,-0.013056661,1.420245051,-6,22,-8,11,15,-8.547300339,3.913322687,0.567425787,0.04276723,-0.040901989,0.053692192,-30,-20,-35,2,137
1695160849690519500,-10.198102,0.469263524,2.547430515,0.92142725,-0.074875958,1.425574303,-6,21,-11,13,14,-8.549694061,3.909731388,0.566228688,0.04276723,-0.040369064,0.052359879,-34,-28,-35,4,138
1695160849753481200,-9.628282547,-0.511162043,1.906981707,-0.748759568,-1.069180727,1.381341457,-11,19,-9,12,14,-8.528146744,3.928884983,0.55904609,0.050761104,-0.035173047,0.028245023,-34,-19,-35,6,138
1695160849754481200,-9.59835434,-0.580593884,1.8590976,-0.810978532,-1.107950926,1.381075025,-12,25,-6,15,14,-8.529343605,3.928884983,0.55904609,0.050894335,-0.03543951,0.027045943,-33,-28,-34,3,140
1695160849755481200,-9.569623947,-0.648828685,1.811213613,-0.870266438,-1.145122528,1.382140875,-11,19,-7,13,14,-8.532935143,3.931279182,0.55904609,0.050761104,-0.035705972,0.025980091,-29,-21,-34,6,138
1695160849756481200,-9.539696693,-0.715866327,1.764526606,-0.927289426,-1.180295587,1.384272695,-12,21,-6,13,14,-8.534132004,3.932476282,0.55665189,0.050894335,-0.036238898,0.024781011,-30,-23,-37,4,137
1695160849757481200,-9.506177902,-0.77931267,1.719036818,-0.982047439,-1.213203669,1.387603283,-14,22,-6,13,14,-8.540117264,3.930082083,0.560243189,0.050894335,-0.036905054,0.02358193,-28,-20,-34,5,140
1695160849796456200,-9.131484985,-2.159569979,1.015141487,-1.580788612,-1.466875911,1.661393642,-10,20,-6,15,14,-8.538920403,3.994725466,0.568622887,0.049961712,-0.035039816,-0.005062787,-31,-21,-34,4,140
1695160849797456200,-9.135076523,-2.22900176,0.984016895,-1.589048982,-1.465676785,1.684842229,-11,19,-8,13,14,-8.536525726,3.999513865,0.572214186,0.04969525,-0.033973966,-0.006261868,-34,-20,-36,0,136
1695160849798456200,-9.136273384,-2.297236443,0.942118347,-1.594911098,-1.46367836,1.708557367,-11,22,-6,13,14,-8.535328865,4.003105164,0.574608386,0.049562022,-0.033041347,-0.007460949,-29,-18,-34,4,140
1695160849799456200,-9.141061783,-2.361880064,0.903811157,-1.598508358,-1.460747361,1.732672334,-14,22,-7,12,14,-8.532935143,4.004302502,0.573411286,0.049428791,-0.032508422,-0.008260337,-33,-23,-36,5,136
1695160849800456200,-9.15063858,-2.428917646,0.869095206,-1.600373626,-1.457150102,1.756653905,-10,19,-6,13,15,-8.529343605,4.0090909,0.573411286,0.049029093,-0.031975497,-0.009192956,-32,-21,-35,0,137
1695160849830436600,-9.326612473,-3.332728863,0.193930343,-1.311261773,-1.089032173,1.926124096,-12,22,-6,11,14,-8.525752068,4.073734283,0.597353339,0.047563553,-0.033840735,-0.012790199,-27,-20,-34,4,138
1695160849831436600,-9.323021889,-3.409343243,0.140060797,-1.279552937,-1.04719758,1.915465593,-12,18,-7,13,14,-8.526948929,4.074931145,0.597353339,0.047963247,-0.034240428,-0.012523737,-33,-20,-34,5,138
1695160849832436600,-9.317035675,-3.482366323,0.087388359,-1.247577429,-1.004163861,1.904540539,-12,21,-6,13,14,-8.529343605,4.078522682,0.598550439,0.048362937,-0.034640122,-0.011990812,-31,-19,-34,5,137
1695160849833436600,-9.31823349,-3.552995205,0.02873042,-1.215202093,-0.959931076,1.893615603,-12,20,-6,13,14,-8.530540466,4.080916882,0.602141738,0.048629403,-0.03543951,-0.011591119,-30,-23,-35,4,140
1695160849834436600,-9.320627213,-3.624821424,-0.033518825,-1.182826996,-0.915565073,1.882290959,-7,21,-6,14,14,-8.531737328,4.080916882,0.600944638,0.049029093,-0.036105666,-0.011191424,-32,-27,-36,4,140
1695160849863420800,-9.178172112,-4.38617754,-0.92895025,-0.759284854,-0.327482402,1.569597244,-7,23,-5,13,14,-8.530540466,4.143166065,0.587776542,0.059021436,-0.035839204,0.001332312,-32,-18,-34,8,141
1695160849864420800,-9.149441719,-4.412513733,-0.945709646,-0.740632474,-0.306964755,1.536289454,-13,25,-7,13,14,-8.530540466,4.145560265,0.591367841,0.059154671,-0.035306279,0.002797856,-33,-23,-36,10,138
1695160849865420800,-9.125499725,-4.443638325,-0.957680702,-0.721713662,-0.286846846,1.50058341,-11,22,-6,13,17,-8.531737328,4.147954464,0.591367841,0.059154671,-0.034640122,0.0042634,-30,-21,-34,6,139
1695160849866420800,-9.10036087,-4.468777657,-0.961272001,-0.702395082,-0.267261863,1.462212801,-13,27,-6,13,14,-8.530540466,4.150348663,0.590170741,0.059154671,-0.033840735,0.005728943,-30,-16,-35,7,136
1695160849867420800,-9.0740242,-4.496310711,-0.955286503,-0.681877494,-0.247143939,1.420911193,-8,22,-6,14,15,-8.531737328,4.155137062,0.584185243,0.058888208,-0.033307809,0.007194487,-30,-21,-36,4,138
1695160849896422000,-8.530540466,-4.412513733,-0.404620081,-0.196649313,0.079805516,0.297638565,-14,21,-5,14,17,-8.523358345,4.156333923,0.582988143,0.048096478,-0.026246555,0.028911179,-33,-19,-36,2,138
1695160849897422000,-8.519766808,-4.355052948,-0.36990416,-0.17346707,0.090064317,0.22236295,-7,26,-6,14,16,-8.524555206,4.156333923,0.582988143,0.047963247,-0.026646247,0.029843798,-30,-18,-34,8,138
1695160849898422000,-8.507795334,-4.297592163,-0.33399114,-0.151483908,0.099257268,0.145754978,-12,21,-4,13,14,-8.525752068,4.151545525,0.581790984,0.047830015,-0.027179174,0.030909648,-30,-23,-31,5,132
1695160849899422000,-8.500613213,-4.241328239,-0.299275219,-0.130833074,0.107384384,0.068480857,-12,21,-6,13,15,-8.529343605,4.152742863,0.581790984,0.047830015,-0.027712099,0.032241959,-35,-19,-36,5,137
1695160849900422000,-8.495824814,-4.182670593,-0.257376671,-0.111381322,0.114712104,-0.009725881,-11,25,-6,13,17,-8.528146744,4.151545525,0.578199685,0.047963247,-0.028378254,0.033174578,-33,-19,-34,8,137
1695160849929383000,-8.790311813,-3.108870983,0.471657723,0.053159267,0.146021441,-1.452886701,-11,22,-13,12,14,-8.537723541,4.121618271,0.585382342,0.057289433,-0.033707503,0.045565084,-31,-20,-34,6,140
1695160849930383000,-8.801085472,-3.057395458,0.499191046,0.0528928,0.147753447,-1.518969297,-11,22,-6,14,14,-8.538920403,4.122815132,0.585382342,0.057422664,-0.033707503,0.045698319,-33,-22,-34,8,132
1695160849931383000,-8.809465408,-3.01070857,0.527921498,0.051693719,0.150284842,-1.583186746,-8,23,-6,14,14,-8.537723541,4.121618271,0.587776542,0.057022974,-0.033574272,0.045698319,-30,-19,-34,8,141
1695160849932383000,-8.815450668,-2.964021683,0.550666392,0.049562022,0.153215915,-1.645006061,-12,22,-6,13,14,-8.537723541,4.121618271,0.586579442,0.056623276,-0.033307809,0.045964777,-29,-19,-34,4,138
1695160849933383000,-8.821435928,-2.914940596,0.574608386,0.04623124,0.156946406,-1.704560518,-15,19,-7,13,16,-8.538920403,4.121618271,0.581790984,0.056090351,-0.033174578,0.045964777,-31,-21,-34,8,135
1695160849966381600,-8.850166321,-2.483984232,1.072602391,-0.124171518,0.348666131,-2.315159082,-12,21,-6,13,15,-8.532935143,4.073734283,0.565031588,0.04516539,-0.033574272,0.055290964,-29,-19,-34,4,141
1695160849967381600,-8.85495472,-2.485181332,1.100135684,-0.130433381,0.364387453,-2.319955587,-12,25,-6,13,16,-8.532935143,4.066551685,0.565031588,0.045431852,-0.033441041,0.056090351,-29,-20,-35,8,142
1695160849968381600,-8.85495472,-2.49236393,1.124077678,-0.135096475,0.380508423,-2.321954012,-13,22,-6,14,14,-8.530540466,4.061763287,0.560243189,0.045831546,-0.033307809,0.056490045,-30,-20,-35,10,138
1695160849969381600,-8.853757858,-2.503137827,1.15400517,-0.138294026,0.396895856,-2.320888042,-10,23,-6,13,14,-8.530540466,4.060565948,0.551863492,0.04623124,-0.033441041,0.057022974,-38,-23,-36,6,139
1695160849970381600,-8.850166321,-2.511517525,1.177947283,-0.139493108,0.413416535,-2.317291021,-14,21,-6,13,15,-8.534132004,4.056974888,0.547075093,0.046897396,-0.033307809,0.057422664,-33,-20,-35,6,141
1695160850000338900,-8.898050308,-2.780865192,1.70826292,0.182127118,0.74009949,-1.844719768,-7,19,-7,13,14,-8.532935143,4.040215492,0.548272192,0.046497703,-0.029444104,0.057822358,-27,-21,-34,5,141
1695160850001338900,-8.908824921,-2.788047791,1.728613615,0.214768767,0.753955603,-1.806082726,-14,21,-6,13,14,-8.535328865,4.034229755,0.549469292,0.045831546,-0.02904441,0.057422664,-30,-20,-34,9,139
1695160850002338900,-8.916007042,-2.78924489,1.745373011,0.248742729,0.76661253,-1.767312407,-12,22,-6,13,14,-8.535328865,4.029441357,0.545877993,0.04516539,-0.028777948,0.057022974,-31,-20,-34,12,139
1695160850003338900,-8.920795441,-2.784456491,1.763329506,0.283782542,0.778336942,-1.728275657,-14,25,-7,13,16,-8.535328865,4.027047157,0.544680893,0.044632465,-0.028378254,0.056756508,-30,-18,-34,4,140
1695160850004338900,-8.923190117,-2.776076794,1.78368032,0.319355279,0.789128661,-1.689238906,-14,20,-6,14,14,-8.537723541,4.025850296,0.545877993,0.044099543,-0.028111791,0.056490045,-31,-19,-33,12,142
1695160850043337600,-8.896853447,-2.274491549,2.086546898,0.964727461,0.844419599,-1.068248153,-16,19,-6,13,15,-8.537723541,4.003105164,0.555454791,0.053292494,-0.025447167,0.047163859,-31,-20,-34,8,141
1695160850044337600,-8.886079788,-2.227804661,2.109291792,0.988309324,0.842820823,-1.041735053,-13,25,-6,12,14,-8.535328865,4.003105164,0.561440289,0.053825419,-0.025447167,0.046630934,-29,-21,-34,8,141
1695160850045337600,-8.876502991,-2.179920673,2.135627985,1.010159254,0.841088772,-1.015888214,-12,17,-6,13,14,-8.535328865,4.004302502,0.565031588,0.053958651,-0.025313934,0.046098009,-31,-20,-35,10,144
1695160850046337600,-8.864531517,-2.145204782,2.148796082,1.02321589,0.839623272,-0.998967826,-8,22,-7,14,14,-8.531737328,4.004302502,0.563834488,0.053958651,-0.025313934,0.045698319,-29,-20,-34,5,139
1695160850047337600,-8.850166321,-2.096123695,2.167949677,1.040802479,0.837225139,-0.973920345,-11,21,-6,13,15,-8.529343605,4.006696701,0.567425787,0.054091886,-0.025447167,0.045032158,-31,-20,-34,8,139
1695160850079297500,-8.523358345,-1.040280581,2.346317768,0.854545176,0.753022969,-0.609799385,-12,21,-7,13,16,-8.555679321,4.0114851,0.568622887,0.038237367,-0.021316998,0.031842265,-30,-17,-35,9,141
1695160850080297500,-8.511386871,-0.993593693,2.341529369,0.817107201,0.745029092,-0.595410407,-14,22,-8,14,15,-8.556877136,4.013879299,0.572214186,0.03757121,-0.021183766,0.030909648,-37,-20,-35,4,140
1695160850081297500,-8.503006935,-0.946906745,2.34033227,0.777404308,0.736502349,-0.581554353,-12,22,-7,14,15,-8.556877136,4.012681961,0.577002585,0.037038282,-0.020784073,0.030243492,-31,-20,-34,9,138
1695160850082297500,-8.492233276,-0.902614057,2.33793807,0.73543644,0.727442563,-0.568231225,-12,21,-6,13,14,-8.555679321,4.013879299,0.574608386,0.03650536,-0.02051761,0.029444104,-31,-18,-34,10,139
1695160850083297500,-8.481459618,-0.861912608,2.33793807,0.691470146,0.718382835,-0.555307806,-11,19,-7,13,23,-8.55448246,4.012681961,0.579396784,0.036372125,-0.020384381,0.028911179,-31,-22,-34,12,141
1695160850112297500,-8.604761124,-0.878672004,2.219424963,-0.21663399,0.511741161,-0.341871351,-11,20,-6,13,14,-8.544905663,4.01507616,0.561440289,0.050094947,-0.025846859,0.031042879,-30,-20,-34,10,130
1695160850113297500,-8.614337921,-0.909796655,2.209848166,-0.255803972,0.499750376,-0.329880536,-14,25,-6,14,14,-8.547300339,4.018667698,0.560243189,0.050761104,-0.026113322,0.031442571,-31,-21,-35,10,139
1695160850114297500,-8.623914719,-0.939724147,2.188300371,-0.292842269,0.487626314,-0.317756504,-12,22,-6,13,15,-8.552088737,4.019864559,0.55784899,0.051294025,-0.026513018,0.031842265,-31,-19,-34,8,136
1695160850115297500,-8.633491516,-0.970848799,2.169146776,-0.328148544,0.47523582,-0.305499226,-10,18,-8,13,16,-8.555679321,4.023456097,0.55784899,0.051560488,-0.026513018,0.031975497,-30,-15,-35,9,140
1695160850116297500,-8.640673637,-1.001973391,2.147598982,-0.361589581,0.462578863,-0.293375194,-13,23,-8,14,14,-8.558073997,4.025850296,0.55665189,0.051693719,-0.026379786,0.032108728,-31,-28,-36,8,138
1695160850148261200,-8.583212852,-1.303642869,1.587355733,-0.784332275,0.235819295,-0.036638591,-14,25,-5,13,14,-8.58081913,4.016273499,0.59615624,0.040635526,-0.026379786,0.028644716,-27,-17,-33,5,140
1695160850149261200,-8.570044518,-1.307234168,1.549048543,-0.802585006,0.224094957,-0.021716693,-12,21,-6,13,14,-8.582015991,4.016273499,0.597353339,0.04103522,-0.02691271,0.028378254,-33,-20,-34,8,142
1695160850150261200,-8.552088737,-1.309628367,1.510741234,-0.820970893,0.211704448,-0.006794794,-7,23,-6,13,15,-8.582015991,4.01507616,0.59495914,0.041701376,-0.027445635,0.028511487,-33,-18,-35,8,138
1695160850151261200,-8.535328865,-1.316810966,1.477222443,-0.839489996,0.199180692,0.007993874,-12,22,-6,14,14,-8.582015991,4.01507616,0.588973641,0.042367533,-0.028245023,0.028644716,-29,-19,-35,6,138
1695160850152261200,-8.512583733,-1.315613866,1.441309452,-0.858675361,0.186257273,0.023182238,-14,18,-6,13,13,-8.579621315,4.013879299,0.586579442,0.043033689,-0.028777948,0.028644716,-32,-19,-34,8,140
1695160850198226500,-8.092401505,-1.224634171,0.711077929,-1.332978606,-0.144156188,0.299370587,-12,25,-6,13,14,-8.558073997,4.042609692,0.569819987,0.05768913,-0.035173047,0.033973966,-33,-21,-32,12,140
1695160850199226500,-8.081627846,-1.219845772,0.676361978,-1.36402142,-0.163341507,0.31322667,-8,22,-6,13,14,-8.556877136,4.043806553,0.566228688,0.057022974,-0.034906585,0.034240428,-30,-18,-34,8,140
1695160850200226500,-8.07324791,-1.209071875,0.636857629,-1.395597219,-0.181594178,0.326816231,-10,21,-6,13,14,-8.561665535,4.04739809,0.563834488,0.056356817,-0.034773353,0.034240428,-29,-18,-32,7,142
1695160850201226500,-8.069656372,-1.204283476,0.59376204,-1.42743957,-0.199180692,0.340272576,-11,23,-5,13,16,-8.562862396,4.046200752,0.565031588,0.055557426,-0.034506891,0.034506891,-31,-22,-29,13,137
1695160850202226500,-8.078036308,-1.203086376,0.548272192,-1.459148526,-0.21610108,0.353462487,-11,25,-5,14,17,-8.561665535,4.046200752,0.567425787,0.055024505,-0.034506891,0.034773353,-31,-19,-34,9,138
1695160850253195100,-8.997409821,-1.684320927,-0.283712894,-1.96396172,-0.430203676,0.70172894,-14,22,-5,12,14,-8.577227592,4.01507616,0.549469292,0.058754977,-0.041834611,0.038237367,-29,-20,-33,12,141
1695160850254195100,-9.083600998,-1.753752708,-0.311246216,-1.977551341,-0.433134764,0.733571172,-14,25,-6,13,16,-8.574832916,4.013879299,0.545877993,0.059820827,-0.042500768,0.038237367,-29,-18,-34,12,140
1695160850255195100,-9.173383713,-1.81959331,-0.336385339,-1.988476276,-0.435399711,0.767145455,-12,21,-5,11,14,-8.574832916,4.0114851,0.542286694,0.060886677,-0.043033689,0.038237367,-30,-19,-34,9,141
1695160850256195100,-9.26556015,-1.891419291,-0.362721562,-1.996736526,-0.436332315,0.802185297,-8,25,-6,13,14,-8.573636055,4.012681961,0.545877993,0.061819296,-0.043166921,0.038104136,-33,-18,-34,11,141
1695160850257195100,-9.348160744,-1.968033791,-0.387860686,-2.002065897,-0.436465532,0.838557422,-8,18,-6,13,14,-8.576030731,4.012681961,0.547075093,0.062352221,-0.043433387,0.037837673,-31,-19,-34,9,142
1695160850297173400,-10.19091988,-3.293224335,-0.682347476,-1.472205162,-0.24567841,1.617560506,-11,25,-6,13,15,-8.534132004,4.062960148,0.554257691,0.037171517,-0.025580399,0.024381317,-29,-19,-34,9,140
1695160850298173400,-10.18134308,-3.335123062,-0.702698171,-1.413050532,-0.228091896,1.65286684,-14,25,-5,12,14,-8.530540466,4.061763287,0.55904609,0.035839204,-0.025580399,0.024381317,-28,-18,-32,12,141
1695160850299173400,-10.17416,-3.368641853,-0.725443125,-1.351630926,-0.210638598,1.685774803,-14,20,-6,14,16,-8.528146744,4.061763287,0.55784899,0.034640122,-0.025447167,0.024514547,-29,-20,-32,12,140
1695160850300173400,-10.15979481,-3.400963545,-0.752976418,-1.288346171,-0.1931853,1.71668458,-11,26,-6,12,14,-8.528146744,4.059369087,0.555454791,0.033840735,-0.025447167,0.024647778,-30,-18,-33,13,141
1695160850301173400,-10.14542961,-3.426102638,-0.776918471,-1.22319603,-0.175865233,1.745195985,-11,18,-5,16,14,-8.524555206,4.056974888,0.551863492,0.033041347,-0.02571363,0.025047474,-29,-20,-34,9,138
1695160850333148900,-9.967061996,-3.147178173,-1.370680451,-0.021183766,0.050094947,1.77011025,-14,21,-9,13,17,-8.55448246,4.036623955,0.532709897,0.05768913,-0.043300152,0.044499233,-29,-21,-34,10,140
1695160850334148900,-9.976638794,-3.095702887,-1.399410844,0.028111791,0.055424199,1.74572897,-12,20,-8,13,16,-8.553285599,4.043806553,0.531512797,0.058754977,-0.043433387,0.045298621,-28,-18,-33,9,142
1695160850335148900,-9.994594574,-3.045424461,-1.435323954,0.07500919,0.06008729,1.71881628,-14,22,-6,13,15,-8.553285599,4.04739809,0.525527298,0.059687596,-0.043433387,0.045964777,-32,-20,-34,12,140
1695160850336148900,-10.01494598,-2.992752075,-1.464054346,0.119108729,0.064483918,1.690438032,-12,21,-7,13,14,-8.556877136,4.048594952,0.525527298,0.060486984,-0.043166921,0.046630934,-31,-19,-33,14,141
1695160850337148900,-10.04367638,-2.93768549,-1.493981838,0.160143942,0.068347625,1.659928083,-15,23,-7,11,15,-8.556877136,4.04979229,0.525527298,0.061019909,-0.042900458,0.047163859,-31,-19,-33,15,142
1695160850382125500,-10.91157436,-2.024297476,-1.74896431,0.357859105,0.093261868,1.047330737,-13,23,-6,13,14,-8.537723541,4.031835556,0.507570744,0.050228179,-0.026513018,0.05249311,-31,-25,-34,10,140
1695160850383125500,-10.94988155,-1.982398987,-1.74896431,0.341205209,0.094594181,1.021750331,-10,25,-6,13,15,-8.538920403,4.028244495,0.508767843,0.049828485,-0.02571363,0.052626338,-31,-19,-34,11,142
1695160850384125500,-10.99656868,-1.924938202,-1.752555609,0.31429249,0.097258806,0.988575757,-12,25,-6,19,14,-8.537723541,4.023456097,0.513556242,0.049562022,-0.024914242,0.052759573,-32,-18,-33,12,141
1695160850385125500,-11.0133276,-1.899798989,-1.756146908,0.299503833,0.098857582,0.972721338,-14,21,-6,13,14,-8.538920403,4.01747036,0.514753342,0.049162328,-0.024381317,0.0528928,-33,-23,-35,8,144
1695160850386125500,-11.04205799,-1.856703401,-1.759738207,0.275522202,0.100856051,0.949405789,-12,19,-6,13,14,-8.537723541,4.01507616,0.514753342,0.049029093,-0.024114855,0.053026035,-28,-18,-34,14,141
1695160850419122700,-10.95586681,-1.657984734,-1.915361404,-0.296439528,0.095926493,0.667222023,-12,25,-5,13,17,-8.56046772,3.992331266,0.544680893,0.044232771,-0.024647778,0.044898927,-32,-18,-34,5,144
1695160850420122700,-10.95107841,-1.668758631,-1.916558504,-0.325750381,0.095793262,0.659494638,-12,18,-4,8,14,-8.56046772,3.991134167,0.548272192,0.043433387,-0.024514547,0.043833077,-27,-18,-34,10,139
1695160850421122700,-10.94748688,-1.678335428,-1.911770105,-0.354395092,0.095660031,0.652433395,-10,25,-6,13,14,-8.564059258,3.988739967,0.553060591,0.04276723,-0.024514547,0.04276723,-29,-20,-33,12,141
1695160850422122700,-10.94030476,-1.692700624,-1.908178806,-0.382107198,0.095926493,0.646304727,-16,23,-7,14,14,-8.567650795,3.991134167,0.555454791,0.041834611,-0.024514547,0.041701376,-33,-18,-34,13,145
1695160850423122700,-10.93551636,-1.715445518,-1.904587507,-0.409019887,0.09659265,0.640975475,-10,24,-6,13,14,-8.567650795,3.992331266,0.551863492,0.041168455,-0.024514547,0.040635526,-29,-19,-33,13,141
1695160850458100100,-10.57279491,-2.445677042,-1.814804912,-0.621790171,0.100589581,0.651101053,-11,19,-6,13,14,-8.56046772,4.016273499,0.544680893,0.04516539,-0.024381317,0.037437979,-31,-20,-33,13,140
1695160850459100100,-10.53209305,-2.497152328,-1.811213613,-0.613263428,0.096459419,0.651500762,-15,21,-6,15,14,-8.565256119,4.01747036,0.545877993,0.045831546,-0.024381317,0.038370594,-28,-18,-33,12,139
1695160850460100100,-10.4878006,-2.552218914,-1.812410712,-0.602338433,0.091929555,0.651367545,-12,26,-9,11,15,-8.566453934,4.018667698,0.543483794,0.046364475,-0.024381317,0.038903523,-32,-20,-34,12,144
1695160850461100100,-10.44111347,-2.607285738,-1.807622313,-0.589148581,0.086733535,0.650568187,-12,21,-5,12,14,-8.567650795,4.021061897,0.545877993,0.046764165,-0.024381317,0.039702907,-29,-18,-34,12,139
1695160850462100100,-10.38604736,-2.662352324,-1.802833915,-0.573826909,0.081004597,0.648969352,-14,19,-6,13,15,-8.568847656,4.022258759,0.548272192,0.047163859,-0.024647778,0.040235836,-28,-21,-32,12,142
1695160850496058800,-9.355342865,-2.925714493,-1.847126603,-0.065016843,-0.081537522,0.381574243,-12,26,-6,12,15,-8.578424454,3.993528366,0.555454791,0.04969525,-0.028777948,0.049162328,-29,-17,-32,12,141
1695160850497058800,-9.314641953,-2.894589901,-1.845929503,-0.043433387,-0.089398161,0.352529854,-15,25,-8,12,14,-8.578424454,3.992331266,0.560243189,0.049961712,-0.02904441,0.049029093,-32,-18,-33,8,141
1695160850498058800,-9.289502144,-2.873042107,-1.849520802,-0.030376723,-0.094327718,0.332678407,-12,21,-6,13,14,-8.582015991,3.989937067,0.55904609,0.050361406,-0.029310873,0.049029093,-31,-18,-31,13,141
1695160850499058800,-9.254786491,-2.840720415,-1.848323703,-0.012790199,-0.101388969,0.301635504,-11,22,-5,13,14,-8.58081913,3.985148668,0.555454791,0.050627869,-0.029444104,0.048629403,-34,-18,-36,13,140
1695160850500058800,-9.217676163,-2.802412987,-1.849520802,0.002264931,-0.108316995,0.269393563,-12,19,-6,12,15,-8.58081913,3.982754469,0.55665189,0.050761104,-0.029310873,0.048229709,-29,-20,-31,11,139
1695160850531038800,-8.965087891,-1.999158382,-1.8590976,-0.190254211,-0.201045945,-0.421676874,-13,30,-3,14,16,-8.573636055,3.983951569,0.571017087,0.044632465,-0.025846859,0.032908116,-29,-18,-34,10,144
1695160850532038800,-8.979453087,-1.962048292,-1.866280198,-0.219298616,-0.207174569,-0.456183791,-6,26,-3,13,19,-8.577227592,3.983951569,0.572214186,0.043833077,-0.02571363,0.032241959,-29,-21,-34,9,139
1695160850533038800,-9.002198219,-1.928529501,-1.878251195,-0.249142408,-0.213836133,-0.490024507,-8,25,-4,22,16,-8.577227592,3.982754469,0.572214186,0.043033689,-0.02571363,0.031709034,-30,-20,-34,10,144
1695160850534038800,-9.02374649,-1.889025092,-1.893813491,-0.279652387,-0.221163854,-0.523465574,-6,25,-3,16,14,-8.576030731,3.98036027,0.572214186,0.042500768,-0.02571363,0.031042879,-30,-18,-33,12,134
1695160850535038800,-9.047688484,-1.851915002,-1.911770105,-0.310562044,-0.2290245,-0.556506872,-15,25,-6,13,14,-8.574832916,3.981557369,0.572214186,0.042101074,-0.025846859,0.030643184,-29,-18,-31,11,144
1695160850614909700,-8.786720276,-2.912546396,0.213083953,-0.917030632,-1.034140825,-0.194917306,-11,19,-85,-6,11,-8.549694061,3.967192173,0.561440289,0.053958651,-0.02904441,0.050361406,-28,-21,-32,14,141
1695160850615909700,-8.786720276,-2.955641985,0.248996973,-0.884921908,-1.045865178,-0.194650844,-11,19,-83,0,12,-8.550890923,3.965995073,0.560243189,0.053958651,-0.029310873,0.049961712,-29,-18,-33,13,141
1695160850616909700,-8.785523415,-3.005920172,0.288501292,-0.851480842,-1.05798924,-0.194117904,-10,21,-84,-4,11,-8.550890923,3.962403774,0.561440289,0.053958651,-0.029710567,0.049428791,-30,-21,-34,12,144
1695160850617909700,-8.785523415,-3.039438963,0.316034615,-0.828032196,-1.066116333,-0.1931853,-11,21,-85,-6,13,-8.552088737,3.962403774,0.55784899,0.053825419,-0.030243492,0.048895866,-29,-18,-33,13,144
1695160850618909700,-8.780735016,-3.089717388,0.363918662,-0.792459369,-1.077973962,-0.191852987,-15,19,-88,-8,11,-8.552088737,3.961206675,0.554257691,0.053825419,-0.030776417,0.048229709,-30,-18,-34,12,141
1695160850661863100,-8.467094421,-3.406949043,1.198297977,-0.258601815,-0.922226667,-0.049828485,-7,11,-96,-9,9,-8.559270859,3.969586372,0.532709897,0.055557426,-0.031176111,0.030643184,-28,-18,-33,15,139
1695160850662863100,-8.453926086,-3.406949043,1.222239971,-0.248476252,-0.887986183,-0.036372125,-8,17,-91,-8,11,-8.55448246,3.970783472,0.536301196,0.055690661,-0.031176111,0.029843798,-29,-19,-32,15,143
1695160850663863100,-8.440757751,-3.411737442,1.243787766,-0.239949465,-0.852147043,-0.022516079,-10,17,-91,-8,12,-8.555679321,3.973177671,0.536301196,0.05595712,-0.030776417,0.029444104,-29,-19,-32,13,146
1695160850664863100,-8.434772491,-3.412934542,1.26294136,-0.233287901,-0.814575791,-0.008526799,-13,17,-92,-6,12,-8.553285599,3.97916317,0.538695395,0.05595712,-0.030643184,0.02904441,-29,-18,-34,10,141
1695160850665863100,-8.42759037,-3.411737442,1.278503656,-0.228091896,-0.775805533,0.005196018,-6,10,-95,-9,12,-8.556877136,3.981557369,0.532709897,0.056223582,-0.030509954,0.028644716,-31,-18,-31,13,142
1695160850703859800,-8.185775757,-3.391386747,1.397016644,-0.287912726,0.078606427,0.240482375,-12,11,-95,-6,7,-8.56046772,4.037821293,0.535104096,0.056490045,-0.026779478,0.033574272,-30,-18,-32,10,141
1695160850704859800,-8.171410561,-3.390189648,1.386242747,-0.294041336,0.125237361,0.250208259,-11,3,-97,-9,11,-8.555679321,4.035427094,0.531512797,0.056889739,-0.027045943,0.034240428,-29,-18,-31,13,144
1695160850705859800,-8.159439087,-3.390189648,1.380257249,-0.299637049,0.171735078,0.259800911,-8,10,-96,-8,11,-8.55448246,4.034229755,0.529118598,0.057289433,-0.027312404,0.034773353,-29,-19,-36,11,142
1695160850706859800,-8.147468567,-3.392583847,1.371877551,-0.304699838,0.217966303,0.269260317,-6,10,-99,-9,8,-8.553285599,4.035427094,0.530315697,0.05768913,-0.027179174,0.035572741,-29,-18,-32,12,144
1695160850707859800,-8.136694908,-3.397372246,1.361103654,-0.309229732,0.263797849,0.27845329,-12,9,-97,-4,5,-8.552088737,4.034229755,0.529118598,0.05808882,-0.027312404,0.036372125,-28,-13,-33,13,142
1695160850747812000,-8.349778175,-3.354276657,0.861912608,-0.252739668,0.922892749,0.463378251,-14,17,-85,-6,11,-8.54251194,4.034229755,0.544680893,0.067415006,-0.027312404,0.042101074,-29,-21,-33,15,145
1695160850748812000,-8.383296967,-3.34350276,0.821211159,-0.24261409,0.946474731,0.473637074,-8,17,-87,-8,11,-8.537723541,4.033032894,0.542286694,0.067281775,-0.027312404,0.041834611,-28,-18,-33,14,144
1695160850749812000,-8.421604156,-3.332728863,0.775721371,-0.231955588,0.968457878,0.484029084,-11,7,-87,-8,9,-8.534132004,4.031835556,0.543483794,0.067015313,-0.027312404,0.041568145,-27,-15,-33,13,144
1695160850750812000,-8.468291283,-3.317166567,0.738611221,-0.220364481,0.988708973,0.493888199,-8,9,-87,-8,9,-8.534132004,4.033032894,0.545877993,0.066615619,-0.027312404,0.041301683,-29,-18,-32,12,144
1695160850751812000,-8.514978409,-3.303998232,0.697909772,-0.207973972,1.006961703,0.503614068,-11,17,-86,-2,11,-8.534132004,4.034229755,0.547075093,0.066215925,-0.027445635,0.04103522,-29,-17,-31,14,145
1695160850809779700,-9.481039047,-3.19625926,0.003591303,0.161609486,0.968857586,0.592079639,-7,9,-74,-2,12,-8.5484972,4.04739809,0.531512797,0.061819296,-0.028111791,0.039303213,-28,-18,-33,12,144
1695160850810779700,-9.528923035,-3.183091164,-0.032321721,0.183059722,0.953136265,0.591946423,-8,10,-71,-5,11,-8.547300339,4.046200752,0.531512797,0.062352221,-0.028245023,0.039303213,-32,-15,-34,14,141
1695160850811779700,-9.575610161,-3.169923067,-0.064643443,0.20464319,0.937015295,0.591280222,-10,11,-70,-3,13,-8.544905663,4.04739809,0.531512797,0.062885143,-0.028511487,0.03956968,-29,-18,-33,13,141
1695160850812779700,-9.61870575,-3.153163671,-0.092176765,0.22596018,0.920494676,0.589814663,-7,17,-70,-6,13,-8.543708801,4.04739809,0.531512797,0.063551299,-0.028777948,0.039702907,-30,-19,-33,14,140
1695160850813779700,-9.658209801,-3.139995575,-0.125695586,0.246611029,0.903707504,0.587683022,-5,10,-71,0,10,-8.546102524,4.048594952,0.530315697,0.064217456,-0.028777948,0.03956968,-29,-18,-33,14,141
1695160850855751100,-9.31823349,-2.856282711,-0.486022949,0.514006138,0.608333826,0.434600294,-8,7,-52,2,11,-8.524555206,4.065354347,0.524330199,0.064217456,-0.027179174,0.041168455,-32,-18,-32,14,142
1695160850856751100,-9.258378029,-2.82396102,-0.503979445,0.519202113,0.594078064,0.417147011,-11,17,-49,-4,12,-8.523358345,4.066551685,0.524330199,0.063817769,-0.02691271,0.041168455,-29,-18,-34,10,140
1695160850857751100,-9.197325706,-2.79044199,-0.523133099,0.523065865,0.579822361,0.398627877,-8,11,-47,1,11,-8.525752068,4.066551685,0.523133099,0.063418068,-0.026779478,0.04103522,-28,-18,-34,13,141
1695160850858751100,-9.139864922,-2.754528999,-0.539892495,0.52506429,0.565033674,0.379042894,-12,17,-49,0,13,-8.525752068,4.065354347,0.524330199,0.063018374,-0.026646247,0.04103522,-29,-18,-33,15,144
1695160850859751100,-9.088389397,-2.71502471,-0.55665189,0.524264932,0.549845338,0.357859105,-10,17,-51,-2,12,-8.529343605,4.064157486,0.51954174,0.062751912,-0.026646247,0.040901989,-26,-18,-33,13,141
1695160850893727600,-8.828619003,-2.051830769,-0.824802458,0.328548223,0.260067374,-0.168670759,-8,18,-39,3,12,-8.543708801,4.073734283,0.524330199,0.059687596,-0.02384839,0.037304748,-31,-16,-34,14,141
1695160850894727600,-8.860940933,-2.030282974,-0.831985116,0.31216079,0.243946403,-0.195716694,-8,11,-42,4,11,-8.544905663,4.074931145,0.526724398,0.059421133,-0.02384839,0.037038282,-29,-18,-29,11,144
1695160850895727600,-8.898050308,-2.015917778,-0.833182216,0.295773357,0.227825418,-0.222096488,-10,10,-40,0,12,-8.547300339,4.074931145,0.527921498,0.059287902,-0.02384839,0.036905054,-28,-21,-31,14,144
1695160850896727600,-8.926780701,-2.00753808,-0.836773515,0.285114855,0.216900453,-0.238883615,-14,9,-38,6,8,-8.5484972,4.074931145,0.529118598,0.058888208,-0.023715161,0.036905054,-23,-18,-32,13,146
1695160850897727600,-8.983044624,-1.994369984,-0.839167714,0.264197558,0.195183769,-0.270859122,-13,17,-40,3,11,-8.550890923,4.071340084,0.531512797,0.058488514,-0.02358193,0.036638591,-27,-20,-32,13,145
1695160850931729000,-8.972270966,-2.118868589,-1.059434295,-0.044099543,0.019851454,-0.010392036,-12,18,-41,2,10,-8.544905663,4.096478939,0.531512797,0.047030624,-0.020384381,0.03650536,-28,-17,-33,13,142
1695160850932729000,-8.974664688,-2.11767149,-1.060631394,-0.04769678,0.018785605,-0.009059724,-11,18,-45,4,13,-8.547300339,4.09408474,0.532709897,0.046630934,-0.020384381,0.036905054,-29,-19,-33,15,140
1695160850933729000,-8.974664688,-2.11767149,-1.060631394,-0.051160797,0.017986218,-0.007727412,-8,20,-44,4,11,-8.549694061,4.09169054,0.530315697,0.046497703,-0.020650841,0.037171517,-25,-18,-33,14,142
1695160850934729000,-8.974664688,-2.11767149,-1.061828494,-0.054624807,0.016920367,-0.006261868,-11,17,-43,2,14,-8.5484972,4.090493679,0.530315697,0.046497703,-0.020917306,0.03757121,-28,-17,-32,13,144
1695160850935729000,-8.974664688,-2.120065689,-1.063025594,-0.057822358,0.015721286,-0.004663093,-12,21,-42,6,11,-8.5484972,4.090493679,0.529118598,0.046630934,-0.021450229,0.037837673,-28,-20,-35,12,147
1695160850963710500,-9.022548676,-2.342726469,-1.095347285,-0.055290964,0.008793262,-0.001465544,-13,20,-39,8,11,-8.547300339,4.062960148,0.523133099,0.05808882,-0.030909648,0.04729709,-26,-22,-31,12,141
1695160850964710500,-9.021351814,-2.348711967,-1.096544385,-0.054091886,0.009725881,-0.001998469,-8,9,-41,2,11,-8.549694061,4.065354347,0.52073884,0.058222052,-0.031042879,0.047830015,-21,-18,-30,16,140
1695160850965710500,-9.020154953,-2.351106167,-1.095347285,-0.05249311,0.01079173,-0.002398162,-10,19,-41,2,11,-8.547300339,4.065354347,0.518344641,0.058355279,-0.031042879,0.047963247,-31,-19,-34,12,141
1695160850966710500,-9.012971878,-2.352303267,-1.095347285,-0.051027562,0.011457887,-0.002797856,-8,5,-41,4,14,-8.54251194,4.062960148,0.51954174,0.058222052,-0.031176111,0.048362937,-30,-18,-32,12,135
1695160850967710500,-9.010578156,-2.348711967,-1.100135684,-0.049562022,0.01185758,-0.003330781,-12,18,-40,0,13,-8.543708801,4.060565948,0.52073884,0.058355279,-0.031176111,0.048629403,-24,-19,-32,14,142
1695160850999685700,-9.010578156,-2.288856745,-0.998382092,-0.062751912,0.011191424,-0.011058193,-10,10,-40,4,11,-8.524555206,4.065354347,0.507570744,0.038903523,-0.025047474,0.028644716,-32,-19,-31,15,144
1695160851000685700,-9.010578156,-2.288856745,-0.995987892,-0.062885143,0.01079173,-0.010658499,-10,18,-40,3,12,-8.523358345,4.068945885,0.507570744,0.038503829,-0.024914242,0.028644716,-30,-18,-34,12,142
1695160851001685700,-9.012971878,-2.290053844,-0.997184992,-0.062885143,0.010525269,-0.010392036,-8,19,-42,6,9,-8.523358345,4.070142746,0.503979445,0.038237367,-0.024514547,0.02904441,-28,-18,-33,12,142
1695160851002685700,-9.015366554,-2.293645144,-0.995987892,-0.062885143,0.010525269,-0.009992342,-12,17,-40,1,11,-8.517372131,4.077325344,0.503979445,0.037970904,-0.024114855,0.029310873,-30,-20,-33,15,140
1695160851003685700,-9.017760277,-2.293645144,-0.997184992,-0.063018374,0.010125575,-0.009725881,-11,19,-38,0,15,-8.517372131,4.082113743,0.505176544,0.037704438,-0.02384839,0.029710567,-29,-21,-34,3,140
1695160851034651100,-9.018958092,-2.297236443,-0.986411095,-0.03956968,0.017852986,0.015987748,-19,7,-41,-4,7,-8.498218536,4.346673012,0.550666392,-0.058222052,-0.051160797,0.055823889,-29,-18,-33,12,143
1695160851035651100,-9.02374649,-2.296039343,-0.991199493,-0.039303213,0.017586524,0.016387442,-16,7,-43,-2,4,-8.497021675,4.337096214,0.547075093,-0.058222052,-0.053958651,0.060886677,-28,-19,-29,14,142
1695160851036651100,-9.026140213,-2.299630642,-0.997184992,-0.039303213,0.017320061,0.016387442,-4,21,-33,8,14,-8.499416351,4.328716755,0.541089594,-0.05768913,-0.057022974,0.066615619,-27,-20,-34,14,142
1695160851037651100,-9.026140213,-2.303221941,-0.997184992,-0.03956968,0.016787136,0.016254211,-6,23,-37,7,14,-8.501810074,4.317942619,0.539892495,-0.056490045,-0.060220521,0.072344564,-29,-23,-24,13,138
1695160851038651100,-9.021351814,-2.30681324,-0.995987892,-0.039836142,0.016254211,0.016254211,-10,23,-35,8,13,-8.51019001,4.311957359,0.536301196,-0.054624807,-0.064084224,0.078339972,-31,-18,-31,12,142
1695160851071626200,-8.914810181,-2.677914619,-1.283292055,-0.028644716,-0.188255742,0.127635539,-12,17,-38,-2,7,-8.422801971,3.988739967,1.491587639,0.409552813,-0.377177656,-0.74009949,-28,-18,-31,10,141
1695160851072626200,-8.877699852,-2.681505919,-1.295263171,-0.02158346,-0.183992341,0.130166918,-15,11,-38,0,7,-8.418013573,4.01507616,1.480813742,0.412217438,-0.374246567,-0.7432971,-29,-18,-32,12,144
1695160851073626200,-8.832210541,-2.685097218,-1.310825467,-0.014388974,-0.179062784,0.132698312,-4,28,-25,13,15,-8.413225174,4.036623955,1.467645645,0.414882064,-0.371315449,-0.745828509,-29,-23,-28,12,140
1695160851074626200,-8.786720276,-2.688688517,-1.323993564,-0.007993874,-0.173866764,0.135096475,-7,27,-25,10,14,-8.412027359,4.061763287,1.459265947,0.41754669,-0.368251175,-0.747560501,-29,-17,-28,14,145
1695160851075626200,-8.744821548,-2.691082716,-1.340752959,-0.000799387,-0.167604893,0.136695251,-3,25,-24,8,14,-8.409633636,4.08570528,1.44968915,0.420477778,-0.365320057,-0.748892784,-30,-17,-32,12,141
1695160851101632200,-8.809465408,-2.555810213,-0.010773907,-0.004796324,0.128168449,0.124704443,-14,17,-13,0,11,-8.591592789,3.688267708,1.895010591,0.46590963,-0.324817777,-0.362522215,-40,-29,-37,2,135
1695160851102632200,-8.821435928,-2.559401512,-0.016759412,-0.000666156,0.123638593,0.136162326,-14,17,-15,0,7,-8.576030731,3.696647406,1.912967205,0.470439523,-0.329614073,-0.364254236,-41,-31,-38,0,130
1695160851103632200,-8.834604263,-2.562992811,-0.021547815,0.003730475,0.118709028,0.147353753,-1,27,-6,13,16,-8.567650795,3.720589399,1.921346903,0.474436462,-0.334143966,-0.365320057,-30,-18,-30,14,141
1695160851104632200,-8.841787338,-2.565387011,-0.02873042,0.008393568,0.113779478,0.158278719,-3,26,-19,10,17,-8.558073997,3.744531393,1.912967205,0.478833079,-0.341604888,-0.367052078,-30,-18,-29,12,140
1695160851105632200,-8.853757858,-2.572569609,-0.034715924,0.013189893,0.108849928,0.169203669,-15,11,-17,-3,4,-8.550890923,3.746925592,1.916558504,0.48096475,-0.345868289,-0.36771822,-31,-22,-31,10,140
1695160851133613900,-9.041702271,-2.336740971,-0.74339962,0.01718683,0.029310873,-0.064217456,-16,11,-12,2,9,-8.48385334,4.095282078,0.833182216,0.079006128,-0.100189894,0.021316998,-43,-33,-39,-1,132
1695160851134613900,-9.042900085,-2.335543871,-0.74339962,0.016254211,0.028777948,-0.064084224,-16,17,-9,2,6,-8.479064941,4.095282078,0.830788016,0.078739658,-0.099790201,0.021450229,-43,-32,-40,-1,128
1695160851135613900,-9.042900085,-2.334346771,-0.745793819,0.015454824,0.028511487,-0.063950993,-4,29,-4,12,9,-8.47786808,4.098873138,0.829590917,0.078073502,-0.099390499,0.02158346,-41,-32,-40,-1,129
1695160851136613900,-9.048885345,-2.325966835,-0.749385118,0.014522205,0.027712099,-0.063551299,-8,29,-6,10,14,-8.475474358,4.103661537,0.827196658,0.077407345,-0.098857582,0.02158346,-43,-32,-41,-1,129
1695160851137613900,-9.051279068,-2.323572636,-0.749385118,0.013589587,0.027179174,-0.063151613,-17,10,-17,-2,7,-8.476671219,4.106055737,0.825999558,0.076607957,-0.098191425,0.021716693,-44,-32,-40,-1,130
1695160851177588500,-9.001001358,-2.355894566,-0.961272001,-0.033441041,0.054491576,-0.020117918,-12,21,-7,7,13,-8.540117264,4.029441357,0.792480767,0.049562022,-0.024914242,0.058222052,-44,-32,-40,-1,130
1695160851178588500,-8.999804497,-2.354697466,-0.956483603,-0.033574272,0.05489127,-0.021050537,-8,20,-6,4,11,-8.54251194,4.027047157,0.794874966,0.04969525,-0.024248086,0.058754977,-43,-33,-39,-1,128
1695160851179588500,-8.999804497,-2.351106167,-0.957680702,-0.033840735,0.055290964,-0.021983154,-8,27,-8,6,13,-8.543708801,4.024652958,0.797269166,0.049562022,-0.02358193,0.059154671,-44,-33,-41,-1,128
1695160851180588500,-8.996212959,-2.351106167,-0.960074902,-0.034107197,0.055424199,-0.022649311,-8,25,-9,6,12,-8.543708801,4.022258759,0.803254664,0.049562022,-0.022915773,0.059554365,-44,-33,-41,-1,128
1695160851181588500,-8.996212959,-2.345120668,-0.961272001,-0.03437366,0.055823889,-0.02358193,-12,25,-7,10,13,-8.546102524,4.019864559,0.804451764,0.04969525,-0.022649311,0.059820827,-43,-34,-39,-1,124
1695160851212549200,-9.015366554,-2.315192938,-0.884657502,-0.038637057,0.041434918,0.008127105,-17,8,-19,-3,7,-8.538920403,3.849876404,0.859518409,0.081803977,-0.017719755,0.04969525,-44,-33,-40,-3,129
1695160851213549200,-9.017760277,-2.316390038,-0.881066203,-0.03996937,0.040369064,0.007594181,-18,17,-17,0,5,-8.541314125,3.853467703,0.861912608,0.083003066,-0.016787136,0.049029093,-44,-34,-43,-1,125
1695160851214549200,-9.022548676,-2.316390038,-0.883460402,-0.041568145,0.039169986,0.007061256,-10,27,-6,12,13,-8.540117264,3.857059002,0.866701007,0.084068909,-0.015721286,0.048362937,-43,-33,-37,-1,128
1695160851215549200,-9.032125473,-2.311601639,-0.887051702,-0.043699846,0.037304748,0.0063951,-11,21,-7,10,14,-8.546102524,3.858256102,0.869095206,0.085267991,-0.014655436,0.047563553,-44,-34,-41,-1,125
1695160851216549200,-9.042900085,-2.311601639,-0.888248801,-0.045298621,0.035972435,0.005728943,-12,29,-6,11,14,-8.5484972,3.8654387,0.869095206,0.086067379,-0.01385605,0.046897396,-44,-34,-39,-1,126
1695160851250523900,-9.939528465,-6.402095318,-3.071760893,0.098591112,0.750757992,-1.663924932,-14,21,-7,8,12,-8.738836288,8.154650688,0.934935749,-0.826033652,0.130433381,0.618192911,-37,-22,-34,5,136
1695160851251523900,-9.950302124,-6.417657852,-3.101688385,0.108716697,0.76767844,-1.711754918,-12,22,-8,6,11,-8.747216225,8.177395821,0.906205356,-0.855744243,0.127102599,0.68454212,-34,-25,-34,4,133
1695160851252523900,-9.949105263,-6.432023048,-3.114856482,0.114179172,0.780868292,-1.747860551,-13,20,-7,10,13,-8.761581421,8.195352554,0.887051702,-0.880791724,0.12230628,0.752489984,-34,-23,-34,5,136
1695160851253523900,-9.940725327,-6.445190907,-3.131615877,0.117509954,0.796589553,-1.784232736,-6,22,-11,10,11,-8.781931877,8.207323074,0.857124209,-0.899977028,0.116577335,0.821370602,-34,-24,-34,2,136
1695160851254523900,-9.934740067,-6.452373505,-3.155557871,0.117509954,0.814442575,-1.821404338,-12,21,-9,11,12,-8.807070732,8.215703011,0.834379315,-0.913833082,0.109382853,0.89131701,-35,-24,-34,9,133
1695160851286506200,-9.470264435,-6.649895191,-3.485957623,-0.080471672,1.227326155,-2.587617159,-10,25,-7,11,12,-9.375694275,8.712499619,0.922964752,-0.372114837,-0.016254211,2.023382902,-33,-23,-33,6,138
1695160851287506200,-9.422380447,-6.636727333,-3.519476414,-0.110715166,1.255304813,-2.626121044,-6,19,-5,7,11,-9.384073257,8.773551941,0.938527048,-0.333078086,-0.01825268,2.067882061,-30,-19,-34,10,138
1695160851288506200,-9.375694275,-6.631938934,-3.545812607,-0.144022971,1.281950951,-2.664358377,-11,21,-6,13,14,-9.391256332,8.835801125,0.960074902,-0.295906603,-0.020117918,2.112248182,-34,-23,-34,6,137
1695160851289506200,-9.31823349,-6.630741596,-3.570951939,-0.180528328,1.307664633,-2.701263428,-11,22,-6,12,11,-9.393650055,8.892065048,0.968454599,-0.259934127,-0.022116385,2.156880617,-39,-18,-33,8,139
1695160851290506200,-9.224859238,-6.625953197,-3.597288132,-0.233954057,1.343903542,-2.748693705,-10,23,-7,10,13,-9.393650055,8.941145897,0.981622696,-0.225693718,-0.023981623,2.202312469,-34,-19,-33,9,139
1695160851324481400,-7.380126953,-6.069301128,-3.830722809,-1.361223459,1.995271087,-3.367552757,-8,20,5,8,13,-8.823830605,9.343372345,0.900219858,0.34227106,0.03130934,3.373281717,-37,-21,-32,8,136
1695160851325481400,-7.167042732,-5.928043365,-3.897760391,-1.485528231,2.054558992,-3.421511412,-11,22,-4,2,14,-8.743624687,9.258378029,0.773327172,0.468174547,0.038637057,3.532892704,-35,-27,-32,10,138
1695160851326481400,-6.944382191,-5.761646271,-3.958812475,-1.626087308,2.118243456,-3.476935625,-12,19,-4,9,12,-8.711302757,9.212887764,0.726640224,0.523065865,0.041834611,3.586585045,-33,-20,-34,9,137
1695160851327481400,-6.775590897,-5.626373768,-3.985148668,-1.743730426,2.168205023,-3.518370628,-10,21,-4,8,12,-8.66940403,9.151836395,0.673967779,0.582486987,0.045831546,3.636679888,-34,-21,-33,8,137
1695160851328481400,-6.615179062,-5.481524944,-4.024652958,-1.873630881,2.219898939,-3.560738325,-8,23,-5,8,13,-8.61912632,9.084798813,0.611718535,0.648436427,0.051294025,3.684376717,-33,-25,-34,10,136
1695160851361463100,-3.912125587,-4.936843872,-4.565742493,-4.365721226,3.19715023,-4.286715031,-12,25,-13,7,14,-6.50145483,7.623138428,-0.250194073,2.584419727,0.263531387,4.310563564,-31,-20,-29,13,138
1695160851362463100,-3.816357613,-5.048174381,-4.548983097,-4.365721226,3.209673643,-4.301503658,-17,18,-12,8,13,-6.373364925,7.562086105,-0.29688102,2.710189819,0.282317013,4.341206551,-34,-20,-31,12,138
1695160851363463100,-3.7193923,-5.163095951,-4.541800499,-4.365721226,3.216868162,-4.315493107,-15,25,-12,4,14,-6.24766922,7.498639584,-0.33518824,2.836493254,0.298970878,4.365588188,-33,-27,-31,15,136
1695160851364463100,-3.626018524,-5.266046524,-4.534617901,-4.365721226,3.217534542,-4.327617168,-16,23,-16,7,14,-6.121973515,7.433996201,-0.37229836,2.961997032,0.314026028,4.365588188,-38,-23,-32,15,139
1695160851365463100,-3.543418407,-5.354631901,-4.53342104,-4.365721226,3.21193862,-4.336943626,-17,26,-17,9,13,-6.034585476,7.389703751,-0.396240383,3.04526639,0.323352218,4.365588188,-38,-23,-34,12,136
1695160851397440300,-2.479195833,-4.902127743,-4.283226967,-4.365721226,1.965826988,-4.365721226,-27,18,-32,3,11,-3.830722809,6.798335552,0.311246216,4.365588188,0.261532933,4.365588188,-43,-22,-34,15,140
1695160851398440300,-2.462436438,-4.820724964,-4.303577423,-4.365721226,1.848983169,-4.365721226,-27,18,-38,3,11,-3.761290789,6.794744492,0.390254885,4.365588188,0.235952526,4.365588188,-44,-23,-34,16,137
1695160851399440300,-2.455253839,-4.738125324,-4.320336819,-4.365721226,1.725477815,-4.365721226,-30,19,-35,8,13,-3.695450306,6.781576157,0.464475125,4.365588188,0.207973972,4.365588188,-44,-21,-33,15,141
1695160851400440300,-2.442085743,-4.667496204,-4.328716755,-4.365721226,1.597042799,-4.365721226,-28,17,-36,3,12,-3.633201122,6.751648903,0.513556242,4.365588188,0.177330777,4.365588188,-44,-23,-34,14,138
1695160851401440300,-2.430114746,-4.629189014,-4.332307816,-4.365721226,1.509509921,-4.365721226,-24,17,-37,0,8,-3.598485231,6.716932774,0.536301196,4.365588188,0.15481469,4.365588188,-44,-24,-33,14,137
1695160851433419300,-1.924938202,-4.442441463,-4.171896458,-3.428439617,-0.628052056,-3.895281792,-32,17,-38,4,10,-2.558204412,4.625597477,0.338779539,3.983081102,-0.897179127,3.411385775,-43,-27,-34,16,139
1695160851434419300,-1.918952703,-4.41849947,-4.231751442,-3.326384306,-0.683875918,-3.826401234,-26,18,-36,-2,10,-2.505532026,4.507084846,0.264559299,3.991607904,-0.950338423,3.358226776,-42,-23,-36,12,138
1695160851435419300,-1.914164305,-4.384980202,-4.310760021,-3.220998526,-0.736502349,-3.753523588,-28,22,-37,1,8,-2.457648039,4.396951199,0.193930343,4.005197525,-1.002565145,3.305733681,-43,-17,-34,12,136
1695160851436419300,-1.918952703,-4.341884613,-4.411316395,-3.112681389,-0.786464036,-3.677182198,-32,17,-37,0,8,-2.408566952,4.291606426,0.132878199,4.023183823,-1.053725839,3.253506899,-44,-23,-34,10,139
1695160851437419300,-1.929726601,-4.27724123,-4.514267445,-3.002366066,-0.833494663,-3.597643137,-33,10,-38,-2,9,-2.359485865,4.197035789,0.08499416,4.045166969,-1.103154659,3.201812983,-43,-21,-33,11,140
1695160851468421000,-2.609679937,-0.995987892,-8.312667847,-1.33071363,-1.521500826,-2.355528355,-28,11,-35,2,4,-2.310404539,4.337096214,-1.040280581,3.785632372,-2.088000059,2.176998377,-44,-19,-36,10,141
1695160851469421000,-2.609679937,-0.806845963,-8.556877136,-1.289411902,-1.55147779,-2.321154833,-32,17,-34,4,7,-2.325966835,4.319139957,-1.15280807,3.70822525,-2.143424034,2.122373581,-44,-21,-35,10,141
1695160851470421000,-2.59890604,-0.617704034,-8.797493935,-1.255304813,-1.579456329,-2.287580252,-28,17,-35,6,4,-2.347514868,4.289212227,-1.283292055,3.628286362,-2.198581934,2.068015337,-42,-20,-34,12,142
1695160851471421000,-2.583343744,-0.493205547,-8.955511093,-1.235320091,-1.596243501,-2.265464067,-28,18,-34,-3,5,-2.370259762,4.241328239,-1.424550056,3.547281742,-2.253073454,2.013923407,-41,-19,-34,10,141
1695160851472421000,-2.559401512,-0.316034615,-9.17697525,-1.210539103,-1.617826939,-2.23348856,-28,17,-32,3,11,-2.396595955,4.168305397,-1.576581836,3.46707654,-2.306765556,1.960497737,-44,-24,-34,12,140
1695160851499382000,-1.535880446,1.535880446,-12.29901409,-0.576358318,-1.509243488,-1.404257298,-30,19,-20,7,13,-3.047818661,2.585737944,-5.908889771,2.560171604,-2.994505405,1.129134774,-37,-24,-36,8,141
1695160851500382000,-1.458068848,1.641225219,-12.45224285,-0.503614068,-1.489525318,-1.349765658,-28,22,-21,3,7,-3.072957993,2.545036316,-6.20337677,2.536456347,-3.016088724,1.101555824,-33,-16,-35,13,142
1695160851501382000,-1.37546885,1.74657011,-12.60188103,-0.429404289,-1.46794188,-1.295140862,-26,22,-19,11,9,-3.092111588,2.52827692,-6.496666431,2.50834465,-3.035274267,1.076774836,-34,-21,-37,10,140
1695160851502382000,-1.288080573,1.844732404,-12.74792671,-0.354928017,-1.444626451,-1.239983082,-23,17,-15,6,9,-3.112462282,2.522291422,-6.787561893,2.474237204,-3.051794767,1.054791689,-37,-24,-34,10,142
1695160851503382000,-1.195903778,1.936909199,-12.89517021,-0.280584991,-1.418646216,-1.18375957,-32,23,-17,6,13,-3.128024578,2.535459518,-7.074865818,2.43386817,-3.064851522,1.034940243,-28,-23,-34,16,141
1695160851534384400,0.403422982,3.292027235,-15.07509136,0.769010723,-0.328415006,-0.050761104,-22,22,-16,8,13,-3.065775394,1.917755604,-13.34767437,0.698264897,-2.568298578,0.590214431,-27,-20,-33,16,151
1695160851535384400,0.401028782,3.307589531,-15.16487312,0.801652372,-0.255937219,-0.001732006,-20,26,-14,7,12,-3.040636063,1.802833915,-13.70680428,0.623655438,-2.518203497,0.55730629,-26,-21,-33,17,151
1695160851536384400,0.397437483,3.313575268,-15.24507904,0.834560513,-0.184392035,0.045032158,-22,27,-15,8,11,-3.007117271,1.70946002,-14.03959846,0.553975463,-2.466110229,0.525730491,-27,-20,-33,15,150
1695160851537384400,0.386663586,3.307589531,-15.30732822,0.868134797,-0.114045948,0.089797854,-19,23,-15,7,11,-2.966415882,1.638831019,-14.34485912,0.488958627,-2.410019875,0.493888199,-23,-27,-34,16,151
1695160851538384400,0.383072257,3.289633036,-15.35880375,0.90277487,-0.044499233,0.132964775,-24,22,-7,7,11,-2.914940596,1.584961534,-14.62617779,0.42793873,-2.350065708,0.462045938,-27,-23,-34,17,151
1695160851577337600,-0.565031588,1.663970232,-15.76342392,2.050162315,1.000433326,0.622056663,-19,24,-21,8,14,-1.527500629,2.226607561,-17.28733253,-0.878660023,-0.503081143,0.121373661,-13,-21,-29,17,151
1695160851578337600,-0.620098233,1.583764434,-15.7370882,2.143690586,1.052393556,0.626053572,-14,25,-19,4,13,-1.505952835,2.291250944,-17.31606293,-0.962062836,-0.388102591,0.127635539,-14,-20,-34,15,151
1695160851579337600,-0.666785181,1.509544134,-15.69399261,2.237085581,1.107551336,0.627252638,-17,21,-21,6,13,-1.498770237,2.357091665,-17.34838486,-1.04613173,-0.274856061,0.136295557,-13,-21,-34,15,151
1695160851580337600,-0.703895271,1.440112352,-15.63653088,2.329148531,1.166039824,0.62538743,-17,21,-18,6,14,-1.503558636,2.396595955,-17.37112999,-1.102754951,-0.200646251,0.14388974,-12,-19,-33,15,151
1695160851581337600,-0.736217022,1.362300754,-15.56829643,2.418013811,1.229724288,0.621257305,-20,21,-19,8,14,-1.521515131,2.462436438,-17.4010582,-1.188022971,-0.092196018,0.158145472,-12,-21,-33,16,151
1695160851628309800,-1.522712231,-1.812410712,-13.57512379,3.418580294,2.789196014,0.292842269,-14,11,-31,2,14,-2.020706177,6.027402878,-15.50006199,-3.64200902,2.009393454,0.779269516,10,-21,-34,8,148
1695160851629309800,-1.564610839,-1.983596087,-13.41471195,3.469874382,2.854745626,0.265396625,-14,18,-35,-1,14,-2.020706177,6.323086739,-15.27380943,-3.854246616,2.129701376,0.81284374,11,-19,-34,10,150
1695160851630309800,-1.601720929,-2.145204782,-13.23155594,3.518370628,2.91656518,0.235819295,-11,23,-35,0,15,-2.018311977,6.603208065,-15.07149982,-4.072878838,2.253872871,0.84508574,9,-22,-34,5,150
1695160851631309800,-1.631648421,-2.294842243,-13.03882217,3.565933943,2.975852966,0.202511474,-10,23,-33,-1,14,-2.025494576,6.777985096,-14.96495819,-4.220765591,2.338208199,0.867735028,13,-21,-34,8,150
1695160851632309800,-1.660378933,-2.432508945,-12.8544693,3.61043334,3.032343149,0.16414088,-8,21,-33,-2,15,-2.055422068,7.022193432,-14.84883881,-4.365721226,2.464777946,0.90277487,14,-23,-34,8,148
1695160851679281500,-1.685518026,-3.927687883,-8.597578049,2.858609438,3.523433447,-0.773140907,-8,11,-59,-4,15,-3.156754971,7.131129742,-11.34372807,-4.365721226,3.913134575,2.228825569,8,-20,-45,-3,152
1695160851680281500,-1.59693253,-4.090493679,-8.267178535,2.695401192,3.523299932,-0.801918805,-4,17,-44,-4,15,-3.166331768,7.052121162,-10.95227528,-4.365721226,3.934585094,2.331813335,7,-23,-35,-1,149
1695160851681281500,-1.533486247,-4.218583584,-8.024167061,2.572428703,3.520901918,-0.817373693,-8,19,-43,-2,15,-3.150769472,6.981492043,-10.54406452,-4.365721226,3.951638699,2.43453455,10,-22,-36,-2,149
1695160851682281500,-1.468842745,-4.346673012,-7.782352448,2.452121019,3.516372204,-0.828698277,-5,11,-45,-3,17,-3.112462282,6.922834396,-10.12986755,-4.365721226,3.964695215,2.535390615,9,-25,-34,-2,148
1695160851683281500,-1.407790542,-4.480748653,-7.529764175,2.334744215,3.509977102,-0.836026073,-4,17,-51,-1,14,-3.063380957,6.871358871,-9.696516991,-4.365721226,3.973355293,2.634248257,6,-22,-38,-2,149
1695160851715258400,0.0,-5.493495941,-2.950853586,0.75941807,2.858343124,-0.684808552,-3,10,-61,-4,13,-1.464054346,6.163872242,-2.703053713,-3.13946104,3.537156105,3.43843174,6,-21,-40,-4,148
1695160851716258400,0.080205753,-5.521028996,-2.731784105,0.688006103,2.808114767,-0.669886649,-1,11,-64,-5,12,-1.325190663,5.996278286,-2.426523447,-2.979183674,3.512108564,3.421644688,10,-20,-43,-10,150
1695160851717258400,0.169988319,-5.556941986,-2.53067112,0.620324671,2.758419752,-0.655364454,-3,11,-60,-2,14,-1.210268974,5.855020046,-2.170343876,-2.817440987,3.486395121,3.402193069,9,-24,-34,-9,142
1695160851718258400,0.264559299,-5.604825974,-2.327163935,0.555174589,2.707658529,-0.641375184,-1,18,-53,-2,11,-1.108515382,5.720944881,-1.929726601,-2.655165434,3.458949566,3.379276991,9,-23,-42,-7,147
1695160851719258400,0.359130263,-5.668272495,-2.124854088,0.494554371,2.656764269,-0.628052056,-2,10,-58,-4,14,-1.015141487,5.579687119,-1.70946002,-2.489958763,3.428838968,3.353830099,9,-23,-45,-10,150
1695160851755235800,2.165555477,-6.24168396,-0.497993946,0.206108719,1.642474771,-0.491223574,1,5,-65,-6,12,0.600944638,5.191826344,2.488772631,0.008660031,2.3711164,2.271992207,9,-23,-44,-12,148
1695160851756235800,2.248155355,-6.172252178,-0.497993946,0.179995403,1.583453298,-0.484428793,2,11,-63,-7,9,0.697909772,5.226542473,2.665943623,0.076741189,2.292909622,2.202045918,5,-24,-44,-16,151
1695160851757235800,2.319981337,-6.113594055,-0.507570744,0.150817752,1.524564981,-0.477634013,1,6,-61,-6,11,0.800860465,5.270834923,2.82156682,0.139093414,2.214702845,2.132899046,5,-23,-47,-10,151
1695160851758235800,2.37863946,-6.070498466,-0.539892495,0.120174579,1.465143919,-0.470705956,1,17,-64,-8,11,0.907402456,5.31273365,2.952050686,0.196116373,2.135563612,2.064284801,9,-24,-49,-14,150
1695160851759235800,2.431311846,-6.044162273,-0.587776542,0.089664623,1.40452373,-0.463378251,5,17,-69,-5,11,1.025915384,5.348646641,3.080140591,0.248742729,2.055757999,1.99660337,-2,-24,-47,-13,151
1695160851793212600,3.570951939,-6.02381134,-2.355894566,-0.185191423,0.281251162,-0.25300613,16,9,-63,0,12,2.984372377,6.217741966,3.851073503,0.658428729,0.973920345,1.074776411,5,-25,-49,-20,150
1695160851794212600,3.67869091,-6.003460884,-2.481590033,-0.206641659,0.242081165,-0.239016846,20,9,-64,-5,14,3.052607059,6.258443356,3.803189516,0.648303211,0.935016811,1.044532895,-1,-24,-49,-17,149
1695160851795212600,3.800795317,-5.980715752,-2.612074137,-0.230623275,0.207973972,-0.223562017,20,17,-63,-5,11,3.11964488,6.284779549,3.736151695,0.636712074,0.897578895,1.015222073,5,-24,-49,-19,150
1695160851796212600,3.918111086,-5.962759495,-2.736572504,-0.25766921,0.178529859,-0.206774876,21,17,-63,-5,9,3.192667961,6.297947407,3.665522814,0.624987781,0.862672329,0.987243474,5,-21,-47,-18,151
1695160851797212600,4.041412354,-5.94959116,-2.85987401,-0.284448713,0.154947937,-0.187589586,20,10,-62,-5,11,3.268085241,6.308721542,3.596091032,0.613396645,0.830430329,0.960197508,6,-23,-57,-20,150
1695160851827194500,5.037400246,-6.118382454,-4.08570528,-0.352396637,0.277920365,0.209039822,29,3,-66,-4,13,4.408922195,6.147112846,2.217030764,0.452186853,0.634980083,0.506545186,7,-25,-57,-20,149
1695160851828194500,5.025429249,-6.041768074,-4.13239193,-0.335875928,0.284981638,0.220364481,28,3,-65,-5,9,4.450820923,6.123170853,2.146401882,0.439663082,0.63218224,0.476834595,5,-25,-56,-22,144
1695160851829194500,5.024232388,-5.912481308,-4.199429989,-0.335609496,0.288712084,0.225294024,30,8,-65,-7,14,4.491522312,6.10042572,2.073378563,0.428604871,0.62898463,0.446591109,13,-25,-56,-19,149
1695160851830194500,5.031414986,-5.826289654,-4.209006786,-0.353062779,0.287379771,0.216500759,31,2,-53,-5,12,4.529829502,6.076483727,1.997961283,0.419411957,0.625520647,0.41608116,7,-27,-56,-18,145
1695160851831194500,5.006275654,-5.876567841,-4.115632534,-0.379975498,0.277254194,0.193318531,32,0,-64,-6,10,4.57172823,6.05852747,1.9321208,0.412084222,0.621523738,0.385437965,6,-21,-56,-22,147
1695160851864175400,6.7636199,-7.009025574,-3.94205308,-0.22183001,-0.436199099,-0.026513018,31,1,-60,-8,5,4.874594688,6.555324078,2.160767078,0.523465574,0.577424169,-0.035306279,6,-40,-63,-44,151
1695160851865175400,6.671442986,-6.867767811,-4.067748547,-0.176131696,-0.381307811,-0.003064318,33,2,-70,-6,5,4.90811348,6.645106792,2.782062292,0.478300154,0.496952504,-0.040635526,11,-39,-61,-44,149
1695160851866175400,6.581660271,-6.783970356,-4.149151325,-0.140026033,-0.33973965,0.012523737,35,1,-66,-4,10,5.056553841,6.566098213,3.289633036,0.443393588,0.411151588,-0.049295556,13,-43,-59,-48,151
1695160851867175400,6.484695435,-6.704961777,-4.207809448,-0.100989282,-0.298437983,0.026113322,36,1,-66,-5,8,5.245696068,6.475118637,3.524264812,0.429803967,0.326949447,-0.053825419,17,-27,-63,-42,150
1695160851868175400,6.369773388,-6.627150536,-4.250905037,-0.060486984,-0.257535994,0.036905054,32,5,-61,-5,11,5.42765522,6.457161903,3.56496644,0.436465532,0.241148531,-0.05808882,18,-41,-61,-49,149
1695160851898155400,5.207388878,-5.665878296,-4.254496574,0.417013764,0.209439516,-0.093395106,31,1,-64,-5,8,6.84023428,6.567295074,1.601720929,0.667754948,-0.063551299,-0.242480844,15,-33,-64,-37,141
1695160851899155400,5.183446884,-5.694608688,-4.223371983,0.435399711,0.220098019,-0.090597242,31,3,-63,-3,8,6.792350292,6.6163764,1.516726732,0.653099477,-0.053425729,-0.240482375,17,-32,-60,-33,144
1695160851900155400,5.155913353,-5.718550682,-4.183867455,0.453119457,0.229424208,-0.084335379,31,5,-65,-4,7,6.719326973,6.685808182,1.398213744,0.62898463,-0.039303213,-0.234886676,18,-32,-61,-33,144
1695160851901155400,5.123591423,-5.732915878,-4.135983467,0.469373643,0.237418056,-0.074476264,29,2,-66,-7,9,6.640318394,6.764816761,1.307234168,0.600739658,-0.027445635,-0.227425739,20,-33,-57,-31,140
1695160851902155400,5.09126997,-5.735310078,-4.090493679,0.48456201,0.243679941,-0.061286367,30,2,-64,-5,7,6.557718277,6.836642742,1.237802267,0.564900458,-0.016254211,-0.221163854,18,-31,-60,-32,144
1695160851942145800,4.003105164,-5.700594425,-1.941697598,0.502681494,0.065150075,0.411018372,30,6,-59,-6,11,5.674258232,6.523002625,0.764947414,-0.051027562,-0.036372125,-0.265130162,14,-33,-58,-22,144
1695160851943145800,3.936067581,-5.701791286,-1.788468719,0.506678402,0.045431852,0.439529866,29,2,-64,-4,9,5.637147903,6.485892296,0.800860465,-0.063551299,-0.044898927,-0.278986216,13,-30,-59,-22,145
1695160851944145800,3.870227098,-5.707777023,-1.630451322,0.51320678,0.025980091,0.468174547,31,6,-52,-3,9,5.594052315,6.448782444,0.845153213,-0.073143952,-0.053825419,-0.293774903,12,-29,-61,-23,140
1695160851945145800,3.803189516,-5.717353821,-1.471236944,0.522133231,0.006528331,0.496819288,29,6,-61,-8,9,5.560533524,6.423643112,0.875080705,-0.07794027,-0.059954058,-0.304033697,11,-28,-56,-23,140
1695160851946145800,3.739742994,-5.734113216,-1.320402265,0.534656942,-0.013056661,0.525863707,27,5,-65,-6,8,5.509057999,6.384139061,0.925358951,-0.082736596,-0.069546707,-0.320021451,12,-33,-60,-24,142
1695160851973113000,2.111685991,-6.380547523,0.640448928,1.605170012,-0.389701396,1.469673872,29,3,-48,-7,5,4.41610527,5.471948147,2.328361034,-0.424474716,-0.176398173,-0.583019912,17,-31,-57,-11,140
1695160851974113000,1.989581585,-6.361393929,0.671573579,1.687506795,-0.427539051,1.550811648,29,9,-40,-5,9,4.428076267,5.345055103,2.373851061,-0.480431855,-0.171202138,-0.591013789,9,-31,-60,-12,138
1695160851975113000,1.877054095,-6.330269337,0.702698171,1.766912699,-0.466442585,1.636345983,25,10,-41,-8,10,4.394556999,5.275623322,2.421735048,-0.546114862,-0.164540574,-0.601272583,11,-34,-61,-12,138
1695160851976113000,1.765723705,-6.291962147,0.730231524,1.842588067,-0.505079627,1.725611091,28,6,-45,-3,9,4.3897686,5.149928093,2.438494444,-0.62538743,-0.160143942,-0.616594136,9,-27,-49,-12,140
1695160851977113000,1.653196216,-6.248866558,0.74459672,1.912534475,-0.543583453,1.817007661,29,7,-40,-6,11,4.423287868,4.963180065,2.457648039,-0.694534421,-0.151483908,-0.628718197,13,-29,-59,-7,140
1695160852009089300,-1.088164687,-5.331887245,0.140060797,2.603071928,-1.733604908,3.734737873,24,17,-16,-5,12,3.591302633,2.543839216,2.074575663,-2.084002972,0.887186825,-1.14578867,7,-28,-43,7,139
1695160852010089300,-1.137245774,-5.260061264,0.128089786,2.598142385,-1.81274426,3.842388868,26,17,-9,-8,13,3.41892004,2.53067112,2.042253971,-2.151950836,0.969523728,-1.199214339,9,-29,-49,-1,138
1695160852011089300,-1.175553083,-5.191826344,0.110133275,2.584686041,-1.887486935,3.950306177,31,10,-9,-5,14,3.239354849,2.531868219,2.00873518,-2.219366074,1.051727414,-1.257303238,8,-29,-46,6,138
1695160852012089300,-1.201889277,-5.124788761,0.106541976,2.561104298,-1.956900477,4.057424068,28,17,-6,-5,14,3.055001259,2.541445017,1.978807688,-2.285448551,1.133131742,-1.319788694,8,-30,-44,2,140
1695160852013089300,-1.230619669,-5.073313236,0.095768064,2.527396679,-2.01845336,4.163876057,28,18,-7,-4,14,2.867056608,2.56778121,1.964442492,-2.349399567,1.214003086,-1.386937261,9,-31,-43,5,140
1695160852069524100,-3.694253206,-6.719326973,-0.950498104,1.273557425,-2.284649134,4.365588188,24,10,-6,-5,13,-0.677559078,5.027823448,2.029085875,-3.226993799,2.72444582,-3.804684639,-3,-29,-41,8,144
1695160852070524100,-3.933673382,-6.94677639,-1.069011092,1.218799353,-2.271326303,4.365588188,25,17,-6,-3,13,-0.85473001,5.153519154,1.995567083,-3.226460934,2.808914185,-3.979617357,-7,-31,-41,8,140
1695160852071524100,-4.192247391,-7.165845871,-1.207874775,1.169104099,-2.257470131,4.365588188,24,17,-6,-4,14,-1.029506683,5.248090267,1.972822189,-3.207275391,2.893915653,-4.149487019,-9,-31,-43,7,140
1695160852072524100,-4.463989258,-7.390900612,-1.358709455,1.123938799,-2.245346069,4.365588188,25,17,-6,-8,14,-1.236605167,5.386953831,1.982398987,-3.182095051,2.977451563,-4.315759659,-7,-29,-44,12,140
1695160852073524100,-4.738125324,-7.607575893,-1.511938334,1.080372095,-2.236819267,4.365588188,20,17,-6,-4,14,-1.462857246,5.546168327,1.991975784,-3.153583527,3.05885601,-4.365721226,-3,-27,-44,10,140
1695160852103498600,-8.980650902,-8.678980827,-4.021061897,0.61033231,-2.465577364,4.365588188,17,11,-4,-2,14,-6.048950672,7.73446846,2.203862667,-2.050428867,3.727144003,-4.365721226,-13,-24,-45,5,142
1695160852104498600,-9.10634613,-8.767566681,-4.043806553,0.595277131,-2.479433298,4.365588188,10,21,-6,-4,13,-6.299144745,7.807491779,2.236184359,-1.957699776,3.70795846,-4.365721226,-14,-28,-45,6,142
1695160852105498600,-9.240421295,-8.881291389,-4.066551685,0.583552837,-2.493022919,4.365588188,16,19,-5,-5,13,-6.542156219,7.856573105,2.266111851,-1.858709097,3.684376717,-4.365721226,-13,-24,-45,5,142
1695160852106498600,-9.382876396,-9.021351814,-4.090493679,0.577957094,-2.504747152,4.365588188,10,18,-3,-2,13,-6.76960516,7.891288757,2.293645144,-1.751724243,3.657064199,-4.365721226,-13,-23,-44,3,143
1695160852107498600,-9.52173996,-9.175778389,-4.122815132,0.580888212,-2.512341499,4.365588188,16,21,-5,-1,13,-6.983886242,7.924807549,2.317587137,-1.638477802,3.626554251,-4.365721226,-22,-26,-47,1,142
1695160852141916400,-10.11191082,-9.457097054,-4.317942619,0.624721289,-1.865637064,3.898745775,8,17,8,2,12,-10.28549004,8.593987465,3.403357744,0.920094907,3.092297077,-4.365721226,-12,-21,-45,-1,147
1695160852142916400,-10.11909389,-9.288305283,-4.295197964,0.573294044,-1.786630869,3.884756565,9,20,5,2,14,-10.44231033,8.644265175,3.465606928,1.006162286,3.059655428,-4.365721226,-19,-23,-44,1,145
1695160852143916400,-10.12747288,-9.114726067,-4.27125597,0.514539063,-1.705359817,3.869434834,8,18,8,3,13,-10.59793377,8.70172596,3.524264812,1.081704497,3.024349213,-4.365721226,-18,-23,-45,1,148
1695160852144916400,-10.14303589,-8.936357498,-4.247313976,0.448856056,-1.621823907,3.852381229,18,21,9,2,14,-10.76073933,8.763975143,3.568557739,1.145388961,2.985312462,-4.365721226,-22,-21,-43,1,145
1695160852145916400,-10.16817474,-8.754398346,-4.220977783,0.377310872,-1.538021445,3.832796335,17,22,10,1,14,-10.9247427,8.827422142,3.609259129,1.198947906,2.942145586,-4.365721226,-18,-20,-47,2,144
1695160852226944200,-10.57638645,-7.61595583,-3.19745636,-0.55943799,-0.526130199,3.126004696,9,21,7,2,14,-13.42788029,9.502586365,3.363853455,1.22785902,1.641675234,-4.365721226,-21,-23,-43,1,146
1695160852227944200,-10.59434223,-7.639897823,-3.129221678,-0.543050528,-0.504546702,3.080972433,8,19,5,2,14,-13.49731255,9.530119896,3.38061285,1.217333913,1.581055045,-4.365721226,-9,-22,-42,2,145
1695160852228944200,-10.61708736,-7.665036678,-3.065775394,-0.519068897,-0.48562786,3.036739826,4,19,4,-2,14,-13.55477333,9.568427086,3.402160645,1.20667541,1.525497675,-4.365721226,-23,-21,-56,-1,142
1695160852229944200,-10.63863564,-7.686584473,-3.01310277,-0.488292485,-0.469373643,2.993705988,6,19,4,0,13,-13.60505104,9.607931137,3.42011714,1.195750356,1.475003123,-4.347068787,-24,-23,-45,2,146
1695160852230944200,-10.65539455,-7.704541206,-2.965218782,-0.451120973,-0.455251127,2.951871395,3,21,5,1,13,-13.64575291,9.651026726,3.440467834,1.184558988,1.429304719,-4.325352192,-21,-21,-41,2,144
1695160852348531600,-10.53328991,-6.39251852,-2.776076794,0.28777948,-0.280318528,2.330081224,6,17,9,0,14,-12.6294136,10.28668785,3.423708439,0.836026073,1.05439198,-3.79749012,-25,-21,-45,0,142
1695160852349531600,-10.52850151,-6.283582211,-2.785653591,0.289511472,-0.267395109,2.297439575,3,19,3,3,14,-12.50970364,10.26633644,3.416525841,0.811644733,1.044799328,-3.737802505,-22,-19,-41,0,143
1695160852350531600,-10.52371311,-6.181828976,-2.792836189,0.286047459,-0.253938764,2.264398336,1,22,4,3,9,-12.4318924,10.25556278,3.414131641,0.795123994,1.03827107,-3.695568323,-25,-21,-41,1,144
1695160852351531600,-10.52131939,-6.077681065,-2.79163909,0.277920365,-0.240082696,2.230823994,5,19,5,1,14,-12.31337929,10.24239445,3.406949043,0.768877506,1.028278708,-3.628819227,-23,-21,-43,2,145
1695160852352531600,-10.51892471,-5.98550415,-2.798821688,0.26592955,-0.225826949,2.196183681,2,22,3,-2,13,-12.19606304,10.21845245,3.392583847,0.741565049,1.017753482,-3.558073521,-25,-21,-46,2,144
1695160852388508200,-10.31422138,-5.432443619,-2.427720547,-0.005329249,-0.033840735,1.505246639,0,17,5,2,12,-10.21127033,8.451532364,2.93529129,0.321753442,0.609000027,-1.599307895,-26,-21,-41,5,145
1695160852389508200,-10.29865837,-5.409698963,-2.396595955,-0.0021317,-0.024647778,1.463278651,4,17,8,0,14,-10.14662647,8.282740593,2.892195702,0.31895557,0.571828485,-1.478600383,-27,-23,-40,0,145
1695160852390508200,-10.28189945,-5.386953831,-2.365471363,0.003330781,-0.01505513,1.420911193,1,23,5,-1,14,-10.09156036,8.113949776,2.852691412,0.319754958,0.533324659,-1.358026028,-26,-21,-39,1,146
1695160852391508200,-10.26394272,-5.366602898,-2.341529369,0.010924961,-0.005595712,1.377744317,2,19,5,-2,13,-10.0412817,7.940370083,2.808398485,0.324418068,0.493355274,-1.23825109,-26,-19,-45,0,141
1695160852392508200,-10.24598598,-5.340266705,-2.319981337,0.021050537,0.0042634,1.333777905,0,17,4,2,14,-9.999382973,7.763198853,2.759317398,0.333477795,0.451653898,-1.11887598,-23,-21,-40,4,144
1695160852596421700,-10.17775154,-4.635174274,-2.109291792,0.492822349,0.074209802,0.506811619,2,18,4,2,14,-9.674968719,5.046977043,2.323572636,1.039736509,-0.33401072,0.621523738,-27,-20,-41,8,141
1695160852597421700,-10.1789484,-4.601655483,-2.096123695,0.529460967,0.067015313,0.469773352,6,21,4,-4,14,-9.667786598,4.953603268,2.318784237,1.090897441,-0.366652369,0.678546667,-23,-19,-48,5,142
1695160852598421700,-10.17296314,-4.562151432,-2.079364061,0.5662328,0.059287902,0.43473354,4,19,0,-2,14,-9.665391922,4.868608952,2.316390038,1.14112556,-0.399027556,0.731306314,-22,-19,-36,5,144
1695160852599421700,-10.15740108,-4.520252705,-2.059013367,0.603004575,0.051027562,0.401692182,0,18,1,3,13,-9.662998199,4.787206173,2.319981337,1.190421104,-0.430736601,0.779402792,-25,-22,-39,8,142
1695160852600421700,-10.13704967,-4.477157116,-2.037465572,0.639243484,0.042367533,0.370116383,0,17,3,1,14,-9.652224541,4.705803394,2.328361034,1.239050508,-0.461912692,0.823502243,-27,-18,-41,4,144
1695160852668397000,-9.358934402,-3.220201254,-1.455674648,0.926756501,0.012523737,0.006661562,0,25,5,0,13,-8.906430244,3.708618402,2.943670988,1.620491624,-0.816307783,1.114479303,-25,-23,-34,8,140
1695160852669397000,-9.331400871,-3.145981073,-1.425747156,0.912900448,0.018519141,-0.008926493,0,19,7,1,14,-8.83699894,3.633201122,2.984372377,1.596509933,-0.817107201,1.115012288,-28,-18,-34,9,144
1695160852670397000,-9.312247276,-3.074155092,-1.395819545,0.896113276,0.024647778,-0.024248086,3,21,5,-2,14,-8.763975143,3.550601006,3.034650564,1.569064379,-0.815774918,1.115944862,-26,-22,-39,7,140
1695160852671397000,-9.294290543,-3.01070857,-1.369483352,0.876128674,0.030509954,-0.039303213,4,19,4,4,14,-8.68975544,3.465606928,3.08133769,1.538287878,-0.812177658,1.116877437,-26,-20,-34,10,144
1695160852672397000,-9.277531624,-2.944868088,-1.349132657,0.853612542,0.035972435,-0.053958651,4,21,8,2,14,-8.614337921,3.377021551,3.12084198,1.50418067,-0.80671519,1.117410421,-26,-19,-34,10,141
1695160852706357900,-9.024943352,-2.430114746,-1.057040095,0.219032168,-0.010924961,-0.201845318,2,19,8,0,12,-8.154650688,2.262520552,3.045424461,0.843087316,-0.57555896,0.830830038,-25,-19,-34,15,144
1695160852707357900,-9.008183479,-2.437297344,-1.042674899,0.184392035,-0.019052068,-0.202644721,1,20,9,4,14,-8.151060104,2.276885748,3.043030262,0.821503818,-0.555041373,0.793791711,-22,-19,-33,13,142
1695160852708357900,-8.992621422,-2.448071241,-1.031900883,0.151350692,-0.027445635,-0.202911183,1,17,5,2,14,-8.146271706,2.294842243,3.040636063,0.800186813,-0.533457875,0.75515461,-26,-18,-34,13,141
1695160852709357900,-8.974664688,-2.466027737,-1.021126986,0.120307811,-0.035839204,-0.202511474,1,18,6,4,14,-8.141483307,2.311601639,3.044227362,0.786464036,-0.518269539,0.728774905,-18,-18,-33,14,140
1695160852710357900,-8.956708908,-2.480392933,-1.006761789,0.091396637,-0.044499233,-0.201712102,4,17,3,3,14,-8.131906509,2.33913517,3.05021286,0.765813112,-0.494287878,0.688672304,-25,-19,-34,13,142
1695160852743337300,-9.044096947,-2.516305923,-0.865503907,-0.133630931,-0.127768755,-0.184125587,2,17,7,-1,14,-8.149862289,3.026270866,2.952050686,0.287912726,0.116577335,0.182926491,-24,-23,-25,14,140
1695160852744337300,-9.077615738,-2.501940727,-0.864306808,-0.136828482,-0.127901986,-0.1854579,2,21,7,4,13,-8.186972618,3.047818661,2.931699991,0.262065858,0.143090352,0.178130165,-21,-19,-34,13,140
1695160852745337300,-9.109937668,-2.49236393,-0.861912608,-0.140159264,-0.127901986,-0.186923429,4,22,7,4,13,-8.230068207,3.072957993,2.912546396,0.236618683,0.167471662,0.174266458,-27,-18,-29,15,144
1695160852746337300,-9.145850182,-2.477998734,-0.860715508,-0.143623278,-0.127102599,-0.188522205,0,18,5,4,14,-8.258798599,3.087323189,2.8969841,0.219831541,0.182526797,0.172534451,-27,-21,-34,10,142
1695160852747337300,-9.181763649,-2.468421936,-0.865503907,-0.147353753,-0.126036748,-0.190120965,3,18,5,3,14,-8.303091049,3.110068083,2.879027605,0.195050538,0.203843787,0.170802444,-23,-20,-34,14,141
1695160852783314500,-9.640253067,-2.364274263,-1.006761789,-0.309762627,-0.145621747,-0.253805518,2,21,8,-1,11,-9.042900085,3.216609955,2.327163935,-0.143756509,0.19638285,0.148952529,-26,-18,-31,13,144
1695160852784314500,-9.633070946,-2.357091665,-1.015141487,-0.323085755,-0.148153126,-0.26126644,3,18,1,3,14,-9.046490669,3.213018656,2.297236443,-0.14908576,0.183326185,0.14695406,-24,-19,-34,10,144
1695160852785314500,-9.623494148,-2.351106167,-1.017535686,-0.336408883,-0.150684536,-0.269260317,3,17,7,2,14,-9.042900085,3.209427357,2.266111851,-0.156546697,0.162808567,0.14388974,-27,-21,-34,15,140
1695160852786314500,-9.606734276,-2.343923569,-1.021126986,-0.350398153,-0.152816221,-0.277787149,4,20,4,6,14,-9.036913872,3.203441858,2.22900176,-0.163341507,0.142024502,0.140958652,-18,-18,-34,14,138
1695160852787314500,-9.585186958,-2.335543871,-1.023521185,-0.364520669,-0.154548228,-0.286846846,1,19,5,0,13,-9.026140213,3.203441858,2.19308877,-0.169736609,0.121107198,0.138294026,-25,-18,-34,13,141
1695160852818296000,-8.998606682,-2.402581453,-0.748188019,-0.587016821,-0.015987748,-0.455917299,4,17,8,3,13,-8.54251194,3.254917145,1.776497602,-0.208107188,-0.057422664,0.137761101,-27,-18,-33,6,141
1695160852819296000,-8.973467827,-2.422932148,-0.720654726,-0.588349164,-0.002531394,-0.458981633,-1,21,4,6,14,-8.517372131,3.240551949,1.74776721,-0.199713632,-0.049162328,0.138960183,-25,-18,-34,14,144
1695160852820296000,-8.951920509,-2.442085743,-0.689530075,-0.587683022,0.011191424,-0.46124655,0,19,5,2,14,-8.501810074,3.230975151,1.722628117,-0.191453278,-0.042234302,0.139892802,-23,-19,-33,12,141
1695160852821296000,-8.933963776,-2.466027737,-0.654814184,-0.585284829,0.024914242,-0.462578863,0,25,4,3,14,-8.489839554,3.217807055,1.699883223,-0.181727409,-0.035306279,0.140692189,-22,-20,-33,13,141
1695160852822296000,-8.919598579,-2.48996973,-0.623689532,-0.580754995,0.038770292,-0.462845296,2,18,4,-2,14,-8.479064941,3.205836058,1.680729628,-0.170402765,-0.02797856,0.141624808,-28,-17,-33,12,144
1695160852851276000,-8.783128738,-2.669534922,-0.181959331,-0.192652375,0.23422052,-0.381840736,1,17,6,1,14,-8.571242332,3.360262156,1.508347034,0.146154657,0.043300152,0.150284842,-26,-18,-33,5,144
1695160852852276000,-8.783128738,-2.67432332,-0.165199921,-0.160143942,0.238883615,-0.376244992,4,17,6,4,14,-8.591592789,3.385401249,1.515529633,0.155747324,0.044898927,0.150684536,-23,-19,-32,12,142
1695160852853276000,-8.785523415,-2.679111719,-0.144849196,-0.126836136,0.24261409,-0.3709158,3,18,4,0,14,-8.615534782,3.410540342,1.517923832,0.163874418,0.046497703,0.151483908,-21,-18,-28,12,145
1695160852854276000,-8.792705536,-2.681505919,-0.126892686,-0.081271052,0.246344566,-0.363721281,4,18,8,-2,14,-8.627506256,3.429693937,1.52390933,0.168670759,0.047830015,0.151883617,-25,-21,-33,14,145
1695160852855276000,-8.795100212,-2.682703018,-0.113724582,-0.05808882,0.247410417,-0.360124022,0,9,3,0,14,-8.650250435,3.45603013,1.535880446,0.17453292,0.049562022,0.152416542,-23,-18,-34,12,142
1695160852885255700,-8.841787338,-2.588132143,0.187944829,0.539320052,0.181993872,-0.254604906,-1,21,-1,-1,14,-8.917203903,3.667917013,1.527500629,0.131366,0.027712099,0.161476254,-23,-20,-29,13,144
1695160852886255700,-8.851364136,-2.56778121,0.195127442,0.559171498,0.176664621,-0.247543648,4,18,8,-2,14,-8.913613319,3.659537315,1.521515131,0.129500762,0.024114855,0.163874418,-26,-19,-34,14,142
1695160852887255700,-8.859743118,-2.548627615,0.199915841,0.576225102,0.172001526,-0.240349159,2,11,4,1,14,-8.906430244,3.652354717,1.514332533,0.128168449,0.020784073,0.166672289,-23,-18,-33,15,144
1695160852888255700,-8.870517731,-2.52827692,0.20350714,0.590747297,0.166938737,-0.232888207,0,21,7,1,14,-8.899248123,3.643975019,1.510741234,0.127502292,0.017453292,0.169736609,-23,-19,-32,10,144
1695160852889255700,-8.881291389,-2.506729126,0.202310041,0.602205217,0.162009194,-0.225294024,0,19,3,3,15,-8.888473511,3.630806923,1.507149935,0.127635539,0.014388974,0.173200607,-23,-20,-33,12,136
1695160852948915400,-9.017760277,-2.190694571,0.118512981,0.324551284,0.087799385,-0.108716697,1,22,7,2,14,-8.777143478,3.511096716,1.565807939,0.170935676,0.019052068,0.211038291,-23,-19,-33,8,140
1695160852949915400,-9.022548676,-2.195482969,0.116118781,0.291909665,0.084601834,-0.104586519,3,21,1,0,13,-8.775946617,3.503914118,1.571793437,0.169470131,0.022382848,0.209173039,-29,-17,-31,13,144
1695160852950915400,-9.024943352,-2.202665567,0.112527482,0.259267986,0.081537522,-0.100989282,-1,19,4,0,13,-8.769960403,3.503914118,1.578976035,0.167604893,0.02571363,0.206641659,-25,-12,-32,13,138
1695160852951915400,-9.02374649,-2.214636564,0.108936176,0.227292493,0.079139359,-0.097924963,2,21,3,2,14,-8.767566681,3.500322819,1.583764434,0.165073514,0.029310873,0.20357734,-25,-19,-32,8,138
1695160852952915400,-9.026140213,-2.22900176,0.108936176,0.196116373,0.076607957,-0.095127106,-1,19,3,-2,14,-8.768763542,3.49433732,1.583764434,0.162142411,0.032774884,0.199980095,-23,-23,-34,15,144
1695160853123366500,-8.987833023,-2.845508814,0.209492654,0.085401222,-0.015588055,-0.084335379,4,23,5,2,14,-8.716091156,3.550601006,1.631648421,0.023182238,0.060620211,0.077007659,-25,-18,-32,15,145
1695160853124366500,-8.971074104,-2.867056608,0.216675252,0.107650839,-0.021050537,-0.085001536,1,20,5,0,14,-8.710105896,3.549403906,1.629254222,0.014388974,0.060886677,0.071278714,-23,-19,-32,14,144
1695160853125366500,-8.954314232,-2.885013103,0.229843363,0.131099537,-0.025447167,-0.085934147,0,18,1,0,14,-8.705317497,3.550601006,1.623268723,0.006128637,0.061019909,0.066082694,-23,-18,-32,15,146
1695160853126366500,-8.935160637,-2.894589901,0.238223076,0.155614093,-0.029310873,-0.087133229,-1,20,6,0,14,-8.702922821,3.549403906,1.617283225,-0.001732006,0.060886677,0.061286367,-22,-18,-31,16,144
1695160853127366500,-8.918401718,-2.902969599,0.247799873,0.18079479,-0.03237519,-0.088199086,-1,26,4,0,13,-8.696937561,3.547009706,1.612494826,-0.008660031,0.061019909,0.056889739,-22,-19,-30,14,142
1695160853256290500,-8.839392662,-2.522291422,0.232237563,0.345468611,0.023182238,-0.063551299,1,17,3,4,14,-8.65743351,3.509899616,1.519120932,0.005728943,0.066215925,0.035972435,-23,-18,-34,12,140
1695160853257290500,-8.838195801,-2.507926226,0.233434662,0.329747319,0.027712099,-0.059287902,3,20,1,-2,14,-8.662221909,3.513490915,1.510741234,0.012790199,0.064883612,0.037038282,-25,-20,-31,13,143
1695160853258290500,-8.840589523,-2.493561029,0.238223076,0.31216079,0.031975497,-0.054491576,6,19,7,2,14,-8.668207169,3.518279314,1.497573137,0.019984685,0.063284837,0.038370594,-22,-18,-33,13,141
1695160853259290500,-8.840589523,-2.480392933,0.239420176,0.292709023,0.036238898,-0.04969525,2,17,5,-3,11,-8.672995567,3.520673513,1.490390539,0.027312404,0.061552834,0.039836142,-24,-21,-34,15,142
1695160853260290500,-8.839392662,-2.469619036,0.243011475,0.271924943,0.040369064,-0.044765696,-1,21,1,0,12,-8.677783966,3.526659012,1.482010841,0.034640122,0.059287902,0.041301683,-23,-19,-34,12,144
1695160853361228300,-8.896853447,-2.686294317,0.231040463,-0.108583458,0.073676877,0.053425729,2,19,7,-1,13,-8.81066227,3.752911091,1.460463047,0.089131698,0.024647778,0.04103522,-26,-18,-32,14,141
1695160853362228300,-8.906430244,-2.710236311,0.220266551,-0.121773355,0.07087902,0.057555895,-1,18,1,-2,13,-8.813055992,3.766079187,1.458068848,0.086067379,0.02358193,0.038903523,-23,-17,-33,13,144
1695160853363228300,-8.911218643,-2.735375404,0.20590134,-0.134297088,0.068081163,0.061686065,2,22,5,2,13,-8.811859131,3.780444384,1.464054346,0.08207044,0.022382848,0.036638591,-21,-18,-34,13,144
1695160853364228300,-8.919598579,-2.758120298,0.190339029,-0.146287903,0.064750381,0.065549769,1,19,0,6,14,-8.814253807,3.79600668,1.456871748,0.077807046,0.02158346,0.034240428,-23,-18,-31,14,142
1695160853365228300,-8.926780701,-2.785653591,0.177170932,-0.157479316,0.061286367,0.069147013,4,18,6,8,15,-8.815450668,3.815160513,1.461660147,0.073277183,0.020917306,0.031575806,-25,-19,-33,12,144
1695160853409200700,-9.40083313,-3.831919909,-0.48482585,-0.275788665,0.040369064,0.112447165,-1,19,3,2,14,-9.027337074,5.170278549,1.319205165,0.069413476,0.033041347,-0.043699846,-25,-18,-34,14,144
1695160853410200700,-9.440337181,-3.924096584,-0.543483794,-0.287513018,0.049162328,0.110981621,2,19,5,0,16,-9.050082207,5.392939091,1.341950059,0.067148544,0.038770292,-0.048496172,-23,-19,-29,14,146
1695160853411200700,-9.478644371,-4.01747036,-0.606930137,-0.300969362,0.059421133,0.106984682,1,22,5,2,14,-9.078812599,5.635950565,1.371877551,0.061019909,0.04623124,-0.05249311,-23,-17,-31,16,145
1695160853412200700,-9.514557838,-4.110844135,-0.671573579,-0.316290945,0.071545176,0.099790201,2,22,7,0,14,-9.103952408,5.899312973,1.41138196,0.050894335,0.055290964,-0.055157732,-27,-19,-32,13,141
1695160853413200700,-9.551667213,-4.214992046,-0.738611221,-0.333877474,0.085401222,0.088865243,1,19,5,0,14,-9.11233139,6.156689644,1.456871748,0.039303213,0.066082694,-0.055690661,-25,-19,-34,14,145
1695160853443181200,-10.25915432,-6.415263653,-1.824381709,-1.003098011,0.714252651,-0.897445619,0,22,7,4,15,-9.673771858,9.714473724,1.988384485,-0.858808577,0.320820838,0.822569668,-26,-19,-32,9,142
1695160853444181200,-10.27471638,-6.487089634,-1.839944005,-1.052393556,0.772474706,-0.983379722,1,18,1,5,14,-9.715670586,9.701305389,1.963245392,-0.881457925,0.316024512,0.936882079,-28,-19,-33,5,142
1695160853445181200,-10.28908157,-6.556521416,-1.861491799,-1.100223541,0.833228171,-1.071045995,0,22,1,2,14,-9.764751434,9.672574997,1.947683096,-0.894914269,0.309362948,1.057056665,-26,-20,-32,10,144
1695160853446181200,-10.29506683,-6.629544735,-1.887827992,-1.14685452,0.896646261,-1.15977788,-1,19,5,-2,15,-9.815030098,9.637859344,1.934514999,-0.898644686,0.301635504,1.182427287,-28,-19,-34,9,144
1695160853447181200,-10.29746151,-6.700173378,-1.912967205,-1.193885088,0.962595701,-1.249309421,1,17,1,-1,14,-9.870096207,9.591172218,1.924938202,-0.892116368,0.293108732,1.311794877,-25,-18,-34,10,142
1695160853477165700,-9.579200745,-7.633912086,-2.646790028,-1.698698401,2.380176067,-2.589082479,-1,25,-1,2,14,-10.37048435,9.180566788,2.207453966,0.488958627,0.233954057,3.5179708,-29,-18,-34,10,143
1695160853478165700,-9.537302017,-7.667430878,-2.704250813,-1.706558943,2.456517696,-2.628252506,-1,21,1,6,14,-10.35851383,9.142259598,2.170343876,0.591546714,0.222496167,3.597776413,-25,-18,-34,13,144
1695160853479165700,-9.48941803,-7.710526466,-2.7533319,-1.711754918,2.529661655,-2.662892818,-1,29,1,6,14,-10.3453455,9.127894402,2.138022184,0.695200622,0.209306285,3.674784184,-23,-19,-34,11,144
1695160853480165700,-9.43914032,-7.753622055,-2.792836189,-1.714153051,2.601872921,-2.692070484,-1,25,-2,9,14,-10.32978344,9.121908188,2.091335297,0.799254179,0.193584993,3.749393702,-23,-19,-33,8,142
1695160853481165700,-9.391256332,-7.783549786,-2.85987401,-1.715885162,2.672618866,-2.715652227,-2,27,-4,2,15,-10.31422138,9.109937668,2.042253971,0.902641654,0.175199077,3.821205139,-25,-23,-32,9,144
1695160853511142500,-7.406463146,-5.665878296,-4.183867455,-2.633049011,3.685709,-2.969591141,-8,26,0,6,14,-7.989450932,6.824671745,0.841561913,3.528496027,-0.274056673,4.365588188,-32,-20,-33,14,142
1695160853512142500,-7.242460251,-5.513846397,-4.304774761,-2.776405811,3.735404253,-2.985712051,-10,25,1,8,14,-7.784746647,6.708553314,0.793677866,3.698632479,-0.270859122,4.365588188,-33,-20,-29,13,141
1695160853513142500,-7.10599041,-5.355829239,-4.425682068,-2.927090406,3.781635523,-3.00263238,-11,22,-2,6,14,-7.586028099,6.592434406,0.74339962,3.867569447,-0.263664633,4.365588188,-32,-29,-34,14,144
1695160853514142500,-6.995857239,-5.202600479,-4.546588898,-3.083503723,3.824802399,-3.021018267,-10,25,-1,7,13,-7.388506413,6.481103897,0.70509243,4.035440922,-0.252473205,4.365588188,-34,-19,-33,15,142
1695160853515142500,-6.885724068,-5.068524837,-4.673481941,-3.244580269,3.86343956,-3.041136265,-12,24,-3,7,14,-7.190984726,6.380547523,0.672770679,4.202246666,-0.236751899,4.365588188,-31,-21,-34,15,142
1695160853550131400,-4.201824188,-3.621230125,-5.896918774,-4.365721226,3.991607904,-3.558872938,-15,26,-4,7,14,-4.643554211,5.559336185,0.958877802,4.365588188,0.405555874,4.365588188,-30,-19,-33,24,138
1695160853551131400,-4.028244495,-3.585317135,-5.926846504,-4.365721226,3.995205164,-3.596177816,-16,22,-3,4,13,-4.578910828,5.487510204,0.962469101,4.365588188,0.422609508,4.365588188,-38,-18,-34,15,144
1695160853552131400,-3.872621298,-3.53264451,-5.967547894,-4.365721226,4.000667572,-3.634281635,-16,23,-1,4,15,-4.522646904,5.416881561,0.972045898,4.365588188,0.433934122,4.365588188,-37,-21,-28,16,140
1695160853553131400,-3.724180698,-3.500322819,-6.02022028,-4.365721226,4.006662846,-3.673984528,-16,24,-2,8,14,-4.471171856,5.35104084,0.982819796,4.365588188,0.439929545,4.365588188,-37,-20,-34,15,144
1695160853554131400,-3.591302633,-3.478775024,-6.081272125,-4.365721226,4.011992455,-3.713154554,-16,26,0,8,14,-4.442441463,5.311536312,0.994790792,4.365588188,0.441128641,4.365588188,-35,-19,-34,16,141
1695160853581101800,-2.263717651,-4.013879299,-6.125565052,-4.365721226,3.041935444,-4.299372196,-24,27,-1,7,13,-4.090493679,3.507505417,0.472854823,4.365588188,-0.68773967,4.055159092,-40,-21,-34,16,147
1695160853582101800,-2.248155355,-4.018667698,-6.042964935,-4.365721226,2.931353569,-4.320289135,-24,23,-2,4,14,-4.072536945,3.441664934,0.385466486,4.365588188,-0.788196027,3.994139433,-39,-17,-33,17,144
1695160853583101800,-2.238578558,-4.018667698,-5.992686749,-4.365721226,2.856211185,-4.333745956,-26,22,0,7,14,-4.04739809,3.373430252,0.29688102,4.365588188,-0.891050577,3.932986021,-39,-21,-34,16,144
1695160853584101800,-2.212242365,-4.013879299,-5.919663906,-4.365721226,2.740699768,-4.352531433,-29,25,-2,8,14,-4.030638695,3.330334663,0.240617275,4.365588188,-0.960330784,3.892616987,-41,-21,-34,16,142
1695160853585101800,-2.19189167,-3.999513865,-5.844246387,-4.365721226,2.622657061,-4.365721226,-28,22,-1,4,13,-4.000710964,3.280056238,0.161608621,4.365588188,-1.065050483,3.832796335,-38,-19,-33,18,145
1695160853623526600,-2.570175409,-2.839523315,-4.791994572,-3.514906645,0.238483921,-4.365721226,-29,26,0,11,14,-3.393780947,2.462436438,-2.618059635,4.15841341,-3.180096388,3.011825323,-39,-19,-34,18,145
1695160853624526600,-2.604891539,-2.707842112,-4.833893299,-3.373681545,0.12723583,-4.365721226,-33,21,-1,8,14,-3.379415751,2.426523447,-2.82036972,4.099125385,-3.280552864,2.990508318,-39,-21,-34,20,146
1695160853625526600,-2.634819031,-2.561795712,-4.886565685,-3.234588146,0.019318528,-4.341473103,-32,29,0,11,13,-3.369838953,2.384624958,-3.04901576,4.037039757,-3.378078222,2.970124006,-41,-21,-35,18,140
1695160853626526600,-2.657563925,-2.45285964,-4.922478676,-3.143591166,-0.051027562,-4.317625046,-30,25,0,10,14,-3.372233152,2.33793807,-3.294421434,3.971490145,-3.473338366,2.950539112,-35,-20,-33,17,146
1695160853627526600,-2.692279816,-2.285265446,-4.981136799,-3.010226727,-0.153215915,-4.279653549,-30,27,-6,8,15,-3.379415751,2.304419041,-3.470395327,3.92619133,-3.535557508,2.937748909,-35,-20,-34,18,140
1695160853817408500,-4.003105164,2.570175409,-9.461885452,-1.05798924,-1.686707497,-3.560338497,-30,22,0,7,14,-4.140771866,0.14724341,-11.2838726,2.603071928,-4.365721226,2.420278549,-25,-18,-33,20,151
1695160853818408500,-4.089296341,2.875436306,-9.827000618,-0.965393543,-1.757986188,-3.523566723,-27,33,-1,13,14,-4.203021049,0.045489833,-11.62983513,2.526064157,-4.365721226,2.373914242,-27,-19,-34,20,151
1695160853819408500,-4.158728123,3.179499865,-10.16697788,-0.87266463,-1.824202061,-3.484130383,-26,29,-3,13,16,-4.268861771,-0.062249243,-11.97699356,2.446924925,-4.365721226,2.325284719,-28,-19,-33,16,151
1695160853820408500,-4.20062685,3.471592426,-10.4782238,-0.776338398,-1.880958676,-3.441096544,-30,32,-3,13,15,-4.339490414,-0.169988319,-12.33492756,2.363389015,-4.331214428,2.27612257,-27,-21,-34,20,151
1695160853821408500,-4.228160381,3.743334293,-10.76672459,-0.680411935,-1.927722692,-3.392600298,-28,30,-1,10,14,-4.411316395,-0.268150598,-12.68448067,2.273191452,-4.258336544,2.225761175,-27,-22,-34,19,151
1695160853960347500,-3.366247654,6.016628742,-12.91312695,0.721313894,-0.839756489,-1.044799328,-24,22,1,13,17,-4.412513733,-0.685938776,-16.02439117,-0.402758032,-1.650468588,0.610199094,-17,-19,-28,29,155
1695160853961347500,-3.317166567,6.028599739,-12.96579933,0.786597252,-0.725843847,-0.866402745,-18,23,-1,13,19,-4.349067211,-0.635660529,-16.06269836,-0.539453328,-1.470073462,0.506678402,-17,-18,-28,30,156
1695160853962347500,-3.269282341,6.030993938,-13.016078,0.856277168,-0.61392951,-0.689471722,-24,25,1,13,19,-4.279635429,-0.582988143,-16.09621811,-0.670286357,-1.291010737,0.404756516,-13,-17,-29,29,157
1695160853963347500,-3.211821556,6.021417141,-13.04839897,0.930087328,-0.504413486,-0.514139354,-22,22,0,13,20,-4.207809448,-0.529118598,-16.13093376,-0.795523763,-1.113813162,0.304966301,-18,-19,-27,29,157
1695160853964347500,-3.155557871,6.010643482,-13.06875038,1.011358261,-0.397029072,-0.342937201,-24,25,-3,13,19,-4.143166065,-0.474051923,-16.15248108,-0.915431857,-0.939946413,0.208107188,-15,-21,-30,28,158
1695160854027284000,-1.989581585,6.223727226,-14.48851204,3.319056511,0.845485449,1.496053576,-19,23,3,13,23,-3.633201122,1.490390539,-15.6784296,-2.492889643,1.267428875,-0.509742737,-12,-20,-24,31,158
1695160854028284000,-1.934514999,6.31590414,-14.55076122,3.390468597,0.887986183,1.5203017,-18,26,0,13,21,-3.645172119,1.63643682,-15.60181522,-2.560304642,1.33177948,-0.478833079,-12,-18,-24,28,160
1695160854029284000,-1.877054095,6.398504257,-14.58428001,3.448823929,0.932485461,1.538287878,-16,19,-4,13,24,-3.655946016,1.736993313,-15.5455513,-2.606535912,1.372415066,-0.455117911,-12,-20,-27,24,154
1695160854030284000,-1.81959331,6.466738701,-14.59984207,3.494122505,0.979516089,1.55041194,-16,23,-3,13,20,-3.675099611,1.892616391,-15.45337486,-2.677814484,1.430237293,-0.415148526,-8,-23,-24,28,157
1695160854031284000,-1.765723705,6.512228489,-14.59864521,3.525831699,1.029610991,1.556673884,-16,25,-5,13,21,-3.688267708,2.051830769,-15.35162163,-2.751758099,1.484862089,-0.370382845,-12,-25,-25,26,157
1695160854095247200,-1.711854219,3.288435936,-14.15212631,3.785366058,2.032709122,1.067715168,-11,21,-6,11,29,-4.329913616,6.464344501,-12.68328381,-4.365721226,2.953603268,0.687606394,6,-17,-28,19,160
1695160854096247200,-1.719036818,3.031059265,-14.09466553,3.859975576,2.087733507,1.023082733,-13,20,-9,13,29,-4.387374401,6.730101109,-12.59589481,-4.365721226,3.032343149,0.740365982,5,-18,-29,20,156
1695160854097247200,-1.729810715,2.782062292,-14.02523327,3.93724966,2.143024445,0.977917254,-5,24,-6,12,28,-4.444835663,6.956353188,-12.52167511,-4.365721226,3.106019974,0.794324696,5,-18,-30,17,156
1695160854098247200,-1.74776721,2.543839216,-13.96059036,4.016522408,2.19871521,0.932218969,-6,20,-6,10,28,-4.508281708,7.153874874,-12.45822811,-4.365721226,3.174500704,0.849615633,5,-18,-30,15,160
1695160854099247200,-1.760935307,2.391807556,-13.92228317,4.069681168,2.235886812,0.901575804,-11,22,-6,8,29,-4.570530891,7.329848289,-12.38281155,-4.365721226,3.236186743,0.908770263,5,-24,-33,16,152
1695160854129228300,-1.831564307,-1.26294136,-11.86087513,4.365588188,3.347168446,0.04276723,-3,25,-19,6,26,-4.134786129,6.79953289,-7.999027729,-4.365721226,3.727943182,2.9424119,6,-24,-34,5,153
1695160854130228300,-1.8590976,-1.397016644,-11.70884323,4.365588188,3.375946283,-0.008926493,-2,25,-20,6,21,-4.042609692,6.679822922,-7.69257021,-4.365721226,3.717551231,3.063119411,5,-22,-35,3,151
1695160854131228300,-1.879448295,-1.513135433,-11.52688408,4.365588188,3.402326107,-0.06115314,-6,27,-20,7,25,-3.955221176,6.564900875,-7.337030888,-4.365721226,3.704627752,3.179030657,9,-19,-34,1,154
1695160854132228300,-1.904587507,-1.622071624,-11.33055973,4.365588188,3.427373409,-0.114578865,-6,22,-21,2,27,-3.861847401,6.439205647,-6.964732647,-4.365721226,3.69143796,3.288546562,8,-20,-34,4,154
1695160854133228300,-1.935712099,-1.721431017,-11.11149025,4.365588188,3.450689316,-0.169470131,-2,19,-22,3,24,-3.772064686,6.307524204,-6.600813866,-4.365721226,3.678381205,3.390735149,9,-22,-38,4,153
1695160854163228100,-1.648407817,-3.448847532,-6.751648903,2.794525146,3.390735149,-1.011091828,-6,19,-38,-2,20,-1.499967337,5.082890034,-0.293289721,-1.728275657,3.126537561,3.594712257,7,-24,-45,-3,151
1695160854164228100,-1.595735431,-3.670311213,-6.489483833,2.657563686,3.352497578,-1.039869905,-2,22,-38,2,21,-1.458068848,5.066130638,-0.128089786,-1.575326204,3.102289438,3.549147129,6,-21,-39,-2,151
1695160854165228100,-1.529894829,-3.90135169,-6.222530365,2.530061245,3.310663223,-1.066249609,-5,21,-37,1,21,-1.424550056,5.070919037,0.120907187,-1.354428768,3.059655428,3.479200602,5,-21,-41,-4,151
1695160854166228100,-1.467645645,-4.128800869,-5.960365295,2.413217545,3.266163826,-1.090764165,-6,20,-36,-2,19,-1.399410844,5.100846767,0.378283858,-1.143124104,3.010093451,3.405790091,5,-25,-45,-4,152
1695160854167228100,-1.385045648,-4.365826607,-5.704185486,2.306365967,3.219266415,-1.113280177,-3,22,-38,-1,17,-1.358709455,5.141548157,0.634463429,-0.943810105,2.95386982,3.328649282,5,-25,-40,-4,152
1695160854197207900,0.469263524,-5.835866451,-2.088941097,0.371715158,2.43986392,-1.0586555,-8,23,-41,-2,15,0.948103845,5.793968201,4.671087742,0.756886661,1.613296986,1.844186902,5,-24,-49,-12,150
1695160854198207900,0.502782345,-6.001066685,-1.968033791,0.247277185,2.409353733,-1.035473228,-8,23,-45,-3,17,1.063025594,5.791574001,4.769249916,0.773806989,1.556407332,1.790361404,5,-23,-48,-12,151
1695160854199207900,0.537498295,-6.197391033,-1.848323703,0.133764163,2.375513077,-1.012957096,-7,19,-45,-4,15,1.169567585,5.790376663,4.855441093,0.787130117,1.501515985,1.74000001,-2,-21,-45,-12,151
1695160854200207900,0.579396784,-6.412869453,-1.732204914,0.033441041,2.338208199,-0.991240382,-8,17,-53,-6,17,1.26653266,5.790376663,4.923676014,0.796856046,1.448223472,1.69336915,7,-19,-47,-14,151
1695160854201207900,0.616506934,-6.647500992,-1.618480325,-0.050494641,2.297705889,-0.971788645,-8,21,-48,0,16,1.344344258,5.798756599,4.979939461,0.802185297,1.395996928,1.650202155,5,-19,-48,-12,151
1695160854230167500,2.141613483,-7.269993305,-0.875080705,-0.280052066,1.312194467,-0.918629408,-8,18,-61,-2,14,2.351106167,6.223727226,4.01507616,0.299903542,0.494021446,1.091830015,5,-23,-49,-16,151
1695160854231167500,2.19428587,-7.204153061,-0.942118347,-0.300169975,1.257569671,-0.908770263,-8,17,-53,-4,14,2.438494444,6.183025837,3.876212597,0.287646264,0.468707502,1.055857539,7,-21,-55,-15,151
1695160854232167500,2.238578558,-7.143100739,-1.015141487,-0.322019905,1.201612592,-0.895846844,-8,18,-61,-4,15,2.52827692,6.143521786,3.740940094,0.280851454,0.447656959,1.019085765,15,-21,-56,-12,151
1695160854233167500,2.264914751,-7.10599041,-1.065419793,-0.337341517,1.163641572,-0.88558805,-10,10,-61,-4,14,2.614468336,6.111199856,3.611653328,0.279119462,0.430336893,0.981914222,-1,-22,-48,-16,151
1695160854234167500,2.30561614,-7.049726963,-1.138442874,-0.361189902,1.106218934,-0.867202163,-10,21,-60,-5,14,2.703053713,6.078877926,3.475183725,0.281784087,0.416347623,0.944076538,5,-21,-56,-16,150
1695160854260171900,3.744531393,-6.622362137,-2.802412987,-0.649635553,0.222629398,-0.248609498,-12,9,-59,-4,16,4.080916882,6.610390663,1.690306425,0.447923422,0.366385907,0.245278716,10,-19,-55,-19,150
1695160854261171900,3.852270603,-6.587646008,-2.910152197,-0.653499246,0.203444093,-0.22542727,-8,17,-64,-5,14,4.156333923,6.671442986,1.634042621,0.444192976,0.359990805,0.21197091,11,-20,-49,-18,150
1695160854262171900,3.957615376,-6.551733017,-3.002328873,-0.656963229,0.187323123,-0.20411025,-12,19,-59,-5,14,4.241328239,6.72890377,1.583764434,0.440728962,0.35372895,0.179862171,9,-21,-49,-17,150
1695160854263171900,4.061763287,-6.518214226,-3.087323189,-0.660027564,0.174399704,-0.185058191,-8,17,-53,-2,14,4.329913616,6.779181957,1.528697729,0.437398165,0.348399699,0.14908576,9,-20,-56,-18,148
1695160854264171900,4.16471386,-6.487089634,-3.166331768,-0.662159264,0.164540574,-0.168004602,-11,10,-53,-2,14,4.429273129,6.821080685,1.473631144,0.43473354,0.344003052,0.119908117,13,-27,-57,-18,150
1695160854307592000,4.849455357,-6.013037682,-3.963600874,-0.221696794,0.014921899,-0.081670754,-7,5,-53,-5,11,6.272808552,7.376535416,2.30801034,0.402891248,-0.075275652,0.122572735,20,-28,-56,-23,145
1695160854308592000,4.874594688,-6.040570736,-3.847482204,-0.221696794,-0.023182238,-0.104986221,-13,7,-59,-5,13,6.387730122,7.32745409,2.252943754,0.418346077,-0.100722812,0.121107198,20,-25,-49,-22,145
1695160854309592000,4.942829609,-6.110002518,-3.708618402,-0.224094957,-0.06981317,-0.130033687,-5,7,-61,-5,13,6.497863293,7.295132637,2.169146776,0.435532928,-0.121373661,0.114712104,21,-27,-56,-23,144
1695160854310592000,5.051765442,-6.198588371,-3.581725836,-0.233421117,-0.120174579,-0.153482378,-2,6,-59,-6,11,6.585251808,7.269993305,2.066195965,0.452719748,-0.138027564,0.104053594,21,-25,-49,-20,146
1695160854311592000,5.207388878,-6.254851818,-3.505111217,-0.250607967,-0.169736609,-0.172267988,-5,7,-53,-4,14,6.647500992,7.248445511,1.960851192,0.468041331,-0.150418073,0.090464011,21,-27,-55,-23,140
1695160854388599500,6.336254597,-5.724536419,-4.187458992,-0.026646247,-0.194917306,-0.018519141,-1,2,-59,-5,13,6.137536049,6.945579052,0.329202741,0.227958649,-0.062085759,-0.136029094,21,-23,-60,-20,140
1695160854389599500,6.276399612,-5.609614372,-4.242525578,-0.001465544,-0.182793275,-0.006128637,-1,4,-60,-4,13,6.088454723,6.939593792,0.29688102,0.193584993,-0.059687596,-0.140425727,21,-23,-49,-20,138
1695160854390599500,6.210559368,-5.493495941,-4.290409565,0.021050537,-0.171468601,0.005196018,-4,6,-53,-6,11,6.081272125,6.882133007,0.277727395,0.165473193,-0.056356817,-0.142690659,20,-25,-59,-20,140
1695160854391599500,6.144718647,-5.386953831,-4.337096214,0.040901989,-0.160943344,0.014655436,-2,5,-53,-7,9,6.075286865,6.84621954,0.283712894,0.143756509,-0.049961712,-0.142424196,20,-25,-57,-22,140
1695160854392599500,6.068104267,-5.27682066,-4.388571739,0.06008729,-0.150284842,0.021716693,-2,5,-52,-6,10,6.06211853,6.83784008,0.294486821,0.128301695,-0.044765696,-0.142424196,22,-28,-57,-19,144
1695160854545476800,5.210979939,-4.991910458,-4.234145641,0.172534451,-0.093794793,0.135762632,-3,9,-51,-2,11,4.632780075,6.543353081,0.979228497,-0.134297088,0.03757121,-0.4103522,20,-21,-59,-20,142
1695160854546476800,5.166687489,-5.007472992,-4.192247391,0.180261865,-0.098191425,0.145754978,-1,9,-49,-4,12,4.53102684,6.50384903,1.060631394,-0.134297088,0.026513018,-0.439529866,18,-21,-55,-20,141
1695160854547476800,5.136759758,-5.018246651,-4.16471386,0.18599081,-0.10178867,0.152283311,-3,6,-53,3,10,4.437653065,6.460753441,1.165976286,-0.133231238,0.013589587,-0.468307823,20,-25,-56,-17,138
1695160854548476800,5.090072632,-5.033809185,-4.112041473,0.195450217,-0.107517615,0.161742732,-1,9,-53,-2,12,4.346673012,6.416460514,1.273715258,-0.131099537,-0.000266462,-0.496419609,17,-24,-57,-20,140
1695160854549476800,5.039794445,-5.05296278,-4.048594952,0.205842257,-0.113912709,0.170935676,0,11,-53,-2,13,4.240131378,6.375759125,1.381454349,-0.12723583,-0.014122511,-0.524131715,20,-25,-56,-16,142
1695160854599445400,3.797203779,-5.24210453,-2.212242365,0.58848238,-0.350931078,0.424208283,-1,10,-51,-5,3,2.682703018,5.495890141,3.203441858,-0.311228186,-0.183192953,-1.097558975,15,-27,-55,-11,141
1695160854600445400,3.670311213,-5.255272865,-2.120065689,0.597408891,-0.375179172,0.452053577,-1,9,-49,-2,12,2.643198729,5.424064159,3.264493942,-0.346534461,-0.172267988,-1.136595726,18,-24,-56,-15,140
1695160854601445400,3.585317135,-5.264849663,-2.057816267,0.602604926,-0.392898917,0.471105665,-1,6,-52,-6,13,2.589329243,5.360617638,3.330334663,-0.38383922,-0.15787901,-1.177497745,20,-25,-56,-16,139
1695160854602445400,3.450044632,-5.285200119,-1.965639591,0.609532893,-0.421143949,0.500949442,4,9,-48,-2,11,2.534262419,5.279214859,3.378218651,-0.425274134,-0.140425727,-1.222529769,15,-24,-56,-17,139
1695160854603445400,3.312378168,-5.317522049,-1.871068597,0.615928054,-0.45192036,0.531192958,2,9,-49,-6,13,2.48996973,5.182249546,3.422511339,-0.463245004,-0.119375192,-1.268494606,19,-21,-49,-11,140
1695160854636423900,1.508347034,-5.831078053,-0.48482585,0.945009172,-1.083303213,1.264897346,4,17,-42,-4,12,0.343567938,3.728969097,2.205059767,-0.782866776,0.659494638,-2.61772728,11,-25,-49,-2,139
1695160854637423900,1.446097851,-5.828683853,-0.429759204,0.97805047,-1.096759558,1.319388986,1,8,-40,-3,6,0.208295554,3.703830004,2.109291792,-0.766745806,0.667754948,-2.658096552,13,-30,-45,-1,141
1695160854638423900,1.389834046,-5.832275391,-0.375889659,1.011624813,-1.107950926,1.375612617,6,17,-39,-4,11,0.005985504,3.689464808,1.963245392,-0.7432971,0.676148593,-2.713920355,13,-23,-47,0,140
1695160854639423900,1.333570361,-5.835866451,-0.329202741,1.048396587,-1.116611004,1.434367537,1,17,-39,-6,10,-0.20590134,3.699041605,1.800439715,-0.719049037,0.677081168,-2.764548063,15,-21,-48,-1,141
1695160854640423900,1.274912357,-5.83466959,-0.286107093,1.088898897,-1.122073531,1.494987726,-1,17,-42,-5,11,-0.420182407,3.740940094,1.654393315,-0.697598815,0.669353783,-2.808647633,13,-24,-48,-2,138
1695160854666429500,0.25977087,-5.874173641,-0.624886632,2.56003809,-0.577957094,2.867536068,0,8,-27,3,14,-1.865083098,8.51019001,0.245405674,-1.690704465,0.078473203,-3.679047585,9,-22,-48,3,137
1695160854667429500,0.077811554,-5.898116112,-0.793677866,2.677415133,-0.537188351,2.955335379,-1,17,-25,3,14,-1.814804912,8.662221909,0.217872351,-1.777837634,0.086067379,-3.781902075,20,-23,-54,2,139
1695160854668429500,-0.118512981,-5.929240704,-0.980425596,2.794658422,-0.500150084,3.04526639,-1,10,-24,-1,13,-1.752555609,8.796297073,0.222660765,-1.856310844,0.102055125,-3.887554407,13,-25,-48,1,142
1695160854669429500,-0.33518824,-5.961562157,-1.181538582,2.907905102,-0.467908114,3.136929512,-1,9,-27,2,13,-1.690306425,8.932766914,0.244208574,-1.932652354,0.125237361,-3.997203588,7,-23,-48,-1,138
1695160854670429500,-0.565031588,-5.997475147,-1.400607944,3.013957262,-0.441395104,3.229525089,-1,18,-23,2,14,-1.618480325,9.02973175,0.269347697,-2.004997015,0.15481469,-4.110583305,7,-25,-48,1,138
1695160854839014300,-3.444059134,-7.645883083,-3.871424198,2.862606525,-0.526396632,4.365588188,-6,9,-17,7,14,-3.313575268,8.090007782,1.049857497,-2.012324572,1.12713635,-4.365721226,-1,-24,-44,-1,138
1695160854840014300,-3.543418407,-7.824251175,-3.985148668,2.79798913,-0.541052043,4.365588188,-5,17,-12,0,14,-3.591302633,8.148665428,1.11450088,-1.957033634,1.137395024,-4.365721226,-3,-20,-45,0,138
1695160854841014300,-3.639186621,-8.006210327,-4.108449936,2.732572556,-0.556906581,4.365588188,-1,9,-14,6,14,-3.869029999,8.220491409,1.182735682,-1.899477839,1.142990828,-4.365721226,-3,-21,-48,-1,141
1695160854842014300,-3.742137194,-8.195352554,-4.224568844,2.665690422,-0.57555896,4.365588188,-6,9,-13,3,14,-4.147954464,8.319850922,1.250970364,-1.839124084,1.144856095,-4.365721226,-3,-21,-47,-1,140
1695160854843014300,-3.860650301,-8.380903244,-4.338293552,2.599208117,-0.598474741,4.365588188,-6,10,-17,4,14,-4.335899353,8.403648376,1.297657371,-1.798621774,1.144456267,-4.365721226,-5,-21,-45,-1,140
1695160854908974700,-6.411672115,-11.79264069,-4.34787035,1.166039824,-1.203078032,4.365588188,-16,17,-13,3,18,-8.060079575,9.713275909,2.687491417,-0.73756814,1.092762589,-4.365721226,-7,-20,-38,4,144
1695160854909974700,-6.479907036,-11.95185471,-4.270058632,1.097558975,-1.208007574,4.365588188,-9,20,-13,0,15,-8.221688271,9.655815125,2.706645012,-0.685341477,1.103154659,-4.365721226,-3,-20,-39,8,148
1695160854910974700,-6.531382084,-12.09550667,-4.181473255,1.032808542,-1.208407283,4.365588188,-15,18,-16,3,12,-8.388085365,9.585186958,2.721010208,-0.63258189,1.115278721,-4.365721226,-6,-19,-41,8,145
1695160854911974700,-6.574477673,-12.22599125,-4.082113743,0.973920345,-1.203211427,4.365588188,-10,17,-15,2,14,-8.549694061,9.514557838,2.734178305,-0.579422712,1.12926805,-4.365721226,-6,-29,-39,9,146
1695160854912974700,-6.607996464,-12.34091282,-3.988739967,0.92355895,-1.191753387,4.365588188,-14,17,-13,2,15,-8.704120636,9.441534042,2.735375404,-0.524931073,1.144722819,-4.365721226,-7,-20,-37,4,144
1695160854977956700,-8.172607422,-10.53807831,-2.851494312,0.847617149,-0.284848392,4.365588188,-14,10,-13,2,17,-11.65736771,8.585607529,2.498349428,0.283249617,1.50378108,-4.365721226,-12,-20,-34,9,145
1695160854978956700,-8.344989777,-10.31062984,-2.856282711,0.836026073,-0.239016846,4.365588188,-14,18,-11,4,17,-11.79264069,8.593987465,2.463633537,0.30390048,1.516038299,-4.365721226,-12,-20,-35,8,147
1695160854979956700,-8.51617527,-10.07719517,-2.85987401,0.817240417,-0.196116373,4.365588188,-14,11,-16,3,15,-11.87883186,8.602366447,2.436100245,0.316424191,1.52349925,-4.365721226,-12,-20,-34,11,145
1695160854980956700,-8.680178642,-9.829395294,-2.853888512,0.791260302,-0.15681316,4.365588188,-12,22,-11,4,16,-12.00572395,8.616731644,2.397793055,0.332145482,1.532958627,-4.365721226,-13,-20,-34,10,148
1695160854981956700,-8.783128738,-9.662998199,-2.840720415,0.770076573,-0.132298619,4.365588188,-11,17,-11,4,15,-12.12423706,8.638279915,2.369062662,0.345202148,1.540952563,-4.365721226,-12,-19,-34,9,145
1695160855009915500,-10.29865837,-6.940790653,-2.331952572,-0.345468611,0.230756521,3.869834661,-14,17,-12,6,14,-12.28345203,9.345766068,2.020706177,-0.089131698,1.534823895,-3.837992191,-17,-20,-34,6,146
1695160855010915500,-10.34774017,-6.867767811,-2.319981337,-0.407287896,0.232754961,3.793759584,-15,19,-8,7,14,-12.22718811,9.352949142,2.020706177,-0.126303226,1.533758044,-3.800154448,-21,-19,-34,8,145
1695160855011915500,-10.39203262,-6.803123951,-2.317587137,-0.465376705,0.234087273,3.718750238,-14,8,-11,7,14,-12.13620853,9.355342865,2.020706177,-0.18385911,1.532292485,-3.740999937,-21,-20,-35,10,151
1695160855012915500,-10.44350815,-6.743268967,-2.330755472,-0.517736614,0.23528637,3.644407272,-12,17,-10,6,14,-12.04163742,9.343372345,2.011129379,-0.243413478,1.530693769,-3.678514481,-18,-18,-34,8,149
1695160855013915500,-10.49618053,-6.678625584,-2.343923569,-0.567431867,0.23422052,3.570997,-12,17,-11,6,14,-11.94586945,9.325415611,2.002749681,-0.304300129,1.52816236,-3.612831593,-21,-19,-34,9,148
1695160855041920700,-11.32217979,-6.476315498,-3.476380825,-1.206275582,-0.095793262,2.483829975,-14,17,-7,12,14,-10.44470501,7.240066051,1.362300754,-1.00602901,1.210405827,-1.902275562,-21,-20,-34,1,148
1695160855042920700,-11.32457447,-6.521805286,-3.53384161,-1.207208276,-0.130166918,2.431470156,-18,17,-7,12,14,-10.39682102,7.089231014,1.328781962,-0.982180715,1.176165342,-1.807281852,-18,-19,-34,10,147
1695160855043920700,-11.31020927,-6.557718277,-3.576937437,-1.202678323,-0.166006133,2.377644539,-16,19,-7,10,15,-10.3453455,6.939593792,1.294066072,-0.950871348,1.140326142,-1.71308732,-17,-18,-39,9,144
1695160855044920700,-11.28267574,-6.597222805,-3.614047527,-1.190820813,-0.201845318,2.323019981,-15,17,-7,10,14,-10.29386997,6.792350292,1.26413846,-0.912900448,1.102754951,-1.61955893,-23,-19,-34,4,145
1695160855045920700,-11.24077702,-6.627150536,-3.632004023,-1.172967911,-0.237018377,2.267329216,-11,19,-7,13,15,-10.24598598,6.65468359,1.230619669,-0.867335379,1.063451767,-1.527362943,-24,-19,-34,9,144
1695160855075900100,-9.549273491,-6.10042572,-3.155557871,-0.171202138,-0.478699833,1.047064304,-16,17,-5,10,14,-9.497797966,5.112817764,0.85473001,0.748226643,0.126702905,-0.088598773,-21,-18,-35,10,147
1695160855076900100,-9.482235909,-6.009446144,-3.107673883,-0.131366,-0.461379766,0.985511482,-12,17,-3,13,15,-9.461885452,5.093664169,0.849941611,0.830963254,0.074875958,-0.02571363,-25,-22,-34,12,146
1695160855077900100,-9.440337181,-5.950788498,-3.078943491,-0.107517615,-0.448589563,0.945542097,-14,21,-6,13,14,-9.423578262,5.081693172,0.843956113,0.910369039,0.023981623,0.036238898,-23,-21,-34,12,146
1695160855078900100,-9.375694275,-5.858611584,-3.034650564,-0.076208271,-0.427539051,0.8866539,-16,22,0,13,15,-9.390059471,5.078101635,0.837970614,0.985644698,-0.025846859,0.096992344,-22,-21,-36,9,146
1695160855079900100,-9.320627213,-5.765237808,-2.984372377,-0.049828485,-0.404223561,0.829630911,-15,17,-3,13,14,-9.360131264,5.068524837,0.828393817,1.056390524,-0.075142421,0.15681316,-23,-20,-35,9,146
1695160855207253600,-8.992621422,-4.304774761,-2.285265446,-0.269926488,0.150018379,0.065150075,-8,19,0,13,15,-8.980650902,5.055356979,0.642843127,1.696833134,-0.748359859,1.011225104,-24,-20,-28,18,144
1695160855208253600,-8.996212959,-4.261679173,-2.257732153,-0.298970878,0.172134757,0.037837673,-11,17,4,14,14,-8.977059364,5.042188644,0.639251828,1.699231267,-0.767012239,1.038137794,-23,-19,-32,17,144
1695160855209253600,-9.002198219,-4.222174644,-2.236184359,-0.327615619,0.192385912,0.011457887,-15,19,0,12,15,-8.971074104,5.032611847,0.642843127,1.700030565,-0.784065843,1.063318491,-21,-19,-28,18,146
1695160855210253600,-9.009381294,-4.183867455,-2.221819162,-0.355460972,0.210771829,-0.014255743,-16,17,3,13,17,-8.961497307,5.015852451,0.636857629,1.698565006,-0.799387395,1.086500764,-25,-21,-29,18,145
1695160855211253600,-9.014169693,-4.16231966,-2.209848166,-0.373580426,0.22183001,-0.030909648,-14,17,3,12,13,-8.954314232,5.000290394,0.627280831,1.695367575,-0.813376725,1.108084202,-21,-23,-30,15,146
1695160855335207600,-9.204508781,-3.770867586,-1.853112102,-0.512407362,0.189188361,-0.460980088,-15,17,4,12,14,-8.457517624,4.029441357,0.723048925,1.3167243,-0.847084224,1.273290992,-24,-19,-25,25,144
1695160855336207600,-9.202114105,-3.728969097,-1.841141105,-0.501482368,0.17453292,-0.484961689,-13,19,3,13,14,-8.43357563,3.97916317,0.736217022,1.291676879,-0.833494663,1.271159291,-19,-19,-20,25,144
1695160855337207600,-9.192537308,-3.689464808,-1.827973008,-0.490024507,0.159477785,-0.508943319,-14,19,3,13,14,-8.420407295,3.949235678,0.748188019,1.274756551,-0.823635519,1.268627763,-21,-23,-19,24,137
1695160855338207600,-9.181763649,-3.643975019,-1.816002011,-0.478300154,0.144156188,-0.533457875,-15,19,5,10,14,-8.402450562,3.913322687,0.767341673,1.248376727,-0.807781041,1.263165355,-22,-17,-24,24,145
1695160855339207600,-9.172186852,-3.600879431,-1.806425214,-0.466709018,0.128967836,-0.557839215,-14,17,5,12,15,-8.39526844,3.883395195,0.788889468,1.221330762,-0.790860653,1.255171537,-19,-17,-19,26,146
1695160855452129800,-8.775946617,-2.794033289,-1.659181833,-0.270459414,-0.080871366,-0.90530628,-14,18,12,13,14,-8.519766808,3.860650301,1.090558887,0.513073504,-0.326816231,0.679612517,-19,-21,-17,26,145
1695160855453129800,-8.755595207,-2.766499996,-1.646013618,-0.264330775,-0.080871366,-0.910369039,-12,21,15,14,14,-8.528146744,3.853467703,1.092953086,0.468174547,-0.30176878,0.642041326,-21,-19,-22,28,145
1695160855454129800,-8.735244751,-2.743755102,-1.630451322,-0.258468598,-0.079805516,-0.913300157,-12,20,14,15,14,-8.538920403,3.849876404,1.091755986,0.422875971,-0.276854515,0.605935633,-21,-16,-20,28,147
1695160855455129800,-8.726864815,-2.731784105,-1.623268723,-0.254871368,-0.07820674,-0.914366007,-13,23,14,13,15,-8.543708801,3.845088005,1.092953086,0.392898917,-0.260333836,0.582620203,-22,-20,-18,28,144
1695160855456129800,-8.710105896,-2.71263051,-1.607706428,-0.249675348,-0.074875958,-0.914099514,-12,25,16,13,14,-8.5484972,3.833117008,1.088164687,0.347866774,-0.235686064,0.548912704,-23,-18,-18,26,144
1695160855528084100,-8.687360764,-2.542642117,-1.407790542,-0.188255742,0.127901986,-0.611797869,-7,19,16,14,17,-8.781931877,3.324349165,0.952892303,-0.197182223,0.106718227,0.232488513,-19,-15,-19,24,148
1695160855529084100,-8.692149162,-2.546233416,-1.404199243,-0.182127118,0.136029094,-0.587016821,-11,21,20,14,16,-8.801085472,3.298012733,0.946906745,-0.202911183,0.113379791,0.228091896,-19,-18,-20,26,145
1695160855530084100,-8.696937561,-2.552218914,-1.395819545,-0.175199077,0.143223584,-0.561969399,-14,19,19,13,14,-8.820239067,3.275267839,0.940921247,-0.206908107,0.118842266,0.224094957,-22,-19,-20,25,146
1695160855531084100,-8.702922821,-2.558204412,-1.386242747,-0.1672052,0.14908576,-0.536921918,-15,23,17,16,14,-8.841787338,3.247734547,0.943315446,-0.208640128,0.123238891,0.220630929,-23,-22,-18,28,145
1695160855532084100,-8.704120636,-2.565387011,-1.382651448,-0.158678412,0.15428178,-0.511741161,-14,18,18,13,17,-8.862137794,3.222595453,0.943315446,-0.208640128,0.126036748,0.217033699,-19,-19,-19,28,148
1695160855599044000,-8.835801125,-2.59890604,-1.371877551,0.068880551,0.124171518,-0.109649308,-15,20,21,13,14,-8.977059364,2.985569477,0.926556051,-0.009459418,0.009592649,0.189588055,-23,-18,-19,25,145
1695160855600044000,-8.840589523,-2.584540844,-1.381454349,0.073277183,0.116577335,-0.095660031,-14,24,19,14,16,-8.968679428,2.985569477,0.92775315,0.003730475,0.001865237,0.189987749,-21,-15,-19,25,146
1695160855601044000,-8.846575737,-2.56778121,-1.391031146,0.075675346,0.108716697,-0.083003066,-17,21,17,13,14,-8.959102631,2.985569477,0.92775315,0.016653905,-0.005462481,0.190254211,-18,-19,-23,27,144
1695160855602044000,-8.850166321,-2.551021814,-1.404199243,0.076075032,0.100989282,-0.07194487,-19,21,21,16,14,-8.951920509,2.987963676,0.933738649,0.028911179,-0.011990812,0.190653905,-19,-17,-20,26,148
1695160855603044000,-8.856152534,-2.533065319,-1.417367458,0.073676877,0.090730481,-0.059287902,-13,17,17,16,15,-8.945934296,2.990357876,0.93134445,0.040768761,-0.018119449,0.190653905,-19,-16,-18,25,148
1695160855665979600,-8.73404789,-2.49116683,-1.514332533,-0.192918837,0.055690661,-0.060886677,-14,20,17,15,14,-8.82263279,3.181894064,1.00556469,0.118309341,-0.023715161,0.118309341,-18,-24,-19,25,145
1695160855666979600,-8.725667953,-2.487575531,-1.516726732,-0.211704448,0.060486984,-0.065816231,-14,23,20,14,14,-8.82263279,3.193865061,1.010353088,0.114179172,-0.019851454,0.111248083,-17,-16,-17,29,145
1695160855667979600,-8.718485832,-2.48996973,-1.520318031,-0.230623275,0.065549769,-0.071278714,-14,22,16,15,14,-8.820239067,3.207033157,1.016338587,0.109249614,-0.015854517,0.104186833,-22,-18,-19,25,146
1695160855668979600,-8.711302757,-2.49116683,-1.52390933,-0.249408886,0.070745789,-0.076741189,-15,20,20,14,17,-8.819042206,3.219004154,1.017535686,0.103520676,-0.011724349,0.097125575,-19,-19,-20,26,147
1695160855669979600,-8.708909035,-2.49236393,-1.527500629,-0.267395109,0.076208271,-0.082470134,-16,22,13,16,15,-8.815450668,3.228580952,1.016338587,0.097258806,-0.007327718,0.09033078,-18,-17,-22,26,144
1695160855734940400,-8.799888611,-2.798821688,-1.557428241,-0.369316995,0.084735066,-0.129500762,-12,24,16,14,14,-8.798690796,3.414131641,0.956483603,-0.048096478,0.052759573,-0.005595712,-17,-17,-19,26,142
1695160855735940400,-8.799888611,-2.82036972,-1.557428241,-0.356393576,0.079139359,-0.126969382,-15,23,19,16,17,-8.801085472,3.42131424,0.956483603,-0.05249311,0.054091886,-0.007993874,-19,-19,-24,25,144
1695160855736940400,-8.801085472,-2.838326216,-1.555034041,-0.341471672,0.073277183,-0.124038287,-13,21,21,13,17,-8.803479195,3.424905539,0.956483603,-0.055290964,0.055024505,-0.009459418,-21,-19,-19,21,145
1695160855737940400,-8.803479195,-2.857479811,-1.551442742,-0.325084209,0.066882081,-0.120840736,-10,25,18,14,14,-8.801085472,3.432088137,0.955286503,-0.059021436,0.056223582,-0.011457887,-19,-19,-24,26,148
1695160855738940400,-8.805873871,-2.873042107,-1.550245643,-0.307098001,0.060353752,-0.117243491,-11,22,21,13,15,-8.802282333,3.440467834,0.955286503,-0.062352221,0.057156201,-0.013456355,-19,-17,-18,26,147
1695160855803903600,-8.747216225,-2.722207308,-1.63523972,-0.025047474,-0.016254211,-0.031842265,-12,21,23,14,17,-8.756793022,3.56496644,0.991199493,-0.098457888,0.060220521,-0.022249617,-24,-20,-22,25,145
1695160855804903600,-8.744821548,-2.711433411,-1.638831019,-0.025447167,-0.014522205,-0.02797856,-12,21,15,15,14,-8.744821548,3.563769341,0.995987892,-0.097791731,0.059820827,-0.021849923,-18,-18,-20,25,147
1695160855805903600,-8.743624687,-2.701856613,-1.641225219,-0.02691271,-0.012390506,-0.024381317,-13,23,13,13,19,-8.737639427,3.560178041,0.993593693,-0.096992344,0.059287902,-0.021450229,-21,-18,-20,25,147
1695160855806903600,-8.741230011,-2.697068214,-1.643619418,-0.028777948,-0.010658499,-0.021983154,-12,23,19,16,16,-8.729259491,3.556586742,0.993593693,-0.095660031,0.058888208,-0.020917306,-17,-18,-19,26,144
1695160855807903600,-8.738836288,-2.693476915,-1.644816518,-0.032241959,-0.007860643,-0.018385911,-14,18,19,12,15,-8.719682693,3.554192305,0.990002394,-0.093794793,0.058222052,-0.020650841,-23,-18,-22,26,145
1695160855877883900,-8.771158218,-2.892195702,-1.646013618,-0.080338441,0.031709034,0.009859112,-14,21,23,18,16,-8.676587105,3.620033026,0.998382092,-0.003464012,0.030776417,-0.029444104,-23,-19,-21,24,145
1695160855878883900,-8.771158218,-2.8981812,-1.648407817,-0.077407345,0.030776417,0.009725881,-14,21,21,18,16,-8.678980827,3.632004023,0.997184992,0.001465544,0.028111791,-0.029977029,-21,-19,-21,25,147
1695160855879883900,-8.769960403,-2.905363798,-1.655590534,-0.072877489,0.028911179,0.009592649,-11,22,17,14,15,-8.681375504,3.647566319,1.001973391,0.0063951,0.025180703,-0.030509954,-20,-18,-23,22,145
1695160855880883900,-8.771158218,-2.907757998,-1.657984734,-0.068081163,0.027045943,0.009192956,-12,25,20,14,15,-8.676587105,3.660734415,1.006761789,0.011058193,0.022116385,-0.030776417,-22,-19,-20,20,145
1695160855881883900,-8.771158218,-2.904166698,-1.662773132,-0.063418068,0.024647778,0.008793262,-11,21,17,13,17,-8.676587105,3.670311213,1.007958889,0.015588055,0.019185297,-0.030909648,-19,-17,-20,24,144
1695160855936827100,-8.682572365,-2.761711597,-1.681926727,-0.143490046,0.039303213,0.003330781,-14,21,20,16,15,-8.628703117,3.823540211,0.982819796,0.060620211,-0.017053599,-0.006661562,-19,-19,-20,22,144
1695160855937827100,-8.681375504,-2.770091295,-1.681926727,-0.152016848,0.041434918,0.004130168,-12,21,17,28,14,-8.629899979,3.82713151,0.981622696,0.06115314,-0.016787136,-0.005462481,-22,-23,-21,24,144
1695160855938827100,-8.680178642,-2.780865192,-1.684320927,-0.159611031,0.043433387,0.004796324,-12,22,20,13,16,-8.633491516,3.831919909,0.982819796,0.061819296,-0.016387442,-0.003597243,-22,-19,-21,22,146
1695160855939827100,-8.677783966,-2.796427488,-1.687912226,-0.166672289,0.045431852,0.005462481,-11,25,15,14,14,-8.633491516,3.839102507,0.980425596,0.062352221,-0.015987748,-0.001998469,-23,-19,-25,22,144
1695160855940827100,-8.677783966,-2.809595585,-1.686715126,-0.172667682,0.047030624,0.005995406,-12,25,20,15,16,-8.634688377,3.841496706,0.985213995,0.062751912,-0.015588055,-0.000532925,-19,-17,-20,21,148
1695160855969808100,-8.722076416,-3.062183857,-1.738190413,-0.016653905,-0.02158346,0.015321592,-13,18,20,19,15,-8.668207169,3.867832899,0.9672575,0.0528928,-0.020917306,0.033441041,-23,-15,-24,24,145
1695160855970808100,-8.719682693,-3.05021286,-1.741781712,-0.003996937,-0.024914242,0.015987748,-15,19,21,13,15,-8.670601845,3.8642416,0.969651699,0.052093416,-0.02158346,0.035839204,-23,-20,-23,21,146
1695160855971808100,-8.713697433,-3.032256365,-1.745373011,0.007594181,-0.027845331,0.016520673,-15,22,13,14,15,-8.672995567,3.8654387,0.972045898,0.051294025,-0.022116385,0.038237367,-20,-18,-23,24,146
1695160855972808100,-8.704120636,-3.01070857,-1.74896431,0.017586524,-0.03011026,0.01718683,-13,21,16,13,16,-8.672995567,3.8642416,0.969651699,0.050361406,-0.022782542,0.040502299,-18,-19,-24,26,146
1695160855973808100,-8.696937561,-2.990357876,-1.753752708,0.025846859,-0.031842265,0.017986218,-14,18,20,16,16,-8.672995567,3.8630445,0.9648633,0.049961712,-0.023315467,0.043033689,-19,-22,-25,29,148
1695160856005807500,-8.66940403,-2.845508814,-1.760935307,-0.063151613,0.018519141,0.023981623,-16,21,17,13,14,-8.693346024,3.775655985,0.950498104,0.069013782,-0.032774884,0.083402753,-19,-18,-19,26,142
1695160856006807500,-8.675390244,-2.855085611,-1.756146908,-0.069946401,0.021050537,0.024114855,-12,18,15,13,15,-8.692149162,3.773261786,0.949300945,0.070612557,-0.032641653,0.084601834,-22,-17,-19,26,145
1695160856007807500,-8.686163902,-2.863465309,-1.751358509,-0.075941809,0.023182238,0.024248086,-14,21,17,13,16,-8.68975544,3.770867586,0.955286503,0.072344564,-0.032508422,0.085800916,-23,-17,-20,25,144
1695160856008807500,-8.693346024,-2.876633406,-1.751358509,-0.080871366,0.025180703,0.024647778,-15,21,20,13,19,-8.686163902,3.770867586,0.960074902,0.073676877,-0.032508422,0.086733535,-21,-17,-15,19,144
1695160856009807500,-8.699332237,-2.888604403,-1.754949808,-0.084735066,0.026646247,0.025047474,-8,19,19,13,17,-8.682572365,3.768473387,0.9660604,0.07500919,-0.032641653,0.08753293,-21,-18,-22,20,145
1695160856036769100,-8.723274231,-2.998737574,-1.734599113,-0.023981623,-0.008127105,0.012523737,-8,26,18,14,14,-8.68975544,3.727771997,0.93134445,0.073810108,-0.047030624,0.100056656,-21,-19,-18,24,144
1695160856037769100,-8.719682693,-2.991554976,-1.729810715,-0.019318528,-0.010924961,0.011457887,-7,21,19,14,16,-8.692149162,3.728969097,0.92895025,0.072611026,-0.047830015,0.099923424,-23,-17,-19,24,146
1695160856038769100,-8.714894295,-2.979583979,-1.728613615,-0.015588055,-0.013456355,0.009992342,-11,21,19,15,14,-8.692149162,3.728969097,0.932541549,0.071278714,-0.048496172,0.099523738,-22,-15,-20,28,146
1695160856039769100,-8.712499619,-2.967612982,-1.726219416,-0.012390506,-0.015454824,0.008793262,-12,21,19,15,14,-8.694543839,3.728969097,0.93134445,0.069946401,-0.048762634,0.098990813,-21,-18,-24,26,144
1695160856040769100,-8.705317497,-2.959233284,-1.726219416,-0.010125575,-0.017453292,0.007594181,-12,21,14,13,15,-8.694543839,3.730166197,0.93014735,0.068614088,-0.049162328,0.098591112,-22,-18,-18,24,144
