timestamp,EMG_s0,EMG_s1,EMG_s2,EMG_s3,EMG_s4,EMG_s5,EMG_s6,EMG_s7
1.6951608499433738e+18,-1.0,-2.0,-1.0,-1.0,-2.0,0.0,0.0,-1.0
1.6951608499433738e+18,0.0,-1.0,1.0,-1.0,0.0,1.0,-1.0,-2.0
1.6951608499443738e+18,0.0,-1.0,1.0,-1.0,-2.0,1.0,0.0,0.0
1.6951608499443738e+18,0.0,-2.0,-3.0,-1.0,0.0,-2.0,-2.0,-2.0
1.6951608499443738e+18,1.0,-2.0,-1.0,-1.0,0.0,-2.0,-1.0,0.0
1.6951608499443738e+18,0.0,-1.0,-1.0,-1.0,-1.0,0.0,0.0,-1.0
1.6951608499453775e+18,-1.0,-2.0,0.0,-2.0,-2.0,-2.0,-1.0,-1.0
1.6951608499453775e+18,-1.0,-2.0,0.0,-1.0,-1.0,2.0,0.0,-1.0
1.6951608499463747e+18,1.0,1.0,0.0,-1.0,-2.0,2.0,-2.0,1.0
1.695160849947374e+18,-2.0,-2.0,-1.0,-1.0,-3.0,-1.0,-2.0,-1.0
1.69516084996836e+18,-2.0,-3.0,0.0,-1.0,-1.0,-3.0,0.0,-1.0
1.69516084996836e+18,0.0,0.0,-1.0,-2.0,-1.0,-2.0,1.0,0.0
1.69516084996836e+18,-2.0,-2.0,-2.0,-1.0,0.0,-1.0,0.0,-3.0
1.69516084996836e+18,0.0,-1.0,-2.0,0.0,0.0,-1.0,0.0,0.0
1.6951608499853496e+18,-1.0,0.0,-1.0,0.0,-1.0,1.0,-1.0,-1.0
1.6951608499853496e+18,1.0,0.0,-1.0,-2.0,0.0,0.0,-1.0,0.0
1.6951608499853496e+18,-1.0,-1.0,-3.0,-1.0,0.0,-2.0,0.0,-2.0
1.6951608499863544e+18,-1.0,-1.0,0.0,-1.0,-1.0,0.0,1.0,-1.0
1.6951608500093358e+18,1.0,-1.0,-1.0,0.0,0.0,1.0,-1.0,0.0
1.6951608500093358e+18,-1.0,0.0,0.0,0.0,-3.0,1.0,-1.0,-1.0
1.695160850014333e+18,-1.0,-2.0,-1.0,1.0,-2.0,3.0,0.0,0.0
1.6951608500153326e+18,-1.0,-1.0,-1.0,-2.0,0.0,1.0,-1.0,1.0
1.6951608500243277e+18,-1.0,0.0,-1.0,-1.0,0.0,-2.0,-1.0,0.0
1.6951608500243277e+18,-1.0,-2.0,-1.0,1.0,-2.0,0.0,-1.0,-1.0
1.6951608500253292e+18,-2.0,0.0,1.0,-1.0,0.0,-2.0,-1.0,0.0
1.6951608500253292e+18,-3.0,-1.0,-1.0,0.0,-2.0,-1.0,-1.0,-1.0
1.6951608500523108e+18,-1.0,0.0,-2.0,0.0,-1.0,0.0,-1.0,0.0
1.6951608500523108e+18,-1.0,-1.0,-1.0,-1.0,-1.0,-1.0,-1.0,1.0
1.6951608500533133e+18,0.0,-1.0,0.0,-2.0,-1.0,-1.0,0.0,-1.0
1.6951608500533133e+18,0.0,-1.0,-1.0,-1.0,1.0,-1.0,-2.0,-1.0
1.6951608500613064e+18,0.0,-1.0,0.0,-1.0,0.0,-2.0,0.0,-1.0
1.6951608500613064e+18,-1.0,0.0,0.0,-2.0,0.0,-1.0,0.0,-1.0
1.695160850066303e+18,0.0,-1.0,-1.0,-1.0,0.0,-1.0,-1.0,-2.0
1.6951608500673052e+18,0.0,-1.0,0.0,-1.0,-1.0,0.0,-2.0,-2.0
1.6951608500822976e+18,0.0,-1.0,-1.0,1.0,0.0,-1.0,0.0,-1.0
1.6951608500822976e+18,0.0,-2.0,-1.0,0.0,0.0,-1.0,-2.0,-2.0
1.6951608500832975e+18,-1.0,-1.0,-1.0,0.0,1.0,-1.0,-2.0,1.0
1.6951608500832975e+18,0.0,0.0,-2.0,-1.0,-2.0,-1.0,-2.0,0.0
1.6951608501152978e+18,-1.0,0.0,-2.0,-1.0,-1.0,-2.0,1.0,1.0
1.6951608501152978e+18,-1.0,0.0,0.0,0.0,1.0,-3.0,0.0,-1.0
1.6951608501152978e+18,0.0,-2.0,1.0,0.0,1.0,-1.0,-1.0,0.0
1.6951608501152978e+18,0.0,0.0,0.0,0.0,0.0,-1.0,-1.0,0.0
1.6951608501212718e+18,-1.0,-1.0,-1.0,0.0,-2.0,-1.0,-1.0,-3.0
1.6951608501212718e+18,-1.0,-1.0,-1.0,-2.0,-1.0,0.0,0.0,0.0
1.6951608501672466e+18,-1.0,-1.0,-1.0,-1.0,-1.0,-1.0,1.0,0.0
1.6951608501672466e+18,-1.0,0.0,-1.0,0.0,0.0,-2.0,0.0,0.0
1.6951608501682455e+18,0.0,0.0,-1.0,0.0,-2.0,-1.0,2.0,-2.0
1.6951608501682455e+18,-1.0,1.0,-1.0,-2.0,-1.0,-2.0,-2.0,-1.0
1.6951608501682455e+18,-1.0,-2.0,-1.0,-1.0,-2.0,-2.0,-2.0,-2.0
1.6951608501682455e+18,0.0,0.0,0.0,-2.0,1.0,-2.0,0.0,0.0
1.695160850172245e+18,-2.0,-3.0,-1.0,-1.0,-3.0,0.0,-1.0,-1.0
1.695160850172245e+18,-1.0,-2.0,-1.0,1.0,-1.0,-1.0,-1.0,-1.0
1.695160850174242e+18,-1.0,-1.0,-3.0,-1.0,-2.0,-1.0,-1.0,-1.0
1.695160850174242e+18,-2.0,-2.0,-2.0,-2.0,-2.0,-2.0,-1.0,-3.0
1.6951608501782623e+18,-1.0,-2.0,-3.0,-2.0,-1.0,-3.0,1.0,0.0
1.6951608501782623e+18,-2.0,-4.0,-2.0,0.0,-1.0,0.0,-2.0,-2.0
1.6951608501952343e+18,-2.0,-1.0,0.0,-1.0,2.0,0.0,-2.0,-1.0
1.6951608501952343e+18,-1.0,-1.0,-1.0,1.0,-2.0,-1.0,-1.0,-1.0
1.6951608502012268e+18,-2.0,-2.0,-3.0,0.0,-1.0,-2.0,-2.0,-1.0
1.6951608502012268e+18,0.0,-1.0,-2.0,-1.0,-1.0,0.0,1.0,-1.0
1.695160850219217e+18,0.0,-1.0,-3.0,0.0,-1.0,-3.0,-1.0,-2.0
1.695160850220219e+18,0.0,-3.0,-1.0,-1.0,-1.0,0.0,0.0,-1.0
1.6951608502322332e+18,-1.0,-1.0,-1.0,-2.0,-2.0,-1.0,-1.0,-1.0
1.6951608502322332e+18,-1.0,0.0,1.0,0.0,-1.0,-2.0,-1.0,-1.0
1.6951608502342072e+18,-1.0,1.0,0.0,0.0,-2.0,-1.0,-2.0,-1.0
1.6951608502342072e+18,-1.0,-1.0,0.0,-1.0,-2.0,-1.0,0.0,0.0
1.6951608502462008e+18,0.0,1.0,0.0,1.0,-1.0,-1.0,-3.0,-1.0
1.6951608502462008e+18,-1.0,-2.0,-1.0,-2.0,-1.0,-1.0,-1.0,-1.0
1.6951608502551956e+18,0.0,-1.0,-2.0,1.0,0.0,0.0,-1.0,-2.0
1.6951608502561994e+18,-1.0,-1.0,0.0,0.0,-3.0,0.0,-1.0,-1.0
1.6951608502771822e+18,-1.0,-1.0,-1.0,-2.0,-1.0,0.0,-1.0,-2.0
1.6951608502771822e+18,-1.0,-2.0,0.0,0.0,-1.0,-1.0,0.0,0.0
1.6951608502791818e+18,-1.0,-2.0,0.0,-2.0,-1.0,-2.0,0.0,0.0
1.6951608502791818e+18,-2.0,-2.0,-1.0,-1.0,0.0,-1.0,0.0,1.0
1.6951608502921736e+18,-3.0,0.0,0.0,-1.0,0.0,0.0,1.0,-1.0
1.6951608502921736e+18,-2.0,0.0,-2.0,0.0,0.0,-1.0,0.0,-1.0
1.6951608502961718e+18,-1.0,-2.0,0.0,1.0,0.0,-1.0,-1.0,-1.0
1.6951608502961718e+18,-2.0,1.0,1.0,0.0,-1.0,-2.0,0.0,0.0
1.6951608503061655e+18,-2.0,0.0,-1.0,-1.0,3.0,0.0,1.0,0.0
1.6951608503061655e+18,0.0,-1.0,0.0,-1.0,2.0,2.0,1.0,0.0
1.6951608503151606e+18,1.0,2.0,0.0,0.0,2.0,1.0,2.0,0.0
1.6951608503151606e+18,1.0,0.0,1.0,0.0,0.0,0.0,-1.0,-1.0
1.6951608503341535e+18,2.0,1.0,3.0,-1.0,-1.0,-1.0,-1.0,-1.0
1.6951608503351506e+18,1.0,0.0,0.0,0.0,-1.0,-2.0,-1.0,-1.0
1.6951608503351506e+18,-1.0,-2.0,0.0,-2.0,-3.0,-1.0,-1.0,0.0
1.6951608503351506e+18,0.0,0.0,-2.0,-2.0,0.0,-2.0,-2.0,1.0
1.6951608503521413e+18,1.0,-1.0,-1.0,-2.0,2.0,0.0,-1.0,0.0
1.6951608503531397e+18,-2.0,-2.0,0.0,-1.0,0.0,0.0,1.0,0.0
1.69516085035414e+18,0.0,-3.0,2.0,-1.0,0.0,1.0,0.0,1.0
1.69516085035414e+18,-1.0,0.0,0.0,0.0,0.0,-1.0,0.0,-1.0
1.6951608503661343e+18,1.0,-1.0,1.0,-1.0,-2.0,0.0,0.0,-2.0
1.6951608503661343e+18,0.0,-1.0,1.0,-3.0,-1.0,-2.0,-1.0,1.0
1.6951608503841226e+18,-1.0,0.0,-1.0,-1.0,0.0,0.0,0.0,0.0
1.6951608503851215e+18,-1.0,-3.0,-1.0,-3.0,-2.0,2.0,0.0,-1.0
1.695160850390118e+18,-1.0,0.0,-1.0,0.0,-1.0,-1.0,-2.0,0.0
1.695160850390118e+18,0.0,1.0,-2.0,-1.0,-2.0,0.0,-1.0,-2.0
1.6951608503911188e+18,-2.0,0.0,-1.0,-1.0,-1.0,-1.0,0.0,1.0
1.6951608503911188e+18,1.0,0.0,1.0,-2.0,0.0,-1.0,0.0,-2.0
1.6951608504121078e+18,-1.0,-1.0,0.0,-1.0,-2.0,-2.0,-2.0,-1.0
1.6951608504121078e+18,0.0,-1.0,0.0,-1.0,1.0,0.0,0.0,-1.0
1.6951608504141046e+18,0.0,-1.0,0.0,1.0,2.0,1.0,0.0,0.0
1.6951608504141046e+18,-1.0,-1.0,-2.0,1.0,-1.0,1.0,0.0,-1.0
1.6951608504260997e+18,0.0,-1.0,0.0,-1.0,0.0,-1.0,1.0,1.0
1.6951608504260997e+18,-1.0,0.0,-2.0,-6.0,-9.0,-9.0,-6.0,-3.0
1.695160850435092e+18,0.0,0.0,-1.0,2.0,2.0,1.0,4.0,0.0
1.695160850435092e+18,0.0,1.0,-1.0,2.0,5.0,-1.0,-1.0,0.0
1.6951608504600814e+18,-2.0,-1.0,1.0,1.0,2.0,5.0,3.0,1.0
1.6951608504600814e+18,-1.0,0.0,-1.0,-1.0,-2.0,1.0,1.0,0.0
1.6951608504600814e+18,0.0,-2.0,-2.0,-4.0,-7.0,-4.0,-2.0,-3.0
1.6951608504600814e+18,-1.0,-1.0,-2.0,-4.0,-5.0,-3.0,-4.0,-3.0
1.6951608504800666e+18,2.0,-1.0,-2.0,0.0,0.0,-2.0,-2.0,-2.0
1.6951608504800666e+18,0.0,-1.0,0.0,1.0,2.0,0.0,-1.0,0.0
1.695160850481088e+18,0.0,-1.0,-2.0,-2.0,0.0,-2.0,-3.0,-1.0
1.6951608504820672e+18,-1.0,1.0,-1.0,-3.0,-4.0,0.0,0.0,0.0
1.695160850486065e+18,-1.0,0.0,-3.0,-5.0,-12.0,-4.0,-2.0,-1.0
1.695160850486065e+18,-1.0,-2.0,1.0,8.0,16.0,6.0,0.0,0.0
1.6951608504980588e+18,-2.0,0.0,-1.0,-3.0,-2.0,-2.0,-3.0,0.0
1.6951608504980588e+18,-1.0,-3.0,-1.0,2.0,-4.0,0.0,-1.0,-2.0
1.6951608505170473e+18,-2.0,-3.0,-1.0,1.0,3.0,1.0,-1.0,-1.0
1.6951608505170473e+18,0.0,1.0,-1.0,-4.0,-11.0,-1.0,1.0,-2.0
1.6951608505190587e+18,-1.0,1.0,-1.0,1.0,6.0,0.0,1.0,1.0
1.6951608505190587e+18,-1.0,-3.0,-1.0,-1.0,7.0,2.0,0.0,-1.0
1.695160850540032e+18,-2.0,-2.0,-3.0,-1.0,-6.0,-2.0,-2.0,-3.0
1.695160850540032e+18,-1.0,-1.0,-1.0,0.0,-3.0,-3.0,-5.0,-2.0
1.6951608505410317e+18,-2.0,-2.0,-2.0,-3.0,-4.0,-2.0,-3.0,-4.0
1.6951608505420362e+18,0.0,0.0,-3.0,-2.0,-5.0,-3.0,-1.0,-1.0
1.6951608505549112e+18,-2.0,-1.0,-2.0,-2.0,0.0,-3.0,-1.0,-2.0
1.6951608505549112e+18,-1.0,-1.0,-3.0,-2.0,-2.0,0.0,-2.0,0.0
1.6951608505569152e+18,-1.0,-2.0,-1.0,-1.0,-6.0,-2.0,-2.0,-2.0
1.6951608505569152e+18,-1.0,-3.0,-1.0,0.0,1.0,-2.0,-2.0,0.0
1.6951608505709153e+18,-2.0,-3.0,-1.0,0.0,1.0,0.0,-1.0,-1.0
1.6951608505709153e+18,-1.0,-1.0,-1.0,3.0,0.0,-1.0,2.0,-1.0
1.69516085057192e+18,-2.0,-3.0,-1.0,-1.0,-2.0,-1.0,1.0,0.0
1.69516085057192e+18,-2.0,-1.0,-1.0,-2.0,-3.0,-1.0,0.0,-2.0
1.695160850591906e+18,-2.0,0.0,-1.0,1.0,2.0,1.0,-1.0,-1.0
1.695160850592904e+18,-4.0,-1.0,-1.0,-4.0,-5.0,-1.0,1.0,-1.0
1.6951608505939016e+18,1.0,1.0,0.0,-3.0,-3.0,0.0,0.0,-2.0
1.6951608505939016e+18,-3.0,-3.0,-2.0,0.0,4.0,3.0,1.0,-2.0
1.6951608506059182e+18,1.0,1.0,-1.0,-4.0,-5.0,-3.0,-2.0,0.0
1.6951608506059182e+18,-2.0,0.0,1.0,-1.0,-3.0,-4.0,1.0,-1.0
1.6951608506149125e+18,-2.0,-3.0,-3.0,8.0,13.0,5.0,-1.0,0.0
1.6951608506149125e+18,0.0,1.0,0.0,0.0,-6.0,-2.0,-2.0,-2.0
1.6951608506289042e+18,-2.0,-2.0,-7.0,-5.0,-5.0,-2.0,0.0,-2.0
1.695160850629885e+18,0.0,-3.0,-1.0,-2.0,0.0,0.0,-1.0,0.0
1.69516085065287e+18,-3.0,-2.0,-1.0,0.0,3.0,-2.0,-1.0,-1.0
1.69516085065287e+18,1.0,3.0,3.0,1.0,2.0,1.0,-1.0,0.0
1.6951608506538698e+18,1.0,-1.0,0.0,2.0,0.0,-1.0,-1.0,0.0
1.6951608506538698e+18,-4.0,-3.0,-1.0,4.0,-1.0,-5.0,-3.0,-3.0
1.695160850656888e+18,0.0,0.0,-2.0,-4.0,-1.0,-2.0,-2.0,-2.0
1.6951608506578767e+18,-2.0,-4.0,-1.0,-2.0,-3.0,-4.0,-1.0,-2.0
1.6951608506828534e+18,1.0,-2.0,1.0,1.0,1.0,1.0,3.0,-1.0
1.6951608506828534e+18,0.0,1.0,1.0,3.0,2.0,2.0,0.0,-1.0
1.69516085068385e+18,0.0,0.0,0.0,-1.0,-3.0,-4.0,0.0,-1.0
1.69516085068385e+18,-1.0,-1.0,-2.0,-2.0,-4.0,4.0,1.0,2.0
1.6951608507058386e+18,0.0,1.0,-2.0,0.0,7.0,6.0,2.0,2.0
1.6951608507058386e+18,0.0,0.0,1.0,0.0,5.0,6.0,2.0,0.0
1.6951608507068378e+18,2.0,2.0,1.0,5.0,6.0,2.0,2.0,0.0
1.6951608507068378e+18,4.0,0.0,1.0,-1.0,-7.0,-7.0,0.0,1.0
1.6951608507128335e+18,-2.0,-2.0,1.0,-7.0,-6.0,-3.0,-1.0,-1.0
1.6951608507128335e+18,1.0,2.0,0.0,2.0,1.0,-2.0,1.0,0.0
1.6951608507138555e+18,-4.0,-6.0,-5.0,-4.0,-7.0,2.0,-1.0,-1.0
1.6951608507138555e+18,0.0,6.0,0.0,-4.0,2.0,-3.0,-2.0,1.0
1.695160850749813e+18,1.0,8.0,5.0,13.0,15.0,3.0,1.0,1.0
1.6951608507508124e+18,-1.0,-1.0,-6.0,-7.0,-10.0,-1.0,0.0,-1.0
1.6951608507588078e+18,-3.0,-6.0,-1.0,-2.0,-10.0,-6.0,-4.0,-2.0
1.6951608507588078e+18,4.0,7.0,-2.0,-9.0,-4.0,3.0,2.0,1.0
1.6951608507588078e+18,-4.0,-6.0,6.0,6.0,-4.0,-5.0,-2.0,-3.0
1.6951608507588078e+18,3.0,8.0,-1.0,-10.0,-2.0,2.0,2.0,3.0
1.6951608507618081e+18,3.0,7.0,-1.0,-9.0,-5.0,-8.0,-5.0,-1.0
1.6951608507618081e+18,-3.0,-8.0,7.0,13.0,8.0,6.0,3.0,0.0
1.695160850771801e+18,1.0,-3.0,-10.0,-16.0,-4.0,-1.0,-1.0,0.0
1.695160850771801e+18,1.0,2.0,14.0,24.0,8.0,1.0,0.0,0.0
1.695160850779796e+18,6.0,10.0,7.0,6.0,2.0,4.0,4.0,3.0
1.695160850780795e+18,-4.0,-11.0,-7.0,-12.0,4.0,-5.0,-5.0,-5.0
1.695160850797786e+18,2.0,9.0,4.0,0.0,-2.0,-3.0,-5.0,-1.0
1.695160850797786e+18,-4.0,-6.0,-5.0,-6.0,1.0,4.0,4.0,-1.0
1.695160850798785e+18,3.0,6.0,-6.0,-15.0,-4.0,-2.0,-1.0,1.0
1.695160850798785e+18,-5.0,-15.0,4.0,20.0,7.0,3.0,2.0,-1.0
1.695160850817775e+18,0.0,0.0,3.0,-2.0,-1.0,1.0,2.0,0.0
1.695160850818774e+18,-3.0,-3.0,-21.0,-33.0,-12.0,-7.0,-5.0,-3.0
1.695160850818774e+18,-8.0,-19.0,3.0,16.0,4.0,-1.0,-3.0,-3.0
1.695160850820773e+18,4.0,5.0,-5.0,-11.0,-1.0,0.0,3.0,2.0
1.695160850832767e+18,-2.0,0.0,-4.0,0.0,-1.0,-1.0,0.0,2.0
1.695160850832767e+18,1.0,-1.0,6.0,6.0,0.0,-2.0,-2.0,-1.0
1.695160850833765e+18,2.0,7.0,-2.0,-5.0,0.0,2.0,2.0,1.0
1.695160850833765e+18,-2.0,1.0,-5.0,0.0,-5.0,-6.0,-5.0,-3.0
1.6951608508587507e+18,-1.0,-7.0,5.0,3.0,-2.0,1.0,1.0,-1.0
1.6951608508587507e+18,1.0,1.0,-1.0,-2.0,-2.0,-1.0,-1.0,0.0
1.6951608508587507e+18,0.0,1.0,1.0,2.0,-1.0,1.0,1.0,-1.0
1.6951608508587507e+18,1.0,7.0,-4.0,-8.0,-6.0,-3.0,-2.0,0.0
1.695160850868744e+18,-3.0,-7.0,-4.0,-6.0,-2.0,-3.0,0.0,-1.0
1.6951608508697513e+18,-1.0,-7.0,2.0,4.0,1.0,-1.0,-2.0,1.0
1.6951608508837353e+18,-1.0,-5.0,-9.0,-3.0,1.0,2.0,3.0,1.0
1.6951608508837353e+18,1.0,5.0,7.0,-1.0,-1.0,-1.0,-5.0,-1.0
1.695160850907722e+18,-3.0,-5.0,-5.0,7.0,2.0,-1.0,-4.0,-2.0
1.695160850907722e+18,-1.0,-2.0,-1.0,1.0,1.0,-4.0,-4.0,-2.0
1.695160850908744e+18,-1.0,1.0,5.0,0.0,-3.0,1.0,1.0,0.0
1.695160850908744e+18,-4.0,-7.0,-6.0,-3.0,0.0,-3.0,-3.0,-3.0
1.6951608509147177e+18,1.0,1.0,-7.0,-5.0,-1.0,-1.0,5.0,1.0
1.695160850915719e+18,-1.0,0.0,-3.0,3.0,1.0,8.0,0.0,1.0
1.6951608509167176e+18,-3.0,2.0,-3.0,-2.0,1.0,2.0,-1.0,-2.0
1.6951608509167176e+18,-1.0,3.0,7.0,7.0,1.0,3.0,4.0,2.0
1.6951608509626903e+18,-3.0,-4.0,2.0,4.0,-1.0,-4.0,-8.0,-4.0
1.6951608509626903e+18,-2.0,-3.0,-1.0,-1.0,-1.0,-5.0,-4.0,-3.0
1.695160850968687e+18,2.0,1.0,-6.0,-5.0,0.0,0.0,1.0,1.0
1.695160850968687e+18,-4.0,-12.0,-1.0,4.0,-1.0,0.0,-1.0,-2.0
1.6951608509696886e+18,-2.0,-2.0,-5.0,-3.0,1.0,-2.0,-1.0,-3.0
1.6951608509696886e+18,0.0,2.0,0.0,-1.0,-1.0,3.0,7.0,2.0
1.6951608509827008e+18,-2.0,-4.0,0.0,5.0,-3.0,-4.0,-3.0,-1.0
1.6951608509827008e+18,2.0,6.0,-1.0,-3.0,-4.0,3.0,1.0,0.0
1.695160850983681e+18,-2.0,-1.0,3.0,2.0,-4.0,-10.0,-19.0,-5.0
1.695160850983681e+18,0.0,0.0,0.0,0.0,2.0,8.0,15.0,4.0
1.6951608509856796e+18,0.0,-3.0,-2.0,-4.0,1.0,0.0,0.0,-1.0
1.6951608509856796e+18,1.0,1.0,1.0,-2.0,-3.0,-2.0,-3.0,1.0
1.695160851000672e+18,0.0,2.0,-4.0,-5.0,-4.0,-2.0,5.0,1.0
1.695160851002671e+18,-3.0,-1.0,0.0,1.0,-1.0,-7.0,-9.0,-3.0
1.695160851002671e+18,-1.0,-1.0,5.0,3.0,-2.0,-11.0,-17.0,-7.0
1.695160851002671e+18,1.0,1.0,-1.0,-2.0,-2.0,2.0,-5.0,1.0
1.6951608510196613e+18,3.0,-4.0,-2.0,-6.0,-1.0,5.0,4.0,2.0
1.6951608510196613e+18,-6.0,3.0,2.0,7.0,8.0,-5.0,-5.0,-7.0
1.695160851021659e+18,2.0,-2.0,-4.0,-4.0,0.0,11.0,14.0,19.0
1.695160851021659e+18,-2.0,-2.0,-6.0,-1.0,2.0,0.0,3.0,-1.0
1.6951608510366513e+18,0.0,4.0,4.0,2.0,-1.0,1.0,-2.0,-2.0
1.6951608510366513e+18,-2.0,-6.0,-5.0,-5.0,-9.0,-14.0,-12.0,-2.0
1.6951608510366513e+18,-5.0,-2.0,5.0,2.0,0.0,0.0,-5.0,-4.0
1.6951608510366513e+18,1.0,-1.0,-2.0,-1.0,0.0,0.0,3.0,-1.0
1.695160851048641e+18,2.0,3.0,-1.0,-1.0,1.0,11.0,14.0,7.0
1.695160851048641e+18,3.0,0.0,-1.0,-4.0,-3.0,0.0,3.0,0.0
1.695160851057636e+18,-2.0,6.0,3.0,0.0,-3.0,-6.0,-19.0,-9.0
1.695160851057636e+18,1.0,4.0,-5.0,-2.0,-2.0,2.0,15.0,3.0
1.6951608510726298e+18,-3.0,1.0,5.0,3.0,3.0,-1.0,6.0,-3.0
1.6951608510736494e+18,-1.0,-2.0,2.0,-1.0,-1.0,0.0,-9.0,-3.0
1.6951608510746322e+18,0.0,4.0,-2.0,-8.0,1.0,-10.0,-8.0,-3.0
1.6951608510746322e+18,0.0,-3.0,12.0,15.0,2.0,7.0,19.0,2.0
1.695160851094637e+18,0.0,-6.0,-19.0,-10.0,2.0,-11.0,-11.0,-4.0
1.695160851094637e+18,3.0,-5.0,-11.0,-5.0,-1.0,9.0,9.0,4.0
1.6951608510966157e+18,-3.0,-9.0,-5.0,-2.0,-7.0,-17.0,-14.0,-6.0
1.6951608510966157e+18,-1.0,-3.0,0.0,3.0,-3.0,-10.0,0.0,-1.0
1.69516085112462e+18,2.0,2.0,10.0,3.0,-7.0,18.0,-6.0,-1.0
1.69516085112462e+18,0.0,0.0,-5.0,-6.0,14.0,6.0,41.0,8.0
1.6951608511266e+18,2.0,-2.0,-9.0,-2.0,-1.0,16.0,28.0,8.0
1.6951608511266e+18,-2.0,-1.0,-3.0,-7.0,10.0,-12.0,-13.0,-4.0
1.69516085113959e+18,0.0,2.0,6.0,10.0,-5.0,-12.0,-10.0,0.0
1.69516085113959e+18,-5.0,-7.0,0.0,-1.0,-7.0,1.0,-19.0,-15.0
1.6951608511415908e+18,-3.0,-5.0,-15.0,-18.0,-1.0,-8.0,-20.0,1.0
1.6951608511415908e+18,-1.0,-5.0,-12.0,-16.0,-10.0,0.0,0.0,2.0
1.6951608511545812e+18,-4.0,0.0,-7.0,-3.0,-12.0,-12.0,-13.0,-7.0
1.6951608511545812e+18,3.0,6.0,20.0,18.0,5.0,7.0,-5.0,1.0
1.6951608511795748e+18,-2.0,-1.0,4.0,-3.0,8.0,1.0,3.0,1.0
1.6951608511795748e+18,-2.0,-1.0,-11.0,8.0,-9.0,-13.0,-29.0,-9.0
1.6951608512015562e+18,2.0,4.0,30.0,7.0,4.0,9.0,26.0,9.0
1.6951608512015562e+18,-1.0,-3.0,5.0,2.0,10.0,6.0,-13.0,0.0
1.6951608512025761e+18,-3.0,2.0,2.0,8.0,3.0,1.0,11.0,0.0
1.6951608512025761e+18,2.0,1.0,-6.0,-1.0,4.0,5.0,1.0,1.0
1.6951608512035748e+18,-1.0,-6.0,-17.0,-10.0,6.0,-1.0,9.0,0.0
1.6951608512035748e+18,-2.0,4.0,12.0,5.0,-7.0,-8.0,-8.0,-5.0
1.6951608512075533e+18,1.0,1.0,6.0,-8.0,-5.0,2.0,8.0,-3.0
1.6951608512075533e+18,-4.0,1.0,5.0,17.0,-2.0,0.0,-3.0,-3.0
1.6951608512145477e+18,-4.0,-5.0,-19.0,-7.0,-7.0,-6.0,-9.0,-4.0
1.6951608512145477e+18,2.0,0.0,-1.0,-6.0,2.0,-4.0,1.0,5.0
1.695160851220545e+18,1.0,1.0,18.0,20.0,4.0,0.0,3.0,1.0
1.6951608512215442e+18,-3.0,-1.0,12.0,-14.0,-10.0,-5.0,-2.0,-2.0
1.6951608512375342e+18,0.0,1.0,-28.0,-16.0,11.0,1.0,-15.0,-4.0
1.6951608512375342e+18,-1.0,2.0,35.0,33.0,1.0,10.0,37.0,10.0
1.6951608512385554e+18,1.0,1.0,-30.0,-11.0,-1.0,2.0,-5.0,0.0
1.6951608512385554e+18,-1.0,-1.0,13.0,22.0,13.0,9.0,3.0,3.0
1.69516085125952e+18,-3.0,-6.0,-35.0,-40.0,-12.0,-3.0,2.0,-2.0
1.6951608512605222e+18,-1.0,-1.0,-12.0,-11.0,-11.0,-9.0,-11.0,-4.0
1.695160851261524e+18,-4.0,0.0,19.0,11.0,-10.0,-4.0,-5.0,-9.0
1.695160851261524e+18,1.0,-1.0,-8.0,3.0,16.0,8.0,12.0,7.0
1.695160851274512e+18,0.0,3.0,19.0,-1.0,0.0,-2.0,-5.0,-4.0
1.695160851274512e+18,2.0,3.0,-22.0,-14.0,-7.0,-6.0,-7.0,-2.0
1.6951608512984988e+18,-2.0,-10.0,1.0,-4.0,-11.0,-2.0,2.0,-2.0
1.6951608512984988e+18,-1.0,1.0,4.0,5.0,0.0,-3.0,-8.0,-5.0
1.6951608512984988e+18,-1.0,-1.0,2.0,-1.0,-1.0,0.0,8.0,2.0
1.6951608512994995e+18,2.0,2.0,-29.0,-2.0,-1.0,-5.0,-6.0,2.0
1.6951608513004974e+18,-6.0,-8.0,-6.0,-7.0,-2.0,1.0,2.0,-8.0
1.6951608513004974e+18,-4.0,0.0,-4.0,6.0,-2.0,-3.0,-5.0,-4.0
1.695160851321485e+18,1.0,2.0,17.0,19.0,7.0,6.0,5.0,5.0
1.695160851326485e+18,-2.0,-2.0,4.0,1.0,1.0,1.0,-4.0,-3.0
1.695160851327482e+18,2.0,2.0,-6.0,-10.0,4.0,5.0,3.0,2.0
1.695160851327482e+18,2.0,-1.0,-15.0,-6.0,-9.0,-4.0,0.0,-1.0
1.6951608513494712e+18,3.0,2.0,16.0,23.0,8.0,3.0,-5.0,2.0
1.6951608513504717e+18,-2.0,-4.0,-7.0,-5.0,2.0,-6.0,-15.0,-3.0
1.69516085135147e+18,3.0,4.0,17.0,26.0,5.0,11.0,37.0,8.0
1.69516085135147e+18,-1.0,2.0,22.0,-6.0,3.0,3.0,3.0,0.0
1.6951608513724557e+18,0.0,1.0,-25.0,-24.0,-12.0,-8.0,-6.0,0.0
1.6951608513724557e+18,2.0,-12.0,0.0,3.0,5.0,5.0,8.0,5.0
1.695160851373455e+18,3.0,0.0,-11.0,-10.0,3.0,-5.0,-13.0,-2.0
1.6951608513744591e+18,0.0,0.0,3.0,1.0,-6.0,-4.0,-1.0,-1.0
1.6951608513794534e+18,-3.0,0.0,17.0,11.0,4.0,-6.0,-8.0,-2.0
1.6951608513804557e+18,-6.0,-1.0,-1.0,-1.0,-6.0,-2.0,-8.0,-2.0
1.6951608513814533e+18,-1.0,1.0,0.0,-6.0,4.0,2.0,3.0,0.0
1.6951608513814533e+18,1.0,-4.0,-31.0,-34.0,-12.0,-1.0,3.0,1.0
1.695160851410434e+18,-3.0,-3.0,13.0,41.0,6.0,3.0,1.0,-1.0
1.695160851410434e+18,-4.0,-4.0,-15.0,-21.0,-9.0,-9.0,-7.0,-3.0
1.6951608514114342e+18,-2.0,-2.0,9.0,1.0,0.0,-3.0,-8.0,-3.0
1.6951608514114342e+18,0.0,2.0,-3.0,-5.0,3.0,0.0,-4.0,-1.0
1.6951608514254292e+18,0.0,1.0,6.0,-2.0,-3.0,1.0,4.0,1.0
1.6951608514254292e+18,-3.0,-3.0,-5.0,-3.0,-3.0,-3.0,-3.0,-4.0
1.6951608514264474e+18,-1.0,1.0,9.0,26.0,3.0,2.0,-1.0,1.0
1.6951608514264474e+18,-2.0,-1.0,-4.0,0.0,-2.0,-4.0,-6.0,-2.0
1.6951608514474153e+18,-1.0,-4.0,-10.0,-30.0,-8.0,-5.0,5.0,0.0
1.6951608514474153e+18,3.0,1.0,-3.0,-4.0,0.0,-1.0,-10.0,-1.0
1.6951608514484137e+18,-2.0,-2.0,1.0,-3.0,-4.0,-1.0,1.0,2.0
1.6951608514494162e+18,1.0,-4.0,-7.0,-5.0,-4.0,-7.0,-11.0,-2.0
1.6951608514624038e+18,-1.0,1.0,10.0,11.0,-2.0,5.0,12.0,1.0
1.6951608514624038e+18,-3.0,2.0,3.0,6.0,4.0,-3.0,-8.0,-4.0
1.6951608514634038e+18,-1.0,-2.0,-10.0,-15.0,-8.0,-7.0,-11.0,-5.0
1.6951608514644068e+18,0.0,-7.0,6.0,5.0,-2.0,2.0,-8.0,2.0
1.6951608515013821e+18,-1.0,0.0,-2.0,-5.0,-1.0,0.0,12.0,3.0
1.6951608515013821e+18,1.0,0.0,4.0,0.0,-7.0,-3.0,5.0,0.0
1.6951608515023823e+18,-1.0,-1.0,-8.0,-2.0,-2.0,-2.0,-1.0,-2.0
1.695160851503382e+18,0.0,1.0,7.0,15.0,6.0,0.0,4.0,-1.0
1.695160851503382e+18,0.0,2.0,-7.0,-6.0,-1.0,-7.0,-27.0,-3.0
1.695160851503382e+18,-2.0,-4.0,0.0,-2.0,1.0,2.0,2.0,3.0
1.695160851523392e+18,0.0,0.0,-5.0,-1.0,0.0,-1.0,-3.0,0.0
1.695160851523392e+18,2.0,8.0,0.0,-15.0,-3.0,-3.0,-1.0,-5.0
1.6951608515533745e+18,-2.0,-8.0,6.0,27.0,3.0,0.0,-5.0,1.0
1.6951608515543718e+18,0.0,0.0,4.0,3.0,0.0,2.0,2.0,0.0
1.6951608515553733e+18,-1.0,-29.0,8.0,-2.0,2.0,2.0,1.0,3.0
1.6951608515553733e+18,-1.0,-2.0,2.0,-6.0,4.0,3.0,6.0,1.0
1.6951608515563512e+18,-3.0,1.0,-26.0,3.0,-4.0,-3.0,-7.0,-3.0
1.6951608515563512e+18,2.0,8.0,30.0,8.0,-2.0,0.0,0.0,1.0
1.6951608515673454e+18,-4.0,9.0,-27.0,-19.0,1.0,0.0,2.0,-1.0
1.6951608515673454e+18,-1.0,-6.0,9.0,3.0,1.0,3.0,3.0,1.0
1.6951608515683446e+18,-2.0,-7.0,-10.0,-18.0,-4.0,-1.0,5.0,-1.0
1.6951608515683446e+18,0.0,2.0,11.0,38.0,1.0,-5.0,-1.0,0.0
1.6951608515783424e+18,1.0,7.0,3.0,-3.0,3.0,4.0,6.0,0.0
1.6951608515793408e+18,-1.0,1.0,-4.0,-4.0,-6.0,-2.0,-1.0,-2.0
1.6951608515793408e+18,1.0,4.0,-6.0,-5.0,-3.0,-8.0,-9.0,-7.0
1.6951608515793408e+18,-2.0,-2.0,-1.0,-7.0,3.0,5.0,5.0,2.0
1.6951608516133192e+18,2.0,4.0,-2.0,-6.0,-2.0,10.0,32.0,2.0
1.6951608516133192e+18,-6.0,-5.0,-8.0,-2.0,-6.0,-5.0,-17.0,-1.0
1.6951608516133192e+18,6.0,2.0,8.0,-1.0,5.0,13.0,24.0,8.0
1.6951608516143183e+18,0.0,2.0,-3.0,0.0,-4.0,-5.0,2.0,-4.0
1.6951608516153178e+18,0.0,-1.0,2.0,2.0,-5.0,-4.0,-14.0,-4.0
1.6951608516153178e+18,-4.0,0.0,-2.0,12.0,15.0,0.0,0.0,-3.0
1.695160851629311e+18,-3.0,0.0,2.0,-8.0,-1.0,-4.0,-4.0,-2.0
1.6951608516303086e+18,-3.0,-6.0,-3.0,-6.0,-2.0,-1.0,-6.0,0.0
1.6951608516303086e+18,4.0,5.0,-5.0,-13.0,-5.0,-5.0,-8.0,-1.0
1.6951608516303086e+18,0.0,-3.0,4.0,10.0,-2.0,2.0,7.0,-1.0
1.6951608516333135e+18,-3.0,-1.0,10.0,12.0,3.0,0.0,-8.0,-1.0
1.6951608516343089e+18,1.0,-7.0,-15.0,-23.0,-3.0,1.0,8.0,0.0
1.6951608516672878e+18,-2.0,-2.0,7.0,14.0,1.0,-5.0,-8.0,-2.0
1.6951608516672878e+18,1.0,5.0,3.0,-6.0,-4.0,-4.0,3.0,0.0
1.6951608516682875e+18,0.0,-3.0,0.0,-5.0,-1.0,1.0,2.0,0.0
1.6951608516682875e+18,0.0,1.0,-10.0,-5.0,-1.0,-3.0,-5.0,-4.0
1.6951608516882747e+18,-3.0,2.0,5.0,6.0,0.0,-5.0,-23.0,-4.0
1.6951608516882747e+18,-1.0,-2.0,3.0,2.0,-2.0,1.0,10.0,1.0
1.6951608516882747e+18,-1.0,-2.0,-2.0,0.0,-5.0,-7.0,-10.0,1.0
1.6951608516892772e+18,1.0,-5.0,-2.0,-13.0,-1.0,5.0,16.0,3.0
1.6951608516902766e+18,0.0,3.0,12.0,35.0,7.0,-3.0,-14.0,-2.0
1.6951608516902766e+18,0.0,2.0,-4.0,-10.0,-2.0,-3.0,-4.0,-3.0
1.6951608517022692e+18,-1.0,0.0,9.0,14.0,1.0,-6.0,-7.0,-3.0
1.6951608517022692e+18,-1.0,2.0,-2.0,-3.0,0.0,-1.0,-7.0,-2.0
1.6951608517042657e+18,0.0,-1.0,3.0,-1.0,-3.0,0.0,8.0,4.0
1.6951608517042657e+18,-1.0,-2.0,-8.0,-14.0,1.0,-1.0,-9.0,0.0
1.6951608517172616e+18,0.0,-2.0,11.0,3.0,-3.0,-1.0,6.0,0.0
1.6951608517172616e+18,-1.0,-1.0,-20.0,-2.0,-3.0,-1.0,-2.0,-1.0
1.6951608517192584e+18,-1.0,-2.0,-10.0,-19.0,-8.0,-4.0,1.0,-1.0
1.6951608517192584e+18,1.0,-1.0,9.0,7.0,2.0,1.0,4.0,1.0
1.6951608517402478e+18,-1.0,-3.0,-10.0,-17.0,-1.0,-1.0,-2.0,-3.0
1.6951608517402478e+18,-1.0,1.0,1.0,2.0,-2.0,0.0,5.0,-1.0
1.6951608517792228e+18,-1.0,1.0,-4.0,-3.0,-1.0,-2.0,-2.0,-1.0
1.6951608517792228e+18,-2.0,-5.0,-3.0,0.0,0.0,0.0,0.0,1.0
1.6951608517792228e+18,1.0,-1.0,-5.0,-11.0,1.0,3.0,7.0,-1.0
1.6951608517792228e+18,-2.0,1.0,9.0,19.0,4.0,-2.0,-5.0,-2.0
1.6951608517812244e+18,0.0,0.0,-8.0,-9.0,-4.0,1.0,1.0,-1.0
1.6951608517812244e+18,-1.0,5.0,5.0,3.0,-1.0,-1.0,0.0,0.0
1.695160851795217e+18,-2.0,-2.0,-2.0,9.0,3.0,2.0,2.0,0.0
1.695160851795217e+18,0.0,4.0,6.0,-8.0,-1.0,-1.0,-2.0,1.0
1.695160851802212e+18,-1.0,-4.0,-16.0,-2.0,-1.0,0.0,-2.0,-1.0
1.695160851802212e+18,0.0,1.0,-4.0,-2.0,-4.0,1.0,3.0,-1.0
1.695160851802212e+18,0.0,-2.0,0.0,-2.0,-2.0,1.0,1.0,-3.0
1.695160851803216e+18,-1.0,-2.0,1.0,1.0,-2.0,-2.0,-1.0,-1.0
1.6951608518062072e+18,-1.0,-2.0,6.0,2.0,2.0,1.0,4.0,1.0
1.6951608518062072e+18,-3.0,-2.0,-3.0,0.0,-2.0,0.0,-3.0,-1.0
1.695160851813205e+18,0.0,0.0,-4.0,-1.0,0.0,1.0,0.0,1.0
1.695160851813205e+18,0.0,2.0,2.0,-6.0,0.0,-1.0,-2.0,-2.0
1.6951608518301975e+18,-1.0,-1.0,3.0,7.0,0.0,-2.0,-2.0,0.0
1.6951608518301975e+18,0.0,-1.0,-4.0,-5.0,-1.0,-1.0,1.0,0.0
1.695160851837212e+18,-1.0,1.0,2.0,-3.0,-1.0,-1.0,0.0,0.0
1.6951608518381898e+18,-1.0,0.0,-4.0,-4.0,-2.0,0.0,-2.0,-1.0
1.695160851839189e+18,-2.0,-3.0,1.0,-1.0,2.0,-2.0,1.0,-1.0
1.695160851839189e+18,0.0,0.0,0.0,1.0,-2.0,0.0,2.0,-1.0
1.6951608518681754e+18,-1.0,-2.0,-1.0,-2.0,1.0,-1.0,-3.0,-2.0
1.6951608518681754e+18,-2.0,-1.0,-2.0,-3.0,-6.0,-6.0,-14.0,-4.0
1.6951608518691727e+18,0.0,-3.0,3.0,3.0,2.0,12.0,32.0,3.0
1.6951608518691727e+18,0.0,0.0,0.0,-3.0,-2.0,-3.0,-4.0,0.0
1.695160851873191e+18,1.0,0.0,0.0,3.0,2.0,1.0,2.0,0.0
1.695160851873191e+18,0.0,-1.0,-2.0,0.0,1.0,0.0,0.0,0.0
1.6951608518821642e+18,-2.0,1.0,1.0,-1.0,-1.0,-7.0,-14.0,-3.0
1.6951608518821642e+18,0.0,-2.0,-3.0,-4.0,-1.0,1.0,1.0,-2.0
1.6951608519051602e+18,-1.0,-1.0,-3.0,2.0,0.0,1.0,-1.0,-2.0
1.6951608519051602e+18,-1.0,-2.0,-1.0,-1.0,-1.0,-1.0,-2.0,-3.0
1.695160851906151e+18,0.0,0.0,-1.0,-3.0,-1.0,-1.0,-6.0,-1.0
1.695160851906151e+18,1.0,0.0,0.0,0.0,-1.0,-1.0,3.0,0.0
1.6951608519201428e+18,-1.0,0.0,-1.0,1.0,-1.0,-1.0,-7.0,-1.0
1.6951608519201428e+18,0.0,0.0,1.0,-2.0,0.0,1.0,4.0,0.0
1.6951608519211423e+18,0.0,-1.0,0.0,0.0,-3.0,-2.0,-2.0,1.0
1.6951608519211423e+18,-1.0,-1.0,-2.0,-2.0,-1.0,-1.0,0.0,-1.0
1.6951608519331576e+18,-2.0,-1.0,1.0,-1.0,0.0,1.0,1.0,-1.0
1.6951608519341345e+18,0.0,-1.0,-2.0,-1.0,0.0,2.0,2.0,0.0
1.695160851943132e+18,-2.0,-3.0,2.0,-2.0,-1.0,-1.0,-4.0,0.0
1.695160851944129e+18,-1.0,0.0,-1.0,-1.0,-1.0,-2.0,-4.0,-2.0
1.6951608519651162e+18,-1.0,0.0,1.0,2.0,0.0,-1.0,0.0,-1.0
1.6951608519651162e+18,-1.0,-2.0,-2.0,-2.0,3.0,2.0,4.0,2.0
1.695160851966119e+18,-1.0,-1.0,0.0,3.0,0.0,-2.0,-6.0,0.0
1.695160851966119e+18,-1.0,-1.0,-2.0,-2.0,-2.0,-3.0,-2.0,-1.0
1.695160851980117e+18,-1.0,-2.0,-5.0,-8.0,-6.0,-4.0,0.0,1.0
1.695160851980117e+18,0.0,-1.0,1.0,6.0,1.0,0.0,1.0,1.0
1.6951608519811077e+18,0.0,2.0,1.0,-2.0,-1.0,-1.0,-1.0,-1.0
1.6951608519811077e+18,-2.0,-7.0,-6.0,0.0,1.0,0.0,-1.0,-1.0
1.6951608519941025e+18,2.0,-4.0,-1.0,-3.0,-1.0,-1.0,1.0,0.0
1.6951608519941025e+18,-1.0,-3.0,4.0,0.0,-2.0,-4.0,-2.0,-2.0
1.6951608520020974e+18,0.0,1.0,-6.0,-2.0,0.0,2.0,-1.0,-1.0
1.6951608520020974e+18,0.0,0.0,0.0,-2.0,-3.0,-1.0,0.0,0.0
1.6951608520160865e+18,-1.0,0.0,-5.0,1.0,-3.0,-3.0,-2.0,1.0
1.6951608520170893e+18,1.0,1.0,6.0,-8.0,-2.0,-2.0,0.0,0.0
1.6951608520325253e+18,0.0,0.0,2.0,1.0,1.0,-3.0,-2.0,-1.0
1.6951608520335352e+18,0.0,0.0,2.0,1.0,2.0,4.0,1.0,-2.0
1.6951608520402552e+18,0.0,-1.0,-3.0,-1.0,0.0,1.0,1.0,0.0
1.6951608520402552e+18,1.0,2.0,0.0,1.0,-1.0,-1.0,-2.0,0.0
1.6951608520412557e+18,0.0,-2.0,-10.0,0.0,-1.0,-2.0,1.0,-1.0
1.6951608520422564e+18,1.0,1.0,15.0,0.0,1.0,-3.0,-3.0,-1.0
1.695160852053517e+18,-3.0,-5.0,-1.0,-1.0,-2.0,0.0,1.0,-1.0
1.695160852053517e+18,-2.0,-2.0,-14.0,-6.0,-4.0,-1.0,0.0,-2.0
1.6951608520715036e+18,1.0,-2.0,0.0,-3.0,-1.0,-2.0,-3.0,-4.0
1.6951608520715036e+18,0.0,-1.0,-2.0,7.0,3.0,1.0,1.0,1.0
1.695160852076522e+18,-1.0,5.0,12.0,2.0,3.0,1.0,-1.0,-1.0
1.6951608520775007e+18,-1.0,-1.0,-4.0,-2.0,-2.0,0.0,-1.0,1.0
1.6951608520905137e+18,-2.0,-2.0,2.0,-6.0,-3.0,-3.0,-1.0,0.0
1.6951608520914908e+18,-1.0,0.0,-3.0,-1.0,-4.0,-3.0,-1.0,0.0
1.6951608521054838e+18,-1.0,0.0,2.0,-1.0,-2.0,-3.0,-1.0,-2.0
1.6951608521064988e+18,-2.0,0.0,-5.0,-1.0,0.0,-2.0,-1.0,0.0
1.6951608521064988e+18,0.0,3.0,3.0,4.0,2.0,0.0,-1.0,-1.0
1.6951608521064988e+18,0.0,-2.0,-2.0,4.0,-3.0,-1.0,-1.0,0.0
1.6951608521299372e+18,-1.0,-1.0,-3.0,-6.0,0.0,0.0,-1.0,0.0
1.6951608521309176e+18,-2.0,0.0,2.0,5.0,3.0,1.0,-1.0,-2.0
1.695160852131937e+18,-2.0,-2.0,0.0,2.0,4.0,1.0,0.0,2.0
1.695160852131937e+18,-2.0,0.0,-3.0,-6.0,-3.0,-1.0,-1.0,-1.0
1.6951608521449226e+18,0.0,-1.0,-4.0,0.0,-1.0,-2.0,0.0,-1.0
1.6951608521459164e+18,0.0,-3.0,-2.0,-5.0,-1.0,-1.0,0.0,-1.0
1.6951608521469066e+18,1.0,0.0,-1.0,-3.0,-3.0,0.0,0.0,0.0
1.6951608521469066e+18,-1.0,0.0,5.0,5.0,1.0,0.0,0.0,0.0
1.6951608521605256e+18,-1.0,0.0,-7.0,-2.0,0.0,0.0,-1.0,-1.0
1.6951608521605256e+18,-2.0,-1.0,6.0,-2.0,-4.0,-2.0,-2.0,-2.0
1.6951608521615334e+18,-1.0,-1.0,0.0,2.0,-2.0,0.0,-1.0,0.0
1.6951608521615334e+18,0.0,-1.0,-4.0,-4.0,0.0,-1.0,-2.0,-1.0
1.695160852182436e+18,0.0,0.0,-1.0,0.0,-1.0,-1.0,-2.0,-1.0
1.695160852182436e+18,-1.0,0.0,0.0,3.0,1.0,1.0,-1.0,-2.0
1.6951608521834358e+18,-1.0,-1.0,-5.0,-1.0,-1.0,-2.0,-1.0,0.0
1.6951608521844365e+18,-2.0,0.0,9.0,-4.0,-3.0,-2.0,1.0,-2.0
1.6951608522049523e+18,-3.0,-2.0,-4.0,-1.0,0.0,0.0,1.0,-1.0
1.6951608522049523e+18,0.0,-2.0,-5.0,5.0,4.0,1.0,-1.0,-1.0
1.6951608522059556e+18,0.0,-1.0,0.0,-8.0,-5.0,-2.0,-1.0,0.0
1.6951608522069737e+18,0.0,1.0,-2.0,1.0,-2.0,-3.0,-1.0,-2.0
1.6951608522199468e+18,0.0,-1.0,4.0,-1.0,-2.0,0.0,-1.0,1.0
1.6951608522199468e+18,0.0,-2.0,-12.0,0.0,1.0,-1.0,0.0,-2.0
1.6951608522209467e+18,-5.0,-5.0,3.0,2.0,-1.0,-2.0,0.0,-2.0
1.6951608522219484e+18,0.0,-1.0,-1.0,-1.0,2.0,0.0,0.0,0.0
1.6951608522424448e+18,-1.0,-3.0,-11.0,-5.0,-1.0,-1.0,0.0,-1.0
1.6951608522424448e+18,-1.0,6.0,9.0,4.0,-2.0,0.0,1.0,-1.0
1.6951608522444426e+18,0.0,-1.0,2.0,-1.0,-2.0,0.0,-1.0,-1.0
1.6951608522444426e+18,1.0,-2.0,-3.0,-3.0,-1.0,-1.0,-2.0,0.0
1.6951608522566126e+18,-2.0,-1.0,1.0,1.0,0.0,-1.0,0.0,-1.0
1.6951608522566126e+18,0.0,0.0,6.0,-3.0,-2.0,-2.0,-1.0,-1.0
1.6951608522635228e+18,-1.0,0.0,-6.0,-1.0,0.0,-2.0,-1.0,0.0
1.6951608522635228e+18,-2.0,-2.0,-5.0,-1.0,-1.0,0.0,-1.0,0.0
1.6951608522871867e+18,0.0,2.0,5.0,3.0,1.0,0.0,-1.0,1.0
1.6951608522871867e+18,0.0,0.0,-2.0,-4.0,-2.0,-3.0,1.0,0.0
1.69516085229457e+18,0.0,2.0,7.0,2.0,-1.0,0.0,-1.0,-2.0
1.69516085229457e+18,-2.0,-2.0,-2.0,-3.0,-2.0,-1.0,-1.0,0.0
1.6951608523025505e+18,-3.0,0.0,-8.0,-2.0,-1.0,-1.0,-2.0,-3.0
1.6951608523025505e+18,-1.0,0.0,5.0,-1.0,-1.0,0.0,0.0,-1.0
1.6951608523035484e+18,-3.0,-11.0,-18.0,-2.0,0.0,1.0,-1.0,-1.0
1.6951608523035484e+18,-1.0,0.0,-1.0,-4.0,-1.0,0.0,0.0,0.0
1.6951608523166093e+18,0.0,-1.0,2.0,-1.0,-1.0,1.0,-2.0,-2.0
1.6951608523166093e+18,-1.0,-1.0,-1.0,-1.0,-1.0,0.0,-3.0,0.0
1.6951608523235487e+18,1.0,3.0,5.0,-1.0,-1.0,-1.0,-2.0,1.0
1.6951608523235487e+18,-1.0,-5.0,-14.0,-3.0,-1.0,-2.0,-2.0,-2.0
1.6951608523395384e+18,-2.0,-1.0,-2.0,4.0,-2.0,-1.0,-1.0,-2.0
1.695160852340539e+18,-3.0,3.0,-9.0,-2.0,-1.0,0.0,-2.0,-2.0
1.6951608523505347e+18,-1.0,-3.0,0.0,1.0,1.0,1.0,1.0,0.0
1.6951608523515364e+18,2.0,6.0,-10.0,-7.0,-6.0,-4.0,-1.0,0.0
1.695160852362528e+18,-6.0,-3.0,-4.0,4.0,3.0,2.0,0.0,0.0
1.695160852362528e+18,-5.0,-8.0,-1.0,2.0,1.0,2.0,-1.0,-2.0
1.695160852363525e+18,-1.0,9.0,-10.0,-4.0,-5.0,-2.0,-2.0,-2.0
1.6951608523645332e+18,-2.0,-39.0,33.0,16.0,10.0,8.0,6.0,3.0
1.6951608523905114e+18,5.0,5.0,2.0,-6.0,-6.0,-4.0,0.0,1.0
1.6951608523905114e+18,-4.0,-7.0,-6.0,-2.0,0.0,2.0,-1.0,-1.0
1.6951608523905114e+18,3.0,-3.0,8.0,4.0,-1.0,-2.0,-3.0,-1.0
1.6951608523915113e+18,-2.0,-16.0,23.0,4.0,2.0,3.0,2.0,1.0
1.6951608524005038e+18,9.0,21.0,-57.0,-14.0,-6.0,-6.0,-5.0,-2.0
1.6951608524005038e+18,0.0,-6.0,24.0,3.0,0.0,1.0,2.0,2.0
1.6951608524015032e+18,10.0,24.0,10.0,-6.0,-5.0,-3.0,-1.0,1.0
1.6951608524015032e+18,3.0,9.0,-24.0,-9.0,-6.0,-4.0,-2.0,-2.0
1.6951608524224914e+18,-6.0,-22.0,29.0,11.0,7.0,3.0,2.0,0.0
1.6951608524224914e+18,1.0,-17.0,19.0,-1.0,-2.0,-1.0,1.0,3.0
1.6951608524234906e+18,-4.0,5.0,-9.0,0.0,0.0,1.0,-1.0,-1.0
1.69516085242449e+18,-3.0,10.0,-8.0,-1.0,-2.0,-2.0,-3.0,-2.0
1.695160852436483e+18,-5.0,-3.0,8.0,3.0,2.0,0.0,2.0,-1.0
1.695160852436483e+18,3.0,10.0,-22.0,-6.0,-4.0,-5.0,-2.0,-3.0
1.695160852444479e+18,-3.0,-13.0,9.0,4.0,5.0,1.0,1.0,1.0
1.6951608524454787e+18,-3.0,2.0,-3.0,0.0,-2.0,1.0,-1.0,-1.0
1.6951608524594708e+18,1.0,0.0,8.0,0.0,-2.0,-1.0,1.0,0.0
1.6951608524594708e+18,-1.0,0.0,-4.0,0.0,-1.0,-1.0,0.0,-1.0
1.695160852461487e+18,-3.0,-2.0,-8.0,-4.0,-1.0,-2.0,-1.0,-3.0
1.695160852461487e+18,0.0,6.0,-1.0,-1.0,-1.0,-2.0,-2.0,-2.0
1.6951608524824566e+18,0.0,2.0,-1.0,0.0,-2.0,-1.0,-2.0,-1.0
1.6951608524824566e+18,0.0,3.0,-4.0,-2.0,-2.0,-1.0,-2.0,-1.0
1.6951608524834565e+18,-3.0,-7.0,4.0,1.0,0.0,1.0,-1.0,-2.0
1.6951608524834565e+18,-1.0,9.0,-11.0,-4.0,-2.0,-2.0,-1.0,-1.0
1.6951608524965898e+18,-1.0,-3.0,10.0,2.0,0.0,1.0,1.0,-1.0
1.6951608524965898e+18,-1.0,-2.0,-1.0,-1.0,-1.0,-1.0,-1.0,0.0
1.6951608525050883e+18,-2.0,-3.0,0.0,1.0,-1.0,0.0,0.0,-1.0
1.6951608525050883e+18,-2.0,4.0,1.0,-1.0,-1.0,-1.0,0.0,-1.0
1.695160852520581e+18,-1.0,-1.0,-5.0,-3.0,-1.0,-2.0,-1.0,-1.0
1.695160852520581e+18,0.0,2.0,0.0,-2.0,-1.0,-2.0,0.0,-1.0
1.6951608525215754e+18,0.0,1.0,-4.0,1.0,0.0,-1.0,-1.0,0.0
1.6951608525215754e+18,-3.0,2.0,-5.0,0.0,-1.0,-2.0,-1.0,-1.0
1.695160852543456e+18,-1.0,-2.0,3.0,1.0,-1.0,-1.0,-1.0,-1.0
1.695160852543456e+18,-1.0,3.0,-7.0,-2.0,-2.0,-2.0,0.0,-1.0
1.695160852544455e+18,-1.0,-3.0,12.0,0.0,-1.0,-1.0,0.0,-1.0
1.695160852545455e+18,-2.0,-5.0,-14.0,0.0,0.0,0.0,-2.0,-2.0
1.695160852556449e+18,-1.0,-8.0,8.0,-2.0,-3.0,-1.0,-1.0,0.0
1.6951608525574474e+18,-2.0,-2.0,-1.0,-1.0,-1.0,-1.0,-1.0,-1.0
1.695160852572438e+18,-2.0,0.0,-1.0,0.0,1.0,0.0,0.0,-2.0
1.6951608525734367e+18,0.0,4.0,0.0,-3.0,-2.0,-1.0,-1.0,0.0
1.6951608525844319e+18,-1.0,0.0,-2.0,-2.0,0.0,-2.0,-2.0,-1.0
1.6951608525844319e+18,0.0,-3.0,5.0,3.0,2.0,1.0,1.0,2.0
1.6951608525844319e+18,-2.0,-3.0,-1.0,0.0,0.0,0.0,0.0,0.0
1.695160852585431e+18,-1.0,-2.0,-7.0,-2.0,0.0,0.0,-1.0,-1.0
1.6951608526024212e+18,-1.0,0.0,-5.0,-2.0,-2.0,-1.0,1.0,0.0
1.6951608526024212e+18,-1.0,0.0,5.0,1.0,-1.0,0.0,-2.0,0.0
1.6951608526024212e+18,-2.0,-2.0,-5.0,0.0,-2.0,-2.0,-2.0,-1.0
1.6951608526034204e+18,1.0,1.0,8.0,0.0,0.0,-1.0,-1.0,-1.0
1.6951608526244078e+18,1.0,2.0,-4.0,0.0,0.0,-1.0,0.0,-2.0
1.6951608526244078e+18,3.0,0.0,-5.0,-1.0,-3.0,-4.0,-2.0,-3.0
1.6951608526254083e+18,-3.0,-3.0,-2.0,-2.0,-1.0,0.0,1.0,-1.0
1.6951608526254083e+18,0.0,3.0,13.0,0.0,0.0,-2.0,-2.0,-2.0
1.6951608526473948e+18,0.0,-2.0,-3.0,-2.0,0.0,-1.0,2.0,-1.0
1.695160852648396e+18,1.0,4.0,-7.0,-4.0,-3.0,-1.0,-1.0,-1.0
1.695160852648396e+18,-1.0,-1.0,0.0,1.0,-2.0,1.0,-2.0,-2.0
1.6951608526493947e+18,-1.0,0.0,4.0,2.0,-1.0,0.0,-1.0,0.0
1.6951608526613878e+18,0.0,0.0,-4.0,0.0,0.0,-1.0,-1.0,0.0
1.6951608526613878e+18,-1.0,1.0,1.0,-1.0,1.0,0.0,0.0,-1.0
1.6951608526623852e+18,0.0,0.0,-6.0,-1.0,-1.0,-2.0,0.0,-2.0
1.6951608526623852e+18,-2.0,2.0,-4.0,-4.0,-1.0,0.0,0.0,-1.0
1.6951608526843753e+18,0.0,2.0,5.0,-2.0,-2.0,-2.0,-3.0,0.0
1.6951608526843753e+18,-1.0,-1.0,0.0,1.0,0.0,2.0,0.0,1.0
1.6951608526853745e+18,0.0,-1.0,-2.0,-2.0,0.0,1.0,-1.0,0.0
1.6951608526853745e+18,-1.0,-5.0,-4.0,-1.0,-1.0,0.0,-2.0,0.0
1.6951608526993638e+18,0.0,-2.0,0.0,-1.0,1.0,2.0,-1.0,0.0
1.6951608526993638e+18,0.0,1.0,-6.0,-2.0,-2.0,0.0,-1.0,-3.0
1.6951608526993638e+18,0.0,-3.0,9.0,1.0,-1.0,0.0,1.0,2.0
1.6951608527003663e+18,0.0,-1.0,-2.0,-1.0,-2.0,0.0,-1.0,-3.0
1.6951608527213737e+18,0.0,1.0,-5.0,-2.0,-4.0,-1.0,0.0,-1.0
1.6951608527213737e+18,0.0,-2.0,-3.0,-1.0,0.0,-1.0,-2.0,-3.0
1.6951608527223514e+18,0.0,2.0,-4.0,-1.0,2.0,-2.0,1.0,0.0
1.6951608527223514e+18,-2.0,-1.0,-6.0,-2.0,1.0,-3.0,-1.0,0.0
1.69516085276133e+18,-2.0,-3.0,-4.0,0.0,-1.0,0.0,1.0,0.0
1.69516085276133e+18,-2.0,2.0,16.0,1.0,0.0,-1.0,1.0,0.0
1.6951608527623293e+18,-2.0,-1.0,-11.0,-2.0,-1.0,-1.0,-1.0,-1.0
1.6951608527623293e+18,-1.0,-2.0,-1.0,-1.0,-1.0,-1.0,1.0,-1.0
1.695160852763329e+18,0.0,-1.0,2.0,-1.0,0.0,-1.0,-2.0,1.0
1.6951608527643274e+18,-1.0,-3.0,-5.0,0.0,-1.0,1.0,0.0,0.0
1.695160852766325e+18,-2.0,-1.0,-2.0,-1.0,0.0,-1.0,-3.0,-1.0
1.695160852766325e+18,0.0,-7.0,5.0,0.0,1.0,0.0,1.0,1.0
1.6951608527893128e+18,-1.0,1.0,4.0,0.0,-2.0,0.0,0.0,0.0
1.6951608527893128e+18,-1.0,0.0,-2.0,-2.0,-1.0,-1.0,0.0,0.0
1.6951608527963103e+18,1.0,-3.0,-2.0,-2.0,-2.0,0.0,0.0,-2.0
1.695160852797308e+18,0.0,2.0,-5.0,-1.0,-1.0,0.0,-1.0,-1.0
1.6951608528132995e+18,-1.0,0.0,2.0,2.0,0.0,-1.0,-1.0,-2.0
1.6951608528203044e+18,-1.0,-5.0,-2.0,0.0,1.0,-1.0,-2.0,-1.0
1.6951608528203044e+18,-1.0,-2.0,1.0,-2.0,0.0,0.0,-1.0,-2.0
1.695160852821296e+18,-2.0,1.0,-8.0,-1.0,-2.0,-2.0,-1.0,-2.0
1.695160852821296e+18,-1.0,-1.0,5.0,1.0,-2.0,1.0,-1.0,0.0
1.695160852821296e+18,-1.0,-1.0,-2.0,-2.0,-2.0,-4.0,-2.0,-2.0
1.695160852821296e+18,0.0,-2.0,-14.0,-4.0,-1.0,1.0,-1.0,1.0
1.695160852821296e+18,-2.0,2.0,6.0,3.0,2.0,2.0,-1.0,-1.0
1.6951608528532805e+18,-3.0,-12.0,0.0,2.0,3.0,0.0,0.0,-1.0
1.6951608528532805e+18,-1.0,-5.0,2.0,1.0,1.0,0.0,1.0,-1.0
1.6951608528542756e+18,-1.0,1.0,3.0,-2.0,0.0,-3.0,-1.0,1.0
1.6951608528542756e+18,1.0,-2.0,-2.0,-3.0,-1.0,-1.0,-1.0,0.0
1.6951608528722872e+18,1.0,3.0,-5.0,-3.0,0.0,-2.0,0.0,-2.0
1.6951608528722872e+18,-3.0,-5.0,-1.0,2.0,1.0,-1.0,0.0,0.0
1.6951608528732644e+18,-3.0,1.0,1.0,0.0,-3.0,-1.0,-2.0,-1.0
1.6951608528732644e+18,0.0,1.0,-2.0,4.0,-1.0,-2.0,-1.0,0.0
1.695160852879261e+18,-1.0,-3.0,2.0,-1.0,1.0,1.0,-1.0,0.0
1.695160852879261e+18,0.0,1.0,-5.0,-2.0,-1.0,1.0,0.0,-1.0
1.695160852880262e+18,0.0,1.0,3.0,-1.0,-2.0,-2.0,-2.0,0.0
1.695160852880262e+18,-1.0,-2.0,-2.0,-3.0,0.0,0.0,-1.0,0.0
1.695160852901295e+18,-1.0,2.0,-1.0,-1.0,-2.0,-2.0,-3.0,-2.0
1.6951608529022692e+18,0.0,2.0,3.0,2.0,2.0,0.0,0.0,-2.0
1.6951608529024684e+18,-1.0,-2.0,-3.0,-1.0,0.0,0.0,0.0,-2.0
1.6951608529024684e+18,-1.0,1.0,2.0,-2.0,0.0,-2.0,0.0,-1.0
1.6951608529259302e+18,-1.0,1.0,-2.0,-1.0,-1.0,0.0,1.0,-1.0
1.6951608529259302e+18,0.0,0.0,-9.0,-5.0,-3.0,-2.0,-1.0,0.0
1.6951608529269268e+18,-3.0,-7.0,4.0,1.0,1.0,0.0,-2.0,-1.0
1.6951608529269268e+18,-3.0,-1.0,-4.0,-1.0,-1.0,-1.0,-1.0,0.0
1.6951608529409178e+18,0.0,1.0,-1.0,1.0,-1.0,-1.0,-1.0,-1.0
1.6951608529409178e+18,-2.0,-1.0,1.0,-2.0,-2.0,-2.0,-2.0,0.0
1.695160852941919e+18,0.0,-1.0,-3.0,-1.0,0.0,-1.0,0.0,-1.0
1.695160852941919e+18,-1.0,-2.0,2.0,1.0,-2.0,0.0,0.0,-3.0
1.6951608529635502e+18,1.0,0.0,3.0,-2.0,-3.0,-1.0,-1.0,0.0
1.6951608529635502e+18,1.0,2.0,-1.0,-2.0,0.0,1.0,1.0,-1.0
1.6951608529635502e+18,-1.0,-5.0,-1.0,-1.0,-1.0,0.0,0.0,0.0
1.6951608529645494e+18,0.0,1.0,0.0,0.0,1.0,0.0,1.0,0.0
1.6951608529944417e+18,0.0,0.0,4.0,-2.0,-2.0,-2.0,-2.0,0.0
1.6951608529944417e+18,-1.0,1.0,-1.0,-1.0,-2.0,-2.0,-2.0,-1.0
1.6951608529954437e+18,0.0,2.0,0.0,-1.0,1.0,0.0,0.0,0.0
1.6951608529954437e+18,2.0,0.0,4.0,-2.0,-1.0,0.0,0.0,0.0
1.6951608529994386e+18,0.0,-2.0,-6.0,0.0,0.0,1.0,1.0,0.0
1.695160853000439e+18,0.0,2.0,1.0,-3.0,0.0,0.0,0.0,0.0
1.695160853000439e+18,-1.0,1.0,1.0,1.0,-1.0,-1.0,-1.0,0.0
1.695160853002437e+18,-1.0,0.0,-4.0,-1.0,1.0,-1.0,-1.0,-1.0
1.6951608530224274e+18,-3.0,-1.0,-1.0,-4.0,1.0,-2.0,-1.0,-1.0
1.6951608530234263e+18,0.0,-1.0,-2.0,0.0,0.0,-1.0,-1.0,0.0
1.6951608530234263e+18,0.0,2.0,1.0,-2.0,-1.0,0.0,-1.0,-1.0
1.6951608530244252e+18,-1.0,0.0,0.0,-1.0,-2.0,-2.0,0.0,2.0
1.695160853053408e+18,2.0,-2.0,-5.0,0.0,-2.0,0.0,-1.0,-1.0
1.6951608530544092e+18,0.0,-1.0,2.0,0.0,0.0,0.0,-1.0,0.0
1.6951608530544092e+18,0.0,0.0,-1.0,-1.0,0.0,-1.0,-1.0,-1.0
1.6951608530554084e+18,0.0,-1.0,-3.0,0.0,-3.0,0.0,0.0,0.0
1.6951608530683994e+18,-1.0,-1.0,1.0,0.0,0.0,-2.0,0.0,-1.0
1.6951608530683994e+18,1.0,-1.0,-4.0,1.0,-2.0,0.0,0.0,-2.0
1.6951608530683994e+18,1.0,1.0,-3.0,-4.0,-1.0,-1.0,-1.0,0.0
1.6951608530694062e+18,0.0,-2.0,1.0,-1.0,0.0,1.0,0.0,-1.0
1.695160853082392e+18,1.0,-1.0,-1.0,0.0,-1.0,0.0,-1.0,0.0
1.695160853083397e+18,-1.0,-1.0,-2.0,-1.0,-1.0,0.0,-2.0,0.0
1.695160853083397e+18,0.0,-1.0,-2.0,-1.0,0.0,-3.0,0.0,0.0
1.695160853083397e+18,0.0,1.0,1.0,-1.0,-1.0,-1.0,-2.0,-1.0
1.6951608531093768e+18,0.0,3.0,0.0,-3.0,0.0,-2.0,-1.0,-2.0
1.6951608531093768e+18,-2.0,-7.0,-6.0,1.0,-1.0,-3.0,-2.0,0.0
1.6951608531153728e+18,-1.0,0.0,2.0,-1.0,-1.0,0.0,-1.0,-1.0
1.6951608531153728e+18,0.0,-2.0,-5.0,-4.0,-1.0,-1.0,-1.0,2.0
1.6951608531293645e+18,-1.0,-2.0,2.0,3.0,1.0,-1.0,-1.0,-1.0
1.6951608531303652e+18,-1.0,-1.0,0.0,-4.0,-1.0,1.0,-1.0,0.0
1.6951608531313638e+18,-3.0,-7.0,-6.0,1.0,-2.0,1.0,0.0,-2.0
1.6951608531313638e+18,-1.0,0.0,1.0,1.0,-2.0,1.0,2.0,-1.0
1.69516085315036e+18,-2.0,0.0,-1.0,-1.0,0.0,-2.0,-1.0,-1.0
1.6951608531513518e+18,0.0,0.0,-2.0,-2.0,-1.0,-1.0,-1.0,2.0
1.6951608531523525e+18,1.0,0.0,5.0,-2.0,-1.0,-1.0,0.0,-1.0
1.6951608531523525e+18,-1.0,2.0,-5.0,0.0,-1.0,0.0,0.0,-2.0
1.6951608531653448e+18,-3.0,-1.0,-4.0,-3.0,-1.0,0.0,-2.0,-2.0
1.6951608531663442e+18,-1.0,-2.0,3.0,-3.0,0.0,-1.0,1.0,0.0
1.6951608531663442e+18,-1.0,0.0,-4.0,1.0,-1.0,0.0,-2.0,0.0
1.6951608531663442e+18,-1.0,-2.0,1.0,-1.0,1.0,-2.0,-2.0,0.0
1.6951608531803348e+18,-1.0,0.0,1.0,1.0,-1.0,-2.0,0.0,1.0
1.6951608531803348e+18,-2.0,-2.0,-2.0,2.0,-1.0,-2.0,-2.0,0.0
1.6951608531813356e+18,-1.0,2.0,2.0,-1.0,-1.0,0.0,-1.0,-1.0
1.6951608531813356e+18,-2.0,-1.0,2.0,0.0,0.0,-1.0,-1.0,-2.0
1.6951608532023227e+18,-1.0,-5.0,-9.0,-2.0,-1.0,-3.0,-1.0,0.0
1.695160853203324e+18,1.0,2.0,1.0,2.0,-4.0,-3.0,-2.0,-4.0
1.695160853203324e+18,0.0,2.0,4.0,6.0,4.0,5.0,6.0,5.0
1.695160853203324e+18,1.0,-1.0,-3.0,-3.0,-2.0,1.0,2.0,0.0
1.6951608532512963e+18,1.0,0.0,-1.0,-1.0,-3.0,2.0,-2.0,-2.0
1.6951608532532946e+18,-2.0,-4.0,-2.0,-3.0,1.0,-3.0,-1.0,-3.0
1.6951608532532946e+18,-3.0,-1.0,1.0,1.0,-1.0,-3.0,0.0,-1.0
1.695160853254294e+18,-2.0,-1.0,2.0,-2.0,-5.0,-2.0,-2.0,-1.0
1.695160853254294e+18,1.0,0.0,-2.0,1.0,1.0,3.0,1.0,1.0
1.6951608532552927e+18,0.0,2.0,1.0,-2.0,2.0,1.0,0.0,-3.0
1.6951608532552927e+18,-2.0,-1.0,-4.0,-5.0,-4.0,-5.0,-3.0,-3.0
1.6951608532562916e+18,-2.0,-1.0,-5.0,1.0,0.0,0.0,-1.0,0.0
1.6951608532632878e+18,0.0,-1.0,0.0,-1.0,-2.0,-3.0,-3.0,-3.0
1.6951608532632878e+18,-1.0,1.0,0.0,-1.0,-2.0,1.0,1.0,1.0
1.695160853264294e+18,1.0,-1.0,0.0,-1.0,-5.0,-2.0,1.0,0.0
1.695160853265287e+18,0.0,-1.0,-2.0,-4.0,2.0,0.0,-2.0,0.0
1.6951608532872773e+18,-2.0,0.0,1.0,3.0,1.0,2.0,1.0,-1.0
1.6951608532882757e+18,1.0,0.0,-2.0,3.0,9.0,0.0,0.0,-2.0
1.6951608532882757e+18,0.0,0.0,-4.0,2.0,-2.0,-2.0,-3.0,-3.0
1.6951608532882757e+18,1.0,0.0,0.0,-2.0,-7.0,-2.0,-1.0,0.0
1.6951608532992663e+18,0.0,2.0,0.0,-1.0,0.0,0.0,1.0,0.0
1.6951608532992663e+18,-3.0,-1.0,-2.0,-4.0,-3.0,2.0,3.0,2.0
1.695160853307261e+18,-1.0,-3.0,-5.0,-7.0,-6.0,-4.0,-4.0,-1.0
1.695160853307261e+18,0.0,-1.0,1.0,0.0,-1.0,-4.0,-3.0,-2.0
1.6951608533222538e+18,-2.0,-3.0,1.0,-2.0,-4.0,-2.0,-3.0,-2.0
1.6951608533232525e+18,0.0,0.0,0.0,13.0,4.0,3.0,1.0,2.0
1.6951608533232525e+18,2.0,2.0,-1.0,5.0,9.0,5.0,1.0,1.0
1.6951608533242527e+18,-1.0,-2.0,-4.0,-6.0,-1.0,-1.0,-1.0,-1.0
1.69516085334424e+18,0.0,2.0,1.0,1.0,-3.0,0.0,1.0,0.0
1.6951608533452403e+18,-3.0,-3.0,-1.0,-1.0,-1.0,-6.0,-4.0,-1.0
1.6951608533452403e+18,-2.0,-2.0,0.0,1.0,-2.0,1.0,0.0,0.0
1.6951608533452403e+18,0.0,1.0,1.0,1.0,10.0,8.0,2.0,2.0
1.6951608533622305e+18,-2.0,-4.0,-6.0,-12.0,-23.0,-9.0,-3.0,-3.0
1.69516085336323e+18,-2.0,0.0,1.0,0.0,17.0,4.0,-2.0,-4.0
1.6951608533672274e+18,0.0,0.0,0.0,7.0,7.0,4.0,4.0,3.0
1.6951608533682276e+18,2.0,7.0,-1.0,-7.0,-7.0,-7.0,-1.0,-1.0
1.695160853381219e+18,-2.0,-4.0,1.0,-4.0,1.0,-1.0,-2.0,-3.0
1.6951608533822205e+18,-2.0,-7.0,0.0,-2.0,-15.0,-4.0,0.0,0.0
1.6951608533822205e+18,-7.0,-11.0,-6.0,-9.0,-5.0,-2.0,-3.0,-4.0
1.6951608533832187e+18,2.0,6.0,5.0,8.0,1.0,1.0,2.0,-1.0
1.6951608534042048e+18,1.0,6.0,1.0,3.0,11.0,1.0,0.0,1.0
1.6951608534112015e+18,-2.0,-3.0,-10.0,-13.0,-10.0,-6.0,-4.0,-3.0
1.6951608534112015e+18,0.0,2.0,1.0,3.0,5.0,1.0,-1.0,-2.0
1.6951608534112015e+18,-1.0,-5.0,1.0,-2.0,-9.0,-7.0,-3.0,0.0
1.6951608534201969e+18,0.0,-4.0,0.0,4.0,9.0,3.0,2.0,0.0
1.6951608534201969e+18,3.0,2.0,5.0,5.0,0.0,0.0,1.0,0.0
1.6951608534271918e+18,2.0,5.0,-1.0,-7.0,-7.0,-6.0,-5.0,-1.0
1.6951608534271918e+18,-8.0,-17.0,-10.0,-4.0,-4.0,-3.0,-3.0,-5.0
1.695160853457174e+18,4.0,14.0,7.0,3.0,4.0,1.0,1.0,2.0
1.695160853457174e+18,-4.0,-8.0,-2.0,-2.0,-5.0,-1.0,-1.0,-2.0
1.6951608534581742e+18,3.0,6.0,3.0,-3.0,-4.0,-4.0,-3.0,0.0
1.6951608534581742e+18,3.0,6.0,-6.0,-4.0,0.0,-3.0,-3.0,-1.0
1.6951608534811658e+18,-8.0,-31.0,-3.0,12.0,7.0,3.0,1.0,-1.0
1.6951608534811658e+18,1.0,5.0,5.0,2.0,1.0,-1.0,0.0,1.0
1.6951608534811658e+18,-3.0,-4.0,-11.0,0.0,-1.0,3.0,-1.0,-1.0
1.6951608534821617e+18,1.0,13.0,2.0,-2.0,2.0,0.0,-2.0,0.0
1.6951608534831616e+18,-8.0,-19.0,-8.0,-2.0,-2.0,2.0,0.0,0.0
1.6951608534831616e+18,2.0,2.0,-3.0,-7.0,-6.0,-3.0,-3.0,-1.0
1.6951608534941532e+18,0.0,-5.0,6.0,4.0,0.0,-1.0,0.0,0.0
1.6951608534941532e+18,2.0,0.0,-3.0,11.0,6.0,5.0,4.0,0.0
1.6951608535011712e+18,-2.0,-6.0,-8.0,-13.0,-5.0,-3.0,-1.0,0.0
1.6951608535011712e+18,1.0,3.0,3.0,0.0,1.0,3.0,2.0,1.0
1.6951608535171428e+18,-1.0,4.0,-1.0,-4.0,-2.0,-3.0,-4.0,-3.0
1.6951608535171428e+18,0.0,-1.0,7.0,8.0,0.0,-2.0,-3.0,0.0
1.6951608535321326e+18,1.0,4.0,2.0,-2.0,-3.0,-5.0,-5.0,-2.0
1.6951608535321326e+18,-2.0,-3.0,1.0,0.0,-2.0,-4.0,-1.0,-2.0
1.695160853533136e+18,-2.0,-8.0,-3.0,-4.0,1.0,2.0,1.0,-1.0
1.695160853533136e+18,-4.0,-12.0,-5.0,0.0,-2.0,1.0,0.0,-2.0
1.695160853547124e+18,2.0,13.0,3.0,2.0,1.0,2.0,-2.0,-2.0
1.695160853547124e+18,2.0,4.0,-1.0,1.0,-2.0,-2.0,-1.0,-1.0
1.695160853552142e+18,-4.0,4.0,2.0,0.0,-3.0,-3.0,0.0,-3.0
1.6951608535531203e+18,-5.0,-17.0,-7.0,-2.0,-2.0,0.0,1.0,0.0
1.6951608535701097e+18,7.0,17.0,-3.0,-12.0,-3.0,-2.0,-1.0,-1.0
1.6951608535701097e+18,2.0,5.0,4.0,3.0,3.0,-1.0,-1.0,1.0
1.6951608535701097e+18,1.0,1.0,6.0,-1.0,-1.0,0.0,1.0,-2.0
1.6951608535711124e+18,-1.0,3.0,-9.0,-9.0,-2.0,0.0,-1.0,-2.0
1.695160853592097e+18,-2.0,0.0,6.0,3.0,-3.0,-3.0,-1.0,-2.0
1.6951608535930975e+18,-3.0,-2.0,-3.0,-3.0,-2.0,0.0,-1.0,-2.0
1.6951608535930975e+18,3.0,7.0,-10.0,-11.0,-6.0,-3.0,-1.0,1.0
1.6951608535930975e+18,1.0,1.0,7.0,2.0,1.0,3.0,1.0,2.0
1.6951608536065605e+18,-1.0,-4.0,-4.0,2.0,1.0,-2.0,0.0,-2.0
1.6951608536065605e+18,1.0,3.0,-4.0,-4.0,-1.0,1.0,2.0,3.0
1.695160853607538e+18,-1.0,-6.0,-1.0,7.0,5.0,1.0,1.0,1.0
1.695160853607538e+18,-3.0,0.0,8.0,2.0,1.0,-3.0,-6.0,-3.0
1.6951608536295278e+18,-1.0,10.0,-5.0,-1.0,2.0,2.0,11.0,12.0
1.6951608536305247e+18,1.0,-9.0,-1.0,-3.0,0.0,1.0,3.0,-20.0
1.6951608536305247e+18,-1.0,2.0,0.0,0.0,1.0,1.0,1.0,-1.0
1.6951608536305247e+18,0.0,-3.0,-8.0,-6.0,-5.0,-8.0,-6.0,-1.0
1.69516085364464e+18,-6.0,-2.0,7.0,1.0,-3.0,-4.0,-5.0,-5.0
1.69516085364464e+18,7.0,7.0,6.0,-1.0,4.0,8.0,12.0,9.0
1.69516085364464e+18,-6.0,-9.0,-11.0,-1.0,1.0,7.0,7.0,-1.0
1.69516085364464e+18,0.0,-2.0,5.0,5.0,1.0,4.0,1.0,-3.0
1.6951608536585677e+18,0.0,-2.0,-2.0,-1.0,-2.0,-13.0,-24.0,-6.0
1.6951608536585677e+18,-3.0,-1.0,2.0,-1.0,-3.0,-3.0,13.0,5.0
1.6951608536665508e+18,14.0,3.0,-4.0,-3.0,-3.0,5.0,9.0,4.0
1.6951608536665508e+18,-7.0,-8.0,2.0,4.0,4.0,6.0,3.0,3.0
1.695160853683599e+18,2.0,1.0,-2.0,-4.0,-3.0,-3.0,-4.0,0.0
1.695160853683599e+18,-7.0,-6.0,-9.0,-4.0,0.0,-1.0,-9.0,0.0
1.6951608536845972e+18,0.0,0.0,8.0,5.0,0.0,-6.0,-6.0,-10.0
1.6951608536845972e+18,0.0,5.0,-7.0,-6.0,-5.0,-6.0,-7.0,1.0
1.695160853706023e+18,0.0,7.0,1.0,1.0,-3.0,4.0,11.0,-2.0
1.6951608537070218e+18,0.0,5.0,-2.0,-1.0,0.0,-6.0,-13.0,0.0
1.6951608537070218e+18,-6.0,8.0,5.0,0.0,2.0,9.0,3.0,6.0
1.6951608537070218e+18,6.0,-5.0,-3.0,3.0,5.0,5.0,15.0,0.0
1.6951608537195597e+18,-4.0,-11.0,2.0,-2.0,1.0,1.0,9.0,-3.0
1.6951608537195597e+18,-3.0,-8.0,-5.0,-1.0,-1.0,-4.0,-4.0,1.0
1.695160853726553e+18,-5.0,-8.0,0.0,-2.0,-4.0,-7.0,-14.0,-3.0
1.6951608537275617e+18,-1.0,0.0,11.0,-2.0,-5.0,-13.0,-16.0,-4.0
1.6951608537584415e+18,3.0,-1.0,-7.0,1.0,1.0,10.0,23.0,4.0
1.6951608537584415e+18,-2.0,-3.0,-5.0,0.0,-2.0,-3.0,10.0,-3.0
1.6951608537594476e+18,-2.0,-2.0,5.0,0.0,1.0,-1.0,10.0,-1.0
1.6951608537604406e+18,-2.0,0.0,-7.0,-8.0,-9.0,-7.0,3.0,-1.0
1.695160853764444e+18,0.0,-1.0,8.0,6.0,8.0,5.0,-16.0,1.0
1.695160853765438e+18,-1.0,-1.0,3.0,-1.0,-2.0,-7.0,-29.0,-6.0
1.695160853766443e+18,-1.0,-4.0,2.0,-2.0,-16.0,-11.0,2.0,1.0
1.695160853767439e+18,2.0,1.0,1.0,6.0,16.0,17.0,-11.0,1.0
1.6951608537794317e+18,-1.0,-2.0,-3.0,-4.0,-5.0,-8.0,-23.0,-4.0
1.6951608537794317e+18,0.0,5.0,11.0,15.0,8.0,23.0,24.0,7.0
1.695160853787426e+18,1.0,-1.0,-11.0,-10.0,2.0,-6.0,-17.0,-2.0
1.695160853807414e+18,-3.0,1.0,0.0,0.0,-15.0,-10.0,4.0,-3.0
1.6951608538174075e+18,-2.0,-5.0,-22.0,-14.0,-13.0,-12.0,-5.0,-1.0
1.695160853818442e+18,1.0,1.0,11.0,7.0,6.0,2.0,-9.0,2.0
1.695160853818442e+18,-3.0,-4.0,7.0,12.0,12.0,-23.0,4.0,-2.0
1.6951608538194076e+18,2.0,1.0,1.0,-13.0,0.0,45.0,8.0,1.0
1.695160853825403e+18,-3.0,0.0,3.0,7.0,24.0,9.0,10.0,-3.0
1.695160853825403e+18,-2.0,-2.0,9.0,-5.0,-29.0,-12.0,-2.0,-1.0
1.6951608538264077e+18,-1.0,-5.0,-37.0,-17.0,-18.0,-14.0,-11.0,-5.0
1.6951608538264077e+18,-1.0,2.0,0.0,-1.0,4.0,-20.0,-11.0,-5.0
1.6951608538393948e+18,0.0,3.0,15.0,15.0,17.0,12.0,4.0,1.0
1.6951608538393948e+18,1.0,2.0,9.0,-5.0,-4.0,1.0,3.0,-1.0
1.6951608538473902e+18,-1.0,-1.0,31.0,14.0,-18.0,-20.0,-23.0,-2.0
1.6951608538473902e+18,-2.0,4.0,14.0,3.0,21.0,49.0,62.0,10.0
1.6951608538633815e+18,4.0,1.0,-19.0,0.0,11.0,6.0,-4.0,-4.0
1.695160853865381e+18,0.0,-2.0,-33.0,-15.0,6.0,12.0,39.0,12.0
1.695160853865381e+18,0.0,0.0,-7.0,-8.0,-7.0,10.0,5.0,-1.0
1.6951608538663798e+18,-3.0,-4.0,-8.0,-4.0,-14.0,-31.0,-37.0,-7.0
1.6951608539013614e+18,2.0,2.0,26.0,6.0,-2.0,-11.0,8.0,0.0
1.695160853902358e+18,-4.0,1.0,15.0,12.0,2.0,-5.0,-21.0,-9.0
1.6951608539033605e+18,-4.0,-3.0,-30.0,-16.0,4.0,-5.0,-9.0,-5.0
1.6951608539033605e+18,1.0,-1.0,-2.0,10.0,-7.0,-12.0,-13.0,-3.0
1.695160853904358e+18,-3.0,-4.0,-8.0,-16.0,3.0,12.0,7.0,3.0
1.695160853904358e+18,0.0,1.0,-1.0,13.0,1.0,-11.0,-16.0,-4.0
1.6951608539063575e+18,1.0,2.0,0.0,1.0,-2.0,5.0,10.0,3.0
1.695160853907359e+18,1.0,3.0,-28.0,-26.0,4.0,2.0,-3.0,-2.0
1.695160853923347e+18,-1.0,-8.0,7.0,5.0,-17.0,-7.0,-4.0,-1.0
1.695160853923347e+18,0.0,2.0,-15.0,2.0,7.0,2.0,-1.0,-2.0
1.695160853924352e+18,-1.0,1.0,30.0,13.0,11.0,7.0,2.0,-1.0
1.695160853924352e+18,-5.0,-2.0,-10.0,-7.0,-12.0,-15.0,-3.0,-3.0
1.6951608539513316e+18,-3.0,-6.0,7.0,8.0,-9.0,-3.0,-4.0,-2.0
1.6951608539613263e+18,-2.0,0.0,6.0,-2.0,-4.0,-2.0,-5.0,-4.0
1.6951608539623483e+18,2.0,-3.0,-21.0,-13.0,4.0,-1.0,-13.0,0.0
1.6951608539623483e+18,6.0,6.0,14.0,4.0,3.0,9.0,25.0,10.0
1.695160853967321e+18,-2.0,-5.0,-28.0,-15.0,-9.0,-1.0,-3.0,-1.0
1.695160853967321e+18,0.0,-2.0,19.0,9.0,3.0,0.0,2.0,-2.0
1.69516085396832e+18,-2.0,4.0,15.0,9.0,10.0,11.0,4.0,0.0
1.69516085396832e+18,-3.0,4.0,-2.0,-19.0,-8.0,-5.0,-3.0,-3.0
1.6951608539973028e+18,0.0,1.0,10.0,27.0,-4.0,-12.0,-7.0,-4.0
1.695160853998303e+18,-2.0,-4.0,-10.0,-19.0,-7.0,-4.0,-5.0,-3.0
1.695160853998303e+18,-1.0,-4.0,-13.0,-10.0,-1.0,6.0,1.0,0.0
1.6951608539993027e+18,-1.0,2.0,7.0,12.0,-1.0,-7.0,-6.0,-1.0
1.6951608540282867e+18,1.0,3.0,-10.0,-10.0,-3.0,-2.0,0.0,1.0
1.6951608540282867e+18,0.0,2.0,-1.0,-1.0,2.0,-1.0,-8.0,-2.0
1.695160854037281e+18,-1.0,-3.0,11.0,8.0,4.0,8.0,9.0,2.0
1.695160854037281e+18,-3.0,-11.0,-23.0,-4.0,0.0,-6.0,-5.0,-2.0
1.6951608540382807e+18,2.0,8.0,17.0,7.0,-2.0,2.0,0.0,0.0
1.6951608540382807e+18,-4.0,-9.0,-15.0,-8.0,-6.0,-6.0,-3.0,0.0
1.6951608540392837e+18,0.0,1.0,3.0,-6.0,7.0,7.0,4.0,1.0
1.6951608540392837e+18,1.0,4.0,6.0,7.0,-2.0,-5.0,-4.0,-2.0
1.6951608540502733e+18,-2.0,-3.0,7.0,10.0,1.0,-4.0,-3.0,-2.0
1.6951608540512732e+18,-1.0,-4.0,-29.0,-12.0,-7.0,1.0,0.0,1.0
1.6951608540512732e+18,-1.0,3.0,-31.0,-47.0,-13.0,-1.0,-3.0,-2.0
1.6951608540522767e+18,-1.0,0.0,13.0,14.0,5.0,-2.0,-3.0,1.0
1.6951608540642662e+18,0.0,2.0,2.0,-19.0,0.0,1.0,2.0,-1.0
1.6951608540652646e+18,-1.0,6.0,-5.0,-1.0,-7.0,-3.0,-2.0,-1.0
1.6951608540722593e+18,0.0,-4.0,3.0,8.0,-1.0,0.0,1.0,0.0
1.6951608540722593e+18,-2.0,0.0,9.0,20.0,2.0,-3.0,-1.0,-4.0
1.6951608540922478e+18,2.0,8.0,-3.0,-13.0,-3.0,-4.0,-3.0,0.0
1.6951608540972452e+18,0.0,-4.0,16.0,11.0,5.0,5.0,7.0,0.0
1.6951608540972452e+18,1.0,1.0,-5.0,12.0,-4.0,-4.0,-10.0,-2.0
1.6951608540972452e+18,-2.0,-2.0,-1.0,-7.0,0.0,-3.0,1.0,-1.0
1.6951608541012598e+18,1.0,2.0,-7.0,-18.0,-4.0,8.0,13.0,5.0
1.6951608541022423e+18,-7.0,-11.0,5.0,6.0,3.0,-2.0,-5.0,-5.0
1.6951608541092603e+18,3.0,4.0,-4.0,2.0,1.0,2.0,8.0,5.0
1.6951608541092603e+18,1.0,0.0,16.0,23.0,1.0,-3.0,-12.0,-1.0
1.695160854140221e+18,-3.0,-8.0,-31.0,-24.0,-4.0,-4.0,-6.0,-4.0
1.695160854140221e+18,1.0,2.0,22.0,21.0,4.0,0.0,5.0,3.0
1.695160854140221e+18,-1.0,0.0,13.0,8.0,-1.0,2.0,-1.0,-2.0
1.69516085414122e+18,-1.0,-1.0,-4.0,20.0,0.0,-6.0,-9.0,-3.0
1.695160854146219e+18,-1.0,-1.0,2.0,-15.0,-8.0,-8.0,-24.0,-2.0
1.6951608541472225e+18,1.0,3.0,-14.0,-9.0,8.0,9.0,8.0,0.0
1.6951608541472225e+18,-1.0,-1.0,18.0,18.0,6.0,0.0,3.0,0.0
1.6951608541472225e+18,0.0,-1.0,4.0,0.0,5.0,8.0,2.0,-1.0
1.6951608541652283e+18,-1.0,1.0,9.0,9.0,1.0,-2.0,10.0,0.0
1.6951608541662054e+18,0.0,-3.0,-11.0,-4.0,-10.0,-13.0,-10.0,-3.0
1.6951608541662054e+18,-2.0,0.0,4.0,3.0,6.0,-5.0,-21.0,-4.0
1.6951608541662054e+18,-1.0,-2.0,-15.0,-30.0,-5.0,13.0,29.0,0.0
1.6951608541841948e+18,-1.0,-2.0,6.0,17.0,5.0,1.0,-6.0,0.0
1.6951608541841948e+18,-1.0,1.0,-2.0,-4.0,2.0,-1.0,7.0,1.0
1.6951608541851948e+18,1.0,-1.0,-2.0,-5.0,-10.0,-3.0,5.0,-1.0
1.6951608541851948e+18,-3.0,-8.0,2.0,-2.0,2.0,0.0,-3.0,0.0
1.6951608542062062e+18,1.0,2.0,0.0,13.0,1.0,0.0,3.0,0.0
1.6951608542071823e+18,-2.0,5.0,-4.0,-4.0,-5.0,0.0,-7.0,-3.0
1.695160854214188e+18,-1.0,-1.0,1.0,-5.0,6.0,-2.0,-4.0,-1.0
1.695160854214188e+18,1.0,0.0,-2.0,9.0,-2.0,-5.0,-7.0,0.0
1.6951608542211958e+18,-3.0,-6.0,-14.0,-17.0,-4.0,0.0,4.0,-2.0
1.695160854222173e+18,-1.0,-3.0,-3.0,-8.0,0.0,-2.0,-8.0,-1.0
1.695160854222173e+18,-1.0,-4.0,2.0,10.0,5.0,2.0,6.0,-1.0
1.695160854222173e+18,-1.0,0.0,3.0,-4.0,-5.0,-2.0,0.0,3.0
1.6951608542621522e+18,-2.0,-2.0,-10.0,-10.0,-2.0,1.0,2.0,-3.0
1.6951608542631503e+18,0.0,2.0,3.0,-3.0,-6.0,-8.0,-16.0,-3.0
1.6951608542631503e+18,0.0,2.0,10.0,12.0,4.0,7.0,19.0,6.0
1.6951608542631503e+18,0.0,-3.0,-13.0,-18.0,-8.0,-15.0,-17.0,-7.0
1.6951608542666127e+18,1.0,1.0,3.0,8.0,1.0,12.0,26.0,3.0
1.6951608542666127e+18,-1.0,2.0,5.0,6.0,9.0,8.0,-1.0,-1.0
1.695160854267616e+18,1.0,4.0,-7.0,-7.0,-5.0,8.0,19.0,2.0
1.695160854267616e+18,0.0,4.0,-5.0,-9.0,-3.0,-5.0,1.0,-1.0
1.6951608542896049e+18,-2.0,-4.0,5.0,1.0,-8.0,-7.0,-11.0,-3.0
1.6951608542896049e+18,-1.0,-7.0,8.0,9.0,2.0,-2.0,-2.0,0.0
1.6951608542906058e+18,1.0,0.0,-12.0,-3.0,1.0,-1.0,0.0,-1.0
1.6951608542906058e+18,-2.0,-7.0,11.0,-2.0,-2.0,-1.0,-4.0,-1.0
1.69516085431259e+18,-1.0,-3.0,5.0,32.0,11.0,2.0,-2.0,0.0
1.69516085431259e+18,1.0,1.0,-5.0,-18.0,-6.0,-2.0,5.0,-1.0
1.69516085431259e+18,-3.0,-3.0,-2.0,-10.0,-3.0,-4.0,-11.0,-1.0
1.69516085431259e+18,2.0,7.0,-1.0,-4.0,-2.0,0.0,-3.0,-2.0
1.6951608543515932e+18,-3.0,-3.0,-1.0,3.0,-2.0,-1.0,-5.0,-1.0
1.6951608543515932e+18,-1.0,-2.0,-3.0,1.0,1.0,-1.0,-1.0,0.0
1.6951608543515932e+18,1.0,3.0,1.0,4.0,2.0,3.0,-1.0,1.0
1.6951608543515932e+18,-2.0,-3.0,-12.0,-16.0,1.0,1.0,-1.0,1.0
1.6951608543536064e+18,-2.0,1.0,7.0,0.0,-3.0,-5.0,-10.0,-2.0
1.6951608543536064e+18,0.0,1.0,-2.0,5.0,-1.0,4.0,8.0,2.0
1.695160854377578e+18,-1.0,0.0,6.0,13.0,1.0,-1.0,-7.0,-4.0
1.6951608543875707e+18,0.0,0.0,-17.0,-25.0,1.0,-2.0,-3.0,0.0
1.6951608543875707e+18,-2.0,-5.0,5.0,8.0,-8.0,-5.0,-9.0,-5.0
1.6951608543885699e+18,1.0,2.0,6.0,3.0,2.0,-3.0,-2.0,-1.0
1.6951608543895785e+18,0.0,-1.0,-14.0,-10.0,-3.0,-3.0,-5.0,-3.0
1.6951608543895785e+18,-3.0,-10.0,-6.0,2.0,-1.0,-3.0,-2.0,0.0
1.6951608543895785e+18,-1.0,-3.0,-4.0,-5.0,-1.0,0.0,-1.0,-1.0
1.6951608543895785e+18,1.0,4.0,-6.0,-10.0,-3.0,-1.0,1.0,0.0
1.6951608543895785e+18,0.0,-2.0,-2.0,-9.0,-2.0,0.0,-2.0,-2.0
1.6951608543905974e+18,0.0,3.0,8.0,17.0,3.0,-1.0,2.0,1.0
1.6951608544055603e+18,-1.0,-1.0,-10.0,-13.0,-5.0,-4.0,0.0,-3.0
1.6951608544055603e+18,0.0,-1.0,-9.0,-11.0,4.0,1.0,2.0,1.0
1.6951608544065615e+18,-2.0,1.0,10.0,16.0,2.0,-3.0,-7.0,-1.0
1.6951608544075635e+18,-1.0,-7.0,-8.0,-28.0,-5.0,2.0,2.0,1.0
1.6951608544265513e+18,2.0,4.0,14.0,32.0,10.0,5.0,7.0,3.0
1.695160854427548e+18,-3.0,-8.0,-6.0,-14.0,-5.0,-5.0,-5.0,-3.0
1.695160854427548e+18,-1.0,1.0,-6.0,-1.0,-4.0,0.0,2.0,0.0
1.695160854427548e+18,1.0,0.0,0.0,6.0,-2.0,-2.0,-2.0,-1.0
1.6951608545005043e+18,1.0,3.0,-10.0,-29.0,0.0,0.0,1.0,-1.0
1.6951608545005043e+18,-1.0,2.0,1.0,7.0,-1.0,-1.0,-2.0,-1.0
1.6951608545005043e+18,0.0,-4.0,-9.0,-15.0,-2.0,0.0,-1.0,-1.0
1.6951608545005043e+18,0.0,0.0,-2.0,9.0,0.0,0.0,0.0,0.0
1.6951608545005043e+18,-3.0,-3.0,-5.0,-15.0,-4.0,-4.0,-3.0,-3.0
1.6951608545005043e+18,-1.0,0.0,-7.0,-15.0,-3.0,1.0,0.0,-3.0
1.6951608545005043e+18,-1.0,-1.0,4.0,16.0,-1.0,-2.0,-1.0,-1.0
1.6951608545005043e+18,0.0,2.0,10.0,9.0,3.0,1.0,0.0,-1.0
1.6951608545015035e+18,2.0,0.0,-4.0,-6.0,-1.0,-1.0,0.0,1.0
1.6951608545015035e+18,-1.0,-2.0,-2.0,3.0,1.0,1.0,-1.0,0.0
1.6951608545015035e+18,0.0,-1.0,8.0,8.0,0.0,-3.0,0.0,-1.0
1.6951608545015035e+18,0.0,0.0,-3.0,-10.0,-3.0,0.0,-2.0,-1.0
1.6951608545414807e+18,0.0,0.0,2.0,6.0,2.0,-1.0,-1.0,-2.0
1.6951608545414807e+18,0.0,0.0,1.0,2.0,-1.0,-2.0,0.0,0.0
1.6951608545414807e+18,-2.0,-4.0,-5.0,-9.0,-2.0,-1.0,-2.0,0.0
1.6951608545414807e+18,0.0,2.0,5.0,10.0,1.0,-1.0,0.0,-1.0
1.6951608545414807e+18,-1.0,-1.0,-4.0,-8.0,-2.0,-2.0,-1.0,-2.0
1.6951608545414807e+18,0.0,0.0,0.0,3.0,0.0,0.0,-1.0,0.0
1.6951608545414807e+18,-1.0,-1.0,-1.0,-3.0,-2.0,0.0,0.0,-1.0
1.6951608545424806e+18,-1.0,-1.0,3.0,7.0,-1.0,-1.0,-1.0,-1.0
1.695160854554474e+18,0.0,1.0,-1.0,-1.0,1.0,1.0,1.0,0.0
1.695160854554474e+18,-1.0,-1.0,1.0,5.0,1.0,0.0,-2.0,-1.0
1.695160854554474e+18,-1.0,-1.0,-1.0,-1.0,0.0,0.0,-1.0,-1.0
1.6951608545554724e+18,-2.0,0.0,0.0,2.0,2.0,1.0,-1.0,-1.0
1.6951608545794586e+18,1.0,-2.0,2.0,-3.0,0.0,-1.0,-2.0,0.0
1.6951608545794586e+18,1.0,0.0,-8.0,1.0,-2.0,-1.0,0.0,1.0
1.6951608545804575e+18,-2.0,-3.0,1.0,-5.0,-4.0,0.0,-3.0,-1.0
1.6951608545804575e+18,-1.0,-1.0,2.0,2.0,-3.0,-14.0,-3.0,-1.0
1.695160854589452e+18,0.0,-2.0,0.0,1.0,-3.0,0.0,-1.0,0.0
1.6951608545904525e+18,-1.0,-1.0,3.0,7.0,7.0,13.0,0.0,0.0
1.6951608545904525e+18,-3.0,-6.0,7.0,-6.0,-1.0,-16.0,4.0,0.0
1.6951608545904525e+18,8.0,2.0,-8.0,-2.0,-2.0,19.0,1.0,0.0
1.695160854604445e+18,-12.0,4.0,-3.0,3.0,9.0,8.0,3.0,0.0
1.695160854604445e+18,30.0,3.0,2.0,-1.0,-8.0,1.0,5.0,6.0
1.695160854604445e+18,-8.0,0.0,-2.0,1.0,6.0,-1.0,-2.0,-4.0
1.6951608546054436e+18,2.0,-3.0,-7.0,-5.0,-2.0,-12.0,-1.0,11.0
1.6951608546264315e+18,-8.0,-2.0,-4.0,0.0,-3.0,-3.0,-4.0,-18.0
1.6951608546264315e+18,-6.0,-1.0,9.0,3.0,3.0,1.0,-2.0,-4.0
1.695160854627431e+18,-15.0,-1.0,-8.0,-4.0,-3.0,-3.0,-3.0,0.0
1.695160854627431e+18,4.0,1.0,9.0,0.0,-6.0,-5.0,-3.0,-1.0
1.6951608546814e+18,3.0,1.0,-11.0,-5.0,-5.0,-4.0,-2.0,3.0
1.6951608546814e+18,-5.0,-1.0,-5.0,-2.0,2.0,-3.0,0.0,1.0
1.6951608546814e+18,4.0,-2.0,4.0,2.0,6.0,6.0,4.0,0.0
1.6951608546824033e+18,-9.0,-4.0,2.0,3.0,4.0,3.0,0.0,-2.0
1.6951608546834056e+18,2.0,-4.0,2.0,-2.0,-2.0,1.0,-1.0,1.0
1.6951608546834056e+18,-7.0,-2.0,-6.0,-3.0,-4.0,-9.0,-4.0,-4.0
1.695160854686398e+18,2.0,0.0,0.0,-4.0,-2.0,0.0,-2.0,1.0
1.6951608546873969e+18,-3.0,-1.0,-5.0,3.0,2.0,4.0,2.0,-3.0
1.6951608546965496e+18,8.0,4.0,3.0,-8.0,1.0,-3.0,1.0,3.0
1.6951608546965496e+18,-8.0,-12.0,12.0,8.0,-4.0,-5.0,-3.0,-4.0
1.6951608546965496e+18,4.0,5.0,7.0,-1.0,0.0,4.0,-3.0,-2.0
1.6951608546975567e+18,1.0,0.0,-12.0,-3.0,2.0,0.0,0.0,2.0
1.695160854701461e+18,0.0,1.0,0.0,-2.0,-2.0,-6.0,0.0,0.0
1.695160854701461e+18,-4.0,3.0,2.0,0.0,1.0,0.0,1.0,-1.0
1.6951608547095544e+18,3.0,-1.0,-1.0,3.0,-1.0,4.0,-1.0,0.0
1.6951608547095544e+18,-4.0,0.0,8.0,3.0,2.0,-2.0,-3.0,-4.0
1.6951608547326016e+18,-2.0,0.0,-5.0,1.0,1.0,3.0,-3.0,0.0
1.6951608547336008e+18,-2.0,-2.0,-4.0,-2.0,-3.0,-2.0,-2.0,0.0
1.6951608547336008e+18,3.0,-7.0,-8.0,-2.0,-5.0,1.0,-2.0,1.0
1.6951608547336008e+18,-2.0,5.0,12.0,-1.0,2.0,7.0,2.0,-1.0
1.6951608547475382e+18,0.0,3.0,4.0,3.0,0.0,-1.0,2.0,3.0
1.6951608547475382e+18,0.0,-2.0,3.0,-2.0,3.0,3.0,-2.0,0.0
1.695160854748539e+18,-1.0,0.0,1.0,1.0,1.0,-10.0,-1.0,-1.0
1.695160854748539e+18,-1.0,-2.0,-13.0,-3.0,-4.0,5.0,0.0,0.0
1.695160854761558e+18,0.0,-5.0,-1.0,1.0,3.0,2.0,-2.0,0.0
1.695160854761558e+18,0.0,4.0,1.0,0.0,-1.0,-6.0,-1.0,-2.0
1.6951608547700572e+18,-2.0,-1.0,-4.0,-3.0,0.0,-1.0,-1.0,0.0
1.6951608547710564e+18,-2.0,-2.0,-2.0,0.0,-1.0,-4.0,-1.0,-2.0
1.6951608547990423e+18,2.0,1.0,1.0,1.0,-2.0,-1.0,0.0,0.0
1.6951608547990423e+18,-2.0,-1.0,-10.0,-5.0,-1.0,2.0,1.0,-1.0
1.6951608548000407e+18,1.0,0.0,-2.0,-1.0,-1.0,0.0,-1.0,-2.0
1.69516085480104e+18,0.0,-1.0,2.0,1.0,-1.0,-1.0,0.0,-1.0
1.6951608548080369e+18,-1.0,-2.0,-2.0,-1.0,0.0,-1.0,-1.0,-1.0
1.6951608548100416e+18,-2.0,1.0,-5.0,-3.0,-1.0,-2.0,-1.0,-1.0
1.6951608548100416e+18,0.0,-1.0,-4.0,-2.0,-1.0,2.0,0.0,0.0
1.6951608548110362e+18,-1.0,-1.0,3.0,0.0,1.0,-3.0,-2.0,0.0
1.6951608548210268e+18,0.0,-2.0,0.0,-2.0,-2.0,-1.0,0.0,-1.0
1.695160854822032e+18,-2.0,-1.0,-2.0,-2.0,-2.0,-1.0,-1.0,-2.0
1.695160854839017e+18,1.0,0.0,2.0,1.0,0.0,1.0,0.0,-2.0
1.6951608548400154e+18,0.0,3.0,-3.0,-1.0,-2.0,-3.0,-2.0,-1.0
1.6951608548520092e+18,0.0,-4.0,3.0,3.0,0.0,-1.0,-1.0,-1.0
1.6951608548530097e+18,0.0,-4.0,2.0,1.0,0.0,-1.0,-1.0,0.0
1.6951608548530097e+18,2.0,-1.0,-2.0,0.0,-1.0,0.0,-1.0,-1.0
1.6951608548530097e+18,-2.0,-2.0,-1.0,-1.0,0.0,-1.0,-1.0,-2.0
1.6951608548670006e+18,-1.0,-2.0,-1.0,-1.0,-1.0,-1.0,-2.0,-1.0
1.6951608548670006e+18,-2.0,-2.0,-3.0,-3.0,-2.0,2.0,0.0,0.0
1.6951608548680005e+18,1.0,2.0,1.0,-1.0,-2.0,0.0,-1.0,0.0
1.6951608548680005e+18,-2.0,-7.0,-4.0,0.0,-1.0,-2.0,-2.0,2.0
1.6951608548809915e+18,-1.0,-1.0,-1.0,1.0,0.0,-2.0,0.0,2.0
1.695160854881992e+18,0.0,2.0,-3.0,-3.0,-1.0,-1.0,-1.0,-1.0
1.6951608549029821e+18,-3.0,-1.0,-4.0,-2.0,-1.0,-3.0,-2.0,-1.0
1.6951608549079795e+18,-2.0,1.0,2.0,-3.0,-2.0,-1.0,0.0,0.0
1.6951608549089795e+18,-2.0,-2.0,1.0,-1.0,0.0,-2.0,-1.0,-2.0
1.6951608549089795e+18,0.0,-1.0,0.0,0.0,-2.0,-3.0,0.0,1.0
1.6951608549099763e+18,0.0,0.0,4.0,-2.0,0.0,1.0,-2.0,1.0
1.695160854910975e+18,1.0,-2.0,-10.0,-1.0,0.0,-1.0,-1.0,-3.0
1.695160854926966e+18,-1.0,-1.0,0.0,0.0,-1.0,-2.0,-1.0,0.0
1.695160854926966e+18,0.0,1.0,-3.0,-1.0,-2.0,0.0,2.0,0.0
1.69516085492797e+18,-1.0,0.0,-2.0,-2.0,0.0,2.0,1.0,-1.0
1.69516085492797e+18,-4.0,-1.0,-1.0,-1.0,-3.0,-1.0,-2.0,-2.0
1.6951608549599606e+18,-2.0,0.0,-5.0,-2.0,-3.0,-1.0,-1.0,-3.0
1.6951608549609477e+18,0.0,1.0,-3.0,-2.0,1.0,-2.0,-3.0,-1.0
1.6951608549609477e+18,-1.0,-4.0,0.0,-1.0,-1.0,-1.0,1.0,0.0
1.6951608549619466e+18,-1.0,2.0,-1.0,-1.0,0.0,0.0,0.0,0.0
1.6951608549659443e+18,0.0,-2.0,1.0,0.0,0.0,-2.0,0.0,-1.0
1.6951608549669437e+18,-1.0,0.0,1.0,1.0,-1.0,0.0,0.0,0.0
1.695160854967947e+18,0.0,1.0,-4.0,-1.0,-1.0,0.0,-2.0,-1.0
1.695160854967947e+18,0.0,0.0,-2.0,1.0,-1.0,0.0,0.0,0.0
1.695160854986933e+18,-1.0,-2.0,4.0,-2.0,-1.0,0.0,0.0,-1.0
1.695160854986933e+18,-1.0,-1.0,0.0,-2.0,-1.0,0.0,-2.0,-2.0
1.695160854986933e+18,-1.0,-1.0,4.0,0.0,0.0,2.0,1.0,-2.0
1.6951608549879332e+18,0.0,-1.0,2.0,1.0,0.0,-2.0,2.0,0.0
1.6951608550119273e+18,-1.0,1.0,-2.0,-3.0,-1.0,-2.0,0.0,0.0
1.695160855012917e+18,-1.0,1.0,-7.0,-1.0,-1.0,-3.0,-1.0,-1.0
1.695160855012917e+18,0.0,-3.0,3.0,2.0,0.0,0.0,1.0,2.0
1.695160855012917e+18,0.0,1.0,7.0,1.0,-1.0,0.0,-3.0,-2.0
1.695160855031927e+18,-2.0,-5.0,-6.0,1.0,0.0,3.0,0.0,0.0
1.6951608550329065e+18,0.0,1.0,0.0,-3.0,-2.0,-1.0,0.0,1.0
1.6951608550329065e+18,-4.0,-3.0,-3.0,1.0,1.0,-3.0,0.0,-3.0
1.6951608550329065e+18,0.0,0.0,3.0,0.0,-1.0,-2.0,-1.0,-2.0
1.6951608550468992e+18,-1.0,6.0,-6.0,-5.0,-5.0,-1.0,-2.0,0.0
1.6951608550468992e+18,-2.0,-7.0,3.0,2.0,2.0,0.0,-1.0,-3.0
1.6951608550468992e+18,-1.0,-2.0,-5.0,-3.0,-3.0,-2.0,-2.0,0.0
1.6951608550479058e+18,-6.0,-13.0,7.0,4.0,4.0,2.0,1.0,1.0
1.6951608550778783e+18,4.0,6.0,-4.0,-3.0,-3.0,-4.0,-2.0,0.0
1.6951608550778783e+18,-3.0,-5.0,2.0,0.0,0.0,3.0,-1.0,-1.0
1.695160855078901e+18,3.0,3.0,-6.0,-5.0,-4.0,-3.0,-2.0,1.0
1.695160855078901e+18,-7.0,-3.0,-6.0,3.0,3.0,1.0,-2.0,-6.0
1.6951608550838976e+18,1.0,12.0,-8.0,-3.0,-2.0,-3.0,-2.0,0.0
1.6951608550838976e+18,-3.0,1.0,7.0,3.0,2.0,2.0,0.0,-3.0
1.695160855091873e+18,-1.0,-6.0,-4.0,-1.0,1.0,0.0,-1.0,-2.0
1.695160855091873e+18,3.0,0.0,-6.0,-6.0,-3.0,-4.0,-1.0,3.0
1.6951608551066534e+18,1.0,13.0,-17.0,-9.0,-7.0,-6.0,-2.0,-1.0
1.6951608551066534e+18,-3.0,-17.0,15.0,8.0,4.0,2.0,3.0,1.0
1.695160855107657e+18,-1.0,-6.0,2.0,1.0,-1.0,0.0,0.0,-1.0
1.695160855107657e+18,2.0,-2.0,9.0,0.0,-2.0,0.0,1.0,0.0
1.6951608551305293e+18,1.0,-4.0,6.0,4.0,2.0,1.0,2.0,0.0
1.6951608551305293e+18,2.0,19.0,-18.0,-15.0,-14.0,-7.0,-5.0,0.0
1.6951608551305293e+18,-8.0,-11.0,8.0,4.0,2.0,2.0,-1.0,-4.0
1.6951608551305293e+18,-3.0,1.0,-11.0,-2.0,-2.0,1.0,-1.0,-2.0
1.6951608551442767e+18,-4.0,-9.0,-1.0,0.0,0.0,0.0,0.0,-3.0
1.6951608551442767e+18,5.0,8.0,-14.0,-4.0,-3.0,-3.0,-3.0,-1.0
1.6951608551452805e+18,-2.0,4.0,4.0,-2.0,3.0,-1.0,-1.0,-1.0
1.6951608551452805e+18,3.0,13.0,-7.0,-7.0,-6.0,-5.0,-1.0,-1.0
1.69516085516727e+18,-6.0,-5.0,-3.0,2.0,3.0,4.0,-3.0,-5.0
1.69516085516727e+18,1.0,-1.0,-1.0,-2.0,0.0,-3.0,-2.0,0.0
1.6951608551752655e+18,-2.0,13.0,-13.0,-6.0,-1.0,0.0,-1.0,0.0
1.6951608551752655e+18,1.0,-2.0,6.0,-2.0,-2.0,-1.0,-1.0,1.0
1.695160855205247e+18,1.0,-13.0,18.0,5.0,2.0,-1.0,1.0,1.0
1.695160855206256e+18,0.0,-4.0,0.0,2.0,4.0,0.0,1.0,-2.0
1.695160855206256e+18,0.0,-7.0,13.0,1.0,-2.0,2.0,1.0,-1.0
1.695160855207254e+18,-2.0,-7.0,4.0,1.0,1.0,-1.0,0.0,-1.0
1.695160855208252e+18,-1.0,0.0,0.0,-1.0,-3.0,-1.0,0.0,1.0
1.695160855208252e+18,-2.0,-3.0,1.0,1.0,0.0,1.0,-2.0,-1.0
1.695160855208252e+18,3.0,4.0,-8.0,-2.0,-3.0,-3.0,-1.0,0.0
1.695160855208252e+18,0.0,1.0,0.0,-1.0,-3.0,0.0,-1.0,-1.0
1.695160855228235e+18,0.0,-4.0,-1.0,-1.0,0.0,0.0,-3.0,-2.0
1.695160855228235e+18,-2.0,-1.0,-1.0,-2.0,1.0,-1.0,-2.0,0.0
1.695160855228235e+18,0.0,2.0,-1.0,-2.0,-1.0,-3.0,1.0,-2.0
1.6951608552292347e+18,0.0,-5.0,-8.0,-3.0,-1.0,-1.0,-2.0,-1.0
1.6951608552582172e+18,-3.0,1.0,9.0,2.0,0.0,-3.0,-1.0,0.0
1.6951608552582172e+18,-1.0,-2.0,0.0,1.0,-1.0,-2.0,0.0,0.0
1.6951608552582172e+18,0.0,-1.0,1.0,1.0,0.0,0.0,-2.0,-1.0
1.6951608552592243e+18,0.0,1.0,0.0,0.0,1.0,-1.0,0.0,1.0
1.6951608552732145e+18,-1.0,-6.0,-5.0,0.0,-1.0,1.0,-1.0,0.0
1.6951608552742083e+18,-3.0,-10.0,3.0,2.0,2.0,3.0,1.0,0.0
1.6951608552752064e+18,-1.0,-1.0,-1.0,0.0,0.0,2.0,0.0,0.0
1.6951608552752064e+18,-7.0,-5.0,2.0,3.0,3.0,1.0,1.0,-3.0
1.6951608552872e+18,0.0,2.0,-4.0,-3.0,-2.0,-1.0,-1.0,-2.0
1.6951608552882076e+18,1.0,-4.0,4.0,1.0,-5.0,-1.0,0.0,1.0
1.6951608552882076e+18,-3.0,0.0,0.0,1.0,1.0,-1.0,-1.0,0.0
1.6951608552892206e+18,5.0,4.0,-4.0,-2.0,-3.0,-2.0,-3.0,-1.0
1.6951608553141847e+18,-1.0,-2.0,-1.0,-2.0,-3.0,1.0,-1.0,0.0
1.6951608553141847e+18,0.0,4.0,-4.0,-1.0,-4.0,1.0,0.0,-1.0
1.6951608553151867e+18,0.0,0.0,3.0,-3.0,-3.0,-1.0,0.0,0.0
1.695160855335173e+18,0.0,-3.0,-2.0,0.0,0.0,-4.0,-1.0,-2.0
1.695160855335173e+18,-2.0,0.0,4.0,0.0,-1.0,-2.0,-1.0,0.0
1.6951608553362081e+18,-2.0,-1.0,-6.0,0.0,2.0,-1.0,0.0,-2.0
1.6951608553491656e+18,-1.0,2.0,-1.0,-1.0,-1.0,-2.0,-1.0,0.0
1.6951608553491656e+18,-2.0,-4.0,5.0,2.0,0.0,1.0,0.0,-1.0
1.6951608553501711e+18,1.0,1.0,-4.0,-1.0,1.0,0.0,-3.0,-2.0
1.6951608553511642e+18,3.0,5.0,0.0,-3.0,-1.0,-4.0,-2.0,-1.0
1.6951608553511642e+18,0.0,-4.0,0.0,3.0,3.0,1.0,0.0,-1.0
1.6951608553521636e+18,-1.0,2.0,-5.0,-3.0,-1.0,0.0,-1.0,-2.0
1.6951608553711534e+18,-3.0,-5.0,15.0,4.0,1.0,2.0,3.0,0.0
1.6951608553721577e+18,0.0,2.0,-4.0,-4.0,-1.0,-1.0,-1.0,-1.0
1.6951608553721577e+18,0.0,5.0,-6.0,-1.0,-1.0,-2.0,-3.0,-2.0
1.6951608553731584e+18,0.0,-1.0,-1.0,-2.0,-3.0,-2.0,0.0,1.0
1.6951608553851448e+18,-2.0,-1.0,-10.0,-2.0,-2.0,-1.0,-2.0,0.0
1.6951608553851448e+18,0.0,-1.0,1.0,-1.0,-1.0,-2.0,-2.0,-1.0
1.6951608553861463e+18,0.0,5.0,-12.0,-5.0,-4.0,-3.0,0.0,-1.0
1.6951608553861463e+18,-1.0,3.0,-2.0,-2.0,0.0,2.0,-2.0,-1.0
1.6951608554101317e+18,0.0,2.0,-1.0,-4.0,-4.0,-2.0,1.0,0.0
1.695160855411131e+18,-1.0,0.0,1.0,2.0,-1.0,2.0,-1.0,0.0
1.6951608554121308e+18,1.0,1.0,3.0,0.0,-3.0,-1.0,-1.0,0.0
1.69516085541313e+18,-5.0,-11.0,-3.0,1.0,1.0,2.0,0.0,-3.0
1.6951608554301292e+18,1.0,2.0,3.0,-3.0,-1.0,-4.0,0.0,0.0
1.6951608554311186e+18,-5.0,-15.0,7.0,4.0,3.0,2.0,1.0,-1.0
1.695160855432118e+18,-1.0,-7.0,4.0,0.0,-1.0,-1.0,0.0,0.0
1.695160855432118e+18,-1.0,1.0,1.0,-1.0,0.0,-2.0,1.0,1.0
1.6951608554601e+18,-3.0,-8.0,2.0,4.0,3.0,1.0,1.0,-1.0
1.6951608554610995e+18,-1.0,2.0,0.0,-1.0,0.0,-3.0,-1.0,0.0
1.6951608554610995e+18,-2.0,-8.0,-11.0,-2.0,-2.0,-3.0,-1.0,-1.0
1.6951608554610995e+18,-2.0,-9.0,8.0,2.0,4.0,1.0,0.0,0.0
1.6951608554670956e+18,0.0,0.0,-5.0,-3.0,-3.0,-1.0,0.0,0.0
1.6951608554670956e+18,0.0,4.0,-2.0,-3.0,-1.0,-1.0,-1.0,-1.0
1.6951608554670956e+18,-4.0,-2.0,3.0,2.0,2.0,3.0,-1.0,-3.0
1.6951608554681065e+18,4.0,5.0,-4.0,-5.0,-3.0,-2.0,-1.0,0.0
1.695160855490083e+18,-1.0,-6.0,3.0,1.0,2.0,0.0,0.0,0.0
1.695160855490083e+18,-2.0,-1.0,-4.0,-2.0,-2.0,0.0,-1.0,1.0
1.6951608554910822e+18,1.0,-2.0,-2.0,-1.0,-2.0,-3.0,-2.0,-1.0
1.6951608554910822e+18,0.0,0.0,0.0,-2.0,-2.0,1.0,-1.0,0.0
1.6951608555040745e+18,2.0,4.0,-1.0,1.0,0.0,1.0,-2.0,-2.0
1.6951608555040745e+18,-1.0,1.0,2.0,1.0,1.0,-1.0,0.0,-1.0
1.6951608555120696e+18,1.0,1.0,-8.0,-2.0,-1.0,-1.0,-1.0,0.0
1.6951608555120696e+18,1.0,2.0,0.0,0.0,-3.0,-2.0,-1.0,1.0
1.6951608555290665e+18,-1.0,-1.0,-4.0,0.0,-2.0,-3.0,-1.0,-2.0
1.6951608555300662e+18,-1.0,0.0,-2.0,-2.0,-2.0,-1.0,0.0,0.0
1.6951608555300662e+18,0.0,0.0,1.0,0.0,0.0,-1.0,0.0,-1.0
1.695160855531073e+18,-3.0,-5.0,1.0,1.0,1.0,0.0,0.0,1.0
1.6951608555500485e+18,-2.0,0.0,-5.0,-1.0,-1.0,2.0,-1.0,1.0
1.6951608555500485e+18,-1.0,0.0,1.0,-1.0,1.0,0.0,0.0,-2.0
1.6951608555510482e+18,0.0,-1.0,3.0,-2.0,-3.0,-1.0,-1.0,0.0
1.6951608555520512e+18,1.0,4.0,-7.0,0.0,-1.0,-2.0,-1.0,-2.0
1.6951608555640404e+18,-1.0,-1.0,0.0,-2.0,-3.0,-1.0,0.0,0.0
1.6951608555640404e+18,0.0,-2.0,-1.0,0.0,-1.0,-1.0,0.0,-2.0
1.6951608555720356e+18,-1.0,-1.0,0.0,1.0,2.0,0.0,-1.0,0.0
1.6951608555720356e+18,1.0,4.0,-1.0,-2.0,-3.0,-3.0,-1.0,-2.0
1.695160855599022e+18,-1.0,-2.0,0.0,0.0,1.0,0.0,0.0,0.0
1.695160855600021e+18,2.0,3.0,-3.0,-1.0,0.0,-3.0,-1.0,0.0
1.695160855600021e+18,0.0,-8.0,5.0,0.0,0.0,1.0,0.0,-1.0
1.6951608556010235e+18,-1.0,0.0,-1.0,-1.0,-3.0,0.0,-1.0,-2.0
1.6951608556100137e+18,-1.0,2.0,-5.0,-2.0,-2.0,-2.0,0.0,-2.0
1.6951608556110136e+18,1.0,5.0,-1.0,-2.0,-4.0,-1.0,-3.0,-2.0
1.6951608556110136e+18,-1.0,1.0,-1.0,-1.0,0.0,0.0,0.0,-1.0
1.6951608556110136e+18,-1.0,1.0,3.0,-3.0,-4.0,-1.0,-2.0,1.0
1.6951608556240064e+18,-2.0,-5.0,-9.0,-2.0,-2.0,0.0,0.0,-1.0
1.6951608556240064e+18,1.0,-1.0,-1.0,-2.0,-3.0,0.0,0.0,-1.0
1.6951608556320013e+18,0.0,-2.0,3.0,0.0,-1.0,-1.0,0.0,0.0
1.6951608556320013e+18,-1.0,1.0,-2.0,-2.0,-2.0,-2.0,-1.0,-1.0
1.695160855646994e+18,-2.0,-1.0,2.0,1.0,0.0,2.0,0.0,-1.0
1.695160855647993e+18,0.0,-3.0,-1.0,-2.0,1.0,2.0,-1.0,0.0
1.695160855647993e+18,-3.0,-2.0,-4.0,1.0,0.0,-1.0,-1.0,0.0
1.695160855647993e+18,2.0,5.0,-4.0,-5.0,-1.0,-3.0,0.0,0.0
1.6951608556699796e+18,3.0,2.0,-1.0,-1.0,-1.0,-3.0,0.0,1.0
1.6951608556699796e+18,-3.0,-5.0,-2.0,1.0,0.0,1.0,1.0,0.0
1.6951608556769764e+18,1.0,2.0,-2.0,-2.0,-1.0,0.0,-2.0,-1.0
1.695160855677976e+18,0.0,1.0,0.0,1.0,0.0,0.0,0.0,-1.0
1.6951608556839718e+18,-2.0,0.0,3.0,0.0,-1.0,-3.0,-2.0,-1.0
1.6951608556839718e+18,-1.0,-3.0,-5.0,0.0,-1.0,-2.0,0.0,0.0
1.695160855698967e+18,-2.0,1.0,-2.0,-1.0,-1.0,-2.0,-1.0,-1.0
1.6951608556999626e+18,-2.0,-3.0,-1.0,1.0,-1.0,0.0,0.0,-1.0
1.6951608557069586e+18,1.0,-2.0,-2.0,-2.0,0.0,0.0,-1.0,0.0
1.6951608557079578e+18,-1.0,-1.0,1.0,0.0,-2.0,0.0,0.0,0.0
1.6951608557079578e+18,-1.0,0.0,0.0,-1.0,-1.0,0.0,2.0,-1.0
1.6951608557089572e+18,-1.0,-3.0,-2.0,2.0,-1.0,1.0,-1.0,-2.0
1.6951608557389404e+18,1.0,-1.0,1.0,-1.0,-2.0,-1.0,0.0,-1.0
1.6951608557389404e+18,-2.0,-5.0,4.0,2.0,0.0,1.0,0.0,-1.0
1.6951608557389404e+18,1.0,2.0,-2.0,-2.0,-1.0,-2.0,-2.0,0.0
1.6951608557399409e+18,-1.0,-3.0,0.0,2.0,1.0,1.0,0.0,1.0
1.6951608557529326e+18,-2.0,-1.0,-1.0,-1.0,-1.0,1.0,-1.0,-1.0
1.6951608557529326e+18,0.0,0.0,-3.0,-3.0,-4.0,-4.0,-1.0,1.0
1.695160855753932e+18,-3.0,-2.0,-1.0,-2.0,-1.0,0.0,-2.0,0.0
1.695160855753932e+18,-4.0,-13.0,10.0,4.0,2.0,1.0,1.0,0.0
1.695160855766924e+18,-1.0,-3.0,-10.0,-1.0,2.0,1.0,0.0,-2.0
1.695160855766924e+18,-2.0,0.0,0.0,-2.0,-1.0,-2.0,-1.0,-1.0
1.695160855767924e+18,1.0,2.0,-2.0,-1.0,-1.0,-1.0,0.0,-2.0
1.695160855767924e+18,1.0,0.0,-7.0,-3.0,-1.0,-3.0,-1.0,-2.0
1.6951608557899151e+18,1.0,-2.0,2.0,-1.0,-1.0,-2.0,-3.0,-2.0
1.695160855790911e+18,-1.0,-2.0,1.0,1.0,0.0,-1.0,1.0,-3.0
1.695160855790911e+18,0.0,0.0,0.0,-1.0,-4.0,0.0,0.0,-1.0
1.69516085579191e+18,-2.0,2.0,-3.0,-1.0,-3.0,-1.0,-1.0,-1.0
1.6951608558138998e+18,-3.0,-1.0,1.0,0.0,0.0,1.0,1.0,-1.0
1.6951608558138998e+18,0.0,2.0,-6.0,-3.0,-3.0,-2.0,-2.0,-1.0
1.6951608558148977e+18,-1.0,-1.0,0.0,0.0,0.0,-1.0,-1.0,0.0
1.695160855815898e+18,-1.0,-1.0,-4.0,-1.0,1.0,-2.0,0.0,0.0
1.6951608558278907e+18,2.0,2.0,0.0,1.0,0.0,-2.0,-3.0,-2.0
1.6951608558278907e+18,0.0,1.0,-1.0,-1.0,0.0,-2.0,0.0,1.0
1.6951608558278907e+18,0.0,4.0,-7.0,-3.0,-4.0,-2.0,-2.0,-1.0
1.695160855828889e+18,0.0,-8.0,4.0,0.0,1.0,2.0,-1.0,0.0
1.6951608558498885e+18,0.0,0.0,-2.0,-1.0,-3.0,-1.0,-1.0,0.0
1.695160855850876e+18,-1.0,-2.0,1.0,0.0,0.0,0.0,1.0,-1.0
1.695160855850876e+18,0.0,-1.0,1.0,-1.0,-1.0,-1.0,-1.0,-1.0
1.695160855850876e+18,1.0,4.0,-4.0,-1.0,0.0,1.0,-1.0,-1.0
1.6951608558738683e+18,-2.0,-1.0,2.0,0.0,-1.0,0.0,1.0,-1.0
1.6951608558788662e+18,0.0,0.0,-1.0,-3.0,-2.0,0.0,-1.0,-2.0
1.6951608558788662e+18,-1.0,-3.0,1.0,2.0,1.0,1.0,0.0,0.0
1.6951608558798848e+18,-1.0,1.0,-4.0,-1.0,-1.0,-1.0,-2.0,-3.0
1.6951608559028462e+18,-1.0,-3.0,3.0,1.0,0.0,0.0,0.0,1.0
1.6951608559028462e+18,-4.0,-4.0,2.0,2.0,2.0,1.0,2.0,-1.0
1.6951608559038477e+18,0.0,1.0,2.0,1.0,1.0,1.0,0.0,0.0
1.6951608559038477e+18,-2.0,1.0,0.0,-2.0,-1.0,-2.0,-1.0,-1.0
1.6951608559248374e+18,-3.0,-4.0,-12.0,-1.0,0.0,-1.0,-1.0,2.0
1.695160855925834e+18,1.0,5.0,-4.0,-3.0,-2.0,-2.0,-1.0,0.0
1.695160855925834e+18,-1.0,-2.0,1.0,1.0,0.0,2.0,0.0,-1.0
1.6951608559268334e+18,-1.0,1.0,-3.0,-3.0,-3.0,0.0,-1.0,0.0
1.695160855938825e+18,1.0,1.0,2.0,0.0,0.0,0.0,0.0,-1.0
1.6951608559398244e+18,0.0,2.0,0.0,-3.0,-1.0,-1.0,-1.0,0.0
1.6951608559398244e+18,-1.0,-1.0,-2.0,1.0,1.0,-1.0,0.0,-1.0
1.6951608559398244e+18,1.0,1.0,-1.0,-2.0,0.0,-2.0,0.0,0.0
1.6951608559548168e+18,-1.0,0.0,0.0,-1.0,-2.0,-3.0,-1.0,-2.0
1.6951608559548168e+18,0.0,1.0,-4.0,-1.0,-1.0,-1.0,-1.0,1.0
1.6951608559558208e+18,0.0,-1.0,-4.0,-3.0,-3.0,-2.0,-2.0,0.0
1.6951608559558208e+18,0.0,0.0,0.0,0.0,-2.0,-1.0,1.0,-1.0
1.6951608559718108e+18,-3.0,-4.0,1.0,1.0,0.0,0.0,-1.0,0.0
1.6951608559718108e+18,-3.0,-2.0,0.0,0.0,-1.0,-1.0,-1.0,0.0
1.695160855972808e+18,0.0,-1.0,-2.0,-2.0,-1.0,-2.0,0.0,-1.0
1.695160855972808e+18,1.0,1.0,1.0,0.0,-1.0,-4.0,0.0,1.0
1.6951608559927944e+18,0.0,3.0,-1.0,-1.0,-1.0,-1.0,-2.0,-2.0
1.6951608559927944e+18,0.0,1.0,0.0,-1.0,-1.0,2.0,-1.0,1.0
1.6951608559927944e+18,-1.0,-2.0,0.0,2.0,1.0,1.0,-1.0,0.0
1.6951608559927944e+18,-1.0,-2.0,-1.0,-1.0,0.0,0.0,0.0,0.0
1.695160856007787e+18,0.0,2.0,2.0,-1.0,2.0,-1.0,0.0,0.0
1.695160856007787e+18,0.0,-2.0,0.0,-1.0,-1.0,-3.0,-1.0,-1.0
1.695160856007787e+18,-3.0,-8.0,6.0,1.0,2.0,2.0,3.0,1.0
1.695160856007787e+18,-1.0,1.0,-1.0,0.0,-2.0,0.0,-1.0,-1.0
1.6951608560287951e+18,-3.0,-5.0,3.0,1.0,3.0,4.0,1.0,-2.0
1.6951608560297754e+18,1.0,-2.0,0.0,0.0,-1.0,0.0,0.0,0.0
1.6951608560297754e+18,-3.0,-1.0,-3.0,-1.0,-2.0,-1.0,-2.0,-2.0
1.6951608560297754e+18,-2.0,-1.0,1.0,0.0,2.0,0.0,-2.0,-3.0
1.6951608560517617e+18,2.0,3.0,-3.0,-3.0,-4.0,-2.0,0.0,0.0
1.6951608560527608e+18,-1.0,-2.0,2.0,0.0,2.0,-1.0,0.0,0.0
1.6951608560527608e+18,0.0,0.0,0.0,1.0,-3.0,0.0,0.0,1.0
1.695160856053766e+18,1.0,-1.0,-1.0,1.0,-2.0,1.0,0.0,-2.0
1.6951608560717514e+18,3.0,2.0,-1.0,-3.0,-4.0,0.0,-1.0,0.0
1.6951608560717514e+18,-2.0,-3.0,-1.0,-1.0,0.0,-1.0,0.0,-2.0
1.6951608560717514e+18,2.0,0.0,-2.0,-2.0,0.0,-2.0,-2.0,0.0
1.6951608560717514e+18,-1.0,-2.0,4.0,-1.0,-1.0,1.0,-1.0,2.0
1.6951608560892083e+18,-2.0,-3.0,-5.0,-1.0,0.0,1.0,-1.0,-1.0
1.6951608560892083e+18,-1.0,-1.0,-1.0,0.0,0.0,0.0,-2.0,-2.0
1.6951608560902167e+18,-1.0,-1.0,0.0,-1.0,-2.0,-2.0,0.0,-2.0
1.6951608560902167e+18,-1.0,1.0,-3.0,-3.0,-2.0,-3.0,-1.0,1.0
1.695160856113089e+18,1.0,5.0,3.0,-1.0,-4.0,-3.0,1.0,0.0
1.695160856113089e+18,-3.0,-4.0,-6.0,1.0,-1.0,1.0,0.0,0.0
1.6951608561140887e+18,-1.0,1.0,-1.0,-4.0,-2.0,-1.0,-1.0,0.0
1.6951608561140887e+18,-2.0,-5.0,3.0,2.0,1.0,0.0,-1.0,0.0
1.6951608561270784e+18,-1.0,1.0,1.0,-1.0,0.0,-2.0,-3.0,-2.0
1.6951608561270784e+18,0.0,0.0,-1.0,0.0,0.0,1.0,0.0,-1.0
1.6951608561280776e+18,1.0,0.0,2.0,1.0,0.0,0.0,0.0,-1.0
1.6951608561280776e+18,-1.0,-1.0,-3.0,-2.0,-1.0,1.0,1.0,0.0
1.695160856158062e+18,-1.0,-3.0,1.0,0.0,-1.0,-2.0,-1.0,0.0
1.695160856158062e+18,0.0,2.0,-1.0,-1.0,-1.0,-1.0,-2.0,0.0
1.6951608561590605e+18,-2.0,-1.0,4.0,-3.0,-3.0,-3.0,-1.0,-1.0
1.6951608561590605e+18,0.0,-1.0,-11.0,-1.0,0.0,-2.0,-2.0,-2.0
1.695160856173053e+18,-3.0,-2.0,3.0,0.0,2.0,3.0,1.0,-1.0
1.695160856173053e+18,1.0,-1.0,0.0,-5.0,-7.0,-3.0,-2.0,-2.0
1.6951608561740516e+18,2.0,1.0,-1.0,8.0,7.0,2.0,-2.0,2.0
1.6951608561740516e+18,0.0,-1.0,4.0,-2.0,-11.0,-4.0,-4.0,-3.0
1.695160856187044e+18,-1.0,-4.0,1.0,0.0,8.0,2.0,-2.0,-2.0
1.6951608561880443e+18,-4.0,-2.0,3.0,3.0,-4.0,-1.0,-2.0,-3.0
1.6951608561880443e+18,-1.0,1.0,-1.0,-3.0,-5.0,-1.0,2.0,0.0
1.6951608561880443e+18,0.0,-2.0,-1.0,-3.0,-2.0,-2.0,-4.0,-5.0
1.6951608562170486e+18,-3.0,-1.0,-4.0,-6.0,-10.0,-5.0,3.0,0.0
1.6951608562180257e+18,0.0,0.0,0.0,14.0,24.0,8.0,2.0,1.0
1.6951608562180257e+18,-1.0,-1.0,-4.0,-3.0,-3.0,-2.0,-1.0,-1.0
1.6951608562180257e+18,-1.0,0.0,3.0,-1.0,0.0,2.0,3.0,0.0
1.695160856232018e+18,0.0,-1.0,-1.0,0.0,-3.0,1.0,-3.0,-2.0
1.695160856232018e+18,-3.0,-1.0,-3.0,-8.0,-5.0,-3.0,0.0,-2.0
1.6951608562330166e+18,-2.0,-1.0,-4.0,-1.0,-4.0,-3.0,-1.0,-1.0
1.6951608562330166e+18,0.0,-2.0,-4.0,-3.0,-4.0,-4.0,-1.0,0.0
1.695160856247009e+18,0.0,-1.0,2.0,-1.0,-7.0,-5.0,-4.0,0.0
1.6951608562480305e+18,1.0,1.0,-1.0,1.0,-1.0,-1.0,1.0,0.0
1.6951608562490296e+18,0.0,-1.0,-2.0,1.0,1.0,2.0,2.0,1.0
1.6951608562490296e+18,-2.0,-1.0,-2.0,-3.0,-1.0,-2.0,-1.0,-2.0
1.6951608562691791e+18,-2.0,-1.0,-3.0,2.0,5.0,2.0,-1.0,0.0
1.6951608562691791e+18,0.0,0.0,1.0,-4.0,-3.0,0.0,-3.0,-1.0
1.6951608562701816e+18,-2.0,-1.0,1.0,-1.0,-3.0,2.0,0.0,-1.0
1.6951608562701816e+18,1.0,2.0,0.0,1.0,4.0,1.0,2.0,0.0
1.6951608562945687e+18,2.0,-2.0,-2.0,-3.0,-4.0,-4.0,-4.0,-1.0
1.6951608562955692e+18,-2.0,-1.0,1.0,0.0,-4.0,0.0,2.0,-1.0
1.6951608562955692e+18,-1.0,1.0,0.0,-2.0,1.0,-2.0,-4.0,-1.0
1.6951608562955692e+18,-1.0,0.0,-1.0,2.0,2.0,-1.0,5.0,1.0
1.695160856307206e+18,-1.0,0.0,-4.0,-2.0,-1.0,1.0,1.0,-1.0
1.6951608563082015e+18,0.0,-1.0,0.0,-1.0,-4.0,-2.0,-3.0,-1.0
1.695160856310201e+18,0.0,-1.0,-2.0,0.0,1.0,-5.0,-8.0,-4.0
1.695160856310201e+18,-1.0,0.0,0.0,0.0,2.0,-3.0,-14.0,0.0
1.6951608563311885e+18,-1.0,-1.0,-1.0,-2.0,-2.0,1.0,5.0,-2.0
1.6951608563321981e+18,-1.0,-3.0,-6.0,-10.0,-6.0,-7.0,-1.0,-2.0
1.6951608563321981e+18,1.0,2.0,0.0,0.0,-2.0,1.0,-1.0,-2.0
1.6951608563331937e+18,-1.0,0.0,2.0,1.0,3.0,2.0,0.0,1.0
1.6951608563531748e+18,0.0,-1.0,0.0,5.0,6.0,1.0,0.0,-1.0
1.6951608563541816e+18,0.0,2.0,0.0,-2.0,-1.0,4.0,1.0,3.0
1.695160856355175e+18,-3.0,-5.0,-5.0,-4.0,-3.0,-6.0,-7.0,-3.0
1.695160856355175e+18,-3.0,-1.0,0.0,1.0,-4.0,-3.0,-4.0,-4.0
1.6951608563671688e+18,-3.0,-10.0,-4.0,2.0,1.0,0.0,6.0,-1.0
1.6951608563681674e+18,1.0,-2.0,-1.0,1.0,2.0,3.0,1.0,3.0
1.6951608563681674e+18,0.0,1.0,3.0,-8.0,-8.0,-7.0,-5.0,-2.0
1.6951608563691674e+18,1.0,0.0,-7.0,-11.0,-4.0,6.0,8.0,2.0
1.6951608563911547e+18,1.0,6.0,2.0,5.0,10.0,4.0,0.0,2.0
1.6951608563951867e+18,3.0,7.0,4.0,2.0,4.0,-1.0,-5.0,-2.0
1.6951608563961505e+18,-5.0,-16.0,-9.0,1.0,-3.0,1.0,2.0,-3.0
1.695160856397156e+18,-3.0,-1.0,-2.0,-1.0,-2.0,-3.0,1.0,-1.0
1.6951608564131438e+18,-1.0,-8.0,-3.0,-8.0,-8.0,-3.0,-5.0,0.0
1.6951608564131438e+18,1.0,3.0,5.0,7.0,12.0,9.0,4.0,2.0
1.6951608564141422e+18,4.0,3.0,0.0,-4.0,-1.0,0.0,3.0,3.0
1.695160856415154e+18,-4.0,-6.0,5.0,9.0,-1.0,-1.0,-1.0,0.0
1.6951608564361283e+18,2.0,5.0,-11.0,-12.0,-10.0,-8.0,-7.0,0.0
1.6951608564381266e+18,-2.0,-5.0,5.0,2.0,-3.0,-1.0,2.0,-1.0
1.6951608564381266e+18,-1.0,-2.0,-4.0,-1.0,6.0,7.0,7.0,3.0
1.6951608564391273e+18,1.0,-6.0,-9.0,-2.0,-2.0,-1.0,-3.0,-1.0
1.6951608564571146e+18,-1.0,6.0,11.0,11.0,2.0,0.0,-2.0,-1.0
1.6951608564581138e+18,2.0,10.0,1.0,-1.0,-4.0,-3.0,-1.0,-1.0
1.6951608564581138e+18,-5.0,-12.0,-8.0,-1.0,-1.0,-3.0,-3.0,-2.0
1.6951608564591137e+18,0.0,-1.0,2.0,-8.0,-2.0,0.0,0.0,-1.0
1.6951608564801027e+18,-4.0,-16.0,9.0,4.0,3.0,1.0,-1.0,-1.0
1.6951608564801027e+18,1.0,2.0,-4.0,-4.0,-8.0,-5.0,-3.0,-2.0
1.6951608564811016e+18,-2.0,-4.0,5.0,0.0,1.0,-1.0,-2.0,-1.0
1.6951608564811016e+18,-5.0,-7.0,1.0,2.0,5.0,0.0,-2.0,-1.0
1.6951608564861002e+18,2.0,-5.0,-1.0,-6.0,0.0,2.0,2.0,0.0
1.6951608564870991e+18,0.0,-3.0,-5.0,-2.0,-4.0,-6.0,-4.0,-1.0
1.6951608564960927e+18,0.0,3.0,7.0,3.0,2.0,0.0,2.0,1.0
1.6951608564970926e+18,-2.0,-6.0,2.0,5.0,0.0,-2.0,-2.0,-2.0
1.6951608565100849e+18,4.0,13.0,-5.0,-4.0,-1.0,3.0,5.0,4.0
1.6951608565100849e+18,-5.0,-9.0,-4.0,-9.0,-1.0,-2.0,-2.0,-2.0
1.6951608565110845e+18,0.0,-5.0,-3.0,3.0,1.0,1.0,-1.0,-2.0
1.6951608565110845e+18,1.0,2.0,-2.0,-5.0,-5.0,-5.0,-3.0,0.0
1.695160856534071e+18,-4.0,2.0,3.0,8.0,3.0,2.0,3.0,0.0
1.695160856534071e+18,3.0,7.0,2.0,-8.0,-7.0,-4.0,-2.0,1.0
1.695160856534071e+18,-3.0,-4.0,-19.0,-6.0,-2.0,-1.0,1.0,-3.0
1.6951608565350707e+18,0.0,7.0,7.0,3.0,0.0,-1.0,0.0,-4.0
1.695160856548063e+18,-1.0,-7.0,-1.0,0.0,-3.0,-2.0,-4.0,0.0
1.695160856548063e+18,0.0,-5.0,6.0,3.0,4.0,1.0,-2.0,-2.0
1.695160856562054e+18,4.0,15.0,10.0,0.0,1.0,3.0,2.0,2.0
1.695160856562054e+18,0.0,-3.0,-11.0,-1.0,0.0,0.0,1.0,0.0
1.695160856570049e+18,-4.0,2.0,-5.0,-2.0,-5.0,-7.0,-7.0,-4.0
1.6951608565710495e+18,-8.0,-12.0,4.0,5.0,1.0,0.0,3.0,-2.0
1.6951608565710495e+18,4.0,0.0,-10.0,1.0,-1.0,1.0,3.0,1.0
1.6951608565710495e+18,0.0,3.0,12.0,6.0,3.0,2.0,-1.0,2.0
1.6951608566000328e+18,-3.0,-4.0,-5.0,1.0,1.0,2.0,5.0,-2.0
1.6951608566000328e+18,-3.0,-7.0,-29.0,-7.0,-5.0,-5.0,-7.0,-1.0
1.6951608566010322e+18,-1.0,2.0,2.0,-4.0,-2.0,-4.0,-4.0,-3.0
1.6951608566010322e+18,-1.0,-1.0,2.0,1.0,4.0,2.0,3.0,0.0
1.6951608566060332e+18,1.0,1.0,4.0,1.0,6.0,11.0,7.0,2.0
1.6951608566060332e+18,2.0,7.0,9.0,2.0,0.0,0.0,4.0,6.0
1.69516085662202e+18,4.0,4.0,-12.0,-3.0,-1.0,-4.0,-6.0,-4.0
1.69516085662202e+18,-1.0,-2.0,-7.0,-2.0,-1.0,-1.0,-2.0,1.0
1.6951608566449057e+18,-1.0,4.0,7.0,-3.0,-3.0,-7.0,-8.0,-2.0
1.6951608566449057e+18,1.0,-4.0,0.0,-2.0,-1.0,0.0,1.0,8.0
1.695160856645914e+18,0.0,3.0,1.0,1.0,-1.0,-5.0,-5.0,-12.0
1.695160856645914e+18,3.0,-1.0,6.0,-3.0,2.0,5.0,4.0,-3.0
1.695160856652644e+18,-11.0,-3.0,-9.0,-1.0,-4.0,-8.0,-10.0,-2.0
1.6951608566536074e+18,-3.0,-9.0,-23.0,-4.0,-3.0,3.0,1.0,-15.0
1.6951608566536074e+18,-2.0,0.0,13.0,-1.0,0.0,-1.0,-7.0,6.0
1.6951608566536074e+18,-2.0,1.0,-3.0,-1.0,-4.0,-9.0,-4.0,0.0
1.6951608566745956e+18,-4.0,1.0,2.0,1.0,0.0,12.0,17.0,-3.0
1.6951608566745956e+18,-2.0,-3.0,-11.0,-6.0,-3.0,-4.0,-7.0,-4.0
1.695160856682593e+18,7.0,2.0,1.0,2.0,4.0,-8.0,-18.0,-1.0
1.6951608566835937e+18,-14.0,-1.0,-5.0,0.0,4.0,6.0,10.0,-4.0
1.6951608566985815e+18,4.0,5.0,1.0,-3.0,-3.0,-3.0,3.0,4.0
1.6951608566995853e+18,-2.0,2.0,6.0,-3.0,-7.0,0.0,-5.0,1.0
1.6951608566995853e+18,1.0,2.0,-1.0,3.0,-1.0,0.0,3.0,0.0
1.695160856700581e+18,1.0,2.0,8.0,3.0,2.0,-5.0,-7.0,2.0
1.695160856712573e+18,0.0,-3.0,-7.0,-4.0,-2.0,-8.0,-13.0,-3.0
1.695160856713573e+18,0.0,-1.0,10.0,4.0,3.0,2.0,5.0,-2.0
1.695160856713573e+18,-6.0,-7.0,-9.0,-4.0,-6.0,-1.0,1.0,-1.0
1.695160856713573e+18,1.0,-7.0,-10.0,-6.0,-4.0,-5.0,-7.0,-2.0
1.6951608567355604e+18,0.0,-1.0,7.0,2.0,2.0,12.0,19.0,2.0
1.695160856736559e+18,2.0,2.0,9.0,-3.0,-1.0,-1.0,1.0,-4.0
1.695160856737559e+18,-6.0,-5.0,-8.0,4.0,-3.0,1.0,10.0,4.0
1.695160856737559e+18,0.0,1.0,13.0,3.0,4.0,2.0,0.0,0.0
1.6951608567495519e+18,3.0,-2.0,-3.0,4.0,0.0,-15.0,-21.0,-6.0
1.6951608567495519e+18,-5.0,-4.0,-10.0,-4.0,3.0,3.0,-1.0,2.0
1.695160856756572e+18,-1.0,3.0,9.0,-1.0,-3.0,-3.0,-7.0,-3.0
1.695160856757551e+18,0.0,1.0,-9.0,-13.0,-13.0,4.0,7.0,-1.0
1.695160856779558e+18,0.0,-3.0,2.0,-1.0,2.0,-9.0,-23.0,-6.0
1.695160856780535e+18,-1.0,-1.0,-1.0,8.0,-3.0,3.0,-1.0,1.0
1.695160856780535e+18,-4.0,-5.0,6.0,-2.0,13.0,-2.0,-33.0,-9.0
1.695160856781537e+18,2.0,1.0,1.0,11.0,6.0,13.0,8.0,9.0
1.6951608567955313e+18,-2.0,-5.0,-10.0,-15.0,5.0,3.0,-6.0,-2.0
1.6951608567955313e+18,1.0,5.0,9.0,6.0,-27.0,-17.0,24.0,4.0
1.695160856796528e+18,-3.0,-2.0,-5.0,-10.0,-9.0,13.0,14.0,2.0
1.695160856796528e+18,3.0,2.0,-9.0,-6.0,24.0,0.0,-4.0,-3.0
1.6951608568095173e+18,3.0,6.0,6.0,5.0,5.0,2.0,-5.0,-1.0
1.6951608568105183e+18,-6.0,-6.0,-23.0,-19.0,12.0,7.0,-13.0,-8.0
1.6951608568105183e+18,0.0,1.0,2.0,-7.0,-19.0,-48.0,5.0,1.0
1.6951608568105183e+18,2.0,-1.0,-6.0,-5.0,-10.0,42.0,20.0,6.0
1.6951608568405005e+18,1.0,3.0,9.0,21.0,18.0,10.0,4.0,2.0
1.6951608568405005e+18,3.0,1.0,-6.0,-8.0,-2.0,6.0,1.0,-3.0
1.6951608568405005e+18,-7.0,-5.0,-14.0,-9.0,-10.0,-15.0,-19.0,-12.0
1.695160856841503e+18,6.0,7.0,14.0,31.0,-1.0,-16.0,32.0,17.0
1.6951608568554913e+18,-4.0,-4.0,-21.0,-29.0,-3.0,16.0,-10.0,-12.0
1.6951608568554913e+18,2.0,5.0,-5.0,8.0,14.0,18.0,8.0,8.0
1.695160856869483e+18,1.0,0.0,7.0,1.0,17.0,3.0,5.0,4.0
1.695160856870507e+18,-4.0,-4.0,-5.0,-19.0,-33.0,-30.0,-27.0,-13.0
1.695160856870507e+18,-5.0,-6.0,-3.0,11.0,-12.0,-7.0,11.0,0.0
1.695160856870507e+18,2.0,2.0,22.0,17.0,1.0,-11.0,-14.0,-7.0
1.6951608568774784e+18,-1.0,5.0,0.0,-13.0,16.0,25.0,10.0,2.0
1.695160856878482e+18,1.0,-7.0,-18.0,-26.0,-2.0,-5.0,-6.0,4.0
1.6951608568924746e+18,-3.0,0.0,14.0,10.0,-13.0,-12.0,-4.0,-3.0
1.6951608568934694e+18,0.0,-1.0,-11.0,-7.0,9.0,-2.0,0.0,2.0
1.6951608568934694e+18,1.0,2.0,21.0,22.0,-5.0,7.0,-1.0,0.0
1.6951608568944694e+18,-4.0,0.0,-26.0,-16.0,-4.0,-8.0,-5.0,-4.0
1.6951608569144607e+18,-1.0,1.0,-2.0,-21.0,-8.0,2.0,-2.0,-2.0
1.6951608569154573e+18,0.0,4.0,17.0,33.0,8.0,-4.0,-4.0,0.0
1.6951608569154573e+18,-2.0,-1.0,4.0,-2.0,-12.0,5.0,13.0,0.0
1.6951608569164567e+18,1.0,-1.0,-8.0,-37.0,1.0,1.0,0.0,-3.0
1.695160856938445e+18,1.0,-6.0,-44.0,1.0,0.0,-5.0,3.0,2.0
1.6951608569404426e+18,-6.0,0.0,30.0,18.0,-4.0,-12.0,-7.0,-7.0
1.6951608569404426e+18,-9.0,-5.0,-18.0,9.0,19.0,19.0,7.0,-1.0
1.6951608569414413e+18,12.0,-5.0,-5.0,-22.0,-9.0,-9.0,-7.0,3.0
1.695160856960432e+18,0.0,4.0,20.0,17.0,4.0,-1.0,6.0,4.0
1.695160856960432e+18,-2.0,-12.0,-28.0,-21.0,-4.0,-1.0,-9.0,-2.0
1.695160856961431e+18,2.0,-1.0,-6.0,-20.0,-11.0,-2.0,17.0,1.0
1.695160856961431e+18,-4.0,2.0,9.0,7.0,6.0,2.0,-4.0,-3.0
1.6951608569754268e+18,0.0,2.0,28.0,39.0,-1.0,-5.0,0.0,2.0
1.695160856976425e+18,1.0,5.0,-2.0,-21.0,0.0,-3.0,-7.0,1.0
1.695160856977422e+18,0.0,5.0,0.0,13.0,4.0,11.0,8.0,4.0
1.695160856977422e+18,-4.0,-4.0,-36.0,-14.0,0.0,0.0,-3.0,-6.0
1.6951608570154033e+18,3.0,4.0,18.0,15.0,-2.0,1.0,10.0,4.0
1.6951608570154033e+18,-5.0,5.0,2.0,8.0,0.0,-2.0,-4.0,-3.0
1.6951608570154033e+18,2.0,-3.0,-4.0,-8.0,-6.0,-6.0,-7.0,0.0
1.6951608570163996e+18,-3.0,4.0,16.0,31.0,6.0,0.0,1.0,-5.0
1.6951608570173996e+18,2.0,-1.0,3.0,-14.0,-6.0,-7.0,-1.0,0.0
1.6951608570173996e+18,2.0,5.0,-13.0,-10.0,10.0,9.0,2.0,2.0
1.6951608570203976e+18,-2.0,-7.0,19.0,25.0,0.0,6.0,2.0,1.0
1.6951608570203976e+18,-3.0,-6.0,-1.0,-3.0,2.0,2.0,-5.0,-2.0
1.6951608570353882e+18,-5.0,0.0,-2.0,-22.0,-5.0,-6.0,-6.0,-5.0
1.6951608570353882e+18,-2.0,-7.0,4.0,6.0,-5.0,-6.0,2.0,2.0
1.6951608570353882e+18,5.0,5.0,6.0,-5.0,1.0,-2.0,-7.0,2.0
1.6951608570363873e+18,-2.0,0.0,18.0,37.0,8.0,0.0,-1.0,-1.0
1.6951608570573898e+18,-3.0,-5.0,-10.0,0.0,-2.0,4.0,10.0,1.0
1.6951608570573898e+18,0.0,5.0,-19.0,-25.0,-7.0,-4.0,-5.0,-4.0
1.6951608570583744e+18,-2.0,-18.0,14.0,13.0,1.0,4.0,7.0,0.0
1.6951608570583744e+18,1.0,7.0,30.0,16.0,0.0,-3.0,-3.0,1.0
1.6951608570873595e+18,0.0,-2.0,7.0,-7.0,3.0,4.0,-1.0,0.0
1.6951608570873595e+18,0.0,1.0,19.0,7.0,-5.0,-2.0,2.0,2.0
1.6951608570883574e+18,0.0,8.0,-13.0,2.0,3.0,-4.0,-7.0,-2.0
1.6951608570883574e+18,-1.0,-22.0,-1.0,2.0,1.0,1.0,2.0,2.0
1.6951608571063685e+18,0.0,-1.0,-9.0,-21.0,-10.0,-4.0,-2.0,1.0
1.6951608571063685e+18,-3.0,-6.0,-6.0,-5.0,-2.0,-2.0,-2.0,-3.0
1.6951608571073687e+18,1.0,4.0,1.0,5.0,-4.0,-9.0,-9.0,-2.0
1.6951608571073687e+18,-2.0,-6.0,-7.0,-15.0,1.0,9.0,13.0,2.0
1.6951608571243423e+18,4.0,5.0,-5.0,3.0,-3.0,-7.0,-16.0,-5.0
1.6951608571253522e+18,-4.0,-14.0,7.0,13.0,12.0,15.0,29.0,5.0
1.6951608571253522e+18,3.0,8.0,2.0,-14.0,-4.0,-9.0,-14.0,-5.0
1.6951608571253522e+18,-3.0,5.0,9.0,34.0,-2.0,-1.0,3.0,4.0
1.6951608571393498e+18,2.0,-2.0,-3.0,-21.0,5.0,12.0,25.0,3.0
1.6951608571403297e+18,1.0,2.0,-13.0,3.0,-8.0,-10.0,-11.0,1.0
1.6951608571403297e+18,-1.0,1.0,4.0,-15.0,0.0,12.0,18.0,2.0
1.6951608571403297e+18,-7.0,-8.0,-4.0,4.0,-5.0,-13.0,-23.0,-8.0
1.6951608571549322e+18,-2.0,-2.0,-4.0,-11.0,0.0,-2.0,5.0,2.0
1.6951608571549322e+18,2.0,3.0,12.0,21.0,3.0,-1.0,-8.0,-1.0
1.6951608571559406e+18,-1.0,-6.0,-8.0,-8.0,0.0,5.0,13.0,5.0
1.6951608571559406e+18,7.0,9.0,11.0,14.0,0.0,-1.0,-3.0,-3.0
1.6951608571956022e+18,-8.0,-8.0,-21.0,-14.0,-5.0,-6.0,-7.0,-4.0
1.695160857196602e+18,-2.0,0.0,2.0,-8.0,-1.0,0.0,-6.0,-3.0
1.695160857196602e+18,-1.0,-2.0,-6.0,3.0,-1.0,-6.0,-13.0,-3.0
1.6951608571976008e+18,3.0,11.0,-3.0,-18.0,-5.0,1.0,1.0,-1.0
1.6951608571976008e+18,0.0,-8.0,-13.0,5.0,2.0,-3.0,-2.0,-1.0
1.6951608571986e+18,-3.0,0.0,12.0,-4.0,-6.0,-14.0,-24.0,-4.0
1.6951608571995986e+18,-1.0,-15.0,0.0,-6.0,0.0,7.0,10.0,3.0
1.6951608572006077e+18,-1.0,2.0,-6.0,-4.0,-4.0,-4.0,1.0,2.0
1.695160857215591e+18,-7.0,-8.0,6.0,14.0,2.0,2.0,1.0,2.0
1.695160857216591e+18,0.0,2.0,-10.0,-12.0,-5.0,3.0,3.0,-1.0
1.695160857216591e+18,2.0,1.0,0.0,-4.0,-2.0,-8.0,-8.0,-1.0
1.6951608572175892e+18,0.0,12.0,-9.0,-7.0,-4.0,-6.0,-13.0,-3.0
1.695160857237583e+18,1.0,-5.0,5.0,2.0,5.0,1.0,-6.0,-1.0
1.6951608572385782e+18,-1.0,8.0,12.0,13.0,-1.0,0.0,5.0,0.0
1.6951608572385782e+18,-6.0,-6.0,-25.0,-12.0,1.0,-2.0,-4.0,-3.0
1.6951608572395766e+18,-1.0,-11.0,-2.0,-15.0,0.0,-4.0,-7.0,-4.0
1.6951608572655708e+18,-2.0,20.0,-5.0,-1.0,-2.0,-4.0,-9.0,-2.0
1.6951608572665713e+18,-2.0,1.0,-11.0,-9.0,-3.0,0.0,5.0,-3.0
1.6951608572665713e+18,2.0,-8.0,12.0,20.0,1.0,-2.0,0.0,0.0
1.6951608572675694e+18,-4.0,-4.0,-11.0,-12.0,0.0,2.0,1.0,0.0
1.6951608572755566e+18,-1.0,4.0,14.0,18.0,1.0,4.0,10.0,-1.0
1.6951608572765568e+18,3.0,-26.0,-4.0,-11.0,-5.0,-1.0,0.0,2.0
1.6951608572905472e+18,-1.0,6.0,2.0,-3.0,-7.0,-9.0,-1.0,-6.0
1.6951608572915476e+18,-1.0,1.0,-6.0,-3.0,2.0,7.0,10.0,2.0
1.695160857292547e+18,2.0,-3.0,2.0,3.0,0.0,1.0,14.0,4.0
1.6951608572935457e+18,3.0,6.0,-5.0,-6.0,2.0,13.0,19.0,6.0
1.6951608573135375e+18,-3.0,2.0,-2.0,5.0,-4.0,-6.0,-14.0,-7.0
1.6951608573145329e+18,0.0,1.0,3.0,4.0,-1.0,-9.0,-36.0,-4.0
1.6951608573155315e+18,3.0,-2.0,-4.0,-6.0,1.0,0.0,-4.0,-2.0
1.6951608573155315e+18,-2.0,8.0,-6.0,-5.0,-2.0,-2.0,0.0,-2.0
1.6951608573165317e+18,-1.0,4.0,-9.0,-7.0,-2.0,2.0,4.0,2.0
1.6951608573165317e+18,-2.0,2.0,8.0,14.0,-4.0,-9.0,-9.0,-5.0
1.6951608573665024e+18,0.0,-3.0,-5.0,-7.0,2.0,1.0,-6.0,1.0
1.6951608573665024e+18,-1.0,7.0,0.0,-1.0,0.0,-3.0,-4.0,-3.0
1.6951608573675018e+18,-2.0,-9.0,6.0,5.0,0.0,0.0,-10.0,-2.0
1.6951608573675018e+18,0.0,1.0,-2.0,-6.0,0.0,0.0,3.0,-2.0
1.6951608573685015e+18,-1.0,1.0,4.0,-5.0,-3.0,-5.0,1.0,-1.0
1.6951608573685015e+18,0.0,-7.0,-4.0,-3.0,1.0,0.0,2.0,1.0
1.6951608573725007e+18,1.0,6.0,-2.0,6.0,4.0,8.0,4.0,4.0
1.6951608573735063e+18,-6.0,-20.0,10.0,2.0,2.0,0.0,13.0,-2.0
1.695160857374498e+18,-1.0,-3.0,-1.0,7.0,-1.0,1.0,0.0,-1.0
1.695160857374498e+18,-1.0,9.0,-1.0,-6.0,-2.0,-4.0,-7.0,-4.0
1.695160857379495e+18,-6.0,-21.0,9.0,8.0,1.0,-2.0,2.0,2.0
1.695160857379495e+18,-3.0,-11.0,-6.0,-7.0,-3.0,1.0,5.0,-2.0
1.695160857402481e+18,-1.0,0.0,6.0,8.0,2.0,-6.0,-11.0,-5.0
1.6951608574034816e+18,-1.0,-4.0,4.0,5.0,3.0,2.0,-3.0,0.0
1.6951608574034816e+18,2.0,7.0,-13.0,-26.0,-4.0,1.0,3.0,0.0
1.695160857404481e+18,3.0,7.0,6.0,11.0,3.0,4.0,6.0,4.0
1.6951608574334671e+18,0.0,-3.0,-6.0,-4.0,-5.0,-4.0,-3.0,-3.0
1.695160857434488e+18,0.0,-4.0,6.0,6.0,2.0,2.0,3.0,1.0
1.695160857434488e+18,-1.0,2.0,0.0,-3.0,-2.0,-2.0,-1.0,-2.0
1.6951608574354624e+18,-3.0,-1.0,-10.0,-7.0,-1.0,-2.0,0.0,-3.0
1.6951608574364623e+18,1.0,7.0,-2.0,2.0,-1.0,0.0,-4.0,0.0
1.6951608574364623e+18,-1.0,-1.0,4.0,-3.0,-3.0,-2.0,-4.0,-1.0
1.6951608574564508e+18,-1.0,0.0,-2.0,-1.0,-2.0,-1.0,-1.0,1.0
1.6951608574564508e+18,0.0,4.0,3.0,11.0,1.0,2.0,1.0,0.0
1.6951608574574513e+18,-2.0,-2.0,-3.0,-7.0,-2.0,1.0,-2.0,0.0
1.695160857458454e+18,-2.0,-5.0,0.0,0.0,-2.0,-2.0,-2.0,-2.0
1.695160857458454e+18,3.0,3.0,1.0,-1.0,1.0,-1.0,0.0,0.0
1.6951608574594506e+18,-1.0,3.0,7.0,3.0,-1.0,-2.0,3.0,0.0
1.695160857480463e+18,-2.0,0.0,-7.0,-1.0,-2.0,-3.0,-2.0,-1.0
1.6951608574944545e+18,-3.0,-3.0,-9.0,-5.0,-2.0,-5.0,-3.0,-2.0
1.6951608574954552e+18,0.0,3.0,0.0,5.0,0.0,-1.0,0.0,-1.0
1.6951608574954552e+18,1.0,2.0,-6.0,-13.0,-2.0,-1.0,1.0,-1.0
1.6951608574954552e+18,0.0,-4.0,1.0,1.0,0.0,-2.0,-5.0,0.0
1.6951608574954552e+18,-1.0,0.0,0.0,-1.0,1.0,3.0,1.0,0.0
1.6951608574964372e+18,0.0,0.0,-3.0,0.0,1.0,0.0,-1.0,0.0
1.6951608574974528e+18,0.0,2.0,0.0,-1.0,-2.0,-1.0,0.0,-1.0
1.6951608575164168e+18,-2.0,-3.0,3.0,-1.0,-2.0,0.0,-1.0,-1.0
1.6951608575164168e+18,-2.0,-2.0,-2.0,0.0,-3.0,-3.0,-1.0,-1.0
1.6951608575174208e+18,0.0,3.0,-2.0,-3.0,2.0,1.0,2.0,1.0
1.6951608575174208e+18,0.0,1.0,-1.0,0.0,-1.0,-2.0,-1.0,0.0
1.6951608575284137e+18,1.0,-1.0,-2.0,-4.0,0.0,1.0,-2.0,-2.0
1.6951608575284137e+18,0.0,0.0,-2.0,1.0,0.0,0.0,1.0,0.0
1.6951608575693865e+18,1.0,1.0,-2.0,0.0,1.0,-1.0,-1.0,-2.0
1.6951608575693865e+18,0.0,-2.0,1.0,0.0,-2.0,0.0,-2.0,-1.0
1.6951608575703854e+18,1.0,-2.0,-6.0,-5.0,-4.0,-1.0,-2.0,-2.0
1.6951608575703854e+18,-1.0,-1.0,1.0,0.0,0.0,0.0,-2.0,-1.0
1.6951608575713848e+18,-2.0,1.0,3.0,2.0,-1.0,-2.0,-2.0,1.0
1.6951608575713848e+18,0.0,-1.0,0.0,-3.0,1.0,-1.0,2.0,1.0
1.6951608575843822e+18,0.0,0.0,-1.0,-2.0,0.0,0.0,1.0,1.0
1.6951608575843822e+18,-1.0,-1.0,4.0,1.0,-2.0,-3.0,-1.0,-1.0
1.6951608575843822e+18,-1.0,1.0,-8.0,-2.0,-2.0,-1.0,-2.0,0.0
1.6951608575853821e+18,-2.0,-1.0,0.0,-2.0,0.0,2.0,0.0,-2.0
1.6951608575883794e+18,-2.0,0.0,0.0,-2.0,-3.0,-1.0,-1.0,1.0
1.6951608575893798e+18,0.0,-3.0,-3.0,-2.0,-2.0,0.0,-2.0,-1.0
1.6951608576043656e+18,-3.0,-1.0,3.0,3.0,3.0,3.0,1.0,0.0
1.6951608576043656e+18,-2.0,0.0,1.0,-1.0,-2.0,-1.0,-2.0,0.0
1.6951608576293732e+18,0.0,-1.0,-1.0,-3.0,-1.0,-4.0,0.0,-1.0
1.695160857631351e+18,0.0,-1.0,-2.0,-1.0,-2.0,-3.0,-2.0,-1.0
1.6951608576323569e+18,0.0,0.0,-1.0,-2.0,0.0,-1.0,0.0,-1.0
1.6951608576323569e+18,0.0,-1.0,-3.0,-1.0,2.0,1.0,-1.0,-2.0
1.6951608576433444e+18,-1.0,-1.0,-2.0,-2.0,-3.0,-2.0,1.0,-1.0
1.6951608576433444e+18,-1.0,-1.0,-2.0,-1.0,0.0,-2.0,-2.0,1.0
1.6951608576433444e+18,1.0,0.0,-1.0,-3.0,-3.0,0.0,-2.0,-1.0
1.6951608576443436e+18,0.0,2.0,-3.0,0.0,2.0,1.0,1.0,-2.0
1.6951608576483456e+18,0.0,-1.0,6.0,0.0,-1.0,3.0,0.0,-2.0
1.6951608576493427e+18,-1.0,0.0,-1.0,1.0,1.0,1.0,2.0,0.0
1.695160857656362e+18,-3.0,-1.0,-9.0,0.0,-2.0,0.0,-1.0,0.0
1.6951608576573368e+18,0.0,-1.0,7.0,0.0,-3.0,-3.0,-3.0,0.0
1.6951608576723302e+18,1.0,3.0,-1.0,0.0,1.0,-1.0,-1.0,2.0
1.6951608576723302e+18,0.0,-3.0,-13.0,-1.0,1.0,1.0,-1.0,-2.0
1.6951608576723302e+18,-1.0,0.0,5.0,-1.0,-3.0,-4.0,-1.0,0.0
1.6951608576733294e+18,-1.0,1.0,6.0,-1.0,-3.0,-3.0,-2.0,-1.0
1.69516085770431e+18,-2.0,-3.0,-10.0,1.0,4.0,3.0,0.0,1.0
1.6951608577053097e+18,-1.0,-2.0,1.0,0.0,0.0,-1.0,0.0,-1.0
1.6951608577053097e+18,-1.0,3.0,-1.0,1.0,-1.0,0.0,0.0,0.0
1.6951608577053097e+18,-1.0,-1.0,-4.0,0.0,-3.0,-2.0,-1.0,1.0
1.695160857709308e+18,2.0,8.0,16.0,-4.0,-6.0,-5.0,-2.0,-1.0
1.695160857710306e+18,-1.0,-6.0,-2.0,0.0,6.0,2.0,-3.0,-1.0
1.6951608577173023e+18,-2.0,-3.0,2.0,-3.0,-3.0,-2.0,-2.0,-1.0
1.6951608577173023e+18,-3.0,-7.0,-14.0,5.0,3.0,-1.0,-2.0,0.0
1.6951608577322934e+18,0.0,0.0,-1.0,1.0,1.0,2.0,0.0,-1.0
1.6951608577322934e+18,-1.0,-4.0,-15.0,-4.0,-4.0,-3.0,-1.0,-1.0
1.6951608577322934e+18,2.0,6.0,10.0,0.0,0.0,0.0,0.0,-2.0
1.695160857733298e+18,-2.0,1.0,4.0,-3.0,-2.0,-1.0,0.0,0.0
1.6951608577552796e+18,-1.0,2.0,13.0,6.0,0.0,0.0,0.0,0.0
1.6951608577552796e+18,-4.0,-8.0,-32.0,-5.0,-3.0,-2.0,-2.0,0.0
1.69516085775628e+18,0.0,-1.0,0.0,1.0,0.0,0.0,1.0,0.0
1.6951608577572787e+18,1.0,4.0,-6.0,0.0,-2.0,0.0,1.0,0.0
1.6951608577782676e+18,-1.0,-9.0,-12.0,-4.0,0.0,2.0,0.0,0.0
1.695160857787267e+18,3.0,9.0,37.0,6.0,0.0,0.0,1.0,0.0
1.695160857793259e+18,-1.0,-6.0,-25.0,-3.0,-1.0,0.0,-1.0,-1.0
1.695160857793259e+18,1.0,3.0,10.0,1.0,1.0,0.0,0.0,1.0
1.695160857795261e+18,-2.0,-1.0,-4.0,1.0,-1.0,-4.0,0.0,-2.0
1.695160857795261e+18,-1.0,0.0,-7.0,-7.0,-2.0,-2.0,-1.0,-2.0
1.6951608577962652e+18,0.0,0.0,2.0,2.0,0.0,-1.0,1.0,0.0
1.6951608577962652e+18,0.0,-1.0,0.0,-1.0,-1.0,1.0,0.0,-2.0
1.695160857815246e+18,-3.0,-3.0,-6.0,-2.0,0.0,-1.0,-2.0,-2.0
1.6951608578162455e+18,0.0,2.0,0.0,1.0,-1.0,0.0,-2.0,0.0
1.6951608578162455e+18,0.0,-3.0,8.0,1.0,-2.0,0.0,-2.0,1.0
1.6951608578172495e+18,-1.0,-3.0,-7.0,-4.0,0.0,0.0,-3.0,1.0
1.6951608578452293e+18,-1.0,-1.0,-3.0,-1.0,-2.0,0.0,-1.0,1.0
1.6951608578462295e+18,0.0,2.0,5.0,2.0,0.0,-1.0,-1.0,-1.0
1.695160857847229e+18,0.0,1.0,3.0,-2.0,-1.0,0.0,0.0,-2.0
1.695160857847229e+18,-2.0,-1.0,-1.0,0.0,-2.0,0.0,-1.0,-1.0
1.6951608578512243e+18,-1.0,0.0,-1.0,-1.0,1.0,-1.0,-1.0,-1.0
1.6951608578512243e+18,-3.0,1.0,4.0,-1.0,-1.0,-1.0,1.0,0.0
1.6951608578632174e+18,0.0,-1.0,-5.0,-1.0,0.0,0.0,-1.0,-2.0
1.6951608578652163e+18,-1.0,-1.0,-3.0,1.0,-1.0,-2.0,1.0,-3.0
1.69516085787521e+18,0.0,0.0,1.0,-2.0,1.0,0.0,0.0,-3.0
1.69516085787521e+18,-2.0,-1.0,1.0,0.0,-2.0,2.0,0.0,-1.0
1.695160857876211e+18,-1.0,0.0,-1.0,0.0,0.0,0.0,1.0,-1.0
1.695160857876211e+18,0.0,-3.0,1.0,-1.0,-1.0,-2.0,-1.0,-1.0
1.695160857896198e+18,0.0,-2.0,-2.0,-1.0,-1.0,-2.0,-1.0,-2.0
1.6951608578971978e+18,1.0,-1.0,2.0,1.0,0.0,-2.0,-1.0,1.0
1.6951608579211858e+18,-2.0,-1.0,-1.0,0.0,-1.0,-1.0,-2.0,-3.0
1.6951608579211858e+18,-1.0,-1.0,4.0,0.0,0.0,0.0,-1.0,-1.0
1.695160857922184e+18,-1.0,-1.0,-8.0,-2.0,-2.0,-1.0,-2.0,0.0
1.6951608579231867e+18,0.0,0.0,0.0,0.0,0.0,-3.0,-1.0,0.0
1.6951608579231867e+18,-2.0,1.0,1.0,-1.0,-2.0,-1.0,-2.0,-1.0
1.6951608579231867e+18,0.0,0.0,0.0,-1.0,-1.0,-1.0,-1.0,-2.0
1.695160857938178e+18,-1.0,-1.0,1.0,-3.0,-2.0,0.0,0.0,0.0
1.695160857938178e+18,0.0,0.0,1.0,-3.0,-2.0,1.0,1.0,0.0
1.695160857938178e+18,0.0,-2.0,-1.0,-1.0,0.0,0.0,1.0,0.0
1.695160857938178e+18,-1.0,-2.0,-2.0,-2.0,1.0,-1.0,0.0,0.0
1.6951608579574067e+18,-2.0,-1.0,-2.0,1.0,-2.0,1.0,1.0,-2.0
1.6951608579574067e+18,-2.0,-1.0,-2.0,1.0,0.0,-1.0,0.0,-1.0
1.6951608579584156e+18,-1.0,-1.0,0.0,-2.0,0.0,-1.0,-2.0,-1.0
1.6951608579584156e+18,0.0,-1.0,-3.0,-3.0,-2.0,0.0,-2.0,-1.0
1.6951608579714033e+18,-2.0,0.0,0.0,-1.0,-2.0,-1.0,1.0,-1.0
1.6951608579714033e+18,-1.0,-1.0,0.0,0.0,-1.0,-1.0,0.0,-1.0
1.6951608579803996e+18,0.0,-1.0,-3.0,0.0,-1.0,-1.0,-1.0,0.0
1.6951608579803996e+18,-1.0,-1.0,-3.0,-1.0,0.0,-1.0,0.0,-1.0
1.6951608579948826e+18,0.0,-2.0,0.0,-1.0,-3.0,-1.0,-2.0,0.0
1.6951608579948826e+18,0.0,-1.0,0.0,-1.0,0.0,0.0,-1.0,-1.0
1.6951608579958912e+18,-1.0,0.0,-1.0,0.0,0.0,0.0,0.0,-1.0
1.6951608579958912e+18,-1.0,-1.0,-1.0,0.0,-1.0,-2.0,-1.0,0.0
1.69516085803854e+18,-1.0,-2.0,0.0,-1.0,1.0,-2.0,0.0,0.0
1.6951608580395405e+18,-1.0,-2.0,0.0,-2.0,-1.0,0.0,-1.0,-1.0
1.6951608580395405e+18,-1.0,-2.0,-3.0,1.0,-1.0,1.0,0.0,1.0
1.6951608580395405e+18,-3.0,-1.0,1.0,0.0,1.0,0.0,0.0,-1.0
1.6951608580405466e+18,-1.0,-2.0,-2.0,-1.0,0.0,-1.0,-1.0,0.0
1.6951608580405466e+18,-1.0,-2.0,-1.0,0.0,-1.0,-2.0,-1.0,-1.0
1.6951608580415383e+18,-1.0,0.0,1.0,-2.0,-2.0,-1.0,1.0,-1.0
1.6951608580415383e+18,1.0,-1.0,-1.0,-1.0,0.0,1.0,-1.0,-1.0
1.69516085806238e+18,0.0,0.0,0.0,-2.0,0.0,-3.0,-1.0,-1.0
1.69516085806238e+18,1.0,1.0,-1.0,-2.0,-2.0,-1.0,-1.0,0.0
1.6951608580643845e+18,-3.0,-1.0,1.0,-1.0,-2.0,-1.0,-1.0,-1.0
1.6951608580643845e+18,-2.0,-1.0,-8.0,-2.0,-2.0,-2.0,0.0,-1.0
1.6951608580844352e+18,-1.0,0.0,-1.0,1.0,-2.0,0.0,0.0,1.0
1.6951608580854172e+18,0.0,0.0,0.0,0.0,-1.0,0.0,0.0,0.0
1.695160858086434e+18,0.0,-1.0,-1.0,-1.0,-1.0,-1.0,-1.0,-1.0
1.695160858086434e+18,0.0,-1.0,2.0,-1.0,-1.0,-1.0,-1.0,-2.0
1.6951608580904312e+18,-2.0,0.0,0.0,-3.0,0.0,1.0,-2.0,-2.0
1.6951608580914179e+18,-2.0,0.0,-2.0,0.0,0.0,-1.0,-2.0,-3.0
1.6951608581004045e+18,0.0,-1.0,1.0,1.0,2.0,0.0,0.0,1.0
1.6951608581004045e+18,-1.0,-1.0,-1.0,-1.0,-1.0,-1.0,-1.0,0.0
1.6951608581223908e+18,-1.0,-1.0,-1.0,0.0,1.0,-1.0,-1.0,0.0
1.6951608581223908e+18,0.0,-1.0,1.0,-2.0,0.0,1.0,0.0,-1.0
1.6951608581233907e+18,-2.0,-2.0,-1.0,0.0,-2.0,-2.0,-1.0,-1.0
1.6951608581243907e+18,-1.0,0.0,-2.0,-1.0,-1.0,1.0,0.0,0.0
1.6951608581444849e+18,-2.0,-2.0,-1.0,0.0,0.0,-1.0,-2.0,0.0
1.6951608581454943e+18,-1.0,-1.0,0.0,-1.0,0.0,-1.0,0.0,0.0
1.695160858146542e+18,-2.0,-1.0,-3.0,0.0,0.0,-1.0,-2.0,-2.0
1.695160858146542e+18,1.0,-1.0,0.0,0.0,-1.0,-1.0,-1.0,-1.0
1.695160858151576e+18,-1.0,-1.0,1.0,-2.0,-1.0,0.0,0.0,-1.0
1.695160858151576e+18,1.0,-2.0,0.0,-1.0,-1.0,0.0,-2.0,0.0
1.6951608581759296e+18,-1.0,0.0,-2.0,-3.0,-2.0,-1.0,0.0,-1.0
1.695160858176923e+18,0.0,-1.0,2.0,0.0,0.0,-2.0,-2.0,-1.0
1.695160858176923e+18,1.0,0.0,-4.0,-1.0,-2.0,-1.0,-1.0,0.0
1.695160858176923e+18,-2.0,0.0,-1.0,0.0,0.0,-1.0,0.0,0.0
1.695160858180942e+18,1.0,0.0,1.0,-1.0,0.0,-2.0,-2.0,1.0
1.695160858180942e+18,0.0,1.0,0.0,-1.0,-1.0,1.0,-2.0,0.0
1.6951608581973827e+18,-2.0,-2.0,0.0,-1.0,-2.0,-2.0,0.0,-1.0
1.6951608581973827e+18,0.0,0.0,-5.0,-1.0,0.0,-1.0,0.0,-1.0
1.6951608581993871e+18,0.0,-2.0,0.0,0.0,0.0,1.0,0.0,-1.0
1.6951608581993871e+18,-1.0,-2.0,-3.0,-2.0,-1.0,0.0,0.0,-2.0
1.6951608582115773e+18,1.0,-1.0,-2.0,0.0,-1.0,0.0,-1.0,0.0
1.6951608582115773e+18,-3.0,2.0,-6.0,-1.0,-3.0,-2.0,-2.0,-1.0
1.6951608582375706e+18,-1.0,-1.0,-1.0,-2.0,-1.0,-2.0,0.0,-1.0
1.6951608582375706e+18,0.0,1.0,3.0,0.0,-2.0,-1.0,-2.0,-1.0
1.6951608582375706e+18,-2.0,-4.0,-5.0,-1.0,1.0,-3.0,0.0,-1.0
1.6951608582385715e+18,-1.0,0.0,3.0,-1.0,0.0,-1.0,-1.0,0.0
1.695160858241564e+18,-1.0,-2.0,-3.0,-3.0,0.0,-1.0,-1.0,-1.0
1.695160858241564e+18,0.0,-1.0,-3.0,-2.0,-1.0,0.0,0.0,-1.0
1.6951608582656164e+18,0.0,1.0,-1.0,-3.0,-3.0,-1.0,-1.0,-2.0
1.695160858266616e+18,0.0,-3.0,1.0,1.0,0.0,0.0,0.0,-1.0
1.6951608582676155e+18,-1.0,-1.0,4.0,0.0,0.0,-1.0,-1.0,0.0
1.6951608582676155e+18,-1.0,-2.0,-5.0,0.0,0.0,-1.0,2.0,-1.0
1.6951608582716134e+18,-2.0,0.0,-2.0,1.0,0.0,-1.0,1.0,0.0
1.6951608582716134e+18,-1.0,-1.0,6.0,-1.0,-2.0,0.0,-3.0,0.0
1.6951608582806083e+18,0.0,-2.0,1.0,-1.0,-1.0,0.0,-1.0,-1.0
1.6951608582816082e+18,-2.0,0.0,1.0,0.0,-1.0,-1.0,-1.0,0.0
1.6951608582946002e+18,2.0,-1.0,-1.0,0.0,-1.0,0.0,-1.0,0.0
1.695160858295599e+18,-1.0,0.0,-1.0,-1.0,0.0,1.0,0.0,-1.0
1.6951608583075948e+18,0.0,0.0,-4.0,0.0,0.0,0.0,-1.0,1.0
1.6951608583075948e+18,-2.0,2.0,3.0,0.0,-1.0,0.0,-3.0,0.0
1.695160858329615e+18,-1.0,-2.0,9.0,1.0,0.0,0.0,1.0,0.0
1.6951608583305792e+18,0.0,1.0,-1.0,1.0,-1.0,-1.0,1.0,0.0
1.695160858331578e+18,-2.0,-4.0,-9.0,-1.0,-1.0,-1.0,-2.0,-2.0
1.695160858331578e+18,-1.0,-3.0,-1.0,0.0,-1.0,-1.0,0.0,0.0
1.6951608583405732e+18,0.0,3.0,4.0,0.0,0.0,-2.0,-1.0,-3.0
1.6951608583415734e+18,-1.0,-2.0,-6.0,-2.0,0.0,-1.0,-1.0,-2.0
1.6951608583435725e+18,-1.0,0.0,0.0,0.0,0.0,1.0,0.0,0.0
1.6951608583445724e+18,-2.0,-1.0,0.0,-1.0,-1.0,-1.0,-1.0,-2.0
1.695160858354565e+18,-1.0,-1.0,-3.0,-2.0,1.0,1.0,0.0,-1.0
1.695160858354565e+18,-1.0,-1.0,2.0,-1.0,0.0,-1.0,-1.0,1.0
1.695160858363561e+18,-1.0,2.0,-1.0,0.0,-1.0,-2.0,-2.0,-1.0
1.6951608583655624e+18,-1.0,-2.0,0.0,-1.0,0.0,-1.0,-1.0,1.0
1.6951608583785513e+18,1.0,2.0,2.0,0.0,-1.0,-1.0,-2.0,-1.0
1.6951608583795505e+18,-1.0,-1.0,-2.0,0.0,0.0,-2.0,-1.0,0.0
1.6951608583795505e+18,-1.0,0.0,2.0,-1.0,-1.0,-2.0,-2.0,-2.0
1.69516085838056e+18,0.0,-1.0,-1.0,-1.0,-1.0,-1.0,0.0,-1.0
1.6951608584005386e+18,-1.0,-2.0,-5.0,-2.0,0.0,-1.0,0.0,-2.0
1.6951608584015378e+18,0.0,-1.0,-1.0,-3.0,0.0,-1.0,0.0,-1.0
1.6951608584025418e+18,1.0,2.0,10.0,0.0,-2.0,-1.0,0.0,0.0
1.6951608584025418e+18,-1.0,-2.0,-15.0,-1.0,1.0,0.0,1.0,0.0
1.6951608584155302e+18,-3.0,-1.0,10.0,-3.0,-1.0,0.0,-1.0,0.0
1.6951608584165294e+18,0.0,-2.0,-9.0,0.0,-2.0,0.0,-1.0,-1.0
1.6951608584175414e+18,-1.0,2.0,6.0,-1.0,-1.0,0.0,-2.0,-1.0
1.6951608584175414e+18,1.0,1.0,-1.0,0.0,-2.0,-1.0,-2.0,-2.0
1.6951608584555423e+18,1.0,-1.0,-3.0,0.0,-1.0,-2.0,0.0,0.0
1.695160858456506e+18,-1.0,-2.0,-1.0,0.0,-1.0,-2.0,1.0,0.0
1.6951608584575404e+18,-1.0,-3.0,-1.0,-2.0,1.0,-1.0,1.0,-1.0
1.6951608584575404e+18,-1.0,-3.0,0.0,-1.0,-1.0,0.0,-1.0,-1.0
1.6951608584585065e+18,0.0,-1.0,-5.0,-1.0,-2.0,-2.0,-2.0,-2.0
1.6951608584585065e+18,0.0,1.0,4.0,-1.0,0.0,-1.0,-1.0,-3.0
1.6951608584615132e+18,0.0,-1.0,-7.0,-1.0,-1.0,0.0,-2.0,0.0
1.6951608584625098e+18,-2.0,-1.0,3.0,-1.0,0.0,-1.0,-2.0,-1.0
1.6951608584744965e+18,0.0,-1.0,0.0,1.0,-1.0,0.0,-1.0,1.0
1.6951608584764977e+18,-1.0,0.0,1.0,1.0,1.0,1.0,1.0,0.0
1.6951608584815012e+18,-2.0,-1.0,-3.0,-2.0,-1.0,0.0,-1.0,0.0
1.6951608584815012e+18,0.0,-1.0,1.0,-1.0,-1.0,-1.0,0.0,0.0
1.6951608585054848e+18,0.0,1.0,0.0,-2.0,0.0,0.0,0.0,2.0
1.6951608585064865e+18,-1.0,-3.0,-1.0,1.0,-2.0,0.0,-2.0,-1.0
1.6951608585124767e+18,-1.0,-2.0,-2.0,0.0,1.0,1.0,-1.0,0.0
1.695160858513474e+18,0.0,-1.0,2.0,0.0,0.0,0.0,0.0,-1.0
1.695160858513474e+18,0.0,-1.0,0.0,-1.0,0.0,-1.0,1.0,0.0
1.6951608585144814e+18,-1.0,-1.0,-11.0,-3.0,-1.0,0.0,-1.0,0.0
1.695160858521471e+18,0.0,0.0,0.0,0.0,1.0,-1.0,-1.0,1.0
1.6951608585224696e+18,0.0,1.0,1.0,-1.0,0.0,0.0,-2.0,0.0
1.6951608585364613e+18,-1.0,-1.0,-1.0,0.0,-2.0,-1.0,-2.0,1.0
1.6951608585374602e+18,-2.0,-1.0,4.0,-1.0,1.0,-3.0,0.0,0.0
1.6951608585384602e+18,-1.0,-1.0,-5.0,0.0,0.0,-1.0,0.0,-1.0
1.6951608585384602e+18,-1.0,-1.0,3.0,-1.0,0.0,0.0,0.0,-1.0
1.6951608585584468e+18,-1.0,-1.0,-4.0,-2.0,-1.0,1.0,-2.0,-2.0
1.6951608585634465e+18,-1.0,0.0,1.0,-1.0,-2.0,0.0,-1.0,-1.0
1.6951608585644465e+18,-2.0,-2.0,-5.0,-1.0,-1.0,0.0,1.0,0.0
1.6951608585644465e+18,-1.0,0.0,0.0,-1.0,0.0,-3.0,-1.0,0.0
1.6951608585714396e+18,1.0,0.0,1.0,-1.0,1.0,-1.0,1.0,-2.0
1.6951608585714396e+18,-2.0,-4.0,-2.0,-2.0,0.0,0.0,-2.0,-2.0
1.6951608585924283e+18,0.0,0.0,0.0,1.0,-2.0,-2.0,0.0,-2.0
1.6951608585934328e+18,-1.0,0.0,-3.0,0.0,-1.0,1.0,-1.0,0.0
1.6951608585974254e+18,-2.0,1.0,-1.0,-1.0,1.0,0.0,-3.0,-1.0
1.6951608586004237e+18,-1.0,0.0,0.0,-1.0,-2.0,-1.0,0.0,0.0
1.6951608586004237e+18,0.0,-2.0,-1.0,-1.0,-2.0,-1.0,0.0,-1.0
1.695160858601424e+18,1.0,-1.0,-2.0,-1.0,-1.0,-2.0,-1.0,-1.0
1.6951608586174129e+18,0.0,-1.0,-4.0,0.0,-2.0,-1.0,-1.0,-1.0
1.6951608586184133e+18,1.0,1.0,4.0,-1.0,0.0,0.0,0.0,-1.0
1.695160858619413e+18,0.0,-2.0,-2.0,-1.0,0.0,0.0,0.0,-1.0
1.695160858619413e+18,-1.0,-1.0,-1.0,-2.0,0.0,-1.0,0.0,0.0
1.6951608586444006e+18,0.0,-1.0,-1.0,1.0,0.0,0.0,-1.0,-3.0
1.6951608586454003e+18,-1.0,-1.0,0.0,0.0,-2.0,0.0,-1.0,-1.0
1.695160858646403e+18,-2.0,-1.0,1.0,-2.0,-1.0,1.0,0.0,-1.0
1.695160858646403e+18,-1.0,-1.0,2.0,1.0,0.0,-1.0,0.0,1.0
1.6951608586543918e+18,-2.0,-3.0,-13.0,-2.0,-1.0,-2.0,-1.0,0.0
1.6951608586543918e+18,-1.0,-1.0,0.0,-1.0,-1.0,-3.0,-1.0,0.0
1.6951608586623877e+18,-1.0,1.0,0.0,0.0,-2.0,-1.0,-2.0,0.0
1.6951608586623877e+18,1.0,0.0,2.0,-3.0,-1.0,1.0,-1.0,-1.0
1.6951608586773783e+18,-2.0,0.0,3.0,-3.0,2.0,-1.0,0.0,-2.0
1.6951608586783808e+18,0.0,0.0,-1.0,1.0,1.0,0.0,-1.0,-2.0
1.6951608586793777e+18,-1.0,-2.0,-2.0,-1.0,-1.0,-1.0,-1.0,-1.0
1.6951608586793777e+18,-2.0,-2.0,-1.0,-1.0,-3.0,-2.0,-1.0,1.0
1.695160858709369e+18,-1.0,-1.0,0.0,1.0,-2.0,-1.0,-2.0,-1.0
1.695160858709369e+18,0.0,1.0,-2.0,-1.0,-2.0,0.0,0.0,-1.0
1.6951608587123643e+18,0.0,0.0,2.0,-1.0,0.0,-1.0,-1.0,0.0
1.695160858713364e+18,1.0,0.0,-2.0,0.0,0.0,-1.0,-2.0,-2.0
1.6951608587153574e+18,1.0,-1.0,0.0,0.0,1.0,-2.0,0.0,0.0
1.695160858716357e+18,1.0,0.0,-1.0,-1.0,-1.0,-1.0,-1.0,-1.0
1.695160858716357e+18,-1.0,1.0,-3.0,0.0,-3.0,-2.0,0.0,-1.0
1.6951608587173614e+18,-1.0,-2.0,-2.0,-3.0,1.0,0.0,-1.0,0.0
1.695160858752349e+18,-2.0,-1.0,1.0,0.0,-2.0,0.0,0.0,0.0
1.695160858752349e+18,0.0,-2.0,0.0,-1.0,0.0,-1.0,-2.0,-1.0
1.6951608587543347e+18,0.0,0.0,-1.0,-1.0,0.0,0.0,0.0,0.0
1.6951608587543347e+18,-1.0,0.0,-2.0,-1.0,-2.0,1.0,0.0,-2.0
1.6951608587603323e+18,-2.0,1.0,0.0,-1.0,-3.0,-2.0,-2.0,-1.0
1.6951608587603323e+18,-3.0,1.0,0.0,0.0,0.0,-1.0,0.0,0.0
1.695160858761331e+18,-1.0,-1.0,-1.0,0.0,1.0,0.0,-1.0,-1.0
1.695160858761331e+18,-1.0,-1.0,-1.0,-2.0,-2.0,-1.0,-1.0,-1.0
1.6951608587783217e+18,-1.0,-2.0,1.0,-1.0,0.0,0.0,-1.0,0.0
1.695160858779342e+18,0.0,-2.0,-2.0,-1.0,-1.0,0.0,0.0,1.0
1.695160858779342e+18,-1.0,0.0,0.0,-2.0,-1.0,-1.0,-2.0,1.0
1.695160858779342e+18,-2.0,-1.0,-2.0,-1.0,0.0,1.0,-1.0,0.0
1.6951608588053076e+18,0.0,-1.0,0.0,-1.0,0.0,-1.0,0.0,-1.0
1.6951608588053076e+18,-2.0,-2.0,2.0,-1.0,-1.0,-2.0,-2.0,-1.0
1.6951608588063078e+18,0.0,-1.0,-5.0,-1.0,0.0,-1.0,-1.0,-1.0
1.695160858807304e+18,-1.0,-2.0,-2.0,0.0,-2.0,-3.0,-1.0,-1.0
1.6951608588202972e+18,-1.0,-2.0,0.0,0.0,0.0,-1.0,-2.0,-1.0
1.6951608588202972e+18,2.0,-3.0,1.0,1.0,-1.0,-1.0,1.0,0.0
1.6951608588212982e+18,-1.0,0.0,0.0,1.0,-1.0,0.0,0.0,-2.0
1.6951608588222963e+18,1.0,-1.0,-2.0,0.0,-2.0,0.0,-1.0,-2.0
1.6951608588483057e+18,0.0,-1.0,0.0,-1.0,-1.0,-1.0,0.0,0.0
1.6951608588493056e+18,-2.0,0.0,-3.0,-2.0,-1.0,-1.0,-1.0,-1.0
1.6951608588493056e+18,1.0,-1.0,0.0,-1.0,-1.0,1.0,-1.0,-1.0
1.6951608588493056e+18,1.0,1.0,1.0,0.0,2.0,-1.0,-1.0,-1.0
1.695160858865274e+18,0.0,0.0,-1.0,0.0,0.0,-2.0,0.0,0.0
1.695160858866271e+18,0.0,0.0,-1.0,0.0,0.0,0.0,-2.0,0.0
1.695160858866271e+18,-2.0,-2.0,1.0,-3.0,0.0,-1.0,0.0,0.0
1.6951608588672701e+18,0.0,-1.0,1.0,-1.0,-1.0,-2.0,1.0,-1.0
1.6951608588812623e+18,0.0,-2.0,-1.0,0.0,-1.0,-1.0,-1.0,-1.0
1.6951608588812623e+18,-1.0,-2.0,-3.0,0.0,0.0,0.0,0.0,-1.0
1.6951608588822625e+18,0.0,-1.0,-2.0,-2.0,1.0,-2.0,-1.0,-3.0
1.6951608588822625e+18,-2.0,0.0,-2.0,-1.0,0.0,1.0,-1.0,-1.0
1.6951608588942548e+18,-2.0,1.0,-1.0,-2.0,-1.0,-1.0,0.0,0.0
1.6951608588952543e+18,0.0,-1.0,-1.0,-2.0,-1.0,-1.0,-2.0,0.0
1.6951608589012552e+18,-1.0,-1.0,0.0,1.0,-2.0,-1.0,0.0,0.0
1.6951608589012552e+18,0.0,0.0,-2.0,-1.0,0.0,-1.0,-1.0,0.0
1.6951608589182413e+18,-2.0,0.0,-1.0,0.0,-3.0,-2.0,0.0,-1.0
1.6951608589182413e+18,-2.0,-2.0,-1.0,0.0,0.0,-1.0,0.0,0.0
1.695160858924243e+18,1.0,-2.0,-1.0,0.0,0.0,-1.0,-2.0,0.0
1.6951608589252618e+18,-1.0,1.0,-1.0,1.0,0.0,0.0,0.0,0.0
1.6951608589562186e+18,0.0,-1.0,1.0,-2.0,-1.0,-3.0,-1.0,-2.0
1.6951608589572198e+18,-1.0,0.0,0.0,-1.0,0.0,1.0,0.0,1.0
1.695160858958218e+18,-1.0,0.0,1.0,-1.0,0.0,0.0,0.0,-1.0
1.695160858959218e+18,-2.0,-2.0,-2.0,-1.0,-1.0,-2.0,0.0,-1.0
1.695160858959218e+18,0.0,-3.0,-2.0,-1.0,-1.0,1.0,-2.0,0.0
1.695160858960218e+18,1.0,-1.0,-1.0,-3.0,-1.0,-2.0,1.0,1.0
1.695160858963216e+18,0.0,1.0,-1.0,0.0,0.0,-2.0,-3.0,0.0
1.695160858963216e+18,0.0,-2.0,-1.0,-1.0,-2.0,1.0,0.0,0.0
1.695160858976213e+18,-1.0,0.0,-1.0,0.0,1.0,-1.0,0.0,-2.0
1.6951608589772127e+18,0.0,1.0,-1.0,-1.0,-2.0,0.0,-2.0,-3.0
1.695160858992199e+18,-3.0,-2.0,-1.0,1.0,-2.0,-1.0,0.0,0.0
1.6951608589931994e+18,0.0,0.0,0.0,-1.0,-1.0,-2.0,-1.0,-1.0
1.6951608590161838e+18,1.0,0.0,-2.0,-2.0,-2.0,3.0,-1.0,1.0
1.6951608590171853e+18,0.0,-1.0,-1.0,0.0,0.0,-1.0,0.0,-1.0
1.6951608590181842e+18,-1.0,1.0,-1.0,0.0,-1.0,-2.0,-1.0,-1.0
1.6951608590181842e+18,-1.0,0.0,-1.0,1.0,-2.0,-1.0,0.0,0.0
1.695160859019183e+18,0.0,-1.0,-2.0,-1.0,0.0,2.0,0.0,-1.0
1.695160859019183e+18,-1.0,1.0,-1.0,-1.0,-1.0,-1.0,-3.0,0.0
1.695160859022181e+18,2.0,0.0,0.0,-2.0,-1.0,-3.0,-1.0,-1.0
1.6951608590231813e+18,1.0,-1.0,0.0,-1.0,0.0,-2.0,-2.0,2.0
1.6951608590471667e+18,-2.0,-1.0,0.0,0.0,-1.0,1.0,1.0,-1.0
1.6951608590571615e+18,0.0,-1.0,0.0,0.0,-1.0,1.0,1.0,-2.0
1.6951608590571615e+18,-2.0,-1.0,-2.0,-2.0,2.0,1.0,-1.0,0.0
1.6951608590581622e+18,-2.0,1.0,-2.0,-2.0,0.0,1.0,-1.0,-1.0
1.6951608590611592e+18,0.0,-1.0,-1.0,-3.0,-2.0,-2.0,-1.0,0.0
1.6951608590621586e+18,-3.0,-1.0,0.0,-1.0,-2.0,-2.0,-3.0,1.0
1.6951608590621586e+18,-2.0,-1.0,1.0,1.0,-1.0,-2.0,0.0,0.0
1.6951608590621586e+18,0.0,-1.0,0.0,-3.0,-1.0,-1.0,-1.0,0.0
1.6951608590741548e+18,0.0,0.0,-1.0,-1.0,0.0,-1.0,-1.0,1.0
1.6951608590741548e+18,0.0,0.0,-2.0,0.0,1.0,0.0,1.0,-1.0
1.6951608590811505e+18,0.0,0.0,-1.0,-2.0,-1.0,1.0,-1.0,0.0
1.6951608590811505e+18,-1.0,-1.0,0.0,0.0,-2.0,0.0,-1.0,0.0
1.6951608590981376e+18,-2.0,-1.0,0.0,0.0,-2.0,-1.0,-1.0,0.0
1.6951608590981376e+18,0.0,-2.0,-2.0,-1.0,-1.0,0.0,-1.0,0.0
1.695160859099139e+18,0.0,-1.0,-1.0,-2.0,0.0,1.0,0.0,-2.0
1.6951608591001377e+18,-1.0,-1.0,-3.0,1.0,0.0,-1.0,-1.0,-2.0
1.695160859121126e+18,0.0,0.0,-1.0,1.0,-3.0,0.0,0.0,0.0
1.6951608591271468e+18,-1.0,0.0,-1.0,-1.0,-2.0,-2.0,-2.0,0.0
1.695160859131144e+18,-1.0,0.0,-2.0,-1.0,-2.0,-1.0,0.0,1.0
1.6951608591321436e+18,0.0,-1.0,-1.0,-3.0,1.0,0.0,-1.0,-1.0
1.6951608591351173e+18,-1.0,-1.0,0.0,-2.0,-1.0,-3.0,-3.0,0.0
1.6951608591351173e+18,0.0,-1.0,-2.0,-2.0,0.0,1.0,-1.0,0.0
1.6951608591411133e+18,0.0,-2.0,0.0,0.0,-2.0,-1.0,-1.0,-2.0
1.6951608591421135e+18,1.0,-3.0,-1.0,0.0,-1.0,-1.0,-2.0,-2.0
1.695160859157103e+18,1.0,0.0,-1.0,-3.0,1.0,-1.0,0.0,-1.0
1.6951608591581066e+18,0.0,-1.0,-2.0,0.0,-1.0,-1.0,0.0,-2.0
1.6951608591591032e+18,-1.0,-1.0,-1.0,-2.0,-1.0,-1.0,-3.0,-1.0
1.695160859160108e+18,0.0,0.0,3.0,1.0,-2.0,-2.0,0.0,1.0
1.695160859180091e+18,-3.0,-1.0,-11.0,-2.0,0.0,-1.0,1.0,-2.0
1.695160859180091e+18,-1.0,0.0,2.0,-1.0,-1.0,1.0,-1.0,-2.0
1.6951608591820913e+18,-2.0,-2.0,0.0,0.0,-1.0,-7.0,0.0,-2.0
1.6951608591820913e+18,-1.0,-3.0,-2.0,-2.0,-1.0,-2.0,-5.0,-2.0
1.695160859202079e+18,0.0,-2.0,-2.0,-1.0,-2.0,9.0,-1.0,-1.0
1.6951608592030828e+18,-3.0,-2.0,-2.0,-6.0,-9.0,-11.0,-4.0,-3.0
1.695160859204078e+18,-3.0,-2.0,-4.0,0.0,1.0,-2.0,-3.0,0.0
1.695160859204078e+18,1.0,-2.0,1.0,2.0,0.0,-2.0,2.0,1.0
1.6951608592170947e+18,1.0,2.0,3.0,1.0,2.0,6.0,2.0,-2.0
1.695160859218074e+18,1.0,-5.0,-1.0,1.0,7.0,6.0,1.0,-1.0
1.6951608592190692e+18,1.0,1.0,-3.0,-8.0,-6.0,-4.0,-1.0,0.0
1.6951608592190692e+18,-3.0,-2.0,-3.0,-5.0,-9.0,-7.0,-3.0,-2.0
1.695160859240061e+18,-1.0,-1.0,1.0,7.0,10.0,1.0,0.0,-1.0
1.695160859240061e+18,1.0,0.0,-1.0,4.0,7.0,2.0,1.0,1.0
1.695160859242056e+18,0.0,0.0,0.0,3.0,5.0,3.0,-1.0,0.0
1.695160859242056e+18,-1.0,1.0,-3.0,-2.0,-1.0,0.0,-1.0,0.0
1.6951608592540488e+18,-2.0,-1.0,-1.0,-6.0,-11.0,-5.0,-5.0,-3.0
1.6951608592540488e+18,0.0,0.0,1.0,-1.0,-1.0,-2.0,-1.0,-1.0
1.6951608592680655e+18,-1.0,-2.0,-2.0,-2.0,-2.0,-1.0,-2.0,-3.0
1.6951608592690657e+18,-2.0,0.0,-3.0,0.0,-1.0,0.0,-1.0,0.0
1.6951608592850337e+18,0.0,-1.0,1.0,1.0,2.0,0.0,0.0,-1.0
1.6951608592860314e+18,-1.0,2.0,1.0,0.0,-2.0,-2.0,0.0,-1.0
1.6951608592870308e+18,0.0,-1.0,1.0,1.0,1.0,3.0,1.0,-2.0
1.6951608592870308e+18,-4.0,-3.0,-5.0,-6.0,-4.0,-4.0,-10.0,-4.0
1.6951608593000248e+18,1.0,0.0,1.0,0.0,-1.0,-4.0,4.0,1.0
1.6951608593000248e+18,-2.0,-2.0,-2.0,-4.0,-6.0,-1.0,-4.0,0.0
1.695160859302026e+18,0.0,-2.0,-4.0,-2.0,-6.0,-10.0,-1.0,-2.0
1.695160859302026e+18,1.0,5.0,6.0,8.0,12.0,12.0,2.0,2.0
1.6951608593140183e+18,-3.0,-6.0,-4.0,0.0,3.0,5.0,-4.0,-1.0
1.6951608593140183e+18,-2.0,2.0,-2.0,-5.0,-3.0,-3.0,-4.0,-1.0
1.695160859332029e+18,0.0,-2.0,-2.0,0.0,-5.0,-1.0,-1.0,2.0
1.695160859333007e+18,0.0,3.0,2.0,2.0,-4.0,-8.0,-3.0,0.0
1.6951608593370263e+18,-2.0,-1.0,-3.0,-5.0,-6.0,-8.0,-6.0,0.0
1.6951608593380014e+18,-1.0,-1.0,1.0,4.0,0.0,3.0,5.0,-1.0
1.6951608593389996e+18,0.0,2.0,-2.0,-3.0,1.0,1.0,-1.0,-2.0
1.6951608593389996e+18,-1.0,-2.0,-2.0,-5.0,-3.0,1.0,-2.0,-2.0
1.6951608593619868e+18,2.0,2.0,4.0,2.0,-1.0,-3.0,1.0,1.0
1.6951608593619868e+18,-7.0,-15.0,-6.0,-1.0,-3.0,-4.0,-7.0,-4.0
1.6951608593629906e+18,1.0,5.0,4.0,2.0,2.0,6.0,9.0,4.0
1.6951608593629906e+18,-2.0,-6.0,-7.0,0.0,1.0,3.0,-1.0,-2.0
1.6951608593739804e+18,-1.0,-2.0,-1.0,-2.0,-3.0,-4.0,-1.0,-1.0
1.6951608593739804e+18,-2.0,-4.0,-3.0,-6.0,-4.0,-5.0,-5.0,-3.0
1.6951608593829788e+18,1.0,-1.0,0.0,-2.0,0.0,3.0,-2.0,-1.0
1.6951608593839772e+18,-1.0,-3.0,-2.0,2.0,6.0,1.0,2.0,0.0
1.6951608594089613e+18,1.0,6.0,0.0,-2.0,1.0,-5.0,-4.0,0.0
1.6951608594089613e+18,0.0,1.0,2.0,2.0,1.0,-3.0,2.0,1.0
1.6951608594099612e+18,-1.0,0.0,-3.0,-11.0,-8.0,-5.0,-3.0,-2.0
1.6951608594099612e+18,-3.0,-3.0,5.0,2.0,-1.0,-1.0,0.0,-1.0
1.6951608594199524e+18,-5.0,-7.0,-1.0,4.0,-1.0,-2.0,0.0,-3.0
1.6951608594199524e+18,0.0,2.0,-5.0,-6.0,-2.0,-1.0,-4.0,-2.0
1.695160859420952e+18,-3.0,-3.0,-4.0,-8.0,-1.0,0.0,-4.0,-5.0
1.6951608594219512e+18,-4.0,-13.0,-1.0,2.0,2.0,0.0,6.0,-3.0
1.6951608594339443e+18,5.0,13.0,1.0,-11.0,-3.0,-3.0,-2.0,2.0
1.6951608594339443e+18,-9.0,-19.0,4.0,13.0,-3.0,0.0,-2.0,-3.0
1.6951608594499574e+18,-1.0,1.0,8.0,14.0,2.0,-5.0,-5.0,-2.0
1.6951608594499574e+18,0.0,-7.0,-6.0,-5.0,-4.0,-2.0,-1.0,2.0
1.6951608594569536e+18,-5.0,-7.0,2.0,2.0,-1.0,1.0,-2.0,-2.0
1.6951608594569536e+18,-1.0,6.0,-2.0,-4.0,-5.0,-3.0,-1.0,-2.0
1.6951608594589307e+18,-3.0,-6.0,0.0,7.0,6.0,5.0,2.0,4.0
1.6951608594589307e+18,1.0,5.0,4.0,0.0,-2.0,1.0,2.0,2.0
1.6951608594789184e+18,5.0,11.0,-8.0,-6.0,-3.0,0.0,1.0,2.0
1.6951608594789184e+18,1.0,3.0,10.0,8.0,3.0,1.0,0.0,2.0
1.6951608594869143e+18,-6.0,-12.0,-10.0,-5.0,1.0,5.0,3.0,-2.0
1.695160859487915e+18,1.0,8.0,1.0,-6.0,-5.0,-4.0,-2.0,-2.0
1.6951608594939192e+18,-1.0,-4.0,0.0,0.0,1.0,2.0,1.0,0.0
1.6951608594939192e+18,5.0,8.0,-1.0,-5.0,-3.0,-2.0,1.0,2.0
1.6951608595099228e+18,-2.0,2.0,-2.0,3.0,0.0,-3.0,-5.0,-1.0
1.6951608595099228e+18,-2.0,-6.0,-1.0,4.0,6.0,1.0,1.0,0.0
1.695160859535886e+18,-7.0,-15.0,-4.0,-1.0,-5.0,-4.0,-4.0,-5.0
1.695160859535886e+18,-1.0,-4.0,-3.0,0.0,2.0,-1.0,1.0,2.0
1.6951608595408837e+18,-1.0,2.0,-1.0,-6.0,-2.0,-1.0,-1.0,-3.0
1.6951608595408837e+18,2.0,2.0,-4.0,-6.0,-5.0,-2.0,-1.0,4.0
1.6951608595408837e+18,-2.0,-2.0,2.0,2.0,2.0,-1.0,-3.0,1.0
1.6951608595418831e+18,-4.0,-14.0,-3.0,5.0,2.0,1.0,0.0,-3.0
1.6951608595429048e+18,1.0,3.0,0.0,-5.0,0.0,2.0,3.0,1.0
1.6951608595429048e+18,-4.0,-4.0,-5.0,-8.0,-5.0,-3.0,-7.0,-4.0
1.695160859561893e+18,-3.0,2.0,5.0,3.0,0.0,1.0,3.0,2.0
1.695160859561893e+18,8.0,24.0,4.0,-5.0,0.0,-1.0,2.0,-2.0
1.695160859568868e+18,4.0,-1.0,3.0,1.0,-1.0,-4.0,-9.0,1.0
1.695160859568868e+18,7.0,1.0,0.0,1.0,2.0,3.0,3.0,5.0
1.6951608595848594e+18,-10.0,-12.0,-6.0,1.0,-4.0,1.0,2.0,-4.0
1.6951608595848594e+18,1.0,5.0,-3.0,-3.0,1.0,2.0,3.0,-1.0
1.6951608595868575e+18,1.0,1.0,-1.0,0.0,-3.0,1.0,2.0,1.0
1.6951608595868575e+18,-3.0,-3.0,-4.0,-4.0,-3.0,-4.0,-7.0,-4.0
1.6951608595996426e+18,2.0,3.0,-1.0,-3.0,0.0,-5.0,-4.0,3.0
1.6951608595996426e+18,3.0,-5.0,-6.0,0.0,2.0,5.0,10.0,8.0
1.6951608596015818e+18,1.0,2.0,2.0,3.0,2.0,3.0,1.0,-1.0
1.6951608596015818e+18,3.0,8.0,4.0,-2.0,-2.0,0.0,-2.0,-7.0
1.6951608596227896e+18,-1.0,-14.0,-6.0,1.0,-1.0,-2.0,-1.0,1.0
1.6951608596227896e+18,-3.0,-4.0,1.0,-2.0,2.0,-2.0,-5.0,-4.0
1.695160859624038e+18,-4.0,0.0,-3.0,-1.0,0.0,0.0,4.0,-1.0
1.695160859624038e+18,-7.0,-6.0,-1.0,1.0,-2.0,-1.0,1.0,-2.0
1.6951608596370345e+18,1.0,5.0,0.0,0.0,2.0,2.0,-2.0,-1.0
1.6951608596370345e+18,0.0,-1.0,1.0,2.0,0.0,1.0,-2.0,3.0
1.6951608596430523e+18,-2.0,-7.0,-1.0,-4.0,-6.0,-7.0,-5.0,1.0
1.695160859644033e+18,-4.0,4.0,-4.0,-3.0,-1.0,-1.0,-1.0,-2.0
1.6951608596597732e+18,5.0,3.0,0.0,-1.0,0.0,4.0,2.0,-2.0
1.6951608596605458e+18,4.0,-4.0,0.0,-2.0,-5.0,-13.0,-9.0,-3.0
1.695160859661567e+18,-8.0,2.0,-3.0,-2.0,-3.0,9.0,6.0,3.0
1.695160859661567e+18,4.0,4.0,2.0,0.0,1.0,4.0,7.0,0.0
1.6951608596834742e+18,-6.0,-1.0,1.0,2.0,4.0,-5.0,-6.0,-5.0
1.6951608596834742e+18,-1.0,2.0,-1.0,-1.0,3.0,8.0,0.0,1.0
1.6951608596844736e+18,1.0,2.0,1.0,2.0,-1.0,0.0,6.0,-2.0
1.6951608596844736e+18,2.0,7.0,-2.0,-4.0,-3.0,2.0,-3.0,1.0
1.6951608596974664e+18,1.0,-2.0,1.0,2.0,-3.0,0.0,9.0,0.0
1.6951608596984658e+18,-1.0,3.0,0.0,-5.0,-3.0,-9.0,-2.0,-4.0
1.6951608597124593e+18,2.0,-8.0,0.0,-1.0,3.0,6.0,4.0,5.0
1.6951608597124593e+18,-4.0,-7.0,-3.0,-5.0,-5.0,-4.0,-1.0,1.0
1.6951608597354445e+18,2.0,7.0,5.0,4.0,6.0,1.0,-4.0,0.0
1.6951608597464366e+18,-2.0,4.0,-4.0,-6.0,-3.0,-8.0,-12.0,4.0
1.6951608597464366e+18,-3.0,2.0,2.0,3.0,3.0,3.0,4.0,-9.0
1.6951608597474363e+18,-4.0,-2.0,2.0,-6.0,-4.0,-27.0,-37.0,-12.0
1.6951608597474363e+18,-1.0,0.0,-2.0,-10.0,-19.0,7.0,21.0,3.0
1.6951608597474363e+18,-1.0,-1.0,1.0,2.0,13.0,19.0,29.0,5.0
1.6951608597474363e+18,1.0,2.0,1.0,1.0,-3.0,-10.0,-6.0,-1.0
1.695160859749435e+18,0.0,-4.0,-2.0,4.0,-2.0,6.0,20.0,5.0
1.6951608597894126e+18,-4.0,-5.0,-7.0,-10.0,-12.0,-30.0,-38.0,-10.0
1.6951608597894126e+18,-3.0,-5.0,6.0,5.0,3.0,14.0,1.0,0.0
1.6951608597904138e+18,2.0,-1.0,-5.0,-7.0,7.0,2.0,-6.0,-5.0
1.6951608597904138e+18,4.0,4.0,15.0,17.0,7.0,-11.0,1.0,-2.0
1.6951608597914115e+18,-7.0,-1.0,-24.0,-3.0,-3.0,15.0,-12.0,1.0
1.6951608597914115e+18,0.0,-4.0,-7.0,-18.0,-21.0,-16.0,18.0,4.0
1.6951608597954086e+18,-6.0,-6.0,7.0,5.0,5.0,7.0,-7.0,-5.0
1.6951608597954086e+18,0.0,-2.0,5.0,-1.0,13.0,18.0,9.0,4.0
1.6951608598094252e+18,3.0,1.0,22.0,7.0,-2.0,-75.0,-25.0,-7.0
1.6951608598104008e+18,-4.0,-2.0,-26.0,-5.0,-8.0,67.0,11.0,-1.0
1.6951608598104008e+18,-7.0,-1.0,8.0,4.0,11.0,-30.0,-7.0,-12.0
1.6951608598104008e+18,-1.0,-7.0,-26.0,-13.0,-4.0,54.0,17.0,13.0
1.6951608598164004e+18,7.0,3.0,-7.0,-7.0,-3.0,-7.0,4.0,1.0
1.6951608598164004e+18,-2.0,-2.0,3.0,-2.0,13.0,-15.0,-19.0,-4.0
1.6951608598253919e+18,-2.0,-2.0,5.0,1.0,-12.0,-17.0,-14.0,-6.0
1.6951608598253919e+18,3.0,3.0,4.0,17.0,5.0,1.0,3.0,5.0
1.695160859846379e+18,-1.0,-1.0,-4.0,-3.0,-5.0,7.0,5.0,-3.0
1.695160859847387e+18,-4.0,-2.0,-3.0,-6.0,-17.0,-29.0,-19.0,-5.0
1.6951608598553743e+18,3.0,-1.0,3.0,9.0,4.0,3.0,8.0,11.0
1.6951608598553743e+18,-4.0,-2.0,6.0,10.0,1.0,8.0,7.0,-5.0
1.6951608598623693e+18,1.0,-3.0,-13.0,-14.0,2.0,22.0,14.0,7.0
1.6951608598623693e+18,-1.0,4.0,15.0,9.0,-7.0,-28.0,-9.0,-7.0
1.695160859864369e+18,2.0,4.0,-4.0,8.0,11.0,25.0,4.0,0.0
1.695160859864369e+18,0.0,0.0,-13.0,-11.0,-13.0,-25.0,-15.0,-1.0
1.695160859877362e+18,2.0,1.0,2.0,-19.0,-6.0,19.0,17.0,0.0
1.695160859877362e+18,-1.0,0.0,35.0,44.0,23.0,0.0,-4.0,-1.0
1.6951608598843581e+18,-2.0,-4.0,-22.0,-13.0,-13.0,-16.0,-5.0,1.0
1.6951608598843581e+18,-1.0,0.0,16.0,3.0,0.0,1.0,5.0,0.0
1.6951608599003492e+18,-3.0,-2.0,-11.0,-10.0,-2.0,11.0,-8.0,-3.0
1.6951608599003492e+18,0.0,4.0,6.0,-8.0,2.0,-6.0,7.0,1.0
1.6951608599013478e+18,-1.0,1.0,-7.0,-1.0,-11.0,1.0,-3.0,-1.0
1.6951608599013478e+18,-4.0,-3.0,-17.0,-22.0,-1.0,-9.0,-14.0,-8.0
1.695160859944323e+18,-4.0,-6.0,-33.0,-28.0,-2.0,5.0,13.0,2.0
1.6951608599493202e+18,-5.0,1.0,33.0,10.0,-22.0,-8.0,-7.0,-7.0
1.6951608599503447e+18,4.0,-5.0,-51.0,-14.0,22.0,10.0,5.0,8.0
1.6951608599503447e+18,-3.0,0.0,7.0,13.0,3.0,-5.0,-7.0,-3.0
1.6951608599503447e+18,-1.0,-2.0,13.0,24.0,6.0,-2.0,-7.0,1.0
1.6951608599503447e+18,3.0,-2.0,-38.0,-30.0,-6.0,-3.0,-3.0,-1.0
1.6951608599503447e+18,-2.0,-4.0,32.0,9.0,-12.0,-5.0,-12.0,-4.0
1.6951608599503447e+18,-1.0,-1.0,-18.0,-17.0,0.0,-4.0,5.0,2.0
1.6951608599753055e+18,0.0,1.0,18.0,25.0,11.0,10.0,17.0,5.0
1.6951608599763054e+18,-2.0,-6.0,-9.0,-11.0,-5.0,2.0,-3.0,-1.0
1.6951608599773046e+18,0.0,0.0,-18.0,-27.0,-12.0,-4.0,3.0,0.0
1.6951608599773046e+18,-2.0,-6.0,9.0,-4.0,-7.0,-10.0,-11.0,-2.0
1.6951608599823e+18,-1.0,1.0,14.0,31.0,9.0,-1.0,-6.0,-2.0
1.6951608599833044e+18,1.0,-2.0,-31.0,-39.0,1.0,12.0,5.0,1.0
1.6951608600053092e+18,4.0,6.0,43.0,32.0,-1.0,-5.0,-7.0,0.0
1.6951608600053092e+18,-2.0,8.0,-33.0,-12.0,-8.0,-10.0,-3.0,-4.0
1.695160860006287e+18,0.0,-9.0,-2.0,-5.0,5.0,6.0,5.0,1.0
1.695160860006287e+18,-2.0,4.0,19.0,6.0,5.0,-1.0,0.0,0.0
1.6951608600102853e+18,2.0,-3.0,3.0,7.0,-4.0,-1.0,-1.0,1.0
