timestamp,EMG_s0,EMG_s1,EMG_s2,EMG_s3,EMG_s4,EMG_s5,EMG_s6,EMG_s7
1.695160375089921e+18,1.0,-1.0,0.0,-1.0,-1.0,0.0,-1.0,0.0
1.6951603750909202e+18,-1.0,-1.0,1.0,1.0,0.0,-1.0,1.0,-1.0
1.6951603750909202e+18,1.0,-1.0,-1.0,-2.0,0.0,-2.0,-1.0,-1.0
1.6951603750909202e+18,-1.0,-2.0,-2.0,-1.0,-3.0,0.0,-1.0,0.0
1.6951603750939177e+18,1.0,0.0,0.0,-3.0,0.0,-1.0,1.0,0.0
1.6951603750939177e+18,1.0,0.0,-2.0,-2.0,0.0,0.0,-1.0,0.0
1.6951603751029125e+18,1.0,-1.0,1.0,0.0,-4.0,1.0,-1.0,-1.0
1.6951603751029125e+18,-1.0,0.0,-1.0,-1.0,-1.0,0.0,-2.0,-2.0
1.6951603751069128e+18,0.0,-1.0,0.0,0.0,0.0,-1.0,-1.0,-2.0
1.6951603751069128e+18,-1.0,1.0,0.0,-1.0,-1.0,1.0,0.0,-2.0
1.69516037510891e+18,-1.0,-1.0,-2.0,0.0,-1.0,-1.0,-2.0,0.0
1.69516037510891e+18,0.0,0.0,-1.0,-1.0,1.0,0.0,-2.0,-2.0
1.6951603751358938e+18,-2.0,-3.0,0.0,0.0,-2.0,0.0,-1.0,-1.0
1.6951603751358938e+18,-2.0,-2.0,-3.0,0.0,-1.0,-3.0,-1.0,0.0
1.6951603751368945e+18,-2.0,-1.0,-2.0,-2.0,-1.0,-2.0,0.0,-1.0
1.6951603751368945e+18,0.0,0.0,1.0,1.0,0.0,-1.0,0.0,1.0
1.6951603751478884e+18,-1.0,0.0,-1.0,-1.0,-2.0,-2.0,0.0,-1.0
1.6951603751478884e+18,0.0,-2.0,-1.0,0.0,-2.0,0.0,0.0,0.0
1.6951603751568827e+18,-2.0,0.0,-2.0,0.0,-1.0,0.0,0.0,0.0
1.6951603751578824e+18,-2.0,0.0,-2.0,0.0,-2.0,-1.0,1.0,0.0
1.6951603751628787e+18,-1.0,-2.0,-3.0,-1.0,0.0,0.0,0.0,0.0
1.6951603751628787e+18,0.0,0.0,-1.0,-1.0,-1.0,-2.0,-1.0,-1.0
1.6951603751778714e+18,-1.0,0.0,1.0,0.0,1.0,-3.0,-1.0,-2.0
1.6951603751778714e+18,1.0,-2.0,-1.0,0.0,-2.0,-1.0,-1.0,0.0
1.6951603751788695e+18,-1.0,0.0,0.0,-3.0,-1.0,-1.0,-2.0,0.0
1.6951603751788695e+18,-1.0,-1.0,1.0,2.0,0.0,1.0,-1.0,-1.0
1.6951603752158482e+18,-2.0,-2.0,-1.0,-1.0,1.0,-1.0,0.0,-1.0
1.6951603752158482e+18,0.0,-2.0,0.0,-2.0,0.0,-2.0,0.0,-2.0
1.6951603752168486e+18,0.0,-1.0,0.0,0.0,-1.0,-2.0,-1.0,-2.0
1.6951603752168486e+18,0.0,-1.0,-1.0,-2.0,-2.0,0.0,-1.0,0.0
1.6951603752178476e+18,-2.0,0.0,-2.0,1.0,-1.0,-1.0,-1.0,-1.0
1.6951603752178476e+18,-3.0,0.0,-1.0,0.0,0.0,-1.0,-1.0,-1.0
1.695160375224843e+18,-1.0,0.0,-1.0,-1.0,0.0,-1.0,-1.0,-2.0
1.695160375224843e+18,-2.0,-2.0,-1.0,-1.0,0.0,-2.0,-2.0,-1.0
1.6951603752398344e+18,0.0,0.0,0.0,1.0,0.0,0.0,-2.0,-1.0
1.6951603752398344e+18,-2.0,0.0,0.0,-1.0,-1.0,-1.0,-1.0,-1.0
1.6951603752418332e+18,0.0,-1.0,-2.0,0.0,-1.0,-1.0,-1.0,-1.0
1.6951603752418332e+18,0.0,-1.0,-1.0,-1.0,0.0,-1.0,-1.0,1.0
1.6951603752618214e+18,0.0,-2.0,-1.0,-3.0,-2.0,0.0,-1.0,0.0
1.6951603752618214e+18,-1.0,0.0,-1.0,-1.0,-1.0,1.0,-1.0,-2.0
1.6951603752968033e+18,-1.0,0.0,-1.0,-1.0,0.0,-1.0,0.0,-2.0
1.695160375301802e+18,0.0,0.0,-2.0,-1.0,0.0,0.0,-2.0,-3.0
1.695160375305798e+18,-1.0,-1.0,-2.0,-1.0,-1.0,-2.0,-2.0,-1.0
1.6951603753067996e+18,-1.0,-1.0,-1.0,0.0,2.0,0.0,0.0,0.0
1.6951603753067996e+18,0.0,-1.0,1.0,1.0,-1.0,-1.0,-1.0,1.0
1.6951603753067996e+18,-1.0,-2.0,-1.0,-2.0,-3.0,1.0,1.0,0.0
1.695160375307799e+18,-2.0,-1.0,1.0,0.0,-1.0,-2.0,-1.0,-1.0
1.695160375307799e+18,0.0,-2.0,-2.0,-1.0,-1.0,-1.0,0.0,-1.0
1.6951603753107932e+18,-2.0,-1.0,-3.0,-1.0,-1.0,-2.0,-2.0,-1.0
1.6951603753107932e+18,-1.0,-1.0,0.0,1.0,2.0,-1.0,1.0,0.0
1.6951603753197906e+18,-1.0,-1.0,-1.0,1.0,1.0,-1.0,0.0,2.0
1.6951603753197906e+18,-3.0,0.0,0.0,-2.0,0.0,0.0,2.0,0.0
1.6951603753427768e+18,-1.0,0.0,-1.0,1.0,2.0,2.0,2.0,1.0
1.6951603753427768e+18,0.0,2.0,3.0,1.0,1.0,1.0,1.0,1.0
1.6951603753437993e+18,2.0,1.0,1.0,-1.0,1.0,1.0,0.0,0.0
1.6951603753437993e+18,2.0,0.0,-1.0,-1.0,1.0,0.0,-1.0,0.0
1.6951603753487744e+18,-1.0,0.0,1.0,-1.0,0.0,0.0,-2.0,0.0
1.6951603753487744e+18,-1.0,0.0,0.0,-1.0,1.0,-3.0,-1.0,-1.0
1.6951603753647634e+18,0.0,-1.0,0.0,-2.0,-1.0,1.0,0.0,0.0
1.6951603753647634e+18,0.0,0.0,1.0,-1.0,-1.0,-1.0,-3.0,-1.0
1.6951603753877514e+18,0.0,1.0,1.0,0.0,-1.0,1.0,1.0,-2.0
1.695160375388752e+18,1.0,-2.0,-3.0,-2.0,-3.0,-1.0,0.0,-1.0
1.6951603753897492e+18,-1.0,2.0,-1.0,0.0,-1.0,1.0,-1.0,-1.0
1.6951603753897492e+18,1.0,2.0,0.0,0.0,0.0,0.0,0.0,0.0
1.6951603753907487e+18,-2.0,-1.0,-1.0,-1.0,0.0,1.0,-1.0,-1.0
1.6951603753907487e+18,0.0,-1.0,0.0,0.0,-2.0,-1.0,0.0,1.0
1.6951603754087375e+18,0.0,-1.0,-2.0,-2.0,0.0,-1.0,0.0,0.0
1.6951603754097436e+18,1.0,-3.0,-1.0,-1.0,-1.0,-1.0,0.0,0.0
1.6951603754097436e+18,0.0,-1.0,-1.0,-3.0,-1.0,-1.0,-1.0,-1.0
1.6951603754097436e+18,1.0,-1.0,-2.0,0.0,0.0,0.0,1.0,0.0
1.6951603754247296e+18,-1.0,0.0,1.0,-2.0,-1.0,0.0,0.0,-1.0
1.6951603754257492e+18,-1.0,-3.0,-2.0,0.0,-2.0,0.0,0.0,1.0
1.6951603754307246e+18,1.0,-1.0,0.0,-1.0,-2.0,-2.0,-1.0,1.0
1.6951603754307246e+18,-1.0,-1.0,1.0,-2.0,0.0,-1.0,0.0,-1.0
1.6951603754557123e+18,0.0,0.0,1.0,-2.0,-1.0,-1.0,0.0,0.0
1.6951603754557123e+18,-2.0,-1.0,-1.0,-2.0,-1.0,1.0,-2.0,1.0
1.6951603754557123e+18,3.0,-1.0,0.0,0.0,-1.0,-1.0,0.0,0.0
1.6951603754557123e+18,-1.0,-1.0,-1.0,0.0,-2.0,0.0,-1.0,0.0
1.6951603754687273e+18,-2.0,-2.0,-1.0,-1.0,-1.0,-2.0,-1.0,-1.0
1.695160375469706e+18,-1.0,0.0,-2.0,-2.0,-1.0,-1.0,1.0,-2.0
1.695160375469706e+18,-1.0,0.0,-2.0,0.0,-1.0,-1.0,-1.0,-1.0
1.695160375469706e+18,0.0,0.0,-1.0,-2.0,-1.0,-1.0,-2.0,0.0
1.695160375491682e+18,-1.0,-2.0,-3.0,-1.0,1.0,-1.0,-1.0,0.0
1.695160375491682e+18,0.0,-1.0,-1.0,0.0,-2.0,-3.0,-2.0,-2.0
1.6951603754926853e+18,-1.0,-1.0,0.0,-1.0,0.0,1.0,-3.0,-1.0
1.6951603754926853e+18,-1.0,0.0,0.0,1.0,-3.0,0.0,-1.0,0.0
1.6951603755155105e+18,-1.0,-1.0,-2.0,-1.0,-2.0,0.0,1.0,-1.0
1.6951603755155105e+18,-1.0,-2.0,0.0,-1.0,0.0,-2.0,-2.0,-2.0
1.6951603755155105e+18,-2.0,-1.0,-1.0,-1.0,1.0,-2.0,0.0,0.0
1.6951603755155105e+18,-1.0,0.0,-2.0,2.0,-2.0,-3.0,-3.0,0.0
1.6951603755287552e+18,1.0,0.0,-2.0,1.0,4.0,2.0,-1.0,0.0
1.695160375529724e+18,1.0,1.0,1.0,0.0,-4.0,-3.0,-1.0,0.0
1.695160375529724e+18,1.0,-1.0,0.0,-2.0,-1.0,-1.0,0.0,-1.0
1.695160375529724e+18,0.0,-1.0,0.0,1.0,1.0,-1.0,0.0,-1.0
1.695160375551952e+18,0.0,-1.0,-2.0,1.0,-1.0,-1.0,-1.0,0.0
1.695160375552961e+18,0.0,-1.0,-2.0,-3.0,-2.0,-1.0,1.0,0.0
1.695160375552961e+18,0.0,-1.0,-2.0,-1.0,-1.0,0.0,-2.0,-2.0
1.695160375552961e+18,0.0,0.0,-2.0,-3.0,-3.0,-2.0,-4.0,-3.0
1.6951603755669893e+18,0.0,-4.0,-3.0,-1.0,-3.0,-2.0,-4.0,-3.0
1.6951603755679903e+18,-4.0,-2.0,-3.0,2.0,-1.0,-1.0,-1.0,0.0
1.6951603755679903e+18,-3.0,-2.0,-3.0,-1.0,-3.0,-3.0,-4.0,-2.0
1.6951603755679903e+18,-2.0,-2.0,-1.0,-2.0,-2.0,-2.0,0.0,-2.0
1.695160375613729e+18,0.0,1.0,1.0,-1.0,-1.0,-1.0,-1.0,-3.0
1.695160375614721e+18,-2.0,-1.0,0.0,-2.0,2.0,0.0,0.0,-2.0
1.6951603756157204e+18,0.0,-3.0,-2.0,-1.0,-2.0,-2.0,1.0,-2.0
1.6951603756167186e+18,-2.0,-1.0,-3.0,0.0,-1.0,1.0,-2.0,-1.0
1.6951603756167186e+18,-2.0,-1.0,-3.0,-3.0,-4.0,-3.0,-1.0,-2.0
1.6951603756207237e+18,-1.0,-1.0,-1.0,-2.0,0.0,-1.0,-3.0,-2.0
1.6951603756207237e+18,-1.0,0.0,0.0,2.0,1.0,1.0,1.0,0.0
1.6951603756207237e+18,-1.0,-4.0,-2.0,-1.0,2.0,1.0,0.0,0.0
1.695160375634708e+18,-1.0,-2.0,0.0,0.0,-4.0,-1.0,0.0,1.0
1.695160375635713e+18,-1.0,-2.0,-1.0,-1.0,-2.0,-2.0,-4.0,-1.0
1.6951603756367086e+18,1.0,4.0,3.0,-2.0,0.0,-1.0,-2.0,0.0
1.6951603756367086e+18,1.0,3.0,-1.0,2.0,0.0,1.0,2.0,2.0
1.6951603756656904e+18,-1.0,-1.0,0.0,0.0,-1.0,1.0,1.0,0.0
1.6951603756666903e+18,-2.0,-1.0,3.0,5.0,2.0,-1.0,-3.0,-2.0
1.6951603756666903e+18,-4.0,-6.0,-9.0,-10.0,-5.0,-2.0,-3.0,-3.0
1.6951603756676913e+18,1.0,3.0,1.0,0.0,2.0,-1.0,-1.0,1.0
1.6951603756686925e+18,-2.0,0.0,1.0,0.0,0.0,-1.0,-3.0,-2.0
1.695160375669692e+18,0.0,1.0,4.0,4.0,1.0,-1.0,2.0,1.0
1.695160375679682e+18,-3.0,-2.0,-2.0,1.0,0.0,-1.0,0.0,-1.0
1.695160375680689e+18,-1.0,-6.0,0.0,-3.0,-1.0,-1.0,-2.0,-2.0
1.6951603756896763e+18,3.0,6.0,2.0,-1.0,1.0,1.0,2.0,0.0
1.695160375690676e+18,-3.0,-6.0,2.0,3.0,-2.0,-1.0,-3.0,-3.0
1.695160375690676e+18,3.0,3.0,-4.0,-3.0,2.0,-1.0,-3.0,0.0
1.695160375690676e+18,-9.0,-10.0,-6.0,-5.0,-5.0,-2.0,-3.0,-4.0
1.6951603757096653e+18,6.0,12.0,0.0,-3.0,1.0,5.0,8.0,6.0
1.6951603757106716e+18,2.0,2.0,-6.0,-4.0,-2.0,1.0,0.0,1.0
1.6951603757116736e+18,3.0,8.0,12.0,6.0,1.0,3.0,1.0,2.0
1.6951603757126728e+18,2.0,0.0,1.0,-1.0,0.0,-1.0,-1.0,-1.0
1.6951603757326533e+18,2.0,2.0,-3.0,-2.0,2.0,0.0,0.0,1.0
1.6951603757336602e+18,0.0,0.0,0.0,-2.0,0.0,-1.0,0.0,-2.0
1.6951603757426547e+18,0.0,0.0,-3.0,-8.0,-4.0,-5.0,-2.0,0.0
1.6951603757436544e+18,-3.0,-5.0,8.0,14.0,5.0,4.0,3.0,0.0
1.695160375747644e+18,-5.0,-7.0,-1.0,-1.0,-3.0,-2.0,-6.0,-3.0
1.695160375747644e+18,4.0,7.0,-2.0,0.0,-1.0,1.0,1.0,2.0
1.6951603757486433e+18,-2.0,3.0,6.0,-1.0,0.0,-1.0,1.0,-1.0
1.695160375749642e+18,0.0,4.0,-2.0,-9.0,-5.0,-4.0,-3.0,-1.0
1.6951603757846239e+18,0.0,-7.0,-4.0,8.0,2.0,3.0,2.0,1.0
1.695160375785622e+18,-5.0,-11.0,0.0,0.0,3.0,0.0,-1.0,-4.0
1.695160375785622e+18,-1.0,0.0,-2.0,-3.0,-3.0,-1.0,0.0,0.0
1.695160375785622e+18,3.0,5.0,-1.0,-2.0,2.0,3.0,2.0,1.0
1.6951603757916168e+18,0.0,6.0,9.0,10.0,5.0,0.0,1.0,0.0
1.695160375792623e+18,2.0,8.0,4.0,-2.0,-3.0,0.0,1.0,1.0
1.695160375792623e+18,-4.0,-11.0,-15.0,-4.0,-1.0,-6.0,-11.0,-4.0
1.695160375792623e+18,-6.0,-13.0,-9.0,-11.0,-6.0,-1.0,9.0,-1.0
1.6951603758156032e+18,-3.0,-11.0,-9.0,-7.0,-3.0,-2.0,-3.0,-2.0
1.6951603758156032e+18,2.0,4.0,3.0,-1.0,0.0,1.0,0.0,1.0
1.6951603758166026e+18,-2.0,1.0,9.0,11.0,4.0,2.0,4.0,-3.0
1.6951603758166026e+18,2.0,-5.0,-1.0,-2.0,-4.0,-4.0,-9.0,2.0
1.6951603758385902e+18,-1.0,-5.0,-7.0,-4.0,-2.0,-2.0,-3.0,-1.0
1.6951603758385902e+18,-5.0,-7.0,-8.0,-11.0,-4.0,-5.0,-6.0,-4.0
1.6951603758395894e+18,2.0,3.0,0.0,5.0,-3.0,5.0,9.0,2.0
1.6951603758395894e+18,0.0,5.0,10.0,8.0,4.0,1.0,-2.0,-1.0
1.6951603758595776e+18,1.0,-1.0,0.0,-10.0,-8.0,-8.0,-3.0,-3.0
1.6951603758605786e+18,3.0,2.0,1.0,6.0,3.0,3.0,0.0,2.0
1.6951603758605786e+18,2.0,4.0,-4.0,-4.0,-1.0,-1.0,-1.0,1.0
1.6951603758605786e+18,-5.0,-15.0,-9.0,-6.0,-1.0,0.0,0.0,0.0
1.6951603758755712e+18,1.0,0.0,11.0,4.0,5.0,3.0,6.0,-4.0
1.6951603758755712e+18,-6.0,-14.0,-6.0,2.0,-5.0,-3.0,-1.0,-4.0
1.6951603758755712e+18,0.0,4.0,4.0,4.0,1.0,-2.0,-5.0,-2.0
1.6951603758765714e+18,0.0,4.0,-4.0,-2.0,0.0,-5.0,-8.0,-3.0
1.6951603758895613e+18,3.0,15.0,5.0,-8.0,-4.0,-10.0,-19.0,-1.0
1.6951603758905595e+18,0.0,-3.0,-4.0,1.0,3.0,12.0,13.0,6.0
1.6951603758965555e+18,1.0,1.0,4.0,4.0,2.0,-1.0,-6.0,-1.0
1.6951603758965555e+18,2.0,5.0,-6.0,-4.0,-2.0,1.0,12.0,5.0
1.6951603759205427e+18,-5.0,-8.0,-9.0,2.0,3.0,6.0,9.0,0.0
1.6951603759205427e+18,3.0,9.0,2.0,-5.0,-3.0,-6.0,-5.0,-3.0
1.6951603759205427e+18,-4.0,-12.0,-10.0,-8.0,-2.0,-1.0,-1.0,-1.0
1.695160375921543e+18,-1.0,11.0,11.0,4.0,-3.0,-2.0,-10.0,-6.0
1.6951603759265385e+18,1.0,-3.0,-1.0,-1.0,-1.0,-2.0,-2.0,4.0
1.6951603759265385e+18,-1.0,4.0,4.0,3.0,-1.0,-2.0,-3.0,-1.0
1.695160375941531e+18,-1.0,-8.0,-13.0,-9.0,-2.0,2.0,0.0,-2.0
1.6951603759425303e+18,2.0,5.0,12.0,13.0,-1.0,-4.0,-5.0,-4.0
1.6951603759495263e+18,-8.0,-11.0,-2.0,-5.0,-3.0,-2.0,1.0,-4.0
1.6951603759495263e+18,-4.0,-5.0,-7.0,-6.0,-1.0,-1.0,-2.0,-5.0
1.6951603759495263e+18,-3.0,-7.0,-3.0,-1.0,-4.0,-4.0,-4.0,-2.0
1.6951603759505267e+18,-1.0,1.0,-10.0,-2.0,-1.0,-2.0,-2.0,-3.0
1.6951603759795095e+18,-2.0,-3.0,1.0,5.0,-1.0,2.0,1.0,-1.0
1.6951603759805084e+18,2.0,5.0,5.0,4.0,1.0,-2.0,-2.0,-1.0
1.6951603759805084e+18,-3.0,-2.0,-3.0,-3.0,0.0,-1.0,0.0,-1.0
1.6951603759815076e+18,-1.0,-3.0,-4.0,-2.0,2.0,1.0,2.0,0.0
1.6951603759855048e+18,-1.0,-1.0,2.0,5.0,0.0,-6.0,-10.0,-3.0
1.6951603759865065e+18,-4.0,-5.0,-8.0,-9.0,-3.0,-4.0,3.0,-2.0
1.6951603760014963e+18,0.0,3.0,3.0,4.0,0.0,-1.0,-5.0,-2.0
1.6951603760034967e+18,1.0,-2.0,1.0,-1.0,4.0,7.0,15.0,3.0
1.6951603760254817e+18,-1.0,-1.0,-5.0,-4.0,1.0,1.0,4.0,1.0
1.6951603760254817e+18,-2.0,-3.0,-2.0,0.0,-1.0,-5.0,-9.0,-3.0
1.6951603760264814e+18,-1.0,0.0,4.0,2.0,-1.0,5.0,4.0,1.0
1.6951603760264814e+18,-1.0,2.0,1.0,-1.0,-2.0,-5.0,-1.0,-1.0
1.69516037603148e+18,2.0,0.0,-1.0,-2.0,-1.0,-5.0,-12.0,-3.0
1.69516037603148e+18,1.0,1.0,-8.0,-2.0,2.0,1.0,6.0,1.0
1.6951603760324795e+18,-3.0,-4.0,-3.0,-7.0,-8.0,-14.0,-16.0,-6.0
1.6951603760324795e+18,-1.0,-2.0,-3.0,0.0,1.0,13.0,7.0,3.0
1.695160376048473e+18,-1.0,0.0,1.0,-2.0,1.0,4.0,3.0,1.0
1.6951603760504707e+18,2.0,0.0,3.0,1.0,1.0,2.0,3.0,2.0
1.6951603760534694e+18,1.0,0.0,-13.0,-7.0,0.0,-1.0,-1.0,1.0
1.6951603760534694e+18,-1.0,1.0,2.0,-3.0,-2.0,-6.0,-10.0,-4.0
1.6951603760694572e+18,-2.0,0.0,0.0,4.0,-7.0,-12.0,-5.0,-2.0
1.6951603760694572e+18,-1.0,-3.0,-3.0,3.0,-7.0,-16.0,-12.0,-2.0
1.6951603760694572e+18,1.0,1.0,0.0,0.0,0.0,27.0,9.0,0.0
1.6951603760694572e+18,3.0,1.0,3.0,3.0,14.0,0.0,15.0,2.0
1.6951603760934433e+18,0.0,1.0,-6.0,-4.0,-1.0,4.0,7.0,3.0
1.6951603760934433e+18,-4.0,-2.0,-2.0,-4.0,-1.0,-6.0,-15.0,-8.0
1.6951603760934433e+18,-2.0,-5.0,-16.0,-15.0,-22.0,-23.0,-10.0,-3.0
1.6951603760944445e+18,-1.0,1.0,0.0,-9.0,-4.0,3.0,-1.0,1.0
1.6951603761184522e+18,2.0,4.0,4.0,6.0,6.0,11.0,1.0,2.0
1.695160376119429e+18,-2.0,0.0,13.0,18.0,22.0,33.0,26.0,9.0
1.695160376119429e+18,-1.0,-1.0,9.0,-1.0,3.0,-9.0,2.0,-1.0
1.695160376119429e+18,-4.0,-7.0,-12.0,-15.0,-17.0,2.0,-7.0,-5.0
1.6951603761294254e+18,-2.0,-6.0,-1.0,4.0,8.0,-20.0,3.0,-3.0
1.6951603761294254e+18,0.0,-3.0,-17.0,-14.0,-18.0,-15.0,-2.0,-3.0
1.6951603761364424e+18,-4.0,-1.0,12.0,14.0,5.0,3.0,-2.0,-1.0
1.6951603761364424e+18,2.0,-3.0,-8.0,4.0,-2.0,-3.0,-2.0,-2.0
1.6951603761594092e+18,-2.0,-2.0,9.0,-7.0,-16.0,-5.0,-9.0,-3.0
1.6951603761604076e+18,2.0,-1.0,-7.0,2.0,9.0,8.0,-1.0,1.0
1.6951603761604076e+18,1.0,3.0,23.0,3.0,7.0,-6.0,-4.0,0.0
1.6951603761604076e+18,-2.0,-5.0,-36.0,-28.0,-9.0,-13.0,-19.0,-5.0
1.6951603761743977e+18,-1.0,0.0,7.0,20.0,1.0,15.0,-8.0,-3.0
1.6951603761754004e+18,-5.0,-2.0,11.0,-1.0,-2.0,4.0,5.0,0.0
1.695160376176397e+18,2.0,-1.0,-3.0,11.0,-9.0,-26.0,11.0,2.0
1.695160376176397e+18,4.0,7.0,30.0,20.0,12.0,6.0,-11.0,7.0
1.6951603761963858e+18,-7.0,-7.0,-43.0,-27.0,7.0,27.0,4.0,-4.0
1.6951603761963858e+18,1.0,0.0,-3.0,8.0,6.0,7.0,9.0,3.0
1.6951603761963858e+18,0.0,0.0,9.0,0.0,-2.0,-8.0,-1.0,-3.0
1.6951603761973862e+18,-1.0,1.0,11.0,4.0,3.0,-1.0,2.0,-2.0
1.695160376220373e+18,-2.0,-3.0,-7.0,-11.0,-19.0,-22.0,-9.0,-5.0
1.695160376220373e+18,1.0,1.0,6.0,0.0,1.0,-3.0,-15.0,1.0
1.695160376220373e+18,0.0,-2.0,-26.0,-12.0,6.0,18.0,27.0,6.0
1.695160376220373e+18,1.0,0.0,-5.0,0.0,-9.0,-7.0,-3.0,-3.0
1.6951603762323812e+18,0.0,-4.0,-8.0,-3.0,5.0,2.0,-3.0,-1.0
1.6951603762323812e+18,2.0,3.0,28.0,24.0,0.0,0.0,8.0,3.0
1.6951603762413601e+18,-5.0,-5.0,-32.0,-25.0,-1.0,-2.0,-12.0,-5.0
1.6951603762423603e+18,0.0,1.0,22.0,7.0,2.0,1.0,1.0,-1.0
1.695160376249354e+18,2.0,2.0,-7.0,1.0,6.0,3.0,3.0,5.0
1.695160376249354e+18,-2.0,-3.0,14.0,-9.0,-16.0,-15.0,-9.0,-3.0
1.6951603762643453e+18,1.0,1.0,-1.0,12.0,5.0,7.0,-5.0,0.0
1.695160376265345e+18,-4.0,-2.0,14.0,0.0,1.0,3.0,4.0,1.0
1.6951603762793605e+18,-3.0,-4.0,-34.0,-27.0,0.0,-5.0,3.0,-4.0
1.6951603762803395e+18,-1.0,-2.0,-8.0,-8.0,-8.0,-7.0,-1.0,-3.0
1.6951603762803395e+18,-3.0,-1.0,7.0,-4.0,-3.0,4.0,-5.0,-4.0
1.6951603762803395e+18,4.0,0.0,-7.0,13.0,9.0,0.0,7.0,6.0
1.6951603762963308e+18,2.0,2.0,29.0,-1.0,-3.0,-8.0,1.0,0.0
1.6951603763003256e+18,-1.0,-1.0,-14.0,-2.0,-10.0,-1.0,-11.0,-5.0
1.6951603763003256e+18,0.0,3.0,27.0,26.0,4.0,8.0,18.0,5.0
1.6951603763003256e+18,-2.0,-3.0,-35.0,-28.0,-1.0,-13.0,-21.0,-5.0
1.695160376324313e+18,1.0,2.0,7.0,-2.0,-6.0,11.0,19.0,4.0
1.695160376324313e+18,-2.0,1.0,-1.0,11.0,11.0,3.0,-3.0,-4.0
1.6951603763333056e+18,0.0,-1.0,4.0,-10.0,-2.0,-7.0,-31.0,-6.0
1.6951603763333056e+18,-3.0,-3.0,13.0,10.0,-10.0,0.0,22.0,-4.0
1.6951603763343286e+18,-2.0,1.0,10.0,21.0,13.0,2.0,-9.0,1.0
1.6951603763343286e+18,1.0,-1.0,-22.0,-18.0,-6.0,-1.0,12.0,0.0
1.6951603763353073e+18,1.0,2.0,25.0,16.0,-1.0,-1.0,6.0,3.0
1.6951603763353073e+18,-1.0,-3.0,-15.0,-30.0,-9.0,-6.0,-8.0,-2.0
1.6951603763622884e+18,-3.0,0.0,29.0,34.0,-3.0,-6.0,-6.0,-4.0
1.6951603763622884e+18,-1.0,-4.0,-34.0,-20.0,2.0,-2.0,-4.0,-1.0
1.6951603763632886e+18,1.0,1.0,3.0,10.0,3.0,3.0,-1.0,2.0
1.6951603763632886e+18,-4.0,-2.0,-17.0,1.0,0.0,-2.0,-6.0,-5.0
1.6951603763932956e+18,0.0,0.0,3.0,-19.0,-3.0,0.0,3.0,2.0
1.6951603763932956e+18,2.0,4.0,15.0,16.0,5.0,-1.0,-10.0,-2.0
1.6951603763942733e+18,-1.0,0.0,6.0,18.0,-5.0,1.0,8.0,0.0
1.6951603763942733e+18,-1.0,-3.0,-9.0,-13.0,3.0,4.0,0.0,2.0
1.6951603763962706e+18,-1.0,-1.0,5.0,4.0,-2.0,-6.0,-2.0,1.0
1.6951603763962706e+18,-1.0,-2.0,-7.0,-17.0,1.0,0.0,1.0,-1.0
1.695160376399268e+18,-1.0,-8.0,-32.0,-42.0,-6.0,1.0,0.0,-2.0
1.695160376399268e+18,0.0,3.0,20.0,27.0,-2.0,0.0,2.0,-4.0
1.6951603764142612e+18,-1.0,-3.0,-1.0,5.0,5.0,1.0,-4.0,0.0
1.6951603764142612e+18,-3.0,-2.0,-2.0,-9.0,-8.0,1.0,3.0,-1.0
1.6951603764152591e+18,1.0,3.0,2.0,5.0,5.0,3.0,-2.0,2.0
1.6951603764152591e+18,3.0,8.0,21.0,13.0,4.0,1.0,5.0,3.0
1.6951603764532385e+18,-4.0,-8.0,-34.0,-38.0,-11.0,-8.0,-4.0,-4.0
1.695160376454241e+18,-4.0,-3.0,15.0,16.0,3.0,-1.0,4.0,-1.0
1.695160376454241e+18,2.0,0.0,7.0,15.0,-1.0,-2.0,-9.0,-3.0
1.695160376454241e+18,-3.0,-7.0,-1.0,-20.0,-9.0,8.0,20.0,3.0
1.6951603764562376e+18,0.0,2.0,-3.0,-4.0,8.0,0.0,2.0,1.0
1.6951603764562376e+18,1.0,5.0,16.0,12.0,0.0,-2.0,-4.0,0.0
1.695160376466231e+18,-3.0,-11.0,-15.0,-14.0,4.0,-3.0,-7.0,-3.0
1.695160376467231e+18,4.0,2.0,-4.0,-6.0,2.0,-1.0,-7.0,-1.0
1.695160376482222e+18,-5.0,-8.0,31.0,52.0,-3.0,-4.0,-8.0,0.0
1.695160376482222e+18,1.0,0.0,-20.0,-41.0,-4.0,3.0,6.0,4.0
1.695160376482222e+18,-4.0,0.0,1.0,-24.0,-5.0,0.0,3.0,-2.0
1.6951603764832225e+18,3.0,2.0,11.0,49.0,6.0,0.0,-4.0,-1.0
1.695160376498213e+18,-3.0,-2.0,-22.0,-32.0,-8.0,-8.0,-10.0,-5.0
1.6951603764992156e+18,1.0,3.0,4.0,-4.0,-3.0,-1.0,-12.0,-1.0
1.6951603764992156e+18,-5.0,-6.0,12.0,50.0,1.0,-1.0,-1.0,-4.0
1.6951603764992156e+18,-1.0,-3.0,-17.0,-39.0,-1.0,-1.0,-7.0,-1.0
1.6951603765202017e+18,3.0,4.0,-3.0,1.0,-1.0,3.0,9.0,4.0
1.6951603765202017e+18,-4.0,-5.0,2.0,11.0,1.0,-3.0,-1.0,-1.0
1.6951603765202017e+18,0.0,4.0,7.0,9.0,1.0,-4.0,-3.0,-1.0
1.6951603765202017e+18,-1.0,-2.0,-1.0,-11.0,-1.0,2.0,6.0,1.0
1.6951603765421857e+18,3.0,0.0,-2.0,0.0,-2.0,1.0,-8.0,-2.0
1.6951603765421857e+18,1.0,0.0,-3.0,0.0,0.0,6.0,7.0,4.0
1.6951603765431857e+18,-2.0,-2.0,-4.0,-6.0,3.0,-1.0,1.0,1.0
1.6951603765441853e+18,-1.0,1.0,-2.0,0.0,0.0,-4.0,-8.0,-3.0
1.6951603765572017e+18,-2.0,-2.0,-3.0,-19.0,-7.0,-5.0,-2.0,-1.0
1.6951603765572017e+18,1.0,1.0,-2.0,-1.0,-1.0,-1.0,-7.0,-2.0
1.69516037655818e+18,-1.0,2.0,4.0,-1.0,-1.0,3.0,-1.0,1.0
1.69516037655818e+18,-2.0,-4.0,-1.0,0.0,-1.0,-3.0,-2.0,-2.0
1.6951603765851645e+18,1.0,4.0,7.0,10.0,1.0,-3.0,-5.0,-1.0
1.6951603765861645e+18,-4.0,-7.0,2.0,10.0,-5.0,-8.0,-18.0,-6.0
1.6951603765861645e+18,4.0,3.0,-8.0,-10.0,3.0,8.0,24.0,5.0
1.6951603765861645e+18,-6.0,-8.0,1.0,5.0,-4.0,-7.0,-12.0,0.0
1.6951603766021512e+18,1.0,2.0,1.0,4.0,3.0,9.0,20.0,3.0
1.6951603766021512e+18,-1.0,-4.0,-2.0,-16.0,-1.0,-6.0,-5.0,-3.0
1.6951603766031534e+18,-1.0,-5.0,-9.0,9.0,-1.0,0.0,1.0,-2.0
1.6951603766031534e+18,0.0,0.0,-2.0,-15.0,-4.0,-5.0,-9.0,-2.0
1.6951603766251395e+18,0.0,1.0,11.0,32.0,12.0,0.0,-9.0,-4.0
1.6951603766251395e+18,0.0,-2.0,-10.0,-12.0,-5.0,-2.0,6.0,2.0
1.6951603766261384e+18,0.0,1.0,-1.0,-10.0,-1.0,-3.0,-5.0,-4.0
1.6951603766261384e+18,-1.0,0.0,-2.0,3.0,1.0,2.0,-1.0,2.0
1.6951603766401308e+18,-1.0,-2.0,-2.0,-5.0,-9.0,-9.0,-10.0,-4.0
1.6951603766401308e+18,-3.0,-1.0,-1.0,4.0,1.0,-1.0,-1.0,-12.0
1.6951603766401308e+18,2.0,-2.0,-9.0,-8.0,-3.0,-9.0,-17.0,8.0
1.695160376641134e+18,2.0,0.0,2.0,4.0,-2.0,1.0,14.0,2.0
1.6951603766611182e+18,0.0,-1.0,-6.0,-15.0,4.0,24.0,17.0,5.0
1.6951603766621194e+18,0.0,0.0,-1.0,8.0,-3.0,-4.0,5.0,1.0
1.6951603766691144e+18,-3.0,-1.0,-1.0,-12.0,-4.0,-4.0,-15.0,-7.0
1.695160376670115e+18,-3.0,-4.0,-4.0,6.0,2.0,-4.0,-5.0,-2.0
1.6951603766981207e+18,-1.0,1.0,-3.0,-13.0,-6.0,-7.0,0.0,0.0
1.6951603766981207e+18,1.0,-2.0,4.0,14.0,-1.0,1.0,-2.0,0.0
1.6951603766981207e+18,1.0,3.0,-2.0,-3.0,2.0,0.0,-1.0,1.0
1.6951603766990973e+18,-1.0,4.0,2.0,3.0,-5.0,-1.0,-1.0,-1.0
1.6951603766990973e+18,-3.0,-7.0,-6.0,-12.0,-6.0,-1.0,3.0,-2.0
1.6951603766990973e+18,0.0,-3.0,-3.0,6.0,3.0,4.0,0.0,0.0
1.695160376707092e+18,-2.0,-3.0,-1.0,-5.0,0.0,-2.0,5.0,-1.0
1.695160376707092e+18,-1.0,0.0,-7.0,0.0,3.0,5.0,1.0,-2.0
1.695160376714088e+18,1.0,3.0,3.0,4.0,-2.0,-4.0,-6.0,-1.0
1.6951603767150912e+18,-5.0,-10.0,0.0,7.0,4.0,0.0,3.0,0.0
1.6951603767150912e+18,0.0,1.0,-4.0,-5.0,-3.0,2.0,1.0,0.0
1.6951603767150912e+18,-2.0,-5.0,-1.0,7.0,4.0,3.0,-3.0,-2.0
1.6951603767370778e+18,0.0,0.0,-4.0,-5.0,-4.0,-6.0,-2.0,-1.0
1.6951603767370778e+18,2.0,4.0,1.0,-7.0,-2.0,-1.0,3.0,2.0
1.6951603767380762e+18,-2.0,-3.0,3.0,-7.0,-1.0,0.0,3.0,-4.0
1.6951603767380762e+18,1.0,2.0,2.0,14.0,1.0,1.0,-3.0,-1.0
1.695160376753068e+18,-3.0,-3.0,-1.0,12.0,3.0,-3.0,1.0,-1.0
1.695160376753068e+18,-1.0,6.0,-4.0,-24.0,-3.0,-1.0,3.0,0.0
1.6951603767540677e+18,0.0,0.0,-2.0,-7.0,-3.0,-1.0,-3.0,-2.0
1.6951603767540677e+18,0.0,-1.0,3.0,10.0,-1.0,-3.0,0.0,-1.0
1.6951603767760525e+18,1.0,0.0,-1.0,-3.0,-1.0,-1.0,0.0,0.0
1.6951603767760525e+18,1.0,3.0,2.0,1.0,3.0,2.0,1.0,-1.0
1.6951603767760525e+18,-1.0,1.0,-1.0,-1.0,-1.0,0.0,1.0,0.0
1.695160376777053e+18,0.0,5.0,-6.0,-12.0,0.0,-1.0,0.0,-1.0
1.6951603768050368e+18,-5.0,-14.0,1.0,7.0,-2.0,-3.0,-2.0,-2.0
1.6951603768100357e+18,-2.0,-6.0,3.0,1.0,-1.0,-1.0,-2.0,0.0
1.6951603768100357e+18,2.0,9.0,0.0,-4.0,-2.0,2.0,0.0,-1.0
1.6951603768100357e+18,-2.0,-1.0,-2.0,-3.0,-2.0,-2.0,-1.0,-3.0
1.695160376820028e+18,0.0,2.0,-2.0,-5.0,1.0,2.0,-1.0,-1.0
1.695160376820028e+18,-1.0,-1.0,0.0,-3.0,-2.0,-4.0,0.0,0.0
1.6951603768210276e+18,-2.0,-6.0,-4.0,4.0,-3.0,-1.0,0.0,0.0
1.6951603768210276e+18,0.0,1.0,0.0,-2.0,-2.0,-1.0,2.0,-1.0
1.6951603768340209e+18,-1.0,1.0,2.0,-1.0,0.0,-2.0,1.0,-1.0
1.6951603768340209e+18,-1.0,-1.0,-2.0,-2.0,0.0,-1.0,-1.0,2.0
1.69516037683502e+18,0.0,1.0,2.0,5.0,2.0,-1.0,0.0,-1.0
1.69516037683502e+18,-2.0,-4.0,-5.0,-7.0,-3.0,-2.0,-1.0,0.0
1.6951603768809938e+18,0.0,1.0,1.0,4.0,2.0,0.0,0.0,-2.0
1.6951603768819924e+18,0.0,0.0,-2.0,2.0,-1.0,2.0,-1.0,0.0
1.6951603768819924e+18,-1.0,-3.0,-5.0,-6.0,-3.0,1.0,1.0,1.0
1.6951603768829914e+18,-2.0,0.0,0.0,5.0,4.0,1.0,-2.0,-1.0
1.695160376886992e+18,-2.0,1.0,3.0,-3.0,-4.0,-3.0,-1.0,-1.0
1.695160376886992e+18,0.0,1.0,1.0,0.0,-3.0,1.0,-2.0,0.0
1.6951603769039793e+18,0.0,-3.0,-5.0,-6.0,1.0,0.0,-1.0,-1.0
1.6951603769039793e+18,1.0,-1.0,-1.0,7.0,0.0,-1.0,1.0,1.0
1.6951603769049802e+18,1.0,2.0,2.0,-3.0,-4.0,0.0,1.0,0.0
1.6951603769059779e+18,0.0,0.0,-1.0,0.0,-6.0,-7.0,-5.0,-3.0
1.6951603769059779e+18,-1.0,-2.0,-2.0,-3.0,4.0,1.0,2.0,2.0
1.6951603769059779e+18,-1.0,-2.0,-3.0,-5.0,-1.0,2.0,0.0,-1.0
1.6951603769259692e+18,1.0,1.0,-1.0,3.0,6.0,-3.0,-4.0,-2.0
1.6951603769259692e+18,-4.0,-2.0,-2.0,0.0,-6.0,1.0,2.0,-5.0
1.6951603769269658e+18,3.0,2.0,2.0,5.0,6.0,4.0,6.0,5.0
1.6951603769269658e+18,-3.0,-2.0,1.0,-1.0,1.0,-1.0,-4.0,-2.0
1.6951603769309737e+18,-1.0,0.0,-2.0,-1.0,-1.0,2.0,3.0,1.0
1.6951603769309737e+18,0.0,-2.0,0.0,-1.0,-4.0,-6.0,-6.0,0.0
1.695160376946955e+18,-2.0,-1.0,-2.0,0.0,-4.0,-4.0,-3.0,-2.0
1.695160376946955e+18,-1.0,-2.0,0.0,-3.0,-4.0,-1.0,-1.0,-1.0
1.6951603769709468e+18,-1.0,-2.0,-2.0,-1.0,1.0,0.0,1.0,1.0
1.6951603769709468e+18,1.0,1.0,0.0,2.0,6.0,2.0,0.0,0.0
1.6951603769709468e+18,-2.0,-2.0,-1.0,1.0,-3.0,-1.0,0.0,-4.0
1.6951603769709468e+18,1.0,0.0,0.0,-3.0,0.0,-2.0,-2.0,0.0
1.695160376985932e+18,-4.0,-1.0,-1.0,1.0,1.0,3.0,-1.0,-2.0
1.6951603769919324e+18,1.0,1.0,-1.0,3.0,3.0,1.0,0.0,1.0
1.6951603769919324e+18,-1.0,0.0,0.0,1.0,-2.0,-2.0,-2.0,-1.0
1.6951603769929313e+18,0.0,-2.0,-3.0,-5.0,-7.0,-5.0,-4.0,-2.0
1.6951603769929313e+18,-1.0,0.0,-3.0,-3.0,-1.0,-4.0,-2.0,-1.0
1.6951603769929313e+18,-3.0,-3.0,0.0,0.0,2.0,3.0,3.0,0.0
1.695160377006927e+18,-1.0,-1.0,1.0,-3.0,0.0,-1.0,0.0,-2.0
1.695160377006927e+18,-1.0,-1.0,-1.0,-1.0,-1.0,-2.0,-1.0,-1.0
1.6951603770259103e+18,0.0,0.0,-4.0,-1.0,-2.0,0.0,-1.0,-1.0
1.6951603770269123e+18,-1.0,1.0,-2.0,0.0,0.0,1.0,-1.0,0.0
1.6951603770269123e+18,-1.0,0.0,-1.0,1.0,-1.0,-3.0,-1.0,-4.0
1.6951603770269123e+18,0.0,1.0,0.0,-2.0,0.0,0.0,1.0,-1.0
1.6951603770369047e+18,-1.0,-1.0,1.0,-1.0,0.0,0.0,0.0,2.0
1.6951603770379046e+18,-1.0,-1.0,0.0,-2.0,-5.0,-3.0,-1.0,-1.0
1.6951603770379046e+18,-2.0,-1.0,-1.0,1.0,0.0,2.0,0.0,0.0
1.6951603770379046e+18,-2.0,0.0,-1.0,-2.0,0.0,0.0,-1.0,-1.0
1.695160377050897e+18,1.0,-2.0,0.0,2.0,-1.0,-2.0,1.0,-1.0
1.695160377050897e+18,-1.0,0.0,-2.0,-2.0,2.0,-1.0,-1.0,-2.0
1.6951603770598902e+18,-1.0,-2.0,-1.0,0.0,-1.0,1.0,0.0,0.0
1.6951603770598902e+18,-1.0,-1.0,-1.0,-3.0,-3.0,-1.0,-1.0,-2.0
1.6951603770738831e+18,1.0,0.0,0.0,-3.0,2.0,0.0,-1.0,-3.0
1.6951603770738831e+18,1.0,2.0,-2.0,-1.0,-2.0,1.0,-1.0,0.0
1.6951603770748826e+18,0.0,-6.0,-4.0,-2.0,0.0,0.0,0.0,-1.0
1.6951603770748826e+18,0.0,-2.0,-3.0,-1.0,-1.0,-2.0,-2.0,1.0
1.6951603770968694e+18,-1.0,3.0,14.0,-8.0,-5.0,-2.0,-1.0,-2.0
1.6951603770968694e+18,-1.0,-4.0,-21.0,0.0,0.0,0.0,1.0,-1.0
1.6951603770968694e+18,-2.0,1.0,1.0,-4.0,-1.0,-2.0,-4.0,-3.0
1.6951603770978706e+18,0.0,0.0,-5.0,0.0,1.0,0.0,1.0,-1.0
1.6951603771128596e+18,-1.0,-2.0,-3.0,0.0,-1.0,1.0,0.0,-1.0
1.6951603771128596e+18,-1.0,-1.0,4.0,-3.0,1.0,0.0,-1.0,-1.0
1.6951603771188797e+18,0.0,1.0,0.0,-3.0,-1.0,0.0,0.0,1.0
1.6951603771188797e+18,-2.0,-1.0,1.0,2.0,2.0,0.0,-1.0,-1.0
1.695160377133872e+18,-1.0,-3.0,-4.0,1.0,0.0,-2.0,-2.0,-1.0
1.695160377133872e+18,0.0,4.0,8.0,-4.0,-1.0,0.0,-2.0,-2.0
1.6951603771348588e+18,-2.0,1.0,0.0,3.0,2.0,-1.0,-1.0,-1.0
1.6951603771348588e+18,-1.0,0.0,5.0,-2.0,-1.0,-1.0,-1.0,0.0
1.6951603771568343e+18,-1.0,-4.0,-15.0,-2.0,-2.0,0.0,-2.0,-1.0
1.6951603771568343e+18,-1.0,-3.0,-2.0,-2.0,-3.0,-3.0,1.0,-1.0
1.6951603771568343e+18,0.0,2.0,5.0,-2.0,-2.0,-2.0,0.0,-1.0
1.6951603771578363e+18,-1.0,0.0,-1.0,0.0,-1.0,-1.0,-1.0,1.0
1.6951603771798228e+18,-1.0,1.0,-1.0,-3.0,-1.0,0.0,0.0,-1.0
1.6951603771808215e+18,-1.0,-3.0,3.0,1.0,1.0,0.0,1.0,0.0
1.6951603771808215e+18,-1.0,0.0,-1.0,1.0,-1.0,-2.0,-1.0,-1.0
1.6951603771818225e+18,-1.0,-3.0,-2.0,-1.0,-1.0,0.0,-3.0,-1.0
1.6951603771938373e+18,0.0,2.0,-3.0,1.0,0.0,-1.0,-2.0,-1.0
1.6951603771938373e+18,1.0,0.0,4.0,0.0,0.0,0.0,0.0,-1.0
1.6951603771948155e+18,1.0,-2.0,-4.0,1.0,-1.0,0.0,-2.0,-1.0
1.6951603771948155e+18,1.0,-3.0,0.0,-2.0,0.0,0.0,-1.0,0.0
1.6951603772168056e+18,-2.0,1.0,0.0,-1.0,-1.0,0.0,-2.0,1.0
1.6951603772168056e+18,-1.0,-1.0,-1.0,1.0,-1.0,0.0,0.0,0.0
1.6951603772177994e+18,0.0,-1.0,-3.0,-1.0,0.0,-2.0,1.0,-2.0
1.6951603772177994e+18,0.0,2.0,-2.0,-1.0,-2.0,1.0,2.0,-1.0
1.6951603772477957e+18,-1.0,-2.0,2.0,0.0,-1.0,-1.0,0.0,0.0
1.6951603772477957e+18,0.0,-1.0,-1.0,1.0,-1.0,0.0,-1.0,-2.0
1.6951603772477957e+18,-1.0,-3.0,-1.0,-2.0,0.0,0.0,-2.0,1.0
1.6951603772477957e+18,0.0,-1.0,1.0,-1.0,-1.0,-1.0,-1.0,-1.0
1.6951603772707697e+18,-1.0,-2.0,-1.0,0.0,1.0,-1.0,1.0,0.0
1.6951603772757842e+18,0.0,-2.0,0.0,-1.0,-1.0,-2.0,0.0,0.0
1.6951603772757842e+18,-2.0,2.0,-1.0,-2.0,-3.0,-1.0,1.0,-1.0
1.6951603772757842e+18,-2.0,0.0,-2.0,-1.0,0.0,-2.0,0.0,0.0
1.6951603772847606e+18,1.0,0.0,-1.0,-2.0,-1.0,-1.0,0.0,0.0
1.6951603772847606e+18,-2.0,1.0,-1.0,-1.0,1.0,-1.0,0.0,-1.0
1.6951603772857608e+18,0.0,-2.0,1.0,1.0,1.0,2.0,-1.0,-1.0
1.6951603772857608e+18,-1.0,-2.0,-1.0,-1.0,1.0,-1.0,-1.0,-1.0
1.6951603772997527e+18,-1.0,0.0,0.0,2.0,-1.0,0.0,-2.0,-1.0
1.6951603772997527e+18,-1.0,-1.0,1.0,0.0,-2.0,-1.0,1.0,0.0
1.6951603773007524e+18,-1.0,1.0,-1.0,0.0,-2.0,0.0,-1.0,0.0
1.6951603773007524e+18,-1.0,-1.0,-1.0,0.0,-3.0,-3.0,-1.0,-2.0
1.695160377317745e+18,-2.0,-2.0,0.0,1.0,0.0,0.0,-1.0,-1.0
1.695160377317745e+18,-1.0,-1.0,-1.0,0.0,-1.0,-2.0,-1.0,-1.0
1.6951603773187535e+18,-1.0,-2.0,-2.0,-2.0,-2.0,-1.0,0.0,1.0
1.6951603773187535e+18,-1.0,1.0,0.0,-3.0,0.0,-1.0,-1.0,-1.0
1.6951603773367334e+18,-1.0,0.0,-1.0,-2.0,0.0,0.0,-2.0,0.0
1.6951603773367334e+18,-1.0,-1.0,-2.0,-1.0,-1.0,0.0,-1.0,0.0
1.6951603773367334e+18,-1.0,-1.0,0.0,-1.0,0.0,0.0,0.0,1.0
1.6951603773377316e+18,-1.0,0.0,1.0,2.0,-2.0,-2.0,0.0,-2.0
1.6951603773677176e+18,0.0,-1.0,-1.0,-1.0,-1.0,0.0,-1.0,-2.0
1.6951603773677176e+18,-1.0,-2.0,-1.0,1.0,1.0,-1.0,-1.0,-1.0
1.6951603773677176e+18,1.0,-1.0,-1.0,-1.0,-1.0,-2.0,-1.0,0.0
1.6951603773677176e+18,-1.0,-1.0,0.0,-1.0,0.0,-1.0,0.0,-1.0
1.6951603773737344e+18,-1.0,-2.0,-1.0,0.0,-1.0,-1.0,1.0,-1.0
1.6951603773747126e+18,-1.0,0.0,2.0,0.0,1.0,0.0,-1.0,-2.0
1.6951603773747126e+18,0.0,0.0,-1.0,1.0,1.0,-2.0,-1.0,-2.0
1.6951603773747126e+18,0.0,0.0,-1.0,-1.0,-2.0,0.0,0.0,-2.0
1.6951603773966976e+18,0.0,0.0,0.0,1.0,-1.0,0.0,0.0,-3.0
1.6951603773966976e+18,1.0,-1.0,0.0,-1.0,0.0,0.0,-1.0,1.0
1.695160377397697e+18,0.0,-2.0,-1.0,1.0,-1.0,-1.0,1.0,-2.0
1.695160377397697e+18,0.0,0.0,-2.0,-2.0,0.0,2.0,-1.0,1.0
1.695160377419814e+18,-2.0,-2.0,-1.0,-2.0,0.0,-1.0,-1.0,-1.0
1.695160377419814e+18,-1.0,-2.0,-1.0,-1.0,-2.0,0.0,-1.0,2.0
1.6951603774208292e+18,-2.0,-1.0,-1.0,-2.0,-2.0,0.0,1.0,-1.0
1.6951603774208292e+18,0.0,0.0,-2.0,0.0,-1.0,-2.0,-1.0,-1.0
1.695160377433711e+18,0.0,-2.0,0.0,-2.0,-2.0,-1.0,-1.0,1.0
1.695160377434715e+18,0.0,-2.0,-2.0,-1.0,-1.0,-1.0,-2.0,-2.0
1.695160377434715e+18,-2.0,1.0,-1.0,-2.0,-4.0,-1.0,-1.0,-1.0
1.695160377434715e+18,0.0,-2.0,-2.0,-1.0,-2.0,0.0,0.0,0.0
1.6951603774567173e+18,0.0,-1.0,-1.0,-1.0,-1.0,-2.0,1.0,-2.0
1.6951603774567173e+18,1.0,1.0,-2.0,1.0,-1.0,-2.0,-1.0,-1.0
1.695160377457717e+18,-2.0,-3.0,0.0,-2.0,1.0,0.0,-2.0,-1.0
1.695160377457717e+18,-1.0,-1.0,0.0,0.0,0.0,-1.0,-2.0,-3.0
1.6951603774847045e+18,0.0,0.0,-1.0,-3.0,0.0,-1.0,0.0,1.0
1.6951603774847045e+18,-1.0,-1.0,-1.0,-2.0,-1.0,0.0,-2.0,0.0
1.6951603774857037e+18,1.0,0.0,0.0,0.0,-2.0,-1.0,0.0,0.0
1.6951603774857037e+18,-2.0,-3.0,0.0,0.0,-2.0,1.0,-1.0,-1.0
1.6951603775026934e+18,-2.0,0.0,-1.0,-1.0,1.0,-1.0,-1.0,-1.0
1.6951603775026934e+18,-1.0,-2.0,-2.0,-1.0,1.0,-1.0,1.0,1.0
1.6951603775026934e+18,-2.0,-1.0,-1.0,2.0,0.0,-1.0,-2.0,-1.0
1.695160377503695e+18,-3.0,-1.0,0.0,0.0,0.0,-1.0,-2.0,0.0
1.6951603775176845e+18,1.0,1.0,-1.0,0.0,-1.0,-1.0,0.0,-1.0
1.6951603775186847e+18,-1.0,0.0,-2.0,-1.0,0.0,-2.0,-1.0,-2.0
1.695160377519684e+18,-1.0,0.0,-1.0,-1.0,2.0,-1.0,0.0,-2.0
1.695160377519684e+18,-1.0,-1.0,-2.0,-1.0,-1.0,0.0,0.0,0.0
1.695160377539761e+18,0.0,1.0,1.0,0.0,-1.0,0.0,1.0,-1.0
1.695160377539761e+18,-1.0,-2.0,0.0,-1.0,-1.0,-2.0,0.0,-1.0
1.6951603775407337e+18,0.0,3.0,-4.0,-2.0,-2.0,-1.0,-2.0,-1.0
1.6951603775407337e+18,0.0,-1.0,0.0,0.0,0.0,0.0,0.0,-1.0
1.6951603775547095e+18,-2.0,-3.0,-3.0,0.0,-3.0,0.0,-2.0,1.0
1.6951603775547095e+18,0.0,-1.0,2.0,-1.0,0.0,0.0,-1.0,-1.0
1.6951603775547095e+18,0.0,0.0,0.0,-3.0,-1.0,-1.0,-1.0,0.0
1.695160377555711e+18,-1.0,1.0,2.0,-2.0,0.0,-1.0,-1.0,0.0
1.695160377577271e+18,0.0,-2.0,-2.0,-1.0,1.0,1.0,-1.0,-1.0
1.6951603775782707e+18,-1.0,1.0,-3.0,0.0,-1.0,0.0,-1.0,0.0
1.6951603775782707e+18,-1.0,-3.0,-2.0,1.0,0.0,1.0,-1.0,-1.0
1.6951603775792701e+18,-1.0,-1.0,1.0,-1.0,0.0,0.0,0.0,-1.0
1.6951603776082534e+18,-1.0,0.0,0.0,-1.0,0.0,-1.0,-1.0,-2.0
1.6951603776092534e+18,0.0,-1.0,-2.0,-1.0,-2.0,0.0,-2.0,0.0
1.6951603776092534e+18,-2.0,-1.0,1.0,-2.0,0.0,-2.0,0.0,0.0
1.695160377610252e+18,1.0,1.0,5.0,4.0,2.0,0.0,-1.0,-1.0
1.6951603776152497e+18,-2.0,-8.0,-10.0,-2.0,-1.0,-1.0,-1.0,-2.0
1.6951603776152497e+18,0.0,1.0,0.0,-1.0,-3.0,-1.0,-1.0,-1.0
1.69516037761625e+18,-4.0,-2.0,-2.0,0.0,4.0,-1.0,-2.0,-1.0
1.69516037761625e+18,0.0,0.0,-3.0,-1.0,-1.0,0.0,0.0,0.0
1.695160377637236e+18,-1.0,16.0,-10.0,-2.0,-4.0,-2.0,-4.0,-1.0
1.6951603776382367e+18,4.0,8.0,-3.0,-4.0,-4.0,-2.0,-1.0,0.0
1.6951603776382367e+18,-1.0,0.0,6.0,-1.0,-3.0,-1.0,-1.0,0.0
1.6951603776392356e+18,-4.0,1.0,1.0,0.0,1.0,0.0,-2.0,-3.0
1.695160377662223e+18,0.0,1.0,-1.0,-2.0,-3.0,0.0,-1.0,-1.0
1.6951603776632264e+18,1.0,4.0,-8.0,-3.0,-4.0,-1.0,-2.0,-1.0
1.695160377664228e+18,-1.0,-3.0,-2.0,2.0,0.0,1.0,-1.0,-1.0
1.695160377664228e+18,-2.0,-8.0,-3.0,-2.0,-1.0,0.0,0.0,2.0
1.6951603776762143e+18,1.0,3.0,-5.0,-3.0,1.0,-1.0,-1.0,-1.0
1.695160377678216e+18,-2.0,-3.0,2.0,-2.0,1.0,0.0,0.0,-1.0
1.695160377678216e+18,1.0,-5.0,0.0,2.0,-1.0,-2.0,0.0,1.0
1.6951603776792197e+18,-1.0,-3.0,-2.0,-1.0,-2.0,0.0,-1.0,-1.0
1.6951603776982026e+18,-4.0,-6.0,3.0,3.0,1.0,0.0,0.0,0.0
1.695160377699216e+18,-5.0,-7.0,4.0,1.0,1.0,1.0,2.0,-1.0
1.695160377699216e+18,-1.0,3.0,-3.0,-2.0,-2.0,1.0,-2.0,-2.0
1.695160377699216e+18,1.0,2.0,-4.0,-2.0,-3.0,-2.0,-1.0,-1.0
1.6951603777201892e+18,-2.0,-2.0,3.0,2.0,1.0,-1.0,-1.0,1.0
1.6951603777211896e+18,-3.0,-2.0,-1.0,1.0,1.0,0.0,-1.0,0.0
1.6951603777241892e+18,-1.0,0.0,-1.0,-1.0,-2.0,-1.0,0.0,-1.0
1.6951603777241892e+18,0.0,0.0,-5.0,-2.0,-2.0,-3.0,0.0,-1.0
1.69516037773518e+18,-1.0,-7.0,10.0,-2.0,0.0,1.0,1.0,0.0
1.6951603777411912e+18,-2.0,-3.0,3.0,0.0,0.0,0.0,-1.0,0.0
1.6951603777491727e+18,1.0,-1.0,-3.0,-3.0,-1.0,-3.0,1.0,-1.0
1.6951603777511716e+18,0.0,0.0,1.0,-2.0,-2.0,-1.0,-1.0,-1.0
1.6951603777591677e+18,0.0,-2.0,-3.0,0.0,0.0,-1.0,2.0,-1.0
1.6951603777601661e+18,-1.0,-1.0,-3.0,-1.0,0.0,-2.0,0.0,0.0
1.695160377761173e+18,-1.0,-3.0,1.0,1.0,-1.0,0.0,0.0,0.0
1.695160377761173e+18,0.0,0.0,-2.0,-2.0,-2.0,-1.0,-2.0,0.0
1.695160377780154e+18,-1.0,-2.0,0.0,1.0,-1.0,-1.0,0.0,-2.0
1.6951603777811607e+18,0.0,-2.0,-1.0,0.0,-2.0,0.0,-1.0,0.0
1.6951603777811607e+18,0.0,2.0,-2.0,-2.0,0.0,-2.0,-2.0,-1.0
1.6951603777821594e+18,-2.0,1.0,-3.0,0.0,-1.0,-1.0,-1.0,-1.0
1.69516037780414e+18,0.0,1.0,1.0,-1.0,-3.0,1.0,-1.0,-1.0
1.6951603778051395e+18,0.0,0.0,0.0,0.0,-1.0,0.0,1.0,-3.0
1.6951603778051395e+18,1.0,-1.0,-2.0,-2.0,-1.0,-1.0,-1.0,0.0
1.6951603778051395e+18,-1.0,-2.0,0.0,1.0,0.0,-2.0,0.0,0.0
1.6951603778171338e+18,0.0,-2.0,-2.0,0.0,0.0,-2.0,-2.0,-2.0
1.695160377818132e+18,-1.0,-1.0,-3.0,-1.0,0.0,0.0,-1.0,-1.0
1.695160377818132e+18,0.0,-1.0,-3.0,-2.0,-1.0,1.0,0.0,-1.0
1.6951603778191322e+18,-1.0,-2.0,0.0,-3.0,-2.0,0.0,1.0,-1.0
1.6951603778431186e+18,-1.0,-2.0,1.0,-1.0,-1.0,-1.0,-3.0,-2.0
1.6951603778431186e+18,-1.0,-3.0,-1.0,-1.0,-1.0,-3.0,0.0,-1.0
1.6951603778431186e+18,0.0,-3.0,0.0,0.0,2.0,0.0,0.0,0.0
1.6951603778461215e+18,1.0,0.0,0.0,-1.0,1.0,-2.0,0.0,-2.0
1.6951603778541197e+18,-1.0,-1.0,0.0,0.0,0.0,-1.0,0.0,-1.0
1.6951603778541197e+18,-1.0,0.0,-2.0,-1.0,-1.0,-2.0,0.0,0.0
1.695160377862106e+18,1.0,0.0,-1.0,-1.0,-2.0,-2.0,-2.0,1.0
1.695160377862106e+18,-2.0,-2.0,-3.0,0.0,-1.0,0.0,0.0,-1.0
1.6951603778780977e+18,1.0,0.0,-1.0,0.0,-3.0,1.0,-1.0,-1.0
1.6951603778780977e+18,-2.0,-2.0,-1.0,-1.0,1.0,0.0,-2.0,0.0
1.6951603778780977e+18,-2.0,-1.0,1.0,0.0,-3.0,-2.0,0.0,-1.0
1.695160377879097e+18,0.0,0.0,0.0,0.0,1.0,0.0,0.0,-1.0
1.6951603779070833e+18,-1.0,-1.0,0.0,0.0,1.0,-1.0,-1.0,-1.0
1.6951603779080847e+18,0.0,-1.0,-1.0,0.0,-1.0,-1.0,0.0,-1.0
1.6951603779090798e+18,-2.0,0.0,-1.0,1.0,-1.0,0.0,-1.0,-1.0
1.6951603779090798e+18,0.0,1.0,0.0,-1.0,-1.0,-2.0,0.0,1.0
1.695160377923072e+18,-1.0,1.0,-2.0,-2.0,-1.0,-2.0,-1.0,-1.0
1.695160377923072e+18,0.0,0.0,1.0,0.0,-1.0,-1.0,0.0,-1.0
1.6951603779240714e+18,0.0,1.0,-2.0,-1.0,-1.0,-1.0,-2.0,1.0
1.6951603779240714e+18,0.0,-1.0,0.0,-2.0,0.0,0.0,-2.0,-1.0
1.6951603779450583e+18,1.0,-1.0,-2.0,0.0,-3.0,0.0,-1.0,0.0
1.6951603779450583e+18,-1.0,-1.0,0.0,-1.0,-1.0,0.0,0.0,0.0
1.6951603779460588e+18,-1.0,-3.0,-1.0,0.0,0.0,2.0,1.0,-2.0
1.6951603779460588e+18,-2.0,-2.0,-2.0,1.0,-2.0,0.0,-1.0,-2.0
1.6951603779600504e+18,-1.0,-2.0,-1.0,-2.0,-1.0,1.0,1.0,0.0
1.6951603779610496e+18,0.0,0.0,1.0,-1.0,-2.0,-1.0,0.0,-3.0
1.6951603779610496e+18,-1.0,-1.0,-1.0,0.0,-2.0,-2.0,0.0,0.0
1.6951603779610496e+18,-1.0,-3.0,-1.0,-2.0,-1.0,0.0,1.0,-1.0
1.6951603779740431e+18,0.0,1.0,0.0,2.0,2.0,-1.0,-1.0,-1.0
1.6951603779750423e+18,0.0,0.0,-2.0,-2.0,1.0,-1.0,1.0,-1.0
1.6951603779900337e+18,-1.0,-2.0,-1.0,-2.0,-1.0,0.0,-1.0,-2.0
1.6951603779900337e+18,0.0,0.0,-1.0,-1.0,0.0,-1.0,-1.0,-1.0
1.6951603779970296e+18,-1.0,-2.0,0.0,0.0,0.0,-1.0,0.0,0.0
1.695160377998034e+18,1.0,0.0,-1.0,0.0,0.0,-1.0,0.0,0.0
1.695160377998034e+18,-1.0,0.0,0.0,-2.0,0.0,2.0,-1.0,0.0
1.695160377998034e+18,-1.0,-1.0,-1.0,-2.0,-1.0,-1.0,-1.0,0.0
1.6951603780280123e+18,-1.0,-2.0,-1.0,1.0,-1.0,-1.0,-1.0,0.0
1.6951603780280123e+18,-1.0,-1.0,-1.0,-2.0,-1.0,0.0,-2.0,0.0
1.6951603780280123e+18,0.0,1.0,-3.0,1.0,0.0,-1.0,0.0,-1.0
1.6951603780290112e+18,-1.0,0.0,-1.0,0.0,-1.0,0.0,0.0,-1.0
1.6951603780340099e+18,-1.0,1.0,1.0,-2.0,0.0,-1.0,-1.0,0.0
1.6951603780340099e+18,-3.0,0.0,-1.0,2.0,-2.0,-1.0,-2.0,-2.0
1.695160378042004e+18,0.0,-1.0,-1.0,-2.0,-1.0,-1.0,-1.0,0.0
1.695160378042004e+18,-2.0,-2.0,0.0,-2.0,-1.0,-3.0,-2.0,-1.0
1.695160378056995e+18,-2.0,1.0,0.0,-1.0,0.0,0.0,1.0,-1.0
1.6951603780579955e+18,-1.0,-1.0,1.0,-1.0,-2.0,0.0,-1.0,0.0
1.6951603780579955e+18,-1.0,0.0,1.0,1.0,0.0,0.0,0.0,0.0
1.6951603780589993e+18,1.0,-1.0,-1.0,2.0,-1.0,0.0,-1.0,-2.0
1.695160378081981e+18,1.0,0.0,-3.0,0.0,-2.0,-3.0,-2.0,-2.0
1.695160378081981e+18,0.0,-1.0,-2.0,-1.0,0.0,0.0,1.0,0.0
1.695160378081981e+18,-1.0,-1.0,-2.0,-1.0,0.0,1.0,0.0,-1.0
1.69516037808298e+18,0.0,0.0,2.0,0.0,0.0,0.0,-1.0,1.0
1.6951603781049723e+18,-1.0,-1.0,0.0,-3.0,-1.0,-2.0,0.0,-1.0
1.6951603781049723e+18,0.0,-1.0,1.0,0.0,-3.0,0.0,-1.0,0.0
1.6951603781069663e+18,-1.0,1.0,0.0,0.0,-2.0,-2.0,-1.0,-1.0
1.6951603781069663e+18,-1.0,-1.0,-1.0,-1.0,0.0,0.0,-1.0,-1.0
1.695160378116961e+18,-1.0,-1.0,0.0,-2.0,-2.0,-1.0,-1.0,0.0
1.695160378116961e+18,-2.0,0.0,-2.0,-1.0,0.0,-1.0,-1.0,-2.0
1.6951603781179597e+18,-1.0,-1.0,0.0,-2.0,0.0,-1.0,-2.0,0.0
1.6951603781179597e+18,0.0,-1.0,0.0,-2.0,-1.0,0.0,0.0,-1.0
1.6951603781399475e+18,-2.0,0.0,-2.0,0.0,-1.0,-3.0,-2.0,0.0
1.6951603781409472e+18,0.0,-2.0,-2.0,0.0,0.0,1.0,0.0,1.0
1.6951603781409472e+18,-1.0,0.0,-1.0,-2.0,-3.0,-2.0,0.0,0.0
1.6951603781409472e+18,2.0,0.0,-2.0,-1.0,-1.0,0.0,0.0,-1.0
1.6951603781649336e+18,0.0,-1.0,-2.0,0.0,-1.0,0.0,-1.0,-1.0
1.6951603781659333e+18,0.0,-1.0,-1.0,-1.0,0.0,-2.0,-1.0,-1.0
1.6951603781669373e+18,0.0,-1.0,-1.0,-1.0,0.0,-1.0,-2.0,1.0
1.6951603781669373e+18,-1.0,-1.0,-1.0,0.0,-1.0,-1.0,0.0,0.0
1.6951603781869243e+18,-1.0,-1.0,-1.0,0.0,-1.0,-1.0,-1.0,-1.0
1.6951603781869243e+18,-2.0,0.0,-3.0,-1.0,-2.0,1.0,-1.0,0.0
1.6951603781869243e+18,0.0,-1.0,-1.0,-1.0,-1.0,0.0,-1.0,-4.0
1.69516037818792e+18,-1.0,0.0,-2.0,0.0,1.0,-1.0,-2.0,0.0
1.6951603782079084e+18,0.0,-1.0,1.0,-2.0,-1.0,-3.0,-1.0,-1.0
1.6951603782079084e+18,-2.0,-1.0,-2.0,0.0,-3.0,-4.0,-1.0,-4.0
1.6951603782079084e+18,-2.0,-2.0,-2.0,-1.0,-2.0,-2.0,-2.0,-2.0
1.6951603782089078e+18,-4.0,-1.0,-3.0,-1.0,-3.0,-1.0,-1.0,-2.0
1.6951603782229043e+18,-1.0,-2.0,-2.0,-2.0,1.0,0.0,0.0,-2.0
1.6951603782268982e+18,-1.0,-2.0,0.0,1.0,0.0,-2.0,-3.0,-1.0
1.6951603782268982e+18,-2.0,-3.0,-4.0,-1.0,-2.0,-2.0,0.0,-1.0
1.6951603782278996e+18,-1.0,-1.0,-2.0,1.0,-1.0,0.0,-1.0,-1.0
1.6951603782448863e+18,-1.0,-2.0,-2.0,-1.0,-3.0,0.0,-1.0,0.0
1.6951603782448863e+18,0.0,-1.0,1.0,0.0,-1.0,-1.0,-1.0,-1.0
1.695160378245886e+18,-3.0,-1.0,0.0,1.0,0.0,0.0,0.0,-1.0
1.695160378245886e+18,-1.0,-1.0,0.0,-3.0,-1.0,0.0,-1.0,0.0
1.695160378260877e+18,-1.0,0.0,0.0,-2.0,0.0,1.0,1.0,-1.0
1.695160378260877e+18,-2.0,-2.0,-1.0,-2.0,-2.0,1.0,-2.0,0.0
1.6951603782618785e+18,-2.0,0.0,-1.0,0.0,0.0,-1.0,-2.0,-3.0
1.6951603782618785e+18,0.0,-1.0,-1.0,1.0,-1.0,-3.0,-1.0,-1.0
1.6951603782818657e+18,-1.0,-2.0,0.0,-1.0,-2.0,0.0,0.0,-2.0
1.6951603782828652e+18,0.0,-1.0,-1.0,-1.0,0.0,-1.0,0.0,-2.0
1.6951603782828652e+18,-1.0,0.0,1.0,-1.0,1.0,-1.0,-1.0,-1.0
1.6951603782838646e+18,-3.0,0.0,-1.0,0.0,-1.0,-1.0,0.0,-1.0
1.6951603783068564e+18,-3.0,-4.0,-1.0,-3.0,1.0,-1.0,1.0,0.0
1.6951603783068564e+18,-3.0,0.0,0.0,-1.0,2.0,-1.0,-1.0,-1.0
1.6951603783078546e+18,0.0,-2.0,0.0,1.0,-1.0,0.0,-1.0,-1.0
1.6951603783078546e+18,0.0,-1.0,-1.0,-1.0,-1.0,-2.0,0.0,-2.0
1.6951603783198428e+18,0.0,-2.0,-2.0,-4.0,-4.0,-1.0,-1.0,-2.0
1.6951603783208458e+18,0.0,-2.0,-1.0,1.0,-1.0,-3.0,0.0,1.0
1.6951603783208458e+18,-1.0,0.0,-1.0,0.0,0.0,-1.0,0.0,-1.0
1.6951603783208458e+18,-1.0,-1.0,0.0,-3.0,1.0,2.0,0.0,-2.0
1.6951603783438387e+18,-2.0,-2.0,-4.0,-1.0,-4.0,-4.0,-2.0,-1.0
1.6951603783438387e+18,1.0,2.0,8.0,-4.0,-10.0,-3.0,-2.0,-2.0
1.6951603783438387e+18,0.0,-5.0,-5.0,8.0,12.0,6.0,2.0,0.0
1.6951603783438387e+18,2.0,-3.0,-3.0,1.0,-2.0,0.0,-1.0,-1.0
1.6951603783568425e+18,-1.0,0.0,2.0,8.0,-1.0,-3.0,-2.0,-2.0
1.6951603783568425e+18,-1.0,0.0,-3.0,-5.0,-6.0,-3.0,0.0,0.0
1.6951603783638426e+18,-1.0,1.0,1.0,-8.0,-8.0,-2.0,-3.0,-1.0
1.69516037836482e+18,-1.0,0.0,0.0,0.0,6.0,1.0,0.0,1.0
1.695160378381809e+18,0.0,-2.0,-2.0,-3.0,-2.0,-1.0,-4.0,-3.0
1.695160378381809e+18,0.0,0.0,1.0,2.0,1.0,0.0,-1.0,-2.0
1.695160378381809e+18,-2.0,0.0,2.0,-1.0,0.0,0.0,1.0,0.0
1.6951603783828076e+18,-1.0,0.0,-2.0,-1.0,0.0,-1.0,-1.0,-1.0
1.6951603784017956e+18,1.0,1.0,1.0,0.0,0.0,2.0,1.0,-1.0
1.6951603784017956e+18,0.0,-1.0,-2.0,0.0,5.0,1.0,0.0,-1.0
1.695160378402799e+18,2.0,1.0,0.0,0.0,-4.0,-1.0,0.0,0.0
1.695160378402799e+18,-2.0,-2.0,-2.0,-7.0,-7.0,-2.0,-2.0,-2.0
1.6951603784177874e+18,0.0,0.0,2.0,4.0,1.0,0.0,-1.0,-1.0
1.6951603784177874e+18,0.0,0.0,-2.0,-1.0,2.0,-1.0,-1.0,-1.0
1.6951603784177874e+18,-3.0,-3.0,-3.0,-1.0,-3.0,0.0,-1.0,1.0
1.6951603784177874e+18,0.0,1.0,3.0,2.0,-3.0,-2.0,0.0,0.0
1.6951603784407744e+18,-2.0,-1.0,-1.0,-4.0,-2.0,-3.0,-1.0,1.0
1.6951603784407744e+18,0.0,-1.0,-1.0,-2.0,1.0,0.0,0.0,-1.0
1.6951603784407744e+18,0.0,0.0,2.0,4.0,1.0,-1.0,-1.0,-1.0
1.6951603784417743e+18,-1.0,-2.0,-3.0,-2.0,-2.0,0.0,-1.0,-1.0
1.695160378463763e+18,0.0,-1.0,-3.0,-3.0,2.0,1.0,0.0,-1.0
1.6951603784647613e+18,-1.0,-2.0,-1.0,-2.0,-2.0,-2.0,-2.0,-2.0
1.6951603784657615e+18,0.0,-1.0,0.0,-1.0,-1.0,-3.0,-3.0,-2.0
1.6951603784657615e+18,2.0,-1.0,0.0,-1.0,-7.0,-2.0,0.0,0.0
1.6951603784767534e+18,-1.0,2.0,0.0,-2.0,2.0,1.0,-2.0,-1.0
1.6951603784767534e+18,1.0,-1.0,1.0,4.0,2.0,4.0,3.0,2.0
1.695160378477753e+18,-1.0,-2.0,-3.0,-4.0,-3.0,-5.0,-1.0,-2.0
1.695160378477753e+18,-1.0,-2.0,1.0,1.0,2.0,-3.0,-2.0,-2.0
1.6951603784997407e+18,0.0,1.0,-1.0,2.0,1.0,-1.0,1.0,1.0
1.69516037850074e+18,-2.0,2.0,-2.0,-1.0,0.0,0.0,-3.0,0.0
1.69516037850074e+18,2.0,8.0,3.0,-1.0,3.0,3.0,9.0,3.0
1.6951603785017403e+18,-1.0,-5.0,2.0,4.0,-1.0,2.0,5.0,-1.0
1.695160378522728e+18,-3.0,-3.0,-1.0,3.0,0.0,-1.0,-5.0,0.0
1.695160378522728e+18,-5.0,-10.0,-4.0,-6.0,-3.0,-4.0,0.0,-3.0
1.695160378523727e+18,1.0,1.0,-2.0,-1.0,-2.0,-1.0,-4.0,1.0
1.695160378523727e+18,-4.0,-5.0,-4.0,-3.0,-1.0,-3.0,-6.0,-3.0
1.695160378547714e+18,4.0,8.0,2.0,0.0,-1.0,2.0,3.0,0.0
1.695160378548713e+18,1.0,0.0,3.0,5.0,1.0,-2.0,-4.0,0.0
1.6951603785497142e+18,-1.0,2.0,1.0,1.0,-4.0,-2.0,-1.0,-2.0
1.6951603785497142e+18,-1.0,-1.0,-11.0,-12.0,-1.0,-2.0,-4.0,-4.0
1.6951603785597064e+18,-2.0,-3.0,4.0,6.0,-1.0,-1.0,-2.0,-2.0
1.6951603785597064e+18,-1.0,-1.0,-13.0,-10.0,1.0,-1.0,0.0,-1.0
1.6951603785607063e+18,-1.0,-3.0,3.0,7.0,-1.0,0.0,-3.0,-2.0
1.6951603785607063e+18,2.0,6.0,7.0,5.0,8.0,4.0,6.0,3.0
1.6951603786046802e+18,-2.0,1.0,-4.0,9.0,-1.0,-5.0,-11.0,-4.0
1.69516037860568e+18,-2.0,-2.0,8.0,1.0,-2.0,-4.0,-3.0,-3.0
1.69516037860568e+18,-3.0,-8.0,-22.0,-20.0,-9.0,-2.0,7.0,-1.0
1.69516037860568e+18,0.0,2.0,0.0,3.0,3.0,10.0,17.0,5.0
1.6951603786136776e+18,-4.0,-6.0,0.0,-3.0,-3.0,-4.0,-10.0,-5.0
1.6951603786136776e+18,1.0,-1.0,2.0,-3.0,-2.0,10.0,23.0,7.0
1.6951603786146752e+18,4.0,8.0,4.0,2.0,-1.0,-3.0,-4.0,-1.0
1.6951603786146752e+18,-8.0,-17.0,-2.0,5.0,-4.0,-3.0,-3.0,-1.0
1.6951603786186719e+18,7.0,6.0,1.0,2.0,2.0,4.0,5.0,3.0
1.6951603786186719e+18,-2.0,-3.0,-14.0,-11.0,-7.0,-11.0,-19.0,-6.0
1.6951603786356644e+18,1.0,1.0,0.0,-8.0,0.0,1.0,2.0,0.0
1.6951603786356644e+18,-3.0,-4.0,-9.0,-10.0,-2.0,0.0,0.0,-2.0
1.6951603786496545e+18,-1.0,1.0,10.0,5.0,-2.0,-3.0,-3.0,-1.0
1.6951603786496545e+18,-2.0,-4.0,-4.0,1.0,-2.0,-3.0,-5.0,-2.0
1.6951603786506542e+18,0.0,-3.0,3.0,3.0,2.0,3.0,4.0,4.0
1.6951603786506542e+18,-2.0,-2.0,-2.0,2.0,-4.0,-5.0,-8.0,-4.0
1.695160378656651e+18,-4.0,-8.0,-3.0,-9.0,-5.0,-2.0,3.0,0.0
1.695160378656651e+18,1.0,4.0,-3.0,-1.0,0.0,4.0,2.0,1.0
1.6951603786576504e+18,-5.0,-14.0,0.0,2.0,-1.0,-1.0,-4.0,-4.0
1.6951603786576504e+18,5.0,19.0,-5.0,-15.0,-7.0,-8.0,-9.0,-1.0
1.6951603786806382e+18,-5.0,-13.0,4.0,8.0,6.0,-1.0,1.0,-2.0
1.6951603786816394e+18,4.0,2.0,-2.0,2.0,2.0,4.0,5.0,3.0
1.6951603786866335e+18,1.0,5.0,4.0,3.0,1.0,-1.0,-1.0,-1.0
1.6951603786866335e+18,-2.0,-2.0,4.0,10.0,5.0,0.0,-6.0,-5.0
1.6951603787176159e+18,2.0,3.0,-7.0,-13.0,-4.0,1.0,2.0,1.0
1.695160378718617e+18,-1.0,-3.0,-4.0,0.0,0.0,-4.0,-4.0,0.0
1.695160378718617e+18,1.0,2.0,-2.0,-2.0,1.0,1.0,3.0,-1.0
1.695160378718617e+18,-4.0,-14.0,-1.0,2.0,-1.0,-3.0,-3.0,-3.0
1.6951603787206144e+18,2.0,7.0,5.0,2.0,2.0,2.0,2.0,1.0
1.6951603787216154e+18,-5.0,-10.0,-3.0,9.0,4.0,-3.0,-11.0,-6.0
1.695160378745601e+18,0.0,-2.0,2.0,-5.0,0.0,2.0,4.0,1.0
1.695160378745601e+18,1.0,6.0,4.0,0.0,1.0,3.0,8.0,2.0
1.6951603787466e+18,-2.0,6.0,11.0,6.0,2.0,1.0,6.0,1.0
1.6951603787466e+18,10.0,2.0,-13.0,-18.0,-5.0,0.0,3.0,5.0
1.6951603787466e+18,-4.0,-7.0,2.0,4.0,-1.0,-5.0,-4.0,-3.0
1.6951603787466e+18,-1.0,0.0,1.0,5.0,-2.0,-16.0,-20.0,-8.0
1.6951603787625902e+18,2.0,10.0,0.0,-1.0,5.0,20.0,14.0,9.0
1.6951603787625902e+18,-2.0,6.0,8.0,6.0,-1.0,2.0,9.0,8.0
1.695160378763592e+18,-3.0,-1.0,-4.0,-1.0,1.0,1.0,-1.0,-7.0
1.695160378763592e+18,0.0,-1.0,-3.0,-4.0,-1.0,-3.0,-1.0,-2.0
1.695160378778582e+18,1.0,0.0,-7.0,-6.0,-4.0,-2.0,-2.0,-3.0
1.695160378782597e+18,-2.0,0.0,0.0,3.0,2.0,0.0,1.0,1.0
1.6951603787846013e+18,4.0,3.0,1.0,1.0,-1.0,0.0,-1.0,1.0
1.6951603787846013e+18,-2.0,0.0,1.0,-3.0,-4.0,-1.0,-2.0,-2.0
1.6951603787996966e+18,-2.0,-4.0,-11.0,-6.0,-4.0,-11.0,-11.0,-4.0
1.6951603787996966e+18,0.0,1.0,6.0,5.0,1.0,7.0,12.0,0.0
1.6951603788006656e+18,-4.0,-3.0,-5.0,0.0,-1.0,-6.0,-6.0,1.0
1.6951603788006656e+18,1.0,2.0,3.0,-1.0,-2.0,-6.0,-4.0,-4.0
1.6951603788227779e+18,-4.0,-7.0,-4.0,-4.0,-3.0,-12.0,-8.0,-2.0
1.6951603788227779e+18,1.0,-2.0,5.0,2.0,3.0,19.0,24.0,3.0
1.6951603788227779e+18,-5.0,0.0,6.0,3.0,-3.0,-9.0,-7.0,-2.0
1.6951603788227779e+18,-1.0,0.0,0.0,-4.0,-7.0,17.0,15.0,1.0
1.6951603788447626e+18,3.0,-6.0,-4.0,-1.0,1.0,-1.0,-10.0,2.0
1.6951603788447626e+18,-6.0,-1.0,-3.0,5.0,3.0,-27.0,-23.0,-8.0
1.695160378845761e+18,-1.0,1.0,-1.0,-7.0,-2.0,20.0,5.0,2.0
1.6951603788467607e+18,4.0,5.0,6.0,3.0,8.0,7.0,9.0,3.0
1.6951603788587533e+18,-8.0,-4.0,2.0,6.0,-8.0,-19.0,-14.0,-8.0
1.6951603788587533e+18,-2.0,1.0,-5.0,-6.0,-8.0,9.0,10.0,-1.0
1.695160378875059e+18,-1.0,-5.0,-19.0,-8.0,-18.0,-15.0,-14.0,-2.0
1.695160378875059e+18,-2.0,-1.0,-8.0,0.0,11.0,-20.0,-26.0,-6.0
1.6951603788900541e+18,3.0,3.0,11.0,-1.0,10.0,29.0,37.0,10.0
1.6951603788900541e+18,1.0,0.0,16.0,19.0,9.0,-2.0,-5.0,-2.0
1.6951603788910533e+18,-2.0,-2.0,1.0,2.0,7.0,-21.0,8.0,-4.0
1.695160378892053e+18,-1.0,-4.0,4.0,-6.0,-17.0,45.0,20.0,7.0
1.6951603789285358e+18,-1.0,-5.0,-21.0,-14.0,-3.0,-16.0,-7.0,-4.0
1.6951603789295137e+18,-4.0,-5.0,-14.0,-11.0,-2.0,-9.0,0.0,-2.0
1.6951603789305132e+18,0.0,0.0,24.0,12.0,10.0,6.0,14.0,2.0
1.6951603789305132e+18,-1.0,-2.0,-9.0,-3.0,-20.0,-27.0,-12.0,0.0
1.6951603789305132e+18,3.0,6.0,21.0,13.0,7.0,6.0,-2.0,-1.0
1.6951603789315164e+18,-5.0,-6.0,-39.0,2.0,-1.0,-6.0,-14.0,-6.0
1.6951603789346793e+18,5.0,8.0,17.0,-14.0,4.0,5.0,-13.0,3.0
1.6951603789346793e+18,-2.0,-5.0,7.0,9.0,12.0,2.0,-12.0,-4.0
1.695160378942674e+18,-5.0,0.0,-8.0,15.0,11.0,32.0,17.0,1.0
1.695160378942674e+18,0.0,0.0,16.0,-10.0,-2.0,-4.0,-9.0,-2.0
1.6951603789486692e+18,-3.0,-6.0,-8.0,4.0,-10.0,-16.0,-10.0,-5.0
1.6951603789486692e+18,2.0,1.0,4.0,-9.0,-16.0,-20.0,-8.0,2.0
1.6951603789724326e+18,-2.0,-5.0,-18.0,-24.0,-13.0,-9.0,-1.0,-5.0
1.695160378973431e+18,0.0,1.0,-18.0,-10.0,-2.0,1.0,-5.0,-3.0
1.695160378973431e+18,0.0,0.0,18.0,38.0,2.0,5.0,2.0,1.0
1.695160378973431e+18,1.0,4.0,-3.0,1.0,7.0,4.0,10.0,3.0
1.6951603789787233e+18,0.0,1.0,21.0,12.0,-2.0,-7.0,-4.0,-5.0
1.6951603789787233e+18,-2.0,-6.0,-8.0,-16.0,-8.0,-3.0,2.0,1.0
1.6951603789951928e+18,-1.0,-1.0,15.0,-2.0,9.0,11.0,6.0,0.0
1.6951603789951928e+18,-1.0,-4.0,-4.0,11.0,1.0,1.0,-3.0,-3.0
1.6951603790089943e+18,1.0,3.0,-5.0,10.0,1.0,-14.0,1.0,0.0
1.6951603790099927e+18,3.0,1.0,1.0,-44.0,-11.0,5.0,7.0,5.0
1.6951603790179812e+18,-2.0,1.0,-26.0,-5.0,-1.0,0.0,-5.0,-4.0
1.6951603790189821e+18,-1.0,3.0,14.0,1.0,10.0,16.0,5.0,3.0
1.6951603790189821e+18,-4.0,0.0,18.0,27.0,-3.0,-9.0,-13.0,-4.0
1.6951603790199818e+18,1.0,4.0,10.0,24.0,5.0,-6.0,-12.0,-3.0
1.6951603790417244e+18,1.0,0.0,-6.0,-12.0,-4.0,0.0,24.0,7.0
1.695160379042744e+18,-1.0,-1.0,1.0,1.0,1.0,-3.0,9.0,1.0
1.695160379042744e+18,-2.0,-12.0,-54.0,-44.0,-4.0,5.0,3.0,-1.0
1.6951603790437312e+18,0.0,1.0,17.0,17.0,-6.0,-7.0,-14.0,-6.0
1.6951603790547228e+18,0.0,-1.0,4.0,4.0,5.0,11.0,14.0,3.0
1.695160379055718e+18,0.0,0.0,-21.0,-10.0,-5.0,-7.0,-1.0,-1.0
1.695160379069707e+18,1.0,-2.0,-2.0,-2.0,-3.0,-4.0,-6.0,2.0
1.6951603790707067e+18,-3.0,-3.0,11.0,4.0,10.0,1.0,-4.0,-3.0
1.695160379085723e+18,-2.0,2.0,-17.0,6.0,5.0,-1.0,-7.0,-2.0
1.695160379085723e+18,2.0,1.0,12.0,9.0,-1.0,1.0,14.0,3.0
1.6951603790866988e+18,0.0,-3.0,-6.0,4.0,0.0,4.0,-1.0,2.0
1.6951603790866988e+18,-3.0,0.0,5.0,-12.0,-4.0,-3.0,-6.0,-3.0
1.6951603790877012e+18,-2.0,2.0,-10.0,-15.0,3.0,-2.0,-13.0,-1.0
1.6951603790887e+18,-3.0,-8.0,-10.0,3.0,2.0,1.0,2.0,-2.0
1.6951603790986918e+18,-1.0,-2.0,8.0,-13.0,-5.0,-5.0,-12.0,-1.0
1.6951603790996905e+18,2.0,1.0,2.0,1.0,-1.0,2.0,10.0,2.0
1.6951603791117082e+18,-2.0,-3.0,9.0,15.0,-4.0,-3.0,-6.0,-2.0
1.6951603791126884e+18,-2.0,1.0,-10.0,-13.0,6.0,0.0,-1.0,-1.0
1.6951603791236818e+18,0.0,-2.0,4.0,-1.0,-5.0,-3.0,-4.0,-2.0
1.6951603791236818e+18,-2.0,-1.0,2.0,25.0,8.0,3.0,8.0,-1.0
1.6951603791246764e+18,0.0,-1.0,2.0,-19.0,-10.0,0.0,3.0,2.0
1.6951603791246764e+18,0.0,0.0,21.0,33.0,10.0,1.0,-4.0,1.0
1.6951603791456635e+18,-1.0,-3.0,-25.0,-24.0,-12.0,-7.0,-1.0,-2.0
1.6951603791466634e+18,1.0,1.0,0.0,-11.0,-1.0,-4.0,-14.0,-3.0
1.6951603791466634e+18,-4.0,-4.0,-5.0,6.0,-8.0,-5.0,-8.0,-2.0
1.695160379147663e+18,1.0,1.0,-4.0,-21.0,-4.0,2.0,4.0,2.0
1.695160379167677e+18,-3.0,-5.0,-2.0,-9.0,-2.0,-1.0,1.0,-3.0
1.695160379167677e+18,-2.0,-4.0,-10.0,15.0,-4.0,-4.0,-2.0,-1.0
1.6951603791686515e+18,3.0,2.0,-7.0,7.0,6.0,-1.0,-13.0,-2.0
1.6951603791696507e+18,-5.0,2.0,5.0,-1.0,-2.0,-1.0,11.0,1.0
1.6951603791906378e+18,1.0,2.0,12.0,5.0,1.0,2.0,4.0,3.0
1.6951603791906378e+18,0.0,5.0,-1.0,-15.0,-3.0,-1.0,-1.0,-2.0
1.6951603791916419e+18,2.0,5.0,1.0,8.0,3.0,0.0,0.0,0.0
1.6951603791926415e+18,-1.0,-2.0,-2.0,-5.0,-5.0,-4.0,-4.0,-3.0
1.69516037920463e+18,1.0,2.0,-4.0,-21.0,0.0,2.0,0.0,0.0
1.69516037920463e+18,-4.0,-3.0,14.0,38.0,-2.0,2.0,6.0,-1.0
1.6951603792136266e+18,-2.0,-4.0,-20.0,-25.0,1.0,0.0,-1.0,-1.0
1.6951603792136266e+18,-1.0,7.0,13.0,14.0,-3.0,-4.0,-5.0,-4.0
1.6951603792276178e+18,-2.0,-4.0,1.0,-7.0,8.0,0.0,-2.0,-3.0
1.695160379228617e+18,2.0,2.0,-1.0,-5.0,1.0,5.0,6.0,3.0
1.695160379229616e+18,-4.0,-6.0,-10.0,-6.0,-8.0,-2.0,-2.0,-4.0
1.695160379229616e+18,2.0,0.0,-31.0,-50.0,-2.0,-2.0,-5.0,1.0
1.695160379249604e+18,2.0,1.0,10.0,22.0,-1.0,1.0,0.0,2.0
1.695160379250629e+18,2.0,1.0,11.0,31.0,7.0,1.0,-1.0,1.0
1.6951603792516055e+18,-5.0,-9.0,-2.0,0.0,-1.0,-2.0,-3.0,-4.0
1.6951603792516055e+18,1.0,1.0,-2.0,6.0,5.0,9.0,15.0,5.0
1.695160379272592e+18,1.0,4.0,6.0,2.0,-1.0,-1.0,7.0,-4.0
1.695160379272592e+18,-2.0,-3.0,-21.0,-39.0,-14.0,-13.0,-20.0,-2.0
1.695160379282586e+18,2.0,2.0,4.0,8.0,1.0,12.0,22.0,2.0
1.6951603792835904e+18,-1.0,-1.0,1.0,-11.0,-6.0,-4.0,-4.0,-2.0
1.6951603792835904e+18,-3.0,1.0,2.0,13.0,1.0,-3.0,-5.0,-1.0
1.6951603792835904e+18,0.0,-4.0,0.0,-10.0,-1.0,5.0,7.0,3.0
1.695160379295578e+18,0.0,-1.0,5.0,0.0,0.0,-5.0,-18.0,-2.0
1.695160379295578e+18,-1.0,-3.0,-4.0,7.0,0.0,0.0,4.0,0.0
1.6951603793095946e+18,0.0,-1.0,-7.0,-20.0,-3.0,-3.0,1.0,-2.0
1.6951603793105738e+18,-1.0,2.0,3.0,16.0,2.0,3.0,-8.0,-2.0
1.6951603793115727e+18,-1.0,-5.0,-5.0,-12.0,-8.0,-6.0,0.0,-1.0
1.6951603793115727e+18,-2.0,-1.0,4.0,11.0,0.0,-3.0,-11.0,-4.0
1.6951603793405524e+18,0.0,0.0,-5.0,-2.0,-2.0,0.0,6.0,-1.0
1.6951603793415552e+18,0.0,3.0,4.0,-2.0,-2.0,2.0,6.0,-3.0
1.6951603793415552e+18,0.0,-1.0,1.0,-5.0,-1.0,-4.0,-4.0,-2.0
1.6951603793425513e+18,-2.0,-3.0,-1.0,10.0,0.0,1.0,7.0,3.0
1.6951603793495498e+18,-1.0,-3.0,-1.0,3.0,-2.0,0.0,-3.0,-1.0
1.69516037936154e+18,0.0,0.0,-7.0,-15.0,1.0,-4.0,3.0,-3.0
1.69516037936254e+18,-1.0,-1.0,2.0,0.0,-6.0,-7.0,-21.0,-1.0
1.69516037936254e+18,0.0,-2.0,1.0,4.0,4.0,-1.0,-6.0,-2.0
1.6951603793775299e+18,-1.0,1.0,2.0,4.0,-1.0,8.0,22.0,6.0
1.6951603793775299e+18,-1.0,-2.0,-4.0,-2.0,0.0,5.0,16.0,2.0
1.69516037937853e+18,-1.0,2.0,1.0,-12.0,-1.0,-3.0,-7.0,-2.0
1.69516037937953e+18,-1.0,0.0,12.0,32.0,1.0,-5.0,-15.0,-5.0
1.6951603793845256e+18,-1.0,0.0,-6.0,-15.0,-3.0,-5.0,-9.0,-2.0
1.6951603793845256e+18,0.0,2.0,-2.0,3.0,-4.0,-2.0,-5.0,0.0
1.6951603793865257e+18,0.0,1.0,2.0,-2.0,-3.0,-1.0,5.0,-1.0
1.6951603793865257e+18,2.0,3.0,-10.0,-23.0,0.0,0.0,0.0,0.0
1.6951603794015178e+18,-4.0,-11.0,8.0,17.0,4.0,0.0,-1.0,0.0
1.6951603794085148e+18,-1.0,-2.0,-4.0,-2.0,-1.0,0.0,-2.0,1.0
1.695160379423504e+18,0.0,-2.0,-16.0,-3.0,0.0,1.0,1.0,1.0
1.695160379423504e+18,-1.0,2.0,2.0,-4.0,-1.0,-2.0,3.0,1.0
1.695160379423504e+18,-1.0,1.0,4.0,10.0,3.0,-3.0,-9.0,-3.0
1.6951603794245043e+18,0.0,-1.0,-2.0,-17.0,-6.0,-4.0,-3.0,-1.0
1.695160379425504e+18,0.0,-1.0,0.0,11.0,9.0,6.0,6.0,2.0
1.695160379425504e+18,-3.0,-1.0,18.0,7.0,0.0,-2.0,-3.0,-1.0
1.6951603794684777e+18,-2.0,0.0,-20.0,0.0,-4.0,-3.0,-5.0,-2.0
1.6951603794684777e+18,-1.0,-4.0,-1.0,2.0,0.0,0.0,-1.0,1.0
1.6951603794704773e+18,-3.0,-2.0,6.0,4.0,3.0,0.0,5.0,-4.0
1.6951603794704773e+18,-1.0,-1.0,-2.0,1.0,-6.0,-6.0,-3.0,-2.0
1.6951603794714775e+18,-2.0,-5.0,2.0,4.0,2.0,1.0,-5.0,-2.0
1.6951603794714775e+18,0.0,-1.0,-1.0,-1.0,0.0,1.0,1.0,0.0
1.6951603794844685e+18,0.0,3.0,-3.0,4.0,-1.0,0.0,1.0,1.0
1.6951603794844685e+18,-1.0,-4.0,-6.0,-12.0,-2.0,-1.0,-3.0,-2.0
1.6951603794854684e+18,1.0,3.0,8.0,1.0,-1.0,0.0,-2.0,-2.0
1.6951603794854684e+18,-2.0,-2.0,-7.0,1.0,1.0,-2.0,-1.0,-1.0
1.6951603794884667e+18,-1.0,-2.0,3.0,-1.0,0.0,0.0,1.0,-2.0
1.6951603794894674e+18,-2.0,-2.0,-2.0,1.0,1.0,-1.0,-1.0,-2.0
1.6951603795104548e+18,-1.0,3.0,-2.0,-1.0,-3.0,-2.0,0.0,-1.0
1.6951603795104548e+18,-1.0,-1.0,4.0,2.0,1.0,0.0,-1.0,-2.0
1.6951603795104548e+18,-1.0,1.0,1.0,-3.0,-3.0,-1.0,0.0,0.0
1.6951603795104548e+18,-1.0,-2.0,-6.0,-5.0,-2.0,1.0,0.0,-1.0
1.695160379519449e+18,-1.0,-1.0,2.0,-2.0,-2.0,0.0,-3.0,0.0
1.695160379519449e+18,-1.0,-2.0,0.0,-2.0,0.0,-2.0,-2.0,-1.0
1.6951603795274445e+18,0.0,-1.0,-1.0,-1.0,-3.0,-1.0,1.0,0.0
1.6951603795274445e+18,1.0,-2.0,-8.0,-1.0,0.0,-2.0,-1.0,-1.0
1.695160379550433e+18,0.0,0.0,4.0,-1.0,1.0,-2.0,-1.0,0.0
1.6951603795594266e+18,-2.0,1.0,2.0,3.0,-1.0,-1.0,-4.0,-1.0
1.6951603795604275e+18,0.0,-1.0,2.0,-2.0,-3.0,0.0,2.0,-2.0
1.6951603795604275e+18,0.0,-3.0,-15.0,-8.0,-2.0,-1.0,0.0,1.0
1.695160379572421e+18,-2.0,1.0,5.0,-1.0,-4.0,-6.0,-3.0,-1.0
1.695160379572421e+18,0.0,0.0,4.0,10.0,9.0,4.0,3.0,0.0
1.6951603795734188e+18,-1.0,0.0,-3.0,-3.0,-3.0,-2.0,-3.0,-1.0
1.6951603795744174e+18,-2.0,-1.0,2.0,-7.0,0.0,1.0,0.0,-2.0
1.6951603795784143e+18,-1.0,0.0,-6.0,-3.0,2.0,-1.0,-1.0,-2.0
1.6951603795784143e+18,-2.0,-3.0,-9.0,-1.0,-4.0,-4.0,-2.0,-3.0
1.6951603795974054e+18,-2.0,-1.0,-1.0,2.0,0.0,-2.0,-2.0,0.0
1.6951603796034012e+18,-2.0,-1.0,-1.0,1.0,-6.0,-4.0,-4.0,-1.0
1.6951603796034012e+18,-1.0,0.0,-4.0,-1.0,6.0,1.0,0.0,1.0
1.695160379604401e+18,1.0,3.0,17.0,6.0,-1.0,2.0,1.0,-1.0
1.6951603796563712e+18,-3.0,-6.0,-28.0,-23.0,-8.0,-3.0,-2.0,-1.0
1.6951603796563712e+18,0.0,-3.0,-4.0,-1.0,1.0,0.0,-1.0,1.0
1.6951603796563712e+18,0.0,0.0,-1.0,-3.0,-3.0,-3.0,-3.0,-1.0
1.69516037965737e+18,0.0,0.0,-2.0,-3.0,0.0,-1.0,-2.0,0.0
1.69516037965737e+18,0.0,-1.0,12.0,8.0,1.0,-1.0,0.0,0.0
1.6951603796583693e+18,-1.0,0.0,-2.0,-2.0,-5.0,-3.0,-3.0,-2.0
1.6951603796583693e+18,0.0,0.0,-1.0,3.0,2.0,-4.0,-3.0,-1.0
1.6951603796583693e+18,-3.0,-3.0,-4.0,-2.0,1.0,5.0,3.0,0.0
1.6951603796593687e+18,0.0,2.0,2.0,2.0,2.0,1.0,1.0,2.0
1.6951603796593687e+18,-1.0,-1.0,-3.0,1.0,-1.0,-2.0,-1.0,-2.0
1.6951603796903516e+18,0.0,0.0,2.0,2.0,-1.0,2.0,0.0,-2.0
1.6951603796903516e+18,-2.0,-1.0,-5.0,-4.0,-6.0,-4.0,-2.0,-2.0
1.6951603796903516e+18,-1.0,-2.0,-8.0,-1.0,-2.0,-1.0,0.0,-1.0
1.6951603796903516e+18,-2.0,0.0,3.0,2.0,3.0,0.0,0.0,1.0
1.6951603797003476e+18,0.0,0.0,-1.0,0.0,-2.0,0.0,1.0,1.0
1.6951603797013458e+18,0.0,-2.0,-1.0,-3.0,-1.0,-3.0,1.0,-1.0
1.6951603797103404e+18,0.0,1.0,3.0,1.0,2.0,1.0,0.0,0.0
1.6951603797103404e+18,0.0,-1.0,1.0,1.0,-1.0,0.0,-1.0,1.0
1.6951603797103404e+18,1.0,-1.0,-2.0,-2.0,-1.0,-1.0,-1.0,-1.0
1.6951603797103404e+18,-1.0,-2.0,0.0,-3.0,-3.0,-1.0,0.0,-2.0
1.6951603797213345e+18,-2.0,-1.0,-4.0,0.0,1.0,0.0,-1.0,1.0
1.6951603797213345e+18,-1.0,-2.0,-2.0,3.0,0.0,-1.0,-2.0,-1.0
1.6951603797273303e+18,-1.0,0.0,4.0,2.0,-1.0,1.0,0.0,-2.0
1.6951603797283308e+18,0.0,0.0,-5.0,-1.0,-1.0,-1.0,1.0,0.0
1.6951603797283308e+18,0.0,-3.0,3.0,-1.0,-2.0,-2.0,-2.0,-1.0
1.6951603797283308e+18,0.0,2.0,4.0,0.0,1.0,1.0,0.0,1.0
1.69516037974432e+18,-1.0,-1.0,-2.0,2.0,2.0,3.0,1.0,1.0
1.69516037974432e+18,-1.0,1.0,-7.0,-1.0,1.0,-1.0,0.0,-1.0
1.6951603797593116e+18,-2.0,1.0,3.0,6.0,0.0,-1.0,0.0,1.0
1.6951603797603126e+18,-2.0,-2.0,-3.0,-1.0,-2.0,-2.0,-2.0,-3.0
1.6951603797673062e+18,-1.0,-5.0,-2.0,-1.0,-1.0,-3.0,-3.0,-1.0
1.6951603797673062e+18,2.0,3.0,-5.0,-6.0,-3.0,-2.0,-1.0,1.0
1.6951603797683118e+18,0.0,1.0,8.0,2.0,0.0,0.0,1.0,-1.0
1.695160379769306e+18,1.0,-1.0,-4.0,-2.0,1.0,1.0,2.0,-1.0
1.6951603797822986e+18,0.0,-4.0,-9.0,-5.0,-2.0,-1.0,1.0,0.0
1.6951603797862966e+18,-2.0,-2.0,3.0,5.0,-1.0,-4.0,-2.0,-1.0
1.6951603798052861e+18,-2.0,0.0,1.0,-2.0,0.0,-2.0,-1.0,-2.0
1.6951603798052861e+18,-1.0,-1.0,-4.0,-6.0,1.0,0.0,-1.0,1.0
1.695160379806284e+18,-1.0,3.0,8.0,-1.0,0.0,1.0,-1.0,1.0
1.695160379806284e+18,-1.0,-4.0,-8.0,-7.0,-3.0,-1.0,-2.0,2.0
1.695160379808283e+18,2.0,-2.0,0.0,2.0,-1.0,1.0,0.0,-1.0
1.695160379808283e+18,0.0,1.0,2.0,3.0,2.0,-2.0,-2.0,-2.0
1.6951603798272717e+18,-1.0,0.0,-1.0,0.0,-1.0,0.0,0.0,0.0
1.6951603798272717e+18,1.0,1.0,3.0,-1.0,0.0,1.0,-1.0,0.0
1.6951603798292728e+18,-1.0,1.0,5.0,-1.0,0.0,1.0,0.0,0.0
1.6951603798292728e+18,-1.0,-2.0,-8.0,-2.0,-2.0,1.0,1.0,-2.0
1.6951603798497403e+18,-1.0,0.0,1.0,0.0,-3.0,0.0,-1.0,-3.0
1.6951603798497403e+18,0.0,-1.0,1.0,0.0,1.0,-1.0,-1.0,-1.0
1.695160379851738e+18,-1.0,-1.0,-2.0,-3.0,-1.0,-1.0,-1.0,1.0
1.695160379851738e+18,-1.0,-2.0,3.0,0.0,-1.0,-3.0,0.0,-1.0
1.695160379872727e+18,-2.0,1.0,-1.0,0.0,-1.0,-1.0,-2.0,-1.0
1.695160379872727e+18,0.0,-1.0,-1.0,-1.0,-1.0,0.0,-2.0,-2.0
1.6951603798737444e+18,0.0,0.0,-2.0,-1.0,0.0,0.0,-1.0,0.0
1.6951603798737444e+18,-1.0,0.0,2.0,0.0,0.0,2.0,-1.0,1.0
1.6951603798787208e+18,1.0,-2.0,-1.0,0.0,0.0,0.0,-1.0,0.0
1.6951603798787208e+18,-3.0,-2.0,0.0,-2.0,-1.0,-2.0,-1.0,0.0
1.6951603798877166e+18,0.0,-2.0,-2.0,0.0,-3.0,-1.0,-2.0,-1.0
1.6951603798877166e+18,-1.0,0.0,1.0,0.0,-2.0,-2.0,1.0,-1.0
1.6951603799017073e+18,-2.0,-1.0,-1.0,0.0,-1.0,-1.0,-1.0,-1.0
1.6951603799017073e+18,0.0,-1.0,-1.0,-1.0,1.0,-1.0,-2.0,-1.0
1.6951603799087037e+18,-2.0,-1.0,-3.0,-2.0,-2.0,1.0,0.0,-1.0
1.6951603799087037e+18,-1.0,-1.0,1.0,0.0,-1.0,0.0,-2.0,0.0
1.6951603799322875e+18,-1.0,-2.0,-1.0,-2.0,0.0,-1.0,-1.0,0.0
1.6951603799322875e+18,-2.0,0.0,1.0,1.0,-2.0,0.0,-1.0,-1.0
1.6951603799343045e+18,0.0,-1.0,-1.0,-1.0,0.0,-2.0,0.0,-1.0
1.6951603799343045e+18,-1.0,-1.0,-1.0,-1.0,-1.0,-1.0,-2.0,-1.0
1.6951603799387249e+18,-1.0,0.0,-2.0,-1.0,0.0,-1.0,0.0,1.0
1.6951603799387249e+18,0.0,1.0,1.0,0.0,0.0,0.0,-1.0,-3.0
1.6951603799477107e+18,-1.0,0.0,0.0,-1.0,-1.0,-1.0,1.0,0.0
1.6951603799477107e+18,-1.0,0.0,-1.0,0.0,-1.0,-1.0,-1.0,-1.0
1.6951603799617536e+18,0.0,0.0,-1.0,0.0,0.0,-2.0,-1.0,0.0
1.6951603799617536e+18,-2.0,-1.0,1.0,-1.0,-1.0,-2.0,0.0,-1.0
1.695160379968749e+18,0.0,-2.0,1.0,-1.0,-1.0,-2.0,-1.0,-1.0
1.695160379968749e+18,0.0,-2.0,-1.0,-2.0,1.0,0.0,-1.0,0.0
1.6951603799837204e+18,0.0,0.0,-1.0,-1.0,-1.0,0.0,0.0,-2.0
1.6951603799837204e+18,-1.0,-1.0,-2.0,-3.0,-1.0,-2.0,0.0,-1.0
1.695160379992696e+18,0.0,0.0,-1.0,0.0,0.0,0.0,-2.0,-1.0
1.695160379993703e+18,-1.0,-1.0,0.0,-1.0,-4.0,0.0,-2.0,-1.0
1.6951603799996946e+18,-1.0,0.0,-1.0,-2.0,-2.0,0.0,-1.0,-1.0
1.695160380000692e+18,0.0,-1.0,0.0,0.0,-1.0,-1.0,0.0,1.0
1.6951603800086876e+18,-1.0,0.0,-2.0,-1.0,0.0,-1.0,0.0,2.0
1.695160380009701e+18,-1.0,-1.0,-1.0,2.0,-1.0,-2.0,0.0,0.0
1.69516038003767e+18,-2.0,-1.0,-1.0,-2.0,-2.0,0.0,-2.0,-2.0
1.695160380038678e+18,0.0,0.0,-1.0,-1.0,-1.0,-1.0,0.0,-1.0
1.6951603800396687e+18,0.0,-1.0,-1.0,1.0,-2.0,1.0,-1.0,-2.0
1.6951603800396687e+18,0.0,-1.0,0.0,-1.0,0.0,-1.0,1.0,-1.0
1.6951603800456663e+18,-2.0,0.0,0.0,0.0,-1.0,-3.0,0.0,-1.0
1.6951603800466637e+18,-2.0,-1.0,-1.0,-2.0,-1.0,-1.0,-1.0,0.0
1.6951603800466637e+18,0.0,-3.0,-2.0,-3.0,-1.0,-1.0,-1.0,0.0
1.6951603800466637e+18,1.0,-1.0,1.0,0.0,0.0,-1.0,0.0,-1.0
1.6951603800676513e+18,1.0,-1.0,-1.0,-3.0,-2.0,-1.0,-1.0,-2.0
1.6951603800676513e+18,-2.0,-1.0,-1.0,0.0,-1.0,0.0,0.0,-1.0
1.6951603800686528e+18,0.0,0.0,-2.0,-2.0,0.0,-1.0,0.0,-1.0
1.6951603800696522e+18,0.0,0.0,1.0,0.0,0.0,-1.0,1.0,0.0
1.6951603800846454e+18,1.0,-1.0,-2.0,0.0,1.0,-2.0,0.0,-1.0
1.6951603800846454e+18,0.0,-1.0,-1.0,0.0,-1.0,2.0,-1.0,1.0
1.695160380089639e+18,-2.0,2.0,-2.0,0.0,0.0,-1.0,1.0,-1.0
1.6951603800906386e+18,-1.0,-1.0,-2.0,-1.0,0.0,-1.0,-1.0,-2.0
1.6951603801056305e+18,0.0,-2.0,-1.0,-2.0,0.0,0.0,-1.0,-1.0
1.6951603801066307e+18,-2.0,0.0,1.0,-1.0,-1.0,-1.0,0.0,-2.0
1.6951603801066307e+18,-2.0,-2.0,0.0,0.0,0.0,0.0,0.0,0.0
1.6951603801076288e+18,0.0,-2.0,-2.0,-1.0,-1.0,-1.0,-2.0,-2.0
1.6951603801276165e+18,1.0,-3.0,-1.0,-1.0,0.0,-1.0,0.0,-1.0
1.695160380128616e+18,0.0,-2.0,-1.0,0.0,1.0,-1.0,-1.0,0.0
1.6951603801296161e+18,-1.0,-1.0,-1.0,0.0,-2.0,0.0,-1.0,-2.0
1.6951603801296161e+18,-2.0,-1.0,0.0,-2.0,-2.0,0.0,0.0,-1.0
1.6951603801426086e+18,-2.0,-2.0,-1.0,0.0,-1.0,0.0,0.0,-2.0
1.6951603801476065e+18,0.0,0.0,-2.0,-1.0,-1.0,0.0,0.0,0.0
1.695160380149605e+18,-2.0,-2.0,-1.0,0.0,-1.0,-1.0,-1.0,0.0
1.6951603801506063e+18,-2.0,0.0,-2.0,-1.0,0.0,-1.0,0.0,-1.0
1.6951603801645955e+18,0.0,0.0,0.0,0.0,-3.0,-1.0,-1.0,0.0
1.6951603801645955e+18,-1.0,-1.0,0.0,-1.0,0.0,-1.0,-1.0,0.0
1.6951603801665933e+18,-1.0,-1.0,0.0,-1.0,1.0,-1.0,-1.0,-1.0
1.6951603801665933e+18,0.0,-1.0,0.0,-1.0,0.0,0.0,0.0,-1.0
1.6951603801945792e+18,-2.0,2.0,1.0,-1.0,0.0,0.0,-1.0,0.0
1.6951603801955802e+18,-1.0,-1.0,0.0,-2.0,-2.0,1.0,0.0,-3.0
1.695160380196577e+18,-1.0,1.0,-1.0,-2.0,-1.0,-1.0,-1.0,-1.0
1.695160380196577e+18,-1.0,-1.0,0.0,-1.0,-1.0,0.0,-1.0,2.0
1.6951603802095698e+18,0.0,-2.0,-2.0,0.0,0.0,1.0,-1.0,-1.0
1.6951603802095698e+18,-1.0,-2.0,-1.0,0.0,-1.0,0.0,1.0,0.0
1.6951603802125686e+18,1.0,-1.0,-2.0,-2.0,1.0,-3.0,-1.0,-1.0
1.695160380217566e+18,-1.0,0.0,-2.0,-1.0,-1.0,-1.0,-1.0,0.0
1.695160380231882e+18,-1.0,0.0,1.0,1.0,0.0,0.0,-1.0,0.0
1.6951603802328517e+18,-1.0,-1.0,-1.0,-1.0,0.0,0.0,0.0,-1.0
1.6951603802339215e+18,0.0,-2.0,-3.0,0.0,-1.0,0.0,-1.0,0.0
1.6951603802339215e+18,0.0,-1.0,0.0,-1.0,-2.0,0.0,-1.0,-1.0
1.6951603802469202e+18,-2.0,2.0,0.0,0.0,0.0,-2.0,-1.0,-2.0
1.695160380247923e+18,-1.0,1.0,-1.0,-1.0,-1.0,0.0,-1.0,-1.0
1.6951603802489206e+18,-1.0,0.0,0.0,-3.0,-1.0,-1.0,0.0,-2.0
1.6951603802489206e+18,-1.0,-2.0,-1.0,-1.0,-1.0,0.0,0.0,-1.0
1.6951603802609144e+18,-1.0,0.0,-3.0,-1.0,-2.0,0.0,-1.0,1.0
1.6951603802609144e+18,-1.0,-1.0,0.0,-1.0,0.0,-2.0,-1.0,-1.0
1.6951603802769016e+18,-1.0,-3.0,-1.0,0.0,0.0,0.0,-1.0,-1.0
1.6951603802779034e+18,0.0,-3.0,-1.0,0.0,0.0,-1.0,0.0,0.0
1.6951603802997806e+18,0.0,-2.0,-1.0,-1.0,0.0,-2.0,0.0,1.0
1.6951603802997806e+18,-1.0,-1.0,-1.0,-2.0,0.0,0.0,-1.0,-1.0
1.6951603803017876e+18,-1.0,-1.0,0.0,1.0,-1.0,-2.0,-1.0,1.0
1.6951603803017876e+18,0.0,0.0,0.0,-2.0,0.0,-1.0,-2.0,-2.0
1.6951603803074081e+18,-1.0,0.0,-1.0,-2.0,-1.0,0.0,1.0,0.0
1.6951603803074081e+18,0.0,0.0,-1.0,0.0,-2.0,0.0,-1.0,0.0
1.695160380309408e+18,-3.0,-1.0,0.0,-2.0,0.0,-1.0,-2.0,-1.0
1.695160380309408e+18,-1.0,0.0,-2.0,-2.0,-1.0,0.0,0.0,-1.0
1.695160380321449e+18,0.0,-1.0,0.0,0.0,-1.0,-2.0,-1.0,-1.0
1.695160380321449e+18,-1.0,-1.0,0.0,0.0,1.0,1.0,-3.0,-2.0
1.6951603803359396e+18,-1.0,-1.0,0.0,-1.0,-3.0,2.0,0.0,0.0
1.6951603803367122e+18,-1.0,-2.0,-1.0,-1.0,-2.0,0.0,0.0,-1.0
1.6951603803448486e+18,-2.0,-2.0,-1.0,-4.0,-2.0,-2.0,-1.0,-1.0
1.6951603803448486e+18,0.0,-2.0,0.0,1.0,0.0,-2.0,-2.0,0.0
1.6951603803468493e+18,-1.0,0.0,-1.0,0.0,0.0,0.0,0.0,0.0
1.695160380347861e+18,-1.0,1.0,-2.0,-1.0,0.0,-2.0,-1.0,-1.0
1.6951603803688374e+18,-2.0,-1.0,-1.0,0.0,-1.0,1.0,0.0,1.0
1.6951603803688374e+18,1.0,-1.0,-2.0,-2.0,-2.0,-1.0,-1.0,-2.0
1.6951603803698396e+18,0.0,-2.0,-1.0,-1.0,-1.0,-2.0,-1.0,-3.0
1.6951603803698396e+18,-1.0,-2.0,0.0,-2.0,0.0,-3.0,0.0,-1.0
1.6951603803818307e+18,0.0,-1.0,-2.0,1.0,-1.0,-3.0,-1.0,-1.0
1.6951603803828431e+18,-1.0,1.0,-1.0,1.0,1.0,0.0,0.0,1.0
1.695160380407814e+18,0.0,-1.0,-1.0,-1.0,-1.0,-1.0,-1.0,0.0
1.6951603804088146e+18,-2.0,-2.0,-2.0,1.0,-1.0,0.0,0.0,-2.0
1.695160380409834e+18,-1.0,-1.0,-1.0,-1.0,-1.0,1.0,-2.0,-1.0
1.695160380409834e+18,-2.0,0.0,0.0,-1.0,-1.0,0.0,-1.0,0.0
1.695160380418808e+18,0.0,0.0,0.0,-1.0,1.0,-1.0,0.0,-1.0
1.6951603804198157e+18,-1.0,-1.0,0.0,1.0,-1.0,-1.0,0.0,1.0
1.6951603804288023e+18,1.0,-1.0,0.0,-1.0,-2.0,-2.0,-1.0,-2.0
1.6951603804288023e+18,-1.0,0.0,-1.0,-3.0,-1.0,-1.0,-1.0,-1.0
1.6951603804298035e+18,0.0,0.0,0.0,1.0,0.0,-1.0,0.0,-1.0
1.6951603804308012e+18,-1.0,1.0,0.0,-2.0,-2.0,0.0,-1.0,-1.0
1.695160380451792e+18,-1.0,1.0,-2.0,-2.0,-2.0,0.0,1.0,-1.0
1.695160380451792e+18,-1.0,-1.0,-2.0,-1.0,-2.0,-3.0,-1.0,0.0
1.6951603804567882e+18,0.0,1.0,0.0,-1.0,0.0,-1.0,-2.0,0.0
1.6951603804627889e+18,-1.0,-1.0,0.0,0.0,0.0,-2.0,-2.0,-2.0
1.695160380477775e+18,-2.0,0.0,-1.0,0.0,-1.0,0.0,0.0,0.0
1.695160380477775e+18,0.0,-2.0,0.0,-1.0,-2.0,0.0,-2.0,-1.0
1.695160380477775e+18,-2.0,0.0,0.0,-1.0,-2.0,1.0,0.0,-2.0
1.6951603804787732e+18,-1.0,0.0,0.0,0.0,-2.0,-1.0,-1.0,1.0
1.6951603804877673e+18,-2.0,-2.0,-1.0,0.0,0.0,-1.0,-1.0,-1.0
1.6951603804877673e+18,-1.0,-2.0,0.0,0.0,0.0,-1.0,0.0,-1.0
1.6951603804887672e+18,-1.0,0.0,-2.0,0.0,-2.0,-2.0,-2.0,-1.0
1.6951603804897664e+18,-1.0,1.0,-1.0,-1.0,1.0,-1.0,-1.0,-1.0
1.6951603805017595e+18,1.0,1.0,1.0,0.0,-1.0,-1.0,-1.0,-2.0
1.695160380502759e+18,-1.0,0.0,-1.0,2.0,0.0,0.0,-1.0,0.0
1.695160380509754e+18,-1.0,-2.0,-1.0,-4.0,-1.0,0.0,-1.0,0.0
1.6951603805107538e+18,-1.0,0.0,-1.0,0.0,0.0,-1.0,-2.0,0.0
1.6951603805327432e+18,0.0,-1.0,0.0,-1.0,1.0,0.0,0.0,0.0
1.6951603805327432e+18,1.0,-2.0,-2.0,0.0,-3.0,-2.0,-1.0,-1.0
1.695160380533741e+18,1.0,-2.0,-2.0,0.0,-2.0,-2.0,2.0,-1.0
1.695160380533741e+18,1.0,0.0,1.0,-1.0,-1.0,0.0,-1.0,0.0
1.6951603805497326e+18,0.0,-2.0,0.0,-1.0,0.0,0.0,0.0,-1.0
1.695160380561726e+18,-2.0,-1.0,0.0,-2.0,2.0,0.0,0.0,1.0
1.6951603805627292e+18,0.0,-1.0,-2.0,-1.0,-1.0,0.0,0.0,-1.0
1.6951603805627292e+18,-1.0,-2.0,-1.0,0.0,-1.0,0.0,-1.0,-2.0
1.6951603805627292e+18,-1.0,-1.0,-1.0,2.0,-2.0,0.0,-1.0,0.0
1.6951603805627292e+18,-1.0,-1.0,-1.0,1.0,0.0,-2.0,0.0,-3.0
1.695160380569721e+18,0.0,-1.0,-1.0,-1.0,-2.0,-1.0,-1.0,-1.0
1.6951603805707218e+18,0.0,-2.0,0.0,-1.0,0.0,-3.0,-2.0,-1.0
1.6951603805857116e+18,-2.0,-1.0,-1.0,-3.0,-1.0,0.0,-2.0,0.0
1.6951603805857116e+18,-1.0,-1.0,0.0,0.0,-3.0,0.0,-1.0,-2.0
1.6951603805867167e+18,-1.0,-1.0,0.0,0.0,1.0,-1.0,-1.0,-2.0
1.6951603805877156e+18,0.0,-2.0,-2.0,-1.0,-2.0,-1.0,0.0,1.0
1.6951603806147008e+18,-3.0,-2.0,-1.0,-1.0,0.0,-1.0,-2.0,1.0
1.695160380615694e+18,1.0,0.0,-1.0,-1.0,-1.0,0.0,0.0,1.0
1.6951603806166943e+18,-1.0,0.0,0.0,0.0,0.0,0.0,1.0,-1.0
1.6951603806166943e+18,0.0,-1.0,-1.0,-1.0,0.0,-1.0,0.0,-2.0
1.6951603806216975e+18,-1.0,-1.0,-3.0,0.0,-1.0,0.0,-1.0,-1.0
1.6951603806216975e+18,-2.0,-1.0,-1.0,-2.0,0.0,-1.0,1.0,0.0
1.6951603806396808e+18,1.0,-2.0,-1.0,0.0,1.0,-1.0,0.0,-1.0
1.6951603806396808e+18,0.0,-2.0,-2.0,-1.0,-1.0,-1.0,0.0,0.0
1.6951603806456768e+18,0.0,1.0,0.0,-2.0,0.0,-1.0,-1.0,-1.0
1.6951603806456768e+18,0.0,-1.0,-1.0,0.0,1.0,1.0,-1.0,-1.0
1.6951603806466783e+18,-2.0,1.0,0.0,-1.0,-1.0,0.0,0.0,1.0
1.6951603806466783e+18,-1.0,1.0,0.0,1.0,-2.0,-1.0,0.0,0.0
1.695160380668666e+18,0.0,-2.0,-2.0,-1.0,0.0,-1.0,0.0,-2.0
1.6951603806696635e+18,-1.0,0.0,0.0,-2.0,-2.0,0.0,-1.0,-1.0
1.6951603806696635e+18,-2.0,1.0,0.0,-1.0,-2.0,-1.0,-2.0,-1.0
1.6951603806696635e+18,-1.0,-1.0,-1.0,-1.0,-2.0,-2.0,-1.0,0.0
1.6951603806806584e+18,0.0,-1.0,0.0,-2.0,-1.0,-2.0,0.0,1.0
1.695160380681676e+18,-1.0,0.0,0.0,1.0,-1.0,-1.0,1.0,1.0
1.695160380705642e+18,0.0,0.0,1.0,-2.0,-1.0,0.0,0.0,-1.0
1.695160380705642e+18,-2.0,-1.0,-1.0,0.0,0.0,2.0,-2.0,-2.0
1.695160380705642e+18,-2.0,-1.0,-1.0,0.0,-1.0,-1.0,-2.0,1.0
1.695160380706646e+18,-2.0,0.0,-1.0,-2.0,1.0,0.0,0.0,-1.0
1.6951603807076424e+18,-1.0,-1.0,-3.0,2.0,0.0,-1.0,0.0,-1.0
1.695160380708645e+18,0.0,0.0,-1.0,-2.0,-1.0,0.0,-1.0,-1.0
1.6951603807306294e+18,-2.0,-2.0,0.0,-1.0,-2.0,-2.0,0.0,-2.0
1.6951603807356275e+18,0.0,-1.0,0.0,-2.0,-2.0,-1.0,-1.0,-2.0
1.6951603807356275e+18,0.0,-1.0,-1.0,-1.0,0.0,0.0,-2.0,2.0
1.6951603807356275e+18,0.0,-1.0,-1.0,-1.0,2.0,0.0,-1.0,0.0
1.6951603807416225e+18,-2.0,1.0,-1.0,1.0,-1.0,0.0,-1.0,0.0
1.6951603807416225e+18,0.0,0.0,-2.0,0.0,0.0,0.0,-2.0,-1.0
1.6951603807496184e+18,1.0,0.0,-1.0,0.0,0.0,-2.0,-1.0,-1.0
1.6951603807496184e+18,-2.0,0.0,0.0,2.0,-1.0,-1.0,-1.0,-2.0
1.6951603807646085e+18,-1.0,1.0,-2.0,0.0,-2.0,-1.0,-1.0,0.0
1.6951603807646085e+18,0.0,-1.0,-1.0,0.0,-1.0,-1.0,-1.0,0.0
1.6951603807736266e+18,-2.0,-2.0,1.0,-1.0,0.0,1.0,0.0,1.0
1.6951603807736266e+18,-1.0,-1.0,-1.0,-1.0,0.0,0.0,-1.0,-1.0
1.695160380787595e+18,-1.0,-2.0,0.0,-2.0,1.0,-1.0,1.0,-2.0
1.695160380787595e+18,0.0,-2.0,-1.0,0.0,-1.0,-1.0,-2.0,0.0
1.6951603807885944e+18,0.0,-2.0,-2.0,0.0,0.0,0.0,0.0,-2.0
1.6951603807885944e+18,-1.0,0.0,-2.0,-1.0,-1.0,-1.0,0.0,0.0
1.6951603808025887e+18,-1.0,1.0,-1.0,-1.0,-1.0,-1.0,-1.0,0.0
1.6951603808076073e+18,0.0,-1.0,0.0,-1.0,0.0,-1.0,-2.0,-1.0
1.695160380809582e+18,-2.0,-1.0,0.0,-2.0,-1.0,0.0,-1.0,-1.0
1.695160380810582e+18,-1.0,-1.0,-2.0,-2.0,0.0,0.0,-1.0,-2.0
1.6951603808245734e+18,-1.0,-1.0,-1.0,0.0,-1.0,0.0,-1.0,-2.0
1.6951603808245734e+18,-3.0,0.0,-2.0,0.0,0.0,-2.0,-1.0,-1.0
1.6951603808305715e+18,0.0,-1.0,-2.0,0.0,-1.0,-1.0,-2.0,0.0
1.6951603808315697e+18,0.0,-2.0,0.0,0.0,0.0,-1.0,1.0,-1.0
1.6951603808472474e+18,0.0,0.0,-1.0,-2.0,-2.0,-2.0,-1.0,0.0
1.6951603808472474e+18,0.0,-2.0,-1.0,-2.0,-2.0,1.0,0.0,0.0
1.6951603808536952e+18,-1.0,-2.0,-1.0,-1.0,0.0,0.0,-1.0,-2.0
1.6951603808536952e+18,0.0,0.0,0.0,-1.0,0.0,0.0,-1.0,-1.0
1.6951603808694932e+18,1.0,0.0,0.0,0.0,1.0,-1.0,1.0,-1.0
1.695160380870493e+18,-2.0,-1.0,2.0,-1.0,-1.0,0.0,-2.0,0.0
1.6951603808714934e+18,-1.0,0.0,-1.0,-2.0,-1.0,0.0,0.0,1.0
1.6951603808714934e+18,0.0,-1.0,0.0,-1.0,0.0,-1.0,-1.0,-1.0
1.6951603808996613e+18,1.0,-1.0,-1.0,-1.0,-1.0,0.0,-1.0,-1.0
1.6951603809006623e+18,0.0,-1.0,-1.0,-1.0,-2.0,-1.0,-1.0,-1.0
1.695160380901635e+18,-1.0,-1.0,0.0,-1.0,-3.0,0.0,-1.0,0.0
1.695160380901635e+18,0.0,0.0,-1.0,-1.0,-2.0,-1.0,-3.0,0.0
1.6951603809075566e+18,-1.0,1.0,-2.0,-2.0,0.0,-1.0,0.0,-1.0
1.6951603809075566e+18,-1.0,-1.0,-2.0,0.0,-2.0,1.0,1.0,-1.0
1.695160380913661e+18,-2.0,-1.0,0.0,1.0,-1.0,-1.0,-2.0,-2.0
1.695160380913661e+18,-1.0,-2.0,1.0,-1.0,-2.0,-1.0,0.0,0.0
1.695160380921352e+18,-1.0,-1.0,-1.0,-1.0,-2.0,-2.0,-2.0,1.0
1.695160380921352e+18,0.0,-1.0,0.0,0.0,1.0,-2.0,-2.0,-2.0
1.695160380937721e+18,-2.0,-2.0,-1.0,-3.0,0.0,-2.0,0.0,-2.0
1.6951603809387164e+18,-1.0,-2.0,-2.0,-1.0,-1.0,0.0,0.0,1.0
1.6951603809522657e+18,-1.0,-1.0,0.0,1.0,-3.0,0.0,-1.0,-1.0
1.6951603809522657e+18,-1.0,1.0,-1.0,-1.0,-1.0,-3.0,-1.0,0.0
1.69516038095427e+18,0.0,0.0,0.0,1.0,-1.0,-2.0,-1.0,0.0
1.69516038095427e+18,-1.0,-1.0,0.0,-2.0,1.0,-1.0,-1.0,-1.0
1.6951603809676964e+18,-2.0,-2.0,-2.0,0.0,0.0,0.0,-1.0,0.0
1.695160380968672e+18,1.0,-1.0,0.0,-1.0,-1.0,2.0,-1.0,-1.0
1.69516038096967e+18,-1.0,0.0,-2.0,-1.0,-2.0,-2.0,0.0,0.0
1.69516038096967e+18,-1.0,0.0,-2.0,-1.0,-1.0,-2.0,-1.0,-1.0
1.695160380988742e+18,-1.0,-2.0,-1.0,-2.0,-2.0,-1.0,-1.0,-2.0
1.695160380989722e+18,-2.0,-1.0,-1.0,-1.0,0.0,0.0,-1.0,-1.0
1.695160380997718e+18,1.0,2.0,-1.0,-1.0,1.0,0.0,0.0,-1.0
1.695160380997718e+18,-1.0,-2.0,1.0,-2.0,-1.0,-2.0,0.0,-1.0
1.695160381022703e+18,-1.0,0.0,-1.0,-1.0,0.0,-1.0,-2.0,1.0
1.695160381022703e+18,0.0,0.0,-2.0,-1.0,0.0,-4.0,1.0,0.0
1.6951603810237023e+18,-2.0,-2.0,-1.0,-1.0,-1.0,-1.0,-1.0,0.0
1.6951603810237023e+18,-1.0,-2.0,-2.0,1.0,-2.0,0.0,0.0,-2.0
1.6951603810277002e+18,-2.0,-1.0,1.0,-1.0,-1.0,-3.0,-1.0,-1.0
1.6951603810277002e+18,-2.0,-1.0,-1.0,-2.0,-1.0,0.0,0.0,-2.0
1.6951603810287245e+18,0.0,-1.0,-2.0,0.0,-3.0,-1.0,-1.0,-1.0
1.6951603810297032e+18,0.0,-1.0,0.0,-1.0,-1.0,1.0,-2.0,-2.0
1.6951603810496878e+18,1.0,-1.0,-1.0,-1.0,0.0,-2.0,1.0,-1.0
1.695160381050687e+18,-1.0,-1.0,0.0,0.0,0.0,-1.0,-1.0,-1.0
1.6951603810516872e+18,-1.0,0.0,-1.0,-1.0,0.0,-1.0,-2.0,-1.0
1.695160381052688e+18,-2.0,0.0,1.0,0.0,-2.0,-1.0,-1.0,1.0
1.6951603810646817e+18,-1.0,-2.0,-2.0,3.0,-2.0,1.0,0.0,-3.0
1.695160381065678e+18,-1.0,-1.0,-4.0,-4.0,-2.0,-1.0,-1.0,-1.0
1.6951603810666844e+18,-2.0,-1.0,-1.0,0.0,0.0,0.0,0.0,-2.0
1.6951603810666844e+18,-1.0,0.0,-1.0,-1.0,-1.0,-3.0,0.0,0.0
1.695160381087666e+18,0.0,-1.0,1.0,0.0,1.0,-2.0,-1.0,0.0
1.695160381087666e+18,0.0,-1.0,1.0,-1.0,1.0,0.0,-2.0,0.0
1.695160381089665e+18,0.0,-1.0,-2.0,-1.0,-1.0,-1.0,-4.0,-1.0
1.695160381089665e+18,0.0,0.0,-3.0,-1.0,-1.0,-1.0,0.0,-1.0
1.6951603811116513e+18,0.0,0.0,0.0,-2.0,-2.0,0.0,0.0,-1.0
1.6951603811116513e+18,-3.0,-2.0,-1.0,0.0,-2.0,-1.0,0.0,0.0
1.695160381116676e+18,0.0,-2.0,-1.0,-2.0,0.0,0.0,0.0,0.0
1.695160381122646e+18,-1.0,1.0,0.0,1.0,0.0,-1.0,-2.0,-2.0
1.695160381123651e+18,0.0,-1.0,-2.0,-1.0,-1.0,-1.0,-2.0,-1.0
1.695160381124671e+18,0.0,-1.0,2.0,-1.0,0.0,1.0,2.0,-1.0
1.6951603811336466e+18,-1.0,-1.0,-2.0,-1.0,-2.0,0.0,-1.0,0.0
1.6951603811336466e+18,0.0,-3.0,-1.0,0.0,-1.0,-2.0,0.0,2.0
1.6951603811476352e+18,-1.0,-1.0,-1.0,-3.0,-1.0,1.0,-1.0,1.0
1.6951603811486308e+18,0.0,-3.0,-2.0,-1.0,0.0,-1.0,0.0,0.0
1.6951603811496394e+18,-1.0,-1.0,1.0,-1.0,-1.0,0.0,1.0,-1.0
1.6951603811496394e+18,0.0,-1.0,-1.0,0.0,0.0,0.0,-1.0,-2.0
1.6951603811696182e+18,-2.0,1.0,-2.0,0.0,0.0,0.0,1.0,2.0
1.6951603811706173e+18,-1.0,1.0,-1.0,-1.0,-1.0,-2.0,-1.0,0.0
1.695160381171618e+18,-1.0,0.0,-1.0,0.0,-1.0,-1.0,-1.0,1.0
1.6951603811726216e+18,0.0,-2.0,-1.0,-3.0,0.0,-2.0,0.0,-1.0
1.6951603811986056e+18,-2.0,-1.0,-2.0,-3.0,0.0,1.0,-1.0,-1.0
1.6951603811996032e+18,-1.0,1.0,-1.0,1.0,-1.0,0.0,0.0,-1.0
1.6951603812006019e+18,0.0,-2.0,-1.0,0.0,-1.0,-1.0,1.0,-2.0
1.6951603812006019e+18,0.0,1.0,0.0,-2.0,-2.0,-1.0,-2.0,-1.0
1.6951603812146176e+18,0.0,-1.0,0.0,0.0,-2.0,-2.0,-2.0,-3.0
1.6951603812155927e+18,-2.0,-3.0,-2.0,-1.0,-3.0,-3.0,-3.0,-3.0
1.6951603812165921e+18,-3.0,-2.0,-2.0,-3.0,-3.0,-2.0,-2.0,-3.0
1.6951603812175913e+18,-2.0,-2.0,-3.0,-2.0,-2.0,-2.0,-1.0,0.0
1.6951603812425807e+18,-1.0,-3.0,-3.0,-1.0,-2.0,0.0,-1.0,1.0
1.6951603812425807e+18,-2.0,-3.0,-4.0,0.0,-1.0,-1.0,-2.0,-1.0
1.6951603812435763e+18,0.0,1.0,-1.0,-2.0,-1.0,-1.0,-2.0,-1.0
1.6951603812445765e+18,-1.0,-2.0,-4.0,0.0,0.0,0.0,-1.0,-1.0
1.6951603812455764e+18,-3.0,-1.0,0.0,0.0,-1.0,-1.0,-2.0,-2.0
1.6951603812455764e+18,-2.0,-2.0,-1.0,0.0,0.0,-1.0,-1.0,-1.0
1.6951603812505943e+18,-1.0,-1.0,-2.0,0.0,-1.0,-2.0,-1.0,0.0
1.6951603812515743e+18,0.0,-1.0,0.0,-2.0,1.0,-1.0,-2.0,-1.0
1.6951603812745587e+18,-1.0,-2.0,-2.0,-1.0,1.0,-1.0,-1.0,-1.0
1.6951603812755592e+18,1.0,0.0,-2.0,-1.0,0.0,-1.0,-1.0,-1.0
1.6951603812765596e+18,0.0,1.0,0.0,-1.0,1.0,0.0,-1.0,0.0
1.6951603812765596e+18,-1.0,0.0,0.0,-1.0,-2.0,-1.0,-2.0,-1.0
1.6951603812895726e+18,-2.0,-1.0,-1.0,0.0,-1.0,-2.0,-1.0,-1.0
1.6951603812895726e+18,0.0,-2.0,-1.0,-1.0,-1.0,1.0,-1.0,0.0
1.6951603812915474e+18,-1.0,-1.0,-2.0,-1.0,0.0,-2.0,0.0,-1.0
1.6951603812915474e+18,-2.0,-2.0,1.0,-1.0,-1.0,0.0,1.0,-1.0
1.6951603813045407e+18,-1.0,0.0,-1.0,1.0,1.0,-3.0,0.0,-1.0
1.6951603813045407e+18,-2.0,-1.0,0.0,-1.0,-3.0,-2.0,0.0,1.0
1.6951603813115412e+18,1.0,-1.0,-2.0,-1.0,1.0,0.0,1.0,0.0
1.6951603813115412e+18,-1.0,0.0,1.0,-1.0,0.0,1.0,-1.0,-3.0
1.6951603813275282e+18,2.0,0.0,-1.0,0.0,1.0,1.0,-1.0,-1.0
1.6951603813275282e+18,1.0,-2.0,0.0,1.0,0.0,1.0,0.0,-2.0
1.6951603813285284e+18,-1.0,-2.0,-1.0,0.0,-1.0,-1.0,-1.0,-2.0
1.6951603813295283e+18,0.0,-1.0,0.0,0.0,2.0,1.0,2.0,1.0
1.69516038135751e+18,0.0,0.0,-1.0,-1.0,-1.0,-2.0,-1.0,-2.0
1.69516038135751e+18,-1.0,-1.0,0.0,-1.0,-1.0,0.0,-3.0,-2.0
1.6951603813585106e+18,-3.0,-3.0,-2.0,-3.0,-3.0,-1.0,-3.0,-4.0
1.6951603813595113e+18,-1.0,-1.0,-2.0,0.0,5.0,3.0,3.0,1.0
1.6951603813695068e+18,-2.0,0.0,0.0,2.0,-2.0,0.0,-1.0,0.0
1.6951603813695068e+18,1.0,0.0,0.0,2.0,2.0,3.0,1.0,1.0
1.695160381371503e+18,0.0,-1.0,-1.0,1.0,-1.0,-2.0,-3.0,-1.0
1.695160381372502e+18,1.0,-1.0,-4.0,-3.0,-6.0,-4.0,-4.0,-2.0
1.6951603813877317e+18,-1.0,-2.0,-1.0,-1.0,0.0,0.0,0.0,0.0
1.6951603813877317e+18,-1.0,1.0,-1.0,-3.0,-5.0,-3.0,-2.0,-3.0
1.695160381388734e+18,0.0,-1.0,1.0,-1.0,1.0,1.0,2.0,2.0
1.695160381388734e+18,-1.0,-1.0,-1.0,-1.0,-2.0,-2.0,-1.0,0.0
1.6951603814147185e+18,-1.0,-2.0,-1.0,-4.0,-2.0,-3.0,-2.0,-1.0
1.6951603814157176e+18,-1.0,-1.0,-2.0,-1.0,-2.0,-2.0,-1.0,-1.0
1.695160381416718e+18,1.0,1.0,1.0,2.0,-1.0,-2.0,1.0,1.0
1.695160381416718e+18,-3.0,-1.0,0.0,-1.0,3.0,-1.0,-1.0,0.0
1.6951603814237455e+18,-1.0,-1.0,-1.0,0.0,0.0,0.0,3.0,2.0
1.6951603814237455e+18,-1.0,0.0,-1.0,-1.0,-1.0,-1.0,-2.0,0.0
1.6951603814319657e+18,-1.0,-3.0,-3.0,-6.0,-2.0,-1.0,0.0,-1.0
1.6951603814329723e+18,0.0,1.0,2.0,3.0,-3.0,-1.0,-1.0,0.0
1.6951603814473372e+18,-2.0,-4.0,-4.0,-6.0,-2.0,0.0,-2.0,-2.0
1.6951603814473372e+18,-2.0,-2.0,-4.0,-4.0,-1.0,-3.0,-1.0,0.0
1.6951603814493297e+18,-1.0,-4.0,-3.0,-2.0,-3.0,-2.0,-2.0,-1.0
1.6951603814493297e+18,1.0,0.0,-2.0,-1.0,-2.0,-1.0,-1.0,-1.0
1.6951603814706358e+18,0.0,-2.0,0.0,-1.0,0.0,0.0,-2.0,-1.0
1.695160381471634e+18,1.0,1.0,1.0,3.0,3.0,1.0,4.0,0.0
1.695160381471634e+18,0.0,1.0,2.0,2.0,1.0,1.0,-2.0,-2.0
1.6951603814726326e+18,-3.0,-4.0,-4.0,-4.0,-2.0,-2.0,5.0,-1.0
1.695160381483675e+18,-2.0,1.0,0.0,-5.0,-2.0,-1.0,-4.0,-1.0
1.6951603814846776e+18,-1.0,-1.0,-3.0,-3.0,-4.0,-2.0,6.0,1.0
1.6951603814926692e+18,-2.0,0.0,0.0,-1.0,0.0,0.0,-3.0,-1.0
1.6951603814926692e+18,-1.0,-3.0,-2.0,4.0,0.0,1.0,0.0,0.0
1.6951603815156564e+18,0.0,1.0,2.0,-1.0,-2.0,-1.0,-3.0,-2.0
1.6951603815156564e+18,-1.0,0.0,2.0,2.0,3.0,-2.0,-7.0,1.0
1.6951603815166564e+18,-3.0,-7.0,-10.0,-9.0,-4.0,-4.0,-2.0,-2.0
1.6951603815176591e+18,0.0,1.0,3.0,-1.0,-3.0,0.0,-1.0,1.0
1.6951603815476393e+18,-1.0,-3.0,0.0,1.0,0.0,0.0,2.0,0.0
1.695160381548638e+18,-1.0,0.0,3.0,2.0,1.0,-1.0,-2.0,-2.0
1.6951603815496374e+18,0.0,0.0,2.0,0.0,-3.0,-3.0,-1.0,-1.0
1.6951603815506368e+18,-1.0,0.0,0.0,-2.0,-1.0,0.0,-5.0,-2.0
1.695160381553637e+18,1.0,3.0,1.0,6.0,0.0,-1.0,-1.0,-1.0
1.695160381553637e+18,-1.0,0.0,1.0,-1.0,-2.0,-1.0,-1.0,-1.0
1.695160381554635e+18,3.0,12.0,7.0,4.0,5.0,4.0,7.0,4.0
1.6951603815556355e+18,-6.0,-17.0,-12.0,-11.0,-4.0,-4.0,-4.0,-4.0
1.6951603815676268e+18,1.0,5.0,2.0,7.0,1.0,1.0,3.0,1.0
1.6951603815676268e+18,-3.0,-9.0,-4.0,-3.0,1.0,-1.0,-1.0,-3.0
1.6951603815686292e+18,-1.0,-2.0,-3.0,4.0,-3.0,-1.0,0.0,0.0
1.6951603815696256e+18,4.0,9.0,-3.0,-4.0,0.0,-2.0,-4.0,1.0
1.6951603815986092e+18,-2.0,-1.0,3.0,4.0,-3.0,-3.0,-5.0,-2.0
1.6951603815986092e+18,-1.0,-4.0,-6.0,-3.0,3.0,2.0,3.0,1.0
1.695160381599611e+18,-1.0,-4.0,-8.0,-5.0,-3.0,-5.0,-11.0,-3.0
1.695160381599611e+18,2.0,1.0,11.0,8.0,0.0,4.0,12.0,0.0
1.6951603816036058e+18,-1.0,-5.0,-10.0,-13.0,-4.0,-4.0,-5.0,-4.0
1.6951603816036058e+18,2.0,7.0,5.0,6.0,-1.0,1.0,1.0,1.0
1.6951603816235968e+18,-3.0,-12.0,1.0,-8.0,-1.0,-1.0,-5.0,-4.0
1.6951603816245993e+18,-1.0,1.0,8.0,24.0,7.0,3.0,1.0,0.0
1.6951603816285926e+18,0.0,2.0,-7.0,-14.0,-5.0,-9.0,-10.0,-4.0
1.6951603816285926e+18,-5.0,-10.0,-1.0,5.0,1.0,3.0,-1.0,-2.0
1.6951603816295916e+18,4.0,7.0,-4.0,2.0,7.0,9.0,8.0,5.0
1.6951603816295916e+18,-6.0,-10.0,-5.0,-11.0,-10.0,-9.0,-13.0,-6.0
1.69516038166557e+18,3.0,3.0,6.0,6.0,2.0,3.0,7.0,2.0
1.69516038166557e+18,-7.0,-23.0,-15.0,1.0,-1.0,-7.0,-6.0,-5.0
1.69516038166757e+18,2.0,8.0,-2.0,-3.0,0.0,0.0,0.0,1.0
1.69516038166757e+18,-3.0,-2.0,-4.0,-11.0,-7.0,-4.0,-7.0,-2.0
1.69516038166757e+18,1.0,2.0,-3.0,-1.0,3.0,7.0,14.0,4.0
1.6951603816685704e+18,1.0,3.0,4.0,-4.0,-5.0,-7.0,-11.0,-4.0
1.695160381695554e+18,-4.0,-10.0,6.0,5.0,-1.0,5.0,5.0,1.0
1.69516038169656e+18,1.0,1.0,7.0,11.0,5.0,0.0,1.0,0.0
1.6951603816975578e+18,-1.0,-2.0,-8.0,-7.0,-3.0,-4.0,-7.0,-1.0
1.6951603816975578e+18,6.0,15.0,8.0,9.0,5.0,9.0,10.0,5.0
1.6951603816975578e+18,-3.0,-5.0,-3.0,-3.0,-2.0,-4.0,-4.0,-4.0
1.6951603816985595e+18,2.0,4.0,-5.0,-8.0,1.0,0.0,-1.0,2.0
1.6951603817095703e+18,-4.0,-3.0,4.0,0.0,-2.0,-4.0,-7.0,-2.0
1.6951603817105487e+18,1.0,2.0,-2.0,-7.0,-2.0,1.0,-1.0,0.0
1.6951603817115446e+18,-2.0,-3.0,10.0,10.0,3.0,2.0,1.0,0.0
1.6951603817125445e+18,0.0,-2.0,-13.0,-10.0,-6.0,-1.0,3.0,-1.0
1.6951603817235415e+18,-3.0,0.0,-2.0,-2.0,-1.0,-3.0,-7.0,-3.0
1.6951603817235415e+18,-1.0,-1.0,4.0,-4.0,-6.0,-5.0,-2.0,-3.0
1.6951603817325317e+18,-1.0,-3.0,-6.0,-6.0,-2.0,-1.0,0.0,-1.0
1.6951603817335345e+18,-4.0,-7.0,6.0,1.0,0.0,-5.0,-4.0,-4.0
1.6951603817465526e+18,3.0,3.0,9.0,11.0,6.0,5.0,4.0,1.0
1.6951603817475287e+18,3.0,11.0,-12.0,-16.0,-5.0,-4.0,-3.0,0.0
1.6951603817565204e+18,-1.0,-5.0,10.0,18.0,12.0,2.0,1.0,1.0
1.6951603817575186e+18,-3.0,-4.0,-3.0,-6.0,-4.0,2.0,0.0,0.0
1.695160381778511e+18,1.0,-3.0,-1.0,1.0,0.0,-1.0,-2.0,6.0
1.6951603817795108e+18,-6.0,-4.0,3.0,3.0,4.0,5.0,3.0,-9.0
1.6951603817805048e+18,-3.0,2.0,-10.0,-12.0,-3.0,0.0,-2.0,-3.0
1.6951603817805048e+18,2.0,-1.0,0.0,2.0,-1.0,-1.0,-4.0,0.0
1.6951603817924995e+18,1.0,0.0,-2.0,-3.0,0.0,2.0,6.0,1.0
1.6951603817935017e+18,3.0,11.0,13.0,5.0,0.0,3.0,6.0,4.0
1.6951603817945052e+18,-4.0,-7.0,-12.0,-4.0,-5.0,-8.0,-9.0,-3.0
1.6951603817945052e+18,3.0,12.0,-1.0,1.0,3.0,9.0,14.0,2.0
1.6951603818064888e+18,-1.0,-2.0,-1.0,0.0,-3.0,0.0,0.0,-4.0
1.6951603818074893e+18,-2.0,-8.0,4.0,3.0,1.0,-3.0,-4.0,0.0
1.695160381813503e+18,0.0,2.0,-3.0,-12.0,-9.0,-6.0,0.0,-3.0
1.6951603818144845e+18,0.0,-6.0,-8.0,-3.0,-1.0,-5.0,-7.0,0.0
1.695160381830479e+18,-6.0,-1.0,1.0,2.0,0.0,2.0,4.0,1.0
1.695160381830479e+18,6.0,-5.0,-6.0,-5.0,-4.0,-2.0,-3.0,-1.0
1.695160381831476e+18,-1.0,2.0,9.0,9.0,2.0,-6.0,-6.0,-4.0
1.695160381831476e+18,4.0,0.0,-3.0,-5.0,1.0,9.0,13.0,5.0
1.6951603818534623e+18,-5.0,-1.0,1.0,-1.0,-3.0,-7.0,-15.0,-7.0
1.6951603818544622e+18,-2.0,-6.0,-3.0,-3.0,0.0,0.0,-3.0,2.0
1.6951603818544622e+18,3.0,3.0,-2.0,-2.0,-3.0,3.0,4.0,-1.0
1.6951603818594647e+18,4.0,3.0,4.0,4.0,-1.0,-9.0,-10.0,1.0
1.6951603818664553e+18,-1.0,-3.0,-5.0,-2.0,1.0,14.0,16.0,1.0
1.6951603818674547e+18,-5.0,-1.0,-7.0,-9.0,-7.0,-9.0,-11.0,0.0
1.69516038187545e+18,4.0,7.0,12.0,8.0,0.0,6.0,17.0,1.0
1.69516038187545e+18,-2.0,2.0,3.0,-1.0,7.0,3.0,-2.0,-2.0
1.6951603818974405e+18,-3.0,-8.0,-23.0,-11.0,-9.0,-18.0,-6.0,-4.0
1.6951603818974405e+18,5.0,5.0,-5.0,2.0,-2.0,3.0,1.0,2.0
1.6951603818994363e+18,-3.0,0.0,2.0,1.0,-4.0,10.0,6.0,1.0
1.6951603818994363e+18,-7.0,-1.0,6.0,0.0,-3.0,-14.0,-8.0,-9.0
1.6951603819204252e+18,4.0,-1.0,-1.0,-5.0,1.0,6.0,2.0,0.0
1.695160381921425e+18,-4.0,-2.0,0.0,-1.0,2.0,3.0,-4.0,0.0
1.6951603819234232e+18,-4.0,-7.0,6.0,4.0,1.0,-8.0,-7.0,0.0
1.6951603819234232e+18,-3.0,-4.0,-17.0,-9.0,-11.0,7.0,15.0,1.0
1.695160381926425e+18,3.0,1.0,15.0,1.0,-5.0,-14.0,-11.0,-6.0
1.695160381926425e+18,-5.0,-6.0,-22.0,-2.0,10.0,-8.0,-1.0,-4.0
1.6951603819374164e+18,-1.0,0.0,2.0,5.0,-5.0,-6.0,3.0,-1.0
1.6951603819424369e+18,6.0,4.0,1.0,-3.0,10.0,29.0,15.0,12.0
1.695160381966399e+18,2.0,-1.0,19.0,12.0,9.0,1.0,12.0,3.0
1.6951603819673987e+18,-1.0,-1.0,2.0,7.0,12.0,41.0,14.0,4.0
1.6951603819673987e+18,-1.0,0.0,-23.0,-21.0,-5.0,-23.0,-19.0,-6.0
1.6951603819684024e+18,1.0,3.0,36.0,24.0,-16.0,-25.0,-20.0,-8.0
1.695160381980391e+18,-3.0,-2.0,-3.0,-5.0,0.0,17.0,-8.0,-3.0
1.695160381980391e+18,2.0,-1.0,-15.0,-8.0,8.0,-8.0,8.0,5.0
1.6951603819823923e+18,0.0,-3.0,0.0,11.0,7.0,-2.0,0.0,3.0
1.6951603819823923e+18,-5.0,-6.0,-39.0,-27.0,-12.0,-6.0,-9.0,-2.0
1.6951603819953818e+18,4.0,7.0,5.0,2.0,10.0,8.0,8.0,6.0
1.6951603819953818e+18,1.0,0.0,5.0,3.0,-10.0,-17.0,-6.0,-4.0
1.6951603819963814e+18,-13.0,-8.0,-18.0,-34.0,-13.0,1.0,-23.0,-18.0
1.6951603819973806e+18,1.0,-2.0,22.0,27.0,9.0,3.0,22.0,10.0
1.695160382025365e+18,1.0,-1.0,11.0,-4.0,-15.0,-6.0,1.0,1.0
1.695160382025365e+18,4.0,8.0,19.0,20.0,18.0,11.0,10.0,4.0
1.695160382026364e+18,-4.0,-5.0,-28.0,-9.0,-6.0,-4.0,-10.0,-2.0
1.695160382026364e+18,0.0,1.0,11.0,-4.0,5.0,1.0,-3.0,-4.0
1.6951603820563464e+18,-6.0,-5.0,5.0,2.0,-2.0,-4.0,-5.0,-6.0
1.695160382057346e+18,3.0,-1.0,-1.0,8.0,-17.0,-14.0,-21.0,-12.0
1.6951603820583455e+18,-2.0,-2.0,-4.0,-6.0,-9.0,7.0,28.0,15.0
1.6951603820583455e+18,-5.0,-8.0,-35.0,-11.0,20.0,5.0,-3.0,1.0
1.6951603820583455e+18,-3.0,-10.0,-22.0,-20.0,-6.0,-7.0,1.0,1.0
1.695160382059349e+18,-3.0,2.0,16.0,1.0,-17.0,-8.0,-3.0,-3.0
1.6951603820633482e+18,5.0,7.0,23.0,30.0,6.0,0.0,-6.0,-5.0
1.6951603820633482e+18,0.0,2.0,3.0,-8.0,-7.0,-6.0,-14.0,-6.0
1.69516038209433e+18,-1.0,1.0,-6.0,9.0,11.0,10.0,16.0,6.0
1.6951603821063183e+18,-3.0,-5.0,-25.0,-24.0,-6.0,-13.0,-22.0,-9.0
1.6951603821063183e+18,4.0,4.0,25.0,19.0,5.0,10.0,29.0,10.0
1.6951603821063183e+18,-3.0,2.0,14.0,6.0,-13.0,-4.0,-2.0,-7.0
1.6951603821073231e+18,-2.0,1.0,-1.0,-2.0,-4.0,-4.0,-7.0,0.0
1.6951603821083174e+18,-2.0,0.0,11.0,4.0,6.0,1.0,1.0,-1.0
1.6951603821083174e+18,4.0,5.0,3.0,10.0,13.0,7.0,-2.0,3.0
1.695160382109322e+18,-1.0,-3.0,-11.0,-16.0,-13.0,-6.0,-5.0,-3.0
1.695160382109322e+18,-1.0,1.0,2.0,15.0,0.0,-6.0,-6.0,-4.0
1.6951603821103155e+18,-3.0,0.0,11.0,16.0,12.0,6.0,9.0,5.0
1.695160382115339e+18,-1.0,-3.0,-32.0,-32.0,-10.0,4.0,-1.0,-2.0
1.695160382115339e+18,-2.0,0.0,-11.0,-13.0,-1.0,-6.0,2.0,-2.0
1.6951603821293053e+18,0.0,-1.0,16.0,8.0,-1.0,-5.0,-5.0,-1.0
1.6951603821303053e+18,0.0,-2.0,-31.0,-23.0,-13.0,-8.0,-6.0,0.0
1.695160382138301e+18,4.0,4.0,25.0,16.0,15.0,13.0,25.0,5.0
1.695160382138301e+18,1.0,1.0,-7.0,13.0,-1.0,1.0,2.0,0.0
1.69516038215229e+18,-1.0,-5.0,-5.0,-31.0,-8.0,-7.0,-17.0,-2.0
1.6951603821532908e+18,0.0,-1.0,12.0,21.0,1.0,-2.0,12.0,0.0
1.6951603821542907e+18,0.0,-1.0,-2.0,-10.0,-2.0,-3.0,-15.0,-3.0
1.6951603821542907e+18,-1.0,1.0,7.0,15.0,3.0,3.0,11.0,0.0
1.6951603821702838e+18,-1.0,-1.0,-13.0,-19.0,-2.0,0.0,-1.0,-2.0
1.6951603821812813e+18,-3.0,0.0,30.0,50.0,0.0,0.0,-1.0,-3.0
1.6951603821822812e+18,-1.0,-6.0,-33.0,-64.0,-13.0,-13.0,-18.0,-8.0
1.6951603821822812e+18,1.0,-1.0,20.0,23.0,4.0,4.0,0.0,2.0
1.69516038219027e+18,-3.0,0.0,-6.0,9.0,-1.0,1.0,-4.0,-2.0
1.6951603821912694e+18,-1.0,-3.0,-17.0,-43.0,-10.0,-1.0,-2.0,1.0
1.6951603821912694e+18,1.0,4.0,33.0,65.0,9.0,-1.0,8.0,0.0
1.6951603821922683e+18,-3.0,-14.0,-15.0,-27.0,-5.0,-3.0,-13.0,-3.0
1.6951603822202522e+18,-2.0,-5.0,-15.0,1.0,2.0,0.0,8.0,-3.0
1.6951603822212557e+18,0.0,-1.0,6.0,-13.0,-2.0,-1.0,1.0,-1.0
1.6951603822222515e+18,-2.0,-4.0,-15.0,-3.0,-7.0,-6.0,-12.0,-4.0
1.6951603822222515e+18,2.0,11.0,-1.0,-21.0,-1.0,1.0,2.0,1.0
1.6951603822352438e+18,1.0,-1.0,9.0,15.0,0.0,3.0,3.0,3.0
1.6951603822352438e+18,-1.0,0.0,7.0,-1.0,-1.0,0.0,0.0,1.0
1.695160382236244e+18,-4.0,-6.0,-11.0,14.0,2.0,-2.0,-1.0,1.0
1.695160382237248e+18,-1.0,-3.0,-13.0,-21.0,-6.0,-6.0,-7.0,-2.0
1.6951603822592307e+18,0.0,1.0,10.0,16.0,0.0,-6.0,-10.0,-4.0
1.6951603822612303e+18,-1.0,2.0,1.0,13.0,1.0,1.0,3.0,-1.0
1.6951603822622308e+18,-1.0,-4.0,8.0,-1.0,0.0,3.0,4.0,2.0
1.6951603822622308e+18,0.0,3.0,-5.0,3.0,1.0,2.0,2.0,0.0
1.6951603822802168e+18,-1.0,-2.0,5.0,9.0,5.0,8.0,7.0,1.0
1.6951603822802168e+18,2.0,1.0,-9.0,-21.0,-2.0,2.0,5.0,2.0
1.6951603822812408e+18,1.0,2.0,10.0,15.0,0.0,-5.0,-11.0,-2.0
1.6951603822812408e+18,-2.0,-1.0,-5.0,-11.0,-7.0,-4.0,-8.0,-4.0
1.6951603822952087e+18,0.0,2.0,2.0,0.0,-1.0,-5.0,-8.0,-5.0
1.6951603822952087e+18,-1.0,0.0,-11.0,-9.0,0.0,2.0,-3.0,0.0
1.69516038229823e+18,0.0,3.0,-7.0,-25.0,-3.0,-8.0,-6.0,-3.0
1.6951603823052196e+18,-4.0,-2.0,15.0,48.0,6.0,7.0,7.0,3.0
1.6951603823251937e+18,-4.0,-7.0,-35.0,-53.0,-7.0,1.0,-1.0,-1.0
1.6951603823251937e+18,-1.0,-1.0,2.0,1.0,-4.0,-4.0,0.0,-1.0
1.6951603823262144e+18,-1.0,1.0,-1.0,-19.0,-3.0,1.0,1.0,-2.0
1.6951603823262144e+18,0.0,2.0,4.0,7.0,3.0,-12.0,-9.0,-2.0
1.695160382340183e+18,1.0,0.0,3.0,10.0,4.0,5.0,-1.0,0.0
1.695160382340183e+18,1.0,-1.0,1.0,-1.0,0.0,14.0,23.0,5.0
1.695160382341183e+18,-2.0,-4.0,-3.0,-7.0,-2.0,-1.0,1.0,-2.0
1.695160382341183e+18,-3.0,-5.0,-2.0,4.0,-5.0,-11.0,-19.0,-8.0
1.695160382346179e+18,-3.0,-1.0,3.0,1.0,2.0,0.0,0.0,2.0
1.695160382346179e+18,-1.0,-5.0,-2.0,-7.0,-4.0,-7.0,-11.0,-3.0
1.6951603823551744e+18,1.0,0.0,2.0,4.0,0.0,3.0,1.0,-1.0
1.6951603823561738e+18,1.0,1.0,-1.0,-10.0,2.0,3.0,7.0,-1.0
1.6951603823741635e+18,0.0,1.0,4.0,5.0,-1.0,-7.0,-15.0,-6.0
1.6951603823741635e+18,1.0,1.0,-5.0,1.0,3.0,-2.0,2.0,4.0
1.6951603823741635e+18,-1.0,-1.0,4.0,10.0,-1.0,-2.0,0.0,-1.0
1.6951603823741635e+18,0.0,0.0,-3.0,-12.0,3.0,2.0,-4.0,-2.0
1.6951603823921546e+18,-3.0,0.0,2.0,9.0,-1.0,2.0,5.0,-4.0
1.6951603823921546e+18,-2.0,-2.0,-4.0,-4.0,-1.0,-3.0,-5.0,0.0
1.6951603823941522e+18,1.0,3.0,-4.0,-5.0,0.0,0.0,5.0,2.0
1.6951603823941522e+18,1.0,2.0,2.0,3.0,0.0,-2.0,1.0,-2.0
1.6951603824081477e+18,4.0,5.0,0.0,3.0,6.0,18.0,29.0,8.0
1.6951603824091433e+18,-3.0,-1.0,4.0,1.0,2.0,-1.0,-2.0,-2.0
1.695160382431131e+18,-2.0,-3.0,0.0,3.0,-7.0,-3.0,-9.0,-1.0
1.6951603824321298e+18,0.0,-1.0,5.0,14.0,12.0,3.0,3.0,2.0
1.6951603824321298e+18,1.0,0.0,0.0,8.0,-1.0,-5.0,-6.0,-2.0
1.6951603824331343e+18,-1.0,-3.0,-1.0,-7.0,2.0,-3.0,-8.0,-5.0
1.6951603824361275e+18,1.0,1.0,-8.0,-7.0,5.0,5.0,6.0,0.0
1.6951603824361275e+18,-2.0,-4.0,-3.0,-6.0,-10.0,-2.0,0.0,0.0
1.6951603824521423e+18,0.0,2.0,1.0,-3.0,-3.0,-6.0,-3.0,2.0
1.6951603824521423e+18,-1.0,-3.0,-10.0,7.0,-3.0,0.0,2.0,-1.0
1.695160382454122e+18,-2.0,-3.0,3.0,-3.0,-3.0,-1.0,-7.0,0.0
1.695160382454122e+18,0.0,0.0,-3.0,-12.0,1.0,2.0,3.0,-1.0
1.69516038246611e+18,-1.0,-5.0,1.0,6.0,-2.0,-4.0,-2.0,0.0
1.69516038246611e+18,-2.0,-3.0,-5.0,5.0,-4.0,-2.0,-4.0,-3.0
1.6951603824751055e+18,-1.0,1.0,10.0,12.0,2.0,1.0,-1.0,-1.0
1.6951603824801037e+18,0.0,1.0,-1.0,-6.0,1.0,2.0,1.0,2.0
1.6951603824970944e+18,0.0,2.0,4.0,6.0,-3.0,-3.0,0.0,0.0
1.6951603824980933e+18,0.0,3.0,0.0,0.0,1.0,-2.0,-3.0,-2.0
1.6951603824990922e+18,0.0,1.0,-6.0,-16.0,-1.0,0.0,0.0,-1.0
1.6951603824990922e+18,-3.0,-5.0,3.0,24.0,1.0,2.0,3.0,-3.0
1.695160382522081e+18,-1.0,1.0,3.0,-7.0,-5.0,-5.0,-3.0,-3.0
1.695160382522081e+18,-1.0,0.0,3.0,8.0,10.0,0.0,0.0,0.0
1.695160382522081e+18,0.0,0.0,-1.0,-5.0,-3.0,-2.0,-3.0,1.0
1.6951603825230784e+18,1.0,1.0,-10.0,-17.0,-3.0,2.0,2.0,1.0
1.6951603825260767e+18,-2.0,-2.0,-2.0,7.0,2.0,-1.0,-4.0,-1.0
1.6951603825260767e+18,0.0,-3.0,0.0,-5.0,-5.0,-2.0,-3.0,-1.0
1.6951603825430664e+18,0.0,-2.0,-2.0,1.0,0.0,1.0,2.0,0.0
1.6951603825430664e+18,-1.0,1.0,3.0,2.0,2.0,-1.0,0.0,0.0
1.6951603825570614e+18,-2.0,-2.0,-6.0,-7.0,-4.0,-2.0,-1.0,-1.0
1.6951603825580636e+18,-2.0,-2.0,-4.0,-8.0,-4.0,1.0,-1.0,0.0
1.6951603825590577e+18,-2.0,-1.0,4.0,6.0,2.0,-1.0,-2.0,-1.0
1.6951603825590577e+18,0.0,-2.0,0.0,0.0,-3.0,-1.0,0.0,0.0
1.6951603825797307e+18,0.0,-2.0,-2.0,-2.0,1.0,-1.0,-1.0,0.0
1.6951603825797307e+18,0.0,0.0,2.0,-4.0,-2.0,0.0,-1.0,-1.0
1.6951603825866875e+18,-1.0,1.0,0.0,1.0,-1.0,0.0,1.0,-2.0
1.6951603825876923e+18,1.0,-1.0,0.0,-4.0,-2.0,-3.0,-2.0,-1.0
1.6951603825876923e+18,0.0,-3.0,-10.0,-7.0,-2.0,-2.0,-1.0,0.0
1.6951603825886907e+18,0.0,0.0,4.0,4.0,1.0,0.0,-2.0,0.0
1.6951603826026824e+18,1.0,0.0,-1.0,3.0,0.0,-3.0,-2.0,0.0
1.6951603826036826e+18,-1.0,1.0,0.0,-3.0,0.0,2.0,2.0,-1.0
1.6951603826247383e+18,-1.0,0.0,4.0,-2.0,-4.0,0.0,0.0,-1.0
1.6951603826247383e+18,-1.0,2.0,-4.0,-5.0,-6.0,-4.0,-2.0,0.0
1.6951603826267407e+18,0.0,-1.0,-3.0,0.0,0.0,1.0,-3.0,-1.0
1.6951603826267407e+18,0.0,-1.0,3.0,6.0,4.0,2.0,2.0,0.0
1.6951603826477586e+18,-1.0,-2.0,-3.0,-6.0,0.0,0.0,-1.0,-1.0
1.6951603826477586e+18,-2.0,-1.0,-1.0,0.0,0.0,0.0,0.0,0.0
1.6951603826497262e+18,-1.0,-2.0,0.0,-2.0,-4.0,-1.0,1.0,-1.0
1.6951603826497262e+18,-1.0,-2.0,-6.0,-11.0,-1.0,-2.0,-2.0,-3.0
1.6951603826507264e+18,-2.0,-1.0,4.0,15.0,5.0,2.0,-2.0,0.0
1.6951603826507264e+18,-1.0,-1.0,-4.0,-9.0,-2.0,-1.0,-1.0,-2.0
1.695160382654723e+18,1.0,-1.0,1.0,2.0,1.0,0.0,1.0,-1.0
1.695160382655723e+18,0.0,-1.0,-3.0,-3.0,-2.0,-1.0,1.0,1.0
1.695160382684676e+18,0.0,0.0,-3.0,-6.0,-3.0,-3.0,-1.0,-1.0
1.6951603826856842e+18,2.0,-1.0,0.0,2.0,-2.0,-3.0,-3.0,-2.0
1.6951603826866732e+18,-4.0,-2.0,-1.0,2.0,-1.0,1.0,0.0,-1.0
1.6951603826866732e+18,-3.0,-2.0,2.0,2.0,0.0,2.0,-1.0,-1.0
1.695160382696694e+18,-1.0,-2.0,-2.0,-4.0,-2.0,-2.0,0.0,-2.0
1.6951603827066865e+18,-1.0,0.0,1.0,-4.0,-3.0,-2.0,-3.0,-1.0
1.6951603827076605e+18,1.0,-2.0,-3.0,-1.0,0.0,-3.0,-1.0,-1.0
1.6951603827076605e+18,-1.0,0.0,0.0,0.0,-3.0,-4.0,-4.0,-1.0
1.6951603827086643e+18,-1.0,-1.0,0.0,-2.0,-1.0,3.0,0.0,2.0
1.6951603827086643e+18,0.0,0.0,-3.0,-4.0,2.0,2.0,0.0,0.0
1.6951603827156582e+18,-1.0,0.0,1.0,1.0,-1.0,0.0,0.0,-1.0
1.6951603827156582e+18,0.0,0.0,0.0,1.0,-3.0,-3.0,0.0,0.0
1.6951603827296476e+18,0.0,0.0,-2.0,-2.0,1.0,-3.0,-3.0,-2.0
1.6951603827306478e+18,-3.0,0.0,0.0,-2.0,0.0,0.0,0.0,-1.0
1.695160382753635e+18,-2.0,-1.0,-2.0,-3.0,-1.0,-2.0,-1.0,0.0
1.695160382753635e+18,-1.0,-2.0,-2.0,0.0,1.0,0.0,0.0,-2.0
1.6951603827546337e+18,-1.0,0.0,-1.0,-2.0,-1.0,-1.0,-1.0,-1.0
1.6951603827546337e+18,0.0,-2.0,-1.0,0.0,-3.0,0.0,0.0,0.0
1.6951603827556342e+18,0.0,-2.0,-2.0,1.0,-2.0,0.0,-1.0,0.0
1.6951603827566372e+18,1.0,0.0,0.0,0.0,8.0,3.0,1.0,0.0
1.6951603827666284e+18,0.0,4.0,-4.0,-1.0,-1.0,-1.0,-2.0,-1.0
1.69516038276763e+18,1.0,-1.0,-1.0,0.0,2.0,3.0,1.0,1.0
1.6951603827756227e+18,0.0,-1.0,1.0,-1.0,-2.0,-1.0,1.0,-1.0
1.6951603827766257e+18,-1.0,-2.0,0.0,-1.0,-4.0,-3.0,-3.0,-1.0
1.6951603827946117e+18,0.0,1.0,0.0,-1.0,-1.0,0.0,0.0,0.0
1.695160382795611e+18,-1.0,-1.0,1.0,0.0,-2.0,-2.0,-1.0,-2.0
1.6951603827966095e+18,-1.0,0.0,-1.0,-2.0,-1.0,0.0,-1.0,0.0
1.6951603827966095e+18,-1.0,1.0,-2.0,0.0,-1.0,1.0,-1.0,0.0
1.6951603828126003e+18,-1.0,-2.0,0.0,-1.0,-1.0,-2.0,-1.0,-3.0
1.6951603828135997e+18,-1.0,-1.0,-3.0,-1.0,-1.0,-3.0,-2.0,-1.0
1.6951603828145997e+18,-2.0,-2.0,-1.0,0.0,0.0,0.0,0.0,-2.0
1.6951603828145997e+18,0.0,1.0,0.0,1.0,-2.0,-2.0,-1.0,-1.0
1.6951603828346125e+18,-2.0,-2.0,-2.0,-2.0,-3.0,0.0,-2.0,1.0
1.6951603828355907e+18,-1.0,-2.0,-1.0,-1.0,-1.0,1.0,1.0,-2.0
1.6951603828365914e+18,0.0,-1.0,0.0,0.0,1.0,0.0,-1.0,-1.0
1.695160382837587e+18,0.0,-1.0,-1.0,0.0,-2.0,-1.0,0.0,0.0
1.695160382849579e+18,0.0,-2.0,-2.0,-2.0,-1.0,-1.0,-1.0,1.0
1.695160382849579e+18,-1.0,-1.0,0.0,-2.0,0.0,0.0,-2.0,1.0
1.695160382856584e+18,-3.0,0.0,1.0,-2.0,0.0,-1.0,-3.0,0.0
1.695160382856584e+18,-1.0,-1.0,4.0,-1.0,-1.0,-2.0,0.0,-2.0
1.695160382873566e+18,-2.0,-2.0,-7.0,-1.0,0.0,-2.0,1.0,0.0
1.695160382873566e+18,0.0,-2.0,4.0,1.0,0.0,-1.0,0.0,-2.0
1.695160382878567e+18,1.0,1.0,-5.0,1.0,0.0,-1.0,0.0,0.0
1.6951603828795643e+18,0.0,-3.0,-1.0,-1.0,-2.0,-2.0,-2.0,-1.0
1.6951603828955533e+18,-2.0,0.0,0.0,0.0,0.0,-2.0,0.0,0.0
1.695160382896556e+18,0.0,-1.0,-2.0,0.0,2.0,-2.0,1.0,-2.0
1.695160382896556e+18,-2.0,1.0,9.0,-3.0,-2.0,-1.0,-1.0,-1.0
1.695160382896556e+18,-1.0,-1.0,-8.0,1.0,0.0,0.0,-1.0,2.0
1.6951603829245614e+18,0.0,0.0,-11.0,-4.0,-2.0,-1.0,0.0,-1.0
1.69516038292554e+18,-1.0,-1.0,3.0,-2.0,-2.0,-2.0,-1.0,-1.0
1.6951603829265352e+18,1.0,-2.0,-2.0,-1.0,1.0,0.0,-1.0,-1.0
1.6951603829265352e+18,-2.0,-1.0,2.0,0.0,-2.0,-2.0,-1.0,-2.0
1.6951603829455245e+18,-2.0,-2.0,1.0,-2.0,-2.0,1.0,1.0,-1.0
1.6951603829485253e+18,-1.0,-2.0,-3.0,-1.0,-1.0,1.0,-2.0,-1.0
1.6951603829525268e+18,-1.0,-1.0,-1.0,1.0,-1.0,0.0,-1.0,-1.0
1.6951603829525268e+18,0.0,-1.0,1.0,-1.0,-1.0,1.0,0.0,0.0
1.695160382962539e+18,2.0,-1.0,1.0,1.0,0.0,0.0,-3.0,-2.0
1.695160382962539e+18,-2.0,0.0,1.0,1.0,-2.0,-2.0,0.0,-3.0
1.6951603829635144e+18,0.0,-1.0,-2.0,-1.0,0.0,-2.0,-2.0,0.0
1.6951603829645166e+18,-3.0,0.0,-1.0,-2.0,-2.0,0.0,-1.0,0.0
1.6951603829855027e+18,0.0,-2.0,0.0,-1.0,1.0,-1.0,-1.0,-1.0
1.6951603829855027e+18,-1.0,1.0,-3.0,0.0,0.0,1.0,-2.0,-1.0
1.695160383002492e+18,-1.0,-1.0,-3.0,0.0,-2.0,-1.0,-1.0,-1.0
1.695160383002492e+18,-1.0,-1.0,-1.0,-2.0,-1.0,-3.0,0.0,0.0
1.6951603830034924e+18,0.0,0.0,1.0,-2.0,-2.0,-1.0,-1.0,0.0
1.6951603830034924e+18,0.0,0.0,-3.0,1.0,-1.0,-1.0,-1.0,-1.0
1.6951603830044918e+18,-1.0,-1.0,-2.0,-2.0,1.0,-1.0,-1.0,-1.0
1.69516038300649e+18,0.0,1.0,0.0,-1.0,-1.0,2.0,0.0,-3.0
1.695160383023479e+18,-1.0,0.0,1.0,0.0,-2.0,0.0,0.0,-1.0
1.695160383023479e+18,-1.0,-1.0,-2.0,-1.0,-2.0,0.0,-1.0,0.0
1.695160383024479e+18,-2.0,-2.0,0.0,0.0,0.0,0.0,0.0,-1.0
1.695160383024479e+18,-2.0,-2.0,-3.0,0.0,-1.0,-1.0,0.0,0.0
1.6951603830304773e+18,-1.0,-1.0,0.0,0.0,0.0,0.0,-2.0,-1.0
1.6951603830394708e+18,-1.0,-1.0,-2.0,-2.0,0.0,-1.0,-2.0,0.0
1.6951603830444677e+18,0.0,0.0,-1.0,-1.0,-2.0,0.0,-1.0,-1.0
1.6951603830454687e+18,0.0,0.0,0.0,1.0,0.0,-1.0,-1.0,0.0
1.695160383052465e+18,-1.0,-1.0,-1.0,-1.0,-1.0,-1.0,0.0,1.0
1.695160383052465e+18,-1.0,0.0,0.0,2.0,0.0,0.0,1.0,0.0
1.6951603830544627e+18,0.0,0.0,-1.0,-1.0,0.0,0.0,0.0,-1.0
1.695160383055461e+18,1.0,-2.0,0.0,-3.0,0.0,0.0,-2.0,0.0
1.6951603830754486e+18,-1.0,-1.0,0.0,0.0,-1.0,-1.0,-1.0,-2.0
1.6951603830754486e+18,-1.0,0.0,-2.0,-2.0,-2.0,0.0,-1.0,-1.0
1.6951603830764483e+18,-1.0,1.0,-2.0,-3.0,0.0,-2.0,0.0,-1.0
1.6951603830764483e+18,-1.0,1.0,-2.0,-2.0,0.0,-1.0,0.0,0.0
1.695160383088443e+18,-2.0,-1.0,0.0,-1.0,0.0,0.0,0.0,0.0
1.695160383088443e+18,-2.0,-1.0,-2.0,-1.0,0.0,-1.0,-1.0,0.0
1.6951603830974374e+18,0.0,-1.0,0.0,1.0,0.0,0.0,0.0,1.0
1.6951603830974374e+18,-1.0,-1.0,0.0,-1.0,-1.0,-2.0,-1.0,-3.0
1.6951603831124273e+18,-1.0,-2.0,0.0,0.0,0.0,0.0,1.0,0.0
1.6951603831124273e+18,0.0,-2.0,-1.0,0.0,-2.0,-1.0,0.0,0.0
1.6951603831134282e+18,-1.0,0.0,-1.0,-1.0,-1.0,1.0,-1.0,0.0
1.695160383114428e+18,0.0,-2.0,-1.0,-2.0,0.0,-2.0,0.0,-1.0
1.6951603831344384e+18,1.0,1.0,-2.0,1.0,0.0,-1.0,-1.0,-1.0
1.6951603831354176e+18,0.0,0.0,-1.0,-2.0,-2.0,-2.0,-1.0,-1.0
1.6951603831364152e+18,-2.0,-2.0,1.0,0.0,-2.0,-2.0,-3.0,-1.0
1.6951603831364152e+18,-1.0,-1.0,1.0,0.0,1.0,1.0,-2.0,0.0
1.6951603831576822e+18,0.0,0.0,0.0,-1.0,-2.0,0.0,-1.0,1.0
1.6951603831576822e+18,-1.0,0.0,-1.0,-2.0,0.0,0.0,0.0,0.0
1.6951603831588227e+18,-2.0,-1.0,-1.0,-1.0,1.0,-1.0,-1.0,-1.0
1.6951603831588227e+18,-1.0,-1.0,-4.0,-1.0,-2.0,1.0,-1.0,0.0
1.6951603831749668e+18,-1.0,0.0,0.0,0.0,0.0,-1.0,0.0,-1.0
1.6951603831759434e+18,-1.0,-1.0,1.0,-1.0,-2.0,0.0,-1.0,1.0
1.6951603831769654e+18,-2.0,-1.0,0.0,-1.0,-2.0,0.0,-1.0,-1.0
1.6951603831769654e+18,-2.0,-1.0,-1.0,0.0,-1.0,-1.0,-2.0,-1.0
1.6951603831949821e+18,-1.0,-1.0,0.0,0.0,0.0,1.0,-1.0,-3.0
1.6951603831949821e+18,0.0,-2.0,0.0,-1.0,0.0,-1.0,-1.0,-1.0
1.6951603831959813e+18,-1.0,0.0,-1.0,0.0,0.0,0.0,-1.0,-1.0
1.6951603831959813e+18,-1.0,-1.0,-1.0,0.0,-1.0,-2.0,0.0,-2.0
1.695160383208725e+18,-2.0,-1.0,0.0,-1.0,-2.0,-2.0,-1.0,0.0
1.695160383208725e+18,-2.0,-1.0,0.0,-2.0,0.0,-1.0,-1.0,-1.0
1.6951603832227192e+18,1.0,-2.0,-2.0,-1.0,0.0,-1.0,-1.0,-1.0
1.6951603832227192e+18,-1.0,0.0,-1.0,-2.0,-2.0,-1.0,0.0,0.0
1.6951603832397865e+18,-1.0,-1.0,-1.0,-1.0,0.0,-2.0,-1.0,-3.0
1.6951603832397865e+18,0.0,-1.0,0.0,0.0,0.0,-1.0,0.0,-2.0
1.6951603832417892e+18,-1.0,-1.0,-2.0,-2.0,-1.0,-2.0,0.0,0.0
1.6951603832417892e+18,1.0,1.0,-2.0,0.0,-1.0,0.0,1.0,-1.0
1.6951603832627156e+18,-2.0,-1.0,-1.0,0.0,-1.0,-1.0,-1.0,1.0
1.6951603832627156e+18,-1.0,0.0,-2.0,0.0,-1.0,-1.0,-2.0,-1.0
1.6951603832637379e+18,-1.0,-1.0,1.0,-1.0,-1.0,-2.0,0.0,1.0
1.6951603832637379e+18,0.0,-1.0,0.0,-1.0,-1.0,-2.0,-3.0,-1.0
1.6951603832687122e+18,1.0,3.0,0.0,-2.0,1.0,1.0,0.0,1.0
1.6951603832687122e+18,-1.0,-1.0,-1.0,0.0,0.0,-1.0,1.0,-1.0
1.695160383284704e+18,-1.0,-2.0,-1.0,-1.0,1.0,-1.0,-1.0,-1.0
1.695160383284704e+18,0.0,-1.0,-1.0,-1.0,-2.0,-1.0,0.0,-1.0
1.6951603832936968e+18,-1.0,-2.0,-2.0,0.0,0.0,0.0,-1.0,-1.0
1.695160383299712e+18,1.0,-1.0,-1.0,0.0,-2.0,-1.0,-2.0,0.0
1.6951603833007163e+18,-1.0,0.0,-1.0,-1.0,-3.0,-2.0,0.0,0.0
1.6951603833007163e+18,-2.0,-2.0,-1.0,0.0,-1.0,1.0,0.0,-1.0
1.6951603833303862e+18,-1.0,-1.0,-1.0,0.0,-3.0,-1.0,-2.0,-2.0
1.6951603833303862e+18,-1.0,-1.0,0.0,-1.0,-2.0,-1.0,0.0,-2.0
1.695160383332402e+18,-1.0,-1.0,-2.0,-2.0,0.0,1.0,0.0,0.0
1.695160383332402e+18,-1.0,1.0,0.0,-2.0,-1.0,-2.0,-1.0,0.0
1.695160383332402e+18,-3.0,-1.0,0.0,-2.0,0.0,-1.0,0.0,-1.0
1.6951603833334042e+18,1.0,0.0,0.0,0.0,0.0,-1.0,-1.0,-2.0
1.695160383351745e+18,0.0,0.0,0.0,0.0,-1.0,-1.0,0.0,-1.0
1.6951603833527206e+18,-2.0,-2.0,0.0,0.0,-2.0,-3.0,-2.0,0.0
1.6951603833527206e+18,0.0,1.0,-1.0,1.0,1.0,-3.0,-3.0,0.0
1.6951603833527206e+18,1.0,-1.0,1.0,-1.0,0.0,0.0,0.0,0.0
1.695160383365714e+18,0.0,-1.0,-1.0,0.0,0.0,1.0,-1.0,-2.0
1.695160383365714e+18,0.0,-1.0,-1.0,-2.0,-1.0,-2.0,0.0,-1.0
1.6951603833747072e+18,0.0,-1.0,-1.0,-1.0,0.0,1.0,-1.0,2.0
1.6951603833747072e+18,-1.0,-2.0,-1.0,-2.0,0.0,1.0,1.0,-3.0
1.695160383376707e+18,-1.0,0.0,0.0,-2.0,-1.0,-2.0,-2.0,-1.0
1.695160383376707e+18,0.0,0.0,-3.0,0.0,0.0,0.0,-2.0,-1.0
1.6951603833887002e+18,-1.0,0.0,0.0,0.0,-3.0,-1.0,-1.0,0.0
1.6951603833887002e+18,1.0,0.0,-1.0,1.0,0.0,-1.0,-2.0,0.0
1.6951603834157243e+18,0.0,-1.0,-1.0,0.0,-1.0,-1.0,-1.0,-3.0
1.6951603834157243e+18,-1.0,-1.0,0.0,0.0,0.0,-1.0,0.0,-1.0
1.6951603834157243e+18,-2.0,-1.0,-1.0,-1.0,-1.0,-1.0,-2.0,-2.0
1.6951603834157243e+18,-2.0,0.0,0.0,-1.0,0.0,0.0,-2.0,0.0
1.6951603834157243e+18,-1.0,-2.0,0.0,0.0,0.0,1.0,0.0,-1.0
1.6951603834167247e+18,-1.0,-2.0,0.0,-1.0,1.0,0.0,-1.0,-1.0
1.6951603834347492e+18,0.0,0.0,-1.0,-1.0,0.0,-1.0,1.0,1.0
1.6951603834347492e+18,-1.0,0.0,-2.0,-2.0,0.0,-2.0,0.0,-1.0
1.695160383436716e+18,-1.0,0.0,-1.0,0.0,0.0,0.0,-2.0,-1.0
1.695160383436716e+18,0.0,0.0,0.0,0.0,-1.0,-1.0,-2.0,-2.0
1.6951603834577247e+18,-1.0,-3.0,0.0,-3.0,1.0,1.0,0.0,-2.0
1.6951603834577247e+18,-2.0,0.0,0.0,-1.0,0.0,-3.0,-2.0,-1.0
1.6951603834596995e+18,0.0,-1.0,-1.0,-1.0,-3.0,0.0,0.0,-1.0
1.6951603834596995e+18,-1.0,-1.0,-2.0,0.0,0.0,0.0,0.0,-1.0
1.6951603834726922e+18,0.0,-1.0,-1.0,-1.0,-1.0,-1.0,-1.0,-1.0
1.6951603834726922e+18,-2.0,-1.0,0.0,0.0,-2.0,-1.0,-3.0,-3.0
1.6951603834737162e+18,-1.0,-1.0,-1.0,0.0,1.0,-1.0,-2.0,0.0
1.6951603834737162e+18,-2.0,-1.0,-1.0,0.0,-1.0,0.0,0.0,0.0
1.6951603834947172e+18,0.0,-1.0,-1.0,-1.0,0.0,-1.0,1.0,-1.0
1.6951603834947172e+18,0.0,-1.0,-2.0,0.0,-2.0,1.0,1.0,0.0
1.6951603835009206e+18,0.0,0.0,0.0,0.0,-2.0,-2.0,-2.0,-1.0
1.6951603835019338e+18,0.0,-2.0,0.0,-1.0,1.0,-1.0,1.0,-1.0
1.695160383508922e+18,0.0,0.0,-1.0,-2.0,-4.0,-1.0,-1.0,-2.0
1.695160383508922e+18,0.0,0.0,-1.0,-1.0,0.0,-1.0,-1.0,0.0
1.6951603835189164e+18,0.0,-1.0,0.0,0.0,-1.0,0.0,0.0,-1.0
1.6951603835199168e+18,-2.0,0.0,1.0,-1.0,-1.0,0.0,-1.0,-1.0
1.6951603835349092e+18,0.0,-2.0,-1.0,1.0,1.0,-2.0,-1.0,0.0
1.6951603835349092e+18,0.0,-1.0,-1.0,0.0,0.0,-1.0,-2.0,0.0
1.695160383538905e+18,-1.0,-1.0,-2.0,-1.0,-1.0,0.0,-1.0,1.0
1.6951603835399045e+18,-1.0,0.0,-2.0,-2.0,1.0,1.0,-1.0,-2.0
1.6951603835628905e+18,0.0,-3.0,0.0,-1.0,0.0,1.0,0.0,-1.0
1.6951603835638904e+18,-2.0,-2.0,-2.0,-2.0,-1.0,0.0,-1.0,1.0
1.69516038356689e+18,0.0,1.0,-2.0,-1.0,0.0,0.0,1.0,0.0
1.69516038356689e+18,-1.0,0.0,0.0,-1.0,-1.0,-1.0,-1.0,1.0
1.695160383577882e+18,0.0,0.0,0.0,-1.0,0.0,1.0,-1.0,-1.0
1.6951603835788813e+18,-2.0,-2.0,-2.0,0.0,-1.0,-1.0,1.0,0.0
1.6951603835788813e+18,-2.0,-1.0,0.0,-1.0,0.0,-2.0,-2.0,-3.0
1.6951603835798804e+18,0.0,0.0,0.0,-1.0,-3.0,-1.0,0.0,-2.0
1.6951603836098644e+18,-1.0,-1.0,0.0,-1.0,-2.0,0.0,0.0,0.0
1.695160383610864e+18,0.0,0.0,-1.0,0.0,-2.0,0.0,-1.0,1.0
1.695160383610864e+18,1.0,0.0,-2.0,-1.0,1.0,-2.0,0.0,-2.0
1.695160383610864e+18,1.0,-1.0,-1.0,0.0,-2.0,-1.0,-2.0,-2.0
1.6951603836158605e+18,1.0,-1.0,-3.0,-2.0,-1.0,-1.0,-1.0,-2.0
1.6951603836158605e+18,-1.0,-1.0,0.0,-2.0,-1.0,0.0,0.0,-1.0
1.6951603836158605e+18,0.0,-2.0,-1.0,-1.0,-3.0,0.0,-1.0,-1.0
1.6951603836168614e+18,0.0,0.0,-1.0,-1.0,0.0,-2.0,0.0,1.0
1.6951603836288522e+18,-2.0,0.0,-1.0,1.0,0.0,-1.0,-1.0,-2.0
1.6951603836298527e+18,0.0,1.0,0.0,0.0,1.0,0.0,-2.0,-2.0
1.6951603836448435e+18,0.0,0.0,0.0,0.0,1.0,0.0,1.0,-1.0
1.695160383645844e+18,-1.0,-1.0,0.0,-3.0,-2.0,0.0,0.0,-1.0
1.6951603836518392e+18,-1.0,-1.0,0.0,-1.0,-3.0,0.0,-1.0,1.0
1.6951603836518392e+18,-2.0,0.0,-1.0,0.0,0.0,-2.0,-1.0,-1.0
1.6951603836588355e+18,-3.0,0.0,-1.0,0.0,0.0,0.0,0.0,0.0
1.6951603836588355e+18,0.0,-1.0,-1.0,0.0,0.0,-2.0,-1.0,0.0
1.6951603836768248e+18,-1.0,-1.0,-1.0,0.0,0.0,-1.0,0.0,-2.0
1.6951603836768248e+18,1.0,-2.0,0.0,-1.0,-2.0,0.0,-1.0,-1.0
1.6951603836888182e+18,0.0,-1.0,0.0,0.0,-1.0,0.0,-1.0,0.0
1.6951603836898222e+18,-1.0,-2.0,-1.0,1.0,-1.0,1.0,0.0,0.0
1.6951603836908178e+18,-1.0,1.0,-1.0,0.0,0.0,0.0,1.0,0.0
1.6951603836908178e+18,0.0,-1.0,-2.0,-1.0,-1.0,0.0,0.0,0.0
1.6951603836978153e+18,-2.0,1.0,-2.0,0.0,0.0,-3.0,0.0,1.0
1.6951603836988206e+18,0.0,-1.0,0.0,-1.0,-2.0,-1.0,1.0,-2.0
1.6951603837128049e+18,0.0,-2.0,0.0,-1.0,-1.0,-2.0,-2.0,0.0
1.6951603837138045e+18,-1.0,1.0,0.0,-2.0,0.0,-3.0,-1.0,-3.0
1.6951603837138045e+18,1.0,-3.0,-1.0,-1.0,-3.0,0.0,0.0,-1.0
1.695160383714809e+18,-1.0,1.0,0.0,-2.0,1.0,1.0,0.0,-2.0
1.695160383734791e+18,-2.0,-2.0,-2.0,-1.0,0.0,-1.0,3.0,0.0
1.6951603837357914e+18,0.0,-3.0,-1.0,-1.0,0.0,-1.0,0.0,0.0
1.6951603837367905e+18,-3.0,-3.0,2.0,0.0,2.0,0.0,-1.0,0.0
1.6951603837367905e+18,-3.0,-2.0,-3.0,-1.0,-1.0,-1.0,-1.0,-1.0
1.6951603837577787e+18,-2.0,1.0,0.0,-3.0,0.0,-1.0,0.0,-3.0
1.6951603837577787e+18,0.0,0.0,0.0,0.0,0.0,-1.0,0.0,1.0
1.6951603837597778e+18,0.0,0.0,-1.0,0.0,-1.0,1.0,0.0,0.0
1.6951603837607777e+18,-1.0,-1.0,-2.0,-1.0,-1.0,1.0,-1.0,-1.0
1.6951603837717704e+18,0.0,0.0,0.0,0.0,-3.0,1.0,-3.0,-2.0
1.6951603837717704e+18,-2.0,-1.0,0.0,-2.0,0.0,-2.0,-1.0,-2.0
1.6951603837887613e+18,-2.0,-1.0,-1.0,-2.0,-1.0,-1.0,-1.0,-2.0
1.6951603837897656e+18,-1.0,0.0,-1.0,0.0,-1.0,-1.0,0.0,0.0
1.6951603837947558e+18,-1.0,-1.0,-1.0,-1.0,-1.0,-2.0,-1.0,-1.0
1.6951603837947558e+18,-1.0,0.0,-1.0,-3.0,-2.0,0.0,-1.0,0.0
1.695160383796756e+18,0.0,0.0,-1.0,0.0,0.0,0.0,0.0,0.0
1.695160383796756e+18,0.0,0.0,-1.0,0.0,1.0,-2.0,-1.0,0.0
1.6951603838167675e+18,0.0,-2.0,-2.0,0.0,0.0,-2.0,1.0,0.0
1.6951603838177457e+18,-2.0,-3.0,-2.0,1.0,-2.0,-1.0,0.0,0.0
1.695160383818745e+18,-1.0,0.0,0.0,-2.0,-1.0,-2.0,-1.0,-1.0
1.695160383818745e+18,0.0,0.0,0.0,-1.0,-2.0,-1.0,-2.0,-1.0
1.6951603838317358e+18,1.0,-1.0,1.0,0.0,-1.0,-1.0,-1.0,-1.0
1.6951603838317358e+18,-1.0,-1.0,1.0,2.0,0.0,0.0,0.0,-1.0
1.6951603838407332e+18,-1.0,-2.0,-2.0,-1.0,-2.0,0.0,0.0,0.0
1.6951603838417324e+18,0.0,-1.0,-1.0,-1.0,2.0,-2.0,-1.0,1.0
1.6951603838547356e+18,-2.0,-2.0,0.0,-1.0,-1.0,0.0,-1.0,0.0
1.695160383855723e+18,-1.0,-1.0,-2.0,1.0,-1.0,-1.0,1.0,-3.0
1.6951603838567224e+18,-1.0,-3.0,0.0,-1.0,-1.0,-1.0,1.0,-1.0
1.6951603838567224e+18,0.0,-2.0,0.0,-2.0,0.0,0.0,-1.0,-1.0
1.695160383877709e+18,0.0,0.0,-2.0,-1.0,0.0,-1.0,-1.0,0.0
1.695160383877709e+18,0.0,1.0,0.0,0.0,-1.0,0.0,0.0,-1.0
1.695160383878711e+18,-1.0,-1.0,-1.0,-1.0,-2.0,-1.0,-1.0,-1.0
1.695160383878711e+18,-1.0,-1.0,0.0,0.0,0.0,-2.0,0.0,-4.0
1.6951603838917043e+18,-2.0,-1.0,0.0,-1.0,-1.0,0.0,0.0,0.0
1.695160383896701e+18,-1.0,0.0,-2.0,-3.0,0.0,-3.0,1.0,-1.0
1.6951603839076915e+18,1.0,-2.0,-3.0,1.0,-1.0,-2.0,-1.0,-1.0
1.6951603839076915e+18,-1.0,-2.0,1.0,-1.0,0.0,-2.0,1.0,1.0
1.69516038391569e+18,-2.0,-1.0,-3.0,0.0,-1.0,-1.0,-1.0,-2.0
1.69516038391569e+18,0.0,0.0,-1.0,-2.0,-2.0,-1.0,-2.0,0.0
1.6951603839166912e+18,1.0,0.0,-1.0,-2.0,-1.0,0.0,-3.0,0.0
1.6951603839166912e+18,-1.0,-1.0,-1.0,-1.0,0.0,1.0,-1.0,1.0
1.695160383944694e+18,0.0,-2.0,-4.0,2.0,0.0,0.0,0.0,0.0
1.695160383944694e+18,0.0,0.0,-2.0,-1.0,-1.0,0.0,0.0,-1.0
1.6951603839466714e+18,-1.0,-1.0,-1.0,-1.0,0.0,-1.0,0.0,0.0
1.6951603839466714e+18,1.0,-1.0,-1.0,-1.0,-3.0,-1.0,-3.0,-1.0
1.6951603839516664e+18,-2.0,-3.0,1.0,-1.0,-1.0,0.0,0.0,-1.0
1.6951603839516664e+18,-1.0,0.0,-1.0,-1.0,0.0,-2.0,1.0,0.0
1.695160383958663e+18,-1.0,-1.0,1.0,-1.0,-1.0,0.0,0.0,-1.0
1.695160383958663e+18,-1.0,0.0,-1.0,-2.0,-2.0,-2.0,-2.0,0.0
1.6951603839786527e+18,-2.0,0.0,0.0,-1.0,-2.0,0.0,0.0,-1.0
1.6951603839796536e+18,-1.0,-1.0,-1.0,-1.0,1.0,-1.0,-2.0,-1.0
1.6951603839896453e+18,-1.0,0.0,-1.0,-1.0,-1.0,0.0,-1.0,0.0
1.695160383990644e+18,-1.0,0.0,-1.0,-2.0,-1.0,-2.0,-1.0,-1.0
1.6951603839980818e+18,0.0,-2.0,1.0,-3.0,-2.0,-1.0,-2.0,0.0
1.6951603839980818e+18,0.0,0.0,-1.0,-2.0,0.0,0.0,1.0,-2.0
1.695160383999081e+18,-3.0,-1.0,-1.0,0.0,1.0,-3.0,-1.0,0.0
1.695160384000081e+18,-2.0,-1.0,-2.0,-1.0,0.0,-1.0,-1.0,-1.0
1.6951603840122002e+18,1.0,0.0,-2.0,0.0,-1.0,0.0,-1.0,0.0
1.6951603840122002e+18,-1.0,0.0,0.0,-2.0,-2.0,1.0,-1.0,-1.0
1.6951603840261975e+18,-2.0,-2.0,0.0,-2.0,-2.0,0.0,0.0,-1.0
1.6951603840261975e+18,-3.0,0.0,-1.0,0.0,0.0,0.0,0.0,0.0
1.6951603840351985e+18,1.0,0.0,-1.0,-1.0,-1.0,0.0,0.0,-1.0
1.6951603840351985e+18,0.0,-3.0,-1.0,-1.0,-1.0,-1.0,-2.0,-1.0
1.6951603840362196e+18,0.0,1.0,0.0,-2.0,-1.0,-1.0,-2.0,0.0
1.6951603840362196e+18,1.0,-1.0,0.0,-2.0,0.0,-1.0,-1.0,-2.0
1.6951603840561866e+18,0.0,0.0,-1.0,-2.0,2.0,0.0,-2.0,0.0
1.6951603840561866e+18,-1.0,-1.0,-1.0,-1.0,0.0,-1.0,0.0,1.0
1.6951603840728591e+18,-1.0,-1.0,0.0,0.0,1.0,0.0,-1.0,0.0
1.6951603840728591e+18,-2.0,0.0,0.0,-1.0,-2.0,-1.0,-1.0,-1.0
1.6951603840738913e+18,-1.0,1.0,-1.0,-1.0,-1.0,0.0,-1.0,-1.0
1.6951603840738913e+18,-1.0,0.0,-1.0,-3.0,0.0,-1.0,-1.0,-2.0
1.6951603840801516e+18,-1.0,-2.0,0.0,0.0,-2.0,-1.0,-1.0,-1.0
1.6951603840801516e+18,-1.0,-2.0,-1.0,-1.0,-1.0,0.0,-1.0,-1.0
1.6951603840949855e+18,1.0,-1.0,-1.0,0.0,0.0,-1.0,1.0,-1.0
1.6951603840949855e+18,1.0,-1.0,-1.0,1.0,-2.0,-1.0,-1.0,-1.0
1.6951603840969818e+18,1.0,1.0,-2.0,-1.0,1.0,1.0,0.0,-1.0
1.6951603840969818e+18,2.0,0.0,0.0,1.0,3.0,2.0,-1.0,-2.0
1.695160384117215e+18,-3.0,-2.0,0.0,-2.0,-1.0,0.0,-1.0,1.0
1.6951603841182167e+18,0.0,-1.0,2.0,1.0,0.0,1.0,1.0,1.0
1.6951603841192118e+18,-2.0,-3.0,-11.0,-6.0,-3.0,-4.0,-1.0,-2.0
1.6951603841192118e+18,-1.0,-1.0,-1.0,-2.0,-1.0,-1.0,0.0,-1.0
1.69516038415619e+18,0.0,2.0,1.0,-1.0,-3.0,-3.0,-1.0,1.0
1.695160384157193e+18,-1.0,0.0,5.0,5.0,2.0,0.0,-1.0,-2.0
1.6951603841581888e+18,-1.0,-2.0,-7.0,-6.0,0.0,-1.0,-1.0,-1.0
1.6951603841581888e+18,-1.0,-2.0,-2.0,-4.0,-3.0,-2.0,-1.0,0.0
1.6951603841581888e+18,-2.0,-3.0,-4.0,-3.0,-2.0,-2.0,-1.0,-1.0
1.6951603841591908e+18,-3.0,0.0,-1.0,-2.0,-3.0,0.0,-1.0,-1.0
1.695160384163187e+18,0.0,0.0,2.0,1.0,-2.0,0.0,0.0,0.0
1.695160384163187e+18,0.0,1.0,0.0,-3.0,0.0,0.0,-1.0,-1.0
1.6951603841761782e+18,-2.0,1.0,1.0,1.0,0.0,1.0,-2.0,1.0
1.6951603841771827e+18,0.0,-2.0,-2.0,0.0,-2.0,0.0,-1.0,0.0
1.6951603841851738e+18,1.0,1.0,2.0,0.0,0.0,-1.0,1.0,0.0
1.6951603841851738e+18,1.0,-2.0,-2.0,0.0,-2.0,-1.0,-2.0,-2.0
1.6951603841911695e+18,0.0,-1.0,0.0,0.0,-2.0,-1.0,-1.0,-2.0
1.6951603841911695e+18,0.0,-2.0,-3.0,-3.0,0.0,-1.0,-3.0,-1.0
1.6951603842101827e+18,-1.0,-2.0,1.0,-1.0,-1.0,-1.0,-1.0,-2.0
1.69516038421116e+18,-2.0,0.0,2.0,1.0,-2.0,-2.0,-1.0,-1.0
1.695160384215157e+18,-1.0,0.0,-2.0,-3.0,-2.0,-3.0,-4.0,-2.0
1.695160384216156e+18,-1.0,-2.0,-4.0,-5.0,-3.0,-3.0,-2.0,-1.0
1.695160384217159e+18,-2.0,-1.0,-1.0,0.0,-2.0,-2.0,-1.0,-1.0
1.695160384217159e+18,-1.0,-3.0,-2.0,-2.0,-3.0,-1.0,-1.0,-1.0
1.6951603842371433e+18,0.0,-4.0,-3.0,-1.0,-1.0,0.0,-2.0,-2.0
1.6951603842381427e+18,-1.0,-1.0,-1.0,-2.0,-1.0,-2.0,-2.0,1.0
1.695160384239143e+18,-2.0,0.0,1.0,2.0,-2.0,0.0,-1.0,0.0
1.6951603842401426e+18,-2.0,-1.0,-1.0,0.0,-2.0,0.0,0.0,-2.0
1.6951603842691264e+18,-1.0,-1.0,0.0,-2.0,-2.0,1.0,-1.0,-2.0
1.6951603842711255e+18,-2.0,-2.0,-3.0,1.0,1.0,-1.0,0.0,0.0
1.6951603842781204e+18,-3.0,0.0,-1.0,1.0,-1.0,-1.0,-2.0,-3.0
1.6951603842791252e+18,1.0,-2.0,-1.0,-1.0,0.0,1.0,-2.0,-1.0
1.6951603842791252e+18,-2.0,0.0,-1.0,-2.0,-3.0,0.0,1.0,-1.0
1.6951603842801193e+18,0.0,-1.0,-1.0,-3.0,-1.0,0.0,-2.0,-2.0
1.6951603842801193e+18,-1.0,-1.0,-1.0,-1.0,0.0,0.0,-1.0,0.0
1.6951603842811192e+18,-2.0,-2.0,-2.0,-2.0,-1.0,-2.0,2.0,-1.0
1.6951603843131003e+18,-1.0,-1.0,-1.0,-1.0,-1.0,-2.0,-2.0,-2.0
1.6951603843141018e+18,-1.0,1.0,-1.0,-1.0,-2.0,-1.0,-1.0,-1.0
1.6951603843151e+18,1.0,-2.0,1.0,-1.0,2.0,0.0,0.0,-1.0
1.6951603843151e+18,-1.0,2.0,1.0,1.0,-1.0,1.0,0.0,0.0
1.6951603843160993e+18,-1.0,-2.0,-3.0,-2.0,0.0,-1.0,0.0,-1.0
1.6951603843160993e+18,-2.0,0.0,-1.0,1.0,-1.0,-2.0,-1.0,0.0
1.6951603843221007e+18,0.0,-2.0,1.0,-1.0,-2.0,-3.0,-2.0,-3.0
1.6951603843221007e+18,-1.0,-2.0,-2.0,1.0,2.0,0.0,2.0,-1.0
1.6951603843351066e+18,-1.0,-1.0,-1.0,2.0,-1.0,0.0,0.0,0.0
1.6951603843351066e+18,0.0,-1.0,-1.0,-1.0,-1.0,-1.0,-1.0,-1.0
1.6951603843370877e+18,1.0,0.0,-2.0,-3.0,-6.0,-3.0,-3.0,-2.0
1.6951603843370877e+18,-1.0,0.0,-1.0,1.0,0.0,-3.0,-5.0,-1.0
1.6951603843590738e+18,-1.0,0.0,2.0,1.0,2.0,1.0,5.0,-1.0
1.6951603843590738e+18,-2.0,-1.0,-2.0,-1.0,-1.0,-1.0,-1.0,-2.0
1.6951603843590738e+18,-1.0,1.0,0.0,2.0,0.0,0.0,-1.0,-1.0
1.695160384360078e+18,0.0,1.0,1.0,0.0,0.0,-1.0,-1.0,0.0
1.6951603843710676e+18,1.0,-3.0,-2.0,-5.0,-4.0,1.0,0.0,0.0
1.6951603843720676e+18,-2.0,-4.0,-1.0,1.0,1.0,1.0,0.0,-2.0
1.6951603843800643e+18,-1.0,-1.0,-2.0,-2.0,0.0,1.0,0.0,0.0
1.695160384381067e+18,-2.0,-4.0,-2.0,-2.0,-3.0,-3.0,-3.0,-3.0
1.6951603843950536e+18,0.0,0.0,2.0,2.0,2.0,-2.0,2.0,-2.0
1.695160384396054e+18,1.0,-1.0,-1.0,-3.0,-2.0,-2.0,-1.0,-1.0
1.695160384397053e+18,-1.0,1.0,2.0,3.0,1.0,2.0,-2.0,1.0
1.695160384397053e+18,0.0,1.0,1.0,2.0,2.0,1.0,2.0,1.0
1.6951603844230423e+18,-2.0,-2.0,-3.0,-3.0,-2.0,-9.0,-22.0,-2.0
1.695160384424042e+18,1.0,1.0,2.0,4.0,3.0,10.0,16.0,3.0
1.695160384424042e+18,-1.0,-6.0,-4.0,-6.0,-2.0,-2.0,-2.0,-1.0
1.695160384424042e+18,0.0,1.0,1.0,0.0,-2.0,-3.0,-2.0,-2.0
1.6951603844400271e+18,-1.0,-2.0,-4.0,2.0,-1.0,-3.0,-11.0,0.0
1.6951603844400271e+18,0.0,0.0,0.0,-3.0,-1.0,-1.0,1.0,-2.0
1.6951603844410276e+18,0.0,0.0,-1.0,-1.0,-2.0,-3.0,-3.0,-2.0
1.695160384442032e+18,0.0,-1.0,-2.0,-1.0,2.0,4.0,6.0,4.0
1.6951603844550185e+18,1.0,-1.0,0.0,-4.0,-4.0,-2.0,0.0,-1.0
1.6951603844550185e+18,-2.0,1.0,1.0,2.0,-1.0,-4.0,-7.0,-2.0
1.6951603844610196e+18,0.0,2.0,1.0,-1.0,0.0,2.0,8.0,1.0
1.6951603844610196e+18,-3.0,-4.0,-6.0,-5.0,-5.0,-5.0,-8.0,-3.0
1.6951603844780063e+18,0.0,-2.0,-3.0,1.0,0.0,1.0,2.0,-2.0
1.6951603844780063e+18,1.0,1.0,-1.0,-1.0,0.0,1.0,-1.0,1.0
1.6951603844790052e+18,-1.0,-2.0,1.0,-1.0,-1.0,0.0,2.0,0.0
1.6951603844790052e+18,2.0,1.0,1.0,0.0,-2.0,-2.0,-2.0,-1.0
1.6951603844997243e+18,-1.0,1.0,1.0,3.0,3.0,2.0,6.0,1.0
1.6951603844997243e+18,-1.0,-7.0,-3.0,-4.0,-2.0,-1.0,-10.0,-5.0
1.69516038450168e+18,-2.0,0.0,0.0,3.0,-1.0,-2.0,-5.0,-1.0
1.69516038450168e+18,-1.0,-1.0,-3.0,-4.0,-3.0,-1.0,1.0,-2.0
1.6951603845136745e+18,0.0,0.0,0.0,2.0,3.0,5.0,12.0,1.0
1.6951603845146757e+18,-2.0,-1.0,-2.0,-5.0,-2.0,-5.0,-8.0,-3.0
1.6951603845246666e+18,-1.0,-3.0,-2.0,-2.0,1.0,0.0,-2.0,-1.0
1.6951603845256676e+18,0.0,1.0,1.0,0.0,-1.0,0.0,0.0,0.0
1.695160384544656e+18,-2.0,0.0,-3.0,-4.0,-2.0,-6.0,-4.0,-2.0
1.695160384544656e+18,0.0,2.0,4.0,10.0,1.0,1.0,7.0,2.0
1.695160384546654e+18,0.0,1.0,-13.0,-8.0,-2.0,1.0,6.0,0.0
1.695160384546654e+18,-6.0,-9.0,-1.0,2.0,-1.0,3.0,2.0,-3.0
1.6951603845509356e+18,6.0,0.0,0.0,-4.0,2.0,0.0,-4.0,2.0
1.6951603845509356e+18,-2.0,0.0,1.0,0.0,-4.0,-6.0,-9.0,-1.0
1.6951603845678605e+18,-1.0,-1.0,1.0,0.0,2.0,0.0,-1.0,-3.0
1.6951603845678605e+18,1.0,4.0,8.0,8.0,1.0,-1.0,-2.0,0.0
1.695160384591422e+18,-3.0,0.0,-2.0,2.0,-1.0,-2.0,0.0,-3.0
1.695160384591422e+18,-4.0,-8.0,-4.0,-7.0,-3.0,2.0,9.0,-1.0
1.6951603845924255e+18,0.0,0.0,1.0,0.0,-2.0,-3.0,-8.0,-3.0
1.6951603845924255e+18,2.0,5.0,-4.0,-3.0,0.0,-1.0,14.0,0.0
1.6951603846054147e+18,0.0,0.0,-1.0,-5.0,-1.0,2.0,4.0,3.0
1.695160384606413e+18,-1.0,-3.0,-4.0,2.0,5.0,1.0,-1.0,0.0
1.695160384606413e+18,-3.0,-2.0,8.0,5.0,-3.0,-1.0,-3.0,-2.0
1.6951603846074122e+18,-1.0,-3.0,-1.0,3.0,1.0,-3.0,-8.0,-3.0
1.6951603846114153e+18,0.0,4.0,4.0,6.0,1.0,-2.0,-6.0,-2.0
1.6951603846114153e+18,1.0,0.0,-12.0,-16.0,-3.0,0.0,6.0,2.0
1.695160384625402e+18,-1.0,-4.0,-7.0,-1.0,0.0,-4.0,-2.0,-3.0
1.695160384625402e+18,-1.0,-2.0,3.0,-3.0,-4.0,-3.0,-13.0,-1.0
1.6951603846343972e+18,0.0,5.0,2.0,-3.0,1.0,6.0,16.0,3.0
1.6951603846343972e+18,0.0,0.0,4.0,8.0,3.0,5.0,1.0,0.0
1.695160384648389e+18,-4.0,1.0,-5.0,-12.0,-1.0,-1.0,-3.0,-2.0
1.6951603846493903e+18,-3.0,-7.0,3.0,3.0,-2.0,0.0,4.0,0.0
1.6951603846733747e+18,7.0,7.0,-1.0,2.0,0.0,3.0,1.0,3.0
1.6951603846733747e+18,0.0,-2.0,-2.0,-10.0,-5.0,-7.0,-10.0,-4.0
1.695160384674376e+18,0.0,-1.0,3.0,5.0,2.0,1.0,10.0,0.0
1.695160384675373e+18,-2.0,-2.0,-1.0,-2.0,2.0,-1.0,-4.0,-1.0
1.695160384675373e+18,-3.0,-2.0,10.0,10.0,1.0,1.0,-2.0,0.0
1.695160384675373e+18,1.0,6.0,2.0,1.0,-3.0,-5.0,-3.0,-4.0
1.695160384680371e+18,0.0,-3.0,5.0,2.0,-1.0,1.0,-3.0,1.0
1.695160384680371e+18,-1.0,-7.0,-6.0,-2.0,2.0,-1.0,0.0,-1.0
1.6951603847183488e+18,1.0,4.0,-2.0,-4.0,-3.0,-3.0,-3.0,-2.0
1.6951603847193505e+18,-3.0,-7.0,1.0,4.0,-1.0,-4.0,-6.0,-3.0
1.6951603847213478e+18,1.0,7.0,4.0,-3.0,-1.0,1.0,1.0,0.0
1.6951603847213478e+18,-4.0,-2.0,-26.0,-24.0,-11.0,-6.0,-2.0,-1.0
1.6951603847223537e+18,5.0,21.0,4.0,-3.0,-1.0,-4.0,-3.0,-1.0
1.6951603847223537e+18,-5.0,-11.0,8.0,7.0,7.0,3.0,1.0,0.0
1.695160384741336e+18,2.0,3.0,-3.0,-2.0,-1.0,-1.0,-2.0,1.0
1.695160384741336e+18,3.0,9.0,8.0,0.0,0.0,1.0,1.0,1.0
1.6951603847423365e+18,-1.0,3.0,-4.0,-11.0,-3.0,-1.0,-2.0,-2.0
1.6951603847423365e+18,3.0,4.0,-3.0,-4.0,-1.0,-1.0,0.0,1.0
1.6951603847563261e+18,0.0,-3.0,3.0,9.0,0.0,1.0,1.0,1.0
1.6951603847563261e+18,7.0,14.0,1.0,-11.0,-1.0,0.0,0.0,3.0
1.6951603847573268e+18,-8.0,-25.0,-16.0,-4.0,-5.0,-6.0,-5.0,-5.0
1.69516038475833e+18,-4.0,-7.0,-11.0,-17.0,-10.0,-8.0,-7.0,-2.0
1.6951603847793142e+18,-4.0,-7.0,7.0,15.0,8.0,1.0,-1.0,-3.0
1.6951603847803133e+18,1.0,3.0,5.0,6.0,0.0,0.0,0.0,3.0
1.6951603847803133e+18,-2.0,2.0,-2.0,-5.0,0.0,0.0,1.0,-1.0
1.6951603847813166e+18,4.0,7.0,16.0,15.0,5.0,1.0,-1.0,7.0
1.695160384800326e+18,4.0,2.0,-20.0,-9.0,-3.0,-3.0,-2.0,2.0
1.6951603848013007e+18,-10.0,-13.0,-11.0,-8.0,-3.0,-3.0,-2.0,-7.0
1.6951603848013007e+18,1.0,-4.0,8.0,9.0,5.0,3.0,2.0,1.0
1.6951603848023004e+18,1.0,-5.0,2.0,1.0,2.0,0.0,-2.0,4.0
1.695160384803302e+18,1.0,2.0,2.0,-2.0,0.0,1.0,2.0,-2.0
1.6951603848043054e+18,-2.0,-6.0,5.0,5.0,1.0,-1.0,-3.0,4.0
1.6951603848152937e+18,5.0,-10.0,-14.0,-9.0,-4.0,-7.0,0.0,-1.0
1.695160384816301e+18,-3.0,2.0,5.0,4.0,4.0,9.0,3.0,4.0
1.69516038482129e+18,0.0,0.0,-4.0,-6.0,-3.0,-3.0,-3.0,4.0
1.6951603848222892e+18,-4.0,-2.0,-1.0,-1.0,0.0,2.0,1.0,-5.0
1.6951603848452813e+18,-5.0,-7.0,2.0,9.0,2.0,-4.0,-9.0,-4.0
1.695160384855271e+18,3.0,7.0,-2.0,-3.0,-2.0,-17.0,-14.0,-4.0
1.6951603848612675e+18,4.0,2.0,2.0,4.0,4.0,18.0,19.0,9.0
1.6951603848612675e+18,3.0,-2.0,4.0,4.0,-5.0,0.0,-4.0,-5.0
1.695160384862267e+18,-6.0,-1.0,12.0,-4.0,-4.0,2.0,-4.0,-3.0
1.695160384862267e+18,2.0,-2.0,-29.0,3.0,0.0,-15.0,8.0,7.0
1.6951603848652662e+18,0.0,-3.0,18.0,4.0,-1.0,18.0,-6.0,-2.0
1.6951603848652662e+18,-1.0,-2.0,-18.0,-4.0,9.0,5.0,6.0,2.0
1.6951603848822748e+18,2.0,0.0,-3.0,0.0,0.0,3.0,-4.0,-4.0
1.6951603848832548e+18,-10.0,-3.0,6.0,-6.0,-7.0,-10.0,-3.0,-3.0
1.6951603848842583e+18,4.0,1.0,0.0,1.0,-6.0,-16.0,-9.0,2.0
1.6951603848842583e+18,0.0,1.0,13.0,14.0,-4.0,-7.0,1.0,-1.0
1.6951603849052416e+18,-2.0,-5.0,-25.0,-15.0,5.0,11.0,9.0,3.0
1.6951603849052416e+18,0.0,0.0,6.0,-11.0,1.0,8.0,-2.0,-6.0
1.695160384923237e+18,-8.0,-7.0,-21.0,-15.0,-12.0,-22.0,-9.0,-10.0
1.695160384923237e+18,4.0,2.0,21.0,21.0,-6.0,-9.0,-17.0,-2.0
1.6951603849332506e+18,-4.0,2.0,21.0,22.0,8.0,-13.0,4.0,3.0
1.6951603849342505e+18,10.0,9.0,21.0,7.0,15.0,49.0,26.0,8.0
1.6951603849342505e+18,-2.0,-2.0,-13.0,17.0,18.0,23.0,11.0,-1.0
1.6951603849342505e+18,-2.0,-6.0,-26.0,-24.0,-8.0,-17.0,-4.0,2.0
1.6951603849342505e+18,1.0,0.0,8.0,-9.0,-11.0,-7.0,-9.0,5.0
1.6951603849342505e+18,1.0,5.0,11.0,-1.0,-7.0,-12.0,-6.0,-7.0
1.6951603850022113e+18,-4.0,0.0,-7.0,-5.0,2.0,-13.0,-3.0,-6.0
1.695160385003187e+18,1.0,2.0,-4.0,9.0,-3.0,5.0,10.0,-1.0
1.6951603850041866e+18,0.0,1.0,5.0,5.0,-6.0,-5.0,-1.0,3.0
1.6951603850041866e+18,-1.0,2.0,4.0,3.0,3.0,0.0,-1.0,-5.0
1.6951603850081836e+18,-6.0,-4.0,7.0,-6.0,-3.0,-3.0,-3.0,-5.0
1.6951603850081836e+18,4.0,0.0,-16.0,-1.0,3.0,0.0,0.0,5.0
1.6951603850181806e+18,-3.0,2.0,10.0,-5.0,2.0,13.0,0.0,-6.0
1.6951603850181806e+18,-5.0,-10.0,-28.0,11.0,1.0,-3.0,1.0,1.0
1.6951603850201802e+18,4.0,1.0,10.0,8.0,7.0,4.0,-7.0,2.0
1.6951603850201802e+18,-1.0,-4.0,2.0,-9.0,6.0,13.0,21.0,1.0
1.6951603850411625e+18,-3.0,-2.0,25.0,7.0,-19.0,-10.0,-10.0,-6.0
1.6951603850411625e+18,-5.0,-1.0,16.0,19.0,-4.0,-23.0,-19.0,-12.0
1.6951603850431624e+18,-8.0,-15.0,-48.0,-22.0,-9.0,-8.0,-6.0,-1.0
1.6951603850431624e+18,-3.0,3.0,7.0,-3.0,1.0,5.0,0.0,0.0
1.6951603850431624e+18,-3.0,-7.0,-17.0,-10.0,-6.0,3.0,0.0,-3.0
1.6951603850431624e+18,1.0,4.0,9.0,2.0,4.0,-7.0,-6.0,-7.0
1.6951603850721452e+18,5.0,11.0,32.0,24.0,-5.0,4.0,0.0,2.0
1.6951603850721452e+18,-11.0,-8.0,-1.0,-4.0,-3.0,-15.0,-17.0,-9.0
1.6951603850721452e+18,-4.0,-9.0,-36.0,-27.0,1.0,0.0,17.0,7.0
1.6951603850731471e+18,11.0,15.0,65.0,42.0,22.0,16.0,9.0,9.0
1.69516038507761e+18,-2.0,-4.0,7.0,1.0,-5.0,-6.0,-2.0,-6.0
1.6951603850785902e+18,-7.0,-8.0,-73.0,-30.0,-6.0,-16.0,-21.0,-2.0
1.6951603850785902e+18,6.0,-1.0,2.0,-7.0,-10.0,16.0,19.0,10.0
1.6951603850785902e+18,-10.0,-9.0,-23.0,-18.0,-14.0,-11.0,-10.0,-11.0
1.6951603850806108e+18,7.0,10.0,45.0,37.0,13.0,5.0,7.0,8.0
1.6951603850806108e+18,-3.0,-6.0,-20.0,-18.0,5.0,4.0,2.0,-1.0
1.6951603851066875e+18,-4.0,-4.0,2.0,-16.0,-15.0,-6.0,-18.0,-5.0
1.6951603851066875e+18,4.0,5.0,-4.0,26.0,4.0,-8.0,-7.0,1.0
1.6951603851249797e+18,-10.0,-7.0,-27.0,-46.0,-11.0,-5.0,-5.0,-7.0
1.695160385125985e+18,5.0,8.0,32.0,29.0,10.0,4.0,4.0,1.0
1.6951603851269786e+18,-15.0,-7.0,-36.0,-32.0,-1.0,5.0,2.0,-5.0
1.6951603851269786e+18,3.0,-4.0,13.0,3.0,-10.0,-7.0,-8.0,-8.0
1.6951603851749586e+18,9.0,3.0,-20.0,4.0,6.0,2.0,9.0,7.0
1.6951603851769505e+18,-3.0,-1.0,8.0,-14.0,1.0,2.0,-3.0,-4.0
1.6951603851769505e+18,11.0,3.0,14.0,27.0,-2.0,-8.0,-2.0,7.0
1.6951603851779505e+18,-6.0,-2.0,0.0,-12.0,4.0,6.0,6.0,0.0
1.6951603852069327e+18,-3.0,-6.0,-11.0,-2.0,-3.0,-7.0,-14.0,-5.0
1.6951603852079337e+18,3.0,5.0,8.0,15.0,5.0,7.0,15.0,0.0
1.6951603852079337e+18,1.0,3.0,5.0,12.0,0.0,-1.0,-3.0,-4.0
1.6951603852089308e+18,-4.0,-8.0,-21.0,-9.0,-10.0,-10.0,-10.0,-3.0
1.6951603852099448e+18,2.0,1.0,-5.0,-19.0,-4.0,-4.0,3.0,-1.0
1.6951603852099448e+18,2.0,1.0,2.0,0.0,13.0,8.0,5.0,4.0
