timestamp,left_data_Ac_X,left_data_Ac_Y,left_data_Ac_Z,left_data_Gy_X,left_data_Gy_Y,left_data_Gy_Z,left_data_flex_1,left_data_flex_2,left_data_flex_3,left_data_flex_4,left_data_flex_5,right_data_Ac_X,right_data_Ac_Y,right_data_Ac_Z,right_data_Gy_X,right_data_Gy_Y,right_data_Gy_Z,right_data_flex_1,right_data_flex_2,right_data_flex_3,right_data_flex_4,right_data_flex_5
1695163406281614700,-9.033323288,-1.690306425,-1.017535686,-0.0042634,-0.060486984,0.340272576,0,55,-8,26,2686,-8.773551941,3.867832899,1.11689508,-0.150418073,0.025180703,0.024781011,-60,-31,-29,33,162
1695163406282614700,-9.039308548,-1.695094824,-1.021126986,-0.011058193,-0.064084224,0.343070447,-1,57,-3,26,2686,-8.774748802,3.861847401,1.119289279,-0.154947937,0.024248086,0.029310873,-63,-29,-29,35,161
1695163406283614700,-9.044096947,-1.697489023,-1.018732786,-0.016387442,-0.066482387,0.345068902,0,51,-6,24,2686,-8.780735016,3.849876404,1.126471877,-0.158145472,0.022249617,0.034506891,-62,-29,-29,32,160
1695163406284614700,-9.046490669,-1.702277422,-1.018732786,-0.022116385,-0.069280244,0.346667677,-1,54,-6,27,2686,-8.785523415,3.837905407,1.127668977,-0.160010725,0.019584993,0.03996937,-61,-28,-29,31,160
1695163406285614700,-9.047688484,-1.705868721,-1.019929886,-0.028111791,-0.071678407,0.348266453,-1,52,-5,24,2686,-8.789113998,3.82713151,1.132457376,-0.160543635,0.017453292,0.044099543,-64,-24,-30,33,158
1695163406357739000,-9.149441719,-1.983596087,-1.049857497,-0.073277183,-0.124571204,0.348266453,-1,53,-6,30,2686,-8.869319916,3.451241732,1.058237195,0.07820674,-0.153082699,0.224361405,-60,-27,-33,31,160
1695163406358739000,-9.153033257,-1.995567083,-1.045069098,-0.070079632,-0.126436442,0.347600311,0,54,-7,24,2686,-8.864531517,3.446453333,1.045069098,0.096725874,-0.162408888,0.233421117,-62,-28,-31,31,160
1695163406359739000,-9.156624794,-2.006340981,-1.039083481,-0.06674885,-0.127901986,0.34693414,-1,53,-6,28,2686,-8.859743118,3.444059134,1.031900883,0.114978559,-0.170535982,0.241814688,-67,-30,-32,32,158
1695163406360739000,-9.162610054,-2.021903276,-1.04147768,-0.063151613,-0.129234299,0.346267998,-1,53,-6,27,2686,-8.85495472,3.440467834,1.019929886,0.132565081,-0.178396642,0.250075042,-62,-33,-28,32,161
1695163406361739000,-9.168595314,-2.030282974,-1.047463298,-0.059154671,-0.130433381,0.345601827,0,49,-6,25,2686,-8.850166321,3.438073635,1.010353088,0.149485439,-0.185591117,0.257802457,-63,-28,-33,31,160
1695163406393696000,-9.242815971,-2.098517895,-1.127668977,-0.053958651,-0.162009194,0.277653903,1,51,-6,28,2686,-8.712499619,3.53503871,0.914585054,0.232088804,-0.185591117,0.307764143,-64,-28,-29,33,161
1695163406394696000,-9.234436035,-2.096123695,-1.133654475,-0.056889739,-0.163741201,0.270459414,-1,50,-6,28,2686,-8.704120636,3.536235809,0.909796655,0.223961711,-0.181594178,0.305232793,-62,-30,-29,32,161
1695163406395696000,-9.223662376,-2.091335297,-1.138442874,-0.060753446,-0.164807037,0.26339817,-1,55,-8,29,2686,-8.702922821,3.530250311,0.903811157,0.215168446,-0.177464008,0.302301675,-60,-25,-26,34,160
1695163406396696000,-9.212887764,-2.087743998,-1.140837073,-0.064883612,-0.165339977,0.256070435,0,54,-6,28,2686,-8.70172596,3.526659012,0.908599555,0.205842257,-0.173333839,0.298837662,-61,-31,-27,33,158
1695163406397696000,-9.199720383,-2.081758261,-1.15161097,-0.069679938,-0.165339977,0.248609498,-1,57,-6,29,2686,-8.702922821,3.524264812,0.905008256,0.195849925,-0.169203669,0.295107216,-62,-29,-28,31,162
1695163406426699700,-9.010578156,-2.027888775,-1.218648672,-0.257003069,-0.090597242,0.108583458,4,57,-5,28,2686,-8.722076416,3.251325846,0.806845963,0.06261868,-0.106584989,0.172401235,-62,-29,-31,34,156
1695163406427699700,-9.006986618,-2.035071373,-1.215057373,-0.265529871,-0.086733535,0.101921894,0,53,-6,30,2686,-8.719682693,3.236960649,0.797269166,0.063151613,-0.104453288,0.164407358,-61,-25,-28,32,160
1695163406428699700,-9.001001358,-2.043451071,-1.219845772,-0.273124039,-0.083269522,0.095393561,-1,54,-5,28,2686,-8.713697433,3.227383852,0.796072066,0.064350687,-0.102454826,0.156679943,-61,-25,-30,32,160
1695163406429699700,-8.997409821,-2.054224968,-1.224634171,-0.279785603,-0.07993874,0.089131698,2,53,-6,28,2686,-8.711302757,3.216609955,0.791283667,0.065949462,-0.100456357,0.148819283,-61,-27,-30,36,160
1695163406430699700,-8.995016098,-2.066195965,-1.22583127,-0.285514534,-0.076874427,0.083003066,0,51,-5,26,2686,-8.711302757,3.207033157,0.788889468,0.068214394,-0.098591112,0.140958652,-61,-29,-28,32,160
1695163406459681400,-9.017760277,-2.120065689,-1.295263171,-0.292176098,-0.043833077,-0.007594181,-1,49,-7,25,2686,-8.675390244,3.295618534,0.81761986,0.0976585,-0.042101074,-0.024781011,-62,-25,-30,34,161
1695163406460681400,-9.021351814,-2.11647439,-1.30005157,-0.290177643,-0.04103522,-0.011191424,2,55,-6,29,2686,-8.672995567,3.303998232,0.815225661,0.096459419,-0.038370594,-0.033441041,-61,-27,-28,32,162
1695163406461681400,-9.022548676,-2.11767149,-1.302445769,-0.288045943,-0.038237367,-0.014255743,0,52,-6,29,2686,-8.670601845,3.309983969,0.811634362,0.094594181,-0.034773353,-0.042234302,-61,-31,-29,33,162
1695163406462681400,-9.027337074,-2.120065689,-1.310825467,-0.285514534,-0.035039816,-0.016920367,1,51,-5,24,2686,-8.667010307,3.320757866,0.810437262,0.092862174,-0.031176111,-0.050894335,-61,-27,-25,35,164
1695163406463681400,-9.028534889,-2.122459888,-1.319205165,-0.282849908,-0.031709034,-0.019718224,2,53,-7,29,2686,-8.664615631,3.329137564,0.808043063,0.091130167,-0.02797856,-0.059287902,-61,-28,-29,31,162
1695163406490663000,-9.077615738,-2.171540976,-1.343147159,-0.172134757,0.035039816,-0.065416537,2,53,-6,27,2686,-8.655038834,3.38300705,0.909796655,0.098857582,0.032774884,-0.174666151,-64,-29,-29,32,164
1695163406491663000,-9.071630478,-2.166752577,-1.341950059,-0.16520673,0.03757121,-0.069013782,-1,54,-6,26,2686,-8.653841972,3.385401249,0.914585054,0.104320064,0.033574272,-0.178263396,-61,-31,-29,31,162
1695163406492663000,-9.070432663,-2.160767078,-1.333570361,-0.158545166,0.039836142,-0.07274425,-1,52,-6,26,2686,-8.653841972,3.391386747,0.919373453,0.109915771,0.034107197,-0.181860641,-60,-29,-31,32,161
1695163406493663000,-9.070432663,-2.15597868,-1.328781962,-0.15428178,0.041301683,-0.075542115,-1,54,-6,28,2686,-8.653841972,3.393780947,0.925358951,0.116044402,0.03437366,-0.185058191,-61,-27,-27,32,160
1695163406494663000,-9.072827339,-2.148796082,-1.327584863,-0.148419604,0.043566614,-0.079672284,-1,58,-6,27,2686,-8.65743351,3.393780947,0.932541549,0.122439511,0.034240428,-0.188122496,-62,-28,-28,36,160
1695163406520646300,-9.099164009,-1.964442492,-1.244984865,-0.12936753,0.085667685,-0.177064329,-1,53,-6,25,2686,-8.765172005,3.579331636,1.095347285,0.262731999,-0.004396631,-0.22382848,-61,-25,-28,34,161
1695163406521646300,-9.099164009,-1.959654093,-1.242590666,-0.129767224,0.088465542,-0.181327716,0,58,-5,28,2686,-8.768763542,3.593696833,1.101332784,0.265529871,-0.006261868,-0.225027561,-62,-27,-31,32,158
1695163406522646300,-9.101557732,-1.951274395,-1.238999367,-0.129900455,0.090996936,-0.1854579,-1,50,-6,28,2686,-8.774748802,3.618835926,1.107318282,0.269260317,-0.008926493,-0.226626337,-61,-25,-28,32,161
1695163406523646300,-9.102754593,-1.940500498,-1.237802267,-0.129767224,0.093395106,-0.189321592,-1,49,-6,26,2686,-8.7843256,3.652354717,1.122880578,0.27272436,-0.011724349,-0.229157731,-60,-27,-29,33,158
1695163406524646300,-9.105149269,-1.935712099,-1.231816769,-0.129633993,0.095793262,-0.192785591,-1,54,-6,28,2686,-8.789113998,3.67869091,1.131260276,0.274189889,-0.013589587,-0.2311562,-62,-29,-29,32,160
1695163406550628900,-9.097966194,-1.811213613,-1.126471877,-0.101522207,0.130033687,-0.209439516,-1,57,-5,28,2686,-8.68975544,4.135983467,1.259350061,0.08753293,0.030376723,-0.258335382,-63,-29,-29,34,161
1695163406551628900,-9.096769333,-1.810016513,-1.11569798,-0.098990813,0.132032156,-0.207441032,2,55,-6,27,2686,-8.683769226,4.144362926,1.26413846,0.071678407,0.032641653,-0.255670756,-61,-24,-27,33,160
1695163406552628900,-9.093177795,-1.806425214,-1.108515382,-0.09659265,0.133764163,-0.205042884,-1,55,-6,27,2686,-8.682572365,4.146757126,1.26294136,0.05595712,0.034240428,-0.252473205,-62,-28,-30,32,160
1695163406553628900,-9.093177795,-1.805228114,-1.100135684,-0.094061248,0.135629401,-0.202245027,-1,53,-8,29,2686,-8.688557625,4.149151325,1.26413846,0.040901989,0.035572741,-0.248343036,-61,-28,-33,33,161
1695163406554628900,-9.091980934,-1.800439715,-1.091755986,-0.091263399,0.137094945,-0.199713632,-1,49,-6,27,2686,-8.690952301,4.145560265,1.260547161,0.026246555,0.03650536,-0.243813157,-60,-28,-29,31,160
1695163406580612100,-9.129091263,-1.759738207,-0.9660604,-0.047830015,0.101655439,-0.146687597,1,52,-6,27,2686,-8.877699852,3.810372114,1.191115379,-0.010392036,-0.017719755,-0.08833231,-62,-31,-30,31,160
1695163406581612100,-9.130288124,-1.760935307,-0.9672575,-0.047163859,0.098191425,-0.143623278,8,53,-4,29,2686,-8.880094528,3.79361248,1.185129881,0.000932619,-0.023448698,-0.080604896,-61,-29,-31,32,161
1695163406582612100,-9.126696587,-1.762132406,-0.9672575,-0.046630934,0.095127106,-0.140825421,-1,51,-6,26,2686,-8.875306129,3.779247284,1.179144382,0.012656967,-0.02917764,-0.073143952,-60,-27,-29,31,158
1695163406583612100,-9.125499725,-1.759738207,-0.968454599,-0.04623124,0.092196018,-0.137894332,-1,53,-6,27,2686,-8.870517731,3.768473387,1.181538582,0.024781011,-0.035173047,-0.065949462,-60,-27,-31,32,160
1695163406584612100,-9.123106003,-1.756146908,-0.961272001,-0.045831546,0.089931086,-0.134963244,0,51,-6,27,2686,-8.863334656,3.761290789,1.185129881,0.036771823,-0.040768761,-0.059287902,-63,-25,-29,34,161
1695163406615568700,-9.072827339,-1.812410712,-0.934935749,-0.028111791,0.08020521,-0.078606427,0,51,-6,26,2686,-8.617929459,3.888183594,1.201889277,0.08313629,-0.061819296,0.005728943,-65,-28,-32,34,160
1695163406616568700,-9.076418877,-1.816002011,-0.93014735,-0.02571363,0.078872897,-0.076474734,0,53,-5,26,2686,-8.610746384,3.889380693,1.201889277,0.076208271,-0.06008729,0.005728943,-64,-24,-29,32,162
1695163406617568700,-9.082404137,-1.81959331,-0.92895025,-0.023315467,0.077540584,-0.07474272,2,57,-6,28,2686,-8.601169586,3.889380693,1.199495077,0.069013782,-0.05808882,0.005462481,-60,-27,-29,31,160
1695163406618568700,-9.083600998,-1.825578809,-0.918176353,-0.02051761,0.075808577,-0.073277183,4,52,-6,28,2686,-8.595184326,3.886986494,1.201889277,0.061686065,-0.056223582,0.004796324,-62,-27,-29,33,160
1695163406619568700,-9.085995674,-1.829170108,-0.918176353,-0.017986218,0.073943339,-0.071678407,0,50,-6,23,2686,-8.590395927,3.885789394,1.204283476,0.054091886,-0.054491576,0.003996937,-62,-31,-29,33,158
1695163406647573800,-9.060855865,-1.772906303,-0.962469101,0.011457887,0.018785605,-0.069546707,0,51,-6,27,2686,-8.921992302,3.876212597,1.045069098,-0.010258805,-0.06261868,-0.010658499,-60,-29,-29,34,165
1695163406648573800,-9.060855865,-1.765723705,-0.974440098,0.010525269,0.015188362,-0.070745789,-1,53,-7,28,2686,-8.929175377,3.891774893,1.046266198,-0.009059724,-0.062485453,-0.011191424,-61,-28,-25,34,162
1695163406649573800,-9.056067467,-1.759738207,-0.988805294,0.009459418,0.01185758,-0.07194487,0,54,-6,27,2686,-8.930372238,3.90135169,1.047463298,-0.008393568,-0.061952524,-0.011324655,-63,-25,-28,34,162
1695163406650573800,-9.056067467,-1.74776721,-1.00436759,0.008127105,0.008526799,-0.073277183,-1,51,-6,22,2686,-8.926780701,3.913322687,1.051054597,-0.007594181,-0.061019909,-0.011457887,-60,-28,-31,34,162
1695163406651573800,-9.052476883,-1.736993313,-1.022324085,0.0063951,0.005329249,-0.07474272,0,53,-6,24,2686,-8.913613319,3.928884983,1.054645896,-0.006928025,-0.059421133,-0.011457887,-60,-25,-27,32,162
1695163406678535800,-9.056067467,-1.483207941,-1.253364563,-0.035972435,0.031842265,-0.06461715,0,51,-6,26,2686,-8.374917984,4.013879299,0.944512546,-0.047163859,-0.041168455,0.114845328,-62,-28,-28,36,161
1695163406679535800,-9.06803894,-1.466448545,-1.259350061,-0.038104136,0.037171517,-0.058754977,0,50,-5,25,2686,-8.36893177,3.995922565,0.937329948,-0.04729709,-0.042900458,0.127768755,-61,-27,-25,33,160
1695163406680535800,-9.077615738,-1.44849205,-1.26294136,-0.040502299,0.042633995,-0.052359879,0,53,-6,26,2686,-8.367734909,3.97916317,0.932541549,-0.046764165,-0.044765696,0.140692189,-60,-27,-25,34,161
1695163406681535800,-9.089587212,-1.436521053,-1.261744261,-0.043433387,0.048362937,-0.045565084,-1,53,-6,26,2686,-8.374917984,3.960009575,0.924161851,-0.045431852,-0.046764165,0.153615624,-60,-25,-31,34,160
1695163406682535800,-9.105149269,-1.429338455,-1.26413846,-0.046364475,0.054358348,-0.037970904,0,53,-5,27,2686,-8.383296967,3.938461781,0.915782154,-0.043433387,-0.049162328,0.16573967,-60,-29,-25,33,160
1695163406712516400,-9.344569206,-1.756146908,-1.036689281,0.032641653,0.06261868,0.196116373,-1,52,-7,26,2686,-8.640673637,3.714603901,0.78170687,0.033840735,-0.09272895,0.2809847,-60,-25,-27,33,154
1695163406713516400,-9.351752281,-1.776497602,-1.028309584,0.04729709,0.055424199,0.20824042,-1,50,-7,26,2686,-8.640673637,3.712209702,0.772130072,0.032774884,-0.091263399,0.282317013,-61,-25,-24,33,160
1695163406714516400,-9.360131264,-1.794454217,-1.024718285,0.062218986,0.047430322,0.219565079,-1,51,-6,26,2686,-8.639476776,3.711012602,0.764947414,0.031176111,-0.089264929,0.283516079,-62,-23,-28,34,163
1695163406715516400,-9.363722801,-1.814804912,-1.013944387,0.07714089,0.038770292,0.230090365,0,51,-7,24,2686,-8.640673637,3.705027103,0.756567717,0.02904441,-0.086999997,0.284715146,-61,-25,-25,34,161
1695163406716516400,-9.3685112,-1.833958507,-1.006761789,0.091929555,0.029577335,0.239949465,1,55,-6,27,2686,-8.641871452,3.702632904,0.751779318,0.026113322,-0.084068909,0.28564778,-65,-32,-28,32,164
1695163406742513500,-9.193734169,-1.887827992,-1.011550188,0.162675351,-0.10285452,0.268860638,-1,53,-20,27,2686,-8.627506256,3.569754839,0.788889468,-0.014388974,0.030376723,0.278320044,-63,-27,-25,34,163
1695163406743513500,-9.179368973,-1.889025092,-1.015141487,0.15428178,-0.104852989,0.261666149,0,49,-8,27,2686,-8.626308441,3.56736064,0.798466265,-0.015987748,0.035839204,0.277254194,-60,-25,-30,34,162
1695163406744513500,-9.169792175,-1.890222192,-1.019929886,0.144689128,-0.106318533,0.253938764,-1,50,-6,26,2686,-8.628703117,3.569754839,0.812831461,-0.017852986,0.040901989,0.27632159,-61,-29,-27,33,164
1695163406745513500,-9.159018517,-1.893813491,-1.027112484,0.133897394,-0.107517615,0.245012254,-1,51,-6,27,2686,-8.629899979,3.574543238,0.824802458,-0.020251149,0.045431852,0.275122523,-62,-28,-26,36,160
1695163406746513500,-9.15063858,-1.89860189,-1.036689281,0.122572735,-0.108316995,0.235819295,0,50,-6,27,2686,-8.632294655,3.575740337,0.839167714,-0.023049004,0.049562022,0.273923427,-62,-27,-27,35,162
1695163406778478300,-9.063250542,-2.04464817,-1.125274777,-0.097924963,-0.075808577,0.009326187,1,58,-6,26,2686,-8.716091156,3.463212729,1.100135684,-0.145488501,0.084735066,0.220364481,-61,-27,-28,36,164
1695163406779478300,-9.057265282,-2.04823947,-1.131260276,-0.101522207,-0.072344564,-0.002531394,-2,53,-6,27,2686,-8.723274231,3.447650433,1.100135684,-0.150151595,0.085267991,0.21556814,-61,-25,-29,34,161
1695163406780478300,-9.053673744,-2.04584527,-1.140837073,-0.103920363,-0.068747319,-0.01398928,-1,51,-6,26,2686,-8.72806263,3.429693937,1.106121182,-0.15428178,0.085267991,0.210638598,-60,-25,-29,36,162
1695163406781478300,-9.054870605,-2.04584527,-1.150413871,-0.105652377,-0.065150075,-0.025180703,-2,51,-6,26,2686,-8.73404789,3.415328741,1.106121182,-0.157612562,0.085534461,0.205309346,-60,-25,-28,31,161
1695163406782478300,-9.058462143,-2.042253971,-1.162384868,-0.106318533,-0.061552834,-0.036105666,0,51,-6,24,2686,-8.737639427,3.400963545,1.108515382,-0.160010725,0.085534461,0.199846849,-60,-31,-27,34,162
1695163406823472500,-9.113529205,-1.593341231,-1.399410844,-0.106851459,-0.058888208,-0.187189892,1,52,-9,28,2686,-8.765172005,3.324349165,1.144428372,-0.111647777,0.079805516,0.092595711,-65,-28,-24,31,160
1695163406824472500,-9.113529205,-1.565807939,-1.41138196,-0.112180702,-0.057156201,-0.191053599,0,51,-6,27,2686,-8.765172005,3.333925962,1.15161097,-0.107650839,0.078606427,0.087932616,-62,-28,-29,33,160
1695163406825472500,-9.109937668,-1.543063045,-1.416170359,-0.118042871,-0.055024505,-0.193851456,1,55,-6,28,2686,-8.769960403,3.34469986,1.15280807,-0.103920363,0.077407345,0.083402753,-60,-28,-28,36,163
1695163406826472500,-9.111134529,-1.52510643,-1.418564558,-0.124437973,-0.052093416,-0.195716694,2,48,-6,28,2686,-8.775946617,3.353079557,1.15280807,-0.100323126,0.075941809,0.079139359,-60,-28,-27,34,158
1695163406827472500,-9.109937668,-1.503558636,-1.424550056,-0.130699843,-0.048762634,-0.19638285,1,54,-6,28,2686,-8.783128738,3.362656355,1.15161097,-0.097125575,0.074343033,0.07474272,-60,-24,-24,34,164
1695163406857454400,-9.101557732,-1.436521053,-1.357512355,-0.214369074,0.030643184,-0.067415006,-1,51,-5,28,2686,-8.813055992,3.547009706,1.133654475,-0.075542115,0.034107197,0.025846859,-60,-25,-28,34,165
1695163406858454400,-9.101557732,-1.44968915,-1.351526856,-0.212370604,0.031842265,-0.059820827,1,52,-6,28,2686,-8.81066227,3.549403906,1.126471877,-0.075275652,0.03237519,0.025180703,-62,-27,-29,34,162
1695163406859454400,-9.101557732,-1.470039845,-1.341950059,-0.208506882,0.033174578,-0.048362937,2,55,-5,24,2686,-8.81066227,3.552995205,1.122880578,-0.074609496,0.030776417,0.024914242,-63,-28,-32,32,156
1695163406860454400,-9.101557732,-1.495178938,-1.331176162,-0.203444093,0.033973966,-0.036771823,3,51,-6,26,2686,-8.808267593,3.552995205,1.124077678,-0.073943339,0.02917764,0.024781011,-63,-25,-29,32,158
1695163406861454400,-9.10036087,-1.519120932,-1.323993564,-0.197182223,0.034506891,-0.025047474,0,52,-6,28,2686,-8.805873871,3.554192305,1.11689508,-0.07301072,0.027578866,0.024647778,-59,-24,-29,36,163
1695163406891434500,-9.047688484,-1.74896431,-1.192312479,-0.033707503,-0.016387442,0.111381322,-1,53,-4,28,2686,-8.732851028,3.561375141,1.058237195,-0.023049004,0.011058193,0.036105666,-60,-26,-29,32,161
1695163406892434500,-9.036913872,-1.750161409,-1.18991828,-0.031042879,-0.01825268,0.112580396,5,51,-5,26,2686,-8.72806263,3.563769341,1.060631394,-0.021316998,0.01079173,0.036238898,-62,-28,-33,33,164
1695163406893434500,-9.027337074,-1.750161409,-1.191115379,-0.029444104,-0.019584993,0.113379791,1,50,-6,27,2686,-8.717288017,3.56496644,1.066616893,-0.018652374,0.010525269,0.036238898,-61,-28,-29,32,162
1695163406894434500,-9.020154953,-1.751358509,-1.186326981,-0.028644716,-0.020917306,0.113646246,3,53,-6,32,2686,-8.705317497,3.570951939,1.071405292,-0.016653905,0.010392036,0.036372125,-61,-25,-31,35,161
1695163406895434500,-9.009381294,-1.754949808,-1.183932781,-0.028511487,-0.02158346,0.113113321,2,54,-5,28,2686,-8.6957407,3.575740337,1.071405292,-0.014921899,0.010125575,0.036372125,-61,-25,-31,36,160
1695163406923415400,-8.935160637,-1.817199111,-1.149216771,-0.103520676,0.008393568,0.033041347,2,50,-6,29,2686,-8.534132004,3.608062029,1.122880578,-0.016254211,-0.032774884,0.034107197,-60,-26,-31,33,161
1695163406924415400,-8.936357498,-1.816002011,-1.15161097,-0.107251145,0.012124043,0.025313934,0,50,-6,25,2686,-8.530540466,3.606864929,1.11450088,-0.016920367,-0.033973966,0.032508422,-59,-25,-28,32,164
1695163406925415400,-8.938752174,-1.814804912,-1.149216771,-0.109382853,0.014655436,0.019851454,-1,50,-6,25,2686,-8.532935143,3.60447073,1.112106681,-0.017320061,-0.03437366,0.031176111,-60,-28,-28,36,161
1695163406926415400,-8.942343712,-1.814804912,-1.144428372,-0.111114852,0.016920367,0.014255743,0,50,-6,27,2686,-8.532935143,3.60447073,1.110909581,-0.017986218,-0.034773353,0.028777948,-60,-26,-25,31,162
1695163406927415400,-8.944737434,-1.816002011,-1.140837073,-0.112047479,0.018385911,0.01079173,0,49,-5,28,2686,-8.532935143,3.60447073,1.104924083,-0.018519141,-0.034640122,0.025846859,-62,-28,-31,34,162
1695163406959373300,-9.053673744,-1.686715126,-1.125274777,-0.076607957,0.028111791,-0.021316998,0,52,-8,26,2686,-8.652645111,3.629609823,1.095347285,-0.038770292,0.02917764,-0.04103522,-61,-27,-32,35,164
1695163406960373300,-9.060855865,-1.674744129,-1.124077678,-0.073543645,0.02797856,-0.018918836,3,51,-6,26,2686,-8.664615631,3.636792421,1.097741485,-0.039436448,0.033973966,-0.044232771,-62,-27,-27,34,162
1695163406961373300,-9.06803894,-1.663970232,-1.128866076,-0.070612557,0.027712099,-0.01612098,0,51,-6,24,2686,-8.676587105,3.643975019,1.100135684,-0.039836142,0.038637057,-0.047430322,-61,-31,-24,37,165
1695163406962373300,-9.077615738,-1.655590534,-1.126471877,-0.068081163,0.027712099,-0.012790199,-1,51,-6,29,2686,-8.690952301,3.649960518,1.103726983,-0.040369064,0.043033689,-0.050494641,-60,-25,-25,32,161
1695163406963373300,-9.083600998,-1.644816518,-1.121683478,-0.065549769,0.028111791,-0.009059724,2,53,-6,26,2686,-8.706514359,3.654748917,1.107318282,-0.04103522,0.047430322,-0.053692192,-60,-22,-29,35,163
1695163407004362500,-9.18296051,-1.659181833,-1.071405292,-0.046630934,0.022382848,0.099790201,5,53,-6,27,2686,-8.943540573,3.776853085,1.165976286,-0.095660031,0.085800916,-0.120574266,-62,-24,-28,36,163
1695163407005362500,-9.191340446,-1.67234993,-1.072602391,-0.045964777,0.021183766,0.104186833,0,53,-8,24,2686,-8.931569099,3.781641483,1.167173386,-0.097924963,0.085401222,-0.122705974,-58,-28,-32,34,160
1695163407006362500,-9.197325706,-1.681926727,-1.070208192,-0.045431852,0.019851454,0.108316995,0,51,-6,26,2686,-8.921992302,3.782838583,1.174355984,-0.099257268,0.084868304,-0.123771824,-61,-25,-29,34,160
1695163407007362500,-9.200917244,-1.689109325,-1.071405292,-0.04516539,0.018918836,0.110715166,4,55,-6,28,2686,-8.902838707,3.787626982,1.181538582,-0.101522207,0.083535992,-0.124304749,-60,-28,-28,34,162
1695163407008362500,-9.206902504,-1.703474522,-1.072602391,-0.044499233,0.017586524,0.114179172,0,54,-5,26,2686,-8.889671326,3.79361248,1.191115379,-0.103653908,0.08207044,-0.124437973,-60,-25,-29,34,161
1695163407042324700,-9.194931984,-1.889025092,-1.069011092,-0.051294025,0.000266462,0.10178867,2,51,-7,29,2686,-8.798690796,3.773261786,1.07739079,-0.03130934,0.008660031,-0.035705972,-61,-29,-28,37,160
1695163407043324700,-9.18296051,-1.892616391,-1.070208192,-0.052226644,0.001598775,0.097525269,1,53,-6,24,2686,-8.808267593,3.781641483,1.071405292,-0.022915773,0.003064318,-0.028111791,-60,-24,-25,34,164
1695163407044324700,-9.175778389,-1.89860189,-1.071405292,-0.052759573,0.003064318,0.092995405,-1,53,-6,27,2686,-8.81664753,3.79361248,1.067813993,-0.015721286,-0.002664625,-0.020917306,-60,-25,-27,36,162
1695163407045324700,-9.167398453,-1.905784607,-1.071405292,-0.053425729,0.004529862,0.088199086,-1,53,-8,28,2686,-8.821435928,3.799597979,1.058237195,-0.008526799,-0.007727412,-0.01385605,-59,-25,-25,36,162
1695163407046324700,-9.162610054,-1.909375906,-1.074996591,-0.054091886,0.006261868,0.083269522,2,52,-6,22,2686,-8.828619003,3.804386616,1.047463298,-0.000666156,-0.013323124,-0.006661562,-61,-25,-27,37,162
1695163407088298000,-9.238027573,-1.890222192,-1.55862534,-0.142157733,-0.008660031,-0.050494641,-1,51,-8,22,2686,-8.672995567,3.720589399,0.998382092,-0.077807046,0.008793262,0.048496172,-60,-25,-28,36,165
1695163407089298000,-9.235632896,-1.886630893,-1.56101954,-0.141491577,-0.0063951,-0.052093416,-2,47,-7,20,2686,-8.672995567,3.715801001,0.998382092,-0.077007659,0.008660031,0.04969525,-60,-34,-23,34,160
1695163407090298000,-9.236829758,-1.883039594,-1.555034041,-0.140958652,-0.004130168,-0.053958651,-1,49,-9,24,2686,-8.671798706,3.711012602,0.993593693,-0.076075032,0.008393568,0.050761104,-60,-22,-29,33,162
1695163407091298000,-9.233239174,-1.883039594,-1.550245643,-0.140558958,-0.001998469,-0.055557426,-1,48,-11,20,2686,-8.670601845,3.706224203,0.990002394,-0.075142421,0.008393568,0.051693719,-61,-25,-27,36,164
1695163407092298000,-9.233239174,-1.877054095,-1.543063045,-0.140026033,0.000266462,-0.057422664,-2,47,-9,21,2686,-8.66940403,3.699041605,0.987608194,-0.074076563,0.008393568,0.052626338,-58,-27,-27,34,161
1695163407324856100,-9.089587212,-2.103306293,-1.343147159,-0.163741201,-0.000266462,-0.060620211,-10,41,-16,14,2686,-9.066842079,3.434482336,0.733822823,-0.403424203,0.093794793,0.013722817,-61,-24,-2,33,162
1695163407325856100,-9.084798813,-2.096123695,-1.350329757,-0.160543635,0.000799387,-0.063551299,-6,45,-13,18,2686,-9.051279068,3.397372246,0.715866327,-0.401958644,0.088065848,0.010658499,-57,-25,-3,34,160
1695163407326856100,-9.077615738,-2.087743998,-1.356315255,-0.156946406,0.001598775,-0.065949462,-8,45,-12,17,2686,-9.044096947,3.374627352,0.707486629,-0.399427265,0.085267991,0.008260337,-60,-29,-2,36,162
1695163407327856100,-9.077615738,-2.076969862,-1.364694953,-0.152949467,0.002531394,-0.068081163,-7,44,-12,16,2686,-9.032125473,3.34230566,0.695515573,-0.393831551,0.082203679,0.003996937,-59,-27,-2,34,164
1695163407328856100,-9.0740242,-2.069787264,-1.370680451,-0.14908576,0.003330781,-0.070212863,-9,45,-13,16,2686,-9.018958092,3.308786631,0.682347476,-0.385970891,0.08020521,-0.000932619,-59,-29,-4,32,167
1695163407451777700,-9.11233139,-2.147598982,-1.173158884,0.054358348,0.001465544,0.035572741,4,55,-4,29,2686,-8.681375504,3.75650239,1.07739079,0.029444104,0.000799387,-0.099790201,-60,-25,-17,30,164
1695163407452777700,-9.111134529,-2.146401882,-1.177947283,0.060486984,-0.000266462,0.034906585,-1,54,-4,30,2686,-8.680178642,3.762487888,1.07739079,0.03130934,-0.000666156,-0.0976585,-58,-24,-16,31,164
1695163407453777700,-9.108740807,-2.146401882,-1.18991828,0.066482387,-0.002264931,0.034107197,0,51,-5,27,2686,-8.681375504,3.767276287,1.074996591,0.032508422,-0.001465544,-0.096192956,-60,-27,-15,30,161
1695163407454777700,-9.10634613,-2.144007683,-1.193509579,0.07194487,-0.004396631,0.033840735,1,53,-5,25,2686,-8.682572365,3.770867586,1.073799491,0.034240428,-0.002664625,-0.093928024,-59,-23,-17,31,161
1695163407455777700,-9.102754593,-2.139219284,-1.195903778,0.077407345,-0.0063951,0.033707503,0,50,-8,28,2686,-8.686163902,3.779247284,1.067813993,0.036238898,-0.003996937,-0.091663092,-60,-29,-18,31,162
1695163407528733600,-9.060855865,-2.076969862,-1.163581967,0.479366004,0.08513476,0.542517602,-3,46,-11,20,2686,-5.336675644,2.890998602,2.650381327,-1.087433338,3.555542231,-2.801053762,-74,-18,-40,20,155
1695163407529733600,-9.051279068,-2.084152699,-1.148019671,0.49495405,0.084735066,0.551977038,-5,47,-9,20,2686,-5.495890141,2.879027605,2.677914619,-1.093295574,3.574860811,-2.828099489,-74,-23,-39,20,152
1695163407530733600,-9.041702271,-2.091335297,-1.134851575,0.510142446,0.084202148,0.561569631,-3,46,-12,22,2686,-5.6515131,2.855085611,2.704250813,-1.097159266,3.593513012,-2.852747202,-72,-25,-39,20,153
1695163407531733600,-9.03571701,-2.097320795,-1.118092179,0.52506429,0.083269522,0.570629418,-4,45,-9,22,2686,-5.804741859,2.82036972,2.734178305,-1.097425699,3.611366034,-2.874464035,-73,-27,-39,22,152
1695163407532733600,-9.027337074,-2.098517895,-1.108515382,0.539453328,0.08207044,0.579555929,-4,45,-11,20,2686,-5.962759495,2.785653591,2.765302896,-1.095293999,3.62868619,-2.893382788,-75,-24,-40,20,152
1695163407569710900,-10.21127033,-2.442085743,-0.974440098,-0.108316995,0.310961694,0.377577305,-3,46,-12,18,2686,-9.375694275,3.816357613,-1.777694821,-0.785398185,-0.402758032,0.293241978,-67,-29,-31,28,156
1695163407570710900,-10.15740108,-2.45166254,-0.948103845,-0.141491577,0.32934764,0.366519153,-6,44,-11,18,2686,-9.300276756,3.807977915,-1.768117905,-0.7770046,-0.398228168,0.301901996,-63,-29,-30,29,151
1695163407571710900,-10.10113716,-2.468421936,-0.916979253,-0.173999995,0.347866774,0.356926501,-6,47,-14,18,2686,-9.226056099,3.799597979,-1.754949808,-0.768211305,-0.392499238,0.31322667,-65,-28,-31,30,151
1695163407572710900,-10.0412817,-2.493561029,-0.889445961,-0.205442563,0.366385907,0.348799407,-3,45,-11,20,2686,-9.157821655,3.790021181,-1.739387512,-0.759151578,-0.385704458,0.326683015,-63,-27,-29,30,153
1695163407573710900,-9.979032516,-2.522291422,-0.865503907,-0.234886676,0.385171533,0.341871351,-7,45,-11,18,2686,-9.11233139,3.785232782,-1.732204914,-0.752889752,-0.380508423,0.336941808,-65,-29,-29,31,152
1695163407604689400,-8.907627106,-2.290053844,-0.248996973,-0.553975463,0.187056661,-0.041701376,-6,44,-9,18,2686,-9.947908401,3.552995205,-0.955286503,-0.392499238,-0.365586549,0.035173047,-67,-31,-32,28,152
1695163407605689400,-8.917203903,-2.288856745,-0.252588272,-0.563301682,0.200379789,-0.054624807,-8,43,-12,16,2686,-9.955090523,3.562572241,-0.978031397,-0.371581942,-0.378643185,0.028511487,-69,-32,-32,27,151
1695163407606689400,-8.929175377,-2.286462545,-0.252588272,-0.572228134,0.213303223,-0.066882081,-10,43,-11,16,2686,-9.962273598,3.574543238,-1.000776291,-0.349199086,-0.390900433,0.023182238,-67,-32,-32,24,151
1695163407607689400,-8.941145897,-2.287659645,-0.251391172,-0.580355287,0.225826949,-0.07820674,-9,42,-9,15,2686,-9.962273598,3.582922935,-1.021126986,-0.325483918,-0.402091891,0.018918836,-66,-31,-31,25,151
1695163407608689400,-8.948328972,-2.288856745,-0.250194073,-0.585551262,0.233954057,-0.08513476,-4,39,-10,18,2686,-9.963470459,3.591302633,-1.045069098,-0.3007029,-0.412483901,0.016254211,-69,-32,-29,26,151
1695163407638673200,-9.254786491,-2.743755102,-1.192312479,-0.016787136,0.118842266,-0.099124044,-6,46,-11,15,2686,-8.366538048,3.113659382,1.229422569,-0.115111791,0.013589587,-0.164274111,-71,-33,-33,26,152
1695163407639673200,-9.295488358,-2.82156682,-1.212663174,-0.023049004,0.12616998,-0.108183771,-8,41,-9,16,2686,-8.359354973,3.123236179,1.221042871,-0.113646246,0.011724349,-0.18492496,-70,-31,-31,25,152
1695163407640673200,-9.338583946,-2.905363798,-1.248576164,-0.030643184,0.133098006,-0.118042871,-7,43,-11,15,2686,-8.361749649,3.131615877,1.213860273,-0.111781009,0.009859112,-0.205042884,-67,-29,-32,25,151
1695163407641673200,-9.382876396,-2.997540474,-1.286883354,-0.03996937,0.139493108,-0.128834605,-9,45,-9,18,2686,-8.365341187,3.141192675,1.204283476,-0.109382853,0.008260337,-0.224761114,-70,-29,-32,24,152
1695163407642673200,-9.43315506,-3.095702887,-1.325190663,-0.051693719,0.145888209,-0.140558958,-7,45,-9,16,2686,-8.367734909,3.151966572,1.195903778,-0.106451757,0.006528331,-0.243679941,-71,-32,-31,26,151
1695163407671651300,2.888604403,-9.558850288,-1.110909581,-0.176531389,0.027179174,0.086467072,4,37,-15,18,2686,-8.46589756,3.937264681,0.712275028,-0.202245027,0.02691271,0.276987731,-73,-32,-33,22,154
1695163407672651300,2.890998602,-9.564835548,-1.107318282,-0.180661559,0.034906585,0.094460949,6,39,-13,19,2686,-8.470685959,3.931279182,0.723048925,-0.201978564,0.033307809,0.279252678,-71,-34,-34,22,151
1695163407673651300,2.887407303,-9.568427086,-1.106121182,-0.18385911,0.043300152,0.103120975,6,37,-11,16,2686,-8.47188282,3.926490784,0.733822823,-0.201845318,0.039436448,0.28205052,-67,-31,-34,24,151
1695163407674651300,2.885013103,-9.572018623,-1.109712481,-0.186124057,0.052093416,0.112180702,8,36,-17,17,2686,-8.474276543,3.922899485,0.749385118,-0.201445624,0.045565084,0.284848392,-71,-29,-33,24,151
1695163407675651300,2.880224705,-9.576807022,-1.113303781,-0.187189892,0.06115314,0.121506892,8,39,-13,18,2686,-8.476671219,3.914519787,0.766144514,-0.201179162,0.05142726,0.28777948,-70,-31,-34,25,152
1695163407704632900,2.766499996,-8.598775864,-4.493916512,-0.022915773,-0.054225113,0.036372125,9,25,-112,-19,11,-8.574832916,3.804386616,1.307234168,0.086999997,-0.031709034,0.041834611,-73,-32,-34,22,151
1695163407705632900,2.777273893,-8.607154846,-4.50109911,-0.020917306,-0.056356817,0.037038282,17,26,-111,-18,9,-8.576030731,3.805583715,1.315613866,0.086200617,-0.031575806,0.040369064,-72,-34,-34,20,150
1695163407706632900,2.784456491,-8.614337921,-4.49870491,-0.018785605,-0.058621746,0.037837673,16,25,-111,-20,9,-8.577227592,3.803189516,1.316810966,0.085534461,-0.031442571,0.038903523,-73,-34,-33,24,151
1695163407707632900,2.795230389,-8.617929459,-4.503493309,-0.016787136,-0.06115314,0.038237367,17,23,-111,-19,9,-8.579621315,3.803189516,1.321599364,0.085001536,-0.031442571,0.037437979,-71,-34,-34,21,150
1695163407708632900,2.808398485,-8.628703117,-4.502296448,-0.015188362,-0.063817769,0.038237367,9,27,-109,-21,8,-8.58081913,3.803189516,1.328781962,0.084735066,-0.03130934,0.035972435,-74,-34,-34,18,150
1695163407734637600,9.071630478,-0.359130263,5.896918774,-0.08726646,-0.365852982,-0.170935676,145,31,-87,3,2686,-8.688557625,3.811569214,2.261323452,0.417813152,-0.051294025,-1.072511435,-73,-33,-56,14,151
1695163407735637600,9.083600998,-0.368707061,5.896918774,-0.085800916,-0.354395092,-0.176931083,142,32,-87,3,2686,-8.711302757,3.828328609,2.243366957,0.423675328,-0.052226644,-1.088898897,-75,-34,-49,15,151
1695163407736637600,9.091980934,-0.384269387,5.894524574,-0.08233691,-0.341338426,-0.182393566,144,32,-87,3,2686,-8.732851028,3.847482204,2.22900176,0.429803967,-0.0528928,-1.104486942,-74,-34,-49,13,151
1695163407737637600,9.093177795,-0.405817181,5.886145115,-0.076075032,-0.326283306,-0.187589586,143,32,-86,6,2686,-8.754398346,3.872621298,2.208651066,0.435932606,-0.053026035,-1.119542003,-71,-34,-49,15,151
1695163407738637600,9.093177795,-0.436941803,5.882553577,-0.067947932,-0.310029089,-0.191986218,144,35,-84,4,2686,-8.773551941,3.894169092,2.190694571,0.441927999,-0.053159267,-1.134064317,-72,-33,-48,14,150
1695163407764600900,7.863755703,-0.16879122,6.4715271,0.27059263,0.399560481,-0.462978572,421,32,-83,8,2686,-8.476671219,4.149151325,1.426944256,0.120041348,-0.058355279,-0.019185297,-71,-33,-43,17,151
1695163407765600900,7.857769966,-0.191536129,6.494272232,0.225027561,0.380508423,-0.444592625,424,32,-84,8,2686,-8.480262756,4.150348663,1.425747156,0.120707504,-0.059554365,-0.01825268,-71,-34,-45,18,146
1695163407766600900,7.841010571,-0.197521642,6.525396824,0.183059722,0.361456335,-0.425807029,425,32,-83,11,2686,-8.481459618,4.152742863,1.429338455,0.121107198,-0.060353752,-0.017719755,-74,-34,-47,17,151
1695163407767600900,7.844601631,-0.214281052,6.536170483,0.145222053,0.343603373,-0.408753455,424,30,-88,7,2686,-8.480262756,4.156333923,1.434126854,0.121640123,-0.061286367,-0.016920367,-76,-33,-44,18,151
1695163407768600900,7.850587368,-0.238223076,6.548141479,0.112846859,0.323485464,-0.391166925,428,32,-85,9,2686,-8.47786808,4.163516521,1.429338455,0.122039817,-0.062218986,-0.016254211,-72,-33,-47,17,150
1695163407795581600,8.285135269,-1.191115379,6.180631638,-0.098857582,-0.026646247,-0.024914242,5,21,-101,4,19,-8.632294655,3.872621298,1.484405041,0.067548238,-0.021716693,0.013056661,-75,-34,-47,15,150
1695163407796581600,8.283937454,-1.18991828,6.180631638,-0.097525269,-0.024248086,-0.025180703,5,19,-102,3,16,-8.633491516,3.875015497,1.489193439,0.069147013,-0.023448698,0.012523737,-75,-34,-47,16,149
1695163407797581600,8.285135269,-1.191115379,6.185420036,-0.096725874,-0.022649311,-0.025180703,8,18,-101,2,19,-8.635885239,3.877409697,1.490390539,0.07087902,-0.025047474,0.011990812,-74,-34,-45,17,151
1695163407798581600,8.288725853,-1.191115379,6.190208435,-0.095393561,-0.020251149,-0.025580399,4,17,-102,3,67,-8.637083054,3.878606796,1.489193439,0.072344564,-0.02691271,0.011591119,-74,-34,-45,15,151
1695163407799581600,8.285135269,-1.18991828,6.191405773,-0.094327718,-0.017719755,-0.02571363,2,18,-101,0,84,-8.639476776,3.885789394,1.492784739,0.073810108,-0.028777948,0.011191424,-73,-33,-41,18,151
1695163407829563100,8.426392555,-1.576581836,5.846640587,-0.028511487,0.145355284,0.201312408,36,19,-72,0,2686,-8.601169586,3.985148668,1.380257249,0.016653905,-0.007327718,0.016920367,-75,-34,-47,16,151
1695163407830563100,8.406042099,-1.612494826,5.883750439,-0.030509954,0.15428178,0.205442563,33,23,-74,0,2686,-8.602366447,3.991134167,1.386242747,0.015454824,-0.007194487,0.016787136,-73,-34,-44,16,150
1695163407831563100,8.382100105,-1.647210717,5.916072369,-0.033307809,0.162941799,0.209173039,33,23,-75,1,2686,-8.605957985,3.994725466,1.388636947,0.014255743,-0.007194487,0.016787136,-74,-34,-44,16,149
1695163407832563100,8.348581314,-1.689109325,5.953182697,-0.036372125,0.170935676,0.213036761,34,21,-75,-3,2686,-8.607154846,3.998316765,1.392228246,0.013056661,-0.007061256,0.016787136,-73,-34,-44,18,150
1695163407833563100,8.310274124,-1.735796213,5.983109951,-0.039303213,0.178263396,0.216500759,35,20,-73,-3,2686,-8.608352661,3.999513865,1.398213744,0.01185758,-0.007460949,0.016787136,-75,-34,-47,16,149
1695163407867541000,5.452794552,-7.727285862,3.171120167,-1.186424136,0.643906593,0.231689125,41,22,-100,-5,2686,-8.605957985,3.726574898,1.053448796,0.05249311,-0.018918836,0.043033689,-74,-34,-46,17,151
1695163407868541000,5.446808815,-7.735665798,3.154360771,-1.202811599,0.640842259,0.224094957,42,21,-98,-7,2686,-8.609549522,3.724180698,1.043871999,0.0528928,-0.019052068,0.042633995,-73,-34,-44,17,150
1695163407869541000,5.442020416,-7.746439457,3.138798475,-1.22066462,0.638577342,0.216900453,39,23,-102,-4,2686,-8.61314106,3.724180698,1.037886381,0.053425729,-0.019318528,0.042101074,-73,-33,-46,16,150
1695163407870541000,5.432443619,-7.762001991,3.114856482,-1.240116358,0.636445642,0.210505351,41,21,-100,-8,2686,-8.615534782,3.725377798,1.039083481,0.053825419,-0.019584993,0.041568145,-74,-34,-45,16,150
1695163407871541000,5.42166996,-7.787140846,3.090914488,-1.259967923,0.634180665,0.204509944,42,21,-100,-3,2686,-8.61912632,3.722983599,1.039083481,0.054225113,-0.019851454,0.040901989,-71,-33,-45,19,151
1695163407906539000,6.082469463,-3.128024578,8.009801865,-0.045831546,0.012257273,-0.013722817,52,21,-93,-2,2686,-8.622717857,3.908534288,1.149216771,0.061552834,-0.043699846,0.042633995,-73,-33,-43,15,150
1695163407907539000,6.078877926,-3.123236179,8.012195587,-0.047830015,0.010392036,-0.014388974,48,19,-93,-2,2686,-8.620323181,3.906140089,1.150413871,0.060486984,-0.043033689,0.043033689,-70,-34,-45,16,148
1695163407908539000,6.078877926,-3.117250681,8.009801865,-0.049562022,0.008526799,-0.014788668,49,21,-92,-2,2686,-8.617929459,3.909731388,1.145625472,0.059421133,-0.042500768,0.043566614,-73,-34,-45,17,148
1695163407909539000,6.077681065,-3.113659382,8.007407188,-0.051826954,0.006661562,-0.015188362,49,20,-92,-4,2686,-8.616731644,3.913322687,1.139639974,0.058355279,-0.041834611,0.043833077,-76,-34,-45,16,149
1695163407910539000,6.074089527,-3.113659382,8.014590263,-0.053958651,0.005062787,-0.015321592,48,18,-95,0,2686,-8.616731644,3.913322687,1.137245774,0.057156201,-0.041168455,0.044099543,-70,-34,-44,16,149
1695163407945494500,8.419210434,-1.725022316,2.871845007,0.235819295,-0.284049004,-0.596076548,25,21,-91,-9,20,6.345831394,1.945288897,10.95586681,-0.786863685,-0.533857584,0.466042876,-108,-34,-82,-11,168
1695163407946494500,8.455122948,-1.668758631,2.876633406,0.236885145,-0.291243494,-0.598474741,25,19,-89,-10,14,6.358999729,1.911770105,10.96783829,-0.807381272,-0.566898882,0.482297063,-108,-34,-77,-10,167
1695163407947494500,8.497021675,-1.610100627,2.881421804,0.23635222,-0.296839207,-0.600606382,27,22,-90,-9,17,6.374562263,1.881842494,10.97142887,-0.82643342,-0.600473166,0.498418063,-108,-34,-77,-11,167
1695163407948494500,8.526948929,-1.557428241,2.879027605,0.23528637,-0.300969362,-0.602338433,21,17,-89,-9,17,6.38892746,1.851915002,10.97142887,-0.844153166,-0.63471365,0.514272571,-109,-33,-79,-13,167
1695163407949494500,8.567650795,-1.504755735,2.880224705,0.232621744,-0.303633988,-0.603937209,24,19,-89,-9,16,6.403292656,1.823184609,10.96424675,-0.859874368,-0.669353783,0.530260324,-108,-33,-76,-13,165
1695163407978479200,10.0508585,0.355538964,2.488772631,0.009992342,-0.002931087,-0.057555895,29,18,-76,-12,2686,8.623914719,-3.341108561,4.896142483,0.068214394,-0.040235836,0.057289433,-99,-34,-68,-8,158
1695163407979479200,10.0508585,0.361524463,2.479195833,0.010525269,-0.004396631,-0.056356817,31,19,-76,-8,2686,8.626308441,-3.34230566,4.893748283,0.070079632,-0.037837673,0.058488514,-95,-34,-69,-10,154
1695163407980479200,10.0508585,0.37110126,2.480392933,0.010392036,-0.005728943,-0.055157732,28,21,-72,-12,2686,8.623914719,-3.345896959,4.897339344,0.072211333,-0.035173047,0.059687596,-96,-34,-68,-8,160
1695163407981479200,10.0508585,0.374692559,2.479195833,0.009592649,-0.007194487,-0.053558957,31,19,-75,-12,2686,8.620323181,-3.353079557,4.897339344,0.074343033,-0.032641653,0.060886677,-99,-34,-71,-11,156
1695163407982479200,10.05205631,0.381875157,2.480392933,0.008393568,-0.008793262,-0.051826954,31,21,-73,-14,2686,8.611943245,-3.355473757,4.899733543,0.076474734,-0.030243492,0.062085759,-97,-37,-71,-12,154
1695163408013478800,10.02931118,0.40940848,2.444479942,-0.052093416,-0.011990812,-0.027312404,32,28,-67,-4,2686,8.523358345,-3.471592426,5.006275654,0.064084224,0.009592649,0.060620211,-87,-28,-61,-1,163
1695163408014478800,10.02571964,0.40821138,2.437297344,-0.050627869,-0.010392036,-0.027179174,32,25,-70,-6,2686,8.524555206,-3.472789526,5.008669853,0.065549769,0.011324655,0.060220521,-89,-27,-66,-1,164
1695163408015478800,10.01973438,0.40940848,2.432508945,-0.049162328,-0.008660031,-0.026646247,33,24,-66,-4,2686,8.524555206,-3.472789526,5.013458252,0.0678147,0.01398928,0.059421133,-87,-27,-65,-2,167
1695163408016478800,10.01374817,0.414196908,2.428917646,-0.04769678,-0.007061256,-0.026246555,36,23,-68,-7,2686,8.52216053,-3.471592426,5.01465559,0.070346095,0.017586524,0.058488514,-87,-27,-65,-1,162
1695163408017478800,10.00656605,0.418985307,2.419340849,-0.046497703,-0.005728943,-0.02571363,32,26,-70,-5,2686,8.523358345,-3.470395327,5.019443989,0.071678407,0.020117918,0.057555895,-90,-29,-64,-1,164
1695163408054454500,10.0508585,0.466869324,2.400187254,-0.057555895,0.005862175,-0.008926493,35,30,-65,-6,2686,8.501810074,-3.497928619,5.16549015,0.053026035,0.025313934,0.049828485,-87,-31,-65,-1,164
1695163408055454500,10.05205631,0.460883826,2.398990154,-0.057555895,0.008127105,-0.006528331,37,29,-65,-2,2686,8.501810074,-3.499125719,5.171475887,0.053026035,0.02384839,0.049562022,-88,-30,-64,-1,161
1695163408056454500,10.04846478,0.459686726,2.400187254,-0.057422664,0.010258805,-0.0042634,32,26,-66,-4,2686,8.505401611,-3.49673152,5.173870087,0.053292494,0.022249617,0.049428791,-91,-29,-66,-1,162
1695163408057454500,10.04726696,0.462080926,2.398990154,-0.057022974,0.011990812,-0.0021317,32,21,-65,-6,2686,8.50420475,-3.49433732,5.179855347,0.053425729,0.02051761,0.048895866,-86,-31,-65,-1,162
1695163408058454500,10.0460701,0.464475125,2.404975653,-0.056223582,0.013589587,-0.000399694,33,27,-66,-4,2686,8.503006935,-3.493140221,5.178658485,0.053692192,0.018785605,0.048229709,-90,-31,-65,-3,162
1695163408090434400,10.04846478,0.458489627,2.45405674,-0.058621746,0.026779478,0.00319755,31,18,-70,-10,2686,8.493430138,-3.49553442,5.172672749,0.07087902,-0.01612098,0.042633995,-88,-28,-63,-1,163
1695163408091434400,10.04846478,0.459686726,2.461239338,-0.056223582,0.02571363,0.002531394,29,18,-70,-10,2686,8.497021675,-3.489548922,5.178658485,0.073810108,-0.019318528,0.042234302,-87,-25,-66,-1,167
1695163408092434400,10.04966164,0.458489627,2.461239338,-0.053692192,0.024647778,0.001732006,31,23,-67,-7,2686,8.503006935,-3.487154722,5.176264286,0.076075032,-0.02158346,0.041967839,-86,-28,-66,0,162
1695163408093434400,10.04726696,0.458489627,2.462436438,-0.051294025,0.02358193,0.001199081,31,22,-69,-14,2686,8.505401611,-3.481169224,5.177461147,0.07820674,-0.02358193,0.041568145,-87,-25,-64,-1,162
1695163408094434400,10.0508585,0.458489627,2.466027737,-0.049562022,0.022382848,0.000666156,30,18,-70,-10,2686,8.506598473,-3.473986626,5.175066948,0.080471672,-0.025447167,0.04103522,-86,-27,-60,-1,165
1695163408125414200,10.05804157,0.384269387,2.474407434,-0.075275652,0.006261868,-0.001332312,30,19,-70,-10,2686,8.492233276,-3.391386747,5.128379822,0.084202148,-0.032641653,0.040235836,-85,-25,-66,0,164
1695163408126414200,10.05923843,0.375889659,2.473210335,-0.075408876,0.005995406,-0.001199081,31,22,-70,-8,2686,8.492233276,-3.386598349,5.127182961,0.081937209,-0.033174578,0.04103522,-85,-27,-64,-1,164
1695163408127414200,10.06163311,0.37229836,2.470816135,-0.075542115,0.005595712,-0.001199081,30,25,-70,-11,2686,8.491036415,-3.384204149,5.122394562,0.079272583,-0.033707503,0.041834611,-86,-31,-63,-1,164
1695163408128414200,10.0556469,0.37110126,2.470816135,-0.075675346,0.005062787,-0.001332312,31,21,-66,-12,2686,8.488641739,-3.384204149,5.117606163,0.076474734,-0.034240428,0.04276723,-83,-27,-63,-1,162
1695163408129414200,10.05684471,0.37110126,2.474407434,-0.075542115,0.004529862,-0.001598775,30,17,-70,-12,2686,8.488641739,-3.384204149,5.115211964,0.073943339,-0.034773353,0.043566614,-87,-23,-63,1,163
1695163408168368100,10.01733971,0.420182407,2.421735048,-0.070346095,-0.014122511,-0.020650841,29,21,-69,-13,2686,8.450334549,-3.393780947,5.054159641,0.056889739,-0.024381317,0.051826954,-86,-25,-63,-1,166
1695163408169368100,10.02452278,0.417788208,2.421735048,-0.072477795,-0.015321592,-0.022116385,31,23,-66,-7,2686,8.444349289,-3.388992548,5.05894804,0.056756508,-0.02384839,0.051960181,-88,-31,-63,-1,165
1695163408170368100,10.0269165,0.417788208,2.418143749,-0.074476264,-0.015454824,-0.022649311,31,21,-70,-12,2686,8.440757751,-3.390189648,5.063736439,0.055823889,-0.02358193,0.052226644,-83,-23,-63,-1,165
1695163408171368100,10.0269165,0.420182407,2.41335535,-0.075941809,-0.015321592,-0.022649311,31,20,-69,-10,2686,8.437167168,-3.388992548,5.057751179,0.054758042,-0.02358193,0.052226644,-85,-25,-63,0,165
1695163408172368100,10.0269165,0.416591108,2.412158251,-0.07714089,-0.014921899,-0.022249617,30,21,-70,-6,2686,8.434772491,-3.385401249,5.057751179,0.054225113,-0.02358193,0.052359879,-87,-25,-63,0,165
1695163408215343800,10.00776291,0.429759204,2.406172752,-0.06115314,0.005062787,-0.013456355,31,25,-70,-8,2686,8.438364029,-3.433285236,5.096058369,0.039036751,-0.025846859,0.060220521,-86,-23,-61,1,161
1695163408216343800,10.00417137,0.434547603,2.404975653,-0.060220521,0.006528331,-0.013722817,29,21,-69,-10,2686,8.438364029,-3.433285236,5.098452568,0.039169986,-0.026246555,0.060353752,-87,-27,-61,0,166
1695163408217343800,10.00177765,0.442927301,2.404975653,-0.059287902,0.007594181,-0.014122511,28,26,-69,-8,2686,8.438364029,-3.434482336,5.09725523,0.039303213,-0.026513018,0.060353752,-83,-22,-59,1,162
1695163408218343800,9.999382973,0.44651863,2.408566952,-0.058754977,0.008660031,-0.014122511,31,19,-69,-6,2686,8.441955566,-3.433285236,5.099649429,0.039436448,-0.026779478,0.06008729,-81,-23,-60,-1,164
1695163408219343800,9.994594574,0.447715729,2.41335535,-0.058488514,0.009725881,-0.014122511,31,21,-68,-13,2686,8.444349289,-3.435679436,5.096058369,0.03956968,-0.027045943,0.059820827,-85,-24,-62,-1,164
1695163408248324300,9.99698925,0.458489627,2.455253839,-0.063684531,0.008793262,-0.004130168,31,17,-70,-10,2686,8.479064941,-3.490746021,5.121197224,0.056223582,-0.021050537,0.055290964,-83,-25,-62,1,164
1695163408249324300,9.994594574,0.458489627,2.457648039,-0.063684531,0.009592649,-0.00319755,31,25,-70,-12,2686,8.479064941,-3.489548922,5.123591423,0.056356817,-0.021183766,0.055290964,-85,-25,-65,0,165
1695163408250324300,9.994594574,0.454898328,2.462436438,-0.063950993,0.010392036,-0.002264931,30,25,-70,-9,2686,8.467094421,-3.478775024,5.12957716,0.055557426,-0.021849923,0.055290964,-83,-27,-64,-1,164
1695163408251324300,9.992200851,0.450109929,2.462436438,-0.064217456,0.010924961,-0.001332312,31,22,-68,-10,2686,8.428787231,-3.434482336,5.13556242,0.047563553,-0.024914242,0.053558957,-83,-27,-61,-1,166
1695163408252324300,9.99100399,0.44651863,2.466027737,-0.064483918,0.011591119,-0.000532925,31,21,-70,-12,2686,8.434772491,-3.45603013,5.120000362,0.03650536,-0.030643184,0.050494641,-85,-30,-63,-1,162
1695163408284302900,10.01255131,0.435744703,2.449268341,-0.067148544,0.011058193,0.00319755,31,22,-67,-7,2686,8.485051155,-3.49433732,5.152322292,0.064217456,-0.089131698,0.079539053,-85,-25,-63,0,165
1695163408285302900,10.01374817,0.433350503,2.460042238,-0.065683,0.011058193,0.002931087,30,20,-67,-10,2686,8.499416351,-3.491943121,5.153519154,0.063950993,-0.091796324,0.079805516,-85,-29,-60,0,166
1695163408286302900,10.01733971,0.430956304,2.456450939,-0.064750381,0.010924961,0.002797856,30,23,-66,-9,2686,8.51019001,-3.49553442,5.154716492,0.065416537,-0.093661562,0.081004597,-86,-18,-60,1,167
1695163408287302900,10.02093124,0.428562105,2.458845139,-0.063418068,0.01079173,0.002797856,30,18,-75,-12,2686,8.51617527,-3.488351822,5.15950489,0.067415006,-0.094727404,0.082603365,-80,-24,-61,1,165
1695163408288302900,10.0269165,0.427365005,2.457648039,-0.062218986,0.010924961,0.002664625,31,21,-67,-7,2686,8.520963669,-3.476380825,5.158307552,0.068480857,-0.095660031,0.083669223,-82,-24,-63,0,163
1695163408319281800,10.06163311,0.392649084,2.464830637,-0.071411945,0.023315467,0.016254211,31,21,-68,-10,2686,8.452729225,-3.465606928,5.099649429,0.068081163,-0.097791731,0.063284837,-85,-26,-62,0,166
1695163408320281800,10.06163311,0.385466486,2.475604534,-0.071411945,0.024114855,0.016653905,31,23,-70,-10,2686,8.449137688,-3.483563423,5.094861031,0.071411945,-0.105652377,0.063817769,-86,-30,-60,4,166
1695163408321281800,10.06282997,0.380678058,2.487575531,-0.07087902,0.024914242,0.016920367,31,20,-70,-9,2686,8.441955566,-3.502717018,5.090072632,0.076341502,-0.114578865,0.065549769,-82,-30,-61,1,161
1695163408322281800,10.06282997,0.375889659,2.48996973,-0.070079632,0.025447167,0.017320061,31,21,-71,-10,2686,8.43956089,-3.511096716,5.090072632,0.083535992,-0.123638593,0.068214394,-83,-25,-63,0,165
1695163408323281800,10.0604353,0.368707061,2.485181332,-0.070079632,0.025846859,0.017453292,31,23,-70,-10,2686,8.440757751,-3.514688015,5.098452568,0.090464011,-0.133364469,0.071012251,-90,-28,-61,0,162
1695163408368254600,10.06282997,0.411802679,2.48996973,-0.199447155,0.000932619,0.048496172,28,18,-67,-10,2686,8.694543839,-3.505111217,5.227739334,0.155081168,-0.312560499,0.04276723,-76,-18,-44,4,156
1695163408369254600,10.0604353,0.407014281,2.493561029,-0.205042884,-0.000266462,0.05249311,29,19,-68,-14,2686,8.713697433,-3.515885115,5.189432144,0.164807037,-0.312960178,0.037437979,-79,-16,-43,10,157
1695163408370254600,10.0556469,0.398634583,2.493561029,-0.210372135,-0.001598775,0.056490045,28,19,-68,-10,2686,8.729259491,-3.527856112,5.153519154,0.176797852,-0.31216079,0.031709034,-79,-16,-38,15,154
1695163408371254600,10.05205631,0.390254885,2.495955229,-0.215701386,-0.003330781,0.06008729,28,19,-67,-10,2686,8.741230011,-3.544615507,5.115211964,0.191053599,-0.311761081,0.025313934,-81,-17,-35,12,152
1695163408372254600,10.0556469,0.386663586,2.504334927,-0.222229704,-0.005329249,0.063018374,28,21,-69,-12,2686,8.741230011,-3.56496644,5.09725523,0.206508413,-0.311627865,0.020251149,-81,-8,-34,17,152
1695163408404234700,10.24718285,0.41060558,2.776076794,-0.406222045,-0.042367533,0.080471672,41,34,11,10,2686,8.610746384,-3.128024578,4.90811348,0.133364469,-0.563434958,0.023981623,-79,149,105,109,169
1695163408405234700,10.27711105,0.314837515,2.706645012,-0.420344561,-0.018652374,0.084601834,42,35,22,6,2686,8.632294655,-3.171120167,4.876988888,0.127369061,-0.580088794,0.032908116,-81,161,114,114,170
1695163408406234700,10.27351952,0.247799873,2.650381327,-0.423808575,-0.001598775,0.084735066,40,42,28,10,2686,8.650250435,-3.167528868,4.849455357,0.118842266,-0.59421134,0.03996937,-79,170,126,124,170
1695163408407234700,10.26035118,0.177170932,2.582146645,-0.421543658,0.016787136,0.082603365,53,51,79,18,2686,8.65743351,-3.104082584,4.805162907,0.094327718,-0.608733535,0.048229709,-78,185,141,130,176
1695163408408234700,10.0604353,-0.108936176,2.323572636,-0.358924955,0.065549769,0.049562022,53,58,89,24,2686,8.683769226,-3.080140591,4.75488472,0.065416537,-0.623788714,0.055290964,-78,200,142,138,178
1695163408447208900,10.17296314,-0.207098454,2.108094692,0.60926646,-0.098191425,-0.147087291,48,163,413,162,2686,8.957905769,-3.521870613,4.068945885,-0.141624808,-0.315624803,0.089531392,-77,401,319,264,257
1695163408448208900,10.18493366,-0.039504327,2.085349798,0.622989297,-0.076208271,-0.140825421,49,175,435,173,2686,8.945934296,-3.554192305,4.041412354,-0.126036748,-0.290977001,0.078872897,-79,408,329,271,263
1695163408449208900,10.18613148,0.191536129,2.063801765,0.623655438,-0.043833077,-0.129234299,48,176,446,182,2686,8.914810181,-3.580528736,4.034229755,-0.107251145,-0.269393563,0.068347625,-80,417,336,275,266
1695163408450208900,10.17655468,0.347159237,2.056619167,0.608067393,-0.016787136,-0.11817611,48,183,473,189,2686,8.900444984,-3.60207653,4.048594952,-0.086999997,-0.250208259,0.058222052,-78,433,345,286,274
1695163408451208900,10.16697788,0.477643251,2.036268473,0.585151613,0.013189893,-0.105785601,48,191,479,203,2686,8.886079788,-3.629609823,4.054580688,-0.071145482,-0.233021438,0.047563553,-79,446,358,292,277
1695163408485209100,9.935936928,-0.122104287,2.292448044,0.10285452,0.130699843,0.056356817,58,290,740,360,2686,8.62511158,-3.354276657,4.249708176,0.314958632,-0.311228186,0.14695406,-70,577,528,421,375
1695163408486209100,9.92636013,-0.132878199,2.304419041,0.125637069,0.113379791,0.054491576,56,293,751,366,2686,8.656236649,-3.34230566,4.260481834,0.310695261,-0.317490041,0.150950998,-65,590,540,429,381
1695163408487209100,9.927556992,-0.140060797,2.315192938,0.150684536,0.095660031,0.051027562,58,307,785,384,2686,8.706514359,-3.333925962,4.273650169,0.306964755,-0.324950993,0.159877479,-69,597,543,437,384
1695163408488209100,9.95868206,-0.105344877,2.34033227,0.217033699,0.045431852,0.045431852,61,314,795,397,2686,8.754398346,-3.307589531,4.302380562,0.302035213,-0.329614073,0.168670759,-66,602,552,446,391
1695163408489209100,9.969455719,-0.080205753,2.342726469,0.2290245,0.035972435,0.04516539,62,321,809,410,2686,8.7843256,-3.277662039,4.339490414,0.294707507,-0.330013782,0.175998464,-63,605,563,452,402
1695163408520168100,9.886856079,0.644040287,2.431311846,-0.040235836,-0.222229704,0.074076563,113,468,1034,632,796,8.939949036,-3.361459255,4.326322556,0.274456352,-0.010658499,0.118709028,-12,670,669,551,489
1695163408521168100,9.916783333,0.59376204,2.45166254,-0.062485453,-0.230090365,0.077807046,113,475,1041,638,805,8.944737434,-3.402160645,4.356249809,0.287246555,-0.003064318,0.117243491,-5,670,675,556,487
1695163408522168100,9.959878922,0.538695395,2.473210335,-0.082603365,-0.23528637,0.083003066,125,483,1043,650,821,8.911218643,-3.45722723,4.380191803,0.301235855,0.005462481,0.120840736,0,672,673,559,500
1695163408523168100,9.998186111,0.489614248,2.486378431,-0.09739203,-0.238217458,0.088065848,125,486,1050,660,828,8.896853447,-3.422511339,4.3921628,0.310562044,0.008260337,0.128568143,9,675,676,561,503
1695163408524168100,10.06642151,0.436941803,2.503137827,-0.109249614,-0.238084227,0.094327718,131,492,1055,669,842,8.882488251,-3.42131424,4.407725334,0.319754958,0.008793262,0.129633993,10,675,686,566,503
1695163408552147000,10.14662647,0.600944638,2.404975653,-0.161343038,0.074209802,0.279252678,239,545,1114,807,983,8.77235508,-3.34469986,4.653131008,0.289911181,0.0042634,0.309762627,127,697,727,605,577
1695163408553147000,10.12986755,0.648828685,2.369062662,-0.205575794,0.094860643,0.277787149,250,544,1114,813,984,8.753201485,-3.378218651,4.726154327,0.291509956,-0.006261868,0.3168239,132,688,727,607,576
1695163408554147000,10.14902115,0.639251828,2.335543871,-0.254338443,0.115511484,0.280052066,255,543,1114,819,993,8.792705536,-3.42131424,4.827907562,0.28671363,0.004130168,0.325217426,143,688,727,609,580
1695163408555147000,10.14782429,0.647631586,2.303221941,-0.302568167,0.133897394,0.282450229,266,547,1117,823,1001,8.828619003,-3.439270735,4.841075897,0.3007029,0.007460949,0.331612557,150,685,731,610,586
1695163408556147000,10.1789484,0.645237386,2.33913517,-0.35266307,0.150817752,0.284448713,273,546,1117,823,1007,8.857349396,-3.475183725,4.825513363,0.304033697,0.011191424,0.341604888,162,683,731,610,588
1695163408588129800,10.09634876,0.128089786,2.051830769,-1.262366056,0.852413476,0.485228181,482,495,1114,842,1041,9.026140213,-3.849876404,4.45680666,0.351197541,0.273923427,0.389701396,372,501,723,617,616
1695163408589129800,10.16338634,0.14724341,2.221819162,-1.282350659,0.892649293,0.501349151,493,501,1116,843,1044,9.011775017,-3.841496706,4.38617754,0.357859105,0.304966301,0.391166925,377,494,729,608,608
1695163408590129800,10.21246719,0.14844051,2.347514868,-1.308330774,0.94114548,0.515071988,504,512,1114,840,1038,8.991424561,-3.851073503,4.304774761,0.369050533,0.33401072,0.38956812,395,486,723,611,616
1695163408591129800,10.24119759,0.138863698,2.41455245,-1.33644259,0.994038224,0.526796341,511,519,1114,838,1038,8.949525833,-3.877409697,4.216189384,0.373980075,0.359324634,0.391833097,405,480,719,607,604
1695163408592129800,10.22204399,0.125695586,2.41694665,-1.361623287,1.046398163,0.535589576,528,535,1112,838,1038,8.923190117,-3.841496706,4.151545525,0.37917611,0.380108714,0.391699851,411,477,721,607,605
1695163408625108900,9.674968719,-0.440533102,3.253720045,-1.522033691,1.230523705,0.403157741,621,800,1133,823,1019,7.653065681,-4.09408474,4.334702015,0.356260329,0.333877474,0.34440276,589,511,705,576,583
1695163408626108900,9.643844604,-0.458489627,3.276464939,-1.52136755,1.2357198,0.385437965,622,811,1132,822,1017,7.69017601,-4.107253075,4.371812344,0.367451757,0.291643173,0.342137843,594,511,711,573,584
1695163408627108900,9.625887871,-0.497993946,3.294421434,-1.521900415,1.239849925,0.369450212,624,829,1139,823,1019,7.756016254,-4.106055737,4.426878929,0.377843797,0.252339959,0.340405822,596,510,709,574,584
1695163408628108900,9.61870575,-0.518344641,3.319560766,-1.525231242,1.2429142,0.356793284,626,835,1137,821,1017,7.842207432,-4.08809948,4.493916512,0.388369083,0.21863246,0.337741196,597,514,711,569,580
1695163408629108900,9.572018623,-0.490811348,3.336320162,-1.530826926,1.245312333,0.341071963,627,843,1145,817,1013,7.94994688,-4.068945885,4.563348293,0.397295564,0.192119434,0.332545161,606,515,709,570,582
1695163408665082000,9.562441826,-1.453280449,4.188655853,-1.091163874,0.792992353,0.101655439,629,845,1146,802,993,8.133103371,-3.687070608,5.219359875,0.325750381,0.280584991,0.240482375,661,552,700,559,576
1695163408666082000,9.575610161,-1.455674648,4.198232651,-1.066649318,0.791260302,0.099923424,625,841,1148,800,989,8.093599319,-3.663128614,5.225345135,0.326016843,0.265130162,0.247543648,660,551,699,560,574
1695163408667082000,9.582792282,-1.438915253,4.214992046,-1.030810118,0.789794743,0.097125575,626,847,1146,801,989,8.048109055,-3.647566319,5.214571476,0.32721591,0.247143939,0.253405809,660,551,698,559,570
1695163408668082000,9.588777542,-1.423352957,4.234145641,-0.996303201,0.788995445,0.094061248,625,846,1146,800,989,8.024167061,-3.655946016,5.201403141,0.328415006,0.226226643,0.259534448,661,551,697,558,572
1695163408669082000,9.591172218,-1.394622445,4.266467571,-0.964594126,0.788862169,0.090597242,629,846,1146,800,987,8.031349182,-3.64277792,5.20619154,0.33187899,0.202644721,0.26592955,666,557,699,555,572
1695163408701065300,9.191340446,-1.308431268,4.49511385,-0.699996889,0.710255742,-0.034107197,616,873,1136,788,974,8.47188282,-3.60327363,5.35104084,0.587416589,0.275655419,0.221163854,709,609,697,543,568
1695163408702065300,9.178172112,-1.321599364,4.50109911,-0.693202138,0.697732031,-0.037171517,618,868,1139,794,974,8.451532364,-3.56496644,5.367800236,0.59421134,0.289644688,0.206774876,709,610,692,544,567
1695163408703065300,9.186552048,-1.361103654,4.544194698,-0.68667376,0.686140895,-0.039702907,618,868,1136,795,974,8.428787231,-3.519476414,5.400122166,0.59634304,0.30176878,0.192252681,711,608,693,546,569
1695163408704065300,9.194931984,-1.393425345,4.562151432,-0.680278718,0.677480876,-0.039303213,616,867,1137,792,974,8.396465302,-3.482366323,5.433640957,0.594344556,0.312960178,0.178529859,710,611,696,543,568
1695163408705065300,9.192537308,-1.394622445,4.532223701,-0.67161864,0.666422606,-0.039036751,616,870,1136,792,974,8.352172852,-3.453635931,5.448006153,0.588882089,0.321886688,0.166272581,708,611,692,543,567
1695163408737044100,9.236829758,-1.567005038,4.920084476,-0.29137671,0.484295547,-0.103120975,624,864,1129,791,975,8.009801865,-3.906140089,5.392939091,0.562635541,0.220231235,0.203444093,729,671,691,538,583
1695163408738044100,9.245209694,-1.539471745,4.94043541,-0.277787149,0.486427277,-0.101522207,623,864,1125,792,975,7.971494675,-3.889380693,5.409698963,0.577557385,0.21556814,0.210505351,729,677,688,534,581
1695163408739044100,9.242815971,-1.509544134,4.958391666,-0.2669954,0.490823895,-0.100856051,624,865,1129,792,974,7.926004887,-3.876212597,5.400122166,0.591413498,0.208773345,0.215701386,731,681,687,538,584
1695163408740044100,9.220070839,-1.466448545,4.955997467,-0.256869823,0.497751892,-0.100722812,623,866,1129,791,978,7.890091896,-3.852270603,5.383362293,0.60460335,0.198248088,0.220364481,729,683,687,540,585
1695163408741044100,9.200917244,-1.440112352,4.951209068,-0.253139347,0.501882076,-0.10178867,622,863,1123,794,977,7.852981567,-3.830722809,5.398924828,0.614462495,0.183192953,0.224627867,733,684,686,537,582
1695163408773019900,8.954314232,-1.517923832,5.093664169,-0.427139342,0.486960173,-0.060353752,636,874,1116,802,991,8.095993042,-3.556586742,5.94719696,0.417679936,0.003996937,0.200513005,743,680,681,528,597
1695163408774019900,8.950722694,-1.528697729,5.109226227,-0.426739663,0.481364459,-0.062885143,629,873,1114,797,990,8.118738174,-3.590105534,5.94959116,0.414748847,0.014655436,0.188122496,746,681,681,532,597
1695163408775019900,8.951920509,-1.541865945,5.128379822,-0.4243415,0.476168454,-0.067681469,630,874,1114,799,992,8.131906509,-3.608062029,5.953182697,0.414082706,0.026646247,0.177330777,748,680,677,532,599
1695163408776019900,8.950722694,-1.556231141,5.153519154,-0.421143949,0.47163859,-0.074076563,636,871,1114,797,992,8.136694908,-3.599682331,5.962759495,0.413283318,0.039169986,0.166139349,742,675,683,530,596
1695163408777019900,8.949525833,-1.56221664,5.16788435,-0.417413473,0.468307823,-0.081537522,635,875,1113,799,991,8.136694908,-3.612850428,5.97951889,0.413150072,0.0528928,0.153349161,745,679,676,532,598
1695163408807000800,8.730456352,-1.44849205,5.176264286,-0.40462327,0.434866786,-0.141091883,632,879,1104,799,997,7.700949669,-3.144783974,6.307524204,0.266062796,-0.04276723,0.112447165,740,648,670,527,595
1695163408808000800,8.722076416,-1.438915253,5.179855347,-0.410485446,0.421410412,-0.139493108,632,880,1100,796,999,7.738059998,-3.16034627,6.31829834,0.243946403,-0.06261868,0.119508423,738,647,669,525,594
1695163408809000800,8.735244751,-1.41138196,5.201403141,-0.418079644,0.408753455,-0.136695251,636,881,1101,796,997,7.785943985,-3.181894064,6.323086739,0.222496167,-0.079006128,0.125770286,736,648,667,526,593
1695163408810000800,8.747216225,-1.356315255,5.230133533,-0.427805513,0.397029072,-0.135096475,632,883,1101,792,996,7.836222172,-3.211821556,6.314706802,0.202777937,-0.091796324,0.130833074,739,648,667,527,594
1695163408811000800,8.738836288,-1.368286252,5.240907669,-0.439529866,0.387169987,-0.134696782,632,885,1103,795,1004,7.880515099,-3.252522945,6.305130005,0.184525266,-0.101522207,0.134696782,741,644,667,523,592
1695163408866971500,8.755595207,-1.581370234,5.519832134,-0.44619143,0.028511487,-0.197315469,628,880,1097,783,991,7.736862659,-3.544615507,6.022614479,0.044499233,-0.11924196,0.158811629,735,625,663,525,589
1695163408867971500,8.749609947,-1.587355733,5.495890141,-0.434200615,0.023715161,-0.191453278,633,881,1099,784,990,7.718906403,-3.537432909,6.013037682,0.037038282,-0.132165387,0.163474724,728,623,661,520,586
1695163408868971500,8.748413086,-1.607706428,5.479130745,-0.419811636,0.017719755,-0.18599081,629,883,1099,788,990,7.711723804,-3.539827108,6.008249283,0.028911179,-0.146287903,0.168404296,727,621,659,520,589
1695163408869971500,8.742427826,-1.638831019,5.471948147,-0.402891248,0.011591119,-0.180528328,628,881,1093,784,991,7.717709064,-3.549403906,5.992686749,0.020650841,-0.160676882,0.173866764,724,624,657,520,586
1695163408870971500,8.735244751,-1.657984734,5.462371349,-0.384771824,0.005196018,-0.17506586,630,880,1095,783,989,7.730877399,-3.56496644,5.98789835,0.012790199,-0.174266458,0.179196015,726,622,659,517,586
1695163408904945000,8.857349396,-1.537077546,5.181052685,-0.20624195,-0.065816231,-0.104586519,625,871,1085,781,986,7.971494675,-3.834314108,5.711368084,0.030909648,-0.045431852,0.108849928,717,607,653,514,581
1695163408905945000,8.865729332,-1.540668845,5.176264286,-0.205309346,-0.066615619,-0.100589581,623,869,1088,777,985,7.948749542,-3.823540211,5.710171223,0.032641653,-0.039303213,0.103920363,719,609,651,514,581
1695163408906945000,8.875306129,-1.556231141,5.172672749,-0.204376727,-0.066215925,-0.095127106,625,870,1085,780,985,7.923610687,-3.809175014,5.710171223,0.034906585,-0.031709034,0.097125575,714,605,649,512,579
1695163408907945000,8.890868187,-1.569399238,5.176264286,-0.203310877,-0.064350687,-0.090197548,613,873,1085,777,983,7.897274494,-3.790021181,5.710171223,0.036771823,-0.025846859,0.090730481,715,606,643,514,574
1695163408908945000,8.905233383,-1.583764434,5.177461147,-0.202378258,-0.061286367,-0.084735066,622,871,1082,775,983,7.8757267,-3.774458885,5.710171223,0.038370594,-0.021316998,0.085267991,713,604,652,512,580
1695163408939928600,8.882488251,-1.70946002,5.172672749,-0.127502292,-0.024248086,-0.055690661,621,864,1081,770,979,8.007407188,-3.64277792,5.777208805,0.027845331,-0.0042634,0.058488514,705,599,643,511,576
1695163408940928600,8.886079788,-1.673547029,5.201403141,-0.127102599,-0.022649311,-0.058621746,617,864,1080,769,976,7.985859871,-3.633201122,5.780799866,0.026246555,0.005862175,0.055690661,703,596,643,511,576
1695163408941928600,8.876502991,-1.725022316,5.166687489,-0.123905048,-0.021183766,-0.060353752,620,864,1078,765,977,7.965508938,-3.623624325,5.784391403,0.024114855,0.014921899,0.053425729,703,597,647,508,577
1695163408942928600,8.871714592,-1.696291924,5.16189909,-0.120441042,-0.023049004,-0.060753446,618,864,1079,770,977,7.946355343,-3.618835926,5.783194065,0.021983154,0.022782542,0.051160797,707,595,644,511,573
1695163408943928600,8.870517731,-1.686715126,5.181052685,-0.116843797,-0.024647778,-0.062751912,616,864,1076,766,974,7.923610687,-3.622427225,5.774814606,0.019851454,0.02904441,0.049562022,705,595,647,511,577
1695163408979902800,8.834604263,-1.576581836,5.252878666,-0.044499233,-0.089131698,-0.094993874,609,855,1069,759,972,7.77277565,-3.550601006,5.781997204,-0.027578866,-0.08513476,0.113646246,693,588,640,506,570
1695163408980902800,8.834604263,-1.570596337,5.256469727,-0.03996937,-0.093794793,-0.097258806,608,855,1069,760,972,7.803900242,-3.563769341,5.773617268,-0.033441041,-0.090996936,0.118042871,694,588,638,508,569
1695163408981902800,8.834604263,-1.564610839,5.252878666,-0.03543951,-0.098724343,-0.099257268,607,861,1066,760,971,7.832630634,-3.586514235,5.765237808,-0.037837673,-0.094594181,0.121373661,698,590,640,506,569
1695163408982902800,8.839392662,-1.557428241,5.254075527,-0.030909648,-0.103653908,-0.100856051,611,857,1067,759,968,7.866149902,-3.611653328,5.755661011,-0.040635526,-0.096192956,0.123905048,692,589,641,508,570
1695163408983902800,8.844181061,-1.550245643,5.256469727,-0.026646247,-0.10805054,-0.101522207,609,857,1067,759,969,7.892486095,-3.634398222,5.747281075,-0.041967839,-0.0955268,0.125503823,694,588,639,506,567
1695163409034873500,8.942343712,-1.424550056,5.066130638,-0.017453292,-0.102454826,-0.023182238,609,848,1056,752,959,7.908048153,-3.752911091,5.746084213,-0.032641653,-0.051960181,0.104852989,689,582,637,502,566
1695163409035873500,8.945934296,-1.422155857,5.056553841,-0.015588055,-0.10258805,-0.022249617,607,848,1057,750,961,7.916428089,-3.761290789,5.744886875,-0.032108728,-0.048096478,0.101655439,693,584,637,500,567
1695163409036873500,8.951920509,-1.414973259,5.044582844,-0.014122511,-0.102321595,-0.021450229,607,851,1058,752,961,7.921216488,-3.768473387,5.742492676,-0.032108728,-0.043966308,0.097924963,686,580,637,502,567
1695163409037873500,8.956708908,-1.408987641,5.027823448,-0.012656967,-0.101921894,-0.020650841,607,846,1055,752,959,7.92001915,-3.773261786,5.742492676,-0.03237519,-0.03956968,0.093928024,687,579,637,502,567
1695163409038873500,8.965087891,-1.41018486,5.018246651,-0.011457887,-0.100856051,-0.019451762,608,845,1059,751,959,7.916428089,-3.774458885,5.748478413,-0.033041347,-0.035173047,0.089931086,689,578,634,506,566
1695163409076849900,8.999804497,-1.496376038,4.923676014,0.000666156,-0.050094947,0.021716693,605,843,1050,749,954,7.983465672,-3.896563292,5.732915878,-0.069679938,0.106984682,-0.038503829,678,575,631,505,561
1695163409077849900,8.985439301,-1.507149935,4.922478676,0.005995406,-0.047963247,0.024381317,605,842,1049,748,955,8.001421928,-3.907337189,5.736507416,-0.070745789,0.123105668,-0.058488514,679,574,631,505,559
1695163409078849900,8.972270966,-1.517923832,4.915296078,0.012124043,-0.046764165,0.026513018,607,845,1050,749,957,8.024167061,-3.926490784,5.734113216,-0.071278714,0.141624808,-0.082869835,679,575,632,505,561
1695163409079849900,8.960299492,-1.532289028,4.912901878,0.021183766,-0.046098009,0.028777948,604,843,1050,749,953,8.054094315,-3.952826977,5.720944881,-0.071012251,0.163341507,-0.111647777,676,574,632,506,558
1695163409080849900,8.956708908,-1.541865945,4.911705017,0.028644716,-0.046630934,0.029977029,606,841,1050,748,958,8.085219383,-3.982754469,5.705382824,-0.069147013,0.188255742,-0.144422665,677,572,636,504,556
1695163409116823900,8.690952301,-1.570596337,4.814739704,0.218366012,-0.273124039,-0.038104136,591,832,1024,738,945,7.624335289,-3.661931515,5.820304394,-0.265130162,0.571828485,-0.700929523,615,587,609,512,538
1695163409117823900,8.686163902,-1.567005038,4.809951305,0.234620214,-0.304300129,-0.049961712,591,832,1018,735,947,7.602787495,-3.657143116,5.832275391,-0.295906603,0.560370564,-0.695733547,610,593,609,512,540
1695163409118823900,8.684967041,-1.56221664,4.812345505,0.252073497,-0.337208271,-0.063284837,591,832,1018,733,944,7.576451302,-3.648763418,5.838260651,-0.326283306,0.547313929,-0.685874403,596,591,606,514,538
1695163409119823900,8.683769226,-1.56101954,4.811148167,0.270725876,-0.371315449,-0.07794027,588,831,1018,736,943,7.557297707,-3.629609823,5.841852188,-0.356526792,0.532525241,-0.673483968,582,591,606,514,540
1695163409120823900,8.680178642,-1.556231141,4.807557106,0.290710568,-0.407287896,-0.093395106,585,830,1015,731,942,7.538144112,-3.617638826,5.83466959,-0.386237353,0.516271055,-0.659894347,578,596,605,516,539
1695163409158799900,9.196128845,-1.443703651,4.75488472,1.051460981,-0.904506922,-0.395963252,509,784,952,683,908,7.890091896,-3.580528736,5.740098476,-0.58381933,0.401425719,-0.455251127,250,586,558,500,516
1695163409159799900,9.220070839,-1.389834046,4.72256279,1.094494581,-0.907837629,-0.401825428,496,785,947,682,907,7.885303497,-3.537432909,5.742492676,-0.583019912,0.421143949,-0.457116395,250,587,554,493,512
1695163409160799900,9.241618156,-1.335964561,4.685452938,1.13393116,-0.910502255,-0.404756516,490,777,943,675,905,7.872135162,-3.493140221,5.731719017,-0.585018396,0.440595686,-0.460447162,221,588,543,485,516
1695163409161799900,9.263166428,-1.284489155,4.644751072,1.1733675,-0.911568165,-0.406088829,482,770,940,674,900,7.849390507,-3.452438831,5.730521679,-0.589814663,0.459781021,-0.46484378,210,589,542,485,512
1695163409162799900,9.287108421,-1.216254473,4.600458622,1.211071968,-0.910901964,-0.406088829,479,768,936,671,895,7.831433773,-3.411737442,5.731719017,-0.596209764,0.47736752,-0.467774898,198,589,541,482,510
1695163409202774700,9.819818497,-0.324414343,4.004302502,1.292875886,-0.576624751,-0.07301072,325,606,853,600,796,7.193378925,-3.763684988,6.119579315,-0.40928638,0.856143951,-0.320287883,97,443,411,381,385
1695163409203774700,9.825803757,-0.316034615,3.973177671,1.268627763,-0.543050528,-0.042500768,316,595,847,592,788,7.190984726,-3.764882088,6.197391033,-0.377577305,0.862672329,-0.308297068,102,431,398,372,375
1695163409204774700,9.831789017,-0.310049117,3.948038578,1.246378303,-0.509742737,-0.01398928,305,593,842,587,782,7.201758862,-3.744531393,6.303933144,-0.337341517,0.878260314,-0.292842269,101,414,388,370,372
1695163409205774700,9.841365814,-0.305260718,3.922899485,1.22639358,-0.476701379,0.013722817,296,587,835,580,773,7.188590527,-3.722983599,6.317101002,-0.307364464,0.899044454,-0.284448713,98,409,382,362,362
1695163409206774700,9.836577415,-0.306457818,3.914519787,1.208007574,-0.44512558,0.040369064,288,577,825,572,765,7.157465935,-3.730166197,6.234501362,-0.274323106,0.917297065,-0.282583475,98,395,371,356,356
1695163409240752600,9.452308655,-0.365115762,3.764882088,1.116611004,-0.003064318,0.250741184,149,442,666,383,2686,7.351396084,-3.077746391,6.94677639,0.464577317,1.461679935,-0.280052066,25,155,152,165,246
1695163409241752600,9.449913979,-0.368707061,3.775655985,1.111148596,0.016520673,0.252872884,147,437,656,371,2686,7.352593422,-3.01190567,7.005434036,0.456983149,1.512973905,-0.271125585,20,139,140,154,232
1695163409242752600,9.457097054,-0.37110126,3.791218281,1.104620218,0.039169986,0.255404294,140,431,641,362,2686,7.346607685,-2.97599268,7.02937603,0.443793267,1.546548247,-0.267261863,13,132,129,136,224
1695163409243752600,9.476250648,-0.377086759,3.790021181,1.09596014,0.065549769,0.258068919,133,410,623,338,2686,7.328651428,-2.947262287,7.06768322,0.417147011,1.591580391,-0.259800911,11,121,121,125,220
1695163409244752600,9.493009567,-0.384269387,3.788824081,1.08556819,0.095260337,0.263264924,125,406,603,320,2686,7.304709435,-2.882618904,7.125144482,0.380908102,1.634347558,-0.259667695,5,111,110,109,218
1695163409299718400,10.26513958,-0.080205753,4.843470097,0.104453288,2.066683054,0.786064267,56,111,216,39,2686,6.368576527,-3.068169594,7.857769966,-0.023981623,1.694568157,-0.083802447,-83,23,-35,-78,136
1695163409300718400,10.26394272,-0.130484,4.923676014,0.114712104,2.127702951,0.795923412,52,111,193,32,2686,6.303933144,-3.117250681,7.934384346,-0.040235836,1.656197548,-0.067415006,-78,27,-37,-80,137
1695163409301718400,10.22683239,-0.241814375,4.983530998,0.14175804,2.202445745,0.803251147,48,102,176,31,2686,6.233304024,-3.150769472,7.993042469,-0.058888208,1.621424198,-0.044232771,-81,25,-40,-83,135
1695163409302718400,10.16218948,-0.374692559,5.008669853,0.17346707,2.255071878,0.808980107,45,101,160,24,2686,6.159083843,-3.175908566,8.03494072,-0.071811639,1.582920313,-0.020650841,-83,24,-43,-87,134
1695163409303718400,10.08318043,-0.511162043,5.026626587,0.201445624,2.295441151,0.817906559,40,93,141,22,2686,6.095637321,-3.168725967,8.078036308,-0.083935678,1.536689043,-0.001465544,-83,24,-45,-90,137
1695163409346692600,8.085219383,-0.638054729,5.822698593,0.466176093,1.620225072,0.859075069,-2,35,-19,-6,2686,5.448006153,-2.905363798,8.911218643,-0.095260337,0.57809037,0.004929556,-96,24,-70,-88,152
1695163409347692600,8.097189903,-0.63206923,5.929240704,0.445658505,1.552010775,0.837358356,-2,32,-20,-6,2686,5.442020416,-2.934094191,8.937555313,-0.112180702,0.537055135,-0.001598775,-96,16,-73,-84,157
1695163409348692600,8.124723434,-0.641646028,6.036979675,0.420078099,1.486061215,0.813376725,-3,32,-25,-8,2686,5.475539207,-2.981978178,8.960299492,-0.124571204,0.499217451,-0.009059724,-93,23,-68,-88,154
1695163409349692600,8.146271706,-0.66917938,6.155492783,0.395430326,1.42064476,0.789794743,-2,32,-28,-10,2686,5.507861137,-3.023876667,8.985439301,-0.132165387,0.467108727,-0.01505513,-93,23,-72,-85,156
1695163409350692600,8.159439087,-0.715866327,6.272808552,0.375312388,1.357493043,0.767278731,-6,31,-33,-9,2686,5.489904404,-3.05021286,9.009381294,-0.137361407,0.439263374,-0.019718224,-94,20,-71,-82,153
1695163409396343500,7.824251175,-1.383848548,6.785167694,0.381441027,0.457116395,0.467508405,-4,29,-69,-14,2686,5.500678539,-3.214215755,8.856152534,-0.115911178,-0.008660031,-0.023315467,-97,27,-76,-80,165
1695163409397343500,7.829039574,-1.373074651,6.795941353,0.393565059,0.417679936,0.454052061,-6,27,-70,-10,2686,5.530605793,-3.203441858,8.864531517,-0.11924196,-0.033973966,-0.018918836,-97,25,-76,-80,163
1695163409398343500,7.84340477,-1.352723956,6.810306549,0.404490054,0.381441027,0.440995395,-2,27,-71,-16,2686,5.571307182,-3.205836058,8.865729332,-0.126036748,-0.057156201,-0.014788668,-97,23,-71,-81,166
1695163409399343500,7.880515099,-1.325190663,6.821080685,0.411951005,0.34906584,0.428205222,-5,25,-70,-10,2686,5.620388508,-3.222595453,8.858546257,-0.132165387,-0.076874427,-0.009859112,-97,23,-72,-81,164
1695163409400343500,7.923610687,-1.294066072,6.831854343,0.41608116,0.320687592,0.416347623,-8,26,-70,-14,2686,5.663484097,-3.241749048,8.851364136,-0.13762787,-0.09246248,-0.0042634,-95,27,-75,-81,164
1695163409455882300,8.251616478,-1.096544385,6.519411087,0.283382833,0.15681316,0.280584991,-11,26,-83,-9,2686,5.98550415,-3.600879431,8.262390137,-0.065549769,-0.027179174,0.037970904,-99,26,-75,-78,160
1695163409456882300,8.250418663,-1.072602391,6.496666431,0.2831164,0.152816221,0.27379021,-8,25,-79,-13,2686,5.98789835,-3.614047527,8.238448143,-0.056756508,-0.021450229,0.038370594,-100,21,-77,-80,158
1695163409457882300,8.24802494,-1.046266198,6.488286495,0.281517595,0.148419604,0.266196012,-4,26,-77,-12,2686,5.989095688,-3.626018524,8.209717751,-0.04769678,-0.016520673,0.03956968,-87,23,-79,-80,161
1695163409458882300,8.237251282,-1.019929886,6.467936039,0.278852999,0.143623278,0.25766921,-4,27,-77,-12,2686,5.98789835,-3.639186621,8.178592682,-0.038903523,-0.012523737,0.041434918,-99,25,-76,-79,162
1695163409459882300,8.226476669,-0.998382092,6.452373505,0.275122523,0.137894332,0.248609498,-5,23,-81,-2,2686,5.984307289,-3.64277792,8.157045364,-0.033307809,-0.010525269,0.043166921,-99,25,-73,-78,161
1695163409573832900,8.153453827,-1.043871999,6.50983429,0.090730481,-0.034240428,0.052226644,-4,22,-73,-8,2686,5.835866451,-3.558980942,8.113949776,-0.038104136,-0.028111791,0.113912709,-96,23,-78,-76,161
1695163409574832900,8.157045364,-1.061828494,6.531382084,0.082736596,-0.043033689,0.044099543,-2,26,-76,-13,2686,5.832275391,-3.562572241,8.123526573,-0.040502299,-0.024647778,0.112047479,-97,27,-77,-75,160
1695163409575832900,8.164227486,-1.080982089,6.554127216,0.075142421,-0.050894335,0.036905054,-1,25,-75,-15,2686,5.829881191,-3.56736064,8.129511833,-0.043699846,-0.019718224,0.108716697,-97,27,-77,-76,161
1695163409576832900,8.167819023,-1.098938584,6.562506676,0.068081163,-0.05808882,0.030509954,-2,26,-76,-16,2686,5.820304394,-3.576937437,8.125920296,-0.045831546,-0.013323124,0.104453288,-99,28,-75,-74,161
1695163409577832900,8.173804283,-1.118092179,6.574477673,0.06115314,-0.064217456,0.024781011,-1,26,-75,-10,2686,5.810727596,-3.586514235,8.117541313,-0.046364475,-0.006261868,0.099790201,-98,28,-73,-78,160
1695163409680740100,8.224082947,-1.240196466,6.669048786,-0.01612098,-0.048496172,0.002264931,2,26,-73,-17,2686,5.628767967,-3.560178041,8.163030624,0.051960181,0.020384381,0.02051761,-95,29,-76,-74,158
1695163409681740100,8.224082947,-1.237802267,6.671442986,-0.019185297,-0.047163859,-0.000932619,-1,21,-74,-14,2686,5.621585369,-3.547009706,8.179790497,0.055024505,0.016653905,0.019052068,-99,29,-76,-70,154
1695163409682740100,8.227674484,-1.231816769,6.665457726,-0.022516079,-0.045964777,-0.004130168,0,29,-73,-12,2686,5.615600109,-3.530250311,8.194155693,0.05768913,0.013456355,0.017719755,-97,29,-76,-65,159
1695163409683740100,8.227674484,-1.223437071,6.659471989,-0.025846859,-0.044765696,-0.007727412,-1,30,-73,-18,2686,5.61081171,-3.508702517,8.208520889,0.059154671,0.010125575,0.016254211,-94,30,-76,-70,158
1695163409684740100,8.225279808,-1.221042871,6.655880928,-0.02904441,-0.043300152,-0.011324655,-2,27,-71,-19,2686,5.604825974,-3.491943121,8.213309288,0.059954058,0.007194487,0.014655436,-97,25,-73,-69,160
1695163409799670300,8.125920296,-1.088164687,6.483498096,-0.065416537,-0.132565081,-0.089531392,1,25,-70,-16,2686,5.697002888,-3.429693937,8.238448143,0.009992342,0.01398928,0.0042634,-98,29,-72,-70,156
1695163409800670300,8.125920296,-1.082179189,6.479907036,-0.069280244,-0.134830013,-0.09272895,1,28,-71,-14,2686,5.68982029,-3.429693937,8.230068207,0.011191424,0.016520673,0.004796324,-97,30,-74,-67,158
1695163409801670300,8.127118111,-1.07739079,6.475118637,-0.07301072,-0.13656202,-0.0955268,4,29,-68,-15,2686,5.68383503,-3.428496838,8.226476669,0.012523737,0.019185297,0.005062787,-97,30,-73,-66,158
1695163409802670300,8.133103371,-1.073799491,6.470330238,-0.076607957,-0.138294026,-0.098324656,5,26,-70,-12,2686,5.677849293,-3.427299738,8.218097687,0.014122511,0.021716693,0.004796324,-95,29,-78,-66,157
1695163409803670300,8.139088631,-1.07739079,6.458359241,-0.079539053,-0.140026033,-0.100589581,6,30,-70,-12,2686,5.676652431,-3.42131424,8.214506149,0.014921899,0.023049004,0.004529862,-98,29,-80,-67,160
1695163409918609200,8.275558472,-0.961272001,6.291962147,-0.09272895,-0.124038287,-0.10178867,5,31,-67,-16,2686,5.68742609,-3.426102638,8.228871346,-0.007594181,0.01185758,0.002797856,-96,30,-72,-65,160
1695163409919609200,8.287528992,-0.956483603,6.294356346,-0.094860643,-0.118309341,-0.100323126,8,27,-70,-16,2686,5.688623428,-3.424905539,8.232462883,-0.008926493,0.011058193,0.002398162,-94,25,-75,-60,158
1695163409920609200,8.300697327,-0.950498104,6.289567947,-0.096992344,-0.111781009,-0.098857582,8,31,-67,-12,2686,5.685031891,-3.42131424,8.232462883,-0.010658499,0.010125575,0.001865237,-97,30,-71,-65,160
1695163409921609200,8.309077263,-0.945709646,6.281188011,-0.098724343,-0.104852989,-0.097125575,4,31,-67,-10,2686,5.680243492,-3.416525841,8.234856606,-0.012790199,0.009592649,0.001199081,-98,30,-72,-64,158
1695163409922609200,8.315062523,-0.944512546,6.281188011,-0.100323126,-0.0976585,-0.095127106,8,27,-68,-13,2686,5.68144083,-3.41772294,8.231265068,-0.014788668,0.009192956,0.000133231,-95,29,-78,-65,158
1695163410046530000,8.208520889,-0.894234359,6.307524204,-0.075941809,0.007993874,-0.05768913,9,27,-65,-14,2686,5.682637691,-3.544615507,8.169015884,0.022516079,0.028378254,0.006794794,-94,31,-71,-65,155
1695163410047530000,8.208520889,-0.89064306,6.31590414,-0.074209802,0.009059724,-0.055823889,16,32,-65,-14,2686,5.682637691,-3.541024208,8.180987358,0.02797856,0.025846859,0.008393568,-94,29,-72,-62,156
1695163410048530000,8.209717751,-0.883460402,6.3242836,-0.07274425,0.010258805,-0.053825419,6,31,-61,-13,2686,5.686229229,-3.530250311,8.185775757,0.032774884,0.023715161,0.009592649,-94,30,-73,-63,158
1695163410049530000,8.202534676,-0.887051702,6.329071999,-0.071411945,0.011457887,-0.051826954,16,31,-60,-10,2686,5.695806026,-3.521870613,8.186972618,0.036238898,0.022249617,0.010392036,-97,30,-73,-65,156
1695163410050530000,8.204929352,-0.882263303,6.345831394,-0.070479326,0.01185758,-0.049562022,9,30,-62,-14,2686,5.695806026,-3.519476414,8.195352554,0.039436448,0.021183766,0.011058193,-95,30,-70,-63,156
1695163410118487600,8.210914612,-0.847547412,6.38892746,-0.077540584,0.037970904,0.000666156,18,32,-61,-12,2686,5.676652431,-3.438073635,8.261193275,0.042900458,0.01718683,0.010924961,-93,31,-72,-60,160
1695163410119487600,8.208520889,-0.848744512,6.387730122,-0.079272583,0.039169986,0.002398162,16,32,-63,-12,2686,5.673060894,-3.439270735,8.261193275,0.038903523,0.015321592,0.010125575,-97,34,-72,-63,159
1695163410120487600,8.206126213,-0.849941611,6.380547523,-0.080871366,0.040635526,0.004130168,16,33,-53,-8,2686,5.671864033,-3.444059134,8.268375397,0.035173047,0.01292343,0.009326187,-98,30,-71,-60,157
1695163410121487600,8.203732491,-0.849941611,6.381744862,-0.082203679,0.041967839,0.005329249,16,29,-65,-16,2686,5.675455093,-3.446453333,8.270770073,0.03130934,0.010392036,0.008660031,-97,30,-72,-60,157
1695163410122487600,8.202534676,-0.846350312,6.381744862,-0.084068909,0.043033689,0.0063951,10,32,-61,-10,2686,5.679046631,-3.452438831,8.271966934,0.028111791,0.007460949,0.008393568,-97,30,-73,-64,157
1695163410174458300,8.197746277,-1.007958889,6.439205647,-0.079006128,0.040901989,0.006261868,18,33,-59,-12,2686,5.685031891,-3.49553442,8.277952194,0.041568145,-0.016653905,0.016254211,-94,28,-72,-59,160
1695163410175458300,8.196549416,-1.011550188,6.446388245,-0.076874427,0.039836142,0.006261868,16,31,-53,-4,2686,5.685031891,-3.491943121,8.28034687,0.042234302,-0.016387442,0.017053599,-97,30,-73,-60,157
1695163410176458300,8.194155693,-1.017535686,6.448782444,-0.075408876,0.038637057,0.005862175,16,32,-53,-13,2686,5.688623428,-3.488351822,8.279149055,0.04276723,-0.016387442,0.018119449,-99,30,-71,-59,153
1695163410177458300,8.189367294,-1.016338587,6.452373505,-0.074076563,0.037038282,0.005462481,24,32,-53,-9,2686,5.697002888,-3.489548922,8.279149055,0.043433387,-0.016787136,0.020117918,-92,31,-71,-56,157
1695163410178458300,8.185775757,-1.012747288,6.453570843,-0.073277183,0.035839204,0.005062787,18,33,-51,-14,2686,5.701791286,-3.493140221,8.276755333,0.044232771,-0.017986218,0.02358193,-95,30,-69,-60,156
1695163410244421200,8.219294548,-1.006761789,6.454767704,-0.080871366,0.015854517,-0.018652374,19,32,-53,-10,2686,5.494692802,-3.090914488,8.584410667,0.105119444,-0.6056692,0.361456335,-95,30,-49,-43,153
1695163410245421200,8.219294548,-1.00556469,6.455965042,-0.083669223,0.013323124,-0.022116385,20,31,-53,-10,2686,5.503072739,-3.084928989,8.599972725,0.092862174,-0.659761071,0.372114837,-95,29,-43,-33,150
1695163410246421200,8.213309288,-1.00556469,6.455965042,-0.086733535,0.009592649,-0.026379786,16,32,-53,-10,2686,5.492298603,-3.059789658,8.633491516,0.091130167,-0.724644721,0.386903495,-95,30,-41,-33,152
1695163410247421200,8.208520889,-1.00317049,6.457161903,-0.089931086,0.004929556,-0.031442571,10,29,-52,-10,2686,5.457582951,-2.97599268,8.683769226,0.092062794,-0.799787164,0.401292503,-95,29,-37,-30,151
1695163410248421200,8.200140953,-0.999579191,6.455965042,-0.093128636,-0.001199081,-0.037437979,9,33,-51,-10,2686,5.453991413,-2.894589901,8.743624687,0.083535992,-0.877860665,0.4103522,-97,28,-34,-23,148
1695163410309378200,7.894880295,-1.248576164,6.579266071,-0.06115314,-0.520934165,-0.225560486,19,41,123,15,2686,6.402095318,-3.933673382,7.857769966,-0.248609498,-1.686973929,0.32255286,-86,220,212,157,180
1695163410310378200,7.88171196,-1.235408068,6.556521416,-0.068747319,-0.582886636,-0.241015315,17,43,141,20,2686,6.4691329,-4.086902142,7.751227856,-0.191852987,-1.692436457,0.325483918,-76,235,223,168,183
1695163410311378200,7.867346764,-1.195903778,6.538564682,-0.08313629,-0.651101053,-0.25766921,18,42,167,29,2686,6.514622688,-4.223371983,7.643488884,-0.123505361,-1.695101142,0.328548223,-81,253,243,174,195
1695163410312378200,7.844601631,-1.156399369,6.526593685,-0.110581927,-0.726376712,-0.277120978,17,53,191,38,2686,6.556521416,-4.35385561,7.552509308,-0.045032158,-1.694301605,0.333744258,-82,268,259,186,204
1695163410313378200,7.836222172,-1.186326981,6.495469093,-0.138294026,-0.809646249,-0.296839207,18,53,221,46,2686,6.574477673,-4.443638325,7.473500729,0.033707503,-1.688039899,0.341471672,-79,285,273,194,215
1695163410372366200,9.96466732,-1.177947283,5.839457989,-0.418079644,-1.42171061,-0.382107198,59,273,890,399,2686,7.02937603,-3.562572241,7.062894821,1.372548223,-1.351764083,0.392898917,7,579,557,425,364
1695163410373366200,10.00656605,-1.07858789,5.765237808,-0.446724325,-1.364287853,-0.345868289,64,289,915,428,2686,7.064092159,-3.430891037,7.098807812,1.354562044,-1.323385835,0.395963252,15,591,568,436,374
1695163410374366200,10.01494598,-0.960074902,5.68144083,-0.469373643,-1.298471689,-0.303633988,63,301,927,451,2686,7.133523941,-3.327940464,7.144298077,1.324451804,-1.296073556,0.396362931,20,599,574,447,377
1695163410375366200,10.01494598,-0.863109708,5.594052315,-0.491090357,-1.223728895,-0.254738122,68,320,951,484,2686,7.229291916,-3.232172251,7.216124058,1.28448236,-1.266496181,0.399693698,21,606,585,453,385
1695163410376366200,9.999382973,-0.750582218,5.510255337,-0.519335389,-1.140459418,-0.198780999,73,331,955,504,2686,7.322665691,-3.134010077,7.274781704,1.240382791,-1.230124116,0.404356807,29,613,590,461,392
1695163410449305200,8.950722694,-0.418985307,4.697423935,-1.049995422,0.526663125,0.547580421,165,435,1040,740,2686,7.325059891,-3.853467703,6.950367451,0.542117953,-0.318822354,0.465643197,148,640,671,566,521
1695163410450305200,8.779537201,-0.494402647,4.625597477,-1.044133186,0.557705998,0.54584837,175,414,1049,749,2686,7.234080315,-3.816357613,6.936002254,0.547713637,-0.279385895,0.473370582,155,632,673,570,521
1695163410451305200,8.615534782,-0.55904609,4.604049683,-1.037471652,0.579022944,0.541984677,189,395,1048,752,989,7.125144482,-3.773261786,6.934805393,0.544782579,-0.242880553,0.472837657,169,619,675,575,529
1695163410452305200,8.475474358,-0.628477931,4.629189014,-1.03360796,0.591280222,0.530393541,201,384,1050,755,989,7.024587631,-3.722983599,6.931213856,0.545981586,-0.208906576,0.46950686,179,601,675,576,533
1695163410453305200,8.35097599,-0.695515573,4.695029736,-1.034007668,0.59780854,0.51214087,204,384,1050,759,990,7.011419773,-3.549403906,7.450755596,0.500416517,-0.142024502,0.454984695,187,590,676,578,535
1695163410523255300,8.40723896,-1.175553083,5.060145378,-1.451954126,0.624055147,0.014921899,445,485,1084,778,1025,7.262810707,-3.396175146,6.274005413,0.47270444,0.455117911,0.321753442,527,485,667,580,624
1695163410524255300,8.529343605,-1.106121182,5.158307552,-1.507245064,0.653632462,0.02158346,449,495,1084,777,1028,7.331045628,-3.447650433,6.260837555,0.480831534,0.501882076,0.289378256,541,492,663,575,626
1695163410525255300,8.616731644,-1.073799491,5.239710331,-1.547480822,0.677480876,0.02358193,463,496,1082,776,1025,7.402871609,-3.525461912,6.27999115,0.495753467,0.551177621,0.256470144,550,489,667,574,631
1695163410526255300,8.748413086,-1.074996591,5.370194435,-1.612231255,0.721846879,0.029310873,472,504,1089,775,1027,7.455543995,-3.599682331,6.364984989,0.511741161,0.603137791,0.226226643,565,494,661,575,631
1695163410527255300,8.846575737,-1.108515382,5.477933407,-1.677914262,0.776071966,0.039436448,478,511,1087,775,1026,7.491456985,-3.633201122,6.4715271,0.530260324,0.659228146,0.203977033,574,493,662,575,631
1695163410555239700,8.066065788,-2.705447912,5.838260651,-2.07867384,1.362822294,-0.033041347,580,547,1082,768,1025,6.071695328,-3.226186752,7.025784969,0.696799397,0.858275652,0.215168446,697,580,647,546,624
1695163410556239700,8.043320656,-2.765302896,5.839457989,-2.048963308,1.352030635,-0.063684531,584,551,1082,766,1020,6.010643482,-3.215412855,7.036558628,0.71571821,0.819505334,0.228891268,702,574,647,544,622
1695163410557239700,8.015787125,-2.78924489,5.87297678,-2.017120838,1.339373589,-0.096326187,582,551,1079,766,1022,5.90529871,-3.333925962,7.047332764,0.723312438,0.775672317,0.247676879,707,573,647,542,620
1695163410558239700,7.984662533,-2.808398485,5.919663906,-1.986611009,1.326450229,-0.129900455,581,553,1079,768,1023,5.877765179,-3.139995575,7.082048416,0.728508472,0.725177646,0.279519141,711,567,647,544,624
1695163410559239700,7.969100475,-2.839523315,5.931634903,-1.956900477,1.313526869,-0.162009194,581,550,1075,766,1023,5.852625847,-2.980781078,7.145494938,0.727709055,0.676415026,0.291909665,713,560,647,542,622
1695163410594216300,7.686584473,-3.38061285,6.258443356,-1.670186758,1.211871266,-0.409419596,588,558,1036,756,1009,5.995080948,-2.203862667,8.319850922,0.659228146,0.435399711,0.259534448,738,464,637,532,616
1695163410595216300,7.632715225,-3.42011714,6.264428616,-1.640476227,1.191886663,-0.412750393,592,558,1039,758,1008,5.94959116,-2.15358448,8.379706383,0.623122513,0.415148526,0.259534448,740,459,637,529,616
1695163410596216300,7.580042362,-3.465606928,6.272808552,-1.608234286,1.168837667,-0.415548235,592,561,1036,759,1007,5.914875507,-2.145204782,8.413225174,0.596875966,0.39996019,0.259534448,742,459,638,529,616
1695163410597216300,7.534552574,-3.503914118,6.293159008,-1.575459361,1.142857671,-0.41608116,591,555,1034,754,1008,5.883750439,-2.11527729,8.462306023,0.555840731,0.373980075,0.26339817,745,453,633,528,616
1695163410598216300,7.489062786,-3.541024208,6.323086739,-1.541618705,1.114745736,-0.415681452,591,557,1033,756,1010,5.863399982,-2.086546898,8.48385334,0.516004622,0.346267998,0.266728938,742,451,635,529,616
1695163410635193700,7.2915411,-3.617638826,6.782773495,-0.804316998,0.477500767,-0.264730483,598,551,1018,750,1009,6.038176537,-2.41574955,8.694543839,0.387169987,0.051027562,0.293241978,747,395,622,524,624
1695163410636193700,7.301117897,-3.599682331,6.795941353,-0.776338398,0.458448708,-0.252473205,600,552,1017,751,1009,6.015431881,-2.360682964,8.732851028,0.376511484,0.039303213,0.291643173,731,395,624,526,622
1695163410637193700,7.301117897,-3.585317135,6.797138691,-0.750358343,0.440196037,-0.241281778,601,550,1018,749,1011,6.003460884,-2.329558372,8.76636982,0.367984682,0.031842265,0.289245039,744,391,625,527,626
1695163410638193700,7.295132637,-3.580528736,6.795941353,-0.732505381,0.427539051,-0.234087273,597,547,1016,749,1012,5.999869347,-2.30681324,8.792705536,0.352796346,0.020784073,0.285114855,745,385,622,526,624
1695163410639193700,7.28316164,-3.569754839,6.80791235,-0.706924975,0.407820851,-0.223162323,600,549,1018,756,1009,5.996278286,-2.297236443,8.811859131,0.335875928,0.008793262,0.281117916,744,387,621,525,625
1695163410675168700,7.442376137,-3.440467834,6.709750175,-0.275655419,0.138294026,-0.043833077,602,544,1007,746,1008,6.366182327,-2.788047791,8.532935143,0.07301072,-0.096059717,0.186923429,734,367,613,514,624
1695163410676168700,7.457938194,-3.439270735,6.696582317,-0.257136285,0.134830013,-0.035039816,601,542,1005,746,1008,6.357802391,-2.794033289,8.511386871,0.070346095,-0.081670754,0.179595709,734,363,611,516,624
1695163410677168700,7.47469759,-3.436876535,6.689399719,-0.239016846,0.132165387,-0.026113322,600,543,1005,740,1008,6.348225594,-2.802412987,8.48385334,0.066882081,-0.068347625,0.172800913,729,364,609,517,625
1695163410678168700,7.490260124,-3.436876535,6.676231384,-0.221030638,0.130966306,-0.017586524,598,541,1003,744,1008,6.332663536,-2.800018787,8.474276543,0.063151613,-0.05595712,0.166672289,729,363,609,516,624
1695163410679168700,7.499836922,-3.438073635,6.666654587,-0.209173039,0.130833074,-0.012124043,601,543,1003,744,1006,6.31590414,-2.800018787,8.467094421,0.060353752,-0.04769678,0.162009194,729,363,609,517,624
1695163410708173500,7.429207802,-3.262099743,6.291962147,-0.010924961,0.150551304,0.071811639,604,537,993,738,1004,6.030993938,-2.914940596,8.283937454,-0.027712099,-0.042900458,0.126036748,714,349,603,511,618
1695163410709173500,7.441178799,-3.244143248,6.303933144,-0.017586524,0.148686066,0.072611026,602,533,992,736,1003,6.030993938,-2.930502892,8.282740593,-0.029444104,-0.045698319,0.126036748,714,350,606,511,605
1695163410710173500,7.453149796,-3.230975151,6.314706802,-0.027578866,0.148952529,0.072877489,600,535,994,736,1004,6.029797077,-2.940079689,8.281543732,-0.030509954,-0.048229709,0.12616998,715,350,603,510,617
1695163410711173500,7.445967197,-3.270479441,6.27999115,-0.035705972,0.149485439,0.07474272,600,537,992,736,1006,6.019022942,-2.943670988,8.275558472,-0.031842265,-0.051027562,0.126303226,711,350,601,511,617
1695163410712173500,7.439981937,-3.269282341,6.260837555,-0.043699846,0.148419604,0.077407345,601,533,987,732,1006,6.004657745,-2.93529129,8.275558472,-0.034107197,-0.054491576,0.126569673,711,350,603,510,616
1695163410748634700,7.334636688,-3.500322819,6.350619793,-0.101255737,-0.000932619,0.022516079,598,529,981,727,996,5.974730492,-3.026270866,8.186972618,-0.088199086,-0.104320064,0.147087291,704,344,595,510,604
1695163410749634700,7.32146883,-3.520673513,6.351817131,-0.104719758,-0.002797856,0.018785605,598,529,985,727,999,5.973533154,-3.022679567,8.182184219,-0.085934147,-0.104586519,0.147620216,704,343,595,502,605
1695163410750634700,7.304709435,-3.538630009,6.344634533,-0.107117914,-0.005862175,0.015321592,598,529,983,729,997,5.969942093,-3.020285368,8.182184219,-0.083802447,-0.104852989,0.14801991,703,344,593,505,604
1695163410751634700,7.296329498,-3.558980942,6.342240334,-0.108583458,-0.010392036,0.012390506,597,529,981,727,993,5.960365295,-3.016694069,8.175002098,-0.081670754,-0.105385914,0.14801991,701,340,595,506,604
1695163410752634700,7.2915411,-3.569754839,6.347028732,-0.109382853,-0.015721286,0.009992342,597,529,981,726,992,5.948394299,-3.007117271,8.172607422,-0.08020521,-0.106451757,0.14801991,701,344,596,504,608
1695163410782633100,7.323863029,-3.661931515,6.42723465,-0.074609496,-0.055424199,-0.027312404,591,529,973,719,985,5.942408562,-2.971204281,8.104372978,-0.1334977,-0.177464008,0.098457888,692,335,589,498,599
1695163410783633100,7.333439827,-3.655946016,6.443994045,-0.072477795,-0.059287902,-0.028777948,595,517,965,717,987,5.965153694,-2.987963676,8.093599319,-0.13975957,-0.17759724,0.089931086,692,336,590,500,599
1695163410784633100,7.341819286,-3.653551817,6.458359241,-0.070479326,-0.062485453,-0.029710567,596,517,971,717,985,5.992686749,-3.01070857,8.084021568,-0.145355284,-0.175732017,0.080071971,692,335,590,500,599
1695163410785633100,7.349001884,-3.651157618,6.467936039,-0.068614088,-0.064883612,-0.030243492,593,517,975,717,987,6.022614479,-3.038241863,8.068459511,-0.149885148,-0.171868294,0.069546707,691,337,588,501,599
1695163410786633100,7.347805023,-3.649960518,6.472724438,-0.066482387,-0.067281775,-0.03130934,593,516,963,717,987,6.053739071,-3.064578056,8.055291176,-0.153349161,-0.165872887,0.059021436,692,335,590,498,599
1695163410847834100,7.354987621,-3.552995205,6.566098213,0.060220521,-0.204776406,-0.107917301,590,512,957,712,975,6.153098583,-3.242946148,7.899668694,-0.246344566,0.045964777,-0.233154669,678,331,581,498,590
1695163410848834100,7.357381821,-3.542221308,6.552929878,0.067681469,-0.214102611,-0.113113321,591,513,959,710,974,6.154295444,-3.257311344,7.876923561,-0.253272593,0.062885143,-0.264996946,678,333,583,493,592
1695163410849834100,7.357381821,-3.538630009,6.550535679,0.075675346,-0.224228173,-0.118575804,588,511,957,711,975,6.154295444,-3.275267839,7.852981567,-0.260067374,0.080071971,-0.299104154,677,335,585,504,589
1695163410850834100,7.356184959,-3.529053211,6.548141479,0.083535992,-0.235019907,-0.124038287,587,512,955,710,974,6.145915985,-3.292027235,7.836222172,-0.266329229,0.096992344,-0.335076571,679,333,579,503,589
1695163410851834100,7.350199223,-3.519476414,6.540958881,0.091396637,-0.24674426,-0.129767224,588,512,956,706,974,6.133944988,-3.307589531,7.821856976,-0.27272436,0.113513015,-0.372248113,675,336,579,501,583
1695163410978818700,7.070077419,-3.174711466,6.202179432,0.247143939,-0.857742727,-0.381574243,564,501,944,684,949,6.02022028,-3.215412855,7.744045258,-0.460980088,0.189188361,-0.786464036,491,411,544,496,561
1695163410979818700,7.066486359,-3.150769472,6.177040577,0.256869823,-0.919428766,-0.407421142,564,500,944,684,945,6.009446144,-3.208230257,7.744045258,-0.478033692,0.182127118,-0.780335367,479,416,547,497,555
1695163410980818700,7.077260017,-3.137601376,6.154295444,0.267794788,-0.983379722,-0.43366769,558,495,943,683,943,5.998672485,-3.19865346,7.730877399,-0.495220512,0.174266458,-0.772075057,468,432,543,496,556
1695163410981818700,7.110779285,-3.138798475,6.13514185,0.280318528,-1.048663139,-0.459514558,554,501,943,680,942,5.989095688,-3.178302765,7.722497463,-0.512673795,0.16520673,-0.763814688,452,433,542,493,553
1695163410982818700,7.155071735,-3.135207176,6.130353451,0.29497394,-1.113280177,-0.483229697,557,497,941,675,942,5.973533154,-3.15914917,7.715314865,-0.530393541,0.15481469,-0.755820811,436,446,540,491,553
1695163411021792900,8.178592682,-3.230975151,5.974730492,0.930353761,-1.449289441,-0.522399664,447,470,908,626,883,5.991489887,-3.046621561,7.588422298,-0.68307656,0.066349156,-0.648702919,166,505,467,430,468
1695163411022792900,8.219294548,-3.192667961,5.917269707,0.978450239,-1.448090315,-0.515604913,442,464,906,624,879,6.003460884,-3.003525972,7.620744228,-0.689338386,0.070612557,-0.649102569,158,505,463,425,458
1695163411023792900,8.262390137,-3.144783974,5.864596844,1.02534759,-1.445292473,-0.508143961,430,463,904,621,878,6.02620554,-2.992752075,7.65186882,-0.686007679,0.07794027,-0.650568187,149,507,448,420,450
1695163411024792900,8.306682587,-3.095702887,5.815515995,1.068647742,-1.441428781,-0.499350697,425,464,906,619,873,6.054935932,-3.01429987,7.665036678,-0.688006103,0.089131698,-0.651234269,147,502,445,414,442
1695163411025792900,8.35097599,-3.038241863,5.773617268,1.108084202,-1.435699821,-0.489491582,415,462,897,618,867,6.080075264,-3.043030262,7.661445618,-0.685874403,0.104186833,-0.649635553,142,496,440,404,437
1695163411061769500,9.095572472,-1.987187386,5.006275654,1.204543591,-0.809113324,-0.059820827,262,401,859,557,775,6.155492783,-3.329137564,7.860164165,-0.270326167,0.648169994,-0.387569666,81,302,254,268,298
1695163411062769500,9.071630478,-1.963245392,4.966771603,1.181494594,-0.771675348,-0.031575806,261,399,859,554,768,6.119579315,-3.320757866,7.8757267,-0.232621744,0.660960138,-0.369450212,77,296,241,258,295
1695163411063769500,9.056067467,-1.945288897,4.934449673,1.157513022,-0.737168431,-0.005196018,255,395,858,551,763,6.072892666,-3.315969467,7.886500359,-0.19425115,0.672418058,-0.351464033,71,285,215,250,292
1695163411064769500,9.054870605,-1.929726601,4.917690277,1.134064317,-0.703727424,0.019851454,245,394,852,546,754,6.033388138,-3.290830135,7.91163969,-0.160543635,0.682810128,-0.332811654,71,271,217,240,285
1695163411065769500,9.058462143,-1.908178806,4.894945145,1.111548185,-0.669353783,0.043566614,242,389,848,541,750,5.999869347,-3.263296843,7.908048153,-0.128568143,0.693068922,-0.316424191,67,265,206,232,284
1695163411117298100,8.747216225,-1.740584612,4.473566055,0.907571197,-0.30643183,0.272324651,145,332,725,396,487,6.02620554,-2.888604403,8.547300339,-0.007327718,0.958865225,-0.153882071,-3,88,30,31,192
1695163411118298100,8.7843256,-1.742978811,4.487931252,0.900243521,-0.283782542,0.272191435,144,326,716,387,471,6.040570736,-2.907757998,8.577227592,-0.026513018,0.984312415,-0.15681316,-10,77,23,25,186
1695163411119298100,8.808267593,-1.734599113,4.510675907,0.890650809,-0.264064312,0.273390502,142,319,701,378,453,6.06211853,-2.916137695,8.617929459,-0.046897396,1.01282382,-0.162142411,-12,77,15,12,183
1695163411120298100,8.825027466,-1.717839718,4.540603638,0.879992306,-0.239549771,0.274456352,143,305,696,368,440,6.063315868,-2.943670988,8.629899979,-0.056756508,1.031342983,-0.166938737,-19,67,11,-1,182
1695163411121298100,8.829815865,-1.713051319,4.57771349,0.871465504,-0.221430331,0.274456352,142,293,683,359,425,6.054935932,-3.002328873,8.646659851,-0.06261868,1.055857539,-0.171601832,-25,64,1,-6,178
1695163411214633300,9.011775017,-1.477222443,4.630385876,0.051960181,1.11567843,0.53758806,82,123,356,90,2686,5.009867191,-3.139995575,8.717288017,-0.113113321,0.82323581,-0.149885148,-77,31,-60,-90,138
1695163411215633300,9.018958092,-1.478419542,4.715380192,0.011990812,1.235320091,0.569563508,81,118,334,82,2686,4.957194805,-3.130418777,8.729259491,-0.105385914,0.77447319,-0.134963244,-77,34,-59,-92,141
1695163411216633300,9.033323288,-1.48560214,4.827907562,-0.019451762,1.354828477,0.601272583,79,113,318,72,2686,4.954800606,-3.125630379,8.726864815,-0.101921894,0.721047461,-0.121773355,-80,30,-59,-90,144
1695163411217633300,9.042900085,-1.503558636,4.957194805,-0.039169986,1.466476321,0.630583465,78,108,300,60,2686,4.947618008,-3.138798475,8.749609947,-0.101522207,0.662558973,-0.108183771,-80,30,-59,-92,145
1695163411218633300,9.051279068,-1.555034041,5.104437828,-0.043300152,1.564534426,0.655764103,69,98,282,50,2686,4.933252811,-3.12203908,8.805873871,-0.100323126,0.601272583,-0.09352833,-82,30,-63,-94,142
1695163411281134400,7.815871239,-2.543839216,6.092046261,0.769676864,1.573727369,0.825234294,3,36,23,-3,2686,5.16788435,-3.053804159,9.294290543,-0.536921918,-0.277120978,0.15428178,-97,27,-70,-89,161
1695163411282134400,7.813477039,-2.531868219,6.183025837,0.822969377,1.513506889,0.814176083,-1,34,21,-2,2686,5.181052685,-3.096899986,9.272743225,-0.540252686,-0.288045943,0.152150065,-95,25,-67,-84,161
1695163411283134400,7.819462776,-2.507926226,6.264428616,0.877061248,1.456084251,0.800853014,-1,37,12,-6,2686,5.157110691,-3.116053581,9.245209694,-0.537454844,-0.29817152,0.151350692,-95,27,-69,-85,165
1695163411284134400,7.825448036,-2.475604534,6.330269337,0.932751954,1.401459336,0.784998477,-1,35,10,-6,2686,5.146336555,-3.154360771,9.196128845,-0.5339908,-0.309895873,0.147620216,-93,24,-70,-86,161
1695163411285134400,7.807491779,-2.427720547,6.384139061,0.983646274,1.349232793,0.768611014,-1,32,1,-10,2686,5.125985622,-3.187879562,9.133879662,-0.528794825,-0.323485464,0.143756509,-97,29,-69,-82,165
1695163411325769200,7.254431248,-1.705868721,7.200561523,0.681477845,0.482830018,0.309229732,-12,25,-45,-10,90,5.489904404,-3.610456228,8.681375504,-0.102987751,-0.42327565,0.127768755,-97,20,-75,-80,165
1695163411326769200,7.238868713,-1.759738207,7.207744122,0.636978507,0.441395104,0.292042881,-12,29,-48,-16,2686,5.506663799,-3.610456228,8.674192429,-0.086467072,-0.417147011,0.130300149,-99,23,-73,-83,166
1695163411327769200,7.231686115,-1.824381709,7.20894146,0.59674269,0.400892794,0.276188374,-8,28,-53,-14,2686,5.517437935,-3.599682331,8.66341877,-0.070346095,-0.408353746,0.133364469,-98,20,-77,-80,167
1695163411328769200,7.218518257,-1.868674397,7.207744122,0.571828485,0.373980075,0.266728938,-10,29,-53,-18,2686,5.522226334,-3.585317135,8.645462036,-0.058888208,-0.399160802,0.134963244,-95,21,-73,-80,167
1695163411329769200,7.201758862,-1.935712099,7.219715118,0.539986193,0.333477795,0.252872884,-11,25,-53,-13,2686,5.522226334,-3.579331636,8.629899979,-0.048496172,-0.390234292,0.135895863,-98,24,-76,-83,164
1695163411407920300,7.666234016,-2.266111851,7.435193539,0.303767234,-0.170003071,0.043566614,-8,22,-70,-19,2686,5.767632008,-3.897760391,8.130708694,-0.016520673,-0.105918832,0.119774885,-92,24,-75,-80,165
1695163411408920300,7.69017601,-2.256535053,7.433996201,0.301502287,-0.173733547,0.035173047,-11,27,-70,-16,2686,5.762843609,-3.907337189,8.110358238,-0.005862175,-0.092329249,0.118975498,-97,23,-73,-81,164
1695163411409920300,7.704541206,-2.249352455,7.438784599,0.294840723,-0.175732017,0.023715161,-11,26,-70,-13,2686,5.754463673,-3.919308186,8.07923317,0.011191424,-0.072344564,0.117909648,-98,23,-75,-79,164
1695163411410920300,7.726089001,-2.26850605,7.433996201,0.292176098,-0.176664621,0.01292343,-11,18,-71,-18,2686,5.735310078,-3.924096584,8.054094315,0.028245023,-0.053425729,0.116710559,-99,23,-73,-78,165
1695163411411920300,7.741651058,-2.272097349,7.413645744,0.291509956,-0.17506586,0.004396631,-8,21,-70,-16,2686,5.712565422,-3.919308186,8.039729118,0.045298621,-0.036372125,0.115111791,-97,21,-77,-82,163
1695163411575845500,7.833827972,-2.002749681,7.066486359,0.246344566,-0.143623278,-0.094327718,-8,19,-71,-13,2686,5.416881561,-3.732560396,8.131906509,0.001199081,0.022249617,0.044232771,-98,27,-72,-76,162
1695163411576845500,7.84340477,-1.989581585,7.066486359,0.241015315,-0.142957121,-0.095127106,-7,25,-73,-16,2686,5.414487362,-3.746925592,8.137891769,-0.004796324,0.020117918,0.041834611,-97,22,-71,-79,164
1695163411577845500,7.852981567,-1.972822189,7.072471619,0.236085743,-0.141624808,-0.095260337,-8,18,-70,-16,2686,5.410895824,-3.760093689,8.140285492,-0.009725881,0.018385911,0.03956968,-98,23,-71,-75,165
1695163411578845500,7.860164165,-1.954865694,7.072471619,0.231022969,-0.139493108,-0.095393561,-7,27,-70,-19,2686,5.410895824,-3.772064686,8.145073891,-0.013722817,0.017053599,0.037704438,-97,23,-72,-78,162
1695163411579845500,7.864952564,-1.935712099,7.068880558,0.225826949,-0.137228176,-0.095127106,-4,24,-71,-10,2686,5.410895824,-3.780444384,8.149862289,-0.016653905,0.015854517,0.035839204,-96,25,-73,-76,165
1695163411664814500,7.783549786,-1.594538331,6.957550049,0.024114855,-0.075542115,-0.087799385,-4,29,-70,-16,2686,5.370194435,-3.746925592,8.192957878,0.047030624,-0.000133231,-0.005595712,-99,27,-71,-72,162
1695163411665814500,7.775169849,-1.588552833,6.949170589,0.01385605,-0.075542115,-0.088865243,-3,26,-70,-13,2686,5.377377033,-3.732560396,8.201337814,0.050494641,-0.004529862,-0.005995406,-98,25,-74,-74,164
1695163411666814500,7.769184589,-1.582567334,6.941987991,0.003730475,-0.076075032,-0.090464011,-1,22,-70,-14,2686,5.384559631,-3.720589399,8.219294548,0.053159267,-0.008393568,-0.0063951,-98,25,-76,-68,162
1695163411667814500,7.762001991,-1.577778935,6.936002254,-0.005862175,-0.077540584,-0.092196018,-1,23,-68,-15,2686,5.388150692,-3.706224203,8.228871346,0.05489127,-0.01185758,-0.006528331,-97,24,-72,-76,161
1695163411668814500,7.756016254,-1.575384736,6.926425457,-0.014655436,-0.079272583,-0.093661562,-3,26,-70,-16,2686,5.392939091,-3.699041605,8.236053467,0.05595712,-0.014655436,-0.006794794,-95,23,-72,-76,162
1695163411702772100,7.732074261,-1.537077546,6.783970356,-0.041434918,-0.161609486,-0.115511484,-1,21,-64,-14,2686,5.507861137,-3.545812607,8.341399193,0.054358348,-0.001732006,0.006128637,-94,23,-72,-71,166
1695163411703772100,7.741651058,-1.52510643,6.777985096,-0.045431852,-0.161609486,-0.114312403,-1,27,-61,-14,2686,5.5042696,-3.543418407,8.342596054,0.052626338,0.002264931,0.005062787,-95,25,-73,-70,162
1695163411704772100,7.745242596,-1.520318031,6.777985096,-0.050361406,-0.160943344,-0.112713635,0,25,-63,-14,2686,5.500678539,-3.537432909,8.340201378,0.050627869,0.006261868,0.003597243,-96,27,-71,-70,162
1695163411705772100,7.752425194,-1.516726732,6.775590897,-0.053825419,-0.160143942,-0.111381322,-1,25,-65,-15,2686,5.494692802,-3.536235809,8.337807655,0.049295556,0.008793262,0.002531394,-97,27,-75,-70,165
1695163411706772100,7.763198853,-1.515529633,6.770802498,-0.059421133,-0.158678412,-0.108983152,0,24,-61,-14,2686,5.491101742,-3.530250311,8.344989777,0.047030624,0.012257273,0.000799387,-98,28,-72,-66,164
1695163411736752000,7.767987251,-1.578976035,6.688202381,-0.103520676,-0.044898927,-0.05142726,1,29,-53,-13,2686,5.445611954,-3.584120035,8.446743965,-0.014388974,-0.015188362,0.013589587,-92,24,-72,-70,164
1695163411737752000,7.769184589,-1.583764434,6.685808182,-0.097791731,-0.043033689,-0.050761104,0,25,-64,-12,2686,5.446808815,-3.597288132,8.452729225,-0.014522205,-0.01612098,0.015188362,-98,29,-71,-68,164
1695163411738752000,7.769184589,-1.586158633,6.682217121,-0.091663092,-0.041168455,-0.050494641,-1,23,-60,-14,2686,5.444414616,-3.60447073,8.456320763,-0.014788668,-0.017053599,0.016520673,-94,27,-72,-65,160
1695163411739752000,7.76679039,-1.582567334,6.681019783,-0.085401222,-0.03956968,-0.050228179,1,27,-63,-15,2686,5.443217754,-3.612850428,8.455122948,-0.014788668,-0.017586524,0.017320061,-95,27,-72,-65,166
1695163411740752000,7.76679039,-1.577778935,6.681019783,-0.079405814,-0.038104136,-0.049961712,1,26,-53,-9,2686,5.440823555,-3.623624325,8.453926086,-0.014522205,-0.018119449,0.018385911,-97,26,-71,-66,162
1695163411766734600,7.833827972,-1.444900751,6.746860504,-0.041568145,0.02571363,-0.007327718,1,21,-44,-13,2686,5.455188751,-3.711012602,8.40723896,0.005062787,-0.009459418,0.029977029,-97,23,-73,-65,165
1695163411767734600,7.833827972,-1.446097851,6.746860504,-0.043833077,0.029710567,-0.004130168,4,23,-53,-16,2686,5.446808815,-3.713406801,8.400056839,0.006928025,-0.008926493,0.029977029,-98,29,-68,-67,166
1695163411768734600,7.836222172,-1.452083349,6.742072105,-0.045964777,0.033574272,-0.000932619,3,29,-53,-10,2686,5.440823555,-3.714603901,8.380903244,0.008660031,-0.008926493,0.029977029,-95,28,-73,-65,166
1695163411769734600,7.837419033,-1.458068848,6.743268967,-0.047563553,0.037038282,0.0021317,5,27,-51,-14,2686,5.432443619,-3.715801001,8.365341187,0.010392036,-0.009725881,0.029710567,-99,28,-70,-64,167
1695163411770734600,7.838616371,-1.465251446,6.742072105,-0.047963247,0.039036751,0.004130168,1,21,-51,-15,2686,5.42166996,-3.7169981,8.355764389,0.01185758,-0.011324655,0.029310873,-94,28,-71,-65,160
1695163411804710500,7.87931776,-1.517923832,6.752845764,-0.025447167,0.04516539,0.028777948,6,23,-51,-12,2686,5.446808815,-3.743334293,8.365341187,0.043833077,-0.068747319,0.038770292,-103,29,-69,-64,166
1695163411805710500,7.882909298,-1.516726732,6.749254704,-0.02571363,0.047163859,0.029977029,2,26,-49,-12,2686,5.449203014,-3.742137194,8.367734909,0.04516539,-0.0678147,0.037837673,-95,29,-69,-65,164
1695163411806710500,7.88171196,-1.517923832,6.754043102,-0.025980091,0.049162328,0.030909648,6,29,-51,-12,2686,5.450400352,-3.743334293,8.366538048,0.046630934,-0.066615619,0.036905054,-97,30,-70,-65,162
1695163411807710500,7.880515099,-1.521515131,6.758831501,-0.026379786,0.050894335,0.03130934,5,31,-49,-12,2686,5.451597214,-3.739742994,8.365341187,0.04769678,-0.065016843,0.035839204,-95,29,-71,-65,165
1695163411808710500,7.87931776,-1.52390933,6.762422562,-0.026646247,0.05249311,0.031176111,16,25,-53,-10,2686,5.448006153,-3.731363297,8.359354973,0.048895866,-0.063551299,0.034773353,-98,28,-69,-65,162
1695163411913813800,7.845798969,-1.619677424,6.87016201,-0.00106585,0.035705972,0.002531394,1,27,-49,-12,2686,5.476736546,-3.691859007,8.288725853,0.019451762,-0.050361406,0.033307809,-95,30,-67,-65,165
1695163411914813800,7.842207432,-1.622071624,6.874950409,0.000399694,0.033973966,0.001332312,3,29,-49,-12,2686,5.479130745,-3.699041605,8.282740593,0.020917306,-0.049295556,0.033840735,-95,25,-71,-62,164
1695163411915813800,7.841010571,-1.623268723,6.880935669,0.001465544,0.032241959,0.000133231,9,31,-44,-8,2686,5.477933407,-3.705027103,8.277952194,0.022915773,-0.048229709,0.03437366,-99,29,-69,-65,166
1695163411916813800,7.839813232,-1.624465823,6.884527206,0.002264931,0.030509954,-0.000666156,6,25,-45,-7,2686,5.474342346,-3.705027103,8.271966934,0.02571363,-0.046897396,0.034773353,-97,29,-68,-65,166
1695163411917813800,7.838616371,-1.625662923,6.886921406,0.002931087,0.028777948,-0.001865237,8,32,-48,-8,2686,5.470750809,-3.705027103,8.269572258,0.028644716,-0.045831546,0.035039816,-98,27,-66,-62,166
1695163411956387200,7.825448036,-1.565807939,6.873753071,-0.040502299,0.010258805,-0.016787136,4,25,-43,-8,2686,5.443217754,-3.669114113,8.273163795,0.040235836,-0.02384839,0.033307809,-97,31,-67,-62,163
1695163411957387200,7.827842236,-1.563413739,6.87255621,-0.043166921,0.007993874,-0.017852986,8,29,-44,-13,2686,5.438429356,-3.667917013,8.276755333,0.037038282,-0.025047474,0.033307809,-94,30,-68,-62,165
1695163411958387200,7.832630634,-1.564610839,6.87614727,-0.04516539,0.005995406,-0.018918836,10,27,-43,-8,2686,5.434837818,-3.669114113,8.282740593,0.033973966,-0.026779478,0.033441041,-94,27,-69,-65,164
1695163411959387200,7.835024834,-1.56221664,6.880935669,-0.046497703,0.003863706,-0.020117918,16,29,-43,-8,2686,5.433640957,-3.670311213,8.28034687,0.030776417,-0.028777948,0.033441041,-95,29,-66,-65,166
1695163411960387200,7.832630634,-1.557428241,6.884527206,-0.047563553,0.001865237,-0.021450229,9,26,-41,-8,2686,5.432443619,-3.673902512,8.281543732,0.028644716,-0.030243492,0.033441041,-97,29,-69,-58,167
1695163412116668600,7.825448036,-1.540668845,6.87016201,-0.044099543,-0.009192956,-0.033973966,16,32,-43,-9,2686,5.46596241,-3.721786499,8.341399193,0.033574272,-0.03437366,0.036771823,-99,29,-71,-58,165
1695163412117668600,7.823053837,-1.534683347,6.867767811,-0.04276723,-0.009192956,-0.034107197,17,29,-38,-14,2686,5.45997715,-3.7193923,8.339004517,0.034640122,-0.033707503,0.037038282,-95,29,-69,-62,161
1695163412118668600,7.824251175,-1.52630353,6.861782074,-0.041568145,-0.009459418,-0.034506891,8,29,-44,-13,2686,5.457582951,-3.7169981,8.336610794,0.03543951,-0.033041347,0.037171517,-94,30,-69,-60,166
1695163412119668600,7.823053837,-1.52390933,6.858190536,-0.040502299,-0.009725881,-0.034906585,9,31,-43,-8,2686,5.457582951,-3.714603901,8.329427719,0.035839204,-0.032641653,0.037437979,-78,29,-66,-63,167
1695163412120668600,7.820659637,-1.517923832,6.856993675,-0.039702907,-0.009992342,-0.035572741,16,30,-42,-8,2686,5.452794552,-3.715801001,8.32463932,0.036372125,-0.03237519,0.03757121,-95,29,-71,-60,163
1695163412163641500,7.807491779,-1.456871748,6.811503887,-0.037038282,-0.015454824,-0.04276723,16,30,-41,-10,2686,5.438429356,-3.695450306,8.32463932,0.028111791,-0.035173047,0.03996937,-91,30,-72,-56,172
1695163412164641500,7.808688641,-1.45088625,6.812700748,-0.038104136,-0.014655436,-0.042367533,17,32,-39,-8,2686,5.439626217,-3.695450306,8.323442459,0.026513018,-0.036771823,0.03996937,-96,29,-67,-52,165
1695163412165641500,7.807491779,-1.446097851,6.806715488,-0.039036751,-0.014122511,-0.041967839,19,31,-40,-6,2686,5.440823555,-3.696647406,8.322244644,0.025180703,-0.038770292,0.040102605,-93,30,-67,-59,164
1695163412166641500,7.801506042,-1.443703651,6.804321289,-0.040102605,-0.013589587,-0.041301683,16,29,-39,-10,2686,5.445611954,-3.700238705,8.317456245,0.02384839,-0.040768761,0.040502299,-97,30,-69,-56,163
1695163412167641500,7.797914982,-1.444900751,6.798335552,-0.041168455,-0.013456355,-0.040768761,8,29,-41,-9,2686,5.448006153,-3.707421303,8.31865406,0.023049004,-0.042367533,0.041168455,-93,30,-66,-54,165
1695163412199622400,7.849390507,-1.461660147,6.762422562,-0.036905054,-0.027045943,-0.03996937,17,28,-37,-6,2686,5.495890141,-3.728969097,8.311470985,0.026246555,-0.026246555,0.044898927,-97,30,-68,-57,165
1695163412200622400,7.851784706,-1.458068848,6.762422562,-0.036771823,-0.025447167,-0.038503829,16,29,-38,-8,2686,5.493495941,-3.728969097,8.306682587,0.026379786,-0.025313934,0.044765696,-93,30,-66,-55,164
1695163412201622400,7.855375767,-1.456871748,6.762422562,-0.036905054,-0.023715161,-0.037038282,16,29,-37,-10,2686,5.488707542,-3.730166197,8.304288864,0.02691271,-0.024514547,0.044898927,-96,30,-68,-52,162
1695163412202622400,7.861361504,-1.453280449,6.757634163,-0.037038282,-0.021849923,-0.035306279,16,27,-38,-10,2686,5.488707542,-3.732560396,8.300697327,0.027312404,-0.023981623,0.044765696,-98,30,-67,-58,164
1695163412203622400,7.866149902,-1.453280449,6.755239964,-0.036905054,-0.019718224,-0.033574272,18,26,-38,-6,2686,5.483919144,-3.734954596,8.295908928,0.02797856,-0.023981623,0.044765696,-95,30,-66,-52,167
1695163412252080100,7.860164165,-1.426944256,6.68700552,-0.022915773,0.017320061,-0.008660031,17,22,-37,-8,2686,5.473145008,-3.746925592,8.275558472,0.041301683,-0.053958651,0.06115314,-93,30,-68,-53,164
1695163412253080100,7.858967304,-1.426944256,6.68700552,-0.022915773,0.017852986,-0.008127105,18,31,-35,-10,2686,5.470750809,-3.740940094,8.279149055,0.039836142,-0.055024505,0.061019909,-95,30,-69,-54,165
1695163412254080100,7.858967304,-1.429338455,6.691793919,-0.022516079,0.017986218,-0.008260337,17,29,-38,-6,2686,5.468356609,-3.740940094,8.28633213,0.038104136,-0.055424199,0.060486984,-95,30,-67,-52,164
1695163412255080100,7.856573105,-1.432929754,6.689399719,-0.022382848,0.01825268,-0.008127105,16,31,-37,-6,2686,5.469553947,-3.740940094,8.289923668,0.036238898,-0.055290964,0.06008729,-95,30,-66,-52,165
1695163412256080100,7.850587368,-1.431732655,6.696582317,-0.022382848,0.018519141,-0.008393568,17,29,-37,-6,2686,5.46596241,-3.742137194,8.287528992,0.034773353,-0.054758042,0.059687596,-95,29,-66,-59,167
1695163412302826900,7.806294441,-1.446097851,6.777985096,-0.042101074,0.014655436,-0.02158346,17,30,-35,-9,2686,5.451597214,-3.726574898,8.28633213,0.048629403,-0.066082694,0.064217456,-96,30,-68,-54,166
1695163412303826900,7.803900242,-1.44729495,6.777985096,-0.042633995,0.01398928,-0.022116385,18,29,-33,-9,2686,5.456385612,-3.730166197,8.283937454,0.047430322,-0.066349156,0.065016843,-94,30,-68,-52,166
1695163412304826900,7.801506042,-1.44849205,6.783970356,-0.043699846,0.012523737,-0.023315467,20,31,-37,-8,2686,5.45997715,-3.731363297,8.28034687,0.046098009,-0.066349156,0.066082694,-95,30,-67,-52,164
1695163412305826900,7.796717644,-1.44849205,6.786364555,-0.044765696,0.01079173,-0.024248086,16,31,-39,-8,2686,5.463568211,-3.733757496,8.279149055,0.044366002,-0.065816231,0.06674885,-95,29,-67,-58,167
1695163412306826900,7.794323444,-1.452083349,6.791152954,-0.045431852,0.008660031,-0.025580399,18,29,-37,-9,2686,5.470750809,-3.734954596,8.281543732,0.042900458,-0.064883612,0.067415006,-93,29,-69,-52,166
1695163412380827000,7.849390507,-1.464054346,6.835445881,-0.047830015,-0.022116385,-0.036771823,18,29,-35,-6,2686,5.477933407,-3.767276287,8.209717751,0.042633995,-0.044499233,0.057422664,-93,30,-66,-52,166
