timestamp,left_data_Ac_X,left_data_Ac_Y,left_data_Ac_Z,left_data_Gy_X,left_data_Gy_Y,left_data_Gy_Z,left_data_flex_1,left_data_flex_2,left_data_flex_3,left_data_flex_4,left_data_flex_5,right_data_Ac_X,right_data_Ac_Y,right_data_Ac_Z,right_data_Gy_X,right_data_Gy_Y,right_data_Gy_Z,right_data_flex_1,right_data_flex_2,right_data_flex_3,right_data_flex_4,right_data_flex_5
1695160628319491600,-8.398859978,-2.257732153,-0.828393817,-0.438730478,-0.139626339,-0.368117899,25,32,23,35,23,-9.157821655,6.057330132,2.336740971,0.271125585,-0.260866761,0.161476254,-50,-2,-19,32,151
1695160628320491600,-8.388085365,-2.310404539,-0.821211159,-0.462712079,-0.138427258,-0.367585003,25,32,19,31,26,-9.15063858,6.175843239,2.456450939,0.258735061,-0.244212866,0.152283311,-46,-3,-19,31,151
1695160628321491600,-8.374917984,-2.369062662,-0.809240162,-0.483362943,-0.135762632,-0.364787132,24,32,22,33,28,-9.143456459,6.295553207,2.571372509,0.245012254,-0.226892799,0.144555897,-46,-4,-19,31,151
1695160628322491600,-8.358158112,-2.428917646,-0.799663365,-0.49961713,-0.131898925,-0.359191418,24,33,22,34,25,-9.137471199,6.410475254,2.679111719,0.230490044,-0.209705979,0.138027564,-41,-3,-22,31,150
1695160628323491600,-8.336610794,-2.495955229,-0.793677866,-0.512007654,-0.126836136,-0.351730466,21,33,19,34,27,-9.126696587,6.525396824,2.783259392,0.215434924,-0.192918837,0.133364469,-45,-5,-19,31,151
1695160628421455200,-7.963114738,-3.259705544,-0.770932972,-0.271525264,0.100989282,-0.07194487,22,33,22,38,28,-8.70172596,8.214506149,4.098873138,0.064084224,-0.176264927,0.396096468,-46,-2,-21,31,151
1695160628422455200,-7.95832634,-3.252522945,-0.776918471,-0.243013784,0.114045948,-0.063418068,24,33,17,34,29,-8.700529099,8.281543732,4.110844135,0.063284837,-0.201179162,0.435133219,-47,-2,-21,32,150
1695160628423455200,-7.95593214,-3.240551949,-0.78170687,-0.214768767,0.126969382,-0.056356817,26,32,20,35,27,-8.705317497,8.347384453,4.109647274,0.061952524,-0.229157731,0.474969387,-45,-2,-23,31,151
1695160628424455200,-7.953537941,-3.224989653,-0.793677866,-0.186923429,0.139493108,-0.050894335,26,33,21,32,28,-8.718485832,8.412027359,4.108449936,0.06261868,-0.260600299,0.518136322,-44,-2,-18,33,150
1695160628425455200,-7.95593214,-3.215412855,-0.799663365,-0.168670759,0.147620216,-0.048229709,25,32,19,30,30,-8.720879555,8.493430138,4.09408474,0.063018374,-0.296972424,0.563701391,-48,-2,-21,32,151
1695160628467406100,-8.58680439,-2.56658411,-0.905008256,0.036105666,0.264597237,-0.112447165,29,31,20,38,29,-9.739612579,10.82059479,3.982754469,-0.061819296,-1.670586586,1.592646241,-49,8,-23,32,151
1695160628468406100,-8.63109684,-2.549824715,-0.906205356,0.029977029,0.265130162,-0.113379791,28,35,20,38,32,-9.765948296,10.89002609,3.94205308,-0.093928024,-1.743863702,1.650335312,-48,4,-23,31,151
1695160628469406100,-8.66940403,-2.534262419,-0.897825658,0.023182238,0.265529871,-0.113379791,29,34,21,32,29,-9.785101891,10.93671322,3.913322687,-0.128035218,-1.813676834,1.708024502,-45,7,-22,32,151
1695160628470406100,-8.704120636,-2.524685621,-0.894234359,0.015721286,0.265796334,-0.112313934,20,36,23,34,29,-9.794678688,10.95706367,3.892971992,-0.164007664,-1.879626274,1.765713573,-45,12,-21,31,152
1695160628471406100,-8.74003315,-2.516305923,-0.889445961,0.007993874,0.266062796,-0.110049009,25,33,21,32,27,-9.797073364,10.94629002,3.878606796,-0.199980095,-1.940912724,1.824202061,-47,10,-25,33,151
1695160628510382700,-8.898050308,-2.67671752,-0.814028561,-0.030909648,0.295773357,0.066349156,26,32,23,34,30,-8.596381187,9.613917351,4.149151325,-0.357192963,-2.112248182,2.89045167,-46,8,-24,33,151
1695160628511382700,-8.926780701,-2.677914619,-0.81642276,-0.025047474,0.296705961,0.077274114,26,35,21,35,28,-8.487444878,9.531316757,4.161122322,-0.337341517,-2.082271099,2.921094894,-47,10,-29,31,151
1695160628512382700,-8.960299492,-2.681505919,-0.822408259,-0.019052068,0.297372133,0.088065848,25,32,20,34,28,-8.378508568,9.458293915,4.169502258,-0.315225124,-2.051228285,2.948673725,-46,7,-29,34,151
1695160628513382700,-8.998606682,-2.683900118,-0.829590917,-0.01292343,0.297638565,0.098591112,26,33,20,38,28,-8.276755333,9.396044731,4.176684856,-0.291243494,-2.01845336,2.972655535,-44,9,-25,31,152
1695160628514382700,-9.03571701,-2.689885616,-0.834379315,-0.006661562,0.297771841,0.109116383,24,30,22,31,29,-8.178592682,9.340977669,4.177882195,-0.265663087,-1.984479427,2.99290657,-46,13,-25,35,152
1695160628550359100,-9.536105156,-2.962824583,-0.782903969,0.134830013,0.259534448,0.299637049,22,33,21,32,32,-6.370970726,8.402450562,4.165910721,0.185857579,-1.441695213,2.927090406,-48,12,-28,37,151
1695160628551359100,-9.514557838,-2.986766577,-0.785298169,0.144822344,0.255670756,0.305232793,25,32,20,34,28,-6.269217014,8.35097599,4.171896458,0.201312408,-1.425840735,2.914833069,-46,12,-27,33,150
1695160628552359100,-9.481039047,-3.007117271,-0.788889468,0.155214384,0.251673818,0.309895873,25,33,21,35,27,-6.173449039,8.297105789,4.170699596,0.216234297,-1.41065228,2.902575731,-49,11,-33,32,151
1695160628553359100,-9.44512558,-3.026270866,-0.788889468,0.165872887,0.247277185,0.313359886,25,34,17,34,29,-6.076483727,8.239645004,4.169502258,0.229957119,-1.396263361,2.890185118,-46,11,-25,34,152
1695160628554359100,-9.409213066,-3.043030262,-0.792480767,0.176797852,0.242347628,0.315624803,29,35,19,33,30,-5.97951889,8.185775757,4.171896458,0.243013784,-1.382807016,2.877528191,-47,9,-29,34,151
1695160628586338700,-9.004592896,-2.462436438,-1.07858789,0.176531389,0.084068909,0.046897396,26,32,21,34,28,-4.377797604,7.003039837,4.066551685,0.453519166,-1.187090278,2.557373762,-49,11,-29,33,151
1695160628587338700,-9.02973175,-2.407369852,-1.097741485,0.154681474,0.075275652,0.019718224,25,31,19,32,29,-4.310760021,6.939593792,4.058171749,0.466709018,-1.182427287,2.536989212,-45,13,-29,33,151
1695160628588338700,-9.06205368,-2.357091665,-1.108515382,0.130166918,0.066882081,-0.007460949,24,32,19,31,28,-4.244919777,6.87614727,4.050989151,0.479366004,-1.178963304,2.516738176,-47,12,-27,36,151
1695160628589338700,-9.097966194,-2.309207439,-1.120486379,0.103254206,0.058888208,-0.034506891,26,32,20,32,30,-4.177882195,6.819883347,4.042609692,0.490957111,-1.17656517,2.496220589,-50,11,-27,37,152
1695160628590338700,-9.135076523,-2.262520552,-1.130063176,0.074209802,0.051294025,-0.060886677,21,33,19,34,29,-4.110844135,6.773196697,4.031835556,0.500549793,-1.175765634,2.475303173,-47,13,-25,34,151
1695160628632313500,-9.491812706,-2.15478158,-1.234210968,-0.459781021,-0.006661562,-0.295240432,21,32,21,32,30,-2.430114746,5.98550415,4.066551685,0.238883615,-1.299404263,1.930920362,-46,17,-26,37,151
1695160628633313500,-9.466673851,-2.167949677,-1.231816769,-0.474836111,-0.005728943,-0.29244259,24,33,22,35,31,-2.30681324,5.913678169,4.107253075,0.212237358,-1.300869703,1.894947886,-49,16,-25,36,151
1695160628634313500,-9.436745644,-2.178723574,-1.238999367,-0.487626314,-0.004529862,-0.288578868,24,29,16,38,29,-2.176329374,5.844246387,4.141968727,0.185324654,-1.301402807,1.857776403,-44,15,-23,34,151
1695160628635313500,-9.403226852,-2.195482969,-1.252167463,-0.49708578,-0.002931087,-0.283516079,22,32,16,35,23,-2.038662672,5.762843609,4.179079056,0.156946406,-1.300869703,1.819938779,-48,16,-30,40,151
1695160628636313500,-9.350554466,-2.219424963,-1.252167463,-0.506811619,-0.000932619,-0.275655419,28,33,23,38,29,-1.892616391,5.671864033,4.224568844,0.129900455,-1.299404263,1.782101154,-46,15,-24,37,151
1695160628676290600,-8.561665535,-2.164358377,-1.248576164,-0.462978572,0.019984685,-0.146421134,21,35,15,36,28,-0.459686726,4.265270233,4.355052948,-0.25194028,-1.242781043,0.811911166,-50,25,-34,36,151
1695160628677290600,-8.538920403,-2.146401882,-1.243787766,-0.462045938,0.016520673,-0.140159264,25,32,24,35,29,-0.486022949,4.243722439,4.305971622,-0.250607967,-1.246511459,0.731306314,-50,24,-33,38,151
1695160628678290600,-8.519766808,-2.128445387,-1.241393566,-0.462045938,0.012656967,-0.133630931,27,32,23,36,29,-0.523133099,4.228160381,4.262876034,-0.244745791,-1.25077486,0.647770226,-49,27,-31,37,151
1695160628679290600,-8.501810074,-2.108094692,-1.236605167,-0.462712079,0.008393568,-0.126836136,22,32,23,32,27,-0.560243189,4.220977783,4.218583584,-0.233820826,-1.255571246,0.561836123,-49,24,-31,41,151
1695160628680290600,-8.485051155,-2.093729496,-1.236605167,-0.464044392,0.00319755,-0.119508423,26,32,21,32,26,-0.606930137,4.220977783,4.167108059,-0.218499228,-1.260633945,0.473503798,-47,27,-32,34,151
1695160628720264700,-8.690952301,-2.027888775,-1.452083349,-0.530393541,-0.223695248,0.114978559,28,33,17,31,28,-2.105700493,5.480327606,2.148796082,0.932751954,-1.5203017,-1.220797777,-49,28,-34,34,151
1695160628721264700,-8.716091156,-2.032677174,-1.471236944,-0.531592667,-0.241415009,0.13243185,25,32,16,34,28,-2.19308877,5.639542103,2.026691675,1.021617174,-1.531493068,-1.283549786,-51,24,-34,31,151
1695160628722264700,-8.74003315,-2.038662672,-1.493981838,-0.5318591,-0.259667695,0.149618685,26,32,20,35,29,-2.264914751,5.827486992,1.975216389,1.109816194,-1.54574883,-1.340439558,-49,28,-34,34,151
1695160628723264700,-8.767566681,-2.04584527,-1.514332533,-0.531326175,-0.27845329,0.1672052,25,33,23,38,29,-2.30681324,6.014234543,1.918952703,1.188822269,-1.550944805,-1.396929622,-49,25,-34,33,151
1695160628724264700,-8.792705536,-2.057816267,-1.539471745,-0.530260324,-0.29710567,0.184658498,25,33,23,34,27,-2.310404539,6.155492783,1.869871497,1.271692157,-1.550145507,-1.448223472,-51,20,-33,32,151
1695160628760239400,-9.22725296,-2.522291422,-1.950077295,-0.39996019,-0.565033674,0.513606429,25,33,23,34,28,-2.096123695,8.506598473,1.224634171,1.596110225,-1.072511435,-1.431702852,-59,30,-34,32,151
1695160628761239400,-9.239224434,-2.557007313,-1.97042799,-0.387969375,-0.571428835,0.529594183,24,33,21,32,29,-2.076969862,8.5484972,1.170764685,1.557872891,-1.041335344,-1.381741166,-52,30,-33,31,151
1695160628762239400,-9.245209694,-2.589329243,-1.982398987,-0.375978559,-0.576758087,0.545315444,26,33,21,35,30,-2.060210466,8.591592789,1.119289279,1.516837597,-1.010825396,-1.328715086,-54,30,-35,31,151
1695160628763239400,-9.248801231,-2.619256735,-1.994369984,-0.363854527,-0.581021428,0.559837699,26,30,21,35,28,-2.04464817,8.633491516,1.071405292,1.473271132,-0.980448663,-1.273557425,-53,30,-34,32,151
1695160628764239400,-9.255983353,-2.649184227,-2.005143881,-0.351730466,-0.584218979,0.573826909,25,32,21,33,28,-2.035071373,8.674192429,1.029506683,1.427173138,-0.949938774,-1.216667652,-52,30,-34,31,152
1695160628807217700,-9.273940086,-2.925714493,-2.23259306,-0.229424208,-0.526663125,0.610465586,26,33,19,34,30,-2.072181463,9.343372345,0.712275028,0.393698305,-0.479499221,-0.332145482,-54,30,-37,29,151
1695160628808217700,-9.266757965,-2.93529129,-2.225410461,-0.22702603,-0.519202113,0.597142458,22,32,21,38,29,-2.067393064,9.350554466,0.723048925,0.346134782,-0.462445647,-0.308297068,-54,29,-36,31,152
1695160628809217700,-9.255983353,-2.949656487,-2.224213362,-0.224361405,-0.511208296,0.582486987,26,34,21,32,27,-2.061407566,9.352949142,0.733822823,0.300569683,-0.445924938,-0.286180705,-51,28,-34,31,151
1695160628810217700,-9.241618156,-2.958036184,-2.212242365,-0.221696794,-0.502415001,0.5662328,27,32,19,34,29,-2.050633669,9.354146004,0.74459672,0.257269531,-0.429937184,-0.265796334,-51,30,-34,29,151
1695160628811217700,-9.230844498,-2.964021683,-2.205059767,-0.21863246,-0.492689133,0.548646212,25,32,19,38,29,-2.039859772,9.350554466,0.761356115,0.216767237,-0.413682997,-0.24674426,-51,30,-33,31,151
1695160628863202500,-9.059659004,-2.802412987,-1.966836691,-0.142557427,-0.193851456,0.066215925,24,32,19,32,27,-1.618480325,9.233239174,1.215057373,-0.010658499,-0.137761101,0.045298621,-54,23,-34,31,151
1695160628864202500,-9.069235802,-2.783259392,-1.953668594,-0.141891271,-0.175332308,0.040768761,30,31,19,31,30,-1.582567334,9.240421295,1.261744261,-0.001465544,-0.120707504,0.069013782,-54,29,-34,31,151
1695160628865202500,-9.077615738,-2.762908697,-1.946485996,-0.142024502,-0.156946406,0.01612098,25,32,17,34,27,-1.551442742,9.239224434,1.319205165,0.008926493,-0.103520676,0.092595711,-51,16,-34,31,151
1695160628866202500,-9.083600998,-2.736572504,-1.935712099,-0.14282389,-0.138960183,-0.007194487,24,32,20,35,27,-1.532289028,9.240421295,1.359906554,0.01718683,-0.091130167,0.110448696,-51,25,-32,31,151
1695160628867202500,-9.090784073,-2.719813108,-1.927332401,-0.143623278,-0.12723583,-0.022116385,27,32,21,31,27,-1.516726732,9.235632896,1.393425345,0.02571363,-0.079139359,0.127768755,-53,30,-34,31,151
1695160628911176100,-9.222464561,-2.603694439,-1.610100627,-0.124171518,0.105918832,-0.206774876,24,35,19,35,24,-1.278503656,9.254786491,2.015917778,0.129500762,0.06674885,0.312826961,-54,30,-34,30,151
1695160628912176100,-9.217676163,-2.609679937,-1.594538331,-0.113646246,0.112580396,-0.2051761,19,33,19,35,28,-1.268926859,9.24760437,2.039859772,0.128434911,0.070479326,0.312693715,-57,28,-34,30,150
1695160628913176100,-9.21528244,-2.619256735,-1.577778935,-0.101921894,0.118709028,-0.202911183,27,32,19,38,30,-1.252167463,9.239224434,2.066195965,0.127102599,0.074076563,0.311894357,-51,30,-34,32,152
1695160628914176100,-9.211690903,-2.627636433,-1.56221664,-0.088865243,0.124437973,-0.199713632,26,31,19,30,29,-1.223437071,9.22725296,2.104503393,0.125370592,0.078739658,0.309895873,-53,26,-29,31,151
1695160628915176100,-9.200917244,-2.633621931,-1.550245643,-0.074875958,0.129900455,-0.195849925,24,32,21,34,28,-1.201889277,9.21528244,2.132036686,0.123771824,0.082603365,0.307764143,-53,30,-38,31,150
1695160628960128300,-8.954314232,-2.71502471,-1.379060149,0.369316995,0.152283311,-0.031442571,25,34,20,32,30,-0.952892303,9.053673744,2.52827692,0.060620211,0.174266458,0.207840726,-51,29,-34,31,151
1695160628961128300,-8.950722694,-2.71502471,-1.37666595,0.400093406,0.149352223,-0.019451762,28,32,21,35,29,-0.952892303,9.050082207,2.541445017,0.053958651,0.17559877,0.201045945,-51,30,-34,31,151
1695160628962128300,-8.948328972,-2.71502471,-1.368286252,0.431535989,0.145754978,-0.007061256,23,33,19,34,30,-0.954089403,9.052476883,2.554613113,0.046630934,0.176264927,0.194117904,-54,30,-34,31,151
1695160628963128300,-8.945934296,-2.71263051,-1.365892053,0.463378251,0.14175804,0.005329249,24,32,21,36,30,-0.954089403,9.056067467,2.56897831,0.038770292,0.176664621,0.187323123,-54,29,-34,32,151
1695160628964128300,-8.944737434,-2.709039211,-1.362300754,0.495753467,0.137361407,0.017852986,27,33,21,32,31,-0.957680702,9.063250542,2.580949545,0.030243492,0.176531389,0.180661559,-51,28,-34,31,151
1695160629005120200,-9.198522568,-2.742558002,-1.383848548,1.164574265,0.021849923,0.298437983,24,31,20,38,29,-0.939724147,9.323021889,2.895787001,-0.301901996,0.137761101,0.051826954,-55,25,-34,31,152
1695160629006120200,-9.211690903,-2.7521348,-1.385045648,1.204277158,0.016254211,0.316957116,28,32,23,33,26,-0.92895025,9.327810287,2.900575399,-0.32255286,0.136295557,0.045565084,-51,29,-34,31,151
1695160629007120200,-9.224859238,-2.758120298,-1.381454349,1.243846774,0.01079173,0.335742712,24,31,20,34,29,-0.919373453,9.33020401,2.905363798,-0.342004567,0.134696782,0.039436448,-55,28,-34,31,149
1695160629008120200,-9.234436035,-2.766499996,-1.37666595,1.283283353,0.005462481,0.354528338,21,32,21,33,28,-0.915782154,9.325415611,2.905363798,-0.360523731,0.132831544,0.033840735,-53,27,-35,31,151
1695160629009120200,-9.244012833,-2.771288395,-1.37546885,1.322986245,0.000399694,0.373180717,24,32,21,35,29,-0.907402456,9.319430351,2.901772499,-0.377577305,0.130566612,0.028911179,-55,28,-35,31,151
1695160629091049700,-9.10634613,-2.725798607,-1.37546885,1.91200161,-0.129767224,0.547580421,24,32,21,32,28,-1.00436759,9.120711327,2.850297213,-0.315091878,0.068480857,0.063551299,-55,30,-33,31,150
1695160629092049700,-9.078812599,-2.726995707,-1.369483352,1.931986213,-0.140692189,0.546647787,22,32,19,30,29,-1.011550188,9.118317604,2.856282711,-0.298304737,0.067681469,0.0678147,-51,27,-34,31,151
1695160629093049700,-9.047688484,-2.722207308,-1.371877551,1.950238824,-0.151483908,0.544915795,21,32,20,31,30,-1.016338587,9.114726067,2.867056608,-0.281517595,0.067281775,0.07194487,-60,27,-36,31,151
1695160629094049700,-9.02374649,-2.718616009,-1.373074651,1.967159271,-0.162142411,0.542117953,26,33,17,30,26,-1.023521185,9.109937668,2.871845007,-0.264730483,0.067015313,0.075808577,-49,28,-34,31,151
1695160629095049700,-8.998606682,-2.710236311,-1.370680451,1.982880592,-0.173067391,0.538520634,24,32,21,34,29,-1.027112484,9.111134529,2.873042107,-0.248076573,0.066882081,0.079006128,-53,26,-34,31,151
1695160629177000300,-8.513781548,-2.19308877,-1.286883354,1.887620211,-0.270725876,0.293908119,25,32,17,35,31,-1.092953086,9.214085579,2.960430384,0.001465544,0.084868304,0.014921899,-53,30,-34,31,152
1695160629178000300,-8.499416351,-2.157175779,-1.278503656,1.857376695,-0.269127101,0.27272436,24,32,16,29,27,-1.086967587,9.229647636,2.97479558,0.008660031,0.086200617,0.007194487,-51,25,-34,31,151
1695160629179000300,-8.488641739,-2.11647439,-1.273715258,1.824335337,-0.266862184,0.251274139,22,32,19,34,29,-1.080982089,9.241618156,2.990357876,0.01505513,0.087666154,-0.000133231,-50,27,-34,32,151
1695160629180000300,-8.479064941,-2.073378563,-1.270123959,1.788496137,-0.263664633,0.229290962,24,32,22,29,29,-1.07858789,9.25957489,2.998737574,0.020784073,0.088998467,-0.007327718,-53,29,-34,30,151
1695160629181000300,-8.473079681,-2.031480074,-1.261744261,1.749992251,-0.259534448,0.207174569,24,32,21,33,28,-1.074996591,9.277531624,3.001131773,0.025313934,0.089797854,-0.01398928,-54,25,-35,29,151
1695160629224973700,-8.627506256,-1.520318031,-1.368286252,0.651101053,-0.116310872,-0.224361405,22,32,24,33,29,-1.095347285,9.599552155,3.031059265,-0.011058193,0.040502299,-0.068347625,-55,26,-35,31,151
1695160629225973700,-8.644265175,-1.516726732,-1.380257249,0.586883605,-0.108983152,-0.245545179,19,32,19,29,30,-1.098938584,9.611522675,3.029862165,-0.014388974,0.038637057,-0.069946401,-54,29,-36,30,151
1695160629226973700,-8.65743351,-1.516726732,-1.392228246,0.524131715,-0.102188364,-0.266196012,21,32,19,32,27,-1.102529883,9.621099472,3.026270866,-0.017453292,0.037171517,-0.071411945,-55,29,-34,31,151
1695160629227973700,-8.668207169,-1.520318031,-1.407790542,0.463111788,-0.096192956,-0.286447167,24,32,16,30,27,-1.106121182,9.627084732,3.023876667,-0.020251149,0.035705972,-0.072477795,-54,25,-33,31,151
1695160629228973700,-8.678980827,-1.52510643,-1.422155857,0.403690636,-0.090464011,-0.306298614,26,32,20,34,30,-1.11450088,9.633070946,3.025073767,-0.022382848,0.034506891,-0.073410407,-51,27,-32,31,151
1695160629268947800,-8.678980827,-1.662773132,-1.731007814,-0.33973965,0.007460949,-0.573960185,21,33,20,31,29,-1.219845772,9.619902611,2.948459387,0.004796324,0.007993874,-0.012523737,-52,28,-36,29,150
1695160629269947800,-8.681375504,-1.663970232,-1.758541107,-0.361456335,0.013456355,-0.582220554,20,32,23,30,28,-1.22583127,9.615114212,2.949656487,0.009326187,0.008127105,-0.006928025,-49,29,-32,31,153
1695160629270947800,-8.682572365,-1.666364431,-1.780089021,-0.381973952,0.019185297,-0.589947879,22,32,17,34,29,-1.230619669,9.612719536,2.944868088,0.014255743,0.008660031,-0.001465544,-51,26,-32,31,151
1695160629271947800,-8.688557625,-1.660378933,-1.806425214,-0.401292503,0.024781011,-0.597275674,23,32,24,32,24,-1.234210968,9.606734276,2.941276789,0.019451762,0.009459418,0.003730475,-56,26,-34,31,147
1695160629272947800,-8.706514359,-1.646013618,-1.838746905,-0.419278711,0.029977029,-0.604070425,24,32,24,33,26,-1.240196466,9.606734276,2.938882589,0.025180703,0.010392036,0.008793262,-50,27,-34,31,151
1695160629304927300,-9.31823349,-1.608903527,-2.221819162,-0.629784048,0.047830015,-0.648436427,26,32,23,29,30,-1.347935557,9.564835548,2.944868088,0.105119444,0.086200617,0.064883612,-55,30,-33,33,151
1695160629305927300,-9.278728485,-1.63643682,-2.217030764,-0.627385914,0.050494641,-0.641641676,24,32,21,35,30,-1.347935557,9.567230225,2.953247786,0.102321595,0.09246248,0.065949462,-55,27,-33,29,150
1695160629306927300,-9.232041359,-1.663970232,-2.209848166,-0.622856021,0.054358348,-0.634047449,18,32,24,38,29,-1.343147159,9.568427086,2.956839085,0.098191425,0.099257268,0.067015313,-53,30,-35,31,150
1695160629307927300,-9.173383713,-1.691503525,-2.201468468,-0.616594136,0.059154671,-0.625653923,25,33,26,34,27,-1.341950059,9.574412346,2.965218782,0.09272895,0.106451757,0.067947932,-51,28,-33,32,151
1695160629308927300,-9.114726067,-1.722628117,-2.197877169,-0.608333826,0.064883612,-0.616327703,24,32,23,32,32,-1.335964561,9.583989143,2.972401381,0.086200617,0.113513015,0.068614088,-53,27,-34,31,151
1695160629344926100,-7.771578789,-2.176329374,-1.942894697,-0.168137819,0.369183779,-0.391833097,23,32,27,35,26,-1.207874775,9.564835548,3.275267839,-0.17866309,0.229157731,0.079139359,-55,29,-34,32,151
1695160629345926100,-7.741651058,-2.177526474,-1.918952703,-0.137094945,0.39529708,-0.381574243,28,33,28,35,26,-1.197100878,9.557653427,3.298012733,-0.193984687,0.230490044,0.081404284,-51,28,-34,31,151
1695160629346926100,-7.720103264,-2.173935175,-1.893813491,-0.105918832,0.421810091,-0.371981621,25,33,28,32,27,-1.185129881,9.550470352,3.324349165,-0.209039822,0.231555894,0.083802447,-54,27,-34,31,151
1695160629347926100,-7.705738068,-2.169146776,-1.871068597,-0.07500919,0.448189914,-0.362655431,26,32,26,32,27,-1.174355984,9.542090416,3.34230566,-0.223961711,0.232088804,0.086200617,-50,27,-34,32,151
1695160629348926100,-7.697358608,-2.163161278,-1.845929503,-0.044232771,0.474836111,-0.35372895,21,33,27,34,28,-1.161187768,9.536105156,3.361459255,-0.238617152,0.232355282,0.088598773,-50,29,-34,31,151
1695160629382882300,-8.52216053,-2.164358377,-1.306037068,0.467641652,0.829231262,-0.169869825,24,32,26,34,28,-1.207874775,9.28591156,3.49673152,-0.41861257,0.119375192,0.145355284,-53,27,-34,31,151
1695160629383882300,-8.590395927,-2.181117773,-1.26294136,0.49495405,0.837891281,-0.156413481,22,36,26,32,29,-1.221042871,9.26556015,3.490746021,-0.417147011,0.108316995,0.146021441,-51,24,-36,31,151
1695160629384882300,-8.664615631,-2.19189167,-1.219845772,0.523065865,0.845219016,-0.142157733,26,34,26,31,31,-1.235408068,9.246406555,3.481169224,-0.413816214,0.097525269,0.145754978,-55,25,-35,37,151
1695160629385882300,-8.74003315,-2.207453966,-1.175553083,0.55157733,0.852280259,-0.128434911,24,32,26,35,27,-1.247379065,9.228450775,3.471592426,-0.408886671,0.086999997,0.144822344,-51,23,-35,31,151
1695160629386882300,-8.817844391,-2.220622063,-1.137245774,0.579955578,0.85800916,-0.114578865,24,32,23,32,29,-1.255758762,9.206902504,3.466804028,-0.399693698,0.074076563,0.142024502,-54,27,-34,31,152
1695160629521526600,-9.06803894,-2.480392933,2.002749681,0.322686076,-0.003330781,0.08753293,18,30,16,29,27,-8.708909035,4.408922195,1.164779186,0.302301675,-0.093794793,-0.246211335,-63,-8,-27,26,142
1695160629522526600,-9.069235802,-2.486378431,2.003946781,0.323085755,-0.004796324,0.087932616,18,29,15,28,23,-8.702922821,4.42448473,1.159990668,0.304300129,-0.09352833,-0.246344566,-63,-7,-29,28,139
1695160629523526600,-9.06803894,-2.49236393,2.006340981,0.323085755,-0.0063951,0.088065848,18,32,15,27,20,-8.6957407,4.437653065,1.161187768,0.305366009,-0.093261868,-0.246477783,-62,-8,-27,28,141
1695160629524526600,-9.066842079,-2.495955229,2.005143881,0.322686076,-0.007727412,0.087799385,18,30,15,28,23,-8.686163902,4.455609322,1.159990668,0.306565106,-0.09246248,-0.246078104,-62,-8,-25,26,138
1695160629525526600,-9.058462143,-2.500743628,2.003946781,0.321886688,-0.009326187,0.08726646,20,31,17,30,25,-8.671798706,4.477157116,1.156399369,0.307231247,-0.091130167,-0.245944872,-61,-7,-26,29,138
1695160629569497900,-9.398438454,-2.768894196,0.142454997,-0.193984687,0.201045945,0.06674885,16,32,10,26,23,-8.62511158,4.01747036,0.48123455,0.015188362,-0.016520673,-0.07500919,-63,-9,-27,29,144
1695160629570497900,-9.41280365,-2.779668093,0.153228909,-0.183992341,0.219831541,0.074076563,17,27,8,28,18,-8.627506256,4.022258759,0.48362875,0.015454824,-0.016653905,-0.071145482,-62,-8,-27,29,138
1695160629571497900,-9.424775124,-2.79163909,0.161608621,-0.17346707,0.239016846,0.081271052,18,30,11,28,21,-8.629899979,4.029441357,0.48482585,0.015721286,-0.016520673,-0.067415006,-62,-9,-25,29,138
1695160629572497900,-9.430760384,-2.800018787,0.169988319,-0.166405827,0.25194028,0.086067379,18,31,11,30,20,-8.634688377,4.031835556,0.492008448,0.015854517,-0.016653905,-0.063418068,-64,-8,-30,26,142
1695160629573497900,-9.441534042,-2.808398485,0.179565132,-0.155614093,0.271258801,0.093128636,17,31,10,30,21,-8.634688377,4.033032894,0.496796846,0.015854517,-0.016787136,-0.059687596,-62,-8,-27,29,140
1695160629616472300,-9.09437561,-2.04584527,-0.943315446,-0.064084224,0.092196018,-0.150950998,19,32,4,26,18,-8.672995567,3.690661907,0.767341673,0.311627865,-0.035705972,0.088598773,-62,-11,-27,28,140
1695160629617472300,-9.095572472,-2.041056871,-0.938527048,-0.063151613,0.09272895,-0.151350692,16,32,0,28,19,-8.675390244,3.690661907,0.762553215,0.316024512,-0.034773353,0.089931086,-64,-11,-31,28,139
1695160629618472300,-9.097966194,-2.039859772,-0.940921247,-0.062085759,0.093128636,-0.151750386,18,32,3,29,19,-8.678980827,3.694253206,0.757764816,0.320287883,-0.033840735,0.091130167,-63,-9,-28,26,139
1695160629619472300,-9.10036087,-2.037465572,-0.934935749,-0.060886677,0.093395106,-0.151883617,18,30,5,27,20,-8.682572365,3.697844505,0.758961916,0.324018389,-0.033174578,0.092196018,-63,-9,-29,26,140
1695160629620472300,-9.103952408,-2.032677174,-0.92895025,-0.059820827,0.093794793,-0.151883617,17,29,3,29,17,-8.684967041,3.702632904,0.756567717,0.32721591,-0.032108728,0.093128636,-62,-11,-29,24,136
1695160629656447800,-9.06803894,-2.00993228,-0.9660604,-0.052359879,0.012257273,-0.012523737,17,33,-3,27,18,-8.632294655,3.663128614,0.580593884,0.07993874,-0.031709034,0.026113322,-69,-12,-30,27,140
1695160629657447800,-9.065644264,-2.00753808,-0.9660604,-0.052093416,0.012523737,-0.012257273,9,30,-3,26,17,-8.637083054,3.665522814,0.588973641,0.079139359,-0.030376723,0.024647778,-63,-9,-31,25,136
1695160629658447800,-9.066842079,-2.012326479,-0.961272001,-0.051693719,0.012656967,-0.011990812,16,31,-1,29,19,-8.640673637,3.667917013,0.59376204,0.078473203,-0.02904441,0.023182238,-64,-11,-29,28,140
1695160629659447800,-9.070432663,-2.014720678,-0.962469101,-0.051294025,0.013056661,-0.011724349,16,31,3,28,14,-8.644265175,3.672705412,0.599747539,0.077673815,-0.027312404,0.021849923,-67,-7,-31,26,137
1695160629660447800,-9.0740242,-2.013523579,-0.963666201,-0.051027562,0.013323124,-0.011457887,16,32,5,27,16,-8.645462036,3.67988801,0.604535937,0.076741189,-0.025980091,0.02051761,-65,-10,-28,26,138
1695160629692430500,-9.06205368,-2.093729496,-0.901416957,-0.027845331,0.010924961,-0.035306279,17,32,4,27,21,-8.683769226,3.75769949,0.553060591,-0.075142421,0.020251149,0.024114855,-76,-14,-29,27,140
1695160629693430500,-9.06205368,-2.092532396,-0.899022758,-0.027578866,0.010658499,-0.035306279,18,31,5,29,19,-8.690952301,3.75650239,0.547075093,-0.069413476,0.016387442,0.023715161,-74,-12,-31,27,137
1695160629694430500,-9.064447403,-2.088941097,-0.905008256,-0.027312404,0.010258805,-0.03543951,16,32,4,28,18,-8.698134422,3.754108191,0.545877993,-0.063551299,0.01185758,0.02358193,-74,-11,-31,27,138
1695160629695430500,-9.069235802,-2.085349798,-0.901416957,-0.027312404,0.009459418,-0.03543951,20,32,4,27,17,-8.706514359,3.750516891,0.544680893,-0.057422664,0.007061256,0.023715161,-65,-2,-19,31,148
1695160629696430500,-9.069235802,-2.079364061,-0.895431459,-0.027712099,0.008660031,-0.035839204,18,32,3,27,20,-8.711302757,3.745728493,0.543483794,-0.050894335,0.001732006,0.023981623,-65,-2,-17,31,147
1695160629733407700,-9.070432663,-2.189497471,-1.101332784,-0.058621746,0.005995406,-0.024781011,20,32,0,28,20,-8.635885239,3.797203779,0.609324336,0.043433387,-0.034773353,0.026646247,-67,-9,-29,28,138
1695160629734407700,-9.070432663,-2.188300371,-1.100135684,-0.05808882,0.006528331,-0.026113322,18,31,4,30,21,-8.633491516,3.799597979,0.603338838,0.043566614,-0.033441041,0.026646247,-69,-9,-30,26,136
1695160629735407700,-9.06803894,-2.187103271,-1.097741485,-0.057955589,0.007061256,-0.027578866,18,33,5,29,18,-8.635885239,3.798400879,0.604535937,0.043699846,-0.032508422,0.026379786,-67,-12,-30,28,140
1695160629736407700,-9.06803894,-2.187103271,-1.097741485,-0.05808882,0.007460949,-0.028511487,16,32,3,27,16,-8.637083054,3.797203779,0.608127236,0.044099543,-0.031709034,0.026113322,-70,-11,-29,28,137
1695160629737407700,-9.066842079,-2.185906172,-1.101332784,-0.058222052,0.008260337,-0.03011026,16,32,3,28,21,-8.640673637,3.79600668,0.604535937,0.044499233,-0.031176111,0.026246555,-67,-9,-30,24,138
1695160629778394400,-9.016563416,-2.140416384,-1.019929886,-0.040502299,0.010392036,-0.016653905,28,39,12,38,28,-8.593987465,3.951629877,0.590170741,0.040102605,-0.035572741,0.065949462,-69,-11,-32,25,138
1695160629779394400,-9.012971878,-2.136825085,-1.017535686,-0.040502299,0.010258805,-0.016520673,30,42,13,38,31,-8.59278965,3.952826977,0.59256494,0.040235836,-0.036771823,0.067947932,-74,-12,-32,26,137
1695160629780394400,-9.008183479,-2.135627985,-1.011550188,-0.040369064,0.010258805,-0.016254211,31,37,12,40,31,-8.588001251,3.951629877,0.59376204,0.040635526,-0.037970904,0.069946401,-70,-11,-32,25,137
1695160629781394400,-9.006986618,-2.134430885,-1.010353088,-0.040502299,0.010258805,-0.01612098,29,38,15,39,27,-8.58680439,3.952826977,0.591367841,0.041168455,-0.039036751,0.07194487,-70,-12,-31,28,137
1695160629782394400,-9.008183479,-2.134430885,-1.009155989,-0.040901989,0.010392036,-0.01612098,28,41,17,40,28,-8.58680439,3.949235678,0.587776542,0.041834611,-0.03996937,0.073676877,-67,-12,-29,28,136
1695160629815357600,-9.02374649,-2.233790159,-0.958877802,-0.057955589,0.007460949,0.003863706,19,34,7,29,19,-8.85495472,3.82473731,0.260968,-0.189188361,-0.2051761,-0.018385911,-67,-14,-31,28,140
1695160629816357600,-9.024943352,-2.227804661,-0.958877802,-0.058621746,0.007061256,0.0021317,21,32,5,32,20,-8.84896946,3.812766314,0.244208574,-0.183192953,-0.207441032,-0.013189893,-71,-9,-31,25,139
1695160629817357600,-9.024943352,-2.219424963,-0.957680702,-0.059421133,0.006661562,0.000399694,16,33,5,30,20,-8.8429842,3.803189516,0.229843363,-0.176797852,-0.209839195,-0.007594181,-74,-11,-29,26,138
1695160629818357600,-9.022548676,-2.213439465,-0.960074902,-0.060620211,0.006261868,-0.001199081,22,34,5,29,20,-8.839392662,3.79480958,0.216675252,-0.170269519,-0.212237358,-0.0021317,-70,-11,-28,27,137
1695160629819357600,-9.020154953,-2.206256866,-0.960074902,-0.061819296,0.005862175,-0.002931087,20,35,7,31,19,-8.833407402,3.782838583,0.20470424,-0.163341507,-0.214768767,0.003730475,-70,-13,-31,28,140
1695160629851339000,-9.248801231,-1.833958507,-1.260547161,0.294840723,-0.022782542,0.150151595,18,33,8,30,21,-8.574832916,3.734954596,0.077811554,0.047430322,0.02051761,0.158545166,-71,-14,-33,28,138
1695160629852339000,-9.235632896,-1.823184609,-1.26413846,0.298571229,-0.024914242,0.152683005,22,32,10,30,19,-8.573636055,3.731363297,0.077811554,0.047030624,0.022249617,0.155880541,-70,-9,-32,26,136
1695160629853339000,-9.2212677,-1.812410712,-1.260547161,0.302035213,-0.027045943,0.155081168,22,33,10,33,17,-8.576030731,3.728969097,0.080205753,0.046764165,0.023981623,0.153215915,-70,-13,-31,28,137
1695160629854339000,-9.206902504,-1.802833915,-1.261744261,0.304966301,-0.02904441,0.157212853,18,33,5,32,18,-8.578424454,3.721786499,0.075417355,0.046497703,0.025846859,0.150684536,-73,-13,-34,25,140
1695160629855339000,-9.193734169,-1.794454217,-1.258152962,0.307764143,-0.031176111,0.159211323,18,33,7,30,19,-8.579621315,3.7193923,0.077811554,0.046098009,0.027712099,0.147753447,-71,-12,-31,28,138
1695160629897333100,-9.121908188,-2.625242233,-1.07858789,0.153482378,0.05489127,0.209572732,17,33,7,29,20,-8.705317497,3.7181952,0.422576606,0.078872897,-0.016787136,-0.045831546,-72,-9,-29,26,139
1695160629898333100,-9.127894402,-2.626439333,-1.079784989,0.152549773,0.058355279,0.200113311,20,32,7,30,18,-8.70771122,3.7181952,0.423773706,0.07993874,-0.017586524,-0.045831546,-69,-11,-32,26,138
1695160629899333100,-9.133879662,-2.624045134,-1.080982089,0.151750386,0.061419602,0.190653905,18,33,3,30,20,-8.710105896,3.721786499,0.429759204,0.081271052,-0.018119449,-0.045831546,-71,-12,-31,25,136
1695160629900333100,-9.142259598,-2.622848034,-1.07739079,0.150950998,0.06461715,0.181327716,18,32,5,28,15,-8.711302757,3.727771997,0.435744703,0.082603365,-0.019185297,-0.045831546,-70,-11,-30,26,134
1695160629901333100,-9.147047997,-2.625242233,-1.07619369,0.150018379,0.067548238,0.172001526,18,32,7,29,20,-8.712499619,3.731363297,0.444124401,0.083802447,-0.019718224,-0.045831546,-66,-12,-31,24,136
1695160629934311700,-9.044096947,-1.987187386,-0.821211159,-0.024114855,0.013189893,-0.012656967,22,32,8,32,24,-8.406042099,3.588908434,0.653617084,-0.081537522,-0.071811639,-0.020384381,-67,-11,-28,25,142
1695160629935311700,-9.045293808,-1.989581585,-0.81642276,-0.025447167,0.012656967,-0.011990812,19,32,8,29,18,-8.397662163,3.598485231,0.658405483,-0.081670754,-0.079272583,-0.023182238,-66,-12,-29,26,140
1695160629936311700,-9.047688484,-1.996764183,-0.81761986,-0.026646247,0.011990812,-0.011457887,17,32,9,31,20,-8.383296967,3.609259129,0.657208383,-0.081271052,-0.086733535,-0.025447167,-69,-11,-29,25,138
1695160629937311700,-9.046490669,-2.000355482,-0.812831461,-0.027312404,0.011191424,-0.011058193,18,32,7,30,20,-8.36893177,3.621230125,0.653617084,-0.08020521,-0.093128636,-0.027179174,-71,-11,-31,25,137
1695160629938311700,-9.047688484,-2.002749681,-0.812831461,-0.027845331,0.010525269,-0.010525269,17,34,8,30,19,-8.359354973,3.634398222,0.650025785,-0.078872897,-0.099523738,-0.028644716,-67,-12,-31,22,136
1695160629973269400,-8.997409821,-2.109291792,-0.871489406,-0.009725881,-0.085267991,0.118442573,16,32,3,29,19,-9.402029991,3.672705412,0.821211159,-0.077007659,-0.085667685,0.018652374,-70,-9,-31,25,138
1695160629974269400,-8.997409821,-2.114080191,-0.867898107,-0.01079173,-0.085934147,0.121373661,16,32,4,28,16,-9.380482674,3.661931515,0.830788016,-0.080338441,-0.089264929,0.03543951,-70,-12,-31,24,136
1695160629975269400,-8.997409821,-2.11767149,-0.859518409,-0.011591119,-0.086600304,0.124304749,16,32,5,28,16,-9.360131264,3.649960518,0.833182216,-0.083669223,-0.092995405,0.05249311,-73,-11,-33,25,138
1695160629976269400,-8.996212959,-2.124854088,-0.859518409,-0.012390506,-0.086999997,0.126969382,18,32,3,28,16,-9.343372345,3.64277792,0.833182216,-0.085800916,-0.0955268,0.064084224,-70,-13,-31,25,136
1695160629977269400,-8.991424561,-2.128445387,-0.85592711,-0.01292343,-0.087399691,0.130033687,19,32,0,29,15,-9.315838814,3.626018524,0.833182216,-0.088465542,-0.099257268,0.081803977,-70,-13,-29,26,137
1695160630017241600,-8.801085472,-1.288080573,-0.638054729,-0.338940263,0.052093416,-0.614595711,19,32,5,30,22,-9.745597839,3.288435936,-1.072602391,-0.0528928,-0.223961711,-0.263131708,-70,-12,-32,25,141
1695160630018241600,-8.7843256,-1.279700756,-0.621295333,-0.338140905,0.049828485,-0.598607957,18,32,7,30,23,-9.722852707,3.293224335,-1.082179189,-0.032508422,-0.22542727,-0.247543648,-70,-12,-31,26,137
1695160630019241600,-8.767566681,-1.268926859,-0.610521436,-0.338407338,0.04729709,-0.582353771,21,32,5,31,18,-9.695320129,3.300406933,-1.086967587,-0.013056661,-0.22596018,-0.232488513,-70,-7,-31,25,135
1695160630020241600,-8.750806808,-1.258152962,-0.602141738,-0.33973965,0.044366002,-0.5662328,18,33,7,32,17,-9.668983459,3.303998232,-1.091755986,0.005196018,-0.22596018,-0.217699856,-70,-13,-29,25,137
1695160630021241600,-8.73404789,-1.252167463,-0.597353339,-0.342004567,0.040901989,-0.549712121,20,32,6,30,21,-9.642647743,3.308786631,-1.096544385,0.022516079,-0.225294024,-0.20357734,-67,-13,-32,26,137
1695160630066214700,-9.392453194,-1.316810966,-0.59615624,0.154148534,0.115378261,-0.241015315,18,32,3,28,21,-8.271966934,3.128024578,0.096965171,-0.177863702,0.42793873,-0.93648243,-70,-13,-28,25,137
1695160630067214700,-9.382876396,-1.310825467,-0.615309834,0.14175804,0.114578865,-0.256869823,18,32,5,29,21,-8.28034687,3.135207176,0.095768064,-0.192252681,0.43113628,-0.955534458,-72,-13,-29,26,134
1695160630068214700,-9.37449646,-1.306037068,-0.638054729,0.129633993,0.113513015,-0.27272436,20,32,4,31,19,-8.281543732,3.143586874,0.088585466,-0.205042884,0.433534473,-0.973120987,-70,-16,-32,26,135
1695160630069214700,-9.36252594,-1.296460271,-0.656011283,0.118042871,0.112313934,-0.288712084,21,33,4,29,17,-8.29231739,3.144783974,0.08499416,-0.216367543,0.435399711,-0.989774883,-70,-13,-32,25,137
1695160630070214700,-9.351752281,-1.285686255,-0.66917938,0.106984682,0.111114852,-0.304833084,17,32,4,28,19,-8.300697327,3.147178173,0.074220255,-0.226359874,0.436465532,-1.005229712,-67,-12,-29,25,135
1695160630116185700,-8.576030731,-3.582922935,-0.195127442,-0.600872934,-0.198914245,0.810978532,20,32,5,31,19,-8.372523308,3.745728493,1.107318282,0.418745786,0.07794027,0.21503523,-71,-13,-29,24,139
1695160630117185700,-8.578424454,-3.580528736,-0.208295554,-0.607934177,-0.184525266,0.776071966,16,32,4,29,16,-8.377311707,3.751713991,1.118092179,0.41501531,0.079405814,0.213969365,-70,-12,-32,24,138
1695160630118185700,-8.583212852,-3.580528736,-0.22146365,-0.615261853,-0.170136288,0.740632474,20,31,0,28,19,-8.378508568,3.758896589,1.130063176,0.410751909,0.081271052,0.212770298,-70,-11,-28,25,137
1695160630119185700,-8.589199066,-3.581725836,-0.228646263,-0.623122513,-0.155747324,0.704793274,21,33,0,29,19,-8.380903244,3.761290789,1.138442874,0.407687575,0.082736596,0.211571202,-71,-9,-32,25,136
1695160630120185700,-8.598775864,-3.581725836,-0.232237563,-0.631382823,-0.141358346,0.668154716,19,32,1,31,18,-8.38928318,3.768473387,1.148019671,0.402225107,0.085267991,0.209839195,-70,-11,-29,26,137
1695160630172153400,-9.36252594,-3.778050184,1.090558887,0.149352223,0.305099547,-0.130033687,16,32,6,30,17,-8.632294655,3.933673382,0.471657723,-0.005196018,-0.07820674,0.001199081,-44,-2,-23,31,146
1695160630173153400,-9.355342865,-3.763684988,1.11450088,0.19784838,0.3028346,-0.124571204,20,33,3,30,15,-8.633491516,3.937264681,0.468066424,-0.005329249,-0.078473203,0.003064318,-45,-3,-23,31,142
1695160630174153400,-9.350554466,-3.749319792,1.140837073,0.245411947,0.300436467,-0.11924196,21,32,-1,29,16,-8.634688377,3.94205308,0.466869324,-0.005728943,-0.078473203,0.004796324,-44,-4,-21,31,146
1695160630175153400,-9.348160744,-3.732560396,1.167173386,0.291909665,0.298038274,-0.113912709,21,32,3,30,17,-8.632294655,3.943250179,0.471657723,-0.006128637,-0.078339972,0.006528331,-53,-13,-30,20,138
1695160630176153400,-9.344569206,-3.713406801,1.191115379,0.33760795,0.295506895,-0.108849928,18,32,3,29,17,-8.627506256,3.938461781,0.468066424,-0.006528331,-0.07820674,0.008393568,-51,-13,-29,24,135
1695160630221125800,-9.059659004,-2.324769735,-0.763750315,-0.058488514,0.002398162,-0.02384839,21,59,10,31,23,-7.92001915,9.026140213,0.661996782,-0.708790183,-0.194117904,2.656497478,-60,-3,-20,34,148
1695160630222125800,-9.060855865,-2.327163935,-0.767341673,-0.059021436,0.002398162,-0.023981623,17,33,7,32,19,-7.892486095,9.045293808,0.671573579,-0.703460932,-0.196649313,2.66609025,-59,-3,-13,34,146
1695160630223125800,-9.06205368,-2.330755472,-0.768538773,-0.059421133,0.002398162,-0.024114855,21,33,6,30,17,-7.854178905,9.065644264,0.690727174,-0.69599998,-0.200379789,2.679946423,-58,-5,-21,36,145
1695160630224125800,-9.060855865,-2.331952572,-0.770932972,-0.059421133,0.002531394,-0.024248086,22,34,6,31,24,-7.830236435,9.076418877,0.703895271,-0.690404296,-0.203044415,2.691404104,-60,-3,-23,35,145
1695160630225125800,-9.057265282,-2.333149672,-0.773327172,-0.059421133,0.002398162,-0.024514547,24,35,5,31,19,-7.803900242,9.091980934,0.709880829,-0.684941769,-0.20570904,2.703794718,-60,-5,-20,34,145
1695160630270097500,-9.053673744,-2.425326347,-0.737414122,-0.037437979,0.022382848,0.006661562,25,35,5,40,26,-7.155071735,9.781511307,1.497573137,-0.957000017,-0.320021451,2.874597073,-71,-6,-21,36,146
1695160630271097500,-9.057265282,-2.439691544,-0.738611221,-0.037171517,0.022116385,0.007327718,26,33,9,34,23,-6.998251438,9.789890289,1.592144132,-1.016287923,-0.326283306,2.879926443,-73,-2,-20,36,145
1695160630272097500,-9.063250542,-2.456450939,-0.74339962,-0.036372125,0.021849923,0.007860643,27,38,10,34,24,-6.934805393,9.777919769,1.611297727,-1.042401195,-0.330413461,2.880592823,-74,-18,-21,35,146
1695160630273097500,-9.06803894,-2.479195833,-0.745793819,-0.034773353,0.021450229,0.008660031,28,33,11,34,27,-6.867767811,9.752780914,1.644816518,-1.067315459,-0.334543616,2.881392002,-73,-3,-20,36,146
1695160630274097500,-9.071630478,-2.497152328,-0.751779318,-0.032908116,0.020917306,0.009459418,25,34,7,36,20,-6.795941353,9.720458984,1.691503525,-1.090764165,-0.337208271,2.882324696,-71,-3,-19,36,145
1695160630311073800,-9.103952408,-2.691082716,-0.903811157,0.04103522,0.027712099,-0.023049004,20,37,6,29,21,-5.61320591,8.971074104,2.330755472,-1.266496181,-0.522133231,2.918830156,-84,29,-1,36,149
1695160630312073800,-9.105149269,-2.697068214,-0.914585054,0.042633995,0.029710567,-0.027179174,21,32,11,32,19,-5.511452198,8.895656586,2.402581453,-1.27409029,-0.56516695,2.922427177,-83,33,3,41,149
1695160630313073800,-9.105149269,-2.703053713,-0.919373453,0.043033689,0.031442571,-0.030243492,24,38,5,32,24,-5.455188751,8.774748802,2.442085743,-1.269826889,-0.598474741,2.919895887,-83,43,9,46,147
1695160630314073800,-9.103952408,-2.710236311,-0.921767652,0.043033689,0.032908116,-0.03237519,24,33,5,30,25,-5.336675644,8.678980827,2.500743628,-1.259834528,-0.630716681,2.918430328,-87,48,11,46,147
1695160630315073800,-9.109937668,-2.724601507,-0.93134445,0.042633995,0.035306279,-0.035173047,26,32,5,32,25,-5.196614742,8.665813446,2.572569609,-1.259168386,-0.664290965,2.924958706,-86,57,14,48,148
1695160630361045400,-9.154230118,-3.53503871,-1.194706678,0.076874427,0.104186833,-0.066082694,24,32,8,32,31,-3.145981073,7.517793179,3.221398354,-1.146987796,-0.896113276,2.654499054,-92,268,175,174,205
1695160630362045400,-9.15063858,-3.606864929,-1.207874775,0.083669223,0.107917301,-0.070346095,24,34,7,30,26,-3.041833162,7.462726593,3.23456645,-1.148053527,-0.897845328,2.637312412,-92,286,189,182,215
1695160630363045400,-9.149441719,-3.669114113,-1.22583127,0.091130167,0.111381322,-0.075542115,24,35,9,34,20,-2.952050686,7.39209795,3.23336935,-1.146454811,-0.896779478,2.620525122,-96,291,200,191,226
1695160630364045400,-9.147047997,-3.730166197,-1.248576164,0.099257268,0.114845328,-0.081803977,20,34,9,35,21,-2.885013103,7.339425087,3.215412855,-1.138460875,-0.893182218,2.604404211,-92,307,211,198,233
1695160630365045400,-9.143456459,-3.79241538,-1.271321058,0.10805054,0.118442573,-0.089398161,24,32,9,30,23,-2.79044199,7.308300495,3.181894064,-1.129401207,-0.887852967,2.586418152,-93,319,222,209,244
1695160630408018500,-9.010578156,-4.246116638,-1.810016513,0.089264929,0.192252681,-0.535856009,21,33,3,30,21,-1.26653266,7.252037048,3.56616354,-0.903174579,-0.786064267,2.250142336,-91,523,433,353,384
1695160630409018500,-9.014169693,-4.285621166,-1.838746905,0.071012251,0.194117904,-0.571695268,24,35,5,30,25,-1.22583127,7.261613846,3.555389643,-0.900110245,-0.775405824,2.226294041,-95,527,446,365,391
1695160630410018500,-9.009381294,-4.329913616,-1.862688899,0.05249311,0.195583463,-0.607134759,26,32,7,34,20,-1.185129881,7.246051311,3.53503871,-0.896779478,-0.766079664,2.201113224,-90,540,463,370,402
1695160630411018500,-9.005789757,-4.377797604,-1.883039594,0.033840735,0.198914245,-0.641241968,25,34,8,34,23,-1.138442874,7.202955723,3.519476414,-0.889052033,-0.759551287,2.179263353,-89,552,475,383,406
1695160630412018500,-9.005789757,-4.430470467,-1.909375906,0.015454824,0.203977033,-0.674283266,20,32,5,31,20,-1.108515382,7.196970463,3.523067713,-0.879192948,-0.754754961,2.158745766,-93,558,482,383,412
1695160630444000000,-9.160215378,-5.68383503,-2.469619036,-0.093928024,0.328814715,-1.180295587,24,32,8,31,21,0.302866518,7.225700855,3.934870481,-0.675748825,-0.562369049,1.804350615,-60,682,659,559,535
1695160630445000000,-9.162610054,-5.765237808,-2.500743628,-0.08233691,0.333744258,-1.21280396,22,37,9,34,21,0.336385339,7.241262913,3.971980572,-0.67734766,-0.545581937,1.789828539,-56,688,667,570,540
1695160630446000000,-9.162610054,-5.847837448,-2.52947402,-0.069147013,0.338274121,-1.245978594,24,32,10,34,23,0.401028782,7.332242489,4.022258759,-0.686940312,-0.533324659,1.7733078,-50,692,671,580,546
1695160630447000000,-9.167398453,-5.923254967,-2.56897831,-0.054225113,0.341738135,-1.279819369,26,35,9,32,23,0.457292527,7.345410824,4.068945885,-0.693068922,-0.519068897,1.754655361,-46,697,683,590,554
1695160630448000000,-9.173383713,-5.993884087,-2.60010314,-0.037171517,0.343603373,-1.313393593,22,33,9,32,21,0.490811348,7.372944355,4.107253075,-0.700929523,-0.503747284,1.73640275,-44,702,687,598,563
1695160630489971700,-9.080010414,-6.701370716,-2.816778183,0.363454819,0.407421142,-1.844853044,29,34,10,34,24,1.417367458,7.275979042,4.390965939,-0.831762671,-0.452719748,1.565333724,75,702,775,702,704
1695160630490971700,-9.064447403,-6.709750175,-2.813186884,0.379709035,0.422343016,-1.863372087,27,33,7,32,21,1.52390933,7.111976147,4.467580318,-0.821770251,-0.45338589,1.544016957,84,702,777,706,705
1695160630491971700,-9.050082207,-6.719326973,-2.811989784,0.394630939,0.438064337,-1.881091833,22,36,8,30,23,1.641225219,7.007828236,4.529829502,-0.812710524,-0.447923422,1.540686131,91,703,777,708,710
1695160630492971700,-9.032125473,-6.720524311,-2.808398485,0.408486992,0.455384374,-1.897879004,25,35,10,36,23,1.769315004,7.066486359,4.61362648,-0.798987746,-0.437664628,1.536955476,103,702,782,712,714
1695160630493971700,-9.009381294,-6.724115372,-2.802412987,0.421543658,0.47416997,-1.914133191,27,33,8,34,20,1.869871497,7.047332764,4.64594841,-0.78020215,-0.419944882,1.523365974,114,703,783,717,720
1695160630540946700,-8.755595207,-6.965929985,-2.795230389,0.526263416,0.906771779,-2.139560461,24,34,9,36,23,2.656366825,7.092822552,5.571307182,-0.805915773,-0.050228179,1.408387423,381,605,791,733,736
1695160630541946700,-8.761581421,-6.998251438,-2.816778183,0.52826184,0.92355895,-2.146621704,24,32,11,35,24,2.618059635,7.161057472,5.541379929,-0.828698277,-0.056223582,1.41384995,397,603,788,733,737
1695160630542946700,-8.769960403,-7.036558628,-2.835932016,0.530127108,0.939280272,-2.152617216,24,37,11,42,24,2.574964046,7.188590527,5.499481201,-0.851081192,-0.065816231,1.411851406,406,606,793,733,737
1695160630543946700,-8.786720276,-7.076063156,-2.852691412,0.532392025,0.953935683,-2.158079624,21,35,19,32,24,2.554613113,7.210138321,5.455188751,-0.875462472,-0.08020521,1.40812099,421,618,791,730,740
1695160630544946700,-8.809465408,-7.126341343,-2.871845007,0.534656942,0.967791736,-2.163275719,21,32,11,33,24,2.56897831,7.223306656,5.419275761,-0.897312403,-0.095260337,1.398395061,433,636,789,731,740
1695160630583916800,-8.786720276,-7.902062893,-2.93529129,0.671885133,1.017753482,-2.329148531,26,32,17,36,23,3.517082214,6.177040577,5.499481201,-0.550111771,-0.104320064,1.113280177,581,946,785,703,728
1695160630584916800,-8.756793022,-7.935581684,-2.924517393,0.685341477,1.015355229,-2.341139317,22,33,15,38,23,3.633201122,6.136339188,5.519832134,-0.515471697,-0.101255737,1.097292423,587,953,795,701,727
1695160630585916800,-8.724471092,-7.970297337,-2.913743496,0.698531389,1.013756514,-2.352197647,23,32,20,36,26,3.713406801,6.069301128,5.500678539,-0.482963234,-0.0955268,1.083303213,592,960,795,700,728
1695160630586916800,-8.690952301,-8.000225067,-2.902969599,0.711588025,1.012690663,-2.36218977,24,32,20,36,23,3.803189516,6.029797077,5.464765549,-0.437797844,-0.086467072,1.064917326,593,967,803,702,727
1695160630587916800,-8.655038834,-8.020575523,-2.890998602,0.724111736,1.012290955,-2.371516228,24,33,20,35,20,3.8654387,6.011840343,5.46596241,-0.401692182,-0.078606427,1.04719758,596,975,804,701,724
1695160630631892300,-7.791929245,-7.736862659,-2.659958124,0.627119422,1.146188259,-2.498885155,24,33,26,34,24,4.186261654,5.72573328,5.955576897,-0.021450229,0.268993855,0.759817779,626,988,802,686,712
1695160630632892300,-7.745242596,-7.747636795,-2.631227732,0.609932601,1.139393568,-2.512075186,26,31,26,32,24,4.174290657,5.701791286,5.967547894,-0.00319755,0.270326167,0.756753445,628,987,803,686,712
1695160630633892300,-7.700949669,-7.765593052,-2.614468336,0.593811631,1.128068924,-2.526064157,25,32,26,33,23,4.165910721,5.713762283,5.963956356,0.023182238,0.268460959,0.756620228,626,985,798,684,711
1695160630634892300,-7.65785408,-7.794323444,-2.607285738,0.57915616,1.110615611,-2.540186882,28,33,32,34,25,4.161122322,5.72214222,5.961562157,0.044499233,0.264197558,0.756620228,629,987,798,686,711
1695160630635892300,-7.607575893,-7.841010571,-2.594117641,0.569030643,1.087433338,-2.554842234,24,32,39,36,24,4.16231966,5.713762283,5.966350555,0.058488514,0.26020062,0.75728637,628,987,798,683,713
1695160630672869900,-5.748478413,-8.540117264,-1.650802016,0.944076538,0.899843752,-2.679013729,18,82,325,93,25,4.570530891,5.924452305,6.198588371,0.221563548,0.220897391,0.839623272,638,1049,766,671,716
1695160630673869900,-5.674258232,-8.578424454,-1.626860023,1.00562942,0.889052033,-2.663292408,18,90,346,94,25,4.620809078,5.904101372,6.187814236,0.230223581,0.219431862,0.837491572,639,1052,762,671,716
1695160630674869900,-5.591658115,-8.595184326,-1.614889026,1.064650893,0.876928031,-2.642241955,17,96,368,100,22,4.681861401,5.87896204,6.215347767,0.238084227,0.22183001,0.832828462,639,1056,763,671,716
1695160630675869900,-5.494692802,-8.574832916,-1.576581836,1.121940255,0.86373812,-2.618793249,20,99,389,109,23,4.75488472,5.862202644,6.242880821,0.246344566,0.230889738,0.826033652,639,1059,761,670,720
1695160630676869900,-5.388150692,-8.52216053,-1.507149935,1.178430319,0.848283291,-2.595211267,20,114,413,114,25,4.841075897,5.833472252,6.24766922,0.254205197,0.24567841,0.818172991,637,1060,755,665,715
1695160630711844000,-3.701435804,-7.201758862,-1.018732786,1.431569695,0.400626332,-2.171535969,33,269,793,366,291,4.632780075,5.910087109,6.579266071,0.19638285,0.326283306,0.771142364,625,1088,715,678,759
1695160630712844000,-3.635595322,-7.126341343,-1.010353088,1.408520699,0.368251175,-2.151018381,35,277,805,386,319,4.668693542,5.827486992,6.527791023,0.183459431,0.322686076,0.771542132,621,1091,715,679,759
1695160630713844000,-3.551798105,-7.084442616,-0.984016895,1.382940292,0.336142421,-2.13489747,38,287,824,400,348,4.662707806,5.819107056,6.429628849,0.173067391,0.31429249,0.769410431,623,1091,708,676,764
1695160630714844000,-3.453635931,-7.02937603,-0.951695204,1.357892871,0.30643183,-2.11811018,40,293,839,415,373,4.653131008,5.813121796,6.376956463,0.16467382,0.300969362,0.760483861,615,1092,705,681,769
1695160630715844000,-3.360262156,-6.977900982,-0.913387954,1.327382803,0.281917304,-2.103055239,38,303,856,432,397,4.64594841,5.730521679,6.406883717,0.159078106,0.28564778,0.746494651,618,1095,702,681,766
1695160630763817800,-2.297236443,-7.69257021,-0.275333196,0.894647777,0.059154671,-1.794491649,74,446,1072,718,761,4.583699226,4.656722069,7.117961884,0.701062799,-0.232621744,0.152816221,606,1101,673,686,788
1695160630764817800,-2.223016262,-7.733271599,-0.251391172,0.888918817,0.047430322,-1.76971066,80,451,1075,731,777,4.608838081,4.850652695,6.981492043,0.739033639,-0.247943342,0.128035218,601,1101,672,688,787
1695160630765817800,-2.161964178,-7.748833656,-0.243011475,0.882257283,0.034906585,-1.745329261,78,458,1082,744,789,4.655525208,5.146336555,6.855796337,0.780735075,-0.267128646,0.096992344,599,1102,671,684,788
1695160630766817800,-2.132036686,-7.730877399,-0.231040463,0.881591141,0.025846859,-1.730807066,84,467,1088,749,801,4.708197594,5.368997097,6.793547153,0.803117871,-0.278852999,0.075542115,596,1099,670,686,789
1695160630767817800,-2.086546898,-7.730877399,-0.215478152,0.882257283,0.011457887,-1.713886619,85,471,1096,759,814,4.778826714,5.585672379,6.734889507,0.817640126,-0.286846846,0.056090351,597,1098,670,686,786
1695160630805790400,-1.065419793,-8.373720169,0.331596941,1.334577441,-0.466842234,-1.452087283,207,571,1176,909,1016,5.370194435,7.169436932,5.608417511,0.300169975,-0.063418068,-0.077274114,585,1086,659,680,778
1695160630806790400,-0.957680702,-8.341399193,0.362721562,1.364554286,-0.479366004,-1.439963222,214,570,1179,914,1024,5.390544891,7.119158745,5.565321922,0.278986216,-0.048629403,-0.085001536,585,1085,655,682,776
1695160630807790400,-0.823605359,-8.301894188,0.424970806,1.382540464,-0.488425732,-1.430637121,222,570,1178,919,1033,5.408501625,7.074865818,5.54018259,0.266329229,-0.038104136,-0.089664623,585,1085,655,681,780
1695160630808790400,-0.677559078,-8.317456245,0.505176544,1.402125597,-0.490823895,-1.419845223,228,575,1182,923,1039,5.430049419,7.030573368,5.509057999,0.25660339,-0.027312404,-0.093395106,581,1083,653,681,781
1695160630809790400,-0.524330199,-8.31865406,0.600944638,1.430237293,-0.48562786,-1.406788588,238,575,1185,929,1048,5.449203014,6.988674641,5.485116005,0.249408886,-0.01718683,-0.096192956,585,1081,654,679,776
1695160630843771800,0.231040463,-8.115146637,1.247379065,0.666422606,-0.086999997,-1.115944862,447,592,1180,1011,1198,5.57848978,6.791152954,5.732915878,0.238084227,-0.012656967,-0.039303213,573,1062,644,671,764
1695160630844771800,0.287304193,-8.206126213,1.26653266,0.634980083,-0.084068909,-1.101422668,454,594,1180,1018,1199,5.589263916,6.803123951,5.762843609,0.2311562,-0.014122511,-0.030776417,577,1064,648,672,764
1695160630845771800,0.355538964,-8.279149055,1.297657371,0.608733535,-0.08313629,-1.082903504,465,594,1177,1014,1207,5.591658115,6.817489147,5.790376663,0.223428801,-0.015454824,-0.022516079,575,1064,644,671,763
1695160630846771800,0.427365005,-8.321047783,1.389834046,0.58381933,-0.080338441,-1.066382766,469,593,1177,1016,1207,5.590460777,6.836642742,5.804741859,0.214369074,-0.01718683,-0.014788668,575,1059,647,671,763
1695160630847771800,0.486022949,-8.392873764,1.466448545,0.5662328,-0.074076563,-1.052393556,480,594,1175,1020,1212,5.585672379,6.849811077,5.822698593,0.204509944,-0.019451762,-0.007594181,571,1061,648,671,761
1695160630878750700,1.385045648,-8.633491516,1.78368032,0.370116383,0.331745774,-0.730107188,614,499,1172,1000,1220,5.530605793,6.676231384,6.09444046,0.163474724,-0.026779478,0.045831546,565,1049,638,664,758
1695160630879750700,1.371877551,-8.605957985,1.839944005,0.345601827,0.353462487,-0.720647812,618,495,1177,998,1219,5.491101742,6.694188118,6.163872242,0.15841195,-0.029843798,0.047563553,566,1049,638,668,759
1695160630880750700,1.387439847,-8.640673637,1.886630893,0.325483918,0.377177656,-0.710255742,622,496,1178,998,1219,5.451597214,6.697779179,6.236895561,0.149751917,-0.034506891,0.049562022,569,1051,638,662,756
1695160630881750700,1.392228246,-8.66940403,1.934514999,0.307098001,0.400493115,-0.695067406,624,496,1178,991,1221,5.413290024,6.678625584,6.302735806,0.138826951,-0.040635526,0.051826954,569,1048,636,661,756
1695160630882750700,1.398213744,-8.629899979,1.964442492,0.28884533,0.422742724,-0.680145502,634,496,1180,993,1219,5.366602898,6.642712593,6.353013992,0.126969382,-0.048496172,0.054491576,565,1047,637,665,755
1695160630920727200,1.742978811,-8.52216053,2.146401882,-0.291909665,0.855078101,-0.539186835,669,502,1225,943,1189,5.288791656,6.560112476,6.053739071,0.173200607,-0.277520686,0.092995405,561,1036,630,662,759
1695160630921727200,1.813607812,-8.567650795,2.166752577,-0.328814715,0.870799422,-0.534523726,667,501,1225,942,1186,5.294776917,6.593631268,6.02022028,0.183592647,-0.280851454,0.091396637,561,1037,627,664,759
1695160630922727200,1.853112102,-8.602366447,2.199074268,-0.364520669,0.886787176,-0.531459451,671,502,1227,942,1185,5.292382717,6.635529995,5.993884087,0.193052068,-0.285114855,0.089931086,559,1035,626,664,759
1695160630923727200,1.902193308,-8.672995567,2.23019886,-0.399560481,0.905839205,-0.527062774,670,503,1228,941,1184,5.286397457,6.677428722,5.977124691,0.201312408,-0.289511472,0.088598773,561,1037,628,665,759
1695160630924727200,1.948880196,-8.713697433,2.217030764,-0.429670751,0.92609036,-0.521067381,669,506,1229,941,1182,5.285200119,6.724115372,5.969942093,0.20824042,-0.294441044,0.08753293,557,1037,629,666,759
1695160630952729000,2.171540976,-8.906430244,2.167949677,-0.665223539,1.079972386,-0.330679953,667,553,1241,923,1155,5.61919117,6.625953197,5.754463673,0.109649308,-0.218765706,-0.061819296,549,1023,621,660,755
1695160630953729000,2.177526474,-8.895656586,2.158372879,-0.668421149,1.071045995,-0.319222063,664,558,1239,918,1155,5.597643375,6.594828606,5.736507416,0.105519146,-0.201312408,-0.07301072,548,1027,624,661,755
1695160630954729000,2.182314873,-8.871714592,2.15358448,-0.671218991,1.060787082,-0.308830023,665,554,1233,916,1152,5.549759388,6.566098213,5.716156483,0.098591112,-0.182393566,-0.086333841,550,1023,624,661,752
1695160630955729000,2.199074268,-8.829815865,2.15358448,-0.673883617,1.048929572,-0.299503833,661,557,1237,917,1151,5.49828434,6.54574728,5.705382824,0.092595711,-0.172267988,-0.095127106,549,1022,623,658,752
1695160630956729000,2.203862667,-8.786720276,2.196680069,-0.679479301,1.036539078,-0.293641627,662,561,1239,915,1151,5.444414616,6.528987885,5.686229229,0.085800916,-0.16573967,-0.103254206,548,1022,622,662,754
1695160630985690100,2.292448044,-9.124302864,2.345120668,-0.708790183,0.997102618,-0.071145482,653,597,1228,904,1139,4.213795185,6.052541733,5.516240597,-0.011591119,-0.790727437,-0.353196025,528,993,637,655,727
1695160630986690100,2.251746655,-9.131484985,2.324769735,-0.704793274,0.986044347,-0.058621746,653,598,1229,904,1134,4.228160381,5.925649166,5.457582951,0.000932619,-0.878127098,-0.36412096,532,991,638,654,725
1695160630987690100,2.215833664,-9.13866806,2.310404539,-0.702261865,0.972721338,-0.047030624,651,597,1224,904,1137,4.276044369,5.781997204,5.401319027,0.020917306,-0.967125535,-0.371315449,527,989,638,654,724
1695160630988690100,2.184709072,-9.141061783,2.303221941,-0.700796306,0.958465517,-0.036372125,652,603,1225,904,1135,4.34787035,5.626373768,5.349843502,0.048496172,-1.05439198,-0.373313934,533,986,643,652,720
1695160630989690100,2.15358448,-9.15063858,2.293645144,-0.701196015,0.943810105,-0.027312404,650,602,1228,906,1137,4.442441463,5.477933407,5.305551052,0.083269522,-1.138460875,-0.369450212,532,979,644,646,720
1695160631028663500,1.110909581,-9.774328232,2.871845007,-0.627652407,0.474702895,-0.012257273,638,618,1215,889,1131,6.204573631,6.945579052,5.425261021,-0.497485459,-0.487226635,-0.872797847,354,776,606,580,649
1695160631029663500,1.204283476,-9.786299706,2.756923199,-0.62645334,0.449388951,-0.012790199,639,621,1212,888,1133,6.05852747,6.933608055,5.228936672,-0.546514511,-0.381174594,-0.937415004,334,750,606,578,646
1695160631030663500,1.288080573,-9.804255486,2.626439333,-0.626186788,0.427672267,-0.010924961,637,619,1212,886,1133,5.91128397,6.885724068,5.013458252,-0.589148581,-0.280451775,-1.003364444,312,718,599,573,641
1695160631031663500,1.356315255,-9.787496567,2.439691544,-0.623122513,0.407820851,-0.007061256,637,623,1210,882,1130,5.776011467,6.834248543,4.811148167,-0.620324671,-0.186790213,-1.067049026,282,692,600,568,634
1695160631032663500,1.361103654,-9.757569313,2.256535053,-0.620457888,0.38490504,-0.007727412,639,622,1210,888,1133,5.650316238,6.789956093,4.623203278,-0.636978507,-0.09739203,-1.12926805,263,654,591,564,631
1695160631075636500,1.903390408,-9.684545517,0.849941611,-0.466176093,0.083003066,-0.018119449,628,637,1198,877,1123,3.909731388,5.693411827,4.584896088,1.298604846,1.573327661,-1.524964809,141,299,353,351,394
1695160631076636500,1.944091797,-9.700108528,0.814028561,-0.463911176,0.081271052,-0.020650841,625,640,1199,877,1124,3.694253206,5.906495571,4.832695961,1.467009187,1.62528789,-1.490591049,142,279,334,335,376
1695160631077636500,1.989581585,-9.716867447,0.78050977,-0.46124655,0.081404284,-0.023049004,629,639,1197,879,1122,3.517082214,6.147112846,5.151124954,1.58371973,1.668055058,-1.457150102,134,261,317,304,360
1695160631078636500,2.031480074,-9.739612579,0.752976418,-0.45764932,0.083269522,-0.025846859,622,643,1197,877,1123,3.416525841,6.380547523,5.450400352,1.647937179,1.704693675,-1.423042774,134,247,297,289,343
1695160631079636500,2.074575663,-9.768342972,0.727837324,-0.452453285,0.086733535,-0.028511487,624,640,1197,877,1121,3.347094059,6.580463409,5.664681435,1.669920325,1.732539058,-1.389335275,133,232,272,271,328
1695160631116612200,2.315192938,-9.764751434,0.214281052,-0.25087443,0.239283308,0.024914242,616,640,1183,863,1113,3.232172251,7.849390507,5.127182961,1.173234344,1.409986258,-0.87519604,52,61,9,-23,119
1695160631117612200,2.291250944,-9.750386238,0.193930343,-0.242214397,0.242480844,0.030243492,613,639,1184,867,1113,3.11964488,7.791929245,5.038597584,1.125537515,1.383739591,-0.891183794,50,61,3,-30,114
1695160631118612200,2.266111851,-9.737217903,0.177170932,-0.232754961,0.243413478,0.034107197,614,641,1184,867,1113,3.016694069,7.724891663,4.978742599,1.091830015,1.363355279,-0.896113276,41,59,-3,-39,108
1695160631119612200,2.243366957,-9.720458984,0.155623108,-0.223029092,0.242480844,0.036638591,616,640,1185,866,1113,2.93529129,7.709329605,4.920084476,1.068248153,1.347900391,-0.897312403,38,51,-9,-44,109
1695160631120612200,2.23139596,-9.704896927,0.14724341,-0.212503821,0.239683002,0.037704438,618,640,1183,866,1112,2.888604403,7.677007675,4.842272758,1.048929572,1.33431077,-0.904773355,36,53,-17,-56,97
1695160631158590300,2.322375536,-9.5157547,0.405817181,-0.219964772,0.160010725,0.042500768,607,634,1176,858,1107,1.63763392,6.518214226,4.005499363,0.608467042,0.911834598,-1.275022984,-34,4,-57,-97,104
1695160631159590300,2.30801034,-9.534908295,0.415394008,-0.225826949,0.162275642,0.045431852,607,637,1177,856,1108,1.549048543,6.461950302,3.962403774,0.592346072,0.875862122,-1.304333925,-44,0,-60,-97,98
1695160631160590300,2.293645144,-9.562441826,0.427365005,-0.229690656,0.163741201,0.048229709,607,637,1173,860,1103,1.479616642,6.397306919,3.934870481,0.577424169,0.839489996,-1.335643172,-42,-1,-55,-97,106
1695160631161590300,2.274491549,-9.587580681,0.442927301,-0.231822357,0.16414088,0.050361406,609,635,1171,858,1105,1.389834046,6.341042995,3.900154591,0.564234257,0.804050565,-1.368151546,-43,-2,-55,-97,108
1695160631162590300,2.254140854,-9.613917351,0.463278025,-0.232355282,0.163874418,0.052626338,608,637,1173,854,1107,1.327584863,6.283582211,3.866635799,0.559038281,0.766745806,-1.40026021,-47,-2,-60,-97,108
1695160631194590200,2.00993228,-10.20767879,0.830788016,-0.366785586,0.054091886,0.018119449,604,646,1181,852,1097,0.393846184,5.61320591,3.288435936,0.792992353,0.388235807,-2.1316998,-75,-2,-66,-94,128
1695160631195590200,2.003946781,-10.25077438,0.802057564,-0.355860651,0.048229709,0.017320061,598,645,1166,848,1102,0.299275219,5.597643375,3.287238836,0.813376725,0.373980075,-2.169803858,-78,-5,-63,-92,128
1695160631196590200,2.000355482,-10.28788471,0.770932972,-0.341205209,0.041568145,0.015987748,601,645,1169,848,1102,0.199915841,5.61320591,3.288435936,0.832695246,0.356393576,-2.207641602,-77,-2,-66,-96,128
1695160631197590200,1.999158382,-10.32260036,0.74459672,-0.322819293,0.034906585,0.014522205,598,644,1171,848,1102,0.137666598,5.614402771,3.27407074,0.850947917,0.337208271,-2.246012211,-82,-3,-66,-95,129
1695160631198590200,1.996764183,-10.34414864,0.717063427,-0.301102608,0.028511487,0.01292343,597,646,1165,850,1102,0.050278235,5.64313364,3.290830135,0.867335379,0.316690654,-2.28438282,-78,-2,-61,-94,129
1695160631230548300,2.075772762,-9.836577415,0.549469292,-0.134297088,-0.009459418,-0.052226644,594,654,1160,844,1100,-1.957259893,6.461950302,3.214215755,0.651633978,-0.257402748,-3.116411924,-85,1,-66,-83,144
1695160631231548300,2.075772762,-9.825803757,0.55784899,-0.132165387,-0.011191424,-0.055024505,592,658,1160,842,1100,-2.005143881,6.43082571,3.205836058,0.643773377,-0.274722815,-3.150119543,-83,1,-66,-83,146
1695160631232548300,2.075772762,-9.815030098,0.575805485,-0.129633993,-0.014122511,-0.05808882,593,657,1159,843,1098,-2.085349798,6.414066315,3.204638958,0.636578858,-0.289777964,-3.182361364,-87,2,-66,-83,148
1695160631233548300,2.072181463,-9.806650162,0.591367841,-0.127635539,-0.017586524,-0.061019909,592,655,1161,844,1099,-2.161964178,6.376956463,3.210624456,0.631649256,-0.301635504,-3.213804007,-87,1,-65,-82,150
1695160631234548300,2.075772762,-9.801861763,0.605733037,-0.125770286,-0.021849923,-0.063950993,593,656,1161,844,1098,-2.239775658,6.336254597,3.221398354,0.630849898,-0.310029089,-3.241649151,-87,-1,-66,-82,150
1695160631269547000,1.988384485,-9.506177902,0.81881696,-0.216767237,-0.17972894,-0.034506891,588,654,1149,830,1091,-4.777629375,7.101202011,3.329137564,0.458848417,-0.351464033,-3.355162382,-82,7,-64,-67,152
1695160631270547000,1.954865694,-9.463082314,0.797269166,-0.230756521,-0.201978564,-0.036372125,585,651,1149,832,1090,-4.965574265,7.231686115,3.299209833,0.418079644,-0.373580426,-3.355561972,-83,7,-66,-76,152
1695160631271547000,1.918952703,-9.419986725,0.763750315,-0.246211335,-0.226892799,-0.040502299,591,652,1146,829,1090,-5.148730755,7.363367558,3.260902643,0.373047471,-0.396496177,-3.35742712,-80,7,-65,-67,151
1695160631272547000,1.874659896,-9.370905876,0.733822823,-0.263931066,-0.255271077,-0.047430322,585,649,1149,828,1088,-5.327098846,7.497442722,3.211821556,0.32721591,-0.420611024,-3.360758066,-79,11,-63,-65,153
1695160631273547000,1.82198751,-9.32421875,0.691924274,-0.283782542,-0.28777948,-0.056889739,580,650,1146,828,1088,-5.506663799,7.631517887,3.167528868,0.27845329,-0.445924938,-3.365820885,-82,8,-65,-65,151
1695160631463762400,2.865859509,-9.20929718,0.859518409,-0.890784025,-0.814575791,-0.53865391,528,509,1091,798,1054,-7.350199223,7.505822182,3.021482468,0.031575806,-0.086067379,-3.319456339,-63,6,-56,-43,149
1695160631464762400,2.946065187,-9.313444138,0.889445961,-0.893182218,-0.76874429,-0.528794825,517,505,1082,800,1051,-7.39808321,7.431602001,3.032256365,0.046764165,-0.030243492,-3.295741081,-60,7,-49,-35,151
1695160631465762400,2.989160776,-9.424775124,0.915782154,-0.890384376,-0.717183769,-0.510808587,510,497,1079,799,1045,-7.447164536,7.357381821,3.056198359,0.066349156,0.027045943,-3.269894361,-60,8,-49,-46,148
1695160631466762400,2.993949175,-9.531316757,0.921767652,-0.882656932,-0.661759555,-0.48562786,504,483,1070,800,1040,-7.50462532,7.320271492,3.087323189,0.082203679,0.084335379,-3.243914127,-57,7,-49,-35,150
1695160631467762400,2.952050686,-9.629479408,0.906205356,-0.86800158,-0.603937209,-0.454584986,492,478,1060,802,1038,-7.536946774,7.249642849,3.111265182,0.098058186,0.142957121,-3.217134714,-59,11,-49,-33,150
1695160631561720400,1.691503525,-9.364919662,-0.401028782,-0.170269519,-0.124171518,0.32934764,260,320,797,599,747,-8.844181061,6.323086739,2.999934673,0.449522227,1.066649318,-2.740833044,-49,9,-45,-31,149
1695160631562720400,1.739387512,-9.296685219,-0.256179571,-0.168537512,-0.052093416,0.367052078,254,301,784,579,718,-8.954314232,6.296750546,2.967612982,0.458581924,1.092363,-2.732306242,-45,11,-44,-30,151
1695160631563720400,1.778891921,-9.20929718,-0.057460841,-0.172134757,0.033707503,0.405955583,253,288,767,562,691,-9.071630478,6.269217014,2.918531895,0.466442585,1.115545154,-2.726044416,-49,7,-47,-26,150
1695160631564720400,1.814804912,-9.139864922,0.165199921,-0.183725879,0.128168449,0.438730478,252,275,751,550,667,-9.198522568,6.248866558,2.867056608,0.473370582,1.13646245,-2.722047567,-47,9,-46,-28,151
1695160631565720400,1.8602947,-9.111134529,0.37349546,-0.199180692,0.228358343,0.468041331,252,254,731,528,639,-9.331400871,6.234501362,2.815581083,0.481231242,1.155248165,-2.720848322,-48,12,-39,-24,151
1695160631630680700,1.059434295,-8.831012726,-0.049081136,-0.327882051,0.798188388,0.569563508,152,74,351,162,251,-11.46702862,6.777985096,2.208651066,0.560503781,1.098225117,-3.024615765,-47,13,-43,-21,151
1695160631631680700,1.029506683,-8.876502991,-0.090979666,-0.292575806,0.761416554,0.561303198,145,66,341,148,236,-11.51132202,6.836642742,2.189497471,0.54904592,1.077441096,-3.044733524,-47,15,-41,-19,152
1695160631632680700,1.012747288,-8.902838707,-0.128089786,-0.254205197,0.717716694,0.554508388,142,62,316,139,224,-11.54723454,6.892906666,2.175132275,0.535722792,1.054924965,-3.063785791,-49,11,-45,-22,151
1695160631633680700,1.00556469,-8.911218643,-0.142454997,-0.218499228,0.666689157,0.548646212,136,53,297,126,209,-11.57716274,6.943184853,2.159569979,0.520667672,1.031875968,-3.081505299,-49,12,-44,-19,151
1695160631634680700,1.000776291,-8.919598579,-0.14963761,-0.178529859,0.612330794,0.541984677,132,51,277,114,205,-11.6023016,6.994660378,2.147598982,0.504413486,1.008560419,-3.097759724,-45,13,-39,-19,154
1695160631699641700,1.059434295,-8.244433403,0.233434662,0.991906583,-0.396629393,0.612597227,54,25,54,30,89,-11.11867237,7.516596317,1.941697598,0.171202138,0.775672317,-2.892849922,-49,13,-38,-18,155
1695160631700641700,1.035492182,-8.124723434,0.214281052,1.061586499,-0.447390497,0.640975475,47,23,47,29,88,-11.06360626,7.50462532,1.909375906,0.161209792,0.775938749,-2.849816084,-46,9,-41,-14,156
1695160631701641700,1.024718285,-8.024167061,0.20350714,1.107817769,-0.481897384,0.668421149,46,25,40,27,88,-11.0085392,7.486668587,1.877054095,0.153215915,0.776338398,-2.803451777,-47,14,-39,-18,153
1695160631702641700,1.019929886,-7.95234108,0.20470424,1.132732034,-0.502281785,0.689071953,38,21,31,25,84,-10.94629002,7.462726593,1.844732404,0.14695406,0.776871383,-2.753356695,-45,14,-41,-16,154
1695160631703641700,1.017535686,-7.833827972,0.210689753,1.160577416,-0.528528333,0.724511504,42,21,30,24,81,-10.88643551,7.432799339,1.814804912,0.14282389,0.7770046,-2.699531317,-46,15,-39,-20,154
1695160631765599300,0.304063618,-6.417657852,0.499191046,0.298304737,-0.587150037,1.594644666,2,18,-26,13,67,-9.831789017,6.005855083,1.319205165,0.480831534,0.607667685,-1.114212871,-45,14,-36,-16,157
1695160631766599300,0.239420176,-6.418854713,0.524330199,0.218099549,-0.580754995,1.642741203,0,17,-25,10,63,-9.797073364,5.919663906,1.297657371,0.520667672,0.586883605,-1.015888214,-44,19,-34,-11,155
1695160631767599300,0.16759412,-6.422446251,0.545877993,0.138960183,-0.57236141,1.690038323,1,17,-29,9,67,-9.761159897,5.83466959,1.274912357,0.562235832,0.565033674,-0.918762624,-47,14,-37,-12,155
1695160631768599300,0.093373865,-6.42484045,0.563834488,0.061552834,-0.56303519,1.73640275,4,17,-24,10,64,-9.732429504,5.755661011,1.248576164,0.604470134,0.542117953,-0.822969377,-47,7,-39,-11,152
1695160631769599300,0.017956512,-6.42484045,0.580593884,-0.013056661,-0.553176105,1.782234311,-1,23,-26,7,65,-9.704896927,5.680243492,1.219845772,0.647104144,0.51786983,-0.729174554,-47,15,-37,-17,154
1695160631800579500,-1.703474522,-6.50744009,0.120907187,-0.823635519,-0.509343028,2.391234159,1,19,-41,8,62,-9.21528244,4.632780075,0.879869103,1.484329224,-0.045698319,0.631382823,-44,17,-34,-1,154
1695160631801579500,-1.818396211,-6.556521416,0.08499416,-0.829630911,-0.528395116,2.415349245,3,10,-41,6,61,-9.192537308,4.620809078,0.872686505,1.519102573,-0.070212863,0.673617184,-44,17,-37,-1,153
1695160631802579500,-1.9309237,-6.610390663,0.051475335,-0.831762671,-0.548779488,2.439996958,4,10,-43,8,59,-9.174580574,4.612429619,0.857124209,1.550278664,-0.094194487,0.712653935,-44,14,-34,-1,154
1695160631803579500,-2.04464817,-6.658275127,0.021547815,-0.830830038,-0.570362926,2.465177774,5,18,-40,7,60,-9.155426979,4.610035419,0.839167714,1.579323053,-0.117243491,0.748493135,-44,15,-36,-2,154
1695160631804579500,-2.15597868,-6.703764915,0.003591303,-0.826566637,-0.592612505,2.490758181,5,19,-41,6,60,-9.137471199,4.606443882,0.827196658,1.607434869,-0.138960183,0.781134784,-44,14,-32,-2,151
1695160631833560700,-3.948038578,-6.495469093,-0.278924495,-0.569030643,-0.905039787,2.973987579,11,18,-43,8,60,-8.941145897,5.042188644,0.836773515,1.61383009,-0.330147028,0.805116415,-44,16,-32,4,153
1695160631834560700,-4.079719543,-6.451176643,-0.322020143,-0.559571207,-0.922759533,2.997569561,17,18,-43,8,62,-8.923190117,5.063736439,0.846350312,1.583986163,-0.333211303,0.781800866,-39,13,-31,4,154
1695160631835560700,-4.230554581,-6.412869453,-0.37349546,-0.552909672,-0.942344546,3.020751953,16,19,-41,7,60,-8.908824921,5.081693172,0.85353291,1.55254364,-0.335742712,0.757552803,-43,15,-31,5,153
1695160631836560700,-4.3921628,-6.385335922,-0.428562105,-0.548646212,-0.964460909,3.044067383,18,22,-41,7,59,-8.889671326,5.102043629,0.858321309,1.518436432,-0.33760795,0.732638597,-43,11,-34,7,154
1695160631837560700,-4.565742493,-6.370970726,-0.488417149,-0.54584837,-0.989774883,3.06778264,16,21,-41,8,61,-8.870517731,5.120000362,0.863109708,1.481797814,-0.339073509,0.706791699,-43,16,-33,9,152
1695160631871517000,-8.135497093,-7.666234016,-1.261744261,-0.70172894,-1.740666151,3.852781057,3,21,-23,10,63,-8.42759037,5.044582844,0.946906745,0.560370564,-0.206908107,0.294574291,-43,14,-29,8,152
1695160631872517000,-8.268375397,-7.666234016,-1.244984865,-0.718649268,-1.768911123,3.906872988,8,27,-20,13,62,-8.420407295,5.013458252,0.939724147,0.517070413,-0.193718225,0.2831164,-43,17,-24,8,152
1695160631873517000,-8.382100105,-7.66024828,-1.22583127,-0.736369014,-1.793292522,3.959099531,10,23,-17,10,63,-8.418013573,4.983530998,0.938527048,0.476035208,-0.180128634,0.27272436,-44,15,-29,8,153
1695160631874517000,-8.485051155,-7.638700485,-1.198297977,-0.753022969,-1.814076662,4.009593964,3,25,-18,12,62,-8.416815758,4.952406406,0.92775315,0.437797844,-0.166405827,0.263531387,-43,16,-31,10,154
1695160631875517000,-8.589199066,-7.58961916,-1.159990668,-0.769010723,-1.830863714,4.05769062,6,25,-15,11,62,-8.415618896,4.921281815,0.915782154,0.401825428,-0.152016848,0.255670756,-41,15,-29,10,151
1695160631905497400,-9.52772522,-5.030217648,-0.673967779,-1.135796309,-1.412251115,4.085669041,2,31,-3,14,62,-8.500613213,4.503493309,0.912190855,0.095127106,0.057555895,0.256203681,-44,16,-27,3,152
1695160631906497400,-9.550470352,-4.876988888,-0.665588081,-1.178163767,-1.368418097,4.029046059,0,25,-2,14,61,-8.51019001,4.489128113,0.920570552,0.089131698,0.062885143,0.262199074,-39,16,-23,11,154
1695160631907497400,-9.579200745,-4.724956989,-0.658405483,-1.221996903,-1.323652267,3.968026161,1,25,3,13,63,-8.517372131,4.475960255,0.93014735,0.083402753,0.067681469,0.268594176,-42,15,-25,12,156
1695160631908497400,-9.610325813,-4.580107689,-0.653617084,-1.26836133,-1.277820826,3.902476072,2,28,4,13,62,-8.525752068,4.465186119,0.944512546,0.077807046,0.07194487,0.275122523,-44,17,-29,8,154
1695160631909497400,-9.648633003,-4.437653065,-0.653617084,-1.318456292,-1.231856108,3.832796335,2,32,5,12,62,-8.536525726,4.455609322,0.950498104,0.072477795,0.075675346,0.281917304,-38,17,-25,12,152
1695160631943475200,-11.70884323,-4.333505154,-1.11569798,-2.283716917,-0.737434864,2.708990812,-1,27,21,13,62,-8.699332237,4.259284973,1.079784989,-0.029310873,0.06981317,0.40568912,-44,17,-27,12,152
1695160631944475200,-11.82975101,-4.399345398,-1.145625472,-2.305033445,-0.738500774,2.679147005,0,31,19,18,63,-8.70172596,4.247313976,1.084573388,-0.035572741,0.067148544,0.4103522,-39,16,-28,13,154
1695160631945475200,-11.95065784,-4.466383457,-1.183932781,-2.321421146,-0.742764115,2.653033495,2,31,23,18,63,-8.705317497,4.23294878,1.089361787,-0.041701376,0.064483918,0.414882064,-42,16,-21,12,154
1695160631946475200,-12.06557941,-4.5370121,-1.233013868,-2.332346201,-0.750358343,2.630117893,2,32,21,14,65,-8.712499619,4.218583584,1.094150186,-0.047963247,0.062352221,0.419145465,-40,17,-28,10,153
1695160631947475200,-12.17331886,-4.606443882,-1.276109457,-2.337675333,-0.761549771,2.610266447,4,29,20,17,63,-8.711302757,4.207809448,1.098938584,-0.054091886,0.06008729,0.42327565,-41,14,-25,15,156
1695160632096918400,-12.82693577,-5.412093163,-1.97162509,-1.690304756,-1.274356842,2.490491629,-1,31,26,14,65,-8.70172596,3.960009575,1.064222693,-0.129633993,0.013722817,0.461113334,-42,15,-25,13,153
1695160632097918400,-12.78982544,-5.42166996,-1.982398987,-1.631016731,-1.295540452,2.478900433,-1,31,27,14,65,-8.706514359,3.949235678,1.060631394,-0.130433381,0.01079173,0.462045938,-41,17,-23,15,158
1695160632098918400,-12.74553299,-5.425261021,-1.995567083,-1.571862102,-1.313526869,2.465843678,1,31,28,17,65,-8.712499619,3.93965888,1.054645896,-0.130833074,0.007460949,0.462978572,-38,18,-21,14,156
1695160632099918400,-12.69884586,-5.422866821,-2.006340981,-1.512441039,-1.328448653,2.451055288,4,37,29,18,63,-8.717288017,3.927687883,1.054645896,-0.130833074,0.003996937,0.464044392,-41,15,-25,14,157
1695160632100918400,-12.64617348,-5.42166996,-2.017114878,-1.452886701,-1.340705991,2.434667826,1,30,25,18,67,-8.719682693,3.915716887,1.051054597,-0.130833074,0.000666156,0.464710563,-39,19,-24,14,156
1695160632222839500,-11.1557827,-4.499902248,-1.830367208,-0.740499258,-1.048130155,1.760784149,1,29,36,19,63,-8.6957407,3.79241538,0.968454599,-0.117509954,-0.039436448,0.456317008,-43,16,-21,15,154
1695160632223839500,-11.06959152,-4.423287868,-1.810016513,-0.732638597,-1.005229712,1.70522666,5,33,39,20,65,-8.687360764,3.788824081,0.961272001,-0.117643185,-0.040768761,0.454584986,-42,16,-20,16,153
1695160632224839500,-10.98459721,-4.349067211,-1.787271619,-0.727709055,-0.960597217,1.648203611,3,31,39,28,64,-8.678980827,3.785232782,0.958877802,-0.117643185,-0.041967839,0.452852994,-39,15,-22,14,152
1695160632225839500,-10.90439129,-4.27724123,-1.759738207,-0.725444078,-0.914765656,1.589981556,2,32,39,13,64,-8.672995567,3.780444384,0.955286503,-0.117909648,-0.043033689,0.451254189,-39,15,-19,15,156
1695160632226839500,-10.83017159,-4.206612587,-1.729810715,-0.725977063,-0.868134797,1.531093359,5,32,38,18,65,-8.668207169,3.774458885,0.952892303,-0.11817611,-0.044232771,0.449655443,-41,19,-24,16,156
1695160632286800600,-9.935936928,-3.405751944,-1.302445769,-0.960464001,-0.094327718,0.57236141,6,32,43,18,62,-8.561665535,3.767276287,0.752976418,-0.071145482,-0.052626338,0.374113321,-39,18,-21,18,158
1695160632287800600,-9.913191795,-3.38180995,-1.286883354,-0.973520637,-0.065949462,0.536788702,6,33,42,20,63,-8.561665535,3.79241538,0.726640224,-0.055557426,-0.049828485,0.363454819,-43,17,-21,17,155
1695160632288800600,-9.890447617,-3.361459255,-1.277306557,-0.986044347,-0.039836142,0.503347635,5,37,43,23,65,-8.562862396,3.821146011,0.700303972,-0.037704438,-0.046497703,0.351996928,-38,15,-23,18,156
1695160632289800600,-9.871294022,-3.345896959,-1.267729759,-0.998301685,-0.015987748,0.471771836,16,32,43,23,66,-8.570044518,3.854664803,0.666785181,-0.017453292,-0.042367533,0.339872897,-42,15,-23,15,157
1695160632290800600,-9.84974575,-3.333925962,-1.259350061,-1.009493113,0.005728943,0.442327708,6,33,44,23,64,-8.582015991,3.892971992,0.628477931,0.005062787,-0.038237367,0.326949447,-41,15,-22,16,155
1695160632352762500,-9.63666153,-3.472789526,-1.211466074,-1.002698302,0.057289433,0.239150077,8,34,48,22,64,-8.698134422,7.596801758,0.551863492,0.0042634,-0.048362937,0.341738135,-43,17,-25,17,157
1695160632353762500,-9.63666153,-3.490746021,-1.215057373,-0.987776399,0.047963247,0.242747322,16,32,54,22,67,-8.674192429,7.915230751,0.530315697,-0.054091886,-0.071678407,0.384372145,-39,21,-23,17,157
1695160632354762500,-9.637859344,-3.509899616,-1.212663174,-0.971388996,0.037837673,0.247277185,9,34,54,22,67,-8.641871452,8.231265068,0.506373644,-0.115245022,-0.09659265,0.431402773,-41,19,-23,20,156
1695160632355762500,-9.637859344,-3.523067713,-1.215057373,-0.959531426,0.030776417,0.250607967,9,32,55,24,68,-8.601169586,8.524555206,0.472854823,-0.179862171,-0.122039817,0.483629376,-43,16,-25,18,159
1695160632356762500,-9.637859344,-3.544615507,-1.224634171,-0.940612555,0.019451762,0.256070435,16,37,53,25,63,-8.55448246,8.796297073,0.440533102,-0.24567841,-0.14908576,0.541584969,-43,13,-25,17,156
1695160632416725300,-9.289502144,-3.368641853,-1.294066072,-0.553975463,-0.117909648,0.264996946,17,32,56,25,65,-7.302315235,11.80580902,1.332373261,-0.562502325,-0.448589563,1.985678434,-45,18,-23,19,154
1695160632417725300,-9.260771751,-3.348291159,-1.295263171,-0.541851461,-0.112447165,0.255404294,10,37,56,26,68,-7.261613846,11.87883186,1.33716166,-0.524131715,-0.437797844,2.046831608,-45,23,-21,19,157
1695160632418725300,-9.229647636,-3.326743364,-1.295263171,-0.531592667,-0.105652377,0.245012254,16,32,55,25,65,-7.223306656,11.94826317,1.331176162,-0.481764168,-0.424741209,2.105586529,-44,20,-21,17,154
1695160632419725300,-9.202114105,-3.306392431,-1.294066072,-0.522799373,-0.097258806,0.233554363,16,32,57,29,64,-7.195773125,12.01051235,1.319205165,-0.435399711,-0.409819305,2.16181016,-45,18,-23,19,158
1695160632420725300,-9.174580574,-3.283647537,-1.291671872,-0.515871346,-0.08726646,0.221297085,16,38,54,23,65,-7.179013729,12.06318569,1.290474772,-0.385304749,-0.393431842,2.215502262,-44,23,-23,16,154
1695160632455705600,-9.218873978,-3.094505787,-1.198297977,-0.542384386,0.205042884,-0.081803977,16,37,55,26,67,-7.752425194,13.82771206,0.763750315,0.18798928,-0.232355282,3.24631238,-49,19,-25,18,152
1695160632456705600,-9.228450775,-3.098097086,-1.183932781,-0.538787127,0.218232766,-0.098990813,17,37,56,29,67,-7.800309181,13.93425369,0.776918471,0.155480847,-0.241415009,3.299738169,-46,19,-23,20,156
1695160632457705600,-9.233239174,-3.099294186,-1.175553083,-0.533724368,0.231289431,-0.116310872,16,34,56,25,67,-7.848193169,14.02044487,0.794874966,0.116177641,-0.251274139,3.352097988,-47,21,-22,20,154
1695160632458705600,-9.239224434,-3.101688385,-1.168370485,-0.52719599,0.243679941,-0.1334977,17,33,57,23,65,-7.896077156,14.09586239,0.810437262,0.070212863,-0.262065858,3.403525114,-47,15,-21,17,157
1695160632459705600,-9.245209694,-3.104082584,-1.162384868,-0.519068897,0.255803972,-0.150284842,17,38,55,26,67,-7.936778545,14.15332317,0.827196658,0.018918836,-0.272591114,3.453620195,-49,19,-22,18,153
1695160632501911200,-9.305065155,-2.923320293,-0.912190855,-0.176531389,0.448189914,-0.425007641,16,35,58,22,67,-8.84896946,13.16332054,0.463278025,-0.939413488,-0.388102591,4.186791897,-61,21,-24,16,148
1695160632502911200,-9.314641953,-2.905363798,-0.89184016,-0.155480847,0.458182245,-0.435532928,8,33,57,22,65,-8.840589523,13.13339329,0.525527298,-0.960730493,-0.388235807,4.209307671,-65,17,-24,16,154
1695160632503911200,-9.320627213,-2.889801502,-0.875080705,-0.13456355,0.468041331,-0.445258796,16,37,58,27,68,-8.846575737,13.07473564,0.535104096,-0.984445632,-0.383306265,4.22476244,-65,15,-25,17,154
1695160632504911200,-9.329007149,-2.870647907,-0.85473001,-0.114179172,0.477634013,-0.45445177,18,34,58,27,71,-8.870517731,12.95622253,0.523133099,-0.996036768,-0.387702912,4.242482662,-69,16,-24,15,152
1695160632505911200,-9.333795547,-2.856282711,-0.836773515,-0.094061248,0.486826956,-0.463378251,16,37,58,25,67,-8.888473511,12.8496809,0.526724398,-1.003231168,-0.395563543,4.264598846,-61,19,-24,15,152
1695160632536890000,-9.293093681,-2.473210335,-0.48362875,0.163075045,0.580088794,-0.60353756,16,37,59,26,67,-7.662642479,11.0671978,1.48679924,-0.80818069,-0.336009204,4.365588188,-79,30,1,28,152
1695160632537890000,-9.28591156,-2.450465441,-0.468066424,0.168004602,0.583019912,-0.610465586,20,33,59,28,65,-7.574057102,10.96424675,1.52390933,-0.790194511,-0.326283306,4.365588188,-77,29,8,25,151
1695160632538890000,-9.275136948,-2.430114746,-0.458489627,0.172267988,0.586084247,-0.61712712,17,35,59,28,69,-7.489062786,10.86728191,1.55982244,-0.77447319,-0.317623258,4.365588188,-77,29,4,25,151
1695160632539890000,-9.264363289,-2.41335535,-0.44651863,0.17559877,0.589148581,-0.623655438,18,41,58,28,68,-7.405265808,10.77630138,1.581370234,-0.760617197,-0.311627865,4.365588188,-78,32,15,25,151
1695160632540890000,-9.254786491,-2.393004656,-0.434547603,0.178796321,0.592212856,-0.63005054,16,35,59,29,67,-7.323863029,10.67694283,1.619677424,-0.746094942,-0.309362948,4.365588188,-78,35,24,31,153
1695160632619594300,-9.29788208,-2.244564056,-0.191536129,0.206508413,0.62538743,-0.695733547,20,36,58,24,71,-5.128379822,8.724471092,2.710236311,-1.172568083,-0.564500749,4.365588188,-86,286,242,180,209
1695160632620594300,-9.306262016,-2.239775658,-0.18674773,0.208773345,0.622989297,-0.696133256,17,36,60,28,72,-4.999093056,8.58680439,2.731784105,-1.218266487,-0.580488503,4.365588188,-85,299,255,191,216
1695160632621594300,-9.312247276,-2.237381458,-0.18435353,0.211171508,0.620058179,-0.696266472,16,33,59,27,68,-4.855441093,8.446743965,2.759317398,-1.266229749,-0.595543683,4.347734928,-81,319,272,193,221
1695160632622594300,-9.320627213,-2.22900176,-0.175973818,0.213836133,0.616727412,-0.695866764,16,35,63,28,67,-4.693832397,8.269572258,2.780865192,-1.317390561,-0.611931086,4.322021484,-80,338,289,216,232
1695160632623594300,-9.329007149,-2.221819162,-0.171185419,0.216367543,0.612996936,-0.695333838,17,36,62,27,71,-4.535815239,8.082824707,2.814383984,-1.360424161,-0.627252638,4.298039913,-83,355,307,223,241
1695160632653554100,-9.264363289,-2.11767149,-0.134075299,0.276854515,0.469773352,-0.640575767,18,37,59,24,68,-1.788468719,4.832695961,2.643198729,-1.381741166,-0.674683034,3.554609537,-76,673,649,511,471
1695160632654554100,-9.254786491,-2.11527729,-0.128089786,0.281517595,0.461646259,-0.635646224,17,37,59,28,71,-1.650802016,4.708197594,2.618059635,-1.310728908,-0.642441094,3.504114866,-73,683,659,522,483
1695160632655554100,-9.244012833,-2.111685991,-0.124498487,0.286447167,0.454052061,-0.630183756,20,37,61,29,68,-1.517923832,4.617218018,2.577358246,-1.237718225,-0.604869843,3.450555801,-74,691,663,532,493
1695160632656554100,-9.229647636,-2.106897593,-0.120907187,0.291243494,0.446724325,-0.624588013,16,37,63,28,67,-1.393425345,4.540603638,2.546233416,-1.167372108,-0.566898882,3.395131588,-67,695,670,540,503
1695160632657554100,-9.218873978,-2.104503393,-0.119710088,0.296439528,0.439529866,-0.618725896,20,34,65,30,69,-1.26653266,4.489128113,2.531868219,-1.093162298,-0.526263416,3.341039658,-73,701,683,544,514
1695160632819532900,-9.366117477,-2.655169725,-0.499191046,0.38024193,0.322819293,-0.402624816,22,35,62,30,69,0.187944829,4.765658379,3.637989521,-0.820437968,-0.215701386,2.474104166,-12,754,776,694,694
1695160632820532900,-9.381679535,-2.723404408,-0.549469292,0.383572727,0.313093394,-0.388102591,17,37,60,30,68,0.319625914,4.692635536,3.761290789,-0.87519604,-0.207441032,2.444393635,-12,750,776,696,695
1695160632821532900,-9.39484787,-2.78924489,-0.605733037,0.38743645,0.302701384,-0.375712097,18,34,67,29,68,0.456095427,4.633977413,3.860650301,-0.937681437,-0.199180692,2.425341606,-11,751,770,697,695
1695160632822532900,-9.416395187,-2.855085611,-0.663193882,0.391966313,0.291776419,-0.36518684,16,33,64,29,67,0.618901134,4.606443882,3.925293684,-1.004163861,-0.189588055,2.410286427,5,753,769,698,695
1695160632823532900,-9.430760384,-2.924517393,-0.724246025,0.397029072,0.280718207,-0.35732618,18,41,65,26,68,0.769735873,4.556165695,3.97796607,-1.056656957,-0.177464008,2.394964695,10,753,769,696,695
1695160632906473400,-10.22324085,-5.637147903,-2.525882721,0.264996946,0.087932616,-0.800186813,16,35,73,30,71,3.335123062,4.016273499,2.93529129,-1.115811586,0.059021436,2.073877335,217,677,748,690,712
1695160632907473400,-10.26035118,-5.859808445,-2.622848034,0.244879022,0.097525269,-0.853212893,11,37,77,29,68,3.491943121,3.921702385,3.037044764,-1.091430306,0.101921894,2.022050619,244,692,747,690,709
1695160632908473400,-10.28309631,-6.086060524,-2.710236311,0.227425739,0.110981621,-0.90850383,16,37,79,33,72,3.608062029,3.768473387,3.078943491,-1.064650893,0.15534763,1.975286365,260,703,750,694,707
1695160632909473400,-10.28668785,-6.236895561,-2.767697096,0.217433393,0.12230628,-0.946741164,16,37,74,32,65,3.715801001,3.713406801,3.080140591,-1.036405802,0.20824042,1.93385148,283,720,747,693,703
1695160632910473400,-10.27830791,-6.475118637,-2.852691412,0.205042884,0.14282389,-1.004963279,21,35,79,34,69,3.818751812,3.742137194,3.078943491,-1.00562942,0.256869823,1.889885068,306,734,745,690,699
1695160632980456800,-9.228450775,-9.278728485,-3.690661907,0.387569666,0.969124019,-2.013123989,16,35,91,36,72,4.641160011,3.525461912,4.380191803,-0.502947927,0.483762652,1.205076575,564,877,749,687,678
1695160632981456800,-9.205705643,-9.338583946,-3.734954596,0.406888187,1.015755057,-2.054025888,16,37,92,36,72,4.733336926,3.520673513,4.503493309,-0.474036753,0.482430339,1.177630901,574,884,747,688,679
1695160632982456800,-9.196128845,-9.40083313,-3.785232782,0.425007641,1.060787082,-2.093462467,18,33,91,34,72,4.849455357,3.524264812,4.649539471,-0.433934122,0.484162331,1.137128592,582,884,745,687,680
1695160632983456800,-9.196128845,-9.460687637,-3.833117008,0.442460954,1.103954077,-2.131566525,18,36,93,36,72,4.917690277,3.501519918,4.75249052,-0.405156225,0.486826956,1.108617187,585,883,743,686,680
1695160632984456800,-9.198522568,-9.510966301,-3.884592295,0.458848417,1.145122528,-2.168471813,16,33,90,34,71,5.01465559,3.513490915,4.866214752,-0.372248113,0.49029094,1.079306245,591,891,743,684,679
1695160633083372900,-9.530119896,-10.35372543,-5.224148273,0.561569631,1.633947968,-2.865803957,24,35,92,36,69,5.461174011,3.536235809,7.019799232,0.230223581,0.314159274,0.766212881,633,935,691,668,695
1695160633084372900,-9.558850288,-10.36809063,-5.288791656,0.577690661,1.638344646,-2.913767099,25,35,91,35,73,5.414487362,3.472789526,7.303512096,0.243546709,0.280052066,0.742764115,635,937,687,666,700
1695160633085372900,-9.588777542,-10.37168217,-5.345055103,0.593012273,1.641275644,-2.962929487,27,41,90,35,71,5.430049419,3.433285236,7.571662903,0.254338443,0.244479313,0.718382835,635,945,681,667,700
1695160633086372900,-9.61870575,-10.36689377,-5.395333767,0.607934177,1.640742779,-3.012491703,24,33,92,35,72,5.477933407,3.345896959,7.758410454,0.263931066,0.209306285,0.691603363,638,945,683,667,704
1695160633087372900,-9.652224541,-10.35252857,-5.437232018,0.621923387,1.640209794,-3.062586546,23,37,94,35,74,5.531803131,3.263296843,7.793126583,0.272591114,0.172001526,0.668820798,641,945,679,671,708
1695160633132347800,-9.616311073,-9.884461403,-5.68383503,0.407154679,1.850315452,-3.754323244,28,34,153,45,75,7.047332764,4.390965939,5.920860767,0.496419609,-0.084735066,0.438464016,628,977,642,671,736
1695160633133347800,-9.599552155,-9.900024414,-5.68144083,0.403957129,1.869234324,-3.772975445,30,35,161,45,73,7.133523941,4.469974518,5.862202644,0.514805496,-0.094327718,0.427006125,635,979,641,670,738
1695160633134347800,-9.576807022,-9.91438961,-5.685031891,0.403424203,1.886421084,-3.790162325,30,37,171,45,71,7.211335659,4.545392036,5.810727596,0.531592667,-0.100856051,0.416480839,626,979,638,671,737
1695160633135347800,-9.552865028,-9.921571732,-5.68383503,0.405156225,1.901742697,-3.806150198,30,34,179,45,72,7.2915411,4.653131008,5.765237808,0.54438287,-0.104586519,0.406488538,627,979,638,671,740
1695160633136347800,-9.518148422,-9.91438961,-5.675455093,0.40928638,1.915732026,-3.821871281,29,37,186,50,76,7.366958618,4.768052578,5.72812748,0.552509964,-0.106318533,0.396762639,626,980,638,669,740
1695160633172321000,-8.134300232,-8.833407402,-4.825513363,0.52506429,2.180862188,-3.906339884,18,62,409,99,72,7.656657219,5.104437828,5.488707542,0.18079479,-0.053026035,0.271525264,606,985,611,671,747
1695160633173321000,-8.033743858,-8.792705536,-4.72256279,0.529993892,2.193252802,-3.893549681,24,63,420,103,73,7.624335289,5.036203384,5.516240597,0.177464008,-0.0528928,0.261532933,608,987,611,672,748
1695160633174321000,-7.929595947,-8.749609947,-4.602852821,0.539186835,2.204577446,-3.878361464,26,64,437,108,72,7.596801758,4.971560001,5.555745125,0.176264927,-0.053425729,0.251673818,609,985,606,672,746
1695160633175321000,-7.820659637,-8.716091156,-4.474762917,0.555973947,2.215502262,-3.860375166,28,65,443,109,68,7.570465565,4.898536682,5.597643375,0.177197546,-0.055024505,0.24261409,606,983,607,672,748
1695160633176321000,-7.708132267,-8.683769226,-4.350264549,0.580088794,2.225761175,-3.840257168,26,71,472,119,73,7.54532671,4.809951305,5.676652431,0.181460962,-0.058488514,0.231555894,603,985,606,673,748
1695160633207303600,-5.766434669,-6.849811077,-3.141192675,1.110082746,1.983413458,-3.343571186,29,207,769,318,220,7.28555584,4.887762547,5.750872612,0.386637062,-0.19118683,0.122039817,594,973,590,672,754
1695160633208303600,-5.679046631,-6.738480568,-3.066972494,1.106885076,1.938914299,-3.325585127,28,217,783,333,238,7.287950039,4.954800606,5.708973885,0.391699851,-0.197049007,0.118975498,592,972,590,672,756
1695160633209303600,-5.570110321,-6.634333134,-2.977189779,1.103687525,1.894015193,-3.310130358,31,224,799,349,255,7.295132637,5.018246651,5.675455093,0.394764155,-0.202378258,0.114578865,593,975,590,673,754
1695160633210303600,-5.437232018,-6.53976202,-2.871845007,1.098624825,1.848716736,-3.296007872,31,235,816,365,271,7.299921036,5.062539577,5.640739441,0.396096468,-0.206908107,0.110581927,593,974,588,672,755
1695160633211303600,-5.286397457,-6.458359241,-2.759317398,1.092629433,1.803951025,-3.28321743,31,243,836,386,292,7.307103634,5.111620426,5.612008572,0.395563543,-0.211171508,0.107251145,591,972,590,673,756
1695160633241282600,-2.717418909,-6.187814236,-1.285686255,1.158978581,1.243047476,-2.696200609,63,434,1085,733,723,7.32745409,5.24210453,5.518634796,0.285914242,-0.185591117,0.074875958,579,959,573,671,761
1695160633242282600,-2.608482838,-6.169857979,-1.223437071,1.192286372,1.217067361,-2.665291071,63,443,1089,746,737,7.334636688,5.240907669,5.513846397,0.282716691,-0.186523736,0.070745789,571,963,576,671,759
1695160633243282600,-2.49116683,-6.155492783,-1.168370485,1.225993872,1.190154672,-2.633581877,64,447,1091,755,757,7.334636688,5.248090267,5.49828434,0.279119462,-0.188122496,0.067281775,577,958,575,671,759
1695160633244282600,-2.37744236,-6.144718647,-1.119289279,1.261033654,1.160444021,-2.601606369,70,454,1098,770,779,7.325059891,5.258863926,5.485116005,0.274189889,-0.191053599,0.065150075,569,960,574,671,759
1695160633245282600,-2.270900249,-6.118382454,-1.047463298,1.298604846,1.127935648,-2.569897413,73,464,1111,781,799,7.316680431,5.263652325,5.469553947,0.268194497,-0.195317,0.064084224,573,958,574,671,757
1695160633275264300,0.08379706,-4.930858612,0.430956304,1.572395086,0.622056663,-1.941312313,212,514,1148,948,1134,7.514202118,5.030217648,5.491101742,0.118042871,-0.172134757,-0.051826954,563,946,573,665,744
1695160633276264300,0.189141929,-4.997896194,0.497993946,1.579189897,0.617926478,-1.911601782,223,512,1151,954,1151,7.51061058,5.006275654,5.495890141,0.11191424,-0.163208261,-0.066482387,563,943,572,665,742
1695160633277264300,0.304063618,-5.073313236,0.579396784,1.588649392,0.615395069,-1.878427267,233,512,1146,958,1161,7.508216381,4.984727859,5.495890141,0.105918832,-0.154681474,-0.080738127,564,944,569,666,743
1695160633278264300,0.405817181,-5.137956619,0.684741676,1.600506902,0.615261853,-1.842987776,248,513,1145,957,1169,7.501033783,4.970362663,5.499481201,0.099390499,-0.147220522,-0.093794793,563,937,570,666,740
1695160633279264300,0.490811348,-5.16788435,0.81761986,1.616094947,0.62325573,-1.809679866,255,511,1143,963,1179,7.483077526,4.960785866,5.500678539,0.092062794,-0.141491577,-0.105119444,563,931,569,665,740
1695160633351709700,2.04464817,-5.714959621,0.438138902,1.357892871,0.727575779,-1.435966372,447,441,1126,959,1191,6.127959251,4.297592163,4.529829502,-0.153349161,-0.746228158,-0.372248113,541,895,583,657,687
1695160633352709700,2.157175779,-5.746084213,0.518344641,1.327382803,0.745029092,-1.393865228,458,438,1123,958,1185,6.106411457,4.192247391,4.49511385,-0.132032156,-0.815641701,-0.390500784,535,897,589,654,685
1695160633353709700,2.272097349,-5.756857872,0.626083732,1.296473145,0.765946448,-1.347500801,469,443,1123,960,1185,6.108805656,4.08570528,4.46039772,-0.104320064,-0.883989275,-0.409153163,533,894,591,655,680
1695160633354709700,2.375048161,-5.765237808,0.731428623,1.265430331,0.790061235,-1.301269531,476,441,1120,956,1182,6.139930248,3.992331266,4.443638325,-0.071811639,-0.950738132,-0.426739663,532,892,593,655,677
1695160633355709700,2.446874142,-5.787982464,0.800860465,1.232921839,0.815108716,-1.252240419,486,441,1123,957,1178,6.192602634,3.930082083,4.452018261,-0.037837673,-1.013756514,-0.443526804,522,887,595,650,678
1695160633429554200,3.45603013,-5.865794182,1.765723705,0.224094957,1.204143882,-0.325084209,620,448,1141,960,1157,6.883329868,4.49271965,4.991910458,-0.231289431,-0.445791721,-1.298738122,340,745,600,584,640
1695160633430554200,3.430891037,-5.924452305,1.802833915,0.18599081,1.204410434,-0.293908119,623,449,1136,955,1155,6.781576157,4.430470467,4.897339344,-0.254871368,-0.398094952,-1.364421129,327,727,594,578,636
1695160633431554200,3.423708439,-5.992686749,1.8579005,0.153215915,1.199480772,-0.265529871,622,452,1139,956,1156,6.68461132,4.370615005,4.803965569,-0.273523748,-0.354528338,-1.427039862,309,703,591,576,631
1695160633432554200,3.433285236,-6.060921669,1.9321208,0.12723583,1.18948853,-0.237418056,629,450,1137,951,1156,6.58405447,4.326322556,4.704606533,-0.286447167,-0.314825416,-1.485528231,294,681,591,575,629
1695160633433554200,3.434482336,-6.068104267,2.017114878,0.0955268,1.178563595,-0.214235827,626,451,1135,952,1153,6.489483833,4.285621166,4.60764122,-0.291110277,-0.279252678,-1.542018294,271,658,590,572,621
1695160633490402200,3.478775024,-7.484274387,3.754108191,-0.585551262,0.752090335,-0.042234302,624,473,1119,942,1132,4.967968464,3.884592295,4.705803394,0.261532933,0.752889752,-2.109050512,120,481,480,441,424
1695160633491402200,3.466804028,-7.568071365,4.023456097,-0.622856021,0.703327715,-0.043166921,625,473,1116,941,1130,4.836287498,3.839102507,4.817133904,0.361589581,0.8508147,-2.122640133,126,467,465,420,407
1695160633492402200,3.502717018,-7.672219276,4.231751442,-0.657762647,0.660294056,-0.044366002,624,476,1117,940,1127,4.72256279,3.831919909,4.928464413,0.459381312,0.958598793,-2.145955563,128,451,449,411,404
1695160633493402200,3.573346138,-7.764396191,4.356249809,-0.689471722,0.620191395,-0.044765696,626,480,1114,941,1128,4.632780075,3.775655985,4.9763484,0.571029067,1.065983176,-2.165940285,130,432,435,386,389
1695160633494402200,3.666719913,-7.837419033,4.437653065,-0.719315469,0.582486987,-0.043833077,625,480,1114,939,1124,4.578910828,3.744531393,5.056553841,0.686540544,1.166439533,-2.184326172,131,413,419,366,375
1695160633636336900,5.084087372,-8.825027466,1.991975784,-0.685741186,0.340539038,0.150284842,634,487,1097,929,1109,3.288435936,4.702212334,4.748898983,1.27195859,1.715219021,-2.171669245,69,108,95,30,151
1695160633637336900,5.111620426,-8.831012726,1.920149803,-0.666156173,0.340672255,0.165606424,630,490,1095,929,1111,3.224989653,4.753687382,4.721365929,1.318456292,1.693102598,-2.163808584,65,97,88,20,150
1695160633638336900,5.151124954,-8.825027466,1.811213613,-0.637378275,0.342803985,0.188788652,629,490,1092,927,1109,3.169923067,4.844666958,4.6842556,1.353229642,1.670186758,-2.15501523,59,91,75,9,142
1695160633639336900,5.185841084,-8.81664753,1.701080322,-0.609133244,0.346667677,0.211571202,632,493,1095,926,1113,3.110068083,4.927267075,4.643554211,1.392532945,1.642741203,-2.153283358,62,84,61,-2,133
1695160633640336900,5.208585739,-8.803479195,1.595735431,-0.582886636,0.351464033,0.233820826,629,494,1092,930,1110,3.045424461,4.981136799,4.625597477,1.435433388,1.608367562,-2.156480789,57,79,51,-6,128
1695160633675314600,4.859032154,-9.200917244,0.684741676,-0.570496202,0.343070447,0.19838132,605,499,1081,914,1103,0.750582218,6.169857979,3.561375141,1.326183796,0.774073541,-2.343937159,5,15,-41,-90,98
1695160633676314600,4.795586109,-9.283516884,0.682347476,-0.578356802,0.32721591,0.179995403,606,499,1081,914,1103,0.63326633,6.226121426,3.497928619,1.303934097,0.729973972,-2.369384289,-1,15,-43,-92,93
1695160633677314600,4.762067318,-9.352949142,0.70628953,-0.586217463,0.308696777,0.160543635,601,498,1081,912,1103,0.527921498,6.262034416,3.423708439,1.269960165,0.688672304,-2.395764351,-5,12,-45,-92,96
1695160633678314600,4.745307922,-9.43315506,0.763750315,-0.593678415,0.289511472,0.140159264,602,497,1082,915,1102,0.37110126,6.306327343,3.349488258,1.232388973,0.633248091,-2.430804014,-3,9,-45,-96,96
1695160633679314600,4.724956989,-9.519346237,0.833182216,-0.600339949,0.272191435,0.11924196,597,499,1081,911,1102,0.262165099,6.333860397,3.302801132,1.202545166,0.591946423,-2.45891571,-12,9,-49,-96,97
1695160633709293500,4.847061157,-9.923966408,0.93014735,-0.353329241,0.046364475,-0.11817611,591,498,1071,890,1093,-1.733402014,6.609193802,2.325966835,0.993771791,0.028378254,-3.215269566,-35,9,-57,-96,108
1695160633710293500,4.853046894,-9.872490883,0.908599555,-0.332411945,0.044499233,-0.120307811,591,497,1072,890,1092,-1.868674397,6.635529995,2.287659645,1.002698302,0.005196018,-3.265497684,-39,8,-60,-97,112
1695160633711293500,4.860229492,-9.81742382,0.89303726,-0.311761081,0.043166921,-0.120840736,590,494,1071,891,1092,-1.977610588,6.660669327,2.260126352,1.014022946,-0.016787136,-3.315992355,-38,5,-59,-95,114
1695160633712293500,4.863820553,-9.757569313,0.878672004,-0.292975485,0.042234302,-0.119641654,586,497,1071,891,1095,-2.075772762,6.658275127,2.246958256,1.03360796,-0.038237367,-3.365954161,-42,8,-57,-97,113
1695160633713293500,4.874594688,-9.694122314,0.871489406,-0.276055127,0.041834611,-0.116710559,588,497,1069,887,1090,-2.181117773,6.670246124,2.246958256,1.058522224,-0.057022974,-3.413117886,-38,12,-49,-92,114
1695160633768658900,4.580107689,-9.089587212,0.9648633,-0.28564778,0.163741201,0.036238898,575,501,1069,876,1086,-3.885789394,6.443994045,2.211045265,1.784632444,-0.256070435,-3.979084015,-40,15,-60,-86,122
1695160633769658900,4.56933403,-9.097966194,0.949300945,-0.284049004,0.159877479,0.028911179,576,502,1066,877,1085,-3.987542868,6.436811447,2.214636564,1.794358253,-0.27059263,-3.979483843,-39,11,-64,-87,120
1695160633770658900,4.564545631,-9.095572472,0.925358951,-0.281650841,0.155880541,0.021183766,575,502,1067,874,1086,-4.107253075,6.434417248,2.212242365,1.798488498,-0.286047459,-3.978151798,-42,13,-57,-85,112
1695160633771658900,4.557363033,-9.088389397,0.894234359,-0.278719753,0.151617154,0.01292343,575,502,1063,874,1085,-4.258087635,6.461950302,2.199074268,1.792626262,-0.303767234,-3.976952553,-40,12,-62,-86,122
1695160633772658900,4.542997837,-9.078812599,0.857124209,-0.275788665,0.146421134,0.004663093,575,498,1064,875,1086,-4.399345398,6.464344501,2.171540976,1.778503895,-0.324418068,-3.975353718,-38,17,-62,-84,126
1695160633835571600,4.351461411,-8.844181061,0.737414122,-0.146820813,-0.021050537,-0.089531392,566,505,1053,864,1073,-7.302315235,5.708973885,1.699883223,1.00816083,-0.804450214,-3.836793184,-26,19,-57,-71,132
1695160633836571600,4.341884613,-8.81664753,0.732625723,-0.135229707,-0.03437366,-0.09246248,570,503,1050,860,1070,-7.538144112,5.693411827,1.677138329,0.96299541,-0.82430166,-3.841056585,-26,20,-56,-71,130
1695160633837571600,4.333505154,-8.780735016,0.719457626,-0.124171518,-0.048762634,-0.095926493,569,500,1052,861,1073,-7.778761387,5.697002888,1.673547029,0.913833082,-0.841088772,-3.847185135,-25,20,-56,-71,130
1695160633838571600,4.325125217,-8.747216225,0.711077929,-0.114045948,-0.064217456,-0.099390499,568,501,1055,860,1073,-8.039729118,5.685031891,1.648407817,0.867735028,-0.856143951,-3.857177734,-25,20,-49,-65,130
1695160633839571600,4.317942619,-8.710105896,0.702698171,-0.105519146,-0.080738127,-0.102987751,570,501,1050,860,1075,-8.311470985,5.68383503,1.618480325,0.826833069,-0.872931063,-3.86850214,-22,23,-49,-65,131
1695160633903370800,4.070142746,-8.190564156,0.808043063,-0.090996936,-0.852946401,-0.462978572,574,503,1037,858,1058,-13.76665974,6.818686485,1.656787634,0.002531394,-0.955001533,-4.365721226,-15,24,-45,-49,134
1695160633904370800,4.102464676,-8.119935036,0.863109708,-0.099257268,-0.912767231,-0.500150084,572,498,1036,854,1057,-14.00847435,6.915651798,1.67115283,-0.032908116,-0.945009172,-4.365721226,-12,28,-48,-54,140
1695160633905370800,4.120420933,-8.070854187,0.912190855,-0.106584989,-0.970856011,-0.536788702,570,498,1039,856,1056,-14.23592377,7.012616634,1.687912226,-0.067015313,-0.93395102,-4.365721226,-15,24,-49,-53,138
1695160633906370800,4.131195068,-8.015787125,0.956483603,-0.115911178,-1.026813149,-0.571428835,573,497,1040,851,1056,-14.4406271,7.104793549,1.684320927,-0.102055125,-0.922359884,-4.365721226,-13,27,-41,-51,138
1695160633907370800,4.146757126,-7.94994688,0.998382092,-0.127768755,-1.080372095,-0.604736567,565,494,1038,848,1053,-14.64533138,7.199364662,1.679532528,-0.137361407,-0.910235822,-4.365721226,-15,28,-45,-51,139
1695160633977784500,4.401739597,-8.249221802,1.917755604,0.035972435,-1.560004473,-0.518402755,446,397,989,767,987,-15.44978333,9.06205368,1.328781962,-0.063284837,-0.409686059,-4.365721226,-17,29,-43,-44,145
1695160633978784500,4.344278812,-8.277952194,1.895010591,0.095926493,-1.564667702,-0.489091903,434,393,983,762,979,-15.31331444,9.145850182,1.349132657,-0.028644716,-0.36878407,-4.365721226,-15,33,-43,-47,142
1695160633979784500,4.295197964,-8.312667847,1.862688899,0.159211323,-1.569064379,-0.45658344,425,390,973,758,970,-15.16367626,9.2212677,1.368286252,0.005462481,-0.32615009,-4.365721226,-17,30,-44,-48,142
1695160633980784500,4.247313976,-8.325836182,1.833958507,0.22236295,-1.571329236,-0.420078099,414,390,961,749,961,-15.00206757,9.277531624,1.386242747,0.03996937,-0.282317013,-4.365721226,-15,30,-45,-44,146
1695160633981784500,4.191050053,-8.319850922,1.78248322,0.288978547,-1.570529819,-0.385304749,404,385,953,738,949,-14.82609367,9.32421875,1.407790542,0.073543645,-0.237018377,-4.365721226,-17,24,-44,-49,144
1695160634035579400,4.444835663,-6.416460514,2.136825085,0.618059695,-0.419944882,0.799787164,281,229,665,411,524,-11.0133276,6.466738701,1.321599364,0.761816204,0.497618675,-2.669687748,-14,30,-41,-34,145
1695160634036579400,4.428076267,-6.353013992,2.336740971,0.570096493,-0.311761081,0.90637213,276,217,637,386,507,-10.93791008,6.271611214,1.303642869,0.818705976,0.516537488,-2.468108654,-14,29,-44,-33,142
1695160634037579400,4.402936935,-6.27999115,2.525882721,0.52506429,-0.207707509,1.01029253,272,202,611,363,489,-10.8756609,6.092046261,1.294066072,0.878260314,0.5339908,-2.266396761,-15,33,-41,-36,146
1695160634038579400,4.375403404,-6.192602634,2.673126221,0.469107211,-0.112713635,1.108617187,270,192,584,338,467,-10.83136845,5.931634903,1.283292055,0.939280272,0.549578846,-2.06614995,-12,30,-43,-33,145
1695160634039579400,4.338293552,-6.089652061,2.761711597,0.394630939,-0.031575806,1.19774878,267,177,557,319,449,-10.80144119,5.779603004,1.267729759,1.001632452,0.56303519,-1.869367599,-13,29,-38,-38,140
1695160634201427000,2.427720547,-6.500257492,1.465251446,-0.565566599,-0.078473203,1.749059677,100,33,170,74,169,-11.46343803,4.596867085,1.00317049,2.086134672,0.274323106,0.379975498,-15,29,-40,-23,144
1695160634202427000,2.387019157,-6.540958881,1.403002143,-0.538387418,-0.132565081,1.749192953,97,34,154,66,165,-11.50892735,4.611232281,0.963666201,2.132765532,0.227425739,0.397295564,-13,29,-39,-19,139
1695160634203427000,2.33913517,-6.551733017,1.344344258,-0.513872921,-0.185191423,1.751724243,95,34,144,64,158,-11.54005241,4.619612217,0.93134445,2.17793107,0.177064329,0.40462327,-13,30,-38,-20,145
1695160634204427000,2.26970315,-6.537367821,1.291671872,-0.494021446,-0.237018377,1.753989339,95,32,136,62,152,-11.56040287,4.636371613,0.913387954,2.221097946,0.123771824,0.402758032,-15,30,-37,-27,144
1695160634205427000,2.200271368,-6.530185223,1.237802267,-0.475102603,-0.288045943,1.756920338,93,31,123,55,149,-11.56997967,4.654327869,0.906205356,2.261200666,0.067548238,0.391966313,-13,30,-41,-21,144
1695160634242048800,0.474051923,-6.272808552,0.383072257,-0.484828472,-1.088499188,2.208973885,51,17,31,31,100,-9.88206768,5.481524944,1.073799491,2.282650709,-0.944875956,-0.625254214,-13,31,-37,-18,142
1695160634243048800,0.326808542,-6.278793812,0.300472319,-0.506678402,-1.117410421,2.256937027,49,21,26,30,98,-9.775525093,5.530605793,1.070208192,2.240683079,-0.974986196,-0.685474753,-12,27,-38,-18,140
1695160634244048800,0.158017308,-6.302735806,0.207098454,-0.529194474,-1.147387385,2.306499004,48,11,24,29,99,-9.671378136,5.58088398,1.061828494,2.193119287,-1.001765728,-0.744362891,-12,23,-41,-18,144
1695160634245048800,-0.025139118,-6.338648796,0.111330383,-0.553575814,-1.179229736,2.35712719,44,18,23,28,96,-9.562441826,5.623979568,1.057040095,2.143157721,-1.02534759,-0.801119447,-12,30,-36,-19,145
1695160634246048800,-0.216675252,-6.38892746,0.020350715,-0.579422712,-1.213736534,2.409620047,47,21,19,30,96,-9.449913979,5.655104637,1.046266198,2.091330767,-1.044932604,-0.855211318,-12,30,-37,-18,144
1695160634280030400,-2.855085611,-7.144298077,-1.496376038,-1.098358274,-2.076275587,3.524765491,29,18,-5,28,87,-8.163030624,6.460753441,1.022324085,1.032408834,-0.780868292,-1.336975455,-10,29,-37,-15,141
1695160634281030400,-2.954444885,-7.119158745,-1.519120932,-1.133797765,-2.128235817,3.568465471,31,17,-6,23,88,-8.149862289,6.508637428,1.036689281,0.980448663,-0.743430316,-1.335110307,-12,29,-35,-16,140
1695160634282030400,-3.04901576,-7.090428352,-1.528697729,-1.169903517,-2.180329323,3.607635498,30,17,-6,20,87,-8.139088631,6.555324078,1.046266198,0.928754985,-0.705059707,-1.330846786,-12,28,-34,-22,145
1695160634283030400,-3.130418777,-7.06768322,-1.521515131,-1.205742717,-2.231756449,3.642542124,30,18,-5,24,88,-8.125920296,6.597222805,1.052251697,0.877727449,-0.665623307,-1.324451804,-11,29,-34,-14,144
1695160634284030400,-3.213018656,-7.047332764,-1.503558636,-1.240515947,-2.28225112,3.672785759,31,20,-8,22,87,-8.116343498,6.640318394,1.059434295,0.827365994,-0.625254214,-1.315392017,-11,21,-35,-15,140
1695160634320936300,-4.582501888,-6.640318394,-0.756567717,-1.24611187,-2.456251144,3.546882153,31,21,-11,26,86,-8.255207062,6.518214226,1.084573388,0.07474272,0.081004597,-0.611531377,-12,28,-35,-14,144
1695160634321936300,-4.723760128,-6.609193802,-0.737414122,-1.211071968,-2.439730406,3.521301508,31,21,-11,23,80,-8.269572258,6.466738701,1.083376288,0.0528928,0.104719758,-0.546248078,-13,30,-34,-16,138
1695160634322936300,-4.872200489,-6.567295074,-0.725443125,-1.174033642,-2.425075054,3.495721102,31,20,-13,19,81,-8.28034687,6.412869453,1.084573388,0.032908116,0.126702905,-0.4784334,-12,30,-35,-11,145
1695160634323936300,-5.029020786,-6.520608425,-0.717063427,-1.135263324,-2.412551165,3.470540762,33,21,-13,18,83,-8.291120529,6.358999729,1.089361787,0.014522205,0.146287903,-0.409153163,-12,29,-40,-11,144
1695160634324936300,-5.187037945,-6.466738701,-0.70509243,-1.095560431,-2.402559042,3.446558952,31,21,-11,23,81,-8.306682587,6.305130005,1.097741485,-0.002398162,0.16414088,-0.338140905,-12,30,-34,-11,140
1695160634477481200,-8.341399193,-4.590881824,-0.36990416,-0.626320064,-2.401493073,3.316258669,32,25,-6,20,83,-8.686163902,5.428852558,1.200692177,-0.155614093,0.233954057,0.934750378,-10,30,-37,-12,142
1695160634478481200,-8.555679321,-4.483142853,-0.37110126,-0.641108751,-2.389235735,3.323586464,32,22,-7,24,84,-8.712499619,5.396530628,1.216254473,-0.161609486,0.231022969,0.983513057,-10,30,-34,-12,144
1695160634479481200,-8.779537201,-4.390965939,-0.37229836,-0.66016084,-2.375246525,3.333578825,31,25,-6,23,80,-8.738836288,5.361814499,1.224634171,-0.168137819,0.228358343,1.030143976,-10,26,-36,-11,144
1695160634480481200,-9.018958092,-4.305971622,-0.384269387,-0.68414247,-2.358459473,3.346235752,33,19,-3,22,81,-8.767566681,5.325901508,1.237802267,-0.175465539,0.225826949,1.074643135,-12,30,-35,-12,142
1695160634481481200,-9.271546364,-4.220977783,-0.403422982,-0.712920368,-2.339007854,3.36169076,35,26,-6,18,83,-8.790311813,5.294776917,1.248576164,-0.182793275,0.223295555,1.117410421,-12,30,-34,-12,144
1695160634523423700,-15.41626453,-4.316745758,-1.612494826,-1.754788637,-2.297705889,4.114447117,29,25,-4,23,84,-9.372102737,4.780023575,1.48679924,-0.425140887,0.20464319,1.590647817,-11,30,-34,-8,156
1695160634524423700,-15.74307346,-4.402936935,-1.734599113,-1.822070479,-2.326883793,4.169338226,28,27,-3,22,83,-9.392453194,4.751293182,1.493981838,-0.438464016,0.205442563,1.603038311,-11,29,-35,-10,146
1695160634525423700,-16.05910873,-4.496310711,-1.863885999,-1.888419509,-2.359791517,4.223563671,24,27,-1,22,80,-9.41280365,4.717774391,1.503558636,-0.451520681,0.206908107,1.614762545,-10,30,-34,-14,144
1695160634526423700,-16.35479164,-4.595670223,-1.996764183,-1.953169942,-2.395897388,4.276323318,28,25,-3,20,81,-9.431957245,4.681861401,1.513135433,-0.464177608,0.208506882,1.626220584,-12,30,-38,-4,142
1695160634527423700,-16.71511841,-4.738125324,-2.170343876,-2.038304806,-2.44812417,4.344271183,24,28,-4,20,84,-9.446322441,4.649539471,1.519120932,-0.476701379,0.209972441,1.637545109,-12,30,-34,-4,144
1695160634560423600,-17.3136692,-6.886921406,-5.293580055,-2.498618841,-3.525964737,4.365588188,25,32,4,23,81,-9.390059471,3.994725466,1.589749932,-0.650568187,0.276454836,1.857776403,-9,31,-34,-2,146
1695160634561423600,-17.15206146,-6.920440197,-5.364208698,-2.486894369,-3.57672596,4.365588188,26,32,8,23,81,-9.372102737,3.954024076,1.594538331,-0.656696796,0.2809847,1.869500756,-12,30,-34,-3,147
1695160634562423600,-17.03354836,-6.933608055,-5.401319027,-2.478500605,-3.607502222,4.365588188,30,33,7,24,80,-9.35654068,3.924096584,1.602918029,-0.663358331,0.285381317,1.880692124,-11,31,-32,-2,144
1695160634563423600,-16.83722305,-6.944382191,-5.419275761,-2.466243505,-3.649070501,4.365588188,28,29,3,22,85,-9.339780807,3.892971992,1.606509328,-0.671085775,0.289378256,1.890684605,-9,33,-32,-3,145
1695160634564423600,-16.60498619,-6.921637058,-5.400122166,-2.453719616,-3.681978703,4.312561989,30,32,8,23,80,-9.320627213,3.854664803,1.608903527,-0.678546667,0.29350841,1.900676847,-12,30,-34,-5,146
1695160634647430100,-10.61948204,-4.143166065,-1.849520802,-1.920928001,-1.816075087,1.810346007,29,32,17,27,84,-9.597157478,3.556586742,1.885433793,-0.826699853,0.43939665,1.979949474,-9,30,-33,-1,145
1695160634648430100,-10.54645824,-4.070142746,-1.753752708,-1.894681454,-1.629817724,1.652467132,31,32,21,23,79,-9.63067627,3.584120035,1.884236693,-0.840156198,0.444592625,1.973021388,-10,31,-34,-1,147
1695160634649430100,-10.49977112,-4.007893562,-1.66995573,-1.86830163,-1.447024465,1.50058341,31,32,21,25,79,-9.63666153,3.560178041,1.866280198,-0.854545176,0.447923422,1.963562012,-10,30,-33,-1,144
1695160634650430100,-10.48181534,-3.944447279,-1.587355733,-1.841522217,-1.268894434,1.354828477,26,31,22,26,80,-9.629479408,3.525461912,1.8590976,-0.861872911,0.45085454,1.954768777,-8,30,-34,-1,146
1695160634651430100,-10.47942066,-3.878606796,-1.510741234,-1.815941811,-1.096226692,1.215601921,31,31,26,23,79,-9.627084732,3.506308317,1.851915002,-0.86800158,0.453519166,1.945042849,-11,30,-33,-1,145
1695160634680413100,-11.91953278,-3.563769341,-1.683123827,-1.441695213,0.310029089,0.083535992,28,32,31,34,81,-9.126696587,2.972401381,1.514332533,-0.610732019,0.284715146,1.536555886,-10,31,-32,-1,145
1695160634681413100,-11.96502304,-3.598485231,-1.735796213,-1.42530787,0.279785603,0.098457888,28,32,32,30,84,-9.064447403,2.949656487,1.509544134,-0.578756511,0.272457898,1.514039874,-12,30,-30,-1,144
1695160634682413100,-11.99495029,-3.630806923,-1.787271619,-1.40812099,0.240215927,0.119108729,28,33,32,31,84,-9.002198219,2.928108692,1.513135433,-0.546647787,0.261133224,1.492589474,-9,30,-32,-1,145
1695160634683413100,-12.01171017,-3.659537315,-1.832761407,-1.390134811,0.192119434,0.144822344,31,32,35,31,80,-8.936357498,2.910152197,1.519120932,-0.514938712,0.250607967,1.471938729,-8,30,-34,-1,142
1695160634684413100,-12.0153017,-3.684676409,-1.866280198,-1.371082664,0.136695251,0.174932614,28,32,35,32,83,-8.871714592,2.894589901,1.516726732,-0.483762652,0.241148531,1.451954126,-8,31,-31,0,148
1695160634804058800,-10.60990524,-3.476380825,-2.079364061,-1.095560431,-1.147387385,0.820571184,31,32,47,32,81,-8.183381081,3.468001127,1.422155857,-0.110448696,0.274056673,0.990973949,-11,30,-34,1,147
1695160634805058800,-10.50695419,-3.476380825,-2.091335297,-1.085301638,-1.19628334,0.837225139,32,35,48,31,81,-8.194155693,3.56496644,1.370680451,-0.089797854,0.279385895,0.949405789,-9,31,-34,1,145
1695160634806058800,-10.41357994,-3.475183725,-2.103306293,-1.076108694,-1.24184835,0.851347625,31,34,51,34,84,-8.212111473,3.676296711,1.320402265,-0.067681469,0.283915788,0.906771779,-10,32,-32,1,144
1695160634807058800,-10.32738876,-3.472789526,-2.106897593,-1.06944716,-1.284082651,0.862805545,31,32,46,31,81,-8.238448143,3.800795317,1.270123959,-0.044765696,0.28777948,0.863071978,-7,32,-30,1,145
1695160634808058800,-10.23760605,-3.479972124,-2.112883091,-1.064251184,-1.322986245,0.871731997,33,35,54,29,84,-8.270770073,3.943250179,1.216254473,-0.020650841,0.290444106,0.818972409,-10,30,-31,3,147
1695160634863472600,-9.187748909,-3.999513865,-2.384624958,-0.941545129,-1.397062778,0.839889765,36,38,61,34,82,-8.105569839,8.744821548,1.367089152,-0.192385912,0.307630926,0.572094917,-7,30,-32,-1,146
1695160634864472600,-9.159018517,-4.039018154,-2.388216257,-0.924758077,-1.370416522,0.83109647,36,37,68,32,83,-8.057685852,8.998606682,1.343147159,-0.241281778,0.3168239,0.621523738,-9,30,-31,1,145
1695160634865472600,-9.131484985,-4.082113743,-2.385822058,-0.906105638,-1.341238856,0.821237385,38,34,65,34,83,-8.032546997,9.264363289,1.307234168,-0.291776419,0.325350702,0.6752159,-11,30,-32,3,144
1695160634866472600,-9.10036087,-4.125209332,-2.383427858,-0.885321558,-1.309529781,0.810578883,36,37,62,34,78,-8.014590263,9.488221169,1.243787766,-0.342670739,0.33294487,0.73183918,-7,30,-27,-1,146
1695160634867472600,-9.071630478,-4.161122322,-2.383427858,-0.862405777,-1.275289416,0.799120963,36,43,65,34,82,-8.003816605,9.686940193,1.169567585,-0.38956812,0.338140905,0.793658495,-11,30,-33,0,146
1695160634913459600,-8.700529099,-4.395754337,-1.911770105,-0.157612562,-0.238883615,0.367451757,40,37,73,38,81,-7.838616371,12.32295609,0.760159016,-0.464710563,0.38024193,2.201379776,-12,31,-25,10,145
1695160634914459600,-8.699332237,-4.376600742,-1.887827992,-0.116044402,-0.173067391,0.333211303,36,39,71,36,84,-7.809885979,12.44266605,0.761356115,-0.463245004,0.399027556,2.277721167,-12,31,-32,2,146
1695160634915459600,-8.699332237,-4.358644009,-1.8579005,-0.075675346,-0.108183771,0.298437983,32,39,71,32,81,-7.782352448,12.5504055,0.761356115,-0.463111788,0.419944882,2.352597237,-13,32,-29,5,145
1695160634916459600,-8.700529099,-4.333505154,-1.830367208,-0.036372125,-0.043699846,0.263264924,37,41,72,38,83,-7.760804653,12.64737034,0.755370617,-0.463511467,0.441661566,2.4262743,-13,30,-31,1,145
1695160634917459600,-8.702922821,-4.308365822,-1.804031014,0.001332312,0.019718224,0.227958649,40,41,68,36,83,-7.746439457,12.73954678,0.745793819,-0.464177608,0.464044392,2.498485327,-19,31,-33,3,145
1695160635013380800,-8.938752174,-3.79600668,-1.329979062,0.462578863,0.913833082,-0.379042894,36,39,69,34,87,-7.691372871,13.03762531,0.508767843,-0.348399699,0.675748825,3.685309172,-19,30,-29,1,146
1695160635014380800,-8.957905769,-3.766079187,-1.309628367,0.475502282,0.944476247,-0.407820851,33,42,71,34,84,-7.666234016,12.96819305,0.493205547,-0.346267998,0.672284842,3.740067244,-18,30,-32,0,146
1695160635015380800,-8.981847763,-3.734954596,-1.289277673,0.487626314,0.97338742,-0.436332315,32,37,67,38,78,-7.633912086,12.90474701,0.503979445,-0.336808592,0.671751857,3.796957254,-17,30,-30,0,145
1695160635016380800,-9.003395081,-3.705027103,-1.268926859,0.498950988,1.000833035,-0.464310884,37,41,70,34,88,-7.609970093,12.85327148,0.521935999,-0.326949447,0.673084199,3.853580475,-17,32,-29,1,146
1695160635017380800,-9.030928612,-3.673902512,-1.242590666,0.509742737,1.026280165,-0.491889745,33,38,71,31,83,-7.596801758,12.8101759,0.538695395,-0.317090333,0.676681459,3.909004688,-17,30,-29,0,146
1695160635085339700,-9.585186958,-2.948459387,-0.835576415,0.549179137,1.273690581,-0.924624801,32,36,71,40,83,-7.485471725,12.41154194,1.18872118,-0.504813194,0.533191383,4.34160614,-28,51,9,31,148
