timestamp,EMG_s0,EMG_s1,EMG_s2,EMG_s3,EMG_s4,EMG_s5,EMG_s6,EMG_s7
1.6951606286173215e+18,-1.0,0.0,0.0,-2.0,-2.0,0.0,-2.0,-2.0
1.6951606286183242e+18,-1.0,-1.0,-1.0,-2.0,0.0,-2.0,0.0,0.0
1.6951606286183242e+18,0.0,-1.0,-2.0,-1.0,-2.0,-1.0,-1.0,-2.0
1.6951606286183242e+18,0.0,-2.0,-3.0,0.0,-2.0,-2.0,0.0,-2.0
1.6951606286193216e+18,-2.0,1.0,-1.0,2.0,0.0,1.0,1.0,0.0
1.6951606286193216e+18,0.0,1.0,-2.0,-1.0,-2.0,0.0,-1.0,-1.0
1.6951606286203208e+18,-1.0,-1.0,-3.0,0.0,-1.0,0.0,0.0,-2.0
1.6951606286203208e+18,0.0,-1.0,0.0,-2.0,3.0,1.0,-1.0,-1.0
1.6951606286333138e+18,0.0,-1.0,1.0,-3.0,-2.0,1.0,-1.0,-1.0
1.6951606286343132e+18,-1.0,-1.0,-2.0,-1.0,-1.0,-3.0,-2.0,0.0
1.6951606286343132e+18,-3.0,0.0,2.0,-1.0,-2.0,-2.0,0.0,0.0
1.6951606286343132e+18,1.0,-1.0,0.0,0.0,-2.0,-1.0,-1.0,-1.0
1.6951606286383101e+18,1.0,-2.0,-2.0,-1.0,-1.0,-1.0,0.0,0.0
1.6951606286383101e+18,-2.0,-1.0,1.0,0.0,-1.0,0.0,-1.0,0.0
1.6951606286393098e+18,1.0,0.0,-2.0,0.0,-1.0,1.0,-2.0,-1.0
1.6951606286393098e+18,-2.0,0.0,-4.0,-2.0,-1.0,-1.0,-1.0,-1.0
1.6951606286543014e+18,-2.0,-2.0,-1.0,0.0,-1.0,-1.0,-2.0,0.0
1.6951606286543014e+18,0.0,0.0,0.0,-1.0,-3.0,-1.0,1.0,-1.0
1.6951606286682926e+18,-1.0,-1.0,0.0,0.0,0.0,0.0,0.0,-2.0
1.695160628669293e+18,-3.0,-2.0,-1.0,0.0,-2.0,-1.0,0.0,0.0
1.695160628670295e+18,-1.0,-1.0,-1.0,1.0,1.0,0.0,0.0,-2.0
1.695160628670295e+18,0.0,-2.0,-3.0,1.0,0.0,-1.0,-1.0,0.0
1.695160628676289e+18,-2.0,0.0,0.0,-1.0,0.0,-2.0,-1.0,1.0
1.6951606286782881e+18,0.0,-1.0,0.0,-2.0,-1.0,-2.0,-2.0,0.0
1.6951606286842862e+18,-2.0,0.0,0.0,-2.0,0.0,-1.0,0.0,-2.0
1.6951606286842862e+18,-1.0,0.0,-1.0,-2.0,0.0,0.0,0.0,1.0
1.6951606286972785e+18,1.0,-2.0,-1.0,0.0,1.0,-1.0,-1.0,-1.0
1.6951606286972785e+18,-1.0,-1.0,0.0,0.0,-2.0,-1.0,-1.0,0.0
1.6951606287092695e+18,1.0,-1.0,0.0,0.0,-1.0,-2.0,-1.0,-1.0
1.6951606287092695e+18,0.0,-1.0,0.0,1.0,-2.0,0.0,0.0,-3.0
1.695160628722266e+18,-1.0,0.0,-1.0,0.0,-1.0,0.0,1.0,-1.0
1.695160628722266e+18,0.0,-1.0,0.0,0.0,-1.0,-2.0,-1.0,0.0
1.69516062876124e+18,-1.0,-1.0,0.0,0.0,1.0,0.0,0.0,0.0
1.6951606287622403e+18,-1.0,-1.0,1.0,-1.0,1.0,0.0,-1.0,-1.0
1.6951606287622403e+18,-1.0,-2.0,-3.0,-1.0,-3.0,0.0,-2.0,-1.0
1.6951606287632435e+18,-1.0,0.0,-1.0,0.0,-2.0,0.0,-1.0,-2.0
1.6951606287662377e+18,-2.0,0.0,-1.0,0.0,-2.0,1.0,0.0,-1.0
1.6951606287662377e+18,-1.0,-2.0,-3.0,-1.0,-2.0,-2.0,-1.0,-1.0
1.6951606287672376e+18,0.0,-1.0,-1.0,-2.0,0.0,-1.0,0.0,-1.0
1.6951606287672376e+18,0.0,-1.0,1.0,-1.0,-1.0,-1.0,-2.0,-1.0
1.695160628772234e+18,0.0,-1.0,0.0,-2.0,-2.0,-1.0,-2.0,0.0
1.695160628772234e+18,0.0,-2.0,0.0,-3.0,0.0,-1.0,-1.0,-1.0
1.6951606287802322e+18,0.0,1.0,3.0,2.0,0.0,0.0,-2.0,-2.0
1.6951606287802322e+18,-2.0,-1.0,-1.0,-1.0,-1.0,-1.0,1.0,-1.0
1.6951606287872248e+18,-1.0,-1.0,-1.0,-2.0,0.0,-2.0,0.0,0.0
1.6951606287872248e+18,-2.0,0.0,-1.0,-1.0,0.0,-1.0,1.0,-1.0
1.6951606288092342e+18,0.0,1.0,0.0,-1.0,0.0,-2.0,-3.0,-1.0
1.6951606288092342e+18,-1.0,-1.0,-1.0,-1.0,-1.0,-1.0,0.0,-1.0
1.6951606288092342e+18,1.0,-2.0,-2.0,1.0,-1.0,-1.0,-1.0,-1.0
1.6951606288102144e+18,-1.0,0.0,-1.0,1.0,-2.0,-1.0,0.0,-1.0
1.6951606288252255e+18,-2.0,-1.0,-2.0,0.0,0.0,-3.0,1.0,0.0
1.6951606288252255e+18,0.0,-1.0,-1.0,-1.0,0.0,-1.0,0.0,0.0
1.6951606288321992e+18,-1.0,1.0,1.0,0.0,-2.0,-1.0,0.0,-1.0
1.6951606288321992e+18,-2.0,-2.0,-1.0,1.0,-1.0,-1.0,0.0,0.0
1.6951606288491912e+18,-1.0,-1.0,1.0,-1.0,-4.0,1.0,0.0,-1.0
1.6951606288491912e+18,-1.0,0.0,-1.0,-2.0,-1.0,-2.0,-2.0,0.0
1.6951606288501896e+18,-1.0,-1.0,-2.0,-1.0,0.0,-1.0,-2.0,-2.0
1.6951606288501896e+18,0.0,-1.0,0.0,0.0,-1.0,-1.0,-1.0,1.0
1.6951606288711767e+18,-1.0,-1.0,-3.0,-1.0,-2.0,1.0,-1.0,0.0
1.6951606288711767e+18,0.0,0.0,-1.0,-1.0,-3.0,0.0,-1.0,-1.0
1.6951606288721764e+18,-2.0,-1.0,0.0,0.0,0.0,-2.0,0.0,-2.0
1.6951606288731796e+18,0.0,0.0,-1.0,-1.0,-2.0,-1.0,-2.0,0.0
1.6951606288851692e+18,1.0,0.0,0.0,-1.0,0.0,-1.0,-2.0,0.0
1.6951606288851692e+18,1.0,-2.0,-1.0,0.0,-1.0,-1.0,-1.0,0.0
1.6951606288921646e+18,-1.0,-1.0,-3.0,-1.0,-1.0,-3.0,0.0,0.0
1.6951606288921646e+18,-1.0,-1.0,-1.0,-1.0,-1.0,-1.0,-2.0,-1.0
1.695160628912156e+18,0.0,-1.0,-1.0,-2.0,-2.0,-2.0,-1.0,0.0
1.6951606289131576e+18,0.0,-2.0,-1.0,1.0,-1.0,0.0,0.0,-2.0
1.6951606289131576e+18,-1.0,-2.0,1.0,0.0,-3.0,-1.0,-3.0,-1.0
1.6951606289131576e+18,0.0,0.0,-2.0,-1.0,-2.0,-1.0,-1.0,-2.0
1.6951606289311424e+18,-1.0,-1.0,-3.0,-1.0,-2.0,-3.0,0.0,-1.0
1.6951606289311424e+18,-3.0,-2.0,-3.0,-2.0,1.0,-2.0,-1.0,-2.0
1.6951606289321426e+18,-1.0,-3.0,-4.0,-2.0,-2.0,0.0,-1.0,-1.0
1.6951606289331446e+18,0.0,-3.0,-2.0,-1.0,-3.0,-1.0,-2.0,-2.0
1.695160628945157e+18,-3.0,-2.0,-2.0,0.0,-1.0,-1.0,-2.0,-2.0
1.6951606289461348e+18,0.0,-1.0,-2.0,1.0,-1.0,-2.0,-1.0,0.0
1.6951606289621256e+18,-2.0,-2.0,-1.0,-1.0,0.0,-2.0,0.0,-1.0
1.6951606289631255e+18,-2.0,-1.0,-3.0,-1.0,-2.0,0.0,-1.0,-1.0
1.695160628968147e+18,-2.0,0.0,0.0,0.0,-1.0,1.0,0.0,-3.0
1.695160628969124e+18,1.0,-1.0,-1.0,-1.0,-2.0,0.0,-2.0,-2.0
1.6951606289701212e+18,1.0,0.0,-2.0,-1.0,1.0,-2.0,-1.0,-2.0
1.6951606289701212e+18,-1.0,-1.0,0.0,2.0,-1.0,-1.0,-1.0,0.0
1.695160628991108e+18,-1.0,-2.0,-1.0,0.0,2.0,-1.0,-1.0,0.0
1.695160628991108e+18,0.0,-1.0,-1.0,-2.0,-1.0,-1.0,-2.0,-2.0
1.6951606289931082e+18,0.0,0.0,1.0,0.0,-1.0,-1.0,-1.0,-1.0
1.6951606289931082e+18,-1.0,-1.0,-2.0,0.0,-2.0,-3.0,0.0,-1.0
1.6951606290210906e+18,-1.0,-1.0,-1.0,0.0,0.0,0.0,-2.0,0.0
1.6951606290210906e+18,-3.0,-4.0,-2.0,-1.0,0.0,-1.0,-1.0,0.0
1.6951606290230907e+18,0.0,-1.0,0.0,-2.0,-1.0,-1.0,-2.0,-1.0
1.6951606290230907e+18,-3.0,-1.0,0.0,0.0,-1.0,-1.0,-1.0,-1.0
1.695160629029087e+18,-1.0,-1.0,-3.0,-2.0,-1.0,-2.0,1.0,-1.0
1.695160629029087e+18,0.0,0.0,0.0,0.0,0.0,0.0,1.0,-1.0
1.6951606290300874e+18,-1.0,-2.0,0.0,0.0,-2.0,1.0,0.0,-1.0
1.6951606290300874e+18,0.0,-1.0,-2.0,-2.0,0.0,-1.0,-1.0,-1.0
1.6951606290510738e+18,0.0,0.0,0.0,0.0,0.0,0.0,0.0,0.0
1.6951606290520745e+18,-2.0,0.0,1.0,0.0,0.0,-2.0,-2.0,-1.0
1.695160629077059e+18,0.0,0.0,-2.0,-1.0,0.0,0.0,-1.0,1.0
1.695160629077059e+18,-3.0,1.0,1.0,0.0,0.0,-1.0,-1.0,1.0
1.695160629077059e+18,-2.0,1.0,-1.0,1.0,-1.0,0.0,2.0,1.0
1.695160629077059e+18,-1.0,0.0,-1.0,-1.0,2.0,1.0,1.0,1.0
1.695160629077059e+18,0.0,0.0,2.0,0.0,2.0,3.0,1.0,2.0
1.6951606290780588e+18,3.0,-1.0,1.0,1.0,-1.0,0.0,-1.0,1.0
1.6951606291170386e+18,1.0,1.0,1.0,-2.0,-2.0,2.0,-1.0,-2.0
1.695160629118036e+18,1.0,-1.0,0.0,0.0,0.0,-1.0,-1.0,-1.0
1.695160629118036e+18,-1.0,0.0,-1.0,1.0,0.0,-2.0,-1.0,0.0
1.695160629118036e+18,0.0,0.0,0.0,-4.0,1.0,1.0,-1.0,-1.0
1.695160629118036e+18,-1.0,-1.0,0.0,-1.0,1.0,-1.0,-1.0,-2.0
1.695160629118036e+18,0.0,1.0,-1.0,-2.0,-3.0,0.0,-1.0,-1.0
1.695160629118036e+18,-1.0,1.0,0.0,-1.0,1.0,0.0,-2.0,0.0
1.695160629118036e+18,-2.0,-1.0,-1.0,-2.0,-1.0,1.0,0.0,0.0
1.6951606291520177e+18,1.0,-1.0,1.0,-3.0,-2.0,-1.0,-2.0,0.0
1.6951606291530186e+18,-2.0,0.0,0.0,0.0,2.0,-1.0,-1.0,-3.0
1.6951606291530186e+18,-1.0,-2.0,0.0,-2.0,-2.0,-1.0,0.0,-1.0
1.6951606291530186e+18,-1.0,1.0,-1.0,-1.0,-3.0,-2.0,0.0,0.0
1.6951606291530186e+18,-1.0,0.0,-1.0,-2.0,-1.0,-1.0,-1.0,0.0
1.6951606291530186e+18,-1.0,1.0,-1.0,-2.0,-2.0,-1.0,-3.0,1.0
1.6951606291530186e+18,1.0,0.0,2.0,-1.0,-1.0,1.0,1.0,2.0
1.6951606291530186e+18,1.0,-1.0,0.0,-1.0,1.0,2.0,0.0,-1.0
1.6951606291800018e+18,0.0,-1.0,1.0,0.0,-1.0,-1.0,1.0,-1.0
1.6951606291800018e+18,0.0,-1.0,0.0,-1.0,0.0,0.0,0.0,2.0
1.6951606291810002e+18,-2.0,-2.0,-2.0,-3.0,-4.0,-3.0,0.0,0.0
1.6951606291810002e+18,-2.0,-1.0,-1.0,-1.0,-1.0,-2.0,-2.0,0.0
1.6951606291849974e+18,0.0,0.0,0.0,1.0,3.0,1.0,-1.0,-2.0
1.6951606291849974e+18,0.0,-1.0,0.0,-1.0,-2.0,2.0,1.0,1.0
1.6951606292009902e+18,0.0,-1.0,0.0,-2.0,-1.0,0.0,1.0,-2.0
1.6951606292019889e+18,0.0,-1.0,0.0,-1.0,-4.0,-1.0,-1.0,-2.0
1.6951606292089846e+18,-1.0,-1.0,-3.0,-3.0,-4.0,-3.0,-3.0,-1.0
1.6951606292099837e+18,-1.0,-2.0,0.0,-2.0,-5.0,-2.0,-2.0,-1.0
1.6951606292109834e+18,-1.0,0.0,-1.0,2.0,9.0,0.0,1.0,0.0
1.6951606292109834e+18,0.0,-1.0,-1.0,1.0,0.0,0.0,1.0,-1.0
1.6951606292309716e+18,-1.0,-1.0,0.0,2.0,1.0,-1.0,1.0,1.0
1.6951606292319703e+18,-1.0,-1.0,-1.0,-4.0,-3.0,-1.0,0.0,-1.0
1.69516062923297e+18,-1.0,1.0,2.0,-2.0,-6.0,-3.0,-4.0,-1.0
1.69516062923297e+18,1.0,0.0,-5.0,2.0,7.0,1.0,0.0,1.0
1.695160629244963e+18,-1.0,0.0,-1.0,-3.0,-4.0,-1.0,0.0,-1.0
1.695160629244963e+18,0.0,0.0,-1.0,1.0,3.0,0.0,0.0,-1.0
1.6951606292609533e+18,0.0,-2.0,-3.0,-3.0,-5.0,-1.0,1.0,0.0
1.6951606292609533e+18,-1.0,1.0,2.0,1.0,1.0,-2.0,-1.0,1.0
1.695160629275945e+18,0.0,-1.0,-2.0,-1.0,-3.0,-1.0,-2.0,1.0
1.695160629275945e+18,-1.0,-1.0,-1.0,-1.0,0.0,-1.0,1.0,0.0
1.6951606292779443e+18,0.0,2.0,2.0,0.0,6.0,2.0,0.0,0.0
1.6951606292779443e+18,-1.0,-2.0,-6.0,0.0,-1.0,-2.0,0.0,-1.0
1.6951606292909358e+18,-1.0,2.0,8.0,6.0,3.0,-1.0,0.0,0.0
1.6951606292909358e+18,-2.0,1.0,-1.0,-3.0,-4.0,-2.0,-2.0,-3.0
1.6951606292929362e+18,-2.0,-2.0,-4.0,0.0,-4.0,0.0,-4.0,-4.0
1.6951606292929362e+18,-1.0,-2.0,-2.0,-5.0,-6.0,-3.0,0.0,0.0
1.6951606293139233e+18,-2.0,-3.0,-5.0,-3.0,-5.0,-5.0,-4.0,-1.0
1.6951606293139233e+18,-1.0,-3.0,1.0,-2.0,-2.0,-3.0,-2.0,0.0
1.6951606293149258e+18,0.0,-2.0,-7.0,0.0,5.0,3.0,0.0,0.0
1.6951606293149258e+18,-2.0,-3.0,0.0,3.0,0.0,-2.0,-1.0,-2.0
1.6951606293279153e+18,-1.0,-1.0,-5.0,-1.0,5.0,2.0,1.0,-1.0
1.6951606293279153e+18,0.0,1.0,1.0,2.0,-2.0,0.0,0.0,-2.0
1.6951606293349117e+18,-2.0,-1.0,-1.0,-4.0,-7.0,-3.0,0.0,-1.0
1.6951606293349117e+18,-4.0,-2.0,8.0,2.0,-9.0,-4.0,-3.0,-3.0
1.6951606293499249e+18,-2.0,-2.0,5.0,0.0,-3.0,0.0,-1.0,0.0
1.695160629350902e+18,-1.0,-5.0,-16.0,-8.0,3.0,-3.0,-4.0,-2.0
1.695160629350902e+18,1.0,-1.0,9.0,5.0,-1.0,-2.0,2.0,-1.0
1.695160629350902e+18,-1.0,3.0,2.0,1.0,3.0,3.0,2.0,-1.0
1.695160629373891e+18,-2.0,-5.0,-1.0,4.0,-4.0,-1.0,-1.0,-3.0
1.695160629373891e+18,-2.0,-1.0,8.0,-7.0,-5.0,-1.0,-1.0,-1.0
1.6951606293748913e+18,0.0,-4.0,-24.0,-10.0,-8.0,-4.0,-4.0,-2.0
1.6951606293748913e+18,0.0,0.0,7.0,6.0,12.0,1.0,1.0,1.0
1.6951606293888817e+18,-2.0,-3.0,-13.0,-8.0,-5.0,-2.0,0.0,-1.0
1.6951606293888817e+18,0.0,-1.0,-2.0,12.0,1.0,0.0,0.0,0.0
1.6951606293948774e+18,-3.0,-3.0,3.0,2.0,3.0,-1.0,-1.0,-3.0
1.695160629395877e+18,-1.0,0.0,1.0,0.0,-5.0,-2.0,-1.0,-1.0
1.6951606294098903e+18,0.0,-1.0,0.0,-5.0,0.0,-2.0,-2.0,-1.0
1.6951606294108708e+18,-3.0,-6.0,-14.0,-5.0,-7.0,-3.0,-2.0,-2.0
1.6951606294108708e+18,-1.0,-2.0,0.0,-8.0,-4.0,-2.0,-4.0,0.0
1.6951606294108708e+18,0.0,-4.0,-2.0,0.0,-2.0,-2.0,2.0,1.0
1.695160629432639e+18,-1.0,1.0,6.0,3.0,9.0,2.0,-1.0,-1.0
1.6951606294335808e+18,0.0,5.0,-2.0,-7.0,-1.0,0.0,1.0,1.0
1.6951606294335808e+18,0.0,4.0,12.0,18.0,1.0,1.0,1.0,3.0
1.6951606294335808e+18,-1.0,2.0,1.0,1.0,2.0,4.0,1.0,0.0
1.695160629447571e+18,-3.0,-3.0,5.0,-4.0,-2.0,-2.0,0.0,1.0
1.695160629447571e+18,-1.0,-2.0,1.0,-14.0,-9.0,-4.0,0.0,-2.0
1.6951606294545687e+18,0.0,5.0,1.0,-4.0,8.0,2.0,0.0,0.0
1.6951606294545687e+18,2.0,1.0,4.0,-2.0,-8.0,-2.0,-2.0,1.0
1.6951606294785526e+18,1.0,1.0,1.0,6.0,0.0,-2.0,-1.0,0.0
1.6951606294795525e+18,1.0,-1.0,-1.0,9.0,7.0,6.0,0.0,0.0
1.6951606294795525e+18,0.0,-3.0,1.0,-10.0,-7.0,0.0,0.0,0.0
1.6951606294795525e+18,-1.0,-3.0,-4.0,2.0,3.0,0.0,-1.0,-3.0
1.6951606294925443e+18,-1.0,1.0,1.0,5.0,0.0,1.0,1.0,-1.0
1.6951606294935468e+18,0.0,-1.0,2.0,-2.0,-4.0,-3.0,0.0,-1.0
1.6951606294935468e+18,-2.0,-1.0,-3.0,-1.0,2.0,-1.0,0.0,0.0
1.6951606294935468e+18,0.0,-1.0,-6.0,-11.0,-9.0,-4.0,-1.0,-1.0
1.695160629515531e+18,0.0,0.0,-1.0,-2.0,3.0,-2.0,1.0,-1.0
1.6951606295165312e+18,-1.0,1.0,6.0,3.0,3.0,2.0,2.0,-1.0
1.6951606295225275e+18,0.0,2.0,2.0,10.0,0.0,0.0,-1.0,-1.0
1.695160629523527e+18,-2.0,-6.0,5.0,9.0,6.0,-1.0,0.0,1.0
1.695160629537519e+18,-1.0,1.0,-11.0,-20.0,-9.0,-2.0,-1.0,-2.0
1.695160629537519e+18,-3.0,-8.0,-5.0,7.0,11.0,1.0,0.0,0.0
1.6951606295385196e+18,-1.0,-2.0,-1.0,17.0,11.0,5.0,0.0,0.0
1.6951606295385196e+18,-4.0,-6.0,-8.0,-18.0,-6.0,-2.0,-3.0,-3.0
1.6951606295565087e+18,4.0,4.0,-1.0,-3.0,-2.0,0.0,0.0,2.0
1.6951606295565087e+18,1.0,1.0,13.0,-3.0,-2.0,-3.0,-3.0,-1.0
1.6951606295565087e+18,-3.0,-4.0,-28.0,-12.0,-4.0,-1.0,-2.0,-1.0
1.6951606295575117e+18,0.0,0.0,-7.0,18.0,5.0,0.0,-2.0,-3.0
1.6951606295715013e+18,1.0,-2.0,17.0,10.0,5.0,1.0,1.0,1.0
1.6951606295715013e+18,-1.0,0.0,-13.0,-9.0,-15.0,-2.0,-2.0,-2.0
1.6951606295744975e+18,0.0,-1.0,11.0,15.0,21.0,4.0,1.0,0.0
1.6951606295744975e+18,3.0,4.0,-2.0,-10.0,-3.0,2.0,0.0,2.0
1.695160629591487e+18,-2.0,-7.0,-8.0,-9.0,-7.0,-3.0,-2.0,-2.0
1.6951606295924884e+18,1.0,1.0,6.0,13.0,3.0,-2.0,1.0,0.0
1.6951606295924884e+18,1.0,2.0,8.0,-12.0,-10.0,-4.0,0.0,0.0
1.6951606295924884e+18,-1.0,-1.0,-4.0,17.0,1.0,0.0,-2.0,-1.0
1.6951606296214712e+18,0.0,6.0,8.0,-11.0,-10.0,-4.0,1.0,-1.0
1.6951606296214712e+18,3.0,-8.0,9.0,10.0,20.0,9.0,3.0,2.0
1.6951606296214712e+18,-6.0,-7.0,-27.0,3.0,-5.0,-3.0,-1.0,-2.0
1.69516062962247e+18,0.0,0.0,9.0,-10.0,-10.0,-4.0,-1.0,-1.0
1.6951606296274668e+18,-4.0,-3.0,-5.0,-28.0,-19.0,-6.0,-5.0,-4.0
1.6951606296274668e+18,-3.0,3.0,-37.0,-6.0,9.0,-6.0,-2.0,-1.0
1.6951606296554542e+18,-1.0,-4.0,-12.0,-11.0,-18.0,-3.0,1.0,-1.0
1.6951606296584515e+18,5.0,-4.0,0.0,-3.0,23.0,10.0,4.0,2.0
1.6951606296584515e+18,-2.0,-5.0,1.0,22.0,0.0,-1.0,-3.0,-2.0
1.6951606296584515e+18,-3.0,-1.0,18.0,-8.0,-9.0,-2.0,-1.0,-1.0
1.6951606296594483e+18,-3.0,14.0,-10.0,16.0,-5.0,-7.0,-4.0,-3.0
1.6951606296594483e+18,-4.0,-11.0,18.0,-2.0,-7.0,-4.0,-2.0,-2.0
1.695160629672443e+18,-4.0,-27.0,-21.0,-8.0,-2.0,-3.0,-4.0,-4.0
1.6951606296734638e+18,2.0,8.0,18.0,0.0,-2.0,0.0,0.0,1.0
1.6951606296734638e+18,1.0,-1.0,9.0,-17.0,-1.0,-1.0,-2.0,0.0
1.6951606296734638e+18,-4.0,12.0,-26.0,-3.0,-11.0,-5.0,-1.0,-5.0
1.6951606296874348e+18,2.0,-9.0,-3.0,29.0,46.0,17.0,6.0,2.0
1.6951606296874348e+18,-14.0,0.0,9.0,-18.0,-14.0,-4.0,0.0,-2.0
1.695160629702426e+18,7.0,2.0,-10.0,2.0,-1.0,-3.0,-4.0,-4.0
1.6951606297034258e+18,-5.0,-3.0,-11.0,-16.0,-11.0,-7.0,1.0,-2.0
1.6951606297174147e+18,12.0,6.0,3.0,-8.0,-1.0,-4.0,0.0,0.0
1.6951606297184172e+18,1.0,7.0,5.0,22.0,15.0,5.0,1.0,2.0
1.6951606297184172e+18,2.0,-19.0,-10.0,-11.0,-7.0,1.0,0.0,-3.0
1.6951606297194143e+18,-5.0,-6.0,12.0,-2.0,-14.0,-2.0,0.0,7.0
1.6951606297414019e+18,-17.0,-14.0,-15.0,-12.0,-18.0,-8.0,-4.0,-8.0
1.6951606297414019e+18,6.0,19.0,-4.0,15.0,17.0,5.0,3.0,4.0
1.6951606297424018e+18,-3.0,-5.0,38.0,3.0,2.0,0.0,-2.0,-3.0
1.6951606297424018e+18,9.0,20.0,6.0,-12.0,-4.0,-8.0,-6.0,-6.0
1.6951606297553938e+18,1.0,-7.0,-9.0,15.0,4.0,1.0,4.0,0.0
1.6951606297553938e+18,-6.0,8.0,-18.0,-16.0,-16.0,-4.0,-2.0,-7.0
1.695160629763391e+18,-5.0,-11.0,-25.0,2.0,2.0,0.0,-2.0,-2.0
1.695160629763391e+18,-3.0,9.0,41.0,-8.0,8.0,0.0,0.0,0.0
1.69516062978139e+18,5.0,10.0,-1.0,11.0,9.0,6.0,1.0,3.0
1.69516062978139e+18,6.0,-29.0,-4.0,9.0,-5.0,-4.0,0.0,-6.0
1.695160629794372e+18,-3.0,10.0,6.0,-25.0,-17.0,-6.0,-3.0,1.0
1.695160629794372e+18,-12.0,-8.0,-32.0,-1.0,-3.0,1.0,0.0,-3.0
1.6951606297953705e+18,1.0,22.0,29.0,13.0,-4.0,-7.0,-3.0,-6.0
1.695160629796372e+18,-8.0,-15.0,-4.0,-10.0,-4.0,1.0,-1.0,5.0
1.695160629796372e+18,2.0,-12.0,-35.0,-13.0,3.0,-4.0,0.0,0.0
1.695160629796372e+18,0.0,-13.0,4.0,6.0,-13.0,0.0,-2.0,7.0
1.695160629816369e+18,-7.0,6.0,13.0,-12.0,-6.0,-11.0,-6.0,-3.0
1.6951606298173617e+18,10.0,23.0,21.0,3.0,6.0,7.0,5.0,5.0
1.6951606298173617e+18,-8.0,9.0,-35.0,19.0,9.0,6.0,-1.0,-17.0
1.6951606298173617e+18,-2.0,-8.0,7.0,8.0,7.0,-1.0,-2.0,7.0
1.695160629837348e+18,4.0,9.0,-12.0,-13.0,-19.0,-9.0,-6.0,-2.0
1.695160629837348e+18,-4.0,-11.0,0.0,-2.0,-5.0,-4.0,-4.0,0.0
1.69516062985434e+18,11.0,13.0,21.0,-30.0,0.0,2.0,2.0,-5.0
1.69516062985434e+18,-2.0,16.0,-26.0,41.0,-2.0,-3.0,-2.0,1.0
1.695160629855339e+18,9.0,-21.0,39.0,-32.0,3.0,4.0,1.0,-1.0
1.6951606298563392e+18,2.0,12.0,-20.0,13.0,2.0,4.0,3.0,1.0
1.6951606298563392e+18,-4.0,29.0,30.0,49.0,14.0,7.0,4.0,9.0
1.6951606298563392e+18,1.0,-30.0,-24.0,-21.0,2.0,-1.0,-6.0,-9.0
1.6951606298923154e+18,-27.0,43.0,-4.0,13.0,6.0,3.0,-2.0,-10.0
1.6951606298923154e+18,35.0,-52.0,-16.0,-26.0,-13.0,-8.0,-6.0,-2.0
1.6951606298923154e+18,-22.0,-3.0,11.0,-13.0,-22.0,-9.0,0.0,14.0
1.6951606298993132e+18,18.0,-15.0,-24.0,-3.0,20.0,6.0,7.0,13.0
1.695160629932292e+18,6.0,42.0,-20.0,-42.0,-16.0,-2.0,4.0,9.0
1.695160629932292e+18,1.0,7.0,13.0,27.0,-17.0,-8.0,-8.0,-12.0
1.6951606299362926e+18,-17.0,-18.0,8.0,6.0,11.0,3.0,-1.0,0.0
1.6951606299372923e+18,3.0,11.0,32.0,-13.0,-5.0,-9.0,-8.0,-15.0
1.6951606299372923e+18,-9.0,5.0,-5.0,33.0,14.0,4.0,2.0,5.0
1.6951606299372923e+18,27.0,33.0,0.0,4.0,-2.0,-1.0,2.0,8.0
1.6951606299602762e+18,-16.0,-71.0,15.0,-14.0,-15.0,-12.0,-10.0,-13.0
1.6951606299602762e+18,-1.0,23.0,7.0,17.0,-13.0,-3.0,1.0,-14.0
1.695160629961298e+18,29.0,-11.0,-6.0,15.0,32.0,13.0,9.0,17.0
1.695160629961298e+18,6.0,-3.0,7.0,-17.0,-15.0,-2.0,3.0,18.0
1.6951606299622784e+18,26.0,13.0,0.0,12.0,8.0,-8.0,-9.0,-8.0
1.6951606299622784e+18,8.0,61.0,2.0,-13.0,22.0,14.0,7.0,0.0
1.695160629967272e+18,-4.0,-51.0,-5.0,24.0,5.0,13.0,13.0,18.0
1.695160629967272e+18,-17.0,19.0,-9.0,-2.0,0.0,-7.0,-15.0,-36.0
1.6951606299682752e+18,-6.0,62.0,-8.0,-18.0,-10.0,2.0,5.0,33.0
1.6951606299682752e+18,6.0,-32.0,7.0,3.0,6.0,5.0,7.0,13.0
1.6951606299812634e+18,-5.0,-20.0,-12.0,-40.0,-19.0,-12.0,-13.0,-12.0
1.6951606299812634e+18,3.0,63.0,17.0,35.0,35.0,11.0,8.0,9.0
1.695160629982264e+18,-17.0,-108.0,-24.0,-5.0,-6.0,-4.0,-8.0,-25.0
1.695160629982264e+18,-19.0,-8.0,-22.0,-41.0,-40.0,-14.0,-3.0,4.0
1.6951606300202432e+18,22.0,11.0,-6.0,21.0,29.0,7.0,4.0,2.0
1.6951606300202432e+18,-75.0,-57.0,-12.0,-39.0,-29.0,-5.0,-1.0,-4.0
1.6951606300212416e+18,51.0,52.0,8.0,23.0,22.0,14.0,9.0,8.0
1.6951606300212416e+18,-14.0,18.0,32.0,15.0,8.0,3.0,-5.0,-11.0
1.695160630022243e+18,-17.0,-71.0,7.0,20.0,-1.0,0.0,2.0,-2.0
1.695160630022243e+18,14.0,5.0,-30.0,-19.0,-22.0,-15.0,-14.0,-8.0
1.695160630032235e+18,23.0,36.0,20.0,-4.0,22.0,5.0,11.0,17.0
1.6951606300332347e+18,-50.0,-30.0,1.0,19.0,0.0,-1.0,-4.0,-11.0
1.6951606300422287e+18,-21.0,0.0,17.0,-17.0,-25.0,-9.0,-6.0,-2.0
1.6951606300422287e+18,37.0,50.0,43.0,20.0,11.0,12.0,10.0,-3.0
1.6951606300432315e+18,-46.0,-30.0,-60.0,-17.0,-21.0,-15.0,-12.0,-24.0
1.6951606300432315e+18,3.0,-32.0,4.0,8.0,34.0,16.0,5.0,12.0
1.6951606300722132e+18,76.0,48.0,3.0,-7.0,-9.0,-3.0,-10.0,-7.0
1.6951606300732124e+18,-97.0,-86.0,-51.0,-38.0,-80.0,-28.0,-8.0,0.0
1.6951606300732124e+18,8.0,70.0,55.0,36.0,103.0,41.0,17.0,-26.0
1.6951606300742108e+18,14.0,40.0,-57.0,0.0,-25.0,-10.0,-4.0,-4.0
1.6951606300852047e+18,-14.0,2.0,-11.0,6.0,-6.0,-9.0,1.0,21.0
1.6951606300852047e+18,33.0,27.0,30.0,-6.0,15.0,18.0,-1.0,-27.0
1.6951606300932e+18,-6.0,-15.0,6.0,-21.0,-41.0,-30.0,-15.0,25.0
1.6951606300941993e+18,-19.0,-84.0,-19.0,4.0,15.0,5.0,-2.0,-5.0
1.6951606300952005e+18,-15.0,18.0,24.0,-11.0,3.0,4.0,-3.0,-15.0
1.6951606300952005e+18,46.0,94.0,7.0,10.0,17.0,2.0,10.0,28.0
1.6951606301241825e+18,-45.0,-92.0,-21.0,-27.0,-62.0,-21.0,-9.0,-20.0
1.6951606301241825e+18,42.0,109.0,26.0,15.0,27.0,3.0,8.0,-6.0
1.6951606301251822e+18,-36.0,-36.0,-27.0,-26.0,-23.0,-2.0,4.0,5.0
1.695160630126182e+18,-19.0,-57.0,-3.0,25.0,23.0,-25.0,-19.0,-2.0
1.695160630134177e+18,-16.0,-49.0,-7.0,-3.0,-12.0,8.0,2.0,-2.0
1.695160630134177e+18,6.0,19.0,8.0,-7.0,-9.0,-11.0,-14.0,-5.0
1.6951606301471703e+18,36.0,29.0,5.0,9.0,-3.0,5.0,8.0,0.0
1.6951606301481687e+18,-19.0,30.0,3.0,5.0,49.0,24.0,2.0,19.0
1.6951606301481687e+18,-10.0,-31.0,-2.0,17.0,-11.0,-1.0,-2.0,-6.0
1.695160630149169e+18,-22.0,-38.0,-14.0,-29.0,-23.0,-24.0,-10.0,-4.0
1.695160630152166e+18,-13.0,23.0,15.0,-12.0,-47.0,-18.0,-13.0,-24.0
1.695160630152166e+18,72.0,11.0,-17.0,23.0,84.0,32.0,13.0,0.0
1.6951606301981402e+18,-5.0,58.0,27.0,-9.0,-43.0,-11.0,6.0,32.0
1.6951606301991398e+18,3.0,-13.0,2.0,1.0,41.0,11.0,5.0,1.0
1.6951606302071352e+18,-3.0,49.0,7.0,1.0,6.0,-14.0,-11.0,-39.0
1.6951606302071352e+18,0.0,-110.0,-27.0,10.0,-6.0,0.0,-4.0,60.0
1.6951606302081347e+18,24.0,85.0,-51.0,-9.0,-8.0,-4.0,3.0,-1.0
1.6951606302081347e+18,-20.0,-21.0,76.0,43.0,7.0,3.0,-4.0,-4.0
1.6951606302101338e+18,7.0,-80.0,-11.0,-1.0,-1.0,8.0,10.0,8.0
1.6951606302101338e+18,-2.0,28.0,-5.0,-15.0,-14.0,-4.0,1.0,-25.0
1.6951606302141317e+18,-56.0,-50.0,-37.0,-4.0,37.0,11.0,-9.0,-3.0
1.6951606302141317e+18,16.0,-1.0,20.0,24.0,16.0,16.0,19.0,16.0
1.6951606302231265e+18,-10.0,-65.0,-6.0,-30.0,-44.0,-14.0,-13.0,-49.0
1.695160630224126e+18,-12.0,26.0,-3.0,32.0,28.0,17.0,20.0,-14.0
1.6951606302431168e+18,11.0,-46.0,1.0,-31.0,-66.0,2.0,5.0,71.0
1.695160630244116e+18,-5.0,-32.0,-51.0,2.0,-25.0,-32.0,-50.0,-33.0
1.695160630244116e+18,-62.0,-24.0,44.0,14.0,61.0,34.0,37.0,-28.0
1.695160630244116e+18,8.0,-26.0,-49.0,-42.0,-75.0,-57.0,-39.0,87.0
1.6951606302651013e+18,-70.0,-47.0,-37.0,31.0,52.0,16.0,15.0,10.0
1.6951606302651013e+18,27.0,127.0,28.0,-4.0,-33.0,1.0,-1.0,4.0
1.6951606302740974e+18,5.0,84.0,52.0,11.0,-11.0,-21.0,-17.0,-30.0
1.6951606302740974e+18,-23.0,-65.0,-6.0,-33.0,-20.0,12.0,8.0,-59.0
1.695160630282092e+18,35.0,86.0,5.0,35.0,14.0,6.0,18.0,21.0
1.695160630282092e+18,-46.0,-76.0,34.0,-23.0,-8.0,-8.0,-2.0,-5.0
1.695160630282092e+18,24.0,71.0,25.0,14.0,6.0,14.0,-10.0,-42.0
1.6951606302830915e+18,55.0,88.0,-6.0,-3.0,-21.0,13.0,33.0,53.0
1.6951606302950858e+18,31.0,7.0,1.0,-41.0,-43.0,-8.0,-18.0,22.0
1.6951606302960845e+18,-16.0,-61.0,17.0,28.0,12.0,14.0,29.0,-11.0
1.6951606302960845e+18,-37.0,-5.0,-12.0,25.0,14.0,-5.0,-10.0,20.0
1.6951606302960845e+18,53.0,46.0,-24.0,-28.0,-65.0,5.0,7.0,-58.0
1.6951606303190717e+18,-35.0,-60.0,16.0,39.0,89.0,7.0,-16.0,26.0
1.695160630320071e+18,21.0,58.0,-46.0,7.0,14.0,1.0,9.0,8.0
1.695160630320071e+18,56.0,-37.0,-21.0,-13.0,-11.0,16.0,-1.0,37.0
1.695160630320071e+18,-18.0,11.0,14.0,19.0,29.0,6.0,3.0,17.0
1.6951606303320632e+18,17.0,-37.0,-14.0,-10.0,-21.0,-18.0,-15.0,-69.0
1.6951606303320632e+18,5.0,24.0,24.0,-28.0,-30.0,1.0,18.0,10.0
1.695160630348054e+18,-5.0,-71.0,0.0,40.0,38.0,8.0,-3.0,37.0
1.695160630348054e+18,-30.0,-84.0,-46.0,-16.0,1.0,-9.0,-15.0,-24.0
1.6951606303710403e+18,61.0,18.0,-1.0,6.0,46.0,23.0,22.0,5.0
1.6951606303710403e+18,-36.0,7.0,8.0,-36.0,-42.0,-8.0,-25.0,-36.0
1.6951606303720404e+18,-37.0,62.0,-31.0,18.0,15.0,4.0,12.0,-44.0
1.6951606303720404e+18,-27.0,20.0,38.0,17.0,-5.0,-9.0,-9.0,56.0
1.6951606303780372e+18,40.0,73.0,-28.0,8.0,-48.0,-14.0,-4.0,-12.0
1.6951606303780372e+18,47.0,79.0,30.0,-13.0,-4.0,14.0,3.0,16.0
1.695160630386033e+18,28.0,3.0,19.0,15.0,13.0,-8.0,13.0,64.0
1.695160630386033e+18,-25.0,-75.0,13.0,-28.0,-22.0,1.0,-6.0,-31.0
1.6951606304000271e+18,-41.0,46.0,-19.0,45.0,79.0,15.0,-13.0,-28.0
1.6951606304010237e+18,-15.0,-1.0,-22.0,6.0,-11.0,3.0,5.0,-14.0
1.6951606304010237e+18,127.0,111.0,13.0,-20.0,-48.0,-9.0,8.0,22.0
1.6951606304010237e+18,-80.0,-116.0,-50.0,10.0,60.0,18.0,3.0,3.0
1.6951606304400015e+18,12.0,101.0,50.0,-16.0,-27.0,-27.0,-6.0,-37.0
1.695160630444999e+18,60.0,35.0,6.0,12.0,9.0,5.0,-3.0,14.0
1.6951606304459986e+18,-47.0,-96.0,-46.0,-1.0,3.0,-2.0,-8.0,15.0
1.6951606304459986e+18,29.0,76.0,24.0,-1.0,13.0,11.0,7.0,1.0
1.6951606304470213e+18,18.0,5.0,8.0,-36.0,-61.0,-16.0,-1.0,-12.0
1.695160630448e+18,-35.0,-62.0,-9.0,23.0,71.0,12.0,5.0,9.0
1.695160630448e+18,29.0,11.0,-15.0,-41.0,-43.0,-2.0,3.0,-16.0
1.695160630448e+18,11.0,-62.0,14.0,74.0,87.0,20.0,17.0,65.0
1.6951606304609902e+18,2.0,1.0,-14.0,-24.0,2.0,6.0,1.0,-4.0
1.6951606304609902e+18,-50.0,-56.0,-3.0,-42.0,-58.0,-21.0,-15.0,-19.0
1.6951606304609902e+18,38.0,6.0,5.0,-6.0,26.0,6.0,11.0,-8.0
1.6951606304619907e+18,-21.0,-10.0,-8.0,-8.0,-9.0,-4.0,-16.0,-43.0
1.695160630500969e+18,2.0,15.0,38.0,16.0,-4.0,-7.0,-6.0,33.0
1.695160630500969e+18,-12.0,-54.0,-43.0,-33.0,-14.0,-9.0,-11.0,-11.0
1.6951606305019666e+18,-17.0,79.0,51.0,-7.0,31.0,16.0,7.0,-24.0
1.6951606305019666e+18,14.0,-64.0,-68.0,-11.0,-49.0,-17.0,-7.0,-14.0
1.6951606305229545e+18,13.0,31.0,58.0,-1.0,16.0,10.0,7.0,8.0
1.6951606305229545e+18,-2.0,92.0,11.0,-15.0,-45.0,-16.0,6.0,-32.0
1.6951606305229545e+18,-80.0,-75.0,-51.0,-17.0,-36.0,-17.0,-38.0,-13.0
1.695160630523956e+18,59.0,113.0,21.0,-18.0,-26.0,2.0,18.0,62.0
1.695160630524953e+18,-40.0,-53.0,-4.0,-3.0,6.0,10.0,3.0,-4.0
1.695160630524953e+18,-12.0,-26.0,11.0,3.0,-8.0,-7.0,-4.0,-40.0
1.695160630541946e+18,2.0,-18.0,17.0,-9.0,-27.0,-13.0,-1.0,17.0
1.6951606305429437e+18,26.0,106.0,3.0,37.0,70.0,19.0,3.0,0.0
1.6951606305429437e+18,-49.0,-12.0,-33.0,-9.0,-28.0,-17.0,-18.0,-39.0
1.6951606305429437e+18,35.0,46.0,21.0,14.0,11.0,-7.0,15.0,37.0
1.6951606305429437e+18,-24.0,-73.0,-36.0,29.0,42.0,4.0,-12.0,-24.0
1.695160630543943e+18,44.0,52.0,-14.0,-33.0,-11.0,-13.0,-7.0,-27.0
1.6951606305579333e+18,22.0,61.0,64.0,25.0,7.0,10.0,13.0,1.0
1.6951606305579333e+18,0.0,-22.0,-55.0,20.0,8.0,16.0,1.0,34.0
1.6951606305589338e+18,-19.0,-30.0,38.0,61.0,53.0,10.0,24.0,61.0
1.6951606305589338e+18,25.0,1.0,-34.0,-31.0,-48.0,-16.0,-19.0,-46.0
1.6951606305739256e+18,-44.0,-18.0,-7.0,-18.0,-23.0,4.0,-17.0,-70.0
1.6951606305739256e+18,41.0,-30.0,21.0,3.0,-12.0,-25.0,4.0,37.0
1.6951606306119037e+18,-16.0,-43.0,-26.0,-21.0,-14.0,-15.0,-29.0,-34.0
1.6951606306129044e+18,-45.0,-90.0,28.0,8.0,30.0,18.0,8.0,17.0
1.695160630613904e+18,48.0,78.0,-41.0,-18.0,-62.0,-12.0,8.0,21.0
1.695160630613904e+18,-25.0,-100.0,23.0,70.0,73.0,28.0,12.0,-51.0
1.6951606306149015e+18,32.0,23.0,-41.0,-49.0,-59.0,-31.0,-19.0,33.0
1.6951606306149015e+18,-55.0,-25.0,23.0,25.0,-13.0,11.0,11.0,12.0
1.6951606306308928e+18,-25.0,10.0,-19.0,-58.0,-90.0,-41.0,-22.0,-36.0
1.695160630633891e+18,21.0,-5.0,19.0,55.0,104.0,69.0,14.0,56.0
1.695160630649881e+18,-30.0,51.0,7.0,28.0,-11.0,4.0,22.0,-2.0
1.695160630649881e+18,-14.0,47.0,-6.0,-18.0,-10.0,-11.0,-17.0,5.0
1.695160630651881e+18,31.0,-96.0,-2.0,13.0,9.0,7.0,2.0,-11.0
1.695160630651881e+18,-26.0,57.0,2.0,-42.0,-59.0,-20.0,-1.0,-14.0
1.695160630651881e+18,3.0,75.0,13.0,-21.0,-18.0,3.0,6.0,-22.0
1.6951606306528796e+18,-18.0,-56.0,23.0,25.0,19.0,-12.0,-23.0,16.0
1.6951606306648755e+18,-20.0,72.0,-11.0,47.0,118.0,34.0,14.0,16.0
1.6951606306648755e+18,-57.0,-106.0,-2.0,-11.0,-39.0,-20.0,-17.0,-9.0
1.6951606306658747e+18,102.0,73.0,-27.0,-24.0,-10.0,2.0,-7.0,-30.0
1.6951606306658747e+18,-35.0,25.0,1.0,-33.0,18.0,3.0,10.0,-39.0
1.695160630685861e+18,21.0,-69.0,6.0,17.0,-22.0,-7.0,16.0,33.0
1.6951606306868608e+18,-30.0,32.0,5.0,10.0,29.0,-13.0,-13.0,31.0
1.6951606306868608e+18,39.0,-2.0,21.0,13.0,-8.0,-4.0,-6.0,10.0
1.6951606306868608e+18,19.0,37.0,-6.0,-7.0,-18.0,-13.0,-30.0,-32.0
1.695160630699856e+18,-8.0,11.0,38.0,19.0,4.0,13.0,20.0,1.0
1.6951606307008525e+18,16.0,-53.0,-56.0,-19.0,-13.0,-5.0,14.0,17.0
1.695160630716843e+18,-3.0,-5.0,7.0,-16.0,-8.0,-15.0,-17.0,5.0
1.695160630716843e+18,-33.0,-7.0,12.0,-12.0,-5.0,-3.0,-6.0,-44.0
1.6951606307178422e+18,35.0,2.0,-29.0,-37.0,-14.0,5.0,7.0,62.0
1.6951606307188419e+18,-17.0,80.0,-22.0,28.0,-1.0,-9.0,-9.0,-14.0
1.6951606307188419e+18,-10.0,-14.0,-7.0,30.0,16.0,5.0,2.0,4.0
1.6951606307188419e+18,-6.0,-4.0,25.0,-11.0,4.0,-3.0,-28.0,2.0
1.6951606307378396e+18,14.0,-12.0,-9.0,-1.0,-7.0,-2.0,15.0,-12.0
1.6951606307378396e+18,27.0,16.0,-3.0,-39.0,-25.0,-2.0,0.0,-10.0
1.695160630738831e+18,-22.0,-50.0,-22.0,-2.0,1.0,19.0,25.0,18.0
1.695160630738831e+18,0.0,21.0,21.0,12.0,-10.0,-4.0,-6.0,-7.0
1.6951606307638175e+18,-17.0,-22.0,9.0,6.0,4.0,-1.0,10.0,5.0
1.6951606307658156e+18,-36.0,1.0,4.0,39.0,2.0,-12.0,-19.0,-17.0
1.6951606307658156e+18,25.0,11.0,4.0,-13.0,6.0,11.0,6.0,1.0
1.6951606307658156e+18,27.0,2.0,-20.0,-56.0,-32.0,-13.0,-7.0,10.0
1.6951606307758095e+18,-54.0,-21.0,-32.0,11.0,10.0,-17.0,-49.0,-26.0
1.6951606307758095e+18,36.0,8.0,5.0,-45.0,-15.0,-13.0,20.0,38.0
1.6951606307758095e+18,-44.0,8.0,32.0,62.0,17.0,2.0,-44.0,-74.0
1.6951606307758095e+18,73.0,17.0,-5.0,9.0,10.0,13.0,71.0,74.0
1.6951606307987968e+18,74.0,-4.0,-15.0,-15.0,5.0,37.0,20.0,-1.0
1.6951606308067917e+18,-85.0,9.0,-2.0,-40.0,-30.0,1.0,19.0,-13.0
1.695160630807792e+18,-9.0,-15.0,15.0,13.0,-5.0,-4.0,-19.0,27.0
1.695160630807792e+18,90.0,8.0,15.0,13.0,-7.0,-6.0,8.0,29.0
1.695160630845771e+18,-31.0,0.0,-37.0,-48.0,-10.0,-11.0,-9.0,-5.0
1.695160630845771e+18,50.0,-4.0,-27.0,-34.0,-12.0,-6.0,-28.0,-22.0
1.6951606308467715e+18,-35.0,-14.0,12.0,2.0,12.0,-7.0,10.0,12.0
1.6951606308467715e+18,-64.0,-13.0,4.0,0.0,-9.0,-5.0,-24.0,-18.0
1.6951606308467715e+18,5.0,7.0,32.0,71.0,15.0,1.0,-3.0,18.0
1.6951606308467715e+18,1.0,11.0,-2.0,17.0,6.0,4.0,-11.0,-12.0
1.695160630850766e+18,-8.0,-14.0,16.0,-9.0,-17.0,-9.0,3.0,20.0
1.695160630850766e+18,-19.0,-14.0,-56.0,-34.0,-5.0,9.0,6.0,-44.0
1.6951606308577644e+18,12.0,2.0,-10.0,-57.0,-11.0,-13.0,-12.0,-3.0
1.6951606308577644e+18,-1.0,-3.0,-7.0,-6.0,0.0,1.0,-3.0,-8.0
1.6951606308587617e+18,29.0,17.0,15.0,34.0,12.0,11.0,19.0,26.0
1.6951606308587617e+18,-13.0,-6.0,-1.0,-20.0,-6.0,3.0,4.0,-14.0
1.6951606309047345e+18,2.0,-3.0,-19.0,27.0,3.0,-7.0,-10.0,-16.0
1.6951606309047345e+18,51.0,3.0,8.0,-21.0,-15.0,-10.0,-12.0,1.0
1.6951606309057352e+18,-36.0,-14.0,-17.0,-51.0,-5.0,4.0,13.0,8.0
1.6951606309057352e+18,-25.0,5.0,9.0,56.0,2.0,4.0,-3.0,-7.0
1.695160630906737e+18,-28.0,-8.0,-7.0,-4.0,14.0,3.0,4.0,9.0
1.6951606309077335e+18,10.0,0.0,-3.0,-52.0,-9.0,0.0,-3.0,-13.0
1.6951606309237358e+18,22.0,8.0,-9.0,-3.0,1.0,-4.0,-3.0,-10.0
1.6951606309237358e+18,-1.0,-8.0,-5.0,-11.0,-5.0,2.0,7.0,2.0
1.6951606309237358e+18,-8.0,6.0,15.0,48.0,6.0,-4.0,-9.0,3.0
1.6951606309237358e+18,1.0,2.0,17.0,10.0,2.0,3.0,4.0,-5.0
1.6951606309257242e+18,8.0,2.0,-7.0,0.0,6.0,3.0,4.0,18.0
1.6951606309257242e+18,-12.0,-3.0,5.0,8.0,4.0,0.0,-6.0,-12.0
1.6951606309407155e+18,5.0,0.0,13.0,19.0,-2.0,-1.0,6.0,7.0
1.6951606309407155e+18,-13.0,-4.0,-2.0,-30.0,-6.0,-4.0,-7.0,-16.0
1.6951606309407155e+18,2.0,-3.0,-1.0,35.0,-3.0,1.0,6.0,-9.0
1.6951606309407155e+18,20.0,9.0,14.0,19.0,19.0,9.0,-3.0,26.0
1.6951606309647012e+18,-20.0,-17.0,3.0,-10.0,-10.0,-4.0,-1.0,-13.0
1.6951606309647012e+18,-20.0,6.0,14.0,17.0,1.0,2.0,-2.0,-13.0
1.6951606309657006e+18,5.0,2.0,-13.0,-42.0,2.0,-2.0,2.0,14.0
1.6951606309657006e+18,12.0,-2.0,-6.0,35.0,3.0,0.0,-2.0,-35.0
1.6951606309777152e+18,13.0,-3.0,9.0,-4.0,-2.0,-1.0,1.0,10.0
1.6951606309777152e+18,4.0,3.0,7.0,27.0,6.0,4.0,4.0,4.0
1.6951606309786962e+18,-32.0,2.0,5.0,3.0,0.0,-1.0,-1.0,-12.0
1.6951606309786962e+18,13.0,-3.0,-9.0,-18.0,-6.0,-3.0,-5.0,5.0
1.6951606310006807e+18,-4.0,-1.0,7.0,9.0,2.0,0.0,5.0,3.0
1.6951606310006807e+18,15.0,5.0,15.0,18.0,2.0,1.0,1.0,-5.0
1.6951606310006807e+18,-1.0,-7.0,-43.0,-49.0,-8.0,-2.0,4.0,2.0
1.695160631001683e+18,-17.0,-4.0,10.0,10.0,-5.0,-6.0,-8.0,1.0
1.6951606310176732e+18,-12.0,-2.0,-36.0,-27.0,-5.0,4.0,2.0,0.0
1.6951606310176732e+18,15.0,2.0,16.0,9.0,-3.0,-2.0,-3.0,0.0
1.695160631039659e+18,6.0,1.0,3.0,2.0,-1.0,0.0,-2.0,-1.0
1.695160631039659e+18,-1.0,2.0,10.0,-1.0,4.0,-2.0,1.0,5.0
1.695160631040661e+18,-3.0,-1.0,1.0,-9.0,-1.0,-2.0,-2.0,-6.0
1.695160631040661e+18,-7.0,-4.0,-2.0,19.0,-5.0,-3.0,-6.0,-2.0
1.6951606310416573e+18,18.0,3.0,16.0,-4.0,1.0,2.0,-1.0,-4.0
1.6951606310416573e+18,-17.0,-2.0,-15.0,-8.0,-1.0,-2.0,2.0,3.0
1.6951606310606461e+18,-5.0,-1.0,10.0,15.0,2.0,-2.0,-3.0,-5.0
1.6951606310606461e+18,8.0,0.0,-15.0,-5.0,1.0,2.0,2.0,9.0
1.6951606310606461e+18,-5.0,-5.0,1.0,13.0,-7.0,-4.0,-5.0,-10.0
1.6951606310616456e+18,26.0,1.0,-12.0,-34.0,-5.0,5.0,9.0,13.0
1.695160631077658e+18,-6.0,-1.0,4.0,-1.0,1.0,0.0,-5.0,-3.0
1.695160631077658e+18,-8.0,-4.0,-9.0,7.0,1.0,1.0,1.0,0.0
1.695160631077658e+18,4.0,-2.0,-6.0,-11.0,-5.0,-2.0,0.0,2.0
1.695160631077658e+18,-7.0,0.0,13.0,22.0,3.0,0.0,0.0,1.0
1.6951606311176136e+18,-5.0,-2.0,-8.0,-20.0,-6.0,-3.0,-3.0,3.0
1.695160631118613e+18,-4.0,1.0,7.0,6.0,5.0,-1.0,2.0,-3.0
1.695160631118613e+18,4.0,2.0,-1.0,-4.0,0.0,4.0,-1.0,-8.0
1.695160631118613e+18,-14.0,-7.0,-5.0,-11.0,-2.0,-4.0,-2.0,-7.0
1.6951606311286067e+18,-2.0,2.0,5.0,12.0,0.0,-2.0,-2.0,-3.0
1.6951606311286067e+18,-7.0,-3.0,-8.0,-27.0,-5.0,-1.0,-1.0,1.0
1.6951606311296092e+18,9.0,1.0,3.0,16.0,3.0,0.0,0.0,1.0
1.6951606311296092e+18,-10.0,-2.0,-1.0,6.0,-2.0,2.0,2.0,-2.0
1.695160631150597e+18,4.0,-2.0,-2.0,0.0,0.0,-4.0,-2.0,2.0
1.6951606311515983e+18,-3.0,-3.0,-2.0,-3.0,-2.0,-1.0,1.0,-2.0
1.6951606311515983e+18,0.0,0.0,-3.0,-5.0,-4.0,-1.0,-2.0,-3.0
1.6951606311515983e+18,2.0,2.0,9.0,10.0,0.0,-1.0,1.0,-4.0
1.6951606311585902e+18,-2.0,-2.0,0.0,-3.0,1.0,2.0,1.0,2.0
1.6951606311596147e+18,-3.0,-2.0,-5.0,6.0,1.0,3.0,2.0,0.0
1.695160631160611e+18,-1.0,0.0,3.0,-3.0,-1.0,-2.0,-1.0,-3.0
1.695160631160611e+18,0.0,2.0,9.0,15.0,0.0,-2.0,-1.0,1.0
1.695160631180577e+18,1.0,-1.0,-6.0,-11.0,-1.0,-1.0,1.0,4.0
1.695160631180577e+18,-1.0,0.0,8.0,17.0,0.0,-3.0,0.0,1.0
1.6951606311815767e+18,1.0,-1.0,-13.0,-18.0,-1.0,-3.0,0.0,0.0
1.6951606311815767e+18,-3.0,-1.0,0.0,5.0,0.0,7.0,0.0,1.0
1.6951606312035635e+18,-1.0,-1.0,2.0,-2.0,2.0,-1.0,0.0,1.0
1.6951606312035635e+18,-2.0,-1.0,1.0,-1.0,-1.0,1.0,0.0,-1.0
1.6951606312045635e+18,-1.0,-1.0,2.0,5.0,-1.0,-1.0,-2.0,-1.0
1.6951606312045635e+18,1.0,-1.0,-1.0,-6.0,-2.0,-3.0,0.0,0.0
1.6951606312175578e+18,-2.0,1.0,1.0,-1.0,-3.0,0.0,-2.0,-2.0
1.6951606312175578e+18,-2.0,-2.0,-2.0,0.0,-3.0,0.0,-3.0,-2.0
1.6951606312185572e+18,1.0,-2.0,-3.0,3.0,2.0,-4.0,0.0,-2.0
1.6951606312185572e+18,0.0,1.0,1.0,-10.0,-7.0,0.0,-3.0,-1.0
1.6951606312405422e+18,-1.0,-3.0,5.0,4.0,17.0,6.0,3.0,0.0
1.6951606312405422e+18,-3.0,-3.0,-9.0,3.0,-2.0,-3.0,-1.0,0.0
1.6951606312415424e+18,1.0,0.0,10.0,-16.0,4.0,4.0,2.0,0.0
1.6951606312415424e+18,-3.0,-6.0,-44.0,1.0,-9.0,-8.0,-3.0,-4.0
1.6951606312555354e+18,-3.0,3.0,13.0,3.0,2.0,0.0,1.0,-1.0
1.6951606312555354e+18,0.0,0.0,6.0,-5.0,-1.0,2.0,1.0,1.0
1.6951606312555354e+18,-2.0,-2.0,0.0,4.0,-7.0,0.0,-1.0,-2.0
1.6951606312565384e+18,1.0,2.0,7.0,2.0,-2.0,-4.0,-2.0,-2.0
1.6951606312775242e+18,-1.0,-1.0,-6.0,-6.0,-4.0,-5.0,-3.0,-1.0
1.6951606312785234e+18,-2.0,-1.0,-2.0,0.0,2.0,0.0,-1.0,-2.0
1.6951606312785234e+18,1.0,-1.0,-6.0,4.0,-1.0,1.0,0.0,1.0
1.6951606312795456e+18,-1.0,-1.0,6.0,2.0,6.0,1.0,1.0,1.0
1.6951606313005307e+18,0.0,-1.0,-9.0,-3.0,-8.0,-2.0,-1.0,-2.0
1.6951606313005307e+18,0.0,2.0,19.0,3.0,1.0,1.0,1.0,-2.0
1.695160631301536e+18,-2.0,-7.0,-19.0,-2.0,-1.0,-1.0,-1.0,-3.0
1.695160631301536e+18,0.0,0.0,7.0,-1.0,4.0,1.0,1.0,1.0
1.6951606313166986e+18,-2.0,-1.0,-4.0,-1.0,-4.0,-1.0,0.0,-2.0
1.6951606313166986e+18,-1.0,0.0,-6.0,1.0,-3.0,0.0,-1.0,0.0
1.695160631317697e+18,-1.0,1.0,7.0,-1.0,-1.0,-1.0,-1.0,0.0
1.695160631317697e+18,-1.0,0.0,5.0,1.0,2.0,2.0,1.0,0.0
1.695160631346224e+18,0.0,-1.0,-6.0,0.0,-2.0,-1.0,-1.0,-1.0
1.695160631346224e+18,2.0,0.0,3.0,2.0,2.0,-1.0,-2.0,0.0
1.6951606313472202e+18,-2.0,0.0,-2.0,-3.0,-3.0,-1.0,0.0,-2.0
1.6951606313472202e+18,1.0,0.0,2.0,0.0,2.0,0.0,-1.0,0.0
1.6951606313685376e+18,0.0,-2.0,1.0,-3.0,-3.0,0.0,-3.0,1.0
1.6951606313685376e+18,-1.0,-2.0,-5.0,-3.0,0.0,-1.0,-1.0,0.0
1.6951606313695342e+18,1.0,1.0,0.0,-2.0,0.0,0.0,-1.0,0.0
1.6951606313695342e+18,-1.0,-2.0,0.0,3.0,0.0,0.0,-1.0,-1.0
1.6951606313758034e+18,0.0,3.0,2.0,-2.0,-3.0,-2.0,-1.0,0.0
1.6951606313758034e+18,-2.0,-3.0,-2.0,-2.0,-1.0,0.0,-2.0,0.0
1.6951606313758034e+18,-2.0,1.0,-2.0,1.0,-2.0,0.0,0.0,-1.0
1.6951606313758034e+18,0.0,2.0,1.0,-1.0,0.0,2.0,-1.0,0.0
1.6951606314077868e+18,0.0,-1.0,-1.0,0.0,-3.0,-1.0,-2.0,-2.0
1.6951606314087854e+18,-1.0,0.0,-2.0,0.0,-1.0,-1.0,-1.0,-1.0
1.6951606314087854e+18,-1.0,0.0,7.0,-1.0,-2.0,-1.0,0.0,-2.0
1.6951606314087854e+18,-1.0,-3.0,-12.0,-4.0,-1.0,0.0,-1.0,-1.0
1.6951606314217797e+18,0.0,3.0,3.0,2.0,0.0,-1.0,-3.0,-2.0
1.695160631422786e+18,-2.0,-1.0,-1.0,-1.0,-1.0,-2.0,-1.0,0.0
1.6951606314237768e+18,0.0,-2.0,-1.0,0.0,0.0,-1.0,1.0,-1.0
1.6951606314247875e+18,0.0,1.0,1.0,0.0,0.0,-2.0,1.0,-1.0
1.6951606314357706e+18,-1.0,-3.0,-3.0,-1.0,0.0,0.0,1.0,1.0
1.6951606314357706e+18,0.0,0.0,0.0,-1.0,-3.0,-2.0,-1.0,-1.0
1.6951606314457656e+18,0.0,0.0,-3.0,1.0,0.0,1.0,-1.0,0.0
1.6951606314457656e+18,-1.0,-1.0,2.0,-1.0,1.0,1.0,-1.0,0.0
1.6951606314607572e+18,-1.0,-1.0,-6.0,-5.0,-1.0,-1.0,0.0,0.0
1.6951606314617572e+18,-1.0,-2.0,-1.0,-1.0,0.0,-1.0,0.0,-1.0
1.695160631462766e+18,0.0,-1.0,0.0,0.0,-1.0,-2.0,0.0,0.0
1.695160631462766e+18,1.0,-1.0,2.0,-2.0,-1.0,1.0,-1.0,0.0
1.6951606314827438e+18,-3.0,-2.0,-1.0,-1.0,-2.0,-1.0,-1.0,1.0
1.6951606314847457e+18,-1.0,-1.0,-3.0,-2.0,1.0,-2.0,0.0,-1.0
1.6951606314847457e+18,-1.0,-2.0,0.0,1.0,0.0,1.0,-2.0,-2.0
1.695160631485742e+18,-1.0,-1.0,1.0,0.0,-1.0,-1.0,-1.0,-1.0
1.6951606314957363e+18,-2.0,-2.0,-2.0,-2.0,-1.0,-1.0,-1.0,0.0
1.6951606314957363e+18,-2.0,-1.0,-3.0,-1.0,-3.0,0.0,0.0,-2.0
1.6951606315107328e+18,-1.0,1.0,0.0,0.0,-3.0,1.0,-1.0,0.0
1.6951606315107328e+18,-2.0,-1.0,2.0,0.0,0.0,-1.0,1.0,-2.0
1.6951606315197215e+18,0.0,-1.0,-1.0,-1.0,-1.0,-1.0,-2.0,-1.0
1.6951606315197215e+18,0.0,0.0,-2.0,0.0,0.0,-2.0,-2.0,0.0
1.6951606315207242e+18,1.0,0.0,-3.0,-1.0,2.0,-1.0,-1.0,-1.0
1.6951606315207242e+18,-1.0,1.0,0.0,0.0,-2.0,0.0,-1.0,-1.0
1.6951606315527022e+18,-2.0,-2.0,-3.0,-1.0,-2.0,-2.0,1.0,0.0
1.6951606315527022e+18,-1.0,0.0,0.0,0.0,-1.0,0.0,0.0,-1.0
1.6951606315527022e+18,-1.0,0.0,-2.0,-3.0,-1.0,0.0,0.0,-1.0
1.6951606315527022e+18,-1.0,-1.0,2.0,2.0,-1.0,-2.0,-3.0,-1.0
1.695160631556701e+18,-1.0,-2.0,-1.0,0.0,-1.0,0.0,-1.0,-1.0
1.6951606315626964e+18,-1.0,-2.0,-2.0,-1.0,-2.0,-2.0,-1.0,-1.0
1.6951606315636972e+18,-3.0,0.0,-2.0,-1.0,1.0,0.0,1.0,-1.0
1.6951606315636972e+18,-3.0,-2.0,-4.0,-2.0,-1.0,-1.0,0.0,-1.0
1.695160631593682e+18,1.0,0.0,-2.0,0.0,0.0,0.0,-1.0,1.0
1.6951606315946785e+18,-3.0,0.0,1.0,1.0,-1.0,-1.0,-1.0,0.0
1.6951606315946785e+18,1.0,1.0,0.0,-1.0,-2.0,0.0,-1.0,-1.0
1.6951606315956808e+18,0.0,-1.0,-1.0,0.0,0.0,0.0,-2.0,-2.0
1.695160631601678e+18,1.0,-1.0,0.0,-2.0,-1.0,-2.0,0.0,0.0
1.695160631601678e+18,-2.0,0.0,-2.0,-1.0,0.0,-2.0,-1.0,-2.0
1.695160631616665e+18,-2.0,-2.0,-1.0,-4.0,-2.0,-2.0,-1.0,0.0
1.695160631617673e+18,0.0,1.0,0.0,-1.0,0.0,0.0,0.0,-1.0
1.6951606316186657e+18,-1.0,0.0,-2.0,-1.0,-2.0,0.0,0.0,-1.0
1.6951606316196641e+18,0.0,0.0,-2.0,0.0,2.0,0.0,0.0,-3.0
1.6951606316236716e+18,-1.0,-2.0,-1.0,2.0,1.0,-1.0,-1.0,-3.0
1.6951606316236716e+18,-1.0,-1.0,0.0,-1.0,-2.0,-2.0,0.0,-1.0
1.6951606316466486e+18,0.0,-1.0,-1.0,-3.0,0.0,0.0,-2.0,-2.0
1.695160631647648e+18,0.0,-1.0,-2.0,0.0,0.0,1.0,-1.0,0.0
1.695160631647648e+18,0.0,-2.0,-3.0,-2.0,-1.0,-1.0,-1.0,0.0
1.6951606316486528e+18,-1.0,-2.0,-2.0,-1.0,-2.0,0.0,-1.0,1.0
1.6951606316686405e+18,0.0,-1.0,0.0,0.0,-2.0,0.0,-2.0,-2.0
1.6951606316686405e+18,1.0,1.0,1.0,0.0,-1.0,0.0,-1.0,0.0
1.6951606316696358e+18,-1.0,-1.0,1.0,0.0,-2.0,-1.0,-3.0,-2.0
1.6951606316696358e+18,0.0,-1.0,-1.0,-1.0,0.0,-1.0,-1.0,-1.0
1.695160631675632e+18,0.0,-2.0,-1.0,0.0,0.0,1.0,0.0,1.0
1.695160631675632e+18,0.0,-2.0,0.0,-1.0,-1.0,0.0,-1.0,-2.0
1.695160631683627e+18,-1.0,1.0,-2.0,-1.0,-1.0,-1.0,-1.0,-2.0
1.695160631683627e+18,-1.0,-1.0,-1.0,-1.0,0.0,0.0,0.0,-2.0
1.6951606316996214e+18,-3.0,0.0,-2.0,0.0,0.0,-1.0,-1.0,1.0
1.695160631700623e+18,-1.0,-3.0,1.0,-1.0,2.0,2.0,2.0,1.0
1.6951606317016233e+18,0.0,-1.0,1.0,1.0,3.0,-1.0,1.0,1.0
1.6951606317016233e+18,-2.0,2.0,2.0,1.0,1.0,0.0,0.0,1.0
1.6951606317206106e+18,2.0,0.0,2.0,0.0,2.0,0.0,0.0,-1.0
1.6951606317216067e+18,2.0,0.0,0.0,0.0,-2.0,-1.0,-2.0,-1.0
1.6951606317216067e+18,0.0,0.0,0.0,-2.0,-1.0,0.0,0.0,2.0
1.6951606317216067e+18,0.0,-2.0,2.0,-1.0,0.0,1.0,1.0,1.0
1.6951606317365967e+18,-1.0,-1.0,2.0,0.0,0.0,0.0,0.0,-2.0
1.6951606317365967e+18,0.0,-1.0,0.0,-2.0,-1.0,-1.0,0.0,-1.0
1.6951606317666045e+18,-2.0,0.0,0.0,0.0,-1.0,1.0,-1.0,0.0
1.6951606317676073e+18,1.0,0.0,-1.0,1.0,-1.0,-1.0,0.0,-1.0
1.6951606317676073e+18,0.0,0.0,0.0,-2.0,0.0,0.0,1.0,-1.0
1.6951606317685837e+18,-1.0,-2.0,-1.0,-2.0,-1.0,1.0,-1.0,-2.0
1.6951606317695992e+18,-1.0,-1.0,0.0,-1.0,-1.0,1.0,0.0,-1.0
1.6951606317695992e+18,0.0,0.0,0.0,-2.0,1.0,-1.0,-1.0,-1.0
1.6951606317805706e+18,0.0,-1.0,-2.0,-2.0,0.0,-1.0,-2.0,0.0
1.6951606317805706e+18,0.0,-1.0,0.0,-3.0,1.0,0.0,0.0,1.0
1.6951606317805706e+18,1.0,-1.0,0.0,-2.0,0.0,-1.0,-1.0,0.0
1.6951606317815752e+18,-2.0,0.0,0.0,0.0,-2.0,-2.0,1.0,-1.0
1.695160631811556e+18,-1.0,-4.0,2.0,2.0,-1.0,-2.0,-1.0,1.0
1.695160631811556e+18,-2.0,-2.0,-1.0,-1.0,-2.0,-2.0,0.0,0.0
1.695160631811556e+18,-1.0,-2.0,0.0,-1.0,-2.0,-1.0,0.0,0.0
1.695160631811556e+18,0.0,-2.0,-1.0,-2.0,-2.0,-2.0,-1.0,0.0
1.6951606318175488e+18,-1.0,0.0,-2.0,-1.0,1.0,1.0,0.0,-3.0
1.6951606318175488e+18,0.0,1.0,0.0,-1.0,1.0,0.0,0.0,2.0
1.6951606318185713e+18,0.0,-3.0,-1.0,-2.0,0.0,-1.0,0.0,-1.0
1.6951606318185713e+18,-1.0,-1.0,0.0,-1.0,-2.0,1.0,0.0,0.0
1.6951606318485325e+18,-2.0,1.0,-2.0,-2.0,-2.0,-2.0,-1.0,0.0
1.6951606318485325e+18,0.0,0.0,-1.0,-1.0,0.0,-2.0,-1.0,1.0
1.6951606318495316e+18,1.0,2.0,-1.0,0.0,-1.0,-2.0,-1.0,-2.0
1.6951606318495316e+18,-2.0,0.0,-2.0,-2.0,-1.0,-1.0,0.0,-1.0
1.6951606318625234e+18,-1.0,-1.0,0.0,-1.0,0.0,-1.0,-1.0,-1.0
1.6951606318625234e+18,0.0,-1.0,0.0,-3.0,-1.0,1.0,-1.0,-2.0
1.6951606318715195e+18,0.0,1.0,-1.0,-1.0,-2.0,0.0,0.0,0.0
1.6951606318735178e+18,0.0,0.0,-1.0,-2.0,-2.0,0.0,-1.0,-1.0
1.6951606318775153e+18,-1.0,-1.0,0.0,2.0,0.0,0.0,-1.0,-2.0
1.6951606318775153e+18,-2.0,-3.0,0.0,2.0,0.0,0.0,-2.0,1.0
1.6951606318785172e+18,-2.0,-2.0,2.0,-1.0,-1.0,-1.0,0.0,0.0
1.6951606318785172e+18,0.0,0.0,2.0,-1.0,0.0,-1.0,-1.0,0.0
1.6951606319054994e+18,-1.0,0.0,-3.0,-2.0,-1.0,-2.0,-1.0,-1.0
1.6951606319074988e+18,0.0,0.0,-1.0,-1.0,-1.0,0.0,-2.0,-1.0
1.6951606319084982e+18,0.0,0.0,0.0,-2.0,0.0,0.0,0.0,-1.0
1.6951606319084982e+18,-1.0,1.0,-2.0,-1.0,-1.0,-1.0,0.0,1.0
1.695160631923491e+18,0.0,-2.0,1.0,-1.0,-1.0,0.0,1.0,-1.0
1.695160631923491e+18,0.0,1.0,-2.0,1.0,0.0,-3.0,0.0,-1.0
1.6951606319244918e+18,1.0,0.0,-1.0,-1.0,-1.0,-1.0,-1.0,-3.0
1.6951606319244918e+18,-1.0,-2.0,-2.0,-1.0,-1.0,1.0,-2.0,-2.0
1.695160631937484e+18,-1.0,0.0,-1.0,0.0,-1.0,-1.0,1.0,0.0
1.6951606319384858e+18,-2.0,-2.0,-1.0,0.0,-2.0,-1.0,0.0,-2.0
1.6951606319384858e+18,-1.0,1.0,0.0,1.0,1.0,0.0,-1.0,0.0
1.6951606319384858e+18,0.0,-1.0,-1.0,0.0,0.0,0.0,0.0,0.0
1.6951606319604736e+18,-2.0,-1.0,-1.0,-2.0,-2.0,-2.0,-1.0,-1.0
1.6951606319604736e+18,-1.0,-1.0,-1.0,-1.0,-1.0,0.0,-1.0,0.0
1.6951606319614676e+18,-1.0,-1.0,-1.0,-1.0,-2.0,-2.0,0.0,-1.0
1.6951606319614676e+18,-1.0,-3.0,-2.0,0.0,-2.0,-2.0,-3.0,1.0
1.6951606319906204e+18,-1.0,1.0,0.0,-3.0,-2.0,1.0,0.0,0.0
1.6951606319906204e+18,0.0,-1.0,0.0,-1.0,0.0,-1.0,1.0,-2.0
1.69516063199162e+18,0.0,-1.0,-2.0,0.0,-1.0,0.0,-2.0,0.0
1.69516063199162e+18,0.0,-1.0,-2.0,-1.0,-1.0,0.0,-1.0,-2.0
1.6951606319994568e+18,-1.0,0.0,1.0,-2.0,-3.0,0.0,-1.0,0.0
1.6951606319994568e+18,-1.0,1.0,0.0,-1.0,-2.0,-1.0,-1.0,0.0
1.695160632000441e+18,0.0,-2.0,0.0,0.0,1.0,-1.0,-1.0,-1.0
1.695160632000441e+18,-1.0,-2.0,0.0,1.0,-1.0,-1.0,1.0,-3.0
1.6951606320205279e+18,-2.0,0.0,-1.0,0.0,0.0,-2.0,0.0,-1.0
1.6951606320215357e+18,-1.0,0.0,-2.0,-1.0,0.0,0.0,1.0,0.0
1.6951606320215357e+18,-1.0,-1.0,-1.0,-1.0,0.0,-1.0,1.0,1.0
1.6951606320215357e+18,0.0,0.0,-1.0,0.0,0.0,-2.0,-1.0,-1.0
1.6951606320519383e+18,-2.0,0.0,-2.0,0.0,0.0,-1.0,-1.0,-1.0
1.6951606320539374e+18,0.0,0.0,2.0,-1.0,-1.0,-1.0,-2.0,1.0
1.6951606320549373e+18,-1.0,0.0,-1.0,0.0,-1.0,-2.0,-1.0,-1.0
1.6951606320549373e+18,-1.0,0.0,0.0,-2.0,-1.0,2.0,0.0,-1.0
1.6951606320759245e+18,0.0,-1.0,0.0,0.0,1.0,-1.0,1.0,-2.0
1.6951606320779556e+18,0.0,0.0,0.0,1.0,-2.0,-1.0,0.0,-1.0
1.6951606320779556e+18,-2.0,-2.0,-1.0,-1.0,1.0,1.0,-1.0,-1.0
1.6951606320789228e+18,2.0,1.0,0.0,-1.0,-1.0,-1.0,-1.0,-3.0
1.6951606320959137e+18,0.0,0.0,-1.0,-1.0,-2.0,-1.0,-2.0,1.0
1.695160632096914e+18,0.0,0.0,-1.0,-3.0,-2.0,-1.0,-1.0,-1.0
1.695160632096914e+18,0.0,-1.0,0.0,0.0,0.0,0.0,-1.0,-2.0
1.6951606320979203e+18,0.0,-2.0,-2.0,-1.0,-1.0,0.0,-1.0,1.0
1.695160632103909e+18,0.0,-1.0,1.0,0.0,-1.0,-1.0,-1.0,-1.0
1.6951606321049083e+18,0.0,-1.0,-1.0,1.0,1.0,0.0,1.0,0.0
1.695160632105915e+18,-1.0,0.0,-1.0,1.0,-1.0,1.0,-2.0,0.0
1.695160632105915e+18,-1.0,-1.0,-1.0,0.0,-2.0,-2.0,-1.0,0.0
1.6951606321268959e+18,1.0,-1.0,0.0,-2.0,-1.0,0.0,-2.0,-2.0
1.6951606321268959e+18,0.0,-1.0,-1.0,0.0,0.0,-2.0,-1.0,1.0
1.695160632128895e+18,-2.0,-1.0,1.0,-1.0,0.0,-2.0,-1.0,-2.0
1.695160632128895e+18,0.0,0.0,-1.0,-2.0,-1.0,0.0,0.0,1.0
1.6951606321408937e+18,1.0,-2.0,0.0,-3.0,-2.0,-1.0,-1.0,0.0
1.6951606321408937e+18,-1.0,-1.0,1.0,0.0,-1.0,2.0,0.0,-2.0
1.6951606321479165e+18,-1.0,-1.0,-2.0,-3.0,0.0,-2.0,-2.0,-1.0
1.6951606321488832e+18,-2.0,-1.0,-2.0,-1.0,0.0,0.0,0.0,0.0
1.6951606321638753e+18,-1.0,0.0,-2.0,-1.0,0.0,0.0,1.0,-1.0
1.6951606321648735e+18,0.0,0.0,-1.0,-1.0,0.0,-2.0,0.0,-3.0
1.6951606321648735e+18,-1.0,0.0,1.0,1.0,-2.0,-2.0,-2.0,0.0
1.6951606321648735e+18,0.0,-5.0,-5.0,-2.0,0.0,0.0,0.0,-2.0
1.6951606321868616e+18,-3.0,-2.0,-3.0,-5.0,-2.0,1.0,1.0,2.0
1.6951606321868616e+18,-1.0,-5.0,-4.0,2.0,2.0,0.0,0.0,0.0
1.6951606321878628e+18,0.0,4.0,6.0,9.0,1.0,0.0,-1.0,0.0
1.6951606321878628e+18,-3.0,-3.0,-3.0,-6.0,1.0,-1.0,-3.0,-1.0
1.6951606322048527e+18,1.0,1.0,1.0,3.0,0.0,-1.0,0.0,1.0
1.6951606322048527e+18,-2.0,2.0,3.0,-5.0,-4.0,-5.0,-5.0,-3.0
1.6951606322058511e+18,-1.0,-10.0,-5.0,-3.0,-1.0,4.0,1.0,0.0
1.6951606322138465e+18,3.0,3.0,9.0,-4.0,-6.0,-5.0,1.0,1.0
1.6951606322238395e+18,0.0,-1.0,3.0,1.0,1.0,5.0,1.0,1.0
1.6951606322238395e+18,-3.0,-5.0,-18.0,-17.0,-2.0,0.0,-1.0,-1.0
1.6951606322238395e+18,2.0,8.0,7.0,9.0,-3.0,-2.0,-1.0,0.0
1.6951606322248384e+18,-6.0,-13.0,-42.0,-25.0,-15.0,-6.0,-4.0,-6.0
1.6951606322398326e+18,-1.0,-4.0,1.0,10.0,20.0,6.0,1.0,-1.0
1.6951606322408297e+18,1.0,-2.0,-1.0,10.0,9.0,6.0,2.0,1.0
1.6951606322408297e+18,-2.0,-1.0,2.0,8.0,11.0,5.0,1.0,1.0
1.6951606322418322e+18,1.0,3.0,20.0,13.0,1.0,1.0,2.0,1.0
1.695160632261819e+18,-3.0,-1.0,-6.0,-18.0,-26.0,-13.0,-4.0,-2.0
1.6951606322628196e+18,-1.0,0.0,8.0,8.0,0.0,-1.0,0.0,-2.0
1.6951606322628196e+18,0.0,-3.0,-11.0,-13.0,-3.0,-1.0,0.0,-1.0
1.6951606322628196e+18,1.0,1.0,4.0,20.0,7.0,2.0,-1.0,-1.0
1.695160632287803e+18,0.0,-1.0,3.0,0.0,3.0,1.0,-2.0,-2.0
1.695160632288803e+18,-2.0,-1.0,-9.0,-4.0,-1.0,1.0,1.0,1.0
1.695160632288803e+18,-2.0,0.0,-5.0,-8.0,-8.0,-3.0,0.0,-1.0
1.695160632288803e+18,0.0,0.0,3.0,-5.0,-2.0,-2.0,-2.0,-1.0
1.6951606323137874e+18,-1.0,0.0,2.0,5.0,3.0,-1.0,-1.0,-2.0
1.695160632314789e+18,0.0,0.0,3.0,-3.0,0.0,-4.0,0.0,0.0
1.695160632314789e+18,-2.0,-6.0,-4.0,0.0,0.0,6.0,1.0,-1.0
1.695160632314789e+18,0.0,1.0,5.0,3.0,1.0,0.0,-2.0,-2.0
1.695160632328779e+18,1.0,-1.0,-4.0,-4.0,-4.0,-5.0,0.0,0.0
1.695160632328779e+18,-1.0,1.0,1.0,-2.0,-7.0,-8.0,-2.0,-1.0
1.6951606323297787e+18,-1.0,-1.0,-2.0,-2.0,-7.0,2.0,-1.0,-1.0
1.6951606323297787e+18,-1.0,-2.0,7.0,1.0,15.0,4.0,1.0,0.0
1.6951606323537656e+18,-1.0,-1.0,-4.0,0.0,-2.0,-6.0,-4.0,-3.0
1.6951606323547638e+18,1.0,4.0,2.0,-5.0,-3.0,-5.0,-3.0,0.0
1.6951606323547638e+18,-1.0,-6.0,1.0,-1.0,3.0,10.0,0.0,1.0
1.6951606323547638e+18,-3.0,-5.0,-14.0,-11.0,-12.0,-7.0,-4.0,-2.0
1.6951606323667576e+18,-1.0,7.0,28.0,-5.0,-13.0,-9.0,-1.0,-1.0
1.6951606323667576e+18,-2.0,0.0,3.0,10.0,12.0,9.0,-2.0,-1.0
1.6951606323667576e+18,0.0,1.0,-3.0,-15.0,-13.0,-5.0,1.0,-1.0
1.6951606323667576e+18,2.0,1.0,6.0,14.0,2.0,2.0,0.0,1.0
1.6951606323897444e+18,-2.0,-2.0,-14.0,-16.0,-1.0,-6.0,-5.0,-3.0
1.6951606323897444e+18,0.0,1.0,2.0,4.0,-11.0,2.0,-1.0,1.0
1.695160632390744e+18,0.0,0.0,4.0,7.0,9.0,-2.0,-1.0,-1.0
1.695160632390744e+18,-1.0,0.0,-12.0,-2.0,2.0,-2.0,2.0,0.0
1.6951606324027384e+18,0.0,-2.0,5.0,3.0,-3.0,0.0,-2.0,0.0
1.6951606324037356e+18,-3.0,-4.0,-10.0,-7.0,5.0,-1.0,-1.0,-3.0
1.6951606324037356e+18,1.0,1.0,4.0,-2.0,-3.0,-1.0,0.0,-1.0
1.6951606324037356e+18,0.0,5.0,6.0,-6.0,4.0,-3.0,-1.0,-1.0
1.6951606324337183e+18,-4.0,-10.0,-14.0,10.0,-2.0,-1.0,-3.0,-4.0
1.6951606324337183e+18,-2.0,0.0,-25.0,-1.0,-5.0,1.0,1.0,-1.0
1.6951606324337183e+18,-3.0,4.0,40.0,31.0,0.0,-8.0,-5.0,1.0
1.6951606324347174e+18,2.0,2.0,-15.0,-10.0,6.0,5.0,2.0,-3.0
1.6951606324397143e+18,-6.0,-5.0,-5.0,-13.0,-1.0,4.0,2.0,0.0
1.6951606324407158e+18,-1.0,-9.0,-6.0,-7.0,-18.0,-4.0,-2.0,3.0
1.6951606324407158e+18,1.0,0.0,-20.0,5.0,5.0,-1.0,-2.0,-5.0
1.6951606324407158e+18,-1.0,8.0,33.0,11.0,3.0,3.0,0.0,0.0
1.695160632462705e+18,3.0,-6.0,-13.0,7.0,9.0,3.0,2.0,-1.0
1.695160632462705e+18,-3.0,0.0,2.0,6.0,-3.0,0.0,0.0,0.0
1.695160632463703e+18,-3.0,-1.0,1.0,2.0,-8.0,-8.0,-1.0,0.0
1.695160632463703e+18,-2.0,-7.0,-18.0,-23.0,-2.0,-1.0,-2.0,-1.0
1.6951606324786947e+18,-1.0,3.0,8.0,10.0,-1.0,-1.0,-1.0,-1.0
1.6951606324796918e+18,4.0,1.0,2.0,-5.0,4.0,0.0,1.0,0.0
1.6951606324859203e+18,1.0,4.0,-8.0,-12.0,-4.0,-2.0,-1.0,3.0
1.6951606324859203e+18,-2.0,0.0,-1.0,2.0,-11.0,1.0,2.0,-3.0
1.695160632501933e+18,0.0,9.0,31.0,-2.0,1.0,2.0,0.0,-1.0
1.6951606325029325e+18,1.0,-11.0,-20.0,30.0,14.0,2.0,0.0,-2.0
1.6951606325039101e+18,-2.0,-1.0,24.0,-12.0,0.0,3.0,1.0,1.0
1.6951606325039101e+18,1.0,3.0,-14.0,-16.0,-14.0,-4.0,-2.0,-1.0
1.6951606325399107e+18,-1.0,-3.0,-5.0,-3.0,8.0,-2.0,-3.0,0.0
1.6951606325399107e+18,1.0,5.0,24.0,-8.0,5.0,1.0,0.0,1.0
1.695160632546907e+18,-5.0,-3.0,-15.0,-21.0,-3.0,-2.0,-1.0,-7.0
1.695160632547891e+18,-9.0,7.0,2.0,-20.0,-43.0,-16.0,-5.0,-8.0
1.6951606325489065e+18,-3.0,-9.0,-41.0,-22.0,44.0,15.0,4.0,0.0
1.6951606325489065e+18,17.0,-10.0,-5.0,-14.0,-22.0,-4.0,-1.0,7.0
1.6951606325498857e+18,-1.0,1.0,-12.0,10.0,-6.0,-8.0,-6.0,-4.0
1.6951606325498857e+18,2.0,13.0,30.0,19.0,11.0,1.0,-2.0,-3.0
1.6951606325685788e+18,-6.0,-2.0,2.0,23.0,4.0,3.0,1.0,-3.0
1.6951606325685788e+18,4.0,7.0,0.0,-16.0,-13.0,-11.0,0.0,0.0
1.695160632569584e+18,-5.0,-6.0,-19.0,-6.0,29.0,13.0,2.0,4.0
1.695160632569584e+18,-4.0,-9.0,0.0,11.0,-9.0,-3.0,-3.0,-1.0
1.6951606325915466e+18,7.0,23.0,15.0,1.0,-13.0,-3.0,-2.0,4.0
1.6951606325915466e+18,2.0,3.0,33.0,12.0,5.0,3.0,2.0,-2.0
1.6951606325915466e+18,1.0,-13.0,-50.0,-14.0,-13.0,-8.0,-2.0,-2.0
1.6951606325915466e+18,-2.0,4.0,-1.0,12.0,16.0,7.0,4.0,-1.0
1.695160632606549e+18,8.0,-23.0,5.0,-7.0,1.0,6.0,3.0,5.0
1.695160632606549e+18,-18.0,-11.0,-7.0,1.0,-6.0,-7.0,-4.0,-8.0
1.695160632606549e+18,16.0,35.0,7.0,-14.0,-10.0,-4.0,-3.0,2.0
1.695160632606549e+18,-6.0,-52.0,-9.0,17.0,12.0,5.0,1.0,-2.0
1.6951606326355658e+18,-1.0,20.0,11.0,29.0,-3.0,-2.0,-3.0,-2.0
1.6951606326365635e+18,20.0,14.0,-12.0,-17.0,-11.0,-1.0,-1.0,7.0
1.6951606326365635e+18,1.0,6.0,2.0,4.0,3.0,-1.0,0.0,3.0
1.6951606326375634e+18,11.0,10.0,-4.0,3.0,8.0,3.0,3.0,4.0
1.6951606326435594e+18,-17.0,-48.0,-3.0,-3.0,-14.0,-3.0,1.0,7.0
1.6951606326435594e+18,-11.0,12.0,8.0,-8.0,11.0,0.0,-5.0,-9.0
1.69516063264456e+18,-14.0,-38.0,1.0,-1.0,-7.0,-4.0,-7.0,-15.0
1.69516063264456e+18,21.0,-13.0,-11.0,-9.0,4.0,-4.0,-3.0,12.0
1.6951606326575542e+18,0.0,21.0,7.0,1.0,-21.0,-5.0,-2.0,-12.0
1.6951606326575542e+18,16.0,-14.0,15.0,18.0,18.0,7.0,3.0,7.0
1.6951606326655483e+18,-3.0,69.0,21.0,-12.0,14.0,6.0,-1.0,-5.0
1.6951606326655483e+18,-1.0,18.0,-1.0,22.0,-16.0,-7.0,-2.0,-1.0
1.695160632680615e+18,-34.0,-46.0,-11.0,-11.0,7.0,-1.0,-5.0,-14.0
1.695160632680615e+18,29.0,0.0,-8.0,-21.0,-14.0,-3.0,-2.0,-1.0
1.695160632680615e+18,1.0,48.0,2.0,-1.0,14.0,5.0,7.0,-1.0
1.6951606326816138e+18,-26.0,-58.0,39.0,19.0,-5.0,-15.0,-10.0,-1.0
1.6951606327044685e+18,-7.0,3.0,-53.0,5.0,36.0,20.0,10.0,14.0
1.6951606327054733e+18,-7.0,-26.0,28.0,6.0,-20.0,-3.0,-2.0,-7.0
1.6951606327054733e+18,-14.0,76.0,6.0,-3.0,24.0,13.0,14.0,25.0
1.6951606327054733e+18,-15.0,-9.0,-11.0,-2.0,-14.0,0.0,-3.0,-5.0
1.695160632742571e+18,-6.0,-21.0,4.0,-9.0,-22.0,-8.0,-4.0,-15.0
1.6951606327445699e+18,-4.0,50.0,-19.0,11.0,31.0,-1.0,-5.0,-4.0
1.6951606327445699e+18,7.0,-85.0,5.0,-3.0,-9.0,0.0,3.0,4.0
1.6951606327455703e+18,37.0,72.0,-3.0,14.0,13.0,9.0,8.0,7.0
1.6951606327465692e+18,3.0,-1.0,-9.0,-22.0,-24.0,-8.0,-7.0,-8.0
1.6951606327465692e+18,-13.0,41.0,6.0,5.0,11.0,6.0,5.0,2.0
1.6951606327575624e+18,3.0,-72.0,-14.0,-18.0,-30.0,-16.0,-1.0,-1.0
1.6951606327575624e+18,26.0,39.0,5.0,7.0,16.0,8.0,7.0,24.0
1.69516063277256e+18,16.0,23.0,5.0,11.0,0.0,0.0,2.0,-9.0
1.6951606327735588e+18,27.0,67.0,25.0,-10.0,-2.0,0.0,-2.0,0.0
1.6951606327745736e+18,-28.0,-55.0,-31.0,7.0,-20.0,-8.0,-7.0,-2.0
1.6951606327745736e+18,-17.0,-80.0,-18.0,-15.0,-4.0,-1.0,3.0,-3.0
1.6951606327945413e+18,17.0,10.0,9.0,8.0,-12.0,-14.0,1.0,28.0
1.695160632795542e+18,18.0,56.0,-11.0,-15.0,-1.0,9.0,4.0,6.0
1.695160632795542e+18,-2.0,6.0,23.0,7.0,-26.0,-8.0,-4.0,2.0
1.6951606327965407e+18,-5.0,67.0,-6.0,13.0,60.0,28.0,3.0,-7.0
1.6951606328185357e+18,-21.0,-1.0,28.0,-14.0,-21.0,-6.0,-1.0,-6.0
1.695160632819563e+18,-18.0,-75.0,-31.0,19.0,-13.0,-19.0,-9.0,-5.0
1.695160632820534e+18,-3.0,-12.0,18.0,6.0,11.0,9.0,8.0,0.0
1.695160632820534e+18,11.0,19.0,0.0,-10.0,44.0,14.0,-6.0,3.0
1.69516063283152e+18,2.0,22.0,-1.0,-4.0,-15.0,-8.0,-7.0,-9.0
1.6951606328325228e+18,18.0,7.0,6.0,7.0,10.0,3.0,10.0,6.0
1.6951606328325228e+18,-26.0,-39.0,-57.0,27.0,31.0,7.0,-9.0,-14.0
1.6951606328335276e+18,5.0,-54.0,-7.0,-21.0,-24.0,-12.0,-1.0,-4.0
1.6951606328485102e+18,-29.0,12.0,-18.0,0.0,10.0,-4.0,-9.0,-15.0
1.6951606328485102e+18,13.0,13.0,3.0,-13.0,-21.0,0.0,-1.0,-4.0
1.6951606328495084e+18,40.0,66.0,62.0,19.0,-29.0,-7.0,6.0,-9.0
1.6951606328495084e+18,42.0,48.0,19.0,-37.0,-17.0,-3.0,2.0,6.0
1.6951606328694968e+18,-35.0,-70.0,-12.0,7.0,21.0,15.0,2.0,22.0
1.6951606328694968e+18,-30.0,-53.0,-11.0,16.0,-50.0,-24.0,-23.0,-22.0
1.695160632870497e+18,-45.0,21.0,31.0,11.0,58.0,12.0,5.0,24.0
1.695160632870497e+18,-16.0,-63.0,-45.0,-24.0,-51.0,-22.0,-10.0,-31.0
1.6951606328844887e+18,42.0,56.0,23.0,-43.0,-23.0,4.0,-2.0,-29.0
1.6951606328844887e+18,18.0,50.0,-13.0,25.0,12.0,-1.0,6.0,24.0
1.6951606328854884e+18,-21.0,-85.0,-12.0,-3.0,-7.0,-11.0,-16.0,-19.0
1.6951606328854884e+18,19.0,74.0,30.0,22.0,29.0,19.0,15.0,-3.0
1.695160632909474e+18,-26.0,-44.0,-20.0,-9.0,-9.0,-11.0,-17.0,7.0
1.6951606329104735e+18,39.0,34.0,14.0,-20.0,-79.0,-29.0,6.0,-22.0
1.6951606329104735e+18,17.0,-56.0,-31.0,21.0,37.0,27.0,-2.0,8.0
1.6951606329104735e+18,-74.0,36.0,38.0,-24.0,-55.0,-1.0,7.0,38.0
1.6951606329454546e+18,71.0,31.0,-12.0,21.0,51.0,15.0,13.0,-38.0
1.6951606329474537e+18,-48.0,-97.0,-34.0,-20.0,-67.0,-12.0,-7.0,57.0
1.6951606329474537e+18,11.0,42.0,19.0,47.0,43.0,29.0,19.0,-26.0
1.6951606329474537e+18,0.0,-47.0,-44.0,-9.0,-59.0,-72.0,-31.0,32.0
1.6951606329494564e+18,-15.0,6.0,6.0,19.0,32.0,25.0,-13.0,-15.0
1.6951606329494564e+18,3.0,-65.0,28.0,-10.0,15.0,-4.0,1.0,-37.0
1.695160632958446e+18,-55.0,80.0,-18.0,-55.0,-44.0,-21.0,-2.0,-24.0
1.695160632958446e+18,-16.0,57.0,-15.0,-9.0,-25.0,-7.0,-12.0,-1.0
1.695160632981432e+18,8.0,-28.0,26.0,43.0,41.0,1.0,3.0,8.0
1.695160632982438e+18,-29.0,-93.0,-27.0,-18.0,12.0,3.0,-9.0,-51.0
1.695160632982438e+18,3.0,84.0,14.0,23.0,52.0,17.0,16.0,33.0
1.6951606329844567e+18,41.0,-10.0,7.0,-16.0,-14.0,6.0,2.0,-27.0
1.6951606329964242e+18,-28.0,-37.0,-20.0,-57.0,-63.0,-15.0,13.0,45.0
1.6951606329974308e+18,-14.0,-61.0,-27.0,28.0,101.0,32.0,6.0,14.0
1.6951606329974308e+18,20.0,-78.0,26.0,-42.0,-75.0,-19.0,-22.0,-55.0
1.6951606329984348e+18,-72.0,-9.0,-54.0,-40.0,-82.0,-47.0,-15.0,-27.0
1.6951606330194117e+18,19.0,28.0,29.0,100.0,107.0,53.0,35.0,47.0
1.695160633020411e+18,13.0,72.0,9.0,-11.0,-29.0,17.0,-6.0,-2.0
1.695160633020411e+18,2.0,-3.0,-20.0,-64.0,-73.0,-46.0,-37.0,24.0
1.695160633020411e+18,16.0,-26.0,6.0,71.0,23.0,21.0,17.0,-10.0
1.6951606330364017e+18,34.0,-45.0,-28.0,-21.0,-28.0,8.0,13.0,-3.0
1.6951606330364017e+18,-21.0,23.0,20.0,-39.0,9.0,-17.0,-9.0,18.0
1.6951606330493957e+18,64.0,23.0,-59.0,17.0,21.0,2.0,3.0,-12.0
1.6951606330503954e+18,-23.0,38.0,15.0,14.0,53.0,19.0,3.0,-19.0
1.6951606330503954e+18,-55.0,-61.0,23.0,-14.0,-31.0,-16.0,3.0,3.0
1.6951606330503954e+18,13.0,16.0,11.0,18.0,29.0,20.0,2.0,0.0
1.6951606330513933e+18,18.0,-42.0,-63.0,-31.0,-32.0,-21.0,8.0,18.0
1.6951606330513933e+18,-23.0,-5.0,69.0,-2.0,22.0,21.0,8.0,-40.0
1.695160633064386e+18,65.0,68.0,-44.0,-61.0,-85.0,-44.0,-20.0,34.0
1.6951606330793782e+18,-98.0,-102.0,-36.0,6.0,-40.0,2.0,-26.0,-31.0
1.6951606330793782e+18,-11.0,84.0,20.0,-44.0,-23.0,-14.0,12.0,32.0
1.6951606330793782e+18,9.0,4.0,-23.0,41.0,33.0,17.0,14.0,8.0
1.6951606330943672e+18,-6.0,88.0,23.0,-43.0,-72.0,-35.0,-18.0,-39.0
1.6951606330943672e+18,-25.0,-51.0,5.0,33.0,30.0,0.0,-2.0,-12.0
1.6951606330943672e+18,19.0,21.0,22.0,28.0,-7.0,4.0,4.0,48.0
1.695160633095367e+18,4.0,48.0,-7.0,-19.0,-10.0,9.0,0.0,3.0
1.695160633108362e+18,-20.0,-5.0,-12.0,-35.0,-37.0,-40.0,-35.0,-36.0
1.695160633108362e+18,42.0,91.0,-28.0,-12.0,-7.0,-9.0,11.0,-1.0
1.695160633109359e+18,-88.0,-86.0,-3.0,45.0,1.0,18.0,2.0,-30.0
1.695160633109359e+18,29.0,48.0,58.0,-25.0,-60.0,-37.0,-25.0,-5.0
1.6951606331233513e+18,2.0,-96.0,-18.0,37.0,7.0,9.0,15.0,14.0
1.6951606331233513e+18,-19.0,34.0,4.0,8.0,45.0,32.0,17.0,23.0
1.6951606331233513e+18,32.0,20.0,-29.0,-91.0,-72.0,-26.0,-20.0,-67.0
1.6951606331233513e+18,26.0,58.0,-9.0,36.0,23.0,7.0,10.0,53.0
1.6951606331473375e+18,-31.0,-34.0,12.0,-31.0,-57.0,3.0,7.0,-11.0
1.695160633148339e+18,19.0,96.0,77.0,63.0,50.0,3.0,4.0,59.0
1.695160633148339e+18,60.0,-19.0,-74.0,-28.0,-21.0,11.0,5.0,-14.0
1.695160633148339e+18,-32.0,32.0,26.0,1.0,15.0,12.0,11.0,-13.0
1.695160633160329e+18,-36.0,-51.0,-54.0,-63.0,-59.0,-8.0,-22.0,-73.0
1.695160633160329e+18,-4.0,92.0,63.0,35.0,86.0,25.0,34.0,45.0
1.6951606331613297e+18,-52.0,-86.0,-51.0,30.0,-3.0,-16.0,-29.0,-20.0
1.6951606331613297e+18,43.0,-16.0,-18.0,-64.0,-40.0,-8.0,4.0,20.0
1.6951606331843177e+18,33.0,124.0,51.0,62.0,80.0,26.0,7.0,-5.0
1.6951606331843177e+18,-26.0,-108.0,-70.0,-74.0,-128.0,-17.0,-4.0,-47.0
1.6951606331853148e+18,14.0,74.0,82.0,36.0,64.0,18.0,-1.0,36.0
1.6951606331853148e+18,-26.0,-36.0,-53.0,9.0,49.0,15.0,6.0,-5.0
1.695160633209304e+18,41.0,109.0,45.0,9.0,-5.0,-17.0,-9.0,1.0
1.695160633209304e+18,-22.0,-44.0,-36.0,-7.0,14.0,4.0,-15.0,17.0
1.695160633209304e+18,-20.0,-25.0,-6.0,63.0,34.0,17.0,17.0,3.0
1.6951606332103045e+18,15.0,1.0,23.0,-24.0,-10.0,-17.0,-29.0,-28.0
1.6951606332202954e+18,34.0,107.0,23.0,-21.0,-7.0,10.0,16.0,-6.0
1.6951606332202954e+18,-34.0,-41.0,-38.0,-45.0,-86.0,-50.0,-27.0,1.0
1.6951606332212943e+18,28.0,-9.0,6.0,-30.0,-13.0,-2.0,16.0,33.0
1.6951606332212943e+18,-78.0,-128.0,-1.0,80.0,80.0,22.0,1.0,1.0
1.6951606332512794e+18,3.0,-18.0,-34.0,-30.0,11.0,1.0,-3.0,-5.0
1.6951606332512794e+18,74.0,27.0,0.0,3.0,-24.0,-22.0,-4.0,10.0
1.695160633252281e+18,-73.0,22.0,51.0,10.0,11.0,7.0,2.0,-49.0
1.695160633252281e+18,8.0,-24.0,-3.0,-16.0,-28.0,-14.0,-14.0,-22.0
1.6951606332662687e+18,47.0,98.0,73.0,73.0,97.0,48.0,48.0,81.0
1.6951606332662687e+18,-74.0,-79.0,-94.0,-76.0,-21.0,-2.0,-7.0,1.0
1.6951606332662687e+18,44.0,90.0,17.0,35.0,-12.0,4.0,-3.0,3.0
1.6951606332672701e+18,-18.0,-66.0,-10.0,-12.0,-1.0,-10.0,-20.0,10.0
1.6951606332882588e+18,-35.0,-24.0,4.0,39.0,-3.0,-18.0,-16.0,-20.0
1.6951606332892595e+18,33.0,68.0,48.0,6.0,20.0,35.0,32.0,-28.0
1.6951606332892595e+18,3.0,-4.0,-4.0,6.0,14.0,-6.0,-10.0,13.0
1.6951606332892595e+18,6.0,3.0,-8.0,-28.0,-29.0,-14.0,5.0,-14.0
1.6951606333276152e+18,29.0,-51.0,6.0,21.0,-17.0,9.0,9.0,13.0
1.6951606333276152e+18,14.0,9.0,-4.0,40.0,68.0,12.0,10.0,16.0
1.6951606333286124e+18,2.0,0.0,19.0,-27.0,-13.0,2.0,4.0,0.0
1.6951606333286124e+18,39.0,22.0,-13.0,-19.0,-3.0,6.0,0.0,6.0
1.695160633329611e+18,-49.0,-34.0,-36.0,-10.0,-17.0,-20.0,-24.0,-14.0
1.695160633329611e+18,14.0,44.0,40.0,21.0,7.0,1.0,9.0,-12.0
1.6951606333326152e+18,5.0,-10.0,11.0,7.0,5.0,-6.0,-7.0,2.0
1.6951606333326152e+18,6.0,27.0,-12.0,29.0,0.0,7.0,2.0,8.0
1.6951606333537096e+18,-30.0,-12.0,-12.0,-29.0,2.0,-3.0,0.0,19.0
1.6951606333547098e+18,14.0,0.0,9.0,2.0,-9.0,-23.0,-44.0,-38.0
1.6951606333547098e+18,4.0,9.0,12.0,3.0,0.0,0.0,-1.0,10.0
1.6951606333547098e+18,-21.0,-16.0,-34.0,-39.0,-19.0,2.0,10.0,42.0
1.695160633371596e+18,30.0,-3.0,-7.0,8.0,-9.0,-7.0,-6.0,-27.0
1.695160633371596e+18,38.0,20.0,7.0,-4.0,0.0,0.0,-6.0,-9.0
1.695160633371596e+18,18.0,-3.0,11.0,19.0,7.0,0.0,20.0,21.0
1.695160633371596e+18,-26.0,1.0,5.0,0.0,4.0,9.0,-1.0,-12.0
1.6951606333865533e+18,-27.0,-12.0,-13.0,-8.0,4.0,3.0,-19.0,7.0
1.6951606333865533e+18,12.0,16.0,4.0,7.0,1.0,-8.0,13.0,-1.0
1.6951606333865533e+18,0.0,2.0,-3.0,-15.0,-8.0,0.0,5.0,0.0
1.6951606333865533e+18,-6.0,-6.0,5.0,6.0,-11.0,2.0,7.0,-24.0
1.6951606334005532e+18,2.0,-1.0,-23.0,-16.0,-1.0,-7.0,-5.0,35.0
1.6951606334005532e+18,21.0,6.0,50.0,14.0,1.0,3.0,-1.0,-3.0
1.695160633408547e+18,6.0,-3.0,-24.0,-5.0,9.0,0.0,2.0,12.0
1.6951606334095468e+18,6.0,5.0,4.0,42.0,10.0,6.0,3.0,-9.0
1.6951606334235374e+18,-27.0,-14.0,-44.0,-40.0,2.0,-1.0,-7.0,-14.0
1.6951606334235374e+18,-33.0,8.0,24.0,-8.0,-14.0,-3.0,4.0,-13.0
1.6951606334315548e+18,89.0,1.0,-22.0,-31.0,-4.0,-2.0,2.0,15.0
1.6951606334325325e+18,-5.0,5.0,28.0,-10.0,3.0,-3.0,-10.0,-8.0
1.6951606334614712e+18,8.0,5.0,6.0,39.0,-4.0,-2.0,7.0,1.0
1.6951606334624714e+18,16.0,-1.0,-44.0,-71.0,-4.0,6.0,2.0,12.0
1.6951606334624714e+18,-41.0,4.0,34.0,56.0,17.0,4.0,0.0,4.0
1.6951606334624714e+18,25.0,-6.0,-18.0,-23.0,-11.0,-4.0,-1.0,-6.0
1.6951606334634706e+18,-9.0,-3.0,13.0,28.0,15.0,3.0,2.0,-6.0
1.6951606334644692e+18,8.0,9.0,21.0,25.0,-2.0,2.0,1.0,25.0
1.695160633475433e+18,-35.0,-15.0,-32.0,-77.0,-14.0,-4.0,-7.0,-24.0
1.6951606334764116e+18,25.0,20.0,5.0,12.0,2.0,6.0,23.0,14.0
1.6951606334844073e+18,12.0,2.0,35.0,9.0,5.0,3.0,-2.0,12.0
1.6951606334844073e+18,-18.0,-1.0,-16.0,35.0,6.0,6.0,8.0,-4.0
1.6951606334854067e+18,-49.0,-13.0,0.0,-27.0,-5.0,-6.0,-11.0,-29.0
1.6951606334854067e+18,20.0,12.0,28.0,58.0,11.0,4.0,2.0,23.0
1.6951606335135926e+18,-9.0,-2.0,-31.0,-67.0,-16.0,-6.0,-5.0,-11.0
1.6951606335135926e+18,12.0,2.0,16.0,23.0,9.0,3.0,1.0,-3.0
1.6951606335145892e+18,-4.0,-10.0,-8.0,8.0,-11.0,-5.0,-8.0,-8.0
1.6951606335145892e+18,29.0,0.0,-27.0,-19.0,-1.0,-1.0,0.0,19.0
1.6951606335365507e+18,-7.0,7.0,31.0,31.0,13.0,4.0,4.0,-3.0
1.6951606335365507e+18,-20.0,-13.0,-22.0,-29.0,-4.0,-2.0,0.0,-2.0
1.6951606335365507e+18,-14.0,4.0,11.0,20.0,-9.0,-3.0,-3.0,-11.0
1.6951606335365507e+18,-2.0,-4.0,-9.0,-2.0,-4.0,-5.0,-10.0,7.0
1.695160633551425e+18,21.0,6.0,-6.0,21.0,5.0,3.0,3.0,4.0
1.695160633551425e+18,-8.0,3.0,1.0,-21.0,-3.0,-1.0,-1.0,1.0
1.695160633551425e+18,-7.0,-4.0,16.0,23.0,3.0,0.0,0.0,-2.0
1.695160633551425e+18,5.0,0.0,5.0,-5.0,1.0,-1.0,-4.0,-9.0
1.6951606335735112e+18,-8.0,1.0,1.0,8.0,-1.0,1.0,2.0,0.0
1.6951606335744655e+18,-11.0,-1.0,-1.0,8.0,-4.0,-1.0,2.0,2.0
1.6951606335744655e+18,25.0,7.0,2.0,-2.0,0.0,0.0,-1.0,-3.0
1.6951606335744655e+18,-10.0,-1.0,10.0,12.0,0.0,-1.0,-4.0,-7.0
1.6951606335888712e+18,16.0,-11.0,-23.0,-42.0,-7.0,-2.0,1.0,4.0
1.6951606335888712e+18,-26.0,5.0,4.0,4.0,-1.0,-6.0,-3.0,-11.0
1.6951606336045857e+18,8.0,4.0,0.0,7.0,1.0,6.0,3.0,16.0
1.6951606336045857e+18,-12.0,-5.0,7.0,19.0,5.0,1.0,-1.0,1.0
1.6951606336065856e+18,-10.0,0.0,11.0,15.0,-3.0,-2.0,2.0,6.0
1.6951606336065856e+18,3.0,-1.0,-6.0,6.0,-4.0,-1.0,0.0,-6.0
1.6951606336065856e+18,26.0,6.0,1.0,2.0,5.0,0.0,2.0,17.0
1.6951606336065856e+18,-17.0,-10.0,1.0,-26.0,-2.0,-4.0,-1.0,1.0
1.695160633626344e+18,-35.0,-3.0,9.0,22.0,1.0,-2.0,-4.0,-15.0
1.695160633626344e+18,18.0,3.0,4.0,20.0,-2.0,-2.0,-2.0,4.0
1.695160633626344e+18,-10.0,-4.0,3.0,-7.0,4.0,2.0,1.0,0.0
1.695160633627342e+18,4.0,-2.0,-17.0,-7.0,-6.0,-1.0,-2.0,-1.0
1.6951606336643223e+18,14.0,-3.0,-8.0,2.0,-1.0,0.0,1.0,-1.0
1.6951606336643223e+18,-6.0,-2.0,-6.0,-28.0,-4.0,-2.0,0.0,2.0
1.6951606336643223e+18,1.0,-1.0,19.0,29.0,0.0,-2.0,-3.0,-8.0
1.6951606336653202e+18,1.0,-2.0,-20.0,-41.0,-1.0,-2.0,0.0,-6.0
1.6951606337022994e+18,1.0,-3.0,-2.0,7.0,-3.0,-1.0,0.0,-3.0
1.6951606337022994e+18,-13.0,-1.0,3.0,6.0,1.0,1.0,-1.0,-7.0
1.6951606337033004e+18,7.0,-1.0,-6.0,-5.0,0.0,1.0,2.0,12.0
1.6951606337033004e+18,-18.0,-1.0,2.0,-10.0,-2.0,-1.0,-3.0,-7.0
1.6951606337182904e+18,2.0,3.0,-4.0,-2.0,-2.0,-2.0,1.0,-1.0
1.6951606337182904e+18,7.0,-1.0,-6.0,-1.0,3.0,1.0,0.0,0.0
1.695160633719292e+18,1.0,0.0,8.0,9.0,0.0,-4.0,-1.0,-2.0
1.695160633719292e+18,-8.0,-3.0,-8.0,-10.0,-3.0,-2.0,-1.0,-4.0
1.6951606337252867e+18,-3.0,-3.0,2.0,-1.0,-4.0,-4.0,-2.0,-2.0
1.6951606337262856e+18,0.0,-3.0,8.0,1.0,0.0,1.0,0.0,-4.0
1.6951606337262856e+18,2.0,-1.0,-14.0,-18.0,-2.0,3.0,0.0,0.0
1.6951606337272855e+18,4.0,2.0,13.0,19.0,-1.0,-1.0,0.0,-12.0
1.6951606337272855e+18,1.0,0.0,-8.0,-7.0,-2.0,-2.0,-1.0,1.0
1.6951606337272855e+18,7.0,2.0,-2.0,-4.0,0.0,-1.0,-1.0,5.0
1.6951606337282852e+18,-1.0,-2.0,-3.0,-5.0,-1.0,-1.0,-1.0,-1.0
1.6951606337282852e+18,-7.0,1.0,3.0,6.0,1.0,2.0,-1.0,-17.0
1.6951606337696637e+18,2.0,-1.0,-2.0,-4.0,1.0,-2.0,1.0,1.0
1.695160633770659e+18,-2.0,1.0,-10.0,-1.0,-2.0,0.0,-1.0,-2.0
1.695160633770659e+18,-7.0,-2.0,4.0,12.0,-2.0,-2.0,-4.0,-3.0
1.695160633770659e+18,2.0,-1.0,0.0,-2.0,0.0,1.0,0.0,5.0
1.695160633772659e+18,-2.0,-2.0,3.0,2.0,-3.0,-1.0,-1.0,-1.0
1.695160633772659e+18,0.0,0.0,1.0,-6.0,1.0,0.0,-1.0,-4.0
1.6951606337756554e+18,-1.0,-3.0,6.0,-2.0,-2.0,-1.0,-3.0,-2.0
1.6951606337756554e+18,4.0,0.0,-4.0,1.0,1.0,-1.0,0.0,3.0
1.695160633791552e+18,-2.0,0.0,7.0,3.0,-3.0,1.0,-2.0,-4.0
1.695160633791552e+18,4.0,3.0,7.0,14.0,3.0,2.0,-1.0,0.0
1.695160633791552e+18,-1.0,2.0,-7.0,-24.0,-1.0,-1.0,-2.0,-3.0
1.695160633791552e+18,-1.0,-2.0,-1.0,-6.0,-2.0,0.0,1.0,3.0
1.6951606338135918e+18,-1.0,0.0,-4.0,-1.0,0.0,1.0,-1.0,1.0
1.6951606338135918e+18,-1.0,-3.0,0.0,3.0,0.0,-2.0,-2.0,-4.0
1.6951606338145866e+18,-1.0,2.0,1.0,-2.0,-1.0,-2.0,-2.0,-2.0
1.6951606338145866e+18,-1.0,-1.0,-1.0,-5.0,-3.0,-1.0,0.0,0.0
1.6951606338285806e+18,-1.0,-2.0,-9.0,3.0,3.0,1.0,-2.0,1.0
1.6951606338285806e+18,1.0,0.0,11.0,-2.0,-4.0,-1.0,-2.0,-2.0
1.6951606338295772e+18,-2.0,-3.0,-14.0,-6.0,1.0,-1.0,1.0,-2.0
1.6951606338295772e+18,0.0,2.0,13.0,4.0,-2.0,-1.0,-1.0,2.0
1.6951606338425687e+18,0.0,-2.0,-3.0,-5.0,-3.0,-2.0,-1.0,-1.0
1.6951606338425687e+18,-2.0,-2.0,-3.0,2.0,-1.0,-3.0,-2.0,-1.0
1.695160633843569e+18,-1.0,-3.0,-20.0,-3.0,1.0,1.0,-1.0,0.0
1.695160633843569e+18,1.0,4.0,14.0,2.0,1.0,-1.0,-2.0,1.0
1.69516063386655e+18,0.0,-1.0,-3.0,-3.0,-1.0,0.0,0.0,-1.0
1.69516063386655e+18,-1.0,-1.0,-6.0,-8.0,-2.0,1.0,1.0,-1.0
1.69516063386655e+18,-2.0,1.0,4.0,6.0,0.0,-1.0,-1.0,-2.0
1.69516063386655e+18,0.0,-2.0,-1.0,2.0,-2.0,-2.0,0.0,0.0
1.695160633888409e+18,-1.0,-2.0,-8.0,-11.0,-2.0,-2.0,-1.0,-1.0
1.695160633888409e+18,-1.0,-2.0,-6.0,0.0,-2.0,2.0,0.0,-2.0
1.6951606338893814e+18,-2.0,-1.0,1.0,1.0,0.0,-1.0,-1.0,-1.0
1.6951606338893814e+18,0.0,-2.0,-1.0,-2.0,0.0,-1.0,0.0,1.0
1.6951606339053737e+18,0.0,0.0,10.0,3.0,0.0,0.0,0.0,-1.0
1.6951606339053737e+18,-1.0,-3.0,-17.0,-7.0,0.0,0.0,0.0,-1.0
1.6951606339063716e+18,-1.0,0.0,7.0,0.0,-1.0,0.0,-2.0,-1.0
1.6951606339063716e+18,-2.0,-2.0,-15.0,0.0,-1.0,1.0,0.0,-1.0
1.6951606339265503e+18,1.0,-1.0,1.0,0.0,0.0,-1.0,-1.0,-2.0
1.6951606339265503e+18,2.0,-1.0,2.0,3.0,0.0,-2.0,-1.0,0.0
1.6951606339265503e+18,-1.0,0.0,2.0,-5.0,-2.0,-1.0,0.0,-3.0
1.6951606339265503e+18,-1.0,-1.0,-1.0,2.0,0.0,-2.0,-2.0,1.0
1.6951606339567836e+18,-1.0,1.0,-5.0,2.0,1.0,0.0,0.0,1.0
1.6951606339567836e+18,-1.0,-3.0,3.0,0.0,-2.0,-1.0,0.0,-2.0
1.6951606339567836e+18,-2.0,-2.0,-2.0,-4.0,-4.0,0.0,-1.0,-1.0
1.6951606339567836e+18,0.0,-2.0,-3.0,-3.0,-3.0,0.0,-1.0,-2.0
1.69516063397979e+18,-2.0,-2.0,-2.0,-1.0,-1.0,3.0,0.0,0.0
1.69516063397979e+18,0.0,-1.0,6.0,2.0,0.0,-1.0,-1.0,-1.0
1.69516063398077e+18,-1.0,-2.0,-1.0,-4.0,-2.0,-3.0,-1.0,0.0
1.69516063398077e+18,0.0,-3.0,-11.0,-3.0,0.0,-1.0,-2.0,-1.0
1.6951606339847867e+18,-1.0,0.0,0.0,-1.0,-1.0,0.0,1.0,0.0
1.695160633985764e+18,-3.0,-2.0,2.0,-1.0,-2.0,0.0,-1.0,-2.0
1.6951606339927818e+18,1.0,-1.0,2.0,1.0,0.0,-1.0,-1.0,-2.0
1.6951606339927818e+18,-1.0,-1.0,-1.0,0.0,-2.0,0.0,0.0,0.0
1.6951606340165914e+18,-1.0,0.0,-3.0,-4.0,-3.0,-1.0,-2.0,-1.0
1.6951606340165914e+18,0.0,1.0,3.0,-2.0,-2.0,-2.0,-2.0,-1.0
1.6951606340175892e+18,1.0,0.0,-5.0,7.0,0.0,0.0,1.0,-2.0
1.6951606340175892e+18,-2.0,-2.0,1.0,-1.0,-2.0,0.0,-1.0,-1.0
1.6951606340225897e+18,1.0,-1.0,-1.0,-3.0,-3.0,-2.0,0.0,1.0
1.6951606340235922e+18,0.0,-1.0,-1.0,-4.0,-1.0,-1.0,-2.0,0.0
1.6951606340235922e+18,0.0,1.0,5.0,-3.0,0.0,0.0,-1.0,0.0
1.6951606340235922e+18,0.0,-3.0,-5.0,1.0,0.0,-1.0,-2.0,0.0
1.6951606340465748e+18,0.0,0.0,1.0,0.0,0.0,-2.0,0.0,-1.0
1.6951606340465748e+18,0.0,-1.0,-1.0,1.0,0.0,-1.0,0.0,2.0
1.6951606340465748e+18,-1.0,0.0,7.0,0.0,-3.0,0.0,0.0,1.0
1.695160634047574e+18,-1.0,-1.0,-10.0,-4.0,0.0,2.0,-1.0,-1.0
1.6951606340685248e+18,-2.0,0.0,2.0,2.0,0.0,-1.0,-2.0,0.0
1.6951606340685248e+18,-1.0,0.0,-2.0,1.0,-1.0,0.0,-1.0,-2.0
1.6951606340695117e+18,-2.0,-1.0,2.0,0.0,1.0,0.0,0.0,1.0
1.6951606340695117e+18,-2.0,0.0,0.0,-4.0,-2.0,-1.0,-1.0,-1.0
1.6951606340915948e+18,-1.0,0.0,6.0,5.0,2.0,0.0,-1.0,-1.0
1.6951606340915948e+18,0.0,1.0,-7.0,-3.0,-2.0,-1.0,-1.0,-1.0
1.6951606340915948e+18,-1.0,-2.0,-3.0,-1.0,-1.0,-1.0,-1.0,-2.0
1.6951606340915948e+18,0.0,0.0,5.0,-3.0,-2.0,-1.0,-1.0,0.0
1.69516063410655e+18,0.0,0.0,-2.0,4.0,-1.0,-1.0,-1.0,-1.0
1.69516063410655e+18,1.0,-1.0,0.0,2.0,-1.0,-1.0,-1.0,0.0
1.69516063410655e+18,0.0,0.0,8.0,-1.0,-2.0,1.0,0.0,0.0
1.69516063410655e+18,-1.0,-1.0,-21.0,-10.0,-1.0,-1.0,-1.0,1.0
1.6951606341285143e+18,0.0,2.0,14.0,7.0,1.0,1.0,1.0,-2.0
1.6951606341285143e+18,0.0,-5.0,-15.0,-9.0,-5.0,-4.0,-1.0,-3.0
1.6951606341295178e+18,-3.0,-1.0,-6.0,-4.0,-2.0,-2.0,-2.0,-2.0
1.6951606341295178e+18,0.0,1.0,9.0,6.0,-2.0,0.0,0.0,-2.0
1.6951606341426396e+18,0.0,-1.0,-8.0,-7.0,-1.0,0.0,0.0,1.0
1.6951606341435794e+18,-2.0,0.0,2.0,3.0,2.0,0.0,-1.0,1.0
1.6951606341435794e+18,-1.0,0.0,-4.0,0.0,2.0,-2.0,0.0,1.0
1.6951606341435794e+18,0.0,-1.0,4.0,1.0,-1.0,-1.0,-1.0,0.0
1.695160634165407e+18,0.0,-1.0,-5.0,-2.0,-1.0,-2.0,0.0,-2.0
1.695160634165407e+18,-2.0,0.0,5.0,1.0,1.0,0.0,0.0,-2.0
1.6951606341664105e+18,0.0,-1.0,-3.0,-1.0,-1.0,-1.0,0.0,1.0
1.6951606341664105e+18,-1.0,0.0,4.0,-1.0,1.0,-1.0,0.0,0.0
1.695160634198448e+18,0.0,-1.0,-2.0,1.0,-3.0,-1.0,-2.0,-1.0
1.695160634198448e+18,-1.0,-1.0,-2.0,-4.0,0.0,0.0,-1.0,0.0
1.6951606342024271e+18,-2.0,0.0,-4.0,-1.0,0.0,0.0,0.0,1.0
1.6951606342024271e+18,0.0,-1.0,0.0,1.0,0.0,0.0,0.0,-2.0
1.6951606342034278e+18,-1.0,-1.0,-5.0,-6.0,-1.0,0.0,-2.0,-1.0
1.6951606342034278e+18,0.0,0.0,0.0,-1.0,-1.0,1.0,-1.0,0.0
1.6951606342044475e+18,-1.0,0.0,-3.0,-1.0,0.0,0.0,-2.0,-2.0
1.6951606342044475e+18,-2.0,-2.0,6.0,1.0,-1.0,-2.0,-2.0,-2.0
1.6951606342330578e+18,0.0,-2.0,-2.0,2.0,1.0,-1.0,-1.0,0.0
1.69516063423406e+18,0.0,0.0,0.0,-1.0,-2.0,-1.0,0.0,-2.0
1.69516063423406e+18,1.0,-1.0,-2.0,1.0,-1.0,0.0,-1.0,0.0
1.69516063423406e+18,-2.0,-1.0,0.0,0.0,-1.0,-1.0,0.0,0.0
1.6951606342560425e+18,0.0,-1.0,3.0,-3.0,-2.0,-3.0,-2.0,-2.0
1.6951606342560425e+18,-1.0,-2.0,0.0,2.0,0.0,-1.0,-2.0,1.0
1.6951606342570422e+18,0.0,-2.0,-2.0,-3.0,-1.0,-1.0,0.0,-2.0
1.6951606342570422e+18,0.0,0.0,0.0,4.0,1.0,-1.0,-1.0,2.0
1.6951606342620616e+18,-4.0,-2.0,-2.0,-2.0,1.0,0.0,1.0,0.0
1.6951606342620616e+18,-1.0,1.0,2.0,-3.0,1.0,-1.0,1.0,0.0
1.6951606342700572e+18,0.0,-1.0,-3.0,-1.0,1.0,1.0,-1.0,-1.0
1.695160634271037e+18,-1.0,-1.0,5.0,-1.0,0.0,1.0,-1.0,0.0
1.6951606342850266e+18,1.0,-1.0,-12.0,-5.0,0.0,-2.0,-2.0,-1.0
1.6951606342850266e+18,-1.0,0.0,5.0,0.0,-1.0,-2.0,-1.0,-3.0
1.6951606342930214e+18,-1.0,-2.0,-8.0,-4.0,-2.0,-3.0,0.0,-1.0
1.6951606342930214e+18,0.0,0.0,0.0,1.0,-1.0,-1.0,0.0,-1.0
1.6951606343169426e+18,-1.0,-2.0,-2.0,-2.0,0.0,0.0,1.0,-1.0
1.6951606343189404e+18,0.0,-1.0,1.0,1.0,0.0,1.0,-1.0,1.0
1.6951606343189404e+18,-2.0,-1.0,0.0,0.0,-1.0,-1.0,-1.0,0.0
1.6951606343189404e+18,1.0,1.0,1.0,-2.0,-1.0,-2.0,1.0,0.0
1.6951606343239485e+18,-1.0,-2.0,2.0,1.0,0.0,-1.0,-1.0,-2.0
1.6951606343239485e+18,-1.0,-1.0,-3.0,0.0,-1.0,1.0,-1.0,-2.0
1.695160634329934e+18,0.0,0.0,2.0,-1.0,-1.0,0.0,-1.0,-2.0
1.6951606343309335e+18,-3.0,-2.0,-1.0,9.0,-2.0,-2.0,-3.0,-2.0
1.6951606343455905e+18,0.0,1.0,1.0,-2.0,1.0,-1.0,-1.0,1.0
1.6951606343455905e+18,1.0,0.0,-1.0,-2.0,-1.0,0.0,-1.0,0.0
1.6951606343455905e+18,1.0,-1.0,0.0,-2.0,-1.0,0.0,-1.0,1.0
1.6951606343455905e+18,1.0,-1.0,1.0,-3.0,0.0,0.0,-1.0,-1.0
1.695160634370312e+18,-2.0,0.0,1.0,1.0,-2.0,-1.0,-1.0,-1.0
1.695160634370312e+18,1.0,-1.0,1.0,-1.0,0.0,-2.0,-2.0,1.0
1.6951606343713119e+18,-2.0,-2.0,-2.0,-1.0,-1.0,-1.0,0.0,-1.0
1.6951606343713119e+18,-1.0,0.0,1.0,-1.0,2.0,1.0,0.0,-1.0
1.695160634382437e+18,-1.0,0.0,-4.0,-1.0,-2.0,-1.0,0.0,-1.0
1.695160634382437e+18,-2.0,-3.0,-2.0,-3.0,-2.0,0.0,0.0,-2.0
1.6951606344065705e+18,1.0,2.0,3.0,0.0,0.0,-1.0,-1.0,0.0
1.6951606344065705e+18,-1.0,-2.0,-3.0,-4.0,-1.0,-1.0,0.0,0.0
1.6951606344085747e+18,-1.0,0.0,3.0,0.0,0.0,-1.0,0.0,-1.0
1.6951606344085747e+18,-1.0,-1.0,-2.0,-3.0,0.0,-2.0,0.0,0.0
1.695160634409573e+18,0.0,-2.0,-13.0,-1.0,-1.0,0.0,-1.0,-1.0
1.695160634409573e+18,1.0,0.0,4.0,3.0,-2.0,-1.0,-2.0,-1.0
1.6951606344365496e+18,1.0,-1.0,-3.0,-3.0,-2.0,0.0,0.0,-1.0
1.6951606344365496e+18,0.0,0.0,6.0,2.0,-1.0,0.0,-2.0,-3.0
1.6951606344365496e+18,0.0,-2.0,1.0,0.0,1.0,1.0,2.0,-1.0
1.6951606344365496e+18,-1.0,3.0,-7.0,-3.0,0.0,0.0,-2.0,-2.0
1.6951606344425505e+18,-5.0,-3.0,2.0,1.0,0.0,-1.0,-2.0,-1.0
1.6951606344425505e+18,0.0,0.0,-1.0,0.0,0.0,-3.0,-1.0,0.0
1.6951606344574945e+18,-2.0,1.0,3.0,2.0,-1.0,-1.0,-1.0,0.0
1.695160634458489e+18,0.0,0.0,-1.0,-2.0,-1.0,0.0,1.0,0.0
1.6951606344794775e+18,3.0,1.0,2.0,1.0,-2.0,1.0,-1.0,1.0
1.6951606344794775e+18,-1.0,2.0,-2.0,-2.0,0.0,1.0,-2.0,-3.0
1.6951606344804785e+18,-1.0,0.0,4.0,-1.0,-1.0,-2.0,0.0,0.0
1.6951606344804785e+18,-1.0,-4.0,-3.0,-2.0,2.0,-2.0,-1.0,-1.0
1.695160634496551e+18,-3.0,-1.0,-4.0,-3.0,-3.0,-1.0,0.0,0.0
1.695160634496551e+18,-2.0,0.0,-8.0,-2.0,0.0,-1.0,-1.0,-1.0
1.695160634496551e+18,0.0,5.0,3.0,0.0,-1.0,-1.0,1.0,0.0
1.695160634496551e+18,0.0,0.0,-4.0,0.0,1.0,-1.0,-1.0,-1.0
1.6951606345024376e+18,2.0,-10.0,5.0,0.0,1.0,0.0,-2.0,0.0
1.6951606345024376e+18,0.0,-1.0,-2.0,0.0,-1.0,0.0,2.0,1.0
1.6951606345104315e+18,-1.0,0.0,1.0,-1.0,0.0,-3.0,-1.0,-1.0
1.6951606345104315e+18,-2.0,0.0,-1.0,-1.0,0.0,-1.0,-1.0,0.0
1.6951606345344197e+18,0.0,2.0,3.0,-2.0,0.0,-1.0,0.0,-2.0
1.695160634535419e+18,-3.0,-3.0,-15.0,-3.0,-2.0,-1.0,1.0,-1.0
1.695160634535419e+18,0.0,-2.0,6.0,5.0,-1.0,1.0,0.0,-2.0
1.695160634535419e+18,-1.0,0.0,-1.0,-3.0,-3.0,-1.0,-2.0,0.0
1.6951606345733955e+18,-2.0,1.0,-2.0,-2.0,0.0,0.0,-1.0,-2.0
1.6951606345733955e+18,-1.0,-3.0,3.0,1.0,0.0,-1.0,0.0,1.0
1.6951606345733955e+18,-1.0,-2.0,-6.0,-3.0,-1.0,1.0,-2.0,-3.0
1.6951606345744013e+18,-1.0,-2.0,-1.0,1.0,0.0,-1.0,-1.0,0.0
1.6951606345784348e+18,-2.0,1.0,-3.0,-1.0,-1.0,-1.0,-2.0,-2.0
1.6951606345784348e+18,0.0,0.0,1.0,1.0,-1.0,0.0,0.0,-3.0
1.6951606345793976e+18,-3.0,-2.0,-2.0,0.0,-1.0,0.0,-2.0,0.0
1.6951606345793976e+18,-1.0,-2.0,1.0,-2.0,-2.0,1.0,0.0,-1.0
1.6951606345853583e+18,0.0,0.0,-1.0,-2.0,0.0,-1.0,0.0,0.0
1.6951606345853583e+18,0.0,-1.0,1.0,-2.0,-2.0,-1.0,-1.0,-2.0
1.6951606345863619e+18,0.0,-3.0,-1.0,2.0,-1.0,-2.0,-1.0,-1.0
1.6951606345863619e+18,0.0,1.0,2.0,-1.0,0.0,1.0,1.0,-1.0
1.6951606346100562e+18,0.0,-2.0,-6.0,-1.0,0.0,-1.0,1.0,-1.0
1.6951606346100562e+18,0.0,-2.0,-2.0,-1.0,-1.0,0.0,0.0,-1.0
1.6951606346100562e+18,1.0,2.0,6.0,5.0,2.0,0.0,0.0,-1.0
1.6951606346110572e+18,-2.0,-2.0,-6.0,-1.0,-3.0,-1.0,0.0,0.0
1.6951606346305815e+18,0.0,0.0,4.0,3.0,1.0,0.0,-1.0,0.0
1.6951606346315873e+18,0.0,2.0,6.0,-2.0,0.0,0.0,0.0,-1.0
1.6951606346315873e+18,-2.0,-2.0,-9.0,-3.0,1.0,-2.0,-1.0,-1.0
1.6951606346325852e+18,0.0,-1.0,4.0,2.0,-1.0,-1.0,0.0,-1.0
1.6951606346494326e+18,-1.0,-1.0,1.0,0.0,1.0,-2.0,0.0,0.0
1.695160634650454e+18,-1.0,-1.0,-3.0,-2.0,-1.0,-1.0,1.0,1.0
1.695160634650454e+18,-2.0,-1.0,4.0,5.0,-1.0,-1.0,-3.0,-1.0
1.695160634650454e+18,-1.0,-1.0,-7.0,-3.0,-1.0,-1.0,0.0,-1.0
1.695160634668443e+18,0.0,0.0,-1.0,-1.0,-3.0,2.0,-1.0,-3.0
1.695160634668443e+18,-1.0,-1.0,-1.0,-3.0,-1.0,-1.0,-1.0,-1.0
1.6951606346694203e+18,0.0,-1.0,0.0,-3.0,0.0,1.0,0.0,-1.0
1.6951606346694203e+18,-1.0,-2.0,-1.0,0.0,1.0,-1.0,-2.0,-1.0
1.6951606346985477e+18,-3.0,-1.0,-2.0,1.0,-1.0,-2.0,0.0,-1.0
1.6951606346985477e+18,-1.0,1.0,0.0,1.0,-1.0,-1.0,-1.0,1.0
1.6951606346995075e+18,-1.0,-2.0,-1.0,-2.0,-1.0,-2.0,0.0,-1.0
1.6951606346995075e+18,-1.0,-3.0,0.0,-1.0,-1.0,-2.0,0.0,-1.0
1.695160634705505e+18,-1.0,-2.0,-3.0,-4.0,1.0,-1.0,-1.0,1.0
1.695160634705505e+18,-2.0,-1.0,-1.0,2.0,-1.0,0.0,0.0,1.0
1.695160634706501e+18,0.0,0.0,-2.0,2.0,3.0,1.0,0.0,2.0
1.695160634706501e+18,-1.0,0.0,0.0,-1.0,2.0,1.0,0.0,0.0
1.6951606347275085e+18,1.0,1.0,3.0,1.0,-2.0,-3.0,-1.0,-1.0
1.695160634728508e+18,2.0,1.0,5.0,-1.0,-2.0,-3.0,-1.0,0.0
1.695160634735685e+18,1.0,-1.0,-3.0,-2.0,1.0,0.0,1.0,-1.0
1.695160634735685e+18,0.0,0.0,3.0,-5.0,2.0,3.0,4.0,2.0
1.6951606347573883e+18,-1.0,0.0,-3.0,3.0,3.0,0.0,-3.0,0.0
1.6951606347573883e+18,-1.0,0.0,10.0,4.0,0.0,0.0,0.0,0.0
1.6951606347653857e+18,0.0,1.0,-8.0,-9.0,-3.0,-4.0,0.0,1.0
1.6951606347653857e+18,0.0,-2.0,0.0,6.0,-3.0,-3.0,-5.0,0.0
1.6951606347743813e+18,-2.0,-2.0,-3.0,-6.0,-7.0,-5.0,-1.0,-2.0
1.6951606347753805e+18,-1.0,0.0,4.0,-1.0,0.0,2.0,2.0,0.0
1.6951606347764037e+18,0.0,-1.0,0.0,-2.0,6.0,6.0,2.0,2.0
1.6951606347764037e+18,-1.0,0.0,-2.0,0.0,0.0,-2.0,-1.0,-1.0
1.6951606347884099e+18,-3.0,-4.0,-9.0,-9.0,-9.0,-4.0,-4.0,-2.0
1.6951606347884099e+18,0.0,0.0,-3.0,5.0,-2.0,-5.0,-3.0,-1.0
1.6951606348120568e+18,0.0,1.0,3.0,-1.0,-2.0,0.0,1.0,-1.0
1.6951606348120568e+18,-1.0,-1.0,-5.0,0.0,3.0,0.0,1.0,1.0
1.6951606348120568e+18,1.0,1.0,3.0,-6.0,3.0,8.0,2.0,1.0
1.6951606348120568e+18,-2.0,0.0,-4.0,-4.0,-1.0,-3.0,-2.0,0.0
1.6951606348170568e+18,0.0,0.0,14.0,15.0,10.0,3.0,-1.0,-1.0
1.6951606348170568e+18,-1.0,-1.0,-8.0,-2.0,-4.0,-1.0,-1.0,-1.0
1.695160634824071e+18,-1.0,3.0,20.0,4.0,2.0,6.0,2.0,-2.0
1.69516063482505e+18,4.0,-5.0,-21.0,11.0,5.0,3.0,-2.0,2.0
1.6951606348415145e+18,-2.0,-1.0,4.0,-14.0,-8.0,-6.0,-2.0,-2.0
1.6951606348415145e+18,0.0,2.0,11.0,7.0,-3.0,-1.0,-1.0,1.0
1.6951606348485427e+18,1.0,0.0,-2.0,2.0,-1.0,-7.0,1.0,0.0
1.6951606348485427e+18,1.0,1.0,6.0,9.0,9.0,9.0,2.0,3.0
1.6951606348504806e+18,0.0,-1.0,3.0,-9.0,-8.0,-4.0,-5.0,-9.0
1.6951606348504806e+18,-2.0,-2.0,-3.0,-4.0,-4.0,-5.0,-2.0,-4.0
1.6951606348714906e+18,2.0,2.0,-6.0,2.0,-4.0,-3.0,2.0,3.0
1.6951606348714906e+18,-2.0,-1.0,0.0,1.0,2.0,-7.0,2.0,-2.0
1.6951606348734674e+18,0.0,-2.0,-4.0,5.0,6.0,7.0,1.0,2.0
1.6951606348734674e+18,-1.0,-2.0,10.0,-6.0,-1.0,4.0,0.0,0.0
1.6951606348844603e+18,2.0,-2.0,-7.0,-12.0,-6.0,-6.0,-3.0,-3.0
1.6951606348844603e+18,-1.0,2.0,-2.0,3.0,4.0,2.0,0.0,1.0
1.6951606349015311e+18,-2.0,-1.0,-4.0,-10.0,-3.0,2.0,-1.0,1.0
1.6951606349015311e+18,1.0,0.0,1.0,-1.0,-1.0,-2.0,-3.0,-1.0
1.6951606349234355e+18,-2.0,-2.0,-1.0,0.0,0.0,-6.0,-4.0,-1.0
1.6951606349244352e+18,-2.0,-3.0,-12.0,-22.0,-14.0,-1.0,-1.0,-3.0
1.6951606349324296e+18,-2.0,-2.0,0.0,10.0,9.0,2.0,0.0,1.0
1.6951606349324296e+18,0.0,0.0,2.0,11.0,10.0,2.0,1.0,-1.0
1.6951606349324296e+18,-2.0,0.0,0.0,4.0,-17.0,-4.0,1.0,0.0
1.6951606349334298e+18,-4.0,-4.0,-1.0,-20.0,0.0,-4.0,-6.0,-4.0
1.6951606349344287e+18,0.0,0.0,-5.0,-3.0,-10.0,-4.0,2.0,0.0
1.6951606349354284e+18,-2.0,0.0,-7.0,-11.0,-11.0,0.0,-1.0,-1.0
1.6951606349534177e+18,-2.0,-4.0,1.0,10.0,17.0,1.0,0.0,1.0
1.6951606349544184e+18,-1.0,-2.0,1.0,-9.0,-20.0,-1.0,0.0,-3.0
1.695160634962415e+18,0.0,1.0,3.0,1.0,-1.0,0.0,0.0,3.0
1.6951606349634127e+18,-2.0,-4.0,-7.0,-1.0,2.0,-7.0,-3.0,-3.0
1.6951606349764093e+18,1.0,2.0,-3.0,2.0,-7.0,1.0,1.0,0.0
1.6951606349784046e+18,0.0,-6.0,5.0,-4.0,7.0,4.0,-2.0,-1.0
1.6951606349794045e+18,1.0,4.0,-8.0,0.0,2.0,-1.0,-1.0,-2.0
1.6951606349804037e+18,1.0,3.0,11.0,2.0,-1.0,3.0,3.0,2.0
1.6951606349913958e+18,-4.0,1.0,10.0,0.0,3.0,-2.0,-4.0,-3.0
1.6951606349923958e+18,-4.0,-2.0,-17.0,-16.0,-6.0,-7.0,-3.0,-3.0
1.695160634993395e+18,2.0,-8.0,-2.0,14.0,-2.0,-2.0,1.0,4.0
1.695160634993395e+18,-3.0,1.0,0.0,20.0,40.0,10.0,2.0,-5.0
1.695160635014383e+18,2.0,1.0,1.0,6.0,-5.0,-4.0,-1.0,10.0
1.695160635014383e+18,-5.0,-6.0,3.0,6.0,-19.0,-11.0,-5.0,-3.0
1.6951606350173809e+18,-1.0,-3.0,-10.0,0.0,24.0,8.0,1.0,-1.0
1.6951606350173809e+18,6.0,3.0,-1.0,-23.0,-13.0,1.0,3.0,7.0
1.6951606350353708e+18,-7.0,-5.0,-9.0,-13.0,-3.0,4.0,-1.0,-14.0
1.69516063503637e+18,6.0,4.0,3.0,5.0,0.0,-1.0,0.0,7.0
1.6951606350443681e+18,-7.0,0.0,-7.0,-7.0,-20.0,-12.0,-6.0,-8.0
1.6951606350453652e+18,-3.0,-3.0,14.0,24.0,9.0,2.0,-1.0,-1.0
1.695160635065357e+18,-2.0,-5.0,-32.0,-23.0,10.0,7.0,3.0,-5.0
1.6951606350663534e+18,-1.0,1.0,9.0,1.0,-8.0,1.0,4.0,8.0
1.695160635090339e+18,-5.0,14.0,26.0,20.0,-1.0,-7.0,-5.0,-7.0
1.6951606350913382e+18,4.0,-6.0,-3.0,-5.0,-2.0,2.0,-4.0,-4.0
1.6951606350913382e+18,15.0,-18.0,-4.0,-23.0,-26.0,-3.0,3.0,16.0
1.6951606350913382e+18,-35.0,-13.0,-3.0,0.0,7.0,-4.0,-4.0,-11.0
1.6951606350953364e+18,-2.0,-4.0,1.0,10.0,16.0,2.0,1.0,3.0
1.695160635096336e+18,9.0,16.0,-15.0,-2.0,-6.0,2.0,3.0,3.0
1.695160635102332e+18,5.0,-11.0,-13.0,5.0,-1.0,-2.0,-7.0,-7.0
1.695160635102332e+18,9.0,0.0,10.0,-22.0,-6.0,-7.0,-7.0,-10.0
1.6951606351103268e+18,26.0,39.0,14.0,22.0,19.0,12.0,4.0,2.0
1.6951606351103268e+18,-27.0,-27.0,-11.0,34.0,32.0,7.0,2.0,8.0
1.695160635128317e+18,-4.0,0.0,14.0,-37.0,-14.0,-4.0,-3.0,-5.0
1.695160635128317e+18,15.0,-3.0,-2.0,-10.0,-13.0,-5.0,-2.0,-3.0
1.695160635128317e+18,6.0,20.0,1.0,0.0,-20.0,-8.0,-4.0,-2.0
1.6951606351293181e+18,6.0,-5.0,6.0,13.0,19.0,5.0,0.0,-1.0
1.695160635157302e+18,12.0,6.0,-4.0,2.0,-4.0,0.0,-2.0,-2.0
1.695160635157302e+18,-1.0,-5.0,-10.0,-3.0,9.0,7.0,5.0,-5.0
1.6951606351583002e+18,-37.0,-15.0,22.0,-4.0,-8.0,-6.0,-5.0,-12.0
1.6951606351583002e+18,34.0,-1.0,-9.0,-7.0,2.0,-1.0,-1.0,5.0
1.695160635159299e+18,-57.0,-45.0,-9.0,-14.0,-12.0,-2.0,1.0,-2.0
1.695160635159299e+18,-17.0,-21.0,-23.0,-13.0,-11.0,-7.0,-11.0,-12.0
1.6951606351712922e+18,25.0,35.0,3.0,2.0,7.0,-4.0,7.0,10.0
1.6951606351712922e+18,20.0,55.0,23.0,-2.0,-13.0,2.0,3.0,6.0
1.6951606351722924e+18,28.0,0.0,-12.0,-10.0,-2.0,5.0,0.0,7.0
1.6951606351732915e+18,-23.0,-46.0,5.0,8.0,20.0,1.0,-2.0,-10.0
1.6951606352012754e+18,-17.0,-27.0,3.0,19.0,4.0,4.0,-6.0,-12.0
1.6951606352012754e+18,-3.0,32.0,12.0,6.0,-3.0,2.0,4.0,-8.0
1.695160635202276e+18,13.0,28.0,-7.0,-12.0,-4.0,-5.0,-5.0,6.0
1.6951606352032735e+18,-3.0,-16.0,-35.0,-16.0,-14.0,-3.0,0.0,-1.0
1.6951606352182868e+18,-21.0,-27.0,0.0,9.0,1.0,-2.0,-7.0,-15.0
1.6951606352182868e+18,21.0,32.0,2.0,-18.0,-42.0,-7.0,2.0,8.0
1.6951606352192663e+18,-5.0,-27.0,34.0,31.0,51.0,14.0,2.0,2.0
1.6951606352192663e+18,50.0,46.0,-21.0,10.0,0.0,3.0,5.0,9.0
1.695160635231257e+18,-17.0,-44.0,-18.0,-35.0,0.0,-4.0,-8.0,-5.0
1.695160635231257e+18,32.0,57.0,13.0,27.0,0.0,-3.0,-2.0,-8.0
1.6951606352322575e+18,-59.0,-85.0,-21.0,1.0,-7.0,-6.0,-5.0,-14.0
1.6951606352322575e+18,-11.0,6.0,0.0,-35.0,-19.0,-11.0,-5.0,-1.0
1.6951606352535608e+18,6.0,21.0,22.0,40.0,5.0,-2.0,1.0,-2.0
1.6951606352535608e+18,12.0,30.0,-15.0,-26.0,27.0,27.0,8.0,9.0
1.6951606352551944e+18,46.0,0.0,-25.0,21.0,29.0,11.0,5.0,4.0
1.6951606352551944e+18,-27.0,45.0,25.0,-15.0,-5.0,4.0,10.0,13.0
1.695160635268565e+18,-11.0,-75.0,-63.0,-41.0,-54.0,-19.0,-3.0,-2.0
1.6951606352695698e+18,-35.0,-47.0,8.0,49.0,51.0,-1.0,-10.0,-15.0
1.6951606352695698e+18,11.0,6.0,18.0,-20.0,-44.0,-7.0,2.0,10.0
1.6951606352705884e+18,13.0,-23.0,-14.0,40.0,64.0,19.0,3.0,-1.0
1.6951606352926067e+18,20.0,127.0,44.0,-7.0,18.0,15.0,10.0,7.0
1.6951606352926067e+18,-33.0,-128.0,-19.0,-15.0,-26.0,-23.0,-12.0,-7.0
1.69516063529363e+18,-7.0,-24.0,-15.0,5.0,-11.0,-3.0,-7.0,-2.0
1.6951606352946058e+18,-6.0,74.0,22.0,-39.0,-42.0,-24.0,-23.0,-39.0
1.6951606353295854e+18,39.0,-13.0,0.0,9.0,19.0,23.0,24.0,42.0
1.6951606353306217e+18,-24.0,-41.0,-34.0,0.0,25.0,-16.0,-5.0,7.0
1.695160635344577e+18,-9.0,38.0,21.0,1.0,-9.0,0.0,-2.0,-9.0
1.6951606353455772e+18,31.0,3.0,-24.0,-13.0,-39.0,-7.0,-6.0,-7.0
1.6951606353625697e+18,-74.0,-18.0,15.0,-1.0,13.0,-10.0,-17.0,-28.0
1.6951606353635702e+18,5.0,22.0,-24.0,-16.0,-54.0,-5.0,8.0,4.0
1.6951606353635702e+18,1.0,-13.0,1.0,14.0,21.0,13.0,2.0,-11.0
1.6951606353635702e+18,3.0,20.0,23.0,14.0,12.0,12.0,12.0,24.0
1.6951606353675628e+18,-7.0,-54.0,-27.0,-8.0,-27.0,-44.0,-24.0,-1.0
1.6951606353675628e+18,18.0,73.0,6.0,-5.0,-17.0,6.0,3.0,2.0
1.6951606353685627e+18,18.0,-3.0,2.0,-4.0,-40.0,8.0,3.0,-26.0
1.6951606353685627e+18,-67.0,-122.0,-23.0,-6.0,20.0,-43.0,-24.0,-1.0
1.6951606353695613e+18,15.0,50.0,-1.0,7.0,21.0,15.0,7.0,-3.0
1.6951606353695613e+18,-11.0,14.0,57.0,14.0,-10.0,-2.0,-4.0,-8.0
1.6951606353815544e+18,-13.0,9.0,-1.0,-9.0,-2.0,11.0,0.0,-19.0
1.6951606353825536e+18,49.0,29.0,2.0,-27.0,-33.0,-10.0,-7.0,7.0
1.6951606353875502e+18,-28.0,-79.0,-3.0,32.0,16.0,8.0,0.0,-15.0
1.6951606353885504e+18,-16.0,8.0,-16.0,-2.0,14.0,-8.0,-15.0,-7.0
1.695160635394551e+18,14.0,28.0,-24.0,-25.0,-22.0,-16.0,4.0,8.0
1.69516063539555e+18,5.0,9.0,44.0,21.0,-11.0,6.0,3.0,-21.0
1.695160635442518e+18,-9.0,25.0,3.0,-24.0,-34.0,-5.0,3.0,15.0
1.6951606354435182e+18,7.0,14.0,-1.0,11.0,18.0,39.0,12.0,-10.0
1.6951606354435182e+18,14.0,-25.0,-4.0,17.0,47.0,-14.0,-9.0,-16.0
1.6951606354445176e+18,-30.0,52.0,2.0,5.0,-4.0,-12.0,-7.0,43.0
1.6951606354445176e+18,-9.0,-21.0,-6.0,-27.0,3.0,-15.0,-9.0,-17.0
1.6951606354455201e+18,-4.0,-37.0,3.0,18.0,10.0,-1.0,-12.0,-17.0
1.69516063545751e+18,-24.0,-20.0,-50.0,-21.0,-12.0,-30.0,-6.0,6.0
1.6951606354585152e+18,26.0,54.0,17.0,25.0,14.0,20.0,1.0,4.0
1.6951606354585152e+18,30.0,44.0,29.0,-1.0,10.0,21.0,25.0,38.0
1.6951606354585152e+18,22.0,-23.0,1.0,-12.0,-23.0,-3.0,12.0,12.0
1.695160635481498e+18,-47.0,4.0,-11.0,-10.0,-46.0,-31.0,-22.0,-23.0
1.6951606354874929e+18,40.0,-11.0,35.0,13.0,44.0,44.0,28.0,12.0
1.6951606354874929e+18,-26.0,-31.0,13.0,-10.0,-32.0,-14.0,-8.0,5.0
1.6951606354884925e+18,-15.0,-3.0,-5.0,2.0,-30.0,-30.0,-11.0,-13.0
1.6951606354884925e+18,21.0,49.0,45.0,-5.0,7.0,12.0,9.0,16.0
1.6951606354884925e+18,-28.0,-18.0,-31.0,-36.0,-65.0,-23.0,-13.0,-24.0
1.6951606354934892e+18,15.0,26.0,18.0,40.0,83.0,12.0,-12.0,27.0
1.6951606354934892e+18,23.0,37.0,-8.0,-31.0,-34.0,17.0,12.0,-16.0
1.6951606354954893e+18,35.0,-43.0,3.0,-4.0,-4.0,-9.0,-19.0,2.0
1.6951606354954893e+18,-61.0,-29.0,-12.0,-39.0,-13.0,-14.0,10.0,3.0
1.6951606355164764e+18,1.0,-23.0,-12.0,14.0,10.0,27.0,10.0,9.0
1.6951606355164764e+18,14.0,83.0,37.0,23.0,43.0,-2.0,-4.0,-24.0
1.6951606355174756e+18,-30.0,6.0,-37.0,18.0,16.0,-15.0,4.0,22.0
1.6951606355174756e+18,16.0,20.0,-8.0,-8.0,-27.0,-35.0,-21.0,-17.0
1.6951606355404636e+18,7.0,-41.0,-18.0,-1.0,-29.0,-2.0,20.0,31.0
1.6951606355404636e+18,15.0,-41.0,9.0,-22.0,-18.0,-6.0,-9.0,0.0
1.6951606355414623e+18,-31.0,34.0,-5.0,-11.0,24.0,14.0,6.0,-12.0
1.6951606355414623e+18,0.0,-61.0,-18.0,58.0,15.0,11.0,-4.0,9.0
1.6951606355444628e+18,20.0,66.0,-60.0,-61.0,-6.0,11.0,-8.0,-37.0
1.6951606355454597e+18,28.0,-55.0,47.0,28.0,-2.0,-14.0,-8.0,29.0
1.6951606355534548e+18,-29.0,-3.0,-42.0,-1.0,-25.0,4.0,2.0,8.0
1.6951606355534548e+18,-19.0,-47.0,17.0,21.0,71.0,3.0,2.0,-13.0
1.6951606355714468e+18,-13.0,-60.0,-19.0,-25.0,13.0,3.0,-15.0,-23.0
1.6951606355724444e+18,-9.0,10.0,-13.0,-26.0,-37.0,5.0,3.0,2.0
1.6951606355744428e+18,57.0,9.0,38.0,24.0,42.0,37.0,32.0,52.0
1.695160635575443e+18,-29.0,-83.0,-12.0,10.0,-50.0,-25.0,-8.0,-13.0
1.6951606356054272e+18,-19.0,42.0,-46.0,-40.0,1.0,7.0,2.0,-1.0
1.6951606356054272e+18,-19.0,46.0,48.0,-20.0,-20.0,-25.0,-10.0,-56.0
1.6951606356444037e+18,29.0,29.0,27.0,23.0,30.0,9.0,-5.0,31.0
1.695160635645405e+18,6.0,37.0,-19.0,-29.0,-42.0,3.0,-2.0,-5.0
1.695160635645405e+18,63.0,-62.0,14.0,7.0,19.0,17.0,21.0,16.0
1.695160635645405e+18,-55.0,11.0,-62.0,-16.0,-36.0,0.0,-12.0,-23.0
1.6951606356474012e+18,6.0,41.0,26.0,-25.0,2.0,16.0,14.0,3.0
1.6951606356474012e+18,15.0,14.0,27.0,19.0,17.0,21.0,13.0,-9.0
1.6951606356574182e+18,-2.0,49.0,37.0,0.0,-59.0,-25.0,-21.0,-16.0
1.6951606356574182e+18,37.0,-4.0,-59.0,-3.0,46.0,19.0,19.0,25.0
1.6951606356833807e+18,5.0,59.0,2.0,17.0,-18.0,-15.0,0.0,-22.0
1.6951606356833807e+18,15.0,-37.0,29.0,10.0,-15.0,19.0,5.0,6.0
1.6951606356843807e+18,33.0,41.0,-60.0,-35.0,-13.0,-16.0,-10.0,-23.0
1.6951606356853798e+18,-19.0,8.0,33.0,50.0,48.0,3.0,11.0,13.0
1.695160635689379e+18,26.0,-7.0,30.0,26.0,26.0,17.0,-15.0,-19.0
1.6951606356903875e+18,-48.0,-96.0,-39.0,-11.0,-5.0,-15.0,14.0,16.0
1.6951606356913795e+18,11.0,20.0,6.0,-6.0,-22.0,7.0,6.0,31.0
1.6951606356913795e+18,42.0,80.0,5.0,-10.0,-6.0,17.0,-13.0,-36.0
1.6951606356923758e+18,12.0,-21.0,6.0,44.0,16.0,-13.0,3.0,14.0
1.6951606356923758e+18,-20.0,-25.0,35.0,-22.0,35.0,0.0,-4.0,-4.0
1.6951606357133637e+18,-26.0,-9.0,2.0,-7.0,-21.0,11.0,2.0,1.0
1.6951606357133637e+18,33.0,-46.0,-41.0,1.0,-10.0,-11.0,4.0,-10.0
1.6951606357133637e+18,-36.0,-1.0,43.0,-11.0,-42.0,-2.0,-13.0,-34.0
1.6951606357143654e+18,24.0,-1.0,-20.0,9.0,-32.0,-15.0,-5.0,22.0
1.6951606357173622e+18,-7.0,-14.0,-12.0,-2.0,17.0,-24.0,-9.0,-17.0
1.6951606357173622e+18,14.0,20.0,23.0,-6.0,7.0,7.0,5.0,22.0
1.6951606357333522e+18,0.0,-16.0,-57.0,-10.0,-28.0,-6.0,-4.0,-16.0
1.6951606357333522e+18,-24.0,-7.0,2.0,18.0,22.0,-33.0,-11.0,4.0
1.6951606357353526e+18,-2.0,-5.0,6.0,-22.0,-18.0,-10.0,-8.0,-21.0
1.6951606357353526e+18,46.0,50.0,-22.0,-9.0,4.0,5.0,-10.0,-37.0
1.6951606357555686e+18,-17.0,-36.0,6.0,-7.0,-9.0,-6.0,0.0,36.0
1.6951606357565517e+18,3.0,-28.0,-23.0,-17.0,-2.0,17.0,23.0,35.0
1.6951606357579005e+18,7.0,-10.0,40.0,29.0,22.0,14.0,1.0,3.0
1.6951606357579005e+18,-7.0,-7.0,-15.0,-30.0,-31.0,-22.0,-15.0,-13.0
1.695160635770894e+18,15.0,52.0,28.0,34.0,35.0,4.0,-1.0,-30.0
1.695160635770894e+18,-8.0,17.0,-15.0,-13.0,10.0,10.0,-2.0,0.0
1.6951606357968814e+18,-1.0,-42.0,-11.0,-7.0,-25.0,-14.0,-12.0,-4.0
1.6951606357978816e+18,-19.0,1.0,13.0,5.0,-3.0,1.0,2.0,-9.0
1.6951606357988813e+18,-14.0,0.0,-15.0,-25.0,-9.0,2.0,18.0,15.0
1.6951606357988813e+18,-1.0,2.0,-16.0,5.0,13.0,6.0,-2.0,-15.0
1.6951606358088732e+18,8.0,-11.0,-5.0,4.0,1.0,6.0,2.0,5.0
1.6951606358098783e+18,2.0,10.0,-44.0,-18.0,2.0,1.0,-2.0,17.0
1.6951606358098783e+18,-18.0,-7.0,41.0,32.0,15.0,-3.0,3.0,6.0
1.6951606358108782e+18,-18.0,2.0,-9.0,-10.0,-9.0,-14.0,-14.0,16.0
1.6951606358168696e+18,15.0,0.0,-4.0,13.0,22.0,18.0,14.0,-28.0
1.6951606358168696e+18,-24.0,-12.0,-14.0,-49.0,-23.0,-9.0,-12.0,-23.0
1.695160635837861e+18,40.0,-10.0,-33.0,2.0,0.0,-8.0,3.0,31.0
1.695160635837861e+18,-29.0,15.0,18.0,29.0,22.0,17.0,11.0,-22.0
1.695160635851885e+18,40.0,1.0,9.0,15.0,-3.0,-6.0,-14.0,48.0
1.69516063585286e+18,33.0,-2.0,15.0,-8.0,-10.0,-4.0,14.0,10.0
1.69516063588583e+18,-39.0,11.0,-3.0,1.0,-1.0,-1.0,-17.0,-41.0
1.6951606358868293e+18,-1.0,11.0,-4.0,-16.0,14.0,10.0,12.0,9.0
1.695160635887829e+18,-8.0,-7.0,-8.0,-27.0,-15.0,-3.0,-3.0,-38.0
1.6951606358888284e+18,10.0,-5.0,-10.0,-9.0,-10.0,-11.0,4.0,50.0
1.6951606358888284e+18,21.0,2.0,17.0,35.0,14.0,1.0,-10.0,15.0
1.6951606358898358e+18,16.0,16.0,4.0,-2.0,5.0,0.0,-7.0,-30.0
1.6951606358938307e+18,-23.0,-13.0,4.0,7.0,2.0,-3.0,5.0,25.0
1.6951606358948237e+18,-40.0,-1.0,7.0,6.0,-5.0,-14.0,-43.0,-25.0
1.695160635895825e+18,11.0,2.0,-8.0,-14.0,-2.0,8.0,32.0,-15.0
1.695160635895825e+18,-41.0,-8.0,-14.0,-21.0,-8.0,-2.0,-12.0,4.0
1.6951606358978232e+18,-10.0,-3.0,-7.0,-21.0,-4.0,0.0,6.0,-5.0
1.6951606358988214e+18,-37.0,-6.0,-10.0,16.0,7.0,1.0,-1.0,-21.0
1.695160635921808e+18,14.0,-3.0,23.0,23.0,6.0,-2.0,1.0,-2.0
1.6951606359228096e+18,35.0,16.0,29.0,54.0,27.0,12.0,9.0,47.0
1.6951606359238075e+18,23.0,6.0,-7.0,-50.0,-24.0,-3.0,-4.0,-20.0
1.6951606359248138e+18,-3.0,3.0,38.0,5.0,1.0,2.0,3.0,10.0
1.6951606359368003e+18,-36.0,-8.0,-27.0,-5.0,1.0,-7.0,-12.0,-23.0
1.695160635937799e+18,27.0,2.0,1.0,-12.0,2.0,3.0,7.0,17.0
1.6951606359388344e+18,-14.0,5.0,18.0,9.0,7.0,-4.0,-17.0,-14.0
1.6951606359388344e+18,9.0,-3.0,-9.0,17.0,-3.0,7.0,17.0,-3.0
1.6951606359517908e+18,-2.0,8.0,7.0,6.0,7.0,1.0,2.0,10.0
1.6951606359527923e+18,16.0,3.0,18.0,15.0,-3.0,-5.0,-5.0,10.0
1.695160635953798e+18,-12.0,-14.0,-13.0,-3.0,1.0,3.0,10.0,-14.0
1.6951606359547973e+18,26.0,1.0,-30.0,-74.0,-8.0,2.0,3.0,-5.0
1.6951606359777764e+18,12.0,-4.0,8.0,47.0,4.0,-4.0,-3.0,14.0
1.695160635990769e+18,-5.0,6.0,0.0,-33.0,-8.0,0.0,-3.0,6.0
1.6951606359917932e+18,19.0,5.0,11.0,4.0,8.0,0.0,-3.0,-13.0
1.6951606359917932e+18,8.0,3.0,4.0,12.0,10.0,3.0,2.0,1.0
1.6951606359917932e+18,-2.0,-9.0,-3.0,-2.0,0.0,-6.0,-1.0,6.0
1.6951606359917932e+18,-4.0,4.0,3.0,11.0,3.0,2.0,-5.0,-14.0
1.695160635996765e+18,-10.0,-9.0,5.0,16.0,0.0,1.0,1.0,-2.0
1.695160635996765e+18,-22.0,-6.0,-15.0,-18.0,-10.0,-5.0,-4.0,1.0
1.6951606360117565e+18,4.0,9.0,10.0,13.0,7.0,3.0,-1.0,14.0
1.6951606360127616e+18,4.0,-13.0,-18.0,-4.0,-10.0,-3.0,-5.0,-4.0
1.6951606360127616e+18,-2.0,4.0,-14.0,-13.0,4.0,2.0,6.0,13.0
1.6951606360127616e+18,5.0,6.0,31.0,59.0,11.0,4.0,0.0,5.0
1.6951606360337426e+18,-16.0,-5.0,-33.0,-60.0,-13.0,-3.0,-4.0,-8.0
1.6951606360337426e+18,-6.0,-6.0,-9.0,5.0,-2.0,-2.0,-2.0,-8.0
1.6951606360357458e+18,8.0,4.0,8.0,14.0,2.0,-1.0,-1.0,13.0
1.6951606360357458e+18,-3.0,-7.0,-14.0,-5.0,-3.0,-4.0,-6.0,-9.0
1.695160636058729e+18,-10.0,-5.0,8.0,-18.0,-6.0,-1.0,1.0,1.0
1.6951606360597345e+18,8.0,3.0,-14.0,1.0,-1.0,-3.0,2.0,-8.0
1.6951606360637358e+18,-4.0,2.0,1.0,-10.0,-4.0,-2.0,-3.0,10.0
1.695160636064731e+18,0.0,1.0,1.0,-3.0,2.0,3.0,6.0,3.0
1.6951606360867144e+18,-2.0,-4.0,-2.0,0.0,-3.0,0.0,0.0,9.0
1.6951606360867144e+18,-4.0,-4.0,-1.0,6.0,-4.0,-2.0,-4.0,-18.0
1.6951606361037038e+18,-18.0,-1.0,11.0,12.0,5.0,1.0,0.0,2.0
1.6951606361037038e+18,-2.0,-1.0,-1.0,0.0,-2.0,1.0,3.0,6.0
1.6951606361047027e+18,4.0,-2.0,-12.0,-24.0,-4.0,-2.0,-2.0,0.0
1.695160636105702e+18,3.0,4.0,14.0,12.0,2.0,0.0,0.0,0.0
1.6951606361077268e+18,-14.0,-9.0,-1.0,15.0,4.0,-3.0,-2.0,2.0
1.6951606361087012e+18,-2.0,0.0,-13.0,-16.0,-4.0,-1.0,0.0,-9.0
1.6951606361087012e+18,-3.0,2.0,-5.0,-20.0,-4.0,0.0,-2.0,-3.0
1.6951606361097052e+18,2.0,-2.0,3.0,22.0,5.0,0.0,1.0,-3.0
1.695160636116696e+18,5.0,1.0,-6.0,-3.0,-3.0,-1.0,0.0,-2.0
1.695160636116696e+18,-5.0,-6.0,3.0,11.0,1.0,0.0,-1.0,3.0
1.6951606361476787e+18,4.0,-1.0,5.0,6.0,1.0,-1.0,0.0,6.0
1.6951606361486812e+18,4.0,2.0,4.0,-5.0,-1.0,-2.0,2.0,-6.0
1.6951606361486812e+18,0.0,2.0,-1.0,-1.0,-1.0,0.0,-2.0,5.0
1.6951606361496773e+18,-2.0,-5.0,-2.0,0.0,-2.0,-1.0,2.0,-3.0
1.6951606361636687e+18,0.0,4.0,4.0,2.0,1.0,1.0,0.0,6.0
1.6951606361636687e+18,4.0,-2.0,-8.0,-15.0,-1.0,-3.0,-4.0,0.0
1.6951606361646694e+18,-2.0,-1.0,10.0,15.0,3.0,1.0,-1.0,2.0
1.6951606361646694e+18,-7.0,1.0,2.0,3.0,-1.0,-1.0,0.0,-6.0
1.6951606361756664e+18,5.0,0.0,-7.0,-12.0,-2.0,1.0,-2.0,-4.0
1.695160636176666e+18,-4.0,-3.0,-3.0,-2.0,-1.0,-3.0,-4.0,0.0
1.695160636201647e+18,5.0,1.0,2.0,6.0,2.0,0.0,-1.0,-3.0
1.6951606362076444e+18,-4.0,-2.0,1.0,-1.0,-3.0,0.0,-1.0,3.0
1.6951606362136412e+18,3.0,0.0,5.0,4.0,-1.0,-1.0,-3.0,4.0
1.6951606362136412e+18,-3.0,-1.0,-6.0,-3.0,-4.0,-2.0,-2.0,-12.0
1.6951606362146399e+18,1.0,3.0,8.0,-3.0,1.0,0.0,0.0,2.0
1.6951606362146399e+18,0.0,0.0,-12.0,-6.0,1.0,-1.0,1.0,-1.0
1.6951606362146399e+18,-9.0,-4.0,3.0,1.0,1.0,-3.0,-2.0,-3.0
1.6951606362156434e+18,8.0,1.0,0.0,-2.0,-1.0,0.0,2.0,8.0
1.6951606362176643e+18,-2.0,-2.0,-3.0,-8.0,-2.0,-3.0,-2.0,1.0
1.6951606362176643e+18,3.0,1.0,4.0,6.0,0.0,0.0,2.0,0.0
1.6951606362276324e+18,-6.0,-3.0,-4.0,-5.0,0.0,-1.0,-1.0,-9.0
1.6951606362276324e+18,1.0,2.0,5.0,4.0,0.0,0.0,1.0,6.0
1.6951606362676093e+18,-1.0,1.0,-3.0,0.0,2.0,0.0,0.0,-3.0
1.6951606362676093e+18,0.0,-1.0,0.0,1.0,-1.0,-3.0,-3.0,1.0
1.6951606362686095e+18,-1.0,-1.0,-3.0,1.0,0.0,-1.0,0.0,-2.0
1.6951606362686095e+18,-2.0,-3.0,0.0,-1.0,-3.0,-2.0,-2.0,-3.0
1.6951606362696087e+18,2.0,0.0,-3.0,-4.0,0.0,0.0,0.0,2.0
1.6951606362706135e+18,-5.0,2.0,2.0,3.0,1.0,-1.0,0.0,-5.0
1.6951606362746053e+18,-1.0,2.0,-2.0,-4.0,-2.0,-3.0,-1.0,-3.0
1.6951606362866045e+18,-4.0,-6.0,-2.0,-1.0,2.0,-2.0,-2.0,-1.0
1.6951606362875983e+18,0.0,0.0,0.0,1.0,-3.0,0.0,0.0,-4.0
1.6951606362875983e+18,1.0,1.0,3.0,0.0,-2.0,1.0,0.0,1.0
1.6951606362875983e+18,-3.0,-2.0,-5.0,-3.0,-4.0,0.0,0.0,-2.0
1.6951606362875983e+18,-2.0,-2.0,-1.0,-6.0,-2.0,0.0,-2.0,0.0
1.6951606363135839e+18,-1.0,0.0,0.0,4.0,1.0,1.0,-2.0,1.0
1.6951606363135839e+18,-1.0,1.0,1.0,1.0,2.0,2.0,-2.0,-1.0
1.6951606363145825e+18,0.0,-2.0,-4.0,-3.0,-2.0,-1.0,0.0,-3.0
1.6951606363145825e+18,-1.0,-1.0,-4.0,-6.0,-3.0,-2.0,-1.0,-2.0
1.6951606363175808e+18,1.0,1.0,-2.0,-1.0,-1.0,0.0,1.0,2.0
1.6951606363175808e+18,-3.0,-4.0,1.0,4.0,-1.0,-2.0,-3.0,-2.0
1.6951606363415667e+18,-2.0,-1.0,-1.0,-1.0,0.0,1.0,0.0,-2.0
1.6951606363415667e+18,-2.0,1.0,-2.0,-2.0,0.0,1.0,0.0,1.0
1.6951606363425664e+18,-2.0,-1.0,-1.0,5.0,0.0,-1.0,1.0,-1.0
1.6951606363425664e+18,-2.0,1.0,-1.0,-2.0,0.0,-2.0,-1.0,1.0
1.695160636347588e+18,-2.0,0.0,0.0,1.0,-1.0,0.0,0.0,1.0
1.695160636347588e+18,1.0,-1.0,0.0,-3.0,-2.0,-1.0,-1.0,-2.0
1.6951606363645537e+18,3.0,4.0,-1.0,-9.0,-1.0,-1.0,0.0,1.0
1.695160636365559e+18,-5.0,-4.0,0.0,0.0,-3.0,-1.0,-2.0,-3.0
1.6951606363715538e+18,0.0,-2.0,-3.0,-1.0,-1.0,-2.0,-3.0,-1.0
1.6951606363715538e+18,0.0,-1.0,-2.0,-2.0,-3.0,-1.0,0.0,1.0
1.6951606363735493e+18,0.0,-1.0,-1.0,-3.0,-1.0,-1.0,-3.0,-2.0
1.6951606363735493e+18,-1.0,0.0,-1.0,-1.0,1.0,0.0,1.0,1.0
1.6951606364335396e+18,-3.0,-1.0,-1.0,-1.0,3.0,-2.0,-1.0,-2.0
1.6951606364335396e+18,0.0,0.0,1.0,2.0,-2.0,-1.0,-1.0,-2.0
1.6951606364345142e+18,-1.0,-2.0,-1.0,-1.0,0.0,0.0,-1.0,-2.0
1.6951606364345142e+18,-2.0,0.0,0.0,-2.0,2.0,0.0,0.0,-1.0
1.6951606364345142e+18,-2.0,-1.0,0.0,2.0,-2.0,-1.0,-1.0,0.0
1.6951606364365181e+18,-1.0,0.0,-3.0,-1.0,0.0,0.0,0.0,-1.0
1.6951606364555016e+18,-1.0,-5.0,0.0,2.0,1.0,-2.0,-1.0,-2.0
1.6951606364565007e+18,-3.0,1.0,0.0,-3.0,-1.0,-2.0,0.0,-1.0
1.6951606364565007e+18,-2.0,-1.0,-1.0,0.0,-1.0,0.0,-1.0,-2.0
1.6951606364575012e+18,-1.0,-1.0,-2.0,-3.0,-1.0,-3.0,-1.0,0.0
1.6951606364575012e+18,-4.0,-1.0,0.0,2.0,-2.0,-3.0,-3.0,-1.0
1.6951606364585037e+18,-1.0,-1.0,-1.0,-3.0,-3.0,-1.0,-2.0,-1.0
1.6951606364614986e+18,-1.0,-1.0,-1.0,-1.0,-1.0,0.0,-1.0,-3.0
1.6951606364614986e+18,-3.0,-2.0,-1.0,-2.0,0.0,0.0,-2.0,-1.0
1.6951606364624993e+18,-2.0,0.0,-3.0,0.0,-1.0,1.0,0.0,0.0
1.6951606364634985e+18,-1.0,-1.0,-1.0,0.0,-1.0,-2.0,-1.0,0.0
1.6951606364764954e+18,-1.0,0.0,0.0,1.0,-1.0,0.0,0.0,-1.0
1.6951606364764954e+18,-1.0,-2.0,0.0,0.0,-1.0,-1.0,0.0,-1.0
1.6951606364784886e+18,1.0,-1.0,0.0,-2.0,0.0,1.0,1.0,-1.0
1.6951606364784886e+18,1.0,-1.0,-1.0,-1.0,0.0,0.0,-1.0,0.0
1.695160636491488e+18,-1.0,-2.0,-2.0,-1.0,1.0,0.0,-1.0,1.0
1.6951606364924818e+18,1.0,-1.0,0.0,0.0,-2.0,-2.0,-1.0,0.0
1.6951606365144668e+18,-1.0,-1.0,-1.0,1.0,0.0,-1.0,-1.0,0.0
1.6951606365144668e+18,0.0,1.0,0.0,-1.0,-1.0,0.0,0.0,0.0
1.6951606365144668e+18,-1.0,-1.0,-1.0,0.0,1.0,-2.0,-1.0,0.0
1.6951606365154675e+18,-2.0,1.0,3.0,0.0,1.0,-2.0,-1.0,0.0
1.6951606365164892e+18,-1.0,0.0,-4.0,-1.0,0.0,0.0,1.0,0.0
1.6951606365164892e+18,1.0,0.0,3.0,-2.0,-1.0,0.0,0.0,0.0
1.6951606365354765e+18,-1.0,-1.0,-8.0,-1.0,-2.0,-1.0,-1.0,-1.0
1.6951606365354765e+18,-2.0,1.0,8.0,-1.0,1.0,-1.0,0.0,-2.0
1.6951606365434726e+18,-1.0,-1.0,2.0,0.0,-2.0,-1.0,-3.0,0.0
1.6951606365434726e+18,-1.0,-1.0,-2.0,-2.0,0.0,-1.0,-1.0,0.0
1.6951606365504476e+18,-1.0,0.0,2.0,-2.0,-2.0,0.0,-2.0,0.0
1.6951606365504476e+18,1.0,-2.0,-5.0,-1.0,0.0,0.0,-1.0,-1.0
1.6951606365644603e+18,0.0,-1.0,-2.0,-2.0,0.0,-1.0,0.0,-1.0
1.6951606365644603e+18,-2.0,-1.0,1.0,2.0,1.0,-1.0,0.0,-1.0
1.6951606365804303e+18,-1.0,-1.0,-1.0,-2.0,-1.0,-1.0,-1.0,-1.0
1.6951606365804303e+18,-1.0,-2.0,-2.0,-1.0,0.0,0.0,-1.0,0.0
1.6951606365884273e+18,-1.0,-2.0,-1.0,0.0,1.0,0.0,0.0,0.0
1.6951606365884273e+18,1.0,-1.0,0.0,-2.0,-2.0,-1.0,-1.0,-1.0
1.6951606366044152e+18,0.0,0.0,10.0,3.0,0.0,-2.0,-2.0,2.0
1.6951606366044152e+18,-1.0,-3.0,-10.0,-3.0,-3.0,-1.0,-2.0,-1.0
1.6951606366054203e+18,-1.0,0.0,1.0,0.0,-1.0,-1.0,-1.0,-1.0
1.6951606366054203e+18,-1.0,-2.0,-1.0,0.0,-2.0,0.0,0.0,-1.0
1.6951606366264026e+18,0.0,-1.0,2.0,0.0,0.0,0.0,-2.0,-2.0
1.6951606366264026e+18,-1.0,-1.0,-2.0,-1.0,-1.0,0.0,-1.0,0.0
1.6951606366284037e+18,-2.0,-2.0,-1.0,-2.0,-1.0,-1.0,-2.0,-1.0
1.6951606366304023e+18,-2.0,0.0,-3.0,-1.0,-1.0,0.0,0.0,0.0
1.6951606366413942e+18,-3.0,-1.0,-3.0,-1.0,-1.0,1.0,0.0,-2.0
1.6951606366413942e+18,-2.0,-1.0,0.0,0.0,-1.0,-2.0,-2.0,0.0
1.6951606366424159e+18,0.0,-2.0,-1.0,0.0,-2.0,-2.0,-1.0,0.0
1.6951606366424159e+18,1.0,-2.0,0.0,0.0,-2.0,-2.0,-1.0,-2.0
1.6951606366563886e+18,2.0,0.0,-3.0,-2.0,-1.0,0.0,1.0,0.0
1.6951606366563886e+18,0.0,0.0,-1.0,0.0,-2.0,-1.0,1.0,-2.0
1.6951606366573855e+18,-1.0,2.0,1.0,-1.0,-1.0,1.0,1.0,-2.0
1.6951606366573855e+18,-2.0,-1.0,-2.0,1.0,-1.0,0.0,-2.0,-1.0
1.6951606366783964e+18,-1.0,0.0,-1.0,-3.0,-1.0,-1.0,-1.0,0.0
1.6951606366783964e+18,-1.0,0.0,2.0,-1.0,1.0,1.0,0.0,-1.0
1.6951606366803722e+18,0.0,-2.0,-3.0,-2.0,-1.0,0.0,1.0,0.0
1.6951606366803722e+18,-1.0,0.0,0.0,0.0,-2.0,0.0,0.0,0.0
1.695160636692366e+18,-2.0,1.0,-2.0,-1.0,0.0,0.0,0.0,-1.0
1.695160636692366e+18,0.0,-1.0,2.0,-1.0,-1.0,0.0,-1.0,-2.0
1.695160636706357e+18,-3.0,-1.0,-2.0,1.0,0.0,-1.0,-1.0,-1.0
1.695160636706357e+18,0.0,1.0,-2.0,-1.0,-1.0,0.0,-1.0,1.0
1.6951606367163533e+18,-1.0,-1.0,0.0,0.0,-1.0,1.0,-1.0,0.0
1.6951606367163533e+18,0.0,-1.0,-1.0,0.0,-2.0,-1.0,0.0,-1.0
1.6951606367173727e+18,-1.0,1.0,0.0,-1.0,-1.0,0.0,-1.0,-2.0
1.6951606367173727e+18,-1.0,-3.0,1.0,0.0,1.0,2.0,1.0,0.0
1.695160636729488e+18,-1.0,-2.0,-2.0,-1.0,0.0,-1.0,0.0,1.0
1.6951606367305124e+18,-1.0,-3.0,-3.0,-3.0,-1.0,-1.0,-1.0,1.0
1.6951606367384911e+18,1.0,-4.0,2.0,1.0,1.0,-1.0,-1.0,-1.0
1.6951606367384911e+18,-1.0,0.0,-1.0,-2.0,0.0,-2.0,0.0,-1.0
1.6951606367535386e+18,0.0,-1.0,0.0,-3.0,-1.0,-2.0,-1.0,-2.0
1.6951606367535386e+18,0.0,4.0,-3.0,0.0,-1.0,-1.0,0.0,-2.0
1.6951606367554762e+18,0.0,0.0,-3.0,-2.0,-2.0,-1.0,-2.0,-1.0
1.6951606367554762e+18,0.0,-1.0,6.0,1.0,1.0,2.0,-2.0,0.0
1.6951606367844467e+18,-1.0,1.0,-2.0,-1.0,0.0,-2.0,-1.0,0.0
1.6951606367894461e+18,-1.0,-2.0,3.0,0.0,-2.0,0.0,1.0,1.0
1.6951606367904463e+18,-2.0,-9.0,7.0,5.0,0.0,3.0,0.0,-1.0
1.6951606367904463e+18,-1.0,-1.0,-4.0,-1.0,0.0,0.0,-1.0,-2.0
1.6951606367904463e+18,-1.0,2.0,-3.0,-3.0,-2.0,-1.0,0.0,-2.0
1.6951606367904463e+18,-1.0,0.0,-2.0,-1.0,-1.0,0.0,-1.0,0.0
1.695160636822427e+18,-2.0,0.0,-1.0,-1.0,-1.0,0.0,0.0,0.0
1.6951606368234245e+18,0.0,2.0,-5.0,-5.0,-3.0,-2.0,-3.0,-1.0
1.6951606368244237e+18,-4.0,-4.0,4.0,2.0,-1.0,2.0,1.0,-1.0
1.6951606368244237e+18,0.0,1.0,0.0,1.0,0.0,-2.0,-1.0,0.0
1.695160636828423e+18,-2.0,0.0,-1.0,-2.0,-1.0,-2.0,0.0,-2.0
1.695160636828423e+18,1.0,3.0,-7.0,-5.0,-2.0,-3.0,-2.0,0.0
1.69516063684359e+18,-3.0,-2.0,-3.0,-2.0,1.0,-1.0,0.0,-1.0
1.69516063684459e+18,1.0,-2.0,2.0,0.0,-3.0,-3.0,-1.0,1.0
1.69516063684459e+18,-6.0,0.0,-3.0,-1.0,0.0,-1.0,-1.0,-2.0
1.6951606368455885e+18,-1.0,-8.0,3.0,2.0,-1.0,1.0,2.0,0.0
1.6951606368496865e+18,4.0,6.0,-3.0,-2.0,-2.0,-2.0,-2.0,-1.0
1.695160636850527e+18,-3.0,9.0,-9.0,-3.0,-3.0,0.0,-2.0,-2.0
1.69516063686469e+18,2.0,-1.0,0.0,-2.0,-2.0,1.0,-1.0,0.0
1.69516063686469e+18,-5.0,-1.0,-6.0,-3.0,0.0,0.0,-1.0,-2.0
1.6951606368813123e+18,0.0,1.0,-7.0,-4.0,-3.0,-4.0,-1.0,1.0
1.695160636882314e+18,3.0,7.0,-9.0,-4.0,-3.0,-3.0,-2.0,-2.0
1.695160636883311e+18,-3.0,-3.0,3.0,1.0,4.0,1.0,-1.0,0.0
1.695160636883311e+18,0.0,-11.0,14.0,6.0,2.0,3.0,0.0,1.0
1.6951606368965522e+18,-3.0,-6.0,3.0,3.0,0.0,0.0,-1.0,-1.0
1.6951606368975603e+18,-1.0,-3.0,2.0,-1.0,0.0,0.0,-1.0,1.0
1.69516063689856e+18,3.0,-2.0,3.0,-1.0,0.0,0.0,0.0,-1.0
1.69516063689856e+18,-2.0,-1.0,-4.0,-2.0,-2.0,-1.0,0.0,-2.0
1.69516063691958e+18,-2.0,-10.0,8.0,1.0,0.0,1.0,0.0,0.0
1.69516063691958e+18,-2.0,-8.0,4.0,1.0,1.0,0.0,-1.0,1.0
1.6951606369205788e+18,0.0,4.0,-6.0,-3.0,-3.0,-2.0,-2.0,0.0
1.6951606369205788e+18,-2.0,3.0,-4.0,-2.0,-2.0,-3.0,-1.0,-2.0
1.695160636934195e+18,0.0,1.0,-1.0,3.0,0.0,-1.0,1.0,-1.0
1.6951606369351962e+18,-3.0,-2.0,-2.0,-3.0,0.0,1.0,1.0,-1.0
1.6951606369361948e+18,-1.0,-4.0,-2.0,1.0,-1.0,-1.0,0.0,-1.0
1.6951606369361948e+18,1.0,0.0,6.0,-1.0,1.0,1.0,-1.0,2.0
1.6951606369561843e+18,-3.0,7.0,-21.0,-5.0,-2.0,-1.0,-2.0,-2.0
1.6951606369561843e+18,-2.0,0.0,2.0,2.0,0.0,-1.0,-1.0,-2.0
1.6951606369731727e+18,-2.0,3.0,-3.0,-2.0,-5.0,-2.0,0.0,0.0
1.6951606369731727e+18,-2.0,-1.0,0.0,0.0,-1.0,-1.0,0.0,0.0
1.6951606369741727e+18,1.0,1.0,-1.0,-2.0,-1.0,1.0,0.0,-2.0
1.695160636975172e+18,-1.0,-4.0,-1.0,1.0,0.0,1.0,0.0,0.0
1.6951606369791744e+18,0.0,1.0,-3.0,-2.0,0.0,0.0,-2.0,0.0
1.6951606369801702e+18,-2.0,5.0,-5.0,-3.0,-2.0,-2.0,-2.0,-3.0
1.6951606370131497e+18,0.0,-2.0,2.0,0.0,0.0,1.0,-1.0,0.0
1.6951606370151493e+18,-1.0,-3.0,-2.0,-1.0,0.0,-1.0,-1.0,-1.0
1.6951606370151493e+18,-1.0,-2.0,2.0,1.0,-1.0,-2.0,0.0,-1.0
1.6951606370161492e+18,0.0,-2.0,0.0,1.0,1.0,-2.0,0.0,1.0
1.6951606370201457e+18,-1.0,-1.0,1.0,-2.0,-2.0,-1.0,-1.0,1.0
1.6951606370211464e+18,-2.0,-4.0,-1.0,0.0,-1.0,0.0,-2.0,-2.0
1.6951606370231444e+18,0.0,-1.0,-1.0,1.0,-1.0,-2.0,-1.0,0.0
1.6951606370231444e+18,-1.0,1.0,-2.0,0.0,-1.0,0.0,-1.0,-1.0
1.6951606370311414e+18,-4.0,-2.0,2.0,-1.0,0.0,-1.0,1.0,-1.0
1.6951606370311414e+18,-2.0,-1.0,-1.0,0.0,-1.0,1.0,-1.0,-1.0
1.6951606370391365e+18,-1.0,1.0,-3.0,-3.0,-1.0,-1.0,-1.0,-2.0
1.6951606370401395e+18,1.0,-2.0,-3.0,-2.0,-2.0,1.0,0.0,0.0
1.6951606370691182e+18,-1.0,-2.0,4.0,-1.0,0.0,0.0,0.0,0.0
1.695160637070117e+18,0.0,-3.0,0.0,-1.0,-1.0,0.0,0.0,0.0
1.6951606370711247e+18,0.0,0.0,-1.0,-4.0,-2.0,0.0,0.0,1.0
1.6951606370721175e+18,-1.0,-1.0,-1.0,-1.0,-2.0,0.0,-2.0,-1.0
1.6951606370841096e+18,0.0,0.0,0.0,2.0,0.0,0.0,-1.0,-2.0
1.695160637085108e+18,0.0,-3.0,0.0,1.0,1.0,-3.0,-1.0,-1.0
1.695160637093104e+18,1.0,2.0,0.0,0.0,0.0,-1.0,-2.0,0.0
1.695160637093104e+18,-3.0,4.0,0.0,-4.0,-1.0,-1.0,0.0,-2.0
1.6951606370951035e+18,-1.0,-1.0,-1.0,-1.0,0.0,-1.0,0.0,0.0
1.6951606370961034e+18,-1.0,-2.0,0.0,1.0,1.0,1.0,0.0,0.0
1.6951606371070968e+18,-2.0,-2.0,-2.0,-1.0,-2.0,-2.0,-1.0,-1.0
1.6951606371070968e+18,-1.0,-2.0,-1.0,5.0,0.0,0.0,-1.0,-1.0
1.695160637122089e+18,-1.0,1.0,1.0,1.0,-1.0,0.0,-1.0,-1.0
1.695160637122089e+18,1.0,-1.0,-3.0,-3.0,-3.0,0.0,-1.0,-1.0
1.695160637123087e+18,-1.0,0.0,-1.0,3.0,2.0,-1.0,0.0,0.0
1.6951606371240916e+18,0.0,0.0,-3.0,-5.0,0.0,-4.0,-1.0,1.0
1.6951606371540692e+18,0.0,-2.0,-3.0,0.0,-1.0,-1.0,-2.0,-2.0
1.6951606371540692e+18,0.0,-1.0,6.0,1.0,0.0,-2.0,-1.0,-1.0
1.6951606371550697e+18,0.0,-2.0,-3.0,-5.0,-1.0,0.0,-1.0,-2.0
1.6951606371560704e+18,1.0,-1.0,-1.0,-2.0,-3.0,-1.0,-1.0,-1.0
1.6951606371560704e+18,-2.0,-3.0,2.0,0.0,-2.0,-1.0,-1.0,-2.0
1.6951606371570678e+18,-1.0,-1.0,-3.0,-3.0,-1.0,1.0,1.0,0.0
1.6951606371600684e+18,0.0,1.0,0.0,0.0,1.0,0.0,1.0,-1.0
1.695160637161067e+18,0.0,-2.0,-1.0,0.0,1.0,0.0,1.0,-1.0
1.6951606371810516e+18,0.0,0.0,2.0,-5.0,-3.0,-3.0,-1.0,0.0
1.695160637182054e+18,-2.0,-3.0,-12.0,-2.0,-3.0,-1.0,-2.0,-1.0
1.6951606371830523e+18,-3.0,1.0,0.0,2.0,0.0,-1.0,-1.0,0.0
1.6951606371830523e+18,0.0,-1.0,1.0,-2.0,1.0,1.0,2.0,0.0
1.6951606371960435e+18,-1.0,2.0,2.0,0.0,-4.0,-3.0,-2.0,-3.0
1.6951606371970445e+18,1.0,4.0,8.0,5.0,-2.0,-4.0,-2.0,-1.0
1.6951606371980434e+18,1.0,3.0,14.0,6.0,3.0,-2.0,-2.0,-1.0
1.6951606371980434e+18,-3.0,-8.0,-12.0,-11.0,-3.0,6.0,0.0,-2.0
1.6951606372190313e+18,-2.0,-3.0,-3.0,-4.0,2.0,0.0,-1.0,0.0
1.695160637220031e+18,-1.0,-2.0,-3.0,-5.0,-4.0,-2.0,-1.0,-1.0
1.695160637221031e+18,-2.0,-1.0,-2.0,-8.0,-9.0,-6.0,-3.0,-2.0
1.695160637221031e+18,0.0,1.0,2.0,2.0,2.0,2.0,-1.0,0.0
1.6951606372350213e+18,-1.0,-3.0,-4.0,-1.0,1.0,1.0,1.0,-1.0
1.6951606372420168e+18,-2.0,0.0,5.0,0.0,1.0,-1.0,-3.0,-1.0
1.695160637257009e+18,2.0,-2.0,-1.0,2.0,1.0,-1.0,0.0,0.0
1.695160637257009e+18,0.0,0.0,-4.0,1.0,-2.0,-3.0,-1.0,-1.0
1.695160637257009e+18,-2.0,-2.0,-4.0,-4.0,-2.0,-1.0,-2.0,-1.0
1.695160637258009e+18,0.0,-1.0,-3.0,-1.0,3.0,-2.0,-1.0,0.0
1.6951606372590072e+18,-1.0,-1.0,2.0,1.0,-3.0,1.0,0.0,-1.0
1.6951606372590072e+18,-1.0,-2.0,-7.0,1.0,-2.0,-1.0,-2.0,-2.0
1.6951606372700006e+18,0.0,-1.0,-1.0,-6.0,-5.0,0.0,1.0,1.0
1.6951606372700006e+18,0.0,-1.0,4.0,0.0,2.0,4.0,2.0,0.0
1.6951606372859932e+18,-1.0,-2.0,-6.0,15.0,4.0,-1.0,1.0,0.0
1.6951606372859932e+18,0.0,4.0,-3.0,0.0,3.0,0.0,1.0,1.0
1.6951606372929882e+18,1.0,0.0,18.0,7.0,-2.0,-4.0,-2.0,-2.0
1.6951606372929882e+18,-2.0,0.0,1.0,-10.0,-2.0,-1.0,0.0,-1.0
1.6951606373069788e+18,-4.0,-1.0,-2.0,-9.0,-4.0,-1.0,-4.0,-3.0
1.695160637307979e+18,-1.0,2.0,-4.0,14.0,4.0,2.0,0.0,-1.0
1.6951606373189732e+18,-2.0,-3.0,0.0,3.0,3.0,0.0,2.0,0.0
1.6951606373189732e+18,4.0,-3.0,1.0,-11.0,-10.0,0.0,-1.0,4.0
1.6951606373199726e+18,-7.0,-2.0,-3.0,7.0,-1.0,-3.0,-1.0,1.0
1.6951606373199726e+18,-1.0,9.0,17.0,-5.0,2.0,4.0,1.0,3.0
1.6951606373299663e+18,16.0,-4.0,4.0,23.0,9.0,0.0,-3.0,-3.0
1.6951606373299663e+18,-10.0,2.0,0.0,13.0,5.0,2.0,0.0,2.0
1.6951606373769408e+18,-5.0,0.0,10.0,-19.0,-2.0,2.0,-4.0,-22.0
1.695160637377941e+18,-3.0,-8.0,-19.0,-25.0,-16.0,-9.0,-5.0,-3.0
1.695160637377941e+18,-6.0,3.0,0.0,-2.0,-1.0,-1.0,0.0,3.0
1.695160637377941e+18,1.0,-1.0,5.0,7.0,3.0,-1.0,1.0,-3.0
1.695160637379938e+18,4.0,-3.0,-18.0,1.0,-1.0,0.0,0.0,2.0
1.695160637379938e+18,-3.0,1.0,6.0,4.0,3.0,0.0,0.0,1.0
1.6951606373829363e+18,-1.0,1.0,-2.0,0.0,-4.0,0.0,-3.0,-2.0
1.6951606373829363e+18,2.0,-1.0,4.0,1.0,6.0,0.0,-2.0,0.0
1.695160637389933e+18,-4.0,-4.0,-37.0,-21.0,5.0,2.0,4.0,3.0
1.695160637390942e+18,-4.0,2.0,15.0,21.0,-9.0,-4.0,-4.0,-6.0
1.6951606373989284e+18,-2.0,0.0,-1.0,-19.0,-5.0,-1.0,1.0,2.0
1.6951606373989284e+18,0.0,-6.0,-13.0,-2.0,3.0,2.0,0.0,0.0
1.6951606374219139e+18,0.0,0.0,8.0,1.0,-5.0,-5.0,-2.0,-3.0
1.6951606374289116e+18,1.0,-5.0,-10.0,14.0,1.0,-2.0,0.0,-1.0
1.6951606374289116e+18,0.0,2.0,-3.0,-16.0,-3.0,-2.0,-1.0,5.0
1.695160637429909e+18,-7.0,2.0,20.0,20.0,5.0,0.0,-1.0,-13.0
1.6951606374359063e+18,8.0,2.0,-9.0,24.0,0.0,-4.0,0.0,8.0
1.695160637436905e+18,5.0,0.0,-11.0,-40.0,-1.0,8.0,3.0,1.0
1.695160637437905e+18,-13.0,-7.0,-12.0,-2.0,-5.0,-3.0,-1.0,-5.0
1.695160637437905e+18,3.0,0.0,-2.0,-17.0,-6.0,-2.0,1.0,2.0
1.6951606374498975e+18,-6.0,0.0,3.0,7.0,6.0,9.0,2.0,-2.0
1.6951606374498975e+18,3.0,2.0,5.0,2.0,2.0,-7.0,-1.0,0.0
1.6951606374629059e+18,6.0,-5.0,-2.0,8.0,2.0,0.0,-2.0,2.0
1.6951606374648924e+18,-2.0,-4.0,-7.0,-4.0,-3.0,-5.0,-1.0,7.0
1.6951606374728863e+18,-6.0,-2.0,-2.0,-15.0,-8.0,-3.0,-2.0,4.0
1.6951606374728863e+18,5.0,4.0,9.0,17.0,1.0,0.0,-2.0,-1.0
1.6951606374875564e+18,1.0,3.0,-1.0,-9.0,4.0,5.0,1.0,-2.0
1.6951606374875564e+18,0.0,-6.0,0.0,15.0,2.0,-2.0,-3.0,-1.0
1.695160637495569e+18,-3.0,-4.0,-15.0,-43.0,-17.0,-3.0,-2.0,1.0
1.695160637496553e+18,-6.0,-5.0,-25.0,-23.0,0.0,0.0,-1.0,-3.0
1.6951606374975493e+18,-2.0,-4.0,8.0,15.0,-4.0,-7.0,-3.0,0.0
1.6951606374985495e+18,-3.0,-2.0,1.0,5.0,2.0,4.0,0.0,-3.0
1.6951606375175393e+18,-1.0,3.0,10.0,10.0,8.0,4.0,2.0,-4.0
1.6951606375185372e+18,-4.0,0.0,-15.0,-25.0,-1.0,-2.0,0.0,0.0
1.6951606375348096e+18,3.0,1.0,8.0,17.0,4.0,0.0,0.0,0.0
1.6951606375348096e+18,-1.0,-2.0,-16.0,-17.0,-12.0,-5.0,-3.0,-1.0
1.6951606375485143e+18,-3.0,0.0,7.0,6.0,1.0,1.0,-1.0,-5.0
1.6951606375485143e+18,-3.0,-2.0,30.0,29.0,1.0,0.0,-1.0,0.0
1.6951606375505175e+18,3.0,-2.0,-22.0,-17.0,-5.0,-3.0,-1.0,2.0
1.6951606375505175e+18,-1.0,0.0,3.0,3.0,0.0,-1.0,-1.0,-2.0
1.6951606375565504e+18,-1.0,-1.0,-2.0,19.0,11.0,1.0,-2.0,-2.0
1.6951606375565504e+18,-2.0,0.0,6.0,1.0,-3.0,-2.0,0.0,-2.0
1.6951606375576003e+18,-2.0,-4.0,-4.0,-8.0,-6.0,-1.0,-2.0,-2.0
1.6951606375576003e+18,-1.0,-3.0,0.0,-2.0,-7.0,-6.0,-3.0,-1.0
1.6951606375864873e+18,-1.0,0.0,-2.0,-21.0,-11.0,-4.0,-2.0,-5.0
1.6951606375864873e+18,-1.0,0.0,-7.0,22.0,19.0,4.0,2.0,0.0
1.6951606375884897e+18,1.0,5.0,12.0,3.0,6.0,6.0,2.0,1.0
1.6951606375884897e+18,-3.0,-4.0,-4.0,-10.0,-9.0,-6.0,-2.0,-2.0
1.695160637601481e+18,3.0,0.0,-4.0,-3.0,3.0,3.0,-1.0,1.0
1.695160637601481e+18,-3.0,1.0,15.0,-4.0,7.0,0.0,-1.0,-4.0
1.6951606376024776e+18,0.0,0.0,0.0,9.0,8.0,2.0,2.0,2.0
1.6951606376024776e+18,-4.0,-6.0,-4.0,3.0,-8.0,-8.0,-7.0,-3.0
1.695160637645682e+18,-3.0,1.0,4.0,-11.0,-10.0,-5.0,-1.0,-3.0
1.695160637645682e+18,-1.0,-3.0,-7.0,1.0,-5.0,2.0,1.0,-1.0
1.6951606376546598e+18,0.0,-4.0,-4.0,-4.0,5.0,4.0,1.0,0.0
1.6951606376546598e+18,4.0,7.0,7.0,-6.0,-7.0,-2.0,0.0,2.0
1.6951606376556552e+18,-3.0,-11.0,11.0,20.0,5.0,-1.0,-1.0,-3.0
1.6951606376556552e+18,0.0,-2.0,-23.0,-38.0,-12.0,-4.0,-4.0,-2.0
1.6951606376585966e+18,0.0,1.0,1.0,5.0,-4.0,-2.0,-2.0,-1.0
1.6951606376585966e+18,2.0,0.0,-2.0,3.0,2.0,1.0,2.0,0.0
1.6951606376615997e+18,-1.0,1.0,-10.0,-8.0,2.0,-1.0,1.0,0.0
1.6951606376615997e+18,0.0,-1.0,8.0,27.0,5.0,2.0,3.0,0.0
1.6951606376626383e+18,-3.0,0.0,5.0,-14.0,-4.0,-4.0,-1.0,-2.0
1.6951606376636178e+18,-1.0,-2.0,-6.0,6.0,5.0,1.0,1.0,0.0
1.6951606376765527e+18,-2.0,-2.0,-15.0,-5.0,-1.0,-1.0,-4.0,-3.0
1.6951606376765527e+18,-2.0,-2.0,-2.0,-8.0,-10.0,-6.0,-2.0,-1.0
1.6951606376775964e+18,2.0,0.0,2.0,13.0,1.0,5.0,-1.0,0.0
1.6951606376775964e+18,0.0,3.0,3.0,4.0,15.0,7.0,4.0,1.0
1.695160637706528e+18,1.0,2.0,5.0,-1.0,3.0,-1.0,1.0,1.0
1.695160637706528e+18,-4.0,-1.0,0.0,8.0,-9.0,-5.0,-3.0,-2.0
1.695160637707528e+18,-2.0,-1.0,-2.0,13.0,3.0,0.0,0.0,-1.0
1.695160637707528e+18,0.0,1.0,8.0,-20.0,-2.0,2.0,0.0,1.0
1.6951606377125243e+18,-2.0,-5.0,-22.0,-13.0,-1.0,1.0,-1.0,3.0
1.6951606377135235e+18,-1.0,-4.0,-7.0,17.0,2.0,3.0,2.0,1.0
1.695160637727517e+18,0.0,3.0,16.0,-15.0,-1.0,-1.0,1.0,0.0
1.695160637728515e+18,2.0,5.0,6.0,27.0,14.0,5.0,0.0,0.0
1.6951606377365115e+18,1.0,-3.0,-7.0,-11.0,-3.0,-2.0,0.0,-3.0
1.6951606377365115e+18,3.0,2.0,0.0,-2.0,-1.0,-2.0,-2.0,-1.0
1.6951606377375117e+18,0.0,-2.0,-8.0,-16.0,-4.0,1.0,2.0,1.0
1.695160637738511e+18,-3.0,3.0,25.0,27.0,4.0,-2.0,-2.0,-3.0
1.6951606377594975e+18,-1.0,0.0,3.0,-7.0,-9.0,-4.0,-1.0,1.0
1.6951606377594975e+18,0.0,-3.0,-4.0,-3.0,1.0,-2.0,-3.0,-1.0
1.6951606377604977e+18,1.0,0.0,-8.0,-12.0,-2.0,-2.0,1.0,1.0
1.6951606377604977e+18,-1.0,0.0,0.0,0.0,4.0,2.0,0.0,1.0
1.695160637772491e+18,-1.0,4.0,13.0,15.0,5.0,3.0,2.0,1.0
1.6951606377734894e+18,0.0,-1.0,-8.0,-6.0,-6.0,0.0,-2.0,0.0
1.695160637781485e+18,2.0,4.0,5.0,-1.0,-3.0,-3.0,-2.0,1.0
1.6951606377824845e+18,-2.0,-13.0,-15.0,-2.0,6.0,3.0,3.0,0.0
1.695160637819488e+18,0.0,5.0,4.0,-1.0,-5.0,-4.0,-3.0,0.0
1.6951606378204634e+18,1.0,-1.0,7.0,-5.0,-4.0,-1.0,-1.0,0.0
1.695160637821463e+18,1.0,0.0,-14.0,-4.0,-3.0,-3.0,-3.0,-2.0
1.695160637821463e+18,-2.0,-2.0,1.0,-8.0,-1.0,-2.0,0.0,-4.0
1.6951606378264596e+18,1.0,-2.0,2.0,0.0,-5.0,1.0,0.0,-1.0
1.6951606378264596e+18,-2.0,-1.0,-9.0,-16.0,-3.0,-4.0,-1.0,0.0
1.6951606378284588e+18,-1.0,-2.0,1.0,15.0,20.0,6.0,3.0,1.0
1.6951606378284588e+18,-1.0,-1.0,-8.0,-25.0,-17.0,0.0,1.0,0.0
1.695160637840572e+18,-2.0,1.0,17.0,-2.0,15.0,5.0,1.0,2.0
1.6951606378416005e+18,-4.0,-8.0,-19.0,14.0,2.0,-6.0,-7.0,-3.0
1.6951606378425912e+18,-5.0,0.0,0.0,4.0,-11.0,-4.0,-1.0,-3.0
1.6951606378425912e+18,7.0,-2.0,11.0,4.0,-4.0,-4.0,-2.0,-3.0
1.6951606378715753e+18,-12.0,-4.0,-12.0,-22.0,-10.0,-1.0,-1.0,3.0
1.69516063787357e+18,1.0,5.0,7.0,6.0,3.0,1.0,1.0,1.0
1.695160637874568e+18,-6.0,-3.0,-5.0,-10.0,-3.0,-1.0,-2.0,-5.0
1.6951606378755676e+18,-3.0,-4.0,-13.0,5.0,3.0,0.0,-1.0,-3.0
1.6951606378795643e+18,6.0,14.0,18.0,23.0,4.0,4.0,4.0,-1.0
1.695160637880565e+18,3.0,-17.0,-4.0,-25.0,-5.0,-2.0,0.0,2.0
1.695160637880565e+18,-6.0,-23.0,-15.0,-3.0,-6.0,-1.0,-4.0,2.0
1.6951606378815726e+18,-5.0,9.0,-2.0,-4.0,-8.0,-3.0,-3.0,-11.0
1.695160637901553e+18,7.0,2.0,3.0,5.0,-3.0,-3.0,-4.0,-3.0
1.695160637901553e+18,-7.0,2.0,-2.0,11.0,22.0,7.0,3.0,-1.0
1.6951606379365307e+18,9.0,6.0,-15.0,-13.0,-7.0,-1.0,2.0,2.0
1.6951606379375296e+18,-3.0,-3.0,-8.0,-14.0,-1.0,-2.0,0.0,3.0
1.69516063793853e+18,-6.0,-11.0,-11.0,5.0,-6.0,-5.0,-2.0,-8.0
1.69516063793853e+18,7.0,12.0,24.0,0.0,-2.0,0.0,0.0,3.0
1.695160637939531e+18,-2.0,-5.0,-8.0,-8.0,-5.0,-5.0,-4.0,0.0
1.6951606379435274e+18,-2.0,12.0,0.0,5.0,6.0,4.0,4.0,4.0
1.6951606379435274e+18,2.0,-8.0,11.0,-2.0,-16.0,-4.0,-1.0,-2.0
1.6951606379445294e+18,5.0,9.0,-5.0,-3.0,22.0,2.0,0.0,3.0
1.695160637945527e+18,-6.0,-15.0,3.0,2.0,4.0,2.0,-1.0,-1.0
1.6951606379465267e+18,8.0,3.0,-5.0,6.0,-20.0,-12.0,-6.0,1.0
1.6951606379525204e+18,0.0,6.0,5.0,4.0,0.0,1.0,1.0,-3.0
1.6951606379525204e+18,-6.0,-8.0,-8.0,9.0,8.0,11.0,4.0,-6.0
1.6951606379775068e+18,-2.0,5.0,11.0,-5.0,-13.0,-2.0,-2.0,-2.0
1.6951606379785144e+18,-11.0,4.0,0.0,-7.0,12.0,1.0,-3.0,-4.0
1.695160637983507e+18,3.0,-22.0,-28.0,-6.0,-3.0,-7.0,-3.0,3.0
1.695160637983507e+18,-6.0,-3.0,7.0,-6.0,-15.0,-7.0,-5.0,-6.0
1.6951606379855025e+18,8.0,26.0,22.0,18.0,8.0,6.0,1.0,1.0
1.6951606379865021e+18,-1.0,-16.0,-21.0,-2.0,0.0,2.0,2.0,5.0
1.6951606380154875e+18,-8.0,9.0,24.0,2.0,7.0,0.0,0.0,-1.0
1.6951606380174853e+18,4.0,6.0,-42.0,-14.0,-10.0,3.0,0.0,0.0
1.6951606380184916e+18,14.0,20.0,19.0,3.0,-3.0,-2.0,2.0,0.0
1.6951606380194875e+18,-8.0,-21.0,-11.0,-6.0,3.0,-2.0,-6.0,-5.0
1.6951606380194875e+18,11.0,17.0,8.0,-2.0,-2.0,3.0,3.0,5.0
1.6951606380194875e+18,-20.0,-34.0,13.0,20.0,-9.0,-9.0,-6.0,-9.0
1.6951606380284792e+18,-5.0,19.0,-2.0,-16.0,-1.0,-5.0,-2.0,-7.0
1.6951606380284792e+18,7.0,14.0,14.0,-9.0,3.0,4.0,2.0,6.0
1.6951606380344955e+18,0.0,2.0,-24.0,-13.0,1.0,-4.0,-2.0,1.0
1.6951606380354721e+18,0.0,-12.0,1.0,-7.0,-12.0,-1.0,2.0,3.0
1.6951606380434696e+18,-19.0,0.0,1.0,8.0,-2.0,-4.0,-4.0,-13.0
1.69516063804448e+18,8.0,11.0,28.0,21.0,16.0,5.0,2.0,1.0
1.6951606380654564e+18,8.0,-1.0,-10.0,-32.0,-19.0,-7.0,-4.0,-1.0
1.6951606380654564e+18,3.0,-18.0,-7.0,-10.0,-2.0,5.0,-1.0,2.0
1.6951606380974615e+18,-18.0,-23.0,-21.0,9.0,-2.0,-8.0,-9.0,-11.0
1.6951606380974615e+18,-3.0,10.0,9.0,8.0,-6.0,-4.0,-2.0,-1.0
1.695160638098438e+18,13.0,28.0,3.0,-10.0,-14.0,-5.0,0.0,3.0
1.695160638098438e+18,-9.0,-46.0,3.0,23.0,21.0,0.0,-4.0,-6.0
1.6951606380994573e+18,10.0,-16.0,-4.0,-8.0,2.0,10.0,5.0,7.0
1.6951606381004403e+18,4.0,33.0,4.0,-5.0,-6.0,0.0,-1.0,-9.0
1.6951606381105564e+18,31.0,29.0,5.0,24.0,23.0,5.0,6.0,24.0
1.6951606381105564e+18,-44.0,-47.0,19.0,-28.0,-23.0,-11.0,-12.0,-30.0
1.6951606381425912e+18,-22.0,-66.0,-8.0,-10.0,-13.0,-2.0,-1.0,-1.0
1.6951606381425912e+18,15.0,57.0,16.0,-3.0,-7.0,-4.0,2.0,6.0
1.695160638143591e+18,-5.0,21.0,14.0,4.0,9.0,2.0,0.0,-5.0
1.695160638143591e+18,-4.0,-9.0,-23.0,-3.0,-15.0,-2.0,2.0,0.0
1.6951606381448074e+18,-15.0,5.0,0.0,8.0,21.0,9.0,2.0,-8.0
1.6951606381448074e+18,49.0,12.0,-12.0,5.0,-4.0,4.0,8.0,19.0
1.6951606381585654e+18,-60.0,-28.0,4.0,-13.0,-7.0,-15.0,-9.0,-9.0
1.6951606381585654e+18,8.0,-15.0,-8.0,4.0,-6.0,-5.0,-3.0,-5.0
1.6951606381585654e+18,-35.0,-60.0,1.0,-14.0,5.0,6.0,1.0,-4.0
1.6951606381585654e+18,1.0,26.0,6.0,25.0,1.0,-9.0,-9.0,-6.0
1.6951606381794335e+18,33.0,52.0,20.0,-5.0,18.0,9.0,9.0,14.0
1.6951606381794335e+18,-22.0,-70.0,-27.0,-11.0,-12.0,-2.0,-1.0,-1.0
1.6951606381804344e+18,39.0,-5.0,-1.0,-4.0,5.0,-2.0,0.0,2.0
1.6951606381804344e+18,-33.0,52.0,57.0,15.0,24.0,15.0,0.0,-7.0
1.6951606381814735e+18,23.0,-7.0,-12.0,-2.0,-16.0,0.0,4.0,7.0
1.6951606381814735e+18,-9.0,33.0,22.0,7.0,-2.0,-7.0,0.0,11.0
1.6951606382085005e+18,-21.0,-51.0,0.0,19.0,-4.0,6.0,1.0,-15.0
1.6951606382085005e+18,28.0,7.0,-17.0,-27.0,-19.0,-20.0,-11.0,-3.0
1.6951606382165504e+18,-60.0,11.0,7.0,12.0,19.0,9.0,6.0,-8.0
1.6951606382165504e+18,21.0,-23.0,-1.0,-16.0,-25.0,-5.0,3.0,15.0
1.6951606382165504e+18,6.0,34.0,-7.0,11.0,8.0,1.0,-4.0,-21.0
1.6951606382165504e+18,10.0,-6.0,-24.0,-8.0,14.0,15.0,15.0,32.0
1.6951606382299648e+18,34.0,-14.0,36.0,20.0,-9.0,-2.0,2.0,6.0
1.6951606382299648e+18,17.0,62.0,0.0,4.0,26.0,12.0,6.0,7.0
1.6951606382539497e+18,-44.0,-48.0,-6.0,-27.0,-47.0,-17.0,-11.0,-27.0
1.6951606382549514e+18,42.0,6.0,-9.0,14.0,14.0,10.0,10.0,23.0
1.695160638255949e+18,11.0,-19.0,-6.0,-19.0,-27.0,-14.0,-13.0,-11.0
1.695160638255949e+18,-48.0,58.0,22.0,3.0,28.0,18.0,6.0,-16.0
1.6951606382569518e+18,-2.0,13.0,-15.0,7.0,-60.0,-21.0,-11.0,-11.0
1.6951606382569518e+18,-14.0,-13.0,-44.0,-28.0,34.0,20.0,4.0,4.0
1.6951606382709635e+18,8.0,-17.0,7.0,7.0,-17.0,-15.0,-6.0,7.0
1.6951606382729615e+18,29.0,52.0,10.0,0.0,6.0,2.0,-7.0,-6.0
1.695160638283933e+18,-18.0,-1.0,14.0,3.0,-30.0,-20.0,-9.0,-17.0
1.695160638283933e+18,13.0,12.0,29.0,42.0,34.0,35.0,17.0,-4.0
1.695160638285933e+18,-14.0,10.0,-20.0,-23.0,-11.0,2.0,-2.0,2.0
1.695160638285933e+18,0.0,-72.0,-1.0,27.0,30.0,26.0,15.0,23.0
1.6951606383058015e+18,19.0,63.0,5.0,-9.0,-2.0,-40.0,-25.0,15.0
1.6951606383058015e+18,-25.0,-57.0,-20.0,4.0,-20.0,-9.0,-4.0,-32.0
1.6951606383077978e+18,59.0,71.0,7.0,-22.0,-30.0,-11.0,-6.0,-13.0
1.6951606383077978e+18,-22.0,-6.0,16.0,11.0,1.0,9.0,14.0,6.0
1.6951606383357814e+18,25.0,-22.0,-11.0,6.0,28.0,25.0,16.0,20.0
1.6951606383357814e+18,-40.0,88.0,52.0,-21.0,16.0,10.0,5.0,11.0
1.695160638344229e+18,5.0,-113.0,-17.0,51.0,65.0,24.0,4.0,2.0
1.695160638344229e+18,6.0,40.0,-15.0,-25.0,-41.0,-24.0,-20.0,-35.0
1.6951606383452324e+18,-14.0,-53.0,-21.0,9.0,24.0,5.0,4.0,8.0
1.6951606383452324e+18,-29.0,51.0,25.0,-22.0,-74.0,-11.0,-1.0,24.0
1.6951606383462323e+18,56.0,45.0,-6.0,13.0,34.0,6.0,-2.0,8.0
1.695160638347253e+18,7.0,-26.0,-16.0,5.0,72.0,25.0,21.0,45.0
1.6951606383585492e+18,6.0,82.0,26.0,-22.0,-19.0,-32.0,-25.0,-14.0
1.6951606383585492e+18,25.0,-28.0,-39.0,21.0,11.0,-10.0,-7.0,-12.0
1.6951606383605545e+18,-55.0,28.0,53.0,-22.0,-55.0,9.0,2.0,0.0
1.6951606383605545e+18,20.0,13.0,-25.0,18.0,38.0,-9.0,-3.0,-3.0
1.6951606383800082e+18,-11.0,-33.0,4.0,10.0,24.0,29.0,26.0,23.0
1.6951606383800082e+18,13.0,-5.0,3.0,-52.0,-48.0,-36.0,-22.0,-20.0
1.6951606383969974e+18,-28.0,-25.0,-76.0,19.0,-5.0,-3.0,8.0,-7.0
1.6951606383979965e+18,5.0,47.0,35.0,22.0,32.0,17.0,-2.0,1.0
1.6951606383979965e+18,-38.0,-62.0,8.0,-6.0,-43.0,-15.0,-2.0,6.0
1.6951606383979965e+18,45.0,42.0,-11.0,16.0,81.0,37.0,14.0,-8.0
1.6951606384191964e+18,-7.0,-42.0,16.0,-8.0,12.0,-12.0,-14.0,-16.0
1.6951606384201992e+18,8.0,-3.0,-1.0,-1.0,-40.0,-20.0,-7.0,9.0
1.6951606384201992e+18,17.0,-17.0,-39.0,26.0,27.0,6.0,2.0,30.0
1.6951606384201992e+18,-8.0,-34.0,-6.0,-41.0,-27.0,-27.0,-7.0,-24.0
1.6951606384222019e+18,-15.0,12.0,24.0,3.0,4.0,-3.0,-4.0,-24.0
1.6951606384222019e+18,3.0,-8.0,14.0,27.0,49.0,19.0,22.0,81.0
1.6951606384493514e+18,14.0,22.0,-4.0,-6.0,-7.0,4.0,-3.0,-34.0
1.6951606384493514e+18,34.0,41.0,12.0,35.0,-22.0,-12.0,-1.0,24.0
1.6951606384503498e+18,8.0,-33.0,-27.0,-30.0,-24.0,3.0,-2.0,-22.0
1.6951606384503498e+18,10.0,-22.0,-7.0,-15.0,-34.0,-58.0,-40.0,-37.0
1.6951606384563464e+18,-44.0,18.0,16.0,21.0,46.0,23.0,12.0,13.0
1.6951606384563464e+18,-21.0,-31.0,4.0,31.0,53.0,15.0,-1.0,-25.0
1.6951606384893783e+18,-22.0,8.0,15.0,4.0,-18.0,-5.0,3.0,3.0
1.6951606384893783e+18,21.0,-4.0,0.0,-31.0,-31.0,-10.0,-6.0,-21.0
1.6951606384903826e+18,-16.0,-7.0,-14.0,-8.0,-17.0,-5.0,-1.0,13.0
