timestamp,EMG_s0,EMG_s1,EMG_s2,EMG_s3,EMG_s4,EMG_s5,EMG_s6,EMG_s7
1.695163406592586e+18,1.0,2.0,3.0,-7.0,-4.0,-4.0,-1.0,0.0
1.695163406592586e+18,-1.0,-2.0,5.0,18.0,1.0,0.0,1.0,-1.0
1.695163406593586e+18,-1.0,-1.0,-4.0,12.0,7.0,0.0,0.0,-1.0
1.695163406593586e+18,-1.0,-2.0,-3.0,-24.0,-4.0,-1.0,-1.0,-1.0
1.695163406605599e+18,-3.0,-3.0,-2.0,8.0,1.0,1.0,0.0,-2.0
1.695163406605599e+18,-2.0,-3.0,-8.0,-4.0,-7.0,-4.0,-2.0,-1.0
1.6951634066065787e+18,1.0,4.0,14.0,-10.0,-4.0,-2.0,-1.0,-1.0
1.6951634066065787e+18,0.0,-5.0,0.0,39.0,5.0,-2.0,-1.0,-2.0
1.6951634066105738e+18,0.0,4.0,20.0,12.0,2.0,1.0,0.0,-2.0
1.6951634066105738e+18,-1.0,-4.0,-26.0,-35.0,-6.0,-2.0,0.0,-1.0
1.6951634066195686e+18,-1.0,2.0,-2.0,-1.0,-4.0,0.0,-2.0,-2.0
1.6951634066195686e+18,2.0,5.0,9.0,9.0,8.0,1.0,2.0,1.0
1.6951634066205688e+18,-3.0,-5.0,0.0,-22.0,0.0,-1.0,-1.0,-2.0
1.6951634066215718e+18,2.0,3.0,19.0,15.0,-1.0,-1.0,-1.0,0.0
1.6951634066455557e+18,-2.0,-3.0,-14.0,-4.0,0.0,-1.0,-1.0,1.0
1.6951634066465536e+18,-3.0,0.0,-3.0,-12.0,-4.0,0.0,-1.0,0.0
1.6951634066475753e+18,-1.0,0.0,3.0,16.0,1.0,1.0,1.0,2.0
1.6951634066475753e+18,-3.0,0.0,0.0,-15.0,1.0,0.0,0.0,-1.0
1.6951634066555702e+18,4.0,-4.0,6.0,10.0,-4.0,-3.0,-3.0,-2.0
1.6951634066555702e+18,0.0,-1.0,1.0,0.0,-2.0,-1.0,0.0,-1.0
1.6951634066675436e+18,-1.0,0.0,-9.0,-9.0,-3.0,0.0,-1.0,0.0
1.6951634066675436e+18,-4.0,1.0,4.0,9.0,4.0,1.0,-2.0,-2.0
1.695163406686532e+18,-3.0,0.0,13.0,21.0,1.0,-2.0,-1.0,-1.0
1.6951634066875297e+18,3.0,-1.0,-21.0,-16.0,-3.0,1.0,-2.0,2.0
1.6951634066885294e+18,-3.0,-5.0,2.0,10.0,-7.0,-5.0,-2.0,-2.0
1.6951634066885294e+18,2.0,0.0,-5.0,-1.0,-2.0,1.0,0.0,2.0
1.6951634067035205e+18,-3.0,-3.0,-2.0,-12.0,-1.0,-1.0,-1.0,1.0
1.6951634067035205e+18,0.0,1.0,8.0,5.0,-2.0,-3.0,-1.0,0.0
1.6951634067065188e+18,-3.0,-1.0,-23.0,-29.0,-5.0,-1.0,0.0,-1.0
1.6951634067065188e+18,-3.0,-5.0,3.0,5.0,-4.0,-2.0,-2.0,-2.0
1.695163406732506e+18,-2.0,-2.0,-6.0,-7.0,1.0,-1.0,0.0,-1.0
1.695163406733505e+18,-3.0,-2.0,7.0,12.0,0.0,1.0,0.0,-2.0
1.6951634067474957e+18,1.0,1.0,2.0,8.0,3.0,2.0,1.0,-1.0
1.6951634067474957e+18,-2.0,-1.0,9.0,7.0,2.0,-1.0,-1.0,0.0
1.695163406748497e+18,2.0,1.0,-7.0,-17.0,-1.0,0.0,-1.0,1.0
1.695163406748497e+18,-4.0,-5.0,-24.0,-10.0,-1.0,-1.0,-3.0,-1.0
1.695163406749494e+18,6.0,1.0,16.0,3.0,1.0,0.0,1.0,-1.0
1.695163406750494e+18,10.0,-4.0,1.0,-7.0,-2.0,-2.0,-1.0,-2.0
1.6951634067794772e+18,-2.0,0.0,4.0,8.0,-1.0,0.0,1.0,-2.0
1.6951634067794772e+18,0.0,3.0,9.0,-1.0,-2.0,-2.0,-3.0,0.0
1.6951634067794772e+18,-4.0,-3.0,-15.0,2.0,1.0,1.0,-3.0,-2.0
1.6951634067794772e+18,-4.0,0.0,-6.0,-10.0,-3.0,0.0,0.0,0.0
1.6951634067794772e+18,3.0,0.0,4.0,8.0,1.0,1.0,0.0,1.0
1.695163406780477e+18,-3.0,-4.0,-3.0,-7.0,-2.0,-2.0,-1.0,-4.0
1.6951634067944689e+18,-1.0,2.0,-3.0,1.0,0.0,-2.0,-1.0,1.0
1.6951634067944689e+18,0.0,2.0,2.0,4.0,2.0,0.0,-1.0,0.0
1.695163406825473e+18,1.0,0.0,-2.0,0.0,4.0,-1.0,0.0,0.0
1.6951634068264507e+18,-1.0,1.0,9.0,9.0,-1.0,-1.0,-1.0,0.0
1.6951634068264507e+18,0.0,-1.0,-3.0,-7.0,1.0,1.0,-1.0,-1.0
1.6951634068264507e+18,-6.0,-4.0,-29.0,-17.0,-4.0,-2.0,-2.0,-1.0
1.6951634068294484e+18,-3.0,-3.0,4.0,3.0,-6.0,-3.0,-3.0,-2.0
1.6951634068294484e+18,-6.0,0.0,6.0,4.0,3.0,1.0,2.0,-2.0
1.6951634068304502e+18,8.0,2.0,5.0,9.0,-1.0,0.0,0.0,3.0
1.6951634068304502e+18,0.0,0.0,-2.0,-12.0,5.0,2.0,1.0,0.0
1.6951634068364444e+18,0.0,0.0,0.0,1.0,3.0,1.0,0.0,1.0
1.6951634068364444e+18,1.0,-1.0,-2.0,14.0,2.0,1.0,1.0,-1.0
1.6951634068674496e+18,-5.0,-2.0,-2.0,-21.0,-10.0,-3.0,-3.0,-4.0
1.6951634068674496e+18,0.0,-1.0,11.0,29.0,4.0,1.0,-1.0,-3.0
1.6951634068684293e+18,3.0,-2.0,-10.0,-9.0,-6.0,0.0,-2.0,1.0
1.6951634068684293e+18,2.0,0.0,-17.0,-13.0,-1.0,-1.0,-2.0,0.0
1.695163406869426e+18,-4.0,-1.0,4.0,-2.0,-1.0,-2.0,1.0,-1.0
1.6951634068704284e+18,3.0,1.0,13.0,0.0,-4.0,-1.0,0.0,-2.0
1.69516340688142e+18,-4.0,0.0,-7.0,-7.0,3.0,4.0,1.0,-2.0
1.69516340688142e+18,9.0,-2.0,2.0,3.0,-5.0,-3.0,-4.0,1.0
1.6951634068874145e+18,-5.0,-3.0,-7.0,-5.0,0.0,0.0,0.0,-1.0
1.6951634068884193e+18,-2.0,-1.0,-15.0,-18.0,-3.0,0.0,0.0,-2.0
1.6951634068974098e+18,1.0,2.0,16.0,10.0,1.0,-1.0,-1.0,-1.0
1.6951634068974098e+18,-3.0,2.0,-13.0,-20.0,-1.0,2.0,1.0,-1.0
1.6951634069193969e+18,4.0,0.0,11.0,22.0,-4.0,-2.0,-2.0,0.0
1.6951634069193969e+18,0.0,2.0,1.0,4.0,2.0,-1.0,0.0,2.0
1.6951634069193969e+18,1.0,-2.0,-4.0,-10.0,-2.0,0.0,-2.0,-1.0
1.6951634069193969e+18,-4.0,-3.0,3.0,0.0,1.0,0.0,-1.0,-1.0
1.6951634069503793e+18,1.0,2.0,3.0,9.0,3.0,0.0,-1.0,0.0
1.6951634069503793e+18,0.0,-3.0,-10.0,-4.0,-6.0,-4.0,-1.0,-2.0
1.6951634069513784e+18,0.0,-1.0,0.0,-1.0,2.0,-1.0,1.0,0.0
1.6951634069513784e+18,-3.0,-2.0,4.0,5.0,0.0,1.0,2.0,1.0
1.6951634069813627e+18,-2.0,-2.0,-5.0,-14.0,-4.0,0.0,-2.0,0.0
1.6951634069813627e+18,-2.0,2.0,9.0,13.0,3.0,1.0,0.0,0.0
1.6951634069813627e+18,1.0,0.0,-2.0,-16.0,-5.0,-1.0,-1.0,-1.0
1.6951634069823616e+18,-1.0,-1.0,16.0,36.0,-3.0,-7.0,-4.0,-3.0
1.695163406983361e+18,-4.0,-5.0,-3.0,-14.0,-3.0,-2.0,0.0,-2.0
1.695163406983361e+18,1.0,-4.0,-8.0,-7.0,-2.0,0.0,-1.0,-1.0
1.6951634069863588e+18,2.0,3.0,10.0,-3.0,2.0,1.0,0.0,-1.0
1.6951634069863588e+18,-1.0,-3.0,-11.0,-7.0,-4.0,-3.0,-2.0,-1.0
1.695163407009345e+18,3.0,1.0,4.0,8.0,2.0,1.0,-1.0,1.0
1.695163407009345e+18,0.0,2.0,5.0,1.0,1.0,1.0,-1.0,-1.0
1.6951634070103452e+18,-2.0,-5.0,3.0,16.0,-1.0,-1.0,-1.0,-5.0
1.6951634070103452e+18,4.0,-2.0,-2.0,-17.0,-3.0,-5.0,-4.0,3.0
1.6951634070193403e+18,-1.0,1.0,-2.0,10.0,1.0,-3.0,-3.0,-2.0
1.6951634070193403e+18,-14.0,-3.0,-1.0,-6.0,-7.0,-2.0,-1.0,-5.0
1.6951634070193403e+18,2.0,-3.0,-1.0,0.0,-5.0,-4.0,-3.0,4.0
1.6951634070193403e+18,3.0,3.0,1.0,2.0,2.0,3.0,-1.0,-3.0
1.6951634070553185e+18,-2.0,-4.0,-9.0,-11.0,-1.0,0.0,0.0,-1.0
1.6951634070553185e+18,2.0,1.0,13.0,7.0,-1.0,-3.0,-2.0,-2.0
1.6951634070563185e+18,-6.0,-2.0,-20.0,-16.0,-9.0,-3.0,1.0,-3.0
1.6951634070563185e+18,-4.0,-4.0,-2.0,1.0,-3.0,-2.0,-2.0,0.0
1.6951634070583173e+18,-3.0,2.0,4.0,7.0,4.0,2.0,1.0,2.0
1.6951634070583173e+18,4.0,-3.0,-9.0,-10.0,-6.0,-3.0,-2.0,-2.0
1.6951634070683113e+18,0.0,0.0,-1.0,2.0,3.0,3.0,0.0,0.0
1.6951634070683113e+18,0.0,0.0,-7.0,-19.0,-1.0,0.0,-1.0,-3.0
1.695163407100293e+18,-1.0,-1.0,-4.0,8.0,2.0,-1.0,2.0,-1.0
1.695163407100293e+18,-3.0,-1.0,32.0,16.0,-1.0,-3.0,-5.0,-2.0
1.6951634071012943e+18,0.0,-2.0,-17.0,1.0,-3.0,-5.0,-2.0,-3.0
1.6951634071012943e+18,-3.0,-3.0,-4.0,-17.0,-1.0,0.0,0.0,0.0
1.6951634071032916e+18,-4.0,-1.0,-4.0,4.0,2.0,2.0,0.0,-2.0
1.6951634071032916e+18,-1.0,-1.0,-3.0,9.0,1.0,-2.0,0.0,0.0
1.6951634071138348e+18,0.0,-3.0,11.0,-5.0,-3.0,-2.0,-1.0,0.0
1.6951634071138348e+18,-7.0,-3.0,-2.0,1.0,1.0,2.0,0.0,-3.0
1.6951634071584402e+18,3.0,0.0,-3.0,-5.0,0.0,-3.0,-2.0,-2.0
1.6951634071584402e+18,3.0,4.0,-8.0,-19.0,1.0,2.0,0.0,1.0
1.6951634071679665e+18,-3.0,-7.0,2.0,23.0,0.0,-4.0,-5.0,-3.0
1.6951634071679665e+18,-1.0,-3.0,-7.0,-6.0,-4.0,1.0,-2.0,1.0
1.695163407169974e+18,-2.0,-4.0,4.0,-1.0,1.0,-1.0,0.0,-1.0
1.695163407169974e+18,-1.0,1.0,-2.0,-6.0,3.0,2.0,1.0,-1.0
1.695163407169974e+18,-1.0,3.0,8.0,3.0,2.0,0.0,0.0,-1.0
1.695163407169974e+18,-1.0,-3.0,-19.0,-17.0,-6.0,-1.0,-1.0,1.0
1.6951634071818842e+18,-2.0,-1.0,-6.0,-11.0,-1.0,0.0,1.0,-2.0
1.6951634071818842e+18,-2.0,-4.0,3.0,16.0,2.0,2.0,-1.0,8.0
1.6951634071908303e+18,4.0,3.0,3.0,-4.0,-2.0,0.0,0.0,0.0
1.6951634071908303e+18,-4.0,-3.0,1.0,2.0,2.0,1.0,1.0,-4.0
1.69516340719183e+18,2.0,2.0,-6.0,0.0,2.0,-1.0,1.0,1.0
1.69516340719183e+18,0.0,0.0,-4.0,-6.0,0.0,-1.0,1.0,-1.0
1.6951634071994706e+18,-6.0,-3.0,-2.0,10.0,-1.0,-3.0,-2.0,-3.0
1.6951634071994706e+18,7.0,-2.0,-5.0,-27.0,-4.0,-5.0,-1.0,2.0
1.69516340720047e+18,-1.0,2.0,-1.0,5.0,1.0,1.0,-1.0,1.0
1.69516340720047e+18,0.0,-1.0,-1.0,0.0,2.0,-3.0,1.0,-1.0
1.6951634072129367e+18,-2.0,1.0,11.0,3.0,-4.0,-3.0,-4.0,-1.0
1.6951634072129367e+18,-2.0,0.0,-4.0,-11.0,-1.0,2.0,-1.0,0.0
1.6951634072438298e+18,-3.0,-1.0,-5.0,-1.0,-1.0,-1.0,-1.0,-3.0
1.6951634072448276e+18,1.0,-2.0,-10.0,-11.0,-5.0,-2.0,-2.0,-2.0
1.6951634072448276e+18,-2.0,-1.0,3.0,4.0,3.0,1.0,1.0,1.0
1.6951634072458278e+18,-1.0,-3.0,-6.0,-1.0,-6.0,-2.0,1.0,-1.0
1.6951634072458278e+18,-1.0,-1.0,-5.0,-9.0,-2.0,-1.0,-1.0,0.0
1.6951634072458278e+18,0.0,0.0,9.0,16.0,5.0,3.0,0.0,1.0
1.695163407288875e+18,4.0,-1.0,-3.0,-13.0,-3.0,-2.0,-1.0,3.0
1.6951634072898755e+18,-1.0,0.0,-7.0,-7.0,0.0,-1.0,-2.0,-1.0
1.695163407290873e+18,1.0,0.0,14.0,20.0,1.0,0.0,-1.0,-1.0
1.6951634072918725e+18,4.0,0.0,9.0,6.0,2.0,-1.0,1.0,1.0
1.6951634072918725e+18,-11.0,-1.0,-3.0,5.0,1.0,0.0,0.0,-2.0
1.6951634072928812e+18,0.0,-3.0,-6.0,0.0,2.0,1.0,0.0,-1.0
1.6951634073198938e+18,1.0,-1.0,0.0,-7.0,-4.0,-1.0,-1.0,0.0
1.6951634073238554e+18,-5.0,0.0,13.0,11.0,-2.0,-2.0,-3.0,-1.0
1.6951634073258542e+18,9.0,0.0,-16.0,-9.0,-3.0,-1.0,-1.0,1.0
1.6951634073258542e+18,-2.0,-2.0,3.0,9.0,-2.0,0.0,0.0,-2.0
1.6951634073388475e+18,-4.0,-2.0,-7.0,-12.0,-4.0,-1.0,-1.0,-2.0
1.6951634073398456e+18,5.0,0.0,13.0,22.0,-2.0,-1.0,1.0,7.0
1.6951634073398456e+18,-1.0,-2.0,-12.0,-14.0,3.0,1.0,1.0,-2.0
1.695163407340846e+18,0.0,0.0,-6.0,3.0,0.0,-1.0,-2.0,-2.0
1.695163407341846e+18,0.0,1.0,0.0,-15.0,-1.0,1.0,-1.0,1.0
1.695163407341846e+18,0.0,4.0,12.0,13.0,7.0,2.0,1.0,-1.0
1.69516340735084e+18,-3.0,-5.0,-12.0,-7.0,-10.0,-6.0,-2.0,-2.0
1.69516340735084e+18,1.0,1.0,6.0,6.0,-2.0,0.0,-1.0,0.0
1.6951634073518403e+18,-3.0,-1.0,0.0,-4.0,4.0,3.0,-1.0,-2.0
1.6951634073518403e+18,-4.0,-4.0,-6.0,-2.0,0.0,-3.0,-1.0,-3.0
1.6951634073628344e+18,0.0,1.0,3.0,-7.0,-1.0,0.0,0.0,0.0
1.6951634073638382e+18,0.0,2.0,10.0,13.0,-2.0,-3.0,-1.0,-2.0
1.6951634073718323e+18,-1.0,-5.0,-7.0,3.0,-3.0,0.0,0.0,0.0
1.6951634073728276e+18,-1.0,-3.0,-19.0,-37.0,-11.0,-5.0,-4.0,-3.0
1.6951634073788224e+18,1.0,0.0,10.0,9.0,2.0,2.0,-1.0,-1.0
1.6951634073788224e+18,0.0,0.0,-8.0,-20.0,-2.0,0.0,0.0,-1.0
1.695163407379822e+18,-1.0,-1.0,11.0,29.0,2.0,-3.0,-2.0,-2.0
1.695163407379822e+18,-2.0,1.0,1.0,5.0,2.0,0.0,0.0,-2.0
1.6951634073998103e+18,-2.0,-4.0,-2.0,-2.0,-5.0,-3.0,-3.0,-4.0
1.6951634073998103e+18,-1.0,-1.0,-4.0,3.0,1.0,-2.0,1.0,0.0
1.6951634074008092e+18,-1.0,0.0,2.0,-11.0,-3.0,-3.0,-2.0,-3.0
1.6951634074008092e+18,-2.0,-1.0,-3.0,-4.0,-1.0,0.0,1.0,0.0
1.695163407424795e+18,2.0,-2.0,-1.0,2.0,-2.0,-1.0,-1.0,0.0
1.695163407424795e+18,-2.0,0.0,15.0,12.0,1.0,-3.0,-3.0,-1.0
1.695163407424795e+18,-4.0,-8.0,-28.0,1.0,-3.0,-1.0,-1.0,-1.0
1.695163407424795e+18,1.0,2.0,-1.0,1.0,-1.0,1.0,0.0,-1.0
1.695163407438787e+18,-3.0,1.0,1.0,-7.0,-4.0,-1.0,-2.0,-2.0
1.695163407438787e+18,-1.0,-2.0,1.0,-7.0,0.0,-3.0,0.0,-3.0
1.6951634074397868e+18,-1.0,2.0,-2.0,4.0,-3.0,-3.0,-2.0,-2.0
1.6951634074397868e+18,0.0,1.0,1.0,-11.0,5.0,2.0,2.0,0.0
1.6951634074667704e+18,-1.0,-2.0,1.0,16.0,5.0,0.0,-1.0,-2.0
1.695163407467771e+18,-2.0,-2.0,-7.0,-11.0,0.0,-2.0,-1.0,0.0
1.695163407467771e+18,1.0,-1.0,2.0,-11.0,-4.0,-1.0,0.0,-1.0
1.695163407467771e+18,-3.0,-4.0,3.0,20.0,6.0,0.0,-1.0,-2.0
1.6951634074767647e+18,-1.0,0.0,2.0,-2.0,0.0,0.0,1.0,0.0
1.6951634074767647e+18,1.0,-4.0,-8.0,-1.0,-3.0,-2.0,-2.0,2.0
1.6951634074767647e+18,1.0,1.0,3.0,-2.0,0.0,-1.0,2.0,-1.0
1.6951634074767647e+18,-2.0,-3.0,-7.0,-6.0,-5.0,-2.0,-2.0,-3.0
1.6951634074967532e+18,0.0,0.0,3.0,-1.0,-2.0,-1.0,2.0,1.0
1.6951634074967532e+18,-3.0,2.0,-2.0,6.0,3.0,3.0,-1.0,-4.0
1.6951634075227392e+18,-3.0,-8.0,-8.0,-5.0,-4.0,-3.0,-3.0,-3.0
1.6951634075237391e+18,-2.0,-1.0,-6.0,1.0,3.0,2.0,1.0,0.0
1.6951634075237391e+18,-1.0,-1.0,-1.0,3.0,-2.0,-5.0,-6.0,1.0
1.6951634075237391e+18,-1.0,0.0,7.0,6.0,1.0,1.0,1.0,-1.0
1.6951634075237391e+18,-1.0,2.0,1.0,-2.0,0.0,-1.0,-1.0,1.0
1.6951634075237391e+18,0.0,0.0,-2.0,-8.0,1.0,0.0,1.0,1.0
1.6951634075347315e+18,0.0,2.0,-7.0,-3.0,2.0,1.0,1.0,-1.0
1.6951634075347315e+18,-1.0,-7.0,5.0,5.0,-1.0,-2.0,-1.0,1.0
1.6951634075357317e+18,1.0,4.0,6.0,-2.0,5.0,3.0,-2.0,2.0
1.6951634075357317e+18,-5.0,-1.0,0.0,-5.0,-5.0,-1.0,0.0,-2.0
1.6951634075707128e+18,-1.0,3.0,7.0,0.0,-1.0,-2.0,-1.0,-1.0
1.6951634075707128e+18,0.0,-4.0,-7.0,-2.0,-3.0,-2.0,-2.0,-2.0
1.6951634075707128e+18,0.0,-1.0,-15.0,-7.0,1.0,1.0,2.0,-2.0
1.6951634075717115e+18,-1.0,-1.0,8.0,4.0,-8.0,-3.0,-4.0,0.0
1.6951634075797056e+18,0.0,1.0,-6.0,-6.0,6.0,3.0,1.0,-2.0
1.6951634075797056e+18,-3.0,-1.0,-18.0,2.0,1.0,-5.0,-3.0,-4.0
1.6951634075797056e+18,1.0,-3.0,7.0,-4.0,1.0,3.0,0.0,0.0
1.6951634075797056e+18,1.0,1.0,0.0,6.0,-9.0,-6.0,0.0,1.0
1.6951634076086894e+18,0.0,-5.0,10.0,-3.0,6.0,2.0,1.0,-1.0
1.6951634076096893e+18,-1.0,9.0,-4.0,0.0,-10.0,-5.0,-2.0,-2.0
1.6951634076256786e+18,0.0,2.0,1.0,-5.0,-9.0,-7.0,-3.0,-2.0
1.6951634076256786e+18,1.0,2.0,-26.0,1.0,19.0,10.0,2.0,0.0
1.6951634076266788e+18,-5.0,-16.0,11.0,-9.0,-5.0,-3.0,-5.0,-2.0
1.6951634076266788e+18,-1.0,-11.0,-18.0,1.0,-5.0,-2.0,-1.0,-4.0
1.695163407627681e+18,2.0,12.0,44.0,0.0,-3.0,-2.0,0.0,2.0
1.695163407627681e+18,-1.0,-2.0,-2.0,1.0,-5.0,-4.0,-4.0,-1.0
1.6951634076316785e+18,-3.0,2.0,-22.0,-4.0,0.0,-2.0,-2.0,-1.0
1.6951634076316785e+18,-3.0,-3.0,15.0,0.0,0.0,-1.0,-4.0,-3.0
1.6951634076536627e+18,-5.0,-10.0,-12.0,-12.0,-2.0,0.0,1.0,-2.0
1.6951634076546647e+18,3.0,14.0,8.0,-3.0,1.0,-2.0,-1.0,-1.0
1.6951634076616806e+18,6.0,0.0,6.0,18.0,3.0,-1.0,-1.0,2.0
1.6951634076616806e+18,3.0,5.0,27.0,7.0,3.0,4.0,2.0,4.0
1.6951634076626806e+18,-8.0,-17.0,-70.0,-4.0,4.0,-1.0,-3.0,-4.0
1.6951634076626806e+18,0.0,3.0,28.0,-22.0,-10.0,-2.0,-2.0,0.0
1.6951634076756513e+18,-2.0,-3.0,-33.0,-14.0,-14.0,-6.0,-3.0,-5.0
1.6951634076766528e+18,1.0,5.0,-7.0,5.0,13.0,5.0,2.0,2.0
1.6951634076766528e+18,6.0,-12.0,20.0,10.0,16.0,9.0,4.0,2.0
1.6951634076766528e+18,-8.0,-11.0,23.0,-5.0,-10.0,-6.0,-5.0,-2.0
1.695163407701636e+18,-3.0,-3.0,-7.0,9.0,1.0,-1.0,-1.0,-2.0
1.6951634077066355e+18,1.0,12.0,-4.0,-19.0,-14.0,-4.0,1.0,0.0
1.6951634077066355e+18,9.0,12.0,18.0,24.0,7.0,2.0,1.0,1.0
1.6951634077066355e+18,6.0,-2.0,-2.0,9.0,0.0,-1.0,2.0,0.0
1.69516340772962e+18,-8.0,-5.0,-4.0,-24.0,-15.0,-3.0,-4.0,-10.0
1.69516340772962e+18,20.0,-2.0,9.0,0.0,6.0,5.0,3.0,9.0
1.69516340772962e+18,-8.0,6.0,-2.0,1.0,1.0,-4.0,-1.0,-2.0
1.6951634077306227e+18,-8.0,22.0,7.0,12.0,8.0,3.0,-1.0,-3.0
1.6951634077985807e+18,11.0,3.0,13.0,0.0,1.0,-1.0,0.0,-8.0
1.6951634077985807e+18,-7.0,-13.0,-12.0,-6.0,-1.0,0.0,-1.0,8.0
1.6951634077985807e+18,5.0,-6.0,8.0,-7.0,-8.0,-1.0,0.0,7.0
1.6951634077985807e+18,-10.0,-16.0,-78.0,2.0,4.0,2.0,-2.0,-21.0
1.6951634078005809e+18,-16.0,34.0,55.0,-4.0,-4.0,-3.0,-8.0,-15.0
1.6951634078005809e+18,-8.0,-9.0,14.0,3.0,2.0,2.0,3.0,4.0
1.6951634078125714e+18,12.0,16.0,-10.0,-9.0,-4.0,-1.0,5.0,21.0
1.6951634078135734e+18,-8.0,0.0,19.0,4.0,2.0,-1.0,0.0,4.0
1.6951634078145728e+18,5.0,-10.0,-15.0,2.0,6.0,1.0,2.0,5.0
1.6951634078145728e+18,0.0,23.0,10.0,3.0,-1.0,1.0,-1.0,-13.0
1.6951634078195697e+18,-22.0,2.0,-1.0,-8.0,-21.0,-9.0,-8.0,-21.0
1.6951634078195697e+18,29.0,-10.0,-7.0,-36.0,5.0,2.0,4.0,10.0
1.6951634078205696e+18,19.0,-37.0,2.0,8.0,-1.0,4.0,3.0,15.0
1.6951634078205696e+18,-8.0,23.0,-19.0,10.0,7.0,0.0,-4.0,-6.0
1.6951634078215675e+18,-8.0,12.0,5.0,11.0,14.0,4.0,-1.0,-8.0
1.6951634078215675e+18,-16.0,-2.0,4.0,-30.0,-14.0,1.0,0.0,-4.0
1.6951634078435548e+18,9.0,13.0,5.0,5.0,-6.0,-2.0,3.0,7.0
1.6951634078435548e+18,-7.0,-22.0,26.0,0.0,4.0,-1.0,1.0,2.0
1.6951634078445563e+18,10.0,10.0,-15.0,-5.0,-12.0,-3.0,-1.0,-4.0
1.6951634078455572e+18,-21.0,-9.0,10.0,4.0,-9.0,-7.0,-4.0,-8.0
1.6951634078555484e+18,-11.0,-5.0,-19.0,-4.0,12.0,5.0,1.0,5.0
1.6951634078555484e+18,13.0,5.0,-7.0,-9.0,-12.0,-5.0,-1.0,2.0
1.6951634078815334e+18,4.0,-26.0,13.0,14.0,8.0,1.0,1.0,3.0
1.6951634078815334e+18,-1.0,-7.0,-27.0,2.0,-1.0,-1.0,-3.0,-11.0
1.6951634078825347e+18,-10.0,-2.0,14.0,0.0,-7.0,-3.0,0.0,28.0
1.6951634078825347e+18,-2.0,28.0,-8.0,-9.0,-3.0,-4.0,-5.0,-13.0
1.69516340788553e+18,20.0,-3.0,28.0,-8.0,-2.0,-3.0,0.0,3.0
1.69516340788553e+18,-4.0,80.0,14.0,23.0,8.0,6.0,6.0,9.0
1.695163407902543e+18,-19.0,-73.0,-26.0,-18.0,6.0,2.0,-3.0,-28.0
1.695163407902543e+18,2.0,12.0,43.0,26.0,-12.0,-3.0,2.0,12.0
1.69516340790852e+18,-24.0,-14.0,-60.0,-21.0,-5.0,-6.0,-9.0,-13.0
1.69516340790852e+18,-4.0,-14.0,18.0,-3.0,-5.0,-1.0,-1.0,4.0
1.695163407931527e+18,9.0,32.0,-13.0,-5.0,2.0,0.0,-3.0,-15.0
1.695163407932512e+18,3.0,-1.0,-9.0,-10.0,-2.0,0.0,-2.0,-4.0
1.6951634079335055e+18,0.0,1.0,25.0,-3.0,0.0,3.0,4.0,4.0
1.6951634079335055e+18,-17.0,-53.0,-12.0,-10.0,-17.0,-7.0,-6.0,-14.0
1.6951634079474957e+18,10.0,5.0,2.0,11.0,9.0,-7.0,-4.0,0.0
1.6951634079474957e+18,-32.0,-17.0,-12.0,0.0,7.0,3.0,2.0,-4.0
1.695163407978478e+18,3.0,2.0,18.0,-1.0,-8.0,-8.0,-5.0,4.0
1.695163407978478e+18,38.0,51.0,1.0,12.0,12.0,1.0,2.0,11.0
1.695163407978478e+18,-12.0,-32.0,-2.0,-4.0,-16.0,-6.0,-5.0,-4.0
1.69516340797948e+18,26.0,4.0,5.0,-2.0,-1.0,-4.0,-1.0,-1.0
1.6951634079804838e+18,-12.0,78.0,14.0,16.0,6.0,7.0,8.0,1.0
1.6951634079814787e+18,-26.0,-22.0,0.0,-17.0,-5.0,-3.0,-7.0,-12.0
1.6951634079984686e+18,44.0,30.0,19.0,-3.0,-6.0,3.0,6.0,14.0
1.6951634079984686e+18,-43.0,-59.0,-26.0,6.0,18.0,10.0,5.0,-1.0
1.695163408023452e+18,-14.0,1.0,12.0,-4.0,-4.0,-6.0,-5.0,-5.0
1.695163408023452e+18,16.0,26.0,6.0,2.0,-1.0,2.0,2.0,8.0
1.695163408023452e+18,3.0,-15.0,13.0,28.0,5.0,1.0,0.0,-2.0
1.6951634080244544e+18,15.0,21.0,1.0,-22.0,-16.0,-2.0,-3.0,-3.0
1.6951634080384428e+18,23.0,-22.0,-18.0,-11.0,-1.0,-6.0,-5.0,5.0
1.6951634080394427e+18,-18.0,-20.0,-2.0,10.0,6.0,-2.0,-2.0,3.0
1.6951634080394427e+18,4.0,25.0,-2.0,-3.0,-4.0,1.0,-5.0,-29.0
1.6951634080394427e+18,6.0,37.0,11.0,3.0,-6.0,-5.0,-2.0,-16.0
1.695163408054435e+18,-11.0,9.0,-2.0,-17.0,-25.0,-8.0,-3.0,3.0
1.695163408054435e+18,10.0,17.0,-27.0,6.0,16.0,1.0,-4.0,2.0
1.695163408074422e+18,4.0,-12.0,11.0,1.0,-3.0,-1.0,-1.0,-17.0
1.695163408075424e+18,10.0,2.0,-3.0,-11.0,12.0,6.0,1.0,3.0
1.695163408075424e+18,1.0,9.0,10.0,18.0,-3.0,0.0,1.0,8.0
1.695163408075424e+18,-12.0,-31.0,0.0,-10.0,-26.0,-15.0,-10.0,-12.0
1.6951634080774308e+18,4.0,3.0,0.0,20.0,12.0,8.0,10.0,16.0
1.6951634080774308e+18,3.0,-30.0,-36.0,-16.0,0.0,-6.0,-4.0,-4.0
1.6951634080924152e+18,-7.0,18.0,9.0,4.0,11.0,10.0,8.0,19.0
1.6951634080924152e+18,8.0,5.0,3.0,-5.0,-4.0,-2.0,-1.0,0.0
1.6951634080924152e+18,-9.0,-6.0,-5.0,-2.0,-6.0,-1.0,-2.0,-7.0
1.6951634080934147e+18,35.0,15.0,37.0,-19.0,-48.0,-14.0,-8.0,-12.0
1.6951634081214185e+18,-37.0,-4.0,-32.0,18.0,44.0,1.0,6.0,32.0
1.695163408127392e+18,-8.0,-5.0,-12.0,-9.0,9.0,9.0,2.0,-12.0
1.6951634081283917e+18,-13.0,-18.0,7.0,23.0,1.0,2.0,-1.0,0.0
1.6951634081283917e+18,6.0,30.0,8.0,-1.0,4.0,1.0,4.0,27.0
1.6951634081283917e+18,50.0,103.0,27.0,-30.0,-20.0,-9.0,-8.0,-74.0
1.6951634081283917e+18,-58.0,-102.0,-31.0,-15.0,-4.0,-2.0,-1.0,39.0
1.6951634081343908e+18,-5.0,53.0,5.0,33.0,-8.0,-7.0,-6.0,-15.0
1.6951634081343908e+18,-8.0,-6.0,-3.0,4.0,0.0,-3.0,-3.0,-6.0
1.6951634081403858e+18,15.0,10.0,5.0,-2.0,5.0,5.0,3.0,-4.0
1.6951634081413842e+18,14.0,3.0,-1.0,8.0,3.0,1.0,4.0,8.0
1.6951634081693688e+18,10.0,8.0,2.0,-10.0,0.0,2.0,0.0,-12.0
1.6951634081703688e+18,-14.0,-22.0,-12.0,3.0,5.0,-2.0,-3.0,-5.0
1.6951634081703688e+18,4.0,-21.0,13.0,-6.0,-2.0,-1.0,-2.0,18.0
1.6951634081703688e+18,-4.0,-11.0,-1.0,10.0,6.0,4.0,-4.0,-23.0
1.695163408180362e+18,-11.0,4.0,1.0,-14.0,-13.0,-9.0,-4.0,8.0
1.695163408180362e+18,18.0,-26.0,-39.0,-4.0,-31.0,-8.0,2.0,20.0
1.695163408180362e+18,27.0,2.0,-9.0,3.0,68.0,13.0,-7.0,-15.0
1.695163408181362e+18,-8.0,12.0,3.0,-11.0,-21.0,-9.0,-4.0,-8.0
1.6951634081823636e+18,8.0,29.0,5.0,2.0,-19.0,-14.0,-11.0,-3.0
1.6951634081823636e+18,-25.0,-71.0,16.0,19.0,22.0,14.0,5.0,10.0
1.6951634082093445e+18,-11.0,-56.0,-45.0,-9.0,-3.0,-2.0,-3.0,7.0
1.6951634082103447e+18,22.0,6.0,7.0,7.0,-6.0,-4.0,-3.0,-11.0
1.6951634082173412e+18,-17.0,8.0,0.0,9.0,8.0,1.0,-4.0,-13.0
1.6951634082173412e+18,75.0,58.0,47.0,-15.0,-7.0,-8.0,4.0,-6.0
1.695163408224336e+18,-60.0,-13.0,-5.0,-17.0,-29.0,-3.0,7.0,31.0
1.695163408224336e+18,16.0,12.0,-4.0,17.0,41.0,16.0,6.0,16.0
1.6951634082263386e+18,-1.0,5.0,5.0,11.0,-2.0,-1.0,1.0,-2.0
1.6951634082263386e+18,-28.0,-1.0,-15.0,-1.0,15.0,2.0,-7.0,-34.0
1.6951634082543194e+18,29.0,52.0,32.0,5.0,-58.0,-26.0,-5.0,-26.0
1.6951634082543194e+18,12.0,12.0,-1.0,5.0,37.0,23.0,5.0,49.0
1.6951634082553188e+18,5.0,-72.0,-30.0,-8.0,15.0,9.0,4.0,23.0
1.6951634082563185e+18,41.0,109.0,34.0,25.0,-6.0,1.0,4.0,14.0
1.695163408262315e+18,9.0,-45.0,16.0,6.0,22.0,9.0,2.0,-7.0
1.695163408262315e+18,-16.0,-19.0,-25.0,-28.0,-66.0,-38.0,8.0,-38.0
1.6951634082633172e+18,63.0,60.0,-41.0,-7.0,40.0,28.0,9.0,35.0
1.6951634082633172e+18,-52.0,-85.0,17.0,8.0,42.0,11.0,-5.0,57.0
1.6951634082753093e+18,-23.0,-15.0,24.0,12.0,-6.0,-3.0,2.0,-17.0
1.6951634082753093e+18,-11.0,-12.0,5.0,-18.0,-5.0,-4.0,-8.0,-17.0
1.695163408300293e+18,1.0,40.0,21.0,2.0,-6.0,-3.0,6.0,-27.0
1.695163408300293e+18,8.0,-41.0,-20.0,-14.0,-13.0,-11.0,0.0,-38.0
1.695163408301295e+18,6.0,18.0,5.0,8.0,3.0,7.0,-6.0,10.0
1.6951634083022922e+18,-4.0,5.0,12.0,10.0,4.0,1.0,4.0,-10.0
1.695163408305292e+18,-23.0,-13.0,0.0,-9.0,-21.0,-11.0,-4.0,-6.0
1.695163408305292e+18,-11.0,14.0,5.0,-22.0,-29.0,-16.0,-13.0,-9.0
1.6951634083212823e+18,1.0,27.0,26.0,12.0,28.0,6.0,1.0,-9.0
1.695163408322284e+18,-13.0,-33.0,-50.0,10.0,27.0,13.0,12.0,70.0
1.6951634083552622e+18,14.0,47.0,29.0,-11.0,-88.0,-42.0,-13.0,-103.0
1.6951634083552622e+18,38.0,107.0,-5.0,12.0,87.0,51.0,9.0,13.0
1.6951634083552622e+18,-60.0,-100.0,-69.0,9.0,0.0,6.0,14.0,91.0
1.6951634083552622e+18,13.0,12.0,56.0,-2.0,-5.0,-19.0,-7.0,-47.0
1.6951634083692544e+18,-39.0,-23.0,-14.0,3.0,9.0,21.0,22.0,58.0
1.6951634083702543e+18,-26.0,-8.0,-10.0,-22.0,-74.0,-31.0,-14.0,-63.0
1.6951634083702543e+18,94.0,123.0,63.0,5.0,36.0,27.0,16.0,25.0
1.6951634083702543e+18,-1.0,-60.0,-94.0,14.0,4.0,10.0,-26.0,9.0
1.6951634083712532e+18,-35.0,-95.0,21.0,9.0,24.0,-4.0,-18.0,-3.0
1.6951634083722547e+18,19.0,3.0,18.0,2.0,-26.0,-10.0,3.0,-11.0
1.6951634083972375e+18,-50.0,-34.0,-47.0,-24.0,-34.0,-15.0,-5.0,-26.0
1.695163408398261e+18,28.0,72.0,45.0,25.0,-13.0,2.0,9.0,22.0
1.695163408398261e+18,14.0,-20.0,-11.0,-50.0,-33.0,-8.0,-2.0,-24.0
1.695163408398261e+18,-15.0,-22.0,-26.0,44.0,88.0,20.0,5.0,18.0
1.695163408412231e+18,3.0,8.0,3.0,-2.0,-11.0,-6.0,1.0,-12.0
1.695163408412231e+18,3.0,41.0,-1.0,-6.0,-31.0,-15.0,-8.0,-22.0
1.6951634084132316e+18,-4.0,-37.0,59.0,-26.0,12.0,4.0,-10.0,5.0
1.6951634084132316e+18,69.0,82.0,-15.0,19.0,22.0,12.0,9.0,-2.0
1.695163408444212e+18,-87.0,-87.0,-83.0,-14.0,-22.0,-11.0,-8.0,10.0
1.695163408449211e+18,-11.0,-57.0,62.0,7.0,8.0,13.0,14.0,-2.0
1.695163408449211e+18,-16.0,62.0,-22.0,-21.0,-30.0,-20.0,-1.0,-2.0
1.6951634084502085e+18,-3.0,-62.0,-22.0,2.0,23.0,-3.0,-23.0,5.0
1.6951634084502085e+18,92.0,127.0,44.0,-15.0,-29.0,0.0,38.0,-88.0
1.6951634084502085e+18,-107.0,-114.0,-40.0,10.0,41.0,19.0,-37.0,79.0
1.6951634084572032e+18,17.0,44.0,-9.0,24.0,15.0,-2.0,2.0,13.0
1.6951634084572032e+18,25.0,29.0,8.0,-13.0,-23.0,-4.0,6.0,11.0
1.695163408463201e+18,-22.0,-19.0,-4.0,4.0,-21.0,-9.0,-17.0,-16.0
1.695163408463201e+18,25.0,65.0,45.0,-5.0,-67.0,-36.0,5.0,-75.0
1.6951634084801905e+18,-1.0,9.0,-24.0,-10.0,56.0,40.0,12.0,60.0
1.6951634084801905e+18,-27.0,-48.0,-20.0,0.0,-2.0,-5.0,5.0,9.0
1.6951634084871872e+18,-5.0,-6.0,1.0,5.0,31.0,4.0,-10.0,-22.0
1.6951634084871872e+18,42.0,24.0,-16.0,-5.0,-16.0,-7.0,0.0,-11.0
1.695163408489209e+18,14.0,-13.0,-6.0,26.0,-1.0,-7.0,-12.0,0.0
1.695163408489209e+18,-20.0,-107.0,-25.0,-24.0,-25.0,-9.0,7.0,9.0
1.695163408502177e+18,-24.0,10.0,-4.0,-6.0,-6.0,-3.0,-19.0,7.0
1.695163408502177e+18,30.0,50.0,16.0,-10.0,6.0,3.0,6.0,4.0
1.6951634085031788e+18,65.0,85.0,11.0,6.0,-13.0,-5.0,1.0,-22.0
1.6951634085031788e+18,-33.0,-43.0,-6.0,-12.0,-6.0,-5.0,-3.0,30.0
1.6951634085691387e+18,-1.0,9.0,2.0,5.0,-33.0,-22.0,-12.0,-22.0
1.6951634085691387e+18,-7.0,-26.0,-24.0,-9.0,31.0,17.0,-3.0,26.0
1.695163408589137e+18,37.0,43.0,24.0,20.0,14.0,4.0,4.0,-21.0
1.695163408589137e+18,7.0,-24.0,8.0,-34.0,9.0,5.0,11.0,4.0
1.6951634085901307e+18,9.0,-41.0,-16.0,20.0,23.0,6.0,-9.0,60.0
1.6951634085901307e+18,-57.0,2.0,-8.0,-1.0,-15.0,-4.0,1.0,-18.0
1.6951634085901307e+18,-2.0,2.0,-2.0,2.0,-15.0,-4.0,3.0,-1.0
1.6951634085901307e+18,-33.0,-17.0,32.0,6.0,8.0,5.0,6.0,-26.0
1.6951634085921298e+18,5.0,-52.0,-33.0,-9.0,-31.0,-11.0,-12.0,-14.0
1.6951634085921298e+18,1.0,40.0,5.0,-3.0,34.0,10.0,5.0,0.0
1.695163408600121e+18,16.0,-49.0,-2.0,-21.0,0.0,9.0,11.0,24.0
1.695163408600121e+18,31.0,45.0,-13.0,-15.0,-32.0,-13.0,-4.0,10.0
1.6951634086011205e+18,-46.0,14.0,52.0,-1.0,22.0,8.0,-4.0,-14.0
1.6951634086021202e+18,22.0,80.0,13.0,-10.0,21.0,11.0,13.0,30.0
1.6951634086051407e+18,-37.0,-128.0,-26.0,-9.0,-5.0,-16.0,-29.0,-11.0
1.6951634086051407e+18,-27.0,32.0,-6.0,3.0,-18.0,4.0,8.0,7.0
1.695163408629109e+18,7.0,15.0,2.0,-2.0,-12.0,-9.0,0.0,5.0
1.695163408629109e+18,-17.0,-88.0,-3.0,-17.0,-13.0,-10.0,-10.0,-36.0
1.6951634086311043e+18,-35.0,-8.0,-15.0,-5.0,-7.0,-2.0,1.0,-9.0
1.6951634086311043e+18,56.0,84.0,35.0,19.0,12.0,13.0,13.0,25.0
1.695163408644098e+18,-26.0,-49.0,-33.0,8.0,16.0,-3.0,-13.0,-4.0
1.695163408644098e+18,20.0,46.0,20.0,0.0,-2.0,2.0,6.0,-30.0
1.6951634086460948e+18,3.0,0.0,3.0,5.0,1.0,3.0,6.0,22.0
1.6951634086460948e+18,1.0,-7.0,13.0,-9.0,-6.0,4.0,1.0,-6.0
1.6951634086740805e+18,14.0,20.0,-14.0,-1.0,-1.0,1.0,10.0,13.0
1.6951634086740805e+18,9.0,3.0,-19.0,-32.0,-26.0,-13.0,-7.0,14.0
1.6951634086760776e+18,-30.0,-76.0,-5.0,27.0,52.0,17.0,14.0,-7.0
1.6951634086760776e+18,36.0,13.0,3.0,8.0,-4.0,-2.0,-1.0,-18.0
1.6951634086890698e+18,-25.0,-11.0,-20.0,-20.0,-12.0,-4.0,-12.0,11.0
1.6951634086900754e+18,22.0,70.0,22.0,13.0,-7.0,0.0,17.0,-23.0
1.6951634086910692e+18,7.0,7.0,-3.0,-4.0,0.0,3.0,-7.0,38.0
1.6951634086910692e+18,-17.0,-50.0,-20.0,-2.0,-7.0,-11.0,-15.0,-28.0
1.695163408711058e+18,39.0,80.0,-14.0,-15.0,-15.0,0.0,2.0,3.0
1.695163408711058e+18,-34.0,-118.0,-10.0,12.0,18.0,2.0,-1.0,33.0
1.695163408721052e+18,49.0,127.0,-2.0,-1.0,-11.0,-3.0,3.0,1.0
1.695163408721052e+18,-22.0,2.0,9.0,-8.0,-11.0,-7.0,-11.0,-27.0
1.695163408721052e+18,-11.0,-21.0,9.0,-21.0,-17.0,-4.0,1.0,-7.0
1.6951634087220544e+18,-18.0,-19.0,0.0,0.0,12.0,5.0,0.0,-11.0
1.6951634087390449e+18,-52.0,-82.0,-20.0,7.0,-1.0,-6.0,6.0,-3.0
1.6951634087400443e+18,-16.0,-23.0,-3.0,-3.0,-3.0,-3.0,-12.0,16.0
1.6951634087660265e+18,4.0,4.0,-4.0,1.0,-1.0,0.0,1.0,-15.0
1.6951634087660265e+18,12.0,17.0,4.0,-9.0,-37.0,-12.0,-6.0,-7.0
1.6951634087670292e+18,-2.0,-21.0,-5.0,3.0,29.0,8.0,5.0,21.0
1.6951634087670292e+18,-15.0,-2.0,-13.0,1.0,-34.0,-17.0,-18.0,-7.0
1.6951634087700252e+18,25.0,15.0,55.0,31.0,44.0,25.0,12.0,20.0
1.695163408772026e+18,11.0,9.0,-20.0,1.0,-6.0,-6.0,1.0,-13.0
1.6951634088110008e+18,17.0,37.0,-10.0,-20.0,-17.0,-1.0,-1.0,17.0
1.6951634088110008e+18,-11.0,-5.0,15.0,1.0,-19.0,-7.0,1.0,-10.0
1.6951634088110008e+18,11.0,6.0,1.0,-8.0,0.0,-8.0,-11.0,-5.0
1.6951634088120072e+18,7.0,41.0,17.0,11.0,8.0,2.0,-8.0,-18.0
1.6951634088130212e+18,-65.0,-59.0,-25.0,-1.0,-6.0,-5.0,8.0,18.0
1.6951634088130212e+18,3.0,-4.0,-7.0,5.0,24.0,9.0,7.0,22.0
1.695163408816022e+18,6.0,8.0,14.0,5.0,2.0,0.0,5.0,17.0
1.695163408816022e+18,2.0,-58.0,-6.0,-22.0,-35.0,-16.0,-18.0,-33.0
1.695163408831989e+18,1.0,-55.0,-11.0,15.0,17.0,0.0,5.0,26.0
1.695163408831989e+18,11.0,52.0,40.0,-13.0,-28.0,-12.0,-4.0,1.0
1.695163408833988e+18,15.0,22.0,-16.0,-7.0,-7.0,-2.0,-4.0,-13.0
1.695163408833988e+18,-11.0,-35.0,-12.0,-1.0,11.0,10.0,8.0,27.0
1.695163408838985e+18,-18.0,29.0,-8.0,-5.0,-30.0,-12.0,-12.0,-45.0
1.695163408839985e+18,-16.0,31.0,25.0,20.0,36.0,15.0,6.0,31.0
1.6951634088559764e+18,50.0,-5.0,13.0,1.0,-15.0,3.0,5.0,-10.0
1.6951634088559764e+18,6.0,48.0,-8.0,-4.0,9.0,0.0,0.0,22.0
1.6951634088619727e+18,-5.0,-6.0,2.0,8.0,2.0,1.0,-1.0,-2.0
1.6951634088619727e+18,-6.0,-6.0,-21.0,-4.0,6.0,1.0,-10.0,-4.0
1.6951634088759636e+18,-7.0,23.0,31.0,-6.0,-4.0,-3.0,-2.0,-20.0
1.6951634088759636e+18,11.0,8.0,7.0,5.0,-10.0,-14.0,-22.0,-18.0
1.695163408908945e+18,-7.0,8.0,-15.0,-21.0,-2.0,12.0,19.0,11.0
1.695163408908945e+18,12.0,-9.0,-5.0,10.0,12.0,7.0,4.0,1.0
1.695163408909945e+18,4.0,23.0,-3.0,-1.0,-7.0,0.0,3.0,5.0
1.695163408909945e+18,-7.0,-22.0,-18.0,-6.0,10.0,-2.0,-7.0,-3.0
1.6951634089109453e+18,-10.0,-23.0,3.0,8.0,6.0,-6.0,-5.0,-7.0
1.6951634089109453e+18,5.0,1.0,5.0,29.0,15.0,6.0,18.0,-4.0
1.6951634089239396e+18,-2.0,3.0,-13.0,-43.0,-15.0,-2.0,-9.0,-28.0
1.6951634089239396e+18,-25.0,-17.0,0.0,-2.0,-9.0,-17.0,-30.0,12.0
1.6951634089249357e+18,14.0,1.0,4.0,26.0,15.0,9.0,7.0,0.0
1.6951634089249357e+18,30.0,-1.0,-12.0,-20.0,1.0,-20.0,-40.0,21.0
1.6951634089529193e+18,-11.0,2.0,6.0,-15.0,-13.0,3.0,18.0,-15.0
1.6951634089529193e+18,1.0,-11.0,-8.0,7.0,3.0,17.0,30.0,4.0
1.6951634089529193e+18,3.0,11.0,20.0,-5.0,-9.0,-22.0,-36.0,-17.0
1.6951634089529193e+18,-17.0,-20.0,-16.0,3.0,16.0,31.0,28.0,13.0
1.6951634089549207e+18,7.0,1.0,10.0,11.0,-2.0,-8.0,-11.0,6.0
1.6951634089549207e+18,-1.0,1.0,-7.0,-22.0,-3.0,2.0,-3.0,-5.0
1.6951634089669112e+18,-5.0,-9.0,-17.0,-18.0,-2.0,-2.0,4.0,-6.0
1.6951634089669112e+18,-1.0,-4.0,9.0,19.0,-2.0,-11.0,-17.0,10.0
1.6951634089679112e+18,3.0,-5.0,10.0,19.0,6.0,-4.0,-14.0,-18.0
1.6951634089689106e+18,-7.0,0.0,-2.0,-10.0,-3.0,3.0,16.0,2.0
1.695163408989899e+18,15.0,-10.0,0.0,-4.0,0.0,-1.0,-2.0,13.0
1.695163408989899e+18,-4.0,-3.0,4.0,9.0,3.0,5.0,12.0,-2.0
1.6951634089908982e+18,6.0,10.0,12.0,-2.0,-6.0,-1.0,-12.0,6.0
1.6951634089908982e+18,6.0,-5.0,-10.0,2.0,-2.0,-7.0,2.0,-13.0
1.6951634090038922e+18,1.0,-2.0,1.0,4.0,1.0,1.0,12.0,12.0
1.6951634090038922e+18,-8.0,2.0,-7.0,-13.0,-1.0,3.0,10.0,-8.0
1.6951634090178831e+18,2.0,-1.0,-2.0,8.0,-5.0,2.0,12.0,6.0
1.6951634090178831e+18,6.0,-2.0,1.0,-13.0,1.0,1.0,-8.0,3.0
1.69516340904287e+18,-2.0,7.0,4.0,4.0,1.0,-7.0,-10.0,0.0
1.6951634090438674e+18,1.0,-7.0,-5.0,4.0,-3.0,2.0,3.0,-4.0
1.6951634090448663e+18,-16.0,1.0,-13.0,-11.0,1.0,-10.0,-11.0,7.0
1.6951634090448663e+18,6.0,1.0,7.0,9.0,4.0,14.0,22.0,-20.0
1.6951634090458665e+18,-20.0,2.0,0.0,7.0,4.0,12.0,20.0,-1.0
1.6951634090458665e+18,7.0,-3.0,4.0,4.0,-3.0,-11.0,-21.0,-12.0
1.6951634090568604e+18,4.0,-3.0,-5.0,-1.0,-6.0,-3.0,2.0,8.0
1.6951634090568604e+18,-2.0,3.0,4.0,4.0,0.0,-6.0,-11.0,-3.0
1.6951634090638566e+18,-3.0,-4.0,-6.0,-11.0,-3.0,0.0,-5.0,-6.0
1.6951634090648576e+18,-4.0,0.0,-3.0,-5.0,0.0,-5.0,-13.0,-6.0
1.6951634090658545e+18,-2.0,-3.0,-13.0,-6.0,0.0,3.0,14.0,6.0
1.6951634090658545e+18,0.0,0.0,4.0,25.0,1.0,1.0,-2.0,3.0
1.695163409086842e+18,4.0,-2.0,16.0,1.0,-5.0,1.0,-2.0,-2.0
1.695163409086842e+18,-1.0,-6.0,-14.0,-27.0,-8.0,-8.0,-5.0,3.0
1.6951634090878426e+18,-3.0,6.0,8.0,14.0,3.0,-6.0,-13.0,-6.0
1.6951634090888415e+18,1.0,-1.0,-3.0,-19.0,-7.0,-9.0,-12.0,1.0
1.6951634091008346e+18,0.0,4.0,8.0,22.0,6.0,9.0,3.0,5.0
1.6951634091008346e+18,-2.0,-5.0,-19.0,-6.0,0.0,0.0,9.0,0.0
1.69516340912682e+18,-3.0,4.0,16.0,3.0,2.0,0.0,4.0,-2.0
1.69516340912682e+18,-1.0,0.0,11.0,-15.0,-4.0,-2.0,-5.0,0.0
1.69516340912682e+18,-8.0,-9.0,-18.0,-1.0,-7.0,-3.0,-8.0,-6.0
1.6951634091278213e+18,7.0,1.0,8.0,3.0,1.0,2.0,-10.0,9.0
1.695163409130818e+18,1.0,3.0,14.0,31.0,7.0,8.0,20.0,-9.0
1.695163409130818e+18,-9.0,0.0,15.0,-10.0,-2.0,-11.0,-27.0,-2.0
1.6951634091687954e+18,10.0,2.0,3.0,0.0,4.0,4.0,22.0,0.0
1.6951634091697984e+18,-7.0,-2.0,-11.0,-10.0,-4.0,1.0,1.0,0.0
1.6951634091857859e+18,-16.0,-7.0,1.0,3.0,6.0,-3.0,-15.0,5.0
1.6951634091857859e+18,-13.0,-3.0,1.0,20.0,-3.0,7.0,17.0,-3.0
1.6951634091857859e+18,5.0,2.0,6.0,-4.0,0.0,0.0,11.0,3.0
1.6951634091867866e+18,-8.0,-5.0,11.0,15.0,0.0,-4.0,-8.0,-1.0
1.6951634091877857e+18,7.0,6.0,9.0,19.0,-5.0,-10.0,-15.0,-11.0
1.6951634091877857e+18,-2.0,-13.0,-48.0,-61.0,-23.0,-11.0,-4.0,0.0
1.695163409204776e+18,7.0,4.0,20.0,14.0,11.0,0.0,-7.0,5.0
1.695163409204776e+18,2.0,1.0,-15.0,-27.0,-4.0,9.0,18.0,-3.0
1.695163409204776e+18,2.0,4.0,6.0,33.0,0.0,-5.0,-28.0,-9.0
1.695163409204776e+18,1.0,-3.0,-8.0,-34.0,2.0,4.0,29.0,9.0
1.6951634092127703e+18,5.0,6.0,26.0,39.0,14.0,9.0,-3.0,4.0
1.6951634092127703e+18,-2.0,-3.0,-15.0,-7.0,-2.0,-5.0,-8.0,5.0
1.6951634092217677e+18,-1.0,-5.0,-19.0,-42.0,-14.0,-1.0,20.0,-7.0
1.6951634092217677e+18,-5.0,2.0,9.0,22.0,3.0,0.0,-1.0,0.0
1.6951634092227648e+18,13.0,8.0,31.0,34.0,11.0,5.0,10.0,8.0
1.6951634092237645e+18,9.0,5.0,23.0,79.0,4.0,-2.0,0.0,1.0
1.6951634092447526e+18,-27.0,-10.0,6.0,-11.0,-5.0,-20.0,-44.0,-11.0
1.6951634092457564e+18,4.0,0.0,-21.0,-40.0,-4.0,4.0,28.0,2.0
1.6951634092467515e+18,2.0,4.0,16.0,4.0,1.0,-2.0,-5.0,5.0
1.6951634092467515e+18,12.0,10.0,8.0,-26.0,10.0,8.0,19.0,3.0
1.695163409274735e+18,6.0,-2.0,-1.0,37.0,-5.0,-13.0,-6.0,2.0
1.695163409275735e+18,-10.0,-5.0,-16.0,5.0,-4.0,9.0,12.0,2.0
1.6951634092767347e+18,-4.0,3.0,-11.0,-48.0,-6.0,1.0,5.0,-1.0
1.6951634092767347e+18,6.0,-5.0,-14.0,16.0,1.0,-2.0,-7.0,-6.0
1.695163409284729e+18,3.0,0.0,10.0,-7.0,8.0,17.0,7.0,28.0
1.695163409284729e+18,-6.0,-6.0,-26.0,1.0,-19.0,-17.0,-27.0,-10.0
1.6951634092897267e+18,-6.0,6.0,14.0,23.0,12.0,1.0,-17.0,-5.0
1.6951634093007237e+18,-17.0,-7.0,-68.0,-83.0,-15.0,3.0,12.0,12.0
1.69516340931971e+18,13.0,-1.0,23.0,25.0,13.0,-4.0,-25.0,-14.0
1.69516340931971e+18,21.0,14.0,40.0,67.0,19.0,10.0,21.0,4.0
1.695163409320712e+18,0.0,-14.0,-57.0,-61.0,-19.0,-3.0,-17.0,-5.0
1.695163409320712e+18,-3.0,-6.0,16.0,42.0,-1.0,-16.0,-23.0,9.0
1.6951634093576868e+18,-12.0,11.0,3.0,-13.0,6.0,19.0,50.0,-18.0
1.6951634093576868e+18,-1.0,-8.0,-10.0,6.0,-4.0,-2.0,-10.0,-3.0
1.6951634093656888e+18,1.0,-2.0,3.0,-24.0,-1.0,-2.0,-12.0,3.0
1.6951634093666842e+18,11.0,5.0,9.0,-7.0,-4.0,5.0,10.0,11.0
1.6951634093666842e+18,-10.0,-2.0,-12.0,-4.0,-8.0,-6.0,-2.0,-1.0
1.6951634093666842e+18,-5.0,9.0,29.0,-2.0,9.0,-3.0,-17.0,1.0
1.695163409378353e+18,9.0,-8.0,-32.0,29.0,-12.0,-4.0,8.0,-2.0
1.695163409378353e+18,1.0,-4.0,10.0,-22.0,-5.0,-4.0,1.0,-10.0
1.6951634094013432e+18,6.0,4.0,6.0,-4.0,5.0,1.0,-11.0,5.0
1.6951634094013432e+18,-10.0,-2.0,1.0,-9.0,3.0,-5.0,-9.0,-10.0
1.6951634094108846e+18,10.0,2.0,8.0,7.0,-4.0,-5.0,4.0,8.0
1.6951634094108846e+18,-11.0,-7.0,-19.0,-7.0,3.0,2.0,0.0,-6.0
1.6951634094118894e+18,11.0,10.0,21.0,6.0,-2.0,3.0,17.0,3.0
1.6951634094118894e+18,-4.0,-1.0,29.0,18.0,-1.0,-16.0,-51.0,-9.0
1.695163409417265e+18,5.0,1.0,-11.0,-13.0,4.0,11.0,33.0,7.0
1.695163409417265e+18,5.0,-7.0,6.0,25.0,-2.0,-4.0,-18.0,-15.0
1.695163409431874e+18,-1.0,-11.0,-25.0,-8.0,-8.0,-7.0,-19.0,-2.0
1.695163409431874e+18,-2.0,-3.0,6.0,8.0,1.0,-1.0,11.0,-2.0
1.6951634094478676e+18,-9.0,-5.0,-6.0,8.0,-5.0,-7.0,-9.0,-7.0
1.6951634094478676e+18,-3.0,6.0,3.0,7.0,5.0,7.0,14.0,9.0
1.6951634094478676e+18,-10.0,-4.0,-21.0,-33.0,-3.0,-7.0,-12.0,-19.0
1.695163409448868e+18,6.0,-4.0,-24.0,-2.0,2.0,-1.0,-2.0,0.0
1.6951634094498665e+18,0.0,6.0,35.0,-11.0,-4.0,-5.0,-2.0,-1.0
1.6951634094498665e+18,3.0,-8.0,-12.0,24.0,-2.0,0.0,-7.0,-10.0
1.6951634094619082e+18,5.0,3.0,4.0,-10.0,2.0,1.0,0.0,4.0
1.6951634094619082e+18,-3.0,-5.0,-19.0,-11.0,0.0,3.0,4.0,-5.0
1.6951634094638577e+18,-5.0,7.0,20.0,23.0,2.0,1.0,-3.0,-2.0
1.6951634094638577e+18,2.0,5.0,12.0,-19.0,-9.0,-3.0,3.0,2.0
1.6951634094918876e+18,-2.0,-5.0,-6.0,-1.0,-4.0,-4.0,-1.0,-4.0
1.6951634094918876e+18,1.0,7.0,0.0,-18.0,4.0,3.0,11.0,4.0
1.6951634094938752e+18,-3.0,-10.0,-1.0,56.0,7.0,-2.0,-11.0,1.0
1.6951634094938752e+18,-5.0,-2.0,-10.0,-32.0,-4.0,3.0,11.0,2.0
1.6951634095078438e+18,9.0,3.0,8.0,12.0,-2.0,-6.0,-13.0,9.0
1.6951634095078438e+18,-6.0,1.0,7.0,5.0,1.0,3.0,16.0,-14.0
1.69516340950884e+18,3.0,4.0,-8.0,-27.0,-1.0,1.0,-3.0,-1.0
1.6951634095098404e+18,0.0,-4.0,-1.0,14.0,2.0,-2.0,0.0,-6.0
1.6951634095218337e+18,4.0,0.0,3.0,28.0,5.0,2.0,-1.0,2.0
1.6951634095228419e+18,7.0,0.0,13.0,4.0,3.0,-2.0,-6.0,2.0
1.6951634095358244e+18,3.0,-5.0,-13.0,-39.0,-12.0,-5.0,-6.0,-4.0
1.695163409536824e+18,5.0,3.0,17.0,20.0,7.0,6.0,6.0,-11.0
1.6951634095528148e+18,-13.0,-5.0,-16.0,-5.0,0.0,-2.0,8.0,3.0
1.6951634095528148e+18,-4.0,1.0,-5.0,-12.0,-6.0,1.0,-1.0,1.0
1.6951634095538148e+18,4.0,-2.0,-5.0,-6.0,4.0,0.0,1.0,0.0
1.6951634095548188e+18,-2.0,-3.0,10.0,34.0,0.0,-3.0,-9.0,8.0
1.6951634095738355e+18,1.0,-2.0,-9.0,-2.0,-4.0,-3.0,-1.0,-7.0
1.6951634095748037e+18,1.0,-1.0,-12.0,-41.0,-4.0,-1.0,-1.0,-2.0
1.6951634095758031e+18,-7.0,1.0,5.0,15.0,0.0,-1.0,-1.0,-1.0
1.6951634095758031e+18,-6.0,-9.0,-27.0,-16.0,-5.0,-5.0,-2.0,0.0
1.6951634095977894e+18,3.0,0.0,-16.0,-13.0,-7.0,-2.0,3.0,0.0
1.6951634095987894e+18,-2.0,-2.0,5.0,21.0,1.0,-1.0,-2.0,3.0
1.6951634095987894e+18,-3.0,-1.0,-3.0,-24.0,-4.0,1.0,-1.0,1.0
1.6951634095997883e+18,-1.0,7.0,19.0,22.0,8.0,1.0,1.0,-2.0
1.6951634096047918e+18,2.0,-4.0,-6.0,2.0,-2.0,0.0,1.0,-2.0
1.695163409605785e+18,0.0,0.0,0.0,-17.0,-3.0,-1.0,-5.0,1.0
1.6951634096067837e+18,4.0,-4.0,9.0,11.0,0.0,-3.0,-1.0,0.0
1.6951634096077842e+18,-2.0,4.0,-1.0,-14.0,-5.0,0.0,0.0,-4.0
1.695163409634768e+18,-3.0,-4.0,13.0,26.0,6.0,5.0,2.0,-3.0
1.695163409635768e+18,4.0,3.0,-3.0,-25.0,7.0,0.0,-1.0,6.0
1.6951634096437632e+18,-18.0,-8.0,-36.0,-29.0,-9.0,-2.0,-3.0,-21.0
1.6951634096437632e+18,-4.0,-2.0,17.0,5.0,-5.0,-5.0,-2.0,-2.0
1.6951634096437632e+18,-7.0,0.0,-7.0,-10.0,-4.0,-3.0,0.0,-1.0
1.695163409644762e+18,-14.0,-7.0,0.0,18.0,-2.0,-1.0,-1.0,-2.0
1.6951634096487603e+18,10.0,-1.0,-12.0,13.0,11.0,5.0,3.0,6.0
1.6951634096487603e+18,8.0,3.0,22.0,-18.0,-10.0,-5.0,-2.0,-1.0
1.6951634096797683e+18,-4.0,6.0,10.0,-7.0,-4.0,-1.0,-1.0,-4.0
1.6951634096807424e+18,1.0,-2.0,1.0,10.0,0.0,0.0,1.0,2.0
1.6951634096817426e+18,-2.0,0.0,3.0,-12.0,-6.0,-2.0,-1.0,4.0
1.6951634096827405e+18,-5.0,-6.0,-8.0,13.0,10.0,1.0,-2.0,-2.0
1.6951634096877386e+18,14.0,-3.0,-5.0,3.0,4.0,3.0,5.0,12.0
1.6951634096887368e+18,7.0,2.0,-2.0,-2.0,-3.0,-2.0,-2.0,0.0
1.6951634096887368e+18,-2.0,-4.0,12.0,6.0,0.0,3.0,3.0,2.0
1.6951634096897367e+18,-8.0,0.0,-21.0,-5.0,-4.0,0.0,-2.0,-3.0
1.695163409710724e+18,-2.0,-3.0,-17.0,-17.0,-8.0,-2.0,-2.0,-2.0
1.69516340971173e+18,-1.0,-1.0,-4.0,30.0,4.0,1.0,1.0,-2.0
1.6951634097127237e+18,1.0,2.0,2.0,-15.0,-2.0,-1.0,-2.0,-1.0
1.6951634097127237e+18,1.0,-1.0,2.0,3.0,6.0,1.0,1.0,3.0
1.6951634097257167e+18,-1.0,1.0,1.0,2.0,3.0,-1.0,-3.0,-2.0
1.6951634097257167e+18,1.0,0.0,-3.0,-8.0,-8.0,-1.0,-2.0,-3.0
1.6951634097267167e+18,0.0,2.0,13.0,42.0,6.0,-1.0,-1.0,1.0
1.695163409727718e+18,-13.0,-6.0,-38.0,-27.0,2.0,4.0,1.0,-4.0
1.6951634097547018e+18,1.0,-2.0,-3.0,-12.0,-9.0,-3.0,0.0,3.0
1.6951634097556982e+18,-2.0,-4.0,6.0,-1.0,0.0,1.0,0.0,-3.0
1.695163409756702e+18,4.0,0.0,-5.0,-14.0,-6.0,-2.0,-1.0,0.0
1.695163409756702e+18,-3.0,1.0,-2.0,-2.0,7.0,0.0,1.0,3.0
1.695163409787681e+18,9.0,2.0,19.0,22.0,-1.0,0.0,-2.0,5.0
1.695163409787681e+18,-5.0,-4.0,-9.0,-14.0,-5.0,-2.0,-1.0,1.0
1.6951634097896796e+18,0.0,1.0,-9.0,-6.0,0.0,-2.0,-3.0,0.0
1.6951634097896796e+18,0.0,3.0,16.0,11.0,-2.0,1.0,1.0,2.0
1.6951634097996744e+18,0.0,0.0,4.0,-11.0,0.0,-1.0,-2.0,-1.0
1.6951634097996744e+18,5.0,-3.0,-13.0,7.0,9.0,3.0,5.0,6.0
1.6951634097996744e+18,9.0,9.0,31.0,24.0,4.0,4.0,4.0,14.0
1.695163409800675e+18,-4.0,-11.0,-4.0,-19.0,-12.0,-4.0,-2.0,-6.0
1.6951634098156646e+18,1.0,5.0,5.0,3.0,11.0,5.0,-1.0,-2.0
1.6951634098156646e+18,-1.0,1.0,-4.0,9.0,2.0,-2.0,-2.0,-5.0
1.6951634098166648e+18,-3.0,-1.0,-21.0,-35.0,-1.0,0.0,-1.0,-1.0
1.695163409817666e+18,4.0,5.0,11.0,7.0,1.0,-2.0,-1.0,1.0
1.6951634098296625e+18,-11.0,-4.0,-5.0,0.0,3.0,1.0,0.0,-5.0
1.6951634098316552e+18,7.0,4.0,7.0,7.0,0.0,1.0,0.0,1.0
1.6951634098316552e+18,1.0,1.0,-3.0,8.0,-2.0,-3.0,-3.0,1.0
1.6951634098326543e+18,-1.0,-1.0,3.0,-7.0,-6.0,-1.0,1.0,0.0
1.6951634098446474e+18,2.0,1.0,-3.0,-11.0,3.0,1.0,1.0,-5.0
1.695163409845653e+18,-3.0,-2.0,-1.0,-1.0,-10.0,-4.0,-3.0,-2.0
1.6951634098466465e+18,-6.0,0.0,17.0,15.0,4.0,2.0,0.0,-3.0
1.6951634098476467e+18,2.0,0.0,-13.0,-7.0,2.0,0.0,1.0,2.0
1.6951634098746304e+18,1.0,-3.0,-18.0,0.0,-4.0,-3.0,-3.0,-5.0
1.69516340987563e+18,0.0,1.0,12.0,-5.0,-2.0,1.0,-1.0,2.0
1.6951634098766308e+18,-5.0,-2.0,2.0,-9.0,0.0,0.0,-4.0,-5.0
1.6951634098766308e+18,1.0,2.0,12.0,45.0,7.0,2.0,-1.0,0.0
1.6951634098816274e+18,-5.0,-9.0,-33.0,-36.0,-11.0,-5.0,-2.0,-2.0
1.6951634098826255e+18,0.0,5.0,14.0,-11.0,-2.0,0.0,1.0,-1.0
1.6951634098906217e+18,-11.0,-12.0,-36.0,-2.0,-8.0,-6.0,-4.0,-6.0
1.6951634098916214e+18,2.0,1.0,18.0,15.0,6.0,0.0,-1.0,0.0
1.6951634099176387e+18,1.0,5.0,18.0,17.0,2.0,1.0,1.0,-1.0
1.6951634099176387e+18,-4.0,-6.0,-22.0,-23.0,-2.0,-3.0,-2.0,-3.0
1.6951634099196052e+18,1.0,1.0,-5.0,-36.0,-10.0,-2.0,4.0,2.0
1.6951634099196052e+18,1.0,2.0,-2.0,-10.0,0.0,1.0,0.0,0.0
1.6951634099266056e+18,-1.0,-3.0,12.0,24.0,0.0,0.0,0.0,1.0
1.6951634099266056e+18,0.0,2.0,-1.0,-1.0,-5.0,-3.0,0.0,-1.0
1.6951634099595822e+18,-1.0,-4.0,-16.0,-23.0,3.0,1.0,1.0,0.0
1.6951634099605814e+18,-7.0,-5.0,-4.0,31.0,-2.0,-2.0,-2.0,-2.0
1.6951634099615818e+18,-4.0,3.0,18.0,-11.0,2.0,-2.0,-1.0,0.0
1.6951634099615818e+18,-1.0,-5.0,2.0,16.0,-2.0,-3.0,0.0,-2.0
1.6951634099655793e+18,0.0,0.0,-7.0,-16.0,-2.0,0.0,0.0,-3.0
1.6951634099655793e+18,1.0,0.0,10.0,4.0,1.0,2.0,-1.0,-1.0
1.6951634099665848e+18,0.0,-2.0,-11.0,-10.0,-3.0,0.0,1.0,2.0
1.6951634099675776e+18,-7.0,-4.0,-10.0,0.0,-9.0,-4.0,-4.0,-4.0
1.6951634099675776e+18,0.0,4.0,21.0,12.0,3.0,-6.0,-1.0,-3.0
1.6951634099675776e+18,5.0,6.0,-5.0,-7.0,30.0,19.0,7.0,3.0
1.6951634099875666e+18,2.0,11.0,-3.0,0.0,-11.0,-6.0,-2.0,2.0
1.695163409988565e+18,-5.0,-19.0,19.0,9.0,9.0,4.0,-1.0,-2.0
1.6951634100015583e+18,1.0,6.0,6.0,2.0,-16.0,2.0,-2.0,-2.0
1.6951634100015583e+18,-2.0,4.0,-12.0,10.0,38.0,11.0,2.0,-1.0
1.6951634100225472e+18,2.0,-3.0,62.0,-10.0,2.0,-8.0,-1.0,-1.0
1.6951634100225472e+18,9.0,15.0,-23.0,27.0,18.0,12.0,3.0,3.0
1.695163410043536e+18,-1.0,-25.0,-19.0,-1.0,-7.0,-9.0,-2.0,0.0
1.6951634100455314e+18,5.0,5.0,23.0,-10.0,-18.0,-6.0,-2.0,3.0
1.6951634100465316e+18,0.0,1.0,-18.0,-25.0,-15.0,-4.0,-1.0,-1.0
1.6951634100465316e+18,5.0,9.0,15.0,11.0,-9.0,-6.0,-3.0,-3.0
1.6951634100475315e+18,-2.0,2.0,3.0,10.0,-7.0,-10.0,-4.0,-3.0
1.6951634100475315e+18,7.0,-9.0,-24.0,-14.0,-7.0,-6.0,-2.0,0.0
1.69516341004953e+18,-38.0,-12.0,17.0,9.0,7.0,5.0,2.0,-2.0
1.69516341005053e+18,11.0,0.0,-14.0,-10.0,0.0,-3.0,2.0,3.0
1.6951634100515287e+18,1.0,34.0,3.0,12.0,13.0,15.0,2.0,2.0
1.6951634100515287e+18,23.0,-6.0,-13.0,-18.0,-24.0,-11.0,-2.0,-3.0
1.6951634100615299e+18,-15.0,-41.0,3.0,8.0,8.0,-1.0,-3.0,-3.0
1.6951634100615299e+18,-8.0,6.0,-15.0,-1.0,9.0,6.0,2.0,-2.0
1.695163410076517e+18,20.0,22.0,19.0,2.0,2.0,2.0,0.0,5.0
1.69516341007752e+18,-1.0,-43.0,-33.0,-11.0,-7.0,-6.0,-3.0,-1.0
1.695163410091529e+18,0.0,20.0,-16.0,2.0,-11.0,-4.0,-2.0,-2.0
1.6951634100925128e+18,-4.0,-23.0,13.0,-6.0,-16.0,-2.0,-1.0,2.0
1.6951634100935086e+18,-33.0,19.0,-20.0,10.0,12.0,-1.0,-1.0,-11.0
1.6951634100935086e+18,15.0,10.0,18.0,-9.0,0.0,0.0,-1.0,1.0
1.695163410110495e+18,16.0,20.0,-11.0,8.0,-1.0,3.0,2.0,6.0
1.6951634101194893e+18,-5.0,-26.0,-17.0,-24.0,-4.0,-5.0,-4.0,-4.0
1.6951634101204895e+18,-17.0,-25.0,36.0,21.0,-4.0,-1.0,-4.0,-5.0
1.6951634101204895e+18,-26.0,7.0,-43.0,-3.0,-3.0,0.0,0.0,-4.0
1.6951634101214907e+18,4.0,-8.0,-14.0,-3.0,-6.0,-1.0,-2.0,-8.0
1.6951634101224876e+18,-5.0,32.0,20.0,4.0,9.0,2.0,2.0,5.0
1.695163410137479e+18,21.0,-45.0,-2.0,0.0,-7.0,-5.0,-3.0,3.0
1.695163410137479e+18,-14.0,12.0,10.0,4.0,-1.0,1.0,2.0,5.0
1.6951634101984443e+18,-12.0,1.0,-9.0,-4.0,3.0,4.0,-2.0,-4.0
1.6951634101984443e+18,3.0,32.0,-1.0,-7.0,-5.0,-5.0,-3.0,-3.0
1.695163410199445e+18,-16.0,-10.0,6.0,5.0,10.0,7.0,5.0,-4.0
1.695163410200451e+18,22.0,-29.0,13.0,2.0,-8.0,-11.0,-7.0,6.0
1.695163410200451e+18,19.0,11.0,-20.0,-9.0,9.0,9.0,3.0,3.0
1.6951634102014428e+18,-19.0,-4.0,-3.0,20.0,0.0,-5.0,-5.0,-8.0
1.6951634102204352e+18,28.0,13.0,-6.0,-2.0,8.0,3.0,6.0,4.0
1.6951634102204352e+18,-21.0,-17.0,-22.0,-23.0,-17.0,-12.0,-9.0,-11.0
1.6951634102444193e+18,3.0,-64.0,-16.0,5.0,23.0,6.0,-7.0,-10.0
1.6951634102454218e+18,-36.0,-6.0,13.0,-8.0,-16.0,-6.0,-3.0,-8.0
1.6951634102464164e+18,22.0,52.0,-11.0,10.0,2.0,0.0,4.0,8.0
1.6951634102464164e+18,17.0,24.0,25.0,-10.0,-9.0,-7.0,-2.0,-2.0
1.6951634102504384e+18,-23.0,-61.0,-20.0,-8.0,-25.0,-13.0,-4.0,3.0
1.6951634102514153e+18,-16.0,-24.0,5.0,4.0,23.0,11.0,-2.0,-10.0
1.6951634102524132e+18,25.0,68.0,11.0,8.0,-14.0,-9.0,-4.0,3.0
1.6951634102524132e+18,24.0,16.0,27.0,22.0,6.0,2.0,-5.0,-13.0
1.6951634102554153e+18,-45.0,-23.0,-8.0,-10.0,5.0,9.0,7.0,6.0
1.6951634102554153e+18,16.0,81.0,-20.0,-14.0,-20.0,-9.0,-4.0,6.0
1.6951634102654065e+18,7.0,-25.0,-1.0,12.0,6.0,-3.0,0.0,-7.0
1.6951634102654065e+18,-7.0,6.0,7.0,-5.0,-9.0,-8.0,-10.0,-9.0
1.695163410278399e+18,23.0,24.0,20.0,-1.0,6.0,2.0,0.0,-5.0
1.695163410278399e+18,36.0,23.0,11.0,30.0,48.0,34.0,24.0,41.0
1.695163410286394e+18,-50.0,-64.0,-14.0,-10.0,-1.0,10.0,9.0,7.0
1.695163410286394e+18,-29.0,-1.0,11.0,4.0,-18.0,-19.0,-19.0,-48.0
1.6951634102943964e+18,67.0,21.0,11.0,-7.0,-15.0,-2.0,14.0,31.0
1.6951634102943964e+18,-78.0,-128.0,-67.0,-8.0,19.0,-2.0,-14.0,-18.0
1.6951634103093855e+18,48.0,100.0,46.0,7.0,-8.0,-8.0,-2.0,12.0
1.6951634103103816e+18,-11.0,22.0,-14.0,2.0,9.0,9.0,-2.0,-3.0
1.6951634103313692e+18,-4.0,-11.0,17.0,-42.0,-49.0,-17.0,-7.0,-19.0
1.6951634103313692e+18,12.0,31.0,9.0,10.0,3.0,-4.0,10.0,-23.0
1.6951634103393815e+18,-43.0,-88.0,-11.0,5.0,19.0,7.0,-8.0,-8.0
1.6951634103393815e+18,21.0,40.0,0.0,4.0,-2.0,-2.0,1.0,5.0
1.6951634103413622e+18,-31.0,-49.0,-35.0,8.0,7.0,-9.0,-19.0,-21.0
1.6951634103413622e+18,-71.0,14.0,24.0,-11.0,-16.0,9.0,8.0,15.0
1.6951634103543626e+18,6.0,24.0,22.0,-13.0,-27.0,-19.0,-10.0,-14.0
1.6951634103543626e+18,24.0,3.0,13.0,9.0,36.0,19.0,15.0,20.0
1.6951634103563543e+18,-10.0,-9.0,-18.0,-5.0,-10.0,-1.0,1.0,12.0
1.6951634103563543e+18,17.0,56.0,37.0,10.0,-10.0,-14.0,-16.0,-18.0
1.69516341037336e+18,72.0,80.0,10.0,1.0,-17.0,-7.0,7.0,0.0
1.6951634103743452e+18,-58.0,-29.0,-4.0,0.0,37.0,15.0,6.0,26.0
1.6951634103743452e+18,-8.0,-18.0,-19.0,-4.0,14.0,9.0,14.0,1.0
1.6951634103743452e+18,19.0,-7.0,33.0,-6.0,-54.0,-22.0,-22.0,0.0
1.6951634103833618e+18,-50.0,49.0,-23.0,1.0,7.0,-12.0,4.0,-1.0
1.6951634103843418e+18,37.0,-54.0,-2.0,2.0,16.0,17.0,-9.0,9.0
1.6951634104163203e+18,-26.0,89.0,32.0,8.0,8.0,-5.0,-23.0,-29.0
1.6951634104173238e+18,8.0,-70.0,-37.0,16.0,-21.0,3.0,28.0,13.0
1.6951634104183196e+18,30.0,-29.0,-12.0,-26.0,27.0,18.0,13.0,30.0
1.6951634104183196e+18,-4.0,70.0,-12.0,-9.0,-24.0,-27.0,-14.0,-58.0
1.6951634104313116e+18,15.0,-14.0,-27.0,-5.0,-4.0,7.0,-5.0,20.0
1.6951634104323146e+18,-57.0,-44.0,23.0,4.0,13.0,3.0,10.0,-13.0
1.6951634104323146e+18,86.0,127.0,19.0,0.0,-1.0,-9.0,-12.0,16.0
1.6951634104333094e+18,-43.0,-128.0,-8.0,-5.0,2.0,-1.0,12.0,-6.0
1.6951634104333094e+18,-19.0,-64.0,5.0,6.0,8.0,5.0,-15.0,-25.0
1.6951634104333094e+18,11.0,71.0,-10.0,-35.0,-26.0,-18.0,0.0,-15.0
1.6951634104503043e+18,-4.0,-87.0,-17.0,15.0,50.0,14.0,11.0,43.0
1.6951634104513044e+18,28.0,45.0,25.0,-5.0,-30.0,-6.0,-11.0,-23.0
1.695163410466294e+18,-20.0,29.0,-8.0,-27.0,-19.0,-3.0,15.0,-20.0
1.695163410467294e+18,3.0,18.0,-10.0,3.0,14.0,-4.0,-15.0,13.0
1.695163410474287e+18,-12.0,-64.0,-7.0,15.0,-11.0,-9.0,-17.0,-10.0
1.695163410475296e+18,-3.0,12.0,8.0,19.0,22.0,13.0,9.0,21.0
1.6951634104762852e+18,59.0,-52.0,13.0,-4.0,15.0,-9.0,-10.0,3.0
1.6951634104762852e+18,-7.0,-23.0,13.0,-1.0,-27.0,-1.0,2.0,-30.0
1.6951634105062676e+18,38.0,-11.0,-12.0,19.0,43.0,22.0,12.0,-29.0
1.6951634105072694e+18,-44.0,-27.0,35.0,-4.0,-3.0,1.0,5.0,1.0
1.6951634105072694e+18,-14.0,1.0,-30.0,10.0,-6.0,5.0,10.0,-7.0
1.6951634105082688e+18,7.0,-9.0,39.0,-11.0,18.0,9.0,26.0,33.0
1.6951634105132639e+18,8.0,73.0,-41.0,5.0,-46.0,-33.0,-55.0,-46.0
1.6951634105142707e+18,-30.0,-73.0,-6.0,-3.0,9.0,12.0,11.0,-3.0
1.6951634105142707e+18,25.0,5.0,9.0,11.0,1.0,3.0,3.0,63.0
1.6951634105142707e+18,55.0,45.0,0.0,18.0,23.0,7.0,-9.0,-9.0
1.6951634105282547e+18,-40.0,32.0,24.0,-24.0,-39.0,-7.0,6.0,-11.0
1.6951634105282547e+18,34.0,-76.0,-42.0,-8.0,2.0,1.0,20.0,19.0
1.6951634105592397e+18,-13.0,48.0,29.0,4.0,2.0,-1.0,-17.0,12.0
1.6951634105592397e+18,-8.0,-20.0,-9.0,-23.0,-44.0,-21.0,-15.0,-20.0
1.6951634105602368e+18,-1.0,-19.0,-2.0,19.0,28.0,18.0,9.0,-1.0
1.6951634105602368e+18,-21.0,-42.0,-9.0,-5.0,-13.0,-11.0,-17.0,-65.0
1.6951634105642563e+18,30.0,1.0,-11.0,-12.0,-28.0,-8.0,4.0,-3.0
1.6951634105642563e+18,14.0,-6.0,-10.0,5.0,38.0,19.0,8.0,42.0
1.6951634105652337e+18,21.0,72.0,37.0,3.0,-5.0,5.0,11.0,8.0
1.6951634105652337e+18,3.0,40.0,-31.0,6.0,0.0,-2.0,26.0,15.0
1.6951634105712302e+18,-40.0,1.0,13.0,2.0,1.0,5.0,-15.0,41.0
1.6951634105712302e+18,-52.0,4.0,-16.0,-7.0,0.0,0.0,-15.0,-44.0
1.6951634106012124e+18,59.0,91.0,28.0,1.0,-49.0,-18.0,-1.0,7.0
1.6951634106012124e+18,-16.0,-80.0,-27.0,-4.0,48.0,7.0,-6.0,33.0
1.6951634106102075e+18,12.0,42.0,28.0,13.0,4.0,0.0,10.0,-15.0
1.6951634106112064e+18,-27.0,-21.0,3.0,13.0,15.0,5.0,-5.0,9.0
1.6951634106112064e+18,-15.0,-12.0,-5.0,-20.0,-30.0,-4.0,0.0,-21.0
1.6951634106112064e+18,36.0,19.0,-1.0,-1.0,-44.0,-11.0,-19.0,2.0
1.695163410617204e+18,32.0,63.0,-11.0,3.0,6.0,-1.0,-1.0,-31.0
1.695163410617204e+18,-6.0,-53.0,-17.0,5.0,39.0,15.0,0.0,31.0
1.6951634106321948e+18,-45.0,-93.0,-11.0,-14.0,-20.0,-11.0,2.0,2.0
1.6951634106372022e+18,-5.0,55.0,4.0,-24.0,-51.0,-16.0,-7.0,-4.0
1.695163410638194e+18,4.0,-26.0,-4.0,10.0,46.0,18.0,13.0,-8.0
1.695163410638194e+18,11.0,54.0,-2.0,-3.0,-28.0,-14.0,-8.0,12.0
1.6951634106471872e+18,3.0,-17.0,-1.0,-44.0,-39.0,-11.0,-12.0,-33.0
1.6951634106471872e+18,-14.0,-28.0,-22.0,52.0,82.0,19.0,-5.0,41.0
1.6951634106481853e+18,-24.0,-49.0,-12.0,-14.0,-18.0,-12.0,7.0,-24.0
1.6951634106481853e+18,54.0,74.0,31.0,9.0,-9.0,-9.0,-7.0,16.0
1.6951634106771694e+18,-51.0,-48.0,-11.0,5.0,16.0,9.0,-3.0,32.0
1.6951634106771694e+18,20.0,45.0,38.0,-4.0,-24.0,-9.0,-12.0,-18.0
1.6951634106791688e+18,-2.0,28.0,-3.0,-1.0,5.0,-9.0,-3.0,-25.0
1.6951634106791688e+18,-23.0,-84.0,-28.0,-17.0,-28.0,-3.0,12.0,-12.0
1.6951634107101727e+18,50.0,94.0,32.0,25.0,49.0,16.0,-5.0,15.0
1.6951634107101727e+18,-45.0,17.0,-9.0,-24.0,-49.0,-15.0,-12.0,-31.0
1.6951634107101727e+18,-17.0,2.0,-5.0,22.0,30.0,12.0,8.0,51.0
1.695163410711151e+18,18.0,-104.0,-17.0,-21.0,-20.0,-11.0,-3.0,5.0
1.69516341075363e+18,-36.0,-33.0,-21.0,-14.0,-9.0,-7.0,-4.0,-30.0
1.69516341075363e+18,61.0,87.0,11.0,2.0,-3.0,3.0,18.0,42.0
1.6951634107546506e+18,-54.0,-27.0,2.0,-9.0,-23.0,-9.0,-16.0,-20.0
1.6951634107546506e+18,-3.0,22.0,6.0,-8.0,0.0,-4.0,-11.0,-28.0
1.69516341075563e+18,5.0,16.0,-17.0,23.0,39.0,17.0,10.0,7.0
1.69516341075563e+18,28.0,-24.0,7.0,2.0,9.0,2.0,-8.0,18.0
1.695163410791609e+18,1.0,19.0,15.0,-11.0,0.0,-1.0,7.0,2.0
1.695163410791609e+18,-14.0,-17.0,-14.0,6.0,-9.0,-10.0,-6.0,-48.0
1.6951634107926085e+18,-19.0,-24.0,27.0,28.0,6.0,-4.0,9.0,9.0
1.6951634107926085e+18,-28.0,-89.0,-25.0,-17.0,-12.0,-7.0,-14.0,-17.0
1.6951634107966083e+18,15.0,41.0,-38.0,-16.0,-26.0,-10.0,-2.0,11.0
1.695163410797605e+18,-13.0,-31.0,0.0,11.0,19.0,9.0,-4.0,-6.0
1.695163410797605e+18,-15.0,4.0,16.0,-1.0,-4.0,-1.0,3.0,5.0
1.695163410797605e+18,-3.0,3.0,-5.0,-5.0,-17.0,-7.0,-10.0,-17.0
1.695163410802601e+18,26.0,9.0,-7.0,-8.0,-5.0,0.0,4.0,3.0
1.695163410802601e+18,-34.0,9.0,-7.0,-9.0,-12.0,3.0,9.0,7.0
1.6951634108338583e+18,-7.0,-27.0,0.0,23.0,29.0,3.0,-1.0,-12.0
1.69516341083484e+18,20.0,4.0,-15.0,3.0,5.0,3.0,-4.0,15.0
1.69516341083484e+18,-16.0,-15.0,-20.0,-2.0,0.0,2.0,1.0,-1.0
1.69516341083484e+18,27.0,32.0,13.0,2.0,-6.0,-4.0,6.0,-7.0
1.695163410841837e+18,-5.0,-8.0,6.0,-13.0,-15.0,-3.0,-2.0,-2.0
1.6951634108428378e+18,-18.0,-10.0,-2.0,-2.0,1.0,-1.0,2.0,10.0
1.6951634108498542e+18,3.0,3.0,-1.0,3.0,9.0,1.0,-1.0,-20.0
1.695163410850831e+18,14.0,6.0,8.0,9.0,-4.0,-4.0,-2.0,5.0
1.695163410851834e+18,-7.0,-6.0,-4.0,-6.0,-7.0,5.0,8.0,-3.0
1.695163410851834e+18,3.0,-2.0,-7.0,-10.0,1.0,-1.0,6.0,-7.0
1.695163410862942e+18,-15.0,2.0,-4.0,-14.0,-6.0,-6.0,-5.0,-4.0
1.695163410862942e+18,-6.0,4.0,10.0,9.0,6.0,5.0,-11.0,4.0
1.6951634108796754e+18,25.0,-6.0,2.0,4.0,0.0,6.0,24.0,10.0
1.6951634108796754e+18,7.0,20.0,-3.0,-8.0,-3.0,-13.0,-20.0,2.0
1.695163410894821e+18,4.0,-12.0,-8.0,-2.0,-8.0,9.0,22.0,-1.0
1.695163410894821e+18,-19.0,-3.0,7.0,-7.0,-1.0,1.0,-28.0,5.0
1.6951634108959805e+18,4.0,0.0,-3.0,11.0,5.0,16.0,48.0,-5.0
1.6951634108959805e+18,-4.0,8.0,9.0,4.0,1.0,8.0,10.0,4.0
1.6951634109084803e+18,-5.0,-2.0,-21.0,-6.0,10.0,3.0,6.0,1.0
1.6951634109084803e+18,15.0,-10.0,15.0,5.0,-3.0,-13.0,-5.0,11.0
1.6951634109408855e+18,-2.0,2.0,-21.0,-25.0,-16.0,-11.0,-21.0,-26.0
1.6951634109408855e+18,-5.0,3.0,-2.0,2.0,-5.0,-9.0,-10.0,-10.0
1.6951634109408855e+18,-10.0,-14.0,-2.0,1.0,14.0,1.0,0.0,7.0
1.695163410941887e+18,13.0,11.0,-12.0,0.0,0.0,3.0,11.0,-7.0
1.6951634109428836e+18,-4.0,-6.0,-5.0,-20.0,-4.0,-6.0,-20.0,1.0
1.695163410943885e+18,-6.0,2.0,10.0,13.0,1.0,-4.0,-4.0,3.0
1.6951634109548234e+18,6.0,-3.0,-5.0,8.0,-5.0,9.0,13.0,-2.0
1.6951634109548234e+18,-2.0,3.0,18.0,-5.0,1.0,-2.0,-2.0,-6.0
1.6951634109560256e+18,4.0,-10.0,-20.0,12.0,2.0,0.0,2.0,6.0
1.6951634109560256e+18,-3.0,0.0,-16.0,-7.0,2.0,3.0,-2.0,-6.0
1.6951634109848174e+18,5.0,-3.0,-7.0,-4.0,-1.0,-4.0,-3.0,20.0
1.6951634109858243e+18,-2.0,2.0,7.0,-5.0,4.0,-2.0,-2.0,-39.0
1.6951634109868137e+18,-18.0,1.0,13.0,29.0,-1.0,2.0,-5.0,1.0
1.6951634109868137e+18,-7.0,-7.0,-13.0,-28.0,-2.0,-2.0,-3.0,-8.0
1.6951634109878136e+18,-3.0,3.0,0.0,1.0,-4.0,-5.0,-1.0,2.0
1.6951634109878136e+18,8.0,-7.0,0.0,7.0,-1.0,-1.0,6.0,17.0
1.695163411030789e+18,-6.0,4.0,-7.0,-28.0,-6.0,-16.0,-41.0,-23.0
1.695163411030789e+18,-2.0,1.0,17.0,28.0,5.0,12.0,32.0,-1.0
1.695163411030789e+18,-7.0,-5.0,5.0,0.0,0.0,-3.0,-10.0,-7.0
1.6951634110317893e+18,4.0,2.0,-14.0,9.0,-6.0,0.0,4.0,1.0
1.6951634110327877e+18,-1.0,-3.0,-7.0,8.0,3.0,-2.0,-6.0,-2.0
1.6951634110327877e+18,-6.0,-3.0,10.0,-13.0,0.0,-1.0,-7.0,5.0
1.6951634110357852e+18,-6.0,-3.0,-3.0,11.0,-3.0,-4.0,-5.0,-8.0
1.6951634110357852e+18,0.0,7.0,10.0,13.0,7.0,1.0,8.0,-3.0
1.6951634110427812e+18,-5.0,-6.0,-8.0,-12.0,11.0,7.0,0.0,-2.0
1.6951634110437816e+18,2.0,-1.0,-6.0,13.0,-2.0,-1.0,1.0,1.0
1.6951634110657695e+18,1.0,1.0,5.0,-23.0,-1.0,0.0,0.0,2.0
1.6951634110667694e+18,-7.0,-2.0,-8.0,-33.0,-12.0,-8.0,-12.0,4.0
1.6951634110737636e+18,11.0,3.0,-6.0,30.0,-3.0,3.0,5.0,-15.0
1.6951634110747635e+18,-7.0,-6.0,-14.0,-36.0,-9.0,-5.0,-1.0,6.0
1.6951634110757637e+18,16.0,2.0,20.0,20.0,2.0,4.0,6.0,2.0
1.6951634110757637e+18,3.0,2.0,-12.0,7.0,13.0,5.0,-1.0,6.0
1.6951634110884567e+18,-8.0,-3.0,3.0,6.0,1.0,-5.0,-12.0,-11.0
1.6951634110884567e+18,5.0,-2.0,-5.0,-15.0,-9.0,-6.0,0.0,9.0
1.6951634110972892e+18,-12.0,1.0,27.0,21.0,4.0,4.0,5.0,0.0
1.6951634110972892e+18,2.0,-10.0,-41.0,-33.0,-10.0,-3.0,-6.0,1.0
1.6951634111112804e+18,-5.0,5.0,25.0,28.0,4.0,2.0,-3.0,0.0
1.6951634111112804e+18,2.0,-5.0,-23.0,-5.0,-1.0,1.0,2.0,-1.0
1.695163411119298e+18,-5.0,-2.0,-17.0,-17.0,2.0,-2.0,3.0,1.0
1.695163411119298e+18,12.0,5.0,24.0,25.0,5.0,3.0,-1.0,-3.0
1.6951634111270213e+18,-16.0,4.0,-6.0,-23.0,-6.0,-11.0,-12.0,-4.0
1.6951634111270213e+18,-2.0,2.0,17.0,27.0,-1.0,-1.0,-3.0,2.0
1.6951634111280205e+18,-4.0,-4.0,-3.0,-8.0,8.0,3.0,6.0,0.0
1.6951634111290427e+18,5.0,-2.0,-13.0,13.0,-4.0,-2.0,8.0,4.0
1.695163411173012e+18,-8.0,-9.0,-17.0,-32.0,-13.0,-6.0,-7.0,-11.0
1.695163411173012e+18,3.0,3.0,3.0,-10.0,6.0,-2.0,-5.0,4.0
1.6951634111749517e+18,-8.0,4.0,10.0,18.0,8.0,1.0,-7.0,-20.0
1.6951634111749517e+18,7.0,-1.0,6.0,-39.0,-7.0,0.0,5.0,9.0
1.695163411175949e+18,-12.0,-5.0,-28.0,-10.0,-2.0,-2.0,-1.0,1.0
1.695163411175949e+18,2.0,1.0,15.0,13.0,-1.0,-2.0,4.0,-7.0
1.6951634111889633e+18,2.0,-3.0,-13.0,-5.0,-8.0,1.0,2.0,11.0
1.6951634111889633e+18,-4.0,-2.0,10.0,26.0,4.0,2.0,9.0,0.0
1.695163411189941e+18,-4.0,-2.0,5.0,-11.0,0.0,-2.0,-5.0,-15.0
1.695163411189941e+18,-3.0,-1.0,13.0,18.0,4.0,4.0,5.0,-7.0
1.6951634112008837e+18,16.0,1.0,-3.0,-28.0,-15.0,-13.0,-10.0,23.0
1.6951634112008837e+18,-18.0,-1.0,5.0,43.0,7.0,3.0,6.0,-32.0
1.6951634112166372e+18,14.0,-3.0,-5.0,-41.0,0.0,-3.0,-8.0,-2.0
1.6951634112166372e+18,-6.0,4.0,31.0,89.0,21.0,11.0,8.0,2.0
1.6951634112186332e+18,4.0,-6.0,-38.0,-33.0,-9.0,-13.0,-5.0,-6.0
1.6951634112186332e+18,-25.0,1.0,21.0,34.0,2.0,-1.0,-11.0,7.0
1.695163411231625e+18,13.0,-5.0,-2.0,-7.0,-4.0,-13.0,-43.0,-18.0
1.6951634112326323e+18,-21.0,-7.0,-17.0,-57.0,-12.0,6.0,-1.0,-4.0
1.6951634112336274e+18,-1.0,2.0,-5.0,7.0,10.0,12.0,23.0,9.0
1.6951634112336274e+18,26.0,4.0,15.0,28.0,1.0,-29.0,-84.0,-16.0
1.695163411262085e+18,-24.0,7.0,1.0,4.0,10.0,23.0,64.0,10.0
1.695163411262085e+18,7.0,0.0,8.0,-3.0,0.0,-12.0,-22.0,-2.0
1.6951634112630828e+18,-11.0,-1.0,-13.0,-35.0,0.0,7.0,7.0,-2.0
1.6951634112640817e+18,3.0,-10.0,-23.0,-14.0,-5.0,-1.0,5.0,9.0
1.695163411268423e+18,9.0,2.0,11.0,19.0,-2.0,6.0,16.0,20.0
1.695163411268423e+18,9.0,1.0,-10.0,-17.0,0.0,2.0,13.0,1.0
1.695163411277141e+18,-3.0,6.0,31.0,12.0,6.0,2.0,3.0,0.0
1.695163411277141e+18,-4.0,-7.0,1.0,18.0,3.0,1.0,8.0,-5.0
1.6951634112997868e+18,-4.0,-3.0,7.0,10.0,-9.0,-12.0,-36.0,0.0
1.6951634112997868e+18,1.0,2.0,-21.0,-20.0,-6.0,2.0,21.0,3.0
1.6951634113007857e+18,9.0,2.0,33.0,11.0,0.0,-3.0,-19.0,-9.0
1.6951634113007857e+18,6.0,2.0,-23.0,-3.0,3.0,0.0,7.0,-2.0
1.6951634113067817e+18,-1.0,1.0,26.0,41.0,3.0,-2.0,1.0,4.0
1.6951634113067817e+18,0.0,-1.0,-21.0,-36.0,-6.0,-7.0,-16.0,1.0
1.695163411308781e+18,-4.0,-5.0,9.0,5.0,-4.0,-4.0,-23.0,-7.0
1.695163411308781e+18,-4.0,-7.0,-19.0,-5.0,3.0,2.0,17.0,0.0
1.6951634113297692e+18,3.0,7.0,13.0,-2.0,0.0,-3.0,-3.0,2.0
1.6951634113297692e+18,-2.0,-4.0,2.0,33.0,-1.0,-6.0,-24.0,-6.0
1.6951634113429425e+18,1.0,6.0,-8.0,15.0,7.0,14.0,30.0,12.0
1.6951634113429425e+18,-6.0,-9.0,-38.0,-109.0,-21.0,-2.0,14.0,0.0
1.6951634113518636e+18,6.0,3.0,19.0,11.0,3.0,1.0,0.0,0.0
1.6951634113518636e+18,-4.0,-5.0,-13.0,-4.0,-2.0,-2.0,0.0,1.0
1.695163411373481e+18,-6.0,-8.0,-11.0,23.0,-1.0,-6.0,-9.0,-4.0
1.695163411373481e+18,-1.0,5.0,0.0,-17.0,2.0,-4.0,-13.0,-8.0
1.6951634113889152e+18,7.0,2.0,3.0,52.0,11.0,16.0,33.0,11.0
1.6951634113889152e+18,-1.0,-4.0,1.0,-18.0,-3.0,-1.0,6.0,-5.0
1.695163411409925e+18,7.0,-1.0,2.0,-2.0,-4.0,-1.0,4.0,8.0
1.695163411409925e+18,4.0,8.0,14.0,11.0,7.0,4.0,8.0,6.0
1.6951634114109025e+18,-11.0,-10.0,-37.0,-68.0,-23.0,-16.0,-13.0,-13.0
1.6951634114109025e+18,0.0,2.0,14.0,33.0,6.0,4.0,0.0,-4.0
1.695163411412902e+18,-12.0,-6.0,-25.0,-34.0,-10.0,-6.0,-7.0,-2.0
1.695163411412902e+18,0.0,2.0,24.0,40.0,6.0,5.0,4.0,2.0
1.695163411413902e+18,-5.0,-2.0,-8.0,-1.0,-4.0,-6.0,-15.0,-2.0
1.6951634114149018e+18,8.0,3.0,4.0,-1.0,1.0,1.0,-4.0,-1.0
1.695163411417901e+18,1.0,-3.0,-7.0,-11.0,-5.0,-4.0,0.0,6.0
1.695163411417901e+18,-4.0,1.0,2.0,-7.0,-2.0,1.0,4.0,-2.0
1.6951634114348073e+18,-2.0,-3.0,19.0,31.0,5.0,1.0,1.0,1.0
1.6951634114358077e+18,3.0,0.0,-28.0,-42.0,-3.0,0.0,5.0,-2.0
1.6951634114499105e+18,-13.0,-2.0,18.0,32.0,-2.0,-6.0,-5.0,-4.0
1.6951634114499105e+18,-2.0,2.0,-13.0,-35.0,-3.0,-2.0,-8.0,-7.0
1.6951634114508874e+18,9.0,4.0,11.0,-16.0,7.0,6.0,11.0,8.0
1.6951634114508874e+18,0.0,3.0,-11.0,40.0,-3.0,-2.0,0.0,4.0
1.6951634114518866e+18,1.0,-3.0,19.0,-9.0,5.0,4.0,-4.0,-7.0
1.6951634114529083e+18,-1.0,-4.0,2.0,20.0,-1.0,-1.0,-1.0,1.0
1.695163411494932e+18,-7.0,2.0,1.0,-14.0,2.0,2.0,0.0,0.0
1.695163411495893e+18,-3.0,-6.0,-21.0,-36.0,-7.0,-3.0,1.0,-4.0
1.6951634115118835e+18,-8.0,3.0,3.0,-3.0,0.0,-3.0,-3.0,-9.0
1.6951634115118835e+18,13.0,-3.0,11.0,42.0,-1.0,1.0,1.0,9.0
1.6951634115138826e+18,-15.0,0.0,-3.0,-2.0,5.0,3.0,-3.0,-6.0
1.6951634115138826e+18,3.0,1.0,8.0,1.0,3.0,0.0,0.0,0.0
1.695163411514882e+18,-2.0,-3.0,-9.0,0.0,-4.0,-2.0,0.0,-4.0
1.695163411514882e+18,-4.0,-1.0,17.0,-5.0,-5.0,-5.0,-3.0,3.0
1.6951634115178803e+18,6.0,-2.0,-30.0,-24.0,-5.0,-3.0,1.0,1.0
1.6951634115188785e+18,9.0,-2.0,6.0,1.0,1.0,0.0,-2.0,-2.0
1.6951634115418665e+18,0.0,0.0,-5.0,6.0,4.0,3.0,-3.0,-2.0
1.6951634115428652e+18,3.0,7.0,35.0,43.0,16.0,10.0,10.0,10.0
1.6951634115438646e+18,1.0,-5.0,-29.0,-45.0,-17.0,-9.0,-6.0,-10.0
1.6951634115438646e+18,-8.0,-7.0,-6.0,2.0,4.0,0.0,1.0,-5.0
1.6951634115578634e+18,6.0,9.0,6.0,14.0,-1.0,-2.0,-1.0,7.0
1.6951634115728576e+18,10.0,5.0,7.0,6.0,-3.0,-2.0,-2.0,-3.0
1.6951634115748823e+18,-11.0,-8.0,-7.0,-19.0,-6.0,-4.0,-4.0,-1.0
1.6951634115748823e+18,-1.0,-2.0,-9.0,-8.0,3.0,0.0,6.0,2.0
1.69516341158684e+18,-1.0,0.0,-2.0,-7.0,-8.0,-8.0,-7.0,-6.0
1.6951634115878403e+18,-4.0,-1.0,-12.0,-21.0,-1.0,0.0,0.0,-4.0
1.6951634115888417e+18,8.0,3.0,11.0,29.0,10.0,2.0,2.0,3.0
1.6951634115888417e+18,1.0,1.0,20.0,1.0,-1.0,-1.0,-2.0,-3.0
1.6951634115928364e+18,0.0,-3.0,-8.0,-13.0,-12.0,0.0,3.0,1.0
1.6951634115938363e+18,-2.0,-4.0,-3.0,21.0,-4.0,-7.0,-3.0,-4.0
1.6951634115948372e+18,3.0,-1.0,12.0,1.0,4.0,1.0,-2.0,5.0
1.6951634115948372e+18,-6.0,-5.0,-14.0,-10.0,-6.0,-2.0,1.0,-1.0
1.6951634115958356e+18,-1.0,-3.0,-7.0,10.0,0.0,-5.0,0.0,-4.0
1.6951634115968443e+18,-4.0,-1.0,-18.0,-39.0,-3.0,1.0,1.0,0.0
1.6951634116068316e+18,10.0,4.0,11.0,12.0,2.0,3.0,4.0,4.0
1.69516341160783e+18,1.0,1.0,6.0,11.0,3.0,0.0,1.0,1.0
1.6951634116358354e+18,-2.0,-3.0,2.0,13.0,2.0,0.0,-5.0,-4.0
1.6951634116368238e+18,-1.0,1.0,-17.0,-50.0,-4.0,-2.0,-1.0,-3.0
1.695163411643806e+18,-2.0,-2.0,-1.0,11.0,2.0,-2.0,-2.0,3.0
1.695163411643806e+18,2.0,1.0,8.0,-5.0,-11.0,-6.0,-2.0,-1.0
1.695163411654801e+18,-3.0,-6.0,-5.0,11.0,-1.0,-4.0,-3.0,-3.0
1.695163411654801e+18,7.0,0.0,9.0,6.0,-2.0,2.0,2.0,6.0
1.6951634116557993e+18,7.0,5.0,-4.0,-29.0,-2.0,2.0,1.0,-3.0
1.6951634116557993e+18,-6.0,-6.0,3.0,4.0,1.0,2.0,-2.0,1.0
1.6951634116827827e+18,5.0,2.0,1.0,11.0,3.0,-2.0,-2.0,-1.0
1.6951634116827827e+18,-6.0,0.0,3.0,4.0,7.0,4.0,9.0,2.0
1.6951634116827827e+18,-2.0,2.0,0.0,-9.0,-7.0,-6.0,-5.0,-1.0
1.6951634116827827e+18,2.0,5.0,10.0,38.0,14.0,6.0,1.0,1.0
1.6951634116847846e+18,-4.0,-5.0,-2.0,-17.0,-2.0,-2.0,-1.0,-5.0
1.6951634116847846e+18,-2.0,-3.0,-11.0,-5.0,-8.0,-4.0,-7.0,-2.0
1.6951634116967967e+18,-5.0,-1.0,8.0,13.0,6.0,3.0,4.0,1.0
1.6951634116967967e+18,1.0,1.0,-21.0,-12.0,-1.0,-2.0,0.0,-1.0
1.6951634117047747e+18,-1.0,-3.0,16.0,13.0,4.0,1.0,-1.0,-1.0
1.6951634117047747e+18,-7.0,-2.0,-16.0,-12.0,0.0,1.0,-1.0,5.0
1.6951634117117885e+18,-5.0,-1.0,14.0,22.0,-3.0,0.0,-2.0,-10.0
1.6951634117117885e+18,-6.0,-3.0,-4.0,-6.0,-9.0,-7.0,-5.0,-1.0
1.6951634117137654e+18,1.0,0.0,-5.0,3.0,2.0,-1.0,3.0,3.0
1.6951634117137654e+18,-3.0,1.0,11.0,4.0,-4.0,-3.0,-5.0,-3.0
1.695163411725758e+18,2.0,1.0,-9.0,19.0,3.0,0.0,-2.0,1.0
1.695163411725758e+18,0.0,-4.0,10.0,-4.0,2.0,3.0,2.0,0.0
1.6951634117417508e+18,-3.0,4.0,-7.0,-7.0,1.0,2.0,1.0,-1.0
1.6951634117417508e+18,-5.0,-3.0,1.0,13.0,5.0,3.0,2.0,-3.0
1.6951634117877253e+18,-2.0,-3.0,-14.0,-11.0,-5.0,-2.0,-3.0,-1.0
1.6951634117887273e+18,-2.0,0.0,3.0,-1.0,-3.0,-1.0,-2.0,-2.0
1.6951634117897247e+18,-1.0,-3.0,-3.0,-2.0,-3.0,1.0,1.0,1.0
1.6951634117897247e+18,-1.0,2.0,2.0,-19.0,3.0,2.0,-2.0,-2.0
1.695163411790723e+18,-4.0,-4.0,2.0,15.0,-2.0,-2.0,-4.0,-5.0
1.695163411790723e+18,-1.0,0.0,-6.0,-19.0,1.0,1.0,-2.0,0.0
1.695163411818706e+18,2.0,3.0,-1.0,26.0,7.0,4.0,6.0,2.0
1.695163411818706e+18,-3.0,-11.0,-9.0,-29.0,-19.0,-11.0,-6.0,-11.0
1.6951634118207055e+18,-2.0,-6.0,-22.0,-2.0,-6.0,-4.0,-5.0,-4.0
1.6951634118207055e+18,5.0,4.0,19.0,18.0,0.0,0.0,0.0,1.0
1.69516341186468e+18,-3.0,-3.0,-14.0,-14.0,-8.0,-2.0,1.0,0.0
1.69516341186468e+18,4.0,0.0,-8.0,1.0,4.0,4.0,2.0,2.0
1.6951634118656786e+18,2.0,-2.0,-1.0,-5.0,2.0,-2.0,1.0,1.0
1.6951634118656786e+18,-6.0,2.0,2.0,4.0,1.0,-3.0,-2.0,-3.0
1.6951634118746734e+18,5.0,0.0,11.0,11.0,-2.0,-2.0,-3.0,3.0
1.6951634118756739e+18,0.0,1.0,-17.0,-7.0,-1.0,-3.0,-3.0,-2.0
1.6951634118756739e+18,3.0,-1.0,-5.0,-23.0,-1.0,1.0,-1.0,-2.0
1.6951634118756739e+18,-2.0,-2.0,4.0,25.0,2.0,5.0,3.0,2.0
1.6951634118756739e+18,3.0,-6.0,-8.0,-6.0,-2.0,-3.0,-1.0,5.0
1.6951634118756739e+18,0.0,0.0,-11.0,-23.0,-2.0,-3.0,-3.0,-2.0
1.6951634119433966e+18,-5.0,0.0,8.0,1.0,-5.0,-2.0,-2.0,-2.0
1.6951634119433966e+18,-3.0,4.0,27.0,21.0,2.0,-1.0,0.0,0.0
1.695163411960387e+18,-2.0,-2.0,-18.0,-9.0,-1.0,-1.0,-1.0,-6.0
1.695163411960387e+18,-5.0,3.0,5.0,10.0,3.0,2.0,-2.0,-1.0
1.6951634119623862e+18,-6.0,-11.0,-8.0,-13.0,-7.0,-3.0,-3.0,-6.0
1.6951634119623862e+18,3.0,0.0,-12.0,-4.0,-4.0,-1.0,-2.0,4.0
1.6951634119633871e+18,3.0,0.0,9.0,11.0,7.0,2.0,3.0,8.0
1.6951634119633871e+18,-9.0,0.0,2.0,-12.0,-6.0,-3.0,-2.0,-16.0
1.695163411976693e+18,1.0,4.0,1.0,1.0,3.0,0.0,0.0,4.0
1.695163411976693e+18,7.0,-2.0,6.0,11.0,-4.0,-1.0,-3.0,-5.0
1.6951634119772836e+18,-1.0,1.0,6.0,19.0,4.0,1.0,-1.0,-3.0
1.6951634119772836e+18,-1.0,-3.0,0.0,7.0,-1.0,-1.0,0.0,3.0
1.6951634120058289e+18,-2.0,7.0,12.0,6.0,-5.0,-3.0,-3.0,-1.0
1.6951634120058289e+18,-3.0,-5.0,-7.0,1.0,5.0,2.0,1.0,0.0
1.6951634120068262e+18,1.0,1.0,15.0,0.0,3.0,0.0,0.0,0.0
1.6951634120068262e+18,2.0,-3.0,-1.0,15.0,2.0,3.0,1.0,3.0
1.6951634120078252e+18,4.0,3.0,-3.0,-21.0,-6.0,1.0,3.0,7.0
1.6951634120078252e+18,-6.0,-5.0,-3.0,-2.0,0.0,0.0,-2.0,-9.0
1.6951634120128238e+18,2.0,1.0,1.0,9.0,1.0,1.0,1.0,-3.0
1.6951634120138243e+18,0.0,3.0,15.0,2.0,0.0,-2.0,-2.0,0.0
1.6951634120190147e+18,1.0,-9.0,-13.0,-1.0,-2.0,1.0,-1.0,-4.0
1.6951634120190147e+18,-3.0,-1.0,-1.0,3.0,-5.0,-3.0,-5.0,-1.0
1.695163412042715e+18,1.0,-1.0,-5.0,-5.0,2.0,-2.0,-3.0,-1.0
1.6951634120437156e+18,4.0,-1.0,-10.0,-9.0,-6.0,-2.0,-1.0,-3.0
1.6951634120437156e+18,-3.0,1.0,3.0,8.0,1.0,-1.0,-3.0,-3.0
1.6951634120447137e+18,4.0,4.0,23.0,-1.0,5.0,3.0,5.0,7.0
1.695163412049711e+18,-4.0,-4.0,-35.0,4.0,-3.0,-3.0,0.0,-1.0
1.6951634120507103e+18,-2.0,-4.0,13.0,-10.0,-4.0,-2.0,-4.0,-2.0
1.6951634120517102e+18,-1.0,-1.0,-13.0,-8.0,-3.0,-2.0,-2.0,-2.0
1.6951634120517102e+18,1.0,4.0,1.0,-11.0,0.0,-1.0,0.0,-1.0
1.6951634120956846e+18,0.0,3.0,12.0,18.0,6.0,3.0,0.0,2.0
1.695163412096683e+18,-1.0,-4.0,-13.0,-35.0,-7.0,-4.0,-2.0,0.0
1.695163412098682e+18,5.0,3.0,19.0,25.0,10.0,4.0,2.0,1.0
1.695163412098682e+18,-11.0,-8.0,-19.0,-9.0,-4.0,-1.0,-2.0,-3.0
1.6951634120996813e+18,-2.0,-3.0,-13.0,-15.0,-9.0,-5.0,-4.0,-5.0
1.6951634120996813e+18,0.0,-3.0,-3.0,9.0,4.0,0.0,2.0,1.0
1.695163412117671e+18,-2.0,2.0,26.0,20.0,0.0,-1.0,-3.0,-3.0
1.695163412117671e+18,-1.0,3.0,-6.0,-9.0,-1.0,-1.0,-1.0,1.0
1.6951634121186708e+18,-12.0,5.0,20.0,31.0,4.0,2.0,0.0,6.0
1.6951634121186708e+18,-3.0,-14.0,-35.0,-28.0,-10.0,-3.0,-2.0,-4.0
1.6951634121186708e+18,-2.0,6.0,5.0,7.0,7.0,2.0,2.0,1.0
1.6951634121186708e+18,-2.0,1.0,-1.0,3.0,-3.0,-4.0,0.0,-1.0
1.6951634121406582e+18,-2.0,-4.0,-3.0,-17.0,-4.0,0.0,-2.0,0.0
1.6951634121406582e+18,-1.0,5.0,9.0,3.0,2.0,1.0,1.0,2.0
1.695163412141663e+18,3.0,0.0,2.0,-1.0,1.0,-3.0,-1.0,0.0
1.695163412141663e+18,-1.0,-5.0,-4.0,11.0,3.0,5.0,-2.0,-2.0
1.6951634121926277e+18,-1.0,-2.0,-8.0,-20.0,-5.0,-5.0,-2.0,-2.0
1.6951634121936271e+18,-6.0,0.0,5.0,10.0,0.0,-2.0,-1.0,-1.0
1.6951634121976253e+18,7.0,2.0,-2.0,-8.0,3.0,4.0,2.0,2.0
1.6951634122016256e+18,-2.0,-7.0,-12.0,0.0,2.0,-3.0,-2.0,-4.0
1.6951634122016256e+18,5.0,4.0,18.0,11.0,0.0,-1.0,3.0,3.0
1.6951634122016256e+18,3.0,1.0,5.0,4.0,6.0,4.0,1.0,0.0
1.6951634122136148e+18,-4.0,-3.0,-13.0,-11.0,-3.0,-1.0,-2.0,-1.0
1.6951634122136148e+18,3.0,7.0,13.0,8.0,-1.0,-3.0,-2.0,0.0
1.6951634122380854e+18,3.0,1.0,6.0,1.0,-3.0,-3.0,-2.0,-3.0
1.6951634122380854e+18,3.0,5.0,16.0,15.0,-2.0,-4.0,0.0,1.0
1.6951634122400873e+18,-6.0,-9.0,-27.0,-18.0,1.0,0.0,-3.0,-3.0
1.6951634122400873e+18,2.0,3.0,4.0,-14.0,-1.0,1.0,-2.0,-1.0
1.695163412241089e+18,-3.0,-9.0,-11.0,-16.0,3.0,3.0,0.0,-2.0
1.695163412241089e+18,-3.0,3.0,26.0,38.0,5.0,0.0,0.0,-2.0
1.6951634122540823e+18,-7.0,-6.0,-29.0,-36.0,-15.0,-8.0,-4.0,-3.0
1.6951634122540823e+18,2.0,-1.0,6.0,12.0,3.0,-1.0,-1.0,0.0
1.6951634122550794e+18,1.0,6.0,1.0,2.0,6.0,3.0,2.0,2.0
1.6951634122550794e+18,-6.0,-5.0,-18.0,-8.0,2.0,4.0,0.0,-1.0
1.6951634122580805e+18,-1.0,-1.0,5.0,4.0,-3.0,-2.0,-1.0,-3.0
1.6951634122580805e+18,-1.0,2.0,0.0,-10.0,-1.0,2.0,1.0,1.0
1.6951634122809014e+18,-3.0,-9.0,0.0,19.0,-4.0,-4.0,-5.0,-6.0
1.695163412281842e+18,-2.0,1.0,-1.0,-10.0,-4.0,-5.0,-4.0,-1.0
1.6951634122998298e+18,-1.0,0.0,12.0,30.0,3.0,3.0,1.0,-1.0
1.6951634123008305e+18,1.0,2.0,4.0,-4.0,4.0,0.0,1.0,3.0
1.695163412304831e+18,-2.0,0.0,4.0,-6.0,-1.0,1.0,-1.0,-2.0
1.6951634123058294e+18,3.0,1.0,1.0,-12.0,-3.0,-2.0,2.0,1.0
1.6951634123058294e+18,-12.0,-9.0,-3.0,18.0,5.0,3.0,-1.0,-1.0
1.6951634123058294e+18,2.0,1.0,8.0,12.0,-2.0,-2.0,-1.0,0.0
1.6951634123268147e+18,1.0,4.0,14.0,-9.0,1.0,-1.0,0.0,-1.0
1.6951634123268147e+18,-2.0,-7.0,-25.0,3.0,-3.0,-4.0,-3.0,-4.0
1.6951634123288159e+18,1.0,3.0,14.0,-1.0,-5.0,0.0,2.0,0.0
1.6951634123288159e+18,-7.0,0.0,-9.0,12.0,11.0,2.0,-1.0,-1.0
1.695163412341884e+18,8.0,-2.0,2.0,-12.0,-3.0,1.0,0.0,-1.0
1.695163412341884e+18,-3.0,1.0,1.0,-13.0,-6.0,-2.0,-3.0,1.0
1.6951634123435254e+18,5.0,1.0,-1.0,-15.0,1.0,0.0,1.0,0.0
1.6951634123435254e+18,-2.0,-8.0,-14.0,7.0,-6.0,-4.0,-3.0,-3.0
1.6951634123728353e+18,-4.0,1.0,1.0,-6.0,-4.0,-4.0,-4.0,0.0
1.6951634123738337e+18,3.0,3.0,4.0,1.0,3.0,1.0,0.0,2.0
1.6951634123748324e+18,1.0,0.0,18.0,36.0,3.0,1.0,2.0,-1.0
1.6951634123748324e+18,-7.0,-4.0,-38.0,-72.0,-15.0,-4.0,0.0,-1.0
1.6951634123758323e+18,3.0,2.0,-2.0,10.0,0.0,0.0,1.0,1.0
1.6951634123758323e+18,3.0,-1.0,8.0,7.0,3.0,-1.0,-2.0,1.0
1.695163412417682e+18,2.0,-2.0,-5.0,-4.0,-2.0,-3.0,0.0,8.0
1.695163412418685e+18,-1.0,3.0,8.0,14.0,-1.0,-2.0,-3.0,-4.0
1.695163412418685e+18,-5.0,-3.0,-3.0,-5.0,1.0,1.0,1.0,-2.0
1.695163412418685e+18,3.0,4.0,10.0,15.0,-1.0,-3.0,-2.0,1.0
1.6951634124206781e+18,0.0,-4.0,-4.0,-11.0,-4.0,-4.0,-4.0,-2.0
1.6951634124206781e+18,1.0,-2.0,8.0,4.0,2.0,1.0,-1.0,3.0
1.6951634124406671e+18,-6.0,-4.0,-9.0,5.0,0.0,-1.0,-2.0,-3.0
1.6951634124406671e+18,2.0,5.0,13.0,-2.0,1.0,4.0,0.0,-1.0
1.6951634124426665e+18,-2.0,7.0,10.0,29.0,1.0,-3.0,-2.0,-2.0
1.6951634124426665e+18,-4.0,-12.0,-30.0,-48.0,-6.0,1.0,1.0,0.0
1.6951634124456648e+18,-2.0,2.0,7.0,11.0,1.0,-1.0,0.0,-3.0
1.6951634124456648e+18,0.0,-1.0,-7.0,-10.0,-1.0,2.0,1.0,1.0
1.695163412477645e+18,2.0,2.0,3.0,4.0,4.0,2.0,-1.0,1.0
1.695163412478648e+18,-1.0,3.0,4.0,16.0,1.0,-1.0,0.0,2.0
1.6951634124796672e+18,1.0,-3.0,-5.0,-22.0,-8.0,-4.0,-1.0,-1.0
1.6951634124796672e+18,-1.0,4.0,8.0,35.0,7.0,2.0,-1.0,-2.0
1.6951634124806446e+18,7.0,-6.0,-7.0,-18.0,-3.0,0.0,0.0,6.0
1.6951634124806446e+18,-14.0,2.0,-2.0,5.0,-7.0,-8.0,-4.0,-11.0
1.695163412484642e+18,-2.0,6.0,3.0,-23.0,6.0,2.0,2.0,-1.0
1.695163412484642e+18,2.0,-4.0,-14.0,9.0,-5.0,-2.0,3.0,3.0
1.6951634124916595e+18,-4.0,2.0,19.0,16.0,3.0,-1.0,-1.0,-3.0
1.6951634124916595e+18,2.0,-5.0,-17.0,-25.0,-4.0,-2.0,-2.0,-2.0
1.6951634124936369e+18,3.0,1.0,7.0,5.0,-9.0,-4.0,0.0,1.0
1.6951634124936369e+18,-5.0,-1.0,8.0,-8.0,3.0,0.0,-1.0,-3.0
1.6951634125176236e+18,1.0,-3.0,-10.0,-4.0,1.0,1.0,1.0,-1.0
1.6951634125176236e+18,3.0,-3.0,0.0,9.0,3.0,1.0,-1.0,1.0
1.6951634125186235e+18,0.0,2.0,5.0,7.0,0.0,-2.0,-3.0,-3.0
1.6951634125186235e+18,1.0,-6.0,-18.0,-15.0,-3.0,-1.0,-1.0,2.0
1.6951634125296164e+18,-5.0,2.0,23.0,6.0,-6.0,-4.0,-3.0,-5.0
1.6951634125296164e+18,1.0,-4.0,-15.0,2.0,4.0,2.0,1.0,2.0
1.6951634125356124e+18,-4.0,-5.0,-13.0,-4.0,3.0,2.0,-1.0,-3.0
1.6951634125356124e+18,0.0,0.0,8.0,2.0,3.0,0.0,-3.0,-1.0
1.6951634125595983e+18,-1.0,-2.0,-12.0,-12.0,-11.0,-4.0,-1.0,-1.0
1.6951634125595983e+18,-2.0,-4.0,9.0,17.0,2.0,2.0,-1.0,-2.0
1.6951634125606008e+18,1.0,1.0,-13.0,-11.0,-6.0,-6.0,-3.0,-1.0
1.6951634125606008e+18,-3.0,-4.0,9.0,12.0,-1.0,-3.0,-4.0,-6.0
1.6951634125745907e+18,4.0,3.0,-6.0,-12.0,0.0,2.0,1.0,0.0
1.6951634125745907e+18,1.0,-5.0,2.0,-1.0,-2.0,-1.0,0.0,0.0
1.69516341257559e+18,0.0,2.0,8.0,14.0,3.0,2.0,1.0,2.0
1.69516341257559e+18,0.0,-2.0,-15.0,-6.0,-1.0,-3.0,-2.0,-2.0
1.6951634126125686e+18,-7.0,3.0,16.0,7.0,2.0,-1.0,-1.0,-1.0
1.6951634126125686e+18,8.0,6.0,8.0,-5.0,2.0,3.0,1.0,-1.0
1.695163412613569e+18,-1.0,-6.0,-16.0,10.0,4.0,2.0,-2.0,-2.0
1.695163412613569e+18,1.0,0.0,5.0,-16.0,-5.0,-2.0,-1.0,2.0
1.695163412613569e+18,2.0,-1.0,3.0,21.0,9.0,3.0,3.0,2.0
1.695163412613569e+18,-5.0,-4.0,-16.0,-9.0,-9.0,-5.0,0.0,0.0
1.6951634126145695e+18,-3.0,-2.0,-17.0,-20.0,0.0,1.0,-3.0,-2.0
1.6951634126145695e+18,0.0,-2.0,3.0,4.0,-6.0,0.0,0.0,-2.0
1.6951634126515464e+18,-1.0,-3.0,-13.0,-10.0,0.0,-2.0,-2.0,-1.0
1.6951634126515464e+18,8.0,2.0,27.0,14.0,6.0,1.0,1.0,6.0
1.6951634126525468e+18,-8.0,-1.0,6.0,6.0,-5.0,-6.0,-7.0,-17.0
1.6951634126525468e+18,0.0,-3.0,-19.0,-13.0,0.0,1.0,1.0,1.0
1.6951634126545446e+18,0.0,0.0,-7.0,-15.0,-4.0,-1.0,0.0,-1.0
1.6951634126545446e+18,0.0,3.0,-2.0,2.0,0.0,-2.0,-1.0,-2.0
1.6951634126565453e+18,2.0,4.0,16.0,8.0,0.0,-1.0,2.0,3.0
1.695163412657543e+18,-4.0,-5.0,-6.0,7.0,1.0,-1.0,0.0,-2.0
1.6951634126715338e+18,-3.0,-4.0,-3.0,-10.0,-2.0,-1.0,0.0,0.0
1.6951634126715338e+18,-4.0,3.0,3.0,2.0,-2.0,0.0,-2.0,-1.0
1.6951634126945436e+18,6.0,-3.0,-3.0,0.0,1.0,-3.0,1.0,1.0
1.6951634126955218e+18,-1.0,3.0,13.0,10.0,1.0,-1.0,0.0,-1.0
1.6951634126955218e+18,1.0,-6.0,-12.0,-5.0,1.0,0.0,0.0,-1.0
1.6951634126955218e+18,-4.0,1.0,4.0,-9.0,-5.0,-2.0,0.0,-2.0
1.69516341269752e+18,-2.0,-2.0,-9.0,4.0,0.0,2.0,-1.0,2.0
1.69516341269752e+18,4.0,6.0,12.0,2.0,4.0,3.0,2.0,1.0
1.6951634127075144e+18,1.0,2.0,2.0,-14.0,5.0,5.0,0.0,1.0
1.695163412708516e+18,-1.0,-2.0,-2.0,8.0,-3.0,-2.0,-6.0,-4.0
1.6951634127165097e+18,-5.0,-2.0,4.0,7.0,2.0,1.0,0.0,2.0
1.6951634127175117e+18,-3.0,-1.0,-14.0,-6.0,-2.0,-1.0,0.0,-2.0
1.695163412739702e+18,-2.0,1.0,-5.0,-13.0,-5.0,-2.0,-1.0,0.0
1.695163412739702e+18,1.0,1.0,2.0,-2.0,4.0,1.0,2.0,1.0
1.695163412740704e+18,0.0,-2.0,-2.0,5.0,1.0,3.0,0.0,4.0
1.695163412741701e+18,-2.0,-3.0,-10.0,-16.0,-5.0,-5.0,-5.0,-1.0
1.6951634127934085e+18,0.0,-1.0,12.0,12.0,2.0,2.0,-1.0,-2.0
1.6951634127934085e+18,0.0,-2.0,-2.0,5.0,1.0,0.0,3.0,2.0
1.6951634127954084e+18,-4.0,-5.0,-25.0,-39.0,-8.0,-4.0,-4.0,-2.0
1.6951634127954084e+18,-5.0,3.0,21.0,18.0,2.0,1.0,2.0,-2.0
1.6951634127954084e+18,14.0,-6.0,-25.0,5.0,-2.0,-2.0,1.0,3.0
1.6951634127954084e+18,-5.0,-3.0,9.0,-4.0,-4.0,-2.0,-5.0,-4.0
1.6951634128072266e+18,1.0,3.0,13.0,-10.0,-2.0,-1.0,1.0,-1.0
1.6951634128072266e+18,-2.0,-5.0,-14.0,20.0,2.0,0.0,-2.0,-1.0
1.6951634128392072e+18,-6.0,-1.0,-2.0,-15.0,-4.0,-6.0,-1.0,-2.0
1.6951634128402068e+18,0.0,2.0,-9.0,15.0,0.0,0.0,-1.0,0.0
1.6951634128412068e+18,-3.0,0.0,8.0,-6.0,0.0,-2.0,-2.0,-2.0
1.6951634128412068e+18,2.0,1.0,-5.0,-16.0,1.0,0.0,-3.0,2.0
1.6951634128422152e+18,-6.0,-2.0,-4.0,1.0,-5.0,-2.0,0.0,-4.0
1.6951634128432192e+18,0.0,-2.0,3.0,1.0,2.0,-2.0,0.0,2.0
1.6951634128452047e+18,-4.0,2.0,4.0,11.0,3.0,3.0,1.0,-1.0
1.6951634128462034e+18,14.0,-4.0,-9.0,-8.0,-9.0,-6.0,-4.0,2.0
1.6951634128522007e+18,1.0,5.0,5.0,3.0,4.0,2.0,-1.0,-1.0
1.6951634128532e+18,-5.0,-1.0,-2.0,-14.0,-3.0,-1.0,-2.0,-6.0
1.695163412854198e+18,2.0,-1.0,6.0,13.0,3.0,2.0,2.0,1.0
1.695163412855206e+18,2.0,4.0,14.0,22.0,4.0,2.0,4.0,7.0
1.6951634128821875e+18,-4.0,-3.0,1.0,-28.0,-11.0,-4.0,-7.0,-18.0
1.6951634128831823e+18,-1.0,-6.0,-5.0,2.0,0.0,-3.0,-1.0,2.0
1.695163412884199e+18,2.0,3.0,11.0,16.0,3.0,1.0,-1.0,2.0
1.6951634128851958e+18,-3.0,-2.0,-2.0,-3.0,3.0,-1.0,-2.0,-2.0
1.6951634128981734e+18,-1.0,-3.0,-2.0,-6.0,-2.0,0.0,0.0,3.0
1.6951634128991724e+18,-1.0,-3.0,4.0,0.0,4.0,2.0,3.0,-1.0
1.6951634129001774e+18,-1.0,-1.0,-9.0,-8.0,-2.0,2.0,1.0,-2.0
1.6951634129011817e+18,-6.0,-3.0,1.0,15.0,-3.0,-2.0,-2.0,-3.0
1.6951634129281577e+18,10.0,2.0,9.0,14.0,7.0,6.0,1.0,5.0
1.6951634129291566e+18,-3.0,-1.0,-16.0,-8.0,-3.0,0.0,-3.0,-3.0
1.695163412931158e+18,-3.0,-1.0,0.0,-7.0,-7.0,-4.0,-3.0,0.0
1.6951634129321562e+18,1.0,4.0,18.0,0.0,4.0,3.0,3.0,0.0
1.6951634129511437e+18,-5.0,0.0,-20.0,-2.0,3.0,1.0,1.0,0.0
1.6951634129541501e+18,0.0,-2.0,0.0,-5.0,-3.0,0.0,0.0,1.0
1.6951634129541501e+18,5.0,1.0,0.0,10.0,0.0,-2.0,-5.0,-3.0
1.6951634129551442e+18,-8.0,-1.0,-1.0,-9.0,0.0,2.0,-1.0,-1.0
1.6951634129551442e+18,1.0,0.0,6.0,-4.0,-6.0,-2.0,0.0,0.0
1.6951634129561492e+18,-1.0,0.0,-9.0,10.0,5.0,-1.0,0.0,-2.0
1.69516341295714e+18,-5.0,-5.0,-4.0,2.0,-1.0,-2.0,0.0,-1.0
1.6951634129581486e+18,0.0,2.0,12.0,-3.0,-8.0,-3.0,0.0,-1.0
1.6951634129741315e+18,-3.0,-2.0,-9.0,2.0,4.0,0.0,-3.0,2.0
1.6951634129851315e+18,-2.0,2.0,11.0,0.0,-2.0,-1.0,1.0,-2.0
1.6951634130181266e+18,0.0,-6.0,-9.0,-12.0,-7.0,-1.0,-1.0,1.0
1.6951634130191037e+18,-1.0,2.0,7.0,2.0,-4.0,-5.0,-2.0,-1.0
1.6951634130191037e+18,-4.0,-5.0,-14.0,-2.0,1.0,-2.0,-3.0,-2.0
1.695163413020103e+18,0.0,4.0,2.0,8.0,-8.0,-4.0,-4.0,-1.0
1.6951634130211026e+18,-5.0,-11.0,-3.0,-2.0,4.0,-2.0,0.0,-1.0
1.6951634130211026e+18,3.0,4.0,3.0,-5.0,-3.0,0.0,-1.0,1.0
1.6951634130241009e+18,-5.0,-10.0,-21.0,-9.0,-13.0,-4.0,-5.0,-3.0
1.6951634130241009e+18,4.0,2.0,5.0,1.0,6.0,1.0,1.0,1.0
1.6951634130320993e+18,0.0,2.0,9.0,16.0,-2.0,-6.0,-1.0,-1.0
1.6951634130320993e+18,1.0,-2.0,1.0,1.0,2.0,-2.0,-2.0,-2.0
1.6951634130380915e+18,-1.0,-4.0,-7.0,-4.0,-5.0,-1.0,-1.0,-3.0
1.6951634130380915e+18,-1.0,-6.0,-16.0,-1.0,12.0,3.0,0.0,-1.0
1.695163413071073e+18,-3.0,6.0,31.0,15.0,5.0,1.0,1.0,-1.0
1.6951634130720814e+18,-2.0,-8.0,-30.0,-32.0,-25.0,-13.0,-8.0,-8.0
1.6951634130720814e+18,0.0,3.0,10.0,16.0,3.0,-1.0,1.0,0.0
1.6951634130730732e+18,-5.0,-4.0,-13.0,-4.0,1.0,1.0,0.0,-3.0
1.6951634130730732e+18,4.0,2.0,16.0,-1.0,1.0,-1.0,0.0,4.0
1.6951634130730732e+18,-13.0,-12.0,-28.0,-11.0,-3.0,-4.0,-3.0,-6.0
1.6951634130850652e+18,9.0,1.0,7.0,-1.0,0.0,-1.0,-1.0,2.0
1.6951634130850652e+18,-1.0,2.0,0.0,-2.0,-4.0,-2.0,0.0,-1.0
1.6951634131160476e+18,-1.0,7.0,-7.0,-8.0,-1.0,1.0,-2.0,-1.0
1.6951634131160476e+18,1.0,-6.0,19.0,11.0,3.0,1.0,0.0,-1.0
1.695163413117047e+18,-3.0,-3.0,-13.0,0.0,0.0,0.0,-1.0,-2.0
1.6951634131180475e+18,-1.0,3.0,11.0,-5.0,8.0,1.0,1.0,-2.0
1.6951634131180475e+18,-1.0,-1.0,-6.0,7.0,0.0,0.0,1.0,1.0
1.6951634131190456e+18,0.0,-1.0,-14.0,6.0,20.0,7.0,4.0,4.0
1.695163413140058e+18,-4.0,6.0,3.0,-10.0,-19.0,-3.0,-3.0,-5.0
1.695163413140058e+18,-1.0,-12.0,-6.0,-2.0,12.0,1.0,-2.0,-1.0
1.6951634131410386e+18,-1.0,1.0,-10.0,1.0,-3.0,0.0,0.0,-1.0
1.6951634131420431e+18,2.0,1.0,13.0,6.0,3.0,2.0,1.0,1.0
1.6951634131600212e+18,0.0,-2.0,-11.0,-4.0,-1.0,-1.0,-1.0,1.0
1.6951634131610222e+18,1.0,6.0,0.0,14.0,-4.0,-3.0,0.0,0.0
1.6951634131610222e+18,-8.0,-13.0,-3.0,-11.0,-12.0,-9.0,-2.0,-5.0
1.6951634131610222e+18,-1.0,4.0,2.0,0.0,-1.0,1.0,-2.0,-3.0
1.6951634131630213e+18,3.0,-12.0,2.0,0.0,5.0,1.0,-1.0,2.0
1.6951634131630213e+18,1.0,-10.0,-15.0,-4.0,-11.0,-4.0,-2.0,-1.0
1.6951634131740398e+18,-2.0,2.0,6.0,2.0,2.0,-2.0,-1.0,-2.0
1.695163413175019e+18,2.0,16.0,7.0,4.0,0.0,1.0,2.0,0.0
1.6951634131760174e+18,-2.0,14.0,10.0,0.0,-8.0,-1.0,0.0,-5.0
1.6951634131760174e+18,-6.0,-22.0,-4.0,-6.0,7.0,-2.0,-1.0,-2.0
1.6951634132059958e+18,-2.0,-7.0,-1.0,-5.0,-6.0,-4.0,-1.0,4.0
1.695163413207001e+18,12.0,5.0,-8.0,6.0,7.0,2.0,1.0,3.0
1.695163413208e+18,-1.0,1.0,14.0,3.0,3.0,3.0,0.0,-2.0
1.695163413208e+18,-4.0,9.0,-5.0,-4.0,-14.0,-3.0,-2.0,-3.0
1.695163413211992e+18,-3.0,4.0,-5.0,-8.0,7.0,2.0,1.0,-3.0
1.6951634132130002e+18,-1.0,-13.0,14.0,2.0,-3.0,-2.0,-2.0,1.0
1.6951634132209884e+18,-12.0,3.0,-42.0,3.0,2.0,-2.0,-1.0,-3.0
1.6951634132209884e+18,6.0,13.0,1.0,4.0,10.0,8.0,2.0,0.0
1.6951634132349788e+18,0.0,-31.0,16.0,6.0,-9.0,-6.0,-3.0,-2.0
1.6951634132359785e+18,3.0,18.0,-13.0,-17.0,-2.0,-2.0,-4.0,0.0
1.695163413247971e+18,-6.0,-4.0,45.0,21.0,9.0,5.0,3.0,1.0
1.6951634132489818e+18,13.0,12.0,-12.0,-19.0,-8.0,-1.0,0.0,1.0
1.6951634132569661e+18,-1.0,11.0,-17.0,9.0,-5.0,-3.0,0.0,3.0
1.6951634132579694e+18,-19.0,-23.0,16.0,6.0,19.0,8.0,2.0,-3.0
1.6951634132589693e+18,-4.0,-6.0,4.0,-5.0,-10.0,-3.0,-1.0,2.0
1.6951634132589693e+18,8.0,11.0,3.0,13.0,-2.0,-2.0,0.0,0.0
1.6951634132709637e+18,5.0,-8.0,-13.0,0.0,12.0,8.0,4.0,0.0
1.6951634132709637e+18,11.0,13.0,10.0,-3.0,-11.0,-5.0,-4.0,-5.0
1.6951634132869558e+18,0.0,6.0,-5.0,0.0,5.0,4.0,4.0,4.0
1.6951634132879747e+18,6.0,-20.0,-22.0,-15.0,-15.0,-6.0,-4.0,-5.0
1.6951634133016573e+18,-3.0,8.0,32.0,-4.0,-6.0,-4.0,-2.0,2.0
1.6951634133026568e+18,8.0,-3.0,-9.0,3.0,0.0,0.0,0.0,2.0
1.6951634133036547e+18,26.0,26.0,19.0,0.0,4.0,2.0,2.0,5.0
1.6951634133036547e+18,-4.0,-35.0,0.0,-10.0,-15.0,-7.0,-3.0,-2.0
1.6951634133168988e+18,1.0,15.0,-16.0,4.0,14.0,6.0,4.0,1.0
1.695163413317888e+18,-17.0,-29.0,-2.0,-12.0,-9.0,0.0,0.0,-1.0
1.695163413318888e+18,-3.0,6.0,-27.0,-10.0,-11.0,-9.0,-8.0,-7.0
1.695163413318888e+18,-8.0,-14.0,31.0,4.0,3.0,1.0,0.0,1.0
1.6951634133468713e+18,0.0,33.0,-2.0,6.0,11.0,5.0,-2.0,-1.0
1.695163413347872e+18,-42.0,-42.0,-3.0,-19.0,-18.0,-7.0,-3.0,-11.0
1.6951634133488712e+18,31.0,61.0,12.0,38.0,34.0,10.0,0.0,1.0
1.6951634133488712e+18,-20.0,-86.0,-29.0,2.0,-6.0,-8.0,-2.0,9.0
1.6951634133628626e+18,6.0,-5.0,8.0,-27.0,1.0,1.0,3.0,-1.0
1.6951634133628626e+18,34.0,41.0,5.0,-1.0,-5.0,-2.0,2.0,5.0
1.695163413363862e+18,-21.0,-16.0,-7.0,-21.0,-17.0,-6.0,-1.0,-2.0
1.695163413363862e+18,-6.0,28.0,-11.0,2.0,3.0,2.0,-3.0,-13.0
1.6951634133938465e+18,9.0,-27.0,1.0,-2.0,-2.0,0.0,-4.0,0.0
1.6951634133938465e+18,-38.0,10.0,6.0,19.0,0.0,-2.0,-3.0,0.0
1.6951634133948442e+18,31.0,85.0,-3.0,-19.0,3.0,-1.0,4.0,5.0
1.6951634133948442e+18,-7.0,-95.0,-9.0,6.0,0.0,6.0,4.0,7.0
1.6951634133958438e+18,-14.0,25.0,1.0,8.0,-1.0,-4.0,-5.0,-14.0
1.6951634133958438e+18,47.0,38.0,-22.0,-22.0,-2.0,-1.0,4.0,9.0
1.695163413405838e+18,-12.0,-18.0,15.0,1.0,-11.0,-9.0,-8.0,-10.0
1.695163413405838e+18,78.0,62.0,-4.0,-3.0,12.0,4.0,5.0,15.0
1.6951634134209213e+18,-20.0,41.0,43.0,18.0,18.0,4.0,3.0,-5.0
1.6951634134218908e+18,-51.0,-42.0,-30.0,-5.0,-8.0,-7.0,-9.0,-14.0
1.695163413439974e+18,-25.0,-41.0,-39.0,-10.0,-9.0,-14.0,-8.0,-10.0
1.695163413440974e+18,2.0,-16.0,15.0,10.0,-5.0,2.0,1.0,-1.0
1.695163413440974e+18,20.0,50.0,-7.0,-21.0,3.0,-4.0,-3.0,6.0
1.695163413440974e+18,27.0,-43.0,-6.0,18.0,6.0,6.0,5.0,9.0
1.6951634134549645e+18,-23.0,-28.0,10.0,3.0,-3.0,-3.0,-7.0,-11.0
1.6951634134549645e+18,1.0,69.0,24.0,-1.0,-23.0,-12.0,0.0,0.0
1.695163413455966e+18,-13.0,-61.0,-24.0,18.0,66.0,40.0,15.0,23.0
1.695163413455966e+18,-37.0,17.0,6.0,-9.0,-15.0,-13.0,-7.0,-13.0
1.6951634134589624e+18,65.0,21.0,11.0,12.0,13.0,8.0,7.0,4.0
1.6951634134589624e+18,-40.0,-8.0,-10.0,-9.0,-27.0,-22.0,-21.0,-14.0
1.69516341348295e+18,26.0,-55.0,-9.0,33.0,49.0,43.0,53.0,58.0
1.6951634134839496e+18,53.0,39.0,-11.0,-12.0,-16.0,-12.0,-12.0,-21.0
1.6951634134839496e+18,-48.0,-63.0,1.0,1.0,7.0,11.0,9.0,27.0
1.6951634134839496e+18,-30.0,127.0,25.0,-15.0,-23.0,-21.0,-33.0,-72.0
1.695163413505941e+18,92.0,112.0,10.0,-11.0,-19.0,-9.0,12.0,33.0
1.695163413506935e+18,-39.0,-118.0,-28.0,13.0,6.0,-1.0,-15.0,29.0
1.695163413506935e+18,27.0,106.0,9.0,0.0,-6.0,1.0,17.0,9.0
1.6951634135079421e+18,-62.0,-57.0,-20.0,-14.0,-6.0,-2.0,-20.0,-21.0
1.6951634135119342e+18,14.0,-7.0,25.0,12.0,-11.0,-6.0,-16.0,-38.0
1.6951634135119342e+18,3.0,84.0,-51.0,-9.0,22.0,3.0,6.0,-4.0
1.6951634135189297e+18,45.0,-69.0,17.0,-13.0,-47.0,-11.0,5.0,13.0
1.6951634135189297e+18,-41.0,-30.0,12.0,10.0,80.0,28.0,19.0,2.0
1.6951634135428252e+18,-37.0,-40.0,-27.0,-14.0,-32.0,-12.0,10.0,8.0
1.6951634135428252e+18,56.0,-4.0,31.0,-6.0,-40.0,-11.0,-24.0,-17.0
1.695163413543823e+18,20.0,52.0,-2.0,12.0,41.0,21.0,14.0,41.0
1.695163413543823e+18,-2.0,27.0,-20.0,5.0,1.0,-2.0,-10.0,-3.0
1.6951634135638605e+18,29.0,18.0,15.0,-14.0,-78.0,-37.0,-10.0,-53.0
1.6951634135648968e+18,-42.0,13.0,29.0,8.0,74.0,22.0,-6.0,11.0
1.695163413580326e+18,-56.0,-68.0,-64.0,-10.0,-21.0,1.0,6.0,-10.0
1.695163413581318e+18,32.0,27.0,2.0,4.0,7.0,5.0,8.0,7.0
1.695163413581318e+18,-53.0,33.0,-32.0,-12.0,9.0,0.0,-16.0,-5.0
1.6951634135823186e+18,39.0,6.0,3.0,-9.0,-31.0,-9.0,12.0,5.0
1.6951634135823186e+18,-8.0,-25.0,46.0,6.0,-11.0,-4.0,7.0,-71.0
1.6951634135833247e+18,10.0,48.0,-36.0,1.0,29.0,10.0,-16.0,68.0
1.6951634136102546e+18,-113.0,-62.0,-6.0,-8.0,-34.0,-24.0,-26.0,-45.0
1.6951634136112604e+18,76.0,111.0,-12.0,-7.0,-20.0,-2.0,22.0,20.0
1.6951634136112604e+18,-19.0,-74.0,9.0,-22.0,6.0,-5.0,-23.0,-28.0
1.6951634136122596e+18,-3.0,27.0,21.0,18.0,16.0,6.0,15.0,-12.0
1.6951634136178e+18,1.0,-4.0,-27.0,-12.0,2.0,-1.0,-8.0,7.0
1.6951634136178e+18,-76.0,-92.0,19.0,-18.0,-76.0,-36.0,-4.0,-17.0
1.6951634136187978e+18,71.0,47.0,19.0,50.0,50.0,58.0,13.0,74.0
1.6951634136187978e+18,-20.0,-60.0,-6.0,-15.0,-62.0,-23.0,-4.0,-34.0
1.6951634136398287e+18,47.0,-74.0,16.0,-28.0,-31.0,-10.0,-22.0,15.0
1.695163413640838e+18,-14.0,-122.0,-17.0,13.0,8.0,-8.0,16.0,-73.0
1.695163413641838e+18,-91.0,127.0,-5.0,4.0,65.0,21.0,10.0,65.0
1.695163413641838e+18,40.0,-8.0,27.0,-3.0,-30.0,-11.0,-9.0,14.0
1.6951634136698286e+18,-10.0,-7.0,-11.0,26.0,46.0,19.0,-5.0,-13.0
1.695163413670839e+18,-9.0,-14.0,-9.0,-9.0,-23.0,-8.0,-10.0,0.0
1.695163413670839e+18,-44.0,0.0,6.0,-18.0,-42.0,-28.0,-7.0,-27.0
1.6951634136718362e+18,-4.0,42.0,11.0,28.0,19.0,14.0,2.0,-25.0
1.695163413678395e+18,21.0,4.0,-33.0,-10.0,8.0,2.0,13.0,1.0
1.695163413679397e+18,2.0,20.0,75.0,-4.0,5.0,-3.0,-19.0,9.0
1.6951634136803945e+18,-34.0,-32.0,-39.0,-13.0,11.0,-11.0,-11.0,-18.0
1.6951634136813932e+18,20.0,51.0,-23.0,-10.0,-8.0,14.0,34.0,43.0
1.6951634136910088e+18,56.0,-17.0,13.0,-21.0,-66.0,-39.0,-27.0,-46.0
1.695163413692001e+18,-43.0,60.0,2.0,36.0,66.0,42.0,8.0,-39.0
1.6951634136999962e+18,9.0,-29.0,-20.0,3.0,-17.0,-24.0,-19.0,-18.0
1.6951634136999962e+18,33.0,22.0,43.0,-19.0,30.0,4.0,30.0,45.0
1.6951634137158326e+18,-33.0,28.0,11.0,-6.0,-19.0,-6.0,-25.0,-15.0
1.6951634137158326e+18,37.0,-64.0,-23.0,20.0,46.0,18.0,23.0,39.0
1.695163413716831e+18,-12.0,3.0,-46.0,-19.0,-32.0,-26.0,-28.0,-84.0
1.695163413716831e+18,22.0,32.0,-3.0,-17.0,-21.0,-6.0,-11.0,17.0
1.695163413736854e+18,56.0,75.0,39.0,46.0,38.0,24.0,12.0,30.0
1.6951634137378483e+18,-70.0,47.0,2.0,-31.0,-20.0,0.0,4.0,6.0
1.6951634137438438e+18,-9.0,-30.0,-12.0,-1.0,-8.0,-14.0,-6.0,-27.0
1.6951634137438438e+18,28.0,34.0,1.0,0.0,-67.0,-11.0,-4.0,-36.0
1.6951634137597363e+18,-25.0,5.0,40.0,29.0,91.0,36.0,11.0,34.0
1.6951634137607314e+18,5.0,26.0,-23.0,12.0,-2.0,5.0,18.0,31.0
1.6951634137617313e+18,42.0,-57.0,-21.0,-12.0,-5.0,-2.0,-7.0,10.0
1.6951634137617313e+18,-44.0,75.0,24.0,-1.0,-20.0,-4.0,0.0,-14.0
1.695163413789853e+18,-29.0,-99.0,-23.0,4.0,-30.0,-16.0,8.0,-32.0
1.6951634137908736e+18,107.0,127.0,45.0,-16.0,-34.0,-14.0,-30.0,39.0
1.6951634137908736e+18,19.0,-35.0,-60.0,11.0,51.0,47.0,40.0,40.0
1.6951634137918958e+18,-78.0,-54.0,-28.0,-9.0,2.0,-12.0,-19.0,-49.0
1.6951634138047306e+18,-30.0,-76.0,-29.0,6.0,-19.0,-12.0,-19.0,58.0
1.6951634138057272e+18,8.0,46.0,22.0,-36.0,-24.0,-12.0,-20.0,-35.0
1.6951634138067274e+18,13.0,-27.0,5.0,11.0,-13.0,-15.0,-7.0,-9.0
1.6951634138067274e+18,31.0,72.0,2.0,19.0,36.0,16.0,-1.0,24.0
1.6951634138278523e+18,-34.0,4.0,-29.0,-40.0,-22.0,-16.0,1.0,-36.0
1.6951634138278523e+18,11.0,-27.0,32.0,7.0,2.0,8.0,11.0,10.0
1.6951634138298486e+18,7.0,78.0,-10.0,-7.0,-50.0,-23.0,-15.0,21.0
1.6951634138308564e+18,3.0,-113.0,30.0,35.0,88.0,45.0,39.0,33.0
1.6951634138427315e+18,-9.0,44.0,-23.0,17.0,-13.0,-7.0,-7.0,2.0
1.6951634138437307e+18,4.0,-27.0,-28.0,6.0,29.0,10.0,1.0,-25.0
1.6951634138437307e+18,-13.0,-61.0,36.0,-21.0,-88.0,-32.0,-4.0,-47.0
1.6951634138447314e+18,9.0,-45.0,2.0,33.0,70.0,29.0,12.0,39.0
1.695163413857871e+18,-7.0,26.0,-69.0,-62.0,-59.0,-16.0,-4.0,-21.0
1.695163413857871e+18,-11.0,-24.0,45.0,59.0,66.0,22.0,19.0,18.0
1.695163413858869e+18,-38.0,-64.0,-11.0,3.0,37.0,18.0,4.0,15.0
1.695163413858869e+18,15.0,12.0,-11.0,-28.0,-63.0,-32.0,-23.0,-25.0
1.695163413871732e+18,-51.0,19.0,28.0,11.0,25.0,17.0,26.0,5.0
1.6951634138727306e+18,-5.0,28.0,-24.0,4.0,8.0,7.0,-11.0,3.0
1.695163413880743e+18,2.0,29.0,34.0,-8.0,-13.0,-11.0,5.0,-11.0
1.695163413880743e+18,38.0,-38.0,-18.0,-16.0,-1.0,-8.0,-3.0,1.0
