timestamp,left_data_Ac_X,left_data_Ac_Y,left_data_Ac_Z,left_data_Gy_X,left_data_Gy_Y,left_data_Gy_Z,left_data_flex_1,left_data_flex_2,left_data_flex_3,left_data_flex_4,left_data_flex_5,right_data_Ac_X,right_data_Ac_Y,right_data_Ac_Z,right_data_Gy_X,right_data_Gy_Y,right_data_Gy_Z,right_data_flex_1,right_data_flex_2,right_data_flex_3,right_data_flex_4,right_data_flex_5
1695161870322580800,-9.338583946,-2.104503393,-1.874659896,0.237418056,-0.024514547,0.156280249,-7,4,-3,14,8,-8.541314125,3.693056107,0.814028561,0.108983152,-0.005995406,0.24154824,-54,-41,-8,31,174
1695161870323580800,-9.337387085,-2.109291792,-1.878251195,0.244879022,-0.025047474,0.156946406,-2,6,-1,18,11,-8.54251194,3.685873508,0.822408259,0.108849928,-0.002931087,0.241015315,-53,-44,-9,29,178
1695161870324580800,-9.337387085,-2.108094692,-1.885433793,0.25194028,-0.02571363,0.157479316,-5,3,-1,16,3,-8.543708801,3.68108511,0.828393817,0.108583458,-0.000133231,0.240482375,-56,-48,-16,29,177
1695161870325580800,-9.333795547,-2.108094692,-1.886630893,0.258868307,-0.026246555,0.157745793,-5,3,-2,13,4,-8.54251194,3.67869091,0.839167714,0.108583458,0.002664625,0.239816234,-54,-41,-9,31,176
1695161870326580800,-9.329007149,-2.110488892,-1.886630893,0.265396625,-0.026779478,0.157612562,-3,4,-6,16,8,-8.543708801,3.673902512,0.845153213,0.108450226,0.005196018,0.239283308,-54,-44,-8,30,176
1695161870385544800,-9.241618156,-2.086546898,-1.887827992,0.314958632,-0.011724349,0.106185302,-8,3,1,15,7,-8.541314125,3.597288132,1.028309584,0.132698312,0.016920367,0.229557425,-55,-47,-7,30,177
1695161870386544800,-9.239224434,-2.086546898,-1.885433793,0.314425707,-0.009725881,0.100189894,-6,6,0,16,9,-8.549694061,3.594893932,1.037886381,0.134830013,0.015854517,0.228891268,-55,-41,-8,30,177
1695161870387544800,-9.239224434,-2.08295536,-1.884236693,0.313626319,-0.007327718,0.093661562,-6,3,-4,14,4,-8.55448246,3.591302633,1.048660398,0.137094945,0.014788668,0.228091896,-53,-43,-8,30,176
1695161870388544800,-9.235632896,-2.076969862,-1.885433793,0.312560499,-0.005196018,0.086999997,-3,0,0,16,8,-8.555679321,3.587711334,1.059434295,0.139093414,0.013722817,0.227159262,-58,-45,-11,28,175
1695161870389544800,-9.228450775,-2.072181463,-1.885433793,0.311627865,-0.002931087,0.079805516,-5,6,-4,14,6,-8.561665535,3.585317135,1.067813993,0.141225114,0.012523737,0.225826949,-57,-43,-6,27,174
1695161870424521800,-9.133879662,-1.952471495,-1.814804912,0.274722815,0.045964777,-0.064750381,-4,1,-5,13,4,-8.662221909,3.549403906,1.137245774,0.151883617,-0.0021317,0.169336915,-61,-43,-7,31,177
1695161870425521800,-9.125499725,-1.944091797,-1.817199111,0.272457898,0.049295556,-0.071811639,-7,5,-3,15,7,-8.668207169,3.548206806,1.144428372,0.151617154,-0.002398162,0.164540574,-58,-45,-8,28,176
1695161870426521800,-9.118317604,-1.939303398,-1.808819413,0.270326167,0.052359879,-0.078739658,-8,1,-5,16,5,-8.671798706,3.543418407,1.144428372,0.151350692,-0.002664625,0.159744263,-55,-44,-9,30,176
1695161870427521800,-9.114726067,-1.9321208,-1.806425214,0.268460959,0.055424199,-0.085401222,-4,9,-3,16,9,-8.677783966,3.541024208,1.146822572,0.151217461,-0.003064318,0.15481469,-58,-41,-11,28,176
1695161870428521800,-9.10634613,-1.922544003,-1.798045516,0.266728938,0.058621746,-0.092062794,-5,4,-3,18,8,-8.682572365,3.538630009,1.146822572,0.150950998,-0.003464012,0.149618685,-54,-44,-11,29,176
1695161870464499600,-9.096769333,-1.774103403,-1.696291924,0.280052066,0.092995405,-0.183192953,-2,5,-6,13,9,-8.686163902,3.569754839,1.156399369,0.144022971,-0.014255743,0.034906585,-58,-45,-13,28,176
1695161870465499600,-9.096769333,-1.765723705,-1.685518026,0.282317013,0.093395106,-0.186257273,-9,5,-6,13,3,-8.682572365,3.575740337,1.15520227,0.143356815,-0.015987748,0.028911179,-55,-46,-8,28,176
1695161870466499600,-9.099164009,-1.757344007,-1.674744129,0.284848392,0.09352833,-0.18905513,-6,3,-4,13,7,-8.677783966,3.580528736,1.15280807,0.142557427,-0.018119449,0.023315467,-57,-45,-12,28,175
1695161870467499600,-9.101557732,-1.74657011,-1.67115283,0.287246555,0.093395106,-0.191719756,-3,5,-5,14,4,-8.677783966,3.582922935,1.148019671,0.141624808,-0.020251149,0.017719755,-57,-44,-9,29,175
1695161870468499600,-9.101557732,-1.734599113,-1.666364431,0.289644688,0.093261868,-0.194117904,-5,2,-4,15,4,-8.680178642,3.586514235,1.146822572,0.140958652,-0.022382848,0.012124043,-57,-44,-12,30,173
1695161870500481500,-9.130288124,-1.529894829,-1.608903527,0.323751897,0.069147013,-0.202245027,-4,5,0,14,9,-8.649053574,3.67869091,1.036689281,0.137894332,-0.055157732,-0.069546707,-58,-43,-11,26,173
1695161870501481500,-9.13866806,-1.515529633,-1.608903527,0.32468453,0.067015313,-0.200779468,-2,1,-4,18,5,-8.649053574,3.685873508,1.028309584,0.138294026,-0.055290964,-0.072877489,-55,-45,-8,30,178
1695161870502481500,-9.148244858,-1.504755735,-1.607706428,0.325483918,0.065150075,-0.199447155,-5,0,-3,16,10,-8.650250435,3.690661907,1.021126986,0.138826951,-0.055290964,-0.075941809,-55,-44,-5,25,173
1695161870503481500,-9.159018517,-1.491587639,-1.606509328,0.326549739,0.062751912,-0.19784838,-4,3,0,15,7,-8.650250435,3.696647406,1.019929886,0.139226645,-0.055290964,-0.079139359,-54,-44,-9,30,177
1695161870504481500,-9.168595314,-1.479616642,-1.606509328,0.32721591,0.060753446,-0.196116373,-7,2,-3,13,7,-8.647856712,3.701435804,1.013944387,0.13975957,-0.055157732,-0.082203679,-59,-44,-11,30,176
1695161870539456700,-9.271546364,-1.352723956,-1.593341231,0.32361868,0.033707503,-0.118309341,-4,5,-3,14,8,-8.680178642,3.835511208,0.932541549,0.143356815,-0.06261868,-0.110848397,-55,-43,-9,26,173
1695161870540456700,-9.264363289,-1.352723956,-1.594538331,0.322686076,0.033707503,-0.111514546,-2,5,-3,14,5,-8.681375504,3.836708307,0.92775315,0.14388974,-0.064084224,-0.110848397,-55,-43,-9,29,176
1695161870541456700,-9.25358963,-1.349132657,-1.594538331,0.321753442,0.034107197,-0.104586519,-6,3,-1,14,4,-8.677783966,3.839102507,0.924161851,0.144689128,-0.065283306,-0.110581927,-61,-45,-7,29,182
1695161870542456700,-9.248801231,-1.345541358,-1.587355733,0.320554376,0.034506891,-0.097525269,-7,5,0,18,5,-8.676587105,3.842693806,0.921767652,0.145488501,-0.066615619,-0.110049009,-53,-44,-5,31,176
1695161870543456700,-9.240421295,-1.344344258,-1.580173135,0.319222063,0.034906585,-0.09033078,-4,3,-1,15,9,-8.675390244,3.845088005,0.919373453,0.146154657,-0.067681469,-0.109782539,-58,-45,-11,28,177
1695161870579435800,-9.005789757,-1.335964561,-1.480813742,0.270859122,0.070079632,0.035306279,-7,2,-3,15,4,-8.608352661,3.90135169,0.796072066,0.171202138,-0.085267991,-0.084601834,-53,-40,-8,28,177
1695161870580435800,-8.997409821,-1.343147159,-1.474828243,0.266862184,0.072477795,0.041168455,-3,1,-3,14,4,-8.601169586,3.90135169,0.788889468,0.171868294,-0.084735066,-0.08313629,-54,-44,-9,31,176
1695161870581435800,-8.987833023,-1.350329757,-1.467645645,0.263131708,0.07474272,0.04729709,-4,4,3,13,7,-8.601169586,3.904942989,0.787692368,0.172534451,-0.084202148,-0.081803977,-55,-46,-8,31,178
1695161870582435800,-8.984241486,-1.352723956,-1.459265947,0.259267986,0.076741189,0.053292494,-3,3,-1,13,4,-8.601169586,3.907337189,0.78050977,0.172934145,-0.083535992,-0.080338441,-57,-44,-9,30,177
1695161870583435800,-8.984241486,-1.358709455,-1.452083349,0.255404294,0.078872897,0.059287902,-3,1,-6,14,4,-8.596381187,3.908534288,0.776918471,0.17346707,-0.08233691,-0.079272583,-55,-43,-9,29,178
1695161870617414600,-9.148244858,-1.497573137,-1.219845772,0.225560486,0.087399691,0.175998464,-5,0,-2,14,10,-8.62511158,3.957615376,0.713472128,0.161609486,-0.060220521,-0.072611026,-55,-45,-13,28,178
1695161870618414600,-9.169792175,-1.507149935,-1.195903778,0.225693718,0.086333841,0.185191423,-2,6,-1,16,4,-8.628703117,3.958812475,0.712275028,0.159877479,-0.058888208,-0.07274425,-55,-49,-12,32,176
1695161870619414600,-9.184157372,-1.513135433,-1.186326981,0.225693718,0.085267991,0.191986218,-4,2,0,13,3,-8.626308441,3.958812475,0.709880829,0.158012256,-0.05768913,-0.073143952,-54,-44,-4,31,174
1695161870620414600,-9.194931984,-1.515529633,-1.179144382,0.225826949,0.084601834,0.196516067,-2,5,3,14,8,-8.628703117,3.965995073,0.70509243,0.156413481,-0.056490045,-0.073410407,-57,-43,-8,29,177
1695161870621414600,-9.205705643,-1.519120932,-1.169567585,0.225693718,0.083402753,0.203444093,-1,3,0,13,7,-8.628703117,3.969586372,0.702698171,0.154415011,-0.055290964,-0.073676877,-56,-43,-7,29,176
1695161870654414200,-9.273940086,-1.689109325,-0.954089403,0.190254211,0.051693719,0.287379771,-3,5,-5,16,5,-8.601169586,4.006696701,0.709880829,0.134030625,-0.028111791,-0.061686065,-54,-41,-7,30,178
1695161870655414200,-9.270348549,-1.704671621,-0.942118347,0.186923429,0.050894335,0.289111793,-8,1,-4,14,9,-8.599972725,4.0090909,0.712275028,0.133764163,-0.026779478,-0.06008729,-60,-45,-7,29,178
1695161870656414200,-9.266757965,-1.716642618,-0.926556051,0.183992341,0.050361406,0.290577352,-4,5,-1,14,4,-8.599972725,4.01507616,0.712275028,0.133764163,-0.025580399,-0.058621746,-58,-44,-9,30,176
1695161870657414200,-9.263166428,-1.734599113,-0.915782154,0.180928022,0.04969525,0.291776419,-11,1,-6,14,4,-8.598775864,4.01747036,0.718260527,0.133630931,-0.024381317,-0.056889739,-54,-41,-6,29,177
1695161870658414200,-9.254786491,-1.751358509,-0.905008256,0.177863702,0.049295556,0.292842269,-7,1,-3,13,2,-8.59278965,4.023456097,0.725443125,0.133231238,-0.023315467,-0.055157732,-58,-44,-11,31,178
1695161870696366400,-9.165003777,-1.917755604,-0.66798228,0.131366,0.042900458,0.247943342,-7,2,-5,14,7,-8.61912632,4.09408474,0.788889468,0.100323126,-0.005995406,-0.025180703,-55,-43,-9,30,176
1695161870697366400,-9.161413193,-1.915361404,-0.659602582,0.127369061,0.042367533,0.242081165,-4,3,-6,13,7,-8.620323181,4.098873138,0.792480767,0.097525269,-0.005728943,-0.02358193,-54,-41,-9,31,172
1695161870698366400,-9.160215378,-1.920149803,-0.651222885,0.123105668,0.041701376,0.235819295,-3,3,-4,14,9,-8.620323181,4.101267338,0.799663365,0.094993874,-0.005329249,-0.021983154,-54,-38,-7,31,177
1695161870699366400,-9.162610054,-1.921346903,-0.645237386,0.11817611,0.041168455,0.229557425,-5,1,-4,13,3,-8.626308441,4.100070477,0.799663365,0.09246248,-0.005196018,-0.020384381,-57,-44,-11,30,177
1695161870700366400,-9.162610054,-1.922544003,-0.638054729,0.11298009,0.040369064,0.222629398,-4,0,-5,13,5,-8.629899979,4.098873138,0.799663365,0.089664623,-0.004929556,-0.018652374,-54,-41,-5,28,176
1695161870733348200,-9.155426979,-1.912967205,-0.416591108,-0.03130934,0.053425729,0.085001536,-4,2,-2,15,3,-8.665813446,4.076128483,0.841561913,0.066215925,-0.005196018,0.028644716,-54,-45,-7,31,179
1695161870734348200,-9.154230118,-1.914164305,-0.403422982,-0.040102605,0.056623276,0.077807046,-4,1,-6,13,5,-8.667010307,4.077325344,0.841561913,0.065816231,-0.005595712,0.031176111,-55,-40,-8,29,177
1695161870735348200,-9.151836395,-1.911770105,-0.384269387,-0.049162328,0.059954058,0.070612557,-7,0,-4,13,4,-8.668207169,4.078522682,0.843956113,0.065549769,-0.005862175,0.033041347,-58,-40,-7,28,172
1695161870736348200,-9.145850182,-1.908178806,-0.37110126,-0.05808882,0.063551299,0.063551299,-6,5,-2,15,4,-8.671798706,4.077325344,0.840364814,0.065016843,-0.005995406,0.035705972,-56,-41,-9,31,177
1695161870737348200,-9.139864922,-1.910573006,-0.351947635,-0.067015313,0.067281775,0.056756508,-14,1,-6,14,5,-8.670601845,4.076128483,0.845153213,0.064483918,-0.006528331,0.038503829,-55,-44,-7,29,177
1695161870771348500,-9.117119789,-2.093729496,0.004788403,-0.18798928,0.117643185,-0.041301683,-6,1,-6,16,9,-8.658630371,4.022258759,0.884657502,0.034506891,-0.015987748,0.08513476,-55,-43,-8,29,176
1695161870772348500,-9.113529205,-2.112883091,0.033518825,-0.188255742,0.118842266,-0.044898927,-4,6,-6,13,7,-8.659827232,4.018667698,0.884657502,0.033441041,-0.016520673,0.086333841,-57,-47,-8,31,174
1695161870773348500,-9.111134529,-2.135627985,0.056263741,-0.187323123,0.119508423,-0.048362937,-7,0,-6,15,5,-8.662221909,4.012681961,0.879869103,0.031842265,-0.017852986,0.087932616,-53,-43,-7,30,177
1695161870774348500,-9.10634613,-2.160767078,0.087388359,-0.1854579,0.120174579,-0.051693719,-7,2,-5,15,5,-8.665813446,4.003105164,0.876277804,0.030376723,-0.019185297,0.089531392,-57,-41,-5,28,174
1695161870775348500,-9.10036087,-2.183511972,0.117315881,-0.182127118,0.120574266,-0.054758042,-6,1,-6,12,4,-8.671798706,3.992331266,0.882263303,0.02917764,-0.020384381,0.091396637,-58,-41,-7,31,176
1695161870810304300,-9.010578156,-2.236184359,0.524330199,-0.014655436,0.064483918,-0.087666154,-5,3,-4,13,7,-8.661025047,3.886986494,0.827196658,0.028111791,-0.035039816,0.109249614,-57,-41,-4,28,180
1695161870811304300,-9.008183479,-2.223016262,0.545877993,-0.006928025,0.061019909,-0.08753293,-6,2,-6,13,7,-8.658630371,3.883395195,0.823605359,0.028111791,-0.035173047,0.110049009,-54,-41,-6,29,180
1695161870812304300,-9.005789757,-2.207453966,0.563834488,0.0,0.057955589,-0.086733535,-10,0,-6,13,7,-8.659827232,3.879803896,0.82001406,0.028111791,-0.035306279,0.110848397,-54,-43,-8,29,177
1695161870813304300,-8.996212959,-2.19308877,0.581790984,0.005995406,0.05489127,-0.085267991,-7,0,-4,16,5,-8.653841972,3.873818398,0.814028561,0.028245023,-0.035572741,0.111781009,-55,-44,-7,31,175
1695161870814304300,-8.987833023,-2.179920673,0.605733037,0.011058193,0.052359879,-0.083535992,-8,0,-6,13,7,-8.646659851,3.867832899,0.802057564,0.028378254,-0.035972435,0.11298009,-55,-47,-5,27,177
1695161870855276300,-8.817844391,-2.041056871,0.808043063,-0.032108728,0.010658499,0.058222052,-8,3,-5,13,5,-8.568847656,3.721786499,0.647631586,0.039036751,-0.044366002,0.137494639,-51,-48,-6,29,176
1695161870856276300,-8.813055992,-2.038662672,0.796072066,-0.040369064,0.005728943,0.069147013,-6,-1,-6,14,8,-8.567650795,3.715801001,0.639251828,0.039436448,-0.043699846,0.137228176,-55,-44,-7,29,176
1695161870857276300,-8.809465408,-2.038662672,0.790086567,-0.049029093,0.000266462,0.079805516,-2,0,-6,13,5,-8.570044518,3.707421303,0.638054729,0.03956968,-0.042633995,0.13656202,-56,-43,-8,30,175
1695161870858276300,-8.805873871,-2.042253971,0.78050977,-0.05768913,-0.005595712,0.090464011,-7,0,-5,14,7,-8.574832916,3.701435804,0.63326633,0.03956968,-0.041568145,0.135629401,-55,-43,-9,26,176
1695161870859276300,-8.798690796,-2.04704237,0.769735873,-0.066482387,-0.012257273,0.100456357,-6,0,-6,15,7,-8.577227592,3.699041605,0.627280831,0.039303213,-0.03996937,0.134297088,-55,-43,-7,31,178
1695161870899253500,-8.901641846,-2.179920673,0.349553436,-0.19784838,-0.164807037,0.183459431,-8,0,-6,14,4,-8.584410667,3.646369219,0.586579442,-0.012656967,0.010525269,0.061019909,-51,-43,-9,30,176
1695161870900253500,-8.912415504,-2.190694571,0.323217243,-0.204243496,-0.171468601,0.183326185,-2,1,-8,13,4,-8.584410667,3.647566319,0.584185243,-0.015721286,0.013189893,0.056490045,-54,-41,-8,28,176
1695161870901253500,-8.923190117,-2.195482969,0.29688102,-0.210771829,-0.17759724,0.182793275,-6,0,-6,14,7,-8.584410667,3.643975019,0.584185243,-0.018385911,0.015854517,0.051960181,-55,-46,-7,30,179
1695161870902253500,-8.930372238,-2.201468468,0.264559299,-0.217166916,-0.183192953,0.181727409,-6,3,-4,13,4,-8.583212852,3.645172119,0.584185243,-0.020117918,0.017586524,0.048895866,-52,-43,-8,31,180
1695161870903253500,-8.939949036,-2.206256866,0.228646263,-0.223562017,-0.188122496,0.180395097,-9,0,-6,13,3,-8.58081913,3.646369219,0.580593884,-0.022516079,0.019984685,0.044632465,-49,-44,-8,31,177
1695161870938231000,-9.181763649,-2.389413357,-0.354341865,-0.294441044,-0.21450229,0.071678407,-5,2,-6,13,11,-8.593987465,3.737348795,0.618901134,-0.037970904,0.053692192,-0.014255743,-51,-43,-8,28,182
1695161870939231000,-9.185355186,-2.397793055,-0.377086759,-0.293108732,-0.212237358,0.060486984,-7,2,-6,13,5,-8.598775864,3.739742994,0.622492433,-0.038370594,0.054358348,-0.015321592,-55,-44,-7,31,176
1695161870940231000,-9.181763649,-2.409764051,-0.399831682,-0.290977001,-0.209306285,0.048496172,-6,2,-6,14,8,-8.603564262,3.746925592,0.629675031,-0.039036751,0.055024505,-0.016653905,-52,-43,-7,31,178
1695161870941231000,-9.179368973,-2.41694665,-0.429759204,-0.288179159,-0.206375197,0.036105666,-7,1,-4,14,9,-8.605957985,3.75650239,0.628477931,-0.039702907,0.055823889,-0.017719755,-51,-47,-8,28,175
1695161870942231000,-9.175778389,-2.424129248,-0.462080926,-0.284715146,-0.202777937,0.022649311,-4,5,-6,13,4,-8.607154846,3.767276287,0.628477931,-0.040502299,0.056490045,-0.018652374,-54,-44,-5,32,177
1695161870990202100,-9.054870605,-1.953668594,-0.841561913,-0.241415009,-0.07301072,-0.337874413,-6,3,-6,13,3,-8.652645111,3.871424198,0.746990919,-0.058488514,0.065283306,-0.017453292,-54,-41,-7,30,174
1695161870991202100,-9.052476883,-1.911770105,-0.840364814,-0.248209804,-0.062751912,-0.356393576,-6,0,-5,16,4,-8.656236649,3.872621298,0.754173517,-0.058488514,0.065283306,-0.016387442,-54,-41,-9,31,180
1695161870992202100,-9.051279068,-1.872265697,-0.845153213,-0.256203681,-0.05249311,-0.374113321,-7,0,-6,13,4,-8.655038834,3.877409697,0.756567717,-0.058355279,0.065150075,-0.015188362,-55,-40,-7,31,176
1695161870993202100,-9.047688484,-1.831564307,-0.840364814,-0.265529871,-0.042101074,-0.390367538,-4,0,-3,13,4,-8.65743351,3.879803896,0.762553215,-0.058222052,0.065016843,-0.01398928,-55,-41,-4,31,179
1695161870994202100,-9.039308548,-1.790862918,-0.836773515,-0.275655419,-0.03130934,-0.405422658,-6,1,-6,14,8,-8.656236649,3.881000996,0.764947414,-0.05808882,0.064750381,-0.012790199,-53,-41,-9,30,178
1695161871053162100,-8.762778282,-1.653196216,-0.711077929,-0.478566617,0.169470131,-0.379575789,-7,2,-5,14,-1,-8.711302757,3.914519787,0.814028561,-0.042900458,0.040102605,0.022516079,-55,-41,-4,31,177
1695161871054162100,-8.744821548,-1.674744129,-0.702698171,-0.48096475,0.176131696,-0.362122506,-4,1,-5,14,8,-8.710105896,3.913322687,0.81761986,-0.041967839,0.038104136,0.024781011,-56,-44,-7,31,179
1695161871055162100,-8.725667953,-1.698686123,-0.700303972,-0.481764168,0.181860641,-0.343603373,-9,0,-5,14,5,-8.714894295,3.914519787,0.81761986,-0.040901989,0.035972435,0.027045943,-53,-39,-7,31,179
1695161871056162100,-8.706514359,-1.722628117,-0.689530075,-0.481098026,0.186656967,-0.324018389,-6,1,-5,13,8,-8.717288017,3.913322687,0.814028561,-0.039836142,0.034107197,0.029310873,-53,-40,-7,31,169
1695161871057162100,-8.68975544,-1.74896431,-0.683544576,-0.478566617,0.190787122,-0.304166913,-6,0,-4,14,4,-8.719682693,3.909731388,0.814028561,-0.038503829,0.032108728,0.031442571,-50,-43,-8,31,178
1695161871098139500,-8.61912632,-2.120065689,-0.770932972,-0.184258804,0.134830013,-0.002664625,-8,0,-6,13,4,-8.744821548,3.924096584,0.802057564,-0.017852986,0.000133231,0.064483918,-54,-45,-5,30,176
1695161871099139500,-8.627506256,-2.111685991,-0.782903969,-0.166805506,0.128168449,0.004663093,-8,2,-6,13,7,-8.742427826,3.927687883,0.803254664,-0.018385911,-0.000799387,0.065816231,-54,-43,-9,28,177
1695161871100139500,-8.640673637,-2.103306293,-0.794874966,-0.150817752,0.121906579,0.01079173,-6,0,-9,13,7,-8.738836288,3.928884983,0.803254664,-0.019185297,-0.001598775,0.067148544,-54,-43,-6,31,176
1695161871101139500,-8.65743351,-2.093729496,-0.808043063,-0.136428788,0.115777947,0.015987748,-1,0,-5,13,3,-8.73404789,3.928884983,0.804451764,-0.019851454,-0.002398162,0.068347625,-56,-41,-9,29,178
1695161871102139500,-8.676587105,-2.081758261,-0.821211159,-0.123771824,0.109915771,0.019851454,-11,1,-6,14,7,-8.730456352,3.927687883,0.804451764,-0.02051761,-0.002931087,0.069147013,-55,-43,-8,30,177
1695161871141136000,-9.06803894,-1.906981707,-1.069011092,-0.152283311,0.09659265,-0.019718224,-7,1,-3,14,5,-8.731653214,3.858256102,0.755370617,-0.023049004,-0.021316998,0.090064317,-54,-41,-4,28,175
1695161871142136000,-9.081207275,-1.914164305,-1.073799491,-0.159744263,0.101255737,-0.024781011,-4,1,-6,13,5,-8.735244751,3.855861902,0.749385118,-0.021450229,-0.022915773,0.091130167,-54,-41,-9,28,181
1695161871143136000,-9.096769333,-1.916558504,-1.07739079,-0.166539043,0.106185302,-0.029444104,-6,3,-6,14,5,-8.732851028,3.852270603,0.746990919,-0.019451762,-0.024514547,0.092329249,-52,-40,-9,30,177
1695161871144136000,-9.11233139,-1.920149803,-1.082179189,-0.173067391,0.111647777,-0.034240428,-2,1,-4,13,5,-8.732851028,3.849876404,0.739808321,-0.017719755,-0.025980091,0.093794793,-53,-45,-9,30,177
1695161871145136000,-9.123106003,-1.926135302,-1.084573388,-0.178796321,0.117376715,-0.039169986,-6,0,-1,15,4,-8.732851028,3.849876404,0.736217022,-0.015721286,-0.027312404,0.094993874,-53,-41,-8,31,176
1695161871183088300,-9.180566788,-2.036268473,-1.037886381,-0.146287903,0.231422648,-0.091396637,-6,5,-4,17,4,-8.713697433,3.812766314,0.685938776,0.005062787,-0.041967839,0.115245022,-55,-44,-9,30,178
1695161871184088300,-9.179368973,-2.030282974,-1.027112484,-0.139892802,0.234886676,-0.091396637,-6,3,-6,14,10,-8.710105896,3.810372114,0.683544576,0.004396631,-0.041967839,0.116044402,-53,-45,-7,30,176
1695161871185088300,-9.17697525,-2.024297476,-1.018732786,-0.133364469,0.237684533,-0.091663092,-4,0,-6,14,5,-8.708909035,3.806780815,0.688332975,0.003863706,-0.041834611,0.116710559,-56,-40,-7,31,178
1695161871186088300,-9.175778389,-2.024297476,-1.012747288,-0.126836136,0.239816234,-0.091663092,-1,6,-3,14,4,-8.705317497,3.803189516,0.691924274,0.003464012,-0.042101074,0.117376715,-54,-43,-8,28,177
1695161871187088300,-9.178172112,-2.020706177,-1.00317049,-0.120174579,0.24154824,-0.091396637,-10,0,-6,13,8,-8.70172596,3.797203779,0.688332975,0.002931087,-0.041967839,0.11817611,-53,-41,-7,31,181
1695161871227065900,-9.2212677,-1.823184609,-0.895431459,-0.043699846,0.179862171,-0.057822358,-6,3,-3,13,9,-8.723274231,3.677493811,0.695515573,0.014788668,-0.043433387,0.110715166,-54,-44,-8,30,176
1695161871228065900,-9.226056099,-1.810016513,-0.89184016,-0.044632465,0.173733547,-0.054491576,-5,1,-5,13,5,-8.725667953,3.67869091,0.701501071,0.015854517,-0.043433387,0.109249614,-57,-43,-11,31,177
1695161871229065900,-9.229647636,-1.795651317,-0.887051702,-0.046098009,0.167071983,-0.051160797,-8,2,-6,13,3,-8.726864815,3.67869091,0.709880829,0.016787136,-0.043699846,0.107384384,-54,-42,-6,31,176
1695161871230065900,-9.233239174,-1.78368032,-0.89303726,-0.048229709,0.160676882,-0.047430322,-5,0,-5,14,4,-8.726864815,3.67869091,0.711077929,0.017719755,-0.043699846,0.105519146,-51,-41,-7,30,180
1695161871231065900,-9.233239174,-1.770512104,-0.885854602,-0.051027562,0.15428178,-0.043566614,-6,3,-6,13,5,-8.725667953,3.676296711,0.714669228,0.018519141,-0.043833077,0.103653908,-54,-42,-6,29,177
1695161871371953600,-9.059659004,-1.771709204,-1.459265947,0.129633993,0.082470134,-0.051560488,-8,2,-6,14,5,-8.634688377,4.060565948,0.660799682,0.14175804,-0.011724349,-0.065283306,-57,-39,-7,30,179
1695161871372953600,-9.063250542,-1.776497602,-1.442506552,0.12936753,0.086866774,-0.055157732,-6,1,-5,13,5,-8.641871452,4.061763287,0.67037648,0.140292495,-0.010658499,-0.062751912,-54,-45,-5,31,177
1695161871373953600,-9.063250542,-1.78128612,-1.426944256,0.128967836,0.090730481,-0.058754977,-4,6,-6,13,4,-8.641871452,4.064157486,0.679953277,0.138960183,-0.009725881,-0.060220521,-54,-45,-7,30,170
1695161871374953600,-9.06205368,-1.784877419,-1.41138196,0.128967836,0.094727404,-0.062085759,-8,2,-6,13,-1,-8.645462036,4.064157486,0.683544576,0.137894332,-0.008793262,-0.057422664,-51,-44,-5,31,179
1695161871375953600,-9.06205368,-1.786074519,-1.400607944,0.128834605,0.098457888,-0.065549769,-7,1,-5,13,3,-8.645462036,4.065354347,0.684741676,0.136828482,-0.008260337,-0.05489127,-55,-43,-8,29,177
1695161871459902600,-9.131484985,-1.765723705,-1.148019671,0.136828482,0.135496169,-0.11817611,-6,2,-6,15,7,-8.661025047,4.107253075,0.741005421,0.127369061,-0.016254211,0.006261868,-57,-43,-5,30,178
1695161871460902600,-9.136273384,-1.764526606,-1.131260276,0.138160795,0.13656202,-0.120174579,-8,1,-5,13,5,-8.661025047,4.108449936,0.745793819,0.126836136,-0.017320061,0.009859112,-51,-43,-6,30,177
1695161871461902600,-9.13866806,-1.760935307,-1.11569798,0.139493108,0.13762787,-0.121906579,-6,5,-3,13,5,-8.65743351,4.108449936,0.751779318,0.12616998,-0.018519141,0.013189893,-54,-41,-7,28,178
1695161871462902600,-9.142259598,-1.759738207,-1.095347285,0.140825421,0.138960183,-0.123505361,-2,5,-6,15,3,-8.656236649,4.107253075,0.752976418,0.125503823,-0.019718224,0.016653905,-54,-41,-6,31,176
1695161871463902600,-9.139864922,-1.759738207,-1.084573388,0.142290965,0.140425727,-0.124970905,-2,4,-6,14,5,-8.659827232,4.108449936,0.750582218,0.124837674,-0.020784073,0.020251149,-57,-41,-5,29,181
1695161871507874300,-9.047688484,-1.823184609,-0.769735873,0.199313939,0.177464008,-0.113513015,-10,2,-3,14,4,-8.743624687,4.082113743,0.717063427,0.102721281,-0.038770292,0.081271052,-50,-45,-7,31,177
1695161871508874300,-9.040505409,-1.830367208,-0.750582218,0.204776406,0.17972894,-0.111781009,-8,0,-5,15,5,-8.748413086,4.082113743,0.715866327,0.101522207,-0.039303213,0.083935678,-47,-39,-5,31,177
1695161871509874300,-9.044096947,-1.833958507,-0.737414122,0.210505351,0.181594178,-0.110182241,-6,4,-6,13,9,-8.752004623,4.082113743,0.713472128,0.100856051,-0.03956968,0.085800916,-55,-40,-6,31,180
1695161871510874300,-9.042900085,-1.832761407,-0.721851826,0.216500759,0.183326185,-0.108716697,-6,0,-4,13,8,-8.752004623,4.077325344,0.713472128,0.099390499,-0.040102605,0.088465542,-55,-40,-8,28,176
1695161871511874300,-9.044096947,-1.835155606,-0.703895271,0.222895861,0.184658498,-0.107251145,-6,1,-1,13,4,-8.756793022,4.072536945,0.712275028,0.098324656,-0.040768761,0.090996936,-55,-44,-6,30,179
1695161871550852700,-9.181763649,-1.842338204,-0.444124401,0.328415006,0.158545166,-0.104320064,-3,0,-6,13,5,-8.755595207,3.97796607,0.664390981,0.080738127,-0.056356817,0.138160795,-50,-41,-5,28,178
1695161871551852700,-9.190143585,-1.839944005,-0.421379507,0.332012266,0.155480847,-0.105385914,-6,0,-6,13,4,-8.755595207,3.969586372,0.663193882,0.07993874,-0.057022974,0.140159264,-56,-41,-7,31,180
1695161871552852700,-9.200917244,-1.836352706,-0.405817181,0.335476279,0.152283311,-0.106318533,-11,3,-6,14,7,-8.754398346,3.964797974,0.664390981,0.079272583,-0.057422664,0.141358346,-55,-41,-8,27,175
1695161871553852700,-9.210494041,-1.835155606,-0.391451985,0.33867383,0.149218991,-0.107517615,-4,0,-5,14,3,-8.755595207,3.958812475,0.659602582,0.078073502,-0.05808882,0.143090352,-51,-44,-7,30,177
1695161871554852700,-9.223662376,-1.833958507,-0.374692559,0.341604888,0.146287903,-0.108849928,-1,5,-6,13,5,-8.753201485,3.955221176,0.656011283,0.076874427,-0.058754977,0.144822344,-53,-41,-9,31,180
1695161871593827800,-9.214085579,-1.780089021,-0.094570965,0.324817777,0.114845328,-0.139093414,-6,3,-5,16,4,-8.769960403,3.840299606,0.620098233,0.039436448,-0.066482387,0.155480847,-58,-40,-5,30,180
1695161871594827800,-9.212887764,-1.777694821,-0.076614454,0.320021451,0.114578865,-0.141624808,-4,1,-4,13,7,-8.771158218,3.835511208,0.617704034,0.036771823,-0.066082694,0.154548228,-55,-40,-5,31,179
1695161871595827800,-9.208099365,-1.772906303,-0.063446343,0.315091878,0.114179172,-0.144289434,-4,4,-6,13,7,-8.775946617,3.830722809,0.611718535,0.034240428,-0.066082694,0.153615624,-55,-39,-7,31,177
1695161871596827800,-9.206902504,-1.766920805,-0.047884032,0.309629381,0.113646246,-0.146687597,-4,0,-6,14,5,-8.777143478,3.82713151,0.612915635,0.031575806,-0.065816231,0.152683005,-51,-43,-5,31,178
1695161871597827800,-9.208099365,-1.764526606,-0.032321721,0.304033697,0.113246553,-0.149352223,-6,0,-6,15,4,-8.77834034,3.82473731,0.610521436,0.028911179,-0.065549769,0.151350692,-54,-40,-9,30,171
1695161871632827000,-9.270348549,-1.74896431,0.231040463,0.192652375,0.088998467,-0.196782529,-3,0,-6,13,7,-8.790311813,3.748122692,0.600944638,-0.015321592,-0.06261868,0.122572735,-51,-41,-8,31,178
1695161871633827000,-9.281123161,-1.742978811,0.235828862,0.186523736,0.084868304,-0.199447155,-8,2,-8,13,9,-8.791508675,3.749319792,0.603338838,-0.016520673,-0.063018374,0.121506892,-58,-41,-8,29,177
1695161871634827000,-9.29189682,-1.738190413,0.245405674,0.180261865,0.080071971,-0.201845318,-5,0,-9,15,8,-8.791508675,3.743334293,0.605733037,-0.017453292,-0.063551299,0.120574266,-57,-43,-7,31,178
1695161871635827000,-9.299078941,-1.733402014,0.252588272,0.175998464,0.076474734,-0.20357734,-3,2,-6,13,4,-8.789113998,3.738545895,0.606930137,-0.018119449,-0.064084224,0.119774885,-55,-40,-8,27,178
1695161871636827000,-9.313444138,-1.723825216,0.258573771,0.169470131,0.071012251,-0.205975503,-10,1,-6,13,8,-8.787917137,3.734954596,0.609324336,-0.018519141,-0.064483918,0.119108729,-56,-43,-6,31,177
1695161871670783800,-9.236829758,-1.625662923,0.374692559,0.021316998,-0.045565084,-0.216500759,-12,1,-7,14,4,-8.797493935,3.683479309,0.606930137,0.000799387,-0.088998467,0.121773355,-56,-41,-7,31,178
1695161871671783800,-9.212887764,-1.626860023,0.384269387,0.012257273,-0.049162328,-0.214901984,-8,0,-7,13,3,-8.798690796,3.67988801,0.609324336,0.001865237,-0.090064317,0.12230628,-51,-41,-9,31,181
1695161871672783800,-9.191340446,-1.625662923,0.390254885,0.003330781,-0.0528928,-0.213303223,-6,1,-7,13,5,-8.798690796,3.675099611,0.611718535,0.003330781,-0.091130167,0.122705974,-54,-39,-8,31,179
1695161871673783800,-9.17098999,-1.626860023,0.393846184,-0.006128637,-0.05595712,-0.211304754,-6,0,-6,13,4,-8.796297073,3.672705412,0.614112735,0.004396631,-0.091929555,0.122972436,-52,-43,-6,31,180
1695161871674783800,-9.15063858,-1.623268723,0.399831682,-0.015321592,-0.059287902,-0.209173039,-4,3,-6,13,7,-8.795100212,3.667917013,0.617704034,0.005862175,-0.092862174,0.12337213,-53,-39,-9,31,170
1695161871711758000,-8.866926193,-1.685518026,0.567425787,-0.187722817,-0.158944875,-0.149751917,-12,1,-3,14,4,-8.718485832,3.575740337,0.597353339,0.041301683,-0.102055125,0.123105668,-53,-39,-8,29,178
1695161871712758000,-8.862137794,-1.686715126,0.574608386,-0.193851456,-0.167871356,-0.146421134,-5,0,-6,14,8,-8.712499619,3.573346138,0.603338838,0.043166921,-0.10178867,0.12230628,-54,-40,-7,30,178
1695161871713758000,-8.858546257,-1.683123827,0.579396784,-0.199580401,-0.176664621,-0.142957121,-7,0,-6,12,5,-8.706514359,3.568557739,0.606930137,0.045032158,-0.101388969,0.121506892,-52,-39,-7,29,180
1695161871714758000,-8.85495472,-1.675941229,0.584185243,-0.205442563,-0.1854579,-0.139626339,-6,2,-6,13,7,-8.698134422,3.56736064,0.614112735,0.046630934,-0.100856051,0.120307811,-54,-41,-5,31,178
1695161871715758000,-8.851364136,-1.666364431,0.580593884,-0.211437985,-0.194517612,-0.136295557,-4,2,-6,13,4,-8.68975544,3.563769341,0.610521436,0.048096478,-0.100589581,0.119108729,-54,-40,-7,29,177
1695161871748739400,-9.041702271,-1.44729495,0.310049117,-0.413150072,-0.342404276,-0.084068909,-8,3,-5,13,8,-8.601169586,3.513490915,0.695515573,0.050894335,-0.08313629,0.073676877,-51,-43,-7,31,178
1695161871749739400,-9.058462143,-1.441309452,0.281318694,-0.429670751,-0.34693414,-0.080338441,-2,0,-6,14,5,-8.597578049,3.514688015,0.695515573,0.050361406,-0.082603365,0.070079632,-47,-41,-6,31,179
1695161871750739400,-9.076418877,-1.430535555,0.256179571,-0.446457893,-0.351064324,-0.076474734,-6,2,-5,13,8,-8.598775864,3.511096716,0.697909772,0.050094947,-0.082203679,0.066482387,-53,-40,-8,31,180
1695161871751739400,-9.096769333,-1.418564558,0.234631762,-0.463644713,-0.3547948,-0.072477795,-4,0,-5,13,4,-8.599972725,3.508702517,0.701501071,0.049562022,-0.081937209,0.06261868,-55,-40,-7,29,174
1695161871752739400,-9.117119789,-1.413776159,0.208295554,-0.480831534,-0.358125567,-0.068480857,-6,2,-2,13,7,-8.601169586,3.505111217,0.702698171,0.049162328,-0.081537522,0.058754977,-53,-43,-4,31,181
1695161871782741300,-9.124302864,-1.578976035,0.10175357,-0.740632474,-0.42540735,0.005062787,-4,1,-5,13,8,-8.553285599,3.479972124,0.78170687,0.057156201,-0.057822358,0.004396631,-57,-44,-8,28,176
1695161871783741300,-9.111134529,-1.583764434,0.095768064,-0.750358343,-0.426339954,0.008260337,-7,0,-6,13,9,-8.536525726,3.483563423,0.778115571,0.059021436,-0.052093416,0.007727412,-54,-40,-7,30,180
1695161871784741300,-9.095572472,-1.590947032,0.093373865,-0.760217428,-0.426872909,0.011191424,-11,1,-5,11,6,-8.525752068,3.487154722,0.776918471,0.060753446,-0.045298621,0.011457887,-54,-39,-5,31,180
1695161871785741300,-9.083600998,-1.595735431,0.088585466,-0.770209789,-0.426606447,0.014122511,-6,3,-3,12,4,-8.512583733,3.491943121,0.775721371,0.062885143,-0.037304748,0.01612098,-54,-39,-4,31,178
1695161871786741300,-9.069235802,-1.600523829,0.087388359,-0.779536009,-0.426206738,0.016920367,-5,3,-6,13,4,-8.514978409,3.511096716,0.766144514,0.064350687,-0.029444104,0.020917306,-55,-44,-8,29,178
1695161871817699800,-8.610746384,-1.962048292,0.299275219,-0.830163836,-0.435532928,0.077807046,-2,1,-5,13,5,-8.585607529,3.806780815,0.831985116,0.096059717,0.037171517,0.005062787,-53,-43,-5,29,178
1695161871818699800,-8.588001251,-1.976413488,0.306457818,-0.825234294,-0.435532928,0.083402753,-6,0,-5,16,6,-8.591592789,3.819948912,0.841561913,0.091796324,0.035972435,0.0021317,-55,-43,-9,31,178
1695161871819699800,-8.570044518,-1.989581585,0.308852017,-0.820038319,-0.435532928,0.089264929,-5,1,-6,15,7,-8.596381187,3.833117008,0.849941611,0.08726646,0.034506891,-0.00106585,-53,-39,-2,28,180
1695161871820699800,-8.549694061,-2.000355482,0.324414343,-0.814309359,-0.434866786,0.095393561,-7,0,-5,12,7,-8.598775864,3.845088005,0.857124209,0.082470134,0.032108728,-0.0042634,-51,-39,-8,31,178
1695161871821699800,-8.531737328,-2.00753808,0.338779539,-0.808447123,-0.433534473,0.101655439,-3,5,-5,12,5,-8.603564262,3.853467703,0.861912608,0.077540584,0.029843798,-0.007594181,-53,-45,-7,31,177
1695161871851679600,-9.105149269,-2.321178436,-1.033097982,-0.150950998,-0.061819296,0.103254206,-4,5,-5,13,9,-8.616731644,3.955221176,0.648828685,0.105918832,-0.059954058,0.014921899,-54,-39,-7,31,177
1695161871852679600,-9.10634613,-2.324769735,-1.036689281,-0.152949467,-0.061419602,0.097924963,-7,2,-6,13,7,-8.614337921,3.954024076,0.644040287,0.105652377,-0.059421133,0.016520673,-51,-41,-4,31,180
1695161871853679600,-9.108740807,-2.327163935,-1.034295082,-0.15481469,-0.061286367,0.092329249,-7,1,-6,12,8,-8.609549522,3.954024076,0.635660529,0.105652377,-0.058888208,0.017986218,-51,-44,-9,31,177
1695161871854679600,-9.111134529,-2.329558372,-1.034295082,-0.156546697,-0.061019909,0.086733535,-4,2,-3,13,4,-8.608352661,3.946841478,0.628477931,0.105652377,-0.058621746,0.019718224,-58,-44,-7,28,178
1695161871855679600,-9.115922928,-2.328361034,-1.039083481,-0.158545166,-0.060753446,0.080871366,-11,0,-6,16,7,-8.608352661,3.944447279,0.623689532,0.105785601,-0.05808882,0.021316998,-55,-41,-4,30,180
1695161871896675600,-9.024943352,-2.144007683,-1.168370485,-0.103254206,0.019185297,-0.066482387,-2,0,-6,14,5,-8.710105896,3.769670486,-0.348356336,-0.111114852,-0.288712084,0.155880541,-54,-41,-5,31,180
1695161871897675600,-9.024943352,-2.142810583,-1.171961784,-0.103254206,0.019451762,-0.066349156,-3,1,-5,13,7,-8.716091156,3.763684988,-0.350750536,-0.110981621,-0.292042881,0.158278719,-54,-37,-5,34,177
1695161871898675600,-9.02374649,-2.139219284,-1.173158884,-0.103254206,0.019584993,-0.066082694,-3,1,-5,13,7,-8.719682693,3.75650239,-0.359130263,-0.110981621,-0.295107216,0.160410419,-54,-43,-7,32,178
1695161871899675600,-9.028534889,-2.136825085,-1.171961784,-0.103120975,0.019718224,-0.065816231,-6,0,-6,15,7,-8.729259491,3.750516891,-0.368707061,-0.110581927,-0.29817152,0.162675351,-53,-37,-5,31,177
1695161871900675600,-9.032125473,-2.132036686,-1.171961784,-0.102721281,0.020251149,-0.065416537,-6,0,-6,13,8,-8.74003315,3.744531393,-0.377086759,-0.109915771,-0.301102608,0.164540574,-47,-40,-4,32,179
1695161871935632200,-9.069235802,-2.524685621,0.591367841,0.134163857,0.143356815,-0.225693718,-4,1,-5,13,7,-8.717288017,3.925293684,0.415394008,-0.054091886,0.069147013,0.017986218,-54,-41,-8,30,178
1695161871936632200,-9.076418877,-2.517503023,0.597353339,0.137228176,0.148286372,-0.229690656,-4,3,-4,13,11,-8.716091156,3.927687883,0.415394008,-0.055690661,0.068880551,0.016387442,-53,-40,-7,30,176
1695161871937632200,-9.085995674,-2.513911724,0.600944638,0.140292495,0.152683005,-0.233820826,-6,4,-5,13,5,-8.716091156,3.931279182,0.412999779,-0.05768913,0.069013782,0.014655436,-56,-45,-4,31,177
1695161871938632200,-9.091980934,-2.506729126,0.605733037,0.143490046,0.156946406,-0.238084227,-5,0,-5,13,5,-8.716091156,3.934870481,0.40940848,-0.060220521,0.069013782,0.012523737,-51,-40,-5,30,178
1695161871939632200,-9.095572472,-2.507926226,0.611718535,0.146421134,0.160943344,-0.242214397,-6,3,-5,13,5,-8.713697433,3.938461781,0.40821138,-0.062218986,0.069013782,0.011058193,-54,-39,-5,31,178
1695161871976607100,-9.258378029,-1.56101954,-1.684320927,-0.355993867,-0.488026023,0.221163854,-16,-2,-6,8,-1,-8.646659851,3.746925592,0.258573771,0.011457887,-0.018519141,0.017586524,-65,-53,-19,21,169
1695161871977607100,-9.235632896,-1.583764434,-1.691503525,-0.358125567,-0.480565071,0.230223581,-14,-2,-6,8,1,-8.644265175,3.748122692,0.258573771,0.009459418,-0.017986218,0.017053599,-62,-53,-19,18,166
1695161871978607100,-9.212887764,-1.613691926,-1.701080322,-0.359724343,-0.472171485,0.239283308,-14,-5,-6,8,-1,-8.641871452,3.750516891,0.260968,0.007594181,-0.017453292,0.016653905,-55,-43,-7,30,177
1695161871979607100,-9.187748909,-1.643619418,-1.702277422,-0.360790193,-0.462845296,0.247810096,-15,-1,-5,7,-1,-8.640673637,3.749319792,0.25977087,0.005995406,-0.01718683,0.016387442,-57,-44,-6,30,176
1695161871980607100,-9.161413193,-1.675941229,-1.707065821,-0.361189902,-0.452719748,0.255937219,-14,-2,-4,8,1,-8.643068314,3.748122692,0.256179571,0.004396631,-0.016920367,0.016254211,-54,-44,-7,29,178
1695161872011586100,-9.145850182,-1.874659896,-0.640448928,0.009192956,0.014388974,0.011990812,-14,-5,-9,9,3,-8.809465408,4.104858875,0.33279404,0.064750381,0.011591119,0.001732006,-56,-45,-12,26,177
1695161872012586100,-9.145850182,-1.877054095,-0.640448928,0.008127105,0.014388974,0.011990812,-11,0,-8,7,1,-8.817844391,4.151545525,0.356736064,0.065816231,0.015721286,0.000399694,-54,-44,-12,30,173
1695161872013586100,-9.145850182,-1.878251195,-0.644040287,0.007194487,0.014255743,0.011990812,-13,0,-11,8,-1,-8.823830605,4.199429989,0.379480958,0.065683,0.020384381,-0.00106585,-57,-45,-12,28,173
1695161872014586100,-9.142259598,-1.879448295,-0.645237386,0.006128637,0.014255743,0.011990812,-12,0,-7,10,-1,-8.827422142,4.249708176,0.402225882,0.064883612,0.025047474,-0.002531394,-55,-44,-11,26,171
1695161872015586100,-9.141061783,-1.883039594,-0.647631586,0.005196018,0.014522205,0.01185758,-14,-5,-9,9,-2,-8.829815865,4.302380562,0.426167905,0.062751912,0.029843798,-0.003996937,-57,-47,-9,29,176
1695161872047604200,-9.09437561,-2.038662672,-0.635660529,-0.096326187,0.011591119,-0.031176111,-2,6,-4,14,10,-8.66341877,6.016628742,0.839167714,0.0042634,0.144555897,-0.047963247,-57,-43,-9,28,174
1695161872048604200,-9.085995674,-2.039859772,-0.635660529,-0.096725874,0.011591119,-0.033574272,-1,4,-6,15,6,-8.635885239,6.138733387,0.846350312,0.009326187,0.152549773,-0.041701376,-55,-45,-9,26,171
1695161872049604200,-9.075222015,-2.037465572,-0.636857629,-0.097525269,0.011591119,-0.038104136,-1,3,-6,14,11,-8.603564262,6.259640217,0.852335811,0.016787136,0.160277188,-0.032108728,-58,-45,-12,25,178
1695161872050604200,-9.06803894,-2.036268473,-0.638054729,-0.098058186,0.011591119,-0.040369064,-5,3,-3,18,11,-8.579621315,6.391321659,0.872686505,0.02384839,0.1672052,-0.019185297,-53,-40,-15,29,177
1695161872051604200,-9.063250542,-2.041056871,-0.639251828,-0.098591112,0.011457887,-0.042900458,-2,5,-6,16,8,-8.55448246,6.520608425,0.881066203,0.029977029,0.172934145,-0.003730475,-55,-47,-12,26,178
1695161872082570100,-9.024943352,-1.984793186,-0.661996782,-0.092862174,0.016254211,-0.061686065,-1,5,-1,17,10,-8.622717857,8.299500465,0.952892303,0.04729709,0.002264931,0.733304739,-55,-47,-11,25,172
1695161872083570100,-9.026140213,-1.982398987,-0.664390981,-0.091396637,0.016920367,-0.060753446,-2,3,-4,18,10,-8.645462036,8.365341187,0.913387954,0.043166921,-0.019851454,0.776471615,-57,-44,-15,26,181
1695161872084570100,-9.028534889,-1.981201887,-0.67037648,-0.089797854,0.017986218,-0.059820827,-3,6,-3,16,9,-8.665813446,8.432378769,0.877474904,0.038903523,-0.042633995,0.819238901,-58,-43,-9,28,176
1695161872085570100,-9.030928612,-1.978807688,-0.67037648,-0.087932616,0.018918836,-0.058488514,-2,5,-3,16,11,-8.683769226,8.494627953,0.841561913,0.034640122,-0.066215925,0.86120671,-57,-44,-11,26,174
1695161872086570100,-9.036913872,-1.976413488,-0.673967779,-0.085934147,0.019984685,-0.057289433,-2,4,-3,14,8,-8.693346024,8.55448246,0.811634362,0.030909648,-0.090197548,0.902908146,-59,-45,-12,29,176
1695161872115526600,-9.06803894,-1.989581585,-0.703895271,-0.043300152,0.039036751,-0.03237519,-1,3,-3,15,10,-8.72806263,9.697713852,-0.001197101,-0.135762632,-0.373980075,1.649269581,-57,-45,-9,28,172
1695161872116526600,-9.064447403,-1.990778685,-0.696712673,-0.041301683,0.040635526,-0.031842265,-1,3,-6,20,11,-8.725667953,9.718064308,-0.053869538,-0.14908576,-0.381441027,1.695101142,-57,-43,-9,27,174
1695161872117526600,-9.06205368,-1.997961283,-0.688332975,-0.038370594,0.042367533,-0.030909648,-7,3,-1,14,8,-8.723274231,9.732429504,-0.110133275,-0.161875948,-0.388901979,1.742264867,-58,-44,-9,30,173
1695161872118526600,-9.057265282,-1.997961283,-0.688332975,-0.036238898,0.043433387,-0.030376723,-2,4,-6,15,14,-8.720879555,9.743204117,-0.16879122,-0.17506586,-0.396362931,1.790627837,-53,-42,-11,27,176
1695161872119526600,-9.056067467,-1.996764183,-0.689530075,-0.034240428,0.044632465,-0.029977029,-2,2,-3,16,9,-8.719682693,9.751583099,-0.223857865,-0.187722817,-0.403823912,1.839790225,-57,-47,-8,28,174
1695161872149531300,-9.087192535,-1.995567083,-0.666785181,-0.021716693,0.047030624,-0.028911179,-7,3,-6,18,9,-9.080010414,10.08318043,-1.304839969,-0.238350689,-0.402091891,2.627320051,-54,-48,-8,37,178
1695161872150531300,-9.084798813,-1.996764183,-0.666785181,-0.022516079,0.046364475,-0.02917764,-3,9,1,14,13,-9.091980934,10.10353088,-1.358709455,-0.229957119,-0.394764155,2.65783,-53,-44,-8,40,174
1695161872151531300,-9.085995674,-1.999158382,-0.666785181,-0.023315467,0.045698319,-0.029444104,-4,6,-4,13,10,-9.101557732,10.12627602,-1.417367458,-0.221696794,-0.387169987,2.688206673,-54,-49,-6,38,176
1695161872152531300,-9.085995674,-2.000355482,-0.663193882,-0.024248086,0.045032158,-0.029843798,-4,4,-4,18,9,-9.099164009,10.16099167,-1.497573137,-0.210372135,-0.376244992,2.729641676,-55,-43,-3,40,176
1695161872153531300,-9.088389397,-2.000355482,-0.663193882,-0.025180703,0.044499233,-0.030243492,-4,5,-3,16,9,-9.091980934,10.18493366,-1.551442742,-0.201312408,-0.366918862,2.76135087,-51,-44,-5,41,177
1695161872183511200,-9.151836395,-2.030282974,-0.699106872,-0.049961712,0.038770292,-0.043966308,-4,3,-4,14,8,-8.194155693,11.28985786,-2.037465572,-0.098591112,0.539186835,3.498918772,-55,-45,13,100,183
1695161872184511200,-9.154230118,-2.026691675,-0.701501071,-0.051826954,0.038503829,-0.045032158,-4,3,-6,15,8,-8.100781441,11.31858826,-2.036268473,-0.094727404,0.643240392,3.523433447,-59,-47,14,110,184
1695161872185511200,-9.161413193,-2.021903276,-0.70509243,-0.053692192,0.038237367,-0.04623124,-4,5,-4,14,11,-7.99064827,11.32696819,-2.059013367,-0.088065848,0.759151578,3.542885303,-56,-45,18,108,182
1695161872186511200,-9.167398453,-2.025494576,-0.712275028,-0.055690661,0.03757121,-0.047430322,-3,10,-3,13,10,-7.867346764,11.31978607,-2.075772762,-0.075542115,0.883722782,3.559272766,-58,-47,20,109,183
1695161872187511200,-9.172186852,-2.025494576,-0.713472128,-0.057555895,0.037171517,-0.048629403,-3,2,-3,15,9,-7.794323444,11.20007515,-2.226607561,-0.04729709,1.008960247,3.577525139,-59,-44,21,116,186
1695161872220467200,-9.205705643,-2.050633669,-0.731428623,-0.078606427,0.039169986,-0.064750381,-3,6,-6,15,10,-6.246472359,10.65300083,-6.244078159,0.902375162,4.365588188,3.395797729,-60,-47,101,176,233
1695161872221467200,-9.203310966,-2.050633669,-0.733822823,-0.077407345,0.040235836,-0.06461715,-1,1,1,16,3,-6.194996834,10.65898609,-6.384139061,0.925957143,4.365588188,3.377145529,-60,-45,109,177,238
1695161872222467200,-9.205705643,-2.054224968,-0.732625723,-0.076075032,0.041568145,-0.064217456,-1,9,-1,16,8,-6.167463779,10.66137981,-6.457161903,0.940745831,4.365588188,3.364088774,-60,-47,111,185,244
1695161872223467200,-9.203310966,-2.057816267,-0.726640224,-0.074476264,0.042900458,-0.063684531,-3,3,0,18,11,-6.13274765,10.66497135,-6.568492413,0.954601824,4.365588188,3.34343791,-62,-43,116,202,247
1695161872224467200,-9.199720383,-2.062604666,-0.720654726,-0.072611026,0.044366002,-0.063151613,-3,3,0,14,8,-6.118382454,10.66975975,-6.694188118,0.95726645,4.365588188,3.322920322,-64,-47,124,191,248
1695161872255446400,-9.133879662,-2.00753808,-0.639251828,-0.053692192,0.037437979,-0.050894335,-2,5,-3,16,8,-4.3921628,9.482235909,-7.404068947,-0.446990818,4.365588188,2.643174648,-59,-37,162,213,296
1695161872256446400,-9.130288124,-2.003946781,-0.639251828,-0.055557426,0.034640122,-0.050894335,-3,1,-1,16,8,-4.291606426,9.276334763,-7.450755596,-0.525863707,4.365588188,2.586951017,-59,-44,162,211,298
1695161872257446400,-9.126696587,-1.997961283,-0.635660529,-0.05768913,0.031575806,-0.051027562,-3,2,-4,20,11,-4.163516521,8.974664688,-7.499836922,-0.625920355,4.365588188,2.508477688,-56,-44,159,210,296
1695161872258446400,-9.123106003,-1.995567083,-0.638054729,-0.06008729,0.028777948,-0.05142726,-6,3,-4,18,5,-4.074931145,8.755595207,-7.509413719,-0.697598815,4.365588188,2.44812417,-57,-47,158,210,297
1695161872259446400,-9.115922928,-1.997961283,-0.640448928,-0.062751912,0.025580399,-0.051560488,-6,7,-5,13,11,-3.995922565,8.543708801,-7.514202118,-0.763548255,4.365588188,2.386571169,-55,-44,163,212,296
1695161872291449500,-9.048885345,-2.054224968,-0.699106872,-0.090197548,0.002398162,-0.03237519,-2,6,-3,13,12,-1.911770105,5.9412117,-6.117185116,-1.027879,4.365588188,1.17656517,-58,-50,163,207,297
1695161872292449500,-9.045293808,-2.056619167,-0.702698171,-0.088732004,0.002664625,-0.030509954,-2,5,-4,15,8,-1.793257117,5.857414246,-6.013037682,-1.036272645,4.365588188,1.111281753,-55,-45,162,207,292
1695161872293449500,-9.044096947,-2.056619167,-0.70628953,-0.087932616,0.002664625,-0.029310873,-4,3,-5,18,9,-1.684320927,5.773617268,-5.914875507,-1.042800903,4.365588188,1.046797872,-59,-47,163,208,292
1695161872294449500,-9.046490669,-2.061407566,-0.711077929,-0.086333841,0.002797856,-0.027445635,-1,3,-3,13,10,-1.586158633,5.698200226,-5.829881191,-1.04719758,4.365588188,0.982980072,-57,-47,159,209,293
1695161872295449500,-9.046490669,-2.063801765,-0.717063427,-0.084868304,0.002664625,-0.025846859,-2,5,-5,16,10,-1.497573137,5.626373768,-5.773617268,-1.048663139,4.365588188,0.919695258,-56,-47,161,207,292
1695161872327406400,-9.038111687,-2.072181463,-0.770932972,-0.076474734,-0.009859112,-0.018519141,-2,3,-3,17,8,-0.66917938,5.018246651,-4.000710964,-0.720514536,4.365588188,-0.116444103,-59,-49,156,201,277
1695161872328406400,-9.036913872,-2.072181463,-0.77931267,-0.07820674,-0.009859112,-0.019185297,-5,5,-3,17,13,-0.679953277,5.032611847,-3.870227098,-0.707857549,4.365588188,-0.161209792,-59,-50,155,201,277
1695161872329406400,-9.03571701,-2.069787264,-0.776918471,-0.08020521,-0.009992342,-0.019851454,-6,3,-5,19,7,-0.699106872,5.051765442,-3.748122692,-0.696133256,4.365588188,-0.205309346,-60,-51,157,201,266
1695161872330406400,-9.034520149,-2.069787264,-0.778115571,-0.08233691,-0.010125575,-0.020784073,-2,2,-5,14,7,-0.724246025,5.063736439,-3.64277792,-0.684941769,4.365588188,-0.247543648,-58,-47,155,204,272
1695161872331406400,-9.034520149,-2.067393064,-0.786495268,-0.084868304,-0.010258805,-0.021983154,-2,5,-5,19,9,-0.752976418,5.068524837,-3.537432909,-0.673617184,4.365588188,-0.287379771,-60,-52,154,197,274
1695161872364384100,-9.077615738,-2.019509077,-0.870292306,-0.162009194,-0.014788668,-0.053692192,-1,5,-5,14,9,-1.927332401,5.335478306,-0.944512546,-0.333078086,4.365588188,-0.570762634,-60,-44,143,192,263
1695161872365384100,-9.084798813,-2.024297476,-0.873883605,-0.166672289,-0.014122511,-0.055157732,-2,5,-1,19,8,-2.001552582,5.363011837,-0.833182216,-0.321753442,4.365588188,-0.579822361,-61,-43,147,191,262
1695161872366384100,-9.084798813,-2.026691675,-0.876277804,-0.171068922,-0.013323124,-0.056889739,-2,4,-4,15,12,-2.04464817,5.380968094,-0.762553215,-0.315358341,4.365588188,-0.586350679,-61,-47,149,192,267
1695161872367384100,-9.081207275,-2.024297476,-0.882263303,-0.175199077,-0.012124043,-0.058222052,-2,6,3,15,10,-2.104503393,5.409698963,-0.659602582,-0.307231247,4.365588188,-0.597275674,-60,-43,147,192,263
1695161872368384100,-9.081207275,-2.026691675,-0.887051702,-0.179462478,-0.011058193,-0.059287902,-1,17,-6,18,9,-2.15597868,5.444414616,-0.551863492,-0.301102608,4.365588188,-0.60926646,-60,-44,145,191,260
1695161872408361200,-9.052476883,-2.021903276,-0.932541549,-0.219831541,0.016387442,-0.072611026,-5,2,-5,14,8,-2.585737944,5.780799866,0.438138902,-0.356660008,3.264431715,-1.06838131,-63,-39,135,178,247
1695161872409361200,-9.048885345,-2.021903276,-0.93014735,-0.221696794,0.017453292,-0.072877489,-1,2,-3,18,8,-2.588132143,5.804741859,0.477643251,-0.354661554,3.196084023,-1.087966323,-65,-44,136,182,254
1695161872410361200,-9.047688484,-2.020706177,-0.93014735,-0.223695248,0.018519141,-0.073277183,-2,5,-2,14,9,-2.588132143,5.833472252,0.52073884,-0.35159725,3.127470255,-1.106085777,-61,-41,138,181,254
1695161872411361200,-9.046490669,-2.020706177,-0.926556051,-0.225693718,0.019718224,-0.073676877,-6,3,-1,20,7,-2.588132143,5.851428986,0.562637389,-0.347333819,3.0592556,-1.122073531,-60,-43,139,180,254
1695161872412361200,-9.042900085,-2.014720678,-0.922964752,-0.227558956,0.021050537,-0.073810108,-1,2,-2,21,9,-2.582146645,5.864596844,0.599747539,-0.341871351,2.991174698,-1.135663152,-63,-44,136,180,252
1695161872447342400,-9.046490669,-1.994369984,-0.859518409,-0.266728938,0.047430322,-0.07274425,-5,3,-4,16,8,-2.748543501,7.001842976,1.234210968,-0.158678412,1.779702902,-1.439163804,-64,-65,127,175,252
1695161872448342400,-9.052476883,-1.989581585,-0.85592711,-0.269260317,0.048229709,-0.072611026,-6,5,3,17,5,-2.730587006,7.110779285,1.261744261,-0.166539043,1.719349146,-1.452620149,-66,-69,130,175,249
1695161872449342400,-9.054870605,-1.989581585,-0.851138711,-0.271924943,0.048895866,-0.072344564,-3,5,-1,13,8,-2.710236311,7.192182064,1.302445769,-0.175998464,1.660594106,-1.4600811,-63,-69,126,175,250
1695161872450342400,-9.057265282,-1.988384485,-0.842759013,-0.274989277,0.049562022,-0.072344564,-1,1,-2,14,8,-2.698265314,7.229291916,1.347935557,-0.187456369,1.605303168,-1.459548235,-66,-78,130,174,250
1695161872451342400,-9.063250542,-1.985990286,-0.836773515,-0.277787149,0.049961712,-0.07194487,-5,5,-6,13,8,-2.668337822,7.2891469,1.350329757,-0.197448686,1.553875923,-1.447823882,-57,-93,126,176,256
1695161872489336400,-9.13866806,-1.999158382,-0.695515573,-0.328148544,0.056090351,-0.04623124,-1,0,-3,16,11,-5.345055103,9.714473724,2.096123695,0.26592955,0.517203629,0.045964777,-62,-109,126,169,248
1695161872490336400,-9.141061783,-2.003946781,-0.684741676,-0.331079632,0.055290964,-0.043966308,-2,4,-1,18,7,-5.380968094,9.777919769,2.109291792,0.238483921,0.461379766,0.052626338,-60,-108,126,174,250
1695161872491336400,-9.148244858,-2.00993228,-0.681150377,-0.333744258,0.054358348,-0.041701376,-6,5,-1,18,11,-5.379771233,9.81143856,2.122459888,0.205042884,0.405422658,0.04769678,-63,-109,124,172,250
1695161872492336400,-9.151836395,-2.015917778,-0.677559078,-0.336275637,0.053026035,-0.039169986,-7,7,-1,18,9,-5.340266705,9.812635422,2.134430885,0.16827105,0.349998444,0.033441041,-65,-110,124,170,249
1695161872493336400,-9.155426979,-2.021903276,-0.66917938,-0.338407338,0.051693719,-0.036638591,-4,6,-5,15,7,-5.254075527,9.791088104,2.148796082,0.129234299,0.295906603,0.013189893,-60,-111,126,170,248
1695161872529297700,-9.111134529,-2.182314873,-0.571017087,-0.30176878,0.021316998,0.014522205,-5,3,-5,15,9,-2.902969599,8.969876289,2.257732153,-0.045964777,-0.739166975,0.148286372,-64,-116,112,170,250
1695161872530297700,-9.114726067,-2.185906172,-0.571017087,-0.296839207,0.019584993,0.016920367,-2,5,-5,14,11,-2.950853586,8.968679428,2.270900249,-0.04276723,-0.809513032,0.183192953,-65,-115,109,164,248
1695161872531297700,-9.118317604,-2.188300371,-0.574608386,-0.291909665,0.017586524,0.019052068,-4,6,-2,19,8,-3.015496969,8.966285706,2.285265446,-0.040369064,-0.882923424,0.218499228,-61,-107,107,170,250
1695161872532297700,-9.121908188,-2.188300371,-0.577002585,-0.287113339,0.015454824,0.021050537,-2,1,-1,13,7,-3.093308687,8.965087891,2.291250944,-0.03956968,-0.959264934,0.253938764,-66,-103,109,165,247
1695161872533297700,-9.126696587,-2.189497471,-0.578199685,-0.282716691,0.013056661,0.023049004,-6,0,-4,16,8,-3.181894064,8.955511093,2.292448044,-0.040502299,-1.037471652,0.28884533,-62,-97,108,162,247
1695161872573263900,-9.194931984,-2.183511972,-0.617704034,-0.203177631,-0.028111791,0.080871366,-2,4,-3,14,10,-5.275623322,7.419631004,1.759738207,-0.011324655,-2.710056782,0.917696834,-62,-51,103,162,247
1695161872574263900,-9.192537308,-2.189497471,-0.623689532,-0.198248088,-0.029444104,0.086200617,-3,5,-6,18,7,-5.322310448,7.278373241,1.727416515,0.003996937,-2.793992281,0.961130142,-63,-51,100,159,248
1695161872575263900,-9.190143585,-2.190694571,-0.627280831,-0.192652375,-0.030376723,0.091663092,-2,9,-3,13,4,-5.364208698,7.13591814,1.689109325,0.022516079,-2.878327608,1.00602901,-61,-50,104,162,251
1695161872576263900,-9.184157372,-2.19308877,-0.627280831,-0.187189892,-0.03130934,0.097525269,-1,6,1,17,7,-5.388150692,7.036558628,1.662773132,0.036905054,-2.935350895,1.036405802,-63,-52,103,161,247
1695161872577263900,-9.179368973,-2.199074268,-0.63206923,-0.181594178,-0.031842265,0.103520676,-1,0,-4,18,11,-5.414487362,6.891709805,1.620874524,0.061552834,-3.02195096,1.083569646,-61,-51,103,164,247
1695161872625233900,-9.082404137,-2.360682964,-0.629675031,-0.084735066,-0.041568145,0.198780999,-2,1,-5,14,9,-4.598064423,5.01465559,0.063446343,0.777937174,-4.365721226,1.888819337,-61,-50,79,148,232
1695161872626233900,-9.083600998,-2.370259762,-0.63326633,-0.081271052,-0.043699846,0.200379789,-5,3,-6,15,12,-4.455609322,4.988319397,-0.050278235,0.806581914,-4.365721226,1.901076674,-63,-52,75,150,230
1695161872627233900,-9.084798813,-2.373851061,-0.634463429,-0.079139359,-0.045298621,0.201179162,-5,5,-5,15,9,-4.307168961,4.963180065,-0.160411507,0.833894312,-4.365721226,1.90840435,-61,-49,73,145,228
1695161872628233900,-9.088389397,-2.384624958,-0.639251828,-0.076474734,-0.04769678,0.201978564,-6,3,-4,19,4,-4.16231966,4.928464413,-0.272938997,0.858675361,-4.365721226,1.909736514,-69,-49,73,144,225
1695161872629233900,-9.09437561,-2.390610456,-0.638054729,-0.074076563,-0.050361406,0.202111781,-4,3,-1,16,7,-4.01747036,4.893748283,-0.395043284,0.881857574,-4.365721226,1.9052068,-66,-53,69,145,222
1695161872670209000,-9.17697525,-2.37624526,-0.78050977,-0.122705974,-0.086200617,0.114045948,-2,6,-1,16,10,-2.135627985,5.378573895,-2.695871115,0.853879035,-4.365721226,0.854811668,-61,-49,51,126,210
1695161872671209000,-9.181763649,-2.373851061,-0.788889468,-0.128301695,-0.085401222,0.106451757,-8,5,-6,16,8,-2.091335297,5.444414616,-2.768894196,0.804050565,-4.365721226,0.766479313,-61,-45,51,126,211
1695161872672209000,-9.185355186,-2.373851061,-0.798466265,-0.133897394,-0.084468603,0.098591112,-2,3,-4,15,9,-2.069787264,5.491101742,-2.82036972,0.767944872,-4.365721226,0.702261865,-62,-48,48,125,209
1695161872673209000,-9.18894577,-2.373851061,-0.808043063,-0.139093414,-0.083269522,0.090863705,-3,5,-3,19,13,-2.032677174,5.513846397,-2.917334795,0.715451777,-4.365721226,0.603271008,-63,-48,46,124,210
1695161872674209000,-9.194931984,-2.372653961,-0.808043063,-0.144289434,-0.081670754,0.083003066,-2,2,-4,20,12,-1.994369984,5.53419733,-3.01429987,0.657762647,-4.365721226,0.509476244,-60,-49,43,116,210
1695161872708187300,-9.196128845,-2.329558372,-0.933738649,-0.162941799,-0.038903523,-0.040635526,-2,3,-3,13,11,-1.619677424,5.620388508,-5.801150799,-0.395430326,-4.365721226,-1.2357198,-58,-45,35,96,206
1695161872709187300,-9.185355186,-2.318784237,-0.93014735,-0.159344569,-0.036905054,-0.044632465,-3,3,-5,13,11,-1.610100627,5.629965305,-5.866991043,-0.412617147,-4.365721226,-1.312327743,-58,-45,33,95,208
1695161872710187300,-9.175778389,-2.312798738,-0.93134445,-0.155214384,-0.035039816,-0.048229709,-6,2,-1,16,8,-1.595735431,5.641936302,-5.910087109,-0.429137826,-4.365721226,-1.386803985,-58,-45,33,95,208
1695161872711187300,-9.166201591,-2.30681324,-0.932541549,-0.150817752,-0.033307809,-0.051294025,-1,3,-5,18,9,-1.582567334,5.667075634,-5.924452305,-0.44619143,-4.365721226,-1.458881974,-60,-45,32,94,209
1695161872712187300,-9.155426979,-2.300827742,-0.93014735,-0.146154657,-0.031575806,-0.054225113,-4,5,-3,13,11,-1.583764434,5.697002888,-5.912481308,-0.464710563,-4.365721226,-1.531226635,-53,-43,35,95,208
1695161872749162800,-8.957905769,-2.073378563,-0.963666201,-0.052626338,-0.026646247,-0.060620211,-3,2,-4,19,5,-4.261679173,7.447164536,-6.53976202,-0.718649268,-4.365721226,-3.236453295,-54,-41,17,74,208
1695161872750162800,-8.954314232,-2.060210466,-0.958877802,-0.051160797,-0.027179174,-0.058888208,-7,4,-6,17,8,-4.3921628,7.492654324,-6.640318394,-0.706125557,-4.365721226,-3.339441061,-54,-45,16,72,211
1695161872751162800,-8.948328972,-2.04704237,-0.960074902,-0.050228179,-0.027578866,-0.056756508,-3,2,-3,16,9,-4.516661644,7.529764175,-6.714538574,-0.686807096,-4.365721226,-3.438831568,-58,-44,15,74,212
1695161872752162800,-8.944737434,-2.035071373,-0.9648633,-0.04969525,-0.02797856,-0.054624807,-2,5,-3,18,9,-4.619612217,7.558494568,-6.7636199,-0.664424181,-4.365721226,-3.533292532,-57,-44,17,72,208
1695161872753162800,-8.935160637,-2.020706177,-0.970848799,-0.049428791,-0.028511487,-0.052359879,-1,5,-2,16,12,-4.695029736,7.58722496,-6.776787758,-0.638444126,-4.365721226,-3.622690439,-54,-41,14,70,206
1695161872786143800,-8.890868187,-1.948880196,-1.066616893,-0.082203679,-0.023448698,-0.005329249,-5,7,-5,14,9,-6.613982201,8.966285706,-3.695450306,-0.885321558,-4.365721226,-4.365721226,-53,-44,-1,49,205
1695161872787143800,-8.907627106,-1.952471495,-1.072602391,-0.084202148,-0.023448698,-0.003730475,-3,5,-3,16,14,-6.84382534,9.097966194,-3.622427225,-0.933418036,-4.365721226,-4.365721226,-53,-38,-2,51,208
1695161872788143800,-8.925583839,-1.954865694,-1.080982089,-0.085800916,-0.023182238,-0.0021317,-2,7,-3,15,7,-7.049726963,9.217676163,-3.554192305,-0.976584971,-4.365721226,-4.365721226,-50,-43,-3,49,208
1695161872789143800,-8.941145897,-1.956062794,-1.084573388,-0.087399691,-0.022915773,-0.000799387,-3,0,-3,16,9,-7.231686115,9.329007149,-3.487154722,-1.017753482,-4.365721226,-4.365721226,-51,-39,-2,48,208
1695161872790143800,-8.956708908,-1.957259893,-1.092953086,-0.088998467,-0.022649311,0.000666156,-4,6,-5,21,12,-7.381323814,9.411606789,-3.422511339,-1.058122516,-4.365721226,-4.365721226,-51,-41,-2,47,207
1695161872825143800,-9.064447403,-2.037465572,-1.191115379,-0.090597242,0.01825268,0.018918836,-2,6,0,17,9,-8.506598473,7.20894146,-0.568622887,-0.642307758,-2.047497749,-4.365721226,-51,-41,-28,31,201
1695161872826143800,-9.06205368,-2.04464817,-1.193509579,-0.088465542,0.023315467,0.018918836,-4,5,-1,16,11,-8.698134422,7.133523941,-0.459686726,-0.573560476,-1.892949462,-4.365721226,-51,-41,-28,28,202
1695161872827143800,-9.063250542,-2.04704237,-1.193509579,-0.086333841,0.028644716,0.018652374,-1,2,-3,18,11,-8.904036522,7.086836815,-0.359130263,-0.506944835,-1.742398143,-4.365721226,-49,-41,-27,24,201
1695161872828143800,-9.069235802,-2.054224968,-1.199495077,-0.084068909,0.033840735,0.018385911,-1,9,0,20,14,-9.133879662,7.02937603,-0.271741897,-0.438996941,-1.595977068,-4.365721226,-50,-42,-28,24,202
1695161872829143800,-9.071630478,-2.057816267,-1.197100878,-0.081537522,0.039169986,0.018119449,-3,2,-1,18,8,-9.387664795,6.986280441,-0.169988319,-0.366918862,-1.454618692,-4.365721226,-47,-37,-29,25,201
1695161872864121400,-9.172186852,-2.110488892,-0.992396593,-0.011990812,0.085534461,0.006528331,-1,5,-2,18,13,-13.59786892,6.619967937,1.826775908,1.01642108,0.388369083,-4.365721226,-56,-38,-39,9,200
1695161872865121400,-9.169792175,-2.118868589,-0.975637197,-0.005595712,0.083935678,0.006261868,-1,6,-1,17,-7,-13.7439146,6.627150536,1.89620769,1.080238938,0.450454831,-4.365721226,-54,-37,-35,9,204
1695161872866121400,-9.166201591,-2.124854088,-0.955286503,0.000932619,0.081937209,0.005995406,-1,5,-3,18,9,-13.83968258,6.639121532,1.941697598,1.121940255,0.490557432,-4.365721226,-58,-40,-36,5,200
1695161872867121400,-9.162610054,-2.128445387,-0.934935749,0.008127105,0.08020521,0.005995406,-1,5,-2,16,9,-13.98572922,6.666654587,1.999158382,1.182027578,0.548379779,-4.365721226,-54,-40,-40,8,201
1695161872868121400,-9.156624794,-2.135627985,-0.919373453,0.015454824,0.078339972,0.005995406,-1,10,-2,16,13,-14.12938118,6.698976517,2.038662672,1.239050508,0.601938725,-4.365721226,-54,-38,-37,4,202
1695161872908087600,-9.118317604,-2.097320795,-0.695515573,0.140425727,0.102188364,0.056356817,-1,4,3,18,12,-14.85123348,8.255207062,1.586158633,1.771309257,0.941944897,-3.731806993,-59,-35,-39,6,198
1695161872909087600,-9.127894402,-2.098517895,-0.681150377,0.143356815,0.105119444,0.060353752,-1,9,-2,16,9,-14.74708557,8.348581314,1.503558636,1.75931859,0.92609036,-3.659862041,-57,-35,-38,9,199
1695161872910087600,-9.137471199,-2.094926596,-0.665588081,0.146154657,0.10778407,0.064217456,-2,1,-3,15,11,-14.63336086,8.443152428,1.423352957,1.741998434,0.908237338,-3.584053755,-54,-36,-40,10,198
1695161872911087600,-9.143456459,-2.096123695,-0.656011283,0.147753447,0.109116383,0.066882081,-2,5,-5,17,9,-14.50766563,8.544905663,1.351526856,1.718283296,0.888519168,-3.504647732,-57,-34,-37,6,198
1695161872912087600,-9.15063858,-2.096123695,-0.635660529,0.149885148,0.110581927,0.070079632,-1,9,-4,16,8,-14.37239265,8.646659851,1.277306557,1.685774803,0.866269529,-3.421245098,-57,-35,-41,7,199
1695161872948051700,-9.343372345,-2.23139596,-0.475249052,0.179595709,0.038770292,0.07274425,-3,3,0,15,12,-10.79784966,8.140285492,0.788889468,0.595143914,0.761416554,-1.146721363,-57,-37,-37,12,194
1695161872949051700,-9.346963882,-2.233790159,-0.468066424,0.178929552,0.032241959,0.068747319,-1,3,-4,17,9,-10.65180302,7.995436668,0.784101069,0.540918827,0.780335367,-1.009493113,-57,-36,-37,12,194
1695161872950051700,-9.344569206,-2.23019886,-0.470460624,0.177730486,0.026246555,0.064350687,-4,5,-3,14,11,-10.51533413,7.846996307,0.77931267,0.489091903,0.801252663,-0.873330772,-55,-38,-34,15,189
1695161872951051700,-9.345766068,-2.22900176,-0.470460624,0.175998464,0.020117918,0.059954058,-3,7,-1,18,12,-10.39083576,7.69017601,0.763750315,0.44046247,0.823369026,-0.738101065,-58,-35,-35,14,193
1695161872952051700,-9.343372345,-2.223016262,-0.472854823,0.17346707,0.014388974,0.055157732,-3,6,-1,16,12,-10.26753426,7.522581577,0.750582218,0.398494661,0.847350657,-0.603937209,-57,-36,-35,12,236
1695161872984045900,-9.236829758,-2.067393064,-0.621295333,0.05595712,-0.042234302,-0.045431852,-4,7,-3,14,9,-9.595960617,5.42765522,0.489614248,0.294840723,1.17230165,1.185891271,-60,-41,-32,21,194
1695161872985045900,-9.22725296,-2.060210466,-0.63326633,0.049295556,-0.043166921,-0.049828485,-2,0,0,18,11,-9.58039856,5.384559631,0.48362875,0.316557437,1.169637084,1.21959877,-57,-37,-34,21,189
1695161872986045900,-9.214085579,-2.055422068,-0.646434486,0.043300152,-0.043699846,-0.053825419,-1,5,-3,16,9,-9.564835548,5.343858242,0.487220049,0.339606434,1.163908005,1.247444034,-54,-35,-33,18,190
1695161872987045900,-9.204508781,-2.051830769,-0.658405483,0.037837673,-0.044099543,-0.057289433,-3,5,-1,16,13,-9.55406189,5.313930511,0.486022949,0.362255752,1.155381322,1.268894434,-56,-37,-31,21,192
1695161872988045900,-9.191340446,-2.049436569,-0.671573579,0.033307809,-0.044232771,-0.060353752,-3,9,-6,14,9,-9.545681953,5.284003258,0.474051923,0.385837674,1.144056678,1.284082651,-55,-36,-34,21,189
1695161873027008100,-9.005789757,-2.053027868,-0.843956113,0.129767224,-0.03011026,-0.024114855,-3,5,-4,22,11,-9.120711327,5.15950489,0.458489627,0.581820786,0.516670763,0.929421127,-55,-35,-31,23,186
1695161873028008100,-8.992621422,-2.049436569,-0.842759013,0.144689128,-0.028777948,-0.016653905,-1,9,0,18,10,-9.095572472,5.16549015,0.459686726,0.567431867,0.472571194,0.899843752,-54,-36,-29,29,189
1695161873029008100,-8.981847763,-2.04584527,-0.845153213,0.160143942,-0.027712099,-0.008926493,-4,7,-3,18,5,-9.075222015,5.16788435,0.464475125,0.550111771,0.428738147,0.870932639,-55,-35,-34,26,189
1695161873030008100,-8.972270966,-2.043451071,-0.851138711,0.176264927,-0.026379786,-0.000666156,-5,3,-4,18,8,-9.06205368,5.172672749,0.470460624,0.536788702,0.399693698,0.852413476,-55,-39,-32,26,188
1695161873031008100,-8.962694168,-2.037465572,-0.85353291,0.19784838,-0.024914242,0.010924961,-1,10,-1,16,9,-9.044096947,5.181052685,0.472854823,0.514539063,0.356526792,0.824967802,-55,-37,-31,28,188
1695161873065985900,-8.912415504,-1.962048292,-0.902614057,0.442061275,-0.004529862,0.184258804,-1,9,-1,20,9,-8.799888611,4.935647011,0.253785372,-0.092862174,-0.224094957,0.591679931,-55,-36,-29,30,186
1695161873066985900,-8.919598579,-1.966836691,-0.895431459,0.449921876,-0.003064318,0.191852987,-1,17,0,17,9,-8.795100212,4.90571928,0.237025961,-0.122972436,-0.240349159,0.593678415,-49,-37,-33,29,184
1695161873067985900,-8.929175377,-1.972822189,-0.889445961,0.457249612,-0.001865237,0.199047476,-2,7,-1,20,9,-8.791508675,4.879383087,0.22146365,-0.151750386,-0.254738122,0.596875966,-53,-36,-29,26,186
1695161873068985900,-8.936357498,-1.975216389,-0.888248801,0.464044392,-0.000799387,0.20570904,-1,8,-3,18,7,-8.787917137,4.848258495,0.207098454,-0.179196015,-0.267661542,0.60100615,-54,-34,-31,26,188
1695161873069985900,-8.945934296,-1.983596087,-0.885854602,0.470173031,0.000266462,0.21197091,-1,3,0,14,8,-8.783128738,4.815936565,0.193930343,-0.205442563,-0.278852999,0.606202185,-55,-36,-32,30,185
1695161873114957100,-9.162610054,-2.127248287,-0.870292306,0.488692194,0.002398162,0.219698325,-4,3,-4,15,9,-8.864531517,4.135983467,0.10175357,-0.386637062,-0.219431862,0.802718222,-54,-37,-31,28,186
1695161873115957100,-9.17098999,-2.134430885,-0.875080705,0.484695256,0.0021317,0.213836133,-3,5,-3,15,11,-8.868123055,4.104858875,0.105344877,-0.380508423,-0.206108719,0.813643157,-54,-34,-25,30,185
1695161873116957100,-9.178172112,-2.140416384,-0.875080705,0.480431855,0.001998469,0.207174569,-2,2,-4,17,7,-8.872911453,4.073734283,0.107739076,-0.373047471,-0.192385912,0.82430166,-58,-39,-25,29,185
1695161873117957100,-9.184157372,-2.147598982,-0.872686505,0.475768775,0.001998469,0.200113311,-3,6,-5,16,9,-8.881291389,4.043806553,0.111330383,-0.364653885,-0.178263396,0.834560513,-54,-36,-24,31,186
1695161873118957100,-9.191340446,-2.15358448,-0.872686505,0.470839173,0.002398162,0.192119434,-4,5,-5,13,7,-8.889671326,4.0090909,0.116118781,-0.355327696,-0.163874418,0.844286382,-53,-35,-27,31,186
1695161873171922800,-9.263166428,-2.151190281,-0.840364814,0.349332303,0.044499233,-0.008127105,-3,7,0,18,9,-8.887276649,3.592499733,0.299275219,-0.086999997,0.050494641,0.954335392,-56,-34,-25,31,185
1695161873172922800,-9.266757965,-2.148796082,-0.837970614,0.342670739,0.047563553,-0.019984685,-2,6,-6,14,8,-8.875306129,3.584120035,0.308852017,-0.075142421,0.056623276,0.956067383,-50,-39,-21,31,185
1695161873173922800,-9.266757965,-2.149993181,-0.834379315,0.336009204,0.050627869,-0.031442571,-5,7,1,15,12,-8.865729332,3.573346138,0.320823014,-0.064217456,0.062085759,0.957399666,-54,-35,-23,31,185
1695161873174922800,-9.267954826,-2.146401882,-0.828393817,0.329480857,0.053292494,-0.04276723,-1,4,-2,20,9,-8.85495472,3.569754839,0.336385339,-0.054491576,0.067015313,0.958065867,-55,-39,-23,31,185
1695161873175922800,-9.270348549,-2.135627985,-0.830788016,0.323085755,0.05595712,-0.053825419,-1,7,0,16,11,-8.844181061,3.56616354,0.347159237,-0.046098009,0.071545176,0.958465517,-50,-41,-23,30,186
1695161873217896500,-9.196128845,-1.959654093,-0.741005421,0.243546709,0.075275652,-0.211704448,-4,2,-3,13,8,-8.66940403,3.499125719,0.511162043,-0.104586519,0.125770286,0.853879035,-52,-35,-23,29,183
1695161873218896500,-9.187748909,-1.944091797,-0.737414122,0.239549771,0.075542115,-0.217300147,-2,4,-3,16,8,-8.665813446,3.491943121,0.518344641,-0.114179172,0.128168449,0.842687607,-54,-37,-20,32,184
1695161873219896500,-9.179368973,-1.9321208,-0.733822823,0.235552832,0.075808577,-0.22236295,-5,5,-1,14,12,-8.659827232,3.485957623,0.517147541,-0.123505361,0.130566612,0.830830038,-51,-34,-24,31,185
1695161873220896500,-9.17098999,-1.920149803,-0.733822823,0.231422648,0.076208271,-0.227292493,-1,3,1,14,8,-8.65144825,3.481169224,0.527921498,-0.132964775,0.133364469,0.818306327,-50,-36,-23,31,183
1695161873221896500,-9.161413193,-1.908178806,-0.733822823,0.227292493,0.076474734,-0.231822357,-1,4,-3,16,11,-8.643068314,3.477577925,0.533906996,-0.139226645,0.134963244,0.809912682,-55,-36,-23,31,183
1695161873262873100,-9.011775017,-1.702277422,-0.754173517,0.15481469,0.080738127,-0.262998462,-1,9,2,19,8,-8.579621315,3.321954966,0.537498295,-0.222096488,0.161609486,0.520534456,-51,-37,-20,32,185
1695161873263873100,-9.001001358,-1.691503525,-0.751779318,0.151883617,0.081004597,-0.261799395,-2,4,-1,18,7,-8.579621315,3.317166567,0.535104096,-0.222229704,0.159744263,0.505479336,-51,-34,-24,32,186
1695161873264873100,-8.996212959,-1.680729628,-0.752976418,0.148952529,0.081271052,-0.260333836,-5,6,-3,15,7,-8.579621315,3.313575268,0.535104096,-0.222096488,0.157479316,0.490690649,-54,-37,-24,31,184
1695161873265873100,-8.990227699,-1.67234993,-0.755370617,0.146421134,0.081537522,-0.258601815,-3,7,-3,15,11,-8.579621315,3.306392431,0.526724398,-0.221563548,0.154681474,0.476035208,-50,-34,-19,31,188
1695161873266873100,-8.987833023,-1.662773132,-0.756567717,0.144156188,0.08207044,-0.256470144,-3,3,-2,15,9,-8.577227592,3.302801132,0.525527298,-0.220630929,0.151750386,0.461513042,-53,-35,-21,31,185
1695161873320837700,-8.974664688,-1.581370234,-0.755370617,0.123505361,0.085667685,-0.179462478,-3,6,-2,15,7,-8.495824814,3.254917145,0.517147541,-0.140558958,0.062885143,0.219165385,-50,-34,-19,33,187
1695161873321837700,-8.975862503,-1.574187636,-0.749385118,0.122839205,0.085267991,-0.173999995,-1,6,-3,16,8,-8.489839554,3.258508444,0.523133099,-0.134297088,0.05808882,0.207307816,-53,-35,-17,30,184
1695161873322837700,-8.975862503,-1.568202138,-0.750582218,0.122173049,0.08513476,-0.168537512,-1,0,-1,15,6,-8.487444878,3.260902643,0.530315697,-0.128035218,0.053425729,0.195317,-53,-37,-19,31,184
1695161873323837700,-8.975862503,-1.568202138,-0.750582218,0.121640123,0.084735066,-0.163075045,-1,7,-5,16,11,-8.482656479,3.263296843,0.530315697,-0.121906579,0.049029093,0.183459431,-51,-36,-20,32,185
1695161873324837700,-8.977059364,-1.567005038,-0.746990919,0.120707504,0.084601834,-0.157612562,-2,5,-3,17,8,-8.475474358,3.265691042,0.529118598,-0.115511484,0.044765696,0.171735078,-51,-40,-19,33,186
1695161873364813400,-9.071630478,-1.546654344,-0.70628953,0.060353752,0.070745789,-0.080071971,-6,6,-4,15,8,-8.431180954,3.388992548,0.525527298,-0.013722817,-0.005462481,-0.04516539,-53,-38,-27,33,186
1695161873365813400,-9.078812599,-1.551442742,-0.701501071,0.053958651,0.069413476,-0.07794027,-1,6,-3,15,11,-8.429984093,3.399766445,0.527921498,-0.009059724,-0.007594181,-0.05595712,-51,-37,-19,34,183
1695161873366813400,-9.087192535,-1.552639842,-0.699106872,0.04729709,0.068081163,-0.075542115,-1,9,-3,18,8,-8.426392555,3.410540342,0.525527298,-0.004663093,-0.009725881,-0.066482387,-54,-37,-22,31,185
1695161873367813400,-9.09437561,-1.550245643,-0.695515573,0.040369064,0.066882081,-0.073410407,-1,5,-5,17,10,-8.42759037,3.42011714,0.524330199,-0.000266462,-0.011591119,-0.077007659,-51,-36,-21,31,185
1695161873368813400,-9.095572472,-1.553836942,-0.699106872,0.033707503,0.065549769,-0.071545176,-1,7,-3,18,13,-8.426392555,3.430891037,0.51954174,0.0042634,-0.013722817,-0.087399691,-53,-36,-21,31,183
1695161873421779300,-9.118317604,-1.63763392,-0.618901134,-0.073143952,0.064350687,-0.04516539,-1,5,-1,15,11,-8.503006935,3.701435804,0.48243165,0.066082694,-0.019185297,-0.26592955,-54,-34,-21,32,184
1695161873422779300,-9.120711327,-1.640028119,-0.615309834,-0.07794027,0.063950993,-0.044099543,-3,3,3,17,10,-8.500613213,3.720589399,0.480037451,0.067148544,-0.017320061,-0.274056673,-50,-37,-23,31,185
1695161873423779300,-9.126696587,-1.643619418,-0.606930137,-0.083003066,0.063284837,-0.043433387,-6,5,-3,16,11,-8.500613213,3.742137194,0.48362875,0.068081163,-0.014921899,-0.282450229,-50,-37,-21,31,184
1695161873424779300,-9.129091263,-1.646013618,-0.604535937,-0.087932616,0.062485453,-0.042633995,-3,7,0,18,11,-8.501810074,3.758896589,0.48362875,0.068747319,-0.012523737,-0.290577352,-53,-38,-21,31,185
1695161873425779300,-9.133879662,-1.646013618,-0.59495914,-0.092995405,0.06115314,-0.041834611,-1,5,-1,15,11,-8.50420475,3.780444384,0.48482585,0.069280244,-0.009992342,-0.298571229,-55,-36,-23,33,184
1695161873466753100,-9.192537308,-1.704671621,-0.517147541,-0.169603363,0.01718683,-0.011324655,-1,5,-1,18,11,-8.420407295,4.097676277,0.48123455,0.051294025,0.040235836,-0.395563543,-54,-40,-19,31,183
1695161873467753100,-9.198522568,-1.71065712,-0.518344641,-0.171601832,0.014522205,-0.008127105,-3,5,-5,22,12,-8.418013573,4.112041473,0.488417149,0.049562022,0.042367533,-0.397561997,-55,-37,-24,31,183
1695161873468753100,-9.204508781,-1.716642618,-0.52073884,-0.173067391,0.011990812,-0.004663093,-1,0,-4,20,10,-8.419210434,4.12401247,0.493205547,0.047563553,0.044499233,-0.399294019,-53,-40,-23,32,187
1695161873469753100,-9.211690903,-1.721431017,-0.525527298,-0.174266458,0.009459418,-0.00106585,-4,5,1,18,13,-8.421604156,4.135983467,0.502782345,0.046098009,0.046497703,-0.400759578,-49,-35,-24,31,185
1695161873470753100,-9.218873978,-1.725022316,-0.524330199,-0.175199077,0.006928025,0.002664625,-1,9,-3,16,10,-8.425195694,4.147954464,0.503979445,0.044366002,0.048362937,-0.401825428,-51,-36,-20,31,184
1695161873512727600,-9.24760437,-1.784877419,-0.529118598,-0.195716694,-0.041301683,0.074076563,-1,9,-4,18,12,-8.505401611,4.345476151,0.526724398,0.01185758,0.059820827,-0.380908102,-51,-37,-23,31,183
1695161873513727600,-9.239224434,-1.788468719,-0.527921498,-0.199047476,-0.044366002,0.077007659,-2,7,0,21,8,-8.505401611,4.351461411,0.529118598,0.011058193,0.059687596,-0.378909618,-53,-37,-24,31,184
1695161873514727600,-9.235632896,-1.793257117,-0.524330199,-0.202511474,-0.047563553,0.07993874,-2,10,-1,19,9,-8.508993149,4.355052948,0.525527298,0.010392036,0.059554365,-0.375712097,-51,-35,-21,31,184
1695161873515727600,-9.226056099,-1.796848416,-0.523133099,-0.206108719,-0.050627869,0.082736596,-3,7,-1,18,10,-8.511386871,4.361038208,0.527921498,0.009592649,0.059421133,-0.37238133,-50,-35,-19,31,183
1695161873516727600,-9.21528244,-1.802833915,-0.524330199,-0.209839195,-0.053692192,0.085534461,-2,6,-1,17,8,-8.513781548,4.369418144,0.526724398,0.008926493,0.059421133,-0.369183779,-55,-39,-23,32,184
1695161873589685000,-9.142259598,-1.911770105,-0.59495914,-0.251540571,-0.116710559,0.112047479,-1,7,-3,15,9,-8.546102524,4.474762917,0.495599747,0.023715161,0.048629403,-0.26592955,-50,-38,-21,31,185
1695161873590685000,-9.141061783,-1.918952703,-0.599747539,-0.252606452,-0.119641654,0.113513015,-2,9,-5,16,9,-8.550890923,4.479551315,0.494402647,0.025047474,0.047830015,-0.259267986,-54,-36,-19,31,185
1695161873591685000,-9.135076523,-1.920149803,-0.603338838,-0.253805518,-0.122439511,0.114845328,-2,2,-1,19,10,-8.553285599,4.485537052,0.487220049,0.026379786,0.047030624,-0.252206743,-53,-36,-20,31,183
1695161873592685000,-9.1326828,-1.922544003,-0.608127236,-0.254604906,-0.125104129,0.116310872,-5,3,-4,16,13,-8.555679321,4.491522312,0.486022949,0.027179174,0.046764165,-0.247676879,-49,-37,-20,32,185
1695161873593685000,-9.127894402,-1.926135302,-0.617704034,-0.255404294,-0.127635539,0.117643185,-3,5,-5,18,11,-8.56046772,4.49870491,0.48482585,0.02797856,0.046098009,-0.240615621,-55,-38,-19,32,183
1695161873643650700,-9.101557732,-1.956062794,-0.741005421,-0.280851454,-0.159078106,0.141358346,-3,2,-3,22,8,-8.559270859,4.568136692,0.439336002,-0.006661562,0.045831546,-0.104852989,-53,-34,-21,31,183
1695161873644650700,-9.101557732,-1.960851192,-0.751779318,-0.282716691,-0.160277188,0.141491577,-1,2,-5,20,9,-8.559270859,4.562151432,0.436941803,-0.009725881,0.045964777,-0.0976585,-55,-39,-21,31,184
1695161873645650700,-9.101557732,-1.962048292,-0.757764816,-0.284581929,-0.161476254,0.14175804,-2,2,-1,18,7,-8.558073997,4.557363033,0.433350503,-0.012390506,0.046098009,-0.090464011,-50,-41,-18,32,184
1695161873646650700,-9.101557732,-1.968033791,-0.764947414,-0.286580414,-0.162542105,0.141891271,-1,6,-3,17,9,-8.556877136,4.553771496,0.429759204,-0.014255743,0.045964777,-0.085934147,-51,-37,-18,32,184
1695161873647650700,-9.10036087,-1.96923089,-0.772130072,-0.288445652,-0.163607955,0.14175804,-1,6,0,18,8,-8.556877136,4.550180435,0.426167905,-0.016787136,0.045698319,-0.079006128,-51,-34,-21,32,186
1695161873721898400,-9.11233139,-2.04584527,-0.89064306,-0.313493103,-0.166805506,0.13243185,-1,9,-2,17,11,-8.549694061,4.473566055,0.354341865,-0.054225113,0.04276723,0.02904441,-51,-35,-20,31,186
1695161873722898400,-9.113529205,-2.051830769,-0.900219858,-0.313493103,-0.166006133,0.131765693,-1,7,-3,16,7,-8.546102524,4.471171856,0.357933164,-0.057555895,0.043833077,0.033041347,-77,-36,-17,31,187
1695161873723898400,-9.113529205,-2.061407566,-0.906205356,-0.313626319,-0.165339977,0.130833074,-2,2,-3,18,10,-8.547300339,4.463989258,0.360327363,-0.061019909,0.044898927,0.036771823,-54,-37,-19,32,185
1695161873724898400,-9.115922928,-2.062604666,-0.913387954,-0.313493103,-0.164407358,0.130033687,-6,3,-4,16,12,-8.546102524,4.46039772,0.355538964,-0.065016843,0.04623124,0.040369064,-55,-35,-19,31,184
1695161873725898400,-9.119514465,-2.070984364,-0.919373453,-0.31322667,-0.163341507,0.128967836,-4,9,-3,14,11,-8.538920403,4.458003521,0.353144765,-0.069413476,0.047563553,0.043833077,-49,-39,-21,31,184
1695161873814560200,-9.137471199,-2.148796082,-1.034295082,-0.324018389,-0.136695251,0.093661562,-3,6,-4,14,8,-8.576030731,4.60764122,0.234631762,-0.124704443,0.082603365,0.077807046,-53,-34,-19,32,184
1695161873815560200,-9.149441719,-2.163161278,-1.04147768,-0.324418068,-0.136295557,0.091796324,-2,6,-1,18,8,-8.58680439,4.656722069,0.20590134,-0.120574266,0.086467072,0.07794027,-51,-34,-21,33,185
1695161873816560200,-9.159018517,-2.178723574,-1.045069098,-0.324418068,-0.136961713,0.090197548,-2,7,-1,16,8,-8.595184326,4.683058739,0.191536129,-0.117909648,0.08833231,0.077807046,-51,-40,-19,48,185
1695161873817560200,-9.167398453,-2.199074268,-1.048660398,-0.324151605,-0.138160795,0.088465542,-1,5,-4,20,11,-8.609549522,4.727351189,0.164002821,-0.112580396,0.091263399,0.07714089,-51,-34,-19,31,185
1695161873818560200,-9.17697525,-2.221819162,-1.051054597,-0.323218971,-0.139892802,0.086467072,-4,7,-4,16,9,-8.628703117,4.776432514,0.135272399,-0.106052071,0.093928024,0.076474734,-51,-35,-20,32,184
1695161873990597300,-9.135076523,-2.41574955,-0.933738649,-0.170402765,-0.156280249,0.022116385,-3,3,-1,16,11,-8.904036522,7.28316164,-0.381875157,0.219032168,0.050894335,0.122839205,-51,-44,-21,34,185
1695161873991597300,-9.127894402,-2.394201756,-0.934935749,-0.166006133,-0.151750386,0.016787136,-3,6,-2,17,9,-8.893261909,7.400477409,-0.386663586,0.22489433,0.04769678,0.136961713,-53,-35,-20,32,185
1695161873992597300,-9.123106003,-2.37624526,-0.939724147,-0.163474724,-0.14695406,0.011058193,-2,3,-3,16,7,-8.875306129,7.577648163,-0.401028782,0.231822357,0.043166921,0.161476254,-54,-36,-23,30,183
1695161873993597300,-9.123106003,-2.360682964,-0.940921247,-0.162009194,-0.142157733,0.005329249,-1,9,-1,18,7,-8.857349396,7.750030994,-0.417788208,0.236485451,0.038370594,0.18905513,-56,-38,-20,30,184
1695161873994597300,-9.124302864,-2.343923569,-0.938527048,-0.162142411,-0.13762787,0.0,-4,5,-3,22,11,-8.838195801,7.916428089,-0.433350503,0.238617152,0.032908116,0.220231235,-50,-35,-19,32,187
1695161874098556600,-9.099164009,-2.299630642,-0.725443125,-0.282583475,-0.059954058,-0.095393561,-2,5,-1,19,8,-8.511386871,9.405621529,-0.939724147,0.023049004,-0.115911178,1.376411915,-54,-35,-19,34,184
1695161874099556600,-9.105149269,-2.302024841,-0.721851826,-0.287379771,-0.059820827,-0.100589581,-4,3,-6,19,10,-8.517372131,9.423578262,-0.957680702,0.01185758,-0.117376715,1.443027616,-54,-38,-19,32,183
1695161874100556600,-9.113529205,-2.30801034,-0.708683729,-0.291509956,-0.060753446,-0.105652377,-4,6,-5,19,10,-8.520963669,9.435548782,-0.969651699,0.004796324,-0.117509954,1.486327767,-57,-39,-19,31,186
1695161874101556600,-9.120711327,-2.313995838,-0.699106872,-0.29497394,-0.061819296,-0.110448696,-5,3,-2,16,9,-8.526948929,9.449913979,-0.980425596,-0.004929556,-0.116444103,1.549212813,-50,-36,-23,32,185
1695161874102556600,-9.127894402,-2.319981337,-0.685938776,-0.297638565,-0.063817769,-0.115378261,-2,1,-6,14,11,-8.534132004,9.461885452,-0.991199493,-0.01385605,-0.114045948,1.609699726,-51,-37,-20,37,183
1695161874137534200,-9.113529205,-2.187103271,-0.532709897,-0.312960178,-0.084868304,-0.172934145,-3,7,-4,15,10,-8.807070732,9.659406662,-1.641225219,0.055157732,0.063950993,2.402425528,-50,-34,-16,38,186
1695161874138534200,-9.107542992,-2.171540976,-0.523133099,-0.316957116,-0.082470134,-0.175199077,-2,3,-6,13,11,-8.793902397,9.703699112,-1.680729628,0.063684531,0.080738127,2.443593979,-49,-36,-17,34,186
1695161874139534200,-9.10036087,-2.15597868,-0.513556242,-0.32148698,-0.08020521,-0.177464008,-2,3,-4,18,9,-8.777143478,9.757569313,-1.721431017,0.070612557,0.099656969,2.487027645,-51,-40,-19,34,186
1695161874140534200,-9.09437561,-2.145204782,-0.509964943,-0.326683015,-0.078339972,-0.179862171,-1,8,0,14,11,-8.757989883,9.819818497,-1.763329506,0.075675346,0.121373661,2.532725811,-49,-37,-16,34,184
1695161874141534200,-9.087192535,-2.134430885,-0.507570744,-0.332545161,-0.076208271,-0.182260334,-4,6,-3,17,12,-8.731653214,9.885659218,-1.807622313,0.078073502,0.145888209,2.580555916,-46,-35,-16,38,186
1695161874173489000,-8.921992302,-2.177526474,-0.264559299,-0.394764155,-0.078339972,-0.191852987,-1,3,-3,18,14,-8.664615631,11.10789871,-3.106476784,-0.270992339,1.224794865,3.604304552,-50,-37,-2,95,202
1695161874174489000,-8.912415504,-2.182314873,-0.244208574,-0.391833097,-0.080471672,-0.190387443,-4,3,-6,18,13,-8.638279915,11.10909557,-3.11964488,-0.275788665,1.302335382,3.644007444,-49,-35,1,102,209
1695161874175489000,-8.907627106,-2.188300371,-0.225054964,-0.388235807,-0.082869835,-0.189188361,-1,6,-4,20,12,-8.596381187,11.14860058,-3.137601376,-0.278186828,1.387736559,3.677448511,-51,-34,4,111,214
1695161874176489000,-8.905233383,-2.190694571,-0.210689753,-0.383972436,-0.085401222,-0.18798928,0,4,0,16,13,-8.553285599,11.16176796,-3.183091164,-0.282983154,1.479133248,3.70502758,-48,-35,8,114,212
1695161874177489000,-8.898050308,-2.196680069,-0.196324542,-0.379442573,-0.087932616,-0.186523736,-3,6,-3,16,9,-8.493430138,11.1701479,-3.263296843,-0.285248101,1.576658487,3.73047471,-52,-37,12,120,216
1695161874212467600,-8.950722694,-2.184709072,-0.06584055,-0.294441044,-0.181327716,-0.176797852,-3,3,-5,16,11,-6.550535679,10.8612957,-7.065289021,0.7131868,4.365588188,3.785898924,-59,-35,79,170,278
1695161874213467600,-8.961497307,-2.188300371,-0.05865794,-0.290843785,-0.189588055,-0.177996933,-1,3,-3,18,11,-6.473921299,10.82298851,-7.240066051,0.799787164,4.365588188,3.758586645,-58,-36,87,173,279
1695161874214467600,-8.973467827,-2.188300371,-0.053869538,-0.287246555,-0.19784838,-0.179329246,-3,3,-12,14,11,-6.379350662,10.79784966,-7.386112213,0.878526747,4.365588188,3.727676868,-60,-39,89,173,281
1695161874215467600,-8.985439301,-2.185906172,-0.049081136,-0.282849908,-0.208506882,-0.181194484,-2,4,-3,15,11,-6.264428616,10.74278259,-7.550115108,0.961529851,4.365588188,3.697566748,-55,-37,94,173,281
1695161874216467600,-8.992621422,-2.188300371,-0.046686932,-0.280851454,-0.213702917,-0.182260334,-1,2,-1,14,9,-6.16506958,10.70327854,-7.697358608,1.045332313,4.365588188,3.667855978,-59,-35,96,172,283
1695161874246448800,-9.417592049,-2.102109194,-0.039504327,-0.334810108,-0.337075025,-0.242214397,-4,5,-3,18,9,-4.876988888,9.872490883,-9.197325706,0.460846871,4.365588188,2.623856068,-57,-36,155,193,299
1695161874247448800,-9.434351921,-2.111685991,-0.026336219,-0.343203664,-0.342004567,-0.244346097,-2,5,-4,13,11,-4.801571369,9.703699112,-9.154230118,0.359724343,4.365588188,2.547381163,-60,-39,155,197,296
1695161874248448800,-9.460687637,-2.105700493,-0.008379706,-0.354395092,-0.346667677,-0.245545179,-4,3,-6,16,13,-4.714183331,9.52173996,-9.080010414,0.261399686,4.365588188,2.469174623,-60,-37,158,197,297
1695161874249448800,-9.48941803,-2.114080191,-0.004788403,-0.360124022,-0.348666131,-0.248875946,-4,5,-4,17,9,-4.624400616,9.312247276,-8.998606682,0.165872887,4.365588188,2.389502287,-59,-38,158,197,300
1695161874250448800,-9.501389503,-2.11527729,-0.003591303,-0.364787132,-0.349998444,-0.250741184,-7,5,-3,16,9,-4.522646904,9.075222015,-8.910021782,0.076741189,4.365588188,2.310762644,-60,-37,157,200,300
1695161874283426500,-9.642647743,-2.30561614,0.20350714,-0.44046247,-0.315225124,-0.278320044,-3,4,-6,15,7,-1.956062794,5.950788498,-6.895300865,-1.000566602,4.365588188,0.800719738,-53,-41,173,202,295
1695161874284426500,-9.616311073,-2.319981337,0.229843363,-0.438464016,-0.312027574,-0.278986216,-4,5,-6,15,13,-1.771709204,5.849034786,-6.745663166,-1.025880575,4.365588188,0.721580386,-50,-39,170,197,294
1695161874285426500,-9.597157478,-2.325966835,0.239420176,-0.436998457,-0.310562044,-0.279252678,-2,1,-6,14,12,-1.587355733,5.740098476,-6.579266071,-1.048663139,4.365588188,0.643107176,-47,-40,169,202,295
1695161874286426500,-9.569623947,-2.336740971,0.258573771,-0.433934122,-0.307897419,-0.279385895,1,5,-7,15,11,-1.406593442,5.628767967,-6.420052052,-1.068514585,4.365588188,0.565833032,-55,-33,170,203,290
1695161874287426500,-9.542090416,-2.349909067,0.270544797,-0.43007046,-0.304966301,-0.279519141,-2,2,-6,15,12,-1.234210968,5.522226334,-6.271611214,-1.087699771,4.365588188,0.489891261,-50,-37,172,202,292
1695161874341411900,-8.905233383,-2.497152328,0.685938776,-0.247410417,-0.211171508,-0.221163854,-2,7,-6,16,11,1.329979062,4.887762547,-4.547786236,-1.36082387,4.365588188,-0.786863685,-45,-40,169,194,276
1695161874342411900,-8.893261909,-2.48996973,0.696712673,-0.235686064,-0.206375197,-0.215967834,-1,10,-6,16,10,1.45088625,4.854243755,-4.467580318,-1.366686106,4.365588188,-0.83829093,-48,-39,165,193,277
1695161874343411900,-8.880094528,-2.487575531,0.699106872,-0.224228173,-0.202777937,-0.210905045,-4,7,-7,15,11,1.56101954,4.83509016,-4.38617754,-1.370416522,4.365588188,-0.88771975,-45,-40,164,192,278
1695161874344411900,-8.870517731,-2.479195833,0.707486629,-0.212903515,-0.200646251,-0.205842257,-3,6,-8,13,10,1.587355733,4.741716385,-4.226963043,-1.375212789,4.365588188,-0.931153178,-47,-40,163,192,269
1695161874345411900,-8.864531517,-2.469619036,0.715866327,-0.201845318,-0.199313939,-0.200646251,-4,3,-9,13,10,1.734599113,4.769249916,-4.220977783,-1.362822294,4.365588188,-0.96765852,-45,-39,161,191,277
1695161874511515600,-8.802282333,-2.404975653,0.888248801,-0.118309341,-0.287912726,-0.120174579,-1,5,-8,18,7,2.097320795,4.79917717,-2.741360903,-1.148852944,4.365588188,-1.258768797,-47,-37,151,181,266
1695161874512515600,-8.80467701,-2.425326347,0.883460402,-0.117909648,-0.295107216,-0.114845328,-1,7,-8,15,9,2.00993228,4.742913723,-2.670732021,-1.123405814,4.365588188,-1.241049051,-47,-40,153,178,265
1695161874513515600,-8.82263279,-2.390610456,0.903811157,-0.122439511,-0.300969362,-0.109649308,7,17,-9,19,12,1.921346903,4.691438198,-2.584540844,-1.094361424,4.365588188,-1.221330762,-47,-38,153,177,265
1695161874514515600,-8.83699894,-2.373851061,0.912190855,-0.128967836,-0.305232793,-0.106185302,-2,2,-8,15,13,1.824381709,4.659116745,-2.497152328,-1.061586499,4.365588188,-1.200280309,-54,-39,152,180,264
1695161874515515600,-8.862137794,-2.361880064,0.906205356,-0.138826951,-0.310961694,-0.102055125,-2,7,-11,16,9,1.74776721,4.644751072,-2.442085743,-1.037871361,4.365588188,-1.186024547,-51,-40,151,172,263
1695161874583455300,-9.001001358,-2.488772631,0.926556051,-0.364520669,-0.340405822,-0.081803977,-1,5,-12,14,9,-1.685518026,5.038597584,-0.14724341,-0.453918815,4.076875687,-0.818439543,-51,-37,137,170,264
1695161874584455300,-8.998606682,-2.515108824,0.936132848,-0.37238133,-0.33973965,-0.081271052,-1,3,-15,16,11,-1.830367208,5.049371243,-0.02873042,-0.431535989,4.013324738,-0.797921896,-51,-39,136,168,264
1695161874585455300,-8.992621422,-2.541445017,0.940921247,-0.378909618,-0.338807046,-0.080604896,-3,7,-11,20,12,-1.962048292,5.064933777,0.087388359,-0.409019887,3.948174715,-0.777271032,-56,-37,133,168,264
1695161874586455300,-8.987833023,-2.562992811,0.950498104,-0.384372145,-0.33760795,-0.07993874,-3,2,-10,18,13,-2.084152699,5.081693172,0.18435353,-0.386237353,3.881558895,-0.757153153,-58,-39,135,164,264
1695161874587455300,-8.983044624,-2.585737944,0.957680702,-0.388635516,-0.336009204,-0.079405814,-2,0,-15,15,9,-2.160767078,5.098452568,0.252588272,-0.371182233,3.836260319,-0.743830025,-59,-39,132,169,268
1695161874650411300,-8.895656586,-2.736572504,1.049857497,-0.31429249,-0.249408886,-0.044632465,-4,5,-12,18,12,-3.319560766,5.960365295,1.59693253,-0.118442573,2.535523653,-0.767545164,-57,-73,131,168,286
1695161874651411300,-8.894459724,-2.730587006,1.047463298,-0.309096456,-0.24154824,-0.04103522,-1,3,-13,14,11,-3.34350276,6.06211853,1.606509328,-0.121773355,2.477434874,-0.792859137,-56,-79,132,170,289
1695161874652411300,-8.892065048,-2.723404408,1.040280581,-0.304433405,-0.233287901,-0.037171517,-1,3,-12,16,11,-3.355473757,6.172252178,1.622071624,-0.124837674,2.417747259,-0.816707492,-58,-81,131,170,289
1695161874653411300,-8.894459724,-2.721010208,1.031900883,-0.300436467,-0.224494636,-0.033174578,-1,9,-10,13,9,-3.367444754,6.271611214,1.657984734,-0.129101068,2.35606122,-0.840555906,-51,-88,135,169,288
1695161874654411300,-8.896853447,-2.71382761,1.030703783,-0.297238916,-0.215434924,-0.02917764,-3,5,-13,14,12,-3.377021551,6.343437195,1.719036818,-0.135096475,2.294374943,-0.860673785,-55,-92,133,169,289
1695161874719372600,-9.03571701,-2.610877037,0.902614057,-0.371981621,-0.076208271,0.028111791,-2,9,-12,13,10,-5.61919117,9.308655739,3.653551817,0.239949465,0.528928041,0.127635539,-50,-107,131,165,315
1695161874720372600,-9.036913872,-2.606088638,0.89184016,-0.384505361,-0.070612557,0.028644716,-2,2,-13,13,14,-5.479130745,9.405621529,3.651157618,0.21503523,0.444859117,0.149751917,-47,-107,132,170,322
1695161874721372600,-9.039308548,-2.603694439,0.887051702,-0.394364446,-0.066349156,0.028777948,-1,5,-13,17,11,-5.311536312,9.470264435,3.645172119,0.184525266,0.367451757,0.161875948,-49,-107,131,169,322
1695161874722372600,-9.040505409,-2.602497339,0.879869103,-0.400892794,-0.063817769,0.028511487,-2,6,-15,15,9,-5.121197224,9.507374763,3.634398222,0.149751917,0.296306252,0.165872887,-48,-113,131,172,322
1695161874723372600,-9.041702271,-2.606088638,0.870292306,-0.410885125,-0.060220521,0.028111791,-2,7,-13,16,9,-4.90571928,9.512163162,3.620033026,0.11298009,0.231289431,0.163208261,-48,-111,131,169,325
1695161874792332200,-8.967482567,-2.63960743,0.67037648,-0.580488503,-0.0042634,-0.06115314,0,5,-19,13,9,-1.692700624,8.865729332,3.240551949,-0.000399694,-0.739433408,0.443660021,-44,-108,126,166,330
1695161874793332200,-8.963891029,-2.649184227,0.67037648,-0.582886636,-0.004529862,-0.068347625,-1,1,-16,14,11,-1.729810715,8.863334656,3.221398354,0.010525269,-0.796456337,0.481630921,-45,-99,125,159,325
1695161874794332200,-8.956708908,-2.656366825,0.66917938,-0.584085763,-0.004796324,-0.075275652,-6,9,-13,16,11,-1.780089021,8.863334656,3.187879562,0.019451762,-0.854012251,0.518136322,-44,-97,126,166,332
1695161874795332200,-8.945934296,-2.663549423,0.675164878,-0.583952546,-0.005462481,-0.08207044,-3,5,-17,15,12,-1.849520802,8.852560997,3.153163671,0.027045943,-0.913033664,0.552776396,-47,-89,121,168,327
1695161874796332200,-8.938752174,-2.665943623,0.676361978,-0.58275342,-0.005995406,-0.088598773,-2,3,-18,15,12,-1.9333179,8.829815865,3.118447781,0.033840735,-0.97338742,0.585151613,-45,-81,124,168,329
1695161874863294200,-8.841787338,-2.547430515,0.840364814,-0.441395104,0.035705972,-0.114712104,-1,6,-13,14,11,-3.742137194,6.874950409,2.576161146,0.255404294,-2.3446033,1.085701346,-44,-50,119,163,325
1695161874864294200,-8.834604263,-2.537853718,0.85353291,-0.434067398,0.041301683,-0.110049009,-3,6,-17,18,13,-3.800795317,6.72890377,2.537853718,0.289245039,-2.421211243,1.119675398,-47,-50,115,161,320
1695161874865294200,-8.833407402,-2.52947402,0.865503907,-0.426872909,0.046897396,-0.105119444,-1,3,-16,18,12,-3.853467703,6.57806921,2.497152328,0.326283306,-2.497952461,1.154581904,-46,-49,112,159,320
1695161874866294200,-8.828619003,-2.523488522,0.879869103,-0.420211345,0.052226644,-0.099390499,-1,6,-12,16,11,-3.90374589,6.436811447,2.461239338,0.365719765,-2.575759649,1.190287828,-45,-51,116,164,321
1695161874867294200,-8.827422142,-2.516305923,0.888248801,-0.413416535,0.057289433,-0.093395106,-4,3,-16,16,12,-3.950432777,6.305130005,2.428917646,0.407820851,-2.65423274,1.226926446,-45,-49,112,164,318
1695161874946246700,-8.870517731,-2.539050817,1.11450088,-0.249408886,-0.021716693,0.025180703,-3,5,-10,16,10,-3.983951569,4.862623692,0.991199493,1.117010713,-4.365721226,1.662192941,-50,-51,84,152,291
1695161874947246700,-8.857349396,-2.52947402,1.121683478,-0.241015315,-0.029577335,0.031176111,-3,2,-17,15,11,-3.919308186,4.862623692,0.872686505,1.132598758,-4.365721226,1.650068879,-51,-51,84,152,292
1695161874948246700,-8.8429842,-2.517503023,1.125274777,-0.233554363,-0.036905054,0.03757121,-3,5,-14,15,11,-3.846285105,4.855441093,0.745793819,1.143656969,-4.365721226,1.633148551,-49,-50,82,152,285
1695161874949246700,-8.825027466,-2.503137827,1.125274777,-0.227159262,-0.043566614,0.043966308,-3,5,-16,16,11,-3.769670486,4.856637955,0.611718535,1.152983069,-4.365721226,1.612497687,-46,-47,80,149,288
1695161874950246700,-8.809465408,-2.49116683,1.124077678,-0.221696794,-0.049428791,0.050761104,-2,5,-13,14,13,-3.695450306,4.86980629,0.475249052,1.158978581,-4.365721226,1.58625114,-50,-48,79,149,286
1695161875022199200,-8.608352661,-2.505532026,1.074996591,-0.277787149,0.007460949,0.262199074,-1,0,-11,13,12,-2.190694571,5.570110321,-3.189076662,0.647104144,-4.365721226,0.2311562,-53,-49,59,128,256
1695161875023199200,-8.61912632,-2.525882721,1.07739079,-0.281384379,0.015454824,0.277120978,-7,3,-15,14,4,-2.172738075,5.635950565,-3.374627352,0.591147006,-4.365721226,0.130166918,-50,-47,58,127,256
1695161875024199200,-8.632294655,-2.548627615,1.07739079,-0.284448713,0.023715161,0.291909665,-3,6,-12,18,13,-2.157175779,5.704185486,-3.555389643,0.530127108,-4.365721226,0.026646247,-44,-47,53,129,253
1695161875025199200,-8.644265175,-2.56897831,1.070208192,-0.286980093,0.031442571,0.306165397,-4,4,-16,13,11,-2.149993181,5.752069473,-3.669114113,0.486960173,-4.365721226,-0.043833077,-49,-47,51,122,253
1695161875026199200,-8.658630371,-2.595314741,1.065419793,-0.289111793,0.039036751,0.320287883,-1,10,-15,16,12,-2.146401882,5.821501255,-3.834314108,0.416347623,-4.365721226,-0.151217461,-51,-48,53,124,253
1695161875100157700,-8.947132111,-2.938882589,0.760159016,-0.277254194,0.099790201,0.466842234,-2,2,-12,18,9,-2.26970315,7.663839817,-6.110002518,-1.489392042,-4.365721226,-2.644506931,-46,-43,33,90,231
1695161875101157700,-8.959102631,-2.943670988,0.729034424,-0.276987731,0.102321595,0.466309339,-2,6,-12,15,10,-2.275688648,7.685387611,-6.069301128,-1.560537577,-4.365721226,-2.732972383,-49,-45,30,86,232
1695161875102157700,-8.965087891,-2.947262287,0.715866327,-0.276854515,0.103520676,0.465243489,0,9,-13,14,12,-2.296039343,7.700949669,-5.997475147,-1.664990902,-4.365721226,-2.865271091,-48,-48,31,89,231
1695161875103157700,-8.974664688,-2.944868088,0.696712673,-0.276854515,0.105652377,0.463111788,-4,6,-15,24,14,-2.322375536,7.712920666,-5.913678169,-1.768644691,-4.365721226,-2.994771719,-47,-41,30,88,229
1695161875104157700,-8.983044624,-2.944868088,0.675164878,-0.277120978,0.10805054,0.460047454,-3,5,-12,13,9,-2.360682964,7.714118004,-5.814318657,-1.870566607,-4.365721226,-3.120808601,-48,-44,30,82,228
1695161875168137900,-9.093177795,-2.905363798,0.37110126,-0.254205197,0.226093426,0.332012266,-1,5,-12,13,10,-4.849455357,9.332598686,-3.27287364,-4.26739645,-4.365721226,-4.365721226,-48,-39,-9,60,216
1695161875169137900,-9.09437561,-2.8969841,0.354341865,-0.251673818,0.236751899,0.325750381,-1,3,-13,16,11,-5.060145378,9.503783226,-3.244143248,-4.365721226,-4.365721226,-4.365721226,-51,-40,4,53,215
1695161875170137900,-9.097966194,-2.889801502,0.338779539,-0.249275655,0.248076573,0.319888234,-3,5,-15,14,9,-5.254075527,9.670180321,-3.193865061,-4.365721226,-4.365721226,-4.365721226,-50,-37,4,54,215
1695161875171137900,-9.10634613,-2.886210203,0.324414343,-0.247543648,0.25553751,0.316157728,-3,2,-16,13,9,-5.376179695,9.782708168,-3.155557871,-4.365721226,-4.365721226,-4.365721226,-49,-38,1,52,215
1695161875172137900,-9.111134529,-2.875436306,0.300472319,-0.24514547,0.26592955,0.310562044,-1,5,-11,14,12,-5.531803131,9.946710587,-3.08373189,-4.365721226,-4.365721226,-4.365721226,-47,-36,3,50,215
1695161875235077100,-9.022548676,-2.832340717,-0.010773907,-0.177996933,0.530393541,0.262598753,-6,2,-7,17,10,-5.783194065,5.746084213,-0.756567717,-4.365721226,-1.359624863,-4.365721226,-57,-38,-15,32,204
1695161875236077100,-9.021351814,-2.839523315,-0.015562311,-0.1672052,0.540918827,0.262598753,-2,5,-9,14,8,-5.938817501,5.294776917,-0.721851826,-4.365721226,-1.131932616,-4.365721226,-57,-37,-13,31,208
1695161875237077100,-9.02374649,-2.847903013,-0.026336219,-0.155747324,0.550111771,0.262465537,-7,3,-13,16,10,-6.111199856,4.847061157,-0.683544576,-4.365721226,-0.909036756,-4.365721226,-60,-41,-13,32,204
1695161875238077100,-9.02374649,-2.857479811,-0.039504327,-0.142290965,0.557705998,0.262598753,-1,6,-9,14,10,-6.309918404,4.405331135,-0.656011283,-4.365721226,-0.690804005,-4.365721226,-58,-37,-13,35,202
1695161875239077100,-9.022548676,-2.865859509,-0.053869538,-0.128434911,0.563834608,0.263264924,-4,5,-9,13,10,-6.543353081,3.930082083,-0.651222885,-4.365721226,-0.479099542,-4.365721226,-56,-39,-16,32,203
1695161875311032400,-8.959102631,-2.633621931,-0.36990416,0.081004597,0.517736614,0.263531387,-4,9,-7,15,9,-14.82250309,1.00436759,-0.792480767,3.334378242,2.441062689,-3.942312479,-59,-38,-21,30,204
1695161875312032400,-8.966285706,-2.622848034,-0.384269387,0.082470134,0.509076536,0.26126644,-2,5,-8,16,8,-15.24747372,1.192312479,-0.808043063,3.764448643,2.531260252,-3.911535978,-59,-35,-20,26,206
1695161875313032400,-8.975862503,-2.612074137,-0.402225882,0.083669223,0.499084204,0.257935673,-9,6,-9,17,9,-15.64491081,1.380257249,-0.811634362,4.186125755,2.61839366,-3.885955572,-55,-37,-21,30,207
1695161875314032400,-8.985439301,-2.609679937,-0.417788208,0.084468603,0.487093419,0.254338443,-2,2,-6,13,9,-16.02918053,1.588552833,-0.799663365,4.365588188,2.703261852,-3.866903543,-55,-35,-23,28,208
1695161875315032400,-8.991424561,-2.612074137,-0.428562105,0.085934147,0.473370582,0.250607967,-3,2,-7,16,7,-16.41464615,1.818396211,-0.794874966,4.365588188,2.785065889,-3.852781057,-57,-38,-24,29,204
1695161875372999400,-9.093177795,-2.616862535,-0.506373644,0.160277188,0.161875948,0.139093414,-2,6,-9,13,9,-19.61330032,10.00895977,-1.613691926,4.365588188,2.481964588,-4.239284992,-59,-36,-33,24,206
1695161875373999400,-9.10036087,-2.606088638,-0.509964943,0.161476254,0.151617154,0.131099537,-5,6,-6,13,11,-19.61330032,10.38125896,-1.666364431,4.365588188,2.327416658,-4.23941803,-59,-33,-25,20,205
1695161875374999400,-9.105149269,-2.59890604,-0.513556242,0.161609486,0.143090352,0.12337213,-4,2,-6,13,11,-19.61330032,10.73440361,-1.714248419,4.365588188,2.163542032,-4.228892803,-57,-34,-28,19,208
1695161875375999400,-9.114726067,-2.590526342,-0.515950441,0.160943344,0.136029094,0.115644716,-1,1,-11,13,7,-19.61330032,11.07078838,-1.770512104,4.365588188,1.991274118,-4.20824194,-67,-35,-32,19,204
1695161875376999400,-9.125499725,-2.586935043,-0.523133099,0.159477785,0.130166918,0.108450226,-8,1,-13,13,4,-19.61330032,11.40477943,-1.829170108,4.365588188,1.813143969,-4.177065849,-58,-33,-28,20,203
1695161875412975200,-9.272743225,-2.683900118,-0.573411286,0.126702905,0.213569671,0.011324655,-3,1,-9,15,8,-11.94227791,12.23556805,-0.866701007,1.513240457,-0.789261878,-1.829931021,-53,-34,-19,29,200
1695161875413975200,-9.283516884,-2.699462414,-0.577002585,0.132032156,0.222629398,0.006128637,-6,3,-12,13,5,-11.64300251,11.87883186,-0.822408259,1.183093429,-0.816174567,-1.651001573,-57,-34,-19,31,200
1695161875414975200,-9.29788208,-2.710236311,-0.577002585,0.13869372,0.231555894,0.000799387,-6,4,-9,13,3,-11.37365532,11.51132202,-0.782903969,0.872264922,-0.833361447,-1.471139312,-54,-34,-19,29,197
1695161875415975200,-9.308655739,-2.718616009,-0.574608386,0.146421134,0.240215927,-0.004663093,-3,2,-9,12,7,-11.20007515,11.25514221,-0.756567717,0.676415026,-0.840156198,-1.350831628,-55,-34,-19,29,197
1695161875416975200,-9.321824074,-2.730587006,-0.567425787,0.15534763,0.248609498,-0.010392036,-2,0,-12,13,4,-10.96065521,10.8612957,-0.721851826,0.401825428,-0.843753397,-1.170436382,-53,-36,-17,31,199
1695161875731911100,-9.637859344,-2.685097218,-0.44651863,0.413816214,0.322819293,-0.111781009,-4,2,-15,15,4,-9.476250648,4.12401247,-0.199915841,-0.629517615,-0.067681469,1.411185384,-45,-34,-12,41,197
1695161875732911100,-9.658209801,-2.673126221,-0.438138902,0.430470139,0.32361868,-0.116710559,-7,0,-10,16,7,-9.440337181,3.960009575,-0.193930343,-0.503614068,-0.011990812,1.463012218,-54,-34,-9,44,197
1695161875733911100,-9.674968719,-2.662352324,-0.430956304,0.447257251,0.324018389,-0.121773355,-3,2,-7,13,7,-9.397241592,3.82473731,-0.18555063,-0.366785586,0.043966308,1.505246639,-53,-34,-11,41,198
1695161875734911100,-9.691728592,-2.655169725,-0.428562105,0.463911176,0.324551284,-0.126969382,-4,0,-9,13,7,-9.343372345,3.706224203,-0.16879122,-0.220897391,0.100856051,1.537755013,-51,-34,-8,41,200
1695161875735911100,-9.704896927,-2.645592928,-0.422576606,0.480698317,0.324551284,-0.132165387,-4,3,-11,13,7,-9.287108421,3.610456228,-0.152031809,-0.068214394,0.15841195,1.561336875,-51,-34,-9,41,198
1695161875780882200,-9.628282547,-2.287659645,-0.366312861,0.719848394,0.323085755,-0.23475343,-4,3,-12,12,5,-8.809465408,4.375403404,0.183156431,2.464511395,0.864004612,0.914499223,-50,-34,-9,42,197
1695161875781882200,-9.594763756,-2.256535053,-0.367509961,0.724511504,0.321886688,-0.242214397,-8,1,-10,14,3,-8.799888611,4.485537052,0.208295554,2.518203497,0.86120671,0.865470171,-50,-35,-13,41,195
1695161875782882200,-9.561244011,-2.22900176,-0.37110126,0.727975488,0.320287883,-0.249941811,-5,1,-11,13,3,-8.790311813,4.593276024,0.238223076,2.560571194,0.853745818,0.818839192,-53,-35,-14,44,194
1695161875783882200,-9.526528358,-2.199074268,-0.377086759,0.729973972,0.318289429,-0.257935673,-6,2,-9,13,3,-8.777143478,4.699818134,0.271741897,2.591480732,0.842154622,0.774606407,-55,-36,-15,38,194
1695161875784882200,-9.494206429,-2.164358377,-0.383072257,0.730906546,0.315624803,-0.266196012,-6,0,-9,12,5,-8.769960403,4.805162907,0.304063618,2.611465693,0.826300144,0.733038306,-56,-34,-15,38,196
1695161875823854200,-8.82263279,-1.504755735,-0.51954174,0.528528333,0.205042884,-0.456450224,-7,0,-9,13,1,-8.441955566,6.290764809,0.603338838,1.316591024,0.081137821,0.393698305,-54,-35,-12,38,194
1695161875824854200,-8.792705536,-1.479616642,-0.51954174,0.510675371,0.197448686,-0.464177608,-4,0,-10,12,7,-8.437167168,6.294356346,0.598550439,1.199614167,0.038370594,0.392366022,-51,-34,-8,40,197
1695161875825854200,-8.76636982,-1.455674648,-0.524330199,0.492955565,0.189854518,-0.470839173,-7,3,-8,13,4,-8.429984093,6.288370609,0.59376204,1.083436489,-0.002664625,0.392366022,-51,-34,-12,40,194
1695161875826854200,-8.743624687,-1.436521053,-0.527921498,0.475502282,0.182127118,-0.476568133,-8,1,-11,13,5,-8.421604156,6.270414352,0.590170741,0.968457878,-0.041701376,0.393431842,-54,-34,-11,46,194
1695161875827854200,-8.719682693,-1.420958757,-0.535104096,0.458581924,0.174399704,-0.481364459,-7,2,-11,13,4,-8.412027359,6.253654957,0.586579442,0.854944885,-0.078739658,0.395696759,-57,-33,-12,37,195
1695161875873826300,-8.396465302,-1.268926859,-0.67037648,0.276854515,0.066615619,-0.333877474,-4,5,-7,13,3,-8.169015884,5.288791656,0.671573579,-0.701595724,-0.319621742,0.547313929,-49,-34,-13,40,194
1695161875874826300,-8.390480042,-1.267729759,-0.682347476,0.272857577,0.063551299,-0.311228186,-10,2,-10,14,7,-8.179790497,5.213374138,0.681150377,-0.746494651,-0.309096456,0.56303519,-53,-36,-11,39,196
1695161875875826300,-8.384494781,-1.268926859,-0.691924274,0.268727422,0.060753446,-0.286980093,-8,1,-8,13,5,-8.190564156,5.137956619,0.690727174,-0.787663102,-0.297505349,0.579955578,-54,-35,-14,38,196
1695161875876826300,-8.383296967,-1.271321058,-0.701501071,0.265130162,0.058621746,-0.261532933,-10,3,-9,13,4,-8.209717751,5.061342239,0.700303972,-0.824967802,-0.284981638,0.598341525,-55,-34,-7,38,196
1695161875877826300,-8.382100105,-1.278503656,-0.712275028,0.261666149,0.057156201,-0.234886676,-8,3,-6,14,5,-8.237251282,4.979939461,0.703895271,-0.858275652,-0.271924943,0.617926478,-53,-34,-15,44,196
1695161875924796900,-8.653841972,-1.799242616,-0.808043063,0.405555874,0.072344564,0.38277334,-4,1,-6,13,2,-10.04846478,3.227383852,0.617704034,-0.673617184,-0.204376727,1.086767197,-49,-34,-13,37,195
1695161875925796900,-8.675390244,-1.830367208,-0.809240162,0.427272588,0.07274425,0.414482385,-7,1,-6,14,4,-10.15021801,3.174711466,0.650025785,-0.626053572,-0.208640128,1.102621675,-50,-34,-12,41,193
1695161875926796900,-8.698134422,-1.861491799,-0.812831461,0.44978866,0.07301072,0.445392013,-2,0,-8,14,4,-10.24718285,3.11964488,0.685938776,-0.576491535,-0.21197091,1.116078019,-55,-35,-13,41,196
1695161875927796900,-8.720879555,-1.887827992,-0.82001406,0.47270444,0.073143952,0.475502282,-4,0,-9,13,4,-10.33337498,3.068169594,0.719457626,-0.525197506,-0.21450229,1.127269506,-54,-34,-13,42,197
1695161875928796900,-8.743624687,-1.914164305,-0.825999558,0.4960199,0.073410407,0.504546702,-4,0,-6,13,3,-10.40998936,3.021482468,0.758961916,-0.47270444,-0.216367543,1.136196017,-51,-34,-12,42,197
1695161875966773200,-8.955511093,-2.304419041,-0.878672004,0.819105625,0.098457888,0.823768795,-3,0,-8,10,9,-9.749189377,3.028665066,1.515529633,0.417413473,-0.104053594,0.882790208,-50,-34,-13,41,195
1695161875967773200,-8.941145897,-2.325966835,-0.878672004,0.830430329,0.102055125,0.827765703,-6,3,-8,13,7,-9.63067627,3.04901576,1.549048543,0.439929545,-0.094594181,0.860540569,-55,-35,-13,42,197
1695161875968773200,-8.925583839,-2.345120668,-0.877474904,0.841355324,0.105918832,0.83003062,-5,0,-8,13,4,-9.508571625,3.065775394,1.583764434,0.458981633,-0.08513476,0.838957131,-49,-34,-12,43,193
1695161875969773200,-8.906430244,-2.361880064,-0.878672004,0.85188055,0.109782539,0.830297053,-3,2,-6,14,8,-9.391256332,3.08373189,1.624465823,0.474702895,-0.075408876,0.817773342,-53,-36,-12,40,194
1695161875970773200,-8.882488251,-2.37744236,-0.878672004,0.862006128,0.114312403,0.828698277,-5,2,-9,13,5,-9.269151688,3.101688385,1.657984734,0.487493098,-0.065283306,0.797255754,-46,-34,-12,41,195
1695161876004751600,-8.228871346,-2.138022184,-0.857124209,0.886920393,0.199580401,0.467908114,-3,1,-6,15,4,-7.678205013,3.253720045,2.085349798,0.251673818,0.092329249,0.461912692,-54,-35,-13,44,196
1695161876005751600,-8.222886086,-2.094926596,-0.857124209,0.873197496,0.202511474,0.433800906,-4,5,-6,13,4,-7.643488884,3.257311344,2.102109194,0.22236295,0.097125575,0.438996941,-50,-34,-11,46,189
1695161876006751600,-8.228871346,-2.053027868,-0.863109708,0.857476294,0.20464319,0.399027556,-4,5,-5,13,3,-7.611167431,3.260902643,2.108094692,0.192252681,0.101122513,0.414882064,-52,-34,-12,43,196
1695161876007751600,-8.24203968,-2.011129379,-0.867898107,0.840156198,0.205975503,0.364387453,-4,3,-6,13,5,-7.582436562,3.264493942,2.118868589,0.161209792,0.104453288,0.389701396,-50,-34,-9,42,196
1695161876008751600,-8.268375397,-1.97162509,-0.873883605,0.821237385,0.205975503,0.329747319,-4,2,-9,13,4,-7.558494568,3.264493942,2.128445387,0.129633993,0.106984682,0.363588065,-50,-34,-13,40,188
1695161876041732500,-9.956287384,-1.577778935,-0.889445961,0.48775959,0.016254211,-0.078473203,-6,0,-10,13,4,-8.021772385,3.180696964,1.753752708,-0.449255735,0.039169986,-0.220364481,-50,-34,-11,43,196
1695161876042732500,-10.07480049,-1.577778935,-0.902614057,0.479232758,-0.000799387,-0.080738127,-8,0,-8,13,4,-8.109161377,3.167528868,1.698686123,-0.468707502,0.029977029,-0.248476252,-51,-34,-13,40,194
1695161876043732500,-10.18493366,-1.580173135,-0.920570552,0.472171485,-0.01825268,-0.080338441,-4,3,-6,13,8,-8.203732491,3.15795207,1.640028119,-0.485894322,0.019984685,-0.275788665,-51,-37,-11,44,194
1695161876044732500,-10.29506683,-1.586158633,-0.926556051,0.466176093,-0.036105666,-0.077007659,-6,1,-7,14,1,-8.305485725,3.151966572,1.586158633,-0.500949442,0.009592649,-0.3028346,-51,-34,-14,40,194
1695161876045732500,-10.39322948,-1.595735431,-0.938527048,0.461379766,-0.054091886,-0.071278714,-8,0,-7,13,2,-8.408436775,3.153163671,1.538274646,-0.513872921,-0.001199081,-0.329081148,-60,-35,-14,45,194
1695161876076712600,-10.52850151,-1.714248419,-1.33955586,0.4082205,-0.281251162,0.290577352,-6,-4,-6,13,7,-9.3685112,4.191050053,1.564610839,-0.636445642,0.131765693,-0.797655404,-50,-35,-9,44,197
1695161876077712600,-10.45787334,-1.720233917,-1.369483352,0.396762639,-0.282983154,0.307098001,-6,3,-7,13,3,-9.317035675,4.249708176,1.55862534,-0.64763701,0.153615624,-0.812177658,-51,-34,-9,42,198
1695161876078712600,-10.38125896,-1.725022316,-1.391031146,0.383439511,-0.283649325,0.321620196,-4,0,-6,14,7,-9.273940086,4.289212227,1.549048543,-0.654831588,0.168004602,-0.820437968,-50,-34,-11,41,196
1695161876079712600,-10.30464458,-1.731007814,-1.407790542,0.368650824,-0.282983154,0.334143966,-6,2,-8,13,3,-9.212887764,4.338293552,1.537077546,-0.665490091,0.188921899,-0.830696821,-49,-34,-9,41,197
1695161876080712600,-10.22683239,-1.740584612,-1.426944256,0.351863712,-0.280851454,0.344802469,-11,2,-6,13,5,-9.145850182,4.384980202,1.520318031,-0.676015317,0.208773345,-0.838157713,-50,-34,-8,42,196
1695161876133556400,-9.034520149,-2.003946781,-1.413776159,-0.102987751,-0.052226644,0.14748697,-11,0,-11,13,4,-8.473079681,4.212597847,1.132457376,-0.695067406,0.240748852,-0.351863712,-51,-34,-14,41,193
1695161876134556400,-8.990227699,-2.021903276,-1.400607944,-0.126036748,-0.034107197,0.118442573,-4,0,-6,13,1,-8.497021675,4.165910721,1.11689508,-0.685208261,0.224361405,-0.302568167,-51,-35,-9,38,195
1695161876135556400,-8.951920509,-2.042253971,-1.387439847,-0.148153126,-0.01612098,0.088465542,-5,2,-7,15,4,-8.524555206,4.12640667,1.096544385,-0.673750401,0.206908107,-0.252872884,-51,-36,-13,35,193
1695161876136556400,-8.916007042,-2.060210466,-1.37786305,-0.169203669,0.001332312,0.057422664,-12,0,-9,13,3,-8.547300339,4.096478939,1.085770488,-0.665356815,0.194517612,-0.219431862,-53,-34,-13,40,195
1695161876137556400,-8.882488251,-2.074575663,-1.369483352,-0.188788652,0.017986218,0.025447167,-3,0,-9,13,8,-8.585607529,4.04979229,1.067813993,-0.651767194,0.175199077,-0.169736609,-51,-36,-12,38,195
1695161876638983100,-8.755595207,-1.950077295,-1.253364563,-0.366519153,0.0976585,-0.543183744,-6,1,-7,13,4,-9.441534042,3.464409828,0.786495268,-0.240882084,-0.251140893,0.460447162,-51,-36,-11,42,196
1695161876639983100,-8.792705536,-1.899798989,-1.268926859,-0.3709158,0.089131698,-0.568497658,-6,0,-8,13,2,-9.455899239,3.448847532,0.774524271,-0.218898922,-0.266862184,0.472437978,-56,-33,-13,41,194
1695161876640983100,-8.8429842,-1.850717902,-1.285686255,-0.375978559,0.079672284,-0.593545139,-6,0,-9,13,4,-9.463082314,3.441664934,0.757764816,-0.197182223,-0.281251162,0.482430339,-57,-36,-13,41,196
1695161876641983100,-8.901641846,-1.795651317,-1.30124867,-0.381574243,0.068747319,-0.617926478,-8,1,-7,16,4,-9.470264435,3.436876535,0.746990919,-0.175732017,-0.294041336,0.491090357,-49,-34,-8,42,194
1695161876642983100,-8.967482567,-1.738190413,-1.316810966,-0.388369083,0.057289433,-0.64150846,-8,0,-9,13,7,-9.465476036,3.434482336,0.735019922,-0.154681474,-0.304833084,0.498018384,-50,-35,-8,40,195
1695161876687954500,-9.133879662,-1.194706678,-1.385045648,-0.682543635,-0.097258806,-0.763681471,-8,0,-6,13,4,-8.73404789,3.606864929,0.754173517,0.098058186,-0.170402765,0.41967839,-49,-34,-8,44,196
1695161876688954500,-9.06803894,-1.193509579,-1.392228246,-0.701862156,-0.095793262,-0.750757992,-5,-1,-8,13,5,-8.688557625,3.630806923,0.768538773,0.100856051,-0.148552835,0.411018372,-51,-34,-9,42,196
1695161876689954500,-8.999804497,-1.193509579,-1.401805043,-0.721180677,-0.093395106,-0.736235797,-5,0,-6,13,1,-8.645462036,3.652354717,0.782903969,0.102188364,-0.126303226,0.402624816,-51,-35,-11,40,195
1695161876690954500,-8.923190117,-1.194706678,-1.405396342,-0.740232766,-0.089931086,-0.720114827,-11,-2,-9,13,3,-8.602366447,3.670311213,0.805648863,0.10178867,-0.103653908,0.394364446,-47,-34,-8,44,194
1695161876691954500,-8.845377922,-1.194706678,-1.41257906,-0.758751929,-0.085401222,-0.702928066,-8,0,-6,13,1,-8.565256119,3.690661907,0.824802458,0.099656969,-0.080604896,0.386237353,-50,-35,-8,44,193
1695161876735927900,-7.960720539,-1.48799634,-1.467645645,-0.860673785,0.105785601,-0.344003052,-6,0,-4,13,1,-8.264783859,3.878606796,1.261744261,-0.220764175,0.221430331,0.285114855,-51,-35,-10,44,193
1695161876736927900,-7.975085735,-1.502361536,-1.456871748,-0.850148499,0.116310872,-0.328681469,-11,0,-7,15,3,-8.259995461,3.870227098,1.273715258,-0.243413478,0.225294024,0.281517595,-53,-34,-8,41,192
1695161876737927900,-7.989450932,-1.514332533,-1.453280449,-0.842421114,0.122972436,-0.318422645,-8,0,-5,13,3,-8.259995461,3.8630445,1.284489155,-0.258335382,0.227159262,0.279252678,-51,-34,-13,47,192
1695161876738927900,-8.02895546,-1.538274646,-1.442506552,-0.825101078,0.135629401,-0.297905058,-10,0,-6,13,2,-8.258798599,3.851073503,1.290474772,-0.279785603,0.228758052,0.275921881,-51,-34,-8,42,193
1695161876739927900,-8.064867973,-1.557428241,-1.437718153,-0.810445666,0.144289434,-0.282317013,-3,0,-6,10,3,-8.261193275,3.833117008,1.291671872,-0.299903542,0.229424208,0.272457898,-51,-34,-8,43,194
1695161876785899000,-9.178172112,-1.829170108,-1.238999367,-0.346267998,0.175732017,0.066615619,-8,1,-6,13,7,-8.402450562,3.391386747,1.167173386,-0.404090345,0.075941809,0.192785591,-53,-34,-10,42,194
1695161876786899000,-9.2212677,-1.823184609,-1.237802267,-0.319754958,0.171335369,0.083935678,-4,1,-5,13,1,-8.409633636,3.373430252,1.157596469,-0.394897372,0.06461715,0.187722817,-49,-35,-12,38,194
1695161876787899000,-9.264363289,-1.813607812,-1.238999367,-0.294707507,0.166539043,0.100589581,-7,-1,-6,13,4,-8.414422035,3.361459255,1.15520227,-0.388369083,0.057289433,0.184392035,-53,-34,-12,44,194
1695161876788899000,-9.300276756,-1.801636815,-1.237802267,-0.271258801,0.161476254,0.116577335,-6,2,-6,12,4,-8.422801971,3.350685358,1.145625472,-0.377577305,0.04623124,0.179329246,-54,-34,-9,42,194
1695161876789899000,-9.327810287,-1.788468719,-1.238999367,-0.249542102,0.156013787,0.131765693,-6,-2,-6,13,7,-8.434772491,3.341108561,1.136048675,-0.366252691,0.035839204,0.173866764,-47,-35,-8,43,196
1695161876831874500,-9.25957489,-1.532289028,-1.15161097,-0.241947934,0.128168449,0.266329229,-11,0,-6,13,2,-8.659827232,3.580528736,1.017535686,-0.222229704,-0.028777948,0.011724349,-49,-35,-8,38,191
1695161876832874500,-9.238027573,-1.529894829,-1.137245774,-0.263931066,0.133764163,0.267128646,-9,5,-6,13,4,-8.668207169,3.606864929,1.013944387,-0.226226643,-0.024514547,-0.000399694,-51,-34,-8,45,194
1695161876833874500,-9.214085579,-1.520318031,-1.125274777,-0.287646264,0.140026033,0.267528325,-6,0,-6,12,4,-8.677783966,3.624821424,1.013944387,-0.229557425,-0.021450229,-0.008660031,-51,-36,-12,44,193
1695161876834874500,-9.191340446,-1.516726732,-1.11450088,-0.31322667,0.14695406,0.267261863,-9,0,-6,12,2,-8.6957407,3.649960518,1.015141487,-0.235552832,-0.015987748,-0.021316998,-51,-35,-9,44,194
1695161876835874500,-9.168595314,-1.517923832,-1.097741485,-0.340672255,0.154415011,0.266728938,-8,0,-6,13,3,-8.712499619,3.67869091,1.012747288,-0.242347628,-0.009725881,-0.034240428,-54,-34,-8,40,194
1695161876883846400,-9.012971878,-1.890222192,-0.948103845,-0.852546692,0.253405809,0.191586524,-11,0,-6,13,7,-8.683769226,4.010287762,1.072602391,-0.430736601,0.154681474,-0.243946403,-47,-35,-8,44,196
1695161876884846400,-9.014169693,-1.928529501,-0.942118347,-0.864404321,0.249275655,0.18599081,-8,0,-6,13,3,-8.672995567,4.025850296,1.085770488,-0.43686524,0.159611031,-0.248209804,-50,-35,-9,40,193
1695161876885846400,-9.017760277,-1.968033791,-0.942118347,-0.873597264,0.243813157,0.180261865,-5,1,-6,13,7,-8.661025047,4.039018154,1.097741485,-0.442327708,0.163474724,-0.251407355,-53,-34,-9,43,194
1695161876886846400,-9.020154953,-2.00753808,-0.937329948,-0.879459381,0.237284839,0.174399704,-8,0,-8,13,4,-8.647856712,4.05338335,1.113303781,-0.447390497,0.166405827,-0.253805518,-49,-35,-9,44,194
1695161876887846400,-9.02374649,-2.043451071,-0.93014735,-0.882390499,0.229557425,0.168537512,-6,4,-6,13,7,-8.635885239,4.067748547,1.126471877,-0.452320069,0.168404296,-0.255137831,-51,-36,-9,41,192
1695161876938810800,-9.059659004,-2.343923569,-0.870292306,-0.60100615,0.036238898,0.135629401,-4,1,-6,11,4,-8.529343605,4.04979229,1.210268974,-0.462578863,0.076741189,-0.087932616,-46,-34,-13,47,197
1695161876939810800,-9.058462143,-2.333149672,-0.867898107,-0.582353771,0.02917764,0.139626339,-7,4,-4,13,7,-8.530540466,4.036623955,1.200692177,-0.455784082,0.069280244,-0.072211333,-54,-35,-9,46,192
1695161876940810800,-9.058462143,-2.321178436,-0.871489406,-0.564634025,0.022782542,0.144022971,-7,0,-6,13,7,-8.535328865,4.021061897,1.18991828,-0.447790205,0.062085759,-0.056223582,-50,-34,-12,44,193
1695161876941810800,-9.060855865,-2.303221941,-0.871489406,-0.548379779,0.017053599,0.148819283,-8,3,-5,13,4,-8.541314125,4.004302502,1.182735682,-0.438863724,0.055290964,-0.040102605,-50,-34,-8,41,196
1695161876942810800,-9.066842079,-2.286462545,-0.877474904,-0.533324659,0.011990812,0.153882071,-6,1,-6,13,4,-8.543708801,3.986345768,1.173158884,-0.428738147,0.048895866,-0.024248086,-50,-36,-7,44,194
1695161876977789200,-9.44512558,-2.160767078,-1.027112484,-0.463111788,-0.046497703,0.21556814,-8,0,-7,13,4,-8.599972725,3.858256102,1.167173386,-0.183592647,0.030643184,0.199713632,-49,-12,-12,46,196
1695161876978789200,-9.479841232,-2.166752577,-1.037886381,-0.46484378,-0.05142726,0.215301678,-6,2,-6,12,3,-8.598775864,3.8642416,1.173158884,-0.178130165,0.03437366,0.204909652,-50,-34,-12,42,192
1695161876979789200,-9.508571625,-2.173935175,-1.049857497,-0.466709018,-0.056623276,0.214901984,-6,5,-7,14,5,-8.597578049,3.869029999,1.179144382,-0.173600301,0.038370594,0.209439516,-54,-35,-8,40,194
1695161876980789200,-9.538499832,-2.179920673,-1.060631394,-0.468574256,-0.062218986,0.214102611,-6,2,-6,13,7,-8.593987465,3.876212597,1.185129881,-0.170535982,0.042500768,0.213436455,-51,-38,-12,42,193
1695161876981789200,-9.570821762,-2.184709072,-1.074996591,-0.470306277,-0.068081163,0.212770298,-6,0,-6,14,3,-8.59278965,3.878606796,1.192312479,-0.169070452,0.045298621,0.215834603,-50,-34,-9,42,193
1695161877015770600,-9.726444244,-2.296039343,-1.389834046,-0.472571194,-0.147620216,0.137761101,-7,-1,-6,12,3,-8.616731644,3.797203779,1.283292055,-0.271791726,0.106451757,0.234353751,-50,-34,-9,44,194
1695161877016770600,-9.706093788,-2.299630642,-1.399410844,-0.471771836,-0.146820813,0.131765693,-6,3,-6,13,7,-8.622717857,3.784035683,1.283292055,-0.27845329,0.10778407,0.233287901,-51,-35,-8,42,196
