timestamp,left_data_Ac_X,left_data_Ac_Y,left_data_Ac_Z,left_data_Gy_X,left_data_Gy_Y,left_data_Gy_Z,left_data_flex_1,left_data_flex_2,left_data_flex_3,left_data_flex_4,left_data_flex_5,right_data_Ac_X,right_data_Ac_Y,right_data_Ac_Z,right_data_Gy_X,right_data_Gy_Y,right_data_Gy_Z,right_data_flex_1,right_data_flex_2,right_data_flex_3,right_data_flex_4,right_data_flex_5
1695161391817495500,2.932897091,3.94205308,-8.757989883,-0.334143966,0.065416537,-0.309629381,-2,5,-96,-2,19,-8.55448246,3.185485363,0.539892495,0.295107216,-0.079139359,0.436732024,-44,-11,-20,31,178
1695161391818495500,2.932897091,3.94085598,-8.742427826,-0.336941808,0.07474272,-0.304566622,-4,6,-98,-4,20,-8.566453934,3.19506216,0.542286694,0.286846846,-0.073543645,0.423542112,-43,-12,-18,33,181
1695161391819495500,2.932897091,3.94205308,-8.74003315,-0.339473218,0.083935678,-0.29923737,-1,7,-101,-3,24,-8.583212852,3.204638958,0.541089594,0.277653903,-0.067947932,0.410085768,-41,-9,-17,31,183
1695161391820495500,2.93648839,3.943250179,-8.723274231,-0.341471672,0.092995405,-0.293908119,-2,9,-99,-5,17,-8.599972725,3.214215755,0.538695395,0.267395109,-0.061952524,0.396229684,-41,-12,-17,32,178
1695161391821495500,2.93529129,3.945644379,-8.710105896,-0.342803985,0.101921894,-0.288445652,-1,5,-97,-3,19,-8.615534782,3.228580952,0.536301196,0.256203681,-0.055290964,0.382107198,-41,-11,-20,31,181
1695161391862469100,3.173514366,4.059369087,-8.317456245,-0.294307798,0.272990793,-0.164940268,-2,3,-101,-6,24,-8.953117371,3.416525841,0.622492433,-0.028511487,0.119641654,0.100589581,-42,-9,-19,31,183
1695161391863469100,3.183091164,4.090493679,-8.309077263,-0.297372133,0.279119462,-0.161209792,-1,9,-100,-2,20,-8.971074104,3.422511339,0.635660529,-0.045698319,0.132298619,0.084735066,-44,-14,-21,31,183
1695161391864469100,3.189076662,4.12640667,-8.305485725,-0.301502287,0.283249617,-0.158678412,-4,7,-100,-4,23,-8.983044624,3.428496838,0.641646028,-0.057955589,0.141358346,0.073676877,-42,-15,-20,29,181
1695161391865469100,3.193865061,4.167108059,-8.306682587,-0.306298614,0.285381317,-0.157212853,-3,9,-102,-3,19,-8.993818283,3.434482336,0.654814184,-0.069413476,0.150151595,0.063151613,-44,-12,-17,31,180
1695161391866469100,3.192667961,4.207809448,-8.312667847,-0.312027574,0.285514534,-0.157212853,-1,6,-102,-5,20,-9.004592896,3.441664934,0.666785181,-0.08020521,0.158545166,0.053292494,-43,-15,-20,31,181
1695161391901448000,2.658761024,5.177461147,-9.022548676,-0.384238869,0.005196018,-0.337874413,-1,5,-98,-4,19,-8.921992302,3.490746021,0.960074902,-0.203177631,0.247010723,-0.034640122,-41,-12,-15,31,180
1695161391902448000,2.63721323,5.213374138,-9.048885345,-0.38277334,-0.005728943,-0.346800923,-2,5,-101,-2,17,-8.908824921,3.482366323,0.980425596,-0.204776406,0.248476252,-0.035306279,-42,-13,-19,31,178
1695161391903448000,2.621650934,5.239710331,-9.06205368,-0.380774885,-0.013056661,-0.353329241,-2,10,-100,-4,21,-8.896853447,3.473986626,0.998382092,-0.20624195,0.249675348,-0.035839204,-43,-9,-17,31,182
1695161391904448000,2.615665436,5.258863926,-9.069235802,-0.377977014,-0.016653905,-0.356926501,-4,2,-99,-2,18,-8.884882927,3.471592426,1.015141487,-0.206908107,0.25087443,-0.036238898,-40,-13,-16,30,183
1695161391905448000,2.613271236,5.272032261,-9.070432663,-0.37451303,-0.01612098,-0.357459426,-2,9,-96,-1,22,-8.876502991,3.469198227,1.033097982,-0.207174569,0.251807034,-0.036638591,-42,-11,-18,30,183
1695161391937425300,2.531868219,5.525817394,-8.892065048,-0.288445652,0.245278716,-0.039303213,-1,7,-102,-7,25,-8.787917137,3.38180995,1.197100878,-0.169336915,0.209839195,-0.060753446,-44,-15,-19,30,181
1695161391938425300,2.521094322,5.554547787,-8.890868187,-0.288978547,0.249941811,-0.03237519,-1,4,-102,-6,20,-8.77834034,3.377021551,1.200692177,-0.166272581,0.205042884,-0.063817769,-41,-13,-17,31,182
1695161391939425300,2.515108824,5.576095581,-8.884882927,-0.29031086,0.25300613,-0.028245023,-1,5,-99,-2,19,-8.76636982,3.374627352,1.206677675,-0.162408888,0.19838132,-0.068480857,-44,-12,-19,31,181
1695161391940425300,2.511517525,5.602431774,-8.881291389,-0.29244259,0.253938764,-0.026379786,-4,5,-101,0,18,-8.755595207,3.372233152,1.205480576,-0.159611031,0.1931853,-0.072211333,-43,-9,-20,30,180
1695161391941425300,2.505532026,5.623979568,-8.874108315,-0.295107216,0.253272593,-0.026779478,0,6,-96,-2,19,-8.743624687,3.367444754,1.207874775,-0.15681316,0.18798928,-0.076075032,-43,-11,-21,25,180
1695161391974403200,2.396595955,5.762843609,-8.774748802,-0.364254236,0.127369061,-0.164940268,-2,5,-97,-6,17,-8.576030731,3.45603013,1.084573388,-0.148952529,0.094727404,-0.179862171,-41,-12,-19,28,182
1695161391975403200,2.384624958,5.749675274,-8.753201485,-0.361722827,0.120840736,-0.169336915,-4,10,-95,-6,16,-8.572439194,3.471592426,1.067813993,-0.152949467,0.090730481,-0.189721286,-43,-9,-15,31,183
1695161391976403200,2.37624526,5.738901615,-8.736441612,-0.358658493,0.116044402,-0.171468601,-2,7,-97,-4,17,-8.571242332,3.478775024,1.063025594,-0.155214384,0.088998467,-0.19478406,-41,-12,-17,30,183
1695161391977403200,2.361880064,5.72812748,-8.718485832,-0.354661554,0.111647777,-0.172267988,-1,9,-99,-4,17,-8.568847656,3.490746021,1.059434295,-0.159211323,0.086600304,-0.202378258,-34,-8,-19,26,180
1695161391978403200,2.349909067,5.720944881,-8.690952301,-0.349865228,0.107917301,-0.171601832,-1,7,-93,-4,16,-8.56046772,3.503914118,1.047463298,-0.165073514,0.084202148,-0.212903515,-41,-11,-19,28,182
1695161392010382600,2.170343876,5.562927723,-7.867346764,-0.110182241,0.042234302,0.017453292,16,6,-99,-5,17,-8.628703117,3.684676409,0.912190855,-0.302035213,0.095393561,-0.36412096,-41,-9,-17,28,178
1695161392011382600,2.165555477,5.57250452,-7.807491779,-0.093261868,0.033840735,0.040102605,-5,5,-99,-4,16,-8.653841972,3.694253206,0.896628559,-0.310029089,0.095660031,-0.373180717,-44,3,-20,30,182
1695161392012382600,2.165555477,5.577292919,-7.764396191,-0.081404284,0.027045943,0.057156201,-7,11,-100,-4,15,-8.676587105,3.702632904,0.883460402,-0.315491587,0.095793262,-0.379575789,-45,-7,-19,28,181
1695161392013382600,2.166752577,5.579687119,-7.722497463,-0.070479326,0.020117918,0.074209802,-3,9,-100,-7,16,-8.696937561,3.709815502,0.875080705,-0.320421129,0.095393561,-0.385837674,-44,-15,-21,25,181
1695161392014382600,2.167949677,5.57848978,-7.684190273,-0.059954058,0.01292343,0.091796324,-4,5,-100,-4,18,-8.718485832,3.7169981,0.870292306,-0.325084209,0.095127106,-0.391833097,-43,-12,-20,29,179
1695161392045363200,2.217030764,5.561730385,-7.286752701,0.081404284,-0.174932614,0.375845343,-7,4,-100,-4,17,-9.027337074,4.13239193,0.824802458,-0.389834613,0.098058186,-0.400226623,-43,-9,-17,25,182
1695161392046363200,2.223016262,5.567716122,-7.280767441,0.085934147,-0.186790213,0.385837674,-5,2,-102,-5,14,-9.040505409,4.146757126,0.809240162,-0.39209953,0.096459419,-0.391699851,-41,-11,-20,26,182
1695161392047363200,2.225410461,5.567716122,-7.278373241,0.090464011,-0.19784838,0.395163864,-4,3,-98,-6,29,-9.050082207,4.156333923,0.798466265,-0.393964767,0.094194487,-0.381840736,-43,-13,-20,28,180
1695161392048363200,2.23019886,5.565321922,-7.275979042,0.094993874,-0.208373666,0.404090345,-2,3,-99,-6,17,-9.054870605,4.163516521,0.78170687,-0.395163864,0.091663092,-0.370782524,-41,-8,-19,29,181
1695161392049363200,2.237381458,5.567716122,-7.271190643,0.099390499,-0.218099549,0.412750393,-6,6,-101,-5,18,-9.060855865,4.169502258,0.767341673,-0.395963252,0.088865243,-0.35839203,-43,-12,-20,29,182
1695161392077366100,2.157175779,5.519832134,-7.389703751,0.240748852,-0.266062796,0.594344556,-4,4,-99,-3,16,-9.223662376,4.102464676,0.634463429,-0.33760795,-0.004130168,0.06674885,-44,-15,-17,28,180
1695161392078366100,2.144007683,5.524620533,-7.404068947,0.250208259,-0.267128646,0.603937209,-6,5,-99,-4,20,-9.236829758,4.095282078,0.63206923,-0.332012266,-0.005862175,0.090197548,-44,-12,-18,26,180
1695161392079366100,2.136825085,5.535394192,-7.419631004,0.259134769,-0.268460959,0.613263428,-3,6,-97,-4,14,-9.252392769,4.08809948,0.627280831,-0.326283306,-0.007194487,0.11298009,-42,-13,-19,26,182
1695161392080366100,2.127248287,5.543774128,-7.429207802,0.267794788,-0.270059735,0.621790171,-2,5,-97,-4,17,-9.266757965,4.078522682,0.627280831,-0.320287883,-0.008526799,0.135229707,-44,-9,-18,31,180
1695161392081366100,2.11767149,5.555745125,-7.437587738,0.276055127,-0.27165848,0.630183756,-3,3,-101,-4,16,-9.279925346,4.068945885,0.629675031,-0.314159274,-0.009326187,0.157079637,-41,-11,-18,28,181
1695161392111327000,1.934514999,5.445611954,-7.576451302,0.439263374,-0.308830023,0.723978519,-4,5,-101,-8,15,-9.419986725,3.645172119,0.48482585,-0.195183769,-0.055690661,0.506012261,-43,-11,-17,30,178
1695161392112327000,1.924938202,5.406107426,-7.594407558,0.463511467,-0.316157728,0.729707539,-7,3,-99,-4,17,-9.423578262,3.612850428,0.474051923,-0.188255742,-0.060886677,0.520134747,-42,-16,-17,29,182
1695161392113327000,1.915361404,5.364208698,-7.612364292,0.491490036,-0.324551284,0.735836148,-6,0,-97,-14,14,-9.425971985,3.580528736,0.465672225,-0.181194484,-0.066215925,0.533724368,-43,-13,-19,25,180
1695161392114327000,1.905784607,5.31273365,-7.635109425,0.523199081,-0.333744258,0.742897391,-8,5,-95,-4,15,-9.428366661,3.545812607,0.456095427,-0.174133226,-0.071545176,0.546514511,-43,-13,-17,29,180
1695161392115327000,1.892616391,5.261258125,-7.661445618,0.558638573,-0.34440276,0.750757992,-8,5,-98,-4,16,-9.427168846,3.511096716,0.447715729,-0.166805506,-0.077007659,0.558505356,-42,-11,-19,31,181
1695161392147306000,1.649604917,3.250128746,-8.481459618,2.599208117,-0.829630911,1.008693695,4,9,-95,-4,17,-9.113529205,3.174711466,0.578199685,-0.065150075,-0.041568145,0.543583453,-41,-8,-23,31,182
1695161392148306000,1.641225219,3.044227362,-8.535328865,2.809447289,-0.854811668,1.034140825,2,6,-92,-6,20,-9.096769333,3.175908566,0.59376204,-0.066215925,-0.03237519,0.527995408,-38,-8,-17,30,183
1695161392149306000,1.634042621,2.811989784,-8.599972725,3.035007715,-0.878260314,1.060920358,2,1,-98,-5,16,-9.082404137,3.177105665,0.608127236,-0.068214394,-0.023315467,0.511607945,-42,-9,-18,31,180
1695161392150306000,1.620874524,2.552218914,-8.686163902,3.275223732,-0.900376737,1.089698315,4,4,-91,-5,21,-9.070432663,3.177105665,0.614112735,-0.071145482,-0.014255743,0.494554371,-44,-9,-15,31,181
1695161392151306000,1.606509328,2.273294449,-8.777143478,3.532892704,-0.921560466,1.120607972,8,6,-92,-4,21,-9.054870605,3.178302765,0.624886632,-0.074476264,-0.005329249,0.476834595,-39,-7,-19,31,183
1695161392183305300,1.594538331,-7.566874504,-15.67244434,4.365588188,-1.188955665,2.14102602,24,6,-89,-5,21,-8.791508675,3.19506216,0.859518409,-0.231689125,0.072078094,0.19118683,-40,-9,-17,31,183
1695161392184305300,1.66995573,-7.87931776,-16.43978691,4.365588188,-1.218266487,2.248276949,27,9,-89,0,20,-8.786720276,3.19506216,0.870292306,-0.237151608,0.070612557,0.181327716,-43,-8,-18,31,182
1695161392185305300,1.790862918,-8.076839447,-17.18438339,4.365588188,-1.252240419,2.358325958,28,6,-92,-2,23,-8.781931877,3.193865061,0.878672004,-0.241947934,0.068747319,0.172134757,-43,-12,-18,31,181
1695161392186305300,1.946485996,-8.141483307,-17.88348961,4.365588188,-1.288479328,2.469441175,24,5,-91,-4,23,-8.774748802,3.189076662,0.89184016,-0.245811626,0.066349156,0.163208261,-43,-11,-19,31,180
1695161392187305300,2.127248287,-8.092401505,-18.51675606,4.365588188,-1.324052095,2.577624798,24,6,-89,-9,21,-8.768763542,3.192667961,0.902614057,-0.249275655,0.063551299,0.154947937,-43,-8,-17,31,178
1695161392218285400,4.128800869,-3.706224203,-15.08466816,4.365588188,-0.197049007,2.495954037,-2,5,-101,-12,24,-8.839392662,3.242946148,0.979228497,-0.233287901,-0.071678407,0.120973967,-44,-7,-17,30,183
1695161392219285400,3.934870481,-3.696647406,-14.53878975,4.365588188,-0.117909648,2.381774902,-4,9,-100,-13,23,-8.844181061,3.236960649,0.972045898,-0.227159262,-0.08207044,0.126303226,-38,-8,-17,31,183
1695161392220285400,3.721786499,-3.697844505,-13.97136402,4.365588188,-0.049295556,2.266396761,-3,5,-96,-7,25,-8.851364136,3.228580952,0.962469101,-0.220364481,-0.09246248,0.132298619,-40,-12,-18,30,183
1695161392221285400,3.435679436,-3.691859007,-13.18367195,4.365588188,0.025980091,2.110516071,-3,3,-101,-10,25,-8.858546257,3.222595453,0.958877802,-0.212503821,-0.10285452,0.138560489,-42,-9,-19,30,180
1695161392222285400,3.220201254,-3.695450306,-12.54920864,4.365588188,0.073943339,1.990741134,-2,2,-100,-13,23,-8.860940933,3.214215755,0.949300945,-0.203843787,-0.113379791,0.145621747,-44,-9,-20,29,180
1695161392255243500,0.894234359,0.271741897,1.428141356,4.365588188,1.070912719,-0.261666149,-7,0,-97,-8,29,-9.070432663,3.031059265,0.725443125,0.091796324,-0.282317013,0.323218971,-40,-9,-19,31,182
1695161392256243500,0.70509243,0.306457818,2.121262789,4.365588188,1.189888239,-0.337208271,-8,2,-96,-10,30,-9.083600998,3.027467966,0.717063427,0.108983152,-0.28884533,0.332278699,-44,-7,-18,28,180
1695161392257243500,0.512359142,0.361524463,2.811989784,4.365588188,1.310062766,-0.406754971,-8,3,-99,-8,30,-9.097966194,3.029862165,0.711077929,0.125637069,-0.29497394,0.340805531,-41,-9,-19,31,182
1695161392258243500,0.314837515,0.260968,3.406949043,4.365588188,1.429571152,-0.459914237,-6,2,-100,-6,35,-9.10634613,3.026270866,0.699106872,0.141491577,-0.300969362,0.34906584,-43,-13,-19,30,183
1695161392259243500,0.08379706,0.034715924,3.906140089,4.365588188,1.543617129,-0.496286362,-5,1,-98,-6,29,-9.114726067,3.026270866,0.695515573,0.156546697,-0.306698322,0.357192963,-39,-9,-18,29,179
1695161392294222000,-2.683900118,-7.461529732,7.61356163,1.317923427,1.309796333,-0.206908107,-12,-1,-102,-9,29,-9.056067467,2.724601507,0.439336002,0.34227106,-0.392898917,0.432868302,-39,-12,-17,31,183
1695161392295222000,-2.671929121,-7.576451302,7.757213593,1.327782512,1.201879025,-0.203843787,-8,2,-97,-9,33,-9.038111687,2.689885616,0.427365005,0.353462487,-0.396496177,0.430869848,-43,-11,-19,31,183
1695161392296222000,-2.633621931,-7.650671482,7.887697697,1.353629351,1.095560431,-0.206774876,-10,6,-101,-6,30,-9.027337074,2.659958124,0.416591108,0.365053594,-0.399693698,0.428071976,-40,-9,-18,31,182
1695161392297222000,-2.571372509,-7.684190273,8.025363922,1.392133236,0.993372142,-0.21503523,-7,5,-101,-10,35,-9.012971878,2.628833532,0.40940848,0.377310872,-0.402358323,0.424474716,-41,-12,-19,31,180
1695161392298222000,-2.497152328,-7.668628216,8.154650688,1.439696789,0.89704591,-0.228091896,-7,0,-102,-12,32,-8.995016098,2.597708941,0.397437483,0.389967829,-0.404756516,0.419811636,-41,-13,-20,31,181
1695161392330222500,-1.381454349,-5.595249176,8.825027466,1.355627775,0.342670739,-0.704660058,-12,1,-88,-7,32,-8.682572365,2.558204412,0.563834488,0.597142458,-0.351730466,0.110981621,-40,-11,-19,31,182
1695161392331222500,-1.364694953,-5.552153587,8.801085472,1.292476296,0.336808592,-0.712254226,-11,3,-97,-12,27,-8.672995567,2.585737944,0.587776542,0.597542107,-0.344935685,0.083802447,-41,-9,-17,31,183
1695161392332222500,-1.341950059,-5.519832134,8.774748802,1.228125572,0.331079632,-0.717450202,-14,2,-100,-8,30,-8.659827232,2.620453835,0.615309834,0.596476257,-0.338540584,0.056490045,-39,-5,-18,31,181
1695161392333222500,-1.322796464,-5.487510204,8.750806808,1.163375139,0.325483918,-0.719981611,-11,3,-101,-8,31,-8.644265175,2.649184227,0.640448928,0.593545139,-0.332545161,0.02917764,-39,-8,-11,31,180
1695161392334222500,-1.303642869,-5.468356609,8.720879555,1.098757982,0.320021451,-0.720647812,-8,0,-98,-8,31,-8.628703117,2.679111719,0.658405483,0.589015305,-0.326949447,0.001998469,-39,-9,-17,33,183
1695161392365178800,-1.138442874,-5.771223068,8.531737328,0.456450224,0.335076571,-0.565966308,-8,6,-101,-10,31,-8.519766808,2.906560898,0.693121374,0.524931073,-0.361722827,-0.327615619,-41,-8,-19,31,182
1695161392366178800,-1.15161097,-5.787982464,8.51019001,0.458315462,0.339206725,-0.556107163,-11,2,-99,-11,31,-8.52216053,2.907757998,0.690727174,0.53292495,-0.369450212,-0.332678407,-42,-17,-5,32,180
1695161392367178800,-1.163581967,-5.80234766,8.487444878,0.462712079,0.342137843,-0.546381295,-8,3,-100,-9,30,-8.518569946,2.912546396,0.685938776,0.541984677,-0.37704441,-0.336941808,-39,-13,-19,28,180
1695161392368178800,-1.175553083,-5.809530258,8.457517624,0.468707502,0.344269514,-0.536388993,-6,4,-100,-8,31,-8.519766808,2.919728994,0.679953277,0.552376747,-0.384638578,-0.340006143,-38,-12,-17,31,183
1695161392369178800,-1.18991828,-5.811924458,8.432378769,0.476168454,0.345735073,-0.526263416,-13,5,-98,-10,32,-8.52216053,2.923320293,0.676361978,0.563701391,-0.392366022,-0.34227106,-42,-4,-17,31,183
1695161392399162500,-1.359906554,-5.208585739,8.104372978,0.477900445,0.311894357,-0.346134782,-8,2,-100,-10,30,-9.223662376,3.069366693,0.548272192,0.891450226,-0.510408878,-0.330413461,-38,-12,-17,30,180
1695161392400162500,-1.365892053,-5.166687489,8.098387718,0.458315462,0.312427253,-0.338807046,-12,3,-102,-12,34,-9.269151688,3.094505787,0.551863492,0.908637047,-0.512940288,-0.331346095,-41,-2,-19,31,181
1695161392401162500,-1.373074651,-5.12957716,8.091204643,0.437531412,0.31322667,-0.331612557,-12,5,-100,-8,32,-9.309853554,3.118447781,0.563834488,0.924758077,-0.514805496,-0.332545161,-39,-11,-13,31,183
1695161392402162500,-1.381454349,-5.099649429,8.081627846,0.416214377,0.314026028,-0.324551284,-12,0,-98,-9,32,-9.349357605,3.144783974,0.571017087,0.939679921,-0.516004622,-0.333877474,-43,-12,-2,31,183
1695161392403162500,-1.387439847,-5.074510574,8.076839447,0.394497722,0.315091878,-0.317356825,-10,1,-97,-6,32,-9.385271072,3.171120167,0.574608386,0.953402758,-0.516537488,-0.335476279,-49,-6,-18,31,180
1695161392435155400,-1.467645645,-4.42448473,7.788338184,0.080338441,0.25447166,-0.179196015,-11,3,-100,-7,31,-9.070432663,3.442862034,0.732625723,1.067315459,-0.464710563,-0.296705961,-39,-10,-17,31,183
1695161392436155400,-1.455674648,-4.362235546,7.76679039,0.062751912,0.246477783,-0.171068922,-10,2,-100,-6,34,-9.015366554,3.430891037,0.748188019,1.073310852,-0.461379766,-0.29031086,-38,-10,-18,31,183
1695161392437155400,-1.443703651,-4.297592163,7.745242596,0.043966308,0.238483921,-0.162808567,-8,1,-98,-6,31,-8.960299492,3.42011714,0.766144514,1.079705954,-0.457782537,-0.283782542,-39,-5,-18,31,182
1695161392438155400,-1.430535555,-4.23294878,7.720103264,0.023448698,0.230623275,-0.15428178,-8,3,-97,-9,27,-8.907627106,3.410540342,0.782903969,1.086767197,-0.454052061,-0.277120978,-41,-8,-17,31,183
1695161392439155400,-1.413776159,-4.155137062,7.69855547,0.001199081,0.222895861,-0.145621747,-10,3,-102,-5,30,-8.84896946,3.399766445,0.798466265,1.094361424,-0.449921876,-0.270326167,-40,-9,-19,34,183
1695161392483133800,-0.754173517,-2.199074268,6.618770599,-0.792592645,0.058488514,0.034773353,-11,0,-96,-10,31,-7.929595947,3.570951939,1.541865945,1.131532907,-0.257935673,-0.254205197,-42,-11,-16,31,182
1695161392484133800,-0.694318473,-2.055422068,6.528987885,-0.867068946,0.05249311,0.045032158,-6,3,-89,-10,29,-7.909245491,3.594893932,1.586158633,1.117943406,-0.243546709,-0.260467082,-42,-12,-17,31,182
1695161392485133800,-0.642843127,-1.904587507,6.43321991,-0.946075082,0.047830015,0.057289433,-11,2,-96,-4,29,-7.892486095,3.616441727,1.623268723,1.102355242,-0.229157731,-0.267528325,-39,-8,-9,31,181
1695161392486133800,-0.597353339,-1.751358509,6.333860397,-1.029610991,0.045431852,0.070346095,-12,3,-93,-13,30,-7.87931776,3.636792421,1.662773132,1.085301638,-0.214635521,-0.274989277,-41,-11,-15,31,177
1695161392487133800,-0.541089594,-1.607706428,6.220136166,-1.118076563,0.044232771,0.085267991,-12,1,-89,-9,29,-7.872135162,3.659537315,1.699883223,1.066649318,-0.200379789,-0.282983154,-39,-13,-17,31,184
1695161392519112900,-0.471657723,0.18674773,4.050989151,-3.45561862,0.462578863,0.773806989,-8,1,-68,2,28,-8.386888504,4.082113743,2.266111851,0.546647787,0.026246555,-0.498284817,-39,-7,-19,31,181
1695161392520112900,-0.541089594,0.213083953,3.916913986,-3.589382887,0.496153146,0.829231262,-8,4,-68,2,30,-8.419210434,4.112041473,2.297236443,0.514672279,0.037970904,-0.510142446,-42,-9,-17,31,182
1695161392521112900,-0.609324336,0.229843363,3.785232782,-3.721681595,0.527728915,0.886387408,-6,7,-67,2,30,-8.450334549,4.143166065,2.325966835,0.482297063,0.050494641,-0.521067381,-44,-4,-18,31,182
1695161392522112900,-0.694318473,0.240617275,3.655946016,-3.854246616,0.557039797,0.94580853,-8,3,-64,-2,26,-8.474276543,4.176684856,2.359485865,0.449655443,0.063284837,-0.531592667,-42,-12,-19,30,183
1695161392523112900,-0.785298169,0.241814375,3.538630009,-3.985346079,0.583952546,1.00562942,-7,8,-64,3,26,-8.495824814,4.211400986,2.390610456,0.416347623,0.076607957,-0.541584969,-41,-15,-21,31,180
1695161392600066400,-9.314641953,-2.920926094,0.122104287,-1.395730495,0.95726645,0.200646251,-2,17,-7,19,37,-9.080010414,3.432088137,1.528697729,-0.100189894,-0.08313629,-0.045565084,-39,-8,-21,28,184
1695161392601066400,-9.331400871,-3.071760893,0.087388359,-1.451687694,0.969257295,0.244079635,-7,6,-8,18,40,-9.139864922,3.453635931,1.520318031,-0.076474734,-0.090996936,-0.043833077,-42,-8,-17,30,183
1695161392602066400,-9.345766068,-3.214215755,0.04309563,-1.495387435,0.97551918,0.283382833,-3,10,-6,14,43,-9.197325706,3.484760523,1.517923832,-0.053292494,-0.09659265,-0.042633995,-39,-8,-25,30,181
1695161392603066400,-9.363722801,-3.348291159,0.001197101,-1.527629375,0.976451755,0.318555921,-2,5,-7,15,39,-9.255983353,3.520673513,1.52510643,-0.030776417,-0.100056656,-0.041967839,-44,-8,-19,30,182
1695161392604066400,-9.382876396,-3.476380825,-0.047884032,-1.548413515,0.971655428,0.349998444,-2,7,-7,18,40,-9.312247276,3.561375141,1.534683347,-0.009725881,-0.101655439,-0.041568145,-42,-9,-18,28,180
1695161392643042000,-9.928754807,-4.499902248,-1.484405041,-0.55370903,0.026513018,0.154947937,-5,11,-17,19,40,-9.299078941,4.547786236,1.883039594,-0.112180702,0.138960183,0.014522205,-39,-8,-15,29,183
1695161392644042000,-9.967061996,-4.458003521,-1.576581836,-0.463511467,-0.063018374,0.103787132,-1,9,-12,20,41,-9.277531624,4.550180435,1.883039594,-0.136295557,0.148286372,0.03011026,-44,-9,-18,31,183
1695161392645042000,-10.00776291,-4.405331135,-1.666364431,-0.374246567,-0.154548228,0.048895866,-1,9,-11,20,39,-9.254786491,4.545392036,1.879448295,-0.160676882,0.156013787,0.047430322,-41,-9,-17,31,183
1695161392646042000,-10.0508585,-4.344278812,-1.759738207,-0.286980093,-0.248076573,-0.009725881,-1,9,-13,18,39,-9.234436035,4.534617901,1.883039594,-0.185324654,0.161742732,0.067015313,-42,-9,-19,30,183
1695161392647042000,-10.10233402,-4.268861771,-1.853112102,-0.202378258,-0.342670739,-0.071811639,-3,5,-13,16,40,-9.218873978,4.515464306,1.880645394,-0.209306285,0.166006133,0.088465542,-40,-9,-17,30,182
1695161392684998500,-11.71842003,-2.444479942,-2.762908697,0.644705951,-1.85790956,-1.564134836,-7,5,-12,18,39,-9.606734276,3.503914118,1.790862918,-0.36984992,-0.013056661,0.601938725,-39,-9,-17,27,181
1695161392685998500,-11.78426075,-2.335543871,-2.755726099,0.642973959,-1.898944855,-1.64860332,-4,6,-9,19,39,-9.63067627,3.446453333,1.78368032,-0.357059717,-0.028245023,0.620857537,-42,-12,-18,28,183
1695161392686998500,-11.83813,-2.23019886,-2.748543501,0.636445642,-1.934917331,-1.733338475,-3,10,-9,19,39,-9.647436142,3.390189648,1.771709204,-0.34227106,-0.043433387,0.638177633,-41,-9,-17,28,179
1695161392687998500,-11.88122559,-2.122459888,-2.738966703,0.624188364,-1.965826988,-1.817007661,-1,17,-7,13,36,-9.659406662,3.331531763,1.764526606,-0.325617135,-0.058754977,0.654032171,-42,-11,-21,25,183
1695161392688998500,-11.91594219,-2.018311977,-2.723404408,0.607134759,-1.991007566,-1.900410414,-1,7,-16,16,39,-9.671378136,3.277662039,1.745373011,-0.307098001,-0.073943339,0.668154716,-37,-9,-18,29,183
1695161392719978800,-11.4406929,-0.659602582,-2.127248287,-0.52466464,-1.468208313,-3.262566805,-1,9,-6,22,39,-9.151836395,2.800018787,1.601720929,0.140026033,-0.258468598,0.70066309,-41,-9,-18,30,182
1695161392720978800,-11.39999104,-0.645237386,-2.079364061,-0.612730443,-1.393598795,-3.32012248,-1,-9,-6,18,39,-9.101557732,2.804807186,1.600523829,0.156546697,-0.259667695,0.692136347,-41,-11,-18,30,182
1695161392721978800,-11.36168385,-0.628477931,-2.024297476,-0.701062799,-1.315125585,-3.375546694,-1,17,-5,16,40,-9.051279068,2.807201385,1.601720929,0.171735078,-0.259934127,0.682943344,-40,-7,-20,31,183
1695161392722978800,-11.3173914,-0.621295333,-1.97162509,-0.790061235,-1.232522249,-3.428572655,-1,9,-6,14,39,-8.998606682,2.811989784,1.604115129,0.185591117,-0.259134769,0.673084199,-39,-6,-13,31,182
1695161392723978800,-11.27668953,-0.624886632,-1.926135302,-0.877993882,-1.145921826,-3.479333878,-1,17,-5,16,35,-8.942343712,2.817975283,1.601720929,0.198114842,-0.257136285,0.662558973,-39,-9,-19,30,183
1695161392759975900,-10.48899746,-1.614889026,-1.380257249,-1.861773252,0.738367558,-3.803085566,-1,17,-4,22,44,-8.234856606,2.892195702,1.807622313,0.229290962,-0.070479326,0.407687575,-42,-8,-17,31,183
1695161392760975900,-10.47463226,-1.651999116,-1.37666595,-1.86217308,0.797921896,-3.794159174,4,17,0,15,39,-8.220491409,2.892195702,1.827973008,0.222229704,-0.058888208,0.391966313,-44,-8,-25,30,183
1695161392761975900,-10.45428181,-1.71065712,-1.373074651,-1.857776403,0.885055125,-3.778837442,2,11,-5,18,43,-8.213309288,2.895787001,1.839944005,0.214102611,-0.048096478,0.375845343,-40,-9,-17,29,182
1695161392762975900,-10.43871975,-1.768117905,-1.371877551,-1.847117901,0.968990803,-3.760851383,-1,19,1,20,42,-8.206126213,2.900575399,1.853112102,0.205309346,-0.037970904,0.359591126,-38,-13,-18,30,183
1695161392763975900,-10.42076302,-1.823184609,-1.373074651,-1.830330849,1.049595714,-3.740733624,-1,17,1,23,40,-8.196549416,2.905363798,1.868674397,0.195849925,-0.028378254,0.343070447,-41,-9,-16,31,183
1695161392800933100,-10.30943298,-2.443282843,-1.261744261,-0.547447205,1.874563575,-3.065384388,-1,19,4,22,43,-8.270770073,2.816778183,1.845929503,0.009859112,-0.001332312,0.022249617,-43,-12,-20,31,183
1695161392801933100,-10.31302357,-2.443282843,-1.249773264,-0.441395104,1.883889794,-3.017820835,4,17,7,24,42,-8.277952194,2.809595585,1.833958507,0.007594181,-0.005062787,0.007061256,-40,-9,-17,31,182
1695161392802933100,-10.31422138,-2.439691544,-1.234210968,-0.333877474,1.890418172,-2.969457865,-1,9,9,23,42,-8.28633213,2.803610086,1.82198751,0.006661562,-0.008660031,-0.007860643,-41,-6,-23,30,180
1695161392803933100,-10.31302357,-2.432508945,-1.221042871,-0.225160792,1.894148588,-2.920295715,-1,17,4,26,41,-8.293514252,2.797624588,1.812410712,0.006928025,-0.011990812,-0.022649311,-44,-11,-19,27,182
1695161392804933100,-10.30823517,-2.420537949,-1.209071875,-0.115511484,1.895747423,-2.86993432,0,18,9,26,41,-8.29830265,2.79044199,1.796848416,0.008260337,-0.015321592,-0.036905054,-39,-8,-17,31,182
1695161392835933500,-9.95868206,-1.74896431,-1.090558887,1.647670746,1.5941118,-1.764780998,1,17,12,28,42,-8.250418663,2.956839085,1.628057122,0.154548228,0.002797856,-0.249941811,-38,-6,-18,29,183
1695161392836933500,-9.915586472,-1.698686123,-1.07619369,1.713620186,1.567465544,-1.699364424,-1,21,10,26,42,-8.239645004,2.977189779,1.622071624,0.161476254,0.007194487,-0.258335382,-40,-8,-19,29,181
1695161392837933500,-9.864110947,-1.647210717,-1.059434295,1.776238918,1.540952563,-1.634081125,-1,17,10,29,43,-8.225279808,2.999934673,1.620874524,0.167871356,0.011724349,-0.266329229,-40,-9,-17,30,183
1695161392838933500,-9.807847023,-1.601720929,-1.034295082,1.835526824,1.514706016,-1.569197536,-1,17,10,27,43,-8.210914612,3.021482468,1.619677424,0.173333839,0.016254211,-0.274189889,-40,-8,-19,31,180
1695161392839933500,-9.749189377,-1.557428241,-1.013944387,1.891883612,1.489125609,-1.504846811,-1,17,9,27,45,-8.194155693,3.043030262,1.616086125,0.177730486,0.021050537,-0.281784087,-43,-12,-23,28,183
1695161392869889600,-8.40723896,-1.019929886,-0.422576606,2.354062796,1.126736522,-0.429803967,0,19,8,29,45,-7.893682957,3.379415751,1.59812963,0.106984682,0.117376715,-0.401026011,-39,-7,-24,29,183
1695161392870889600,-8.340201378,-0.988805294,-0.392649084,2.349399567,1.114346027,-0.380108714,0,17,8,28,43,-7.886500359,3.386598349,1.59812963,0.098058186,0.123105668,-0.405955583,-42,-7,-19,31,182
1695161392871889600,-8.270770073,-0.954089403,-0.365115762,2.341539145,1.102088809,-0.331612557,0,17,13,25,44,-7.88171196,3.393780947,1.595735431,0.088998467,0.128834605,-0.410885125,-40,-10,-16,29,183
1695161392872889600,-8.210914612,-0.916979253,-0.33399114,2.330480814,1.090098023,-0.284315467,-1,17,12,26,44,-7.8757267,3.404554844,1.594538331,0.079672284,0.134696782,-0.415548235,-34,-8,-9,31,183
1695161392873889600,-8.149862289,-0.877474904,-0.307654917,2.315691948,1.077973962,-0.238217458,-1,11,11,28,46,-7.869740963,3.411737442,1.590947032,0.070612557,0.140026033,-0.420344561,-38,-9,-16,30,182
1695161392928857900,-7.401674747,-0.122104287,0.331596941,1.440229654,0.875728905,0.405156225,-1,17,13,26,43,-7.91762495,3.489548922,1.537077546,-0.038104136,0.225160792,-0.490957111,-42,-9,-21,29,183
1695161392929857900,-7.399280548,-0.098162271,0.36990416,1.366286278,0.862805545,0.431669205,-1,18,11,26,43,-7.921216488,3.497928619,1.533486247,-0.040235836,0.229157731,-0.493355274,-41,-5,-17,29,182
1695161392930857900,-7.400477409,-0.080205753,0.407014281,1.290877461,0.849082649,0.457782537,0,11,11,26,45,-7.928399086,3.505111217,1.532289028,-0.042234302,0.233154669,-0.495620191,-43,-9,-18,30,182
1695161392931857900,-7.404068947,-0.063446343,0.447715729,1.214269519,0.835226655,0.482963234,-2,19,9,24,43,-7.933187485,3.514688015,1.537077546,-0.043833077,0.237018377,-0.497751892,-40,-7,-20,30,183
1695161392932857900,-7.417236805,-0.049081136,0.48123455,1.137528419,0.820970893,0.506944835,-1,19,12,27,45,-7.940370083,3.525461912,1.544260144,-0.045698319,0.241148531,-0.499750376,-41,-5,-15,30,181
1695161392974830200,-8.148665428,-0.378283858,0.908599555,-0.138960183,0.337474734,0.905039787,0,17,9,23,45,-9.87608242,3.657143116,1.217451572,0.015854517,0.199047476,-0.544116378,-39,-7,-13,29,183
1695161392975830200,-8.210914612,-0.415394008,0.907402456,-0.190920368,0.298437983,0.924091876,-1,18,10,27,46,-10.0317049,3.702632904,1.223437071,0.024781011,0.194117904,-0.552243471,-39,-11,-22,29,179
1695161392976830200,-8.273163795,-0.450109929,0.905008256,-0.241415009,0.25766921,0.94327718,-1,18,10,25,43,-10.17655468,3.75530529,1.241393566,0.033041347,0.191053599,-0.561436415,-39,-7,-16,29,183
1695161392977830200,-8.343792915,-0.48362875,0.905008256,-0.28884533,0.214635521,0.9619295,-1,17,6,21,43,-10.29865837,3.810372114,1.26533556,0.03996937,0.190254211,-0.571695268,-38,-12,-18,29,183
1695161392978830200,-8.412027359,-0.524330199,0.916979253,-0.333877474,0.167871356,0.980049014,-1,9,10,24,46,-10.39682102,3.878606796,1.302445769,0.045565084,0.191852987,-0.58275342,-36,-5,-13,30,183
1695161393006812300,-9.496601105,-1.547851443,1.343147159,-0.675082684,-0.726509929,1.411851406,-1,17,5,25,46,-8.687360764,4.79917717,1.418564558,-0.206108719,0.438863724,-0.669886649,-39,-13,-18,31,183
1695161393007812300,-9.576807022,-1.581370234,1.352723956,-0.681744277,-0.771408916,1.440096498,-3,17,6,23,45,-8.505401611,4.763264179,1.362300754,-0.222895861,0.440728962,-0.643506885,-35,-9,-18,31,182
1695161393008812300,-9.653421402,-1.622071624,1.357512355,-0.690004587,-0.81604135,1.469274044,-1,17,1,22,46,-8.418013573,4.745307922,1.334767461,-0.230490044,0.439929545,-0.627519131,-39,-5,-17,30,183
1695161393009812300,-9.733627319,-1.644816518,1.364694953,-0.699464023,-0.859208286,1.499117851,-1,18,4,24,45,-8.294712067,4.712985992,1.290474772,-0.240482375,0.436332315,-0.599807084,-41,-7,-19,29,182
1695161393010812300,-9.807847023,-1.673547029,1.364694953,-0.707324684,-0.89957732,1.52922821,-1,11,3,19,43,-8.177395821,4.673481941,1.242590666,-0.249275655,0.430203676,-0.5676983,-39,-10,-17,30,183
1695161393043813600,-8.826224327,-1.657984734,-0.804451764,-0.23635222,0.68454212,0.399826974,8,25,-1,25,40,-7.727285862,3.845088005,0.673967779,-0.233687595,0.031575806,0.41967839,-39,-8,-17,28,182
1695161393044813600,-8.841787338,-1.707065821,-0.788889468,-0.204909652,0.679346085,0.446457893,2,26,1,24,44,-7.752425194,3.816357613,0.66798228,-0.226626337,0.014655436,0.458182245,-43,-4,-17,31,183
1695161393045813600,-8.857349396,-1.756146908,-0.774524271,-0.171601832,0.673617184,0.493754983,2,25,1,27,41,-7.779958248,3.790021181,0.665588081,-0.220364481,-0.000799387,0.493355274,-34,-5,-17,31,182
1695161393046813600,-8.868123055,-1.810016513,-0.760159016,-0.136695251,0.667621732,0.54225117,1,23,7,27,41,-7.802703381,3.769670486,0.656011283,-0.214635521,-0.014255743,0.525330782,-37,-5,-17,31,183
1695161393047813600,-8.880094528,-1.8590976,-0.746990919,-0.100056656,0.661093354,0.590880513,2,21,5,24,43,-7.827842236,3.750516891,0.645237386,-0.209439516,-0.025447167,0.554108739,-38,-6,-17,29,183
1695161393076771800,-9.053673744,-1.034295082,-1.320402265,-0.10285452,0.174399704,-0.705059707,2,27,1,26,41,-9.071630478,4.963180065,1.084573388,-0.446457893,0.162542105,-0.59314549,-41,-9,-15,32,183
1695161393077771800,-9.011775017,-1.030703783,-1.329979062,-0.129500762,0.189854518,-0.697598815,0,25,3,26,40,-9.047688484,4.981136799,1.092953086,-0.496819288,0.157212853,-0.578623295,-39,-12,-18,31,183
1695161393078771800,-8.969876289,-1.028309584,-1.33955586,-0.15534763,0.205975503,-0.69027102,-1,21,4,26,39,-9.022548676,4.996698856,1.101332784,-0.547713637,0.152283311,-0.563967824,-35,-7,-16,31,183
1695161393079771800,-8.930372238,-1.025915384,-1.343147159,-0.180261865,0.222496167,-0.683343053,0,25,1,27,39,-8.997409821,5.005078793,1.106121182,-0.599140882,0.14748697,-0.549179137,-37,-9,-15,31,183
1695161393080771800,-8.899248123,-1.019929886,-1.343147159,-0.204243496,0.239816234,-0.676681459,2,24,1,23,36,-8.971074104,5.013458252,1.108515382,-0.650301635,0.142957121,-0.534390509,-41,-9,-17,31,183
1695161393109752400,-8.409633636,-0.536301196,0.884657502,-0.257136285,-0.048229709,-1.149652362,0,22,3,25,40,-8.263586998,3.907337189,3.179499865,0.196116373,-0.556107163,0.909969389,-39,-7,-19,31,182
1695161393110752400,-8.39526844,-0.568622887,0.879869103,-0.287246555,-0.056223582,-1.144456267,0,21,-1,26,41,-8.276755333,3.867832899,3.153163671,0.228358343,-0.557439506,0.93861407,-42,-6,-16,28,183
1695161393111752400,-8.380903244,-0.603338838,0.872686505,-0.314825416,-0.062751912,-1.137261868,-1,22,3,26,40,-8.294712067,3.833117008,3.126827478,0.25766921,-0.558238924,0.966059744,-43,-8,-13,26,183
1695161393112752400,-8.364143372,-0.635660529,0.867898107,-0.340139359,-0.0678147,-1.127669215,-1,25,7,23,41,-8.309077263,3.800795317,3.092111588,0.284049004,-0.559038281,0.9920398,-41,-12,-17,28,182
1695161393113752400,-8.346187592,-0.66798228,0.863109708,-0.363321573,-0.071411945,-1.115811586,-2,17,4,24,39,-8.323442459,3.769670486,3.053804159,0.307098001,-0.559704423,1.016687512,-39,-8,-20,29,182
1695161393142737100,-9.369708061,-1.752555609,-0.432153404,1.21746707,0.348133236,0.923692167,-1,18,-27,13,30,-8.583212852,4.478354454,2.110488892,1.338707566,-0.665490091,1.08809948,-39,-7,-23,24,172
1695161393143737100,-9.378087997,-1.740584612,-0.440533102,1.223728895,0.317490041,0.944609523,-1,7,-21,13,30,-8.58680439,4.510675907,2.146401882,1.285947919,-0.626852989,1.058122516,-37,-8,-24,21,174
1695161393144737100,-9.385271072,-1.725022316,-0.44651863,1.227992415,0.287113339,0.964327693,-1,10,-25,13,30,-8.588001251,4.541800499,2.185906172,1.230390549,-0.587949455,1.027212858,-35,-3,-24,25,176
1695161393145737100,-9.391256332,-1.70946002,-0.453701228,1.230523705,0.256736606,0.982580423,-2,17,-24,13,31,-8.590395927,4.572925091,2.220622063,1.172168493,-0.548646212,0.995637059,-38,-8,-23,26,172
1695161393146737100,-9.402029991,-1.696291924,-0.452504128,1.231323123,0.226359874,0.999634027,-1,9,-22,13,28,-8.585607529,4.598064423,2.252943754,1.111281753,-0.50854367,0.963928044,-39,-9,-25,26,173
1695161393171717800,-9.465476036,-1.128866076,-1.040280581,0.587949455,0.063018374,-0.620457888,-2,7,0,16,31,-9.348160744,4.226963043,0.567425787,-1.096359849,0.46018073,-0.533457875,-47,-21,-19,24,164
1695161393172717800,-9.482235909,-1.108515382,-1.047463298,0.550111771,0.047030624,-0.632848382,-2,6,0,16,28,-9.344569206,4.210203648,0.572214186,-1.08556819,0.441661566,-0.506944835,-45,-18,-21,25,162
1695161393173717800,-9.495404243,-1.091755986,-1.059434295,0.511741161,0.031709034,-0.64403981,-3,5,3,13,29,-9.342175484,4.191050053,0.574608386,-1.073444128,0.422076583,-0.479765713,-45,-19,-20,24,160
1695161393174717800,-9.512163162,-1.073799491,-1.080982089,0.473104149,0.016387442,-0.653898895,-2,6,7,15,31,-9.343372345,4.169502258,0.571017087,-1.060254216,0.401958644,-0.452186853,-49,-19,-22,18,162
1695161393175717800,-9.533711433,-1.055842996,-1.100135684,0.434067398,0.001199081,-0.662558973,-1,9,4,14,29,-9.339780807,4.147954464,0.571017087,-1.045598745,0.381041348,-0.424474716,-46,-18,-21,22,163
1695161393202699800,-9.072827339,-2.677914619,-0.902614057,0.193984687,-0.044898927,0.291909665,2,18,8,25,36,-8.40723896,12.18528938,-1.983596087,0.491223574,1.264630914,2.762816191,-44,-14,62,159,238
1695161393203699800,-9.085995674,-2.665943623,-0.908599555,0.200246558,-0.04769678,0.283915788,3,19,8,23,35,-8.469488144,12.22239971,-2.112883091,0.480831534,1.29807198,2.787330627,-45,-15,64,155,235
1695161393204699800,-9.101557732,-2.652775526,-0.915782154,0.205575794,-0.050361406,0.275522202,0,18,5,25,35,-8.532935143,12.25711536,-2.244564056,0.466842234,1.324451804,2.809047461,-50,-12,68,162,242
1695161393205699800,-9.115922928,-2.642001629,-0.92775315,0.210105672,-0.053026035,0.266862184,0,19,9,25,37,-8.582015991,12.28225517,-2.371456861,0.448856056,1.343770266,2.827166796,-46,-13,69,168,242
1695161393206699800,-9.130288124,-2.626439333,-0.937329948,0.213702917,-0.055557426,0.257935673,0,20,9,26,40,-8.608352661,12.28584576,-2.45405674,0.43579939,1.353762627,2.837425709,-45,-13,72,164,246
1695161393234684100,-9.510966301,-2.539050817,-1.018732786,0.168004602,-0.045698319,0.080071971,1,19,5,26,46,-8.139088631,11.91115379,-4.578910828,-0.367185295,1.90414083,3.14878726,-50,-13,126,203,296
1695161393235684100,-9.52772522,-2.533065319,-1.028309584,0.161742732,-0.044099543,0.068747319,0,23,7,25,43,-8.166622162,11.74355888,-4.851849556,-0.51214087,2.024182081,3.180762768,-46,-13,126,204,298
1695161393236684100,-9.543288231,-2.525882721,-1.042674899,0.154947937,-0.042633995,0.056756508,-1,19,9,24,37,-8.176198959,11.70166111,-4.894945145,-0.541451752,2.049229622,3.186358213,-46,-15,128,207,306
1695161393237684100,-9.572018623,-2.49236393,-1.086967587,0.124837674,-0.038770292,0.003464012,0,21,8,26,37,-8.183381081,11.63342571,-4.94402647,-0.585950971,2.085601807,3.19435215,-48,-14,129,207,311
1695161393238684100,-9.569623947,-2.481590033,-1.102529883,0.116577335,-0.037837673,-0.011457887,-1,17,5,26,40,-8.184578896,11.57476807,-4.98233366,-0.626053572,2.123039722,3.201679945,-45,-13,131,209,311
1695161393266665700,-9.366117477,-2.370259762,-1.120486379,-0.017852986,0.032241959,-0.328947932,0,19,7,23,39,-6.847416878,10.699687,-7.20894146,-1.047996998,3.641209841,3.157180548,-35,-16,201,264,406
1695161393267665700,-9.352949142,-2.369062662,-1.109712481,-0.021050537,0.03956968,-0.343603373,1,19,8,26,40,-6.786364555,10.49498272,-7.354987621,-1.038670778,3.765114784,3.137861967,-34,-13,201,265,407
1695161393268665700,-9.338583946,-2.363077164,-1.092953086,-0.024114855,0.049162328,-0.361722827,-1,17,10,21,42,-6.721721172,10.22563553,-7.54891777,-1.015488505,3.886222124,3.119609594,-35,-15,204,265,418
1695161393269665700,-9.323021889,-2.354697466,-1.092953086,-0.025846859,0.056356817,-0.374646246,0,21,8,27,39,-6.653486729,9.965864182,-7.710526466,-0.977784038,4.001999855,3.107485533,-33,-16,206,266,412
1695161393270665700,-9.309853554,-2.345120668,-1.090558887,-0.027045943,0.063151613,-0.386770278,0,21,9,23,40,-6.554127216,9.744400978,-7.812280178,-0.913300157,4.154016972,3.098558903,-35,-18,205,267,416
1695161393307661800,-8.966285706,-2.120065689,-1.054645896,0.010258805,0.126969382,-0.525330782,2,19,5,22,39,-4.551377296,7.727285862,-9.40681839,0.298837662,4.365588188,2.80691576,5,-13,240,290,452
1695161393308661800,-8.947132111,-2.103306293,-1.060631394,0.013722817,0.128701374,-0.529194474,-1,19,8,26,40,-4.426878929,7.61954689,-9.459490776,0.359191418,4.365588188,2.778670549,-2,-12,247,289,453
1695161393309661800,-8.927978516,-2.088941097,-1.057040095,0.016920367,0.130300149,-0.532392025,1,21,7,19,36,-4.323928356,7.479485989,-9.487024307,0.417679936,4.365588188,2.746961594,-5,-15,241,287,452
1695161393310661800,-8.910021782,-2.072181463,-1.049857497,0.019851454,0.131898925,-0.535323083,-1,17,4,22,35,-4.235342979,7.331045628,-9.485827446,0.472437978,4.365588188,2.711122513,-2,-17,241,288,453
1695161393311661800,-8.884882927,-2.04464817,-1.051054597,0.023448698,0.134163857,-0.538787127,1,19,4,25,40,-4.151545525,7.177816868,-9.466673851,0.525996923,4.365588188,2.671153307,5,-9,243,287,452
1695161393338624700,-8.541314125,-1.802833915,-0.961272001,0.037171517,0.183992341,-0.484029084,-1,18,8,24,37,-2.825158119,5.35104084,-7.642292023,0.909036756,4.365588188,0.981781006,-4,-13,228,269,409
1695161393339624700,-8.537723541,-1.798045516,-0.957680702,0.036905054,0.187456369,-0.474702895,4,19,10,26,42,-2.774879694,5.220556736,-7.481880188,0.882390499,4.365588188,0.852280259,-9,-7,235,265,407
1695161393340624700,-8.530540466,-1.792060018,-0.948103845,0.036638591,0.190920368,-0.464577317,0,18,9,19,40,-2.730587006,5.084087372,-7.297526836,0.854278684,4.365588188,0.723845303,-12,-7,229,266,406
1695161393341624700,-8.529343605,-1.787271619,-0.938527048,0.03650536,0.193984687,-0.454052061,1,21,10,24,42,-2.693476915,4.94642067,-7.101202011,0.827765703,4.365588188,0.595676899,-12,-12,225,260,400
1695161393342624700,-8.530540466,-1.78368032,-0.932541549,0.03650536,0.196516067,-0.443127096,5,21,10,26,42,-2.658761024,4.800374508,-6.900089264,0.802984655,4.365588188,0.468041331,-11,-8,222,262,400
1695161393369626500,-8.759186745,-1.702277422,-0.925358951,0.026513018,0.124171518,-0.234620214,4,20,5,19,36,-1.051054597,3.501519918,-2.798821688,-0.024248086,4.365588188,-1.368151546,-28,-2,215,248,373
1695161393370626500,-8.769960403,-1.698686123,-0.926556051,0.02358193,0.116444103,-0.22596018,2,17,9,20,37,-0.915782154,3.481169224,-2.695871115,-0.077407345,4.365588188,-1.431569695,-27,-2,208,248,374
1695161393371626500,-8.777143478,-1.689109325,-0.93014735,0.019984685,0.108849928,-0.217433393,1,21,20,22,40,-0.774524271,3.464409828,-2.625242233,-0.128701374,4.365588188,-1.489525318,-23,-2,212,244,374
1695161393372626500,-8.7843256,-1.681926727,-0.938527048,0.015987748,0.101655439,-0.209173039,0,17,7,27,39,-0.627280831,3.45722723,-2.586935043,-0.178396642,4.365588188,-1.542950988,-27,-2,215,245,373
1695161393373626500,-8.789113998,-1.677138329,-0.944512546,0.011058193,0.094594181,-0.201312408,1,20,8,28,41,-0.474051923,3.441664934,-2.580949545,-0.226093426,4.365588188,-1.592246532,-30,-2,215,242,372
1695161393400588400,-8.975862503,-1.587355733,-1.097741485,-0.200513005,0.06461715,-0.118309341,0,17,5,24,38,1.110909581,3.058592558,-2.777273893,0.076208271,3.906739473,-1.627552748,-27,-1,206,236,369
1695161393401588400,-8.989029884,-1.589749932,-1.100135684,-0.217166916,0.067415006,-0.116977029,1,21,5,24,39,1.072602391,3.154360771,-2.760514498,0.116710559,3.872499228,-1.605303168,-27,2,204,237,368
1695161393402588400,-8.996212959,-1.594538331,-1.098938584,-0.234087273,0.070479326,-0.116177641,1,18,11,23,39,1.034295082,3.259705544,-2.746149302,0.154947937,3.837459326,-1.583853006,-26,-2,204,237,371
1695161393403588400,-9.003395081,-1.59932673,-1.103726983,-0.251007646,0.073943339,-0.115378261,2,21,10,25,35,1.009155989,3.375824451,-2.735375404,0.189454809,3.801753521,-1.563202143,-30,-1,205,238,370
1695161393404588400,-9.010578156,-1.601720929,-1.109712481,-0.267928004,0.077540584,-0.114712104,2,17,9,25,42,1.000776291,3.512293816,-2.724601507,0.220364481,3.765914202,-1.543217421,-28,1,204,240,371
1695161393433569700,-9.125499725,-1.872265697,-1.035492182,-0.465376705,0.145355284,-0.08833231,2,21,9,25,37,-0.466869324,5.929240704,-2.434903145,0.522799373,3.29400897,-1.449689031,-28,-1,197,229,364
1695161393434569700,-9.126696587,-1.889025092,-1.021126986,-0.464977026,0.14695406,-0.084068909,4,23,5,24,39,-0.59256494,6.02381134,-2.394201756,0.532525241,3.275756598,-1.455151558,-30,2,192,232,363
1695161393435569700,-9.1326828,-1.906981707,-1.007958889,-0.463111788,0.148153126,-0.079272583,0,25,6,26,38,-0.723048925,6.111199856,-2.349909067,0.542917311,3.256970882,-1.459947944,-28,0,193,230,364
1695161393436569700,-9.137471199,-1.923741102,-0.986411095,-0.460047454,0.14908576,-0.074076563,2,20,9,26,39,-0.858321309,6.189011574,-2.294842243,0.553309321,3.237252474,-1.463545203,-31,3,193,229,365
1695161393437569700,-9.13866806,-1.939303398,-0.973242998,-0.456050515,0.149751917,-0.068480857,0,25,8,23,41,-0.995987892,6.265625954,-2.226607561,0.564234257,3.216735125,-1.464877486,-27,0,192,232,364
1695161393470569900,-9.040505409,-2.023100376,-0.758961916,-0.301102608,0.123505361,0.095660031,-1,25,9,25,37,-3.628412724,8.447940826,-1.029506683,0.656297088,2.345535994,-1.036272645,-31,-73,188,223,362
1695161393471569900,-9.030928612,-2.020706177,-0.74339962,-0.293641627,0.121773355,0.106584989,2,22,5,24,39,-3.754108191,8.643068314,-0.937329948,0.646571219,2.273990631,-0.992306292,-31,-71,189,224,361
1695161393472569900,-9.020154953,-2.019509077,-0.733822823,-0.286846846,0.120307811,0.117509954,-1,22,9,26,37,-3.875015497,8.84896946,-0.860715508,0.636312425,2.203511477,-0.94687438,-32,-73,189,224,364
1695161393473569900,-9.008183479,-2.020706177,-0.726640224,-0.280851454,0.118575804,0.128168449,5,20,10,28,39,-4.001908302,9.051279068,-0.799663365,0.62538743,2.133964777,-0.900376737,-31,-78,188,227,363
1695161393474569900,-8.998606682,-2.018311977,-0.719457626,-0.275388956,0.116710559,0.13869372,2,22,9,24,37,-4.139574528,9.224859238,-0.763750315,0.618859112,2.063352108,-0.849482417,-33,-88,184,226,359
1695161393503528200,-9.145850182,-2.084152699,-0.652419984,-0.253805518,0.023315467,0.297905058,-1,17,9,28,39,-3.689464808,10.85890198,-0.429759204,0.262865245,0.389301687,0.110848397,-29,-116,189,223,360
1695161393504528200,-9.155426979,-2.092532396,-0.653617084,-0.253938764,0.01505513,0.306032151,0,18,8,25,35,-3.422511339,10.7822876,-0.514753342,0.210105672,0.33187899,0.100856051,-28,-115,189,225,360
1695161393505528200,-9.162610054,-2.104503393,-0.658405483,-0.253938764,0.006794794,0.31429249,1,21,9,26,37,-3.147178173,10.699687,-0.603338838,0.159078106,0.277787149,0.087399691,-29,-115,187,224,360
1695161393506528200,-9.169792175,-2.11767149,-0.658405483,-0.253672272,-0.001732006,0.322819293,0,18,9,23,36,-2.863465309,10.60990524,-0.697909772,0.110715166,0.22596018,0.071545176,-31,-115,187,225,362
1695161393507528200,-9.180566788,-2.129642487,-0.658405483,-0.25300613,-0.009725881,0.331479341,-1,20,8,18,37,-2.585737944,10.51174259,-0.786495268,0.065816231,0.176398173,0.054358348,-28,-115,188,226,362
1695161393535531200,-9.321824074,-2.317587137,-0.723048925,-0.192385912,-0.122839205,0.516271055,6,21,7,26,39,0.239420176,9.421183586,-1.327584863,-0.215834603,-0.51680398,0.215434924,-27,-119,176,223,360
1695161393536531200,-9.326612473,-2.328361034,-0.730231524,-0.189854518,-0.126702905,0.525863707,3,22,9,30,27,0.179565132,9.442731857,-1.323993564,-0.212770298,-0.544516087,0.241681471,-28,-117,177,223,361
1695161393537531200,-9.331400871,-2.33793807,-0.729034424,-0.187456369,-0.130433381,0.535189867,2,18,9,26,39,0.10295067,9.47146225,-1.315613866,-0.210105672,-0.572094917,0.267395109,-28,-117,176,223,358
1695161393538531200,-9.33020401,-2.349909067,-0.732625723,-0.185191423,-0.134163857,0.543983161,2,21,3,23,35,0.010773907,9.513360023,-1.306037068,-0.208906576,-0.600073516,0.29244259,-26,-118,180,223,361
1695161393539531200,-9.329007149,-2.364274263,-0.735019922,-0.183326185,-0.137761101,0.552909672,4,22,10,27,39,-0.092176765,9.558850288,-1.30005157,-0.209572732,-0.628451765,0.316690654,-26,-112,183,223,362
1695161393565491900,-9.342175484,-2.603694439,-0.9660604,-0.176931083,-0.205442563,0.591679931,2,25,8,24,37,-2.771288395,9.416395187,-0.836773515,-0.395563543,-1.546947956,0.807248056,-25,-57,168,219,360
1695161393566491900,-9.340977669,-2.610877037,-0.982819796,-0.177464008,-0.209039822,0.584618628,0,18,4,24,33,-2.943670988,9.314641953,-0.806845963,-0.408353746,-1.649136305,0.8508147,-26,-61,167,217,360
1695161393567491900,-9.342175484,-2.618059635,-0.998382092,-0.178396642,-0.212104142,0.576891303,1,17,6,27,38,-3.066972494,9.232041359,-0.792480767,-0.417280257,-1.728808641,0.884655416,-23,-53,171,220,359
1695161393568491900,-9.344569206,-2.624045134,-1.013944387,-0.179062784,-0.215168446,0.568098009,2,17,8,25,37,-3.190273762,9.15063858,-0.773327172,-0.425673813,-1.810612559,0.918629408,-18,-56,171,220,360
1695161393569491900,-9.345766068,-2.634819031,-1.033097982,-0.179995403,-0.217699856,0.55837214,-1,11,10,26,37,-3.307589531,9.065644264,-0.764947414,-0.433267981,-1.895081162,0.952736616,-24,-55,167,218,360
1695161393599474300,-9.361329079,-2.744952202,-1.267729759,-0.175998464,-0.19118683,0.293774903,-1,17,7,25,37,-4.282029629,6.629544735,-1.143231273,-0.580621719,-4.159878731,1.411052108,-28,-51,158,219,359
1695161393600474300,-9.361329079,-2.746149302,-1.276109457,-0.173333839,-0.187189892,0.278719753,2,21,4,27,39,-4.256890774,6.482301235,-1.205480576,-0.593012273,-4.301637173,1.415581942,-27,-53,159,218,357
1695161393601474300,-9.35654068,-2.746149302,-1.284489155,-0.170535982,-0.183192953,0.263797849,2,17,8,24,36,-4.234145641,6.336254597,-1.268926859,-0.6056692,-4.365721226,1.416647792,-33,-55,158,218,356
1695161393602474300,-9.350554466,-2.741360903,-1.295263171,-0.167338446,-0.179062784,0.249142408,3,17,7,24,39,-4.211400986,6.193799973,-1.344344258,-0.618192911,-4.365721226,1.414249539,-28,-57,158,214,354
1695161393603474300,-9.344569206,-2.736572504,-1.306037068,-0.163874418,-0.174932614,0.234486982,-1,19,9,22,37,-4.180276394,6.052541733,-1.422155857,-0.631249607,-4.365721226,1.408254147,-31,-53,156,220,350
1695161393633475700,-9.179368973,-2.527079821,-1.362300754,-0.079139359,-0.096326187,0.005462481,2,21,10,23,34,-3.12203908,4.461595058,-3.404554844,-0.953269541,-4.365721226,0.728908122,-29,-49,131,208,314
1695161393634475700,-9.174580574,-2.509123325,-1.362300754,-0.075408876,-0.09272895,-0.003464012,1,17,5,26,36,-3.065775394,4.443638325,-3.490746021,-0.969790161,-4.365721226,0.675748825,-28,-50,127,204,311
1695161393635475700,-9.169792175,-2.493561029,-1.361103654,-0.071811639,-0.088998467,-0.012257273,-1,19,10,22,39,-3.016694069,4.435258865,-3.576937437,-0.987776399,-4.365721226,0.62072432,-32,-47,125,205,311
1695161393636475700,-9.165003777,-2.480392933,-1.363497853,-0.068214394,-0.085800916,-0.020384381,-1,18,7,25,36,-2.970007181,4.42448473,-3.663128614,-1.006961703,-4.365721226,0.564634025,-31,-48,126,200,308
1695161393637475700,-9.155426979,-2.466027737,-1.364694953,-0.064750381,-0.08233691,-0.028111791,0,18,7,23,35,-2.914940596,4.414907932,-3.745728493,-1.023748875,-4.365721226,0.507078111,-28,-47,126,197,304
1695161393673429800,-8.983044624,-2.239775658,-1.335964561,-0.008926493,-0.031842265,-0.108716697,4,18,9,26,39,-3.136404276,4.748898983,-4.856637955,-1.522566557,-4.365721226,-1.01602149,-30,-45,89,152,260
1695161393674429800,-8.972270966,-2.226607561,-1.332373261,-0.006928025,-0.029577335,-0.110448696,-1,21,10,27,39,-3.174711466,4.734533787,-4.989516258,-1.553209782,-4.365721226,-1.111148596,-29,-45,89,154,257
1695161393675429800,-8.956708908,-2.213439465,-1.333570361,-0.005062787,-0.027445635,-0.111781009,1,27,9,28,38,-3.214215755,4.704606533,-5.123591423,-1.581854582,-4.365721226,-1.20667541,-25,-47,88,147,256
1695161393676429800,-8.947132111,-2.203862667,-1.33955586,-0.003464012,-0.025180703,-0.112846859,-1,18,10,23,37,-3.266888142,4.661510944,-5.272032261,-1.601572752,-4.365721226,-1.299670815,-28,-43,87,147,256
1695161393677429800,-8.937555313,-2.19308877,-1.341950059,-0.001998469,-0.023315467,-0.113912709,2,21,8,24,36,-3.311181068,4.626794815,-5.408501625,-1.61063242,-4.365721226,-1.393332362,-26,-43,83,143,253
1695161393715406300,-8.762778282,-2.066195965,-1.37666595,-0.004529862,-0.007594181,-0.122839205,0,20,7,29,39,-4.185064793,4.999093056,-5.57250452,-0.181194484,-4.365721226,-2.751624823,-22,-40,62,106,233
1695161393716406300,-8.759186745,-2.063801765,-1.381454349,-0.004529862,-0.006261868,-0.122839205,-1,25,9,28,40,-4.41849947,5.377377033,-5.343858242,-0.120441042,-4.365721226,-2.807448626,-19,-41,60,101,236
1695161393717406300,-8.750806808,-2.060210466,-1.388636947,-0.004396631,-0.004796324,-0.122439511,2,19,10,24,40,-4.608838081,5.708973885,-5.172672749,-0.094727404,-4.365721226,-2.853812933,-23,-41,59,99,234
1695161393718406300,-8.747216225,-2.059013367,-1.393425345,-0.003996937,-0.00319755,-0.12230628,2,22,7,27,40,-4.803965569,6.057330132,-5.013458252,-0.088732004,-4.365721226,-2.906306267,-22,-41,57,100,234
1695161393719406300,-8.743624687,-2.061407566,-1.400607944,-0.003330781,-0.001332312,-0.121906579,1,19,7,25,37,-5.003881454,6.391321659,-4.879383087,-0.105519146,-4.365721226,-2.966127157,-23,-44,55,96,231
1695161393760402500,-8.985439301,-2.111685991,-1.37666595,0.064750381,0.061286367,-0.080071971,2,19,3,24,36,-7.790732384,9.418789864,-4.969165802,-0.444725901,-4.365721226,-4.365721226,-15,-39,39,79,224
1695161393761402500,-9.003395081,-2.108094692,-1.379060149,0.069546707,0.064483918,-0.077540584,2,21,7,22,41,-7.687781811,9.425971985,-4.661510944,-0.380508423,-4.365721226,-4.365721226,-15,-45,34,75,224
1695161393762402500,-9.021351814,-2.100912094,-1.380257249,0.073810108,0.067548238,-0.075142421,-1,19,7,24,39,-7.569268703,9.40681839,-4.319139957,-0.314159274,-4.365721226,-4.365721226,-12,-39,31,76,222
1695161393763402500,-9.036913872,-2.094926596,-1.380257249,0.077673815,0.069946401,-0.073143952,2,18,7,27,37,-7.432799339,9.380482674,-3.961206675,-0.251007646,-4.365721226,-4.365721226,-14,-40,35,74,221
1695161393764402500,-9.050082207,-2.085349798,-1.379060149,0.080871366,0.072211333,-0.071678407,1,21,9,26,40,-7.310694695,9.349357605,-3.593696833,-0.19425115,-4.365721226,-4.365721226,-12,-41,31,78,222
1695161393805377100,-9.021351814,-2.151190281,-1.313219666,0.07794027,0.100989282,-0.096992344,6,24,13,28,40,-8.719682693,7.496245384,-0.247799873,-0.309229732,-1.704826951,-4.174134731,-12,-37,24,66,216
1695161393806377100,-9.018958092,-2.157175779,-1.309628367,0.079805516,0.104719758,-0.100189894,4,24,10,28,37,-8.990227699,7.358579159,-0.216675252,-0.319088817,-1.554941893,-4.139494419,-13,-37,21,64,219
1695161393807377100,-9.015366554,-2.163161278,-1.29885447,0.08207044,0.109116383,-0.103254206,4,26,12,28,39,-9.266757965,7.228095055,-0.189141929,-0.323751897,-1.41065228,-4.111116409,-13,-40,19,66,216
1695161393808377100,-9.014169693,-2.170343876,-1.294066072,0.084868304,0.113379791,-0.106185302,5,21,12,29,43,-9.54807663,7.091625214,-0.174776718,-0.322419584,-1.272891283,-4.089532852,-12,-41,20,66,215
1695161393809377100,-9.017760277,-2.177526474,-1.288080573,0.088598773,0.117909648,-0.109249614,5,22,9,26,37,-9.831789017,6.957550049,-0.152031809,-0.31429249,-1.14112556,-4.0727458,-12,-39,19,63,215
1695161393840336500,-9.242815971,-2.223016262,-1.113303781,0.226493105,0.173067391,-0.151883617,6,21,9,28,43,-14.56752014,5.931634903,1.089361787,0.758219004,0.828165412,-4.365721226,-17,-35,23,63,215
1695161393841336500,-9.261969566,-2.219424963,-1.102529883,0.235019907,0.17346707,-0.153482378,6,22,10,29,41,-14.79496956,6.004657745,1.180341482,0.838690698,0.927689135,-4.365721226,-15,-34,19,63,214
1695161393842336500,-9.278728485,-2.213439465,-1.091755986,0.243280247,0.173333839,-0.155081168,4,25,9,28,41,-15.0248127,6.099228859,1.26533556,0.919162333,1.027479291,-4.365721226,-14,-37,19,63,215
1695161393843336500,-9.296685219,-2.207453966,-1.07619369,0.251540571,0.172800913,-0.156546697,4,22,10,26,43,-15.25705051,6.229712963,1.344344258,0.998301685,1.126869917,-4.365721226,-19,-34,15,61,215
1695161393844336500,-9.314641953,-2.201468468,-1.070208192,0.259401232,0.172134757,-0.158145472,4,22,10,27,41,-15.48689365,6.374562263,1.405396342,1.073577404,1.224928021,-4.365721226,-19,-34,15,62,215
1695161393880750100,-9.558850288,-2.135627985,-0.845153213,0.368384391,0.127635539,-0.193052068,2,21,11,29,39,-16.74744034,9.940725327,0.113724582,1.586384296,1.703894258,-4.365721226,-28,-34,12,50,206
1695161393881750100,-9.55406189,-2.126051188,-0.837970614,0.370649308,0.123505361,-0.19638285,2,21,9,28,40,-16.52837181,10.1047287,0.038307227,1.555874348,1.658329248,-4.365721226,-29,-36,11,48,210
1695161393882750100,-9.550470352,-2.120065689,-0.835576415,0.37238133,0.118842266,-0.200246558,2,21,9,29,41,-16.2913456,10.26873112,-0.029927522,1.516438007,1.609033704,-4.365721226,-27,-34,7,47,208
1695161393883750100,-9.543288231,-2.108094692,-0.835576415,0.373313934,0.114445634,-0.204376727,5,23,12,28,39,-16.04115105,10.42195988,-0.087388359,1.467675447,1.557073474,-4.365721226,-31,-34,9,52,208
1695161393884750100,-9.525331497,-2.094926596,-0.833182216,0.373580426,0.109782539,-0.208773345,-1,18,11,28,41,-15.77060699,10.55364132,-0.137666598,1.407721281,1.502715111,-4.365721226,-28,-37,9,47,210
1695161393913730700,-9.109937668,-1.757344007,-0.915782154,0.209439516,0.049562022,-0.350931078,3,25,7,28,40,-9.940725327,8.03494072,0.021547815,-0.359591126,0.787663102,-0.862139344,-30,-34,10,48,204
1695161393914730700,-9.084798813,-1.740584612,-0.925358951,0.193451747,0.049828485,-0.358924955,1,20,13,25,43,-9.84376049,7.694964409,0.039504327,-0.421010703,0.774606407,-0.551177621,-28,-34,8,52,208
1695161393915730700,-9.059659004,-1.729810715,-0.933738649,0.177730486,0.050761104,-0.366519153,2,19,11,26,40,-9.799467087,7.444770336,0.052672438,-0.456050515,0.766479313,-0.324551284,-31,-36,7,48,204
1695161393916730700,-9.036913872,-1.719036818,-0.937329948,0.162275642,0.051693719,-0.373713642,8,21,12,29,41,-9.775525093,7.199364662,0.069431849,-0.481497705,0.758751929,-0.104852989,-30,-38,4,48,205
1695161393917730700,-9.015366554,-1.711854219,-0.939724147,0.147220522,0.053159267,-0.380108714,6,23,11,26,41,-9.770736694,7.038952827,0.075417355,-0.492689133,0.753555894,0.037171517,-29,-37,3,47,213
1695161394015591300,-8.811859131,-1.640028119,-0.972045898,0.027712099,0.109516084,-0.320820838,1,22,10,30,41,-9.903614998,4.426878929,0.465672225,0.803251147,0.61965853,2.133165359,-33,-35,7,53,204
1695161394016591300,-8.802282333,-1.644816518,-0.972045898,0.032908116,0.111781009,-0.305366009,5,25,9,28,40,-9.865307808,4.413711071,0.464475125,0.905972421,0.61139816,2.133831501,-28,-34,11,57,203
1695161394017591300,-8.798690796,-1.647210717,-0.974440098,0.039436448,0.114045948,-0.28884533,1,18,10,30,42,-9.823410034,4.407725334,0.460883826,1.006828427,0.602871358,2.126903534,-12,-34,7,61,208
1695161394018591300,-8.797493935,-1.655590534,-0.975637197,0.04729709,0.115245022,-0.270992339,9,25,14,29,42,-9.779116631,4.419696331,0.459686726,1.104353786,0.593811631,2.112914085,-31,-36,12,60,206
1695161394019591300,-8.798690796,-1.665167332,-0.970848799,0.056356817,0.114845328,-0.252473205,2,21,11,29,41,-9.730035782,4.440047264,0.464475125,1.198148608,0.584352195,2.092529774,-27,-37,11,57,202
1695161394066571800,-8.840589523,-1.928529501,-0.89184016,0.421277195,0.07087902,0.205442563,6,21,9,29,37,-8.944737434,5.455188751,0.830788016,1.684842229,0.255004585,1.299537539,-30,-34,14,61,201
1695161394067571800,-8.844181061,-1.938106298,-0.884657502,0.447790205,0.066349156,0.230889738,4,25,9,28,43,-8.914810181,5.505466938,0.863109708,1.633148551,0.231822357,1.26583004,-30,-34,8,57,202
1695161394068571800,-8.847772598,-1.945288897,-0.882263303,0.473770291,0.061952524,0.255803972,4,20,10,26,40,-8.883685112,5.552153587,0.885854602,1.574926496,0.208506882,1.233987808,-31,-34,9,60,202
1695161394069571800,-8.856152534,-1.953668594,-0.879869103,0.499217451,0.05768913,0.279652387,1,23,11,28,41,-8.858546257,5.597643375,0.905008256,1.510309219,0.18492496,1.204277158,-28,-34,-1,58,204
1695161394070571800,-8.868123055,-1.962048292,-0.872686505,0.523732007,0.053425729,0.3028346,3,21,10,33,43,-8.835801125,5.634753704,0.924161851,1.439963222,0.161343038,1.176431775,-30,-34,8,59,201
1695161394164560900,-9.008183479,-2.054224968,-0.833182216,0.781934142,-0.002398162,0.557839215,5,21,11,28,37,-8.771158218,5.19781208,0.561440289,-0.150151595,-0.24567841,0.887986183,-30,-34,8,58,201
1695161394165560900,-9.015366554,-2.054224968,-0.824802458,0.784065843,-0.004663093,0.560237348,2,23,10,27,41,-8.783128738,5.136759758,0.544680893,-0.213303223,-0.260866761,0.882656932,-30,-36,16,62,196
1695161394166560900,-9.024943352,-2.050633669,-0.81881696,0.78486526,-0.006928025,0.561303198,4,22,9,29,41,-8.799888611,5.085284233,0.518344641,-0.273390502,-0.274323106,0.878127098,-30,-37,9,63,202
1695161394167560900,-9.03571701,-2.051830769,-0.814028561,0.784065843,-0.009326187,0.561036766,4,25,11,27,41,-8.81664753,5.036203384,0.490811348,-0.330813169,-0.287113339,0.87413013,-31,-34,14,57,201
1695161394168560900,-9.046490669,-2.04823947,-0.814028561,0.782067418,-0.011724349,0.559571207,2,22,11,27,40,-8.835801125,4.985925198,0.463278025,-0.385970891,-0.298970878,0.870666206,-25,-34,11,63,204
1695161394259506100,-9.202114105,-2.029085875,-0.798466265,0.559171498,-0.035039816,0.37917611,2,27,11,29,39,-9.015366554,3.985148668,0.197521642,-0.877194464,-0.30749771,0.884788632,-31,-34,14,63,203
1695161394260506100,-9.208099365,-2.030282974,-0.797269166,0.540918827,-0.035572741,0.364787132,4,20,7,27,40,-9.020154953,3.937264681,0.192733243,-0.875995398,-0.298837662,0.8866539,-27,-34,13,63,203
1695161394261506100,-9.216479301,-2.029085875,-0.798466265,0.52253288,-0.035839204,0.350264937,6,25,9,28,40,-9.018958092,3.882198095,0.18435353,-0.871332288,-0.289511472,0.888785601,-27,-37,11,61,208
1695161394262506100,-9.223662376,-2.029085875,-0.800860465,0.504013777,-0.036372125,0.335343033,8,27,8,28,43,-9.017760277,3.830722809,0.178368032,-0.863871336,-0.279785603,0.891183794,-31,-34,12,62,204
1695161394263506100,-9.234436035,-2.026691675,-0.806845963,0.485094965,-0.036638591,0.320421129,4,21,9,24,41,-9.018958092,3.782838583,0.171185419,-0.853612542,-0.269393563,0.893581927,-30,-34,11,63,201
1695161394331462600,-9.230844498,-2.053027868,-0.85473001,0.19638285,-0.037704438,0.073143952,1,19,9,26,39,-8.981847763,3.263296843,0.245405674,-0.337874413,-0.052359879,0.914366007,-30,-35,11,62,200
1695161394332462600,-9.222464561,-2.055422068,-0.857124209,0.186390504,-0.037304748,0.063551299,4,26,10,28,39,-8.974664688,3.262099743,0.260968,-0.307764143,-0.04276723,0.913300157,-29,-35,14,61,200
1695161394333462600,-9.21528244,-2.054224968,-0.85473001,0.176931083,-0.036771823,0.054225113,2,22,7,29,43,-8.962694168,3.263296843,0.269347697,-0.278719753,-0.033574272,0.912367582,-28,-35,14,63,201
1695161394334462600,-9.208099365,-2.050633669,-0.85473001,0.168137819,-0.036372125,0.045431852,0,22,8,26,40,-8.951920509,3.269282341,0.274136096,-0.25087443,-0.024914242,0.911168456,-29,-34,11,63,202
1695161394335462600,-9.204508781,-2.050633669,-0.858321309,0.159877479,-0.035972435,0.037038282,0,27,9,28,43,-8.942343712,3.27167654,0.289698392,-0.224494636,-0.016520673,0.909702957,-32,-35,11,63,201
1695161394426564200,-9.018958092,-1.984793186,-0.933738649,0.054491576,-0.034906585,-0.058888208,2,19,9,26,39,-8.803479195,3.363853455,0.515950441,-0.056490045,0.046497703,0.831895888,-30,-34,14,63,201
1695161394427564200,-9.012971878,-1.982398987,-0.936132848,0.049828485,-0.035173047,-0.062352221,3,22,9,28,43,-8.801085472,3.355473757,0.51954174,-0.059554365,0.044765696,0.82430166,-27,-34,14,63,202
1695161394428564200,-9.006986618,-1.978807688,-0.948103845,0.045298621,-0.035173047,-0.065549769,2,19,10,28,41,-8.796297073,3.345896959,0.526724398,-0.063018374,0.042633995,0.816307783,-26,-34,13,62,201
1695161394429564200,-8.999804497,-1.972822189,-0.954089403,0.040768761,-0.035173047,-0.068614088,4,25,10,26,41,-8.790311813,3.338714361,0.527921498,-0.066615619,0.040235836,0.807914257,-31,-34,13,62,202
1695161394430564200,-8.996212959,-1.96923089,-0.958877802,0.036638591,-0.035306279,-0.071678407,3,21,10,28,44,-8.781931877,3.326743364,0.526724398,-0.070079632,0.037304748,0.799254179,-28,-35,14,62,201
1695161394464560600,-8.984241486,-1.902193308,-1.074996591,-0.020784073,-0.025580399,-0.104986221,4,22,11,27,42,-8.473079681,3.112462282,0.563834488,-0.090730481,-0.014255743,0.545315444,-30,-34,12,63,203
1695161394465560600,-8.980650902,-1.89860189,-1.084573388,-0.023448698,-0.024114855,-0.106185302,1,22,10,29,40,-8.459911346,3.101688385,0.572214186,-0.088065848,-0.013323124,0.528794825,-27,-34,13,63,202
1695161394466560600,-8.981847763,-1.893813491,-1.091755986,-0.025980091,-0.022382848,-0.107251145,3,22,9,28,39,-8.446743965,3.093308687,0.575805485,-0.085001536,-0.012124043,0.511874437,-29,-34,14,64,204
1695161394467560600,-8.980650902,-1.887827992,-1.090558887,-0.028777948,-0.020784073,-0.108450226,5,20,9,28,43,-8.43956089,3.088520288,0.577002585,-0.081803977,-0.010392036,0.494554371,-31,-36,10,63,200
1695161394468560600,-8.981847763,-1.885433793,-1.091755986,-0.031575806,-0.018785605,-0.109516084,4,23,11,30,40,-8.426392555,3.08373189,0.581790984,-0.07820674,-0.008526799,0.477234304,-28,-36,13,63,204
1695161394496523400,-9.101557732,-1.830367208,-1.096544385,-0.099257268,0.042900458,-0.140825421,1,21,7,28,39,-8.366538048,3.144783974,0.606930137,0.003330781,0.010258805,0.103120975,-29,-34,11,64,204
1695161394497523400,-9.114726067,-1.823184609,-1.094150186,-0.103787132,0.047163859,-0.143756509,4,22,9,27,47,-8.367734909,3.162740469,0.608127236,0.005995406,0.008926493,0.082203679,-35,-34,12,63,202
1695161394498523400,-9.130288124,-1.814804912,-1.089361787,-0.108450226,0.051294025,-0.146820813,2,23,9,29,35,-8.36893177,3.180696964,0.610521436,0.008393568,0.007594181,0.06115314,-27,-37,13,64,204
1695161394499523400,-9.143456459,-1.806425214,-1.088164687,-0.113646246,0.055424199,-0.150284842,4,25,10,30,39,-8.370129585,3.19745636,0.605733037,0.010125575,0.005995406,0.040235836,-29,-34,14,62,202
1695161394500523400,-9.156624794,-1.796848416,-1.089361787,-0.119108729,0.059287902,-0.154015318,1,21,6,26,45,-8.36893177,3.211821556,0.606930137,0.01185758,0.004663093,0.019451762,-37,-33,10,63,201
1695161394534583400,-9.133879662,-1.698686123,-1.010353088,-0.304166913,0.101921894,-0.257402748,16,23,9,29,41,-8.35097599,3.490746021,0.615309834,0.003464012,-0.014655436,-0.302967817,-30,-34,10,64,203
1695161394535583400,-9.118317604,-1.698686123,-0.998382092,-0.313892812,0.103920363,-0.261932611,8,22,11,26,40,-8.35097599,3.502717018,0.610521436,0.003597243,-0.016520673,-0.316157728,-30,-34,9,62,202
1695161394536583400,-9.108740807,-1.703474522,-0.991199493,-0.322686076,0.106185302,-0.266062796,2,21,10,29,41,-8.353369713,3.518279314,0.603338838,0.003863706,-0.018519141,-0.328947932,-30,-34,13,63,200
1695161394537583400,-9.099164009,-1.70826292,-0.985213995,-0.330679953,0.108716697,-0.270059735,2,27,13,29,41,-8.354566574,3.531447411,0.597353339,0.004529862,-0.020384381,-0.341471672,-31,-34,14,63,204
1695161394538583400,-9.084798813,-1.715445518,-0.973242998,-0.337874413,0.111248083,-0.273124039,0,25,7,27,40,-8.355764389,3.545812607,0.59256494,0.005329249,-0.022649311,-0.35372895,-31,-34,11,63,201
1695161394671580700,-8.947132111,-1.784877419,-0.810437262,-0.3168239,0.14495559,-0.215168446,3,25,10,28,43,-8.458714485,3.851073503,0.507570744,0.056756508,-0.035039816,-0.535189867,-29,-34,12,64,201
1695161394672580700,-8.947132111,-1.789665818,-0.799663365,-0.308830023,0.144555897,-0.20624195,4,23,11,24,37,-8.463502884,3.872621298,0.502782345,0.058621746,-0.033441041,-0.542517602,-29,-35,12,63,202
1695161394673580700,-8.948328972,-1.796848416,-0.793677866,-0.300436467,0.143756509,-0.196782529,5,19,11,24,42,-8.47188282,3.892971992,0.502782345,0.059954058,-0.031709034,-0.549845338,-30,-34,12,62,202
1695161394674580700,-8.949525833,-1.801636815,-0.782903969,-0.29137671,0.142424196,-0.186790213,2,19,8,28,41,-8.480262756,3.915716887,0.499191046,0.061019909,-0.029977029,-0.556906581,-29,-35,14,63,202
1695161394675580700,-8.948328972,-1.807622313,-0.767341673,-0.281784087,0.140692189,-0.176664621,5,23,11,29,40,-8.489839554,3.93965888,0.499191046,0.061819296,-0.02797856,-0.563834608,-30,-35,13,63,203
1695161394774520000,-8.906430244,-1.704671621,-0.67037648,-0.161076576,0.056090351,0.021183766,2,21,10,26,41,-8.627506256,4.339490414,0.451307029,0.020117918,-0.001865237,-0.629517615,-33,-34,12,68,199
1695161394775520000,-8.902838707,-1.701080322,-0.67037648,-0.162275642,0.051294025,0.031042879,6,23,6,29,43,-8.634688377,4.357447147,0.44532153,0.016387442,-0.000799387,-0.628451765,-35,-34,13,63,200
1695161394776520000,-8.896853447,-1.699883223,-0.66917938,-0.164274111,0.046497703,0.040768761,6,22,11,28,40,-8.638279915,4.377797604,0.441730201,0.012790199,0.000399694,-0.626852989,-30,-35,10,63,200
1695161394777520000,-8.895656586,-1.701080322,-0.66917938,-0.166805506,0.041967839,0.050361406,4,26,10,27,40,-8.643068314,4.393360138,0.438138902,0.009192956,0.001465544,-0.624721289,-27,-35,9,63,201
1695161394778520000,-8.896853447,-1.704671621,-0.666785181,-0.170003071,0.03757121,0.059954058,1,22,10,27,43,-8.647856712,4.406527996,0.433350503,0.005462481,0.002264931,-0.622056663,-28,-36,13,63,202
1695161394832482400,-9.044096947,-1.9321208,-0.666785181,-0.214369074,-0.007727412,0.214235827,2,19,9,29,41,-8.708909035,4.581305027,0.414196908,-0.027578866,0.021983154,-0.477767229,-29,-34,14,64,202
1695161394833482400,-9.063250542,-1.947683096,-0.671573579,-0.212903515,-0.011324655,0.221297085,1,22,11,26,40,-8.712499619,4.589684486,0.412999779,-0.027045943,0.022249617,-0.461646259,-32,-34,11,61,202
1695161394834482400,-9.080010414,-1.963245392,-0.678756177,-0.210771829,-0.015721286,0.228225112,2,19,10,26,40,-8.712499619,4.598064423,0.417788208,-0.026646247,0.022249617,-0.449122518,-32,-38,14,64,198
1695161394835482400,-9.096769333,-1.983596087,-0.681150377,-0.208107188,-0.020917306,0.23528637,3,21,10,26,38,-8.713697433,4.604049683,0.423773706,-0.026246555,0.021983154,-0.440595686,-29,-34,14,63,202
1695161394836482400,-9.107542992,-1.997961283,-0.685938776,-0.20624195,-0.024781011,0.240082696,3,25,10,27,41,-8.716091156,4.614823818,0.430956304,-0.025580399,0.02158346,-0.427672267,-28,-34,15,63,202
1695161394869460100,-9.229647636,-2.203862667,-0.626083732,-0.06008729,-0.1931853,0.364920378,2,22,9,22,39,-8.675390244,4.588487625,0.472854823,0.019984685,-0.004663093,-0.144289434,-31,-34,13,62,202
1695161394870460100,-9.2212677,-2.19428587,-0.626083732,-0.050094947,-0.19838132,0.368117899,4,22,9,26,40,-8.675390244,4.582501888,0.475249052,0.02358193,-0.005995406,-0.129633993,-33,-35,12,62,202
1695161394871460100,-9.216479301,-2.188300371,-0.628477931,-0.04103522,-0.202777937,0.370782524,2,17,5,28,39,-8.66940403,4.574122429,0.474051923,0.027045943,-0.007194487,-0.115245022,-28,-34,12,62,201
1695161394872460100,-9.205705643,-2.181117773,-0.63206923,-0.032774884,-0.206108719,0.372914255,5,21,9,26,40,-8.66341877,4.565742493,0.472854823,0.030509954,-0.008526799,-0.100856051,-28,-34,14,63,204
1695161394873460100,-9.199720383,-2.165555477,-0.636857629,-0.025447167,-0.208373666,0.374646246,6,22,9,27,41,-8.659827232,4.554968834,0.476446152,0.033973966,-0.009459418,-0.086866774,-30,-34,13,65,206
1695161394908548000,-9.174580574,-2.072181463,-0.730231524,-0.070346095,-0.104186833,0.343736589,3,19,11,24,42,-8.621520042,4.402936935,0.476446152,0.05249311,-0.005728943,0.122839205,-31,-33,11,63,203
1695161394909548000,-9.184157372,-2.080561161,-0.735019922,-0.078339972,-0.096059717,0.340272576,8,21,5,26,39,-8.622717857,4.393360138,0.48243165,0.050494641,-0.004663093,0.130166918,-29,-31,14,63,202
1695161394910548000,-9.191340446,-2.090138197,-0.735019922,-0.086333841,-0.08833231,0.336675346,2,22,5,27,41,-8.623914719,4.387374401,0.48482585,0.048229709,-0.003597243,0.136961713,-29,-34,14,63,201
1695161394911548000,-9.197325706,-2.105700493,-0.737414122,-0.093794793,-0.080871366,0.33294487,5,17,9,28,41,-8.62511158,4.380191803,0.486022949,0.045565084,-0.002398162,0.143623278,-29,-34,11,63,203
1695161394912548000,-9.205705643,-2.120065689,-0.739808321,-0.100989282,-0.073410407,0.329214364,4,25,10,24,41,-8.62511158,4.370615005,0.487220049,0.042633995,-0.001465544,0.149885148,-25,-34,13,63,201
1695161395022465600,-9.354146004,-2.365471363,-0.82001406,-0.105385914,-0.021849923,0.218099549,1,21,8,28,42,-8.692149162,4.151545525,0.452504128,-0.01612098,0.004396631,0.2290245,-29,-34,13,64,204
1695161395023465600,-9.35654068,-2.367865562,-0.824802458,-0.100856051,-0.023981623,0.210238889,1,18,5,28,41,-8.688557625,4.140771866,0.454898328,-0.01825268,0.003863706,0.23222205,-33,-34,13,63,201
1695161395024465600,-9.35654068,-2.370259762,-0.831985116,-0.096326187,-0.026246555,0.201978564,1,18,10,27,39,-8.688557625,4.131195068,0.454898328,-0.020251149,0.003597243,0.235552832,-29,-34,14,64,201
1695161395025465600,-9.35654068,-2.372653961,-0.834379315,-0.091796324,-0.028644716,0.193851456,4,19,8,28,42,-8.692149162,4.119224072,0.454898328,-0.022116385,0.003330781,0.238617152,-29,-34,11,63,202
1695161395026465600,-9.352949142,-2.373851061,-0.842759013,-0.087133229,-0.031176111,0.185857579,6,19,9,25,39,-8.694543839,4.109647274,0.456095427,-0.02384839,0.003464012,0.24154824,-28,-34,11,63,203
1695161395086450700,-9.174580574,-2.270900249,-0.902614057,-0.042633995,-0.036372125,0.049428791,4,21,11,26,41,-8.623914719,3.954024076,0.536301196,-0.056889739,0.033174578,0.268594176,-29,-35,11,64,201
1695161395087450700,-9.167398453,-2.262520552,-0.906205356,-0.04276723,-0.034773353,0.042500768,4,25,9,26,40,-8.61912632,3.945644379,0.543483794,-0.059154671,0.034906585,0.269260317,-25,-35,14,64,205
1695161395088450700,-9.157821655,-2.250549555,-0.903811157,-0.043433387,-0.033041347,0.03543951,2,20,9,25,37,-8.616731644,3.934870481,0.544680893,-0.060753446,0.036372125,0.269660026,-30,-33,15,64,203
1695161395089450700,-9.153033257,-2.239775658,-0.903811157,-0.044232771,-0.031709034,0.028245023,2,25,9,26,37,-8.615534782,3.926490784,0.542286694,-0.062885143,0.037704438,0.270326167,-31,-34,11,63,202
1695161395090450700,-9.148244858,-2.23259306,-0.900219858,-0.045431852,-0.030243492,0.021050537,1,25,7,28,40,-8.615534782,3.918111086,0.539892495,-0.064483918,0.038503829,0.270725876,-29,-34,15,63,201
1695161395145417400,-9.072827339,-2.11767149,-0.974440098,-0.088732004,-0.026646247,-0.111248083,4,21,9,27,40,-8.650250435,3.75530529,0.568622887,-0.080871366,0.017719755,0.275655419,-28,-34,14,63,205
1695161395146417400,-9.070432663,-2.109291792,-0.979228497,-0.090597242,-0.027179174,-0.118042871,2,26,8,30,41,-8.65144825,3.746925592,0.569819987,-0.080871366,0.016254211,0.274722815,-29,-34,13,63,203
1695161395147417400,-9.070432663,-2.102109194,-0.985213995,-0.092329249,-0.027712099,-0.124571204,2,21,12,29,42,-8.652645111,3.738545895,0.573411286,-0.080738127,0.01505513,0.273656964,-26,-33,13,65,202
1695161395148417400,-9.070432663,-2.094926596,-0.987608194,-0.093794793,-0.028245023,-0.130966306,3,21,11,25,37,-8.652645111,3.731363297,0.578199685,-0.080738127,0.01398928,0.272324651,-27,-34,13,62,202
1695161395149417400,-9.0740242,-2.086546898,-0.993593693,-0.095260337,-0.028644716,-0.137361407,4,23,9,26,38,-8.65144825,3.725377798,0.578199685,-0.080338441,0.012790199,0.270725876,-27,-34,13,63,204
1695161395201361600,-9.107542992,-1.936909199,-1.108515382,-0.113646246,-0.005995406,-0.211304754,2,23,9,29,42,-8.617929459,3.624821424,0.55904609,-0.059954058,-0.007460949,0.218366012,-35,-34,11,64,201
1695161395202361600,-9.103952408,-1.9333179,-1.113303781,-0.114045948,-0.002931087,-0.212637067,2,19,9,23,43,-8.615534782,3.623624325,0.555454791,-0.058621746,-0.007727412,0.215301678,-26,-34,11,63,202
1695161395203361600,-9.099164009,-1.934514999,-1.11450088,-0.114179172,0.0,-0.213702917,-1,21,10,23,39,-8.614337921,3.618835926,0.551863492,-0.057422664,-0.008260337,0.212104142,-29,-34,11,61,201
1695161395204361600,-9.093177795,-1.9309237,-1.11689508,-0.114179172,0.003330781,-0.214768767,4,21,9,26,41,-8.609549522,3.616441727,0.551863492,-0.056490045,-0.008793262,0.209173039,-30,-34,11,63,202
1695161395205361600,-9.09437561,-1.927332401,-1.119289279,-0.113779478,0.006661562,-0.215834603,5,22,8,27,40,-8.607154846,3.615244627,0.55784899,-0.055290964,-0.009326187,0.205975503,-29,-34,12,63,202
1695161395267323600,-9.059659004,-1.887827992,-1.096544385,-0.068747319,0.067415006,-0.227692187,1,25,11,28,45,-8.605957985,3.574543238,0.530315697,-0.026379786,-0.010525269,0.131632462,-31,-34,13,62,203
1695161395268323600,-9.059659004,-1.881842494,-1.088164687,-0.065283306,0.070212863,-0.228358343,2,20,11,30,40,-8.603564262,3.579331636,0.524330199,-0.023182238,-0.010658499,0.125637069,-28,-34,15,63,204
1695161395269323600,-9.057265282,-1.879448295,-1.084573388,-0.062085759,0.07274425,-0.2290245,4,25,11,28,42,-8.598775864,3.587711334,0.521935999,-0.019584993,-0.010258805,0.11924196,-29,-34,12,63,204
1695161395270323600,-9.058462143,-1.872265697,-1.083376288,-0.059021436,0.075408876,-0.229690656,2,18,11,26,40,-8.591592789,3.598485231,0.517147541,-0.015188362,-0.009459418,0.112180702,-31,-35,9,63,202
1695161395271323600,-9.057265282,-1.862688899,-1.07858789,-0.055424199,0.078606427,-0.230490044,4,21,9,29,40,-8.590395927,3.614047527,0.509964943,-0.010125575,-0.007993874,0.104852989,-28,-34,13,63,201
1695161395342284500,-9.053673744,-1.736993313,-1.00436759,-0.051560488,0.102721281,-0.239683002,2,19,9,27,43,-8.603564262,4.994304657,0.142454997,0.359058201,0.116310872,-0.081137821,-33,-34,11,63,202
1695161395343284500,-9.054870605,-1.727416515,-0.999579191,-0.053958651,0.103387438,-0.240215927,2,22,7,27,39,-8.615534782,5.171475887,0.10055647,0.405955583,0.126836136,-0.089264929,-30,-36,13,63,204
1695161395344284500,-9.058462143,-1.722628117,-0.994790792,-0.056490045,0.104053594,-0.240349159,0,23,10,22,37,-8.628703117,5.358223438,0.063446343,0.455784082,0.136961713,-0.096859112,-28,-34,14,64,202
1695161395345284500,-9.06205368,-1.716642618,-0.990002394,-0.059287902,0.104586519,-0.240215927,2,20,7,25,40,-8.63109684,5.546168327,0.025139118,0.508676887,0.14695406,-0.10258805,-28,-34,14,63,204
1695161395346284500,-9.066842079,-1.705868721,-0.985213995,-0.062085759,0.105385914,-0.240349159,-1,23,10,28,44,-8.633491516,5.756857872,0.005985504,0.563967824,0.1573461,-0.105785601,-27,-34,15,63,202
1695161395467488600,-9.141061783,-1.693897724,-0.888248801,-0.109782539,0.111514546,-0.197448686,0,22,7,24,41,-8.288725853,10.65419769,-0.080205753,1.025880575,0.265663087,0.572627902,-30,-34,16,76,206
1695161395468488600,-9.136273384,-1.698686123,-0.877474904,-0.109782539,0.11191424,-0.192119434,0,21,9,29,41,-8.252813339,10.82298851,-0.134075299,1.012024522,0.266062796,0.654964805,-29,-34,19,80,204
1695161395469488600,-9.126696587,-1.707065821,-0.869095206,-0.109382853,0.112180702,-0.186523736,2,18,8,28,36,-8.226476669,10.96544361,-0.191536129,0.993638575,0.265263379,0.739833057,-31,-34,19,82,205
1695161395470488600,-9.123106003,-1.719036818,-0.859518409,-0.108583458,0.112180702,-0.180661559,2,22,9,24,35,-8.209717751,11.09832191,-0.240617275,0.975252628,0.265130162,0.827765703,-31,-34,15,84,202
1695161395471488600,-9.120711327,-1.725022316,-0.85353291,-0.106984682,0.112580396,-0.17453292,4,21,7,28,39,-8.183381081,11.21922874,-0.300472319,0.956600308,0.2669954,0.917696834,-29,-34,17,88,208
1695161395508462600,-8.987833023,-1.871068597,-0.707486629,-0.006794794,0.118309341,-0.051027562,1,22,11,26,41,-7.874529362,12.18528938,-2.905363798,0.812710524,0.904240429,2.250408888,-34,-34,83,159,250
1695161395509462600,-8.975862503,-1.877054095,-0.696712673,0.00106585,0.117909648,-0.044499233,-1,22,10,26,37,-7.821856976,12.14817905,-3.250128746,0.817906559,1.019085765,2.297306299,-24,-35,93,162,254
1695161395510462600,-8.966285706,-1.886630893,-0.693121374,0.009059724,0.117776416,-0.037970904,1,19,8,23,39,-7.739256859,12.09670448,-3.600879431,0.830163836,1.143923402,2.344470263,-35,-37,94,171,259
1695161395511462600,-8.959102631,-1.893813491,-0.683544576,0.017320061,0.117376715,-0.031575806,4,21,9,24,37,-7.671022415,12.05001736,-3.955221176,0.851214409,1.273823857,2.391767025,-34,-34,103,171,264
1695161395512462600,-8.955511093,-1.89860189,-0.666785181,0.025846859,0.116977029,-0.024781011,2,20,9,25,41,-7.612364292,12.04163742,-4.284423828,0.86586982,1.411584973,2.437865019,-37,-35,110,179,265
1695161395549438400,-8.996212959,-2.002749681,-0.518344641,0.204509944,0.089797854,0.110981621,4,22,10,27,43,-7.150283337,11.03726959,-9.99698925,1.270493031,4.365588188,2.877928019,-27,-34,227,257,344
1695161395550438400,-9.006986618,-2.002749681,-0.513556242,0.213036761,0.085667685,0.117776416,2,25,8,29,41,-7.068880558,10.95586681,-10.26394272,1.260900497,4.365588188,2.871399641,-28,-34,238,260,348
1695161395551438400,-9.018958092,-2.006340981,-0.505176544,0.220764175,0.081137821,0.124571204,4,21,9,27,45,-6.983886242,10.86488724,-10.54406452,1.248110294,4.365588188,2.865537643,-24,-35,244,263,355
1695161395552438400,-9.027337074,-2.005143881,-0.503979445,0.228091896,0.076208271,0.130966306,-1,18,8,26,41,-6.898892403,10.79425812,-10.82777691,1.228791714,4.365588188,2.859808683,-22,-34,247,269,356
1695161395553438400,-9.034520149,-2.003946781,-0.500388145,0.234620214,0.07087902,0.136828482,3,18,9,26,41,-6.809109688,10.75714779,-11.08515358,1.203078032,4.365588188,2.852614164,-23,-34,254,271,359
1695161395604406700,-9.2212677,-1.958456993,-0.59376204,0.181727409,-0.069546707,0.178130165,0,21,8,28,42,-5.243301868,7.783549786,-15.01284218,-0.564500749,4.365588188,1.747327685,9,-34,285,293,381
1695161395605406700,-9.22725296,-1.959654093,-0.603338838,0.171735078,-0.076607957,0.176398173,2,20,8,25,40,-5.104437828,7.535749912,-15.09903336,-0.629517615,4.365588188,1.666323066,7,-34,286,292,380
1695161395606406700,-9.234436035,-1.962048292,-0.611718535,0.161476254,-0.083269522,0.174266458,4,22,10,28,39,-4.971560001,7.323863029,-15.157691,-0.688006103,4.365588188,1.585451722,17,-34,286,294,382
1695161395607406700,-9.245209694,-1.965639591,-0.621295333,0.151084229,-0.089664623,0.171735078,6,19,5,27,40,-4.841075897,7.143100739,-15.18761826,-0.743696809,4.365588188,1.503247976,11,-34,286,292,377
1695161395608406700,-9.254786491,-1.97162509,-0.636857629,0.140425727,-0.095926493,0.168670759,5,22,10,29,40,-4.715380192,6.980295181,-15.18881512,-0.798188388,4.365588188,1.419845223,11,-34,286,297,375
1695161395657379800,-9.367314339,-2.073378563,-0.984016895,-0.02797856,-0.163474724,0.065549769,3,21,10,28,41,-2.341529369,3.831919909,-12.50491524,-1.692569613,4.365588188,-0.139226645,-2,-34,270,289,369
1695161395658379800,-9.364919662,-2.087743998,-0.995987892,-0.031709034,-0.162542105,0.059820827,1,23,7,27,41,-2.237381458,3.64038372,-12.33851814,-1.695767283,4.365588188,-0.202644721,5,-31,270,290,369
1695161395659379800,-9.361329079,-2.097320795,-1.00556469,-0.03437366,-0.160676882,0.054225113,4,25,9,27,41,-2.134430885,3.459621429,-12.13620853,-1.692702889,4.365588188,-0.262998462,-3,-34,270,290,369
1695161395660379800,-9.357737541,-2.110488892,-1.012747288,-0.036105666,-0.158278719,0.048895866,4,19,8,24,41,-2.026691675,3.286041737,-11.91713905,-1.682577252,4.365588188,-0.322019905,5,-33,268,290,369
1695161395661379800,-9.351752281,-2.120065689,-1.022324085,-0.036638591,-0.15481469,0.044099543,3,21,8,27,41,-1.920149803,3.116053581,-11.71842003,-1.668188334,4.365588188,-0.378909618,-2,-34,269,289,365
1695161395712345400,-9.206902504,-2.114080191,-1.098938584,0.060220521,-0.067015313,-0.034107197,-1,18,4,26,37,-0.343567938,2.138022184,-8.628703117,-1.331646204,4.365588188,-1.221064329,-5,-34,263,287,358
1695161395713345400,-9.192537308,-2.103306293,-1.094150186,0.067281775,-0.063151613,-0.039036751,3,23,11,22,39,-0.251391172,2.088941097,-8.519766808,-1.312194467,4.365588188,-1.25290668,-5,-31,263,287,357
1695161395714345400,-9.184157372,-2.096123695,-1.095347285,0.07194487,-0.06008729,-0.042234302,1,23,9,27,40,-0.158017308,2.050633669,-8.414422035,-1.290344596,4.365588188,-1.283150077,-7,-32,264,287,358
1695161395715345400,-9.173383713,-2.087743998,-1.092953086,0.076208271,-0.057422664,-0.045565084,4,22,7,27,40,-0.069431849,2.019509077,-8.303091049,-1.266762614,4.365588188,-1.311528206,-7,-38,259,287,356
1695161395716345400,-9.163806915,-2.078166962,-1.086967587,0.080338441,-0.054758042,-0.048496172,9,22,10,29,40,0.009576807,1.990778685,-8.190564156,-1.241049051,4.365588188,-1.338041306,-7,-33,263,286,356
1695161395776586200,-8.898050308,-1.802833915,-0.990002394,0.059154671,-0.038770292,-0.094460949,-1,11,4,23,33,-0.984016895,1.78128612,-4.843470097,-0.447523743,4.365588188,-1.491390467,-18,-28,254,276,344
1695161395777586200,-8.892065048,-1.780089021,-0.988805294,0.046098009,-0.041434918,-0.099390499,-1,21,3,19,36,-1.110909581,1.872265697,-4.665102005,-0.421010703,4.365588188,-1.499650955,-14,-32,254,274,344
1695161395778586200,-8.887276649,-1.760935307,-0.987608194,0.034906585,-0.043833077,-0.103120975,0,18,5,22,36,-1.233013868,1.96923089,-4.499902248,-0.398761094,4.365588188,-1.510042787,-17,-31,253,276,343
1695161395779586200,-8.882488251,-1.742978811,-0.987608194,0.022249617,-0.04623124,-0.106584989,-1,18,7,18,35,-1.349132657,2.070984364,-4.358644009,-0.381174594,4.365588188,-1.522566557,-16,-32,253,273,343
1695161395780586200,-8.872911453,-1.720233917,-0.985213995,0.008660031,-0.048762634,-0.110581927,0,19,7,23,37,-1.461660147,2.176329374,-4.225766182,-0.367851466,4.365588188,-1.537621737,-17,-32,252,271,341
1695161395895577100,-8.749609947,-1.505952835,-1.144428372,-0.369183779,-0.047563553,-0.209039822,-1,19,5,22,36,-3.246537447,3.442862034,-1.754949808,-0.02904441,3.622424126,-1.822070479,-29,-23,240,268,339
1695161395896577100,-8.755595207,-1.501164436,-1.157596469,-0.399826974,-0.043433387,-0.216900453,-2,9,7,22,39,-3.329137564,3.594893932,-1.634042621,-0.001998469,3.531960011,-1.818206787,-27,-30,243,270,338
1695161395897577100,-8.759186745,-1.493981838,-1.173158884,-0.422476262,-0.039836142,-0.222895861,0,17,2,20,35,-3.400963545,3.764882088,-1.511938334,0.021849923,3.440430164,-1.81381011,-28,-32,236,265,337
1695161395898577100,-8.76636982,-1.490390539,-1.185129881,-0.444859117,-0.036105666,-0.228491575,1,19,7,23,32,-3.464409828,3.946841478,-1.397016644,0.042367533,3.347834587,-1.809013844,-26,-33,239,266,337
1695161395899577100,-8.777143478,-1.48799634,-1.197100878,-0.46697551,-0.03237519,-0.233954057,-1,18,4,24,36,-3.514688015,4.133589268,-1.289277673,0.058888208,3.254972458,-1.803684592,-28,-31,239,264,337
1695161395950538800,-8.927978516,-1.59932673,-1.212663174,-0.722246528,0.078473203,-0.243546709,2,10,5,20,36,-3.106476784,7.351396084,-0.401028782,0.2051761,1.677647829,-1.13646245,-32,-114,236,262,332
1695161395951538800,-8.937555313,-1.617283225,-1.203086376,-0.725310862,0.086333841,-0.238084227,0,18,4,27,35,-3.138798475,7.54532671,-0.336385339,0.234886676,1.605569601,-1.04759717,-30,-114,234,263,336
1695161395952538800,-8.942343712,-1.63643682,-1.18752408,-0.72717613,0.094061248,-0.231822357,-1,17,3,22,38,-3.174711466,7.762001991,-0.276530296,0.262998462,1.53175962,-0.956600308,-28,-115,233,261,336
1695161395953538800,-8.951920509,-1.650802016,-1.167173386,-0.72824192,0.10178867,-0.225294024,-1,11,5,22,36,-3.211821556,7.977479935,-0.222660765,0.28777948,1.455950975,-0.866003036,-29,-119,233,262,334
1695161395954538800,-8.963891029,-1.665167332,-1.15161097,-0.727975488,0.109382853,-0.218366012,0,18,6,26,36,-3.247734547,8.183381081,-0.179565132,0.308030635,1.378143907,-0.777404308,-26,-117,233,264,332
1695161396014550100,-9.118317604,-1.863885999,-0.852335811,-0.646038294,0.141491577,-0.081803977,2,19,10,28,44,-1.205480576,9.20929718,-0.383072257,0.099124044,0.292042881,-0.203843787,-28,-127,226,258,333
1695161396015550100,-9.117119789,-1.878251195,-0.834379315,-0.639243484,0.137894332,-0.074476264,2,23,8,27,37,-1.046266198,9.169792175,-0.389057785,0.092196018,0.250341505,-0.18798928,-29,-134,236,255,337
1695161396016550100,-9.113529205,-1.895010591,-0.809240162,-0.632049024,0.134297088,-0.067281775,5,22,7,24,41,-0.900219858,9.125499725,-0.387860686,0.08753293,0.208906576,-0.168937206,-28,-127,231,260,336
1695161396017550100,-9.10634613,-1.911770105,-0.792480767,-0.624454796,0.130699843,-0.059687596,3,25,9,27,39,-0.763750315,9.0740242,-0.395043284,0.085934147,0.168004602,-0.14695406,-32,-130,226,257,336
1695161396018550100,-9.102754593,-1.929726601,-0.772130072,-0.616327703,0.126969382,-0.052093416,4,25,9,26,41,-0.638054729,9.020154953,-0.395043284,0.088065848,0.127369061,-0.121240422,-25,-129,227,258,334
1695161396074533900,-9.224859238,-2.063801765,-0.573411286,-0.41288361,0.060220521,0.083269522,3,21,9,27,43,-2.372653961,9.060855865,-0.393846184,0.153748855,-1.177364469,0.371315449,-32,-54,221,249,325
1695161396075533900,-9.229647636,-2.063801765,-0.569819987,-0.404223561,0.055690661,0.089797854,3,19,7,28,43,-2.590526342,9.039308548,-0.37229836,0.146687597,-1.288612604,0.395430326,-23,-44,220,247,326
1695161396076533900,-9.233239174,-2.062604666,-0.568622887,-0.395963252,0.051027562,0.096192956,5,19,10,29,41,-2.807201385,9.014169693,-0.347159237,0.138826951,-1.404124022,0.421676874,-30,-35,222,246,322
1695161396077533900,-9.238027573,-2.061407566,-0.566228688,-0.388102591,0.046364475,0.102321595,2,18,12,29,41,-3.015496969,8.981847763,-0.325611442,0.130966306,-1.524165392,0.449655443,-29,-35,220,247,324
1695161396078533900,-9.242815971,-2.061407566,-0.55665189,-0.380908102,0.041701376,0.108583458,6,22,10,28,44,-3.238157749,8.932766914,-0.304063618,0.123771824,-1.648336887,0.478833079,-30,-32,218,244,325
1695161396162618400,-9.271546364,-2.102109194,-0.560243189,-0.327482402,-0.034773353,0.199447155,4,21,8,23,41,-6.229712963,5.770026207,-0.549469292,0.095660031,-4.365721226,1.491790175,-44,-33,217,238,308
1695161396163618400,-9.266757965,-2.109291792,-0.562637389,-0.32615009,-0.038237367,0.203977033,-1,23,7,28,36,-6.31590414,5.434837818,-0.610521436,0.134430319,-4.365721226,1.57692492,-45,-34,214,234,307
1695161396164618400,-9.255983353,-2.114080191,-0.561440289,-0.324817777,-0.041568145,0.208506882,2,23,8,27,39,-6.38892746,5.194220543,-0.657208383,0.167338446,-4.365721226,1.636212826,-44,-34,217,237,306
1695161396165618400,-9.246406555,-2.121262789,-0.560243189,-0.323485464,-0.044898927,0.212770298,0,26,8,26,37,-6.461950302,4.961983204,-0.703895271,0.201845318,-4.365721226,1.690304756,-44,-34,213,239,302
1695161396166618400,-9.234436035,-2.130839586,-0.561440289,-0.322019905,-0.048496172,0.216900453,-1,21,8,24,36,-6.531382084,4.736927986,-0.752976418,0.236751899,-4.365721226,1.738667727,-45,-34,209,234,301
1695161396205529900,-9.149441719,-2.200271368,-0.702698171,-0.318422645,-0.132165387,0.24461256,5,21,8,27,40,-6.587646008,2.112883091,-2.97599268,-0.105918832,-4.365721226,1.553875923,-44,-34,173,198,262
1695161396206529900,-9.149441719,-2.201468468,-0.719457626,-0.32148698,-0.137228176,0.242480844,1,21,4,26,41,-6.519411087,2.001552582,-3.27407074,-0.164940268,-4.365721226,1.500316978,-43,-34,173,194,258
1695161396207529900,-9.156624794,-2.199074268,-0.733822823,-0.324817777,-0.142024502,0.240082696,2,19,7,25,41,-6.436811447,1.912967205,-3.56616354,-0.215168446,-4.365721226,1.439030528,-43,-34,162,191,256
1695161396208529900,-9.162610054,-2.199074268,-0.748188019,-0.328415006,-0.146687597,0.237551302,-1,21,9,27,41,-6.351817131,1.794454217,-3.875015497,-0.268194497,-4.365721226,1.375879049,-44,-37,160,191,258
1695161396209529900,-9.159018517,-2.199074268,-0.761356115,-0.332411945,-0.151217461,0.234486982,2,21,9,24,39,-6.258443356,1.679532528,-4.201824188,-0.320421129,-4.365721226,1.313526869,-43,-34,163,191,256
1695161396372562800,-9.163806915,-2.292448044,-1.042674899,-0.377977014,-0.165606424,0.162542105,1,10,5,27,35,-4.687847137,1.015141487,-11.81179428,0.161076576,-4.365721226,-0.084202148,-14,-33,111,140,244
1695161396373562800,-9.163806915,-2.30681324,-1.059434295,-0.373713642,-0.162275642,0.158012256,1,25,9,28,41,-4.596867085,1.096544385,-11.86207199,0.293774903,-4.365721226,-0.170003071,-12,-31,105,135,242
1695161396374562800,-9.166201591,-2.318784237,-1.067813993,-0.369450212,-0.159611031,0.155081168,1,21,8,26,41,-4.513070107,1.22702837,-11.84052467,0.429537535,-4.365721226,-0.255670756,-10,-31,107,133,244
1695161396375562800,-9.166201591,-2.328361034,-1.080982089,-0.364254236,-0.156946406,0.152416542,2,23,7,26,36,-4.42209053,1.395819545,-11.74236202,0.56516695,-4.365721226,-0.340539038,-7,-29,105,132,244
1695161396376562800,-9.168595314,-2.334346771,-1.089361787,-0.35839203,-0.154015318,0.149751917,4,21,10,25,43,-4.328716755,1.59932673,-11.583148,0.697598815,-4.365721226,-0.425140887,-9,-31,97,127,242
1695161396495484000,-9.398438454,-2.359485865,-1.205480576,-0.145355284,-0.106185302,0.147753447,2,22,10,28,37,-6.956353188,6.968324184,-7.940370083,0.65549767,-4.365721226,-2.406555891,-8,-27,47,96,229
1695161396496484000,-9.417592049,-2.353500366,-1.210268974,-0.131898925,-0.105119444,0.149885148,1,19,8,26,41,-7.159860134,6.976703644,-7.959523678,0.54904592,-4.365721226,-2.523399591,-5,-27,43,96,229
1695161396497484000,-9.436745644,-2.349909067,-1.215057373,-0.118442573,-0.104453288,0.152016848,2,23,10,26,40,-7.363367558,6.941987991,-7.964312077,0.446724325,-4.365721226,-2.634647608,-3,-25,39,96,230
1695161396498484000,-9.453505516,-2.342726469,-1.216254473,-0.105385914,-0.104053594,0.154148534,1,19,9,26,40,-7.564480305,6.895300865,-7.945158482,0.347333819,-4.365721226,-2.738568306,-6,-28,40,95,228
1695161396499484000,-9.47146225,-2.336740971,-1.215057373,-0.092862174,-0.103787132,0.156013787,0,19,9,29,40,-7.752425194,6.851007938,-7.899668694,0.251007646,-4.365721226,-2.836493254,-5,-27,36,95,228
1695161396599421800,-9.33618927,-2.146401882,-1.199495077,-0.003330781,-0.100989282,0.121373661,-1,17,9,28,40,-10.99776554,5.986701488,-5.042188644,-1.590381384,-4.365721226,-3.69969821,-7,-25,21,79,224
1695161396600421800,-9.305065155,-2.135627985,-1.195903778,-0.007594181,-0.099656969,0.114445634,2,22,10,28,39,-11.16775417,5.957971096,-4.927267075,-1.691903591,-4.365721226,-3.730075121,-9,-27,20,77,222
1695161396601421800,-9.275136948,-2.124854088,-1.194706678,-0.012656967,-0.098191425,0.107251145,4,22,9,28,36,-11.34731865,5.928043365,-4.807557106,-1.790627837,-4.365721226,-3.763649225,-6,-28,19,76,222
1695161396602421800,-9.24760437,-2.11767149,-1.191115379,-0.018119449,-0.096859112,0.099790201,0,22,8,28,40,-11.53286934,5.886145115,-4.696226597,-1.887087345,-4.365721226,-3.800820827,-5,-23,19,79,225
1695161396603421800,-9.223662376,-2.108094692,-1.18991828,-0.024114855,-0.0955268,0.092062794,4,19,11,27,41,-11.72201157,5.832275391,-4.583699226,-1.978750348,-4.365721226,-3.842255592,-3,-28,21,79,224
1695161396670381500,-8.960299492,-2.080561161,-1.112106681,-0.096326187,-0.086200617,-0.019185297,-1,18,6,24,37,-18.5802021,5.019443989,-2.533065319,-1.57585907,-3.594312429,-4.365721226,-6,-24,14,73,226
1695161396671381500,-8.942343712,-2.079364061,-1.107318282,-0.094327718,-0.087666154,-0.02158346,1,19,7,27,36,-19.01834106,5.142745018,-2.335543871,-1.417980194,-3.406456232,-4.365721226,-7,-23,15,66,226
1695161396672381500,-8.924386978,-2.079364061,-1.107318282,-0.091529861,-0.089264929,-0.02358193,2,22,5,27,41,-19.42655182,5.319916248,-2.152387381,-1.249975562,-3.208474636,-4.365721226,-10,-23,15,64,225
1695161396673381500,-8.912415504,-2.078166962,-1.109712481,-0.08833231,-0.091396637,-0.025313934,2,18,5,26,39,-19.61330032,5.477933407,-1.990778685,-1.069713593,-3.006362915,-4.365721226,-9,-23,14,63,226
1695161396674381500,-8.898050308,-2.070984364,-1.113303781,-0.084868304,-0.093794793,-0.026779478,-1,19,8,26,40,-19.61330032,5.701791286,-1.82079041,-0.879725873,-2.800920248,-4.365721226,-11,-23,14,63,224
1695161396736348500,-8.872911453,-1.832761407,-1.258152962,-0.058488514,-0.150018379,-0.03011026,2,23,6,28,41,-19.61330032,13.55716705,-1.162384868,1.943843842,0.227558956,-4.365721226,-13,-17,11,45,215
1695161396737348500,-8.894459724,-1.823184609,-1.26533556,-0.062352221,-0.151483908,-0.028777948,1,19,9,24,39,-19.61330032,13.69962215,-1.084573388,1.949173093,0.284448713,-4.365721226,-12,-19,14,48,215
1695161396738348500,-8.917203903,-1.812410712,-1.276109457,-0.066882081,-0.152949467,-0.027179174,2,21,9,28,37,-19.61330032,13.79060173,-0.958877802,1.933984637,0.339872897,-4.365721226,-13,-18,13,48,215
1695161396739348500,-8.943540573,-1.802833915,-1.289277673,-0.071678407,-0.154148534,-0.025313934,1,19,7,27,39,-18.8842659,13.81095219,-0.791283667,1.895347595,0.397428781,-4.365721226,-13,-18,13,45,212
1695161396740348500,-8.971074104,-1.795651317,-1.292868972,-0.077007659,-0.155214384,-0.023448698,2,17,5,25,39,-18.00320053,13.69483376,-0.590170741,1.8428545,0.463777959,-4.365721226,-13,-18,13,48,211
1695161396772324600,-9.534908295,-1.942894697,-1.400607944,-0.178796321,-0.158145472,0.002264931,0,19,6,25,41,-9.350554466,8.528146744,0.051475335,-0.518269539,2.318623304,-0.369716704,-21,-24,13,50,202
1695161396773324600,-9.546878815,-1.958456993,-1.407790542,-0.18385911,-0.157745793,-0.001199081,-1,19,5,23,36,-9.452308655,8.386888504,0.094570965,-0.589947879,2.386704445,-0.026779478,-15,-20,9,51,202
1695161396774324600,-9.557653427,-1.96923089,-1.413776159,-0.189188361,-0.157479316,-0.005728943,1,19,7,22,40,-9.570821762,8.262390137,0.155623108,-0.656163871,2.451055288,0.294174582,-18,-20,12,52,201
1695161396775324600,-9.563638687,-1.978807688,-1.424550056,-0.194650844,-0.15681316,-0.010924961,0,19,7,26,37,-9.704896927,8.137891769,0.213083953,-0.718516052,2.51087594,0.593411922,-19,-21,9,49,202
1695161396776324600,-9.567230225,-1.994369984,-1.435323954,-0.200246558,-0.156013787,-0.017320061,5,21,5,27,40,-9.867702484,8.030152321,0.251391172,-0.77807045,2.56643343,0.871465504,-23,-21,11,52,204
1695161396804307000,-9.011775017,-1.983596087,-1.456871748,-0.337874413,-0.065816231,-0.300303191,2,17,8,29,36,-10.75235939,5.656301498,0.073023155,-0.215434924,2.53485775,2.183393478,-26,-21,8,62,199
1695161396805307000,-8.973467827,-1.97162509,-1.446097851,-0.347333819,-0.05595712,-0.318422645,3,17,6,26,37,-10.63264942,5.567716122,0.071826048,-0.118842266,2.488493204,2.107185364,-42,-19,14,63,199
1695161396806307000,-8.941145897,-1.956062794,-1.437718153,-0.356660008,-0.045698319,-0.336142421,0,19,9,24,40,-10.50096893,5.500678539,0.076614454,-0.018385911,2.440263271,2.020318508,-26,-21,13,59,200
1695161396807307000,-8.910021782,-1.941697598,-1.425747156,-0.366119444,-0.035039816,-0.353196025,-1,22,9,22,42,-10.36809063,5.430049419,0.08259996,0.084335379,2.389902115,1.925058126,-26,-21,13,63,200
1695161396808307000,-8.881291389,-1.929726601,-1.417367458,-0.375179172,-0.024114855,-0.369450212,0,21,10,28,37,-10.23521233,5.365406036,0.095768064,0.186124057,2.337142467,1.823269606,-25,-21,11,63,198
1695161396840286300,-8.738836288,-1.580173135,-1.207874775,-0.473237365,0.100323126,-0.457782537,3,21,7,27,39,-8.287528992,5.827486992,0.958877802,0.815908134,0.992173016,0.217699856,-25,-21,11,60,199
1695161396841286300,-8.741230011,-1.574187636,-1.18872118,-0.47270444,0.101921894,-0.447390497,1,18,9,25,41,-8.240841866,5.882553577,0.992396593,0.757952571,0.921826959,0.190520674,-25,-23,11,60,193
1695161396842286300,-8.738836288,-1.569399238,-1.174355984,-0.47163859,0.103387438,-0.435000002,2,12,10,21,36,-8.198944092,5.942408562,1.022324085,0.692003012,0.852546692,0.168670759,-29,-21,10,59,198
1695161396843286300,-8.737639427,-1.565807939,-1.164779186,-0.470039815,0.104986221,-0.421010703,-1,21,7,24,39,-8.166622162,5.995080948,1.046266198,0.619525254,0.785398185,0.152150065,-26,-24,9,61,199
1695161396844286300,-8.736441612,-1.565807939,-1.15520227,-0.467774898,0.106718227,-0.405156225,0,21,9,26,39,-8.140285492,6.046556473,1.064222693,0.539986193,0.719448686,0.140692189,-29,-23,14,62,198
1695161396884018900,-8.605957985,-2.097320795,-0.85353291,-0.119108729,0.115511484,0.107650839,-1,21,5,24,39,-8.888473511,5.858611584,0.578199685,-1.269826889,-0.223562017,0.372647762,-26,-20,11,58,199
1695161396885018900,-8.602366447,-2.141613483,-0.842759013,-0.08207044,0.113379791,0.138294026,2,18,7,27,41,-8.959102631,5.793968201,0.531512797,-1.338174462,-0.25766921,0.393298626,-27,-24,11,58,198
1695161396886018900,-8.597578049,-2.181117773,-0.821211159,-0.043566614,0.111114852,0.16827105,2,17,7,23,39,-9.03571701,5.729324818,0.493205547,-1.401459336,-0.290044397,0.413816214,-26,-25,11,62,199
1695161396887018900,-8.59278965,-2.219424963,-0.799663365,-0.003863706,0.108983152,0.197581932,4,18,8,26,39,-9.10634613,5.663484097,0.453701228,-1.459681511,-0.320820838,0.434866786,-29,-23,11,56,199
1695161396888018900,-8.589199066,-2.257732153,-0.778115571,0.03650536,0.106851459,0.226226643,0,21,8,24,41,-9.174580574,5.596446514,0.417788208,-1.512574315,-0.349465549,0.456183791,-27,-23,14,60,199
1695161396953598500,-8.878896713,-2.7521348,-0.435744703,0.733571172,0.07714089,0.553842247,0,17,7,24,39,-9.956287384,3.906140089,-0.034715924,-1.510042787,-0.606735051,1.06944716,-27,-25,11,55,198
1695161396954598500,-8.916007042,-2.780865192,-0.41060558,0.778869808,0.073943339,0.561036766,0,18,5,24,39,-9.981427193,3.805583715,-0.055066638,-1.45754981,-0.608333826,1.116477847,-25,-25,10,60,198
1695161396955598500,-8.943540573,-2.801215887,-0.393846184,0.811911166,0.071411945,0.564634025,1,23,8,29,39,-10.01135445,3.707421303,-0.075417355,-1.400793314,-0.609799385,1.164441109,-26,-24,13,58,200
1695161396956598500,-8.975862503,-2.82036972,-0.383072257,0.844019949,0.068747319,0.566765666,3,19,9,27,40,-10.03409958,3.609259129,-0.094570965,-1.339906693,-0.610732019,1.213470101,-25,-22,12,60,201
1695161396957598500,-9.004592896,-2.838326216,-0.37229836,0.874796331,0.065816231,0.567565084,2,17,7,26,40,-10.0604353,3.515885115,-0.108936176,-1.274756551,-0.610865235,1.263298512,-27,-25,11,56,197
1695161396984586900,-9.342175484,-2.467224836,-0.396240383,1.064917326,-0.048229709,0.296439528,3,19,10,24,42,-10.72961521,2.919728994,0.015562311,0.202777937,-0.529594183,2.07547617,-26,-21,12,62,200
1695161396985586900,-9.35654068,-2.422932148,-0.404620081,1.04972899,-0.055290964,0.266728938,4,25,6,26,39,-10.75235939,2.953247786,0.045489833,0.259934127,-0.520401239,2.093462467,-27,-25,12,61,200
1695161396986586900,-9.366117477,-2.379836559,-0.412999779,1.032009244,-0.061952524,0.235819295,0,19,8,24,39,-10.7774992,2.992752075,0.074220255,0.312826961,-0.510542154,2.107984781,-28,-25,10,61,199
1695161396987586900,-9.378087997,-2.335543871,-0.423773706,1.011358261,-0.068347625,0.204509944,0,19,6,26,41,-10.79425812,3.039438963,0.10055647,0.361456335,-0.499883622,2.119176149,-26,-24,13,60,199
1695161396988586900,-9.387664795,-2.290053844,-0.429759204,0.988575757,-0.073943339,0.172267988,3,19,9,24,38,-10.79784966,3.087323189,0.130484,0.405555874,-0.488825411,2.126636982,-27,-24,12,62,198
1695161397157472800,-9.765948296,-1.81959331,-0.627280831,0.386370599,-0.077407345,-0.336408883,5,18,8,23,39,-9.873687744,3.745728493,0.263362199,0.446457893,-0.287379771,1.777437925,-28,-25,13,65,200
1695161397158472800,-9.791088104,-1.811213613,-0.635660529,0.359324634,-0.074476264,-0.352929562,4,20,7,26,39,-9.792284966,3.745728493,0.264559299,0.419145465,-0.278986216,1.74892652,-27,-23,9,63,201
1695161397159472800,-9.812635422,-1.805228114,-0.653617084,0.333744258,-0.071145482,-0.367585003,1,19,5,26,39,-9.716867447,3.746925592,0.263362199,0.390367538,-0.270059735,1.72134757,-26,-28,13,64,199
1695161397160472800,-9.834183693,-1.801636815,-0.66798228,0.310029089,-0.067415006,-0.380774885,1,23,8,24,40,-9.641449928,3.751713991,0.264559299,0.359591126,-0.260866761,1.694568157,-26,-27,14,63,198
1695161397161472800,-9.853337288,-1.799242616,-0.685938776,0.28777948,-0.063418068,-0.392499238,-1,22,7,25,39,-9.570821762,3.754108191,0.263362199,0.327349156,-0.251407355,1.668588042,-24,-24,14,64,200
1695161397264412000,-9.701305389,-1.950077295,-0.82001406,0.201045945,0.046098009,-0.388235807,0,17,6,23,40,-8.72806263,3.338714361,0.29688102,-0.380641639,-0.05595712,1.331912756,-31,-27,12,63,197
1695161397265412000,-9.670180321,-1.963245392,-0.81642276,0.212903515,0.052093416,-0.381307811,1,22,7,25,40,-8.696937561,3.286041737,0.283712894,-0.406754971,-0.050627869,1.318189859,-28,-28,14,64,199
1695161397266412000,-9.639056206,-1.978807688,-0.814028561,0.225826949,0.057955589,-0.374246567,-1,10,9,26,37,-8.675390244,3.23576355,0.272938997,-0.430736601,-0.046364475,1.304733515,-27,-23,15,63,199
1695161397267412000,-9.603142738,-1.994369984,-0.808043063,0.239949465,0.063817769,-0.367318511,2,19,10,24,39,-8.650250435,3.186682463,0.260968,-0.452186853,-0.043300152,1.291010737,-25,-24,13,64,199
1695161397268412000,-9.552865028,-2.013523579,-0.806845963,0.260067374,0.070745789,-0.358658493,-1,11,10,22,31,-8.629899979,3.135207176,0.250194073,-0.471105665,-0.041301683,1.277021408,-28,-25,14,64,200
1695161397338370700,-8.960299492,-1.874659896,-0.671573579,0.452719748,0.126569673,-0.356260329,0,23,4,23,40,-8.486248016,2.37624526,0.143652096,-0.419545174,-0.123505361,0.958732009,-30,-27,13,65,200
1695161397339370700,-8.959102631,-1.8590976,-0.659602582,0.449921876,0.12723583,-0.362522215,2,18,9,24,39,-8.48385334,2.351106167,0.140060797,-0.403024495,-0.131366,0.936882079,-27,-23,14,66,200
1695161397340370700,-8.957905769,-1.847126603,-0.646434486,0.445392013,0.126969382,-0.369050533,-1,19,8,22,34,-8.487444878,2.329558372,0.136469498,-0.385837674,-0.139493108,0.91463244,-27,-23,13,65,200
1695161397341370700,-8.956708908,-1.831564307,-0.621295333,0.439929545,0.12616998,-0.376111776,-1,21,4,29,39,-8.487444878,2.309207439,0.128089786,-0.368251175,-0.147753447,0.891849875,-27,-24,13,64,199
1695161397342370700,-8.955511093,-1.81959331,-0.597353339,0.433267981,0.124970905,-0.383572727,2,19,8,24,39,-8.486248016,2.290053844,0.122104287,-0.349732012,-0.156147003,0.868667662,-27,-28,12,63,198
1695161397408352900,-8.938752174,-1.589749932,-0.265756398,0.279918849,0.053692192,-0.511874437,1,18,4,28,39,-8.299500465,2.246958256,-0.095768064,0.028511487,-0.334943324,0.31322667,-26,-25,14,68,200
1695161397409352900,-8.920795441,-1.569399238,-0.263362199,0.268594176,0.053292494,-0.517603338,0,23,3,25,39,-8.288725853,2.258929253,-0.114921682,0.046630934,-0.341338426,0.279519141,-26,-23,14,67,199
1695161397410352900,-8.905233383,-1.550245643,-0.258573771,0.256336898,0.053558957,-0.523065865,0,19,3,29,37,-8.28034687,2.270900249,-0.135272399,0.064750381,-0.347333819,0.24567841,-25,-24,15,68,202
1695161397411352900,-8.888473511,-1.535880446,-0.253785372,0.243679941,0.055424199,-0.52826184,4,21,5,28,31,-8.270770073,2.281674147,-0.14963761,0.082869835,-0.352929562,0.211437985,-27,-25,15,65,199
1695161397412352900,-8.875306129,-1.520318031,-0.251391172,0.229557425,0.057955589,-0.53292495,-1,25,4,27,39,-8.261193275,2.294842243,-0.159214407,0.100722812,-0.357992321,0.177197546,-29,-27,14,69,200
1695161397474294900,-8.833407402,-1.510741234,-0.228646263,-0.132831544,0.226359874,-0.51000917,2,22,5,23,41,-8.191761017,2.722207308,-0.355538964,0.363321573,-0.325217426,-0.442727417,-26,-27,16,68,199
1695161397475294900,-8.845377922,-1.539471745,-0.216675252,-0.146421134,0.233820826,-0.502148569,2,21,6,26,40,-8.209717751,2.754528999,-0.362721562,0.370649308,-0.31788975,-0.473237365,-27,-29,14,70,200
1695161397476294900,-8.856152534,-1.572990537,-0.20350714,-0.157612562,0.240082696,-0.493355274,4,17,5,27,40,-8.232462883,2.786850691,-0.367509961,0.377177656,-0.310029089,-0.503614068,-26,-28,16,69,201
1695161397477294900,-8.864531517,-1.604115129,-0.190339029,-0.166672289,0.245411947,-0.484029084,3,18,6,26,36,-8.258798599,2.815581083,-0.374692559,0.38277334,-0.301901996,-0.534124076,-27,-23,19,72,201
1695161397478294900,-8.869319916,-1.653196216,-0.162805721,-0.174799383,0.251007646,-0.470439523,1,19,9,24,39,-8.283937454,2.850297213,-0.377086759,0.387836158,-0.293241978,-0.564900458,-28,-25,19,72,200
1695161397545254600,-8.908824921,-1.968033791,0.096965171,0.035705972,0.195183769,-0.216767237,1,22,6,24,35,-8.692149162,3.67869091,-0.263362199,0.294707507,-0.046497703,-1.138061285,-23,-23,15,69,201
1695161397546254600,-8.917203903,-1.958456993,0.098162271,0.050228179,0.187189892,-0.202511474,2,25,8,27,35,-8.705317497,3.726574898,-0.251391172,0.278986216,-0.030376723,-1.164574265,-27,-24,15,72,200
1695161397547254600,-8.920795441,-1.947683096,0.106541976,0.063151613,0.178796321,-0.188255742,-1,21,9,24,40,-8.719682693,3.774458885,-0.241814375,0.262598753,-0.014122511,-1.190154672,-27,-27,16,69,201
1695161397548254600,-8.924386978,-1.9321208,0.110133275,0.074875958,0.170402765,-0.174399704,-1,19,7,22,39,-8.730456352,3.822343111,-0.228646263,0.245545179,0.002398162,-1.215335369,-26,-25,15,67,199
1695161397549254600,-8.927978516,-1.915361404,0.118512981,0.085001536,0.162142411,-0.160810098,0,18,9,28,41,-8.744821548,3.871424198,-0.215478152,0.227692187,0.019185297,-1.239583492,-26,-29,16,63,200
1695161397620231400,-9.241618156,-1.719036818,0.112527482,0.027179174,-0.008526799,0.041301683,-1,21,5,24,39,-8.829815865,4.525041103,0.08499416,-0.138826951,0.365320057,-1.498185277,-27,-24,16,67,201
1695161397621231400,-9.25957489,-1.716642618,0.111330383,0.01385605,-0.017053599,0.049295556,4,22,5,26,38,-8.83699894,4.546588898,0.10175357,-0.157212853,0.381707519,-1.499384284,-26,-25,12,63,200
1695161397622231400,-9.276334763,-1.715445518,0.104147777,-0.000133231,-0.025447167,0.057289433,5,17,8,27,37,-8.840589523,4.56933403,0.114921682,-0.175465539,0.397428781,-1.499384284,-27,-23,13,68,199
1695161397623231400,-9.29189682,-1.711854219,0.098162271,-0.014655436,-0.033441041,0.064883612,2,21,6,28,40,-8.846575737,4.593276024,0.126892686,-0.193451747,0.41288361,-1.498318553,-27,-27,14,64,198
1695161397624231400,-9.302670479,-1.713051319,0.092176765,-0.03011026,-0.041301683,0.072211333,-1,17,4,26,41,-8.851364136,4.616020679,0.143652096,-0.211437985,0.42793873,-1.4959203,-23,-27,17,65,200
1695161397686167200,-9.283516884,-1.842338204,-0.144849196,-0.341604888,-0.145355284,0.131632462,-1,17,5,24,39,-9.017760277,4.871003151,0.48123455,-0.517336905,0.63005054,-1.286214352,-28,-25,14,63,199
1695161397687167200,-9.271546364,-1.8590976,-0.164002821,-0.355860651,-0.148952529,0.131499231,1,19,8,24,39,-9.02374649,4.872200489,0.495599747,-0.530660033,0.634580433,-1.268761039,-27,-28,14,65,200
1695161397688167200,-9.257181168,-1.874659896,-0.172382519,-0.369183779,-0.152416542,0.131232768,2,19,7,24,35,-9.034520149,4.876988888,0.508767843,-0.543716669,0.638710558,-1.25077486,-27,-27,12,63,200
1695161397689167200,-9.239224434,-1.890222192,-0.183156431,-0.381840736,-0.155480847,0.130566612,-1,21,8,28,41,-9.038111687,4.876988888,0.518344641,-0.556240439,0.642041326,-1.232255697,-27,-29,13,63,199
1695161397690167200,-9.223662376,-1.903390408,-0.197521642,-0.393565059,-0.158678412,0.129767224,0,22,5,25,37,-9.044096947,4.876988888,0.529118598,-0.568231225,0.644572735,-1.213336825,-27,-24,12,60,198
1695161397754128200,-8.955511093,-1.920149803,-0.472854823,-0.501215935,-0.204776406,0.098857582,5,21,5,24,39,-9.047688484,4.72256279,0.707486629,-0.667488515,0.593944848,-0.803117871,-29,-25,13,62,201
1695161397755128200,-8.955511093,-1.908178806,-0.486022949,-0.507877529,-0.207840726,0.098058186,-1,18,5,23,39,-9.045293808,4.704606533,0.70628953,-0.664024532,0.585551262,-0.780601799,-27,-23,13,60,199
1695161397756128200,-8.954314232,-1.899798989,-0.502782345,-0.512940288,-0.209839195,0.097791731,2,21,5,27,40,-9.046490669,4.683058739,0.701501071,-0.659627855,0.576624751,-0.758085787,-27,-22,14,63,198
1695161397757128200,-8.954314232,-1.891419291,-0.517147541,-0.518003047,-0.211704448,0.098058186,4,21,9,28,35,-9.044096947,4.662707806,0.70509243,-0.654165387,0.566765666,-0.735303223,-29,-30,17,63,200
1695161397758128200,-8.956708908,-1.884236693,-0.535104096,-0.523065865,-0.213569671,0.098724343,-1,17,7,26,36,-9.042900085,4.648342609,0.708683729,-0.64763701,0.556373656,-0.712653935,-27,-25,11,63,200
1695161397822089900,-9.078812599,-1.801636815,-0.788889468,-0.607534468,-0.215301678,0.179595709,-1,21,-2,24,42,-9.046490669,4.388571739,0.689530075,-0.381174594,0.277254194,-0.277120978,-28,-23,14,63,199
1695161397823089900,-9.084798813,-1.800439715,-0.802057564,-0.610598803,-0.214369074,0.186523736,0,20,8,28,41,-9.046490669,4.380191803,0.689530075,-0.35732618,0.255937219,-0.247676879,-27,-25,11,62,198
1695161397824089900,-9.088389397,-1.801636815,-0.814028561,-0.613396645,-0.213169977,0.193318531,1,18,10,27,40,-9.054870605,4.377797604,0.690727174,-0.339473218,0.240082696,-0.22596018,-28,-27,13,63,197
1695161397825089900,-9.091980934,-1.806425214,-0.824802458,-0.616327703,-0.211837664,0.200246558,1,20,4,22,39,-9.06205368,4.371812344,0.697909772,-0.321753442,0.224361405,-0.204376727,-29,-23,13,63,199
1695161397826089900,-9.095572472,-1.808819413,-0.836773515,-0.618992329,-0.210372135,0.207174569,-1,21,7,26,40,-9.063250542,4.368220806,0.702698171,-0.304166913,0.208906576,-0.182926491,-24,-26,14,63,200
1695161397860083400,-9.014169693,-2.04584527,-0.89184016,-0.59634304,-0.137761101,0.345202148,4,18,5,27,40,-9.022548676,4.327519417,0.650025785,-0.056490045,-0.045698319,0.193584993,-26,-25,11,62,198
1695161397861083400,-9.004592896,-2.062604666,-0.887051702,-0.589281797,-0.132032156,0.352130175,-1,19,8,24,40,-9.020154953,4.323928356,0.646434486,-0.049562022,-0.056356817,0.211304754,-28,-25,12,63,198
1695161397862083400,-8.997409821,-2.080561161,-0.883460402,-0.581954002,-0.126436442,0.359191418,1,21,9,23,39,-9.017760277,4.319139957,0.642843127,-0.042900458,-0.066615619,0.2290245,-25,-21,17,63,199
1695161397863083400,-8.987833023,-2.099714994,-0.871489406,-0.573826909,-0.120973967,0.366252691,2,19,5,27,43,-9.016563416,4.314351559,0.638054729,-0.036905054,-0.076607957,0.246477783,-27,-25,9,64,199
1695161397864083400,-8.983044624,-2.11647439,-0.863109708,-0.565033674,-0.115511484,0.37344715,2,20,7,23,40,-9.016563416,4.30956316,0.634463429,-0.031575806,-0.086067379,0.263797849,-27,-24,12,63,200
1695161397892052600,-8.937555313,-2.336740971,-0.717063427,-0.348932624,-0.056756508,0.488026023,1,21,5,27,40,-9.063250542,4.168305397,0.480037451,-0.022516079,-0.2051761,0.543050528,-26,-25,13,63,199
1695161397893052600,-8.937555313,-2.335543871,-0.708683729,-0.338274121,-0.056223582,0.492955565,0,18,5,29,40,-9.066842079,4.157531261,0.470460624,-0.025846859,-0.209039822,0.555174589,-27,-25,16,63,201
1695161397894052600,-8.939949036,-2.34033227,-0.703895271,-0.327882051,-0.055823889,0.498018384,-1,19,9,27,42,-9.070432663,4.147954464,0.459686726,-0.029577335,-0.212637067,0.56663245,-27,-23,13,63,197
1695161397895052600,-8.942343712,-2.346317768,-0.699106872,-0.318022966,-0.055557426,0.502681494,0,22,7,29,41,-9.072827339,4.134786129,0.450109929,-0.033441041,-0.216234297,0.57809037,-25,-28,13,63,201
1695161397896052600,-8.942343712,-2.343923569,-0.697909772,-0.308430314,-0.055157732,0.50747782,0,19,5,25,40,-9.072827339,4.120420933,0.441730201,-0.037437979,-0.219964772,0.589015305,-27,-25,14,64,199
1695161397922034500,-9.083600998,-2.501940727,-0.544680893,-0.241281778,-0.069147013,0.556506872,2,17,8,26,37,-9.016563416,3.811569214,0.247799873,-0.096326187,-0.272591114,0.765679896,-28,-24,15,63,200
1695161397923034500,-9.089587212,-2.524685621,-0.535104096,-0.239949465,-0.069280244,0.55837214,4,12,7,25,40,-9.011775017,3.79241538,0.243011475,-0.097791731,-0.27379021,0.772474706,-29,-23,14,62,197
1695161397924034500,-9.099164009,-2.547430515,-0.531512797,-0.238084227,-0.069147013,0.560370564,-1,6,8,28,37,-9.004592896,3.774458885,0.240617275,-0.098857582,-0.274722815,0.778869808,-24,-29,14,63,201
1695161397925034500,-9.11233139,-2.574964046,-0.532709897,-0.235952526,-0.069280244,0.562502325,1,9,4,25,37,-8.998606682,3.761290789,0.237025961,-0.099790201,-0.27525574,0.784998477,-27,-27,14,63,200
1695161397926034500,-9.126696587,-2.602497339,-0.525527298,-0.233021438,-0.069546707,0.564767241,0,9,5,27,41,-8.996212959,3.748122692,0.233434662,-0.100589581,-0.275788665,0.790727437,-29,-25,17,63,198
1695161398014506700,-9.357737541,-3.059789658,-0.456095427,-0.102454826,-0.052226644,0.537188351,0,2,8,26,39,-8.883685112,3.433285236,0.116118781,-0.090464011,-0.261399686,0.835226655,-28,-25,15,63,198
1695161398015506700,-9.355342865,-3.068169594,-0.458489627,-0.092995405,-0.049828485,0.533724368,0,2,7,27,43,-8.870517731,3.42011714,0.108936176,-0.088865243,-0.260600299,0.834294021,-27,-29,12,64,198
1695161398016506700,-9.351752281,-3.078943491,-0.457292527,-0.082736596,-0.04623124,0.529860616,-1,4,5,26,37,-8.857349396,3.405751944,0.104147777,-0.08726646,-0.259934127,0.832695246,-25,-24,14,65,200
1695161398017506700,-9.354146004,-3.090914488,-0.451307029,-0.072344564,-0.042500768,0.524931073,1,3,4,26,39,-8.845377922,3.390189648,0.096965171,-0.085800916,-0.259267986,0.830830038,-12,-25,15,63,200
1695161398018506700,-9.366117477,-3.101688385,-0.457292527,-0.061686065,-0.038770292,0.519868255,2,5,6,26,41,-8.835801125,3.373430252,0.092176765,-0.084335379,-0.258735061,0.828565061,-26,-25,11,63,202
1695161398106482900,-9.469067574,-3.071760893,-0.487220049,-0.001332312,0.010525269,0.263664633,2,3,8,26,40,-8.724471092,3.252522945,0.104147777,-0.080604896,-0.209839195,0.701329231,-26,-23,14,63,198
1695161398107482900,-9.45111084,-3.069366693,-0.488417149,-0.001199081,0.012656967,0.24461256,3,1,3,22,40,-8.718485832,3.248931646,0.107739076,-0.083669223,-0.204509944,0.69027102,-26,-25,15,66,198
1695161398108482900,-9.419986725,-3.062183857,-0.488417149,-0.002531394,0.013456355,0.224094957,-1,2,6,26,41,-8.713697433,3.247734547,0.116118781,-0.086866774,-0.198914245,0.678679943,-27,-27,13,70,202
1695161398109482900,-9.390059471,-3.047818661,-0.48482585,-0.005062787,0.013722817,0.202378258,-1,2,8,24,36,-8.70771122,3.247734547,0.120907187,-0.090464011,-0.192785591,0.666689157,-26,-26,14,65,197
1695161398110482900,-9.366117477,-3.026270866,-0.476446152,-0.008127105,0.01385605,0.17972894,-1,2,5,27,37,-8.693346024,3.245340347,0.128089786,-0.094460949,-0.186790213,0.654565096,-27,-27,14,65,199
1695161398276608200,-9.375694275,-2.740163803,-0.537498295,0.042900458,0.00319755,-0.166272581,0,6,5,24,39,-8.541314125,3.163937569,0.142454997,-0.159611031,-0.08513476,0.414882064,-31,-29,12,68,198
1695161398277608200,-9.366117477,-2.705447912,-0.543483794,0.044765696,0.003464012,-0.181194484,1,4,0,24,39,-8.535328865,3.15914917,0.140060797,-0.159611031,-0.081271052,0.40355742,-21,-23,15,65,202
1695161398278608200,-9.357737541,-2.662352324,-0.549469292,0.045431852,0.003996937,-0.196249619,2,7,3,22,39,-8.530540466,3.154360771,0.146046311,-0.159744263,-0.077673815,0.392366022,-24,-29,15,66,201
1695161398279608200,-9.350554466,-2.619256735,-0.560243189,0.044632465,0.004529862,-0.211704448,0,6,5,24,39,-8.528146744,3.150769472,0.14844051,-0.159211323,-0.074076563,0.381307811,-25,-25,15,66,196
1695161398280608200,-9.339780807,-2.586935043,-0.563834488,0.042900458,0.005462481,-0.227692187,0,5,7,26,39,-8.525752068,3.147178173,0.154426008,-0.158811629,-0.070479326,0.370516092,-25,-25,16,66,200
1695161398362560500,-9.252392769,-2.304419041,-0.685938776,-0.056090351,0.039702907,-0.456983149,-1,17,5,28,37,-8.530540466,3.192667961,0.213083953,-0.130566612,-0.015721286,0.159877479,-32,-26,14,68,200
1695161398363560500,-9.252392769,-2.304419041,-0.688332975,-0.058355279,0.043566614,-0.466442585,-1,7,5,23,39,-8.529343605,3.19745636,0.220266551,-0.129633993,-0.013456355,0.14908576,-27,-25,14,68,199
1695161398364560500,-9.257181168,-2.298433542,-0.693121374,-0.060220521,0.047563553,-0.47523582,-1,5,7,24,39,-8.528146744,3.199850559,0.223857865,-0.128568143,-0.011191424,0.138560489,-27,-23,15,65,199
1695161398365560500,-9.261969566,-2.285265446,-0.703895271,-0.061952524,0.051560488,-0.483496159,0,5,4,27,39,-8.520963669,3.207033157,0.226252064,-0.127635539,-0.009326187,0.128168449,-26,-25,14,65,200
1695161398366560500,-9.267954826,-2.270900249,-0.713472128,-0.063284837,0.055024505,-0.491223574,1,7,5,24,35,-8.51617527,3.213018656,0.232237563,-0.126702905,-0.007460949,0.117776416,-27,-25,14,64,197
1695161398450514800,-9.206902504,-2.098517895,-0.691924274,0.013722817,0.069280244,-0.561036766,2,3,4,25,40,-8.507795334,3.290830135,0.275333196,-0.071678407,0.01718683,-0.037304748,-28,-24,14,66,199
