timestamp,EMG_s0,EMG_s1,EMG_s2,EMG_s3,EMG_s4,EMG_s5,EMG_s6,EMG_s7
1.6951613919384305e+18,0.0,1.0,2.0,1.0,0.0,-1.0,-1.0,0.0
1.6951613919394245e+18,0.0,0.0,-1.0,-1.0,-1.0,-1.0,0.0,-2.0
1.6951613919394245e+18,0.0,-1.0,-2.0,-1.0,-1.0,-1.0,0.0,0.0
1.6951613919394245e+18,-2.0,-1.0,-1.0,-1.0,1.0,-1.0,-1.0,0.0
1.695161391940425e+18,1.0,0.0,-2.0,-2.0,-1.0,-1.0,0.0,-1.0
1.695161391940425e+18,-1.0,-1.0,-1.0,1.0,-1.0,0.0,0.0,0.0
1.6951613919434227e+18,0.0,1.0,0.0,0.0,1.0,-2.0,0.0,-2.0
1.6951613919434227e+18,-1.0,-1.0,-1.0,1.0,-2.0,-1.0,0.0,0.0
1.6951613919454397e+18,-2.0,0.0,-2.0,-2.0,-2.0,-1.0,-2.0,-1.0
1.695161391946421e+18,-1.0,0.0,-1.0,-1.0,1.0,0.0,1.0,-1.0
1.6951613919564168e+18,1.0,-1.0,-2.0,-3.0,0.0,2.0,-1.0,1.0
1.6951613919564168e+18,0.0,-1.0,-2.0,-4.0,1.0,0.0,0.0,-2.0
1.695161391969407e+18,0.0,-2.0,-1.0,5.0,-2.0,-3.0,0.0,1.0
1.6951613919704074e+18,-1.0,-1.0,-1.0,-3.0,-2.0,-1.0,-2.0,0.0
1.695161391977404e+18,-1.0,0.0,0.0,1.0,0.0,-1.0,-1.0,-1.0
1.695161391977404e+18,0.0,1.0,-2.0,-1.0,0.0,0.0,-1.0,0.0
1.6951613919843988e+18,0.0,0.0,0.0,-2.0,-1.0,0.0,-1.0,-1.0
1.6951613919854085e+18,-1.0,-1.0,-1.0,1.0,0.0,-1.0,-3.0,-2.0
1.6951613920114056e+18,-2.0,-1.0,-1.0,-2.0,-1.0,0.0,-1.0,0.0
1.695161392012385e+18,0.0,0.0,0.0,0.0,-1.0,0.0,2.0,-1.0
1.695161392012385e+18,0.0,-2.0,-2.0,-2.0,-2.0,0.0,1.0,-3.0
1.695161392012385e+18,0.0,1.0,0.0,-2.0,0.0,-1.0,1.0,0.0
1.6951613920293952e+18,-1.0,-3.0,0.0,-2.0,-1.0,-2.0,0.0,-1.0
1.695161392030373e+18,-1.0,0.0,1.0,-1.0,-1.0,0.0,0.0,-2.0
1.6951613920313948e+18,-1.0,-2.0,0.0,0.0,0.0,-1.0,1.0,0.0
1.6951613920313948e+18,-1.0,-2.0,0.0,-2.0,-1.0,0.0,0.0,0.0
1.6951613920463644e+18,-1.0,0.0,-1.0,1.0,0.0,-2.0,0.0,-1.0
1.6951613920473664e+18,0.0,-1.0,-2.0,-1.0,0.0,-2.0,-1.0,0.0
1.6951613920493632e+18,-2.0,-1.0,-2.0,-2.0,1.0,0.0,0.0,-1.0
1.6951613920493632e+18,1.0,-1.0,-1.0,0.0,-2.0,-1.0,-2.0,-1.0
1.695161392068373e+18,1.0,-1.0,-1.0,0.0,-1.0,-1.0,-2.0,0.0
1.695161392068373e+18,-1.0,1.0,-1.0,0.0,-2.0,0.0,1.0,0.0
1.6951613921073313e+18,-1.0,-1.0,0.0,-1.0,1.0,0.0,0.0,0.0
1.6951613921073313e+18,0.0,-1.0,-1.0,0.0,0.0,0.0,-1.0,0.0
1.695161392110329e+18,0.0,-1.0,-1.0,0.0,-1.0,-1.0,-1.0,0.0
1.695161392110329e+18,0.0,0.0,0.0,-1.0,-1.0,0.0,-1.0,-2.0
1.6951613921193234e+18,-1.0,1.0,-2.0,-2.0,-1.0,-1.0,-1.0,0.0
1.6951613921193234e+18,-1.0,0.0,-2.0,0.0,0.0,-1.0,0.0,-2.0
1.6951613921203246e+18,-1.0,0.0,-2.0,0.0,1.0,-1.0,-2.0,-2.0
1.6951613921203246e+18,0.0,-2.0,0.0,-1.0,-1.0,-1.0,0.0,-1.0
1.6951613921213292e+18,0.0,-3.0,0.0,-1.0,-2.0,-3.0,-1.0,-1.0
1.6951613921213292e+18,0.0,-1.0,0.0,-1.0,1.0,-1.0,0.0,-2.0
1.6951613921453066e+18,-2.0,0.0,1.0,1.0,0.0,-1.0,1.0,-2.0
1.6951613921463063e+18,1.0,-2.0,-1.0,-1.0,-1.0,0.0,-1.0,-1.0
1.6951613921463063e+18,-2.0,0.0,-1.0,0.0,0.0,1.0,-1.0,-1.0
1.6951613921463063e+18,1.0,-1.0,0.0,-2.0,-1.0,-1.0,0.0,0.0
1.6951613921563003e+18,-1.0,-2.0,-1.0,-2.0,0.0,1.0,-1.0,-1.0
1.6951613921563003e+18,-2.0,0.0,-1.0,0.0,0.0,-1.0,0.0,0.0
1.6951613921573033e+18,1.0,0.0,1.0,1.0,0.0,-1.0,0.0,2.0
1.6951613921573033e+18,-1.0,-2.0,-3.0,0.0,1.0,0.0,0.0,2.0
1.695161392171314e+18,-1.0,-1.0,1.0,0.0,1.0,1.0,2.0,1.0
1.695161392171314e+18,2.0,0.0,2.0,0.0,2.0,1.0,1.0,1.0
1.6951613921722934e+18,0.0,1.0,1.0,-1.0,2.0,0.0,0.0,0.0
1.6951613921722934e+18,1.0,1.0,0.0,-1.0,-2.0,0.0,-2.0,0.0
1.6951613921942843e+18,2.0,0.0,0.0,-1.0,0.0,0.0,-1.0,0.0
1.6951613921942843e+18,1.0,-1.0,-1.0,-1.0,0.0,1.0,0.0,-1.0
1.6951613921942843e+18,0.0,1.0,-1.0,-1.0,-2.0,-1.0,1.0,-1.0
1.6951613921942843e+18,0.0,1.0,1.0,0.0,-1.0,-1.0,-2.0,0.0
1.695161392218266e+18,1.0,0.0,1.0,0.0,-2.0,0.0,-2.0,1.0
1.695161392219269e+18,0.0,0.0,1.0,0.0,-1.0,-2.0,-2.0,-1.0
1.6951613922212664e+18,0.0,0.0,0.0,-1.0,0.0,-1.0,-3.0,0.0
1.6951613922212664e+18,0.0,-1.0,-1.0,-1.0,0.0,-1.0,-1.0,0.0
1.6951613922312796e+18,0.0,-1.0,-3.0,0.0,-2.0,-2.0,-1.0,0.0
1.6951613922312796e+18,0.0,0.0,0.0,0.0,-1.0,-1.0,0.0,0.0
1.6951613922322588e+18,-1.0,-1.0,0.0,-1.0,0.0,-1.0,0.0,-1.0
1.6951613922322588e+18,0.0,0.0,0.0,-2.0,-2.0,0.0,0.0,0.0
1.6951613922562655e+18,-1.0,1.0,-1.0,1.0,-1.0,-1.0,-1.0,0.0
1.6951613922572652e+18,-2.0,0.0,-1.0,-4.0,-1.0,-1.0,-1.0,-1.0
1.6951613922572652e+18,-1.0,-1.0,-2.0,-1.0,-2.0,1.0,0.0,-1.0
1.6951613922572652e+18,0.0,-2.0,-2.0,-2.0,-2.0,-1.0,1.0,0.0
1.6951613922702362e+18,0.0,-2.0,1.0,-2.0,0.0,-2.0,1.0,-1.0
1.6951613922702362e+18,-1.0,-2.0,-1.0,-1.0,-1.0,1.0,-1.0,1.0
1.695161392276234e+18,1.0,-1.0,-1.0,-2.0,-1.0,1.0,-1.0,2.0
1.695161392276234e+18,-2.0,0.0,0.0,-2.0,1.0,-2.0,0.0,-2.0
1.6951613923072146e+18,1.0,1.0,-1.0,-3.0,-2.0,0.0,-1.0,1.0
1.6951613923072146e+18,-1.0,-1.0,-1.0,0.0,0.0,-1.0,0.0,-4.0
1.6951613923082143e+18,-1.0,-1.0,-1.0,-5.0,-4.0,-2.0,-2.0,-2.0
1.6951613923082143e+18,1.0,-1.0,0.0,3.0,3.0,0.0,-3.0,0.0
1.695161392331205e+18,0.0,-1.0,0.0,0.0,-1.0,-1.0,0.0,0.0
1.695161392331205e+18,-2.0,1.0,-2.0,-5.0,-1.0,0.0,-2.0,0.0
1.695161392331205e+18,1.0,-1.0,1.0,2.0,-1.0,-2.0,1.0,0.0
1.695161392331205e+18,-1.0,0.0,3.0,3.0,-4.0,-1.0,-1.0,-1.0
1.6951613923361974e+18,-2.0,-1.0,-2.0,-2.0,-2.0,-1.0,-1.0,-1.0
1.6951613923361974e+18,-1.0,-2.0,-1.0,0.0,-3.0,1.0,1.0,0.0
1.6951613923371996e+18,0.0,-1.0,-3.0,-2.0,-6.0,-1.0,-1.0,-1.0
1.6951613923371996e+18,-1.0,-1.0,-2.0,0.0,5.0,-1.0,0.0,0.0
1.6951613923581865e+18,-1.0,-1.0,-1.0,3.0,1.0,-1.0,-3.0,-1.0
1.695161392359185e+18,-2.0,-3.0,-2.0,-7.0,-5.0,-4.0,-2.0,-4.0
1.6951613923662026e+18,-1.0,1.0,2.0,5.0,1.0,0.0,-1.0,-2.0
1.695161392367183e+18,0.0,0.0,0.0,-4.0,-6.0,0.0,0.0,-1.0
1.6951613923821722e+18,-2.0,-4.0,1.0,-3.0,5.0,3.0,4.0,1.0
1.6951613923821722e+18,2.0,4.0,0.0,3.0,0.0,0.0,2.0,1.0
1.6951613923831708e+18,2.0,-1.0,-5.0,-4.0,-1.0,1.0,-1.0,1.0
1.6951613923831708e+18,0.0,3.0,0.0,0.0,-6.0,-1.0,-2.0,-2.0
1.6951613924011763e+18,-2.0,-8.0,-3.0,-4.0,-1.0,-2.0,-4.0,-4.0
1.6951613924021627e+18,3.0,-2.0,-2.0,-2.0,-5.0,-2.0,-3.0,-2.0
1.6951613924021627e+18,-6.0,-7.0,-5.0,-7.0,-11.0,-7.0,-4.0,-6.0
1.6951613924021627e+18,-2.0,5.0,-2.0,2.0,3.0,3.0,2.0,0.0
1.6951613924201498e+18,2.0,-9.0,-3.0,-1.0,1.0,1.0,1.0,1.0
1.6951613924201498e+18,0.0,2.0,-1.0,4.0,-1.0,-2.0,-1.0,0.0
1.6951613924211538e+18,-2.0,-1.0,-2.0,1.0,1.0,-3.0,5.0,3.0
1.6951613924211538e+18,-4.0,4.0,-4.0,-3.0,-3.0,-7.0,-15.0,-17.0
1.6951613924381422e+18,7.0,2.0,2.0,4.0,4.0,7.0,0.0,3.0
1.6951613924381422e+18,-3.0,-7.0,0.0,4.0,0.0,-3.0,-4.0,2.0
1.6951613924381422e+18,-6.0,-5.0,-4.0,0.0,2.0,-1.0,-7.0,-3.0
1.6951613924381422e+18,-5.0,-7.0,-2.0,-1.0,-4.0,-8.0,-8.0,-5.0
1.6951613924561508e+18,-3.0,14.0,2.0,2.0,-3.0,-4.0,-19.0,-19.0
1.6951613924571287e+18,14.0,-5.0,-2.0,-3.0,-3.0,9.0,25.0,37.0
1.6951613924571287e+18,-6.0,-17.0,-4.0,-5.0,-3.0,-2.0,-7.0,-17.0
1.6951613924571287e+18,3.0,0.0,-4.0,-2.0,0.0,-2.0,0.0,15.0
1.6951613924731203e+18,-1.0,-2.0,-3.0,-3.0,-6.0,-4.0,2.0,-7.0
1.6951613924731203e+18,-6.0,10.0,4.0,-1.0,1.0,-3.0,-5.0,-8.0
1.69516139247412e+18,4.0,2.0,2.0,3.0,5.0,1.0,-2.0,-1.0
1.69516139247412e+18,-3.0,-9.0,-1.0,2.0,-1.0,2.0,2.0,-8.0
1.6951613924941066e+18,1.0,7.0,1.0,5.0,0.0,-2.0,-2.0,4.0
1.6951613924941066e+18,-1.0,-6.0,-2.0,-4.0,-3.0,-4.0,-7.0,-9.0
1.6951613924941066e+18,-1.0,3.0,1.0,1.0,2.0,4.0,6.0,6.0
1.69516139249511e+18,2.0,4.0,2.0,5.0,3.0,0.0,-1.0,-11.0
1.6951613925220987e+18,-3.0,0.0,-1.0,-1.0,-1.0,-2.0,0.0,25.0
1.6951613925220987e+18,-8.0,-14.0,-6.0,0.0,-2.0,-3.0,-1.0,-18.0
1.6951613925220987e+18,-4.0,-5.0,-3.0,1.0,-1.0,-6.0,-8.0,-3.0
1.6951613925220987e+18,6.0,8.0,-1.0,-2.0,-1.0,17.0,12.0,-11.0
1.6951613925320883e+18,7.0,6.0,1.0,3.0,1.0,-1.0,6.0,-9.0
1.6951613925320883e+18,0.0,-13.0,-5.0,-3.0,-1.0,-2.0,-11.0,23.0
1.6951613925460797e+18,1.0,10.0,2.0,-2.0,-4.0,-8.0,-2.0,11.0
1.6951613925470812e+18,7.0,7.0,-1.0,-1.0,3.0,-6.0,-4.0,-1.0
1.6951613925540756e+18,-9.0,-3.0,0.0,-3.0,-2.0,9.0,14.0,-6.0
1.6951613925570934e+18,1.0,6.0,2.0,2.0,3.0,4.0,-1.0,-12.0
1.6951613925580726e+18,1.0,2.0,2.0,2.0,5.0,3.0,-1.0,-6.0
1.6951613925580726e+18,-8.0,-12.0,0.0,-3.0,-5.0,-10.0,-9.0,11.0
1.6951613925850555e+18,4.0,5.0,0.0,-1.0,-2.0,-1.0,5.0,-7.0
1.6951613925850555e+18,-4.0,1.0,-3.0,-1.0,1.0,1.0,4.0,-1.0
1.6951613925850555e+18,4.0,7.0,2.0,2.0,2.0,2.0,1.0,4.0
1.6951613925850555e+18,-8.0,-13.0,0.0,-1.0,-1.0,5.0,11.0,-6.0
1.6951613926070643e+18,-5.0,0.0,1.0,-1.0,-3.0,-8.0,-9.0,0.0
1.6951613926070643e+18,3.0,2.0,4.0,1.0,-2.0,0.0,4.0,-6.0
1.695161392608044e+18,17.0,0.0,-4.0,-4.0,-1.0,2.0,-8.0,-7.0
1.695161392608044e+18,-18.0,-20.0,-4.0,-2.0,2.0,-4.0,-19.0,14.0
1.695161392614041e+18,-5.0,-2.0,-6.0,-1.0,0.0,6.0,15.0,44.0
1.695161392614041e+18,3.0,15.0,3.0,-2.0,-3.0,-11.0,-10.0,-32.0
1.6951613926150385e+18,1.0,6.0,-1.0,-4.0,-7.0,-10.0,-12.0,12.0
1.6951613926150385e+18,20.0,0.0,0.0,1.0,-6.0,6.0,-3.0,-12.0
1.6951613926380275e+18,-24.0,-24.0,-5.0,-4.0,2.0,8.0,16.0,-7.0
1.6951613926380275e+18,-14.0,2.0,-3.0,3.0,7.0,-2.0,9.0,-17.0
1.6951613926600115e+18,-7.0,4.0,6.0,3.0,2.0,9.0,12.0,-24.0
1.6951613926610135e+18,34.0,-2.0,3.0,-7.0,0.0,5.0,-5.0,96.0
1.6951613926620134e+18,-6.0,18.0,-1.0,-3.0,-8.0,-8.0,-6.0,-17.0
1.6951613926620134e+18,11.0,8.0,-4.0,-2.0,-6.0,-6.0,-9.0,6.0
1.6951613926630103e+18,-9.0,-13.0,-1.0,-1.0,-2.0,-10.0,-12.0,-31.0
1.6951613926630103e+18,-12.0,13.0,3.0,5.0,-1.0,1.0,13.0,-20.0
1.6951613926740063e+18,14.0,-6.0,-3.0,-4.0,1.0,-5.0,-8.0,-4.0
1.6951613926740063e+18,-18.0,-17.0,3.0,-1.0,2.0,-1.0,-3.0,-29.0
1.6951613926750067e+18,11.0,18.0,0.0,7.0,7.0,5.0,1.0,17.0
1.6951613926750067e+18,-16.0,-5.0,-12.0,-10.0,-4.0,-1.0,8.0,-1.0
1.695161392727975e+18,1.0,-1.0,1.0,0.0,-4.0,-9.0,-12.0,-3.0
1.695161392727975e+18,-21.0,7.0,4.0,1.0,-6.0,-9.0,-22.0,-39.0
1.6951613927289825e+18,13.0,-1.0,-1.0,2.0,7.0,1.0,-23.0,9.0
1.6951613927289825e+18,7.0,-13.0,5.0,6.0,9.0,20.0,67.0,57.0
1.6951613927509604e+18,1.0,6.0,1.0,-2.0,-6.0,-26.0,-56.0,24.0
1.6951613927519626e+18,-4.0,-4.0,-7.0,-3.0,-1.0,21.0,40.0,-6.0
1.6951613927519626e+18,21.0,4.0,-1.0,-2.0,-5.0,-3.0,16.0,-11.0
1.6951613927519626e+18,-27.0,5.0,4.0,3.0,3.0,2.0,-19.0,-52.0
1.6951613927529646e+18,5.0,-28.0,-8.0,-14.0,-3.0,1.0,3.0,-36.0
1.6951613927529646e+18,6.0,-4.0,1.0,5.0,0.0,-15.0,-5.0,36.0
1.6951613927739471e+18,-12.0,40.0,13.0,5.0,7.0,17.0,34.0,-21.0
1.6951613927739471e+18,-10.0,-14.0,-5.0,1.0,-2.0,-10.0,-16.0,11.0
1.6951613927749463e+18,6.0,-15.0,-2.0,-2.0,-7.0,-27.0,-17.0,16.0
1.6951613927749463e+18,-32.0,8.0,12.0,10.0,10.0,37.0,40.0,-19.0
1.695161392775962e+18,3.0,-30.0,-19.0,-20.0,-14.0,-15.0,-55.0,19.0
1.695161392775962e+18,26.0,32.0,8.0,5.0,3.0,11.0,46.0,45.0
1.695161392810927e+18,-3.0,16.0,4.0,2.0,2.0,23.0,-17.0,-18.0
1.695161392810927e+18,38.0,-14.0,-12.0,-7.0,-6.0,-23.0,-1.0,-63.0
1.6951613928119255e+18,-88.0,-35.0,-2.0,17.0,12.0,19.0,44.0,-44.0
1.6951613928119255e+18,33.0,13.0,7.0,4.0,-2.0,-18.0,-44.0,57.0
1.695161392812925e+18,-6.0,11.0,-2.0,6.0,5.0,5.0,28.0,56.0
1.695161392812925e+18,-35.0,-17.0,-13.0,-21.0,-19.0,-11.0,-31.0,4.0
1.6951613928638979e+18,38.0,17.0,5.0,10.0,-10.0,-18.0,-24.0,19.0
1.6951613928638979e+18,-2.0,-20.0,0.0,-8.0,5.0,1.0,-8.0,-56.0
1.695161392864895e+18,38.0,7.0,-9.0,12.0,4.0,14.0,24.0,-24.0
1.695161392864895e+18,8.0,18.0,5.0,-5.0,1.0,-6.0,-23.0,32.0
1.6951613928658941e+18,-1.0,-19.0,-11.0,-12.0,-5.0,-8.0,27.0,13.0
1.6951613928658941e+18,-26.0,5.0,-3.0,-1.0,-2.0,5.0,-16.0,-55.0
1.6951613928858836e+18,9.0,5.0,3.0,5.0,0.0,-13.0,-27.0,11.0
1.6951613928858836e+18,6.0,-15.0,-6.0,-1.0,7.0,13.0,30.0,10.0
1.695161392886883e+18,-18.0,5.0,9.0,11.0,1.0,3.0,8.0,-54.0
1.695161392886883e+18,2.0,0.0,-4.0,-3.0,-6.0,-4.0,-2.0,49.0
1.6951613929008748e+18,-2.0,5.0,3.0,2.0,5.0,17.0,46.0,17.0
1.6951613929008748e+18,-17.0,-5.0,-3.0,2.0,1.0,-1.0,-32.0,-82.0
1.6951613929018747e+18,5.0,-6.0,0.0,-7.0,6.0,4.0,-3.0,84.0
1.6951613929018747e+18,-4.0,-5.0,0.0,-1.0,-7.0,-24.0,-26.0,-29.0
1.6951613929028739e+18,-4.0,-7.0,-3.0,-1.0,-1.0,23.0,21.0,-52.0
1.6951613929028739e+18,29.0,3.0,2.0,1.0,0.0,-11.0,-16.0,81.0
1.695161392938852e+18,0.0,-7.0,2.0,0.0,-2.0,-3.0,5.0,-55.0
1.695161392939852e+18,-8.0,1.0,1.0,1.0,-3.0,-3.0,-18.0,-20.0
1.695161392939852e+18,0.0,5.0,-3.0,-8.0,-8.0,-21.0,-35.0,-21.0
1.695161392939852e+18,-27.0,-1.0,4.0,2.0,1.0,6.0,4.0,-30.0
1.6951613929528443e+18,7.0,-21.0,-9.0,-9.0,-7.0,1.0,41.0,-42.0
1.6951613929528443e+18,26.0,33.0,6.0,1.0,4.0,12.0,14.0,58.0
1.695161392953845e+18,26.0,-27.0,-10.0,-9.0,-11.0,-14.0,-1.0,19.0
1.695161392953845e+18,-32.0,-5.0,3.0,6.0,-2.0,-12.0,-8.0,8.0
1.6951613929548444e+18,4.0,-8.0,-2.0,7.0,10.0,22.0,7.0,-24.0
1.6951613929558433e+18,22.0,17.0,8.0,5.0,7.0,16.0,12.0,40.0
1.6951613929758446e+18,-8.0,-10.0,-4.0,5.0,4.0,-4.0,-8.0,-12.0
1.6951613929758446e+18,4.0,6.0,-3.0,-9.0,1.0,1.0,4.0,24.0
1.695161392976834e+18,-19.0,-9.0,-11.0,-4.0,0.0,8.0,20.0,-42.0
1.695161392976834e+18,-1.0,-13.0,1.0,5.0,-2.0,-12.0,-54.0,-50.0
1.6951613929778307e+18,15.0,16.0,13.0,-6.0,2.0,-5.0,3.0,51.0
1.6951613929778307e+18,14.0,1.0,10.0,2.0,1.0,8.0,46.0,-5.0
1.6951613929978214e+18,21.0,12.0,-18.0,1.0,1.0,-10.0,-15.0,13.0
1.6951613929978214e+18,-39.0,-12.0,0.0,-3.0,0.0,12.0,-6.0,-17.0
1.6951613929988183e+18,-14.0,3.0,5.0,6.0,-4.0,-4.0,-24.0,-5.0
1.6951613929988183e+18,-11.0,-2.0,-16.0,-1.0,2.0,20.0,79.0,36.0
1.6951613930268037e+18,14.0,6.0,3.0,3.0,1.0,-6.0,-26.0,-27.0
1.6951613930278026e+18,15.0,25.0,10.0,6.0,8.0,10.0,51.0,32.0
1.6951613930278026e+18,-13.0,-16.0,-19.0,-7.0,-10.0,7.0,1.0,-32.0
1.6951613930278026e+18,-7.0,-3.0,6.0,9.0,3.0,-12.0,-25.0,19.0
1.6951613930347988e+18,-10.0,-18.0,3.0,-23.0,-12.0,-23.0,-15.0,-15.0
1.695161393035798e+18,-23.0,-4.0,-9.0,-5.0,-9.0,1.0,10.0,-39.0
1.6951613930487905e+18,13.0,18.0,14.0,11.0,10.0,12.0,31.0,40.0
1.6951613930497928e+18,40.0,6.0,-13.0,1.0,-1.0,15.0,0.0,30.0
1.6951613930567852e+18,-11.0,-20.0,-6.0,6.0,4.0,1.0,10.0,12.0
1.6951613930567852e+18,12.0,21.0,11.0,4.0,5.0,-18.0,-12.0,-5.0
1.6951613930567852e+18,3.0,-32.0,8.0,-4.0,9.0,29.0,5.0,-20.0
1.6951613930577843e+18,-38.0,-10.0,-18.0,1.0,-3.0,-17.0,-37.0,-12.0
1.6951613930887667e+18,34.0,29.0,14.0,-2.0,3.0,20.0,18.0,64.0
1.6951613930887667e+18,15.0,-18.0,-18.0,4.0,0.0,4.0,-5.0,1.0
1.6951613930897667e+18,-21.0,14.0,8.0,-20.0,-2.0,-4.0,55.0,-55.0
1.6951613930897667e+18,28.0,12.0,12.0,7.0,1.0,-9.0,-36.0,9.0
1.6951613931017587e+18,-35.0,-20.0,6.0,5.0,7.0,18.0,1.0,-3.0
1.6951613931017587e+18,12.0,-1.0,7.0,3.0,-3.0,-10.0,2.0,82.0
1.6951613931027615e+18,25.0,-6.0,-7.0,15.0,3.0,-9.0,6.0,-7.0
1.6951613931027615e+18,-14.0,-10.0,-13.0,-12.0,-1.0,-3.0,-32.0,-55.0
1.6951613931177505e+18,-7.0,-7.0,1.0,-6.0,-7.0,-12.0,9.0,9.0
1.6951613931177505e+18,18.0,-3.0,6.0,0.0,-2.0,6.0,5.0,-37.0
1.6951613931187502e+18,6.0,19.0,6.0,2.0,3.0,0.0,-35.0,-6.0
1.6951613931187502e+18,-8.0,-16.0,1.0,6.0,0.0,9.0,29.0,-8.0
1.6951613931407396e+18,23.0,3.0,-1.0,-5.0,-1.0,11.0,21.0,23.0
1.6951613931407396e+18,6.0,14.0,5.0,0.0,3.0,-5.0,-41.0,30.0
1.6951613931427384e+18,-5.0,-3.0,-24.0,-7.0,-8.0,-10.0,-8.0,-15.0
1.6951613931427384e+18,-3.0,-7.0,-5.0,-12.0,-14.0,-9.0,-17.0,-13.0
1.695161393193706e+18,-11.0,2.0,3.0,1.0,-1.0,-15.0,-6.0,-36.0
1.695161393193706e+18,-8.0,-11.0,-6.0,8.0,3.0,8.0,35.0,51.0
1.695161393193706e+18,-10.0,10.0,3.0,-8.0,4.0,5.0,-10.0,14.0
1.6951613931947105e+18,-11.0,3.0,-8.0,-13.0,-9.0,-12.0,-12.0,-10.0
1.6951613931957053e+18,-14.0,-26.0,14.0,12.0,0.0,-8.0,-34.0,-36.0
1.6951613931957053e+18,11.0,15.0,-4.0,-22.0,-9.0,1.0,-5.0,7.0
1.6951613932156933e+18,-13.0,5.0,-8.0,8.0,2.0,-5.0,-19.0,4.0
1.6951613932156933e+18,-11.0,-15.0,5.0,-5.0,-13.0,-9.0,9.0,-6.0
1.6951613932176932e+18,8.0,18.0,-6.0,-2.0,6.0,-6.0,-10.0,-2.0
1.6951613932176932e+18,-2.0,-21.0,-2.0,12.0,5.0,-4.0,-12.0,-34.0
1.6951613932186926e+18,5.0,5.0,2.0,-4.0,0.0,6.0,27.0,42.0
1.6951613932186926e+18,-12.0,-6.0,-2.0,-5.0,-3.0,-2.0,-18.0,-39.0
1.6951613932546716e+18,1.0,29.0,-8.0,-10.0,-15.0,-5.0,-6.0,15.0
1.6951613932546716e+18,-10.0,-3.0,-6.0,-9.0,-9.0,-8.0,4.0,-16.0
1.6951613932546716e+18,0.0,-13.0,8.0,12.0,7.0,2.0,-11.0,1.0
1.6951613932546716e+18,13.0,12.0,4.0,-2.0,-5.0,-6.0,3.0,5.0
1.695161393268666e+18,-5.0,-3.0,3.0,8.0,0.0,-5.0,-3.0,-9.0
1.6951613932696668e+18,-10.0,-22.0,-5.0,2.0,7.0,4.0,12.0,-26.0
1.69516139327566e+18,7.0,16.0,-1.0,-22.0,-18.0,-6.0,-16.0,-1.0
1.6951613932766597e+18,12.0,2.0,10.0,17.0,18.0,9.0,11.0,-1.0
1.6951613932776635e+18,-1.0,-11.0,-4.0,9.0,3.0,-8.0,1.0,71.0
1.6951613932786596e+18,-1.0,5.0,4.0,-12.0,-7.0,3.0,11.0,-17.0
1.6951613932786596e+18,-8.0,-11.0,-5.0,11.0,13.0,-3.0,-24.0,-29.0
1.6951613932786596e+18,1.0,0.0,0.0,-4.0,-1.0,-1.0,3.0,6.0
1.695161393290651e+18,-4.0,7.0,-4.0,-3.0,0.0,0.0,-3.0,5.0
1.6951613932916506e+18,-1.0,-4.0,-3.0,-9.0,-2.0,1.0,-1.0,-11.0
1.6951613932916506e+18,0.0,-2.0,2.0,-2.0,-7.0,-5.0,-9.0,1.0
1.6951613932916506e+18,-2.0,6.0,-4.0,4.0,4.0,0.0,5.0,2.0
1.6951613932966474e+18,-2.0,-8.0,-5.0,-7.0,-6.0,-6.0,-3.0,-14.0
1.6951613932966474e+18,-1.0,-5.0,-2.0,0.0,-3.0,-3.0,-9.0,-8.0
1.6951613933056645e+18,-2.0,0.0,-1.0,4.0,-2.0,0.0,12.0,15.0
1.695161393306644e+18,7.0,-1.0,-1.0,-3.0,1.0,0.0,-1.0,2.0
1.6951613933266522e+18,-8.0,2.0,-3.0,0.0,-3.0,2.0,2.0,-10.0
1.6951613933276293e+18,2.0,0.0,0.0,-1.0,1.0,-2.0,-4.0,-5.0
1.6951613933276293e+18,-6.0,-2.0,-2.0,-2.0,-2.0,-1.0,-6.0,-5.0
1.6951613933276293e+18,3.0,2.0,2.0,4.0,3.0,1.0,5.0,3.0
1.6951613933646103e+18,-9.0,-4.0,-1.0,-3.0,-1.0,0.0,-1.0,-4.0
1.6951613933646103e+18,2.0,-2.0,-4.0,-1.0,-1.0,-1.0,-5.0,3.0
1.6951613933646103e+18,1.0,-5.0,0.0,1.0,-4.0,-2.0,-2.0,-1.0
1.6951613933656095e+18,1.0,-2.0,-1.0,-5.0,-2.0,-1.0,2.0,6.0
1.6951613933815987e+18,-4.0,1.0,-2.0,-3.0,0.0,2.0,3.0,-12.0
1.6951613933815987e+18,2.0,3.0,1.0,3.0,3.0,2.0,-1.0,5.0
1.695161393382599e+18,-1.0,1.0,-2.0,-1.0,-3.0,-1.0,-2.0,-2.0
1.695161393382599e+18,-4.0,-4.0,-2.0,-6.0,-2.0,-1.0,1.0,-1.0
1.6951613934035876e+18,2.0,2.0,-1.0,-1.0,-4.0,-2.0,-5.0,-4.0
1.6951613934035876e+18,-2.0,0.0,1.0,2.0,0.0,-2.0,0.0,0.0
1.6951613934045883e+18,2.0,1.0,-1.0,-1.0,-1.0,-3.0,-3.0,-2.0
1.6951613934045883e+18,-3.0,-1.0,-2.0,-3.0,1.0,-1.0,2.0,-1.0
1.6951613934055862e+18,1.0,-4.0,0.0,1.0,-1.0,-1.0,2.0,-3.0
1.6951613934055862e+18,-4.0,-1.0,-1.0,0.0,0.0,-2.0,-3.0,1.0
1.695161393417581e+18,0.0,1.0,0.0,1.0,2.0,1.0,1.0,-5.0
1.6951613934185802e+18,0.0,1.0,-1.0,-2.0,0.0,-1.0,1.0,-1.0
1.695161393440565e+18,1.0,0.0,-3.0,-3.0,-4.0,-2.0,-3.0,-2.0
1.695161393440565e+18,-3.0,-1.0,1.0,-1.0,-1.0,0.0,0.0,-2.0
1.695161393440565e+18,-2.0,-1.0,0.0,1.0,2.0,2.0,2.0,0.0
1.695161393440565e+18,0.0,-2.0,-1.0,1.0,-2.0,-1.0,0.0,0.0
1.6951613934545792e+18,1.0,0.0,-1.0,0.0,0.0,1.0,-2.0,-1.0
1.6951613934545792e+18,-2.0,-1.0,-3.0,-1.0,-2.0,-3.0,-4.0,-1.0
1.695161393455559e+18,1.0,1.0,0.0,0.0,-2.0,-1.0,-2.0,-2.0
1.695161393455559e+18,1.0,-2.0,-1.0,-3.0,-1.0,-1.0,0.0,2.0
1.695161393493537e+18,0.0,0.0,-3.0,0.0,-2.0,-1.0,-2.0,-2.0
1.695161393493537e+18,0.0,0.0,0.0,1.0,0.0,-3.0,-2.0,-1.0
1.6951613934945385e+18,-1.0,-1.0,-4.0,-2.0,-3.0,1.0,0.0,0.0
1.6951613934945385e+18,-2.0,-1.0,-3.0,-1.0,0.0,0.0,1.0,0.0
1.695161393495536e+18,-1.0,-1.0,3.0,1.0,-2.0,-3.0,-3.0,-2.0
1.695161393495536e+18,-2.0,0.0,0.0,1.0,-3.0,-3.0,-2.0,0.0
1.6951613935075282e+18,-2.0,-2.0,4.0,2.0,0.0,0.0,0.0,0.0
1.6951613935075282e+18,-2.0,-2.0,-2.0,-4.0,4.0,4.0,4.0,0.0
1.695161393509526e+18,-1.0,-1.0,-7.0,-2.0,-2.0,1.0,2.0,-2.0
1.695161393509526e+18,0.0,0.0,2.0,0.0,-1.0,-1.0,-1.0,0.0
1.695161393534513e+18,0.0,-2.0,-3.0,-5.0,-3.0,-3.0,-2.0,-1.0
1.695161393534513e+18,-1.0,1.0,2.0,2.0,-3.0,0.0,-2.0,0.0
1.695161393538512e+18,-2.0,-1.0,-4.0,-3.0,2.0,-1.0,0.0,-1.0
1.695161393538512e+18,0.0,-1.0,-2.0,-5.0,-2.0,-2.0,-1.0,-1.0
1.695161393538512e+18,1.0,1.0,-4.0,-6.0,-3.0,-4.0,-2.0,-2.0
1.695161393538512e+18,-1.0,-2.0,0.0,2.0,1.0,-1.0,0.0,-1.0
1.695161393569492e+18,-3.0,-3.0,-1.0,-2.0,-1.0,0.0,0.0,-1.0
1.695161393569492e+18,-1.0,0.0,-2.0,3.0,2.0,-1.0,-1.0,1.0
1.6951613935704924e+18,0.0,-1.0,-3.0,1.0,-2.0,-1.0,0.0,0.0
1.6951613935704924e+18,1.0,0.0,0.0,-3.0,-2.0,-1.0,-1.0,-1.0
1.6951613936054702e+18,1.0,1.0,2.0,4.0,2.0,1.0,1.0,1.0
1.6951613936054702e+18,1.0,-2.0,-2.0,-1.0,1.0,1.0,4.0,3.0
1.6951613936064735e+18,0.0,-3.0,0.0,1.0,0.0,2.0,2.0,0.0
1.6951613936064735e+18,-2.0,13.0,-10.0,-8.0,-5.0,-4.0,-3.0,-3.0
1.6951613936084692e+18,-2.0,-2.0,3.0,-1.0,-1.0,0.0,-4.0,-4.0
1.6951613936084692e+18,0.0,10.0,-5.0,-9.0,-6.0,-15.0,-6.0,-3.0
1.695161393611467e+18,-2.0,-2.0,-8.0,1.0,2.0,15.0,3.0,3.0
1.695161393611467e+18,3.0,2.0,26.0,15.0,-1.0,1.0,1.0,0.0
1.6951613936204618e+18,-4.0,-18.0,-21.0,3.0,6.0,-2.0,0.0,-1.0
1.695161393621461e+18,0.0,6.0,2.0,-8.0,-3.0,2.0,-4.0,-3.0
1.695161393621461e+18,-1.0,-3.0,-23.0,-6.0,-10.0,-11.0,-1.0,-1.0
1.695161393621461e+18,-2.0,-7.0,27.0,7.0,5.0,9.0,2.0,0.0
1.6951613936224643e+18,-1.0,4.0,-26.0,-11.0,1.0,-3.0,-1.0,-4.0
1.6951613936224643e+18,0.0,8.0,-8.0,7.0,10.0,12.0,2.0,1.0
1.6951613936434514e+18,2.0,5.0,28.0,5.0,6.0,2.0,1.0,0.0
1.6951613936434514e+18,-2.0,-8.0,-25.0,-1.0,-4.0,-4.0,-2.0,-2.0
1.6951613936444503e+18,-1.0,4.0,19.0,1.0,-4.0,-5.0,-2.0,-2.0
1.6951613936444503e+18,-2.0,-5.0,-1.0,-3.0,-3.0,-6.0,-2.0,-1.0
1.695161393655443e+18,-1.0,2.0,15.0,-2.0,-5.0,-2.0,-1.0,0.0
1.6951613936564444e+18,-1.0,-3.0,2.0,3.0,3.0,3.0,1.0,1.0
1.6951613936634368e+18,-3.0,0.0,-9.0,-3.0,-1.0,-2.0,-2.0,-3.0
1.6951613936644393e+18,1.0,-3.0,8.0,-5.0,-1.0,-5.0,-2.0,-1.0
1.6951613936944417e+18,3.0,3.0,-14.0,-1.0,0.0,1.0,-1.0,1.0
1.6951613936944417e+18,-3.0,-7.0,1.0,1.0,-1.0,1.0,1.0,-2.0
1.69516139369542e+18,1.0,-4.0,9.0,4.0,-1.0,-4.0,-2.0,0.0
1.69516139369542e+18,-1.0,-1.0,-2.0,-3.0,0.0,-2.0,0.0,0.0
1.6951613937164096e+18,2.0,7.0,7.0,-3.0,-1.0,2.0,-1.0,0.0
1.6951613937164096e+18,-1.0,-12.0,-5.0,1.0,-1.0,0.0,-1.0,-1.0
1.6951613937174083e+18,-1.0,-2.0,2.0,1.0,-1.0,0.0,-2.0,0.0
1.6951613937174083e+18,-1.0,-2.0,3.0,-1.0,0.0,1.0,0.0,0.0
1.695161393718407e+18,-1.0,3.0,6.0,1.0,-3.0,1.0,-2.0,1.0
1.695161393718407e+18,-2.0,2.0,-8.0,-1.0,-4.0,-3.0,0.0,0.0
1.6951613937234056e+18,-2.0,-4.0,1.0,2.0,-3.0,3.0,1.0,0.0
1.6951613937244027e+18,-1.0,0.0,14.0,2.0,11.0,3.0,1.0,-1.0
1.6951613937383946e+18,0.0,-1.0,3.0,0.0,-1.0,-3.0,-1.0,-1.0
1.6951613937393938e+18,0.0,-1.0,-3.0,-1.0,2.0,2.0,-1.0,0.0
1.6951613937393938e+18,-1.0,-6.0,5.0,1.0,-2.0,-3.0,-1.0,-1.0
1.6951613937393938e+18,-1.0,-1.0,-2.0,-3.0,-4.0,-2.0,-1.0,0.0
1.6951613937693788e+18,0.0,-2.0,-4.0,0.0,0.0,1.0,-1.0,-3.0
1.6951613937693788e+18,1.0,2.0,3.0,-1.0,0.0,0.0,-1.0,0.0
1.6951613937703767e+18,-2.0,2.0,3.0,0.0,0.0,0.0,-3.0,0.0
1.6951613937703767e+18,0.0,-3.0,-4.0,0.0,-4.0,-2.0,0.0,1.0
1.6951613937843686e+18,-1.0,0.0,-2.0,-1.0,0.0,0.0,-1.0,-2.0
1.6951613937843686e+18,0.0,2.0,0.0,-2.0,-1.0,1.0,-1.0,-1.0
1.695161393785371e+18,0.0,-2.0,4.0,2.0,2.0,1.0,0.0,-1.0
1.695161393785371e+18,-2.0,-2.0,-5.0,-1.0,-1.0,-1.0,-1.0,0.0
1.6951613938073551e+18,1.0,-2.0,0.0,-3.0,-1.0,1.0,0.0,-1.0
1.6951613938073551e+18,-1.0,1.0,2.0,0.0,0.0,0.0,-2.0,-2.0
1.6951613938073551e+18,-1.0,0.0,-1.0,-1.0,-1.0,-1.0,-2.0,-1.0
1.695161393808355e+18,-1.0,-3.0,0.0,-1.0,-4.0,-3.0,-2.0,-2.0
1.6951613938223465e+18,-1.0,0.0,-1.0,1.0,-1.0,-1.0,0.0,0.0
1.6951613938223465e+18,-1.0,1.0,0.0,1.0,1.0,-1.0,-2.0,1.0
1.6951613938223465e+18,-1.0,-1.0,-2.0,0.0,0.0,-2.0,0.0,0.0
1.695161393823346e+18,0.0,-2.0,-2.0,-1.0,-2.0,-1.0,0.0,-2.0
1.6951613938525604e+18,0.0,0.0,0.0,-1.0,-2.0,2.0,-1.0,-1.0
1.6951613938525604e+18,0.0,0.0,-2.0,0.0,0.0,1.0,0.0,-1.0
1.6951613938525604e+18,-1.0,0.0,0.0,0.0,1.0,0.0,-1.0,0.0
1.6951613938525604e+18,-1.0,-1.0,-2.0,0.0,-1.0,-1.0,0.0,-1.0
1.6951613938587832e+18,0.0,-1.0,2.0,1.0,-2.0,0.0,-1.0,-1.0
1.6951613938587832e+18,-1.0,0.0,1.0,1.0,0.0,0.0,0.0,-1.0
1.6951613938597837e+18,0.0,-1.0,-3.0,-2.0,-1.0,-2.0,1.0,-2.0
1.6951613938597837e+18,-1.0,0.0,0.0,-2.0,-1.0,-2.0,-1.0,0.0
1.6951613938827702e+18,-2.0,-1.0,-2.0,-2.0,0.0,-2.0,-1.0,-1.0
1.6951613938837476e+18,-1.0,-1.0,-1.0,-3.0,0.0,-2.0,0.0,0.0
1.6951613938837476e+18,1.0,-3.0,0.0,0.0,-2.0,0.0,-2.0,0.0
1.6951613938837476e+18,0.0,-1.0,-3.0,0.0,0.0,1.0,-2.0,-1.0
1.695161393914752e+18,-1.0,2.0,2.0,-2.0,-2.0,-4.0,-2.0,-2.0
1.695161393914752e+18,-2.0,-4.0,-10.0,-3.0,-1.0,-1.0,-1.0,0.0
1.6951613939157473e+18,-1.0,1.0,-1.0,-2.0,0.0,-2.0,-1.0,-1.0
1.6951613939167288e+18,-2.0,-3.0,0.0,-1.0,0.0,1.0,-1.0,-2.0
1.6951613939188106e+18,-1.0,-1.0,-4.0,0.0,0.0,2.0,-3.0,-1.0
1.6951613939188106e+18,-1.0,2.0,2.0,0.0,0.0,-1.0,-1.0,0.0
1.6951613939198467e+18,1.0,-2.0,-2.0,-3.0,-2.0,0.0,-1.0,-1.0
1.6951613939198467e+18,-1.0,1.0,-1.0,-1.0,-2.0,0.0,1.0,0.0
1.6951613939415928e+18,-1.0,-2.0,-3.0,-1.0,1.0,-2.0,-2.0,-1.0
1.6951613939415928e+18,0.0,1.0,2.0,1.0,-1.0,-2.0,-1.0,1.0
1.695161393942594e+18,-1.0,0.0,-2.0,-1.0,0.0,0.0,-1.0,0.0
1.695161393942594e+18,0.0,-2.0,0.0,0.0,-1.0,-2.0,-1.0,1.0
1.6951613939643482e+18,0.0,-2.0,1.0,-2.0,-1.0,-1.0,-1.0,0.0
1.6951613939643482e+18,0.0,-2.0,0.0,0.0,-1.0,-1.0,-1.0,-2.0
1.695161393965348e+18,-1.0,0.0,1.0,1.0,1.0,-1.0,-3.0,-2.0
1.695161393965348e+18,-1.0,-2.0,0.0,1.0,-1.0,0.0,0.0,-1.0
1.6951613939784458e+18,0.0,2.0,-1.0,0.0,-1.0,0.0,0.0,-1.0
1.695161393979449e+18,-1.0,-1.0,-1.0,-1.0,-2.0,-2.0,1.0,-3.0
1.695161393979449e+18,-1.0,-1.0,-1.0,-1.0,-2.0,0.0,1.0,0.0
1.695161393979449e+18,0.0,-1.0,-4.0,-1.0,0.0,-1.0,-1.0,-1.0
1.6951613940015795e+18,-1.0,-2.0,-2.0,1.0,-1.0,0.0,0.0,1.0
1.6951613940015795e+18,-2.0,-2.0,0.0,-1.0,0.0,0.0,-2.0,-1.0
1.695161394002555e+18,-3.0,-2.0,0.0,0.0,1.0,-3.0,-1.0,-1.0
1.695161394002555e+18,0.0,-1.0,-3.0,0.0,-1.0,-1.0,-2.0,-2.0
1.6951613940245668e+18,-1.0,-1.0,-1.0,-2.0,0.0,0.0,-1.0,0.0
1.6951613940245668e+18,1.0,0.0,-3.0,-1.0,-2.0,-1.0,0.0,-1.0
1.6951613940315807e+18,0.0,-1.0,-1.0,0.0,-1.0,-1.0,-2.0,0.0
1.6951613940315807e+18,-1.0,1.0,0.0,-2.0,-1.0,-1.0,-2.0,-3.0
1.6951613940395776e+18,-2.0,-2.0,-2.0,0.0,0.0,-1.0,1.0,-2.0
1.6951613940395776e+18,1.0,0.0,-1.0,-1.0,-1.0,1.0,-1.0,0.0
1.6951613940395776e+18,0.0,-2.0,0.0,-1.0,1.0,1.0,0.0,-2.0
1.6951613940395776e+18,-1.0,0.0,-1.0,-2.0,-1.0,0.0,0.0,0.0
1.6951613940615526e+18,-1.0,0.0,-1.0,1.0,-2.0,0.0,0.0,-1.0
1.6951613940615526e+18,-1.0,-2.0,1.0,-1.0,1.0,0.0,0.0,1.0
1.695161394062553e+18,-2.0,-1.0,-1.0,0.0,-2.0,0.0,0.0,-1.0
1.695161394062553e+18,-1.0,-2.0,0.0,-1.0,-1.0,-1.0,-1.0,2.0
1.6951613940843077e+18,-1.0,1.0,0.0,0.0,0.0,0.0,-1.0,0.0
1.6951613940853115e+18,0.0,-1.0,0.0,0.0,-1.0,0.0,0.0,-2.0
1.6951613940853115e+18,0.0,0.0,-1.0,0.0,-1.0,-1.0,-1.0,0.0
1.6951613940853115e+18,0.0,-2.0,-1.0,0.0,-2.0,-1.0,0.0,-2.0
1.695161394098625e+18,0.0,-2.0,-2.0,-1.0,-1.0,0.0,1.0,-2.0
1.695161394098625e+18,0.0,0.0,-2.0,-1.0,0.0,0.0,-1.0,-1.0
1.6951613941075948e+18,0.0,1.0,-1.0,-2.0,1.0,0.0,0.0,0.0
1.6951613941085967e+18,-1.0,-2.0,-1.0,0.0,-3.0,1.0,-2.0,0.0
1.695161394121593e+18,0.0,-1.0,-1.0,-2.0,0.0,0.0,0.0,-2.0
1.6951613941225856e+18,0.0,-2.0,0.0,-1.0,0.0,-1.0,-2.0,0.0
1.6951613941225856e+18,1.0,0.0,0.0,-2.0,-1.0,0.0,-1.0,0.0
1.6951613941225856e+18,1.0,0.0,-1.0,-2.0,0.0,-1.0,-1.0,-1.0
1.6951613941505692e+18,-1.0,0.0,-2.0,-2.0,0.0,-3.0,-2.0,-1.0
1.6951613941515712e+18,-2.0,-1.0,-2.0,0.0,-1.0,0.0,-1.0,-1.0
1.6951613941645942e+18,0.0,0.0,-1.0,1.0,-1.0,-2.0,-1.0,-2.0
1.6951613941645942e+18,-2.0,0.0,-1.0,1.0,1.0,0.0,-2.0,-1.0
1.6951613941655626e+18,-1.0,-3.0,1.0,-2.0,-2.0,1.0,-2.0,-1.0
1.6951613941655626e+18,0.0,0.0,-1.0,-2.0,-2.0,-1.0,-1.0,-1.0
1.6951613941655626e+18,1.0,-1.0,-1.0,0.0,-1.0,0.0,0.0,0.0
1.6951613941655626e+18,-1.0,0.0,0.0,-2.0,0.0,-1.0,0.0,0.0
1.695161394197543e+18,-1.0,1.0,-1.0,1.0,0.0,0.0,0.0,1.0
1.6951613941985423e+18,0.0,0.0,-1.0,1.0,0.0,1.0,0.0,-1.0
1.6951613941995433e+18,-1.0,1.0,-2.0,-1.0,-2.0,-1.0,-2.0,0.0
1.6951613941995433e+18,1.0,0.0,-1.0,0.0,-1.0,-2.0,-1.0,-2.0
1.6951613942055383e+18,-1.0,-1.0,-3.0,-2.0,-1.0,-1.0,-1.0,0.0
1.6951613942055383e+18,-1.0,-1.0,0.0,-1.0,2.0,-1.0,0.0,-2.0
1.6951613942065388e+18,0.0,-1.0,-2.0,-2.0,2.0,-1.0,-1.0,-2.0
1.6951613942065388e+18,-1.0,-2.0,-2.0,-2.0,-1.0,0.0,0.0,-2.0
1.6951613942475133e+18,-2.0,-1.0,-1.0,-3.0,-1.0,0.0,0.0,-2.0
1.6951613942535107e+18,-1.0,1.0,-1.0,-2.0,-1.0,-1.0,-1.0,-1.0
1.6951613942585096e+18,-2.0,-2.0,-1.0,-1.0,-1.0,0.0,-1.0,-1.0
1.6951613942585096e+18,-1.0,-2.0,-1.0,1.0,-1.0,0.0,-1.0,0.0
1.6951613942595095e+18,0.0,-1.0,0.0,0.0,0.0,-1.0,1.0,0.0
1.6951613942595095e+18,0.0,-3.0,0.0,1.0,-2.0,-1.0,-2.0,-1.0
1.6951613942605071e+18,-2.0,-1.0,-1.0,0.0,0.0,-2.0,0.0,-3.0
1.6951613942605071e+18,-2.0,0.0,0.0,-2.0,0.0,-1.0,-3.0,-2.0
1.6951613942725076e+18,0.0,-1.0,0.0,1.0,1.0,0.0,-1.0,-1.0
1.6951613942734994e+18,-1.0,0.0,-2.0,-1.0,-2.0,-2.0,-1.0,0.0
1.6951613942734994e+18,1.0,-2.0,-1.0,1.0,-2.0,-1.0,-1.0,-2.0
1.695161394274505e+18,0.0,-3.0,-1.0,-1.0,0.0,-1.0,0.0,-1.0
1.6951613943034816e+18,0.0,-1.0,-1.0,-1.0,0.0,-1.0,-2.0,-1.0
1.695161394304481e+18,0.0,-1.0,-1.0,-2.0,-1.0,0.0,1.0,-1.0
1.695161394304481e+18,-2.0,-1.0,-1.0,0.0,1.0,-1.0,-1.0,-1.0
1.695161394304481e+18,0.0,1.0,-1.0,-1.0,-1.0,0.0,-1.0,1.0
1.695161394305481e+18,-2.0,-2.0,-1.0,-1.0,-1.0,-1.0,-1.0,-2.0
1.6951613943064799e+18,0.0,-1.0,0.0,0.0,-1.0,0.0,-1.0,1.0
1.6951613943094781e+18,-1.0,0.0,-1.0,-2.0,1.0,-1.0,0.0,0.0
1.6951613943094781e+18,-3.0,-1.0,-2.0,0.0,0.0,-1.0,1.0,-1.0
1.695161394325471e+18,-1.0,0.0,-1.0,-1.0,1.0,0.0,-1.0,-1.0
1.6951613943314875e+18,0.0,1.0,-1.0,-1.0,-2.0,-1.0,-1.0,-1.0
1.6951613943314875e+18,0.0,0.0,0.0,-1.0,-2.0,-1.0,-1.0,-1.0
1.695161394332465e+18,-2.0,-1.0,-1.0,0.0,-1.0,-1.0,1.0,0.0
1.695161394338461e+18,-2.0,-1.0,-1.0,0.0,-2.0,-1.0,0.0,-2.0
1.695161394338461e+18,-1.0,-2.0,-1.0,-1.0,-1.0,0.0,-1.0,-1.0
1.6951613943626565e+18,0.0,1.0,-1.0,0.0,-1.0,-1.0,1.0,0.0
1.6951613943636165e+18,0.0,-1.0,-2.0,-1.0,0.0,0.0,0.0,-1.0
1.695161394364601e+18,-1.0,-1.0,-1.0,-1.0,-2.0,-1.0,-1.0,-1.0
1.695161394364601e+18,-3.0,-1.0,-1.0,-1.0,1.0,0.0,1.0,-2.0
1.6951613943655939e+18,-2.0,-2.0,-2.0,-1.0,-2.0,1.0,-2.0,-2.0
1.6951613943655939e+18,-1.0,0.0,-1.0,-2.0,0.0,-2.0,0.0,-1.0
1.695161394384702e+18,0.0,0.0,0.0,0.0,-2.0,-1.0,2.0,1.0
1.695161394384702e+18,0.0,0.0,-1.0,1.0,2.0,-1.0,-1.0,-3.0
1.695161394385707e+18,0.0,0.0,1.0,0.0,-1.0,-1.0,-1.0,-2.0
1.695161394385707e+18,-1.0,-1.0,0.0,-1.0,1.0,-1.0,0.0,-1.0
1.6951613943985787e+18,-1.0,-1.0,-1.0,0.0,-1.0,-1.0,-2.0,-2.0
1.6951613943985787e+18,-1.0,-2.0,0.0,-1.0,-1.0,-1.0,-1.0,0.0
1.6951613944385562e+18,0.0,0.0,-2.0,-1.0,-1.0,-1.0,0.0,0.0
1.6951613944385562e+18,0.0,0.0,0.0,-3.0,0.0,-1.0,-2.0,-1.0
1.6951613944405565e+18,-2.0,-1.0,1.0,-2.0,0.0,0.0,-1.0,1.0
1.6951613944405565e+18,0.0,-1.0,-1.0,-2.0,-1.0,0.0,-1.0,-1.0
1.6951613944405565e+18,0.0,-1.0,0.0,-2.0,0.0,-1.0,0.0,1.0
1.6951613944415565e+18,0.0,0.0,-1.0,1.0,-1.0,0.0,-1.0,-1.0
1.695161394445552e+18,-2.0,-1.0,-3.0,1.0,1.0,-1.0,0.0,-2.0
1.695161394445552e+18,-2.0,-1.0,-2.0,-1.0,-2.0,-1.0,0.0,-1.0
1.69516139445155e+18,-1.0,-1.0,-1.0,-1.0,0.0,0.0,-1.0,0.0
1.69516139445155e+18,1.0,0.0,-1.0,-1.0,-1.0,-2.0,-1.0,-1.0
1.6951613944585444e+18,1.0,-1.0,0.0,-1.0,-2.0,0.0,0.0,1.0
1.6951613944585444e+18,2.0,-1.0,0.0,0.0,0.0,0.0,-2.0,0.0
1.695161394466542e+18,-2.0,-1.0,0.0,-1.0,-2.0,-1.0,0.0,0.0
1.695161394466542e+18,0.0,-2.0,-2.0,1.0,-1.0,0.0,0.0,0.0
1.6951613944895283e+18,-1.0,1.0,-2.0,0.0,0.0,0.0,-2.0,-1.0
1.6951613944895283e+18,-1.0,0.0,-2.0,0.0,-1.0,-1.0,1.0,-1.0
1.6951613944905372e+18,-3.0,0.0,-1.0,-1.0,-1.0,0.0,1.0,0.0
1.6951613944905372e+18,-1.0,-2.0,0.0,-1.0,0.0,-1.0,0.0,-2.0
1.6951613945055178e+18,0.0,-1.0,-1.0,-1.0,-2.0,-1.0,-2.0,-1.0
1.6951613945055178e+18,0.0,0.0,-1.0,-2.0,1.0,-2.0,-1.0,0.0
1.6951613945055178e+18,-1.0,0.0,0.0,-1.0,0.0,-2.0,-1.0,-2.0
1.695161394506518e+18,-1.0,-1.0,-1.0,-1.0,-1.0,-1.0,0.0,-1.0
1.695161394518513e+18,-1.0,-1.0,-2.0,1.0,-1.0,0.0,-1.0,0.0
1.695161394518513e+18,0.0,-1.0,0.0,-1.0,-2.0,0.0,-1.0,-1.0
1.6951613945505398e+18,1.0,-2.0,-2.0,-2.0,-2.0,-2.0,-2.0,-1.0
1.6951613945515497e+18,1.0,-1.0,-1.0,-2.0,0.0,-1.0,-2.0,0.0
1.6951613945526036e+18,-1.0,-1.0,0.0,-1.0,-1.0,0.0,0.0,0.0
1.6951613945526036e+18,-3.0,-1.0,0.0,-1.0,0.0,-2.0,0.0,1.0
1.6951613945535475e+18,-2.0,-3.0,-1.0,0.0,-1.0,0.0,-1.0,-1.0
1.6951613945535475e+18,-1.0,-1.0,0.0,-1.0,-1.0,0.0,-2.0,-2.0
1.6951613945646024e+18,0.0,-2.0,0.0,0.0,-2.0,-3.0,0.0,1.0
1.6951613945646024e+18,-1.0,-1.0,-1.0,1.0,-1.0,-1.0,1.0,0.0
1.695161394589626e+18,0.0,1.0,1.0,-1.0,-2.0,-1.0,-1.0,0.0
1.695161394589626e+18,-2.0,-1.0,0.0,0.0,-2.0,0.0,-1.0,-1.0
1.6951613945906245e+18,-1.0,2.0,0.0,0.0,0.0,0.0,0.0,-1.0
1.6951613945916262e+18,1.0,-2.0,1.0,-2.0,-2.0,-2.0,-1.0,-2.0
1.6951613945916262e+18,1.0,-2.0,0.0,0.0,0.0,0.0,1.0,0.0
1.6951613945916262e+18,1.0,0.0,-2.0,0.0,0.0,-1.0,-1.0,0.0
1.6951613946046167e+18,-1.0,-1.0,-1.0,-1.0,0.0,-2.0,-2.0,0.0
1.6951613946046167e+18,0.0,-3.0,-2.0,-2.0,-3.0,1.0,-1.0,-2.0
1.6951613946056156e+18,-2.0,-2.0,-1.0,0.0,0.0,-1.0,0.0,-2.0
1.6951613946056156e+18,-2.0,-1.0,-1.0,-2.0,-2.0,-1.0,0.0,-1.0
1.6951613946415956e+18,1.0,-2.0,-2.0,0.0,1.0,1.0,2.0,-2.0
1.695161394642595e+18,-2.0,1.0,-2.0,-1.0,0.0,-1.0,0.0,1.0
1.695161394642595e+18,0.0,-1.0,0.0,-1.0,-1.0,-1.0,1.0,-1.0
1.695161394643594e+18,-3.0,-1.0,-1.0,2.0,-2.0,0.0,-1.0,2.0
1.695161394643594e+18,0.0,0.0,0.0,-1.0,-2.0,-3.0,-1.0,0.0
1.6951613946445993e+18,-1.0,0.0,-1.0,-1.0,-1.0,-2.0,0.0,-1.0
1.6951613946465956e+18,1.0,0.0,-1.0,1.0,0.0,0.0,-3.0,0.0
1.6951613946465956e+18,1.0,0.0,-1.0,-1.0,-1.0,-2.0,-1.0,-1.0
1.6951613946705825e+18,-1.0,-2.0,0.0,0.0,-2.0,1.0,0.0,-2.0
1.6951613946705825e+18,0.0,-1.0,-1.0,-1.0,-1.0,0.0,0.0,-1.0
1.6951613946705825e+18,-2.0,2.0,-2.0,-2.0,-2.0,-1.0,-1.0,-1.0
1.6951613946705825e+18,0.0,-1.0,-2.0,0.0,0.0,1.0,0.0,0.0
1.695161394684569e+18,-1.0,-1.0,-1.0,0.0,0.0,0.0,-1.0,-1.0
1.695161394684569e+18,-2.0,-3.0,-1.0,-1.0,-1.0,-1.0,-1.0,-1.0
1.6951613946855685e+18,-1.0,-2.0,0.0,-2.0,1.0,0.0,0.0,-1.0
1.6951613946855685e+18,-1.0,-1.0,-3.0,-1.0,-2.0,-1.0,-1.0,-1.0
1.695161394707556e+18,-1.0,0.0,-1.0,1.0,0.0,-2.0,0.0,0.0
1.695161394707556e+18,0.0,1.0,-2.0,-1.0,0.0,1.0,0.0,0.0
1.695161394708556e+18,-1.0,-1.0,-3.0,0.0,-1.0,0.0,-1.0,1.0
1.695161394708556e+18,-1.0,0.0,-1.0,-2.0,2.0,-3.0,-1.0,-3.0
1.6951613947215516e+18,0.0,-2.0,1.0,-2.0,-1.0,-1.0,-2.0,-3.0
1.6951613947215516e+18,-2.0,-1.0,0.0,1.0,0.0,-1.0,-2.0,0.0
1.6951613947225477e+18,-2.0,-1.0,0.0,1.0,0.0,-2.0,-2.0,0.0
1.6951613947225477e+18,0.0,0.0,-1.0,-2.0,0.0,-1.0,0.0,1.0
1.6951613947445353e+18,1.0,0.0,-1.0,-4.0,-1.0,-1.0,-1.0,0.0
1.6951613947445353e+18,0.0,-1.0,0.0,1.0,0.0,2.0,-1.0,0.0
1.6951613947525304e+18,0.0,1.0,-1.0,-6.0,-5.0,-2.0,0.0,0.0
1.6951613947535314e+18,-1.0,-1.0,0.0,3.0,0.0,0.0,-1.0,-1.0
1.695161394767523e+18,-1.0,-1.0,-1.0,-2.0,-1.0,0.0,-1.0,-3.0
1.6951613947735237e+18,-1.0,-1.0,-2.0,-2.0,-2.0,-1.0,1.0,-2.0
1.6951613947745236e+18,-2.0,0.0,0.0,1.0,1.0,0.0,-1.0,0.0
1.6951613947745236e+18,1.0,0.0,0.0,-1.0,-1.0,-1.0,-1.0,-1.0
1.695161394789514e+18,0.0,-1.0,0.0,-1.0,1.0,1.0,-1.0,-1.0
1.6951613947905088e+18,-1.0,-1.0,0.0,-1.0,1.0,-1.0,0.0,-2.0
1.6951613947905088e+18,1.0,-2.0,-2.0,1.0,-1.0,-1.0,-1.0,-1.0
1.695161394791509e+18,-2.0,1.0,-1.0,0.0,-1.0,0.0,0.0,-1.0
1.6951613948045002e+18,1.0,0.0,0.0,0.0,-2.0,-1.0,-1.0,-1.0
1.6951613948045002e+18,-1.0,0.0,-2.0,-1.0,-2.0,-1.0,-1.0,1.0
1.6951613948055022e+18,-1.0,0.0,0.0,-1.0,-1.0,0.0,-1.0,-1.0
1.6951613948055022e+18,-2.0,-1.0,-1.0,-2.0,-1.0,-1.0,1.0,-1.0
1.695161394834484e+18,0.0,-2.0,-1.0,-2.0,-1.0,-1.0,-2.0,-1.0
1.695161394834484e+18,0.0,-1.0,-1.0,-1.0,-2.0,-2.0,-2.0,-1.0
1.6951613948354826e+18,0.0,-2.0,-3.0,-1.0,0.0,-1.0,-1.0,0.0
1.6951613948354826e+18,0.0,-2.0,-1.0,1.0,-1.0,0.0,-1.0,0.0
1.695161394841479e+18,-3.0,0.0,-3.0,-1.0,0.0,0.0,0.0,1.0
1.695161394841479e+18,-1.0,0.0,0.0,0.0,0.0,0.0,0.0,-1.0
1.6951613948424783e+18,-1.0,-1.0,0.0,-1.0,1.0,-1.0,-1.0,-3.0
1.6951613948424783e+18,-2.0,-2.0,-1.0,0.0,-1.0,0.0,-1.0,-2.0
1.695161394864465e+18,0.0,0.0,0.0,-2.0,-1.0,-1.0,-1.0,-1.0
1.695161394864465e+18,-1.0,0.0,-1.0,-1.0,-1.0,-1.0,-1.0,1.0
1.695161394865466e+18,-1.0,0.0,-1.0,0.0,-1.0,0.0,1.0,-2.0
1.695161394865466e+18,-2.0,-1.0,0.0,-1.0,0.0,-3.0,-1.0,0.0
1.6951613948945772e+18,-2.0,-1.0,0.0,1.0,1.0,-1.0,1.0,-2.0
1.6951613948945772e+18,0.0,-1.0,0.0,-2.0,1.0,0.0,-2.0,0.0
1.695161394895555e+18,1.0,-1.0,-1.0,1.0,1.0,-1.0,-2.0,0.0
1.695161394895555e+18,1.0,1.0,-1.0,-1.0,0.0,-1.0,0.0,-2.0
1.6951613949175421e+18,-1.0,0.0,-1.0,1.0,-3.0,-2.0,-1.0,1.0
1.6951613949175421e+18,-2.0,-1.0,-1.0,0.0,-3.0,-3.0,0.0,-2.0
1.6951613949175421e+18,-1.0,-2.0,-1.0,0.0,0.0,0.0,1.0,0.0
1.6951613949175421e+18,0.0,-1.0,0.0,-1.0,-2.0,0.0,0.0,1.0
1.69516139492454e+18,-1.0,-1.0,-2.0,0.0,1.0,0.0,-2.0,1.0
1.69516139492454e+18,-2.0,0.0,-2.0,-2.0,-1.0,0.0,-1.0,0.0
1.695161394925538e+18,0.0,0.0,-1.0,-2.0,-1.0,-1.0,-1.0,1.0
1.695161394925538e+18,-1.0,0.0,-1.0,-1.0,1.0,1.0,-1.0,-1.0
1.6951613949471854e+18,0.0,-1.0,-2.0,-3.0,-1.0,0.0,3.0,0.0
1.695161394948192e+18,-1.0,1.0,0.0,0.0,-1.0,-1.0,-1.0,0.0
1.6951613949491978e+18,-2.0,-2.0,-1.0,1.0,-2.0,-1.0,-2.0,-2.0
1.6951613949491978e+18,1.0,-1.0,0.0,-3.0,0.0,-1.0,-2.0,0.0
1.695161394977494e+18,-1.0,-1.0,1.0,-1.0,-2.0,-2.0,-2.0,-1.0
1.6951613949784932e+18,0.0,1.0,-2.0,-2.0,0.0,-1.0,0.0,-1.0
1.6951613949794924e+18,-1.0,-1.0,0.0,-2.0,0.0,0.0,-1.0,0.0
1.6951613949794924e+18,0.0,-1.0,-1.0,0.0,-2.0,-1.0,-2.0,-2.0
1.695161394985489e+18,0.0,-1.0,-1.0,-2.0,-1.0,0.0,0.0,-1.0
1.6951613949864888e+18,0.0,-2.0,-1.0,-2.0,1.0,0.0,-1.0,0.0
1.6951613949864888e+18,0.0,1.0,0.0,0.0,-1.0,0.0,0.0,0.0
1.695161394987493e+18,-4.0,-1.0,-1.0,0.0,0.0,-1.0,0.0,-2.0
1.6951613950094746e+18,-1.0,-1.0,-3.0,-1.0,0.0,-1.0,0.0,0.0
1.6951613950094746e+18,-1.0,-1.0,-1.0,-1.0,0.0,-2.0,1.0,0.0
1.6951613950214707e+18,-1.0,0.0,-1.0,-2.0,-2.0,-1.0,-2.0,-1.0
1.6951613950224689e+18,0.0,-2.0,-1.0,0.0,0.0,-1.0,-1.0,0.0
1.6951613950304622e+18,0.0,-1.0,0.0,0.0,-1.0,0.0,-1.0,-1.0
1.6951613950304622e+18,-1.0,-1.0,0.0,2.0,0.0,-1.0,-1.0,-3.0
1.6951613950314632e+18,0.0,0.0,-3.0,-2.0,-2.0,-2.0,-1.0,-3.0
1.6951613950314632e+18,-1.0,-3.0,-2.0,-1.0,-3.0,-2.0,-3.0,0.0
1.6951613950444564e+18,-4.0,-2.0,-4.0,-1.0,0.0,-2.0,-1.0,-1.0
1.695161395045453e+18,-1.0,-2.0,-4.0,-1.0,-2.0,-2.0,-2.0,0.0
1.695161395045453e+18,-3.0,-2.0,-2.0,2.0,0.0,-3.0,0.0,-1.0
1.695161395045453e+18,-1.0,-1.0,-2.0,0.0,0.0,-2.0,-1.0,-3.0
1.6951613950674406e+18,-1.0,-1.0,-1.0,1.0,-1.0,-2.0,0.0,1.0
1.6951613950674406e+18,-1.0,-1.0,-2.0,-3.0,-1.0,-1.0,-2.0,-1.0
1.69516139506844e+18,-2.0,-2.0,-1.0,-1.0,-1.0,-1.0,-1.0,-3.0
1.69516139506844e+18,-1.0,-1.0,-3.0,-2.0,-2.0,-2.0,0.0,0.0
1.6951613950884288e+18,-1.0,-1.0,-3.0,-1.0,-2.0,-2.0,0.0,-1.0
1.6951613950884288e+18,-1.0,-1.0,0.0,0.0,-1.0,-1.0,-2.0,0.0
1.6951613950884288e+18,-1.0,0.0,-1.0,0.0,0.0,0.0,-1.0,1.0
1.6951613950884288e+18,-2.0,-1.0,0.0,0.0,0.0,-1.0,-1.0,-1.0
1.6951613951044424e+18,-1.0,-1.0,-2.0,1.0,1.0,-2.0,-1.0,-2.0
1.6951613951054188e+18,1.0,-1.0,-2.0,-1.0,-1.0,-2.0,-1.0,-3.0
1.6951613951054188e+18,2.0,-2.0,-2.0,-1.0,0.0,1.0,1.0,-1.0
1.6951613951054188e+18,-2.0,0.0,-1.0,-2.0,-2.0,-3.0,0.0,-1.0
1.6951613951274102e+18,-2.0,-1.0,-2.0,1.0,-2.0,1.0,-2.0,0.0
1.6951613951284068e+18,-1.0,-1.0,-1.0,0.0,0.0,0.0,0.0,-1.0
1.6951613951284068e+18,-1.0,0.0,-1.0,0.0,-1.0,-1.0,-1.0,-1.0
1.6951613951294083e+18,-2.0,0.0,-3.0,-3.0,-1.0,0.0,0.0,-1.0
1.6951613951464187e+18,0.0,-2.0,0.0,0.0,-1.0,-2.0,-2.0,-4.0
1.6951613951474179e+18,0.0,-2.0,-1.0,-1.0,-1.0,-1.0,0.0,0.0
1.6951613951573885e+18,-2.0,-1.0,-1.0,-1.0,-1.0,0.0,0.0,-2.0
1.6951613951573885e+18,0.0,0.0,-1.0,0.0,0.0,-1.0,-1.0,-1.0
1.6951613951643917e+18,-1.0,-1.0,-1.0,-2.0,0.0,-3.0,-2.0,-2.0
1.6951613951643917e+18,-2.0,0.0,0.0,-1.0,-1.0,0.0,-1.0,-2.0
1.6951613951653844e+18,-2.0,-1.0,0.0,-2.0,0.0,0.0,2.0,1.0
1.6951613951653844e+18,0.0,-1.0,0.0,1.0,3.0,2.0,0.0,1.0
1.6951613951873715e+18,0.0,0.0,1.0,-2.0,1.0,3.0,0.0,1.0
1.6951613951873715e+18,1.0,2.0,2.0,-1.0,0.0,1.0,-1.0,0.0
1.6951613951873715e+18,1.0,2.0,1.0,0.0,-2.0,-3.0,-1.0,0.0
1.6951613951883779e+18,1.0,1.0,2.0,-2.0,-1.0,0.0,0.0,-2.0
1.6951613952093614e+18,-1.0,1.0,-1.0,-1.0,0.0,-1.0,1.0,0.0
1.695161395210359e+18,0.0,-1.0,1.0,0.0,0.0,0.0,0.0,-1.0
1.6951613952113623e+18,-1.0,0.0,-1.0,-1.0,0.0,0.0,1.0,-1.0
1.6951613952113623e+18,0.0,0.0,-1.0,0.0,0.0,0.0,2.0,-1.0
1.6951613952243738e+18,2.0,1.0,-1.0,0.0,-1.0,-1.0,-1.0,0.0
1.6951613952253545e+18,-1.0,-1.0,-1.0,-1.0,1.0,-1.0,-1.0,0.0
1.6951613952263493e+18,0.0,-2.0,-1.0,-2.0,-1.0,-1.0,-1.0,0.0
1.6951613952263493e+18,-1.0,-1.0,-1.0,-1.0,-1.0,-2.0,-2.0,1.0
1.6951613952473372e+18,-1.0,0.0,0.0,-3.0,1.0,0.0,0.0,1.0
1.6951613952473372e+18,-1.0,-1.0,-1.0,-1.0,1.0,0.0,-1.0,0.0
1.6951613952493366e+18,-2.0,0.0,0.0,1.0,1.0,-2.0,-1.0,0.0
1.6951613952493366e+18,-1.0,1.0,-1.0,-2.0,-1.0,1.0,-1.0,-1.0
1.6951613952703255e+18,-1.0,1.0,0.0,1.0,-1.0,-2.0,0.0,-1.0
1.6951613952703255e+18,-1.0,-2.0,-1.0,0.0,-1.0,0.0,1.0,-1.0
1.6951613952723233e+18,0.0,-2.0,-1.0,-1.0,-2.0,-1.0,-1.0,-1.0
1.6951613952723233e+18,0.0,-1.0,0.0,0.0,-1.0,-1.0,-2.0,-1.0
1.6951613952853174e+18,-1.0,-1.0,0.0,-1.0,-1.0,-3.0,0.0,-1.0
1.695161395286315e+18,-2.0,-1.0,-1.0,1.0,0.0,-1.0,-1.0,-1.0
1.6951613952903137e+18,-3.0,0.0,-1.0,2.0,3.0,0.0,-2.0,-3.0
1.6951613952903137e+18,0.0,1.0,-3.0,-8.0,-2.0,0.0,-1.0,0.0
1.6951613953083034e+18,-1.0,-2.0,-2.0,-4.0,-4.0,-1.0,1.0,1.0
1.6951613953083034e+18,-2.0,-1.0,-1.0,-1.0,0.0,0.0,-1.0,-1.0
1.695161395309303e+18,-2.0,0.0,3.0,1.0,-3.0,-1.0,0.0,0.0
1.6951613953103032e+18,0.0,0.0,-2.0,-1.0,-4.0,-4.0,-3.0,0.0
1.695161395321295e+18,-1.0,0.0,-2.0,2.0,4.0,0.0,-1.0,0.0
1.695161395321295e+18,0.0,0.0,0.0,2.0,1.0,2.0,3.0,1.0
1.6951613953292908e+18,-1.0,-1.0,-3.0,2.0,0.0,-1.0,0.0,0.0
1.6951613953302912e+18,-2.0,-2.0,-2.0,-2.0,-4.0,-2.0,0.0,-2.0
1.6951613953442857e+18,0.0,-3.0,-1.0,-2.0,-1.0,1.0,-1.0,-1.0
1.695161395345284e+18,-1.0,0.0,-1.0,-3.0,-5.0,-3.0,-2.0,0.0
1.6951613953597857e+18,0.0,-1.0,-2.0,0.0,3.0,0.0,-1.0,-3.0
1.6951613953597857e+18,-1.0,-1.0,1.0,3.0,1.0,-2.0,0.0,1.0
1.695161395390553e+18,3.0,12.0,-1.0,2.0,-1.0,-1.0,5.0,24.0
1.6951613953915315e+18,-8.0,-26.0,-3.0,2.0,0.0,-10.0,-7.0,-37.0
1.6951613953925522e+18,3.0,7.0,-7.0,-11.0,-4.0,9.0,-5.0,0.0
1.6951613953925522e+18,1.0,-9.0,-1.0,-3.0,3.0,4.0,2.0,9.0
1.6951613953935352e+18,-1.0,2.0,3.0,5.0,0.0,0.0,-1.0,-1.0
1.6951613953935352e+18,2.0,13.0,0.0,-1.0,1.0,-1.0,3.0,-5.0
1.6951613953975268e+18,0.0,-11.0,-1.0,2.0,-1.0,-7.0,-2.0,4.0
1.6951613953975268e+18,6.0,2.0,-6.0,-6.0,-2.0,0.0,7.0,0.0
1.6951613954115415e+18,-5.0,6.0,1.0,-3.0,-3.0,-1.0,-11.0,-8.0
1.6951613954115415e+18,-14.0,-13.0,-2.0,-4.0,-4.0,-2.0,1.0,11.0
1.6951613954185152e+18,-5.0,4.0,0.0,0.0,-1.0,-2.0,-3.0,-9.0
1.6951613954185152e+18,-7.0,7.0,1.0,4.0,1.0,0.0,8.0,7.0
1.69516139542751e+18,12.0,-17.0,1.0,3.0,6.0,3.0,5.0,-48.0
1.69516139542751e+18,22.0,34.0,-2.0,-3.0,-5.0,-7.0,2.0,44.0
1.6951613954285097e+18,-12.0,-9.0,-1.0,-1.0,1.0,4.0,-19.0,-5.0
1.6951613954285097e+18,-8.0,-13.0,-5.0,-4.0,-5.0,-15.0,-38.0,16.0
1.6951613954405243e+18,0.0,12.0,2.0,-1.0,-1.0,8.0,26.0,5.0
1.6951613954405243e+18,-2.0,2.0,-1.0,-1.0,1.0,-1.0,-4.0,-13.0
1.6951613954495002e+18,14.0,28.0,0.0,-1.0,-1.0,2.0,11.0,-16.0
1.6951613954495002e+18,4.0,-24.0,3.0,-2.0,-1.0,0.0,22.0,-1.0
1.6951613954724846e+18,-52.0,-21.0,-8.0,-1.0,-2.0,-14.0,-35.0,-27.0
1.6951613954724846e+18,33.0,-25.0,-3.0,-1.0,-4.0,-1.0,-10.0,36.0
1.695161395474483e+18,12.0,18.0,7.0,3.0,2.0,-1.0,-15.0,-6.0
1.695161395474483e+18,1.0,23.0,-3.0,-2.0,2.0,5.0,24.0,-16.0
1.695161395487476e+18,31.0,6.0,1.0,-6.0,-8.0,-7.0,23.0,30.0
1.695161395487476e+18,-34.0,-12.0,-2.0,5.0,1.0,3.0,8.0,-31.0
1.6951613954884777e+18,-18.0,-17.0,-3.0,-5.0,2.0,6.0,-4.0,0.0
1.6951613954884777e+18,6.0,24.0,11.0,10.0,4.0,-5.0,-24.0,-10.0
1.6951613955014684e+18,12.0,-22.0,2.0,3.0,2.0,11.0,15.0,21.0
1.6951613955094643e+18,-38.0,26.0,-1.0,-2.0,7.0,6.0,11.0,-16.0
1.6951613955104643e+18,26.0,-41.0,-4.0,-4.0,-7.0,-9.0,20.0,36.0
1.6951613955104643e+18,24.0,7.0,0.0,0.0,0.0,-3.0,-31.0,22.0
1.695161395523457e+18,-19.0,17.0,-6.0,0.0,-2.0,1.0,2.0,4.0
1.6951613955244544e+18,30.0,-3.0,14.0,6.0,2.0,-8.0,-17.0,22.0
1.6951613955314496e+18,-26.0,-21.0,-18.0,-5.0,-4.0,0.0,9.0,-21.0
1.6951613955314496e+18,-35.0,-2.0,2.0,-5.0,-2.0,19.0,17.0,-77.0
1.6951613955514396e+18,-6.0,13.0,-7.0,-8.0,-8.0,-15.0,-33.0,3.0
1.6951613955514396e+18,-25.0,-8.0,-8.0,-7.0,0.0,7.0,-2.0,-21.0
1.6951613955524388e+18,18.0,1.0,13.0,21.0,10.0,-3.0,-12.0,7.0
1.6951613955524388e+18,-24.0,-18.0,-4.0,0.0,-4.0,-13.0,-2.0,-10.0
1.695161395560436e+18,10.0,-1.0,0.0,-2.0,-1.0,4.0,-14.0,27.0
1.6951613955614354e+18,-26.0,28.0,1.0,0.0,-1.0,13.0,28.0,-21.0
1.6951613955774241e+18,56.0,-22.0,1.0,3.0,6.0,0.0,-12.0,22.0
1.6951613955774241e+18,-15.0,-10.0,-9.0,3.0,-7.0,-17.0,-2.0,38.0
1.6951613955844204e+18,-54.0,6.0,4.0,-3.0,4.0,-5.0,-1.0,-81.0
1.6951613955844204e+18,-22.0,-11.0,-1.0,3.0,1.0,21.0,32.0,5.0
1.695161395598412e+18,1.0,4.0,-14.0,-17.0,-20.0,-32.0,-19.0,-44.0
1.695161395598412e+18,-18.0,-5.0,-3.0,-4.0,7.0,32.0,32.0,11.0
1.6951613956144246e+18,-10.0,-27.0,7.0,0.0,-2.0,-16.0,-21.0,-4.0
1.6951613956154025e+18,-10.0,-6.0,-5.0,5.0,5.0,-14.0,-29.0,-30.0
1.6951613956164017e+18,-12.0,15.0,6.0,3.0,-4.0,6.0,-11.0,46.0
1.6951613956164017e+18,2.0,-6.0,3.0,2.0,8.0,-4.0,2.0,-2.0
1.6951613956373896e+18,44.0,22.0,-6.0,0.0,1.0,14.0,19.0,52.0
1.6951613956373896e+18,-34.0,-26.0,3.0,-7.0,-2.0,12.0,6.0,-29.0
1.6951613956383903e+18,-6.0,18.0,-3.0,-3.0,-7.0,-14.0,0.0,-33.0
1.6951613956383903e+18,108.0,35.0,19.0,7.0,4.0,14.0,4.0,38.0
1.6951613956444073e+18,-35.0,-25.0,-10.0,-9.0,-9.0,-11.0,3.0,-33.0
1.6951613956444073e+18,-16.0,-5.0,-8.0,0.0,0.0,-15.0,-12.0,-7.0
1.695161395660386e+18,44.0,21.0,4.0,-7.0,2.0,13.0,34.0,19.0
1.695161395660386e+18,-35.0,-22.0,-1.0,6.0,2.0,11.0,8.0,47.0
1.6951613956743683e+18,53.0,26.0,3.0,-4.0,-3.0,-10.0,-35.0,-14.0
1.695161395675368e+18,34.0,-1.0,2.0,1.0,-3.0,5.0,44.0,73.0
1.6951613956763676e+18,-63.0,-6.0,-12.0,-3.0,-2.0,-17.0,-40.0,-81.0
1.6951613956763676e+18,2.0,-15.0,14.0,2.0,4.0,3.0,16.0,35.0
1.6951613956973555e+18,91.0,21.0,0.0,17.0,4.0,13.0,3.0,80.0
1.6951613956973555e+18,-39.0,5.0,-8.0,-33.0,-1.0,16.0,2.0,29.0
1.6951613956983555e+18,61.0,-9.0,2.0,-4.0,-8.0,-21.0,2.0,30.0
1.6951613956993567e+18,-16.0,-8.0,-8.0,9.0,-1.0,-4.0,-9.0,-25.0
1.6951613957033738e+18,-36.0,-2.0,12.0,7.0,8.0,8.0,22.0,4.0
1.6951613957043517e+18,94.0,10.0,1.0,-2.0,-12.0,-29.0,-40.0,1.0
1.6951613957143675e+18,-61.0,-16.0,-5.0,-4.0,8.0,32.0,25.0,-44.0
1.6951613957143675e+18,-64.0,-14.0,-11.0,-11.0,1.0,1.0,-32.0,-61.0
1.6951613957273405e+18,39.0,20.0,23.0,2.0,-7.0,-11.0,17.0,34.0
1.6951613957273405e+18,11.0,-1.0,8.0,21.0,11.0,11.0,40.0,14.0
1.6951613957283392e+18,-62.0,3.0,-15.0,-9.0,9.0,-11.0,-46.0,4.0
1.6951613957283392e+18,72.0,-17.0,-6.0,-7.0,-15.0,3.0,38.0,-1.0
1.695161395802631e+18,-46.0,-10.0,-19.0,-10.0,-6.0,4.0,15.0,7.0
1.6951613958035615e+18,-41.0,-39.0,-3.0,6.0,-8.0,-17.0,-11.0,41.0
1.695161395841587e+18,38.0,23.0,23.0,1.0,7.0,12.0,45.0,52.0
1.695161395842581e+18,-56.0,0.0,-3.0,2.0,3.0,-3.0,-43.0,-68.0
1.695161395842581e+18,-16.0,-2.0,-1.0,-3.0,3.0,6.0,26.0,-34.0
1.6951613958435807e+18,71.0,42.0,6.0,3.0,5.0,6.0,-28.0,-12.0
1.6951613958435807e+18,-30.0,-19.0,13.0,28.0,7.0,-1.0,-21.0,-11.0
1.6951613958435807e+18,9.0,19.0,-18.0,-11.0,-7.0,1.0,15.0,-27.0
1.695161395856573e+18,-46.0,-28.0,-3.0,-17.0,-6.0,-9.0,2.0,-75.0
1.695161395856573e+18,59.0,14.0,-2.0,7.0,-2.0,-14.0,-25.0,70.0
1.6951613958575734e+18,-6.0,-30.0,-19.0,2.0,-5.0,-7.0,-2.0,-43.0
1.6951613958575734e+18,-61.0,-8.0,11.0,7.0,5.0,-1.0,-34.0,-25.0
1.6951613958575734e+18,13.0,10.0,-3.0,12.0,6.0,4.0,-4.0,2.0
1.695161395858573e+18,-25.0,-25.0,-13.0,-8.0,-17.0,-7.0,23.0,-5.0
1.695161395861575e+18,-40.0,8.0,17.0,20.0,11.0,23.0,92.0,-38.0
1.695161395861575e+18,83.0,8.0,8.0,12.0,7.0,-37.0,-74.0,17.0
1.6951613959165391e+18,-26.0,-3.0,2.0,-11.0,-7.0,-1.0,-4.0,16.0
1.6951613959165391e+18,-11.0,-2.0,0.0,-18.0,-8.0,-4.0,-9.0,-24.0
1.6951613959175396e+18,-18.0,-27.0,-15.0,4.0,4.0,12.0,30.0,33.0
1.6951613959185375e+18,-9.0,26.0,13.0,-19.0,-14.0,-22.0,-11.0,-72.0
1.6951613959185375e+18,46.0,-12.0,6.0,11.0,5.0,-5.0,-32.0,56.0
1.6951613959185375e+18,-11.0,-7.0,14.0,5.0,-1.0,3.0,13.0,-48.0
1.6951613959395246e+18,-10.0,-9.0,-4.0,-9.0,2.0,10.0,-17.0,-14.0
1.6951613959395246e+18,29.0,-11.0,-3.0,8.0,4.0,8.0,31.0,39.0
1.6951613959405238e+18,9.0,4.0,-11.0,4.0,-5.0,-21.0,-27.0,-15.0
1.695161395941526e+18,-36.0,1.0,-11.0,11.0,-8.0,-23.0,-35.0,-1.0
1.695161395945521e+18,67.0,11.0,1.0,-9.0,-3.0,13.0,9.0,2.0
1.695161395945521e+18,46.0,-9.0,-32.0,-7.0,-8.0,-3.0,-1.0,-13.0
1.695161395952517e+18,-1.0,-1.0,20.0,-5.0,11.0,26.0,13.0,0.0
1.695161395952517e+18,-34.0,-18.0,-17.0,6.0,7.0,8.0,0.0,-4.0
1.6951613959545388e+18,-55.0,1.0,-4.0,-5.0,-12.0,-34.0,-73.0,-75.0
1.6951613959545388e+18,27.0,21.0,14.0,14.0,0.0,-2.0,7.0,54.0
1.6951613959665157e+18,-1.0,-4.0,11.0,-6.0,-15.0,-29.0,20.0,45.0
1.6951613959665157e+18,26.0,15.0,-32.0,5.0,10.0,-2.0,-33.0,4.0
1.6951613960065528e+18,-5.0,-30.0,-5.0,-15.0,-4.0,10.0,36.0,-20.0
1.6951613960065528e+18,20.0,-10.0,-10.0,-1.0,-9.0,-37.0,-83.0,-38.0
1.6951613960075725e+18,-66.0,6.0,2.0,-5.0,5.0,23.0,38.0,28.0
1.6951613960075725e+18,-20.0,-8.0,7.0,-9.0,-13.0,-12.0,-7.0,14.0
1.6951613960503703e+18,0.0,21.0,-7.0,5.0,7.0,2.0,-18.0,-9.0
1.6951613960503703e+18,10.0,-2.0,-11.0,-14.0,-10.0,-11.0,-1.0,-28.0
1.69516139605137e+18,10.0,9.0,8.0,-4.0,2.0,4.0,-9.0,-38.0
1.69516139605137e+18,17.0,-1.0,2.0,5.0,-5.0,-6.0,21.0,-6.0
1.695161396064342e+18,-5.0,11.0,-17.0,0.0,-3.0,-8.0,-3.0,3.0
1.695161396064342e+18,-21.0,-15.0,7.0,0.0,5.0,20.0,36.0,1.0
1.6951613960805542e+18,4.0,-2.0,-10.0,-14.0,-1.0,-8.0,-17.0,-16.0
1.6951613960815406e+18,5.0,5.0,-4.0,1.0,-1.0,5.0,11.0,15.0
1.6951613960825344e+18,5.0,-3.0,19.0,2.0,-2.0,-4.0,-3.0,-4.0
1.6951613960825344e+18,-19.0,-11.0,-24.0,-6.0,-4.0,8.0,16.0,18.0
1.695161396083531e+18,4.0,-8.0,-12.0,-3.0,0.0,6.0,-2.0,-12.0
1.695161396083531e+18,10.0,15.0,6.0,9.0,3.0,9.0,7.0,-17.0
1.69516139608753e+18,2.0,2.0,-2.0,-23.0,-10.0,-9.0,-6.0,25.0
1.69516139608753e+18,-6.0,2.0,0.0,15.0,10.0,10.0,17.0,18.0
1.695161396102533e+18,7.0,-4.0,-6.0,11.0,13.0,6.0,2.0,-15.0
1.695161396102533e+18,0.0,5.0,0.0,-5.0,-9.0,-6.0,-8.0,3.0
1.6951613961036554e+18,-12.0,-1.0,-1.0,0.0,-5.0,-4.0,2.0,-5.0
1.6951613961036554e+18,5.0,-1.0,-6.0,-11.0,-7.0,2.0,5.0,-6.0
1.6951613961346102e+18,0.0,4.0,2.0,-1.0,-4.0,2.0,-4.0,-26.0
1.6951613961346102e+18,-2.0,-1.0,0.0,-2.0,2.0,-1.0,2.0,24.0
1.6951613961356099e+18,1.0,-1.0,-1.0,2.0,-1.0,-3.0,0.0,2.0
1.6951613961356099e+18,7.0,1.0,2.0,1.0,2.0,2.0,4.0,-6.0
1.6951613961366103e+18,-23.0,-7.0,-1.0,0.0,-2.0,-3.0,1.0,-3.0
1.6951613961366103e+18,0.0,-5.0,-3.0,-2.0,1.0,2.0,1.0,-10.0
1.6951613961396114e+18,1.0,0.0,-1.0,1.0,-3.0,-1.0,3.0,8.0
1.695161396140611e+18,-7.0,0.0,-2.0,3.0,2.0,1.0,1.0,2.0
1.6951613961715896e+18,1.0,-1.0,0.0,-2.0,-5.0,-2.0,-2.0,-10.0
1.6951613961715896e+18,4.0,2.0,-2.0,-5.0,-2.0,1.0,4.0,12.0
1.6951613961725983e+18,2.0,1.0,3.0,4.0,3.0,-2.0,1.0,6.0
1.6951613961735877e+18,-6.0,-1.0,0.0,0.0,2.0,3.0,4.0,1.0
1.6951613961735877e+18,4.0,-5.0,-4.0,-2.0,-4.0,2.0,-2.0,-1.0
1.6951613961735877e+18,-2.0,-1.0,-1.0,0.0,-1.0,1.0,2.0,-2.0
1.69516139619256e+18,9.0,2.0,1.0,2.0,-1.0,0.0,-1.0,-8.0
1.6951613961935388e+18,-1.0,1.0,1.0,0.0,2.0,2.0,6.0,2.0
1.6951613961935388e+18,-10.0,-2.0,-2.0,-2.0,-4.0,-1.0,-3.0,-9.0
1.6951613961935388e+18,11.0,4.0,0.0,-1.0,0.0,-4.0,-4.0,-3.0
1.695161396195537e+18,-8.0,0.0,0.0,1.0,-1.0,0.0,1.0,1.0
1.695161396195537e+18,-6.0,-2.0,-3.0,-2.0,-1.0,0.0,0.0,-4.0
1.695161396222525e+18,36.0,1.0,-2.0,1.0,-1.0,1.0,3.0,5.0
1.695161396222525e+18,-7.0,0.0,-1.0,-1.0,0.0,-1.0,-1.0,-3.0
1.6951613962238008e+18,9.0,2.0,1.0,1.0,0.0,-1.0,-3.0,-6.0
1.6951613962238008e+18,-6.0,-1.0,1.0,2.0,5.0,3.0,3.0,1.0
1.6951613962305252e+18,-2.0,-2.0,-1.0,-1.0,-2.0,-3.0,-2.0,5.0
1.6951613962305252e+18,-3.0,-1.0,2.0,1.0,2.0,3.0,4.0,2.0
1.6951613962535532e+18,5.0,-1.0,-1.0,-2.0,-1.0,-3.0,-1.0,0.0
1.6951613962535532e+18,-7.0,-2.0,0.0,0.0,-3.0,-2.0,-1.0,-2.0
1.6951613962535532e+18,-1.0,-2.0,-1.0,-1.0,-2.0,-1.0,-1.0,5.0
1.6951613962535532e+18,0.0,1.0,0.0,-2.0,-1.0,-3.0,-3.0,-4.0
1.6951613962555492e+18,-9.0,-1.0,-1.0,1.0,4.0,3.0,3.0,-1.0
1.6951613962555492e+18,4.0,0.0,0.0,-1.0,-2.0,1.0,-3.0,-8.0
1.6951613962826012e+18,-16.0,-5.0,-3.0,-2.0,-3.0,-12.0,-2.0,-1.0
1.6951613962826012e+18,-1.0,-1.0,-4.0,-3.0,-2.0,0.0,1.0,6.0
1.6951613962836004e+18,-3.0,2.0,-2.0,1.0,5.0,9.0,-4.0,-9.0
1.6951613962836004e+18,-9.0,-12.0,3.0,-2.0,-10.0,-6.0,-2.0,-8.0
1.6951613963055923e+18,6.0,15.0,6.0,-4.0,-7.0,-26.0,8.0,23.0
1.6951613963075973e+18,1.0,3.0,-6.0,1.0,11.0,34.0,1.0,8.0
1.695161396308592e+18,-30.0,-9.0,-12.0,0.0,4.0,6.0,-1.0,-31.0
1.695161396308592e+18,17.0,7.0,6.0,0.0,2.0,2.0,0.0,1.0
1.6951613963095926e+18,-5.0,-8.0,-7.0,2.0,-6.0,0.0,-5.0,-2.0
1.6951613963095926e+18,-3.0,0.0,1.0,-6.0,-13.0,-21.0,-4.0,-4.0
1.6951613963205852e+18,4.0,3.0,8.0,0.0,-5.0,-2.0,2.0,12.0
1.6951613963205852e+18,-2.0,-1.0,-8.0,-1.0,5.0,7.0,1.0,-1.0
1.695161396342577e+18,0.0,-3.0,0.0,-1.0,-1.0,1.0,-2.0,-7.0
1.6951613963435784e+18,0.0,1.0,2.0,1.0,1.0,-2.0,-3.0,-7.0
1.6951613963445714e+18,7.0,-2.0,0.0,3.0,3.0,-1.0,0.0,5.0
1.6951613963445714e+18,-4.0,0.0,-1.0,-3.0,1.0,1.0,1.0,1.0
1.6951613963705646e+18,3.0,0.0,-3.0,-1.0,4.0,6.0,-1.0,3.0
1.695161396371594e+18,-3.0,-1.0,3.0,2.0,-3.0,-4.0,-1.0,-3.0
1.695161396371594e+18,0.0,-2.0,-3.0,-4.0,-8.0,-9.0,-2.0,5.0
1.6951613963725558e+18,-4.0,1.0,0.0,-3.0,-4.0,-7.0,-3.0,2.0
1.6951613963725558e+18,-2.0,0.0,2.0,2.0,-1.0,7.0,-1.0,0.0
1.6951613963725558e+18,-2.0,-4.0,-3.0,2.0,3.0,0.0,-2.0,-5.0
1.6951613963735631e+18,2.0,3.0,3.0,0.0,-2.0,-6.0,0.0,2.0
1.6951613963755625e+18,-1.0,1.0,-3.0,1.0,0.0,4.0,0.0,1.0
1.6951613963955438e+18,-1.0,-4.0,-2.0,-3.0,0.0,6.0,-2.0,-3.0
1.6951613963955438e+18,-2.0,-1.0,0.0,0.0,-5.0,-7.0,1.0,0.0
1.6951613963965414e+18,3.0,1.0,0.0,2.0,-3.0,-2.0,0.0,5.0
1.6951613963975544e+18,-1.0,-1.0,0.0,0.0,3.0,1.0,2.0,0.0
1.6951613964175293e+18,-1.0,-2.0,-1.0,-1.0,0.0,-1.0,-2.0,-2.0
1.6951613964185362e+18,-1.0,-1.0,-1.0,1.0,0.0,-4.0,-1.0,1.0
1.6951613964195277e+18,0.0,0.0,1.0,-2.0,0.0,1.0,1.0,2.0
1.6951613964195277e+18,-3.0,0.0,-2.0,1.0,-3.0,-4.0,-2.0,-1.0
1.6951613964335206e+18,-2.0,-1.0,-1.0,1.0,1.0,1.0,-2.0,-1.0
1.695161396434521e+18,2.0,-1.0,-1.0,-3.0,1.0,0.0,-2.0,-2.0
1.6951613964355192e+18,2.0,1.0,0.0,-4.0,-1.0,0.0,-1.0,1.0
1.6951613964365197e+18,0.0,-1.0,-1.0,0.0,-2.0,-4.0,-2.0,0.0
1.6951613964475123e+18,0.0,-1.0,0.0,2.0,1.0,1.0,2.0,0.0
1.6951613964475123e+18,-2.0,-1.0,0.0,-1.0,0.0,-1.0,1.0,1.0
1.6951613964545441e+18,-1.0,-1.0,0.0,-1.0,-2.0,-2.0,-1.0,1.0
1.6951613964545441e+18,-2.0,-2.0,-3.0,1.0,1.0,-2.0,-1.0,1.0
1.6951613964815012e+18,-1.0,-1.0,0.0,-2.0,1.0,3.0,-1.0,-1.0
1.6951613964944855e+18,-1.0,0.0,0.0,-4.0,-3.0,-1.0,-2.0,-2.0
1.6951613964944855e+18,0.0,-2.0,-1.0,-2.0,0.0,0.0,-2.0,-1.0
1.6951613964954857e+18,-2.0,1.0,0.0,-1.0,1.0,-1.0,-1.0,0.0
1.6951613964974848e+18,0.0,-1.0,0.0,-2.0,-1.0,1.0,0.0,0.0
1.6951613964984832e+18,0.0,-1.0,1.0,0.0,-1.0,-3.0,1.0,-2.0
1.6951613964984832e+18,2.0,1.0,1.0,-1.0,0.0,-1.0,-1.0,1.0
1.6951613965014812e+18,-1.0,-1.0,0.0,-1.0,-1.0,-1.0,0.0,-1.0
1.6951613965074785e+18,-2.0,-1.0,-1.0,-2.0,-1.0,-1.0,-1.0,-1.0
1.6951613965074785e+18,-1.0,-1.0,-2.0,-2.0,-1.0,-1.0,-1.0,-1.0
1.6951613965214702e+18,0.0,-2.0,0.0,0.0,0.0,0.0,-1.0,-1.0
1.6951613965224878e+18,-1.0,0.0,-1.0,1.0,0.0,0.0,-1.0,-1.0
1.6951613965304717e+18,-1.0,0.0,-1.0,-2.0,-2.0,0.0,0.0,-2.0
1.6951613965304717e+18,-1.0,0.0,0.0,0.0,0.0,-1.0,0.0,-2.0
1.6951613965314652e+18,1.0,-2.0,1.0,1.0,-1.0,-1.0,-2.0,0.0
1.6951613965324639e+18,-2.0,-1.0,-2.0,0.0,0.0,-2.0,0.0,-1.0
1.695161396543459e+18,-1.0,-2.0,-2.0,-1.0,-2.0,0.0,-2.0,-1.0
1.6951613965444577e+18,-1.0,-1.0,-1.0,-1.0,-1.0,1.0,-1.0,0.0
1.6951613965614474e+18,-3.0,-2.0,-2.0,0.0,-1.0,-4.0,-2.0,-1.0
1.695161396562448e+18,-2.0,-4.0,-1.0,0.0,1.0,0.0,-2.0,-1.0
1.6951613965674432e+18,-1.0,-2.0,0.0,-2.0,0.0,-2.0,0.0,-2.0
1.695161396568454e+18,-2.0,-1.0,-1.0,-2.0,-1.0,-2.0,-2.0,-1.0
1.6951613965824335e+18,-2.0,0.0,0.0,-1.0,0.0,0.0,0.0,-2.0
1.6951613965834332e+18,-2.0,-1.0,-1.0,-2.0,-2.0,-3.0,-1.0,-1.0
1.695161396599427e+18,-1.0,0.0,-1.0,-1.0,-1.0,-1.0,0.0,1.0
1.6951613966004293e+18,0.0,-1.0,-2.0,0.0,1.0,-2.0,-2.0,-1.0
1.695161396601428e+18,-1.0,-1.0,0.0,0.0,-1.0,2.0,0.0,-1.0
1.695161396601428e+18,-1.0,-2.0,-2.0,-1.0,-2.0,1.0,-1.0,0.0
1.6951613966194112e+18,-1.0,-2.0,-1.0,2.0,-1.0,0.0,-3.0,0.0
1.6951613966204196e+18,-1.0,-2.0,-2.0,-1.0,-2.0,0.0,-2.0,0.0
1.695161396621411e+18,0.0,2.0,-2.0,-2.0,-3.0,-3.0,-2.0,-1.0
1.695161396621411e+18,0.0,-1.0,0.0,0.0,-1.0,-1.0,-1.0,-1.0
1.6951613966264087e+18,-2.0,0.0,1.0,0.0,1.0,-1.0,0.0,0.0
1.6951613966274092e+18,-1.0,0.0,-1.0,2.0,1.0,0.0,0.0,-1.0
1.6951613966354038e+18,0.0,-2.0,-2.0,-1.0,2.0,0.0,1.0,-1.0
1.6951613966354038e+18,0.0,0.0,0.0,-2.0,-2.0,0.0,-1.0,-1.0
1.6951613966493952e+18,0.0,0.0,-1.0,1.0,1.0,-2.0,1.0,-2.0
1.6951613966493952e+18,0.0,-1.0,0.0,-1.0,0.0,0.0,-1.0,2.0
1.6951613966663918e+18,0.0,-1.0,-1.0,-1.0,-1.0,-1.0,-2.0,0.0
1.6951613966703892e+18,-1.0,0.0,0.0,-2.0,-1.0,-1.0,-1.0,-2.0
1.6951613966734065e+18,-1.0,0.0,-1.0,0.0,0.0,0.0,-2.0,-2.0
1.6951613966734065e+18,-1.0,0.0,-1.0,-1.0,-2.0,-2.0,0.0,-1.0
1.6951613966743816e+18,0.0,-1.0,-1.0,-1.0,-3.0,-3.0,0.0,0.0
1.6951613966743816e+18,1.0,0.0,0.0,1.0,-1.0,-1.0,-1.0,-1.0
1.6951613966863995e+18,-1.0,-2.0,-1.0,-2.0,-2.0,0.0,-1.0,-1.0
1.6951613966873736e+18,-1.0,0.0,-1.0,-2.0,-1.0,0.0,-1.0,-2.0
1.6951613966933737e+18,0.0,0.0,-1.0,0.0,-2.0,-1.0,-2.0,-2.0
1.6951613966933737e+18,-1.0,-1.0,-1.0,0.0,-1.0,-1.0,-1.0,0.0
1.6951613967093865e+18,0.0,-1.0,-1.0,-2.0,-1.0,-2.0,-1.0,-1.0
1.6951613967103683e+18,-1.0,-1.0,-1.0,-2.0,-1.0,-1.0,1.0,-1.0
1.6951613967113597e+18,-2.0,0.0,-2.0,-2.0,-1.0,-1.0,1.0,1.0
1.6951613967113597e+18,-2.0,-1.0,-1.0,0.0,0.0,1.0,-1.0,0.0
1.695161396748338e+18,0.0,0.0,-2.0,-1.0,-1.0,1.0,1.0,-1.0
1.695161396748338e+18,0.0,-2.0,1.0,0.0,1.0,-1.0,0.0,-1.0
1.69516139674934e+18,-1.0,-3.0,0.0,-1.0,-2.0,1.0,-1.0,0.0
1.69516139674934e+18,-1.0,-2.0,0.0,-1.0,0.0,-1.0,1.0,0.0
1.6951613967503396e+18,0.0,-1.0,-1.0,-1.0,0.0,0.0,1.0,0.0
1.6951613967503396e+18,-2.0,-1.0,-3.0,0.0,0.0,0.0,0.0,-1.0
1.6951613967743237e+18,-1.0,1.0,-1.0,-2.0,-2.0,-2.0,0.0,-1.0
1.6951613967753254e+18,0.0,-1.0,0.0,-1.0,-2.0,-1.0,-2.0,0.0
1.6951613967753254e+18,-1.0,-1.0,-2.0,-1.0,1.0,-1.0,-1.0,-1.0
1.6951613967753254e+18,-1.0,-1.0,0.0,-1.0,-2.0,-1.0,-1.0,-1.0
1.6951613967763246e+18,0.0,0.0,-1.0,-2.0,0.0,0.0,0.0,-2.0
1.6951613967763246e+18,-1.0,0.0,0.0,0.0,0.0,0.0,-1.0,-1.0
1.6951613967913142e+18,-2.0,0.0,0.0,0.0,0.0,-2.0,-1.0,-2.0
1.6951613967913142e+18,-1.0,0.0,0.0,1.0,-1.0,-2.0,-1.0,0.0
1.6951613968003098e+18,-2.0,0.0,-1.0,1.0,0.0,0.0,-1.0,-1.0
1.6951613968003098e+18,-1.0,-1.0,-1.0,0.0,0.0,-2.0,0.0,-1.0
1.6951613968063068e+18,-3.0,-1.0,0.0,-1.0,-2.0,-1.0,-1.0,-1.0
1.6951613968073073e+18,-1.0,-2.0,0.0,0.0,-1.0,1.0,-1.0,-1.0
1.6951613968222976e+18,0.0,-1.0,0.0,0.0,1.0,-1.0,-2.0,-1.0
1.6951613968222976e+18,-1.0,-1.0,-2.0,0.0,-1.0,0.0,0.0,-1.0
1.6951613968292938e+18,1.0,2.0,0.0,0.0,0.0,0.0,-2.0,0.0
1.6951613968292938e+18,-1.0,-1.0,0.0,-2.0,0.0,-1.0,1.0,-2.0
1.6951613968432858e+18,-1.0,-1.0,-2.0,0.0,0.0,-2.0,-1.0,-1.0
1.6951613968432858e+18,0.0,0.0,-1.0,-2.0,-2.0,-2.0,-1.0,0.0
1.6951613968592745e+18,-1.0,-1.0,0.0,-1.0,-2.0,-1.0,0.0,2.0
1.6951613968592745e+18,-1.0,-1.0,-2.0,1.0,0.0,-1.0,-1.0,-3.0
1.6951613968612736e+18,-1.0,-1.0,-1.0,-1.0,-1.0,1.0,-1.0,-1.0
1.6951613968612736e+18,-1.0,-1.0,-3.0,-2.0,-1.0,0.0,-1.0,-2.0
1.6951613968657595e+18,-1.0,-1.0,-3.0,0.0,-1.0,-1.0,0.0,-1.0
1.695161396866285e+18,1.0,-1.0,-1.0,-1.0,-2.0,-1.0,-1.0,1.0
1.695161396875027e+18,-1.0,-2.0,-1.0,-1.0,0.0,0.0,-2.0,-1.0
1.695161396875027e+18,-1.0,-1.0,0.0,0.0,0.0,-3.0,-1.0,-1.0
1.6951613968900183e+18,-1.0,-3.0,0.0,-1.0,0.0,1.0,-2.0,1.0
1.6951613968900183e+18,0.0,-1.0,-1.0,-1.0,2.0,-1.0,-1.0,1.0
1.6951613968910185e+18,0.0,-2.0,0.0,0.0,-1.0,-1.0,0.0,-2.0
1.6951613968910185e+18,-1.0,0.0,-1.0,0.0,-2.0,1.0,0.0,-2.0
1.6951613969125816e+18,1.0,-1.0,0.0,-2.0,0.0,-1.0,-1.0,-1.0
1.6951613969125816e+18,-1.0,-1.0,-2.0,0.0,-2.0,-2.0,-1.0,-1.0
1.695161396913599e+18,-2.0,-2.0,-1.0,-2.0,-2.0,1.0,-2.0,1.0
1.695161396913599e+18,-1.0,-2.0,-2.0,0.0,-1.0,-1.0,0.0,1.0
1.6951613969346511e+18,-1.0,0.0,-1.0,4.0,-1.0,0.0,-2.0,-2.0
1.6951613969346511e+18,0.0,0.0,0.0,-1.0,-3.0,-1.0,-1.0,0.0
1.6951613969365896e+18,0.0,-2.0,-1.0,0.0,0.0,-1.0,-1.0,0.0
1.6951613969365896e+18,0.0,-1.0,0.0,-1.0,-1.0,-1.0,-2.0,-1.0
1.6951613969535854e+18,1.0,-2.0,0.0,0.0,0.0,-1.0,0.0,-2.0
1.6951613969535854e+18,-1.0,-1.0,1.0,-1.0,-1.0,0.0,0.0,-1.0
1.6951613969556055e+18,-1.0,-1.0,0.0,1.0,-2.0,-3.0,0.0,0.0
1.6951613969565985e+18,-1.0,0.0,0.0,-3.0,-1.0,0.0,-3.0,1.0
1.6951613969725747e+18,0.0,0.0,-3.0,-2.0,-1.0,-1.0,-2.0,-1.0
1.6951613969725747e+18,-1.0,-1.0,-1.0,0.0,-2.0,-1.0,-1.0,-2.0
1.6951613969735726e+18,0.0,0.0,-1.0,-2.0,0.0,0.0,-1.0,0.0
1.6951613969735726e+18,-1.0,-1.0,0.0,2.0,-1.0,-1.0,-2.0,-1.0
1.695161396987587e+18,-1.0,-1.0,0.0,0.0,-1.0,-1.0,1.0,0.0
1.695161396987587e+18,-1.0,-1.0,0.0,0.0,0.0,0.0,-1.0,0.0
1.695161396994561e+18,-2.0,0.0,-1.0,0.0,-2.0,-2.0,-1.0,-1.0
1.695161396994561e+18,-2.0,-1.0,-2.0,0.0,1.0,-1.0,2.0,0.0
1.6951613970096986e+18,-1.0,0.0,2.0,-1.0,-2.0,0.0,-1.0,-2.0
1.6951613970096986e+18,0.0,-1.0,0.0,-1.0,-1.0,2.0,1.0,-1.0
1.6951613970115482e+18,-1.0,-1.0,0.0,1.0,0.0,1.0,-1.0,-1.0
1.6951613970115482e+18,0.0,-1.0,0.0,0.0,0.0,0.0,-3.0,-1.0
1.6951613970325335e+18,-3.0,-2.0,-2.0,-2.0,-1.0,-2.0,-1.0,0.0
1.6951613970325335e+18,-2.0,-1.0,0.0,0.0,-1.0,-2.0,-3.0,0.0
1.695161397033771e+18,-2.0,-1.0,0.0,-1.0,0.0,-1.0,0.0,-1.0
1.695161397033771e+18,1.0,0.0,-1.0,-2.0,0.0,-1.0,1.0,-1.0
1.6951613970466975e+18,-1.0,-2.0,-2.0,-2.0,-2.0,-1.0,-1.0,-1.0
1.6951613970466975e+18,0.0,-1.0,-2.0,-1.0,-1.0,0.0,0.0,-1.0
1.695161397055691e+18,-2.0,0.0,-2.0,-1.0,0.0,-1.0,-1.0,-2.0
1.695161397055691e+18,-2.0,0.0,0.0,1.0,-1.0,-1.0,-1.0,0.0
1.6951613970696827e+18,-1.0,-1.0,0.0,-1.0,-2.0,-1.0,-2.0,0.0
1.6951613970706847e+18,0.0,1.0,0.0,-2.0,-1.0,-1.0,-2.0,-1.0
1.6951613970766838e+18,-2.0,-1.0,-1.0,-3.0,-1.0,-1.0,0.0,-1.0
1.6951613970766838e+18,-2.0,-1.0,-2.0,-1.0,1.0,-1.0,0.0,-1.0
1.695161397092511e+18,-1.0,-1.0,-1.0,-1.0,0.0,-2.0,0.0,-1.0
1.6951613970935101e+18,-1.0,-1.0,-2.0,0.0,0.0,-1.0,-2.0,-1.0
1.6951613970945098e+18,-3.0,0.0,-1.0,0.0,-1.0,0.0,-1.0,0.0
1.6951613970955205e+18,1.0,-2.0,-2.0,-2.0,-2.0,0.0,0.0,-1.0
1.6951613971154985e+18,-1.0,1.0,-1.0,0.0,0.0,-2.0,-2.0,-1.0
1.6951613971154985e+18,-1.0,-2.0,-1.0,-1.0,-1.0,-1.0,-1.0,0.0
1.6951613971164984e+18,1.0,0.0,-1.0,-1.0,-1.0,0.0,0.0,-1.0
1.6951613971174976e+18,-1.0,0.0,0.0,-1.0,-1.0,-1.0,-1.0,-1.0
1.695161397155485e+18,-3.0,-1.0,0.0,0.0,0.0,0.0,1.0,0.0
1.695161397155485e+18,0.0,-2.0,-1.0,0.0,-1.0,-3.0,0.0,-2.0
1.695161397155485e+18,0.0,-2.0,-2.0,0.0,-1.0,-3.0,-2.0,-1.0
1.6951613971574833e+18,-1.0,-2.0,2.0,-1.0,0.0,-1.0,-1.0,-2.0
1.6951613971574833e+18,1.0,0.0,0.0,-1.0,-1.0,0.0,0.0,1.0
1.6951613971574833e+18,0.0,-1.0,0.0,-1.0,-1.0,0.0,-1.0,0.0
1.6951613971574833e+18,-1.0,-1.0,0.0,-2.0,-1.0,0.0,-1.0,-1.0
1.6951613971585088e+18,-1.0,0.0,-1.0,2.0,-1.0,-1.0,-2.0,1.0
1.6951613971664686e+18,-1.0,-1.0,-1.0,-1.0,0.0,0.0,-1.0,0.0
1.695161397167477e+18,-2.0,0.0,-1.0,-2.0,0.0,0.0,0.0,-2.0
1.6951613971754785e+18,-1.0,2.0,0.0,1.0,-2.0,-1.0,-1.0,1.0
1.6951613971754785e+18,-1.0,-2.0,-1.0,-2.0,-2.0,-1.0,0.0,0.0
1.6951613971904563e+18,0.0,0.0,0.0,0.0,-2.0,0.0,-1.0,-3.0
1.6951613971904563e+18,-1.0,-2.0,-2.0,-1.0,0.0,-2.0,0.0,-1.0
1.695161397191455e+18,0.0,-1.0,-1.0,1.0,0.0,-1.0,-1.0,0.0
1.6951613971924618e+18,-3.0,-1.0,-2.0,-1.0,-1.0,1.0,0.0,0.0
1.6951613972134426e+18,-1.0,0.0,-1.0,-1.0,1.0,-1.0,0.0,-2.0
1.6951613972144468e+18,0.0,0.0,-1.0,0.0,1.0,-1.0,-1.0,0.0
1.6951613972144468e+18,-1.0,-1.0,1.0,0.0,-1.0,-1.0,0.0,1.0
1.6951613972144468e+18,-1.0,-1.0,-1.0,0.0,-3.0,-1.0,-1.0,0.0
1.6951613972264343e+18,0.0,0.0,-1.0,-1.0,-1.0,-1.0,0.0,0.0
1.6951613972264343e+18,0.0,0.0,-1.0,-3.0,0.0,1.0,0.0,-2.0
1.6951613972354294e+18,0.0,-1.0,0.0,-2.0,0.0,1.0,-1.0,-1.0
1.6951613972354294e+18,-1.0,-1.0,-1.0,-1.0,0.0,0.0,0.0,0.0
1.6951613972584205e+18,-1.0,-2.0,-2.0,-1.0,-1.0,-1.0,0.0,-1.0
1.6951613972614382e+18,-1.0,0.0,-2.0,0.0,-3.0,0.0,-1.0,-1.0
1.695161397265413e+18,0.0,0.0,0.0,-1.0,0.0,0.0,0.0,-2.0
1.6951613972664128e+18,1.0,0.0,-2.0,-1.0,-2.0,-1.0,-1.0,-1.0
1.6951613972724063e+18,0.0,-2.0,0.0,0.0,-1.0,-1.0,-1.0,0.0
1.6951613972724063e+18,-1.0,-1.0,0.0,-2.0,-1.0,-1.0,-1.0,1.0
1.6951613972734103e+18,-1.0,-1.0,-1.0,-3.0,-1.0,0.0,0.0,0.0
1.6951613972744102e+18,1.0,-1.0,-1.0,-1.0,0.0,-2.0,-1.0,0.0
1.6951613972863987e+18,0.0,-2.0,-2.0,0.0,0.0,0.0,0.0,-2.0
1.6951613972863987e+18,-1.0,0.0,0.0,1.0,1.0,0.0,-2.0,-1.0
1.6951613973023898e+18,-1.0,0.0,-1.0,-1.0,-1.0,-2.0,-2.0,-1.0
1.695161397303389e+18,-2.0,-2.0,-3.0,-2.0,0.0,-1.0,-2.0,-1.0
1.6951613973163835e+18,-1.0,-2.0,-1.0,-1.0,-3.0,1.0,-2.0,-2.0
1.695161397317387e+18,0.0,0.0,0.0,1.0,-2.0,-1.0,-1.0,1.0
1.695161397330374e+18,-1.0,-2.0,-2.0,0.0,0.0,-1.0,1.0,-2.0
1.6951613973383708e+18,-2.0,0.0,-1.0,1.0,0.0,-1.0,-1.0,-1.0
1.6951613973393746e+18,0.0,-1.0,-2.0,0.0,2.0,0.0,1.0,-2.0
1.6951613973403684e+18,-1.0,-1.0,-1.0,-1.0,-1.0,0.0,0.0,0.0
1.6951613973403684e+18,1.0,0.0,-1.0,-3.0,-1.0,1.0,-1.0,0.0
1.6951613973403684e+18,1.0,-1.0,1.0,-2.0,-2.0,-2.0,-1.0,-1.0
1.695161397346365e+18,0.0,-1.0,-1.0,-1.0,-1.0,-1.0,-1.0,0.0
1.695161397346365e+18,-1.0,-1.0,-1.0,1.0,0.0,-2.0,0.0,-2.0
1.6951613973543626e+18,-1.0,-1.0,-1.0,-1.0,-1.0,0.0,1.0,1.0
1.695161397355363e+18,0.0,-1.0,0.0,-1.0,0.0,0.0,0.0,0.0
1.6951613973773468e+18,-1.0,0.0,-1.0,-1.0,-1.0,-1.0,-1.0,-1.0
1.6951613973783503e+18,-1.0,-1.0,0.0,-1.0,-1.0,-1.0,-1.0,-1.0
1.6951613973793462e+18,-1.0,0.0,-2.0,-1.0,-1.0,-3.0,-1.0,-2.0
1.6951613973793462e+18,-1.0,0.0,0.0,-2.0,-1.0,0.0,0.0,-2.0
1.6951613973923374e+18,-1.0,-1.0,0.0,-2.0,0.0,0.0,-1.0,0.0
1.6951613973923374e+18,0.0,-1.0,-2.0,-2.0,0.0,0.0,0.0,-3.0
1.6951613973943383e+18,-1.0,-1.0,-1.0,-1.0,-1.0,0.0,-2.0,-1.0
1.6951613973943383e+18,-1.0,-1.0,-1.0,-2.0,-1.0,-2.0,0.0,0.0
1.6951613974153275e+18,-1.0,-1.0,0.0,0.0,-1.0,-3.0,0.0,0.0
1.6951613974153275e+18,-2.0,0.0,-1.0,-1.0,0.0,0.0,-1.0,0.0
1.6951613974173292e+18,-1.0,1.0,-1.0,-1.0,-2.0,0.0,-3.0,-1.0
1.6951613974173292e+18,-1.0,-1.0,0.0,-1.0,0.0,1.0,-2.0,-2.0
1.6951613974373143e+18,-1.0,-1.0,-1.0,-2.0,0.0,0.0,-1.0,-1.0
1.6951613974373143e+18,-1.0,0.0,0.0,0.0,0.0,-2.0,-2.0,-1.0
1.6951613974393124e+18,1.0,-2.0,0.0,1.0,-1.0,-1.0,1.0,0.0
1.6951613974393124e+18,-1.0,-1.0,-1.0,0.0,0.0,0.0,1.0,-1.0
1.695161397452303e+18,0.0,0.0,-1.0,0.0,1.0,-1.0,0.0,0.0
1.695161397452303e+18,-1.0,0.0,0.0,-1.0,-1.0,1.0,-1.0,0.0
1.6951613974543032e+18,-1.0,0.0,0.0,-1.0,0.0,1.0,-3.0,-2.0
1.6951613974543032e+18,-1.0,0.0,0.0,-3.0,-1.0,0.0,-2.0,0.0
1.6951613974752965e+18,-2.0,-2.0,0.0,-2.0,-1.0,-1.0,-1.0,0.0
1.6951613974762964e+18,-1.0,-2.0,0.0,-2.0,-1.0,-1.0,0.0,-1.0
1.6951613974912814e+18,-1.0,-2.0,-1.0,0.0,0.0,1.0,-2.0,0.0
1.695161397492281e+18,0.0,0.0,-2.0,0.0,0.0,-1.0,-1.0,0.0
1.695161397492281e+18,0.0,-1.0,-1.0,0.0,-1.0,0.0,-2.0,-1.0
1.695161397492281e+18,-1.0,-1.0,0.0,-2.0,-1.0,0.0,-1.0,0.0
1.695161397496281e+18,-1.0,0.0,-2.0,1.0,-1.0,-2.0,1.0,0.0
1.695161397496281e+18,-1.0,-3.0,0.0,0.0,0.0,-1.0,0.0,1.0
1.695161397513269e+18,-2.0,1.0,-1.0,-2.0,-1.0,1.0,-2.0,0.0
1.695161397513269e+18,0.0,-2.0,-1.0,-1.0,-1.0,0.0,0.0,0.0
1.6951613975142733e+18,-1.0,-1.0,-1.0,-1.0,-1.0,-2.0,-1.0,-1.0
1.6951613975142733e+18,0.0,-1.0,-1.0,-1.0,1.0,0.0,-1.0,-1.0
1.695161397526261e+18,-1.0,0.0,-1.0,2.0,0.0,-1.0,-1.0,0.0
1.695161397526261e+18,0.0,-2.0,0.0,-1.0,1.0,0.0,0.0,0.0
1.695161397542277e+18,-1.0,-1.0,-2.0,-1.0,0.0,0.0,-3.0,0.0
1.6951613975472548e+18,0.0,0.0,-1.0,-1.0,0.0,0.0,0.0,-1.0
1.6951613975572434e+18,1.0,0.0,-1.0,-1.0,0.0,-1.0,0.0,0.0
1.6951613975572434e+18,0.0,0.0,-1.0,-1.0,0.0,-2.0,-1.0,-1.0
1.6951613975592425e+18,-2.0,0.0,1.0,-3.0,-1.0,0.0,2.0,0.0
1.6951613975592425e+18,0.0,0.0,-3.0,-1.0,-2.0,0.0,-2.0,0.0
1.6951613975722358e+18,0.0,-3.0,-1.0,0.0,-1.0,-1.0,-1.0,1.0
1.6951613975722358e+18,1.0,-1.0,0.0,1.0,-1.0,0.0,-2.0,0.0
1.6951613975802304e+18,-1.0,-2.0,0.0,0.0,-1.0,-1.0,0.0,-1.0
1.6951613975812298e+18,0.0,0.0,-1.0,1.0,-1.0,-2.0,1.0,-1.0
1.6951613975942226e+18,-1.0,0.0,-2.0,-1.0,-1.0,-1.0,-3.0,-2.0
1.6951613975942226e+18,-2.0,-1.0,-2.0,-1.0,0.0,-1.0,-1.0,0.0
1.6951613976022428e+18,-1.0,-2.0,-2.0,-1.0,-1.0,-2.0,-1.0,-1.0
1.6951613976022428e+18,0.0,0.0,-2.0,-1.0,-2.0,0.0,-2.0,0.0
1.6951613976162158e+18,0.0,-2.0,0.0,0.0,-1.0,0.0,-3.0,-1.0
1.6951613976212078e+18,-1.0,-1.0,0.0,1.0,-3.0,-1.0,1.0,-2.0
1.6951613976222075e+18,0.0,-2.0,0.0,-1.0,-1.0,0.0,0.0,0.0
1.6951613976222075e+18,-1.0,-1.0,-1.0,-2.0,-1.0,-2.0,-1.0,1.0
1.6951613976322012e+18,-1.0,-2.0,0.0,0.0,1.0,-2.0,-2.0,-2.0
1.6951613976332006e+18,-3.0,-1.0,0.0,-1.0,0.0,-1.0,-1.0,0.0
1.695161397638202e+18,1.0,1.0,0.0,1.0,-2.0,0.0,-1.0,0.0
1.6951613976391977e+18,-1.0,-1.0,1.0,-2.0,-2.0,-1.0,0.0,0.0
1.6951613976551877e+18,-1.0,-1.0,-2.0,-1.0,-2.0,-1.0,0.0,0.0
1.6951613976551877e+18,-1.0,-1.0,-2.0,-1.0,0.0,-1.0,-1.0,-2.0
1.695161397656213e+18,-1.0,-1.0,-1.0,-1.0,-1.0,-3.0,-1.0,0.0
1.6951613976571917e+18,-1.0,-2.0,-1.0,-1.0,-1.0,-2.0,-1.0,-2.0
1.69516139766918e+18,-4.0,1.0,-2.0,-1.0,1.0,0.0,0.0,0.0
1.69516139766918e+18,-2.0,-2.0,-2.0,0.0,1.0,0.0,1.0,0.0
1.6951613976931663e+18,0.0,-1.0,-2.0,-1.0,0.0,2.0,-1.0,0.0
1.6951613976941665e+18,-1.0,-2.0,0.0,1.0,1.0,1.0,-1.0,-1.0
1.6951613976951657e+18,0.0,-1.0,-1.0,0.0,-2.0,0.0,0.0,-1.0
1.6951613976951657e+18,1.0,0.0,-1.0,0.0,0.0,0.0,-1.0,0.0
1.6951613976951657e+18,-1.0,-1.0,-1.0,1.0,-1.0,-1.0,-1.0,0.0
1.695161397696165e+18,-2.0,-1.0,0.0,-3.0,0.0,-1.0,-1.0,0.0
1.6951613977151532e+18,1.0,-2.0,1.0,-2.0,-1.0,0.0,0.0,0.0
1.6951613977151532e+18,-1.0,0.0,0.0,-1.0,-2.0,-2.0,-2.0,-2.0
1.6951613977161528e+18,-1.0,-2.0,-1.0,-1.0,-1.0,-1.0,0.0,-2.0
1.6951613977171576e+18,0.0,0.0,-2.0,0.0,0.0,0.0,-2.0,-1.0
1.6951613977281702e+18,-2.0,0.0,-1.0,1.0,-2.0,-2.0,0.0,0.0
1.6951613977281702e+18,0.0,-1.0,-1.0,-1.0,0.0,0.0,-2.0,-2.0
1.695161397762126e+18,0.0,-2.0,0.0,-2.0,0.0,-2.0,0.0,-1.0
1.695161397762126e+18,-2.0,0.0,-1.0,-1.0,-2.0,-2.0,0.0,-2.0
1.6951613977631276e+18,0.0,0.0,-1.0,0.0,-1.0,-4.0,-2.0,-2.0
1.6951613977631276e+18,0.0,-1.0,2.0,-1.0,-1.0,-1.0,-1.0,-2.0
1.6951613977661238e+18,-2.0,-2.0,0.0,-1.0,1.0,-2.0,-1.0,-1.0
1.695161397767125e+18,0.0,-3.0,-1.0,-1.0,-1.0,0.0,0.0,-1.0
1.6951613977821148e+18,-1.0,0.0,0.0,-1.0,-1.0,2.0,0.0,-2.0
1.6951613977821148e+18,0.0,0.0,-2.0,-1.0,-1.0,0.0,-2.0,1.0
1.6951613977891105e+18,0.0,0.0,0.0,-1.0,-1.0,-1.0,1.0,-1.0
1.6951613977891105e+18,0.0,0.0,1.0,0.0,-2.0,-1.0,0.0,-1.0
1.6951613978051026e+18,-1.0,-1.0,0.0,-3.0,-1.0,-1.0,-1.0,1.0
1.6951613978051026e+18,-2.0,-1.0,-1.0,-1.0,1.0,-1.0,0.0,-1.0
1.695161397806106e+18,1.0,0.0,-1.0,1.0,0.0,1.0,-2.0,-1.0
1.695161397806106e+18,-1.0,0.0,-3.0,1.0,0.0,-1.0,-1.0,1.0
1.6951613978240965e+18,0.0,-1.0,-1.0,-2.0,-1.0,0.0,-1.0,-1.0
1.6951613978250954e+18,-2.0,0.0,-2.0,-3.0,-2.0,-1.0,1.0,1.0
1.6951613978250954e+18,-3.0,-1.0,-1.0,1.0,-2.0,-1.0,-1.0,0.0
1.6951613978250954e+18,-1.0,-1.0,-1.0,-3.0,-1.0,0.0,-1.0,-1.0
1.6951613978350843e+18,-1.0,-2.0,-2.0,1.0,0.0,-1.0,0.0,-1.0
1.6951613978350843e+18,-1.0,-2.0,0.0,-1.0,-1.0,0.0,-1.0,-2.0
1.695161397836084e+18,-1.0,-1.0,-1.0,-2.0,-1.0,1.0,1.0,-1.0
1.695161397836084e+18,0.0,-1.0,-1.0,-2.0,0.0,1.0,-1.0,-2.0
1.69516139786209e+18,0.0,0.0,-2.0,1.0,-1.0,1.0,-1.0,0.0
1.69516139786209e+18,1.0,-1.0,-2.0,-1.0,-2.0,-1.0,-1.0,0.0
1.6951613978630835e+18,-1.0,0.0,-1.0,-3.0,-1.0,1.0,-1.0,-1.0
1.6951613978630835e+18,-1.0,0.0,-1.0,-2.0,0.0,-1.0,1.0,0.0
1.695161397872084e+18,0.0,1.0,0.0,-2.0,0.0,-1.0,-1.0,-1.0
1.695161397872084e+18,-2.0,-1.0,-2.0,1.0,-1.0,0.0,-1.0,-2.0
1.6951613978740626e+18,-2.0,0.0,-1.0,-1.0,1.0,-2.0,-1.0,1.0
1.6951613978740626e+18,1.0,0.0,-1.0,1.0,0.0,-1.0,-2.0,2.0
1.69516139789505e+18,-2.0,-1.0,-1.0,0.0,0.0,0.0,-2.0,-1.0
1.69516139789505e+18,1.0,-2.0,0.0,-1.0,-1.0,-1.0,1.0,-1.0
1.6951613978960525e+18,-1.0,-1.0,-1.0,-1.0,1.0,0.0,-1.0,-2.0
1.6951613978960525e+18,-1.0,-2.0,0.0,0.0,-1.0,-1.0,0.0,-1.0
1.6951613979080635e+18,0.0,0.0,-3.0,0.0,0.0,-1.0,-1.0,-3.0
1.6951613979080635e+18,-1.0,1.0,0.0,1.0,0.0,-1.0,-3.0,-1.0
1.6951613979250322e+18,-2.0,0.0,-1.0,0.0,-1.0,-2.0,-3.0,-1.0
1.6951613979250322e+18,-1.0,-1.0,1.0,-2.0,0.0,-2.0,-1.0,1.0
1.6951613979320297e+18,-1.0,0.0,2.0,0.0,0.0,0.0,0.0,-1.0
1.6951613979320297e+18,-3.0,-2.0,-1.0,0.0,-2.0,1.0,0.0,0.0
1.6951613979340265e+18,0.0,0.0,-1.0,0.0,0.0,-1.0,1.0,0.0
1.6951613979340265e+18,0.0,-2.0,-1.0,0.0,0.0,0.0,-2.0,-1.0
1.695161397970528e+18,0.0,-2.0,0.0,-1.0,-4.0,-3.0,0.0,0.0
1.695161397970528e+18,-1.0,0.0,-1.0,-1.0,0.0,-1.0,-1.0,0.0
1.695161397972533e+18,-1.0,-1.0,-1.0,-1.0,-2.0,-1.0,0.0,0.0
1.695161397972533e+18,0.0,-2.0,-1.0,2.0,0.0,0.0,0.0,-1.0
1.695161397972533e+18,-1.0,-2.0,-1.0,-1.0,1.0,-3.0,-1.0,-2.0
1.695161397972533e+18,-1.0,0.0,0.0,-1.0,0.0,0.0,-2.0,-1.0
1.6951613979845258e+18,0.0,0.0,0.0,-1.0,-1.0,1.0,0.0,-1.0
1.695161397985531e+18,-1.0,1.0,-1.0,-1.0,1.0,1.0,-2.0,-1.0
1.6951613979925222e+18,-1.0,-1.0,-1.0,-1.0,1.0,-1.0,-1.0,2.0
1.6951613979925222e+18,0.0,0.0,-1.0,-1.0,-1.0,-1.0,-1.0,0.0
1.6951613979935214e+18,-1.0,-1.0,0.0,-2.0,-1.0,0.0,-1.0,-1.0
1.6951613979945213e+18,-1.0,-2.0,0.0,-1.0,-1.0,0.0,0.0,0.0
1.6951613980145103e+18,1.0,-1.0,-1.0,-2.0,0.0,0.0,-3.0,0.0
1.6951613980155162e+18,0.0,0.0,-2.0,-1.0,0.0,0.0,-1.0,0.0
1.6951613980225055e+18,-1.0,0.0,-2.0,0.0,-2.0,0.0,-1.0,0.0
1.69516139802351e+18,-2.0,-2.0,-1.0,-2.0,-2.0,-2.0,0.0,-2.0
1.6951613980374958e+18,-1.0,-1.0,-2.0,0.0,-2.0,0.0,-3.0,0.0
1.6951613980384957e+18,0.0,-4.0,0.0,-2.0,-1.0,1.0,-2.0,-1.0
1.6951613980394954e+18,-2.0,-2.0,-1.0,-1.0,0.0,-2.0,-2.0,-1.0
1.6951613980394954e+18,0.0,-1.0,-3.0,-1.0,-1.0,-1.0,0.0,0.0
1.695161398052487e+18,-1.0,0.0,-1.0,0.0,-1.0,0.0,0.0,-2.0
1.695161398052487e+18,-1.0,-1.0,-2.0,-2.0,0.0,-2.0,0.0,-1.0
1.695161398054487e+18,0.0,0.0,1.0,0.0,-1.0,-2.0,-1.0,-1.0
1.695161398054487e+18,-2.0,0.0,0.0,-1.0,-3.0,0.0,0.0,0.0
1.6951613980754742e+18,0.0,2.0,0.0,-1.0,0.0,-1.0,-1.0,-1.0
1.6951613980754742e+18,0.0,-2.0,-2.0,1.0,0.0,0.0,-1.0,-1.0
1.6951613980764754e+18,2.0,-1.0,-2.0,-2.0,0.0,-1.0,0.0,-1.0
1.6951613980774733e+18,-1.0,0.0,1.0,-1.0,-1.0,0.0,-3.0,-1.0
1.695161398107456e+18,0.0,-1.0,0.0,0.0,0.0,-2.0,0.0,0.0
1.695161398107456e+18,-1.0,0.0,0.0,-1.0,0.0,-2.0,-1.0,-2.0
1.6951613981084813e+18,-2.0,-1.0,-1.0,-2.0,0.0,-1.0,-2.0,0.0
1.6951613981084813e+18,-2.0,-1.0,-1.0,-1.0,-1.0,-2.0,-1.0,-2.0
1.6951613981124529e+18,-2.0,-1.0,-2.0,0.0,-3.0,-2.0,-1.0,-1.0
1.6951613981124529e+18,-1.0,-1.0,0.0,-2.0,0.0,-1.0,1.0,0.0
1.6951613981184548e+18,-1.0,0.0,-2.0,1.0,-1.0,-1.0,1.0,-1.0
1.6951613981194565e+18,-1.0,1.0,-1.0,-1.0,1.0,1.0,0.0,-1.0
1.695161398135441e+18,-2.0,-1.0,0.0,-3.0,0.0,0.0,-2.0,-1.0
1.695161398135441e+18,-2.0,-1.0,-2.0,-1.0,1.0,-1.0,-1.0,1.0
1.6951613981364393e+18,-1.0,0.0,-1.0,-2.0,-2.0,0.0,-2.0,-1.0
1.6951613981374449e+18,1.0,-1.0,-1.0,-1.0,0.0,-3.0,-1.0,-1.0
1.6951613981571543e+18,-1.0,0.0,-1.0,1.0,0.0,0.0,0.0,1.0
1.69516139815816e+18,1.0,-1.0,0.0,-1.0,-2.0,-1.0,-1.0,-1.0
1.6951613981591652e+18,-1.0,-2.0,-1.0,-1.0,0.0,0.0,-1.0,-2.0
1.6951613981591652e+18,0.0,-1.0,0.0,2.0,-1.0,-2.0,0.0,-2.0
1.6951613981726054e+18,0.0,-1.0,-2.0,-2.0,0.0,0.0,1.0,-1.0
1.6951613981726054e+18,-1.0,0.0,-1.0,-1.0,0.0,-1.0,-2.0,1.0
1.6951613981746112e+18,-1.0,-1.0,0.0,0.0,0.0,-1.0,1.0,2.0
1.6951613981746112e+18,-2.0,0.0,0.0,0.0,2.0,1.0,2.0,1.0
1.6951613981947052e+18,-2.0,-1.0,1.0,1.0,2.0,1.0,1.0,1.0
1.6951613981957197e+18,1.0,2.0,2.0,0.0,1.0,2.0,2.0,-2.0
1.6951613981967153e+18,2.0,1.0,0.0,-1.0,1.0,1.0,0.0,0.0
1.6951613981967153e+18,0.0,2.0,1.0,-1.0,0.0,-1.0,-2.0,0.0
1.6951613982085266e+18,1.0,-1.0,0.0,0.0,0.0,-2.0,0.0,0.0
1.6951613982085266e+18,0.0,-1.0,-2.0,0.0,1.0,-1.0,0.0,1.0
1.6951613982175657e+18,-1.0,-1.0,-1.0,1.0,0.0,-1.0,-2.0,-1.0
1.6951613982175657e+18,0.0,-1.0,-1.0,0.0,-1.0,0.0,0.0,1.0
1.6951613982324618e+18,0.0,1.0,1.0,-1.0,-2.0,0.0,0.0,0.0
1.6951613982324618e+18,-1.0,1.0,0.0,-1.0,0.0,0.0,-1.0,1.0
1.6951613982385234e+18,-1.0,0.0,0.0,0.0,0.0,1.0,0.0,0.0
1.6951613982385234e+18,0.0,0.0,2.0,-1.0,0.0,-1.0,-1.0,0.0
1.695161398263628e+18,0.0,-1.0,0.0,-1.0,-1.0,0.0,-2.0,-1.0
1.6951613982756127e+18,0.0,-1.0,-2.0,-1.0,-2.0,-2.0,-1.0,0.0
1.695161398277611e+18,-1.0,1.0,-1.0,-2.0,1.0,-1.0,0.0,-1.0
1.695161398277611e+18,-1.0,-3.0,-1.0,0.0,-1.0,0.0,-1.0,1.0
1.695161398277611e+18,-2.0,0.0,-1.0,-1.0,-1.0,-1.0,-1.0,0.0
1.695161398277611e+18,-1.0,0.0,0.0,-3.0,0.0,-1.0,-2.0,0.0
1.695161398278615e+18,-1.0,-1.0,0.0,-2.0,1.0,-2.0,-2.0,-2.0
1.695161398278615e+18,-1.0,1.0,-2.0,-2.0,-1.0,-1.0,-1.0,1.0
1.695161398300597e+18,-1.0,-2.0,-1.0,-1.0,-1.0,0.0,1.0,0.0
1.695161398300597e+18,-1.0,0.0,-2.0,-1.0,-1.0,0.0,0.0,1.0
1.6951613983015982e+18,1.0,2.0,1.0,1.0,-1.0,-1.0,0.0,0.0
1.6951613983015982e+18,-1.0,-1.0,-2.0,2.0,1.0,-1.0,0.0,-1.0
1.695161398322587e+18,2.0,2.0,-3.0,-5.0,0.0,0.0,0.0,-1.0
1.695161398322587e+18,-2.0,0.0,-2.0,0.0,-2.0,-2.0,0.0,-1.0
1.6951613983235853e+18,-1.0,-1.0,2.0,6.0,-1.0,0.0,-2.0,-1.0
1.6951613983245888e+18,-1.0,1.0,-7.0,-11.0,-5.0,0.0,-3.0,-3.0
1.6951613983285814e+18,-3.0,-6.0,7.0,0.0,-17.0,-4.0,1.0,-2.0
1.6951613983285814e+18,-1.0,-3.0,-5.0,22.0,37.0,7.0,-1.0,-2.0
1.6951613983375782e+18,-3.0,-4.0,-4.0,-5.0,-11.0,-6.0,-4.0,-2.0
1.6951613983375782e+18,1.0,-2.0,1.0,3.0,20.0,7.0,0.0,-1.0
1.6951613983625661e+18,2.0,1.0,-5.0,-7.0,-5.0,-2.0,-1.0,2.0
1.6951613983635894e+18,0.0,3.0,-1.0,-6.0,-16.0,-5.0,-1.0,-1.0
1.6951613983635894e+18,4.0,7.0,6.0,6.0,15.0,6.0,8.0,15.0
1.6951613983645676e+18,-4.0,3.0,4.0,8.0,-7.0,-3.0,6.0,-19.0
1.6951613983755543e+18,-6.0,-21.0,-10.0,-16.0,-6.0,-8.0,-21.0,4.0
1.6951613983755543e+18,1.0,-2.0,-1.0,-8.0,-13.0,2.0,4.0,-2.0
1.6951613983895468e+18,-5.0,-5.0,-2.0,2.0,0.0,-2.0,-3.0,-3.0
1.6951613983895468e+18,4.0,5.0,0.0,-5.0,-8.0,-1.0,2.0,11.0
1.69516139839055e+18,-11.0,8.0,2.0,13.0,11.0,-3.0,-5.0,-7.0
1.69516139839055e+18,3.0,-1.0,0.0,-9.0,-3.0,3.0,1.0,-4.0
1.6951613983975468e+18,4.0,5.0,-3.0,-2.0,-3.0,3.0,7.0,3.0
1.6951613983975468e+18,-3.0,-10.0,2.0,1.0,0.0,-2.0,-2.0,0.0
1.695161398411539e+18,13.0,7.0,0.0,4.0,2.0,-3.0,1.0,-1.0
1.695161398412534e+18,-18.0,-11.0,-3.0,-4.0,-5.0,-8.0,-11.0,-3.0
1.6951613984185295e+18,-8.0,-4.0,2.0,5.0,2.0,1.0,6.0,0.0
1.6951613984185295e+18,4.0,-1.0,-4.0,-5.0,-4.0,-6.0,-12.0,-12.0
1.6951613984495122e+18,-10.0,5.0,2.0,7.0,7.0,-3.0,9.0,-5.0
1.6951613984505124e+18,34.0,15.0,7.0,-1.0,-4.0,4.0,-9.0,-16.0
1.695161398451511e+18,6.0,2.0,-2.0,-3.0,-1.0,-2.0,12.0,-5.0
1.695161398451511e+18,-69.0,-34.0,-10.0,-9.0,-10.0,-5.0,-21.0,-9.0
1.695161398451511e+18,-2.0,-5.0,3.0,5.0,4.0,8.0,10.0,-2.0
1.6951613984545147e+18,-4.0,8.0,1.0,-1.0,0.0,1.0,37.0,15.0
1.695161398473499e+18,43.0,14.0,2.0,1.0,-4.0,-21.0,-40.0,9.0
1.695161398474511e+18,-7.0,2.0,-4.0,-3.0,-4.0,5.0,14.0,3.0
1.6951613984755018e+18,-11.0,-15.0,-5.0,-3.0,0.0,-8.0,-17.0,-4.0
1.6951613984755018e+18,5.0,10.0,-2.0,-2.0,0.0,1.0,-31.0,-25.0
1.6951613984864914e+18,-38.0,-16.0,0.0,3.0,4.0,8.0,8.0,6.0
1.6951613984864914e+18,2.0,-20.0,-5.0,-5.0,-5.0,-10.0,8.0,41.0
1.695161398494492e+18,33.0,3.0,-9.0,-13.0,-8.0,-5.0,-27.0,-29.0
1.695161398495486e+18,9.0,6.0,1.0,1.0,-1.0,7.0,41.0,13.0
1.6951613985014825e+18,-20.0,6.0,5.0,2.0,6.0,-7.0,-19.0,-5.0
1.6951613985014825e+18,19.0,28.0,3.0,11.0,9.0,28.0,27.0,-18.0
1.6951613985264676e+18,-81.0,-57.0,-13.0,-6.0,1.0,5.0,-10.0,49.0
1.695161398534464e+18,11.0,1.0,-3.0,2.0,-8.0,-10.0,-19.0,45.0
1.6951613985354637e+18,10.0,-18.0,-2.0,2.0,-1.0,-12.0,25.0,-37.0
1.6951613985354637e+18,-1.0,8.0,11.0,-3.0,0.0,-1.0,18.0,37.0
1.6951613985364641e+18,-2.0,43.0,5.0,5.0,3.0,22.0,-8.0,-40.0
1.6951613985364641e+18,11.0,-26.0,-13.0,-14.0,-7.0,-13.0,-24.0,58.0
1.695161398538462e+18,-11.0,16.0,-2.0,-5.0,-2.0,5.0,2.0,-74.0
1.6951613985394614e+18,-19.0,-12.0,3.0,10.0,7.0,12.0,44.0,-13.0
1.69516139855448e+18,-11.0,-22.0,-6.0,-5.0,-13.0,-35.0,-41.0,5.0
1.6951613985554514e+18,64.0,41.0,9.0,6.0,14.0,56.0,104.0,-80.0
1.6951613985564526e+18,-37.0,-20.0,-18.0,-21.0,-17.0,-28.0,-108.0,62.0
1.6951613985564526e+18,11.0,12.0,11.0,10.0,12.0,25.0,11.0,-6.0
1.6951613985774382e+18,55.0,25.0,-1.0,-13.0,-9.0,4.0,99.0,12.0
1.6951613985774382e+18,-62.0,-19.0,-7.0,7.0,-7.0,-18.0,-11.0,-8.0
1.6951613985784394e+18,57.0,24.0,9.0,6.0,6.0,33.0,37.0,-31.0
1.6951613985794414e+18,38.0,4.0,-6.0,-9.0,-4.0,-51.0,-63.0,-24.0
1.6951613985924306e+18,-17.0,-12.0,7.0,8.0,24.0,62.0,63.0,61.0
1.6951613985934308e+18,77.0,31.0,7.0,13.0,16.0,-44.0,-40.0,30.0
1.695161398598427e+18,-37.0,-11.0,7.0,9.0,-1.0,32.0,90.0,3.0
1.695161398600427e+18,0.0,-21.0,-20.0,-25.0,-36.0,-84.0,-128.0,36.0
1.6951613986244408e+18,9.0,9.0,17.0,4.0,-2.0,33.0,91.0,-21.0
1.6951613986254395e+18,-66.0,-26.0,-14.0,3.0,3.0,-8.0,-56.0,-17.0
1.6951613986254395e+18,7.0,12.0,-5.0,0.0,12.0,3.0,14.0,106.0
1.6951613986264128e+18,82.0,22.0,19.0,22.0,16.0,44.0,83.0,0.0
1.6951613986384046e+18,-14.0,-14.0,-32.0,-19.0,-12.0,-30.0,-100.0,-34.0
1.6951613986384046e+18,-91.0,-16.0,3.0,-4.0,-7.0,-18.0,20.0,-58.0
1.6951613986394038e+18,83.0,28.0,4.0,11.0,3.0,-7.0,-24.0,55.0
1.6951613986394038e+18,33.0,6.0,6.0,2.0,5.0,18.0,-1.0,1.0
1.695161398652396e+18,8.0,7.0,3.0,11.0,-3.0,-23.0,-39.0,29.0
1.695161398652396e+18,2.0,-22.0,-8.0,-12.0,-7.0,-3.0,-14.0,24.0
1.6951613986663875e+18,-22.0,-12.0,-6.0,-10.0,-8.0,-9.0,-6.0,-57.0
1.6951613986663875e+18,-33.0,11.0,7.0,-3.0,4.0,8.0,10.0,-24.0
1.6951613986753874e+18,-4.0,-12.0,2.0,5.0,3.0,-18.0,-36.0,-74.0
1.6951613986753874e+18,28.0,1.0,5.0,6.0,3.0,16.0,-17.0,95.0
1.695161398676382e+18,-50.0,-13.0,0.0,-12.0,-6.0,-14.0,-33.0,-40.0
1.695161398676382e+18,-18.0,-1.0,-21.0,10.0,2.0,15.0,11.0,-50.0
1.695161398704394e+18,-5.0,16.0,7.0,-17.0,-9.0,-7.0,26.0,44.0
1.695161398705375e+18,10.0,-3.0,3.0,2.0,-7.0,-19.0,-42.0,9.0
1.695161398705375e+18,-64.0,-23.0,-7.0,-20.0,-7.0,-6.0,17.0,-53.0
1.695161398705375e+18,-23.0,1.0,1.0,5.0,-4.0,-1.0,-7.0,43.0
1.6951613987113902e+18,73.0,6.0,4.0,12.0,12.0,17.0,66.0,-33.0
1.6951613987123625e+18,-25.0,2.0,16.0,8.0,5.0,5.0,-31.0,31.0
1.6951613987193577e+18,28.0,-8.0,-9.0,-1.0,-13.0,-10.0,-24.0,9.0
1.6951613987193577e+18,-34.0,-4.0,-2.0,-10.0,8.0,3.0,0.0,24.0
1.6951613987423442e+18,27.0,7.0,-1.0,5.0,5.0,6.0,0.0,-14.0
1.6951613987433477e+18,-5.0,1.0,-4.0,-19.0,-14.0,4.0,5.0,-97.0
1.6951613987443433e+18,-2.0,-16.0,2.0,0.0,-5.0,-2.0,11.0,56.0
1.6951613987443433e+18,-16.0,3.0,-5.0,-5.0,-6.0,-19.0,-20.0,-18.0
1.695161398765332e+18,-2.0,-7.0,5.0,13.0,14.0,-1.0,-31.0,12.0
1.695161398766332e+18,15.0,10.0,2.0,-4.0,-1.0,7.0,30.0,5.0
1.6951613987673408e+18,0.0,-3.0,5.0,-15.0,-11.0,-13.0,-61.0,-65.0
1.6951613987673408e+18,-13.0,-5.0,1.0,3.0,2.0,11.0,38.0,43.0
1.6951613987713283e+18,20.0,3.0,-2.0,-2.0,-3.0,-10.0,9.0,-2.0
1.6951613987713283e+18,18.0,-3.0,-7.0,9.0,6.0,8.0,0.0,6.0
1.6951613988053084e+18,-26.0,-13.0,4.0,3.0,5.0,7.0,1.0,-3.0
1.6951613988053084e+18,-29.0,-36.0,-7.0,-7.0,-3.0,-2.0,-22.0,-18.0
1.695161398806308e+18,-43.0,-5.0,-1.0,-5.0,-10.0,-20.0,-11.0,10.0
1.695161398806308e+18,8.0,1.0,1.0,2.0,-8.0,-16.0,25.0,-8.0
1.695161398818301e+18,-6.0,-2.0,7.0,8.0,10.0,4.0,8.0,59.0
1.6951613988193e+18,38.0,6.0,4.0,-2.0,5.0,15.0,12.0,-37.0
1.6951613988193e+18,-4.0,-7.0,0.0,4.0,-1.0,-8.0,9.0,67.0
1.695161398820306e+18,-10.0,-17.0,-9.0,10.0,-14.0,-24.0,-13.0,-44.0
1.695161398820306e+18,32.0,20.0,2.0,-18.0,-4.0,-9.0,-22.0,-13.0
1.6951613988212997e+18,1.0,-9.0,-3.0,4.0,-3.0,-7.0,-19.0,18.0
1.695161398831293e+18,-18.0,13.0,-1.0,-7.0,2.0,19.0,11.0,-42.0
1.695161398831293e+18,-9.0,0.0,7.0,2.0,9.0,18.0,13.0,42.0
1.6951613988402883e+18,1.0,1.0,-17.0,2.0,-3.0,-10.0,-11.0,-17.0
1.6951613988402883e+18,4.0,19.0,-1.0,-6.0,-12.0,-12.0,21.0,-11.0
1.695161398884263e+18,3.0,-19.0,-13.0,-11.0,-15.0,-18.0,-31.0,15.0
1.6951613988882604e+18,-25.0,6.0,11.0,3.0,14.0,14.0,2.0,-29.0
1.6951613988882604e+18,-6.0,1.0,-10.0,-6.0,0.0,18.0,31.0,35.0
1.6951613988882604e+18,3.0,-3.0,3.0,-2.0,6.0,1.0,-11.0,-13.0
1.6951613988892613e+18,15.0,14.0,5.0,3.0,-4.0,-5.0,7.0,-21.0
1.6951613988892613e+18,-7.0,11.0,-2.0,0.0,-4.0,11.0,23.0,37.0
1.6951613988892613e+18,35.0,7.0,14.0,11.0,10.0,10.0,20.0,-39.0
1.6951613988902595e+18,34.0,7.0,-11.0,-3.0,-6.0,4.0,36.0,21.0
1.6951613988912594e+18,-20.0,-1.0,-3.0,-7.0,6.0,11.0,-1.0,11.0
1.6951613988912594e+18,-24.0,-8.0,2.0,5.0,3.0,21.0,13.0,-39.0
1.6951613989172436e+18,-17.0,11.0,18.0,0.0,-4.0,-10.0,4.0,-22.0
1.6951613989172436e+18,16.0,-11.0,-9.0,-4.0,-5.0,-27.0,-48.0,39.0
1.6951613989232407e+18,-29.0,12.0,6.0,9.0,16.0,20.0,-4.0,3.0
1.6951613989242414e+18,32.0,4.0,0.0,-8.0,-2.0,-1.0,5.0,-1.0
1.6951613989372314e+18,3.0,-12.0,-11.0,11.0,11.0,16.0,4.0,-3.0
1.6951613989372314e+18,-16.0,-1.0,2.0,3.0,-1.0,-1.0,-32.0,-7.0
1.6951613989372314e+18,-23.0,0.0,6.0,5.0,-10.0,-12.0,-10.0,7.0
1.6951613989372314e+18,-16.0,-13.0,-19.0,-18.0,-8.0,-5.0,-10.0,-24.0
1.6951613989452285e+18,22.0,-2.0,7.0,5.0,-1.0,-8.0,4.0,-36.0
1.6951613989452285e+18,3.0,10.0,1.0,-7.0,-1.0,20.0,18.0,32.0
1.6951613989662144e+18,20.0,7.0,-5.0,4.0,6.0,1.0,-8.0,-16.0
1.6951613989662144e+18,41.0,1.0,6.0,7.0,7.0,0.0,10.0,30.0
1.695161398997216e+18,-9.0,-11.0,-24.0,-6.0,-9.0,-17.0,-5.0,9.0
1.695161398998198e+18,-13.0,-2.0,4.0,0.0,4.0,21.0,-34.0,0.0
1.695161399004207e+18,14.0,-10.0,-6.0,-13.0,-7.0,30.0,4.0,24.0
1.695161399004207e+18,-30.0,-5.0,-4.0,-4.0,-3.0,-8.0,-25.0,-93.0
1.6951613990181844e+18,9.0,-1.0,11.0,4.0,-1.0,-11.0,50.0,123.0
1.6951613990191882e+18,8.0,11.0,-1.0,11.0,12.0,13.0,29.0,-48.0
1.6951613990281815e+18,-12.0,-5.0,6.0,2.0,-2.0,-18.0,-17.0,-13.0
1.6951613990281815e+18,-6.0,2.0,0.0,-7.0,-5.0,0.0,-6.0,-9.0
1.6951613990281815e+18,7.0,7.0,1.0,13.0,11.0,2.0,0.0,-10.0
1.6951613990281815e+18,-11.0,-21.0,5.0,9.0,-5.0,-11.0,2.0,4.0
1.6951613990301783e+18,1.0,8.0,-12.0,-19.0,-8.0,5.0,-4.0,-15.0
1.6951613990301783e+18,4.0,0.0,18.0,21.0,27.0,5.0,17.0,10.0
1.6951613990651607e+18,-15.0,-8.0,-29.0,-9.0,-6.0,-7.0,-20.0,-42.0
1.6951613990651607e+18,8.0,-16.0,7.0,-3.0,0.0,3.0,3.0,55.0
1.6951613990651607e+18,2.0,19.0,-8.0,8.0,2.0,1.0,-11.0,8.0
1.6951613990661637e+18,-4.0,-12.0,-6.0,-17.0,-16.0,-7.0,4.0,-14.0
1.6951613990661637e+18,7.0,-5.0,7.0,13.0,9.0,-2.0,8.0,9.0
1.6951613990661637e+18,-9.0,4.0,-6.0,-7.0,-9.0,-6.0,-5.0,1.0
1.695161399141115e+18,1.0,-6.0,-5.0,-3.0,0.0,6.0,-4.0,-29.0
1.695161399141115e+18,-10.0,6.0,-6.0,-6.0,-5.0,-7.0,11.0,2.0
1.695161399141115e+18,14.0,-6.0,11.0,0.0,0.0,-2.0,-2.0,2.0
1.695161399142121e+18,21.0,17.0,-2.0,-2.0,-1.0,0.0,9.0,39.0
1.6951613991715343e+18,-11.0,-1.0,3.0,3.0,3.0,3.0,-4.0,-20.0
1.6951613991715343e+18,-5.0,-4.0,0.0,4.0,-1.0,-2.0,-1.0,-6.0
1.6951613991715343e+18,-1.0,-1.0,-3.0,-12.0,-12.0,-8.0,-8.0,-7.0
1.6951613991715343e+18,2.0,5.0,-7.0,-6.0,2.0,3.0,-5.0,0.0
1.6951613991735332e+18,3.0,3.0,-2.0,-3.0,-4.0,-2.0,-1.0,-2.0
1.6951613991735332e+18,5.0,3.0,-2.0,2.0,6.0,1.0,-4.0,-8.0
1.6951613991935913e+18,2.0,-2.0,3.0,-2.0,-2.0,-2.0,1.0,8.0
1.6951613991945823e+18,-4.0,0.0,-1.0,0.0,-2.0,-3.0,-4.0,2.0
1.6951613991955817e+18,11.0,5.0,-2.0,-2.0,0.0,-3.0,-3.0,10.0
1.6951613991955817e+18,-2.0,3.0,1.0,1.0,-2.0,-2.0,-2.0,-13.0
1.6951613992462472e+18,0.0,-1.0,-3.0,0.0,0.0,-1.0,-7.0,7.0
1.6951613992472458e+18,-1.0,-1.0,-2.0,0.0,-3.0,-2.0,-3.0,-11.0
1.6951613992472458e+18,2.0,2.0,1.0,0.0,-1.0,-1.0,1.0,-1.0
1.6951613992472458e+18,-5.0,0.0,-2.0,-3.0,-1.0,-2.0,-3.0,7.0
1.6951613992482486e+18,7.0,-2.0,1.0,0.0,-1.0,-2.0,-4.0,3.0
1.6951613992492444e+18,-3.0,-1.0,-1.0,2.0,-1.0,-3.0,-1.0,-12.0
1.6951613993036577e+18,-2.0,2.0,-2.0,-3.0,1.0,0.0,3.0,-2.0
1.6951613993036577e+18,4.0,-1.0,1.0,-3.0,0.0,-2.0,-1.0,5.0
1.695161399322597e+18,-2.0,2.0,1.0,1.0,-2.0,-3.0,-7.0,-3.0
1.695161399322597e+18,1.0,-3.0,-3.0,-2.0,-4.0,-3.0,-1.0,-8.0
1.6951613993235973e+18,-1.0,0.0,-4.0,-2.0,-1.0,-1.0,1.0,-2.0
1.6951613993245967e+18,-7.0,0.0,-10.0,-6.0,1.0,2.0,0.0,0.0
1.6951613993375898e+18,10.0,1.0,14.0,6.0,-1.0,-2.0,-2.0,1.0
1.6951613993385943e+18,-2.0,-1.0,-3.0,0.0,-6.0,-3.0,-4.0,-5.0
1.6951613993395968e+18,2.0,-1.0,-1.0,1.0,-3.0,-3.0,-2.0,2.0
1.6951613993395968e+18,-5.0,-5.0,-6.0,-3.0,-1.0,-2.0,-2.0,1.0
1.6951613993395968e+18,-2.0,-1.0,9.0,2.0,-3.0,0.0,0.0,-2.0
1.6951613993405952e+18,-3.0,-5.0,-1.0,-2.0,-2.0,-3.0,-2.0,0.0
1.6951613993605765e+18,0.0,-1.0,-1.0,1.0,2.0,0.0,-4.0,-2.0
1.6951613993605765e+18,-1.0,-1.0,-4.0,-6.0,-3.0,-2.0,0.0,-1.0
1.6951613993605765e+18,-2.0,-1.0,-3.0,-8.0,-2.0,1.0,0.0,0.0
1.6951613993615764e+18,1.0,2.0,6.0,4.0,1.0,3.0,2.0,-1.0
1.6951613993725696e+18,-4.0,0.0,-4.0,0.0,2.0,2.0,0.0,2.0
1.6951613993735698e+18,1.0,-1.0,-1.0,7.0,3.0,-1.0,-1.0,-3.0
1.6951613993755692e+18,-3.0,-1.0,2.0,0.0,-4.0,-2.0,0.0,0.0
1.6951613993765673e+18,1.0,0.0,4.0,2.0,0.0,-3.0,-1.0,-2.0
1.6951613993835648e+18,-3.0,-3.0,-15.0,-10.0,-3.0,-2.0,-2.0,2.0
1.6951613993845632e+18,2.0,0.0,0.0,-4.0,-1.0,0.0,-1.0,1.0
1.6951613994015575e+18,-1.0,-2.0,0.0,5.0,2.0,1.0,-1.0,-2.0
1.6951613994165453e+18,-1.0,0.0,-3.0,-5.0,-3.0,0.0,-1.0,-1.0
1.6951613994175447e+18,-2.0,-2.0,3.0,3.0,0.0,1.0,3.0,-2.0
1.695161399420541e+18,-2.0,-2.0,-3.0,-6.0,-1.0,-1.0,0.0,0.0
1.695161399420541e+18,-2.0,1.0,-1.0,-7.0,-3.0,-2.0,-1.0,-2.0
1.6951613994215414e+18,3.0,0.0,-1.0,1.0,0.0,-3.0,0.0,1.0
1.6951613994215414e+18,-2.0,-2.0,2.0,3.0,-1.0,-4.0,-3.0,-1.0
1.695161399422541e+18,2.0,1.0,1.0,0.0,2.0,1.0,1.0,1.0
1.6951613994405307e+18,-1.0,0.0,-4.0,-7.0,-6.0,-4.0,-2.0,0.0
1.69516139944153e+18,1.0,-1.0,-5.0,-6.0,-3.0,-4.0,0.0,2.0
1.6951613994465272e+18,-3.0,-1.0,2.0,2.0,2.0,-1.0,-1.0,-2.0
1.6951613994465272e+18,0.0,-1.0,0.0,2.0,4.0,3.0,1.0,0.0
1.6951613994705152e+18,-1.0,-2.0,-2.0,0.0,0.0,0.0,-1.0,-2.0
1.6951613994715133e+18,1.0,-1.0,1.0,2.0,-1.0,-2.0,-1.0,-1.0
1.6951613994715133e+18,0.0,-2.0,0.0,1.0,-4.0,-2.0,-1.0,-2.0
1.695161399472514e+18,0.0,0.0,1.0,-4.0,-5.0,-2.0,-4.0,0.0
1.695161399477509e+18,-1.0,-2.0,-2.0,-1.0,1.0,-1.0,0.0,0.0
1.695161399478509e+18,1.0,-1.0,-1.0,-1.0,-2.0,-1.0,0.0,0.0
1.695161399479509e+18,-2.0,0.0,-1.0,-1.0,0.0,0.0,-1.0,-2.0
1.6951613994805082e+18,-1.0,-1.0,-2.0,-1.0,0.0,1.0,-1.0,-1.0
1.6951613995004956e+18,-1.0,-2.0,0.0,1.0,-2.0,0.0,0.0,-2.0
1.6951613995014966e+18,1.0,-2.0,1.0,1.0,0.0,0.0,2.0,0.0
1.6951613995024955e+18,1.0,1.0,-2.0,-1.0,-1.0,-1.0,-1.0,-1.0
1.6951613995024955e+18,-1.0,0.0,0.0,-1.0,-3.0,-1.0,0.0,1.0
1.695161399526505e+18,-2.0,-1.0,-4.0,-1.0,0.0,0.0,0.0,-1.0
1.695161399526505e+18,-1.0,-1.0,-1.0,-1.0,2.0,-1.0,-1.0,0.0
1.6951613995294833e+18,-1.0,-2.0,1.0,2.0,0.0,-1.0,2.0,-1.0
1.6951613995294833e+18,-1.0,0.0,0.0,-3.0,-3.0,-2.0,0.0,-3.0
1.6951613995374738e+18,-2.0,-2.0,0.0,-1.0,-1.0,-2.0,0.0,-2.0
1.6951613995374738e+18,0.0,-1.0,-3.0,-2.0,0.0,-1.0,-1.0,-2.0
1.6951613995384776e+18,0.0,-1.0,-2.0,-1.0,-3.0,-1.0,-2.0,1.0
1.6951613995394726e+18,-3.0,-2.0,-1.0,0.0,-1.0,-1.0,-1.0,0.0
1.6951613995754511e+18,0.0,-3.0,-2.0,-2.0,0.0,-1.0,1.0,1.0
1.6951613995764567e+18,-1.0,0.0,1.0,0.0,-1.0,1.0,-2.0,0.0
1.6951613995774518e+18,1.0,-1.0,-2.0,-2.0,-2.0,-2.0,0.0,-1.0
1.6951613995774518e+18,-4.0,-2.0,0.0,-4.0,0.0,-1.0,-1.0,-2.0
1.6951613995784502e+18,4.0,0.0,0.0,-3.0,0.0,0.0,-1.0,-1.0
1.6951613995784502e+18,-2.0,0.0,-3.0,-2.0,-2.0,0.0,1.0,0.0
1.6951613996004378e+18,0.0,1.0,1.0,2.0,-3.0,-2.0,0.0,0.0
1.695161399601438e+18,0.0,-2.0,0.0,0.0,-1.0,0.0,-1.0,-1.0
1.695161399601438e+18,-3.0,2.0,-2.0,1.0,-1.0,0.0,0.0,0.0
1.6951613996024366e+18,0.0,1.0,2.0,-4.0,-1.0,-3.0,-2.0,-1.0
1.695161399603438e+18,-1.0,-2.0,-2.0,-5.0,2.0,0.0,-1.0,-2.0
1.6951613996044385e+18,-1.0,-1.0,3.0,-1.0,-2.0,-2.0,0.0,-2.0
1.6951613996354166e+18,-1.0,0.0,0.0,3.0,0.0,-2.0,-2.0,-2.0
1.695161399636421e+18,-2.0,-2.0,-5.0,1.0,2.0,2.0,-1.0,-1.0
1.6951613996374172e+18,-2.0,-1.0,-1.0,-3.0,1.0,0.0,-3.0,-2.0
1.6951613996374172e+18,1.0,-1.0,-3.0,0.0,-1.0,-1.0,0.0,1.0
1.6951613996374172e+18,0.0,-1.0,1.0,-1.0,0.0,2.0,0.0,-1.0
1.6951613996384177e+18,-2.0,-1.0,2.0,2.0,0.0,-1.0,0.0,-1.0
1.6951613996504095e+18,0.0,-1.0,0.0,-2.0,0.0,1.0,0.0,-2.0
1.6951613996504095e+18,0.0,-2.0,-1.0,-1.0,-3.0,-2.0,-2.0,0.0
1.6951613996574098e+18,-2.0,-1.0,-1.0,-3.0,-2.0,-2.0,-1.0,0.0
1.6951613996574098e+18,-2.0,-1.0,-2.0,1.0,0.0,0.0,-1.0,0.0
1.6951613996584097e+18,-2.0,0.0,0.0,1.0,-1.0,-3.0,-2.0,0.0
1.6951613996594033e+18,0.0,-1.0,-1.0,0.0,-3.0,-1.0,-1.0,-1.0
1.6951613996873884e+18,-1.0,-1.0,-2.0,0.0,-1.0,-1.0,-1.0,-2.0
1.6951613996883878e+18,-1.0,-1.0,0.0,1.0,-2.0,-1.0,0.0,-1.0
1.695161399689388e+18,-1.0,0.0,-3.0,-1.0,-1.0,-1.0,-1.0,1.0
1.695161399689388e+18,-2.0,0.0,-2.0,0.0,0.0,0.0,-1.0,-2.0
1.6951613997183698e+18,0.0,-1.0,-2.0,-4.0,-1.0,0.0,-2.0,-1.0
1.6951613997183698e+18,0.0,0.0,0.0,0.0,-1.0,1.0,-2.0,0.0
1.69516139972037e+18,-1.0,0.0,1.0,0.0,1.0,1.0,1.0,0.0
1.69516139972037e+18,1.0,0.0,-2.0,-1.0,0.0,0.0,-1.0,-1.0
1.69516139972037e+18,0.0,0.0,0.0,-1.0,1.0,-2.0,-1.0,0.0
1.695161399721374e+18,1.0,0.0,3.0,0.0,-4.0,-1.0,0.0,-1.0
1.6951613997253665e+18,1.0,0.0,-10.0,-1.0,-2.0,-3.0,-1.0,1.0
1.6951613997253665e+18,0.0,-3.0,-2.0,-1.0,0.0,-3.0,0.0,0.0
1.6951613997503575e+18,-2.0,-1.0,0.0,0.0,0.0,-1.0,-2.0,0.0
1.695161399752376e+18,-2.0,-1.0,0.0,-2.0,-1.0,-2.0,0.0,-1.0
1.6951613997533752e+18,-4.0,1.0,2.0,0.0,1.0,-1.0,0.0,0.0
1.6951613997533752e+18,5.0,1.0,-1.0,0.0,1.0,-1.0,-1.0,0.0
1.6951613997623485e+18,-1.0,-1.0,0.0,-1.0,-2.0,-1.0,-1.0,-2.0
1.6951613997623485e+18,-2.0,0.0,0.0,0.0,0.0,-1.0,0.0,-1.0
1.6951613997633452e+18,-2.0,0.0,2.0,-1.0,-1.0,0.0,0.0,-2.0
1.695161399764346e+18,-1.0,-2.0,0.0,0.0,-2.0,0.0,0.0,1.0
1.695161399777336e+18,-1.0,0.0,-1.0,-1.0,-2.0,0.0,-2.0,1.0
1.695161399777336e+18,0.0,-1.0,-1.0,0.0,-1.0,0.0,-1.0,0.0
1.6951613997843328e+18,0.0,-1.0,-2.0,-4.0,-1.0,-1.0,-1.0,0.0
1.6951613997843328e+18,-2.0,0.0,-1.0,0.0,-2.0,0.0,0.0,0.0
1.6951613998003238e+18,-1.0,-2.0,-1.0,-2.0,1.0,0.0,-1.0,-1.0
1.6951613998003238e+18,-1.0,-1.0,-1.0,2.0,-1.0,0.0,-3.0,-1.0
1.6951613998013228e+18,-1.0,-2.0,1.0,-1.0,-2.0,-1.0,-1.0,0.0
1.6951613998023222e+18,-2.0,0.0,-1.0,-2.0,0.0,0.0,1.0,-1.0
1.6951613998293102e+18,-1.0,1.0,-2.0,-2.0,-3.0,0.0,0.0,1.0
1.6951613998303063e+18,0.0,-2.0,-3.0,-3.0,1.0,-2.0,-1.0,-2.0
1.6951613998373015e+18,1.0,0.0,-1.0,0.0,0.0,-2.0,0.0,0.0
1.6951613998383027e+18,-2.0,0.0,0.0,0.0,-1.0,-3.0,-2.0,-2.0
1.6951613998432983e+18,1.0,-2.0,0.0,1.0,0.0,-2.0,0.0,-1.0
1.695161399844299e+18,-1.0,-2.0,-2.0,-1.0,0.0,1.0,0.0,-1.0
1.6951613998532925e+18,1.0,-1.0,-1.0,2.0,-2.0,1.0,-2.0,0.0
1.6951613998532925e+18,-2.0,0.0,2.0,0.0,0.0,-1.0,-1.0,0.0
1.6951613998762793e+18,0.0,-1.0,-2.0,0.0,-1.0,0.0,-1.0,0.0
1.6951613998762793e+18,0.0,-2.0,-1.0,-1.0,-1.0,-1.0,-1.0,0.0
1.6951613999132572e+18,0.0,-3.0,-1.0,-1.0,-1.0,0.0,-2.0,-1.0
1.6951613999132572e+18,-1.0,-1.0,-1.0,-1.0,-1.0,-1.0,1.0,1.0
1.6951613999142566e+18,-1.0,-1.0,-1.0,1.0,0.0,-2.0,0.0,-2.0
1.6951613999142566e+18,1.0,-1.0,-1.0,1.0,-1.0,-2.0,0.0,1.0
1.695161399916256e+18,-1.0,-2.0,-1.0,-1.0,-1.0,-2.0,-1.0,-1.0
1.695161399916256e+18,0.0,0.0,-2.0,-1.0,0.0,0.0,0.0,-2.0
1.6951613999282716e+18,-2.0,-2.0,2.0,3.0,1.0,-2.0,-1.0,-2.0
1.6951613999292495e+18,-2.0,0.0,-2.0,-2.0,-2.0,-1.0,-2.0,-2.0
1.6951613999302482e+18,1.0,0.0,-2.0,-2.0,-1.0,-3.0,0.0,0.0
1.6951613999302482e+18,-1.0,-3.0,-1.0,0.0,0.0,0.0,-1.0,-2.0
1.6951613999502364e+18,-2.0,0.0,1.0,-1.0,-1.0,-1.0,0.0,-2.0
1.6951613999502364e+18,0.0,-1.0,-1.0,-3.0,1.0,0.0,0.0,-1.0
1.695161399951236e+18,-2.0,0.0,0.0,-2.0,-1.0,0.0,-1.0,0.0
1.695161399951236e+18,-1.0,0.0,-1.0,-1.0,0.0,0.0,-1.0,-2.0
1.6951613999522358e+18,-1.0,0.0,2.0,0.0,0.0,-1.0,-1.0,0.0
1.6951613999522358e+18,-2.0,-2.0,-1.0,1.0,0.0,0.0,0.0,-2.0
1.6951613999652288e+18,0.0,-2.0,-2.0,1.0,-2.0,-1.0,0.0,-1.0
1.6951613999652288e+18,-1.0,0.0,3.0,-1.0,-1.0,0.0,-1.0,-2.0
1.6951613999662282e+18,0.0,-3.0,-11.0,-2.0,-1.0,0.0,1.0,-1.0
1.6951613999662282e+18,-1.0,-1.0,-1.0,0.0,-2.0,-1.0,0.0,-3.0
1.695161399987215e+18,-1.0,1.0,0.0,1.0,-1.0,-2.0,0.0,-1.0
1.695161399987215e+18,-2.0,-1.0,3.0,1.0,1.0,0.0,-1.0,0.0
1.695161399988215e+18,-1.0,0.0,3.0,1.0,1.0,-1.0,-1.0,-1.0
1.6951613999892142e+18,0.0,-2.0,-1.0,-2.0,-1.0,-2.0,-2.0,0.0
1.6951613999932347e+18,-2.0,0.0,-3.0,-2.0,0.0,1.0,-1.0,-1.0
1.6951613999932347e+18,-1.0,-2.0,-2.0,-1.0,0.0,-1.0,1.0,1.0
1.6951614000022075e+18,-2.0,0.0,-2.0,0.0,0.0,0.0,0.0,0.0
1.6951614000032087e+18,-1.0,-1.0,-4.0,-3.0,0.0,-1.0,-2.0,-2.0
1.6951614000241935e+18,-2.0,-3.0,1.0,-3.0,-1.0,-1.0,-1.0,0.0
1.6951614000251937e+18,-1.0,0.0,1.0,6.0,0.0,1.0,0.0,-2.0
1.695161400026193e+18,0.0,-1.0,6.0,-1.0,0.0,-1.0,-1.0,1.0
1.695161400026193e+18,0.0,0.0,1.0,-1.0,-2.0,1.0,-1.0,0.0
1.6951614000391846e+18,-1.0,-3.0,-9.0,-3.0,-1.0,-2.0,-1.0,-1.0
1.6951614000391846e+18,-1.0,1.0,3.0,-4.0,-1.0,-2.0,-3.0,0.0
1.6951614000411848e+18,1.0,0.0,1.0,1.0,-2.0,-2.0,0.0,0.0
1.6951614000411848e+18,0.0,1.0,2.0,1.0,1.0,0.0,0.0,-1.0
1.6951614000615212e+18,-2.0,2.0,0.0,-2.0,-1.0,0.0,-2.0,0.0
1.6951614000615212e+18,-3.0,-4.0,-2.0,-2.0,-1.0,0.0,-1.0,0.0
1.695161400086507e+18,1.0,-3.0,2.0,1.0,0.0,1.0,0.0,1.0
1.695161400086507e+18,-1.0,-1.0,0.0,-1.0,-1.0,-1.0,-2.0,-1.0
1.6951614000875062e+18,1.0,1.0,1.0,0.0,1.0,1.0,0.0,-1.0
1.6951614000875062e+18,0.0,-1.0,-4.0,-2.0,2.0,-1.0,-1.0,-1.0
1.695161400090506e+18,-1.0,0.0,-3.0,-2.0,-2.0,0.0,-1.0,-2.0
1.695161400090506e+18,-1.0,-1.0,-2.0,0.0,-3.0,-2.0,1.0,0.0
1.6951614000995018e+18,0.0,-2.0,2.0,3.0,-1.0,0.0,1.0,0.0
1.6951614000995018e+18,-2.0,4.0,-8.0,-5.0,-4.0,-3.0,0.0,0.0
1.6951614001014996e+18,-4.0,-2.0,-2.0,0.0,1.0,0.0,-2.0,-3.0
1.6951614001014996e+18,3.0,3.0,7.0,1.0,0.0,-1.0,-2.0,0.0
1.6951614001134912e+18,-5.0,-6.0,-4.0,0.0,0.0,1.0,0.0,-1.0
1.6951614001134912e+18,0.0,-2.0,4.0,-3.0,-1.0,-2.0,-1.0,0.0
1.6951614001394762e+18,0.0,-3.0,-1.0,0.0,0.0,0.0,-1.0,0.0
1.6951614001394762e+18,-4.0,-3.0,-2.0,1.0,0.0,0.0,0.0,0.0
1.6951614001394762e+18,1.0,10.0,-5.0,-5.0,-3.0,-5.0,-2.0,-1.0
1.695161400140476e+18,0.0,-6.0,-1.0,0.0,0.0,-2.0,0.0,0.0
1.695161400143474e+18,-3.0,-3.0,0.0,0.0,0.0,-1.0,0.0,-1.0
1.695161400143474e+18,2.0,-2.0,-1.0,0.0,0.0,0.0,0.0,1.0
1.695161400159467e+18,-1.0,-2.0,4.0,1.0,0.0,0.0,-2.0,0.0
1.695161400159467e+18,-1.0,0.0,-6.0,-1.0,-1.0,0.0,2.0,-1.0
1.695161400161464e+18,1.0,3.0,2.0,-1.0,-3.0,-2.0,0.0,-1.0
1.695161400161464e+18,-2.0,-3.0,-3.0,0.0,-2.0,-1.0,-1.0,-1.0
1.6951614001894495e+18,1.0,-1.0,0.0,-1.0,-2.0,-1.0,-1.0,-2.0
1.6951614001894495e+18,0.0,2.0,2.0,-1.0,1.0,0.0,-1.0,-1.0
1.6951614001914468e+18,0.0,1.0,-11.0,-5.0,-2.0,-1.0,-3.0,-1.0
1.6951614001914468e+18,-1.0,0.0,-2.0,-2.0,1.0,0.0,-1.0,-3.0
1.6951614001964667e+18,-1.0,-4.0,3.0,1.0,-1.0,0.0,0.0,0.0
1.6951614001964667e+18,-1.0,-1.0,3.0,-1.0,-2.0,0.0,0.0,-1.0
1.6951614002265544e+18,3.0,-4.0,-6.0,0.0,1.0,-1.0,0.0,1.0
1.6951614002265544e+18,0.0,-1.0,3.0,2.0,0.0,-1.0,-2.0,0.0
1.6951614002436447e+18,1.0,-2.0,-4.0,-1.0,-1.0,0.0,-1.0,1.0
1.6951614002436447e+18,-2.0,-4.0,-3.0,1.0,0.0,1.0,0.0,0.0
1.695161400244621e+18,-1.0,0.0,0.0,-1.0,-1.0,1.0,-1.0,0.0
1.6951614002456192e+18,-1.0,0.0,-2.0,-2.0,0.0,-3.0,-1.0,1.0
1.6951614002456192e+18,-1.0,-4.0,1.0,-1.0,1.0,-2.0,0.0,0.0
1.6951614002456192e+18,2.0,0.0,-3.0,-2.0,-1.0,-3.0,-2.0,-2.0
1.6951614002585157e+18,-2.0,-1.0,1.0,0.0,-1.0,-1.0,-2.0,-2.0
1.6951614002585157e+18,0.0,-3.0,-3.0,0.0,-1.0,-1.0,0.0,0.0
1.6951614002595228e+18,0.0,2.0,-1.0,-3.0,-2.0,-1.0,-2.0,-2.0
1.6951614002595228e+18,-1.0,-2.0,-1.0,2.0,1.0,-1.0,0.0,-1.0
1.6951614002645207e+18,0.0,1.0,1.0,-1.0,0.0,-1.0,1.0,-1.0
1.6951614002655199e+18,-2.0,0.0,0.0,-2.0,-1.0,-1.0,-1.0,0.0
1.6951614002803574e+18,1.0,0.0,2.0,-1.0,-2.0,-1.0,-1.0,-1.0
1.6951614002803574e+18,0.0,-1.0,-15.0,-3.0,-2.0,-1.0,-1.0,0.0
1.695161400321335e+18,-3.0,-4.0,4.0,1.0,0.0,0.0,-1.0,-2.0
1.6951614003223342e+18,-2.0,-2.0,-3.0,-1.0,-2.0,1.0,1.0,-1.0
1.6951614003233334e+18,0.0,0.0,0.0,1.0,0.0,-2.0,-2.0,-1.0
1.6951614003233334e+18,0.0,2.0,2.0,-2.0,-1.0,0.0,-1.0,0.0
1.6951614003263314e+18,0.0,1.0,-2.0,0.0,-3.0,-1.0,0.0,0.0
1.695161400327332e+18,-2.0,-1.0,2.0,-1.0,1.0,-1.0,-1.0,-1.0
1.695161400328331e+18,-1.0,-1.0,1.0,1.0,0.0,-1.0,-1.0,-2.0
1.6951614003293294e+18,0.0,1.0,2.0,-1.0,-1.0,-1.0,-1.0,-2.0
1.695161400343322e+18,0.0,-1.0,-3.0,-3.0,-1.0,-1.0,-2.0,0.0
1.695161400344322e+18,-1.0,-1.0,-1.0,-1.0,0.0,-1.0,-2.0,-2.0
1.6951614003453207e+18,0.0,-1.0,-2.0,-1.0,2.0,0.0,0.0,0.0
1.6951614003453207e+18,-2.0,-2.0,-1.0,2.0,1.0,0.0,0.0,-1.0
1.6951614003543142e+18,-1.0,-1.0,1.0,-2.0,0.0,-1.0,-1.0,0.0
1.6951614003553144e+18,0.0,-2.0,0.0,-1.0,-1.0,-1.0,-1.0,-1.0
1.6951614003553144e+18,-2.0,-1.0,-3.0,-1.0,-1.0,-1.0,-1.0,1.0
1.6951614003563151e+18,-1.0,-1.0,5.0,0.0,-1.0,0.0,-1.0,0.0
1.6951614003862958e+18,1.0,-3.0,-10.0,-1.0,-1.0,-1.0,-2.0,0.0
1.6951614003872957e+18,1.0,2.0,7.0,0.0,-1.0,0.0,-1.0,-1.0
1.6951614003872957e+18,1.0,0.0,-16.0,-4.0,-2.0,0.0,-2.0,-1.0
1.6951614003872957e+18,-2.0,-2.0,5.0,0.0,0.0,-1.0,-1.0,-1.0
1.6951614003902925e+18,-1.0,0.0,2.0,0.0,0.0,0.0,-2.0,-1.0
1.6951614003912937e+18,-1.0,-2.0,-2.0,-1.0,0.0,-1.0,-1.0,-2.0
1.6951614004052856e+18,-1.0,-1.0,2.0,-1.0,0.0,0.0,-2.0,0.0
1.6951614004062876e+18,-1.0,0.0,-3.0,-2.0,0.0,0.0,-1.0,-1.0
1.695161400408288e+18,-2.0,0.0,1.0,-2.0,-1.0,-1.0,1.0,0.0
1.695161400408288e+18,-2.0,-1.0,-2.0,0.0,1.0,-2.0,-2.0,-1.0
1.6951614004462646e+18,-1.0,-1.0,4.0,0.0,0.0,1.0,0.0,-1.0
1.6951614004462646e+18,-1.0,0.0,-4.0,-1.0,-1.0,0.0,-2.0,-1.0
1.695161400447261e+18,0.0,-2.0,3.0,-1.0,0.0,-1.0,0.0,-1.0
1.6951614004482644e+18,-1.0,0.0,-2.0,-2.0,-1.0,-1.0,1.0,-1.0
1.6951614004482644e+18,0.0,-2.0,-2.0,0.0,1.0,0.0,0.0,-2.0
1.6951614004482644e+18,-2.0,-1.0,-1.0,-1.0,-1.0,-1.0,-1.0,-1.0
1.6951614004692485e+18,-1.0,0.0,-1.0,-1.0,-2.0,1.0,0.0,-2.0
1.6951614004702477e+18,-1.0,-1.0,-4.0,0.0,-2.0,0.0,-1.0,0.0
1.6951614004702477e+18,0.0,0.0,1.0,1.0,-1.0,0.0,-1.0,0.0
1.6951614004702477e+18,1.0,1.0,-1.0,-2.0,1.0,-2.0,1.0,0.0
1.6951614004902354e+18,0.0,1.0,1.0,-1.0,1.0,-3.0,-2.0,-1.0
1.695161400491235e+18,-1.0,-1.0,-5.0,0.0,-1.0,0.0,-1.0,1.0
1.695161400491235e+18,-1.0,-1.0,0.0,-1.0,-2.0,-2.0,0.0,-1.0
1.695161400492235e+18,0.0,-1.0,-1.0,-2.0,-2.0,-1.0,-1.0,-1.0
1.695161400498235e+18,-3.0,-1.0,-1.0,-1.0,-2.0,0.0,-1.0,-1.0
1.6951614004992312e+18,-2.0,-1.0,1.0,-3.0,-2.0,0.0,0.0,-1.0
1.6951614004992312e+18,-1.0,-1.0,4.0,0.0,-1.0,-1.0,-2.0,1.0
1.6951614005002304e+18,0.0,-2.0,-14.0,-3.0,-1.0,-1.0,0.0,0.0
1.6951614005112236e+18,-2.0,1.0,3.0,0.0,0.0,0.0,-1.0,0.0
1.6951614005112236e+18,0.0,-1.0,1.0,2.0,1.0,-1.0,-1.0,-2.0
1.6951614005212406e+18,0.0,0.0,-1.0,-1.0,0.0,-1.0,0.0,-2.0
1.695161400527237e+18,-2.0,0.0,0.0,-1.0,-1.0,-1.0,0.0,1.0
1.6951614005282368e+18,-1.0,-1.0,-2.0,-1.0,-2.0,-1.0,-1.0,-1.0
1.6951614005282368e+18,0.0,-1.0,-3.0,-1.0,-2.0,-1.0,0.0,-1.0
1.695161400558206e+18,-1.0,-2.0,-1.0,-3.0,-1.0,0.0,-2.0,-2.0
1.695161400558206e+18,1.0,-1.0,-1.0,1.0,-1.0,1.0,-1.0,-1.0
1.695161400559199e+18,-1.0,0.0,-2.0,0.0,-2.0,-2.0,0.0,0.0
1.695161400559199e+18,-1.0,-1.0,3.0,0.0,-1.0,-1.0,-2.0,2.0
1.6951614005601976e+18,-3.0,-1.0,-3.0,0.0,-1.0,-1.0,0.0,0.0
1.6951614005601976e+18,-1.0,0.0,0.0,-1.0,-2.0,-2.0,-1.0,0.0
1.6951614005641925e+18,0.0,0.0,-1.0,1.0,-1.0,-1.0,0.0,-1.0
1.6951614005651942e+18,-1.0,0.0,-3.0,-2.0,-1.0,-2.0,0.0,-2.0
1.6951614005792067e+18,-1.0,0.0,-1.0,0.0,-1.0,-1.0,-1.0,-1.0
1.6951614005801864e+18,-1.0,-1.0,1.0,1.0,0.0,-3.0,0.0,-1.0
1.6951614005812006e+18,1.0,0.0,0.0,-2.0,0.0,0.0,0.0,-1.0
1.6951614005812006e+18,0.0,-1.0,-2.0,-3.0,1.0,-1.0,-2.0,-1.0
1.6951614006171653e+18,-1.0,1.0,-1.0,-1.0,-1.0,-1.0,0.0,0.0
1.6951614006171653e+18,-1.0,-2.0,2.0,0.0,0.0,0.0,0.0,0.0
1.695161400626158e+18,0.0,-1.0,-1.0,-1.0,0.0,-1.0,-2.0,-2.0
1.695161400626158e+18,0.0,-2.0,-2.0,-1.0,0.0,0.0,0.0,-2.0
1.6951614006271578e+18,-1.0,-2.0,-1.0,-1.0,1.0,0.0,-1.0,-1.0
1.6951614006271578e+18,0.0,2.0,2.0,-1.0,0.0,-1.0,-1.0,-1.0
1.6951614006311547e+18,-2.0,-1.0,-2.0,-1.0,0.0,0.0,-1.0,0.0
1.6951614006311547e+18,-1.0,-1.0,-2.0,1.0,0.0,-1.0,0.0,-1.0
1.6951614006691336e+18,-2.0,-1.0,-1.0,1.0,0.0,0.0,0.0,-2.0
1.6951614006691336e+18,0.0,-1.0,-2.0,0.0,-2.0,-1.0,-2.0,0.0
1.6951614006861228e+18,0.0,-1.0,-1.0,-1.0,-1.0,-2.0,-2.0,1.0
1.6951614006861228e+18,1.0,-1.0,-1.0,-1.0,0.0,-1.0,0.0,0.0
1.6951614006861228e+18,1.0,1.0,-2.0,-1.0,-3.0,-2.0,-1.0,-1.0
1.6951614006871227e+18,-2.0,-2.0,-1.0,0.0,-2.0,2.0,-1.0,-2.0
1.6951614006931187e+18,-2.0,-1.0,-1.0,-1.0,-2.0,0.0,-2.0,-1.0
1.6951614006931187e+18,0.0,-1.0,-3.0,-1.0,0.0,0.0,-2.0,-1.0
1.6951614006931187e+18,0.0,-2.0,-1.0,0.0,0.0,-1.0,-1.0,0.0
1.69516140069412e+18,-1.0,-1.0,-1.0,-1.0,1.0,-1.0,0.0,-1.0
1.6951614007011185e+18,-1.0,0.0,1.0,-1.0,0.0,0.0,0.0,-1.0
1.6951614007021366e+18,-2.0,-1.0,-1.0,-1.0,-1.0,-1.0,0.0,1.0
1.6951614007071124e+18,0.0,-1.0,-1.0,1.0,-2.0,0.0,2.0,0.0
1.6951614007071124e+18,-1.0,0.0,-1.0,-2.0,-1.0,0.0,0.0,-1.0
1.6951614007225958e+18,1.0,-2.0,-1.0,-1.0,-1.0,-1.0,1.0,0.0
1.6951614007225958e+18,-1.0,-1.0,0.0,0.0,-1.0,0.0,-2.0,-2.0
1.6951614007236777e+18,0.0,-1.0,-1.0,-2.0,0.0,-1.0,-1.0,0.0
1.6951614007236777e+18,0.0,-1.0,0.0,1.0,-2.0,0.0,-1.0,0.0
1.695161400735644e+18,0.0,-2.0,-2.0,-1.0,-1.0,0.0,-2.0,-1.0
1.695161400735644e+18,-1.0,-2.0,-1.0,0.0,0.0,0.0,0.0,0.0
1.6951614007447795e+18,-3.0,-1.0,0.0,0.0,-1.0,-1.0,0.0,-2.0
1.6951614007447795e+18,0.0,-1.0,0.0,-2.0,-1.0,1.0,0.0,0.0
1.6951614007596713e+18,0.0,-1.0,0.0,0.0,0.0,-1.0,0.0,-1.0
1.6951614007596713e+18,1.0,0.0,-2.0,-1.0,0.0,-2.0,-2.0,0.0
1.695161400761543e+18,0.0,-3.0,-2.0,0.0,-1.0,-1.0,0.0,-1.0
1.695161400761543e+18,-2.0,-1.0,-1.0,0.0,-1.0,-2.0,-1.0,-2.0
1.6951614007825892e+18,-1.0,-1.0,0.0,0.0,-2.0,-1.0,-1.0,0.0
1.6951614007825892e+18,0.0,0.0,0.0,-1.0,-1.0,0.0,0.0,-1.0
1.6951614007837307e+18,-1.0,-2.0,-2.0,0.0,0.0,-2.0,-2.0,1.0
1.6951614007837307e+18,0.0,-2.0,-1.0,-2.0,-1.0,1.0,1.0,0.0
1.695161400796349e+18,-1.0,-1.0,-1.0,0.0,-1.0,-1.0,-1.0,-1.0
1.6951614007973501e+18,-1.0,-1.0,-1.0,-3.0,0.0,-2.0,0.0,-1.0
1.6951614008053417e+18,-1.0,-1.0,1.0,-1.0,1.0,-2.0,0.0,-2.0
1.6951614008053417e+18,-1.0,0.0,0.0,0.0,0.0,-2.0,-1.0,1.0
1.6951614008353234e+18,0.0,0.0,-1.0,-3.0,-1.0,-2.0,0.0,-2.0
1.6951614008353234e+18,0.0,-1.0,0.0,-1.0,0.0,-3.0,1.0,1.0
1.6951614008363223e+18,0.0,-1.0,-2.0,-1.0,-1.0,0.0,-2.0,-1.0
1.6951614008363223e+18,1.0,-2.0,-1.0,0.0,1.0,-1.0,-2.0,-2.0
1.695161400850315e+18,0.0,1.0,-1.0,-1.0,-1.0,-1.0,0.0,0.0
1.695161400850315e+18,0.0,-2.0,-2.0,-1.0,0.0,0.0,0.0,-1.0
1.6951614008513132e+18,-2.0,1.0,-3.0,-1.0,-2.0,-1.0,1.0,-3.0
1.6951614008513132e+18,-2.0,-1.0,0.0,-2.0,-1.0,-2.0,0.0,0.0
1.6951614008563118e+18,-2.0,0.0,0.0,-1.0,-2.0,-1.0,0.0,-1.0
1.6951614008573102e+18,-2.0,-1.0,0.0,0.0,0.0,0.0,-2.0,-2.0
1.695161400865305e+18,-1.0,1.0,1.0,-1.0,-2.0,-1.0,0.0,0.0
1.695161400865305e+18,0.0,-2.0,-2.0,0.0,-2.0,-2.0,-1.0,-1.0
1.6951614008802972e+18,-1.0,-1.0,-1.0,0.0,1.0,0.0,1.0,0.0
1.6951614008802972e+18,-1.0,0.0,-2.0,-1.0,1.0,-1.0,0.0,-1.0
1.6951614008812964e+18,-1.0,-1.0,-1.0,-1.0,-1.0,0.0,-2.0,-1.0
1.6951614008812964e+18,-1.0,0.0,0.0,-1.0,0.0,-1.0,-1.0,-1.0
1.6951614009102804e+18,0.0,-2.0,-1.0,0.0,1.0,-2.0,-2.0,-1.0
1.6951614009112799e+18,-2.0,0.0,-1.0,-2.0,0.0,0.0,-1.0,-1.0
1.6951614009112799e+18,-1.0,-1.0,-1.0,0.0,0.0,-1.0,-1.0,-1.0
1.6951614009112799e+18,-1.0,-1.0,0.0,-1.0,0.0,1.0,1.0,-2.0
1.6951614009252764e+18,-1.0,-1.0,-1.0,-1.0,0.0,0.0,0.0,0.0
1.6951614009252764e+18,-1.0,0.0,0.0,-1.0,-2.0,0.0,-2.0,-2.0
1.695161400926271e+18,-1.0,-1.0,-1.0,1.0,1.0,-1.0,0.0,0.0
1.695161400926271e+18,-1.0,0.0,0.0,-2.0,-1.0,0.0,-2.0,-2.0
1.6951614009402655e+18,-1.0,-1.0,-1.0,-1.0,0.0,-1.0,-1.0,-3.0
1.6951614009402655e+18,0.0,-1.0,-1.0,-2.0,0.0,0.0,0.0,0.0
1.6951614009412616e+18,0.0,1.0,0.0,-2.0,-2.0,-1.0,1.0,-1.0
1.6951614009412616e+18,0.0,0.0,-1.0,0.0,-1.0,0.0,0.0,0.0
1.69516140096225e+18,0.0,0.0,1.0,0.0,-1.0,1.0,-3.0,-1.0
1.6951614009632502e+18,0.0,-1.0,-1.0,1.0,-2.0,-2.0,-1.0,-1.0
1.6951614009642493e+18,0.0,0.0,-2.0,-2.0,-1.0,-1.0,-1.0,0.0
1.6951614009642493e+18,-1.0,0.0,-3.0,0.0,-1.0,-1.0,-2.0,0.0
1.6951614009782656e+18,-1.0,0.0,-1.0,0.0,0.0,-2.0,1.0,-1.0
1.6951614009792655e+18,1.0,-3.0,-3.0,-2.0,0.0,-1.0,-1.0,-1.0
1.6951614009852372e+18,0.0,0.0,0.0,0.0,2.0,-2.0,-1.0,1.0
1.6951614009852372e+18,-1.0,-1.0,-1.0,-1.0,-1.0,-2.0,-1.0,0.0
1.6951614010002286e+18,0.0,-1.0,0.0,-2.0,-2.0,0.0,0.0,-2.0
1.6951614010002286e+18,-1.0,-1.0,0.0,1.0,-1.0,-2.0,-1.0,-1.0
1.6951614010012357e+18,-2.0,-2.0,0.0,-1.0,1.0,0.0,-2.0,-2.0
1.6951614010012357e+18,-2.0,1.0,0.0,-1.0,1.0,-1.0,1.0,0.0
1.6951614010222157e+18,-3.0,-1.0,-2.0,2.0,0.0,-1.0,-1.0,0.0
1.6951614010232154e+18,-2.0,0.0,-1.0,0.0,-2.0,1.0,-1.0,0.0
1.6951614010242145e+18,1.0,-1.0,-1.0,-1.0,-2.0,0.0,-2.0,-2.0
1.6951614010242145e+18,-1.0,-1.0,0.0,-1.0,-1.0,-1.0,0.0,-1.0
1.6951614010372099e+18,-1.0,0.0,-2.0,-2.0,0.0,-1.0,-2.0,-2.0
1.6951614010452037e+18,-1.0,0.0,-1.0,-2.0,0.0,-2.0,-1.0,0.0
1.6951614010462277e+18,-1.0,-2.0,-2.0,0.0,1.0,-1.0,-1.0,-1.0
1.6951614010462277e+18,0.0,0.0,-1.0,0.0,-1.0,2.0,-1.0,-1.0
1.6951614010601943e+18,-1.0,-2.0,-2.0,0.0,-1.0,1.0,0.0,1.0
1.6951614010601943e+18,0.0,-2.0,0.0,-1.0,-1.0,-1.0,-2.0,-1.0
1.6951614010611932e+18,-1.0,-1.0,0.0,0.0,0.0,-1.0,-1.0,-1.0
1.6951614010611932e+18,0.0,1.0,-1.0,-1.0,-1.0,-2.0,-1.0,0.0
1.695161401090177e+18,0.0,-2.0,-2.0,-2.0,0.0,-1.0,-1.0,-1.0
1.695161401090177e+18,-1.0,-1.0,-2.0,0.0,0.0,-1.0,-1.0,-1.0
1.6951614010911844e+18,1.0,-2.0,-2.0,-1.0,-2.0,2.0,-2.0,-1.0
1.6951614010911844e+18,-1.0,-1.0,-1.0,-2.0,-1.0,0.0,-1.0,0.0
1.6951614010961733e+18,-2.0,0.0,-1.0,-1.0,0.0,-1.0,-3.0,0.0
1.6951614010961733e+18,0.0,-1.0,1.0,-1.0,0.0,0.0,0.0,-2.0
1.695161401112165e+18,-2.0,-1.0,-2.0,-1.0,-1.0,-1.0,0.0,-2.0
1.695161401112165e+18,0.0,-1.0,0.0,1.0,-1.0,-1.0,-1.0,-1.0
1.6951614011191603e+18,1.0,-1.0,-1.0,-2.0,1.0,1.0,0.0,0.0
1.6951614011191603e+18,-2.0,0.0,0.0,0.0,-1.0,-1.0,-1.0,0.0
1.6951614011351519e+18,0.0,-2.0,-1.0,0.0,1.0,-2.0,0.0,0.0
1.6951614011361554e+18,-1.0,-1.0,-1.0,-1.0,-1.0,-3.0,-1.0,-2.0
1.695161401150143e+18,-1.0,-2.0,0.0,-2.0,-1.0,-3.0,-1.0,-1.0
1.695161401150143e+18,0.0,1.0,-2.0,1.0,0.0,0.0,-2.0,-1.0
1.6951614011511424e+18,-1.0,0.0,0.0,0.0,-1.0,0.0,1.0,-1.0
1.6951614011511424e+18,-2.0,-1.0,-1.0,0.0,-1.0,-1.0,-2.0,0.0
1.695161401156139e+18,0.0,0.0,0.0,1.0,0.0,0.0,0.0,0.0
1.695161401156139e+18,0.0,-1.0,0.0,0.0,-1.0,-1.0,-1.0,0.0
1.6951614011651343e+18,2.0,1.0,-1.0,-2.0,-2.0,-3.0,0.0,-3.0
1.6951614011651343e+18,-1.0,-1.0,-1.0,-1.0,1.0,-2.0,0.0,0.0
1.6951614011871206e+18,0.0,0.0,1.0,-2.0,-1.0,-3.0,-1.0,-2.0
1.6951614011871206e+18,-2.0,-1.0,-1.0,-2.0,0.0,0.0,0.0,0.0
1.6951614011901202e+18,1.0,-1.0,0.0,-2.0,-1.0,0.0,-1.0,-1.0
1.6951614011901202e+18,-1.0,-2.0,-2.0,1.0,-1.0,0.0,-1.0,0.0
1.695161401202116e+18,-2.0,-1.0,0.0,0.0,0.0,-2.0,0.0,-1.0
1.6951614012031124e+18,-1.0,-1.0,-1.0,-1.0,-1.0,0.0,0.0,-1.0
1.6951614012041124e+18,-2.0,-2.0,-1.0,0.0,0.0,-1.0,-1.0,1.0
1.6951614012041124e+18,1.0,-2.0,0.0,-1.0,0.0,0.0,0.0,-1.0
1.6951614012171041e+18,-1.0,0.0,-1.0,0.0,-2.0,1.0,-2.0,-1.0
1.6951614012171041e+18,-2.0,-1.0,-1.0,-1.0,-2.0,-2.0,0.0,-1.0
1.6951614012250993e+18,-2.0,0.0,0.0,-1.0,0.0,1.0,-1.0,0.0
1.6951614012260992e+18,0.0,0.0,-2.0,-2.0,2.0,0.0,0.0,-1.0
1.6951614012521085e+18,0.0,0.0,-2.0,1.0,0.0,-2.0,0.0,0.0
1.6951614012540833e+18,-1.0,0.0,0.0,-1.0,-1.0,-3.0,-2.0,-2.0
1.695161401264077e+18,0.0,-1.0,-1.0,0.0,-1.0,-2.0,1.0,-1.0
1.695161401265076e+18,-2.0,0.0,-2.0,-2.0,-1.0,-1.0,0.0,0.0
1.695161401265076e+18,1.0,1.0,1.0,-2.0,-2.0,1.0,-1.0,-1.0
1.6951614012660767e+18,2.0,-1.0,1.0,0.0,-1.0,1.0,2.0,-1.0
1.6951614012681004e+18,0.0,-1.0,0.0,0.0,-1.0,-1.0,-1.0,-1.0
1.6951614012690747e+18,0.0,1.0,0.0,0.0,-1.0,0.0,-1.0,0.0
1.6951614012760707e+18,0.0,-1.0,0.0,-1.0,1.0,0.0,0.0,0.0
1.6951614012760707e+18,-2.0,-1.0,-1.0,-1.0,-2.0,-1.0,-1.0,1.0
1.695161401301059e+18,-1.0,-1.0,0.0,0.0,0.0,-1.0,-1.0,0.0
1.695161401301059e+18,0.0,0.0,0.0,-1.0,-1.0,-1.0,-1.0,0.0
1.6951614013020588e+18,-1.0,-2.0,-1.0,-3.0,-1.0,-1.0,-1.0,-2.0
1.6951614013020588e+18,0.0,-1.0,0.0,0.0,1.0,-1.0,-1.0,0.0
1.6951614013190513e+18,-2.0,-1.0,-2.0,0.0,1.0,0.0,-1.0,0.0
1.6951614013200502e+18,-1.0,0.0,1.0,0.0,-1.0,0.0,0.0,-1.0
1.6951614013300434e+18,0.0,-1.0,0.0,-1.0,-2.0,-2.0,0.0,0.0
1.6951614013300434e+18,0.0,0.0,-3.0,-1.0,-1.0,0.0,0.0,0.0
1.6951614013360402e+18,1.0,1.0,-1.0,-1.0,-1.0,-1.0,0.0,0.0
1.6951614013360402e+18,-1.0,-1.0,0.0,0.0,-1.0,-1.0,0.0,-1.0
1.6951614013520307e+18,-1.0,-1.0,-2.0,-1.0,0.0,0.0,-1.0,-2.0
1.6951614013530258e+18,-1.0,-1.0,1.0,-1.0,-2.0,-1.0,1.0,1.0
1.6951614013540262e+18,-1.0,-3.0,-1.0,-1.0,-2.0,-2.0,-2.0,-2.0
1.6951614013540262e+18,0.0,-1.0,-2.0,-2.0,0.0,0.0,-1.0,-2.0
1.6951614013590226e+18,1.0,-1.0,-1.0,0.0,-1.0,-2.0,1.0,0.0
1.6951614013590226e+18,0.0,0.0,-1.0,-3.0,-1.0,-2.0,-2.0,-1.0
1.6951614013860083e+18,-1.0,-2.0,-1.0,0.0,-2.0,0.0,0.0,-1.0
1.6951614013880312e+18,-1.0,1.0,0.0,-1.0,-1.0,-2.0,-1.0,1.0
1.6951614013910047e+18,-1.0,0.0,0.0,1.0,3.0,0.0,1.0,2.0
1.6951614013910047e+18,0.0,-2.0,-1.0,-5.0,-2.0,-4.0,-4.0,-2.0
1.6951614013920049e+18,-1.0,-2.0,0.0,-3.0,-2.0,0.0,-3.0,-2.0
1.6951614013920049e+18,-2.0,-2.0,-1.0,-3.0,-4.0,-5.0,-4.0,-5.0
1.6951614014120172e+18,1.0,0.0,-4.0,0.0,-8.0,-6.0,0.0,0.0
1.6951614014129915e+18,0.0,0.0,3.0,15.0,10.0,5.0,5.0,-1.0
1.6951614014139924e+18,2.0,4.0,1.0,-4.0,7.0,10.0,9.0,18.0
1.6951614014139924e+18,-3.0,-5.0,0.0,-4.0,5.0,6.0,-4.0,-36.0
1.695161401427983e+18,-5.0,7.0,-2.0,1.0,-5.0,1.0,-11.0,0.0
1.695161401427983e+18,0.0,-7.0,-1.0,-7.0,-4.0,0.0,4.0,6.0
1.695161401428983e+18,0.0,-2.0,-10.0,-7.0,-1.0,-11.0,0.0,-2.0
1.695161401428983e+18,-4.0,-11.0,0.0,2.0,-1.0,-3.0,2.0,-5.0
1.6951614014419786e+18,13.0,6.0,1.0,0.0,-2.0,-10.0,1.0,1.0
1.6951614014429742e+18,-20.0,-9.0,-8.0,-8.0,-6.0,6.0,2.0,-4.0
1.6951614014439752e+18,-15.0,7.0,1.0,2.0,-11.0,-19.0,-30.0,-15.0
1.6951614014439752e+18,-33.0,-13.0,-2.0,-6.0,-12.0,-5.0,-4.0,16.0
1.6951614014649636e+18,11.0,24.0,1.0,-4.0,1.0,-6.0,52.0,-16.0
1.695161401465963e+18,-7.0,-40.0,-3.0,2.0,-15.0,13.0,-7.0,30.0
1.6951614014669627e+18,23.0,6.0,5.0,6.0,28.0,44.0,83.0,46.0
1.6951614014669627e+18,9.0,-12.0,1.0,17.0,32.0,5.0,-66.0,-102.0
1.69516140147798e+18,-46.0,22.0,3.0,3.0,17.0,2.0,3.0,46.0
1.6951614014789599e+18,32.0,29.0,2.0,0.0,-4.0,-35.0,-77.0,-23.0
1.69516140148697e+18,-16.0,18.0,-8.0,-10.0,-23.0,-17.0,-27.0,59.0
1.6951614014879534e+18,15.0,-33.0,-6.0,-4.0,-18.0,25.0,61.0,42.0
1.695161401508942e+18,23.0,-9.0,-13.0,-17.0,-15.0,-16.0,-70.0,16.0
1.695161401508942e+18,3.0,12.0,1.0,5.0,4.0,-7.0,31.0,-7.0
1.695161401528926e+18,-69.0,-14.0,6.0,2.0,-5.0,-30.0,-115.0,-75.0
1.695161401528926e+18,20.0,41.0,7.0,0.0,5.0,16.0,76.0,60.0
1.6951614015299264e+18,-17.0,-73.0,-22.0,-7.0,1.0,17.0,48.0,-106.0
1.6951614015299264e+18,-29.0,26.0,6.0,-6.0,-7.0,-13.0,-10.0,110.0
1.6951614015299264e+18,32.0,6.0,-5.0,8.0,-1.0,-4.0,-17.0,-69.0
1.6951614015299264e+18,10.0,19.0,7.0,6.0,4.0,-10.0,10.0,38.0
1.6951614015389202e+18,3.0,-22.0,-6.0,-6.0,-4.0,22.0,2.0,-7.0
1.6951614015389202e+18,-16.0,-7.0,-4.0,-4.0,4.0,18.0,72.0,-48.0
1.6951614015549107e+18,38.0,10.0,2.0,1.0,2.0,-5.0,-6.0,11.0
1.6951614015549107e+18,9.0,-10.0,-7.0,-9.0,-8.0,-26.0,-44.0,7.0
1.695161401576915e+18,4.0,5.0,3.0,7.0,-1.0,-6.0,-38.0,17.0
1.695161401576915e+18,-20.0,-24.0,-2.0,2.0,3.0,-10.0,9.0,-89.0
1.695161401578897e+18,70.0,18.0,6.0,3.0,6.0,27.0,38.0,76.0
1.695161401578897e+18,-25.0,-5.0,-14.0,-9.0,-5.0,0.0,-28.0,-44.0
1.695161401589891e+18,-15.0,17.0,12.0,-2.0,-3.0,-11.0,26.0,22.0
1.6951614015908897e+18,-14.0,-14.0,-8.0,-1.0,-4.0,-20.0,-98.0,-33.0
1.6951614015908897e+18,-49.0,-28.0,-12.0,-12.0,-2.0,21.0,47.0,-53.0
1.6951614015908897e+18,4.0,-6.0,-1.0,-5.0,-13.0,-15.0,-24.0,36.0
1.695161401597907e+18,-39.0,-1.0,2.0,-7.0,3.0,13.0,-15.0,-62.0
1.695161401598885e+18,85.0,9.0,1.0,13.0,1.0,-10.0,25.0,45.0
1.695161401606882e+18,22.0,-7.0,-1.0,1.0,1.0,-7.0,27.0,79.0
1.6951614016078797e+18,63.0,23.0,0.0,3.0,11.0,14.0,41.0,100.0
1.6951614016448806e+18,-63.0,-31.0,1.0,6.0,0.0,-19.0,-44.0,-15.0
1.6951614016448806e+18,-13.0,4.0,-2.0,-2.0,-3.0,4.0,10.0,-1.0
1.6951614016588503e+18,-12.0,-4.0,-10.0,-21.0,-12.0,-14.0,-6.0,-101.0
1.6951614016598525e+18,-28.0,-23.0,0.0,-2.0,-16.0,-25.0,-16.0,10.0
1.6951614016598525e+18,19.0,28.0,8.0,11.0,7.0,4.0,-4.0,23.0
1.6951614016608515e+18,17.0,8.0,6.0,4.0,12.0,24.0,32.0,3.0
1.6951614016688443e+18,-27.0,-17.0,-11.0,2.0,0.0,-12.0,-39.0,-70.0
1.695161401669844e+18,-2.0,15.0,1.0,-12.0,-9.0,-12.0,-15.0,-27.0
1.695161401669844e+18,-21.0,19.0,6.0,0.0,-4.0,-8.0,-47.0,6.0
1.695161401669844e+18,-30.0,-11.0,-3.0,-3.0,2.0,19.0,33.0,35.0
1.6951614016898547e+18,-53.0,-12.0,7.0,5.0,1.0,-5.0,35.0,25.0
1.695161401690832e+18,31.0,1.0,-1.0,9.0,3.0,3.0,18.0,-33.0
1.695161401690832e+18,2.0,-2.0,0.0,3.0,4.0,12.0,-6.0,-44.0
1.695161401690832e+18,-21.0,15.0,0.0,-17.0,0.0,5.0,5.0,15.0
1.6951614016928312e+18,-14.0,-3.0,7.0,1.0,-3.0,23.0,38.0,-39.0
1.6951614016928312e+18,22.0,-8.0,5.0,10.0,3.0,-3.0,-40.0,66.0
1.6951614017198372e+18,12.0,0.0,-18.0,0.0,5.0,12.0,67.0,-46.0
1.6951614017198372e+18,36.0,-5.0,4.0,3.0,1.0,2.0,-25.0,47.0
1.6951614017218363e+18,32.0,3.0,3.0,-6.0,-3.0,-2.0,-44.0,42.0
1.6951614017218363e+18,-26.0,20.0,3.0,2.0,0.0,-9.0,-68.0,-77.0
1.6951614017228137e+18,40.0,18.0,4.0,-8.0,-4.0,-3.0,22.0,27.0
1.6951614017228137e+18,-19.0,-13.0,-7.0,-7.0,0.0,9.0,25.0,-60.0
1.6951614017438042e+18,6.0,8.0,2.0,5.0,0.0,-13.0,-34.0,1.0
1.6951614017448023e+18,-61.0,-18.0,-13.0,-1.0,-3.0,9.0,35.0,-55.0
1.6951614017448023e+18,-4.0,5.0,-5.0,-5.0,3.0,-1.0,13.0,52.0
1.6951614017448023e+18,4.0,-3.0,2.0,-1.0,-1.0,-7.0,-32.0,-16.0
1.6951614017653217e+18,-5.0,7.0,9.0,6.0,2.0,1.0,26.0,-10.0
1.6951614017653217e+18,9.0,0.0,2.0,4.0,-3.0,-10.0,-26.0,-38.0
1.6951614017663268e+18,12.0,-21.0,-22.0,-25.0,-13.0,-8.0,19.0,43.0
1.6951614017663268e+18,-22.0,6.0,5.0,5.0,0.0,-3.0,-24.0,-29.0
1.6951614017683254e+18,11.0,13.0,-5.0,-5.0,-3.0,-7.0,-9.0,26.0
1.6951614017683254e+18,-10.0,4.0,3.0,-7.0,6.0,5.0,26.0,-47.0
1.6951614017786148e+18,30.0,2.0,8.0,3.0,-7.0,4.0,1.0,44.0
1.6951614017786148e+18,27.0,-3.0,-5.0,0.0,3.0,-9.0,-55.0,19.0
1.6951614018205084e+18,-11.0,4.0,-18.0,-5.0,2.0,12.0,-4.0,-29.0
1.6951614018205084e+18,-46.0,-5.0,25.0,7.0,11.0,23.0,58.0,-34.0
1.695161401821508e+18,-2.0,-3.0,4.0,-1.0,-11.0,-17.0,-22.0,6.0
1.695161401821508e+18,-13.0,-20.0,-8.0,0.0,-4.0,-8.0,10.0,-79.0
1.6951614018494917e+18,34.0,16.0,-5.0,8.0,4.0,31.0,51.0,58.0
1.695161401850499e+18,10.0,-5.0,4.0,-4.0,1.0,4.0,3.0,21.0
1.6951614018514967e+18,25.0,10.0,-2.0,9.0,7.0,12.0,8.0,-4.0
1.6951614018514967e+18,4.0,8.0,15.0,-12.0,3.0,12.0,-12.0,-21.0
1.6951614018514967e+18,-22.0,-19.0,-36.0,-19.0,-22.0,-43.0,-11.0,-10.0
1.69516140185249e+18,1.0,-8.0,-5.0,-5.0,0.0,3.0,-5.0,63.0
1.695161401858489e+18,-45.0,-15.0,4.0,6.0,-6.0,-8.0,26.0,3.0
1.6951614018594875e+18,-10.0,11.0,-4.0,10.0,1.0,-24.0,-57.0,-4.0
1.6951614018594875e+18,-40.0,-21.0,-1.0,-5.0,8.0,-1.0,-12.0,-21.0
1.6951614018604856e+18,-8.0,-1.0,7.0,2.0,8.0,12.0,49.0,-51.0
1.6951614018714793e+18,29.0,17.0,-12.0,-7.0,-12.0,-50.0,-102.0,-8.0
1.6951614018714793e+18,-36.0,-39.0,-5.0,-18.0,-16.0,-10.0,73.0,-36.0
1.695161401872479e+18,19.0,14.0,7.0,-2.0,-5.0,-9.0,18.0,54.0
1.6951614018734776e+18,2.0,0.0,-3.0,10.0,8.0,-4.0,-20.0,50.0
1.6951614018854697e+18,18.0,-12.0,0.0,9.0,-2.0,-3.0,-16.0,-46.0
1.6951614018864714e+18,-11.0,-4.0,-17.0,-25.0,1.0,19.0,37.0,-19.0
1.6951614018874719e+18,16.0,-6.0,35.0,1.0,-17.0,-32.0,-57.0,-11.0
1.6951614018874719e+18,-25.0,-9.0,-30.0,-3.0,-5.0,-23.0,-25.0,-26.0
1.6951614019504343e+18,-30.0,3.0,8.0,23.0,8.0,6.0,17.0,42.0
1.6951614019504343e+18,45.0,22.0,6.0,11.0,23.0,49.0,24.0,42.0
1.6951614019504343e+18,2.0,-11.0,-22.0,-2.0,8.0,21.0,5.0,-5.0
1.6951614019514368e+18,16.0,17.0,-6.0,-17.0,-19.0,-30.0,-11.0,12.0
1.6951614019514368e+18,38.0,10.0,10.0,-1.0,-7.0,3.0,-9.0,4.0
1.6951614019524357e+18,61.0,-24.0,4.0,21.0,5.0,26.0,26.0,55.0
1.6951614019524357e+18,-2.0,2.0,4.0,-10.0,2.0,7.0,-1.0,13.0
1.6951614019534305e+18,-8.0,6.0,13.0,-4.0,-10.0,-1.0,-14.0,-1.0
1.695161401986411e+18,-3.0,-1.0,-5.0,6.0,10.0,16.0,49.0,-9.0
1.695161401986411e+18,20.0,21.0,4.0,2.0,1.0,-7.0,-55.0,12.0
1.695161401986411e+18,-27.0,-6.0,4.0,2.0,0.0,-17.0,-7.0,-47.0
1.695161401986411e+18,4.0,-14.0,-12.0,-9.0,-4.0,4.0,12.0,14.0
1.695161401986411e+18,17.0,3.0,13.0,-2.0,3.0,34.0,27.0,-30.0
1.6951614019874115e+18,-83.0,-25.0,-11.0,-6.0,-12.0,-38.0,-48.0,51.0
1.6951614020163948e+18,60.0,-6.0,-2.0,14.0,13.0,11.0,-19.0,12.0
1.6951614020163948e+18,42.0,3.0,-7.0,1.0,-5.0,-12.0,2.0,-11.0
1.6951614020173937e+18,52.0,6.0,1.0,-8.0,-4.0,-11.0,-28.0,-20.0
1.6951614020183936e+18,-75.0,2.0,9.0,7.0,-11.0,-11.0,16.0,5.0
1.6951614020183936e+18,5.0,21.0,9.0,-8.0,-4.0,0.0,10.0,-8.0
1.6951614020183936e+18,16.0,-14.0,6.0,32.0,18.0,-3.0,12.0,-13.0
1.6951614020183936e+18,-8.0,3.0,1.0,6.0,7.0,8.0,6.0,-2.0
1.6951614020183936e+18,-9.0,-4.0,2.0,-24.0,-28.0,2.0,2.0,9.0
1.6951614020373824e+18,-35.0,-15.0,3.0,0.0,19.0,1.0,-1.0,0.0
1.6951614020383844e+18,17.0,40.0,5.0,-22.0,-32.0,-10.0,-14.0,-16.0
1.6951614020433797e+18,-12.0,-11.0,7.0,32.0,26.0,10.0,3.0,5.0
1.6951614020433797e+18,14.0,21.0,-11.0,5.0,3.0,-1.0,-2.0,-4.0
1.6951614020443776e+18,-14.0,-48.0,6.0,-14.0,-15.0,-8.0,-6.0,9.0
1.6951614020443776e+18,18.0,-6.0,-9.0,-8.0,0.0,-1.0,16.0,-4.0
1.695161402059369e+18,-3.0,0.0,4.0,-5.0,-13.0,-1.0,3.0,-9.0
1.695161402059369e+18,-3.0,9.0,4.0,1.0,-10.0,-5.0,-2.0,7.0
1.6951614020713623e+18,-33.0,-17.0,1.0,2.0,10.0,8.0,11.0,9.0
1.6951614020713623e+18,11.0,37.0,-1.0,-8.0,-8.0,3.0,23.0,-40.0
1.6951614020803564e+18,18.0,2.0,9.0,10.0,0.0,-7.0,-11.0,78.0
1.6951614020803564e+18,-23.0,-6.0,5.0,7.0,13.0,12.0,8.0,-20.0
1.695161402094372e+18,16.0,-48.0,26.0,15.0,10.0,0.0,-8.0,11.0
1.695161402095351e+18,27.0,4.0,-3.0,6.0,5.0,6.0,19.0,-22.0
1.6951614020963502e+18,-17.0,5.0,-3.0,-5.0,-6.0,-3.0,-5.0,-26.0
1.6951614020963502e+18,11.0,-12.0,1.0,-1.0,4.0,0.0,-2.0,19.0
1.6951614021093394e+18,8.0,26.0,-15.0,-2.0,-6.0,0.0,9.0,6.0
1.6951614021103406e+18,-14.0,-10.0,-3.0,-4.0,-3.0,-5.0,-9.0,5.0
1.6951614021113398e+18,8.0,-3.0,-2.0,-7.0,3.0,6.0,0.0,-16.0
1.6951614021113398e+18,-2.0,7.0,-6.0,2.0,1.0,-4.0,-7.0,4.0
1.6951614021323274e+18,-9.0,6.0,-12.0,-2.0,-6.0,-4.0,-4.0,-17.0
1.6951614021323274e+18,-5.0,-1.0,4.0,-1.0,4.0,-4.0,-4.0,13.0
1.6951614021333263e+18,-9.0,7.0,1.0,-6.0,-8.0,-5.0,-9.0,-8.0
1.6951614021343286e+18,-2.0,-1.0,6.0,7.0,5.0,4.0,11.0,-2.0
1.695161402163311e+18,5.0,17.0,-18.0,-5.0,-3.0,-7.0,-11.0,0.0
1.695161402163311e+18,-1.0,-13.0,0.0,-1.0,3.0,-1.0,0.0,44.0
1.6951614021653084e+18,2.0,1.0,-1.0,-1.0,-2.0,-2.0,-16.0,-7.0
1.6951614021653084e+18,-6.0,-9.0,1.0,2.0,0.0,4.0,8.0,-5.0
1.6951614021663086e+18,-18.0,2.0,-5.0,-2.0,-2.0,-3.0,-4.0,2.0
1.6951614021663086e+18,-4.0,-1.0,-2.0,-1.0,-2.0,-4.0,-9.0,7.0
1.695161402169306e+18,4.0,0.0,-2.0,-3.0,-4.0,-2.0,6.0,-13.0
1.695161402170305e+18,-31.0,-6.0,-7.0,-2.0,2.0,2.0,-3.0,-4.0
