timestamp,EMG_s0,EMG_s1,EMG_s2,EMG_s3,EMG_s4,EMG_s5,EMG_s6,EMG_s7
1.6951617553615908e+18,2.0,0.0,1.0,-1.0,0.0,0.0,1.0,0.0
1.6951617553625905e+18,3.0,0.0,-1.0,-1.0,0.0,0.0,0.0,-1.0
1.6951617553625905e+18,-1.0,-2.0,-1.0,0.0,-1.0,-2.0,-1.0,1.0
1.6951617553625905e+18,0.0,-1.0,0.0,1.0,-1.0,-2.0,0.0,-2.0
1.6951617553625905e+18,-1.0,-1.0,1.0,-1.0,0.0,-1.0,0.0,-1.0
1.695161755363593e+18,-1.0,-1.0,-2.0,-2.0,-2.0,0.0,1.0,0.0
1.695161755363593e+18,0.0,0.0,0.0,0.0,-1.0,-1.0,-1.0,-2.0
1.695161755363593e+18,1.0,1.0,-1.0,-5.0,-1.0,2.0,1.0,0.0
1.695161755368609e+18,0.0,0.0,-1.0,1.0,-2.0,-1.0,-1.0,1.0
1.695161755368609e+18,-2.0,-2.0,-1.0,0.0,-3.0,0.0,-2.0,0.0
1.6951617553745815e+18,-1.0,1.0,0.0,-1.0,-1.0,0.0,0.0,-2.0
1.6951617553745815e+18,-3.0,-1.0,-2.0,-1.0,-1.0,1.0,-2.0,1.0
1.6951617553835773e+18,0.0,-1.0,-2.0,0.0,-1.0,-1.0,1.0,-1.0
1.6951617553835773e+18,-2.0,0.0,0.0,-1.0,0.0,-1.0,0.0,0.0
1.695161755398574e+18,-1.0,0.0,-1.0,-1.0,1.0,-1.0,-1.0,0.0
1.695161755398574e+18,1.0,-1.0,-1.0,0.0,-2.0,-1.0,0.0,0.0
1.6951617554065633e+18,-1.0,1.0,0.0,-1.0,1.0,3.0,0.0,1.0
1.6951617554065633e+18,-1.0,-1.0,0.0,1.0,-1.0,-2.0,0.0,0.0
1.6951617554215565e+18,-2.0,-2.0,-2.0,-1.0,0.0,0.0,0.0,-2.0
1.6951617554215565e+18,-1.0,-1.0,0.0,-1.0,-1.0,-1.0,-1.0,-1.0
1.6951617554345498e+18,-1.0,-1.0,-1.0,1.0,-1.0,-1.0,-2.0,0.0
1.6951617554345498e+18,-1.0,-1.0,0.0,-2.0,-1.0,-1.0,-1.0,-1.0
1.6951617554425457e+18,2.0,0.0,-1.0,-1.0,-1.0,-1.0,0.0,-2.0
1.6951617554425457e+18,-3.0,-1.0,-1.0,0.0,0.0,-3.0,1.0,-1.0
1.695161755443544e+18,-2.0,0.0,0.0,0.0,-2.0,-1.0,0.0,0.0
1.695161755443544e+18,-1.0,1.0,-2.0,1.0,-2.0,0.0,-1.0,0.0
1.6951617554685279e+18,0.0,-2.0,-2.0,-2.0,-2.0,0.0,0.0,0.0
1.6951617554725284e+18,0.0,-2.0,-1.0,-1.0,0.0,0.0,-2.0,-1.0
1.695161755520498e+18,-3.0,-3.0,-2.0,-1.0,-1.0,-2.0,0.0,-1.0
1.6951617555215012e+18,-3.0,-1.0,-1.0,0.0,0.0,-1.0,-1.0,-2.0
1.6951617555215012e+18,-2.0,-3.0,-1.0,-1.0,-1.0,-1.0,-1.0,-2.0
1.6951617555215012e+18,-1.0,-3.0,-3.0,-1.0,0.0,1.0,-3.0,-1.0
1.69516175553449e+18,-2.0,0.0,0.0,1.0,0.0,-1.0,0.0,0.0
1.69516175553449e+18,-1.0,-2.0,-2.0,1.0,-1.0,0.0,1.0,-1.0
1.6951617555354895e+18,-3.0,-2.0,-3.0,-3.0,-3.0,-2.0,-2.0,0.0
1.6951617555354895e+18,-1.0,-1.0,-2.0,0.0,-2.0,-2.0,-1.0,-3.0
1.695161755536489e+18,-1.0,-1.0,-2.0,1.0,-1.0,-1.0,-1.0,-2.0
1.695161755536489e+18,-1.0,-1.0,0.0,-3.0,-1.0,-1.0,0.0,-1.0
1.6951617555404915e+18,-2.0,-2.0,-3.0,-2.0,-2.0,-1.0,-2.0,-3.0
1.6951617555404915e+18,-1.0,0.0,-1.0,-1.0,0.0,-3.0,0.0,-1.0
1.695161755553481e+18,-1.0,-1.0,1.0,0.0,1.0,-1.0,-1.0,-1.0
1.695161755553481e+18,-2.0,-1.0,-2.0,0.0,0.0,-1.0,-1.0,0.0
1.695161755569494e+18,2.0,-2.0,-1.0,-1.0,-2.0,-1.0,-2.0,-2.0
1.69516175557047e+18,-1.0,0.0,0.0,-2.0,-1.0,-1.0,-2.0,-1.0
1.69516175557047e+18,-2.0,0.0,-2.0,-1.0,-2.0,1.0,-1.0,0.0
1.69516175557047e+18,-1.0,-1.0,-2.0,0.0,-1.0,0.0,0.0,1.0
1.6951617555954568e+18,1.0,1.0,-1.0,-1.0,1.0,0.0,-1.0,0.0
1.6951617555954568e+18,0.0,0.0,0.0,-2.0,0.0,0.0,-1.0,-1.0
1.6951617555954568e+18,0.0,-1.0,0.0,0.0,-1.0,-2.0,0.0,-2.0
1.6951617555964585e+18,-4.0,-1.0,0.0,-1.0,-1.0,-2.0,-1.0,-1.0
1.695161755599453e+18,0.0,-1.0,-1.0,1.0,-1.0,0.0,0.0,-1.0
1.695161755599453e+18,1.0,-2.0,-1.0,-1.0,-2.0,0.0,-2.0,-2.0
1.695161755632435e+18,0.0,-1.0,-2.0,0.0,2.0,0.0,0.0,1.0
1.695161755632435e+18,-1.0,0.0,-1.0,-1.0,-1.0,-2.0,2.0,1.0
1.6951617556464282e+18,-1.0,-1.0,-1.0,-2.0,1.0,0.0,1.0,0.0
1.6951617556474286e+18,-1.0,1.0,1.0,0.0,2.0,-1.0,0.0,0.0
1.6951617556474286e+18,3.0,3.0,2.0,0.0,1.0,0.0,-1.0,-1.0
1.6951617556474286e+18,1.0,1.0,2.0,0.0,1.0,1.0,0.0,-1.0
1.6951617556484332e+18,0.0,1.0,0.0,0.0,1.0,1.0,-1.0,1.0
1.6951617556484332e+18,-1.0,-2.0,-2.0,-1.0,0.0,-1.0,-1.0,-2.0
1.6951617556534228e+18,-1.0,-3.0,1.0,0.0,0.0,-1.0,1.0,0.0
1.6951617556534228e+18,3.0,-1.0,-1.0,-1.0,-1.0,-2.0,-2.0,1.0
1.695161755654423e+18,-2.0,1.0,0.0,-1.0,-1.0,-1.0,0.0,0.0
1.695161755654423e+18,0.0,-3.0,-1.0,-1.0,-1.0,1.0,0.0,1.0
1.6951617556834084e+18,-2.0,0.0,1.0,0.0,-1.0,-1.0,-1.0,1.0
1.695161755684405e+18,0.0,-1.0,1.0,-1.0,-1.0,-1.0,-2.0,-3.0
1.695161755684405e+18,0.0,-1.0,1.0,0.0,0.0,0.0,-1.0,-1.0
1.695161755684405e+18,0.0,0.0,0.0,-1.0,0.0,0.0,1.0,0.0
1.6951617556924004e+18,2.0,-2.0,-2.0,-3.0,0.0,0.0,-1.0,-2.0
1.6951617556924004e+18,-1.0,-1.0,0.0,-1.0,-1.0,1.0,-1.0,-1.0
1.695161755698396e+18,-2.0,0.0,0.0,0.0,-3.0,-1.0,-2.0,1.0
1.695161755698396e+18,-1.0,0.0,1.0,0.0,-1.0,-2.0,0.0,-1.0
1.6951617557133878e+18,0.0,0.0,0.0,0.0,-2.0,0.0,1.0,0.0
1.6951617557133878e+18,-1.0,0.0,-2.0,-2.0,1.0,1.0,-1.0,0.0
1.6951617557143898e+18,0.0,-1.0,1.0,-2.0,-1.0,0.0,0.0,-2.0
1.6951617557143898e+18,-1.0,0.0,0.0,0.0,1.0,1.0,1.0,-1.0
1.6951617557353764e+18,-1.0,-1.0,0.0,-1.0,0.0,1.0,-2.0,0.0
1.6951617557363817e+18,0.0,-1.0,1.0,-1.0,0.0,0.0,0.0,0.0
1.6951617557373755e+18,0.0,-1.0,1.0,-2.0,-1.0,-1.0,0.0,0.0
1.6951617557373755e+18,-1.0,1.0,-2.0,-1.0,-2.0,-1.0,0.0,1.0
1.6951617557583616e+18,-1.0,0.0,-2.0,0.0,0.0,-1.0,0.0,-1.0
1.6951617557583616e+18,-1.0,1.0,-1.0,-1.0,-1.0,-2.0,-1.0,-1.0
1.6951617557593628e+18,0.0,-2.0,-3.0,-1.0,-1.0,-1.0,-1.0,1.0
1.6951617557593628e+18,-1.0,-1.0,0.0,1.0,-1.0,0.0,0.0,0.0
1.695161755773353e+18,0.0,-2.0,-2.0,0.0,-2.0,-1.0,-3.0,0.0
1.695161755773353e+18,0.0,-1.0,-1.0,2.0,-2.0,0.0,-2.0,0.0
1.695161755774353e+18,1.0,-1.0,0.0,0.0,0.0,-1.0,0.0,-2.0
1.695161755774353e+18,-1.0,-1.0,-1.0,-3.0,-2.0,1.0,-1.0,-1.0
1.6951617557953436e+18,-1.0,-1.0,0.0,-3.0,-3.0,-2.0,-1.0,-1.0
1.6951617557953436e+18,-1.0,0.0,-1.0,-1.0,0.0,-1.0,-1.0,1.0
1.6951617557973632e+18,-2.0,1.0,0.0,0.0,1.0,0.0,0.0,-2.0
1.6951617557973632e+18,0.0,0.0,-2.0,0.0,-1.0,-1.0,-2.0,0.0
1.695161755809333e+18,-2.0,0.0,-1.0,-1.0,1.0,-1.0,-1.0,-2.0
1.695161755809333e+18,-2.0,-1.0,0.0,0.0,-1.0,-1.0,0.0,-1.0
1.6951617558243261e+18,1.0,0.0,-2.0,0.0,1.0,-1.0,-1.0,-1.0
1.6951617558243261e+18,1.0,-1.0,-1.0,0.0,0.0,0.0,1.0,0.0
1.6951617558353193e+18,-2.0,0.0,-2.0,-2.0,-2.0,0.0,-1.0,-1.0
1.695161755836321e+18,-1.0,-1.0,0.0,2.0,-4.0,-3.0,-1.0,-2.0
1.695161755836321e+18,-1.0,-1.0,0.0,-3.0,-3.0,-3.0,-3.0,-2.0
1.695161755836321e+18,0.0,-3.0,-1.0,-2.0,-1.0,-2.0,0.0,-3.0
1.695161755863304e+18,0.0,0.0,-1.0,2.0,1.0,-2.0,-2.0,-1.0
1.6951617558643026e+18,-2.0,-4.0,-6.0,-6.0,-2.0,-1.0,0.0,0.0
1.6951617558702976e+18,-3.0,-1.0,-3.0,-2.0,-3.0,0.0,-1.0,-1.0
1.6951617558702976e+18,-2.0,0.0,0.0,0.0,-2.0,-1.0,-1.0,-2.0
1.6951617558702976e+18,-2.0,1.0,-1.0,-2.0,0.0,-1.0,-1.0,-2.0
1.6951617558702976e+18,-1.0,1.0,0.0,0.0,-1.0,0.0,-2.0,-1.0
1.69516175588529e+18,-2.0,-1.0,-1.0,-3.0,-1.0,-1.0,-1.0,0.0
1.6951617558862892e+18,-1.0,-1.0,-2.0,-2.0,-2.0,-2.0,-1.0,-1.0
1.6951617559072796e+18,0.0,-2.0,0.0,-1.0,0.0,-1.0,0.0,0.0
1.6951617559072796e+18,1.0,-1.0,0.0,0.0,0.0,-2.0,0.0,0.0
1.6951617559082796e+18,-1.0,-1.0,-1.0,0.0,-1.0,-2.0,-2.0,-1.0
1.6951617559082796e+18,-2.0,0.0,0.0,0.0,-2.0,0.0,-3.0,-1.0
1.6951617559152742e+18,-3.0,0.0,0.0,0.0,-1.0,-2.0,1.0,-1.0
1.695161755916274e+18,-2.0,-1.0,-1.0,0.0,0.0,1.0,-2.0,-2.0
1.695161755917271e+18,-1.0,-1.0,-1.0,0.0,-1.0,-1.0,0.0,-1.0
1.695161755917271e+18,1.0,-1.0,0.0,-1.0,0.0,-1.0,0.0,-1.0
1.6951617559382587e+18,0.0,0.0,-2.0,0.0,0.0,0.0,-1.0,-1.0
1.6951617559382587e+18,0.0,-1.0,-2.0,-1.0,1.0,-1.0,-2.0,0.0
1.695161755939261e+18,0.0,-1.0,0.0,1.0,1.0,-3.0,-1.0,0.0
1.695161755939261e+18,-2.0,-1.0,-1.0,-1.0,-2.0,-2.0,-1.0,0.0
1.695161755953253e+18,0.0,0.0,0.0,-1.0,-2.0,-1.0,-1.0,-3.0
1.695161755953253e+18,-2.0,-1.0,-1.0,-1.0,-2.0,-1.0,-1.0,-1.0
1.6951617559542505e+18,0.0,-2.0,-2.0,0.0,-2.0,-2.0,-1.0,-1.0
1.695161755955249e+18,0.0,1.0,-1.0,-2.0,0.0,0.0,-1.0,-1.0
1.6951617559752627e+18,0.0,-2.0,0.0,-2.0,0.0,-1.0,2.0,0.0
1.6951617559762555e+18,-1.0,0.0,0.0,1.0,0.0,0.0,1.0,-2.0
1.6951617559772513e+18,0.0,0.0,0.0,-2.0,2.0,0.0,0.0,-1.0
1.6951617559772513e+18,-1.0,-1.0,0.0,-2.0,-1.0,1.0,-1.0,0.0
1.6951617559892316e+18,-1.0,1.0,-1.0,1.0,-2.0,-1.0,-1.0,2.0
1.6951617559892316e+18,0.0,-1.0,-1.0,-1.0,-1.0,0.0,0.0,-2.0
1.6951617559982495e+18,0.0,0.0,0.0,-1.0,-1.0,0.0,0.0,1.0
1.6951617559982495e+18,-1.0,-2.0,1.0,-2.0,-3.0,-2.0,0.0,0.0
1.6951617560122404e+18,1.0,-1.0,-2.0,0.0,-1.0,1.0,-2.0,-1.0
1.6951617560122404e+18,0.0,0.0,2.0,0.0,1.0,0.0,1.0,1.0
1.69516175601966e+18,-1.0,0.0,-1.0,1.0,0.0,1.0,0.0,-1.0
1.69516175601966e+18,-1.0,-2.0,1.0,0.0,-1.0,1.0,1.0,-1.0
1.695161756035651e+18,0.0,-2.0,-2.0,-2.0,-4.0,-3.0,-2.0,-2.0
1.695161756035651e+18,-1.0,-1.0,-1.0,-2.0,-1.0,-2.0,-3.0,-2.0
1.6951617560436452e+18,2.0,-1.0,0.0,1.0,1.0,1.0,0.0,2.0
1.6951617560436452e+18,-2.0,-1.0,-1.0,-2.0,-3.0,-3.0,-3.0,0.0
1.6951617560496448e+18,-2.0,-2.0,-1.0,-1.0,0.0,2.0,2.0,2.0
1.6951617560496448e+18,-1.0,-2.0,-2.0,-3.0,-4.0,-2.0,0.0,-2.0
1.6951617560655437e+18,-2.0,-1.0,0.0,0.0,-6.0,-3.0,-3.0,-3.0
1.6951617560655437e+18,0.0,-1.0,-4.0,-1.0,-2.0,-5.0,-2.0,-1.0
1.6951617560726034e+18,1.0,-1.0,1.0,6.0,-1.0,-5.0,0.0,-1.0
1.6951617560726034e+18,1.0,0.0,1.0,-3.0,1.0,12.0,1.0,1.0
1.6951617560796006e+18,-1.0,-1.0,-1.0,-3.0,-2.0,-1.0,1.0,-2.0
1.6951617560796006e+18,-1.0,-2.0,-5.0,-5.0,2.0,4.0,1.0,-1.0
1.695161756095641e+18,-4.0,-2.0,0.0,2.0,-4.0,-4.0,-7.0,-3.0
1.695161756095641e+18,-1.0,0.0,-1.0,1.0,-5.0,-18.0,-5.0,-1.0
1.6951617560972672e+18,0.0,0.0,-1.0,-1.0,0.0,6.0,0.0,0.0
1.6951617560972672e+18,-1.0,0.0,1.0,3.0,3.0,8.0,5.0,2.0
1.6951617561254907e+18,3.0,-1.0,-3.0,2.0,3.0,1.0,2.0,0.0
1.6951617561254907e+18,0.0,0.0,3.0,-2.0,-7.0,-1.0,-1.0,-2.0
1.6951617561274898e+18,3.0,0.0,0.0,-12.0,6.0,2.0,0.0,12.0
1.6951617561274898e+18,-2.0,2.0,1.0,11.0,10.0,1.0,2.0,-23.0
1.695161756132487e+18,-6.0,-6.0,0.0,-1.0,10.0,8.0,2.0,-12.0
1.695161756132487e+18,-1.0,-2.0,-6.0,-1.0,1.0,-2.0,8.0,14.0
1.6951617561401498e+18,-6.0,-4.0,-3.0,-7.0,-13.0,-9.0,-21.0,-5.0
1.6951617561401498e+18,-1.0,0.0,-1.0,-2.0,-7.0,0.0,4.0,2.0
1.6951617561551414e+18,2.0,-1.0,1.0,2.0,-5.0,-3.0,1.0,16.0
1.6951617561551414e+18,4.0,6.0,-1.0,4.0,-2.0,-4.0,1.0,-4.0
1.6951617561638528e+18,-1.0,-10.0,-1.0,-5.0,0.0,-5.0,5.0,-3.0
1.6951617561638528e+18,-1.0,3.0,-5.0,1.0,-1.0,-7.0,-1.0,5.0
1.6951617561778442e+18,-2.0,-4.0,5.0,-4.0,0.0,9.0,-2.0,-7.0
1.6951617561778442e+18,-3.0,-2.0,3.0,6.0,2.0,1.0,-3.0,-8.0
1.6951617561848412e+18,1.0,4.0,-5.0,-23.0,-19.0,-10.0,-1.0,2.0
1.6951617561848412e+18,0.0,2.0,3.0,-7.0,-6.0,-4.0,-6.0,-2.0
1.6951617561928353e+18,-1.0,-2.0,-5.0,1.0,-2.0,-2.0,1.0,-5.0
1.6951617561928353e+18,-3.0,-6.0,1.0,-2.0,5.0,11.0,1.0,4.0
1.6951617561998316e+18,-2.0,-2.0,-1.0,2.0,16.0,8.0,8.0,1.0
1.6951617561998316e+18,8.0,0.0,-3.0,-3.0,-4.0,-9.0,5.0,17.0
1.6951617562158218e+18,-4.0,2.0,-9.0,-2.0,-6.0,-6.0,-18.0,-66.0
1.6951617562158218e+18,-2.0,6.0,2.0,-7.0,-6.0,-4.0,-3.0,38.0
1.6951617562238175e+18,-3.0,-12.0,-5.0,7.0,-4.0,1.0,5.0,20.0
1.6951617562238175e+18,4.0,-2.0,3.0,-8.0,-3.0,-6.0,-13.0,9.0
1.6951617562378122e+18,9.0,20.0,1.0,7.0,7.0,9.0,20.0,29.0
1.6951617562388188e+18,-3.0,-15.0,-3.0,-2.0,3.0,2.0,-8.0,-34.0
1.6951617562398085e+18,-1.0,17.0,0.0,-1.0,-1.0,-2.0,-12.0,-14.0
1.6951617562398085e+18,-3.0,-5.0,0.0,4.0,1.0,4.0,6.0,6.0
1.6951617562528013e+18,-1.0,-5.0,2.0,4.0,-5.0,-13.0,-6.0,9.0
1.6951617562528013e+18,-1.0,-1.0,-2.0,-16.0,-4.0,3.0,3.0,-5.0
1.6951617562597975e+18,2.0,0.0,4.0,11.0,3.0,3.0,2.0,0.0
1.6951617562597975e+18,-3.0,-5.0,-5.0,0.0,-4.0,-5.0,-8.0,-13.0
1.6951617562757883e+18,-3.0,-4.0,-2.0,-5.0,0.0,-1.0,-3.0,4.0
1.6951617562757883e+18,-1.0,1.0,-1.0,5.0,0.0,-6.0,3.0,1.0
1.695161756277788e+18,0.0,0.0,0.0,5.0,2.0,2.0,2.0,-7.0
1.695161756277788e+18,-2.0,2.0,-2.0,-2.0,-2.0,-2.0,-4.0,-4.0
1.6951617563017733e+18,-2.0,-2.0,1.0,-5.0,-5.0,-3.0,1.0,9.0
1.695161756302773e+18,2.0,2.0,2.0,9.0,10.0,5.0,0.0,0.0
1.695161756302773e+18,-2.0,-3.0,-3.0,1.0,2.0,1.0,-2.0,-5.0
1.695161756302773e+18,-2.0,-3.0,1.0,-5.0,-3.0,-2.0,-3.0,-3.0
1.6951617563127675e+18,-2.0,0.0,1.0,-4.0,0.0,0.0,0.0,7.0
1.6951617563127675e+18,-1.0,-1.0,-2.0,-1.0,-1.0,-1.0,-1.0,-6.0
1.6951617563197632e+18,0.0,3.0,2.0,7.0,4.0,-2.0,2.0,-3.0
1.6951617563197632e+18,-3.0,-2.0,7.0,3.0,-1.0,1.0,2.0,-1.0
1.6951617563357563e+18,-1.0,-3.0,-3.0,-9.0,-5.0,-1.0,-2.0,1.0
1.6951617563357563e+18,0.0,3.0,-2.0,5.0,-1.0,-4.0,-6.0,-4.0
1.6951617563457477e+18,0.0,-1.0,0.0,2.0,1.0,0.0,4.0,0.0
1.6951617563457477e+18,0.0,-2.0,-2.0,-2.0,2.0,0.0,-2.0,-2.0
1.6951617563667366e+18,0.0,0.0,3.0,7.0,1.0,1.0,-2.0,-1.0
1.6951617563667366e+18,-1.0,-1.0,-5.0,-20.0,-6.0,-5.0,0.0,-2.0
1.6951617563727327e+18,-2.0,-1.0,3.0,5.0,2.0,2.0,0.0,-1.0
1.6951617563747318e+18,-1.0,1.0,1.0,1.0,-3.0,-1.0,1.0,-1.0
1.6951617563747318e+18,-2.0,-2.0,-16.0,-1.0,10.0,2.0,0.0,-1.0
1.6951617563757343e+18,0.0,-2.0,0.0,-1.0,6.0,4.0,3.0,1.0
1.6951617563787292e+18,-1.0,0.0,1.0,0.0,-7.0,-3.0,-1.0,-2.0
1.69516175637973e+18,-1.0,1.0,0.0,-5.0,-6.0,-1.0,-3.0,-2.0
1.6951617564037143e+18,-3.0,-4.0,8.0,-3.0,-10.0,-8.0,-4.0,1.0
1.6951617564037143e+18,0.0,0.0,-6.0,1.0,-8.0,-2.0,-1.0,1.0
1.6951617564047132e+18,-1.0,0.0,1.0,0.0,-1.0,-1.0,1.0,-3.0
1.6951617564047132e+18,-3.0,2.0,-10.0,0.0,10.0,2.0,1.0,-2.0
1.6951617564257068e+18,2.0,1.0,3.0,-9.0,-6.0,-3.0,-1.0,2.0
1.6951617564257068e+18,-1.0,-3.0,7.0,10.0,4.0,-1.0,-5.0,-3.0
1.695161756426704e+18,1.0,-3.0,-7.0,3.0,-1.0,-1.0,1.0,-2.0
1.695161756426704e+18,-2.0,-1.0,-3.0,0.0,0.0,0.0,1.0,-1.0
1.6951617564317012e+18,0.0,-2.0,-1.0,-4.0,-2.0,0.0,0.0,0.0
1.6951617564317012e+18,1.0,1.0,-2.0,4.0,-2.0,-1.0,1.0,-1.0
1.6951617564656794e+18,-1.0,0.0,10.0,4.0,4.0,1.0,0.0,-2.0
1.6951617564656794e+18,-1.0,-4.0,-8.0,-4.0,-1.0,-1.0,0.0,-2.0
1.6951617564686804e+18,-1.0,0.0,-1.0,-16.0,-27.0,-7.0,-2.0,-1.0
1.6951617564686804e+18,0.0,0.0,3.0,13.0,33.0,7.0,2.0,2.0
1.6951617564776722e+18,0.0,-6.0,-15.0,-9.0,-7.0,-2.0,-4.0,-1.0
1.6951617564786767e+18,2.0,1.0,1.0,3.0,16.0,9.0,-1.0,2.0
1.6951617564786767e+18,-1.0,-3.0,5.0,19.0,5.0,2.0,2.0,0.0
1.6951617564786767e+18,0.0,1.0,-1.0,-10.0,-22.0,-11.0,-5.0,-5.0
1.6951617564846684e+18,-2.0,-3.0,-15.0,-4.0,-9.0,-8.0,-5.0,-2.0
1.6951617564846684e+18,0.0,0.0,24.0,5.0,10.0,1.0,-2.0,-1.0
1.6951617565166502e+18,-1.0,-1.0,-14.0,-5.0,-6.0,3.0,1.0,2.0
1.6951617565166502e+18,1.0,1.0,-1.0,-2.0,1.0,4.0,0.0,2.0
1.6951617565176494e+18,-1.0,-2.0,0.0,0.0,5.0,0.0,0.0,1.0
1.695161756518649e+18,-2.0,-1.0,5.0,-3.0,-26.0,-11.0,-7.0,-2.0
1.695161756518649e+18,1.0,0.0,-2.0,1.0,12.0,2.0,-1.0,-1.0
1.695161756518649e+18,-3.0,-2.0,-5.0,-1.0,-8.0,-5.0,2.0,-6.0
1.695161756523646e+18,0.0,1.0,3.0,5.0,29.0,16.0,4.0,2.0
1.695161756523646e+18,1.0,-9.0,-6.0,0.0,0.0,1.0,0.0,1.0
1.69516175653764e+18,0.0,1.0,4.0,-4.0,-1.0,-2.0,-3.0,-4.0
1.69516175653764e+18,-2.0,-2.0,-3.0,1.0,-6.0,-3.0,-3.0,3.0
1.6951617565446336e+18,-2.0,1.0,3.0,-8.0,-14.0,-9.0,-1.0,-3.0
1.6951617565446336e+18,-1.0,1.0,-3.0,1.0,2.0,0.0,1.0,0.0
1.6951617565686195e+18,-2.0,-2.0,-1.0,0.0,4.0,1.0,-2.0,4.0
1.695161756569619e+18,1.0,-2.0,-2.0,-8.0,-5.0,0.0,0.0,-2.0
1.6951617565706207e+18,0.0,1.0,3.0,4.0,-2.0,-2.0,-1.0,0.0
1.6951617565706207e+18,0.0,1.0,-1.0,2.0,-1.0,-2.0,-1.0,-1.0
1.6951617565746163e+18,0.0,-4.0,-2.0,-5.0,1.0,0.0,-1.0,-2.0
1.6951617565746163e+18,-2.0,0.0,-1.0,0.0,-1.0,-1.0,0.0,0.0
1.6951617565936113e+18,0.0,-2.0,1.0,-1.0,-7.0,-4.0,-2.0,-3.0
1.6951617565936113e+18,-2.0,-1.0,-6.0,1.0,2.0,2.0,3.0,-1.0
1.6951617566046006e+18,-1.0,0.0,1.0,1.0,0.0,-1.0,0.0,-1.0
1.6951617566046006e+18,1.0,0.0,0.0,-2.0,1.0,4.0,0.0,1.0
1.6951617566305853e+18,1.0,-2.0,-1.0,8.0,7.0,-2.0,-4.0,2.0
1.6951617566305853e+18,-2.0,0.0,-6.0,-11.0,-10.0,-8.0,-4.0,-2.0
1.6951617566305853e+18,-1.0,1.0,1.0,7.0,14.0,7.0,0.0,0.0
1.6951617566315907e+18,-3.0,-2.0,1.0,0.0,-13.0,-2.0,-2.0,-2.0
1.6951617566435786e+18,0.0,-1.0,-1.0,-5.0,-8.0,-6.0,1.0,-1.0
1.6951617566445773e+18,0.0,4.0,5.0,9.0,28.0,18.0,7.0,4.0
1.6951617566445773e+18,-2.0,-9.0,-6.0,4.0,-7.0,-8.0,-4.0,-4.0
1.6951617566445773e+18,-3.0,-2.0,-9.0,-7.0,-3.0,-4.0,-3.0,1.0
1.6951617566465782e+18,1.0,0.0,1.0,-5.0,-17.0,-6.0,-3.0,-1.0
1.6951617566465782e+18,-2.0,-1.0,-6.0,-9.0,-10.0,-6.0,-2.0,-2.0
1.6951617567195333e+18,0.0,3.0,1.0,-4.0,4.0,1.0,1.0,1.0
1.6951617567195333e+18,-2.0,-1.0,3.0,2.0,-1.0,-1.0,0.0,-1.0
1.6951617567205335e+18,-1.0,-1.0,1.0,3.0,8.0,5.0,0.0,1.0
1.6951617567215368e+18,-1.0,0.0,-2.0,-5.0,-5.0,0.0,-1.0,-1.0
1.6951617567215368e+18,-1.0,-1.0,0.0,0.0,4.0,-1.0,0.0,-2.0
1.6951617567215368e+18,-1.0,-2.0,-1.0,1.0,-3.0,0.0,1.0,-2.0
1.6951617567445197e+18,-1.0,0.0,1.0,0.0,2.0,2.0,0.0,-3.0
1.6951617567445197e+18,0.0,0.0,1.0,4.0,-1.0,-1.0,-2.0,1.0
1.6951617567455196e+18,0.0,0.0,-3.0,-3.0,-7.0,-3.0,-2.0,-2.0
1.6951617567455196e+18,0.0,-2.0,4.0,-3.0,0.0,-2.0,0.0,0.0
1.6951617567455196e+18,0.0,2.0,-9.0,-7.0,-7.0,0.0,0.0,0.0
1.6951617567455196e+18,-2.0,-4.0,-2.0,4.0,7.0,-1.0,0.0,-2.0
1.6951617567944904e+18,-1.0,2.0,4.0,8.0,3.0,2.0,0.0,-2.0
1.6951617567944904e+18,-1.0,-2.0,-3.0,-6.0,-9.0,-1.0,0.0,-3.0
1.6951617567954903e+18,-1.0,-2.0,0.0,-3.0,-7.0,-2.0,-1.0,2.0
1.6951617567954903e+18,0.0,2.0,1.0,7.0,3.0,-3.0,-2.0,0.0
1.6951617567964915e+18,-1.0,0.0,0.0,-5.0,-9.0,-5.0,-3.0,2.0
1.6951617567964915e+18,-1.0,-3.0,-19.0,-11.0,4.0,0.0,0.0,-1.0
1.695161756807488e+18,-1.0,-1.0,6.0,5.0,2.0,2.0,0.0,0.0
1.695161756807488e+18,1.0,0.0,-4.0,-6.0,-3.0,-1.0,0.0,0.0
1.69516175683047e+18,-2.0,0.0,-1.0,-6.0,1.0,0.0,-1.0,-2.0
1.69516175683047e+18,-1.0,-2.0,-3.0,-9.0,-24.0,-13.0,-6.0,-3.0
1.6951617568394644e+18,-2.0,1.0,0.0,4.0,16.0,7.0,6.0,2.0
1.6951617568394644e+18,1.0,-3.0,2.0,4.0,14.0,8.0,4.0,2.0
1.6951617568394644e+18,-1.0,-1.0,-3.0,9.0,18.0,3.0,0.0,-1.0
1.6951617568404641e+18,0.0,0.0,0.0,3.0,-6.0,-2.0,-2.0,-1.0
1.6951617568414643e+18,-1.0,1.0,7.0,7.0,-3.0,0.0,-2.0,-1.0
1.6951617568414643e+18,-2.0,-1.0,-14.0,-15.0,-17.0,-7.0,-5.0,-1.0
1.6951617568444864e+18,-1.0,-3.0,-1.0,15.0,19.0,9.0,4.0,3.0
1.6951617568444864e+18,0.0,-2.0,-1.0,5.0,17.0,3.0,0.0,1.0
1.695161756853458e+18,-2.0,-1.0,7.0,-5.0,-5.0,-3.0,-4.0,-2.0
1.695161756859454e+18,-3.0,3.0,1.0,4.0,-6.0,-3.0,0.0,0.0
1.695161756867453e+18,3.0,3.0,3.0,-17.0,-15.0,0.0,5.0,2.0
1.695161756867453e+18,-5.0,-10.0,-23.0,-6.0,-4.0,-10.0,-11.0,-6.0
1.6951617569074276e+18,4.0,1.0,-5.0,-4.0,14.0,8.0,4.0,3.0
1.6951617569084288e+18,-2.0,0.0,9.0,10.0,-3.0,-5.0,-5.0,-3.0
1.6951617569084288e+18,-1.0,-3.0,-9.0,-10.0,-9.0,-6.0,-2.0,-3.0
1.6951617569084288e+18,3.0,6.0,7.0,-6.0,-5.0,2.0,5.0,1.0
1.6951617569294226e+18,-2.0,-1.0,5.0,7.0,-5.0,-3.0,-1.0,-3.0
1.6951617569294226e+18,-2.0,-5.0,-18.0,-9.0,3.0,-2.0,-3.0,-1.0
1.6951617569294226e+18,1.0,-2.0,9.0,2.0,5.0,1.0,1.0,-1.0
1.6951617569294226e+18,0.0,2.0,7.0,4.0,-16.0,-5.0,-2.0,-2.0
1.6951617569294226e+18,-1.0,-3.0,-5.0,6.0,28.0,9.0,1.0,-1.0
1.6951617569294226e+18,1.0,0.0,11.0,15.0,22.0,9.0,2.0,1.0
1.6951617569603963e+18,-11.0,-3.0,2.0,-7.0,-13.0,-6.0,-5.0,-3.0
1.6951617569684155e+18,-2.0,0.0,2.0,5.0,-4.0,-4.0,-3.0,-17.0
1.6951617569684155e+18,5.0,-16.0,-11.0,-8.0,-16.0,-8.0,-7.0,4.0
1.6951617569684155e+18,1.0,3.0,-2.0,-10.0,-6.0,-4.0,-1.0,-1.0
1.6951617569693924e+18,4.0,5.0,-2.0,-2.0,2.0,-2.0,-2.0,-5.0
1.6951617569693924e+18,-4.0,5.0,-4.0,1.0,1.0,1.0,-1.0,6.0
1.695161756996375e+18,-5.0,-1.0,6.0,-2.0,-16.0,-11.0,-4.0,-2.0
1.695161756996375e+18,-1.0,-5.0,-3.0,3.0,18.0,11.0,3.0,-1.0
1.695161756997375e+18,-1.0,-2.0,-1.0,1.0,-6.0,-2.0,1.0,4.0
1.695161756997375e+18,-1.0,-2.0,4.0,-5.0,-5.0,1.0,0.0,-1.0
1.6951617570123666e+18,-2.0,6.0,3.0,-1.0,-7.0,-1.0,-3.0,-3.0
1.6951617570153644e+18,1.0,-1.0,-2.0,-5.0,-10.0,-3.0,-1.0,1.0
1.6951617570163645e+18,1.0,0.0,0.0,4.0,4.0,-2.0,-1.0,-2.0
1.6951617570163645e+18,-4.0,0.0,2.0,3.0,3.0,0.0,8.0,-4.0
1.6951617570163645e+18,-13.0,-2.0,1.0,-1.0,-17.0,-10.0,-14.0,-16.0
1.6951617570163645e+18,15.0,10.0,-7.0,-16.0,14.0,12.0,10.0,29.0
1.695161757035353e+18,-10.0,-25.0,0.0,-8.0,-20.0,-4.0,-4.0,-6.0
1.695161757035353e+18,-2.0,10.0,4.0,23.0,7.0,4.0,3.0,8.0
1.6951617570363525e+18,23.0,-4.0,2.0,-5.0,-15.0,-8.0,4.0,5.0
1.6951617570363525e+18,-22.0,-1.0,-8.0,19.0,4.0,-1.0,-6.0,-17.0
1.695161757041352e+18,9.0,4.0,4.0,-16.0,-12.0,-2.0,-1.0,1.0
1.695161757041352e+18,-7.0,-8.0,2.0,0.0,4.0,1.0,0.0,-6.0
1.695161757042349e+18,-2.0,33.0,1.0,-5.0,0.0,1.0,0.0,-35.0
1.695161757042349e+18,7.0,-7.0,-6.0,-3.0,-5.0,-7.0,-14.0,30.0
1.695161757043349e+18,9.0,-27.0,-5.0,8.0,6.0,-1.0,4.0,15.0
1.6951617570443487e+18,-14.0,-13.0,-6.0,-7.0,-3.0,-2.0,-4.0,-6.0
1.695161757070332e+18,0.0,14.0,1.0,-8.0,4.0,-2.0,1.0,16.0
1.695161757070332e+18,-15.0,-18.0,4.0,11.0,-2.0,-1.0,0.0,-35.0
1.6951617570723318e+18,1.0,13.0,2.0,5.0,7.0,1.0,1.0,-17.0
1.6951617570723318e+18,24.0,17.0,8.0,-5.0,-5.0,-3.0,2.0,19.0
1.6951617570843274e+18,-54.0,-32.0,4.0,6.0,7.0,1.0,-15.0,-7.0
1.6951617570853348e+18,46.0,15.0,8.0,-4.0,-1.0,-3.0,-5.0,3.0
1.6951617571033144e+18,-46.0,-30.0,-12.0,-1.0,2.0,-3.0,-9.0,-4.0
1.6951617571033144e+18,6.0,27.0,-3.0,6.0,4.0,5.0,10.0,25.0
1.6951617571033144e+18,0.0,-10.0,-17.0,-12.0,-7.0,-1.0,2.0,-1.0
1.6951617571043177e+18,8.0,-2.0,2.0,4.0,6.0,6.0,7.0,1.0
1.6951617571043177e+18,-54.0,29.0,11.0,-1.0,0.0,2.0,32.0,-60.0
1.6951617571043177e+18,48.0,-43.0,11.0,0.0,4.0,0.0,-27.0,7.0
1.695161757123302e+18,-42.0,17.0,-19.0,-2.0,-2.0,-6.0,27.0,85.0
1.695161757123302e+18,-3.0,-8.0,-9.0,0.0,-1.0,7.0,-15.0,-20.0
1.6951617571243034e+18,22.0,34.0,5.0,-18.0,-10.0,-12.0,-18.0,-16.0
1.6951617571253033e+18,15.0,17.0,-1.0,-6.0,-8.0,-5.0,9.0,-33.0
1.6951617571842714e+18,7.0,11.0,12.0,13.0,2.0,0.0,17.0,-124.0
1.6951617571842714e+18,-3.0,-37.0,-7.0,-18.0,-14.0,-10.0,-48.0,125.0
1.695161757186266e+18,18.0,-8.0,-5.0,3.0,5.0,-6.0,-10.0,-12.0
1.695161757186266e+18,-12.0,43.0,15.0,3.0,3.0,8.0,16.0,-22.0
1.695161757186266e+18,23.0,0.0,-4.0,-13.0,-6.0,-10.0,-35.0,-21.0
1.6951617571872668e+18,-19.0,21.0,1.0,-2.0,-1.0,3.0,33.0,-80.0
1.6951617572152492e+18,16.0,-34.0,-1.0,3.0,0.0,2.0,-16.0,30.0
1.6951617572152492e+18,-14.0,-1.0,0.0,-5.0,0.0,8.0,40.0,-23.0
1.6951617572162496e+18,8.0,14.0,-1.0,-4.0,-2.0,-8.0,-28.0,52.0
1.6951617572162496e+18,-8.0,-9.0,1.0,5.0,7.0,24.0,55.0,-124.0
1.6951617572172493e+18,28.0,-14.0,1.0,14.0,0.0,3.0,18.0,38.0
1.6951617572172493e+18,-38.0,17.0,-7.0,-20.0,-20.0,-27.0,-31.0,28.0
1.6951617572222454e+18,-1.0,-9.0,3.0,0.0,1.0,7.0,19.0,2.0
1.6951617572232456e+18,10.0,-5.0,-9.0,2.0,-7.0,-2.0,6.0,92.0
1.6951617572232456e+18,-16.0,-44.0,-3.0,-6.0,-3.0,-2.0,-8.0,-60.0
1.6951617572232456e+18,37.0,8.0,1.0,4.0,-3.0,-9.0,-4.0,-8.0
1.6951617572422372e+18,-18.0,19.0,-1.0,4.0,9.0,25.0,57.0,-61.0
1.6951617572422372e+18,3.0,-11.0,0.0,1.0,3.0,-11.0,-51.0,20.0
1.695161757257226e+18,14.0,19.0,0.0,2.0,3.0,6.0,7.0,-20.0
1.695161757257226e+18,-32.0,-4.0,1.0,5.0,2.0,-13.0,0.0,-3.0
1.695161757276215e+18,14.0,8.0,-3.0,3.0,2.0,6.0,4.0,27.0
1.695161757276215e+18,50.0,-3.0,0.0,-2.0,-5.0,-11.0,-32.0,11.0
1.695161757283212e+18,-49.0,-14.0,-5.0,4.0,2.0,12.0,29.0,-19.0
1.6951617572842115e+18,9.0,7.0,2.0,1.0,-4.0,-5.0,-12.0,-23.0
1.6951617572842115e+18,-7.0,0.0,-1.0,-2.0,-5.0,-15.0,17.0,-13.0
1.6951617572842115e+18,21.0,-15.0,-13.0,-7.0,-9.0,-16.0,-11.0,68.0
1.6951617572842115e+18,-32.0,-9.0,-1.0,-10.0,0.0,10.0,11.0,-33.0
1.6951617572842115e+18,13.0,-1.0,10.0,10.0,9.0,13.0,33.0,108.0
1.6951617572842115e+18,-5.0,11.0,6.0,-1.0,-8.0,-4.0,-32.0,-66.0
1.6951617572852099e+18,-15.0,-18.0,-13.0,-6.0,-2.0,-2.0,-19.0,-5.0
1.6951617573101952e+18,9.0,23.0,2.0,-2.0,4.0,16.0,39.0,-53.0
1.695161757311195e+18,9.0,18.0,4.0,-6.0,-4.0,-18.0,-57.0,78.0
1.6951617573121956e+18,43.0,-31.0,-2.0,14.0,6.0,6.0,-6.0,-33.0
1.6951617573121956e+18,-65.0,9.0,-1.0,-7.0,2.0,20.0,37.0,-36.0
1.69516175732519e+18,21.0,-2.0,-3.0,1.0,-4.0,-8.0,-29.0,53.0
1.695161757326193e+18,0.0,-3.0,-5.0,1.0,-3.0,-3.0,7.0,-39.0
1.6951617573271862e+18,24.0,0.0,-8.0,-3.0,-7.0,-14.0,-7.0,55.0
1.6951617573271862e+18,-37.0,-4.0,7.0,1.0,2.0,-10.0,-49.0,-93.0
1.6951617573481728e+18,5.0,1.0,6.0,5.0,5.0,4.0,21.0,18.0
1.6951617573481728e+18,17.0,-3.0,-2.0,-4.0,-5.0,1.0,5.0,24.0
1.6951617573501732e+18,-42.0,3.0,-4.0,-4.0,-2.0,-7.0,-22.0,-14.0
1.6951617573501732e+18,18.0,-15.0,-7.0,-4.0,-4.0,6.0,22.0,-31.0
1.695161757363165e+18,15.0,15.0,3.0,9.0,4.0,-4.0,-30.0,14.0
1.695161757363165e+18,-10.0,-4.0,-4.0,-7.0,0.0,3.0,5.0,-48.0
1.6951617573651666e+18,-9.0,0.0,-1.0,-16.0,0.0,10.0,23.0,50.0
1.6951617573651666e+18,17.0,4.0,12.0,17.0,2.0,2.0,0.0,55.0
1.6951617573861537e+18,-13.0,-7.0,1.0,-2.0,0.0,3.0,8.0,-58.0
1.6951617573861537e+18,-12.0,-7.0,-4.0,-4.0,-10.0,-14.0,-11.0,39.0
1.695161757387153e+18,12.0,1.0,-9.0,7.0,-3.0,3.0,9.0,-27.0
1.695161757387153e+18,6.0,11.0,1.0,-16.0,0.0,-1.0,-18.0,-17.0
1.6951617574011433e+18,14.0,-33.0,-11.0,-9.0,-4.0,-5.0,-3.0,67.0
1.6951617574011433e+18,-34.0,5.0,5.0,7.0,-2.0,-1.0,-9.0,-85.0
1.6951617574071396e+18,-9.0,-8.0,3.0,5.0,-4.0,-5.0,8.0,17.0
1.6951617574071396e+18,-12.0,-10.0,0.0,-12.0,-9.0,-2.0,-1.0,20.0
1.6951617574221304e+18,3.0,13.0,8.0,20.0,17.0,10.0,9.0,-5.0
1.6951617574221304e+18,8.0,2.0,1.0,-6.0,3.0,15.0,48.0,-16.0
1.6951617574231352e+18,-5.0,4.0,-2.0,17.0,14.0,-10.0,-38.0,3.0
1.6951617574231352e+18,-7.0,-1.0,-1.0,1.0,-1.0,3.0,24.0,9.0
1.6951617574611098e+18,2.0,-2.0,3.0,-17.0,-13.0,0.0,2.0,50.0
1.6951617574611098e+18,-4.0,-4.0,-4.0,-1.0,0.0,-2.0,-2.0,25.0
1.6951617574621084e+18,-12.0,10.0,-1.0,-4.0,-12.0,-2.0,0.0,-49.0
1.6951617574621084e+18,-9.0,-6.0,-4.0,3.0,4.0,-9.0,-37.0,-43.0
1.695161757463108e+18,3.0,6.0,-8.0,-3.0,0.0,-8.0,-9.0,33.0
1.6951617574641083e+18,-21.0,-13.0,3.0,0.0,-1.0,3.0,3.0,-42.0
1.695161757467106e+18,25.0,14.0,5.0,4.0,1.0,6.0,-18.0,12.0
1.6951617574681093e+18,-8.0,-14.0,-5.0,-5.0,-7.0,-9.0,8.0,13.0
1.6951617574910922e+18,2.0,-11.0,4.0,5.0,-2.0,10.0,19.0,12.0
1.6951617574910922e+18,27.0,10.0,1.0,4.0,4.0,-9.0,-22.0,-41.0
1.6951617574920927e+18,-2.0,-15.0,-7.0,-14.0,1.0,-4.0,14.0,34.0
1.6951617574920927e+18,-36.0,5.0,1.0,7.0,-2.0,-6.0,2.0,2.0
1.6951617575131034e+18,-4.0,-3.0,-2.0,-1.0,-3.0,0.0,-19.0,-13.0
1.6951617575131034e+18,21.0,8.0,1.0,-3.0,-4.0,-6.0,-10.0,-49.0
1.695161757514081e+18,-18.0,-7.0,-2.0,2.0,0.0,-9.0,5.0,3.0
1.695161757514081e+18,37.0,0.0,-4.0,0.0,0.0,-4.0,8.0,44.0
1.6951617575190748e+18,11.0,-2.0,-1.0,-6.0,1.0,4.0,-1.0,-7.0
1.6951617575190748e+18,-6.0,-9.0,-1.0,-3.0,1.0,6.0,4.0,-7.0
1.6951617575280947e+18,-13.0,5.0,0.0,-2.0,-1.0,-1.0,0.0,-18.0
1.695161757530073e+18,-31.0,-8.0,-5.0,-2.0,-4.0,-10.0,0.0,-4.0
1.6951617575510574e+18,9.0,12.0,4.0,6.0,1.0,-16.0,-34.0,-1.0
1.6951617575510574e+18,5.0,-2.0,2.0,7.0,4.0,12.0,27.0,26.0
1.6951617575510574e+18,2.0,0.0,-4.0,-9.0,0.0,-7.0,-27.0,-25.0
1.6951617575510574e+18,-22.0,-4.0,-3.0,-6.0,-11.0,-3.0,-5.0,3.0
1.6951617575740472e+18,13.0,1.0,-2.0,4.0,3.0,4.0,10.0,-7.0
1.6951617575750682e+18,-1.0,1.0,0.0,-6.0,-3.0,-1.0,-3.0,38.0
1.6951617575750682e+18,4.0,8.0,7.0,8.0,6.0,4.0,21.0,-11.0
1.6951617575750682e+18,9.0,-1.0,-3.0,0.0,3.0,6.0,22.0,-8.0
1.6951617575790433e+18,-9.0,0.0,-4.0,-3.0,-4.0,-10.0,-7.0,-4.0
1.6951617575790433e+18,-9.0,-10.0,-1.0,2.0,0.0,4.0,-6.0,-5.0
1.6951617575870367e+18,0.0,1.0,2.0,-5.0,-3.0,3.0,7.0,-21.0
1.6951617575870367e+18,14.0,2.0,2.0,4.0,2.0,2.0,-3.0,6.0
1.6951617576020516e+18,6.0,3.0,-2.0,-6.0,-2.0,0.0,2.0,6.0
1.6951617576030292e+18,6.0,2.0,-4.0,-8.0,-3.0,1.0,12.0,22.0
1.6951617576100242e+18,-9.0,-1.0,3.0,7.0,2.0,-1.0,-5.0,-5.0
1.6951617576100242e+18,0.0,3.0,0.0,-7.0,-11.0,0.0,-3.0,-11.0
1.6951617576260175e+18,0.0,0.0,-6.0,-1.0,4.0,-6.0,-6.0,5.0
1.6951617576260175e+18,-8.0,0.0,0.0,-2.0,-4.0,-2.0,0.0,-8.0
1.6951617576270167e+18,10.0,-13.0,-6.0,16.0,23.0,9.0,1.0,19.0
1.6951617576270167e+18,-6.0,-12.0,3.0,-4.0,-7.0,0.0,-3.0,-17.0
1.695161757639006e+18,-4.0,-3.0,-2.0,-13.0,-22.0,-10.0,-10.0,-25.0
1.695161757639006e+18,-6.0,-17.0,0.0,4.0,22.0,10.0,16.0,7.0
1.6951617576470047e+18,13.0,20.0,2.0,11.0,8.0,5.0,-8.0,13.0
1.6951617576470047e+18,12.0,-4.0,4.0,11.0,10.0,1.0,13.0,37.0
1.6951617576619955e+18,-12.0,-13.0,-1.0,2.0,-2.0,1.0,5.0,-15.0
1.6951617576619955e+18,5.0,6.0,-3.0,-8.0,-18.0,-14.0,-19.0,18.0
1.695161757677009e+18,-6.0,-10.0,-2.0,-9.0,-8.0,1.0,-1.0,-39.0
1.6951617576779999e+18,-14.0,1.0,-2.0,-9.0,-5.0,5.0,2.0,-32.0
1.6951617576880023e+18,9.0,9.0,1.0,2.0,-3.0,-5.0,4.0,43.0
1.6951617576880023e+18,-2.0,6.0,6.0,14.0,10.0,-1.0,-10.0,-16.0
1.6951617576880023e+18,4.0,-13.0,-10.0,-21.0,-18.0,-3.0,4.0,-9.0
1.6951617576880023e+18,4.0,6.0,1.0,8.0,9.0,3.0,1.0,17.0
1.6951617576999762e+18,-1.0,-2.0,-6.0,-12.0,-8.0,-1.0,10.0,6.0
1.6951617576999762e+18,-9.0,-10.0,-3.0,-8.0,-6.0,-2.0,-2.0,-9.0
1.6951617577069683e+18,0.0,5.0,1.0,3.0,-16.0,-4.0,1.0,8.0
1.6951617577069683e+18,0.0,3.0,-7.0,-2.0,30.0,10.0,3.0,-20.0
1.6951617577379515e+18,-4.0,-10.0,5.0,10.0,4.0,5.0,-4.0,-8.0
1.6951617577379515e+18,8.0,2.0,-2.0,17.0,18.0,1.0,-2.0,9.0
1.6951617577389522e+18,-6.0,3.0,1.0,-13.0,-16.0,-3.0,3.0,13.0
1.6951617577389522e+18,-5.0,-5.0,-3.0,-5.0,-19.0,-6.0,-10.0,-35.0
1.6951617577579405e+18,3.0,-2.0,-1.0,-1.0,-1.0,-10.0,-23.0,23.0
1.6951617577589568e+18,0.0,-5.0,-3.0,-2.0,-1.0,5.0,17.0,16.0
1.6951617577589568e+18,0.0,-3.0,-5.0,-11.0,-7.0,-6.0,-18.0,-1.0
1.6951617577589568e+18,-4.0,0.0,0.0,5.0,3.0,0.0,-5.0,1.0
1.6951617577589568e+18,4.0,6.0,2.0,7.0,7.0,0.0,6.0,-14.0
1.6951617577589568e+18,0.0,-2.0,-1.0,-6.0,-13.0,0.0,3.0,-2.0
1.695161757766937e+18,1.0,-1.0,0.0,2.0,7.0,1.0,2.0,0.0
1.695161757766937e+18,-1.0,3.0,-3.0,-6.0,-6.0,-5.0,-4.0,-8.0
1.6951617577929188e+18,1.0,0.0,-1.0,12.0,17.0,5.0,-4.0,-17.0
1.6951617577929188e+18,-7.0,-2.0,-1.0,-3.0,-5.0,-4.0,1.0,5.0
1.6951617577939195e+18,2.0,-2.0,-1.0,0.0,3.0,1.0,0.0,5.0
1.6951617577939195e+18,4.0,2.0,-5.0,-9.0,-4.0,-1.0,-3.0,10.0
1.6951617578129068e+18,-4.0,-5.0,2.0,-4.0,-11.0,-4.0,-1.0,-21.0
1.695161757813907e+18,1.0,1.0,-1.0,10.0,10.0,1.0,0.0,10.0
1.695161757813907e+18,0.0,-3.0,-3.0,-13.0,-10.0,-2.0,0.0,0.0
1.695161757813907e+18,-2.0,-4.0,0.0,-3.0,6.0,-1.0,2.0,7.0
1.6951617578308997e+18,-4.0,1.0,-3.0,-6.0,-2.0,1.0,-1.0,-5.0
1.6951617578308997e+18,-7.0,0.0,0.0,1.0,-11.0,-8.0,-13.0,-22.0
1.6951617578318991e+18,5.0,-2.0,0.0,17.0,17.0,4.0,3.0,17.0
1.6951617578318991e+18,2.0,0.0,-3.0,0.0,-14.0,-3.0,2.0,6.0
1.695161757843899e+18,-3.0,-1.0,-1.0,4.0,3.0,2.0,-1.0,-12.0
1.695161757843899e+18,-4.0,0.0,-2.0,-13.0,0.0,1.0,-4.0,1.0
1.695161757844891e+18,-2.0,-8.0,0.0,-8.0,-9.0,-4.0,2.0,2.0
1.695161757844891e+18,0.0,2.0,3.0,4.0,-2.0,-1.0,-1.0,-2.0
1.69516175786788e+18,1.0,2.0,-1.0,-6.0,3.0,-1.0,3.0,8.0
1.69516175786788e+18,0.0,-1.0,0.0,6.0,-6.0,-3.0,-3.0,-8.0
1.69516175786788e+18,-2.0,3.0,1.0,3.0,9.0,1.0,1.0,-3.0
1.69516175786788e+18,-1.0,-1.0,-1.0,-12.0,-3.0,-2.0,-3.0,-1.0
1.6951617578808686e+18,-3.0,-3.0,1.0,5.0,-2.0,-1.0,0.0,-8.0
1.6951617578808686e+18,-3.0,-2.0,-1.0,-2.0,1.0,2.0,-4.0,-9.0
1.695161757886865e+18,2.0,3.0,0.0,2.0,3.0,5.0,9.0,6.0
1.695161757886865e+18,-2.0,-4.0,1.0,2.0,0.0,-5.0,-12.0,12.0
1.6951617579068564e+18,-1.0,0.0,-3.0,-5.0,-7.0,-4.0,-2.0,1.0
1.6951617579068564e+18,-1.0,1.0,-2.0,4.0,1.0,-3.0,0.0,-3.0
1.6951617579068564e+18,-1.0,2.0,1.0,2.0,0.0,-2.0,0.0,-3.0
1.6951617579078574e+18,0.0,-2.0,-4.0,-1.0,3.0,1.0,5.0,0.0
1.6951617579248474e+18,0.0,-1.0,2.0,3.0,0.0,1.0,0.0,-1.0
1.6951617579248474e+18,-1.0,3.0,6.0,7.0,0.0,-1.0,-4.0,1.0
1.6951617579258435e+18,-1.0,-1.0,-14.0,-31.0,-10.0,-4.0,2.0,-5.0
1.6951617579258435e+18,-1.0,-2.0,2.0,11.0,1.0,0.0,2.0,3.0
1.695161757939835e+18,-1.0,-1.0,-10.0,6.0,1.0,0.0,-2.0,-4.0
1.695161757939835e+18,1.0,-3.0,0.0,-8.0,1.0,1.0,4.0,1.0
1.6951617579468308e+18,-2.0,1.0,5.0,3.0,1.0,-1.0,-2.0,-2.0
1.6951617579468308e+18,-3.0,2.0,-4.0,-4.0,-4.0,-1.0,1.0,0.0
1.6951617579628224e+18,7.0,0.0,-5.0,1.0,5.0,0.0,1.0,8.0
1.6951617579628224e+18,1.0,-1.0,7.0,6.0,-6.0,-5.0,-5.0,3.0
1.6951617579628224e+18,-5.0,-2.0,5.0,8.0,2.0,0.0,-3.0,-3.0
1.6951617579628224e+18,0.0,-4.0,-24.0,-19.0,0.0,4.0,3.0,-6.0
1.6951617579848115e+18,-6.0,1.0,24.0,6.0,1.0,1.0,0.0,0.0
1.6951617579848115e+18,2.0,1.0,20.0,23.0,-1.0,-1.0,0.0,-6.0
1.695161757985809e+18,-4.0,-4.0,-37.0,-24.0,-5.0,-1.0,-4.0,-14.0
1.695161757985809e+18,0.0,0.0,1.0,15.0,3.0,2.0,6.0,10.0
1.695161758007821e+18,8.0,0.0,-11.0,-18.0,-5.0,-2.0,-2.0,3.0
1.6951617580087962e+18,5.0,0.0,0.0,-5.0,-3.0,-2.0,-6.0,-10.0
1.6951617580087962e+18,6.0,4.0,37.0,34.0,7.0,1.0,0.0,4.0
1.6951617580087962e+18,1.0,5.0,22.0,9.0,7.0,4.0,5.0,-7.0
1.6951617580227876e+18,-11.0,-11.0,-55.0,-30.0,-10.0,-5.0,-3.0,-6.0
1.6951617580227876e+18,8.0,2.0,7.0,0.0,6.0,4.0,4.0,24.0
1.6951617580237873e+18,-5.0,-5.0,-31.0,-8.0,-10.0,-8.0,-9.0,-13.0
1.6951617580237873e+18,0.0,-4.0,-8.0,-15.0,-3.0,-3.0,-3.0,-1.0
1.6951617580477752e+18,7.0,7.0,27.0,19.0,3.0,2.0,1.0,0.0
1.6951617580507753e+18,-9.0,-8.0,-11.0,-10.0,-8.0,-3.0,1.0,-2.0
1.6951617580507753e+18,2.0,5.0,27.0,15.0,7.0,4.0,3.0,5.0
1.6951617580507753e+18,-2.0,0.0,0.0,-8.0,-3.0,-2.0,-2.0,-2.0
1.6951617580677632e+18,-5.0,1.0,0.0,-1.0,-2.0,-3.0,-3.0,-17.0
1.6951617580677632e+18,-3.0,-3.0,-8.0,2.0,-2.0,-4.0,-2.0,-3.0
1.6951617580687616e+18,-4.0,-3.0,-5.0,-4.0,-1.0,0.0,0.0,5.0
1.6951617580687616e+18,5.0,0.0,7.0,3.0,-2.0,-2.0,-2.0,-2.0
1.6951617580837535e+18,-3.0,-1.0,10.0,4.0,2.0,1.0,0.0,0.0
1.6951617580837535e+18,-1.0,0.0,-5.0,-9.0,3.0,3.0,2.0,0.0
1.6951617580897495e+18,2.0,-2.0,6.0,1.0,-4.0,0.0,-2.0,3.0
1.695161758090751e+18,-5.0,-3.0,-1.0,11.0,0.0,-2.0,1.0,-1.0
1.695161758104764e+18,15.0,3.0,3.0,-1.0,1.0,-2.0,-1.0,8.0
1.695161758104764e+18,-13.0,-2.0,-3.0,-11.0,-3.0,-3.0,0.0,-4.0
1.6951617581057418e+18,2.0,-4.0,-7.0,-17.0,-7.0,-7.0,-4.0,0.0
1.6951617581057418e+18,-6.0,-2.0,5.0,2.0,-1.0,1.0,-1.0,-8.0
1.695161758136724e+18,-1.0,-1.0,5.0,19.0,3.0,0.0,2.0,1.0
1.6951617581457183e+18,-5.0,-4.0,-20.0,-18.0,-5.0,-2.0,-3.0,-2.0
1.6951617581457183e+18,3.0,3.0,6.0,2.0,3.0,3.0,2.0,2.0
1.6951617581457183e+18,-1.0,0.0,8.0,0.0,0.0,-2.0,-2.0,0.0
1.6951617581457183e+18,-4.0,-2.0,2.0,2.0,-1.0,-1.0,0.0,0.0
1.6951617581457183e+18,3.0,1.0,1.0,-6.0,3.0,3.0,0.0,2.0
1.6951617581467187e+18,-7.0,-1.0,-8.0,-4.0,1.0,0.0,0.0,1.0
1.6951617581467187e+18,3.0,-1.0,-3.0,3.0,0.0,0.0,-2.0,0.0
1.6951617581806966e+18,-6.0,-4.0,2.0,-2.0,-2.0,-1.0,-2.0,-3.0
1.6951617581806966e+18,-1.0,-1.0,-4.0,-3.0,-2.0,0.0,0.0,1.0
1.6951617581816963e+18,0.0,0.0,0.0,5.0,-1.0,-1.0,-1.0,-4.0
1.6951617581816963e+18,-1.0,2.0,3.0,3.0,-2.0,0.0,-1.0,0.0
1.6951617581927148e+18,-1.0,-2.0,1.0,-2.0,-2.0,1.0,-1.0,0.0
1.6951617581927148e+18,0.0,-2.0,-8.0,-7.0,1.0,-2.0,-2.0,-2.0
1.6951617581927148e+18,1.0,0.0,5.0,4.0,1.0,1.0,2.0,0.0
1.6951617581936927e+18,0.0,-1.0,-2.0,3.0,1.0,-3.0,0.0,1.0
1.695161758203886e+18,-5.0,-1.0,2.0,-4.0,-1.0,-2.0,-1.0,-2.0
1.695161758203886e+18,1.0,1.0,-7.0,-6.0,0.0,-1.0,0.0,-2.0
1.6951617582048914e+18,-1.0,0.0,3.0,-3.0,3.0,-3.0,-1.0,0.0
1.6951617582048914e+18,-1.0,-2.0,-6.0,4.0,-3.0,-1.0,-2.0,0.0
1.6951617582255444e+18,-1.0,1.0,10.0,-2.0,-2.0,1.0,0.0,-1.0
1.6951617582255444e+18,-1.0,0.0,-8.0,0.0,-1.0,2.0,0.0,0.0
1.6951617582255444e+18,1.0,4.0,9.0,5.0,2.0,1.0,0.0,-1.0
1.6951617582255444e+18,-3.0,-4.0,-26.0,-16.0,-3.0,-3.0,-2.0,-2.0
1.6951617582485258e+18,-2.0,-5.0,-1.0,-1.0,-2.0,-3.0,-2.0,-2.0
1.6951617582485258e+18,-2.0,0.0,12.0,5.0,-2.0,-3.0,1.0,-1.0
1.6951617582485258e+18,-1.0,-4.0,-15.0,-4.0,-1.0,-1.0,2.0,-2.0
1.6951617582485258e+18,2.0,2.0,7.0,2.0,-4.0,-2.0,-1.0,-2.0
1.6951617582705165e+18,-3.0,-1.0,-5.0,-3.0,0.0,2.0,0.0,-2.0
1.6951617582705165e+18,0.0,-1.0,-3.0,-1.0,-1.0,-1.0,-1.0,1.0
1.6951617582715118e+18,-1.0,0.0,3.0,-1.0,-1.0,-1.0,-1.0,-1.0
1.6951617582715118e+18,-1.0,-1.0,-1.0,0.0,-1.0,-1.0,0.0,0.0
1.6951617582934996e+18,0.0,-2.0,-3.0,1.0,-1.0,-2.0,-2.0,0.0
1.6951617582934996e+18,0.0,1.0,4.0,2.0,-1.0,-2.0,1.0,-1.0
1.6951617582934996e+18,-2.0,-1.0,-2.0,0.0,-1.0,0.0,-1.0,0.0
1.695161758294502e+18,-2.0,0.0,0.0,1.0,0.0,-1.0,-2.0,-1.0
1.695161758307491e+18,-1.0,-3.0,-6.0,-6.0,-1.0,0.0,-1.0,-1.0
1.695161758307491e+18,1.0,-1.0,1.0,3.0,1.0,-2.0,0.0,-1.0
1.6951617583084923e+18,0.0,-2.0,-2.0,2.0,-2.0,0.0,-3.0,-1.0
1.6951617583084923e+18,0.0,-2.0,0.0,-4.0,0.0,1.0,-1.0,-1.0
1.695161758322483e+18,-1.0,-1.0,2.0,-4.0,1.0,0.0,0.0,-1.0
1.695161758322483e+18,1.0,-1.0,2.0,2.0,0.0,-1.0,-1.0,-2.0
1.6951617583234852e+18,2.0,-3.0,-4.0,2.0,-2.0,-2.0,-1.0,-2.0
1.6951617583234852e+18,0.0,-2.0,4.0,-1.0,1.0,1.0,0.0,0.0
1.6951617583464722e+18,-2.0,0.0,0.0,3.0,0.0,-1.0,0.0,-1.0
1.6951617583464722e+18,1.0,-2.0,-3.0,-3.0,0.0,1.0,0.0,-2.0
1.6951617583474819e+18,0.0,2.0,3.0,1.0,0.0,0.0,0.0,-1.0
1.6951617583474819e+18,1.0,-1.0,1.0,-3.0,-1.0,-1.0,-1.0,-1.0
1.6951617583673546e+18,-1.0,-1.0,-6.0,-1.0,0.0,-1.0,0.0,0.0
1.6951617583683574e+18,0.0,-2.0,1.0,2.0,-1.0,-2.0,0.0,-2.0
1.6951617583683574e+18,-2.0,1.0,-2.0,-3.0,-1.0,0.0,-1.0,-1.0
1.6951617583683574e+18,-1.0,-1.0,0.0,1.0,-1.0,-1.0,-3.0,0.0
1.6951617583820063e+18,0.0,1.0,1.0,-2.0,-1.0,0.0,-2.0,-2.0
1.6951617583830134e+18,0.0,-1.0,-3.0,0.0,1.0,0.0,0.0,-2.0
1.6951617583830134e+18,0.0,-1.0,0.0,1.0,-2.0,1.0,0.0,-1.0
1.6951617583830134e+18,-1.0,-1.0,-4.0,-2.0,-2.0,-2.0,0.0,1.0
1.6951617584049892e+18,-2.0,0.0,-3.0,-1.0,0.0,-1.0,0.0,-1.0
1.6951617584049892e+18,-2.0,0.0,-1.0,0.0,0.0,-1.0,-2.0,1.0
1.695161758405989e+18,0.0,-2.0,-1.0,-3.0,-1.0,0.0,0.0,0.0
1.695161758405989e+18,-1.0,0.0,3.0,-1.0,-1.0,-1.0,-1.0,-2.0
1.6951617584269763e+18,1.0,-1.0,-2.0,-1.0,-1.0,-2.0,0.0,0.0
1.6951617584279775e+18,0.0,0.0,-6.0,-4.0,-2.0,-1.0,0.0,0.0
1.6951617584279775e+18,-1.0,-3.0,1.0,0.0,0.0,-1.0,0.0,0.0
1.6951617584279775e+18,0.0,1.0,2.0,2.0,-1.0,0.0,0.0,0.0
1.695161758459958e+18,-2.0,-1.0,-8.0,-3.0,-2.0,1.0,0.0,0.0
1.695161758460976e+18,-1.0,1.0,3.0,0.0,1.0,1.0,0.0,1.0
1.695161758460976e+18,-1.0,0.0,0.0,1.0,2.0,0.0,0.0,0.0
1.695161758460976e+18,0.0,-1.0,-8.0,-4.0,-2.0,-1.0,1.0,-1.0
1.6951617584735662e+18,-1.0,1.0,4.0,0.0,-2.0,-2.0,-3.0,-1.0
1.6951617584735662e+18,-1.0,0.0,-3.0,-1.0,-3.0,-1.0,0.0,-1.0
1.6951617584745672e+18,-2.0,0.0,1.0,0.0,-2.0,-2.0,-1.0,-2.0
1.6951617584745672e+18,-2.0,0.0,0.0,-2.0,0.0,-2.0,-2.0,-3.0
1.6951617584874455e+18,1.0,-2.0,1.0,-2.0,-3.0,-3.0,-3.0,-3.0
1.6951617584874455e+18,-1.0,-2.0,-3.0,-3.0,-2.0,-2.0,-2.0,-3.0
1.6951617584884477e+18,-1.0,-4.0,0.0,2.0,-1.0,-4.0,-1.0,-2.0
1.6951617584884477e+18,-2.0,-5.0,-5.0,-2.0,0.0,-1.0,-2.0,-3.0
1.695161758502431e+18,-2.0,-2.0,-3.0,-1.0,-1.0,-2.0,-2.0,-1.0
1.695161758502431e+18,0.0,-1.0,1.0,-1.0,0.0,-1.0,-1.0,-1.0
1.6951617585099773e+18,-1.0,-2.0,-5.0,-4.0,-1.0,-1.0,-1.0,-1.0
1.6951617585099773e+18,-2.0,-2.0,-2.0,0.0,-2.0,0.0,-2.0,0.0
1.6951617585344297e+18,-2.0,-1.0,1.0,2.0,-1.0,-2.0,-1.0,0.0
1.6951617585344297e+18,-3.0,-2.0,-2.0,1.0,-1.0,-1.0,0.0,-1.0
1.6951617585354286e+18,-2.0,-2.0,0.0,-2.0,0.0,-2.0,-2.0,0.0
1.6951617585354286e+18,-1.0,-1.0,1.0,1.0,0.0,-1.0,-1.0,-2.0
1.695161758548444e+18,-1.0,-2.0,1.0,0.0,-3.0,-3.0,-1.0,-1.0
1.695161758548444e+18,-1.0,-2.0,-1.0,1.0,-2.0,0.0,-2.0,0.0
1.695161758548444e+18,-1.0,-1.0,-4.0,-2.0,-2.0,0.0,-1.0,-2.0
1.695161758548444e+18,-1.0,0.0,1.0,-2.0,0.0,-1.0,-2.0,0.0
1.6951617585644337e+18,0.0,-2.0,-2.0,-3.0,-3.0,2.0,1.0,0.0
1.6951617585644337e+18,-1.0,0.0,1.0,0.0,1.0,0.0,0.0,-3.0
1.6951617585654374e+18,0.0,0.0,-1.0,0.0,-1.0,-1.0,-1.0,-2.0
1.6951617585654374e+18,-1.0,1.0,-1.0,3.0,-2.0,-3.0,-1.0,-1.0
1.695161758585473e+18,0.0,0.0,1.0,1.0,0.0,0.0,1.0,-1.0
1.6951617585864745e+18,-2.0,-2.0,-2.0,-1.0,0.0,-2.0,-1.0,0.0
1.6951617585864745e+18,-1.0,-2.0,-3.0,-2.0,-1.0,0.0,0.0,0.0
1.6951617585864745e+18,-1.0,-2.0,0.0,-2.0,1.0,-1.0,-2.0,0.0
1.6951617586627889e+18,1.0,-1.0,0.0,0.0,1.0,-2.0,-3.0,-1.0
1.6951617586627889e+18,-2.0,1.0,0.0,-1.0,-1.0,-1.0,-2.0,0.0
1.6951617586627889e+18,-2.0,1.0,2.0,1.0,0.0,-2.0,-1.0,-1.0
1.6951617586637888e+18,-1.0,1.0,-1.0,-1.0,-1.0,0.0,1.0,-2.0
1.6951617586647867e+18,-1.0,-1.0,-2.0,1.0,-1.0,-3.0,1.0,2.0
1.695161758665789e+18,2.0,-1.0,0.0,-2.0,0.0,0.0,1.0,-1.0
1.695161758677798e+18,0.0,-1.0,0.0,0.0,2.0,2.0,2.0,1.0
1.695161758677798e+18,0.0,1.0,3.0,0.0,2.0,1.0,1.0,0.0
1.6951617586797796e+18,-2.0,-2.0,0.0,0.0,-1.0,-1.0,0.0,-1.0
1.6951617586797796e+18,0.0,1.0,-9.0,-2.0,-1.0,-1.0,-1.0,0.0
1.6951617586797796e+18,-1.0,-1.0,-1.0,-3.0,-1.0,0.0,-1.0,0.0
1.695161758680814e+18,0.0,-2.0,-1.0,0.0,-1.0,0.0,1.0,-1.0
1.6951617586867758e+18,-1.0,0.0,-2.0,0.0,1.0,0.0,-2.0,-1.0
1.6951617586877755e+18,0.0,-1.0,1.0,2.0,-1.0,0.0,0.0,0.0
1.6951617586877755e+18,-1.0,0.0,-1.0,0.0,0.0,-2.0,0.0,-2.0
1.69516175868878e+18,0.0,-2.0,-1.0,0.0,-2.0,-2.0,0.0,2.0
1.6951617587054277e+18,-1.0,-1.0,-1.0,-4.0,1.0,-2.0,0.0,-2.0
1.695161758706421e+18,1.0,-2.0,2.0,-1.0,-2.0,-1.0,0.0,0.0
1.695161758706421e+18,0.0,-1.0,0.0,-1.0,-1.0,0.0,0.0,0.0
1.695161758706421e+18,1.0,0.0,1.0,-1.0,-2.0,-1.0,1.0,-1.0
1.6951617587365522e+18,-1.0,-1.0,0.0,1.0,0.0,1.0,0.0,1.0
1.6951617587365522e+18,-2.0,-2.0,-1.0,-3.0,-1.0,-1.0,-3.0,-1.0
1.6951617587375516e+18,1.0,-1.0,-1.0,0.0,-1.0,-1.0,0.0,0.0
1.6951617587375516e+18,0.0,1.0,0.0,0.0,0.0,-1.0,-1.0,-1.0
1.6951617587426004e+18,-2.0,-2.0,-4.0,-2.0,0.0,-2.0,-1.0,-1.0
1.6951617587436e+18,0.0,1.0,1.0,-1.0,-2.0,-1.0,0.0,-1.0
1.6951617587436e+18,-1.0,0.0,0.0,-1.0,-3.0,0.0,0.0,-2.0
1.6951617587446034e+18,-2.0,0.0,-1.0,-2.0,-2.0,0.0,0.0,-2.0
1.695161758775585e+18,-2.0,1.0,0.0,-2.0,-1.0,-2.0,-2.0,-1.0
1.6951617587765832e+18,0.0,-2.0,0.0,0.0,-2.0,-1.0,-1.0,-1.0
1.6951617587775818e+18,0.0,-2.0,-3.0,-1.0,-1.0,-1.0,0.0,-1.0
1.6951617587775818e+18,-1.0,1.0,3.0,1.0,1.0,-1.0,-2.0,-1.0
1.6951617587885755e+18,-2.0,-2.0,-10.0,-5.0,-3.0,1.0,0.0,-1.0
1.6951617587895747e+18,-1.0,0.0,0.0,1.0,-1.0,-2.0,-1.0,0.0
1.6951617587895747e+18,-1.0,0.0,1.0,0.0,0.0,1.0,-1.0,-1.0
1.695161758790582e+18,-2.0,-1.0,0.0,-2.0,2.0,0.0,0.0,-1.0
1.6951617588033692e+18,-1.0,0.0,2.0,3.0,-1.0,-1.0,0.0,-2.0
1.6951617588033692e+18,-1.0,-1.0,-1.0,-1.0,-1.0,-1.0,1.0,0.0
1.6951617588033692e+18,-1.0,0.0,-2.0,0.0,-2.0,-1.0,-1.0,0.0
1.6951617588033692e+18,-1.0,-1.0,1.0,-2.0,-1.0,-1.0,0.0,0.0
1.6951617588283602e+18,-1.0,-1.0,-2.0,0.0,-1.0,0.0,-1.0,1.0
1.6951617588453514e+18,-1.0,-1.0,-1.0,0.0,1.0,0.0,1.0,-1.0
1.6951617588453514e+18,1.0,-1.0,3.0,1.0,0.0,1.0,-1.0,-2.0
1.6951617588463575e+18,-1.0,-2.0,-3.0,-1.0,-3.0,0.0,-2.0,-1.0
1.6951617588483425e+18,0.0,-1.0,1.0,0.0,1.0,1.0,-2.0,-1.0
1.6951617588483425e+18,-1.0,-1.0,0.0,-2.0,1.0,-1.0,0.0,-1.0
1.6951617588483425e+18,-1.0,0.0,0.0,-3.0,-2.0,-1.0,0.0,-1.0
1.695161758852339e+18,-1.0,-1.0,0.0,0.0,-2.0,-2.0,-1.0,0.0
1.695161758863333e+18,-1.0,-2.0,0.0,-3.0,-1.0,0.0,0.0,0.0
1.695161758864333e+18,-2.0,-1.0,0.0,1.0,0.0,-3.0,-1.0,-1.0
1.695161758864333e+18,-1.0,1.0,4.0,9.0,-4.0,-2.0,-1.0,-3.0
1.6951617588653322e+18,1.0,-1.0,-3.0,-3.0,2.0,1.0,3.0,2.0
1.6951617588893176e+18,0.0,0.0,3.0,2.0,1.0,1.0,0.0,0.0
1.6951617588903178e+18,0.0,-2.0,1.0,-2.0,-3.0,-4.0,-2.0,-2.0
1.6951617588913178e+18,-1.0,-1.0,-4.0,-8.0,-6.0,-3.0,-2.0,1.0
1.6951617588913178e+18,-2.0,1.0,0.0,0.0,2.0,2.0,-1.0,-4.0
1.695161758917302e+18,0.0,1.0,0.0,2.0,3.0,2.0,2.0,2.0
1.6951617589183035e+18,1.0,0.0,3.0,3.0,1.0,1.0,0.0,-1.0
1.6951617589193006e+18,-2.0,-3.0,-11.0,-8.0,-1.0,-3.0,-3.0,-3.0
1.6951617589212987e+18,-2.0,-2.0,-1.0,0.0,-3.0,0.0,-2.0,0.0
1.695161758922301e+18,0.0,-3.0,-1.0,-3.0,-1.0,-3.0,-1.0,-2.0
1.695161758922301e+18,-1.0,-1.0,-1.0,0.0,0.0,0.0,-1.0,0.0
1.6951617589233009e+18,0.0,-1.0,2.0,0.0,1.0,-1.0,-1.0,1.0
1.6951617589233009e+18,-1.0,0.0,-2.0,1.0,-1.0,-1.0,0.0,-1.0
1.695161758976268e+18,-1.0,-1.0,-3.0,-3.0,-3.0,-3.0,-1.0,-1.0
1.695161758976268e+18,-2.0,-1.0,-3.0,-3.0,0.0,-2.0,0.0,0.0
1.695161758977272e+18,-1.0,2.0,1.0,0.0,0.0,-1.0,0.0,0.0
1.695161758977272e+18,1.0,-1.0,-1.0,-2.0,0.0,-1.0,-1.0,0.0
1.695161758977272e+18,-1.0,-1.0,3.0,-1.0,-2.0,1.0,0.0,-2.0
1.695161758978267e+18,-2.0,-1.0,-1.0,-1.0,-1.0,0.0,0.0,1.0
1.695161758978267e+18,-1.0,0.0,-2.0,-1.0,2.0,-1.0,0.0,-1.0
1.695161758978267e+18,-1.0,0.0,-2.0,-1.0,-3.0,-2.0,-2.0,-1.0
1.6951617589912584e+18,0.0,-1.0,-2.0,1.0,-3.0,-1.0,-1.0,-2.0
1.6951617589912584e+18,0.0,-1.0,-1.0,-2.0,-2.0,-1.0,-2.0,-2.0
1.6951617589912584e+18,-1.0,-1.0,-1.0,-3.0,1.0,2.0,-1.0,-1.0
1.6951617589912584e+18,-1.0,0.0,1.0,2.0,-2.0,-2.0,-1.0,0.0
1.69516175900525e+18,1.0,0.0,-1.0,-5.0,-2.0,-2.0,-2.0,-1.0
1.69516175900525e+18,-1.0,0.0,-1.0,-1.0,1.0,0.0,-2.0,0.0
1.6951617590122527e+18,0.0,-1.0,2.0,0.0,2.0,1.0,0.0,0.0
1.6951617590132467e+18,-2.0,-1.0,-2.0,-2.0,-1.0,1.0,1.0,-2.0
1.6951617590282378e+18,-1.0,-2.0,-3.0,-2.0,-1.0,-4.0,-3.0,-2.0
1.6951617590282378e+18,0.0,-2.0,-1.0,0.0,-3.0,-1.0,-3.0,-1.0
1.6951617590282378e+18,0.0,1.0,0.0,-1.0,-3.0,-6.0,1.0,0.0
1.6951617590292367e+18,1.0,-2.0,-2.0,-1.0,-2.0,-8.0,-2.0,0.0
1.6951617590442314e+18,0.0,1.0,2.0,1.0,-2.0,15.0,2.0,0.0
1.6951617590512312e+18,1.0,7.0,-2.0,0.0,7.0,0.0,3.0,7.0
1.6951617590562235e+18,-8.0,-2.0,6.0,13.0,1.0,-2.0,-2.0,-15.0
1.695161759057221e+18,6.0,3.0,-2.0,-3.0,10.0,11.0,3.0,11.0
1.695161759065239e+18,3.0,-28.0,-2.0,5.0,5.0,-1.0,-4.0,-11.0
1.695161759065239e+18,-10.0,1.0,-13.0,-25.0,-20.0,-9.0,-13.0,-1.0
1.6951617590662154e+18,2.0,0.0,-1.0,-2.0,-2.0,-3.0,10.0,-5.0
1.6951617590662154e+18,-6.0,3.0,3.0,6.0,4.0,-1.0,-5.0,3.0
1.695161759087207e+18,-2.0,6.0,6.0,3.0,2.0,5.0,1.0,16.0
1.6951617590882074e+18,-6.0,0.0,7.0,12.0,12.0,7.0,-2.0,-41.0
1.6951617590882074e+18,5.0,0.0,-6.0,-10.0,-9.0,-3.0,-10.0,21.0
1.6951617590882074e+18,-12.0,-10.0,-8.0,-13.0,-14.0,-14.0,15.0,11.0
1.6951617591021947e+18,4.0,2.0,2.0,0.0,2.0,-3.0,19.0,-5.0
1.6951617591021947e+18,-1.0,14.0,2.0,2.0,6.0,18.0,-6.0,14.0
1.6951617591181857e+18,24.0,-12.0,5.0,5.0,1.0,-8.0,-38.0,-52.0
1.695161759119185e+18,-48.0,-17.0,-5.0,-3.0,-1.0,8.0,-6.0,-26.0
1.6951617591292042e+18,19.0,33.0,-1.0,-6.0,-7.0,-9.0,10.0,67.0
1.695161759135201e+18,-21.0,-52.0,-5.0,-4.0,-6.0,-12.0,8.0,-13.0
1.6951617591361754e+18,-8.0,3.0,-2.0,4.0,8.0,5.0,-6.0,-8.0
1.6951617591361754e+18,36.0,35.0,8.0,1.0,1.0,-4.0,-39.0,-42.0
1.695161759148172e+18,-19.0,-13.0,-8.0,-5.0,-5.0,-13.0,4.0,12.0
1.695161759148172e+18,7.0,45.0,5.0,1.0,2.0,6.0,8.0,34.0
1.6951617591491679e+18,-20.0,-45.0,-3.0,-2.0,-2.0,-4.0,-18.0,11.0
1.6951617591491679e+18,19.0,-20.0,3.0,1.0,2.0,13.0,40.0,4.0
1.69516175916216e+18,12.0,41.0,2.0,-5.0,-5.0,0.0,-10.0,-92.0
1.69516175916216e+18,5.0,-25.0,-5.0,2.0,3.0,12.0,27.0,7.0
1.6951617591781624e+18,-19.0,0.0,-2.0,-6.0,-7.0,-7.0,9.0,48.0
1.695161759179152e+18,22.0,14.0,-2.0,-1.0,1.0,-3.0,-12.0,11.0
1.6951617591931546e+18,1.0,-17.0,6.0,8.0,8.0,10.0,17.0,48.0
1.6951617591941422e+18,24.0,3.0,-4.0,-2.0,-1.0,0.0,25.0,-54.0
1.6951617591941422e+18,8.0,21.0,-1.0,-5.0,-3.0,4.0,-10.0,19.0
1.6951617591941422e+18,1.0,4.0,-2.0,-4.0,-3.0,1.0,24.0,45.0
1.6951617592181292e+18,-12.0,-5.0,-2.0,-4.0,-7.0,-15.0,-67.0,-21.0
1.6951617592231268e+18,8.0,-24.0,-3.0,1.0,-1.0,-9.0,-28.0,-12.0
1.6951617592241252e+18,10.0,-9.0,-4.0,-2.0,5.0,7.0,46.0,-10.0
1.6951617592241252e+18,-28.0,17.0,4.0,6.0,-3.0,-18.0,-44.0,24.0
1.6951617592401193e+18,51.0,7.0,-3.0,-1.0,-3.0,-3.0,5.0,16.0
1.6951617592401193e+18,-20.0,-4.0,6.0,6.0,1.0,10.0,37.0,-2.0
1.6951617592411164e+18,19.0,18.0,-7.0,-11.0,-2.0,-1.0,-7.0,-14.0
1.6951617592411164e+18,-69.0,-21.0,-3.0,-2.0,-2.0,3.0,-15.0,-77.0
1.695161759245118e+18,27.0,11.0,5.0,8.0,7.0,9.0,45.0,53.0
1.695161759245118e+18,21.0,8.0,-3.0,3.0,0.0,-4.0,-41.0,-32.0
1.6951617592531087e+18,-31.0,-14.0,-1.0,3.0,-1.0,4.0,41.0,42.0
1.6951617592531087e+18,87.0,49.0,14.0,6.0,6.0,18.0,18.0,61.0
1.6951617592680996e+18,-34.0,-48.0,-9.0,-1.0,3.0,10.0,-9.0,-7.0
1.6951617592691036e+18,-53.0,10.0,1.0,-4.0,-9.0,-22.0,-2.0,2.0
1.6951617592691036e+18,-23.0,-16.0,-2.0,-3.0,4.0,20.0,12.0,-96.0
1.6951617592691036e+18,63.0,6.0,-1.0,0.0,-4.0,1.0,16.0,63.0
1.6951617592920865e+18,33.0,8.0,9.0,4.0,3.0,8.0,43.0,-8.0
1.6951617592920865e+18,-30.0,2.0,-10.0,-9.0,-5.0,1.0,-41.0,-53.0
1.695161759293085e+18,3.0,24.0,9.0,5.0,-4.0,-19.0,-28.0,90.0
1.695161759293085e+18,-72.0,-48.0,-10.0,-5.0,-11.0,-17.0,-30.0,-94.0
1.6951617593120727e+18,-22.0,-1.0,-10.0,-13.0,0.0,-4.0,-55.0,30.0
1.6951617593120727e+18,5.0,-9.0,-2.0,0.0,0.0,-14.0,-1.0,-6.0
1.6951617593220915e+18,-60.0,3.0,1.0,1.0,4.0,1.0,9.0,-5.0
1.6951617593260685e+18,91.0,20.0,9.0,4.0,2.0,9.0,-1.0,-6.0
1.695161759328067e+18,-42.0,-28.0,-7.0,1.0,-7.0,-5.0,0.0,-70.0
1.695161759328067e+18,-1.0,13.0,4.0,-3.0,6.0,6.0,-10.0,24.0
1.695161759328067e+18,24.0,-5.0,-10.0,-12.0,-4.0,2.0,-23.0,50.0
1.6951617593290644e+18,-9.0,-1.0,-1.0,6.0,7.0,0.0,21.0,-20.0
1.6951617593680415e+18,30.0,4.0,-3.0,-3.0,-2.0,13.0,24.0,49.0
1.6951617593680415e+18,34.0,8.0,1.0,-2.0,-5.0,-14.0,-1.0,-33.0
1.6951617593680415e+18,8.0,4.0,9.0,10.0,10.0,13.0,-2.0,-56.0
1.6951617593690463e+18,-56.0,-36.0,-15.0,-5.0,-1.0,8.0,5.0,37.0
1.6951617593730378e+18,1.0,32.0,4.0,-1.0,-3.0,-17.0,-19.0,-33.0
1.6951617593730378e+18,19.0,-13.0,8.0,7.0,-2.0,-4.0,0.0,32.0
1.695161759374038e+18,28.0,-10.0,-16.0,-19.0,-8.0,-10.0,-26.0,55.0
1.695161759374038e+18,2.0,18.0,2.0,4.0,3.0,-10.0,-9.0,17.0
1.695161759404021e+18,-49.0,-16.0,-1.0,2.0,-1.0,2.0,-2.0,-43.0
1.695161759404021e+18,-16.0,11.0,1.0,0.0,-3.0,1.0,7.0,16.0
1.695161759405024e+18,43.0,-11.0,-4.0,1.0,1.0,-6.0,6.0,-22.0
1.695161759405024e+18,19.0,-17.0,-8.0,-3.0,0.0,0.0,8.0,8.0
1.6951617594060206e+18,-9.0,-24.0,-2.0,-6.0,-5.0,-1.0,-11.0,-24.0
1.6951617594060206e+18,9.0,19.0,1.0,3.0,5.0,4.0,-28.0,40.0
1.695161759438025e+18,4.0,8.0,2.0,4.0,-1.0,-4.0,14.0,-2.0
1.6951617594390042e+18,-18.0,-11.0,-3.0,-5.0,0.0,-4.0,7.0,-16.0
1.6951617594390042e+18,2.0,14.0,-4.0,4.0,2.0,-18.0,-52.0,-77.0
1.6951617594390042e+18,11.0,-18.0,-5.0,-16.0,-6.0,8.0,1.0,38.0
1.6951617594390042e+18,-27.0,8.0,4.0,11.0,-1.0,-16.0,-51.0,-102.0
1.6951617594390042e+18,15.0,19.0,11.0,4.0,-3.0,11.0,19.0,45.0
1.6951617594559926e+18,3.0,-60.0,-8.0,1.0,1.0,-13.0,4.0,58.0
1.6951617594559926e+18,-14.0,1.0,-3.0,-9.0,-6.0,0.0,-20.0,12.0
1.695161759491975e+18,-42.0,2.0,-5.0,-8.0,-5.0,-9.0,-16.0,-13.0
1.695161759491975e+18,22.0,16.0,6.0,7.0,6.0,14.0,6.0,18.0
1.695161759514957e+18,-20.0,6.0,-2.0,-7.0,-3.0,8.0,20.0,18.0
1.695161759514957e+18,4.0,-11.0,4.0,9.0,-1.0,3.0,37.0,11.0
1.6951617595319519e+18,16.0,-7.0,-3.0,-18.0,-10.0,-12.0,-8.0,45.0
1.6951617595319519e+18,-48.0,-22.0,2.0,10.0,-2.0,-3.0,-16.0,-122.0
1.6951617595339466e+18,-18.0,8.0,-9.0,-19.0,-8.0,-20.0,-32.0,71.0
1.6951617595339466e+18,22.0,2.0,1.0,5.0,9.0,17.0,4.0,-32.0
1.6951617595339466e+18,-16.0,24.0,-14.0,-3.0,-13.0,-24.0,-33.0,-32.0
1.6951617595339466e+18,-13.0,-8.0,4.0,9.0,14.0,22.0,42.0,16.0
1.6951617595459438e+18,84.0,-5.0,-5.0,6.0,1.0,2.0,30.0,33.0
1.6951617595459438e+18,-34.0,-2.0,-8.0,-16.0,2.0,-15.0,-13.0,16.0
1.6951617595689265e+18,17.0,5.0,12.0,10.0,10.0,33.0,45.0,-27.0
1.6951617595689265e+18,-21.0,8.0,2.0,-12.0,-6.0,3.0,10.0,-17.0
1.6951617595699277e+18,2.0,4.0,8.0,2.0,-3.0,-9.0,10.0,-37.0
1.6951617595699277e+18,19.0,5.0,0.0,-4.0,-3.0,-23.0,-14.0,60.0
1.6951617596069084e+18,-16.0,2.0,-2.0,0.0,13.0,38.0,30.0,5.0
1.6951617596079068e+18,-1.0,-10.0,-3.0,0.0,-2.0,-9.0,16.0,-21.0
1.6951617596149028e+18,-16.0,6.0,6.0,3.0,-1.0,-5.0,-57.0,-10.0
1.6951617596159004e+18,-15.0,-2.0,1.0,-2.0,-6.0,-10.0,-8.0,-28.0
1.6951617596159004e+18,22.0,4.0,-2.0,0.0,-2.0,-1.0,29.0,36.0
1.6951617596169037e+18,-3.0,4.0,-1.0,-10.0,-6.0,-6.0,5.0,17.0
1.695161759621896e+18,-16.0,5.0,-1.0,5.0,2.0,4.0,-7.0,-45.0
1.695161759621896e+18,13.0,2.0,-3.0,5.0,3.0,-1.0,-33.0,-4.0
1.6951617596229135e+18,-3.0,0.0,-3.0,-3.0,-8.0,-2.0,35.0,12.0
1.6951617596229135e+18,11.0,-10.0,-8.0,-13.0,-9.0,-16.0,-52.0,-27.0
1.6951617596429084e+18,21.0,0.0,3.0,1.0,5.0,5.0,29.0,35.0
1.6951617596429084e+18,6.0,6.0,-2.0,0.0,-4.0,2.0,16.0,-19.0
1.6951617596438838e+18,-32.0,-32.0,4.0,6.0,3.0,-6.0,-31.0,-19.0
1.6951617596438838e+18,4.0,-11.0,-5.0,-4.0,-5.0,-9.0,-19.0,-11.0
1.6951617596598753e+18,5.0,-1.0,-6.0,-6.0,-4.0,0.0,7.0,6.0
1.6951617596598753e+18,12.0,-4.0,-5.0,-7.0,-11.0,-2.0,9.0,-27.0
1.6951617596608745e+18,-5.0,16.0,6.0,-8.0,-3.0,-3.0,15.0,27.0
1.6951617596608745e+18,-9.0,-5.0,-3.0,20.0,33.0,11.0,9.0,4.0
1.695161759696856e+18,14.0,15.0,0.0,8.0,1.0,-3.0,-13.0,-3.0
1.695161759696856e+18,-5.0,-12.0,-4.0,-16.0,-12.0,-8.0,-3.0,1.0
1.6951617596978532e+18,-26.0,-8.0,-1.0,-13.0,-22.0,-7.0,-19.0,-48.0
1.6951617596978532e+18,14.0,14.0,4.0,9.0,8.0,-4.0,-4.0,19.0
1.6951617596998536e+18,42.0,24.0,7.0,6.0,15.0,15.0,39.0,58.0
1.6951617596998536e+18,-8.0,-8.0,-5.0,9.0,5.0,5.0,24.0,-29.0
1.6951617597208394e+18,-7.0,-3.0,-2.0,7.0,1.0,-5.0,-26.0,10.0
1.6951617597218388e+18,-9.0,-2.0,-3.0,-16.0,-14.0,-3.0,-12.0,-36.0
1.6951617597218388e+18,-16.0,-28.0,-7.0,-6.0,-10.0,-8.0,-8.0,-22.0
1.6951617597228388e+18,6.0,10.0,3.0,4.0,-2.0,-2.0,11.0,36.0
1.6951617597228388e+18,-10.0,-13.0,0.0,11.0,2.0,-1.0,-4.0,-41.0
1.6951617597228388e+18,6.0,3.0,-3.0,-19.0,-10.0,-5.0,-9.0,10.0
1.6951617597578184e+18,2.0,5.0,-5.0,-3.0,-3.0,1.0,11.0,3.0
1.6951617597578184e+18,-5.0,-11.0,3.0,7.0,2.0,-1.0,-5.0,19.0
1.6951617597588175e+18,0.0,6.0,0.0,-2.0,6.0,0.0,4.0,-18.0
1.6951617597588175e+18,4.0,11.0,-3.0,-1.0,-7.0,-6.0,-8.0,6.0
1.6951617597738094e+18,-2.0,-9.0,-4.0,-15.0,-11.0,0.0,4.0,0.0
1.6951617597738094e+18,0.0,-12.0,1.0,21.0,29.0,5.0,-7.0,11.0
1.6951617597738094e+18,0.0,2.0,1.0,-3.0,-3.0,-2.0,-1.0,-11.0
1.695161759774809e+18,7.0,-3.0,-3.0,-4.0,-4.0,-2.0,6.0,8.0
1.695161759774809e+18,-5.0,-6.0,0.0,-7.0,-6.0,-4.0,-7.0,-14.0
1.695161759774809e+18,0.0,7.0,-2.0,-6.0,-9.0,-2.0,-2.0,3.0
1.695161759775808e+18,4.0,2.0,0.0,3.0,1.0,2.0,7.0,-4.0
1.695161759775808e+18,-3.0,0.0,3.0,6.0,-2.0,0.0,-4.0,3.0
1.6951617597947978e+18,-2.0,0.0,-2.0,1.0,3.0,0.0,-1.0,-13.0
1.6951617597947978e+18,1.0,2.0,-2.0,-2.0,-1.0,-3.0,-5.0,11.0
1.6951617597957972e+18,2.0,4.0,0.0,-6.0,3.0,2.0,5.0,0.0
1.6951617597957972e+18,-1.0,-1.0,2.0,-2.0,-4.0,-3.0,-3.0,-10.0
1.6951617598077896e+18,0.0,-2.0,2.0,4.0,-1.0,-2.0,-2.0,0.0
1.6951617598077896e+18,2.0,1.0,-4.0,-7.0,-1.0,0.0,3.0,8.0
1.6951617598077896e+18,-1.0,2.0,0.0,11.0,5.0,4.0,-1.0,-8.0
1.695161759808789e+18,1.0,-3.0,1.0,-2.0,1.0,0.0,-2.0,0.0
1.695161759846767e+18,-4.0,-1.0,1.0,-8.0,-7.0,-3.0,-1.0,-3.0
1.695161759846767e+18,-1.0,-1.0,-4.0,-2.0,-1.0,0.0,-2.0,4.0
1.6951617598477668e+18,1.0,1.0,-4.0,-4.0,-1.0,5.0,3.0,-6.0
1.6951617598477668e+18,-1.0,-4.0,-1.0,7.0,1.0,-1.0,-5.0,-1.0
1.6951617598497664e+18,0.0,-3.0,-3.0,0.0,1.0,0.0,2.0,4.0
1.6951617598497664e+18,1.0,3.0,-2.0,-7.0,-7.0,-3.0,-4.0,-1.0
1.6951617598997422e+18,-4.0,1.0,1.0,2.0,0.0,1.0,0.0,-1.0
1.6951617598997422e+18,1.0,0.0,0.0,0.0,0.0,0.0,1.0,2.0
1.695161759900742e+18,-1.0,1.0,-1.0,-2.0,5.0,0.0,-1.0,-1.0
1.6951617599017377e+18,-3.0,-2.0,-3.0,-8.0,-5.0,-3.0,0.0,-1.0
1.6951617599017377e+18,1.0,0.0,-5.0,-7.0,-3.0,-4.0,-1.0,4.0
1.6951617599027382e+18,-1.0,-4.0,-5.0,2.0,2.0,3.0,3.0,1.0
1.69516175993072e+18,-3.0,-3.0,7.0,6.0,-2.0,-3.0,-3.0,-4.0
1.6951617599337185e+18,-1.0,0.0,-6.0,-4.0,4.0,1.0,2.0,0.0
1.695161759934718e+18,0.0,0.0,6.0,-3.0,-1.0,0.0,2.0,-2.0
1.695161759934718e+18,0.0,-2.0,2.0,3.0,-3.0,-1.0,-1.0,0.0
1.6951617599507087e+18,-1.0,-4.0,-22.0,-12.0,-4.0,-3.0,-4.0,0.0
1.6951617599507087e+18,-5.0,0.0,6.0,7.0,-2.0,2.0,-1.0,-8.0
1.69516175995171e+18,-1.0,-1.0,0.0,-6.0,-1.0,3.0,-1.0,-3.0
1.69516175995171e+18,1.0,1.0,-1.0,-2.0,3.0,-7.0,0.0,0.0
1.69516175995171e+18,0.0,-1.0,6.0,5.0,0.0,8.0,2.0,-1.0
1.69516175995171e+18,1.0,-1.0,-2.0,-4.0,-1.0,-4.0,-2.0,3.0
1.69516175995171e+18,-2.0,-2.0,-4.0,-1.0,-5.0,-9.0,-4.0,-4.0
1.6951617599527076e+18,-2.0,-1.0,4.0,2.0,-1.0,5.0,-2.0,-3.0
1.6951617599627018e+18,-3.0,1.0,-3.0,-1.0,6.0,5.0,3.0,-4.0
1.6951617599627018e+18,3.0,0.0,-8.0,-7.0,-1.0,-22.0,0.0,4.0
1.6951617599627018e+18,1.0,1.0,-1.0,-1.0,0.0,26.0,2.0,1.0
1.6951617599627018e+18,-3.0,-3.0,-4.0,-8.0,-10.0,-2.0,-2.0,-2.0
1.6951617599756946e+18,5.0,-3.0,10.0,6.0,5.0,0.0,0.0,5.0
1.6951617599756946e+18,0.0,1.0,-1.0,6.0,-1.0,1.0,-1.0,-3.0
1.6951617599756946e+18,-1.0,-3.0,-10.0,-9.0,-2.0,-15.0,-2.0,-2.0
1.6951617599756946e+18,-1.0,-4.0,-3.0,-4.0,-3.0,-4.0,-6.0,-2.0
1.695161759987687e+18,3.0,0.0,0.0,1.0,-4.0,1.0,3.0,1.0
1.695161759987687e+18,-3.0,-3.0,-5.0,-4.0,1.0,1.0,0.0,-1.0
1.695161759988687e+18,5.0,-1.0,-1.0,-2.0,-5.0,-6.0,-1.0,-2.0
1.695161759988687e+18,1.0,-1.0,-4.0,-2.0,2.0,5.0,-1.0,3.0
1.695161760013672e+18,-1.0,3.0,-1.0,-4.0,1.0,-4.0,0.0,-2.0
1.695161760013672e+18,3.0,0.0,10.0,13.0,1.0,4.0,-1.0,3.0
1.695161760013672e+18,-2.0,-4.0,-9.0,-11.0,0.0,2.0,1.0,4.0
1.6951617600146737e+18,-1.0,-1.0,-1.0,3.0,3.0,0.0,0.0,-4.0
1.695161760040657e+18,0.0,1.0,-3.0,8.0,1.0,-2.0,-1.0,-3.0
1.695161760040657e+18,-6.0,-1.0,9.0,4.0,-6.0,0.0,-4.0,-1.0
1.6951617600416563e+18,1.0,1.0,-9.0,-7.0,1.0,0.0,1.0,6.0
1.6951617600416563e+18,0.0,2.0,5.0,-1.0,3.0,-3.0,-1.0,0.0
1.6951617600476526e+18,-1.0,-3.0,0.0,-1.0,0.0,-1.0,-1.0,-2.0
1.6951617600476526e+18,-1.0,1.0,10.0,-1.0,-1.0,3.0,0.0,-3.0
1.6951617600476526e+18,-3.0,-3.0,-24.0,-8.0,-1.0,-3.0,-1.0,-6.0
1.6951617600476526e+18,2.0,1.0,7.0,6.0,3.0,-1.0,1.0,2.0
1.6951617600866294e+18,-1.0,1.0,-2.0,4.0,-3.0,0.0,0.0,-2.0
1.6951617600866294e+18,-2.0,-6.0,-6.0,-10.0,-2.0,1.0,-3.0,0.0
1.6951617600870095e+18,-1.0,2.0,15.0,11.0,0.0,-4.0,-1.0,-2.0
1.6951617600870095e+18,0.0,1.0,-5.0,-4.0,-4.0,-4.0,-2.0,0.0
1.695161760088013e+18,-2.0,-1.0,3.0,0.0,1.0,2.0,-1.0,0.0
1.695161760088013e+18,-1.0,1.0,2.0,4.0,1.0,1.0,1.0,0.0
1.6951617600998075e+18,0.0,2.0,4.0,14.0,4.0,1.0,1.0,0.0
1.6951617600998075e+18,0.0,0.0,4.0,-2.0,-4.0,1.0,-1.0,-1.0
1.6951617601242775e+18,-1.0,-2.0,15.0,5.0,-4.0,-4.0,-1.0,-3.0
1.695161760125275e+18,2.0,1.0,-24.0,-7.0,5.0,0.0,0.0,1.0
1.695161760125275e+18,-2.0,-1.0,9.0,3.0,1.0,2.0,-1.0,0.0
1.695161760125275e+18,-1.0,0.0,2.0,3.0,1.0,0.0,-1.0,1.0
1.6951617601371543e+18,-1.0,-2.0,-10.0,-6.0,-2.0,-1.0,-2.0,0.0
1.6951617601371543e+18,2.0,-1.0,1.0,-2.0,-3.0,3.0,-1.0,2.0
1.6951617601451423e+18,0.0,0.0,5.0,4.0,3.0,-2.0,0.0,1.0
1.6951617601461402e+18,-2.0,-2.0,-5.0,-1.0,-1.0,-3.0,0.0,-1.0
1.6951617601471396e+18,-1.0,-3.0,-6.0,-7.0,-1.0,-2.0,-1.0,-1.0
1.6951617601471396e+18,-1.0,-2.0,-1.0,-3.0,-3.0,1.0,0.0,1.0
1.6951617601571361e+18,1.0,-2.0,4.0,3.0,1.0,-1.0,-1.0,-3.0
1.6951617601581363e+18,-3.0,-1.0,-1.0,-2.0,-3.0,-1.0,-2.0,-1.0
1.695161760167131e+18,0.0,-2.0,-7.0,-6.0,-1.0,0.0,-1.0,-2.0
1.6951617601681283e+18,0.0,0.0,1.0,0.0,-1.0,0.0,1.0,-1.0
1.6951617601751475e+18,-2.0,-2.0,-2.0,0.0,0.0,1.0,0.0,-1.0
1.6951617601751475e+18,0.0,-3.0,-4.0,-3.0,-3.0,-2.0,-3.0,-1.0
1.6951617602021112e+18,1.0,1.0,4.0,1.0,1.0,-1.0,1.0,-2.0
1.6951617602021112e+18,1.0,0.0,-1.0,-1.0,-1.0,-1.0,0.0,-1.0
1.6951617602031132e+18,-1.0,-1.0,0.0,-1.0,-2.0,-2.0,-2.0,-2.0
1.6951617602031132e+18,-1.0,0.0,-4.0,-1.0,-2.0,1.0,-1.0,0.0
1.6951617602131018e+18,-2.0,1.0,0.0,-2.0,-1.0,-1.0,-1.0,-2.0
1.6951617602131018e+18,-2.0,-4.0,-2.0,-1.0,-2.0,1.0,-1.0,-2.0
1.6951617602141046e+18,-2.0,2.0,-1.0,1.0,-1.0,-1.0,-1.0,-2.0
1.6951617602141046e+18,1.0,0.0,0.0,2.0,1.0,-1.0,1.0,0.0
1.6951617602355855e+18,-3.0,-2.0,-1.0,-1.0,-1.0,-2.0,-1.0,-2.0
1.6951617602355855e+18,0.0,1.0,-3.0,-2.0,-1.0,-1.0,-2.0,0.0
1.6951617602365934e+18,-2.0,-1.0,4.0,2.0,0.0,0.0,-2.0,-1.0
1.6951617602365934e+18,-1.0,-2.0,-3.0,-3.0,-2.0,0.0,0.0,-2.0
1.6951617602506002e+18,0.0,-2.0,-4.0,-4.0,-1.0,-1.0,-1.0,0.0
1.6951617602506002e+18,0.0,-1.0,-1.0,0.0,1.0,-2.0,-1.0,0.0
1.6951617602506002e+18,-1.0,-2.0,1.0,1.0,0.0,-1.0,0.0,-3.0
1.6951617602506002e+18,0.0,-1.0,-1.0,0.0,1.0,-1.0,2.0,-2.0
1.695161760264582e+18,-1.0,-2.0,-1.0,-1.0,-1.0,-1.0,0.0,0.0
1.695161760264582e+18,-1.0,1.0,-1.0,-3.0,-1.0,0.0,0.0,-1.0
1.6951617602905318e+18,0.0,0.0,-3.0,-2.0,0.0,-1.0,0.0,0.0
1.695161760295528e+18,-2.0,-2.0,-2.0,0.0,0.0,-1.0,0.0,-1.0
1.6951617602965514e+18,0.0,0.0,-1.0,-1.0,-1.0,1.0,1.0,0.0
1.6951617602965514e+18,0.0,0.0,-2.0,-3.0,-2.0,-1.0,-2.0,-1.0
1.6951617602965514e+18,0.0,0.0,0.0,-5.0,-1.0,1.0,-2.0,0.0
1.6951617602965514e+18,-1.0,-1.0,0.0,2.0,-2.0,-1.0,-1.0,0.0
1.6951617603095186e+18,-1.0,2.0,0.0,1.0,-1.0,-1.0,-2.0,0.0
1.6951617603105224e+18,-1.0,-2.0,-4.0,-2.0,-3.0,0.0,0.0,-3.0
1.6951617603105224e+18,0.0,0.0,0.0,0.0,0.0,-1.0,-3.0,-2.0
1.6951617603105224e+18,1.0,1.0,-1.0,-3.0,-1.0,-1.0,0.0,-1.0
1.695161760325514e+18,0.0,-3.0,-3.0,-1.0,-1.0,-1.0,0.0,1.0
1.695161760326529e+18,0.0,0.0,-1.0,1.0,0.0,1.0,0.0,-1.0
1.6951617603405604e+18,0.0,-1.0,0.0,-2.0,-1.0,0.0,0.0,0.0
1.6951617603405604e+18,1.0,0.0,4.0,-1.0,0.0,-2.0,-1.0,-1.0
1.6951617603535521e+18,0.0,-1.0,-4.0,-1.0,-1.0,-1.0,0.0,-2.0
1.695161760354552e+18,0.0,1.0,4.0,2.0,1.0,0.0,-1.0,-1.0
1.695161760354552e+18,-4.0,-1.0,-4.0,0.0,-1.0,-1.0,-1.0,-2.0
1.695161760354552e+18,-2.0,-1.0,3.0,2.0,-2.0,-1.0,-2.0,0.0
1.6951617603785395e+18,-2.0,-4.0,-9.0,-7.0,-2.0,-1.0,-1.0,-2.0
1.6951617603785395e+18,1.0,1.0,4.0,1.0,0.0,0.0,0.0,1.0
1.6951617603785395e+18,0.0,-3.0,2.0,0.0,-1.0,-1.0,0.0,-1.0
1.6951617603785395e+18,-1.0,0.0,1.0,2.0,-1.0,-1.0,-3.0,-2.0
1.6951617603845384e+18,-1.0,-1.0,-7.0,-3.0,-2.0,-2.0,-2.0,-2.0
1.6951617603845384e+18,-1.0,-1.0,-3.0,-2.0,0.0,-1.0,-1.0,-2.0
1.6951617604005258e+18,0.0,-2.0,1.0,-3.0,1.0,0.0,-1.0,1.0
1.6951617604015311e+18,-1.0,0.0,1.0,1.0,-1.0,-1.0,-1.0,1.0
1.6951617604085215e+18,0.0,0.0,3.0,1.0,0.0,-1.0,-1.0,-1.0
1.6951617604095212e+18,-4.0,-3.0,3.0,-2.0,-1.0,-2.0,-2.0,-1.0
1.6951617604095212e+18,1.0,0.0,2.0,4.0,-2.0,-1.0,0.0,0.0
1.6951617604095212e+18,1.0,1.0,-1.0,-3.0,-1.0,1.0,1.0,1.0
1.6951617604386952e+18,-3.0,-3.0,-2.0,0.0,-2.0,-2.0,-1.0,-1.0
1.6951617604386952e+18,-2.0,-2.0,-2.0,-1.0,-1.0,0.0,-2.0,-1.0
1.6951617604386952e+18,0.0,-2.0,-4.0,1.0,0.0,-1.0,0.0,-2.0
1.6951617604386952e+18,0.0,-2.0,0.0,-2.0,0.0,-2.0,0.0,-1.0
1.6951617604531648e+18,2.0,1.0,3.0,0.0,0.0,0.0,-1.0,-1.0
1.6951617604531648e+18,-1.0,1.0,-1.0,-2.0,-1.0,0.0,1.0,-1.0
1.6951617604541476e+18,-2.0,0.0,-1.0,-1.0,0.0,-1.0,-1.0,0.0
1.6951617604541476e+18,-1.0,-2.0,-4.0,-2.0,0.0,-1.0,-1.0,0.0
1.6951617604765437e+18,1.0,-1.0,1.0,-3.0,-1.0,0.0,0.0,-1.0
1.6951617604845366e+18,-1.0,-1.0,-3.0,0.0,-1.0,0.0,0.0,1.0
1.695161760485536e+18,0.0,0.0,-2.0,-2.0,-1.0,-2.0,1.0,-1.0
1.695161760485536e+18,-2.0,-2.0,-2.0,-2.0,-3.0,-2.0,-1.0,-1.0
1.6951617604895363e+18,1.0,0.0,2.0,0.0,0.0,-3.0,-1.0,0.0
1.6951617604905357e+18,-2.0,-2.0,0.0,0.0,-1.0,-1.0,-1.0,2.0
1.6951617604905357e+18,-1.0,-1.0,-2.0,0.0,1.0,1.0,0.0,-1.0
1.6951617604915356e+18,-3.0,-1.0,-3.0,-3.0,0.0,1.0,-1.0,-2.0
1.6951617605148073e+18,-1.0,1.0,2.0,0.0,0.0,-1.0,0.0,-1.0
1.6951617605148073e+18,1.0,-1.0,-4.0,-2.0,0.0,-2.0,-2.0,-4.0
1.6951617605158057e+18,-2.0,0.0,0.0,-1.0,-1.0,-1.0,-1.0,0.0
1.6951617605158057e+18,1.0,-2.0,-4.0,-3.0,-2.0,-1.0,-1.0,-1.0
1.6951617605275743e+18,-1.0,0.0,0.0,0.0,-1.0,1.0,-2.0,-1.0
1.6951617605275743e+18,0.0,0.0,-3.0,0.0,0.0,-1.0,0.0,1.0
1.6951617605275743e+18,-1.0,0.0,3.0,2.0,-1.0,0.0,-1.0,-2.0
1.6951617605285768e+18,0.0,-2.0,-9.0,-1.0,-1.0,0.0,-1.0,1.0
1.6951617605535644e+18,-1.0,-1.0,2.0,1.0,-1.0,0.0,-1.0,-1.0
1.6951617605545587e+18,-1.0,-1.0,0.0,-1.0,-2.0,-1.0,-2.0,0.0
1.6951617605655537e+18,0.0,0.0,-4.0,-2.0,0.0,-1.0,-2.0,0.0
1.6951617605655537e+18,-1.0,0.0,0.0,-1.0,0.0,0.0,-1.0,-1.0
1.6951617605735478e+18,-1.0,-1.0,-1.0,-2.0,-1.0,2.0,-1.0,-1.0
1.6951617605735478e+18,-1.0,-2.0,-1.0,0.0,-1.0,-1.0,1.0,0.0
1.6951617605735478e+18,1.0,0.0,-2.0,-2.0,-1.0,-1.0,0.0,0.0
1.6951617605745485e+18,-2.0,-2.0,0.0,0.0,-1.0,-3.0,-1.0,-1.0
1.6951617605875412e+18,0.0,-2.0,-1.0,1.0,0.0,-1.0,-2.0,0.0
1.6951617605875412e+18,-1.0,-1.0,0.0,0.0,-1.0,-1.0,1.0,-2.0
1.6951617605885417e+18,-2.0,-1.0,-2.0,-3.0,-2.0,0.0,0.0,-1.0
1.6951617605885417e+18,-1.0,-1.0,1.0,-3.0,1.0,-1.0,0.0,-2.0
1.6951617606325832e+18,0.0,0.0,1.0,5.0,-1.0,0.0,-1.0,-1.0
1.6951617606335895e+18,0.0,-1.0,1.0,-2.0,1.0,0.0,-1.0,0.0
1.6951617606424735e+18,-1.0,-1.0,-8.0,-1.0,-2.0,-1.0,-1.0,0.0
1.6951617606424735e+18,-2.0,-2.0,-9.0,-4.0,-2.0,-1.0,-1.0,-1.0
1.6951617606434744e+18,-2.0,0.0,2.0,-2.0,-1.0,-1.0,-1.0,-1.0
1.6951617606434744e+18,-2.0,-2.0,4.0,-1.0,-1.0,0.0,0.0,-1.0
1.6951617606444726e+18,0.0,1.0,1.0,-1.0,-1.0,-2.0,-2.0,1.0
1.6951617606444726e+18,-1.0,1.0,-2.0,-1.0,-1.0,-1.0,-2.0,0.0
1.6951617606484672e+18,1.0,1.0,-2.0,-1.0,-2.0,-1.0,-1.0,0.0
1.6951617606494674e+18,0.0,-1.0,0.0,-1.0,0.0,1.0,-1.0,-1.0
1.6951617606504666e+18,-1.0,-3.0,3.0,0.0,0.0,-2.0,-1.0,-1.0
1.6951617606504666e+18,0.0,1.0,-4.0,-1.0,0.0,-1.0,-1.0,1.0
1.6951617606781504e+18,0.0,1.0,1.0,-1.0,-1.0,-2.0,-1.0,-1.0
1.6951617606781504e+18,1.0,-1.0,-3.0,-5.0,-2.0,-1.0,-1.0,-1.0
1.695161760679154e+18,-1.0,-3.0,0.0,-2.0,1.0,-2.0,-1.0,-1.0
1.695161760679154e+18,-1.0,1.0,2.0,4.0,2.0,0.0,0.0,0.0
1.6951617607014582e+18,-1.0,-2.0,-1.0,0.0,0.0,0.0,-1.0,-1.0
1.6951617607014582e+18,-1.0,0.0,-3.0,-1.0,-1.0,-1.0,-2.0,0.0
1.6951617607014582e+18,0.0,-5.0,-3.0,-4.0,-2.0,0.0,0.0,-2.0
1.6951617607014582e+18,0.0,1.0,7.0,0.0,-1.0,-2.0,-1.0,0.0
1.6951617607155507e+18,-3.0,-1.0,1.0,-1.0,-1.0,1.0,0.0,0.0
1.6951617607165453e+18,-1.0,-1.0,-1.0,5.0,-4.0,-3.0,-1.0,-2.0
1.6951617607165453e+18,-1.0,0.0,1.0,-1.0,-1.0,0.0,-1.0,-1.0
1.695161760717547e+18,0.0,-2.0,0.0,-3.0,-2.0,-1.0,0.0,-1.0
1.6951617607304566e+18,0.0,-2.0,1.0,-2.0,0.0,0.0,0.0,-1.0
1.6951617607304566e+18,-1.0,-2.0,0.0,-1.0,-1.0,1.0,-1.0,-2.0
1.6951617607304566e+18,-1.0,1.0,-3.0,1.0,-2.0,-2.0,0.0,0.0
1.6951617607304566e+18,-1.0,-3.0,2.0,-1.0,0.0,0.0,-2.0,-2.0
1.6951617607534769e+18,-2.0,0.0,-6.0,-2.0,1.0,-2.0,0.0,-1.0
1.6951617607534769e+18,0.0,0.0,0.0,0.0,2.0,1.0,-2.0,-1.0
1.6951617607574725e+18,0.0,1.0,-3.0,-2.0,-3.0,2.0,-1.0,0.0
1.6951617607584955e+18,1.0,0.0,1.0,0.0,-3.0,1.0,-1.0,0.0
1.69516176076747e+18,-1.0,-2.0,1.0,-1.0,-1.0,-1.0,-1.0,1.0
1.69516176076747e+18,-1.0,-1.0,-12.0,-2.0,-2.0,-2.0,-2.0,-2.0
1.6951617607684662e+18,-1.0,0.0,3.0,-2.0,-1.0,-1.0,-2.0,-1.0
1.6951617607684662e+18,-2.0,-5.0,-4.0,-2.0,-2.0,-1.0,1.0,-2.0
1.695161760791453e+18,-2.0,-1.0,-1.0,-1.0,0.0,-2.0,1.0,0.0
1.695161760791453e+18,-2.0,-1.0,2.0,-1.0,0.0,-2.0,-1.0,1.0
1.6951617607924518e+18,1.0,0.0,0.0,1.0,-1.0,-1.0,0.0,-1.0
1.6951617607924518e+18,0.0,-1.0,-1.0,0.0,-3.0,0.0,-1.0,0.0
1.6951617608204352e+18,0.0,-1.0,-2.0,-1.0,0.0,-2.0,-2.0,-2.0
1.6951617608204352e+18,0.0,1.0,-1.0,0.0,0.0,1.0,0.0,0.0
1.6951617608214354e+18,-1.0,-2.0,-1.0,-2.0,0.0,-2.0,-1.0,0.0
1.6951617608214354e+18,0.0,0.0,0.0,0.0,0.0,-2.0,0.0,1.0
1.6951617608444462e+18,1.0,0.0,-1.0,-2.0,-3.0,-1.0,1.0,0.0
1.6951617608444462e+18,-1.0,-2.0,-2.0,-4.0,-1.0,0.0,-1.0,1.0
1.6951617608454218e+18,0.0,0.0,2.0,7.0,1.0,-1.0,-1.0,-1.0
1.6951617608454218e+18,-2.0,0.0,5.0,-2.0,1.0,-1.0,0.0,-2.0
1.6951617608734497e+18,0.0,0.0,-11.0,-2.0,0.0,0.0,-1.0,-1.0
1.6951617608744507e+18,0.0,2.0,4.0,0.0,0.0,-2.0,1.0,-1.0
1.6951617608744507e+18,-2.0,-2.0,-13.0,-4.0,-2.0,-1.0,-1.0,-1.0
1.6951617608744507e+18,-1.0,-1.0,1.0,0.0,1.0,-1.0,-3.0,-1.0
1.6951617608804265e+18,-1.0,0.0,2.0,-2.0,0.0,0.0,-2.0,-2.0
1.6951617608804265e+18,-1.0,-3.0,0.0,-1.0,-1.0,0.0,0.0,-1.0
1.6951617608814313e+18,-1.0,0.0,3.0,0.0,0.0,0.0,-1.0,-1.0
1.6951617608824315e+18,-1.0,-1.0,-2.0,0.0,-1.0,-1.0,0.0,0.0
1.695161760894378e+18,-2.0,0.0,-2.0,-2.0,-2.0,-1.0,-1.0,1.0
1.695161760895376e+18,-1.0,0.0,-1.0,0.0,-1.0,-2.0,-1.0,0.0
1.695161760902834e+18,0.0,0.0,1.0,-2.0,-1.0,-1.0,-2.0,-1.0
1.695161760902834e+18,-1.0,-1.0,-2.0,0.0,-1.0,-1.0,0.0,-1.0
1.6951617609188216e+18,-1.0,-3.0,-1.0,-2.0,-2.0,-1.0,-1.0,0.0
1.6951617609198213e+18,-2.0,0.0,0.0,0.0,-1.0,-1.0,-1.0,-1.0
1.695161760920821e+18,1.0,0.0,-2.0,-2.0,0.0,-1.0,-1.0,-1.0
1.695161760920821e+18,0.0,-1.0,-3.0,-1.0,0.0,0.0,1.0,-1.0
1.695161760932814e+18,0.0,-2.0,1.0,6.0,-1.0,-2.0,0.0,0.0
1.695161760933813e+18,-1.0,0.0,2.0,-2.0,-1.0,-1.0,0.0,-2.0
1.695161760933813e+18,-2.0,-2.0,-4.0,-1.0,-1.0,-1.0,0.0,-1.0
1.695161760933813e+18,-1.0,-1.0,-2.0,-5.0,1.0,-1.0,-1.0,-1.0
1.695161760955791e+18,-1.0,1.0,4.0,4.0,1.0,-2.0,-1.0,-3.0
1.695161760955791e+18,1.0,0.0,3.0,2.0,-1.0,-2.0,0.0,0.0
1.6951617609567913e+18,-2.0,-2.0,-3.0,0.0,-1.0,-2.0,0.0,0.0
1.6951617609567913e+18,0.0,-1.0,-1.0,-1.0,-1.0,-1.0,-1.0,-2.0
1.695161760985577e+18,-1.0,0.0,-2.0,-3.0,-2.0,-2.0,-2.0,-1.0
1.695161760985577e+18,-1.0,1.0,-1.0,-1.0,-1.0,0.0,-1.0,-1.0
1.6951617609865807e+18,-1.0,0.0,4.0,0.0,0.0,-2.0,-1.0,0.0
1.6951617609865807e+18,0.0,0.0,-2.0,0.0,0.0,0.0,0.0,1.0
1.695161760992577e+18,-1.0,-2.0,-3.0,-3.0,-2.0,1.0,1.0,0.0
1.695161760992577e+18,-1.0,-3.0,-1.0,1.0,0.0,-1.0,0.0,0.0
1.695161761008167e+18,-2.0,0.0,1.0,0.0,0.0,-1.0,0.0,-1.0
1.695161761008167e+18,0.0,0.0,-5.0,-2.0,-2.0,-1.0,-1.0,-2.0
1.6951617610091602e+18,1.0,-2.0,2.0,-1.0,-1.0,-2.0,-1.0,-1.0
1.6951617610101599e+18,1.0,-1.0,-5.0,-1.0,-1.0,1.0,1.0,-1.0
1.6951617610146583e+18,0.0,-1.0,-1.0,-2.0,0.0,-1.0,0.0,-1.0
1.695161761015544e+18,0.0,0.0,0.0,0.0,1.0,-1.0,-1.0,-2.0
1.6951617610298665e+18,-3.0,-2.0,0.0,-2.0,-2.0,0.0,0.0,0.0
1.6951617610309018e+18,1.0,-1.0,-3.0,0.0,0.0,0.0,-2.0,-2.0
1.6951617610309018e+18,-1.0,-1.0,0.0,-2.0,-2.0,2.0,1.0,-1.0
1.6951617610309018e+18,0.0,-1.0,0.0,0.0,1.0,1.0,-1.0,-2.0
1.695161761068785e+18,0.0,-1.0,0.0,1.0,1.0,0.0,-3.0,-1.0
1.695161761068785e+18,-1.0,-2.0,-1.0,2.0,1.0,-1.0,0.0,-3.0
1.695161761069791e+18,2.0,1.0,1.0,1.0,-2.0,-1.0,0.0,0.0
1.695161761069791e+18,-1.0,-1.0,-1.0,-2.0,-2.0,-2.0,-1.0,1.0
1.695161761071295e+18,-1.0,0.0,-3.0,-4.0,-1.0,0.0,-1.0,-1.0
1.695161761071295e+18,1.0,1.0,-3.0,-4.0,-1.0,-2.0,-1.0,1.0
1.6951617610752924e+18,-1.0,0.0,1.0,5.0,0.0,-1.0,0.0,-1.0
1.6951617610752924e+18,-2.0,0.0,0.0,0.0,-3.0,-1.0,1.0,-1.0
1.6951617610981315e+18,0.0,-1.0,-1.0,-1.0,-1.0,-2.0,-1.0,-2.0
1.6951617610981315e+18,-1.0,-2.0,0.0,-2.0,-1.0,-1.0,-1.0,-2.0
1.6951617610991268e+18,1.0,-2.0,-4.0,-4.0,-2.0,1.0,0.0,1.0
1.6951617610991268e+18,-1.0,0.0,-1.0,0.0,-1.0,-1.0,-2.0,-1.0
1.6951617611201157e+18,0.0,0.0,1.0,1.0,0.0,0.0,-1.0,-1.0
1.6951617611201157e+18,0.0,0.0,-4.0,-5.0,-2.0,-1.0,-2.0,0.0
1.695161761128107e+18,-2.0,-1.0,1.0,-1.0,-1.0,0.0,-1.0,-1.0
1.695161761128107e+18,-1.0,-2.0,-2.0,1.0,-1.0,-2.0,-1.0,0.0
1.6951617611355697e+18,-2.0,-1.0,5.0,0.0,-2.0,0.0,2.0,0.0
1.6951617611355697e+18,-1.0,-2.0,-10.0,-1.0,-1.0,0.0,-1.0,0.0
1.6951617611365448e+18,0.0,1.0,1.0,-3.0,0.0,-2.0,-1.0,1.0
1.6951617611365448e+18,-1.0,-4.0,-5.0,-2.0,-1.0,-1.0,-1.0,-1.0
1.6951617611825546e+18,1.0,0.0,-2.0,-1.0,2.0,-2.0,-1.0,0.0
1.6951617611835564e+18,-1.0,-2.0,1.0,2.0,-1.0,2.0,0.0,1.0
1.6951617611835564e+18,-1.0,0.0,5.0,-1.0,0.0,0.0,-1.0,-2.0
1.6951617611845604e+18,0.0,-1.0,-6.0,3.0,-1.0,-1.0,-1.0,-2.0
1.695161761185559e+18,-2.0,0.0,-2.0,-2.0,-1.0,1.0,1.0,-3.0
1.695161761185559e+18,-1.0,0.0,3.0,-2.0,0.0,-1.0,0.0,1.0
1.6951617611893875e+18,0.0,-1.0,-5.0,-5.0,0.0,-1.0,-1.0,0.0
1.695161761190385e+18,0.0,-1.0,3.0,0.0,-1.0,0.0,-1.0,0.0
1.6951617611913843e+18,0.0,-2.0,-2.0,0.0,-1.0,-1.0,-1.0,1.0
1.6951617611913843e+18,-2.0,0.0,0.0,-2.0,-2.0,-1.0,0.0,-1.0
1.6951617611973834e+18,-1.0,1.0,3.0,2.0,0.0,-1.0,-2.0,0.0
1.6951617611973834e+18,1.0,0.0,1.0,-2.0,-1.0,0.0,2.0,0.0
1.6951617612105661e+18,1.0,-1.0,-4.0,-2.0,-2.0,-1.0,-2.0,1.0
1.6951617612115692e+18,0.0,-3.0,-1.0,0.0,1.0,1.0,-2.0,0.0
1.6951617612115692e+18,-1.0,0.0,3.0,2.0,-1.0,-3.0,-1.0,-2.0
1.6951617612115692e+18,-1.0,-1.0,-11.0,-3.0,-3.0,-1.0,-1.0,-2.0
1.695161761235454e+18,-2.0,-2.0,0.0,-2.0,-2.0,-1.0,-1.0,-1.0
1.695161761236452e+18,-1.0,0.0,5.0,0.0,0.0,-3.0,0.0,-1.0
1.695161761236452e+18,0.0,-3.0,-11.0,-2.0,1.0,-1.0,-1.0,-2.0
1.6951617612374556e+18,-1.0,1.0,5.0,-1.0,0.0,-1.0,0.0,0.0
1.6951617612477076e+18,0.0,0.0,2.0,-1.0,-1.0,0.0,-1.0,-2.0
1.6951617612477076e+18,-2.0,-1.0,1.0,1.0,-2.0,-1.0,-1.0,-1.0
1.6951617612566943e+18,-1.0,-3.0,-2.0,-1.0,-2.0,-2.0,1.0,0.0
1.6951617612576988e+18,0.0,1.0,3.0,-5.0,-1.0,-1.0,0.0,-1.0
1.6951617612706857e+18,-2.0,-2.0,0.0,4.0,0.0,-2.0,0.0,-1.0
1.6951617612706857e+18,-1.0,-1.0,-3.0,2.0,1.0,0.0,1.0,-2.0
1.6951617612716846e+18,0.0,0.0,-1.0,0.0,-3.0,1.0,-1.0,-1.0
1.6951617612716846e+18,0.0,1.0,-3.0,-1.0,0.0,-1.0,-2.0,-1.0
1.6951617612936727e+18,0.0,-1.0,-4.0,-4.0,0.0,1.0,0.0,1.0
1.6951617612946726e+18,0.0,-1.0,-1.0,1.0,-2.0,-3.0,-2.0,-2.0
1.6951617612956718e+18,-1.0,0.0,-2.0,-1.0,-1.0,-1.0,-1.0,-2.0
1.6951617612956718e+18,-1.0,1.0,5.0,-3.0,-1.0,0.0,0.0,0.0
1.6951617613076657e+18,0.0,-1.0,1.0,0.0,0.0,-2.0,-2.0,-1.0
1.695161761308666e+18,0.0,-4.0,-6.0,-1.0,-1.0,-1.0,0.0,0.0
1.6951617613266534e+18,0.0,-1.0,-2.0,-2.0,0.0,0.0,-1.0,1.0
1.6951617613266534e+18,-1.0,0.0,2.0,1.0,0.0,-2.0,-1.0,0.0
1.6951617613416796e+18,-1.0,0.0,-1.0,0.0,0.0,-2.0,-1.0,-2.0
1.695161761342649e+18,1.0,0.0,-1.0,1.0,-1.0,-1.0,-2.0,0.0
1.6951617613486423e+18,0.0,-1.0,0.0,-2.0,0.0,0.0,-1.0,-2.0
1.6951617613496412e+18,0.0,-1.0,-1.0,1.0,-1.0,0.0,-1.0,-1.0
1.6951617613626335e+18,0.0,1.0,1.0,-1.0,0.0,1.0,0.0,0.0
1.695161761363632e+18,-2.0,2.0,-2.0,-2.0,-1.0,-2.0,0.0,-2.0
1.6951617613666312e+18,0.0,0.0,-2.0,0.0,0.0,0.0,0.0,1.0
1.6951617613676306e+18,0.0,0.0,0.0,0.0,-1.0,-1.0,-2.0,1.0
1.695161761375626e+18,-2.0,0.0,-2.0,-4.0,0.0,0.0,-2.0,-2.0
1.695161761375626e+18,-2.0,0.0,1.0,-2.0,0.0,0.0,0.0,-1.0
1.6951617613856302e+18,-2.0,-2.0,1.0,0.0,-2.0,1.0,-2.0,-1.0
1.6951617613866196e+18,0.0,-1.0,-1.0,0.0,1.0,-1.0,1.0,-2.0
1.6951617614016143e+18,2.0,-2.0,-5.0,-1.0,-1.0,0.0,-1.0,-1.0
1.6951617614026102e+18,0.0,1.0,0.0,-2.0,-1.0,0.0,-1.0,-1.0
1.6951617614026102e+18,-2.0,-1.0,2.0,-2.0,-1.0,-1.0,-1.0,-1.0
1.6951617614036106e+18,-1.0,0.0,0.0,1.0,0.0,-3.0,0.0,-2.0
1.6951617614146048e+18,-2.0,-1.0,-3.0,-1.0,-1.0,-2.0,-2.0,-1.0
1.6951617614156042e+18,2.0,-1.0,0.0,0.0,0.0,0.0,-1.0,0.0
1.695161761416603e+18,2.0,0.0,-3.0,0.0,0.0,0.0,0.0,1.0
1.6951617614176018e+18,1.0,-2.0,-1.0,-1.0,-1.0,1.0,-1.0,-1.0
1.6951617614605765e+18,-1.0,0.0,-1.0,-2.0,-1.0,-2.0,0.0,0.0
1.6951617614605765e+18,-2.0,1.0,-1.0,-1.0,0.0,-2.0,0.0,1.0
1.6951617614615754e+18,0.0,0.0,1.0,-1.0,0.0,-1.0,1.0,0.0
1.6951617614615754e+18,-2.0,-1.0,-3.0,-1.0,0.0,0.0,0.0,0.0
1.695161761462575e+18,1.0,-1.0,0.0,-4.0,0.0,-1.0,-1.0,0.0
1.695161761462575e+18,-2.0,-1.0,-3.0,2.0,-2.0,-1.0,-2.0,-2.0
1.6951617614895603e+18,-1.0,-1.0,1.0,2.0,0.0,-4.0,0.0,-2.0
1.6951617614915584e+18,-1.0,0.0,0.0,1.0,0.0,0.0,1.0,1.0
1.6951617614935575e+18,-1.0,1.0,2.0,0.0,-2.0,-1.0,0.0,-2.0
1.6951617614935575e+18,0.0,-2.0,-10.0,-7.0,0.0,-1.0,1.0,1.0
1.6951617614945564e+18,-1.0,-2.0,-1.0,-1.0,-2.0,0.0,0.0,-2.0
1.6951617614945564e+18,-1.0,1.0,-1.0,2.0,1.0,0.0,-3.0,-2.0
1.6951617615125468e+18,-2.0,-1.0,0.0,0.0,-1.0,1.0,-2.0,-1.0
1.6951617615135478e+18,-1.0,-2.0,1.0,1.0,-1.0,0.0,-2.0,-1.0
1.6951617615135478e+18,-3.0,0.0,-2.0,0.0,-1.0,-1.0,-1.0,-2.0
1.695161761514545e+18,0.0,-2.0,0.0,-2.0,-2.0,0.0,0.0,-1.0
1.695161761514545e+18,0.0,-1.0,-2.0,1.0,0.0,-1.0,0.0,0.0
1.695161761515546e+18,-1.0,0.0,1.0,-2.0,-1.0,-3.0,-2.0,-2.0
1.6951617615345326e+18,-1.0,-1.0,-2.0,-1.0,-1.0,0.0,0.0,-1.0
1.6951617615345326e+18,-1.0,-1.0,0.0,-4.0,-1.0,-3.0,-1.0,-3.0
1.695161761536532e+18,0.0,-1.0,-1.0,-2.0,1.0,1.0,0.0,-1.0
1.695161761536532e+18,0.0,-2.0,0.0,-1.0,-2.0,0.0,-1.0,-1.0
1.6951617615375306e+18,0.0,0.0,-1.0,-2.0,-1.0,-1.0,-2.0,-1.0
1.6951617615375306e+18,-2.0,0.0,-1.0,-1.0,-3.0,1.0,0.0,1.0
1.6951617615635172e+18,0.0,-1.0,-1.0,0.0,-2.0,1.0,-1.0,-2.0
1.6951617615635172e+18,0.0,1.0,1.0,0.0,0.0,-1.0,-1.0,0.0
1.6951617615635172e+18,0.0,0.0,-2.0,-4.0,-1.0,0.0,-2.0,-1.0
1.6951617615635172e+18,-1.0,-1.0,-1.0,2.0,-1.0,-2.0,-1.0,-2.0
1.6951617615695127e+18,-1.0,-1.0,-3.0,2.0,0.0,-1.0,0.0,0.0
1.6951617615695127e+18,0.0,-1.0,0.0,0.0,0.0,2.0,-1.0,0.0
1.695161761585503e+18,1.0,0.0,0.0,0.0,-1.0,0.0,-2.0,-1.0
1.695161761585503e+18,-2.0,-1.0,-1.0,-2.0,0.0,-1.0,-1.0,0.0
1.6951617615964974e+18,0.0,0.0,-2.0,0.0,-1.0,-1.0,0.0,-1.0
1.695161761597503e+18,0.0,0.0,3.0,-1.0,0.0,0.0,0.0,-2.0
1.695161761597503e+18,-1.0,-1.0,-9.0,0.0,-1.0,-1.0,-2.0,0.0
1.6951617615994982e+18,0.0,-2.0,1.0,0.0,0.0,-1.0,-1.0,0.0
1.6951617616144863e+18,0.0,-1.0,-4.0,-2.0,-2.0,-1.0,-2.0,0.0
1.6951617616154862e+18,0.0,-1.0,1.0,0.0,1.0,-1.0,-1.0,0.0
1.6951617616224822e+18,-1.0,0.0,1.0,0.0,1.0,-2.0,0.0,-1.0
1.6951617616224822e+18,0.0,1.0,1.0,-3.0,-2.0,-1.0,-2.0,-2.0
1.6951617616394724e+18,-2.0,-1.0,1.0,-1.0,-1.0,-1.0,-1.0,3.0
1.695161761640473e+18,-1.0,0.0,1.0,5.0,0.0,1.0,1.0,1.0
1.695161761640473e+18,1.0,-1.0,2.0,1.0,2.0,0.0,0.0,1.0
1.6951617616414733e+18,-2.0,0.0,-1.0,2.0,2.0,0.0,2.0,0.0
1.695161761653464e+18,2.0,0.0,-2.0,-4.0,0.0,-1.0,-1.0,-1.0
1.695161761653464e+18,2.0,2.0,0.0,-2.0,-2.0,-2.0,0.0,0.0
1.695161761653464e+18,0.0,-1.0,-1.0,-1.0,-1.0,0.0,0.0,0.0
1.6951617616544663e+18,1.0,0.0,1.0,0.0,-1.0,0.0,-1.0,0.0
1.695161761677451e+18,-1.0,-1.0,0.0,-1.0,-1.0,0.0,-1.0,0.0
1.695161761677451e+18,-2.0,-1.0,0.0,-2.0,-1.0,-1.0,-1.0,-1.0
1.69516176167845e+18,-1.0,2.0,0.0,3.0,0.0,-1.0,0.0,0.0
1.69516176167845e+18,0.0,-3.0,0.0,-2.0,-1.0,-1.0,-1.0,1.0
1.6951617617054351e+18,-1.0,0.0,-4.0,0.0,1.0,-1.0,-1.0,-1.0
1.6951617617054351e+18,0.0,-2.0,-1.0,-2.0,0.0,0.0,1.0,-1.0
1.695161761706434e+18,0.0,1.0,4.0,-3.0,-1.0,1.0,1.0,-1.0
1.695161761706434e+18,0.0,-1.0,-1.0,0.0,0.0,0.0,0.0,-2.0
1.6951617617364183e+18,1.0,0.0,0.0,-4.0,-4.0,-3.0,0.0,-1.0
1.695161761737418e+18,-1.0,-3.0,-3.0,-2.0,-1.0,-2.0,-3.0,-1.0
1.695161761737418e+18,0.0,0.0,2.0,2.0,1.0,0.0,1.0,1.0
1.695161761737418e+18,-1.0,1.0,2.0,2.0,3.0,2.0,2.0,1.0
1.6951617617394173e+18,-1.0,-1.0,6.0,0.0,-6.0,-1.0,1.0,0.0
1.6951617617394173e+18,-1.0,-4.0,-4.0,0.0,6.0,0.0,-2.0,-1.0
1.6951617617424146e+18,0.0,0.0,-4.0,-3.0,-9.0,-3.0,-2.0,0.0
1.6951617617424146e+18,1.0,-1.0,-2.0,11.0,5.0,0.0,-1.0,0.0
1.6951617617504092e+18,-1.0,0.0,1.0,-12.0,-3.0,-3.0,-2.0,-1.0
1.6951617617504092e+18,-1.0,0.0,-3.0,-1.0,-5.0,-3.0,-1.0,0.0
1.6951617617504092e+18,-2.0,-2.0,0.0,-6.0,-12.0,-5.0,-2.0,-3.0
1.6951617617504092e+18,-1.0,1.0,-1.0,1.0,19.0,5.0,1.0,1.0
1.6951617617883873e+18,-2.0,0.0,6.0,9.0,-9.0,-3.0,0.0,0.0
1.6951617617883873e+18,-2.0,-4.0,-4.0,-4.0,4.0,7.0,1.0,-1.0
1.6951617617883873e+18,0.0,1.0,-3.0,-2.0,-1.0,2.0,0.0,0.0
1.6951617617893888e+18,-1.0,3.0,-1.0,-2.0,-10.0,-4.0,-2.0,-4.0
1.695161761795383e+18,-3.0,-2.0,-5.0,-5.0,2.0,-2.0,2.0,-1.0
1.6951617617963868e+18,4.0,-4.0,-3.0,-9.0,-6.0,-10.0,-9.0,6.0
1.6951617617963868e+18,-1.0,-3.0,2.0,5.0,-2.0,0.0,-5.0,-17.0
1.6951617617963868e+18,-7.0,-5.0,-3.0,1.0,7.0,8.0,2.0,1.0
1.6951617618253655e+18,4.0,1.0,-1.0,8.0,8.0,5.0,2.0,1.0
1.6951617618253655e+18,-5.0,-4.0,1.0,-5.0,-4.0,0.0,3.0,2.0
1.6951617618433564e+18,-5.0,4.0,-2.0,-3.0,3.0,-11.0,-2.0,2.0
1.6951617618433564e+18,8.0,13.0,1.0,-5.0,-10.0,3.0,-1.0,-2.0
1.6951617618483538e+18,-1.0,-9.0,-2.0,3.0,3.0,2.0,0.0,-7.0
1.6951617618503524e+18,-3.0,6.0,2.0,0.0,1.0,1.0,12.0,10.0
1.6951617618503524e+18,-22.0,-14.0,-1.0,0.0,5.0,3.0,-2.0,-20.0
1.6951617618503524e+18,24.0,8.0,0.0,1.0,-4.0,-2.0,4.0,9.0
1.69516176185535e+18,-10.0,-1.0,-5.0,-1.0,1.0,-2.0,-9.0,26.0
1.6951617618563482e+18,5.0,-3.0,-1.0,-1.0,-4.0,-2.0,-18.0,-19.0
1.6951617618563482e+18,-4.0,4.0,0.0,3.0,4.0,-2.0,-11.0,10.0
1.6951617618563482e+18,-1.0,-7.0,-1.0,-3.0,-3.0,-3.0,10.0,0.0
1.6951617618783355e+18,2.0,-7.0,0.0,1.0,1.0,6.0,10.0,2.0
1.6951617618783355e+18,1.0,0.0,-5.0,-2.0,-2.0,-1.0,-6.0,-12.0
1.6951617618783355e+18,-3.0,3.0,0.0,1.0,3.0,0.0,-9.0,4.0
1.6951617618793352e+18,-10.0,0.0,0.0,-8.0,-4.0,3.0,3.0,-11.0
1.695161761900347e+18,20.0,-3.0,1.0,0.0,1.0,-1.0,10.0,15.0
1.695161761900347e+18,-23.0,-9.0,-6.0,0.0,-5.0,-10.0,-7.0,-34.0
1.6951617619013238e+18,-8.0,6.0,5.0,3.0,7.0,9.0,2.0,-7.0
1.6951617619013238e+18,5.0,-7.0,-7.0,0.0,-1.0,3.0,3.0,28.0
1.6951617619153172e+18,-6.0,4.0,-2.0,-5.0,-3.0,-7.0,-11.0,-4.0
1.6951617619163144e+18,11.0,5.0,3.0,5.0,2.0,-3.0,5.0,-7.0
1.6951617619163144e+18,11.0,-9.0,-3.0,-4.0,-3.0,2.0,17.0,21.0
1.6951617619163144e+18,-5.0,14.0,0.0,-5.0,-4.0,2.0,-6.0,-19.0
1.6951617619323062e+18,1.0,-11.0,4.0,1.0,0.0,-7.0,-13.0,-4.0
1.6951617619333046e+18,2.0,-3.0,-4.0,3.0,1.0,-10.0,-30.0,25.0
1.6951617619333046e+18,8.0,-6.0,-3.0,1.0,1.0,8.0,-1.0,-7.0
1.6951617619343048e+18,-23.0,-6.0,0.0,-3.0,0.0,-8.0,-1.0,-15.0
1.6951617619532925e+18,-3.0,8.0,-8.0,-7.0,-5.0,7.0,9.0,-11.0
1.6951617619542935e+18,0.0,-8.0,1.0,0.0,7.0,6.0,18.0,7.0
1.6951617619542935e+18,25.0,4.0,-2.0,0.0,-2.0,-5.0,2.0,-13.0
1.6951617619552937e+18,19.0,11.0,5.0,1.0,-4.0,-7.0,-25.0,42.0
1.6951617619772792e+18,-53.0,-22.0,-1.0,-3.0,-4.0,-7.0,-28.0,-75.0
1.6951617619772792e+18,-2.0,32.0,3.0,3.0,-2.0,-1.0,-1.0,48.0
1.695161761978279e+18,-6.0,-31.0,-10.0,-6.0,-2.0,-5.0,2.0,3.0
1.695161761978279e+18,2.0,-1.0,2.0,0.0,3.0,3.0,10.0,-72.0
1.6951617619892723e+18,10.0,-3.0,4.0,8.0,7.0,10.0,11.0,19.0
1.6951617619902717e+18,15.0,3.0,6.0,3.0,1.0,22.0,46.0,40.0
1.6951617620052634e+18,-22.0,13.0,-5.0,-10.0,-7.0,-5.0,-3.0,-49.0
1.6951617620052634e+18,20.0,28.0,10.0,11.0,1.0,-25.0,-37.0,79.0
1.6951617620122588e+18,-14.0,-34.0,-7.0,-8.0,-6.0,-5.0,-3.0,-42.0
1.6951617620122588e+18,9.0,34.0,2.0,0.0,0.0,1.0,0.0,-19.0
1.6951617620132585e+18,36.0,-15.0,-2.0,2.0,3.0,23.0,67.0,-4.0
1.6951617620132585e+18,-41.0,-19.0,1.0,-1.0,3.0,6.0,-8.0,-16.0
1.695161762043241e+18,-7.0,23.0,-6.0,0.0,2.0,-4.0,-11.0,-5.0
1.695161762043241e+18,-24.0,-23.0,-17.0,-19.0,-14.0,-21.0,-34.0,-89.0
1.695161762044241e+18,-14.0,10.0,7.0,9.0,5.0,-23.0,-50.0,86.0
1.695161762044241e+18,32.0,0.0,-3.0,-2.0,-3.0,2.0,15.0,-14.0
1.6951617620662292e+18,-14.0,6.0,0.0,-5.0,-5.0,0.0,-8.0,28.0
1.6951617620732257e+18,6.0,-7.0,8.0,6.0,2.0,6.0,39.0,-43.0
1.6951617620742264e+18,-17.0,6.0,4.0,0.0,3.0,-7.0,-16.0,36.0
1.6951617620742264e+18,-16.0,-13.0,-7.0,-10.0,-6.0,18.0,55.0,-34.0
1.6951617620802194e+18,50.0,10.0,-2.0,0.0,-2.0,-19.0,-52.0,71.0
1.6951617620802194e+18,-8.0,-14.0,-7.0,-2.0,0.0,27.0,13.0,-57.0
1.6951617620812198e+18,4.0,-9.0,1.0,6.0,-3.0,-10.0,-11.0,23.0
1.6951617620812198e+18,25.0,15.0,-4.0,-12.0,2.0,3.0,-5.0,66.0
1.695161762095211e+18,-65.0,-1.0,5.0,5.0,7.0,13.0,28.0,-92.0
1.6951617620962107e+18,81.0,1.0,2.0,-4.0,0.0,-5.0,-3.0,44.0
1.6951617620962107e+18,-3.0,15.0,-3.0,-3.0,-7.0,4.0,-4.0,20.0
1.6951617620962107e+18,-23.0,-23.0,-7.0,3.0,1.0,13.0,40.0,-42.0
1.695161762118198e+18,-33.0,8.0,7.0,3.0,1.0,5.0,2.0,-85.0
1.695161762118198e+18,22.0,13.0,9.0,6.0,7.0,14.0,10.0,95.0
1.6951617621191977e+18,-22.0,-1.0,2.0,6.0,7.0,10.0,-15.0,-39.0
1.6951617621191977e+18,12.0,-8.0,-9.0,-5.0,-10.0,-19.0,-37.0,19.0
1.6951617621401859e+18,8.0,3.0,8.0,0.0,1.0,7.0,48.0,39.0
1.6951617621412035e+18,-47.0,-21.0,-12.0,4.0,5.0,26.0,83.0,-60.0
1.6951617621412035e+18,40.0,17.0,5.0,-14.0,-14.0,-42.0,-58.0,0.0
1.6951617621412035e+18,21.0,-9.0,-3.0,-2.0,-3.0,-12.0,-21.0,19.0
1.6951617621561815e+18,14.0,4.0,-1.0,2.0,-4.0,-12.0,-7.0,-42.0
1.6951617621561815e+18,-17.0,9.0,-1.0,-11.0,-6.0,1.0,-36.0,-7.0
1.6951617621561815e+18,-12.0,-3.0,-7.0,-1.0,-2.0,-21.0,-34.0,-32.0
1.6951617621561815e+18,-51.0,-3.0,2.0,6.0,10.0,37.0,76.0,27.0
1.69516176217815e+18,92.0,28.0,5.0,12.0,2.0,-19.0,-34.0,93.0
1.69516176217815e+18,7.0,-42.0,-20.0,-15.0,-11.0,-18.0,-28.0,-11.0
1.6951617621791537e+18,-26.0,0.0,10.0,0.0,3.0,13.0,56.0,-1.0
1.6951617621791537e+18,56.0,13.0,-9.0,4.0,-4.0,-16.0,-72.0,-72.0
1.6951617621925284e+18,-14.0,-1.0,10.0,-4.0,8.0,34.0,102.0,66.0
1.6951617621935293e+18,-8.0,-2.0,2.0,4.0,-9.0,-46.0,-97.0,14.0
1.6951617621935293e+18,44.0,7.0,0.0,15.0,9.0,25.0,13.0,-53.0
1.6951617621935293e+18,-12.0,-13.0,-5.0,-2.0,-3.0,4.0,36.0,15.0
1.6951617622145526e+18,-1.0,-3.0,2.0,-5.0,-1.0,-3.0,42.0,-25.0
1.6951617622155446e+18,61.0,25.0,28.0,4.0,5.0,0.0,-2.0,84.0
1.6951617622314499e+18,-7.0,-12.0,-12.0,10.0,-1.0,2.0,11.0,13.0
1.6951617622314499e+18,-24.0,16.0,2.0,-7.0,7.0,5.0,28.0,-4.0
1.6951617622324493e+18,10.0,7.0,-10.0,-5.0,-7.0,6.0,16.0,33.0
1.6951617622324493e+18,-50.0,-13.0,-3.0,-4.0,1.0,-3.0,-18.0,-44.0
1.6951617622534382e+18,-67.0,-15.0,-4.0,0.0,-5.0,-1.0,16.0,23.0
1.6951617622544358e+18,10.0,14.0,22.0,7.0,-2.0,-7.0,-70.0,-53.0
1.6951617622554373e+18,48.0,-20.0,-17.0,-7.0,0.0,5.0,-16.0,-20.0
1.6951617622554373e+18,-4.0,7.0,-3.0,-2.0,1.0,13.0,25.0,22.0
1.695161762256435e+18,28.0,14.0,-1.0,-5.0,-4.0,4.0,5.0,-10.0
1.695161762256435e+18,-18.0,-19.0,-1.0,-8.0,-8.0,-13.0,1.0,-11.0
1.6951617622824207e+18,-53.0,7.0,-15.0,4.0,-5.0,-17.0,-49.0,12.0
1.6951617622824207e+18,26.0,10.0,4.0,4.0,3.0,8.0,45.0,5.0
1.6951617623074081e+18,13.0,5.0,6.0,-12.0,-3.0,11.0,-25.0,-5.0
1.6951617623074081e+18,22.0,4.0,5.0,8.0,7.0,20.0,50.0,-5.0
1.695161762308405e+18,0.0,7.0,8.0,5.0,5.0,9.0,31.0,74.0
1.695161762308405e+18,-34.0,-6.0,-1.0,10.0,0.0,-14.0,-22.0,17.0
1.6951617623094042e+18,-69.0,-2.0,0.0,-5.0,5.0,15.0,-5.0,-51.0
1.6951617623094042e+18,-36.0,-18.0,0.0,0.0,2.0,-1.0,0.0,21.0
1.695161762313403e+18,10.0,7.0,13.0,9.0,-1.0,-5.0,-29.0,-37.0
1.6951617623144038e+18,15.0,16.0,-3.0,3.0,2.0,10.0,22.0,39.0
1.6951617623144038e+18,9.0,5.0,3.0,2.0,-1.0,10.0,44.0,-66.0
1.695161762315402e+18,-1.0,10.0,3.0,-9.0,0.0,-3.0,-58.0,33.0
1.6951617623354143e+18,-2.0,-24.0,-2.0,-3.0,-2.0,1.0,-28.0,-88.0
1.6951617623354143e+18,-5.0,12.0,0.0,-3.0,-4.0,-11.0,20.0,98.0
1.695161762336389e+18,71.0,-13.0,-16.0,-15.0,-10.0,-4.0,55.0,76.0
1.695161762336389e+18,10.0,4.0,-3.0,12.0,1.0,-30.0,-42.0,-21.0
1.6951617623664315e+18,-5.0,0.0,-6.0,-1.0,0.0,-3.0,-33.0,14.0
1.6951617623674263e+18,-30.0,-21.0,-8.0,-5.0,-1.0,14.0,34.0,-43.0
1.6951617623674263e+18,-2.0,-6.0,6.0,1.0,9.0,15.0,-33.0,-27.0
1.6951617623674263e+18,-7.0,-17.0,-12.0,-10.0,-17.0,-46.0,-81.0,-19.0
1.6951617623744223e+18,-9.0,-6.0,0.0,1.0,-2.0,12.0,88.0,-22.0
1.6951617623744223e+18,1.0,19.0,12.0,-2.0,6.0,-16.0,-66.0,-65.0
1.6951617623754227e+18,-6.0,-17.0,-17.0,-22.0,-15.0,-22.0,-46.0,31.0
1.6951617623754227e+18,-37.0,-11.0,2.0,12.0,1.0,26.0,109.0,-62.0
1.6951617623954107e+18,-36.0,-6.0,9.0,-9.0,-3.0,-5.0,-118.0,-74.0
1.6951617623954107e+18,72.0,17.0,-4.0,19.0,-2.0,-18.0,56.0,67.0
1.6951617623964093e+18,13.0,14.0,-5.0,-13.0,0.0,-30.0,-70.0,-3.0
1.6951617623964093e+18,-12.0,-11.0,-8.0,-15.0,-10.0,2.0,75.0,0.0
1.695161762419419e+18,0.0,0.0,-3.0,-1.0,0.0,-1.0,-8.0,35.0
1.695161762419419e+18,-28.0,-31.0,-19.0,-14.0,-5.0,18.0,24.0,-40.0
1.6951617624203973e+18,-15.0,4.0,15.0,10.0,6.0,9.0,23.0,-30.0
1.6951617624203973e+18,19.0,5.0,1.0,13.0,-10.0,-20.0,13.0,68.0
1.6951617624323917e+18,20.0,-7.0,-15.0,-15.0,3.0,10.0,45.0,0.0
1.6951617624333885e+18,-39.0,0.0,-3.0,-20.0,-13.0,-36.0,-87.0,-22.0
1.6951617624333885e+18,43.0,12.0,-1.0,10.0,1.0,-6.0,-57.0,3.0
1.6951617624333885e+18,-34.0,-35.0,-22.0,-3.0,-9.0,-21.0,0.0,-10.0
1.6951617624873577e+18,6.0,14.0,9.0,-3.0,-7.0,-32.0,-43.0,2.0
1.6951617624883574e+18,-5.0,-1.0,3.0,-1.0,0.0,19.0,36.0,-77.0
1.6951617624893563e+18,-2.0,14.0,2.0,-6.0,-5.0,5.0,80.0,25.0
1.6951617624903562e+18,54.0,28.0,18.0,10.0,19.0,38.0,7.0,68.0
1.6951617625093453e+18,4.0,-31.0,-3.0,-1.0,-5.0,0.0,37.0,11.0
1.6951617625093453e+18,9.0,-8.0,-9.0,12.0,8.0,13.0,-8.0,-25.0
1.6951617625103447e+18,-21.0,-10.0,8.0,3.0,5.0,-5.0,-9.0,-55.0
1.6951617625103447e+18,-9.0,-13.0,-16.0,-19.0,-21.0,-44.0,-106.0,-46.0
1.6951617625113457e+18,4.0,16.0,9.0,9.0,6.0,37.0,44.0,51.0
1.6951617625123464e+18,-8.0,3.0,-14.0,-7.0,5.0,30.0,50.0,-8.0
1.6951617625233408e+18,-14.0,1.0,22.0,9.0,3.0,-7.0,24.0,-16.0
1.695161762524337e+18,34.0,-3.0,-6.0,1.0,2.0,-9.0,-59.0,20.0
1.6951617625303334e+18,-20.0,-8.0,-17.0,-20.0,-17.0,-44.0,46.0,-42.0
1.6951617625313318e+18,-20.0,-15.0,10.0,8.0,3.0,8.0,-12.0,-31.0
1.6951617625313318e+18,3.0,3.0,-4.0,21.0,6.0,16.0,44.0,88.0
1.6951617625313318e+18,17.0,6.0,-4.0,-5.0,6.0,5.0,28.0,-14.0
1.6951617625453233e+18,-38.0,-1.0,-6.0,-16.0,-8.0,4.0,-7.0,-45.0
1.6951617625453233e+18,32.0,4.0,11.0,-2.0,-7.0,-21.0,13.0,113.0
1.6951617625463237e+18,-9.0,-13.0,-6.0,1.0,0.0,12.0,19.0,-93.0
1.6951617625463237e+18,16.0,8.0,-4.0,7.0,4.0,1.0,26.0,20.0
1.6951617625603162e+18,23.0,0.0,3.0,7.0,6.0,17.0,33.0,64.0
1.6951617625603162e+18,-11.0,15.0,-2.0,-4.0,-3.0,0.0,14.0,-27.0
1.695161762561315e+18,-16.0,-10.0,-15.0,2.0,7.0,5.0,33.0,7.0
1.695161762561315e+18,4.0,4.0,6.0,-11.0,-11.0,-12.0,-80.0,-22.0
1.6951617625833024e+18,14.0,4.0,1.0,9.0,4.0,-6.0,-6.0,7.0
1.6951617625833024e+18,-13.0,-6.0,3.0,2.0,-4.0,-7.0,-21.0,-21.0
1.6951617625843026e+18,-3.0,11.0,3.0,-4.0,-1.0,-4.0,-5.0,21.0
1.6951617625843026e+18,-18.0,-13.0,3.0,-2.0,1.0,22.0,35.0,-12.0
1.6951617625982938e+18,-7.0,1.0,-5.0,4.0,2.0,-23.0,-40.0,-5.0
1.6951617625982938e+18,-3.0,26.0,-1.0,1.0,-6.0,-6.0,-34.0,-15.0
1.695161762599294e+18,6.0,-18.0,-10.0,-14.0,-8.0,-3.0,-4.0,7.0
1.695161762599294e+18,-21.0,5.0,-5.0,-8.0,-3.0,7.0,25.0,-17.0
1.6951617626202819e+18,8.0,-17.0,12.0,13.0,22.0,11.0,-29.0,1.0
1.6951617626212808e+18,0.0,42.0,-14.0,5.0,11.0,2.0,11.0,14.0
1.6951617626212808e+18,2.0,-14.0,4.0,33.0,10.0,0.0,-7.0,-25.0
1.6951617626212808e+18,-17.0,13.0,-6.0,-60.0,-41.0,-6.0,3.0,27.0
1.6951617626432676e+18,3.0,41.0,-13.0,-11.0,-24.0,-6.0,19.0,-6.0
1.6951617626432676e+18,-5.0,-67.0,20.0,26.0,39.0,16.0,-9.0,-1.0
1.69516176264427e+18,-9.0,1.0,-8.0,-3.0,-9.0,-4.0,15.0,3.0
1.69516176264427e+18,0.0,0.0,14.0,28.0,15.0,3.0,-15.0,1.0
1.6951617626742533e+18,6.0,0.0,-17.0,-24.0,-23.0,-3.0,4.0,-6.0
1.6951617626752502e+18,-6.0,-3.0,1.0,-23.0,-27.0,-11.0,2.0,-12.0
1.6951617626752502e+18,-3.0,13.0,3.0,-6.0,0.0,-4.0,-37.0,-4.0
1.6951617626762499e+18,11.0,-15.0,1.0,3.0,2.0,7.0,21.0,23.0
1.695161762677248e+18,-1.0,5.0,9.0,0.0,6.0,3.0,0.0,-12.0
1.695161762677248e+18,1.0,-3.0,1.0,11.0,5.0,-5.0,-21.0,2.0
1.6951617626972375e+18,-4.0,-5.0,1.0,-5.0,-2.0,1.0,4.0,-2.0
1.695161762698237e+18,-5.0,10.0,-3.0,6.0,8.0,6.0,14.0,-18.0
1.6951617627002358e+18,-10.0,-11.0,3.0,12.0,10.0,-4.0,-20.0,-11.0
1.6951617627012378e+18,0.0,-8.0,-2.0,-3.0,-2.0,-3.0,-5.0,-4.0
1.6951617627012378e+18,4.0,2.0,-10.0,-15.0,-11.0,0.0,2.0,-1.0
1.6951617627012378e+18,-11.0,-2.0,12.0,8.0,6.0,1.0,1.0,-23.0
1.6951617627342162e+18,1.0,-3.0,1.0,5.0,7.0,1.0,-2.0,30.0
1.6951617627342162e+18,1.0,-4.0,1.0,-7.0,-8.0,-2.0,5.0,-10.0
1.6951617627352148e+18,-1.0,1.0,-1.0,-8.0,-2.0,1.0,-4.0,7.0
1.6951617627352148e+18,-5.0,-3.0,-2.0,11.0,11.0,2.0,2.0,-6.0
1.6951617627362148e+18,-5.0,-8.0,1.0,3.0,1.0,3.0,-6.0,3.0
1.6951617627372142e+18,-1.0,4.0,-4.0,-5.0,-5.0,-2.0,-2.0,-2.0
1.695161762747208e+18,6.0,-3.0,-2.0,-1.0,0.0,-2.0,-7.0,14.0
1.695161762747208e+18,-4.0,0.0,-1.0,3.0,4.0,2.0,3.0,-5.0
1.6951617627631987e+18,4.0,1.0,-1.0,-3.0,-5.0,-3.0,-6.0,-10.0
1.6951617627631987e+18,-7.0,-4.0,-1.0,-4.0,-3.0,-6.0,-7.0,-6.0
1.6951617627641981e+18,5.0,1.0,4.0,1.0,1.0,2.0,-3.0,10.0
1.6951617627641981e+18,-6.0,-2.0,-6.0,-4.0,-2.0,0.0,10.0,-3.0
1.6951617627851863e+18,2.0,-1.0,-2.0,1.0,0.0,0.0,-4.0,-5.0
1.6951617627851863e+18,-1.0,-2.0,1.0,2.0,1.0,-2.0,-3.0,-1.0
1.695161762786187e+18,-1.0,-3.0,-1.0,-3.0,-1.0,-1.0,0.0,10.0
1.695161762786187e+18,-4.0,3.0,0.0,1.0,2.0,3.0,3.0,-6.0
1.6951617627921838e+18,1.0,-5.0,0.0,2.0,1.0,-3.0,-7.0,2.0
1.6951617627921838e+18,-2.0,-2.0,-2.0,-1.0,-1.0,0.0,-3.0,-1.0
1.6951617628101724e+18,1.0,0.0,0.0,-5.0,-4.0,-1.0,-1.0,0.0
1.6951617628101724e+18,-2.0,-7.0,-2.0,1.0,1.0,-1.0,2.0,-2.0
1.69516176281517e+18,0.0,-2.0,0.0,6.0,2.0,0.0,-3.0,0.0
1.69516176281517e+18,-2.0,0.0,0.0,-6.0,-2.0,0.0,3.0,-2.0
1.6951617628231652e+18,0.0,-1.0,-2.0,-2.0,-1.0,-1.0,0.0,4.0
1.6951617628241644e+18,-1.0,0.0,-2.0,-1.0,3.0,1.0,0.0,0.0
1.6951617628481505e+18,2.0,-1.0,2.0,2.0,-2.0,-2.0,0.0,1.0
1.6951617628481505e+18,-1.0,0.0,1.0,0.0,-2.0,0.0,-2.0,-5.0
1.695161762849151e+18,1.0,-2.0,-3.0,0.0,1.0,1.0,2.0,5.0
1.6951617628501517e+18,-1.0,3.0,8.0,9.0,1.0,2.0,2.0,-3.0
1.6951617628774228e+18,-3.0,-2.0,-4.0,2.0,1.0,1.0,-2.0,-3.0
1.6951617628774228e+18,-2.0,-3.0,-13.0,-19.0,-4.0,-3.0,-2.0,-6.0
1.6951617628784215e+18,6.0,-2.0,-1.0,-5.0,-3.0,-2.0,-1.0,15.0
1.6951617628784215e+18,1.0,1.0,5.0,-1.0,-5.0,-1.0,2.0,0.0
1.6951617628794455e+18,0.0,-1.0,3.0,10.0,3.0,1.0,-3.0,1.0
1.6951617628794455e+18,0.0,0.0,4.0,5.0,0.0,-1.0,-2.0,-2.0
1.69516176289841e+18,-1.0,-3.0,-8.0,-10.0,1.0,0.0,2.0,1.0
1.6951617628994135e+18,-3.0,0.0,2.0,0.0,3.0,1.0,0.0,-3.0
1.6951617628994135e+18,-2.0,0.0,2.0,2.0,-4.0,-2.0,-2.0,-3.0
1.6951617628994135e+18,0.0,-2.0,-5.0,2.0,-1.0,0.0,-1.0,2.0
1.6951617629014085e+18,-4.0,-1.0,3.0,-1.0,-3.0,-4.0,-4.0,-4.0
1.6951617629014085e+18,1.0,-2.0,-3.0,-2.0,-2.0,-1.0,-1.0,-2.0
1.695161762911543e+18,-2.0,0.0,-6.0,-5.0,0.0,-1.0,0.0,-2.0
1.695161762911543e+18,-4.0,-4.0,-9.0,-3.0,-3.0,-3.0,0.0,-2.0
1.6951617629208776e+18,-2.0,-2.0,-2.0,-7.0,-6.0,-5.0,-2.0,-3.0
1.6951617629208776e+18,-2.0,-1.0,-4.0,-1.0,-3.0,-2.0,-3.0,-1.0
1.6951617629345638e+18,-4.0,-2.0,5.0,-1.0,7.0,8.0,2.0,2.0
1.6951617629345638e+18,5.0,3.0,14.0,15.0,2.0,1.0,0.0,0.0
1.6951617629507592e+18,-1.0,1.0,-3.0,2.0,1.0,1.0,-1.0,-1.0
1.6951617629507592e+18,-1.0,-1.0,-19.0,-14.0,-5.0,-3.0,-2.0,0.0
1.695161762973372e+18,1.0,1.0,1.0,0.0,-3.0,-2.0,-1.0,-2.0
1.695161762974371e+18,-1.0,-1.0,7.0,-2.0,2.0,2.0,1.0,0.0
1.6951617629753723e+18,-2.0,-3.0,2.0,10.0,0.0,-1.0,-1.0,-4.0
1.6951617629753723e+18,-3.0,-2.0,0.0,-10.0,-1.0,-2.0,-2.0,-1.0
1.69516176297637e+18,-1.0,-1.0,-6.0,-5.0,-6.0,-3.0,-2.0,-1.0
1.69516176297637e+18,-4.0,-1.0,-2.0,-1.0,2.0,3.0,-1.0,0.0
1.6951617629803674e+18,1.0,1.0,9.0,5.0,2.0,1.0,-2.0,-1.0
1.6951617629813678e+18,-2.0,0.0,-2.0,-7.0,-2.0,0.0,0.0,-1.0
1.6951617630033587e+18,2.0,-4.0,-8.0,-9.0,-5.0,-3.0,0.0,1.0
1.6951617630033587e+18,1.0,1.0,13.0,12.0,-2.0,-3.0,-3.0,0.0
1.6951617630043773e+18,0.0,2.0,-5.0,-7.0,0.0,-1.0,-1.0,-1.0
1.6951617630043773e+18,-3.0,-7.0,-16.0,-16.0,-7.0,-3.0,-1.0,-3.0
1.6951617630253138e+18,1.0,2.0,6.0,1.0,1.0,-1.0,-2.0,-1.0
1.6951617630263204e+18,-1.0,0.0,-9.0,-5.0,-2.0,0.0,-1.0,0.0
1.6951617630273142e+18,-1.0,-1.0,8.0,11.0,0.0,-1.0,-1.0,-1.0
1.6951617630273142e+18,-1.0,3.0,3.0,13.0,4.0,1.0,-1.0,1.0
1.6951617630405332e+18,-1.0,0.0,3.0,-2.0,-1.0,-1.0,-1.0,0.0
1.695161763041531e+18,-4.0,-3.0,-7.0,-3.0,-3.0,-3.0,-1.0,-2.0
1.6951617630425303e+18,0.0,0.0,0.0,-5.0,-1.0,0.0,0.0,0.0
1.6951617630425303e+18,0.0,1.0,1.0,1.0,1.0,-1.0,0.0,-1.0
1.6951617630635195e+18,0.0,-2.0,-1.0,1.0,-1.0,-1.0,0.0,-2.0
1.6951617630635195e+18,0.0,-1.0,3.0,2.0,2.0,2.0,1.0,-1.0
1.6951617630655206e+18,-1.0,-2.0,-3.0,-3.0,-1.0,-1.0,0.0,1.0
1.6951617630655206e+18,0.0,1.0,9.0,12.0,2.0,1.0,-1.0,0.0
1.6951617630855788e+18,-2.0,-2.0,-3.0,-4.0,-2.0,-1.0,0.0,0.0
1.6951617630855788e+18,-1.0,0.0,-8.0,-19.0,0.0,2.0,0.0,-1.0
1.695161763087582e+18,0.0,-2.0,-3.0,-5.0,-1.0,-3.0,0.0,-1.0
1.695161763087582e+18,0.0,-1.0,4.0,5.0,0.0,1.0,-1.0,-1.0
1.695161763091359e+18,0.0,0.0,-3.0,1.0,3.0,0.0,0.0,0.0
1.6951617630923802e+18,-1.0,-1.0,1.0,0.0,-2.0,-3.0,-1.0,-1.0
1.6951617631006362e+18,-1.0,0.0,-7.0,-6.0,0.0,-1.0,0.0,-1.0
1.6951617631006362e+18,1.0,1.0,3.0,-3.0,1.0,1.0,0.0,0.0
1.6951617631145439e+18,1.0,0.0,-2.0,-3.0,-1.0,-1.0,-3.0,-3.0
1.695161763115541e+18,0.0,2.0,8.0,13.0,2.0,1.0,2.0,0.0
1.695161763123538e+18,-2.0,-1.0,4.0,2.0,-4.0,-4.0,-3.0,-2.0
1.695161763123538e+18,1.0,0.0,3.0,0.0,2.0,0.0,-1.0,2.0
1.6951617631375288e+18,-1.0,-1.0,-2.0,-7.0,0.0,0.0,1.0,1.0
1.6951617631385364e+18,0.0,-1.0,-2.0,-4.0,-2.0,0.0,0.0,0.0
1.6951617631415258e+18,-1.0,0.0,0.0,6.0,-1.0,1.0,-2.0,0.0
1.6951617631415258e+18,-1.0,-1.0,-7.0,-10.0,0.0,1.0,2.0,-1.0
1.6951617631515523e+18,-1.0,0.0,1.0,1.0,0.0,0.0,0.0,-1.0
1.6951617631515523e+18,0.0,-1.0,-7.0,-7.0,-3.0,-3.0,-2.0,-1.0
1.6951617631665124e+18,1.0,0.0,1.0,2.0,-1.0,-1.0,-2.0,-1.0
1.6951617631665124e+18,-1.0,-1.0,-1.0,1.0,-1.0,-1.0,-1.0,-3.0
1.6951617631745293e+18,0.0,0.0,0.0,1.0,-2.0,-1.0,-2.0,-1.0
1.695161763175527e+18,-1.0,-2.0,5.0,3.0,-3.0,-4.0,-2.0,-2.0
1.6951617631855235e+18,-1.0,-1.0,-11.0,-9.0,0.0,1.0,1.0,-2.0
1.6951617631855235e+18,-2.0,1.0,-1.0,1.0,0.0,-2.0,-1.0,0.0
1.69516176320651e+18,3.0,-5.0,18.0,15.0,5.0,0.0,0.0,1.0
1.69516176320651e+18,-2.0,-1.0,-6.0,-6.0,-5.0,1.0,-1.0,-1.0
1.6951617632075126e+18,0.0,2.0,0.0,-2.0,-2.0,-5.0,-2.0,-3.0
1.6951617632085148e+18,-1.0,-5.0,5.0,5.0,-7.0,-30.0,-1.0,-1.0
1.69516176321251e+18,1.0,5.0,-1.0,-5.0,-7.0,31.0,5.0,0.0
1.69516176321251e+18,0.0,1.0,3.0,5.0,12.0,10.0,1.0,1.0
1.6951617632266806e+18,1.0,0.0,-3.0,-2.0,15.0,8.0,2.0,0.0
1.6951617632266806e+18,-2.0,0.0,-4.0,0.0,-2.0,-6.0,0.0,0.0
1.6951617632346757e+18,-3.0,-6.0,1.0,0.0,4.0,-15.0,-3.0,-1.0
1.6951617632356739e+18,-1.0,-2.0,-3.0,-4.0,-11.0,-2.0,-1.0,-1.0
1.6951617632466908e+18,-1.0,-2.0,-1.0,-4.0,-6.0,-3.0,-2.0,-1.0
1.6951617632466908e+18,-1.0,-1.0,-3.0,0.0,-1.0,4.0,-2.0,-3.0
1.6951617632576617e+18,-3.0,1.0,-8.0,-8.0,-5.0,-7.0,-3.0,-3.0
1.6951617632586637e+18,-1.0,-2.0,-1.0,-1.0,1.0,2.0,0.0,-1.0
1.6951617632596616e+18,-3.0,-4.0,0.0,-2.0,-1.0,-4.0,2.0,1.0
1.6951617632596616e+18,0.0,0.0,0.0,-1.0,2.0,4.0,1.0,-1.0
1.6951617632805524e+18,0.0,1.0,-4.0,-2.0,-1.0,1.0,-2.0,0.0
1.6951617632805524e+18,-2.0,-3.0,-4.0,-2.0,1.0,-8.0,-2.0,-1.0
1.6951617632825444e+18,1.0,2.0,1.0,4.0,-2.0,-2.0,-1.0,0.0
1.6951617632825444e+18,0.0,-1.0,1.0,1.0,0.0,9.0,0.0,0.0
1.695161763295426e+18,-2.0,-3.0,-4.0,-4.0,-2.0,-5.0,-1.0,-2.0
1.695161763295426e+18,0.0,1.0,2.0,2.0,-1.0,-2.0,0.0,-1.0
1.6951617633014528e+18,0.0,0.0,1.0,-1.0,-2.0,1.0,-2.0,-1.0
1.695161763302443e+18,0.0,0.0,1.0,1.0,1.0,4.0,-1.0,0.0
1.6951617633244111e+18,0.0,-1.0,-3.0,0.0,0.0,-5.0,-3.0,-1.0
1.6951617633254456e+18,-2.0,-2.0,1.0,1.0,0.0,-2.0,-2.0,-2.0
1.6951617633254456e+18,-1.0,0.0,-1.0,0.0,-1.0,3.0,1.0,-1.0
1.6951617633254456e+18,2.0,2.0,-5.0,-3.0,-1.0,0.0,-2.0,-1.0
1.6951617633404244e+18,-1.0,0.0,2.0,-3.0,-1.0,-3.0,0.0,0.0
1.6951617633404244e+18,-1.0,-2.0,2.0,0.0,0.0,1.0,0.0,0.0
1.6951617633424038e+18,-1.0,-2.0,0.0,0.0,0.0,-1.0,0.0,-1.0
1.6951617633424038e+18,-2.0,-7.0,3.0,2.0,1.0,2.0,0.0,0.0
1.6951617633636173e+18,-2.0,-2.0,-7.0,-2.0,-2.0,-3.0,-1.0,0.0
1.6951617633636173e+18,1.0,2.0,-2.0,-1.0,-2.0,-2.0,-2.0,0.0
1.6951617633646364e+18,1.0,0.0,1.0,-2.0,0.0,-3.0,-1.0,-1.0
1.6951617633646364e+18,1.0,5.0,1.0,1.0,0.0,1.0,2.0,0.0
1.6951617633779308e+18,-2.0,-6.0,-6.0,-2.0,0.0,1.0,-1.0,-1.0
1.6951617633779308e+18,-2.0,-3.0,-2.0,0.0,-1.0,-2.0,-1.0,0.0
1.695161763379932e+18,-2.0,0.0,1.0,-1.0,-1.0,-1.0,-1.0,-2.0
1.695161763379932e+18,-1.0,-1.0,-1.0,-1.0,0.0,2.0,1.0,-2.0
1.6951617634004403e+18,-1.0,-1.0,-1.0,2.0,-1.0,-1.0,-1.0,0.0
1.6951617634004403e+18,-2.0,1.0,-1.0,-5.0,-2.0,-2.0,0.0,-1.0
1.695161763402445e+18,0.0,-9.0,-4.0,-1.0,-3.0,0.0,1.0,0.0
1.695161763402445e+18,0.0,-1.0,1.0,0.0,0.0,0.0,-1.0,-1.0
1.69516176341944e+18,0.0,0.0,-1.0,1.0,0.0,-2.0,0.0,-3.0
1.69516176341944e+18,1.0,3.0,-4.0,-2.0,-2.0,-1.0,-2.0,-1.0
1.6951617634294497e+18,-6.0,-5.0,-3.0,0.0,0.0,1.0,-2.0,0.0
1.6951617634294497e+18,-3.0,-6.0,7.0,3.0,2.0,1.0,0.0,0.0
1.6951617634531244e+18,0.0,1.0,-1.0,-3.0,0.0,0.0,-1.0,-2.0
1.6951617634531244e+18,-1.0,-3.0,0.0,0.0,-1.0,-1.0,-1.0,-3.0
1.6951617634550794e+18,0.0,1.0,-1.0,-2.0,-2.0,-3.0,1.0,-2.0
1.6951617634550794e+18,1.0,1.0,-3.0,0.0,-2.0,-1.0,-2.0,-1.0
1.695161763469262e+18,-1.0,0.0,-2.0,-2.0,1.0,-3.0,0.0,-3.0
1.695161763469262e+18,1.0,-1.0,-1.0,-1.0,-1.0,-2.0,1.0,1.0
1.695161763470261e+18,-3.0,-1.0,1.0,2.0,3.0,2.0,0.0,0.0
1.695161763470261e+18,0.0,1.0,-4.0,-2.0,-1.0,0.0,-2.0,-1.0
1.695161763474258e+18,-1.0,-3.0,2.0,0.0,-1.0,-1.0,-1.0,0.0
1.6951617634752586e+18,-4.0,-8.0,-6.0,-2.0,-1.0,0.0,0.0,-1.0
1.69516176349427e+18,4.0,-3.0,5.0,1.0,-4.0,-2.0,0.0,-1.0
1.69516176349427e+18,-3.0,-9.0,-3.0,0.0,-2.0,1.0,2.0,0.0
1.6951617635062423e+18,-2.0,-4.0,6.0,4.0,5.0,3.0,0.0,0.0
1.6951617635062423e+18,2.0,4.0,-2.0,-2.0,-4.0,-2.0,-1.0,0.0
1.6951617635072402e+18,0.0,1.0,1.0,0.0,2.0,0.0,0.0,0.0
1.6951617635072402e+18,-1.0,3.0,-4.0,-4.0,-3.0,-2.0,-3.0,-2.0
1.6951617635282266e+18,-3.0,-7.0,-3.0,-4.0,-4.0,-4.0,-1.0,0.0
1.6951617635282266e+18,-7.0,-8.0,6.0,8.0,9.0,3.0,3.0,-3.0
1.6951617635292285e+18,3.0,4.0,-2.0,-5.0,-4.0,-3.0,-2.0,0.0
1.6951617635302305e+18,1.0,-3.0,12.0,5.0,1.0,1.0,-1.0,1.0
1.6951617635392218e+18,-1.0,4.0,-5.0,-4.0,-1.0,-1.0,0.0,-1.0
1.6951617635392218e+18,4.0,9.0,-11.0,-8.0,-6.0,-4.0,-3.0,-1.0
1.6951617635432256e+18,-3.0,-12.0,7.0,3.0,1.0,2.0,-2.0,0.0
1.6951617635432256e+18,0.0,3.0,-2.0,0.0,-1.0,-1.0,0.0,0.0
1.6951617635655767e+18,1.0,7.0,-3.0,-4.0,-5.0,-1.0,-3.0,-1.0
1.6951617635665764e+18,0.0,5.0,1.0,-2.0,-3.0,-1.0,1.0,0.0
1.6951617635672412e+18,0.0,8.0,-13.0,-3.0,-2.0,-1.0,0.0,-1.0
1.6951617635672412e+18,-1.0,-4.0,-3.0,-1.0,-1.0,-1.0,-3.0,-1.0
1.6951617635805524e+18,1.0,1.0,-2.0,-1.0,1.0,1.0,1.0,-2.0
1.695161763581539e+18,1.0,3.0,-1.0,-3.0,-1.0,-2.0,-2.0,-1.0
1.6951617635825446e+18,-4.0,3.0,-1.0,-2.0,0.0,-2.0,-1.0,-2.0
1.6951617635825446e+18,-5.0,-14.0,-1.0,2.0,1.0,0.0,1.0,-2.0
1.6951617635944786e+18,-5.0,-20.0,6.0,6.0,3.0,0.0,1.0,0.0
1.6951617635944786e+18,-2.0,-6.0,6.0,3.0,1.0,1.0,2.0,0.0
1.6951617636034534e+18,0.0,5.0,-3.0,-1.0,-1.0,-3.0,-1.0,0.0
1.6951617636034534e+18,0.0,2.0,-4.0,-2.0,-1.0,-1.0,0.0,-2.0
1.695161763617176e+18,-1.0,0.0,2.0,-1.0,-2.0,-1.0,0.0,-2.0
1.6951617636181796e+18,-2.0,-3.0,-1.0,-1.0,-1.0,0.0,0.0,1.0
1.6951617636255478e+18,0.0,-4.0,2.0,1.0,-1.0,2.0,-1.0,-1.0
1.6951617636255478e+18,0.0,-3.0,0.0,-2.0,-1.0,-2.0,-1.0,-1.0
1.695161763641308e+18,1.0,6.0,-5.0,-4.0,0.0,-3.0,-2.0,1.0
1.695161763641308e+18,-2.0,-2.0,0.0,-1.0,-1.0,-3.0,-2.0,0.0
1.6951617636423265e+18,0.0,6.0,-4.0,-1.0,-1.0,-2.0,-2.0,0.0
1.6951617636423265e+18,0.0,5.0,-6.0,-1.0,-1.0,0.0,-1.0,0.0
1.6951617636696763e+18,0.0,0.0,2.0,-1.0,-1.0,-1.0,-1.0,0.0
1.6951617636706793e+18,1.0,-3.0,1.0,0.0,-1.0,-1.0,0.0,-1.0
1.6951617637007836e+18,1.0,-10.0,6.0,0.0,-1.0,1.0,0.0,0.0
1.695161763702758e+18,0.0,3.0,0.0,-2.0,-1.0,-1.0,-1.0,1.0
1.695161763702758e+18,-1.0,-2.0,-4.0,-1.0,-1.0,0.0,-1.0,0.0
1.695161763703758e+18,0.0,0.0,-1.0,0.0,-2.0,-1.0,1.0,-1.0
1.695161763703758e+18,0.0,0.0,-1.0,-2.0,0.0,0.0,-1.0,0.0
1.6951617637047585e+18,0.0,3.0,-5.0,-2.0,-2.0,-2.0,-1.0,-1.0
1.6951617637047585e+18,2.0,0.0,-2.0,-2.0,1.0,-2.0,0.0,-2.0
1.6951617637047585e+18,-2.0,2.0,-1.0,-1.0,-1.0,-2.0,-2.0,-2.0
1.6951617637057572e+18,0.0,-1.0,-6.0,-3.0,0.0,-1.0,-1.0,-1.0
1.6951617637057572e+18,-2.0,-1.0,1.0,1.0,-1.0,-1.0,-1.0,0.0
1.6951617637217485e+18,2.0,3.0,-1.0,-1.0,-2.0,-1.0,0.0,-1.0
1.6951617637227492e+18,-1.0,-2.0,-1.0,0.0,-1.0,-1.0,0.0,0.0
1.695161763730766e+18,-2.0,-1.0,1.0,-1.0,0.0,-1.0,0.0,-1.0
1.6951617637317422e+18,0.0,3.0,-2.0,-2.0,0.0,0.0,-1.0,-2.0
1.6951617637457341e+18,-1.0,0.0,-2.0,-1.0,-2.0,0.0,-2.0,-1.0
1.6951617637457341e+18,-2.0,-1.0,0.0,-2.0,0.0,-1.0,-2.0,-3.0
1.695161763748733e+18,-5.0,0.0,-2.0,2.0,0.0,2.0,0.0,-1.0
1.695161763748733e+18,1.0,3.0,-3.0,-3.0,-2.0,0.0,0.0,-1.0
1.6951617637607247e+18,-2.0,-6.0,-3.0,-2.0,-3.0,-2.0,-3.0,-1.0
1.6951617637607247e+18,-1.0,-1.0,1.0,-1.0,1.0,1.0,1.0,0.0
1.6951617637627244e+18,1.0,0.0,-1.0,-3.0,-2.0,-3.0,-1.0,-1.0
1.6951617637627244e+18,-2.0,0.0,-1.0,-1.0,0.0,-3.0,1.0,-1.0
1.695161763783715e+18,-2.0,5.0,-2.0,0.0,0.0,-1.0,0.0,-1.0
1.6951617637857116e+18,0.0,0.0,-5.0,0.0,0.0,0.0,-1.0,-1.0
1.695161763789711e+18,-1.0,0.0,1.0,-2.0,-3.0,-3.0,-1.0,-1.0
1.6951617637917074e+18,-1.0,-1.0,0.0,-3.0,1.0,1.0,0.0,0.0
1.695161763797704e+18,-1.0,1.0,0.0,1.0,1.0,-2.0,-1.0,-2.0
1.695161763797704e+18,-1.0,-1.0,-2.0,-1.0,0.0,0.0,-2.0,0.0
1.695161763805699e+18,0.0,0.0,0.0,0.0,-1.0,-1.0,0.0,0.0
1.695161763805699e+18,-1.0,-3.0,0.0,0.0,0.0,0.0,0.0,-1.0
1.6951617638205578e+18,0.0,-2.0,0.0,-1.0,0.0,-1.0,1.0,1.0
1.6951617638205578e+18,-3.0,-2.0,2.0,0.0,1.0,1.0,-1.0,0.0
1.6951617638225428e+18,-1.0,-2.0,0.0,-1.0,-1.0,-1.0,-1.0,-1.0
1.6951617638225428e+18,-2.0,0.0,-3.0,-3.0,-1.0,-1.0,-2.0,-2.0
1.6951617638345495e+18,-2.0,-1.0,1.0,0.0,-1.0,0.0,-2.0,0.0
1.6951617638345495e+18,-1.0,0.0,0.0,-1.0,-1.0,-1.0,-1.0,0.0
1.6951617638435963e+18,-3.0,1.0,-4.0,-2.0,-1.0,-1.0,0.0,0.0
1.6951617638435963e+18,-2.0,1.0,-2.0,1.0,-1.0,-1.0,-1.0,-1.0
1.6951617638575478e+18,-3.0,-3.0,2.0,0.0,-1.0,0.0,0.0,-2.0
1.6951617638585492e+18,3.0,-3.0,-4.0,-2.0,-2.0,-1.0,0.0,-2.0
1.6951617638599132e+18,-1.0,0.0,0.0,0.0,0.0,-1.0,0.0,0.0
1.6951617638599132e+18,1.0,-1.0,-1.0,-1.0,1.0,1.0,0.0,-1.0
1.695161763880639e+18,0.0,1.0,2.0,0.0,0.0,-2.0,-1.0,-1.0
1.695161763880639e+18,-2.0,-9.0,5.0,2.0,3.0,2.0,-2.0,1.0
1.695161763894427e+18,-3.0,-4.0,-1.0,1.0,-1.0,0.0,-1.0,-1.0
1.695161763895398e+18,-2.0,-1.0,0.0,0.0,1.0,1.0,0.0,0.0
1.695161763895398e+18,-1.0,-1.0,0.0,0.0,-2.0,0.0,0.0,-1.0
1.695161763895398e+18,1.0,3.0,-2.0,-2.0,-3.0,-1.0,-1.0,-2.0
1.6951617639035748e+18,2.0,1.0,-3.0,-1.0,-1.0,0.0,-2.0,0.0
1.6951617639035748e+18,-1.0,-4.0,1.0,-1.0,-1.0,-3.0,-2.0,1.0
1.6951617639181243e+18,0.0,1.0,-1.0,-2.0,0.0,-1.0,-2.0,0.0
1.6951617639181243e+18,-1.0,-1.0,-1.0,0.0,0.0,-2.0,0.0,-2.0
1.6951617639197064e+18,-1.0,0.0,0.0,-1.0,1.0,0.0,0.0,2.0
1.6951617639197064e+18,1.0,0.0,-2.0,-2.0,-1.0,1.0,0.0,-1.0
1.6951617639563996e+18,-1.0,0.0,-5.0,-1.0,-1.0,-2.0,0.0,0.0
1.6951617639563996e+18,-1.0,0.0,1.0,1.0,-2.0,0.0,0.0,0.0
1.6951617639574188e+18,-1.0,-2.0,-4.0,0.0,-1.0,0.0,-2.0,-1.0
1.6951617639583987e+18,-3.0,0.0,0.0,0.0,0.0,1.0,0.0,0.0
1.6951617639583987e+18,-1.0,1.0,0.0,-2.0,-2.0,-1.0,-2.0,-1.0
1.6951617639583987e+18,-1.0,4.0,2.0,-1.0,-1.0,-2.0,-1.0,-1.0
1.6951617639663995e+18,-2.0,-4.0,-11.0,0.0,0.0,-1.0,0.0,-2.0
1.6951617639743898e+18,-1.0,0.0,0.0,0.0,-1.0,-3.0,0.0,-1.0
1.695161764013367e+18,1.0,1.0,-1.0,-1.0,0.0,-1.0,-2.0,-1.0
1.6951617640143662e+18,-1.0,-2.0,-6.0,0.0,-1.0,-1.0,-1.0,1.0
1.6951617640143662e+18,-2.0,1.0,9.0,-2.0,-2.0,0.0,0.0,1.0
1.6951617640153667e+18,-2.0,-3.0,0.0,-1.0,-1.0,1.0,-1.0,-1.0
1.6951617640153667e+18,-1.0,-2.0,-2.0,-2.0,-2.0,-1.0,0.0,0.0
1.6951617640153667e+18,0.0,0.0,-1.0,0.0,-1.0,-2.0,-2.0,-1.0
1.6951617640253604e+18,0.0,1.0,3.0,0.0,0.0,-1.0,-2.0,-2.0
1.6951617640253604e+18,0.0,-2.0,-3.0,0.0,0.0,-3.0,0.0,-1.0
1.6951617640263636e+18,-2.0,3.0,3.0,0.0,-1.0,-1.0,0.0,-1.0
1.6951617640263636e+18,0.0,1.0,-4.0,-1.0,-1.0,-1.0,-2.0,-1.0
1.6951617640293599e+18,-1.0,2.0,-1.0,0.0,0.0,-3.0,0.0,0.0
1.6951617640293599e+18,-1.0,-1.0,1.0,0.0,-1.0,-2.0,-3.0,-1.0
1.6951617640373522e+18,-1.0,-4.0,1.0,1.0,-1.0,-2.0,0.0,-1.0
1.695161764038357e+18,0.0,-3.0,-12.0,-3.0,0.0,1.0,-1.0,0.0
1.695161764060908e+18,-1.0,0.0,5.0,0.0,-1.0,0.0,-1.0,-3.0
1.6951617640615406e+18,-2.0,2.0,-3.0,-2.0,-1.0,-2.0,0.0,-1.0
1.6951617640615406e+18,0.0,-2.0,0.0,0.0,1.0,-1.0,-1.0,2.0
1.6951617640615406e+18,-2.0,-1.0,2.0,0.0,-1.0,-1.0,-1.0,0.0
1.6951617640750444e+18,-1.0,-1.0,-1.0,-1.0,1.0,-2.0,-1.0,-1.0
1.6951617640750444e+18,1.0,-1.0,-2.0,-1.0,-2.0,1.0,0.0,-1.0
1.6951617640760428e+18,0.0,-1.0,0.0,-2.0,-1.0,0.0,-2.0,-1.0
1.6951617640760428e+18,-2.0,-1.0,1.0,-1.0,-1.0,0.0,-1.0,0.0
1.695161764083458e+18,-1.0,-1.0,-3.0,-1.0,-1.0,0.0,0.0,-1.0
1.695161764083458e+18,1.0,0.0,2.0,1.0,-1.0,-1.0,-1.0,-1.0
1.6951617640971323e+18,-1.0,-3.0,-5.0,-1.0,1.0,-1.0,0.0,-2.0
1.695161764098136e+18,0.0,0.0,2.0,1.0,0.0,-1.0,1.0,-1.0
1.6951617641202967e+18,0.0,-2.0,-1.0,0.0,-3.0,-1.0,-1.0,-3.0
1.6951617641202967e+18,-1.0,-1.0,0.0,-1.0,1.0,-3.0,-2.0,-1.0
1.6951617641213138e+18,-1.0,0.0,1.0,-1.0,-1.0,0.0,-2.0,-1.0
1.6951617641213138e+18,-1.0,0.0,-1.0,-2.0,-2.0,-1.0,-2.0,0.0
1.695161764135531e+18,0.0,-1.0,-1.0,-1.0,-2.0,0.0,-1.0,0.0
1.695161764135531e+18,-2.0,-3.0,-2.0,0.0,1.0,1.0,0.0,-2.0
1.695161764135531e+18,-2.0,1.0,0.0,0.0,-1.0,-1.0,0.0,1.0
1.695161764135531e+18,0.0,-2.0,6.0,4.0,3.0,1.0,0.0,-1.0
1.6951617641434852e+18,-1.0,-1.0,-11.0,-4.0,0.0,0.0,0.0,1.0
1.6951617641434852e+18,1.0,-2.0,-1.0,-2.0,-2.0,-1.0,0.0,0.0
1.6951617641734671e+18,0.0,0.0,-3.0,-1.0,-1.0,0.0,0.0,-1.0
1.6951617641734671e+18,-2.0,-1.0,1.0,0.0,-1.0,-1.0,-2.0,-2.0
1.695161764174468e+18,0.0,0.0,2.0,2.0,1.0,-1.0,0.0,-1.0
1.695161764174468e+18,-1.0,-1.0,0.0,0.0,-1.0,-1.0,-1.0,0.0
1.695161764187945e+18,-1.0,0.0,-3.0,-2.0,-2.0,-1.0,-1.0,-1.0
1.695161764187945e+18,0.0,0.0,-3.0,-1.0,0.0,0.0,0.0,-1.0
1.695161764189958e+18,0.0,0.0,1.0,-1.0,-3.0,-1.0,0.0,-1.0
1.695161764189958e+18,-1.0,-1.0,0.0,0.0,-1.0,-1.0,-2.0,0.0
1.69516176420315e+18,-2.0,-2.0,-2.0,-1.0,-1.0,-2.0,1.0,0.0
1.69516176420315e+18,-2.0,-1.0,-1.0,2.0,0.0,0.0,0.0,-1.0
1.69516176420415e+18,-1.0,-1.0,0.0,-6.0,-1.0,-1.0,-2.0,-1.0
1.6951617642051505e+18,0.0,0.0,0.0,-1.0,-1.0,-3.0,-2.0,0.0
1.695161764217163e+18,-1.0,-1.0,0.0,2.0,0.0,-2.0,-2.0,-3.0
1.695161764218144e+18,0.0,-1.0,-4.0,0.0,0.0,-1.0,-2.0,-1.0
1.6951617642255378e+18,-1.0,-1.0,0.0,2.0,1.0,-1.0,-1.0,-1.0
1.6951617642255378e+18,-1.0,-1.0,0.0,0.0,2.0,1.0,-1.0,-1.0
1.6951617642402977e+18,-2.0,-1.0,-2.0,0.0,0.0,-1.0,-1.0,-1.0
1.6951617642413015e+18,0.0,-1.0,0.0,-1.0,-3.0,-3.0,0.0,-2.0
1.695161764246728e+18,0.0,0.0,0.0,0.0,-1.0,-1.0,0.0,-1.0
1.6951617642477317e+18,0.0,1.0,-2.0,-1.0,-2.0,-1.0,0.0,-1.0
1.6951617642636785e+18,0.0,-2.0,-2.0,1.0,-3.0,2.0,0.0,0.0
1.6951617642636785e+18,0.0,0.0,0.0,-1.0,0.0,2.0,0.0,0.0
1.6951617642646766e+18,-1.0,1.0,0.0,0.0,2.0,-1.0,-1.0,0.0
1.6951617642646766e+18,0.0,1.0,-2.0,2.0,0.0,-2.0,-2.0,0.0
1.695161764286081e+18,0.0,0.0,-1.0,-3.0,1.0,1.0,0.0,1.0
1.695161764286081e+18,-1.0,-1.0,0.0,-2.0,-1.0,-1.0,-1.0,-2.0
1.695161764288083e+18,-1.0,-2.0,-2.0,-1.0,-4.0,-1.0,-1.0,-1.0
1.695161764288083e+18,-1.0,-1.0,0.0,-1.0,-2.0,-1.0,-2.0,-1.0
1.695161764300655e+18,-1.0,0.0,1.0,-1.0,-1.0,-2.0,-1.0,-3.0
1.695161764300655e+18,-2.0,1.0,0.0,-1.0,0.0,-1.0,0.0,1.0
1.6951617643026335e+18,-1.0,-1.0,-2.0,0.0,0.0,2.0,-1.0,0.0
1.6951617643026335e+18,-3.0,-1.0,1.0,-4.0,0.0,1.0,-1.0,0.0
1.6951617643304553e+18,1.0,-1.0,-1.0,-1.0,1.0,0.0,-2.0,0.0
1.6951617643304553e+18,-1.0,-2.0,-1.0,0.0,1.0,-1.0,1.0,-1.0
1.6951617643390848e+18,-1.0,-1.0,0.0,0.0,-1.0,0.0,-1.0,-2.0
1.695161764340084e+18,1.0,0.0,-1.0,-2.0,1.0,1.0,-1.0,-1.0
1.695161764340084e+18,-1.0,-2.0,-1.0,0.0,-1.0,-1.0,-1.0,0.0
1.695161764340084e+18,-1.0,-3.0,-3.0,-3.0,0.0,0.0,0.0,1.0
1.6951617643625702e+18,-1.0,0.0,0.0,-1.0,1.0,-2.0,0.0,0.0
1.6951617643625702e+18,-2.0,-1.0,-1.0,-1.0,-1.0,0.0,0.0,-1.0
1.6951617643635753e+18,-2.0,0.0,-2.0,0.0,0.0,-1.0,0.0,-1.0
1.6951617643635753e+18,0.0,-1.0,-1.0,0.0,-2.0,0.0,0.0,1.0
1.6951617643742454e+18,-2.0,0.0,1.0,0.0,-1.0,-2.0,0.0,-1.0
1.6951617643742454e+18,0.0,-2.0,-1.0,-1.0,-1.0,1.0,0.0,-1.0
1.695161764383244e+18,-1.0,-1.0,-1.0,0.0,-1.0,0.0,1.0,-1.0
1.695161764383244e+18,-1.0,0.0,1.0,-2.0,-1.0,0.0,-1.0,0.0
1.6951617643979753e+18,-1.0,-1.0,-1.0,-1.0,0.0,0.0,-2.0,-1.0
1.6951617643979753e+18,1.0,0.0,-1.0,-1.0,-1.0,-2.0,-1.0,-2.0
1.6951617643979753e+18,0.0,0.0,0.0,0.0,0.0,-1.0,-2.0,-1.0
1.6951617643979753e+18,0.0,-1.0,-2.0,-3.0,-1.0,0.0,-1.0,-2.0
1.6951617644134922e+18,1.0,-1.0,-1.0,-2.0,-2.0,-2.0,-2.0,-1.0
1.6951617644134922e+18,-1.0,-3.0,1.0,-1.0,0.0,-2.0,-1.0,-1.0
1.6951617644346015e+18,-2.0,0.0,0.0,0.0,0.0,2.0,-2.0,-1.0
1.6951617644346015e+18,0.0,0.0,0.0,-1.0,-2.0,-1.0,-1.0,0.0
1.6951617644515382e+18,-1.0,-3.0,-1.0,-2.0,-1.0,0.0,0.0,1.0
1.6951617644515382e+18,-2.0,-2.0,-1.0,1.0,0.0,1.0,-1.0,0.0
1.6951617644515382e+18,0.0,-1.0,-2.0,-4.0,-2.0,-1.0,-3.0,-1.0
1.6951617644525432e+18,-2.0,-2.0,-2.0,0.0,2.0,0.0,-1.0,-2.0
1.69516176445354e+18,-1.0,-2.0,-1.0,0.0,0.0,0.0,0.0,-1.0
1.69516176445354e+18,-2.0,0.0,0.0,0.0,-1.0,-1.0,-1.0,-1.0
1.695161764473381e+18,-1.0,-1.0,-1.0,-2.0,-2.0,-2.0,1.0,-1.0
1.695161764473381e+18,0.0,0.0,-1.0,-1.0,-1.0,-1.0,0.0,-2.0
1.6951617644743803e+18,0.0,0.0,-1.0,-2.0,-1.0,-1.0,-1.0,0.0
1.6951617644743803e+18,-1.0,0.0,-2.0,0.0,-2.0,-3.0,0.0,0.0
1.6951617644796518e+18,-2.0,-1.0,0.0,-2.0,0.0,0.0,-3.0,0.0
1.6951617644796518e+18,1.0,-2.0,-1.0,0.0,-1.0,-1.0,-3.0,0.0
1.695161764487688e+18,-2.0,-1.0,-1.0,2.0,-1.0,-1.0,-1.0,-2.0
1.6951617644886922e+18,-1.0,0.0,-1.0,-2.0,-1.0,0.0,-1.0,-1.0
1.6951617645034609e+18,-1.0,-1.0,0.0,-2.0,-1.0,1.0,0.0,-1.0
1.6951617645034609e+18,0.0,-2.0,-2.0,-2.0,-1.0,0.0,-1.0,0.0
1.6951617645044603e+18,-1.0,-1.0,-1.0,0.0,0.0,1.0,-1.0,-1.0
1.6951617645054592e+18,-2.0,-1.0,0.0,-2.0,0.0,1.0,-1.0,-1.0
1.6951617645254482e+18,0.0,-1.0,0.0,-1.0,-1.0,-1.0,0.0,-2.0
1.6951617645264466e+18,-2.0,-2.0,-1.0,-1.0,-1.0,-1.0,-1.0,-2.0
1.6951617645274455e+18,-1.0,-1.0,-3.0,0.0,-1.0,0.0,-2.0,-1.0
1.6951617645274455e+18,0.0,-2.0,-2.0,-1.0,-2.0,-2.0,0.0,0.0
1.6951617645644242e+18,-1.0,0.0,-1.0,0.0,0.0,0.0,0.0,0.0
1.6951617645654239e+18,-1.0,0.0,0.0,-2.0,-2.0,1.0,-1.0,-1.0
1.6951617645664238e+18,-2.0,-1.0,-2.0,-1.0,1.0,-1.0,-1.0,0.0
1.6951617645664238e+18,0.0,0.0,-1.0,0.0,-1.0,-1.0,-1.0,-1.0
1.6951617645664238e+18,0.0,-1.0,-2.0,-2.0,-3.0,-1.0,-1.0,-1.0
1.6951617645664238e+18,-2.0,0.0,1.0,0.0,-1.0,-3.0,-1.0,-1.0
1.6951617645704243e+18,-1.0,-1.0,-3.0,-2.0,0.0,-1.0,0.0,-1.0
1.6951617645714207e+18,-2.0,-1.0,-2.0,-1.0,-1.0,0.0,0.0,-1.0
1.6951617645854147e+18,-2.0,-1.0,-1.0,1.0,0.0,-1.0,0.0,-1.0
1.6951617645854147e+18,0.0,0.0,-1.0,0.0,0.0,-2.0,0.0,-2.0
1.6951617645874112e+18,-1.0,-2.0,0.0,0.0,1.0,1.0,-2.0,-1.0
1.6951617645874112e+18,0.0,-2.0,-1.0,-1.0,-2.0,0.0,0.0,-1.0
1.695161764602403e+18,-2.0,0.0,0.0,0.0,-1.0,-1.0,-1.0,-2.0
1.695161764602403e+18,-1.0,-1.0,-1.0,-1.0,-1.0,0.0,0.0,-2.0
1.6951617646034048e+18,-1.0,-1.0,0.0,-2.0,0.0,-1.0,-1.0,1.0
1.6951617646034048e+18,-1.0,0.0,1.0,-1.0,0.0,-1.0,0.0,-1.0
1.6951617646303885e+18,-2.0,0.0,0.0,-1.0,2.0,0.0,-1.0,-2.0
1.695161764631386e+18,-1.0,0.0,0.0,0.0,-1.0,0.0,-2.0,-1.0
1.6951617646323855e+18,0.0,0.0,-2.0,-1.0,-2.0,-1.0,-1.0,-2.0
1.6951617646323855e+18,0.0,-1.0,0.0,-2.0,-1.0,-1.0,0.0,-1.0
1.6951617646423803e+18,0.0,-1.0,0.0,-1.0,-2.0,1.0,0.0,2.0
1.6951617646423803e+18,0.0,1.0,1.0,0.0,1.0,1.0,1.0,0.0
1.6951617646533732e+18,-3.0,-4.0,1.0,1.0,2.0,0.0,1.0,0.0
1.6951617646533732e+18,-1.0,2.0,-1.0,0.0,2.0,0.0,0.0,-2.0
1.695161764675365e+18,2.0,2.0,2.0,2.0,2.0,1.0,0.0,0.0
1.695161764680358e+18,1.0,2.0,0.0,1.0,-1.0,0.0,1.0,1.0
1.6951617646923533e+18,2.0,1.0,3.0,-2.0,-2.0,1.0,1.0,1.0
1.6951617646933622e+18,1.0,-3.0,-5.0,0.0,0.0,0.0,-2.0,0.0
1.6951617646933622e+18,1.0,3.0,20.0,2.0,0.0,-2.0,-1.0,0.0
1.6951617646933622e+18,-1.0,-4.0,-9.0,-9.0,-4.0,-2.0,-2.0,-1.0
1.6951617647063437e+18,-1.0,1.0,0.0,0.0,-5.0,-1.0,-1.0,-2.0
1.6951617647063437e+18,0.0,-1.0,8.0,2.0,4.0,2.0,0.0,-1.0
1.6951617647073428e+18,-1.0,0.0,-6.0,-6.0,-1.0,-1.0,-1.0,-3.0
1.6951617647073428e+18,0.0,2.0,9.0,7.0,-1.0,0.0,1.0,0.0
1.6951617647083423e+18,0.0,-3.0,-6.0,6.0,11.0,2.0,-2.0,-4.0
1.6951617647083423e+18,2.0,4.0,-2.0,-10.0,-4.0,-4.0,-1.0,-5.0
1.6951617647283305e+18,-6.0,-8.0,-4.0,9.0,11.0,2.0,3.0,-1.0
1.6951617647283305e+18,4.0,4.0,5.0,8.0,0.0,2.0,-4.0,19.0
1.6951617647293312e+18,-5.0,-2.0,-2.0,1.0,6.0,1.0,0.0,-11.0
1.6951617647303293e+18,-5.0,-6.0,1.0,2.0,-7.0,-1.0,3.0,14.0
1.6951617647503188e+18,9.0,14.0,-1.0,-8.0,-5.0,1.0,0.0,-22.0
1.6951617647513242e+18,9.0,-3.0,-7.0,7.0,1.0,-2.0,-7.0,-2.0
1.695161764752319e+18,4.0,-4.0,-1.0,-13.0,-7.0,-7.0,-4.0,-4.0
1.695161764752319e+18,-11.0,3.0,1.0,-10.0,-5.0,2.0,9.0,3.0
1.6951617647563164e+18,-1.0,3.0,1.0,1.0,-4.0,-7.0,-5.0,1.0
1.695161764757314e+18,-2.0,-16.0,-4.0,-1.0,3.0,9.0,-6.0,4.0
1.695161764771308e+18,12.0,18.0,0.0,0.0,3.0,2.0,7.0,12.0
1.695161764771308e+18,10.0,2.0,-3.0,1.0,3.0,1.0,-3.0,13.0
1.6951617647872968e+18,13.0,4.0,0.0,6.0,-2.0,1.0,6.0,-50.0
1.6951617647872968e+18,-44.0,-23.0,-12.0,-22.0,-10.0,-9.0,-17.0,3.0
1.6951617647952924e+18,21.0,4.0,7.0,7.0,-1.0,-6.0,-8.0,7.0
1.695161764796291e+18,-33.0,-2.0,-5.0,0.0,1.0,-3.0,-7.0,-15.0
1.69516176480329e+18,30.0,-14.0,-3.0,4.0,1.0,-6.0,-22.0,4.0
1.69516176480329e+18,39.0,15.0,-4.0,-3.0,3.0,17.0,61.0,24.0
1.6951617648042867e+18,-16.0,-7.0,-8.0,-10.0,-7.0,4.0,-10.0,5.0
1.695161764805288e+18,-1.0,33.0,6.0,6.0,-4.0,-7.0,-5.0,7.0
1.6951617648172797e+18,-31.0,-20.0,1.0,0.0,2.0,-2.0,-15.0,2.0
1.6951617648172797e+18,-20.0,1.0,2.0,-5.0,-1.0,2.0,22.0,-2.0
1.695161764841266e+18,-17.0,-11.0,3.0,7.0,1.0,2.0,3.0,-8.0
1.695161764841266e+18,3.0,-11.0,-9.0,-4.0,-1.0,-15.0,-31.0,-32.0
1.6951617648422664e+18,-21.0,0.0,1.0,3.0,6.0,21.0,39.0,28.0
1.6951617648422664e+18,19.0,-2.0,1.0,-5.0,-5.0,-8.0,-23.0,-21.0
1.6951617648432653e+18,47.0,10.0,0.0,1.0,-4.0,0.0,19.0,31.0
1.6951617648432653e+18,3.0,-15.0,-1.0,-1.0,2.0,-2.0,-16.0,-24.0
1.6951617648632545e+18,-11.0,20.0,4.0,6.0,4.0,4.0,11.0,4.0
1.6951617648632545e+18,25.0,-22.0,2.0,6.0,1.0,-4.0,-2.0,5.0
1.6951617648652552e+18,-34.0,3.0,1.0,-2.0,-2.0,5.0,2.0,-30.0
1.6951617648652552e+18,-1.0,-14.0,-7.0,-4.0,-3.0,-2.0,12.0,25.0
1.695161764876245e+18,-14.0,-33.0,-12.0,-16.0,-11.0,-10.0,-32.0,-20.0
1.6951617648772452e+18,-5.0,24.0,6.0,7.0,2.0,0.0,18.0,31.0
1.6951617648942362e+18,69.0,9.0,-13.0,-10.0,-4.0,-14.0,-21.0,10.0
1.6951617648942362e+18,-73.0,-17.0,8.0,14.0,2.0,21.0,35.0,-10.0
1.6951617649002342e+18,19.0,16.0,-4.0,-7.0,-2.0,-3.0,-9.0,7.0
1.6951617649002342e+18,-43.0,-9.0,-3.0,-1.0,4.0,-4.0,20.0,-13.0
1.69516176490723e+18,-4.0,-11.0,2.0,4.0,-3.0,0.0,-42.0,0.0
1.69516176490723e+18,31.0,-2.0,3.0,0.0,1.0,3.0,37.0,-27.0
1.6951617649322168e+18,-2.0,17.0,-2.0,-5.0,-7.0,-18.0,-21.0,59.0
1.6951617649322168e+18,-17.0,13.0,3.0,-2.0,-2.0,5.0,21.0,-44.0
1.6951617649332137e+18,0.0,-7.0,-1.0,-1.0,3.0,-5.0,-8.0,35.0
1.6951617649332137e+18,28.0,8.0,-1.0,-6.0,-4.0,-1.0,-25.0,14.0
1.6951617649452063e+18,-6.0,-8.0,3.0,-1.0,2.0,24.0,56.0,-54.0
1.6951617649452063e+18,57.0,30.0,5.0,6.0,2.0,-6.0,-9.0,65.0
1.6951617649532257e+18,-67.0,-24.0,-4.0,-8.0,-7.0,-7.0,23.0,-11.0
1.6951617649532257e+18,21.0,-7.0,7.0,6.0,6.0,9.0,-9.0,15.0
1.695161764961208e+18,-11.0,27.0,-2.0,-1.0,-5.0,-13.0,-8.0,-8.0
1.695161764961208e+18,-21.0,-12.0,-1.0,-3.0,-4.0,-3.0,-10.0,-19.0
1.6951617649721915e+18,12.0,-1.0,-2.0,-3.0,1.0,-3.0,-59.0,-34.0
1.6951617649721915e+18,-19.0,3.0,-1.0,-1.0,-4.0,-10.0,-2.0,42.0
1.6951617650071729e+18,-48.0,-19.0,-8.0,-3.0,-4.0,0.0,-7.0,6.0
1.6951617650081754e+18,40.0,8.0,-2.0,0.0,8.0,17.0,26.0,-15.0
1.6951617650081754e+18,-24.0,-5.0,6.0,0.0,-4.0,-13.0,14.0,24.0
1.6951617650081754e+18,-27.0,-5.0,-9.0,-2.0,-4.0,-5.0,-15.0,-55.0
1.695161765009177e+18,-35.0,-17.0,-8.0,-14.0,-11.0,-16.0,-6.0,-18.0
1.695161765009177e+18,38.0,-7.0,-8.0,-10.0,-11.0,-13.0,-47.0,-4.0
1.6951617650291594e+18,-20.0,10.0,7.0,11.0,6.0,11.0,15.0,-28.0
1.695161765030158e+18,0.0,-5.0,-6.0,-7.0,3.0,10.0,22.0,23.0
1.695161765030158e+18,1.0,-14.0,0.0,5.0,0.0,-8.0,-4.0,-4.0
1.695161765030158e+18,-9.0,5.0,2.0,0.0,2.0,7.0,5.0,-13.0
1.695161765045149e+18,3.0,-12.0,-7.0,-7.0,-9.0,-2.0,26.0,-14.0
1.695161765045149e+18,6.0,3.0,2.0,2.0,-3.0,-12.0,-31.0,-23.0
1.695161765046148e+18,35.0,12.0,4.0,7.0,6.0,10.0,-14.0,54.0
1.695161765046148e+18,3.0,-26.0,-4.0,-2.0,4.0,-3.0,-16.0,4.0
1.6951617650821332e+18,-11.0,-8.0,-4.0,0.0,-6.0,0.0,9.0,10.0
1.6951617650821332e+18,16.0,-6.0,2.0,0.0,-2.0,-7.0,-17.0,-42.0
1.6951617650821332e+18,-27.0,-10.0,-11.0,4.0,3.0,-5.0,-20.0,-53.0
1.6951617650831322e+18,-8.0,8.0,6.0,4.0,1.0,9.0,47.0,67.0
1.6951617650841267e+18,24.0,27.0,4.0,4.0,8.0,12.0,5.0,-23.0
1.6951617650841267e+18,22.0,-11.0,-7.0,-7.0,-6.0,-11.0,18.0,64.0
1.6951617650961206e+18,9.0,1.0,6.0,6.0,-3.0,-8.0,-37.0,-37.0
1.6951617650961206e+18,-21.0,-7.0,-7.0,-16.0,-5.0,6.0,-2.0,-12.0
1.6951617650971226e+18,25.0,-5.0,3.0,16.0,10.0,10.0,5.0,9.0
1.6951617650981202e+18,13.0,10.0,0.0,-7.0,-2.0,-7.0,-24.0,-9.0
1.6951617651191068e+18,23.0,11.0,0.0,6.0,3.0,8.0,32.0,36.0
1.6951617651191068e+18,-18.0,-5.0,4.0,8.0,6.0,0.0,2.0,-11.0
1.695161765120106e+18,39.0,8.0,-2.0,-15.0,-16.0,-24.0,-27.0,-16.0
1.695161765120106e+18,-5.0,6.0,-2.0,5.0,2.0,3.0,15.0,-12.0
1.695161765121107e+18,5.0,-19.0,2.0,4.0,6.0,13.0,13.0,3.0
1.695161765121107e+18,-47.0,4.0,8.0,6.0,1.0,-12.0,-33.0,16.0
1.6951617651580849e+18,-4.0,2.0,-2.0,-3.0,2.0,29.0,60.0,-4.0
1.6951617651580849e+18,-32.0,2.0,1.0,-2.0,-1.0,4.0,-22.0,-70.0
1.695161765159087e+18,2.0,15.0,-3.0,-11.0,-10.0,-6.0,28.0,106.0
1.695161765159087e+18,39.0,-8.0,-4.0,4.0,7.0,11.0,1.0,-20.0
1.6951617651720778e+18,-1.0,10.0,2.0,-3.0,0.0,-16.0,6.0,24.0
1.6951617651730762e+18,-57.0,-12.0,9.0,9.0,3.0,5.0,-46.0,16.0
1.6951617651730762e+18,-31.0,7.0,0.0,1.0,3.0,-5.0,-14.0,-68.0
1.695161765174076e+18,-37.0,-10.0,10.0,1.0,-5.0,-2.0,-16.0,-41.0
1.695161765174076e+18,-5.0,2.0,-12.0,-8.0,-7.0,-9.0,-12.0,8.0
1.695161765174076e+18,3.0,8.0,-8.0,-1.0,3.0,8.0,33.0,0.0
1.6951617651930772e+18,33.0,-6.0,4.0,5.0,-5.0,-12.0,6.0,0.0
1.6951617651930772e+18,7.0,6.0,-2.0,1.0,-6.0,-14.0,-41.0,-3.0
1.6951617651950628e+18,18.0,-5.0,-4.0,-16.0,-4.0,6.0,16.0,65.0
1.6951617651950628e+18,26.0,10.0,5.0,-2.0,-4.0,-4.0,8.0,-11.0
1.6951617652250473e+18,2.0,-1.0,0.0,-1.0,5.0,27.0,20.0,4.0
1.6951617652250473e+18,-16.0,5.0,1.0,2.0,-1.0,-18.0,-43.0,-19.0
1.6951617652260465e+18,-35.0,0.0,-4.0,15.0,4.0,-9.0,15.0,49.0
1.6951617652270454e+18,29.0,-1.0,1.0,-9.0,4.0,-13.0,-17.0,-29.0
1.6951617652270454e+18,-14.0,-3.0,-1.0,-2.0,3.0,3.0,-2.0,-31.0
1.6951617652270454e+18,20.0,-6.0,-5.0,-1.0,-7.0,-3.0,-11.0,14.0
1.6951617652310438e+18,-6.0,3.0,10.0,4.0,1.0,13.0,-6.0,-65.0
1.6951617652310438e+18,6.0,4.0,0.0,5.0,13.0,35.0,73.0,58.0
1.6951617652460334e+18,-6.0,-9.0,-4.0,-1.0,-2.0,-18.0,-59.0,-41.0
1.6951617652460334e+18,-25.0,5.0,-5.0,-2.0,4.0,1.0,27.0,7.0
1.6951617652480346e+18,11.0,-12.0,0.0,3.0,0.0,-7.0,-33.0,-22.0
1.6951617652480346e+18,9.0,2.0,-9.0,-12.0,-11.0,-6.0,28.0,17.0
1.6951617652590533e+18,7.0,13.0,17.0,1.0,3.0,12.0,-7.0,21.0
1.695161765260028e+18,18.0,-1.0,-11.0,1.0,4.0,25.0,35.0,-14.0
1.6951617652760174e+18,22.0,11.0,12.0,7.0,10.0,7.0,16.0,-12.0
1.6951617652760174e+18,26.0,-6.0,-10.0,-4.0,-2.0,9.0,-5.0,16.0
1.6951617652840174e+18,-1.0,-3.0,0.0,-8.0,-6.0,-15.0,-12.0,-15.0
1.6951617652850163e+18,31.0,3.0,2.0,2.0,0.0,-8.0,5.0,24.0
1.6951617652860111e+18,-55.0,-5.0,1.0,-6.0,-5.0,-6.0,-2.0,-30.0
1.6951617652860111e+18,-2.0,1.0,7.0,14.0,7.0,2.0,-21.0,-32.0
1.6951617653055552e+18,25.0,15.0,-6.0,-12.0,-5.0,3.0,19.0,12.0
1.6951617653055552e+18,-6.0,-21.0,-4.0,-3.0,-3.0,-3.0,2.0,0.0
1.6951617653075556e+18,-4.0,-1.0,5.0,9.0,3.0,11.0,-6.0,-34.0
1.6951617653075556e+18,-19.0,-9.0,-3.0,-3.0,-9.0,-14.0,-4.0,31.0
1.6951617653195556e+18,37.0,6.0,-2.0,-7.0,-1.0,-1.0,-9.0,35.0
1.6951617653195556e+18,-37.0,2.0,-6.0,-9.0,-7.0,-9.0,-2.0,-29.0
1.6951617653445435e+18,-2.0,-10.0,-5.0,-5.0,-2.0,-5.0,-13.0,-6.0
1.6951617653445435e+18,-7.0,5.0,3.0,8.0,2.0,-11.0,-3.0,-1.0
1.6951617653445435e+18,-7.0,-19.0,-10.0,-3.0,-8.0,0.0,10.0,13.0
1.69516176534554e+18,-4.0,4.0,5.0,-5.0,-5.0,-10.0,-9.0,-10.0
1.6951617653505362e+18,-5.0,-2.0,2.0,2.0,2.0,-1.0,-12.0,10.0
1.6951617653505362e+18,12.0,4.0,-8.0,-9.0,-8.0,-11.0,10.0,12.0
1.6951617653645501e+18,-4.0,-8.0,4.0,9.0,9.0,22.0,34.0,16.0
1.69516176536555e+18,-11.0,14.0,-13.0,-7.0,-7.0,-16.0,-40.0,-7.0
1.695161765373232e+18,-14.0,-19.0,-3.0,-3.0,-8.0,-12.0,-12.0,-32.0
1.695161765373232e+18,24.0,-8.0,-3.0,-4.0,0.0,4.0,32.0,72.0
1.6951617653953165e+18,-3.0,-3.0,-14.0,-12.0,-7.0,-14.0,-22.0,-23.0
1.6951617653953165e+18,-20.0,4.0,8.0,8.0,2.0,9.0,28.0,13.0
1.6951617653974715e+18,-10.0,6.0,-4.0,-3.0,0.0,2.0,-5.0,-6.0
1.6951617653974715e+18,-17.0,-2.0,4.0,-4.0,-5.0,-4.0,-24.0,-35.0
1.6951617654107095e+18,-15.0,6.0,6.0,8.0,2.0,-4.0,-1.0,18.0
1.6951617654107095e+18,34.0,0.0,-6.0,-9.0,0.0,1.0,-2.0,-23.0
1.695161765411709e+18,-7.0,-5.0,-7.0,2.0,-4.0,-2.0,11.0,11.0
1.6951617654127078e+18,-11.0,0.0,11.0,0.0,2.0,-6.0,-20.0,-30.0
1.6951617654263053e+18,3.0,-11.0,-8.0,-4.0,-6.0,-8.0,9.0,36.0
1.6951617654263053e+18,-5.0,-9.0,-5.0,-4.0,-1.0,3.0,-17.0,-17.0
1.695161765427302e+18,10.0,2.0,1.0,2.0,3.0,7.0,19.0,17.0
1.695161765427302e+18,9.0,1.0,-1.0,-2.0,-1.0,4.0,-10.0,-4.0
1.6951617654482893e+18,10.0,12.0,-7.0,-8.0,-2.0,1.0,9.0,-27.0
1.6951617654482893e+18,-5.0,-11.0,-1.0,-1.0,-5.0,-3.0,3.0,-3.0
1.6951617654492892e+18,1.0,-1.0,-3.0,-4.0,-1.0,-4.0,1.0,15.0
1.6951617654492892e+18,0.0,13.0,8.0,7.0,-1.0,1.0,-6.0,-5.0
1.6951617654642806e+18,2.0,-7.0,1.0,-5.0,-7.0,-2.0,1.0,-14.0
