timestamp,left_data_Ac_X,left_data_Ac_Y,left_data_Ac_Z,left_data_Gy_X,left_data_Gy_Y,left_data_Gy_Z,left_data_flex_1,left_data_flex_2,left_data_flex_3,left_data_flex_4,left_data_flex_5,right_data_Ac_X,right_data_Ac_Y,right_data_Ac_Z,right_data_Gy_X,right_data_Gy_Y,right_data_Gy_Z,right_data_flex_1,right_data_flex_2,right_data_flex_3,right_data_flex_4,right_data_flex_5
1695161809408932200,-9.29788208,-1.732204914,-0.114921682,0.228225112,0.07500919,-0.062352221,-1,-6,-68,-2,3,-8.584410667,3.881000996,0.33399114,0.070745789,-0.090597242,-0.006261868,-53,-45,-22,28,183
1695161809409932200,-9.296685219,-1.720233917,-0.111330383,0.219032168,0.069679938,-0.060753446,-1,-3,-70,0,2,-8.583212852,3.881000996,0.328005642,0.071145482,-0.090064317,-0.005995406,-49,-39,-29,29,179
1695161809410932200,-9.293093681,-1.705868721,-0.10055647,0.202644721,0.060486984,-0.058488514,4,-6,-68,-14,4,-8.579621315,3.879803896,0.319625914,0.071811639,-0.089264929,-0.005995406,-49,-44,-31,24,182
1695161809411932200,-9.293093681,-1.695094824,-0.10175357,0.191986218,0.055290964,-0.057022974,-2,-7,-68,2,0,-8.574832916,3.878606796,0.314837515,0.072211333,-0.088465542,-0.005728943,-47,-41,-29,29,178
1695161809412932200,-9.290699959,-1.683123827,-0.10055647,0.180661559,0.050228179,-0.055424199,-2,-2,-70,0,2,-8.573636055,3.873818398,0.317231715,0.072477795,-0.087932616,-0.005595712,-49,-40,-29,28,180
1695161809471894400,-9.186552048,-1.650802016,-0.094570965,-0.076874427,-0.034773353,-0.008526799,0,-4,-70,-8,-1,-8.51617527,3.892971992,0.258573771,0.073943339,-0.061819296,-0.007194487,-50,-50,-30,28,181
1695161809472894400,-9.18296051,-1.656787634,-0.095768064,-0.089664623,-0.039303213,-0.004796324,0,-5,-69,-1,3,-8.51617527,3.892971992,0.254982471,0.073676877,-0.060620211,-0.007460949,-51,-43,-30,29,180
1695161809473894400,-9.179368973,-1.662773132,-0.104147777,-0.102055125,-0.043833077,-0.00106585,-1,-4,-69,-1,0,-8.514978409,3.892971992,0.250194073,0.073277183,-0.058488514,-0.007860643,-49,-44,-29,28,183
1695161809474894400,-9.173383713,-1.67115283,-0.114921682,-0.113646246,-0.048629403,0.003330781,-1,-4,-67,-4,0,-8.51617527,3.895366192,0.251391172,0.072877489,-0.056490045,-0.008127105,-49,-44,-33,24,180
1695161809475894400,-9.17098999,-1.681926727,-0.118512981,-0.124571204,-0.053292494,0.007594181,0,-6,-69,-4,1,-8.514978409,3.895366192,0.251391172,0.072344564,-0.054624807,-0.008393568,-51,-44,-28,26,178
1695161809513891600,-9.097966194,-1.906981707,-0.169988319,-0.191986218,-0.137228176,0.11817611,-2,-3,-67,2,1,-8.543708801,3.945644379,0.281318694,0.061952524,-0.024647778,-0.009192956,-51,-41,-31,26,182
1695161809514891600,-9.095572472,-1.911770105,-0.173579618,-0.190920368,-0.140958652,0.124571204,-1,-2,-69,-1,1,-8.546102524,3.949235678,0.283712894,0.061552834,-0.023448698,-0.008793262,-53,-40,-25,27,180
1695161809515891600,-9.095572472,-1.914164305,-0.18435353,-0.189987749,-0.14495559,0.130966306,-1,-3,-70,-3,3,-8.547300339,3.948038578,0.292092621,0.06115314,-0.022516079,-0.008393568,-49,-41,-31,26,183
1695161809516891600,-9.09437561,-1.916558504,-0.18435353,-0.189454809,-0.149218991,0.137228176,0,-4,-70,-2,3,-8.552088737,3.954024076,0.29807812,0.060753446,-0.021183766,-0.007860643,-48,-40,-27,28,180
1695161809517891600,-9.091980934,-1.920149803,-0.193930343,-0.188788652,-0.153349161,0.143356815,0,-3,-69,0,-1,-8.55448246,3.958812475,0.302866518,0.060353752,-0.019851454,-0.007194487,-52,-41,-28,28,181
1695161809551848700,-9.06205368,-1.956062794,-0.33279404,-0.230090365,-0.227159262,0.227292493,0,-2,-67,-3,1,-8.614337921,3.993528366,0.399831682,0.059154671,-0.000133231,0.014522205,-49,-44,-23,28,173
1695161809552848700,-9.057265282,-1.960851192,-0.341173738,-0.233687595,-0.230356812,0.230090365,0,-2,-67,-1,0,-8.611943245,3.995922565,0.405817181,0.059820827,0.000532925,0.01612098,-51,-45,-27,27,181
1695161809553848700,-9.057265282,-1.963245392,-0.351947635,-0.237418056,-0.233687595,0.232754961,0,0,-69,0,1,-8.61314106,3.995922565,0.40940848,0.060353752,0.001199081,0.017986218,-49,-43,-27,28,182
1695161809554848700,-9.054870605,-1.968033791,-0.363918662,-0.240882084,-0.236618683,0.23528637,-1,0,-67,-2,0,-8.605957985,3.993528366,0.416591108,0.060753446,0.001598775,0.019984685,-51,-40,-25,28,181
1695161809555848700,-9.058462143,-1.974019289,-0.37229836,-0.244212866,-0.239549771,0.237551302,-1,-7,-67,4,3,-8.601169586,3.992331266,0.412999779,0.061552834,0.001865237,0.022116385,-49,-41,-27,21,180
1695161809585851300,-9.120711327,-2.04823947,-0.59615624,-0.296839207,-0.273523748,0.258068919,-1,-4,-70,-2,3,-8.591592789,3.93965888,0.511162043,0.070612557,0.001598775,0.060220521,-51,-41,-29,28,182
1695161809586851300,-9.121908188,-2.053027868,-0.605733037,-0.298970878,-0.274323106,0.258068919,-1,-3,-67,-1,4,-8.59278965,3.937264681,0.52073884,0.070079632,0.00106585,0.060886677,-47,-45,-31,30,182
1695161809587851300,-9.121908188,-2.059013367,-0.616506934,-0.301102608,-0.274856061,0.258068919,-1,-1,-67,-1,1,-8.59278965,3.936067581,0.524330199,0.069546707,0.000666156,0.06115314,-47,-39,-28,28,182
1695161809588851300,-9.123106003,-2.061407566,-0.63087213,-0.302568167,-0.27525574,0.258068919,-1,-1,-64,-2,3,-8.59278965,3.934870481,0.530315697,0.068880551,-0.000133231,0.061286367,-51,-45,-29,25,182
1695161809589851300,-9.125499725,-2.067393064,-0.645237386,-0.30390048,-0.275388956,0.257935673,-1,-5,-68,2,1,-8.593987465,3.927687883,0.533906996,0.0678147,-0.001332312,0.061419602,-47,-40,-29,25,183
1695161809622805600,-9.149441719,-2.181117773,-0.814028561,-0.284049004,-0.256869823,0.244479313,-1,-2,-53,2,-2,-8.635885239,3.866635799,0.569819987,0.037437979,-0.026379786,0.050494641,-49,-44,-28,25,181
1695161809623805600,-9.145850182,-2.187103271,-0.81881696,-0.280718207,-0.253805518,0.243280247,-1,-6,-53,2,1,-8.635885239,3.8642416,0.566228688,0.037304748,-0.027578866,0.04969525,-50,-39,-24,26,181
1695161809624805600,-9.139864922,-2.19428587,-0.81642276,-0.276987731,-0.250474721,0.242347628,0,-1,-53,2,1,-8.635885239,3.861847401,0.563834488,0.037437979,-0.028777948,0.049162328,-49,-42,-31,28,181
1695161809625805600,-9.133879662,-2.201468468,-0.81761986,-0.272857577,-0.24674426,0.24154824,0,-3,-53,-1,0,-8.637083054,3.859453201,0.562637389,0.037704438,-0.029843798,0.048496172,-50,-39,-29,26,182
1695161809626805600,-9.1326828,-2.206256866,-0.81761986,-0.270059735,-0.244212866,0.241015315,-3,-2,-51,3,0,-8.637083054,3.858256102,0.562637389,0.038503829,-0.031042879,0.047963247,-50,-40,-28,28,182
1695161809656810100,-8.997409821,-2.319981337,-0.836773515,-0.148686066,-0.140292495,0.210638598,-1,-2,-41,6,7,-8.646659851,3.881000996,0.503979445,0.062885143,-0.049295556,0.050228179,-47,-41,-26,30,181
1695161809657810100,-8.991424561,-2.319981337,-0.837970614,-0.141358346,-0.135096475,0.207574263,-1,-3,-42,2,4,-8.644265175,3.882198095,0.501585245,0.062751912,-0.049961712,0.050494641,-48,-45,-28,26,179
1695161809658810100,-8.985439301,-2.317587137,-0.835576415,-0.134297088,-0.130033687,0.20411025,-1,-1,-39,7,5,-8.643068314,3.885789394,0.499191046,0.062485453,-0.050627869,0.051027562,-50,-40,-31,25,179
1695161809659810100,-8.984241486,-2.318784237,-0.836773515,-0.127369061,-0.125237361,0.200379789,-2,0,-38,6,0,-8.644265175,3.886986494,0.497993946,0.062085759,-0.05142726,0.051560488,-54,-44,-34,28,181
1695161809660810100,-8.978256226,-2.318784237,-0.835576415,-0.120840736,-0.120441042,0.196516067,0,-1,-39,8,1,-8.643068314,3.886986494,0.490811348,0.061552834,-0.051960181,0.051826954,-47,-41,-25,28,180
1695161809696787400,-8.987833023,-2.244564056,-0.822408259,-0.061952524,-0.054225113,0.108983152,-1,0,-36,10,5,-8.614337921,3.840299606,0.421379507,0.045565084,-0.051160797,0.050627869,-51,-40,-25,28,182
1695161809697787400,-8.991424561,-2.239775658,-0.823605359,-0.062085759,-0.051294025,0.104453288,-1,-6,-38,9,3,-8.61314106,3.835511208,0.422576606,0.045431852,-0.050494641,0.050094947,-47,-41,-29,28,180
1695161809698787400,-8.993818283,-2.237381458,-0.827196658,-0.062352221,-0.048496172,0.099923424,-2,-1,-35,8,7,-8.611943245,3.831919909,0.418985307,0.045431852,-0.049828485,0.049562022,-50,-43,-30,24,182
1695161809699787400,-8.993818283,-2.233790159,-0.830788016,-0.06261868,-0.045831546,0.0955268,0,-3,-33,8,5,-8.614337921,3.829525709,0.417788208,0.045431852,-0.049029093,0.048895866,-53,-42,-28,30,182
1695161809700787400,-8.993818283,-2.227804661,-0.829590917,-0.063284837,-0.043433387,0.091130167,0,-4,-37,4,2,-8.61314106,3.82473731,0.415394008,0.045565084,-0.048229709,0.048229709,-51,-41,-32,28,180
1695161809735743000,-9.027337074,-2.203862667,-0.849941611,-0.081404284,-0.000799387,0.004663093,-1,-1,-33,6,5,-8.564059258,3.822343111,0.357933164,0.033707503,-0.031575806,0.028644716,-49,-40,-24,28,185
1695161809736743000,-9.027337074,-2.201468468,-0.85353291,-0.081937209,0.001998469,-0.000266462,1,0,-33,7,7,-8.562862396,3.821146011,0.354341865,0.032774884,-0.030776417,0.028111791,-47,-37,-27,28,183
1695161809737743000,-9.027337074,-2.203862667,-0.848744512,-0.082470134,0.004929556,-0.005062787,0,-1,-36,10,4,-8.562862396,3.818751812,0.354341865,0.031709034,-0.029710567,0.027445635,-49,-38,-25,29,182
1695161809738743000,-9.02973175,-2.205059767,-0.851138711,-0.082869835,0.008260337,-0.009992342,-1,-5,-35,10,3,-8.561665535,3.818751812,0.347159237,0.030643184,-0.02917764,0.026646247,-51,-41,-25,28,182
1695161809739743000,-9.02973175,-2.206256866,-0.85592711,-0.08313629,0.011591119,-0.014921899,-1,0,-35,6,9,-8.562862396,3.815160513,0.351947635,0.029843798,-0.028644716,0.025846859,-49,-39,-25,26,182
1695161809772743100,-9.047688484,-2.173935175,-0.829590917,-0.0678147,0.085267991,-0.100189894,2,-2,-34,8,7,-8.566453934,3.763684988,0.290895492,0.05808882,0.011591119,0.007860643,-51,-40,-29,28,183
1695161809773743100,-9.048885345,-2.165555477,-0.827196658,-0.065816231,0.089131698,-0.104186833,0,-2,-35,11,3,-8.568847656,3.767276287,0.287304193,0.059154671,0.014655436,0.007460949,-49,-41,-28,28,181
1695161809774743100,-9.052476883,-2.160767078,-0.821211159,-0.063684531,0.092995405,-0.10805054,-1,0,-33,10,3,-8.577227592,3.772064686,0.282515794,0.059554365,0.017053599,0.007194487,-49,-43,-29,26,181
1695161809775743100,-9.054870605,-2.15597868,-0.822408259,-0.061419602,0.09659265,-0.111647777,0,-5,-34,9,4,-8.588001251,3.772064686,0.270544797,0.059154671,0.018785605,0.007194487,-49,-41,-31,24,180
1695161809776743100,-9.054870605,-2.152387381,-0.81881696,-0.059287902,0.100189894,-0.115511484,-1,-1,-38,6,9,-8.596381187,3.770867586,0.263362199,0.058355279,0.019984685,0.006928025,-53,-41,-30,28,182
1695161809808700000,-9.10634613,-2.067393064,-0.708683729,-0.013323124,0.142157733,-0.166139349,0,-6,-36,7,3,-8.628703117,3.725377798,0.274136096,0.033041347,0.018785605,0.0,-46,-41,-33,25,180
1695161809809700000,-9.111134529,-2.063801765,-0.70628953,-0.011591119,0.143490046,-0.167871356,-1,-7,-35,10,4,-8.629899979,3.726574898,0.275333196,0.033574272,0.018785605,-0.000399694,-49,-41,-28,30,182
1695161809810700000,-9.111134529,-2.054224968,-0.702698171,-0.009992342,0.144689128,-0.169336915,-1,0,-38,7,7,-8.63109684,3.731363297,0.276530296,0.034506891,0.018918836,-0.000666156,-50,-39,-31,24,183
1695161809811700000,-9.11233139,-2.04704237,-0.696712673,-0.008393568,0.146021441,-0.170802444,-1,-2,-33,10,3,-8.632294655,3.732560396,0.277727395,0.035572741,0.018918836,-0.000666156,-46,-41,-32,26,182
1695161809812700000,-9.111134529,-2.039859772,-0.693121374,-0.006794794,0.147353753,-0.172001526,-1,-1,-33,6,1,-8.632294655,3.737348795,0.282515794,0.036771823,0.018785605,-0.000932619,-50,-39,-28,25,181
1695161809846701300,-9.114726067,-1.965639591,-0.629675031,0.01079173,0.161076576,-0.181460962,-2,-1,-35,10,3,-8.62511158,3.803189516,0.350750536,0.03996937,0.013456355,0.000133231,-49,-41,-33,24,182
1695161809847701300,-9.113529205,-1.963245392,-0.628477931,0.011990812,0.161609486,-0.181460962,-1,-3,-32,7,1,-8.626308441,3.801992416,0.349553436,0.039436448,0.01292343,0.000266462,-48,-40,-32,24,182
1695161809848701300,-9.119514465,-1.959654093,-0.618901134,0.013456355,0.162408888,-0.181327716,-1,-1,-35,8,7,-8.628703117,3.805583715,0.350750536,0.038637057,0.012523737,0.000532925,-50,-39,-24,24,183
1695161809849701300,-9.120711327,-1.956062794,-0.617704034,0.014655436,0.162808567,-0.181061253,-1,-3,-33,8,4,-8.63109684,3.805583715,0.353144765,0.037970904,0.011724349,0.000932619,-46,-46,-34,21,181
1695161809850701300,-9.124302864,-1.952471495,-0.614112735,0.015987748,0.163208261,-0.18079479,-1,0,-36,8,1,-8.63109684,3.806780815,0.356736064,0.037038282,0.011191424,0.001332312,-47,-40,-31,22,182
1695161809886657300,-9.21528244,-1.892616391,-0.591367841,0.035705972,0.151217461,-0.16773814,-1,-7,-37,6,2,-8.661025047,3.812766314,0.378283858,0.047963247,0.009725881,0.003064318,-47,-41,-30,24,182
1695161809887657300,-9.222464561,-1.887827992,-0.59256494,0.036905054,0.149618685,-0.166272581,-2,-2,-36,6,2,-8.667010307,3.813963413,0.379480958,0.048629403,0.009992342,0.00319755,-48,-43,-31,24,181
1695161809888657300,-9.229647636,-1.885433793,-0.59256494,0.037970904,0.14801991,-0.16520673,-1,-7,-36,7,7,-8.670601845,3.818751812,0.383072257,0.049162328,0.010258805,0.003330781,-46,-43,-31,25,182
1695161809889657300,-9.234436035,-1.880645394,-0.590170741,0.039169986,0.146554366,-0.163874418,-1,-4,-36,7,3,-8.672995567,3.822343111,0.384269387,0.049562022,0.010525269,0.003330781,-46,-41,-32,21,183
1695161809890657300,-9.235632896,-1.879448295,-0.590170741,0.040502299,0.145088822,-0.162275642,-1,-1,-33,6,0,-8.674192429,3.82473731,0.385466486,0.049961712,0.01079173,0.003330781,-50,-44,-31,21,182
1695161809924633100,-9.200917244,-1.838746905,-0.579396784,0.067947932,0.133630931,-0.130433381,-1,-2,-38,2,4,-8.677783966,3.881000996,0.412999779,0.025580399,0.008926493,0.001332312,-49,-40,-31,24,182
1695161809925633100,-9.200917244,-1.835155606,-0.575805485,0.068614088,0.133231238,-0.129101068,0,-4,-33,8,1,-8.676587105,3.882198095,0.416591108,0.024781011,0.009059724,0.001465544,-49,-45,-32,25,182
1695161809926633100,-9.199720383,-1.833958507,-0.569819987,0.069280244,0.132831544,-0.127635539,-3,-1,-38,6,4,-8.675390244,3.888183594,0.422576606,0.024248086,0.009059724,0.001598775,-52,-45,-29,20,179
1695161809927633100,-9.199720383,-1.831564307,-0.568622887,0.069546707,0.13243185,-0.126569673,-1,-1,-33,6,2,-8.672995567,3.897760391,0.424970806,0.02358193,0.009326187,0.001732006,-49,-41,-29,22,180
1695161809928633100,-9.199720383,-1.830367208,-0.569819987,0.069546707,0.132032156,-0.125370592,-2,-5,-35,6,3,-8.66940403,3.904942989,0.423773706,0.023182238,0.009459418,0.001732006,-49,-45,-37,26,182
1695161809968607500,-9.217676163,-1.82079041,-0.523133099,0.073943339,0.118709028,-0.094860643,-1,0,-35,8,3,-8.718485832,3.873818398,0.44532153,-0.083269522,0.003464012,0.001199081,-53,-43,-29,24,183
1695161809969607500,-9.220070839,-1.82079041,-0.513556242,0.075142421,0.11817611,-0.092329249,-1,-2,-38,7,1,-8.718485832,3.859453201,0.439336002,-0.083935678,0.002664625,0.001199081,-50,-44,-28,25,182
1695161809970607500,-9.217676163,-1.817199111,-0.507570744,0.076208271,0.117509954,-0.089797854,-1,-2,-33,10,3,-8.717288017,3.837905407,0.430956304,-0.083669223,0.001865237,0.001465544,-50,-41,-27,22,182
1695161809971607500,-9.217676163,-1.817199111,-0.503979445,0.077274114,0.116710559,-0.087399691,-1,-2,-38,8,3,-8.713697433,3.819948912,0.417788208,-0.081670754,0.00106585,0.001865237,-50,-41,-27,26,183
1695161809972607500,-9.217676163,-1.818396211,-0.505176544,0.07820674,0.115777947,-0.085001536,-1,-2,-34,10,3,-8.70771122,3.800795317,0.40940848,-0.078339972,0.0,0.002264931,-49,-41,-31,24,182
1695161810004611200,-9.178172112,-1.720233917,-0.478840351,0.034640122,0.065816231,-0.054225113,-1,-1,-38,10,3,-8.693346024,3.809175014,0.416591108,0.060486984,-0.031042879,0.044632465,-53,-46,-32,25,181
1695161810005611200,-9.17697525,-1.711854219,-0.476446152,0.02917764,0.062485453,-0.053159267,-1,-2,-37,4,1,-8.690952301,3.816357613,0.412999779,0.064483918,-0.033707503,0.046764165,-49,-45,-28,24,180
1695161810006611200,-9.175778389,-1.705868721,-0.475249052,0.02358193,0.059154671,-0.052226644,-1,-2,-33,7,4,-8.692149162,3.82473731,0.40940848,0.0678147,-0.036238898,0.048762634,-49,-43,-32,24,176
1695161810007611200,-9.178172112,-1.705868721,-0.475249052,0.017852986,0.05595712,-0.05142726,-1,-3,-36,4,0,-8.692149162,3.829525709,0.405817181,0.070612557,-0.038770292,0.050361406,-49,-33,-29,24,181
1695161810008611200,-9.179368973,-1.704671621,-0.472854823,0.014122511,0.053825419,-0.050761104,0,-2,-37,4,1,-8.692149162,3.835511208,0.407014281,0.072477795,-0.040502299,0.05142726,-51,-40,-29,25,182
1695161810046567600,-9.203310966,-1.722628117,-0.533906996,-0.06981317,0.006261868,-0.01292343,-2,-3,-38,10,3,-8.641871452,3.8630445,0.389057785,0.043300152,-0.049295556,0.060886677,-50,-40,-29,24,182
1695161810047567600,-9.202114105,-1.726219416,-0.539892495,-0.072211333,0.0042634,-0.010258805,-1,-2,-36,8,4,-8.640673637,3.861847401,0.386663586,0.040502299,-0.048629403,0.060753446,-50,-40,-22,20,182
1695161810048567600,-9.202114105,-1.727416515,-0.542286694,-0.073943339,0.002931087,-0.008393568,0,-1,-37,7,3,-8.638279915,3.859453201,0.383072257,0.037970904,-0.047963247,0.060620211,-51,-38,-31,26,183
1695161810049567600,-9.200917244,-1.731007814,-0.545877993,-0.076075032,0.000932619,-0.005595712,-2,-5,-36,6,1,-8.634688377,3.854664803,0.381875157,0.03543951,-0.047430322,0.060753446,-51,-39,-25,21,181
1695161810050567600,-9.197325706,-1.732204914,-0.549469292,-0.078073502,-0.00106585,-0.002797856,-1,-6,-38,7,1,-8.637083054,3.851073503,0.380678058,0.033973966,-0.047030624,0.060620211,-47,-39,-31,21,183
1695161810094538100,-9.147047997,-1.777694821,-0.626083732,-0.088598773,-0.021716693,0.054624807,-1,-1,-38,8,3,-8.640673637,3.782838583,0.342370838,0.04623124,-0.053026035,0.072078094,-53,-45,-33,24,183
1695161810095538100,-9.14465332,-1.777694821,-0.63087213,-0.08833231,-0.022249617,0.057955589,-1,-2,-35,8,2,-8.640673637,3.782838583,0.338779539,0.047963247,-0.054091886,0.073277183,-46,-41,-30,25,183
1695161810096538100,-9.143456459,-1.78128612,-0.626083732,-0.087932616,-0.023182238,0.061419602,-1,-5,-36,3,0,-8.641871452,3.779247284,0.338779539,0.049295556,-0.055024505,0.074609496,-49,-39,-27,25,182
1695161810097538100,-9.141061783,-1.78248322,-0.629675031,-0.08753293,-0.02384839,0.06461715,-1,-5,-37,8,1,-8.640673637,3.781641483,0.336385339,0.050894335,-0.056356817,0.075808577,-47,-45,-23,24,178
1695161810098538100,-9.137471199,-1.78368032,-0.63087213,-0.08726646,-0.024647778,0.067947932,-1,-3,-34,4,3,-8.639476776,3.780444384,0.33399114,0.052359879,-0.057822358,0.077007659,-47,-43,-30,21,181
1695161810133516400,-9.107542992,-1.832761407,-0.66917938,-0.092995405,-0.048096478,0.125370592,-1,-6,-37,7,3,-8.674192429,3.744531393,0.282515794,0.057955589,-0.065949462,0.088598773,-49,-40,-29,27,182
1695161810134516400,-9.108740807,-1.832761407,-0.673967779,-0.094061248,-0.049295556,0.128301695,-2,-3,-37,7,3,-8.676587105,3.743334293,0.282515794,0.057289433,-0.065150075,0.088199086,-47,-42,-28,24,182
1695161810135516400,-9.108740807,-1.839944005,-0.673967779,-0.094993874,-0.050627869,0.130966306,-1,-5,-37,7,2,-8.681375504,3.742137194,0.282515794,0.056623276,-0.064350687,0.087666154,-46,-39,-27,28,183
1695161810136516400,-9.111134529,-1.843535304,-0.681150377,-0.095926493,-0.052093416,0.133764163,-1,0,-36,3,-1,-8.688557625,3.745728493,0.281318694,0.055823889,-0.063418068,0.086866774,-49,-39,-31,24,181
1695161810137516400,-9.109937668,-1.842338204,-0.688332975,-0.097125575,-0.053425729,0.136295557,-2,-3,-35,7,3,-8.68975544,3.744531393,0.276530296,0.05489127,-0.062218986,0.086200617,-50,-43,-28,24,183
1695161810171515300,-9.130288124,-1.918952703,-0.754173517,-0.126303226,-0.070079632,0.167071983,-1,-7,-37,6,1,-8.692149162,3.745728493,0.288501292,0.030376723,-0.041168455,0.067015313,-47,-40,-27,24,182
1695161810172515300,-9.131484985,-1.928529501,-0.752976418,-0.12723583,-0.070346095,0.168004602,-1,-7,-36,8,5,-8.690952301,3.746925592,0.293289721,0.02917764,-0.040235836,0.066215925,-47,-39,-29,25,183
1695161810173515300,-9.1326828,-1.938106298,-0.754173517,-0.128035218,-0.070479326,0.169070452,-2,-2,-37,9,4,-8.692149162,3.748122692,0.29568392,0.028245023,-0.03956968,0.065683,-47,-40,-28,26,183
1695161810174515300,-9.133879662,-1.946485996,-0.751779318,-0.128834605,-0.070346095,0.170003071,-1,-1,-33,7,3,-8.694543839,3.748122692,0.301669419,0.027045943,-0.038370594,0.065150075,-47,-41,-28,18,177
1695161810175515300,-9.137471199,-1.947683096,-0.750582218,-0.12936753,-0.070212863,0.170802444,-1,-4,-38,8,2,-8.693346024,3.749319792,0.302866518,0.025580399,-0.036905054,0.06461715,-50,-44,-31,24,182
1695161810210492800,-9.175778389,-2.067393064,-0.773327172,-0.109782539,-0.057156201,0.171868294,-2,-2,-35,6,4,-8.696937561,3.699041605,0.392649084,0.021716693,-0.018519141,0.056889739,-56,-40,-31,25,182
1695161810211492800,-9.179368973,-2.072181463,-0.773327172,-0.108450226,-0.056356817,0.170669213,-1,-1,-36,9,1,-8.692149162,3.699041605,0.398634583,0.02358193,-0.018785605,0.056490045,-50,-39,-25,26,183
1695161810212492800,-9.181763649,-2.075772762,-0.770932972,-0.106984682,-0.055424199,0.169336915,-4,-3,-38,7,3,-8.694543839,3.700238705,0.405817181,0.025580399,-0.019318528,0.056223582,-49,-45,-29,25,188
1695161810213492800,-9.184157372,-2.078166962,-0.773327172,-0.105652377,-0.054624807,0.168004602,-4,-1,-37,4,1,-8.693346024,3.701435804,0.412999779,0.027578866,-0.019851454,0.055823889,-47,-41,-32,21,183
1695161810214492800,-9.185355186,-2.081758261,-0.776918471,-0.104320064,-0.053958651,0.166405827,-2,-9,-36,6,3,-8.692149162,3.697844505,0.417788208,0.029444104,-0.02051761,0.055557426,-49,-44,-29,26,183
1695161810247448700,-9.190143585,-2.109291792,-0.764947414,-0.090863705,-0.040768761,0.11298009,-3,-5,-37,10,4,-8.66940403,3.699041605,0.486022949,0.051826954,-0.036905054,0.04516539,-46,-38,-23,28,183
1695161810248448700,-9.191340446,-2.106897593,-0.762553215,-0.090730481,-0.040102605,0.108983152,-1,-2,-36,4,1,-8.670601845,3.697844505,0.490811348,0.05249311,-0.037970904,0.044099543,-46,-40,-30,26,183
1695161810249448700,-9.191340446,-2.109291792,-0.760159016,-0.090597242,-0.039436448,0.105252676,-1,-2,-38,6,1,-8.66940403,3.697844505,0.496796846,0.052626338,-0.038770292,0.043300152,-50,-43,-24,24,183
1695161810250448700,-9.191340446,-2.110488892,-0.760159016,-0.09033078,-0.038637057,0.101388969,-1,-3,-35,7,2,-8.671798706,3.697844505,0.501585245,0.053292494,-0.039836142,0.042234302,-47,-41,-29,25,182
1695161810251448700,-9.193734169,-2.112883091,-0.757764816,-0.09033078,-0.038104136,0.097791731,-1,-3,-38,6,3,-8.672995567,3.695450306,0.506373644,0.054091886,-0.041168455,0.041168455,-45,-41,-28,29,180
1695161810315338400,-9.064447403,-1.74657011,-0.752976418,-0.021983154,0.068880551,-0.022516079,-1,0,-35,6,-2,-8.609549522,3.782838583,0.412999779,0.095393561,-0.035705972,0.052359879,-50,-41,-29,22,182
1695161810316338400,-9.06803894,-1.74657011,-0.749385118,-0.020650841,0.069946401,-0.020117918,-1,-3,-36,7,3,-8.610746384,3.785232782,0.415394008,0.095926493,-0.035306279,0.051693719,-49,-40,-32,24,182
1695161810317338400,-9.0740242,-1.744175911,-0.741005421,-0.019451762,0.07087902,-0.017453292,-2,-2,-38,8,4,-8.61314106,3.786429882,0.412999779,0.096326187,-0.034906585,0.050894335,-46,-41,-27,28,183
1695161810318338400,-9.075222015,-1.745373011,-0.735019922,-0.01825268,0.071678407,-0.014788668,1,-4,-36,2,1,-8.61314106,3.785232782,0.415394008,0.09659265,-0.034506891,0.050228179,-49,-39,-30,24,183
1695161810319338400,-9.081207275,-1.744175911,-0.730231524,-0.016920367,0.072477795,-0.012124043,-2,-3,-33,6,7,-8.610746384,3.784035683,0.416591108,0.096859112,-0.034240428,0.04969525,-46,-39,-30,22,183
1695161810364315900,-9.139864922,-1.766920805,-0.658405483,-0.012656967,0.081670754,0.02904441,-1,0,-37,8,-1,-8.616731644,3.780444384,0.368707061,0.094993874,-0.027045943,0.044099543,-47,-39,-31,23,182
1695161810365315900,-9.139864922,-1.771709204,-0.652419984,-0.012790199,0.081670754,0.031042879,-1,-3,-37,3,1,-8.617929459,3.781641483,0.366312861,0.094327718,-0.027179174,0.043566614,-49,-40,-32,24,183
1695161810366315900,-9.142259598,-1.778891921,-0.641646028,-0.012790199,0.081404284,0.033041347,0,0,-38,10,1,-8.620323181,3.781641483,0.368707061,0.09352833,-0.027312404,0.043166921,-48,-39,-31,24,183
1695161810367315900,-9.141061783,-1.786074519,-0.63326633,-0.012790199,0.080738127,0.035039816,-3,-3,-38,7,3,-8.61912632,3.781641483,0.368707061,0.09272895,-0.027845331,0.042900458,-48,-41,-33,24,183
1695161810368315900,-9.145850182,-1.794454217,-0.621295333,-0.012790199,0.079805516,0.036905054,-1,-6,-38,7,3,-8.620323181,3.782838583,0.36990416,0.091796324,-0.028378254,0.04276723,-46,-39,-33,26,183
1695161810403293900,-9.192537308,-1.866280198,-0.560243189,-0.005062787,0.044232771,0.053425729,-2,-2,-29,6,1,-8.634688377,3.774458885,0.407014281,0.07993874,-0.047430322,0.047030624,-47,-44,-33,25,183
1695161810404293900,-9.194931984,-1.868674397,-0.55784899,-0.005595712,0.043566614,0.054225113,-1,-8,-32,5,4,-8.637083054,3.772064686,0.407014281,0.080471672,-0.048496172,0.047430322,-53,-39,-33,25,183
1695161810405293900,-9.196128845,-1.871068597,-0.555454791,-0.0063951,0.042900458,0.05489127,-1,0,-38,6,5,-8.638279915,3.768473387,0.405817181,0.081004597,-0.049295556,0.04769678,-47,-40,-34,24,183
1695161810406293900,-9.197325706,-1.871068597,-0.554257691,-0.006928025,0.042500768,0.055290964,-3,-3,-35,7,1,-8.638279915,3.767276287,0.402225882,0.081803977,-0.049961712,0.047963247,-46,-40,-29,22,183
1695161810407293900,-9.199720383,-1.872265697,-0.548272192,-0.007860643,0.042101074,0.055823889,-1,-2,-38,7,2,-8.637083054,3.768473387,0.405817181,0.082470134,-0.050494641,0.047963247,-44,-40,-32,24,183
1695161810448268500,-9.22725296,-1.917755604,-0.535104096,-0.029444104,0.029577335,0.055024505,-1,0,-36,10,0,-8.66940403,3.800795317,0.458489627,0.07714089,-0.039169986,0.031575806,-49,-40,-31,24,181
1695161810449268500,-9.226056099,-1.920149803,-0.530315697,-0.030509954,0.028511487,0.054624807,-1,-3,-38,6,1,-8.66341877,3.803189516,0.462080926,0.075408876,-0.038370594,0.030509954,-50,-41,-31,24,183
1695161810450268500,-9.226056099,-1.922544003,-0.532709897,-0.030909648,0.027845331,0.054358348,-1,-3,-36,4,1,-8.662221909,3.807977915,0.463278025,0.073676877,-0.037704438,0.029843798,-49,-43,-34,25,181
1695161810451268500,-9.224859238,-1.924938202,-0.530315697,-0.031709034,0.02691271,0.053958651,-1,-7,-37,8,1,-8.658630371,3.810372114,0.460883826,0.071811639,-0.037437979,0.02904441,-46,-41,-34,20,181
1695161810452268500,-9.226056099,-1.927332401,-0.529118598,-0.032641653,0.025846859,0.053558957,-4,-3,-37,6,0,-8.652645111,3.813963413,0.465672225,0.070212863,-0.037038282,0.028511487,-47,-39,-31,20,183
1695161810505233600,-9.287108421,-1.941697598,-0.568622887,-0.041967839,-0.004663093,0.03956968,-1,-3,-38,7,5,-8.602366447,3.781641483,0.457292527,0.084468603,-0.049961712,0.044099543,-50,-37,-31,22,183
1695161810506233600,-9.290699959,-1.940500498,-0.573411286,-0.042367533,-0.006528331,0.038503829,-1,-1,-37,6,-2,-8.598775864,3.779247284,0.448912829,0.08726646,-0.050894335,0.045431852,-47,-40,-31,26,183
1695161810507233600,-9.293093681,-1.941697598,-0.578199685,-0.043033689,-0.008260337,0.03757121,-3,-5,-38,8,0,-8.596381187,3.775655985,0.447715729,0.090064317,-0.051560488,0.046764165,-47,-41,-34,25,181
1695161810508233600,-9.293093681,-1.941697598,-0.572214186,-0.043433387,-0.009859112,0.03650536,-1,-3,-35,8,3,-8.597578049,3.773261786,0.44532153,0.09272895,-0.052359879,0.048096478,-50,-38,-32,26,183
1695161810509233600,-9.290699959,-1.939303398,-0.573411286,-0.043966308,-0.011457887,0.035572741,-2,-1,-36,4,1,-8.598775864,3.770867586,0.440533102,0.094327718,-0.052759573,0.048895866,-50,-41,-33,24,183
1695161810565199300,-9.218873978,-1.934514999,-0.650025785,-0.033707503,-0.029310873,0.007993874,-1,-2,-37,7,1,-8.579621315,3.776853085,0.405817181,0.098724343,-0.050094947,0.044499233,-48,-39,-32,26,183
1695161810566199300,-9.2212677,-1.929726601,-0.654814184,-0.03130934,-0.029977029,0.0063951,-1,-4,-37,7,3,-8.578424454,3.779247284,0.405817181,0.097125575,-0.049029093,0.042900458,-46,-41,-32,22,183
1695161810567199300,-9.222464561,-1.923741102,-0.658405483,-0.028777948,-0.030643184,0.004796324,-1,-1,-38,10,2,-8.58081913,3.782838583,0.399831682,0.095393561,-0.047963247,0.041568145,-51,-41,-33,22,182
1695161810568199300,-9.2212677,-1.918952703,-0.66917938,-0.026379786,-0.031176111,0.003597243,-1,-2,-38,4,1,-8.583212852,3.784035683,0.395043284,0.093661562,-0.046897396,0.03996937,-51,-40,-34,21,182
1695161810569199300,-9.2212677,-1.912967205,-0.66917938,-0.023981623,-0.031975497,0.002531394,-1,0,-38,11,1,-8.585607529,3.786429882,0.391451985,0.091929555,-0.045831546,0.038637057,-51,-40,-34,22,183
1695161810605175900,-9.145850182,-1.801636815,-0.677559078,-0.01825268,-0.029444104,0.002664625,-1,-5,-38,6,1,-8.608352661,3.817554712,0.356736064,0.075142421,-0.02917764,0.026113322,-49,-42,-29,21,182
1695161810606175900,-9.143456459,-1.799242616,-0.678756177,-0.019318528,-0.02917764,0.003597243,-1,-3,-37,6,1,-8.607154846,3.821146011,0.360327363,0.074875958,-0.028511487,0.026513018,-49,-45,-34,25,182
1695161810607175900,-9.142259598,-1.798045516,-0.682347476,-0.020384381,-0.028911179,0.004396631,-3,-3,-38,7,1,-8.607154846,3.823540211,0.361524463,0.07474272,-0.02797856,0.026779478,-48,-39,-31,24,183
1695161810608175900,-9.139864922,-1.796848416,-0.688332975,-0.02158346,-0.028511487,0.005329249,-1,-4,-37,4,3,-8.608352661,3.828328609,0.360327363,0.074609496,-0.027045943,0.027179174,-49,-40,-32,25,183
1695161810609175900,-9.13866806,-1.798045516,-0.690727174,-0.022782542,-0.028111791,0.006128637,-3,-2,-37,6,1,-8.608352661,3.833117008,0.361524463,0.074609496,-0.026379786,0.027445635,-45,-41,-29,24,181
1695161810646154900,-9.117119789,-1.82198751,-0.711077929,-0.028911179,-0.025846859,0.02158346,-1,-1,-37,10,0,-8.61912632,3.871424198,0.37349546,0.067415006,-0.012390506,0.03237519,-45,-41,-34,25,183
1695161810647154900,-9.114726067,-1.826775908,-0.712275028,-0.028511487,-0.025313934,0.022649311,-1,-5,-38,8,1,-8.61912632,3.872621298,0.37229836,0.067148544,-0.012257273,0.032641653,-47,-39,-32,24,182
1695161810648154900,-9.113529205,-1.832761407,-0.707486629,-0.028111791,-0.024647778,0.02358193,-1,-3,-36,7,0,-8.617929459,3.875015497,0.37349546,0.066882081,-0.012124043,0.032908116,-45,-40,-36,19,182
1695161810649154900,-9.11233139,-1.835155606,-0.714669228,-0.027578866,-0.024114855,0.024514547,-1,-4,-37,5,0,-8.617929459,3.872621298,0.374692559,0.066482387,-0.01185758,0.033041347,-50,-41,-31,24,183
1695161810650154900,-9.11233139,-1.838746905,-0.719457626,-0.02691271,-0.023448698,0.025180703,-7,0,-37,3,0,-8.616731644,3.873818398,0.378283858,0.066082694,-0.011591119,0.033441041,-50,-36,-31,22,181
1695161810680157200,-9.101557732,-1.845929503,-0.729034424,-0.006794794,-0.008526799,0.030509954,-1,-2,-36,7,0,-8.632294655,3.861847401,0.411802679,0.060353752,-0.011457887,0.038903523,-51,-39,-32,26,183
1695161810681157200,-9.101557732,-1.843535304,-0.726640224,-0.006128637,-0.007993874,0.030643184,-3,-1,-34,10,0,-8.632294655,3.860650301,0.415394008,0.060486984,-0.01185758,0.039036751,-50,-39,-33,16,181
1695161810682157200,-9.10634613,-1.842338204,-0.727837324,-0.005595712,-0.007061256,0.030643184,-2,-2,-38,10,4,-8.637083054,3.859453201,0.418985307,0.060220521,-0.012124043,0.039169986,-47,-43,-33,22,182
1695161810683157200,-9.10634613,-1.845929503,-0.725443125,-0.005062787,-0.006128637,0.030643184,-1,-4,-38,10,3,-8.638279915,3.860650301,0.423773706,0.060353752,-0.012523737,0.039303213,-49,-41,-32,24,183
1695161810684157200,-9.103952408,-1.845929503,-0.723048925,-0.004396631,-0.005329249,0.030509954,-1,-3,-38,4,3,-8.638279915,3.8654387,0.429759204,0.060220521,-0.012790199,0.039436448,-51,-46,-32,24,183
1695161810717112500,-9.154230118,-1.853112102,-0.689530075,0.005196018,0.006928025,0.023715161,-1,-2,-37,7,3,-8.66341877,3.870227098,0.391451985,0.057422664,-0.023448698,0.044232771,-47,-41,-34,24,182
1695161810718112500,-9.154230118,-1.854309201,-0.693121374,0.005995406,0.007460949,0.023049004,-1,-2,-35,2,3,-8.662221909,3.869029999,0.390254885,0.057289433,-0.023315467,0.044232771,-49,-41,-31,20,183
1695161810719112500,-9.155426979,-1.855506301,-0.690727174,0.006794794,0.007993874,0.022382848,-3,0,-38,8,3,-8.661025047,3.872621298,0.393846184,0.056756508,-0.022782542,0.044099543,-47,-39,-31,20,181
1695161810720112500,-9.155426979,-1.854309201,-0.689530075,0.007460949,0.008393568,0.021983154,-1,-3,-38,6,1,-8.658630371,3.873818398,0.399831682,0.056223582,-0.021983154,0.043833077,-50,-37,-31,20,182
1695161810721112500,-9.157821655,-1.851915002,-0.684741676,0.008127105,0.008793262,0.021316998,-1,-1,-38,6,3,-8.656236649,3.873818398,0.40940848,0.055690661,-0.021183766,0.043566614,-51,-39,-29,24,182
1695161810749092800,-9.217676163,-1.854309201,-0.646434486,0.032508422,0.012656967,0.010125575,-1,-3,-40,6,3,-8.640673637,3.888183594,0.44651863,0.031975497,-0.009459418,0.040235836,-47,-39,-28,22,183
1695161810750092800,-9.2212677,-1.849520802,-0.647631586,0.034240428,0.012523737,0.009725881,-1,-6,-37,6,3,-8.637083054,3.886986494,0.447715729,0.031176111,-0.010392036,0.040901989,-50,-40,-32,24,183
1695161810751092800,-9.2212677,-1.843535304,-0.640448928,0.035839204,0.012257273,0.008793262,-4,-3,-38,8,1,-8.638279915,3.884592295,0.451307029,0.030376723,-0.011591119,0.041701376,-49,-41,-32,25,183
1695161810752092800,-9.222464561,-1.836352706,-0.635660529,0.03650536,0.012124043,0.008260337,-1,-2,-38,10,1,-8.638279915,3.882198095,0.447715729,0.029843798,-0.012790199,0.042633995,-50,-41,-31,27,183
1695161810753092800,-9.22725296,-1.829170108,-0.635660529,0.037304748,0.012124043,0.007327718,-1,-1,-37,7,1,-8.639476776,3.879803896,0.44651863,0.029444104,-0.014122511,0.043699846,-47,-39,-33,22,182
1695161810782073700,-9.212887764,-1.813607812,-0.639251828,-0.0678147,0.051826954,-0.025980091,-1,-2,-37,10,3,-8.65743351,3.835511208,0.389057785,0.04623124,-0.033307809,0.058754977,-46,-38,-32,26,183
1695161810783073700,-9.212887764,-1.811213613,-0.639251828,-0.068747319,0.051027562,-0.027179174,-1,-5,-36,10,2,-8.662221909,3.839102507,0.387860686,0.046364475,-0.032908116,0.058488514,-48,-41,-33,20,182
1695161810784073700,-9.211690903,-1.810016513,-0.634463429,-0.06981317,0.050094947,-0.028245023,-1,-3,-38,6,-1,-8.664615631,3.839102507,0.389057785,0.046497703,-0.032241959,0.05808882,-49,-39,-32,23,183
1695161810785073700,-9.208099365,-1.813607812,-0.635660529,-0.070346095,0.049295556,-0.02917764,-1,-3,-32,11,2,-8.662221909,3.840299606,0.385466486,0.04623124,-0.031575806,0.057822358,-49,-40,-32,21,180
1695161810786073700,-9.211690903,-1.814804912,-0.635660529,-0.071012251,0.048629403,-0.029843798,-1,0,-37,8,3,-8.66341877,3.846285105,0.384269387,0.045831546,-0.030776417,0.057422664,-47,-40,-32,21,182
1695161810818054100,-9.096769333,-1.733402014,-0.695515573,0.009592649,0.025313934,0.044232771,-1,1,-35,8,2,-8.667010307,3.821146011,0.378283858,0.018918836,-0.023182238,0.050361406,-51,-39,-34,21,183
1695161810819054100,-9.101557732,-1.740584612,-0.695515573,0.008660031,0.02571363,0.045431852,-1,0,-36,10,5,-8.662221909,3.813963413,0.377086759,0.018519141,-0.02384839,0.050228179,-51,-39,-33,21,183
1695161810820054100,-9.101557732,-1.751358509,-0.696712673,0.008127105,0.025846859,0.046098009,-2,0,-34,8,3,-8.661025047,3.811569214,0.37349546,0.018119449,-0.024381317,0.050361406,-49,-41,-31,22,181
1695161810821054100,-9.101557732,-1.756146908,-0.699106872,0.007727412,0.025980091,0.046364475,0,0,-33,12,1,-8.662221909,3.807977915,0.363918662,0.018119449,-0.024914242,0.050494641,-44,-41,-33,22,183
1695161810822054100,-9.099164009,-1.758541107,-0.70509243,0.007194487,0.025980091,0.046630934,-2,-1,-35,3,3,-8.668207169,3.805583715,0.356736064,0.01825268,-0.025447167,0.050761104,-49,-39,-29,25,182
1695161810853057500,-8.797493935,-1.215057373,-0.919373453,0.172401235,0.435133219,-0.255404294,-1,0,-23,13,5,-8.615534782,4.052186489,0.496796846,0.10258805,-0.069013782,0.074209802,-45,-43,-25,26,183
1695161810854057500,-8.797493935,-1.213860273,-0.903811157,0.176797852,0.437664628,-0.245811626,-1,0,-25,13,4,-8.611943245,4.04739809,0.492008448,0.10178867,-0.068747319,0.075808577,-49,-40,-29,25,183
1695161810855057500,-8.793902397,-1.215057373,-0.885854602,0.181194484,0.440062791,-0.236085743,-1,0,-22,10,3,-8.611943245,4.043806553,0.489614248,0.100589581,-0.068214394,0.077407345,-49,-41,-21,28,179
1695161810856057500,-8.790311813,-1.213860273,-0.869095206,0.185724348,0.442327708,-0.225693718,0,0,-23,13,3,-8.609549522,4.040215492,0.488417149,0.099523738,-0.0678147,0.078872897,-49,-39,-31,24,184
1695161810857057500,-8.787917137,-1.210268974,-0.857124209,0.190254211,0.444459409,-0.214901984,-1,-2,-23,13,3,-8.603564262,4.035427094,0.486022949,0.098191425,-0.067415006,0.080071971,-47,-38,-30,28,182
1695161810889013000,-9.269151688,-1.59693253,-1.568202138,0.056356817,-0.132032156,-0.093128636,-10,-9,-34,6,-2,-8.878896713,3.79241538,0.433350503,0.076075032,-0.054758042,0.016387442,-50,-39,-27,30,183
1695161810890013000,-9.26556015,-1.593341231,-1.581370234,0.058355279,-0.134163857,-0.092995405,-11,-7,-33,4,-3,-8.878896713,3.786429882,0.432153404,0.075275652,-0.056090351,0.021716693,-48,-41,-25,26,183
1695161810891013000,-9.264363289,-1.587355733,-1.587355733,0.060220521,-0.136695251,-0.092862174,0,1,-23,14,8,-8.875306129,3.776853085,0.433350503,0.074209802,-0.057156201,0.027045943,-46,-39,-30,31,182
1695161810892013000,-9.266757965,-1.582567334,-1.587355733,0.061819296,-0.139359877,-0.092995405,-1,0,-25,12,7,-8.874108315,3.768473387,0.428562105,0.073143952,-0.057955589,0.032108728,-46,-40,-25,29,182
1695161810893013000,-9.26556015,-1.578976035,-1.584961534,0.063284837,-0.142157733,-0.093261868,0,0,-23,13,7,-8.875306129,3.760093689,0.432153404,0.07194487,-0.058754977,0.037171517,-47,-37,-28,28,183
1695161810923006400,-9.255983353,-2.069787264,-1.136048675,0.064217456,-0.121506892,0.173999995,-10,-11,-33,0,-3,-8.36294651,3.785232782,1.792060018,0.192519143,0.117243491,-0.298970878,-44,-34,-25,30,183
1695161810924006400,-9.25957489,-2.057816267,-1.15161097,0.073676877,-0.122173049,0.176664621,-8,-11,-37,0,-4,-8.364143372,3.79241538,1.792060018,0.192252681,0.120840736,-0.29350841,-47,-37,-23,29,182
1695161810925006400,-9.260771751,-2.049436569,-1.157596469,0.081670754,-0.122705974,0.178796321,-8,-12,-37,6,-5,-8.364143372,3.800795317,1.799242616,0.191852987,0.124038287,-0.287513018,-43,-37,-25,27,183
1695161810926006400,-9.264363289,-2.035071373,-1.174355984,0.087666154,-0.12337213,0.180261865,-8,-13,-33,4,-3,-8.360552788,3.810372114,1.799242616,0.191586524,0.12723583,-0.281517595,-46,-38,-25,26,182
1695161810927006400,-9.26556015,-2.019509077,-1.185129881,0.092329249,-0.123771824,0.181194484,-7,-7,-34,2,-4,-8.35696125,3.822343111,1.796848416,0.191453278,0.130433381,-0.274989277,-46,-39,-28,30,183
1695161810963995400,-9.024943352,-2.030282974,-0.895431459,-0.037704438,0.018652374,0.044366002,0,-1,-23,12,8,-8.675390244,3.736151695,1.341950059,0.042101074,-0.002931087,-0.103120975,-59,-51,-34,20,174
1695161810964995400,-9.02374649,-2.037465572,-0.895431459,-0.036638591,0.020917306,0.043166921,-2,-3,-24,12,5,-8.675390244,3.727771997,1.341950059,0.057955589,-0.0021317,-0.098591112,-59,-49,-34,24,172
1695161810965995400,-9.020154953,-2.043451071,-0.889445961,-0.03543951,0.023049004,0.041967839,-1,-1,-26,12,5,-8.674192429,3.724180698,1.352723956,0.074609496,-0.001598775,-0.094194487,-59,-51,-34,21,173
1695161810966995400,-9.017760277,-2.049436569,-0.889445961,-0.033707503,0.025980091,0.040235836,-1,-1,-24,13,5,-8.672995567,3.722983599,1.356315255,0.091130167,-0.001199081,-0.089931086,-58,-52,-34,24,174
1695161810967995400,-9.015366554,-2.053027868,-0.889445961,-0.032108728,0.028378254,0.038903523,-1,-1,-25,10,7,-8.674192429,3.724180698,1.373074651,0.107251145,-0.000532925,-0.085934147,-60,-51,-34,22,170
1695161811000951300,-9.114726067,-2.068590164,-0.847547412,-0.010658499,0.056889739,0.003330781,-1,0,-25,13,5,-8.310274124,10.53688145,0.257376671,-0.016653905,0.09246248,1.431036711,-50,-42,-24,31,181
1695161811001951300,-9.119514465,-2.067393064,-0.846350312,-0.011191424,0.057289433,0.000932619,-1,-1,-24,12,3,-8.328230858,10.60152531,0.20470424,0.000266462,0.085001536,1.494854569,-50,-41,-29,31,181
1695161811002951300,-9.123106003,-2.069787264,-0.841561913,-0.011990812,0.05768913,-0.001598775,-2,0,-23,13,3,-8.346187592,10.66856289,0.154426008,0.018785605,0.077407345,1.558805585,-53,-48,-27,32,181
1695161811003951300,-9.124302864,-2.069787264,-0.836773515,-0.013056661,0.05808882,-0.003996937,1,1,-21,13,3,-8.365341187,10.73679733,0.098162271,0.038637057,0.069546707,1.623022914,-55,-45,-25,27,180
1695161811004951300,-9.125499725,-2.069787264,-0.833182216,-0.014122511,0.058222052,-0.0063951,2,-1,-24,10,5,-8.378508568,10.80622959,0.049081136,0.059954058,0.060886677,1.687107205,-50,-43,-29,30,180
1695161811037951800,-9.179368973,-2.094926596,-0.773327172,-0.041834611,0.071012251,-0.06981317,-2,-3,-26,9,4,-8.698134422,11.93270111,-1.167173386,0.35013172,-0.040768761,2.806249619,-51,-44,-21,56,183
1695161811038951800,-9.180566788,-2.094926596,-0.770932972,-0.043699846,0.07194487,-0.074076563,-1,-2,-22,9,4,-8.66341877,11.84650993,-1.284489155,0.358125567,-0.043433387,2.85820961,-51,-44,-21,58,183
1695161811039951800,-9.179368973,-2.088941097,-0.767341673,-0.045565084,0.072877489,-0.078473203,0,-1,-23,13,3,-8.609549522,11.74116516,-1.349132657,0.378243476,-0.039836142,2.916032314,-51,-47,-21,63,183
1695161811040951800,-9.179368973,-2.085349798,-0.768538773,-0.04769678,0.073410407,-0.082869835,-2,-3,-27,13,7,-8.55448246,11.68968964,-1.395819545,0.402091891,-0.028378254,2.976385832,-51,-45,-19,64,183
1695161811041951800,-9.180566788,-2.08295536,-0.769735873,-0.049961712,0.074076563,-0.087399691,-1,-3,-21,10,4,-8.51617527,11.66814232,-1.460463047,0.425673813,-0.01079173,3.036739826,-51,-49,-19,64,183
1695161811078907500,-9.13866806,-2.026691675,-0.711077929,-0.101522207,0.075808577,-0.169603363,-2,0,-23,13,6,-7.933187485,11.58554173,-3.537432909,1.039603353,1.099823833,3.829865217,-55,-47,7,116,201
1695161811079907500,-9.135076523,-2.025494576,-0.711077929,-0.103387438,0.075542115,-0.173200607,-1,-3,-26,10,4,-7.830236435,11.59990692,-3.67869091,1.0637182,1.194951057,3.841722727,-51,-44,14,124,204
1695161811080907500,-9.1326828,-2.023100376,-0.70509243,-0.104852989,0.075142421,-0.176664621,-1,0,-21,8,1,-7.754819393,11.56997967,-3.773261786,1.08237052,1.263964772,3.847984552,-55,-45,15,124,202
1695161811081907500,-9.123106003,-2.021903276,-0.700303972,-0.106451757,0.074609496,-0.17972894,-1,-1,-23,12,5,-7.632715225,11.51730728,-3.909731388,1.111281753,1.373880625,3.859176159,-55,-47,24,127,208
1695161811082907500,-9.118317604,-2.015917778,-0.699106872,-0.107650839,0.074209802,-0.182793275,-1,0,-24,13,8,-7.496245384,11.47540855,-4.052186489,1.145655394,1.493255734,3.871833086,-55,-46,25,127,213
1695161811113884000,-9.014169693,-1.891419291,-0.672770679,-0.121107198,0.055290964,-0.186390504,-1,0,-27,13,5,-6.387730122,11.65617085,-8.835801125,1.383739591,4.365588188,3.572995424,-50,-45,135,191,301
1695161811114884000,-9.005789757,-1.883039594,-0.671573579,-0.121506892,0.054091886,-0.18385911,0,0,-23,10,7,-6.403292656,11.63462353,-9.040505409,1.337242007,4.365588188,3.517837524,-49,-45,142,191,305
1695161811115884000,-8.999804497,-1.875856996,-0.675164878,-0.121906579,0.052759573,-0.181061253,-3,0,-24,10,3,-6.400898457,11.61427212,-9.181763649,1.276621699,4.365588188,3.456817627,-49,-45,145,192,296
1695161811116884000,-8.997409821,-1.868674397,-0.671573579,-0.12230628,0.051294025,-0.178130165,-1,-2,-26,14,4,-6.378153324,11.56279755,-9.275136948,1.205209851,4.365588188,3.391667604,-49,-43,147,194,311
1695161811117884000,-8.997409821,-1.8602947,-0.675164878,-0.122705974,0.049828485,-0.174932614,0,0,-27,13,3,-6.300341606,11.47421169,-9.30386734,1.10528636,4.365588188,3.301203489,-48,-46,154,195,311
1695161811148863900,-9.03571701,-1.824381709,-0.738611221,-0.150684536,0.011191424,-0.110981621,-1,-2,-24,13,3,-4.335899353,7.807491779,-9.911994934,-0.673617184,4.365588188,1.562669158,-34,-44,173,208,340
1695161811149863900,-9.036913872,-1.823184609,-0.745793819,-0.154548228,0.008926493,-0.108849928,-1,0,-21,12,5,-4.237737179,7.532158375,-9.891644478,-0.734903514,4.365588188,1.475003123,-33,-47,174,208,338
1695161811150863900,-9.042900085,-1.82198751,-0.755370617,-0.158678412,0.006661562,-0.106851459,-1,0,-23,7,3,-4.138377666,7.260416508,-9.861717224,-0.790327728,4.365588188,1.39093411,-32,-45,176,207,337
1695161811151863900,-9.050082207,-1.818396211,-0.762553215,-0.163075045,0.004130168,-0.105119444,-2,0,-23,11,4,-4.042609692,7.001842976,-9.813833237,-0.841888189,4.365588188,1.30886364,-29,-44,177,206,337
1695161811152863900,-9.056067467,-1.818396211,-0.768538773,-0.168004602,0.001732006,-0.103653908,-2,0,-24,13,6,-3.952826977,6.755239964,-9.740809441,-0.890917301,4.365588188,1.227592587,-34,-43,172,207,336
1695161811184861500,-9.088389397,-1.832761407,-0.949300945,-0.28205052,-0.01505513,-0.110182241,-1,0,-24,13,3,-2.023100376,4.030638695,-7.371747017,-1.094094992,4.365588188,-0.374246567,-38,-46,168,201,316
1695161811185861500,-9.085995674,-1.836352706,-0.952892303,-0.286980093,-0.013323124,-0.111381322,-1,0,-23,12,6,-1.938106298,3.975571871,-7.195773125,-1.110615611,4.365588188,-0.454052061,-38,-46,169,200,313
1695161811186861500,-9.080010414,-1.841141105,-0.961272001,-0.291643173,-0.011324655,-0.112580396,-1,-6,-19,10,4,-1.884236693,3.931279182,-7.074865818,-1.121807098,4.365588188,-0.505612552,-39,-43,169,193,311
1695161811187861500,-9.076418877,-1.843535304,-0.9660604,-0.295773357,-0.008926493,-0.113646246,-2,0,-25,13,3,-1.82079041,3.861847401,-6.892906666,-1.138594151,4.365588188,-0.580222011,-39,-47,167,200,311
1695161811188861500,-9.0740242,-1.848323703,-0.9672575,-0.299370587,-0.006261868,-0.114578865,-1,-3,-24,12,4,-1.776497602,3.786429882,-6.715735912,-1.153915763,4.365588188,-0.651367545,-39,-45,168,196,311
1695161811219827000,-9.151836395,-1.875856996,-0.93134445,-0.314692199,0.054091886,-0.098591112,-3,-2,-22,13,1,-1.334767461,3.849876404,-3.472789526,-1.072378278,4.365588188,-1.341372132,-45,-45,158,186,293
1695161811220827000,-9.156624794,-1.875856996,-0.924161851,-0.313892812,0.055690661,-0.095793262,-1,-2,-23,13,7,-1.280897856,3.98036027,-3.372233152,-1.071845293,4.365588188,-1.355361342,-44,-46,158,188,294
1695161811221827000,-9.157821655,-1.872265697,-0.916979253,-0.313093394,0.057022974,-0.09272895,-1,0,-23,13,9,-1.246181965,4.108449936,-3.284844637,-1.073843837,4.365588188,-1.368551373,-47,-45,158,188,290
1695161811222827000,-9.157821655,-1.872265697,-0.905008256,-0.312427253,0.057955589,-0.089664623,-1,-2,-25,10,5,-1.230619669,4.228160381,-3.202244759,-1.078240395,4.365588188,-1.381075025,-45,-44,158,187,292
1695161811223827000,-9.159018517,-1.872265697,-0.901416957,-0.311894357,0.058754977,-0.086600304,0,0,-24,12,5,-1.22583127,4.333505154,-3.129221678,-1.083969355,4.365588188,-1.392266512,-44,-49,158,188,293
1695161811255802700,-9.051279068,-1.923741102,-0.751779318,-0.312826961,0.047430322,-0.023049004,-1,-4,-24,11,3,-3.349488258,4.939238071,-0.01436521,-0.610465586,3.878227949,-0.896379828,-57,-40,141,176,281
1695161811256802700,-9.050082207,-1.924938202,-0.749385118,-0.312826961,0.045565084,-0.019584993,-1,1,-21,13,5,-3.478775024,5.037400246,0.169988319,-0.577024519,3.763249636,-0.836292505,-57,-44,139,178,279
1695161811257802700,-9.052476883,-1.927332401,-0.74459672,-0.312826961,0.043433387,-0.015987748,2,0,-24,13,7,-3.60207653,5.13556242,0.355538964,-0.548113346,3.641742706,-0.7770046,-45,-40,140,176,282
1695161811258802700,-9.052476883,-1.929726601,-0.738611221,-0.312693715,0.041568145,-0.012523737,-1,-1,-27,11,6,-3.7169981,5.23611927,0.538695395,-0.523065865,3.514640093,-0.719049037,-54,-42,136,172,279
1695161811259802700,-9.052476883,-1.9321208,-0.735019922,-0.312294006,0.039436448,-0.008660031,-1,-1,-23,13,7,-3.834314108,5.340266705,0.711077929,-0.501482368,3.384073496,-0.663491547,-55,-39,139,174,279
1695161811290797300,-9.139864922,-2.059013367,-0.702698171,-0.247277185,0.007061256,0.092196018,-1,0,-22,13,7,-3.784035683,7.419631004,1.586158633,-0.55370903,1.209073544,-0.332411945,-53,-40,142,172,279
1695161811291797300,-9.149441719,-2.068590164,-0.703895271,-0.240615621,0.005062787,0.098724343,-3,0,-25,13,3,-3.665522814,7.443572998,1.52510643,-0.564634025,1.159111857,-0.342004567,-51,-43,143,172,279
1695161811292797300,-9.154230118,-2.070984364,-0.701501071,-0.233687595,0.003064318,0.105119444,-1,0,-25,10,1,-3.538630009,7.455543995,1.471236944,-0.571162283,1.116211295,-0.352796346,-55,-41,142,170,279
1695161811293797300,-9.160215378,-2.074575663,-0.708683729,-0.226626337,0.00106585,0.111248083,0,0,-23,12,4,-3.454833031,7.459135532,1.437718153,-0.573027551,1.091430306,-0.360390514,-53,-39,142,171,280
1695161811294797300,-9.159018517,-2.078166962,-0.715866327,-0.219698325,-0.001199081,0.117376715,2,-1,-25,10,4,-3.325546265,7.465120792,1.385045648,-0.57236141,1.059188366,-0.371981621,-51,-38,142,170,281
1695161811329784600,-9.087192535,-2.121262789,-0.761356115,-0.132964775,-0.039436448,0.212237358,0,-5,-27,11,3,-1.017535686,8.171410561,1.128866076,-0.278986216,0.643107176,-0.414615631,-51,-41,146,170,279
1695161811330784600,-9.082404137,-2.121262789,-0.761356115,-0.130833074,-0.040768761,0.21663399,-1,-1,-23,10,5,-0.887051702,8.249221802,1.128866076,-0.259800911,0.624721289,-0.403290957,-53,-44,143,168,280
1695161811331784600,-9.076418877,-2.127248287,-0.762553215,-0.128568143,-0.041967839,0.220630929,-1,0,-25,13,7,-0.769735873,8.307879448,1.120486379,-0.244079635,0.607667685,-0.394497722,-49,-39,145,173,283
1695161811332784600,-9.072827339,-2.130839586,-0.757764816,-0.126436442,-0.043033689,0.224627867,-1,0,-28,12,4,-0.663193882,8.35696125,1.11569798,-0.228758052,0.591546714,-0.383439511,-47,-43,147,172,282
1695161811333784600,-9.06803894,-2.139219284,-0.754173517,-0.124304749,-0.044232771,0.228758052,-2,-1,-24,13,7,-0.59615624,8.396465302,1.113303781,-0.219565079,0.581554353,-0.375445634,-50,-40,147,170,282
1695161811365739200,-9.091980934,-2.179920673,-0.847547412,-0.107917301,-0.088865243,0.258468598,-3,0,-22,12,7,-0.172382519,9.358934402,1.381454349,-0.083669223,0.390101075,-0.146154657,-49,-42,142,168,279
1695161811366739200,-9.096769333,-2.177526474,-0.861912608,-0.110049009,-0.091529861,0.257136285,-1,-2,-23,13,7,-0.233434662,9.396044731,1.424550056,-0.087666154,0.371448696,-0.137094945,-51,-43,142,168,279
1695161811367739200,-9.10634613,-2.177526474,-0.871489406,-0.112447165,-0.094061248,0.255670756,-2,-3,-21,13,6,-0.302866518,9.427168846,1.464054346,-0.092062794,0.350797862,-0.128301695,-59,-43,143,165,279
1695161811368739200,-9.11233139,-2.173935175,-0.882263303,-0.115511484,-0.096459419,0.253672272,-1,0,-23,10,5,-0.378283858,9.459490776,1.496376038,-0.097125575,0.327748835,-0.118975498,-50,-44,142,168,279
1695161811369739200,-9.120711327,-2.170343876,-0.89184016,-0.118842266,-0.098591112,0.251274139,-1,0,-23,13,5,-0.432153404,9.487024307,1.516726732,-0.100589581,0.310828477,-0.112846859,-48,-41,142,162,279
1695161811402721200,-9.327810287,-2.220622063,-1.102529883,-0.197448686,-0.096059717,0.172401235,-2,1,-25,11,3,-2.667140722,10.43991661,2.286462545,-0.477500767,-0.871731997,0.114712104,-55,-41,128,162,275
1695161811403721200,-9.339780807,-2.227804661,-1.11689508,-0.198514536,-0.094061248,0.167604893,-1,-1,-25,12,3,-2.761711597,10.50455952,2.290053844,-0.509609461,-0.967791736,0.129900455,-54,-44,126,163,278
1695161811404721200,-9.351752281,-2.23259306,-1.131260276,-0.198914245,-0.092062794,0.162808567,-1,0,-24,13,4,-2.849100113,10.55842972,2.286462545,-0.543050528,-1.066516042,0.145222053,-55,-44,125,161,276
1695161811405721200,-9.363722801,-2.236184359,-1.144428372,-0.198914245,-0.090197548,0.158012256,0,-3,-25,13,4,-2.922123194,10.60032845,2.26970315,-0.577690661,-1.168171525,0.160810098,-56,-47,125,159,273
1695161811406721200,-9.370905876,-2.245761156,-1.15161097,-0.198514536,-0.088199086,0.153215915,0,-2,-27,13,5,-2.979583979,10.61708736,2.246958256,-0.612197518,-1.273024559,0.176931083,-57,-45,125,162,275
1695161811441699600,-9.192537308,-2.300827742,-1.18872118,-0.07474272,-0.008127105,0.086733535,-1,0,-20,13,9,-2.002749681,8.684967041,2.133233786,-0.599540591,-2.692336798,0.756087303,-58,-45,126,160,262
1695161811442699600,-9.175778389,-2.297236443,-1.181538582,-0.063551299,-0.002264931,0.085934147,0,-3,-24,11,5,-1.850717902,8.595184326,2.133233786,-0.574226677,-2.707525253,0.790327728,-60,-45,129,162,260
1695161811443699600,-9.162610054,-2.294842243,-1.173158884,-0.051960181,0.003730475,0.085534461,-1,-1,-25,13,4,-1.691503525,8.523358345,2.139219284,-0.549712121,-2.713520765,0.821104169,-59,-36,129,163,258
1695161811444699600,-9.148244858,-2.291250944,-1.159990668,-0.040235836,0.009326187,0.085267991,-2,0,-20,10,4,-1.52390933,8.467094421,2.139219284,-0.525730491,-2.709923506,0.848683,-54,-44,127,159,258
1695161811445699600,-9.133879662,-2.288856745,-1.149216771,-0.028378254,0.01505513,0.085667685,-1,-1,-25,13,5,-1.361103654,8.438364029,2.145204782,-0.504013777,-2.69793272,0.872531414,-58,-44,130,159,257
1695161811501685800,-8.986636162,-2.182314873,-0.901416957,0.184392035,0.051294025,0.145888209,0,0,-26,9,3,1.89740479,8.037335396,1.629254222,-0.049562022,-1.809413433,0.789128661,-58,-44,136,160,246
1695161811502685800,-8.986636162,-2.177526474,-0.894234359,0.1931853,0.048629403,0.151350692,-1,-1,-24,12,1,2.019509077,8.058882713,1.63643682,-0.022782542,-1.779836059,0.778203666,-59,-45,133,159,246
1695161811503685800,-8.987833023,-2.169146776,-0.883460402,0.201312408,0.045698319,0.156413481,-1,0,-25,11,4,2.182314873,8.084021568,1.650802016,0.017986218,-1.737202048,0.762215912,-60,-48,139,159,245
1695161811504685800,-8.986636162,-2.161964178,-0.869095206,0.208906576,0.042234302,0.161742732,-1,-5,-29,4,3,2.34033227,8.131906509,1.67115283,0.058222052,-1.695634007,0.746228158,-57,-42,133,159,246
1695161811505685800,-8.986636162,-2.15478158,-0.863109708,0.215967834,0.038237367,0.166672289,-4,0,-27,13,4,2.497152328,8.192957878,1.680729628,0.097258806,-1.655264854,0.728375196,-60,-45,132,159,244
1695161811544637300,-9.051279068,-2.152387381,-0.863109708,0.229823887,-0.033174578,0.206108719,-3,0,-23,10,2,4.314351559,10.17655468,1.497573137,0.218499228,-0.862805545,0.200646251,-60,-44,135,154,244
1695161811545637300,-9.058462143,-2.157175779,-0.860715508,0.225027561,-0.035173047,0.20411025,-1,-1,-27,9,4,4.34787035,10.23281765,1.491587639,0.19118683,-0.822303176,0.179595709,-60,-45,134,159,245
1695161811546637300,-9.066842079,-2.161964178,-0.867898107,0.219964772,-0.036905054,0.201712102,-1,-3,-21,11,5,4.371812344,10.27471638,1.489193439,0.163607955,-0.78273356,0.160277188,-60,-46,136,158,244
1695161811547637300,-9.075222015,-2.170343876,-0.875080705,0.214768767,-0.038637057,0.199047476,-3,-7,-29,13,3,4.388571739,10.29865837,1.479616642,0.136295557,-0.744629443,0.142557427,-57,-45,135,159,243
1695161811548637300,-9.085995674,-2.181117773,-0.882263303,0.209039822,-0.040235836,0.195983157,-3,0,-23,13,0,4.396951199,10.30703831,1.483207941,0.109915771,-0.707724333,0.126436442,-58,-44,135,158,245
1695161811586616900,-9.260771751,-2.37744236,-1.018732786,0.145488501,-0.041701376,0.067015313,-1,-3,-25,12,3,3.538630009,9.8940382,1.923741102,0.030776417,-0.131099537,0.008660031,-60,-47,129,156,245
1695161811587616900,-9.261969566,-2.382230759,-1.021126986,0.146021441,-0.040502299,0.057422664,-1,-3,-24,11,3,3.470395327,9.908403397,1.963245392,0.025846859,-0.110448696,0.006128637,-60,-47,133,155,247
1695161811588616900,-9.270348549,-2.383427858,-1.029506683,0.147087291,-0.039036751,0.04769678,-2,0,-24,10,7,3.400963545,9.915586472,2.005143881,0.018652374,-0.091396637,0.003597243,-63,-45,129,156,245
1695161811589616900,-9.273940086,-2.385822058,-1.035492182,0.148286372,-0.037304748,0.03757121,-4,-1,-26,10,4,3.341108561,9.915586472,2.04584527,0.009192956,-0.074076563,0.001465544,-60,-49,133,158,244
1695161811590616900,-9.278728485,-2.387019157,-1.046266198,0.149885148,-0.03543951,0.027712099,-1,0,-25,11,4,3.281253338,9.908403397,2.088941097,-0.002264931,-0.057822358,-0.000399694,-60,-44,132,157,245
1695161811620597900,-9.236829758,-2.22900176,-1.051054597,0.18492496,0.017719755,-0.163208261,-1,0,-25,11,4,2.506729126,9.238027573,2.433706045,-0.042101074,0.158278719,0.013056661,-57,-44,139,156,244
1695161811621597900,-9.232041359,-2.217030764,-1.046266198,0.185724348,0.020251149,-0.172401235,-1,-1,-25,12,5,2.477998734,9.228450775,2.438494444,-0.035039816,0.169070452,0.011724349,-60,-45,141,154,246
1695161811622597900,-9.22725296,-2.206256866,-1.040280581,0.186390504,0.022649311,-0.181327716,-1,0,-28,13,1,2.439691544,9.21528244,2.434903145,-0.025313934,0.185324654,0.009459418,-60,-43,141,151,244
1695161811623597900,-9.223662376,-2.19308877,-1.039083481,0.187056661,0.024781011,-0.190387443,-1,0,-27,12,0,2.404975653,9.203310966,2.431311846,-0.016653905,0.20157887,0.007061256,-59,-44,141,154,244
1695161811624597900,-9.216479301,-2.181117773,-1.042674899,0.187722817,0.026779478,-0.199180692,-1,-2,-27,12,3,2.373851061,9.185355186,2.432508945,-0.009459418,0.217699856,0.004396631,-60,-44,142,156,245
1695161811656574500,-9.056067467,-1.927332401,-1.039083481,0.201312408,0.051160797,-0.311894357,-1,-2,-24,10,4,2.370259762,8.429984093,2.516305923,0.239683002,0.739033639,-0.20357734,-61,-41,155,156,248
1695161811657574500,-9.046490669,-1.914164305,-1.042674899,0.202644721,0.052226644,-0.31429249,-1,-1,-25,8,3,2.385822058,8.412027359,2.52827692,0.256470144,0.771808565,-0.222096488,-59,-45,152,159,247
1695161811658574500,-9.03571701,-1.900996208,-1.045069098,0.203843787,0.053292494,-0.316290945,-2,0,-22,12,4,2.396595955,8.398859978,2.545036316,0.271525264,0.804316998,-0.241015315,-61,-41,155,158,247
1695161811659574500,-9.028534889,-1.887827992,-1.047463298,0.205442563,0.054358348,-0.317623258,-1,0,-27,13,7,2.407369852,8.379706383,2.559401512,0.285114855,0.83575958,-0.26020062,-57,-44,156,157,248
1695161811660574500,-9.022548676,-1.875856996,-1.047463298,0.206774876,0.055557426,-0.318822354,-1,-2,-25,10,8,2.41694665,8.370129585,2.56658411,0.29350841,0.856277168,-0.273523748,-63,-44,156,159,249
1695161811692555200,-8.938752174,-1.644816518,-1.039083481,0.237018377,0.070346095,-0.266062796,-2,-2,-27,13,3,3.477577925,7.735665798,2.406172752,0.432735085,1.055324674,-0.796856046,-59,-44,161,159,252
1695161811693555200,-8.939949036,-1.63523972,-1.035492182,0.236618683,0.070479326,-0.260333836,-1,-1,-25,13,2,3.628412724,7.733271599,2.383427858,0.43366769,1.049062729,-0.819905043,-60,-45,163,160,248
1695161811694555200,-8.941145897,-1.626860023,-1.030703783,0.235819295,0.070612557,-0.254205197,-3,0,-24,11,4,3.738545895,7.729680061,2.355894566,0.433401227,1.044932604,-0.833494663,-59,-48,164,160,251
1695161811695555200,-8.942343712,-1.617283225,-1.028309584,0.234486982,0.07087902,-0.247943342,-1,-3,-26,12,6,3.90374589,7.7284832,2.312798738,0.433001518,1.040003061,-0.851614058,-60,-48,163,161,254
1695161811696555200,-8.945934296,-1.607706428,-1.027112484,0.233021438,0.070745789,-0.241681471,-1,0,-27,10,0,4.065354347,7.733271599,2.258929253,0.431935668,1.036272645,-0.86586982,-57,-47,163,161,253
1695161811734531700,-9.109937668,-1.568202138,-1.025915384,0.134830013,0.044898927,-0.158145472,-1,-4,-24,12,1,4.474762917,9.659406662,0.300472319,0.353595704,1.553209782,-1.026946425,-47,-47,169,166,253
1695161811735531700,-9.119514465,-1.572990537,-1.028309584,0.126836136,0.043166921,-0.157479316,0,-5,-27,11,1,4.38617754,9.716867447,0.293289721,0.344269514,1.592646241,-1.034940243,-49,-45,165,162,253
1695161811736531700,-9.124302864,-1.575384736,-1.021126986,0.118842266,0.041701376,-0.156946406,-2,0,-23,13,7,4.241328239,9.794678688,0.283712894,0.329614073,1.65286684,-1.045465589,-50,-47,168,162,252
1695161811737531700,-9.127894402,-1.577778935,-1.023521185,0.110448696,0.040369064,-0.157212853,-2,-1,-25,12,2,4.08570528,9.85573101,0.280121595,0.31429249,1.713753462,-1.05439198,-47,-48,168,165,250
1695161811738531700,-9.129091263,-1.578976035,-1.027112484,0.102055125,0.039702907,-0.157612562,-1,-1,-23,7,2,3.924096584,9.901221275,0.286107093,0.299503833,1.77477324,-1.061320066,-46,-48,164,162,252
1695161811768533600,-9.157821655,-1.624465823,-1.066616893,-0.047430322,0.07714089,-0.21503523,-2,-3,-27,10,3,0.119710088,10.09754562,0.694318473,0.387836158,2.501816034,-0.621656954,-44,-43,159,159,248
1695161811769533600,-9.160215378,-1.625662923,-1.064222693,-0.053558957,0.079805516,-0.219032168,-1,0,-33,8,0,-0.110133275,10.15979481,0.74339962,0.400892794,2.510476112,-0.584085763,-47,-48,158,160,250
1695161811770533600,-9.156624794,-1.626860023,-1.061828494,-0.059287902,0.082203679,-0.222629398,-3,-4,-28,7,2,-0.33518824,10.21605873,0.792480767,0.41141808,2.516738176,-0.547447205,-49,-43,158,159,248
1695161811771533600,-9.156624794,-1.629254222,-1.064222693,-0.064350687,0.084735066,-0.226093426,-6,-2,-27,8,-2,-0.551863492,10.26992798,0.835576415,0.419545174,2.520601749,-0.511741161,-55,-48,156,158,247
1695161811772533600,-9.157821655,-1.630451322,-1.061828494,-0.068880551,0.087133229,-0.229424208,-6,-7,-31,10,-1,-0.761356115,10.31900978,0.872686505,0.42540735,2.52166748,-0.477234304,-51,-45,158,159,253
1695161811808486500,-9.045293808,-1.661576033,-0.942118347,-0.024647778,0.145488501,-0.229424208,-7,-4,-28,7,1,-4.326322556,10.09275723,1.569399238,0.458048999,2.014189959,-0.062218986,-47,-68,153,159,247
1695161811809486500,-9.046490669,-1.650802016,-0.92895025,-0.018652374,0.147220522,-0.22702603,-4,-5,-28,10,-1,-4.679467201,10.09634876,1.699883223,0.469640136,1.936915755,-0.045964777,-47,-68,155,159,248
1695161811810486500,-9.048885345,-1.63763392,-0.922964752,-0.013056661,0.148286372,-0.224228173,-6,-6,-28,3,0,-5.045780182,10.13585281,1.874659896,0.480165392,1.850981593,-0.024514547,-45,-67,155,159,249
1695161811811486500,-9.048885345,-1.624465823,-0.912190855,-0.007860643,0.148819283,-0.221297085,-1,-3,-27,3,4,-5.293580055,10.18493366,1.996764183,0.486826956,1.789029002,-0.008393568,-46,-66,155,159,248
1695161811812486500,-9.047688484,-1.611297727,-0.906205356,-0.00319755,0.148552835,-0.218099549,-6,-5,-29,7,0,-5.659893036,10.26035118,2.178723574,0.496952504,1.689638495,0.018519141,-46,-71,153,159,247
1695161811844468400,-8.962694168,-1.361103654,-0.797269166,-0.025313934,0.112846859,-0.106052071,-3,-5,-28,8,-1,-4.771644115,10.15620327,1.491587639,-0.125237361,0.115111791,-0.072611026,-42,-104,157,158,248
1695161811845468400,-8.960299492,-1.359906554,-0.791283667,-0.030509954,0.110848397,-0.096326187,-2,-5,-29,8,1,-4.490325451,10.0412817,1.404199243,-0.150817752,0.094594181,-0.117643185,-43,-104,155,157,247
1695161811846468400,-8.957905769,-1.361103654,-0.785298169,-0.035572741,0.108849928,-0.085934147,-3,-5,-31,9,-4,-4.211400986,9.929951668,1.323993564,-0.170802444,0.075808577,-0.159078106,-44,-109,158,158,248
1695161811847468400,-8.954314232,-1.359906554,-0.78170687,-0.040635526,0.106984682,-0.07500919,-6,-7,-29,7,1,-3.93965888,9.830592155,1.253364563,-0.185324654,0.05808882,-0.195849925,-43,-109,157,153,247
1695161811848468400,-8.954314232,-1.358709455,-0.775721371,-0.044099543,0.105519146,-0.067681469,-4,-3,-24,6,-2,-3.682282209,9.747992516,1.182735682,-0.194384381,0.040369064,-0.227558956,-44,-111,156,158,247
1695161811884444000,-8.973467827,-1.571793437,-0.673967779,-0.096459419,0.048762634,0.171601832,-5,-7,-31,9,-1,-2.328361034,9.62469101,1.482010841,-0.124970905,-0.762615621,0.050361406,-61,-104,127,146,247
1695161811885444000,-8.981847763,-1.584961534,-0.671573579,-0.098591112,0.044366002,0.181327716,-4,-10,-29,6,0,-2.391807556,9.561244011,1.521515131,-0.123238891,-0.827099502,0.078606427,-58,-98,126,150,247
1695161811886444000,-8.990227699,-1.59932673,-0.672770679,-0.100989282,0.039836142,0.190520674,-5,-7,-32,8,-1,-2.461239338,9.493009567,1.577778935,-0.118975498,-0.892649293,0.105252676,-66,-92,126,146,246
1695161811887444000,-8.995016098,-1.606509328,-0.67037648,-0.102721281,0.036771823,0.196116373,-3,-7,-31,8,-1,-2.541445017,9.415198326,1.646013618,-0.112447165,-0.9583323,0.129767224,-67,-87,125,146,244
1695161811888444000,-8.997409821,-1.616086125,-0.67037648,-0.105785601,0.031975497,0.204243496,-7,-10,-27,8,-1,-2.628833532,9.342175484,1.722628117,-0.103787132,-1.022416592,0.152416542,-69,-79,126,147,246
1695161811924421000,-9.289502144,-1.788468719,-0.699106872,-0.247010723,-0.06674885,0.240615621,-8,-1,-27,7,-1,-4.554968834,7.158663273,2.121262789,0.115511484,-2.674484015,0.681078076,-72,-52,116,143,243
1695161811925421000,-9.307458878,-1.800439715,-0.697909772,-0.257935673,-0.071145482,0.237018377,-6,-7,-28,8,1,-4.606443882,6.969521046,2.112883091,0.13869372,-2.767212868,0.731039822,-74,-48,117,144,241
1695161811926421000,-9.32421875,-1.810016513,-0.701501071,-0.268860638,-0.075275652,0.233021438,-3,-5,-32,8,0,-4.653131008,6.781576157,2.090138197,0.165339977,-2.857943296,0.782866776,-76,-49,119,148,241
1695161811927421000,-9.337387085,-1.82198751,-0.709880829,-0.280052066,-0.079139359,0.228758052,-4,-4,-29,7,0,-4.691438198,6.597222805,2.059013367,0.194917306,-2.947607994,0.836026073,-76,-48,116,141,241
1695161811928421000,-9.346963882,-1.832761407,-0.726640224,-0.291110277,-0.082736596,0.224094957,-6,-7,-28,7,-1,-4.727351189,6.417657852,2.023100376,0.227558956,-3.036606312,0.889851451,-72,-47,112,143,240
1695161811969397800,-9.472659111,-1.981201887,-0.894234359,-0.442594171,-0.080471672,0.089797854,-2,-3,-27,13,1,-4.368220806,5.021838188,0.699106872,0.917163849,-4.365721226,1.364421129,-74,-47,109,140,244
1695161811970397800,-9.479841232,-1.982398987,-0.896628559,-0.445392013,-0.078606427,0.081937209,-1,0,-21,10,3,-4.338293552,5.019443989,0.588973641,0.927955568,-4.365721226,1.340039849,-73,-51,108,141,244
1695161811971397800,-9.48941803,-1.989581585,-0.899022758,-0.447790205,-0.076741189,0.074209802,-1,-3,-26,10,1,-4.319139957,4.989516258,0.464475125,0.937947929,-4.365721226,1.312194467,-73,-47,109,138,242
1695161811972397800,-9.496601105,-1.993172884,-0.906205356,-0.449388951,-0.074875958,0.067148544,-3,0,-28,11,1,-4.301183224,4.975151062,0.337582439,0.946741164,-4.365721226,1.282084227,-75,-49,110,137,242
1695161811973397800,-9.503783226,-1.994369984,-0.905008256,-0.450588048,-0.07274425,0.060486984,-1,-1,-25,11,2,-4.283226967,4.981136799,0.260968,0.950604916,-4.365721226,1.259967923,-76,-49,106,140,240
1695161812009395200,-9.469067574,-1.944091797,-0.81642276,-0.386503845,-0.068347625,0.04729709,-2,-3,-25,11,3,-3.250128746,5.38934803,-2.777273893,0.676947892,-4.365721226,-0.064883612,-74,-49,116,136,242
1695161812010395200,-9.448717117,-1.946485996,-0.808043063,-0.38024193,-0.070479326,0.051693719,-2,-1,-23,11,3,-3.175908566,5.377377033,-2.984372377,0.675349176,-4.365721226,-0.13869372,-74,-50,117,136,240
1695161812011395200,-9.428366661,-1.944091797,-0.799663365,-0.373980075,-0.07301072,0.056490045,-1,0,-23,10,1,-3.101688385,5.371391296,-3.163937569,0.674016833,-4.365721226,-0.209306285,-77,-49,119,137,240
1695161812012395200,-9.408015251,-1.944091797,-0.793677866,-0.367585003,-0.075675346,0.061419602,-2,-1,-24,10,5,-3.027467966,5.372588634,-3.313575268,0.671885133,-4.365721226,-0.276854515,-71,-49,113,137,240
1695161812013395200,-9.388861656,-1.941697598,-0.784101069,-0.361456335,-0.078473203,0.066882081,-1,0,-24,11,1,-2.964021683,5.377377033,-3.432088137,0.669620216,-4.365721226,-0.341738135,-76,-47,117,137,240
1695161812047374300,-9.148244858,-1.914164305,-0.66917938,-0.307364464,-0.143756509,0.162542105,-1,-1,-24,10,3,-3.521870613,6.42484045,-3.797203779,0.015588055,-4.365721226,-1.508710623,-74,-45,87,120,240
1695161812048374300,-9.141061783,-1.909375906,-0.664390981,-0.310295552,-0.149352223,0.164807037,3,0,-24,7,2,-3.590105534,6.414066315,-3.878606796,-0.030776417,-4.365721226,-1.595310807,-75,-48,88,122,241
1695161812049374300,-9.1326828,-1.905784607,-0.672770679,-0.314026028,-0.155214384,0.166405827,-1,-3,-24,13,10,-3.645172119,6.385335922,-3.965995073,-0.068480857,-4.365721226,-1.680978656,-71,-49,91,123,237
1695161812050374300,-9.126696587,-1.904587507,-0.676361978,-0.318422645,-0.161209792,0.167338446,-1,-1,-26,10,5,-3.696647406,6.344634533,-4.059369087,-0.096725874,-4.365721226,-1.765580416,-76,-48,80,121,237
1695161812051374300,-9.117119789,-1.903390408,-0.684741676,-0.323485464,-0.167471662,0.16773814,-4,-3,-26,13,3,-3.748122692,6.289567947,-4.150348663,-0.116577335,-4.365721226,-1.848716736,-72,-45,85,122,236
1695161812088329100,-9.097966194,-1.975216389,-0.895431459,-0.45085454,-0.248742729,0.124837674,-3,0,-23,8,1,-5.57848978,6.117185116,-5.163095951,0.306032151,-4.365721226,-2.890584946,-73,-50,44,96,232
1695161812089329100,-9.105149269,-1.981201887,-0.908599555,-0.45445177,-0.248076573,0.122572735,-1,-6,-25,8,3,-5.778405666,6.314706802,-5.204994678,0.319621742,-4.365721226,-2.944010496,-75,-51,40,94,231
1695161812090329100,-9.113529205,-1.988384485,-0.921767652,-0.45764932,-0.246877491,0.120574266,1,-1,-23,13,5,-5.912481308,6.451176643,-5.216965675,0.326816231,-4.365721226,-2.982248068,-72,-45,36,92,230
1695161812091329100,-9.124302864,-1.993172884,-0.93134445,-0.46018073,-0.245545179,0.118442573,-1,0,-23,7,5,-6.112396717,6.671442986,-5.216965675,0.327748835,-4.365721226,-3.043800831,-73,-49,32,88,230
1695161812092329100,-9.1326828,-1.996764183,-0.944512546,-0.4623124,-0.243813157,0.116577335,-1,-1,-25,13,2,-6.311115742,6.907271862,-5.225345135,0.314958632,-4.365721226,-3.112814665,-74,-49,30,86,229
1695161812126313300,-9.044096947,-2.019509077,-1.194706678,-0.452986211,-0.211837664,0.062751912,0,-3,-28,11,3,-7.528567314,9.854534149,-4.211400986,-0.822036743,-4.365721226,-4.365721226,-66,-47,-13,46,217
1695161812127313300,-9.018958092,-2.017114878,-1.203086376,-0.450721264,-0.206774876,0.057156201,-4,-1,-25,10,3,-7.378929615,9.777919769,-3.861847401,-0.914499223,-4.365721226,-4.365721226,-69,-45,-12,44,215
1695161812128313300,-8.997409821,-2.018311977,-1.211466074,-0.448989272,-0.202245027,0.053159267,-2,-1,-27,10,1,-7.254431248,9.700108528,-3.519476414,-1.00243187,-4.365721226,-4.365721226,-65,-45,-12,45,215
1695161812129313300,-8.978256226,-2.018311977,-1.215057373,-0.446990818,-0.197315469,0.049162328,-2,0,-25,13,4,-7.164648533,9.625887871,-3.202244759,-1.093029022,-4.365721226,-4.365721226,-66,-44,-13,37,215
1695161812130313300,-8.961497307,-2.019509077,-1.219845772,-0.444859117,-0.192119434,0.04516539,-3,0,-29,12,3,-7.104793549,9.567230225,-2.916137695,-1.18522501,-4.365721226,-4.365721226,-67,-45,-17,37,212
1695161812162283100,-8.912415504,-2.018311977,-1.15400517,-0.344935685,-0.081537522,0.026246555,-2,-2,-25,13,3,-8.719682693,6.312312603,-0.29807812,-1.564934134,-1.542551279,-4.224496365,-60,-47,-33,25,212
1695161812163283100,-8.918401718,-2.014720678,-1.146822572,-0.336808592,-0.078473203,0.02797856,-1,-2,-23,10,3,-8.908824921,6.124367714,-0.239420176,-1.471272469,-1.374679923,-4.202379704,-63,-43,-34,22,210
1695161812164283100,-8.927978516,-2.017114878,-1.137245774,-0.328548223,-0.075675346,0.029977029,-2,0,-27,12,4,-9.090784073,5.930437565,-0.190339029,-1.367218971,-1.211338401,-4.182394981,-60,-46,-33,20,209
1695161812165283100,-8.936357498,-2.020706177,-1.128866076,-0.320154667,-0.073410407,0.031842265,-2,-3,-24,8,0,-9.277531624,5.742492676,-0.132878199,-1.252373576,-1.052127123,-4.163076401,-61,-44,-31,22,210
1695161812166283100,-8.942343712,-2.018311977,-1.125274777,-0.311627865,-0.071145482,0.033707503,-3,0,-26,12,3,-9.465476036,5.554547787,-0.071826048,-1.129001498,-0.897578895,-4.145356655,-60,-45,-34,24,206
1695161812273682900,-9.236829758,-2.001552582,-1.043871999,-0.211171508,-0.048096478,0.056889739,-1,-3,-25,11,1,-13.541605,4.863820553,1.679532528,2.034707546,1.408254147,-4.118044376,-58,-40,-34,20,210
1695161812274682900,-9.252392769,-2.005143881,-1.035492182,-0.209705979,-0.04729709,0.056223582,-2,-3,-25,13,1,-13.772645,4.9763484,1.760935307,2.174067497,1.490591049,-4.125771999,-58,-40,-34,16,210
1695161812275682900,-9.269151688,-2.005143881,-1.030703783,-0.208373666,-0.046897396,0.055557426,0,-2,-26,10,4,-14.01685429,5.123591423,1.832761407,2.302369118,1.566932559,-4.136430264,-58,-43,-34,18,206
1695161812276682900,-9.284713745,-2.006340981,-1.023521185,-0.207441032,-0.046098009,0.054491576,-1,-1,-27,10,4,-14.18444824,5.220556736,1.871068597,2.381641626,1.613696814,-4.14509058,-57,-44,-34,17,208
1695161812277682900,-9.29788208,-2.00873518,-1.017535686,-0.206508413,-0.045431852,0.053292494,-1,-3,-24,10,3,-14.42865658,5.3594203,1.911770105,2.497153282,1.678180695,-4.156681538,-57,-40,-35,18,204
1695161812317368500,-9.293093681,-2.029085875,-0.92895025,-0.225693718,-0.027179174,-0.021849923,-2,-1,-24,13,3,-16.3500042,9.111134529,0.746990919,3.076575756,1.296739578,-4.105254173,-59,-40,-34,16,205
1695161812318368500,-9.282320023,-2.026691675,-0.93014735,-0.227958649,-0.02571363,-0.028245023,-2,-1,-25,8,3,-16.1931839,9.282320023,0.696712673,3.021418095,1.207341552,-4.055159092,-59,-37,-34,20,206
1695161812319368500,-9.271546364,-2.024297476,-0.925358951,-0.230090365,-0.024381317,-0.034773353,-3,-1,-25,10,3,-16.01002693,9.453505516,0.661996782,2.955868244,1.117143989,-3.997336864,-55,-37,-34,23,208
1695161812320368500,-9.25358963,-2.019509077,-0.921767652,-0.232088804,-0.022915773,-0.040901989,-2,-3,-23,10,1,-15.80412579,9.611522675,0.63087213,2.880459309,1.026813149,-3.932186842,-59,-40,-34,19,206
1695161812321368500,-9.239224434,-2.017114878,-0.920570552,-0.233954057,-0.02158346,-0.047163859,-6,-1,-25,12,4,-15.57667637,9.759963036,0.614112735,2.796257257,0.936748862,-3.858776331,-58,-40,-34,19,202
1695161812528207500,-8.954314232,-1.991975784,-0.828393817,-0.154681474,0.021316998,-0.093794793,-4,-2,-23,13,1,-10.47702694,8.736441612,0.836773515,0.369450212,0.170669213,-1.219865203,-58,-35,-33,21,204
1695161812529207500,-8.944737434,-1.987187386,-0.830788016,-0.14282389,0.024381317,-0.090064317,-4,-1,-27,11,5,-10.33457184,8.529343605,0.866701007,0.281917304,0.183992341,-1.051594138,-57,-38,-33,19,205
1695161812530207500,-8.933963776,-1.985990286,-0.828393817,-0.130166918,0.027312404,-0.085667685,-2,-3,-27,10,3,-10.20648193,8.325836182,0.89303726,0.203843787,0.201312408,-0.886254191,-55,-41,-33,21,204
1695161812531207500,-8.927978516,-1.985990286,-0.82001406,-0.116843797,0.030509954,-0.080738127,-2,-1,-27,7,2,-10.0951519,8.121131897,0.93014735,0.135496169,0.222496167,-0.724378288,-58,-39,-33,20,202
1695161812532207500,-8.920795441,-1.984793186,-0.815225661,-0.10258805,0.033707503,-0.074875958,-2,0,-24,12,3,-10.00656605,7.918822289,0.9660604,0.075808577,0.247143939,-0.567032158,-59,-37,-33,18,201
1695161812647140500,-8.937555313,-1.978807688,-0.628477931,0.224361405,0.073943339,0.113912709,-2,-3,-27,9,1,-9.651026726,5.451597214,1.668758631,0.136695251,0.938747287,1.26583004,-55,-39,-33,21,198
1695161812648140500,-8.943540573,-1.977610588,-0.618901134,0.241015315,0.074209802,0.125104129,-2,-1,-25,11,3,-9.643844604,5.400122166,1.697489023,0.169603363,0.966192961,1.288745761,-55,-40,-34,27,196
1695161812649140500,-8.949525833,-1.977610588,-0.606930137,0.257269531,0.074343033,0.136162326,-6,-1,-28,12,1,-9.635464668,5.352237701,1.721431017,0.203710571,0.990973949,1.305399656,-58,-43,-33,22,199
1695161812650140500,-8.961497307,-1.980004787,-0.59256494,0.27272436,0.074076563,0.146687597,-4,0,-24,12,0,-9.628282547,5.316324711,1.750161409,0.238084227,1.012690663,1.315791726,-55,-40,-34,24,199
1695161812651140500,-8.973467827,-1.983596087,-0.579396784,0.28777948,0.073810108,0.157079637,-1,-3,-29,10,2,-9.622296333,5.288791656,1.766920805,0.269793272,1.032009244,1.320721269,-57,-39,-33,22,198
1695161812714120000,-9.281123161,-2.039859772,-0.41060558,0.417280257,0.044366002,0.225560486,-1,-1,-26,9,2,-9.440337181,4.859032154,1.714248419,0.538787127,0.779536009,0.959797859,-56,-39,-30,24,200
1695161812715120000,-9.300276756,-2.038662672,-0.403422982,0.415681452,0.041834611,0.222762644,-2,-1,-27,12,5,-9.419986725,4.845864296,1.695094824,0.528128624,0.740232766,0.945941806,-56,-39,-32,24,197
1695161812716120000,-9.321824074,-2.042253971,-0.391451985,0.413150072,0.038903523,0.219298616,-5,-6,-25,12,3,-9.40083313,4.833893299,1.683123827,0.514805496,0.699597239,0.934617162,-55,-39,-31,23,198
1695161812717120000,-9.338583946,-2.04704237,-0.383072257,0.409952521,0.036105666,0.215434924,-1,-2,-27,8,5,-9.381679535,4.823119164,1.66995573,0.498950988,0.658029079,0.925823927,-57,-37,-33,24,198
1695161812718120000,-9.352949142,-2.054224968,-0.374692559,0.406222045,0.033307809,0.211038291,-3,-1,-26,12,3,-9.36252594,4.813542366,1.654393315,0.480698317,0.615395069,0.919162333,-54,-39,-34,21,244
1695161812777063900,-9.446322441,-2.122459888,-0.328005642,0.308030635,-0.024781011,0.043300152,-1,-1,-25,11,7,-9.33618927,4.425682068,1.104924083,-0.120441042,-0.152683005,1.079572678,-55,-40,-29,22,193
1695161812778063900,-9.440337181,-2.118868589,-0.331596941,0.3028346,-0.027845331,0.031575806,-1,0,-27,8,2,-9.340977669,4.394556999,1.069011092,-0.153349161,-0.182926491,1.094361424,-57,-41,-31,26,193
1695161812779063900,-9.437943459,-2.11767149,-0.336385339,0.297505349,-0.031042879,0.019851454,-3,-1,-25,10,2,-9.343372345,4.367023945,1.04147768,-0.1854579,-0.211837664,1.108617187,-57,-39,-27,24,194
1695161812780063900,-9.434351921,-2.112883091,-0.33518824,0.29244259,-0.034107197,0.007993874,-2,-1,-25,10,1,-9.355342865,4.339490414,1.007958889,-0.217300147,-0.239283308,1.122739673,-54,-40,-28,28,191
1695161812781063900,-9.431957245,-2.108094692,-0.33399114,0.286980093,-0.037171517,-0.003730475,-2,-2,-25,11,1,-9.373299599,4.332307816,0.975637197,-0.253672272,-0.266462475,1.1353966,-57,-43,-32,26,194
1695161812854022800,-9.385271072,-1.926135302,-0.405817181,0.203044415,-0.097791731,-0.173600301,-4,-3,-28,6,3,-9.254786491,3.490746021,0.511162043,-0.518269539,-0.416614085,1.300203681,-50,-41,-25,30,195
1695161812855022800,-9.376891136,-1.917755604,-0.415394008,0.199980095,-0.101655439,-0.179595709,-5,-2,-26,13,3,-9.245209694,3.460818529,0.502782345,-0.513606429,-0.412350684,1.302335382,-52,-41,-28,29,194
1695161812856022800,-9.364919662,-1.904587507,-0.421379507,0.196782529,-0.105652377,-0.185058191,-1,-5,-27,12,2,-9.232041359,3.415328741,0.494402647,-0.504546702,-0.405022949,1.305000067,-53,-40,-29,30,200
1695161812857022800,-9.354146004,-1.890222192,-0.427365005,0.193584993,-0.109516084,-0.190387443,-1,-5,-27,11,2,-9.218873978,3.374627352,0.487220049,-0.493355274,-0.396496177,1.306998491,-54,-41,-28,30,194
1695161812858022800,-9.345766068,-1.877054095,-0.441730201,0.190387443,-0.113246553,-0.195317,-1,-1,-25,11,3,-9.205705643,3.335123062,0.477643251,-0.48096475,-0.387303203,1.308597207,-55,-41,-25,28,193
1695161812931972700,-9.135076523,-1.701080322,-0.648828685,0.127502292,-0.146421134,-0.238217458,-2,-6,-27,11,7,-8.852560997,2.912546396,0.579396784,-0.070212863,-0.09739203,1.222929597,-49,-41,-25,31,196
1695161812932972700,-9.127894402,-1.697489023,-0.660799682,0.124304749,-0.146287903,-0.238750383,-1,-2,-28,13,3,-8.838195801,2.911349297,0.59615624,-0.050894335,-0.08020521,1.213470101,-50,-40,-24,31,193
1695161812933972700,-9.120711327,-1.689109325,-0.66917938,0.121373661,-0.146287903,-0.239150077,-3,-3,-25,12,4,-8.82263279,2.912546396,0.606930137,-0.033041347,-0.063418068,1.203344584,-54,-37,-23,31,193
1695161812934972700,-9.118317604,-1.681926727,-0.683544576,0.11817611,-0.146154657,-0.239683002,-2,0,-28,10,1,-8.808267593,2.914940596,0.620098233,-0.016653905,-0.047163859,1.192686081,-51,-36,-24,31,193
1695161812935972700,-9.11233139,-1.673547029,-0.694318473,0.115245022,-0.146021441,-0.240349159,-1,-2,-27,12,3,-8.797493935,2.919728994,0.638054729,-0.0021317,-0.031442571,1.181494594,-50,-39,-25,31,193
1695161812990939400,-9.075222015,-1.583764434,-0.85592711,0.064217456,-0.138560489,-0.250075042,0,-5,-25,11,7,-8.590395927,2.902969599,0.845153213,0.026646247,0.130033687,0.911967814,-50,-43,-23,31,196
1695161812991939400,-9.0740242,-1.578976035,-0.860715508,0.060886677,-0.137761101,-0.251140893,-4,-5,-23,12,1,-8.58680439,2.893392801,0.846350312,0.020784073,0.131232768,0.895580411,-49,-41,-24,29,190
1695161812992939400,-9.072827339,-1.576581836,-0.864306808,0.057156201,-0.13656202,-0.252206743,-1,-2,-23,11,1,-8.582015991,2.885013103,0.847547412,0.015188362,0.131632462,0.879326165,-50,-35,-24,31,193
1695161812993939400,-9.071630478,-1.569399238,-0.870292306,0.053825419,-0.135362938,-0.253139347,-1,0,-25,10,1,-8.576030731,2.879027605,0.843956113,0.011324655,0.131499231,0.868268013,-49,-40,-19,32,193
1695161812994939400,-9.069235802,-1.564610839,-0.875080705,0.050094947,-0.134030625,-0.254338443,-1,-1,-24,9,1,-8.571242332,2.869450808,0.842759013,0.006261868,0.130833074,0.851480842,-54,-43,-21,31,190
1695161813042911100,-8.995016098,-1.484405041,-0.9648633,-0.037437979,-0.086733535,-0.27845329,-1,-2,-25,13,0,-8.333019257,2.710236311,0.788889468,0.0042634,0.072877489,0.489491582,-50,-41,-24,31,192
1695161813043911100,-8.987833023,-1.48560214,-0.9672575,-0.041967839,-0.083269522,-0.279252678,-1,0,-23,13,1,-8.322244644,2.711433411,0.787692368,0.007860643,0.072078094,0.468840718,-51,-39,-22,32,193
1695161813044911100,-8.980650902,-1.48799634,-0.9660604,-0.04623124,-0.079539053,-0.280052066,-1,-2,-28,8,4,-8.315062523,2.71263051,0.788889468,0.010392036,0.071678407,0.454984695,-54,-39,-24,31,193
1695161813045911100,-8.973467827,-1.48799634,-0.969651699,-0.050361406,-0.075675346,-0.280584991,-3,-1,-27,10,3,-8.309077263,2.71382761,0.786495268,0.014255743,0.071411945,0.434067398,-52,-38,-27,31,190
1695161813046911100,-8.968679428,-1.48679924,-0.973242998,-0.054091886,-0.071811639,-0.280851454,-2,-1,-27,12,4,-8.301894188,2.718616009,0.787692368,0.018119449,0.071545176,0.41288361,-51,-44,-25,32,192
1695161813102876200,-8.868123055,-1.507149935,-0.902614057,-0.082470134,0.01185758,-0.271525264,-1,1,-25,11,5,-8.210914612,2.97479558,0.896628559,0.040102605,0.12723583,-0.001865237,-51,-45,-22,32,192
1695161813103876200,-8.856152534,-1.507149935,-0.897825658,-0.083402753,0.016787136,-0.271258801,-4,-2,-24,11,1,-8.208520889,2.989160776,0.902614057,0.037837673,0.130166918,-0.022649311,-51,-40,-23,30,186
1695161813104876200,-8.844181061,-1.508347034,-0.883460402,-0.084335379,0.021450229,-0.271258801,-4,-3,-26,11,3,-8.203732491,3.007117271,0.907402456,0.035039816,0.132565081,-0.043033689,-53,-40,-21,32,193
1695161813105876200,-8.832210541,-1.509544134,-0.869095206,-0.085534461,0.026246555,-0.271125585,-3,-3,-27,12,1,-8.201337814,3.025073767,0.908599555,0.032241959,0.134963244,-0.063018374,-55,-44,-23,31,192
1695161813106876200,-8.820239067,-1.508347034,-0.861912608,-0.086733535,0.030776417,-0.271125585,-1,-1,-27,8,4,-8.196549416,3.041833162,0.914585054,0.028911179,0.137094945,-0.082869835,-47,-39,-22,31,188
1695161813167838500,-8.646659851,-1.493981838,-0.438138902,-0.177197546,0.119774885,-0.302168459,-3,-3,-27,10,4,-8.215703011,3.588908434,1.037886381,-0.070612557,0.152816221,-0.404356807,-51,-40,-21,31,193
1695161813168838500,-8.652645111,-1.48560214,-0.411802679,-0.189321592,0.124171518,-0.305898935,-1,-2,-24,12,3,-8.226476669,3.634398222,1.031900883,-0.076874427,0.151750386,-0.417280257,-50,-44,-21,31,193
1695161813169838500,-8.65743351,-1.477222443,-0.389057785,-0.203044415,0.128168449,-0.309629381,0,0,-25,12,2,-8.237251282,3.666719913,1.029506683,-0.081137821,0.150950998,-0.426073521,-55,-43,-22,31,191
1695161813170838500,-8.667010307,-1.465251446,-0.361524463,-0.217833072,0.131232768,-0.313493103,-1,-3,-28,10,1,-8.251616478,3.722983599,1.023521185,-0.087399691,0.149618685,-0.439263374,-51,-40,-22,31,194
1695161813171838500,-8.680178642,-1.453280449,-0.338779539,-0.234087273,0.133364469,-0.317756504,-1,-2,-23,10,3,-8.265981674,3.781641483,1.012747288,-0.093661562,0.14801991,-0.452186853,-53,-41,-23,31,192
1695161813246815600,-9.266757965,-1.350329757,-0.10055647,-0.687872887,0.008526799,-0.380641639,0,-2,-24,8,0,-8.76636982,4.894945145,0.405817181,0.058888208,0.110715166,-0.654032171,-50,-40,-23,31,195
1695161813247815600,-9.301473618,-1.368286252,-0.087388359,-0.70852375,0.000532925,-0.377177656,-3,-1,-25,12,3,-8.827422142,4.990713596,0.353144765,0.106318533,0.112846859,-0.656163871,-54,-41,-23,31,193
1695161813248815600,-9.33618927,-1.388636947,-0.076614454,-0.727442563,-0.006794794,-0.372514546,-1,-3,-26,10,3,-8.890868187,5.102043629,0.306457818,0.159211323,0.114712104,-0.656830013,-51,-44,-23,31,194
1695161813249815600,-9.369708061,-1.408987641,-0.06584055,-0.745162308,-0.013323124,-0.366385907,-2,0,-25,12,7,-8.955511093,5.224148273,0.257376671,0.217433393,0.116044402,-0.656430304,-51,-39,-21,31,192
1695161813250815600,-9.402029991,-1.430535555,-0.052672438,-0.760750413,-0.019052068,-0.358924955,-1,-3,-25,12,5,-9.022548676,5.3594203,0.202310041,0.279918849,0.11711026,-0.654298604,-51,-38,-20,31,193
1695161813288769600,-9.479841232,-2.025494576,0.039504327,-0.68307656,-0.081670754,-0.068480857,-1,-1,-25,11,3,-9.568427086,10.71644688,-0.908599555,1.117143989,-0.225826949,-0.192119434,-50,-39,-19,34,194
1695161813289769600,-9.45111084,-2.056619167,0.049081136,-0.661359906,-0.084601834,-0.050094947,-2,-2,-26,12,3,-9.522936821,11.01093388,-1.009155989,1.102621675,-0.258601815,-0.138960183,-51,-39,-17,35,194
1695161813290769600,-9.417592049,-2.086546898,0.055066638,-0.638710558,-0.087666154,-0.031709034,-2,-2,-26,12,3,-9.467870712,11.32217979,-1.107318282,1.084235907,-0.289911181,-0.078606427,-51,-39,-25,31,190
1695161813291769600,-9.384073257,-2.112883091,0.061052144,-0.615395069,-0.090197548,-0.01292343,-2,-2,-29,12,4,-9.396044731,11.62145519,-1.211466074,1.056124091,-0.319222063,-0.016920367,-50,-43,-19,37,193
1695161813292769600,-9.348160744,-2.139219284,0.06584055,-0.591280222,-0.092062794,0.006128637,-3,-1,-29,10,3,-9.358934402,11.94227791,-1.318008065,1.01961863,-0.345601827,0.048762634,-51,-40,-24,37,194
1695161813323770800,-8.761581421,-2.328361034,0.197521642,-0.121906579,-0.040235836,0.32615009,-2,-1,-28,13,3,-7.602787495,13.99770069,-3.866635799,0.697865248,0.439796329,2.005529881,-47,-44,-1,74,202
1695161813324770800,-8.752004623,-2.327163935,0.20350714,-0.101122513,-0.036238898,0.341205209,-3,-1,-27,11,4,-7.61595583,13.98333549,-3.995922565,0.724245012,0.53758806,2.105186939,-49,-41,0,74,202
1695161813325770800,-8.744821548,-2.323572636,0.211886853,-0.080871366,-0.032508422,0.356260329,-1,-5,-26,10,7,-7.635109425,13.95460415,-4.12640667,0.754488528,0.637511492,2.202179193,-53,-40,-2,72,199
1695161813326770800,-8.742427826,-2.327163935,0.222660765,-0.061419602,-0.028777948,0.370782524,-3,-3,-32,7,1,-7.650671482,13.93305683,-4.207809448,0.776604891,0.70532614,2.265330791,-47,-43,0,80,204
1695161813327770800,-8.742427826,-2.325966835,0.240617275,-0.042633995,-0.025313934,0.385171533,-1,-2,-27,9,3,-7.678205013,13.89953804,-4.320336819,0.810712099,0.808313906,2.357793093,-47,-37,3,78,204
1695161813358726200,-9.083600998,-2.323572636,0.241814375,0.131898925,-0.064217456,0.578356802,-3,-3,-28,7,4,-8.914810181,13.0711441,-6.119579315,0.942078114,2.459848404,3.571663141,-49,-37,9,90,208
1695161813359726200,-9.101557732,-2.327163935,0.226252064,0.130300149,-0.07087902,0.582220554,-2,-1,-25,11,5,-8.993818283,13.02565479,-6.185420036,0.896113276,2.514739752,3.609500647,-50,-36,11,80,206
1695161813360726200,-9.113529205,-2.334346771,0.217872351,0.128834605,-0.075542115,0.584352195,-2,0,-25,12,7,-9.065644264,12.97298145,-6.253654957,0.843486965,2.56576705,3.644540548,-49,-49,9,88,204
1695161813361726200,-9.1326828,-2.336740971,0.20590134,0.125503823,-0.082603365,0.586883605,-1,-4,-24,8,3,-9.130288124,12.90953541,-6.313509941,0.784199059,2.613064289,3.677448511,-49,-38,5,89,213
1695161813362726200,-9.149441719,-2.33793807,0.18674773,0.121240422,-0.089664623,0.588615596,-2,-1,-31,13,7,-9.216479301,12.80778217,-6.385335922,0.69599998,2.670886517,3.718883753,-49,-37,9,85,201
1695161813393731400,-9.543288231,-2.507926226,-0.172382519,-0.068614088,-0.154947937,0.474436462,-2,-5,-28,10,4,-8.325836182,10.83974838,-7.983465672,-0.838957131,4.095262051,3.743264914,-43,-39,59,144,250
1695161813394731400,-9.55406189,-2.521094322,-0.189141929,-0.079805516,-0.151883617,0.462045938,-1,-1,-27,10,3,-8.24802494,10.63624096,-8.270770073,-0.848949432,4.237419605,3.720615625,-57,-39,61,146,259
1695161813395731400,-9.561244011,-2.535459518,-0.208295554,-0.090464011,-0.148419604,0.448989272,-4,-2,-25,8,3,-8.189367294,10.43393135,-8.558073997,-0.848949432,4.365588188,3.695834637,-58,-36,63,149,264
1695161813396731400,-9.567230225,-2.558204412,-0.222660765,-0.100189894,-0.143756509,0.435399711,-1,0,-26,10,3,-8.158242226,10.24838066,-8.820239067,-0.836958647,4.365588188,3.669454813,-58,-40,68,153,270
1695161813397731400,-9.568427086,-2.577358246,-0.233434662,-0.109116383,-0.13869372,0.421277195,-2,-3,-29,11,4,-8.145073891,10.08198357,-9.06803894,-0.821104169,4.365588188,3.640277147,-60,-41,72,158,269
1695161813428710500,-9.470264435,-2.862268209,-0.351947635,-0.07301072,0.019052068,0.093395106,-2,-1,-22,8,4,-6.101623058,7.597999096,-11.69687271,-0.080471672,4.365588188,2.649836302,-60,-41,172,213,322
1695161813429710500,-9.459490776,-2.852691412,-0.350750536,-0.063551299,0.025980091,0.073943339,-4,-4,-28,6,4,-6.02022028,7.51061058,-11.6908865,-0.062218986,4.365588188,2.604271173,-59,-38,172,213,324
1695161813430710500,-9.447520256,-2.845508814,-0.347159237,-0.054358348,0.032508422,0.054624807,-5,-5,-30,11,3,-5.880159378,7.394492149,-11.65736771,-0.042900458,4.365588188,2.535656929,-59,-39,177,214,320
1695161813431710500,-9.431957245,-2.831143618,-0.349553436,-0.045431852,0.038637057,0.035572741,-1,-1,-31,8,1,-5.718550682,7.297526836,-11.60349846,-0.028378254,4.365588188,2.466510057,-59,-41,179,216,321
1695161813432710500,-9.418789864,-2.819172382,-0.342370838,-0.036905054,0.044232771,0.016653905,-2,-5,-27,8,3,-5.562927723,7.20654726,-11.53406715,-0.019851454,4.365588188,2.395630836,-54,-40,180,216,324
1695161813465666400,-9.13866806,-2.367865562,-0.226252064,0.011457887,0.081271052,-0.240482375,-1,-1,-28,10,-1,-3.823540211,4.636371613,-9.821015358,-0.727442563,4.365588188,0.407287896,-53,-41,176,191,306
1695161813466666400,-9.129091263,-2.342726469,-0.222660765,0.008127105,0.080471672,-0.248343036,-7,-1,-27,8,2,-3.659537315,4.375403404,-9.546878815,-0.766212881,4.365588188,0.295773357,-57,-41,176,191,306
1695161813467666400,-9.120711327,-2.317587137,-0.228646263,0.003863706,0.079672284,-0.25553751,-2,-2,-27,10,0,-3.478775024,4.138377666,-9.302670479,-0.802318573,4.365588188,0.191053599,-55,-41,172,191,301
1695161813468666400,-9.108740807,-2.294842243,-0.233434662,-0.000799387,0.078473203,-0.262598753,-3,-1,-29,10,-1,-3.294421434,3.965995073,-9.066842079,-0.837891281,4.365588188,0.091663092,-55,-41,173,188,302
1695161813469666400,-9.099164009,-2.26730895,-0.231040463,-0.005862175,0.077007659,-0.268860638,-3,-2,-27,6,4,-3.117250681,3.853467703,-8.838195801,-0.87266463,4.365588188,-0.004130168,-58,-40,173,191,298
1695161813521244700,-8.828619003,-2.04823947,-0.320823014,-0.147753447,0.059287902,-0.31322667,-2,-3,-23,10,3,-0.913387954,2.97599268,-4.83748436,-1.344969273,4.365588188,-1.573327661,-61,-41,158,174,278
1695161813522244700,-8.819042206,-2.04464817,-0.325611442,-0.154947937,0.061019909,-0.313493103,-4,-2,-28,12,3,-0.810437262,2.987963676,-4.689043999,-1.368418097,4.365588188,-1.631283402,-61,-37,158,173,279
1695161813523244700,-8.811859131,-2.037465572,-0.33279404,-0.161875948,0.062751912,-0.313093394,-2,-5,-29,10,3,-0.707486629,2.996343374,-4.554968834,-1.392399669,4.365588188,-1.688705921,-61,-39,175,174,280
1695161813524244700,-8.803479195,-2.033874273,-0.342370838,-0.169070452,0.064750381,-0.312960178,-2,-2,-27,12,0,-0.610521436,3.005920172,-4.428076267,-1.416647792,4.365588188,-1.745462537,-60,-41,168,172,279
1695161813525244700,-8.796297073,-2.026691675,-0.353144765,-0.175865233,0.067148544,-0.312826961,-3,-1,-28,10,5,-0.547075093,3.01070857,-4.345476151,-1.432635546,4.365588188,-1.78263402,-63,-37,158,172,280
1695161813579680200,-8.832210541,-1.928529501,-0.316034615,-0.295773357,0.104453288,-0.310295552,-2,-8,-26,12,3,-0.074220255,3.076549292,-2.531868219,-1.441562057,4.365588188,-2.383773327,-66,-37,144,159,272
1695161813580680200,-8.844181061,-1.9309237,-0.290895492,-0.304033697,0.102987751,-0.311894357,-2,-10,-28,8,2,-0.146046311,3.064578056,-2.436100245,-1.405856133,4.365588188,-2.374580383,-69,-40,144,160,272
1695161813581680200,-8.856152534,-1.938106298,-0.257376671,-0.311894357,0.101255737,-0.314425707,-1,-10,-27,11,3,-0.226252064,3.060986757,-2.336740971,-1.366019845,4.365588188,-2.360857725,-66,-38,141,159,272
1695161813582680200,-8.881291389,-1.946485996,-0.20470424,-0.320021451,0.099390499,-0.317356825,-2,-11,-26,12,1,-0.323217243,3.071760893,-2.236184359,-1.322852969,4.365588188,-2.342471838,-67,-38,142,162,271
1695161813583680200,-8.919598579,-1.945288897,-0.144849196,-0.329747319,0.096326187,-0.319888234,-1,-12,-33,8,0,-0.434547603,3.087323189,-2.138022184,-1.277554274,4.365588188,-2.320355177,-66,-36,143,159,270
1695161813803446100,-9.520543098,-2.00753808,1.329979062,-0.844286382,-0.378643185,-0.435399711,-1,-1,-29,13,2,-3.476380825,4.973954201,0.360327363,-0.487626314,3.712488651,-1.736269593,-62,-34,128,161,270
1695161813804446100,-9.494206429,-2.04584527,1.37427175,-0.844819248,-0.404223561,-0.436332315,-4,0,-27,13,2,-3.569754839,5.069722176,0.457292527,-0.476967841,3.634148598,-1.714819312,-70,-34,128,158,269
1695161813805446100,-9.465476036,-2.090138197,1.420958757,-0.841355324,-0.427539051,-0.437664628,-2,0,-27,13,3,-3.653551817,5.151124954,0.548272192,-0.467241943,3.554476261,-1.694168448,-69,-35,129,156,268
1695161813806446100,-9.435548782,-2.133233786,1.44849205,-0.832828462,-0.449921876,-0.438064337,-1,4,-28,11,1,-3.726574898,5.220556736,0.636857629,-0.458315462,3.474137783,-1.674317002,-70,-40,127,158,264
1695161813807446100,-9.404424667,-2.152387381,1.464054346,-0.818172991,-0.469906569,-0.43833077,-1,19,-24,12,0,-3.787626982,5.28041172,0.727837324,-0.449655443,3.393799305,-1.654998422,-67,-38,126,156,267
1695161813912381800,-8.723274231,-1.985990286,0.997184992,-0.463511467,-0.212503821,-0.287646264,-1,85,-7,18,5,-3.296815634,6.156689644,1.408987641,-0.15481469,2.174200535,-1.301935673,-73,-63,125,154,269
1695161813913381800,-8.711302757,-1.977610588,0.975637197,-0.458581924,-0.183059722,-0.270192951,-1,67,-12,14,1,-3.300406933,6.198588371,1.420958757,-0.129101068,2.132499218,-1.283150077,-70,-63,126,156,264
1695161813914381800,-8.706514359,-1.97042799,0.955286503,-0.455117911,-0.153082699,-0.25194028,0,65,-7,18,4,-3.325546265,6.257246017,1.430535555,-0.103254206,2.092396736,-1.261833072,-71,-66,127,157,266
1695161813915381800,-8.699332237,-1.963245392,0.92895025,-0.452719748,-0.122972436,-0.232888207,0,66,-11,13,-1,-3.361459255,6.366182327,1.441309452,-0.074609496,2.051361322,-1.239450216,-75,-67,123,155,272
1695161813916381800,-8.693346024,-1.956062794,0.894234359,-0.44978866,-0.093928024,-0.213836133,1,66,-9,14,0,-3.402160645,6.482301235,1.472434044,-0.045298621,2.008194447,-1.217733622,-73,-67,125,158,265
1695161813988338500,-8.596381187,-2.04464817,0.226252064,-0.32828176,0.287646264,0.0955268,-1,7,-16,13,1,-7.880515099,8.955511093,3.773261786,0.483496159,0.251807034,-0.073676877,-67,-81,123,154,269
1695161813989338500,-8.59278965,-2.059013367,0.192733243,-0.317356825,0.295373648,0.108849928,-1,3,-20,13,3,-7.903259754,9.02973175,3.807977915,0.462712079,0.139626339,-0.03130934,-67,-92,121,154,273
1695161813990338500,-8.583212852,-2.072181463,0.159214407,-0.305632442,0.302168459,0.122039817,-1,5,-20,14,3,-7.892486095,9.064447403,3.818751812,0.444859117,0.067681469,-0.008526799,-67,-98,123,155,272
1695161813991338500,-8.576030731,-2.085349798,0.125695586,-0.293108732,0.307764143,0.135229707,-1,6,-21,16,1,-7.838616371,9.103952408,3.817554712,0.413549751,-0.035306279,0.017586524,-68,-97,123,158,275
1695161813992338500,-8.574832916,-2.098517895,0.086191259,-0.280052066,0.311894357,0.14801991,1,6,-21,15,1,-7.750030994,9.120711327,3.798400879,0.377177656,-0.132698312,0.034906585,-67,-98,123,154,274
1695161814078287800,-8.84896946,-2.294842243,-0.317231715,-0.139892802,0.211704448,0.293908119,-3,6,-17,8,4,-5.485116005,8.063671112,2.79163909,-0.115245022,-1.710422635,0.166405827,-67,-69,124,159,279
1695161814079287800,-8.856152534,-2.311601639,-0.323217243,-0.13656202,0.20357734,0.3028346,-2,17,-19,13,3,-5.515043736,7.947552681,2.741360903,-0.099124044,-1.816208243,0.193451747,-69,-65,126,160,280
1695161814080287800,-8.864531517,-2.331952572,-0.330399841,-0.132831544,0.196249619,0.311761081,-1,6,-27,13,5,-5.556941986,7.821856976,2.699462414,-0.08020521,-1.926923394,0.220231235,-71,-51,126,159,279
1695161814081287800,-8.869319916,-2.352303267,-0.326808542,-0.128568143,0.189321592,0.320820838,-2,6,-21,13,4,-5.604825974,7.69257021,2.665943623,-0.060486984,-2.042035103,0.247143939,-76,-43,123,159,279
1695161814082287800,-8.875306129,-2.370259762,-0.33399114,-0.123771824,0.183459431,0.330147028,-1,9,-21,13,4,-5.64552784,7.557297707,2.642001629,-0.039836142,-2.16074419,0.276854515,-70,-34,122,159,280
1695161814162238600,-9.166201591,-2.644395828,-0.411802679,-0.013189893,0.210372135,0.479366004,-1,6,-19,13,3,-6.185420036,4.42209053,1.406593442,0.683875918,-4.365721226,1.416781068,-86,-44,133,172,275
1695161814163238600,-9.191340446,-2.662352324,-0.423773706,-0.007993874,0.218099549,0.485894322,-1,6,-21,13,8,-6.180631638,4.288015366,1.316810966,0.763814688,-4.365721226,1.484995365,-77,-44,132,173,272
1695161814164238600,-9.217676163,-2.685097218,-0.439336002,-0.002931087,0.226093426,0.492022961,-1,7,-19,13,7,-6.17105484,4.167108059,1.230619669,0.844286382,-4.365721226,1.552143931,-76,-42,135,172,273
1695161814165238600,-9.248801231,-2.706645012,-0.444124401,0.002264931,0.23422052,0.497751892,-1,7,-20,15,3,-6.156689644,4.061763287,1.138442874,0.925424159,-4.365721226,1.617960215,-78,-43,133,171,272
1695161814166238600,-9.278728485,-2.730587006,-0.451307029,0.007460949,0.24261409,0.502947927,-1,6,-19,12,2,-6.137536049,3.973177671,1.047463298,1.006695271,-4.365721226,1.682444096,-79,-41,136,172,273
1695161814240194700,-9.708487511,-3.090914488,-0.460883826,0.217433393,0.312960178,0.436598748,-1,1,-32,13,-2,-4.963180065,3.712209702,-1.965639591,2.145689249,-4.365721226,2.268395185,-76,-45,114,159,250
1695161814241194700,-9.721655846,-3.08253479,-0.423773706,0.239816234,0.303101093,0.41754669,-1,6,-29,13,3,-4.888959885,3.773261786,-2.164358377,2.176865101,-4.365721226,2.248943329,-77,-41,115,159,249
1695161814242194700,-9.733627319,-3.075352192,-0.387860686,0.257402748,0.293641627,0.402225107,-2,7,-31,13,5,-4.809951305,3.809175014,-2.381033659,2.200980186,-4.365721226,2.226160765,-78,-46,111,148,250
1695161814243194700,-9.744400978,-3.069366693,-0.350750536,0.275655419,0.282183766,0.385970891,-2,7,-32,13,5,-4.734533787,3.848679304,-2.604891539,2.22163105,-4.365721226,2.202845335,-76,-44,111,154,248
1695161814244194700,-9.750386238,-3.058592558,-0.304063618,0.295240432,0.268993855,0.369316995,-2,7,-31,14,3,-4.655525208,3.916913986,-2.826355219,2.237085581,-4.365721226,2.176732063,-76,-43,107,155,249
1695161814319148400,-9.040505409,-1.910573006,0.071826048,0.735569656,0.005862175,0.074609496,-4,2,-36,11,3,-3.615244627,6.09683466,-6.555324078,1.20814085,-4.365721226,1.041735053,-72,-40,78,120,225
1695161814320148400,-8.978256226,-1.823184609,0.064643443,0.738367558,0.009725881,0.048096478,-3,6,-32,13,1,-3.584120035,6.184223175,-6.671442986,1.086633921,-4.365721226,0.962329268,-70,-39,71,116,226
1695161814321148400,-8.924386978,-1.742978811,0.046686932,0.735036731,0.016920367,0.020784073,-1,5,-29,12,3,-3.560178041,6.236895561,-6.785167694,0.965660036,-4.365721226,0.88199079,-71,-40,73,116,220
1695161814322148400,-8.883685112,-1.673547029,0.029927522,0.727709055,0.026779478,-0.006261868,-3,5,-28,12,4,-3.542221308,6.269217014,-6.888118267,0.848949432,-4.365721226,0.800053596,-72,-39,69,112,220
1695161814323148400,-8.852560997,-1.613691926,0.003591303,0.71678406,0.039436448,-0.032241959,-1,5,-31,13,2,-3.554192305,6.312312603,-6.951564789,0.731439531,-4.365721226,0.716384411,-73,-40,67,110,216
1695161814392107000,-8.984241486,-1.895010591,-0.657208383,0.239150077,0.46124655,-0.104453288,-1,7,-19,13,3,-4.388571739,7.997830868,-8.180987358,-0.913699865,-4.365721226,-1.276888251,-73,-37,14,60,201
1695161814393107000,-9.028534889,-1.934514999,-0.684741676,0.226759583,0.473237365,-0.085667685,-1,6,-22,14,5,-4.443638325,8.062474251,-8.213309288,-0.966326177,-4.365721226,-1.380275607,-72,-40,12,56,201
1695161814394107000,-9.071630478,-1.968033791,-0.709880829,0.216900453,0.481497705,-0.066349156,-1,5,-20,13,2,-4.49870491,8.087613106,-8.224082947,-1.010425806,-4.365721226,-1.47979939,-73,-37,15,53,200
1695161814395107000,-9.113529205,-1.994369984,-0.730231524,0.209439516,0.486160785,-0.046497703,-4,5,-21,16,4,-4.554968834,8.097189903,-8.208520889,-1.04613173,-4.365721226,-1.573194504,-71,-36,11,51,201
1695161814396107000,-9.151836395,-2.014720678,-0.745793819,0.20411025,0.487226635,-0.026779478,-1,6,-21,13,4,-4.596867085,8.097189903,-8.141483307,-1.075575829,-4.365721226,-1.659928083,-75,-38,5,47,202
1695161814469067300,-9.464279175,-2.275688648,-0.954089403,0.521200597,0.176131696,0.169603363,-1,3,-17,13,4,-5.475539207,8.026560783,-4.599261284,-1.964894295,-4.365721226,-2.797323227,-70,-40,-19,20,198
1695161814470067300,-9.464279175,-2.246958256,-0.969651699,0.544782579,0.158012256,0.174133226,-1,5,-23,13,3,-5.646724701,8.031349182,-4.491522312,-2.025914192,-4.365721226,-2.874597073,-67,-44,-18,17,199
1695161814471067300,-9.459490776,-2.221819162,-0.982819796,0.566099584,0.141491577,0.178529859,-1,9,-22,13,3,-5.803544998,8.026560783,-4.388571739,-2.078807116,-4.365721226,-2.955202341,-66,-39,-22,17,196
1695161814472067300,-9.454702377,-2.190694571,-0.993593693,0.58488518,0.126436442,0.183059722,-1,6,-18,16,4,-5.94959116,8.042123795,-4.259284973,-2.12597084,-4.365721226,-3.039803982,-64,-37,-21,15,195
1695161814473067300,-9.448717117,-2.163161278,-0.999579191,0.601272583,0.113379791,0.187722817,-1,6,-24,13,3,-6.093243122,8.058882713,-4.139574528,-2.167938709,-4.365721226,-3.130134583,-65,-37,-23,16,196
1695161814556016700,-9.30386734,-1.981201887,-1.073799491,0.585284829,0.129900455,0.288312376,-1,6,-23,13,3,-8.406042099,6.184223175,-2.042253971,-1.76184988,-3.495055199,-4.365721226,-70,-39,-35,2,194
1695161814557016700,-9.321824074,-2.000355482,-1.072602391,0.580888212,0.137094945,0.29350841,-2,3,-20,13,2,-8.508993149,6.118382454,-1.957259893,-1.703627825,-3.415382862,-4.365721226,-66,-35,-34,5,196
1695161814558016700,-9.343372345,-2.020706177,-1.071405292,0.577690661,0.143756509,0.298304737,1,4,-21,13,7,-8.688557625,6.038176537,-1.839944005,-1.614096522,-3.296807051,-4.365721226,-67,-35,-34,2,196
1695161814559016700,-9.3685112,-2.04584527,-1.073799491,0.575825453,0.150018379,0.302967817,-3,5,-20,12,0,-8.883685112,5.957971096,-1.740584612,-1.515372038,-3.17783165,-4.365721226,-70,-36,-34,4,198
1695161814560016700,-9.397241592,-2.069787264,-1.07858789,0.575425744,0.155614093,0.308030635,-3,3,-22,13,4,-9.141061783,5.937620163,-1.624465823,-1.408653855,-3.058989286,-4.365721226,-67,-37,-35,4,196
1695161814643964300,-9.481039047,-2.371456861,-1.00317049,0.734370589,0.139626339,0.370116383,-1,6,-25,12,3,-12.75271511,6.479907036,0.302866518,0.971655428,-1.116611004,-4.365721226,-66,-37,-41,-1,197
1695161814644964300,-9.434351921,-2.373851061,-1.000776291,0.745029092,0.136295557,0.369183779,-1,6,-21,13,5,-12.82573891,6.464344501,0.395043284,1.111548185,-1.028678417,-4.365721226,-66,-36,-40,-1,200
1695161814645964300,-9.381679535,-2.373851061,-0.998382092,0.755554378,0.133364469,0.36771822,-2,4,-23,15,3,-12.89876175,6.451176643,0.48243165,1.251973987,-0.941944897,-4.365721226,-63,-34,-40,-1,198
1695161814646964300,-9.327810287,-2.367865562,-0.997184992,0.76514703,0.130300149,0.365320057,-2,1,-23,15,4,-12.94185734,6.445190907,0.536301196,1.345369101,-0.885055125,-4.365721226,-64,-37,-42,-1,198
1695161814647964300,-9.289502144,-2.366668463,-0.997184992,0.771142364,0.128434911,0.363188356,-1,5,-19,13,3,-13.00051498,6.440402508,0.616506934,1.484728932,-0.801519156,-4.365721226,-63,-35,-40,-1,198
1695161814717945600,-8.468291283,-2.246958256,-0.888248801,0.827099502,0.110981621,0.216767237,-2,6,-23,13,3,-15.01882744,7.84340477,1.900996208,2.932552814,0.038903523,-4.365721226,-66,-34,-45,-1,200
1695161814718945600,-8.462306023,-2.246958256,-0.879869103,0.829764128,0.109915771,0.208640128,-1,7,-19,12,7,-15.12297535,7.967903137,1.921346903,2.920562029,0.026113322,-4.365721226,-64,-34,-45,-5,205
1695161814719945600,-8.463502884,-2.246958256,-0.871489406,0.833094954,0.108716697,0.200912714,-1,3,-21,13,8,-15.21874332,8.094796181,1.9309237,2.899644613,0.008926493,-4.365721226,-68,-34,-62,-1,205
1695161814720945600,-8.469488144,-2.245761156,-0.863109708,0.837091923,0.106984682,0.193984687,-1,9,-23,13,4,-15.31211662,8.219294548,1.934514999,2.871399641,-0.013323124,-4.365721226,-64,-34,-48,-2,200
1695161814721945600,-8.479064941,-2.244564056,-0.845153213,0.841888189,0.104852989,0.187323123,-1,9,-21,14,5,-15.39591408,8.344989777,1.936909199,2.837292433,-0.039836142,-4.365721226,-67,-33,-44,-1,203
1695161814793877300,-9.436745644,-1.946485996,-0.897825658,0.996169984,-0.077007659,0.169603363,-2,7,-22,13,4,-13.64455509,9.538499832,0.997184992,1.414649367,-0.658029079,-2.924292564,-63,-34,-44,-1,201
1695161814794877300,-9.501389503,-1.917755604,-0.914585054,1.000166893,-0.093261868,0.173733547,-4,3,-20,13,2,-13.40274143,9.510966301,0.970848799,1.350165367,-0.650035203,-2.821038246,-64,-34,-45,-1,200
1695161814795877300,-9.561244011,-1.890222192,-0.92895025,1.002698302,-0.109782539,0.178263396,-4,3,-21,13,7,-13.15733528,9.473855972,0.954089403,1.288479328,-0.635646224,-2.716052055,-65,-35,-44,-1,202
1695161814796877300,-9.617507935,-1.8590976,-0.943315446,1.003764153,-0.126303226,0.183192953,-4,3,-23,12,5,-12.90953541,9.41280365,0.937329948,1.232388973,-0.61499542,-2.609200716,-61,-34,-40,-1,188
1695161814797877300,-9.670180321,-1.826775908,-0.9660604,1.002964735,-0.142957121,0.188522205,-1,5,-20,13,5,-12.67131233,9.346963882,0.932541549,1.182027578,-0.588082671,-2.500084162,-62,-34,-43,-4,199
1695161814872831600,-9.742006302,-1.45088625,-1.41257906,0.668421149,-0.344535977,0.259667695,-1,0,-25,13,4,-9.078812599,7.334636688,1.697489023,1.165640116,0.569563508,-0.470839173,-61,-34,-44,4,198
1695161814873831600,-9.680954933,-1.458068848,-1.45088625,0.62645334,-0.34906584,0.259134769,-3,3,-24,14,3,-8.979453087,7.259219646,1.751358509,1.185624838,0.635113299,-0.392232746,-60,-33,-41,0,197
1695161814874831600,-9.637859344,-1.466448545,-1.471236944,0.594611049,-0.35159725,0.257935673,-1,19,-21,13,3,-8.921992302,7.213729858,1.788468719,1.198015332,0.677747309,-0.342004567,-61,-37,-44,4,198
1695161814875831600,-9.59236908,-1.479616642,-1.492784739,0.562502325,-0.353462487,0.256203681,-1,1,-23,13,1,-8.833407402,7.144298077,1.844732404,1.215735078,0.739833057,-0.269793272,-61,-35,-45,4,196
1695161814876831600,-9.546878815,-1.495178938,-1.511938334,0.530526757,-0.354528338,0.253805518,-2,3,-21,13,3,-8.749609947,7.072471619,1.89620769,1.231323123,0.799254179,-0.201445624,-61,-34,-43,5,195
1695161814921802300,-8.729259491,-1.980004787,-1.795651317,0.134430319,-0.296306252,0.126836136,-1,7,-21,13,7,-7.979874134,5.833472252,1.983596087,1.163908005,1.282750368,0.607934177,-66,-36,-40,11,196
1695161814922802300,-8.700529099,-2.002749681,-1.806425214,0.127635539,-0.291243494,0.117909648,-2,9,-23,13,3,-8.025363922,5.866991043,1.978807688,1.145388961,1.269693732,0.621390522,-61,-34,-42,9,198
1695161814923802300,-8.675390244,-2.023100376,-1.811213613,0.122173049,-0.286047459,0.109249614,-1,6,-17,13,7,-8.062474251,5.853823185,1.936909199,1.108217478,1.243846774,0.637111843,-61,-34,-40,12,197
1695161814924802300,-8.649053574,-2.043451071,-1.82079041,0.118442573,-0.281117916,0.100722812,-1,7,-13,13,4,-8.082824707,5.789179802,1.900996208,1.077041268,1.213869929,0.653099477,-60,-34,-39,9,194
1695161814925802300,-8.623914719,-2.063801765,-1.835155606,0.116310872,-0.276055127,0.092595711,-2,3,-20,13,3,-8.093599319,5.72812748,1.895010591,1.051194429,1.182960153,0.669620216,-62,-35,-35,10,190
1695161814954783500,-8.786720276,-2.239775658,-2.060210466,0.339339972,-0.213036761,0.006661562,-1,1,-16,16,5,-8.979453087,5.90290451,1.44968915,0.423142403,0.382240415,0.682676852,-61,-34,-37,15,195
1695161814955783500,-8.850166321,-2.224213362,-2.079364061,0.366785586,-0.212104142,0.004396631,-1,7,-21,14,9,-8.987833023,5.916072369,1.423352957,0.38024193,0.340139359,0.668021441,-62,-34,-37,12,194
1695161814956783500,-8.880094528,-2.215833664,-2.091335297,0.38024193,-0.211837664,0.003330781,0,4,-20,13,4,-8.989029884,5.925649166,1.400607944,0.337474734,0.299637049,0.653765678,-61,-35,-36,15,194
1695161814957783500,-8.927978516,-2.202665567,-2.109291792,0.400359869,-0.211437985,0.001998469,0,7,-16,15,7,-8.990227699,5.940014362,1.382651448,0.293774903,0.260333836,0.639243484,-60,-37,-38,12,192
1695161814958783500,-8.971074104,-2.189497471,-2.129642487,0.419944882,-0.211038291,0.001199081,-3,6,-18,13,1,-8.984241486,5.944802761,1.356315255,0.248875946,0.222229704,0.625120997,-60,-36,-36,14,192
1695161814987765100,-9.208099365,-1.868674397,-2.343923569,0.587949455,-0.120174579,0.016520673,0,4,-20,13,4,-8.61314106,5.292382717,0.987608194,-0.452453285,-0.056356817,0.685741186,-60,-35,-34,15,189
1695161814988765100,-9.200917244,-1.861491799,-2.349909067,0.583952546,-0.109649308,0.016254211,-1,4,-16,13,8,-8.622717857,5.23611927,0.987608194,-0.476168454,-0.047563553,0.707324684,-60,-34,-34,15,189
1695161814989765100,-9.196128845,-1.853112102,-2.354697466,0.57915616,-0.098724343,0.01505513,-3,5,-20,13,4,-8.633491516,5.176264286,0.988805294,-0.498018384,-0.037038282,0.729973972,-62,-35,-33,18,189
1695161814990765100,-9.193734169,-1.843535304,-2.358288765,0.573294044,-0.08726646,0.013589587,-2,6,-16,13,5,-8.650250435,5.118803024,0.984016895,-0.518269539,-0.025180703,0.753289402,-60,-36,-34,16,188
1695161814991765100,-9.190143585,-1.838746905,-2.363077164,0.566765666,-0.075808577,0.011324655,-2,0,-21,13,4,-8.676587105,5.062539577,0.972045898,-0.537188351,-0.012257273,0.777137816,-58,-39,-34,16,193
1695161815026743100,-9.168595314,-1.941697598,-2.288856745,0.44152835,0.182793275,-0.121506892,-1,9,-13,15,6,-9.384073257,4.108449936,1.040280581,-0.546114862,0.158545166,1.129001498,-58,-36,-34,18,192
1695161815027743100,-9.174580574,-1.954865694,-2.275688648,0.441661566,0.198114842,-0.130433381,-1,7,-15,14,3,-9.399636269,4.071340084,1.051054597,-0.535589576,0.157212853,1.138860583,-59,-34,-33,17,192
1695161815028743100,-9.179368973,-1.965639591,-2.264914751,0.442993879,0.213436455,-0.139093414,-1,10,-16,13,8,-9.411606789,4.029441357,1.054645896,-0.524531364,0.154947937,1.147787094,-60,-36,-34,20,189
1695161815029743100,-9.186552048,-1.978807688,-2.250549555,0.445525289,0.228491575,-0.14748697,-1,6,-15,13,5,-9.421183586,3.987542868,1.054645896,-0.512807071,0.151750386,1.155914187,-60,-37,-33,20,192
1695161815030743100,-9.190143585,-1.991975784,-2.23019886,0.449655443,0.243413478,-0.155614093,-1,1,-17,14,7,-9.427168846,3.945644379,1.058237195,-0.50068301,0.147620216,1.163375139,-60,-34,-34,22,193
1695161815062745800,-9.186552048,-2.039859772,-1.867477298,0.694401205,0.484162331,-0.268327713,0,8,-20,15,4,-9.041702271,3.422511339,1.270123959,-0.261399686,0.095660031,1.214269519,-60,-36,-34,20,188
1695161815063745800,-9.179368973,-2.026691675,-1.842338204,0.710788608,0.494687587,-0.273523748,-1,6,-16,16,7,-9.012971878,3.404554844,1.274912357,-0.252339959,0.099923424,1.211071968,-60,-37,-33,20,189
1695161815064745800,-9.172186852,-2.017114878,-1.814804912,0.726909637,0.504946411,-0.278852999,-1,3,-18,13,5,-8.993818283,3.392583847,1.282094955,-0.246344566,0.102987751,1.208407283,-61,-35,-28,21,189
1695161815065745800,-9.161413193,-2.005143881,-1.787271619,0.742764115,0.514805496,-0.284182221,-1,5,-20,14,4,-8.967482567,3.375824451,1.290474772,-0.237817764,0.108583458,1.204010725,-59,-36,-31,20,180
1695161815066745800,-9.149441719,-1.994369984,-1.766920805,0.757952571,0.524531364,-0.289644688,0,5,-17,12,5,-8.941145897,3.359065056,1.30124867,-0.229290962,0.114845328,1.198681474,-60,-39,-32,22,190
1695161815102702100,-8.980650902,-1.74896431,-1.309628367,0.933018386,0.64763701,-0.401026011,1,6,-19,13,7,-8.574832916,3.169923067,1.602918029,-0.174133226,0.323218971,0.959664643,-59,-38,-34,21,190
1695161815103702100,-8.975862503,-1.733402014,-1.286883354,0.93648243,0.650701404,-0.407287896,-1,5,-17,13,5,-8.558073997,3.167528868,1.623268723,-0.178529859,0.3365421,0.941944897,-60,-35,-31,24,190
1695161815104702100,-8.974664688,-1.719036818,-1.26413846,0.939280272,0.653366029,-0.413549751,-1,4,-20,14,7,-8.538920403,3.165134668,1.638831019,-0.183725879,0.349865228,0.923692167,-60,-36,-29,21,190
1695161815105702100,-8.975862503,-1.701080322,-1.240196466,0.941545129,0.655630887,-0.419811636,-1,7,-15,15,5,-8.523358345,3.16034627,1.659181833,-0.189721286,0.36305514,0.90530628,-61,-37,-34,21,183
1695161815106702100,-8.977059364,-1.683123827,-1.213860273,0.942744255,0.65762943,-0.425940275,-1,3,-20,13,4,-8.507795334,3.15914917,1.678335428,-0.196649313,0.376644701,0.886520624,-58,-37,-33,20,190
1695161815139678100,-9.194931984,-1.386242747,-0.873883605,0.84255439,0.629384398,-0.492955565,-1,6,-19,14,4,-8.500613213,3.254917145,1.903390408,-0.476568133,0.579689145,0.458715141,-57,-35,-32,24,188
1695161815140678100,-9.216479301,-1.367089152,-0.859518409,0.831362903,0.62432158,-0.493621737,-1,5,-20,13,5,-8.51019001,3.262099743,1.917755604,-0.494154662,0.585018396,0.429271042,-58,-36,-31,24,186
1695161815141678100,-9.235632896,-1.353921056,-0.842759013,0.819238901,0.618859112,-0.493888199,-1,6,-17,13,4,-8.524555206,3.275267839,1.928529501,-0.511208296,0.589281797,0.399160802,-58,-43,-34,31,192
1695161815142678100,-9.251194954,-1.334767461,-0.833182216,0.806848407,0.612996936,-0.494021446,0,10,-15,14,5,-8.538920403,3.289633036,1.940500498,-0.528395116,0.592346072,0.367984682,-60,-35,-34,21,189
1695161815143678100,-9.271546364,-1.320402265,-0.823605359,0.793924928,0.607134759,-0.493754983,-1,5,-17,14,5,-8.5484972,3.298012733,1.950077295,-0.539852977,0.593944848,0.346800923,-58,-35,-33,20,190
1695161815173684000,-9.566033363,-1.079784989,-0.693121374,0.488159269,0.476701379,-0.454052061,-1,5,-21,13,7,-8.649053574,3.361459255,2.053027868,-0.765280247,0.446457893,-0.258868307,-60,-40,-31,24,190
1695161815174684000,-9.574412346,-1.072602391,-0.687135875,0.468441039,0.469773352,-0.449388951,-1,3,-15,13,7,-8.645462036,3.359065056,2.053027868,-0.769543648,0.43260181,-0.281784087,-60,-35,-31,25,192
1695161815175684000,-9.579200745,-1.066616893,-0.683544576,0.448589563,0.463111788,-0.444459409,-1,7,-16,15,1,-8.639476776,3.356670856,2.057816267,-0.773007691,0.418479323,-0.303234309,-57,-37,-32,24,187
1695161815176684000,-9.582792282,-1.059434295,-0.675164878,0.428471655,0.456450224,-0.439263374,-1,6,-15,13,4,-8.629899979,3.354276657,2.056619167,-0.775405824,0.40462327,-0.32361868,-60,-37,-33,22,188
1695161815177684000,-9.583989143,-1.055842996,-0.671573579,0.408353746,0.450055122,-0.43366769,-1,5,-19,13,3,-8.622717857,3.350685358,2.056619167,-0.776871383,0.390767217,-0.342803985,-60,-38,-34,20,185
1695161815212636500,-9.358934402,-1.145625472,-0.532709897,0.089931086,0.353995383,-0.296173036,-1,5,-23,11,3,-8.438364029,3.306392431,1.953668594,-0.584485412,0.207441032,-0.520267963,-58,-37,-33,22,189
1695161815213636500,-9.345766068,-1.158793569,-0.525527298,0.079672284,0.348932624,-0.287379771,-1,6,-17,13,7,-8.441955566,3.311181068,1.947683096,-0.56410104,0.203044415,-0.522666156,-60,-35,-32,25,190
1695161815214636500,-9.327810287,-1.170764685,-0.517147541,0.070346095,0.34333688,-0.27845329,-1,6,-19,14,3,-8.443152428,3.317166567,1.944091797,-0.542517602,0.199180692,-0.52466464,-61,-35,-34,21,189
1695161815215636500,-9.311050415,-1.181538582,-0.511162043,0.061552834,0.337474734,-0.269393563,-1,7,-13,14,7,-8.446743965,3.320757866,1.939303398,-0.527728915,0.196516067,-0.525730491,-60,-35,-33,23,189
1695161815216636500,-9.295488358,-1.191115379,-0.505176544,0.053558957,0.331479341,-0.260467082,-6,3,-21,15,8,-8.450334549,3.330334663,1.9333179,-0.505079627,0.193052068,-0.526796341,-59,-39,-34,19,188
1695161815245619100,-9.009381294,-1.22702837,-0.398634583,-0.005862175,0.185191423,-0.069546707,-1,5,-13,13,7,-8.70172596,3.623624325,1.844732404,-0.060620211,0.095393561,-0.493088841,-58,-35,-34,23,192
1695161815246619100,-9.002198219,-1.218648672,-0.391451985,-0.008393568,0.175332308,-0.057289433,0,0,-16,14,7,-8.714894295,3.645172119,1.843535304,-0.042101074,0.086999997,-0.489758044,-60,-37,-34,22,188
1695161815247619100,-8.990227699,-1.212663174,-0.391451985,-0.011324655,0.165339977,-0.044898927,-1,6,-20,15,4,-8.726864815,3.666719913,1.839944005,-0.024514547,0.07820674,-0.486160785,-59,-36,-33,14,188
1695161815248619100,-8.981847763,-1.205480576,-0.396240383,-0.014522205,0.155081168,-0.032241959,-4,5,-19,13,5,-8.737639427,3.690661907,1.832761407,-0.007860643,0.069147013,-0.482297063,-60,-35,-31,24,190
1695161815249619100,-8.975862503,-1.198297977,-0.396240383,-0.017986218,0.14495559,-0.019318528,-1,6,-17,13,5,-8.752004623,3.712209702,1.825578809,0.007594181,0.059820827,-0.478300154,-61,-39,-34,20,189
1695161815292469900,-8.906430244,-1.124077678,-0.466869324,-0.16414088,-0.054091886,0.259667695,0,4,-16,13,2,-8.880094528,4.05577755,1.716642618,0.136961713,-0.089797854,-0.374779463,-60,-41,-34,26,190
1695161815293469900,-8.904036522,-1.127668977,-0.472854823,-0.175199077,-0.064750381,0.275522202,-2,2,-19,10,5,-8.880094528,4.066551685,1.705868721,0.138027564,-0.092329249,-0.368917316,-59,-37,-32,20,186
1695161815294469900,-8.908824921,-1.130063176,-0.476446152,-0.186257273,-0.075542115,0.291509956,-1,7,-17,13,4,-8.877699852,4.076128483,1.698686123,0.138960183,-0.094194487,-0.362921923,-59,-37,-33,25,186
1695161815295469900,-8.914810181,-1.132457376,-0.490811348,-0.197715163,-0.086333841,0.307231247,-2,5,-21,13,6,-8.870517731,4.084507942,1.690306425,0.13975957,-0.095660031,-0.356793284,-59,-38,-34,20,186
1695161815296469900,-8.916007042,-1.137245774,-0.503979445,-0.209039822,-0.096992344,0.322819293,-1,6,-17,14,4,-8.864531517,4.09169054,1.683123827,0.140159264,-0.096192956,-0.352796346,-60,-39,-32,22,188
1695161815366862100,-9.178172112,-1.294066072,-0.773327172,-0.387303203,-0.287912726,0.614462495,-1,6,-21,14,4,-8.650250435,4.163516521,1.570596337,0.165339977,-0.05768913,-0.203044415,-60,-40,-31,24,189
1695161815367862100,-9.194931984,-1.309628367,-0.787692368,-0.39316541,-0.297638565,0.630583465,-4,3,-17,14,7,-8.635885239,4.16471386,1.565807939,0.16827105,-0.055557426,-0.192385912,-61,-34,-34,22,193
1695161815368862100,-9.212887764,-1.323993564,-0.804451764,-0.398361385,-0.307231247,0.646704435,-1,3,-16,14,5,-8.623914719,4.163516521,1.55862534,0.171468601,-0.053558957,-0.181460962,-59,-36,-34,24,192
1695161815369862100,-9.22725296,-1.33835876,-0.822408259,-0.403024495,-0.316424191,0.662958682,-1,3,-19,13,4,-8.609549522,4.16471386,1.555034041,0.17453292,-0.051560488,-0.170269519,-60,-35,-33,21,188
1695161815370862100,-9.242815971,-1.356315255,-0.839167714,-0.407021433,-0.325750381,0.679212868,-2,5,-20,15,7,-8.595184326,4.167108059,1.550245643,0.177863702,-0.049961712,-0.159078106,-60,-36,-34,20,192
1695161815435385500,-9.463082314,-1.698686123,-1.165976286,-0.394764155,-0.44405973,0.948339939,-1,5,-17,14,7,-8.382100105,4.04739809,1.431732655,0.261666149,-0.062751912,0.052226644,-59,-36,-32,24,190
1695161815436385500,-9.475052834,-1.721431017,-1.18752408,-0.390367538,-0.446857601,0.95939821,-1,5,-17,13,5,-8.377311707,4.040215492,1.424550056,0.266062796,-0.065283306,0.060620211,-60,-41,-34,23,189
1695161815437385500,-9.485827446,-1.74657011,-1.201889277,-0.385704458,-0.449122518,0.969923377,-1,2,-19,13,7,-8.36893177,4.036623955,1.419761658,0.270192951,-0.067947932,0.068747319,-59,-36,-33,20,189
1695161815438385500,-9.491812706,-1.769315004,-1.215057373,-0.380908102,-0.45085454,0.979782522,-1,7,-21,16,7,-8.36294651,4.031835556,1.414973259,0.274189889,-0.070612557,0.076075032,-59,-36,-32,24,192
