timestamp,EMG_s0,EMG_s1,EMG_s2,EMG_s3,EMG_s4,EMG_s5,EMG_s6,EMG_s7
1.6951618705314634e+18,0.0,-1.0,1.0,-2.0,0.0,-1.0,-1.0,-2.0
1.6951618705314634e+18,-1.0,-1.0,0.0,-2.0,-2.0,-2.0,0.0,0.0
1.6951618705314634e+18,0.0,-2.0,-2.0,0.0,0.0,-2.0,-1.0,-2.0
1.6951618705324664e+18,0.0,0.0,0.0,-1.0,-2.0,0.0,-1.0,0.0
1.6951618705324664e+18,-1.0,0.0,-1.0,-1.0,0.0,0.0,-1.0,0.0
1.6951618705324664e+18,0.0,-2.0,-1.0,-1.0,-2.0,-2.0,-2.0,-2.0
1.6951618705334804e+18,-1.0,0.0,0.0,-1.0,0.0,-1.0,-1.0,0.0
1.6951618705334804e+18,0.0,-1.0,-1.0,-1.0,0.0,0.0,0.0,-1.0
1.695161870545455e+18,-1.0,-1.0,-1.0,-1.0,-2.0,0.0,-1.0,-1.0
1.695161870545455e+18,-2.0,-2.0,-2.0,-1.0,-1.0,0.0,-1.0,-1.0
1.6951618705464568e+18,1.0,0.0,-1.0,0.0,0.0,1.0,-1.0,1.0
1.6951618705464568e+18,0.0,0.0,1.0,-2.0,0.0,-1.0,-1.0,-1.0
1.6951618705674657e+18,-1.0,-1.0,0.0,-1.0,-2.0,-1.0,-1.0,-1.0
1.6951618705674657e+18,1.0,1.0,0.0,-1.0,1.0,0.0,-1.0,0.0
1.6951618705694413e+18,-1.0,0.0,-1.0,0.0,-2.0,-1.0,-1.0,-3.0
1.6951618705694413e+18,-1.0,0.0,-1.0,1.0,0.0,-3.0,-1.0,0.0
1.6951618705824366e+18,1.0,0.0,-1.0,0.0,2.0,-2.0,0.0,0.0
1.6951618705824366e+18,-1.0,-1.0,0.0,-2.0,1.0,-2.0,-1.0,-2.0
1.695161870598448e+18,-2.0,-1.0,-1.0,-2.0,1.0,-1.0,0.0,0.0
1.6951618705994376e+18,0.0,-1.0,0.0,-1.0,-3.0,-1.0,-1.0,-2.0
1.6951618706004247e+18,1.0,0.0,0.0,-1.0,-1.0,0.0,-1.0,-1.0
1.6951618706014226e+18,-1.0,0.0,-2.0,0.0,-1.0,1.0,-1.0,0.0
1.6951618706154166e+18,-1.0,-2.0,-1.0,-1.0,-1.0,0.0,1.0,1.0
1.6951618706154166e+18,-1.0,1.0,-1.0,-2.0,-1.0,0.0,-1.0,-1.0
1.6951618706204147e+18,-2.0,-1.0,-3.0,-1.0,-2.0,-2.0,-1.0,-1.0
1.6951618706204147e+18,0.0,1.0,-2.0,-1.0,-3.0,0.0,-1.0,0.0
1.6951618706354033e+18,0.0,0.0,-1.0,-2.0,-3.0,-3.0,0.0,-2.0
1.6951618706354033e+18,-1.0,-2.0,0.0,0.0,-1.0,0.0,-1.0,-2.0
1.6951618706813783e+18,-1.0,0.0,1.0,0.0,0.0,1.0,-1.0,0.0
1.6951618706813783e+18,0.0,-1.0,0.0,-1.0,2.0,-1.0,-2.0,-2.0
1.6951618706823818e+18,-2.0,-2.0,0.0,2.0,-1.0,-1.0,-1.0,-1.0
1.6951618706823818e+18,-1.0,-1.0,1.0,-1.0,1.0,-1.0,-1.0,-2.0
1.6951618706823818e+18,-1.0,-2.0,-1.0,1.0,-1.0,-1.0,0.0,0.0
1.6951618706833764e+18,0.0,-1.0,-3.0,0.0,-1.0,-1.0,0.0,-1.0
1.6951618706833764e+18,-1.0,0.0,-1.0,-2.0,-2.0,1.0,0.0,0.0
1.6951618706833764e+18,-1.0,0.0,0.0,-2.0,-1.0,-1.0,-1.0,-1.0
1.695161870696369e+18,-3.0,1.0,1.0,-2.0,0.0,-1.0,0.0,0.0
1.695161870696369e+18,-1.0,-2.0,-2.0,-3.0,-2.0,0.0,0.0,1.0
1.6951618706973704e+18,0.0,1.0,0.0,0.0,0.0,-1.0,-1.0,-2.0
1.6951618706973704e+18,-1.0,-1.0,-1.0,-1.0,0.0,-1.0,1.0,-1.0
1.695161870701366e+18,1.0,-2.0,-3.0,-2.0,-2.0,-2.0,-2.0,-3.0
1.695161870701366e+18,1.0,0.0,0.0,-2.0,-1.0,0.0,-1.0,0.0
1.6951618707083855e+18,0.0,0.0,-1.0,-2.0,0.0,1.0,0.0,-1.0
1.6951618707083855e+18,0.0,-1.0,-1.0,1.0,-1.0,-1.0,-1.0,2.0
1.6951618707233536e+18,-2.0,-2.0,-2.0,-2.0,-2.0,0.0,0.0,-2.0
1.6951618707243528e+18,-1.0,0.0,-1.0,-1.0,0.0,-1.0,2.0,-2.0
1.6951618707553372e+18,-2.0,-3.0,-1.0,0.0,-1.0,0.0,-1.0,-1.0
1.6951618707553372e+18,-2.0,-1.0,-2.0,-2.0,-1.0,0.0,-1.0,0.0
1.6951618707563374e+18,1.0,1.0,0.0,-1.0,0.0,-1.0,1.0,0.0
1.6951618707573343e+18,0.0,-1.0,-1.0,1.0,-1.0,-1.0,-1.0,0.0
1.6951618707623299e+18,0.0,-2.0,-3.0,-1.0,-1.0,0.0,0.0,-2.0
1.6951618707623299e+18,1.0,-2.0,-2.0,-2.0,0.0,0.0,-1.0,-1.0
1.6951618707643308e+18,-2.0,-1.0,1.0,0.0,0.0,0.0,-1.0,-1.0
1.6951618707643308e+18,-3.0,1.0,0.0,-1.0,-1.0,0.0,-1.0,0.0
1.6951618707853412e+18,-1.0,0.0,0.0,-1.0,-2.0,-1.0,-1.0,0.0
1.6951618707853412e+18,0.0,0.0,0.0,0.0,-1.0,-1.0,-1.0,-2.0
1.6951618707863194e+18,0.0,-1.0,-2.0,-2.0,0.0,-1.0,1.0,0.0
1.6951618707863194e+18,-1.0,-1.0,1.0,0.0,-1.0,0.0,0.0,-1.0
1.695161870808306e+18,-1.0,-1.0,0.0,-1.0,-2.0,-1.0,0.0,-1.0
1.695161870808306e+18,0.0,-1.0,-2.0,-2.0,0.0,0.0,0.0,-1.0
1.6951618708133128e+18,0.0,-1.0,-1.0,-2.0,0.0,0.0,-2.0,-2.0
1.6951618708133128e+18,0.0,0.0,-3.0,-1.0,-2.0,0.0,-2.0,-2.0
1.6951618708222986e+18,0.0,0.0,-1.0,-2.0,-1.0,-4.0,-3.0,-1.0
1.6951618708222986e+18,-1.0,-1.0,-2.0,0.0,-4.0,-2.0,0.0,-4.0
1.6951618708242957e+18,1.0,-3.0,-2.0,0.0,-2.0,-3.0,-2.0,-1.0
1.6951618708242957e+18,-2.0,-1.0,-3.0,0.0,-1.0,-4.0,0.0,-1.0
1.695161870850284e+18,-2.0,-1.0,-1.0,-1.0,-2.0,-1.0,-1.0,-2.0
1.6951618708542781e+18,-2.0,-2.0,-3.0,0.0,-3.0,-1.0,-1.0,-1.0
1.6951618708542781e+18,-3.0,-2.0,-1.0,-2.0,-4.0,-1.0,-1.0,-1.0
1.6951618708542781e+18,0.0,-1.0,-2.0,-1.0,-2.0,-2.0,-1.0,-2.0
1.6951618708672712e+18,-1.0,-2.0,-2.0,0.0,-2.0,-1.0,-2.0,0.0
1.6951618708682719e+18,0.0,-3.0,0.0,1.0,-1.0,-1.0,-2.0,0.0
1.6951618708692698e+18,-1.0,-1.0,-1.0,0.0,-2.0,0.0,-1.0,1.0
1.6951618708692698e+18,-1.0,-2.0,-1.0,-2.0,-2.0,-1.0,-3.0,0.0
1.695161870882264e+18,-2.0,-2.0,-2.0,-1.0,-1.0,-2.0,-1.0,-1.0
1.6951618708832643e+18,-1.0,-2.0,-1.0,-1.0,-1.0,0.0,-1.0,-1.0
1.6951618708842609e+18,-3.0,-1.0,-4.0,0.0,0.0,-1.0,0.0,-1.0
1.6951618708842609e+18,-1.0,-4.0,-2.0,-1.0,0.0,-2.0,-1.0,-1.0
1.6951618708982564e+18,-2.0,0.0,-1.0,-1.0,0.0,-1.0,0.0,1.0
1.6951618709002552e+18,-1.0,0.0,-1.0,0.0,-1.0,-1.0,-1.0,-1.0
1.6951618709222418e+18,1.0,-2.0,-1.0,-2.0,-1.0,0.0,-3.0,-1.0
1.6951618709222418e+18,-1.0,-1.0,1.0,1.0,-1.0,-1.0,-2.0,0.0
1.6951618709232397e+18,0.0,0.0,-2.0,1.0,1.0,0.0,0.0,-2.0
1.6951618709232397e+18,-2.0,0.0,0.0,1.0,-1.0,-2.0,-1.0,0.0
1.6951618709262382e+18,0.0,-2.0,-1.0,0.0,0.0,-1.0,-1.0,-2.0
1.6951618709262382e+18,-2.0,-1.0,-2.0,-1.0,0.0,-2.0,2.0,-2.0
1.6951618709432276e+18,1.0,0.0,-1.0,-2.0,-1.0,-1.0,0.0,-2.0
1.6951618709432276e+18,1.0,-1.0,-2.0,0.0,-1.0,-1.0,0.0,-2.0
1.6951618709442294e+18,-1.0,-1.0,0.0,2.0,-1.0,1.0,-1.0,-1.0
1.6951618709442294e+18,-1.0,-2.0,-1.0,-1.0,-1.0,-1.0,-1.0,1.0
1.6951618709562194e+18,-1.0,-1.0,0.0,0.0,-1.0,0.0,0.0,1.0
1.6951618709572193e+18,-2.0,-1.0,0.0,-1.0,2.0,-2.0,1.0,1.0
1.6951618709712128e+18,-1.0,0.0,1.0,0.0,3.0,0.0,0.0,1.0
1.6951618709712128e+18,-1.0,0.0,3.0,-1.0,1.0,2.0,1.0,0.0
1.6951618709922004e+18,1.0,0.0,1.0,1.0,1.0,0.0,-1.0,-2.0
1.6951618709922004e+18,2.0,1.0,1.0,-1.0,-1.0,1.0,-2.0,-1.0
1.6951618709922004e+18,1.0,-1.0,-1.0,-1.0,0.0,-1.0,-1.0,0.0
1.6951618709922004e+18,-2.0,0.0,1.0,-4.0,0.0,2.0,0.0,0.0
1.6951618710021962e+18,0.0,0.0,-1.0,-1.0,0.0,0.0,0.0,-1.0
1.6951618710021962e+18,-1.0,-1.0,1.0,3.0,-2.0,2.0,0.0,0.0
1.695161871016187e+18,-1.0,-1.0,-3.0,-1.0,-1.0,-2.0,1.0,1.0
1.695161871017186e+18,1.0,-1.0,0.0,-2.0,-1.0,0.0,0.0,0.0
1.695161871017186e+18,-2.0,-2.0,-1.0,-1.0,-1.0,-2.0,0.0,2.0
1.695161871017186e+18,1.0,0.0,-3.0,-2.0,-1.0,-1.0,-1.0,-2.0
1.6951618710321764e+18,-3.0,-1.0,0.0,0.0,0.0,-1.0,-1.0,-1.0
1.6951618710331791e+18,0.0,1.0,-1.0,-2.0,1.0,0.0,0.0,-1.0
1.6951618710401774e+18,-2.0,0.0,0.0,-4.0,-1.0,1.0,1.0,0.0
1.6951618710401774e+18,-1.0,0.0,-1.0,0.0,0.0,-2.0,0.0,0.0
1.6951618710411715e+18,2.0,0.0,-1.0,-5.0,-3.0,-2.0,-1.0,-2.0
1.6951618710411715e+18,-1.0,1.0,0.0,3.0,-3.0,-2.0,-1.0,-1.0
1.6951618710621614e+18,1.0,0.0,-1.0,0.0,-1.0,-2.0,-1.0,-1.0
1.6951618710621614e+18,-1.0,0.0,0.0,-3.0,1.0,1.0,0.0,0.0
1.6951618710641585e+18,-2.0,0.0,1.0,-3.0,-2.0,-2.0,0.0,0.0
1.6951618710641585e+18,0.0,-3.0,-2.0,3.0,2.0,-1.0,-2.0,0.0
1.6951618710761526e+18,0.0,-1.0,1.0,0.0,-1.0,-1.0,-2.0,0.0
1.6951618710761526e+18,1.0,-1.0,5.0,0.0,-2.0,1.0,2.0,1.0
1.6951618710851635e+18,-1.0,-2.0,-3.0,-7.0,-7.0,-2.0,-2.0,-1.0
1.6951618710851635e+18,2.0,-1.0,-1.0,1.0,6.0,0.0,-1.0,-2.0
1.6951618711001375e+18,-1.0,-2.0,-3.0,5.0,2.0,-1.0,-1.0,-1.0
1.6951618711001375e+18,-3.0,-2.0,-4.0,-14.0,-1.0,-4.0,-1.0,-1.0
1.6951618711011402e+18,-1.0,1.0,4.0,14.0,0.0,0.0,0.0,0.0
1.6951618711021394e+18,0.0,0.0,-1.0,-3.0,-4.0,-3.0,-2.0,-1.0
1.6951618711221489e+18,0.0,0.0,-4.0,-1.0,-3.0,-1.0,-2.0,-2.0
1.6951618711231247e+18,-2.0,-1.0,-2.0,2.0,-3.0,0.0,0.0,-3.0
1.6951618711241267e+18,0.0,-1.0,-1.0,-4.0,1.0,0.0,1.0,-1.0
1.6951618711241267e+18,-1.0,-1.0,-1.0,-3.0,-4.0,-1.0,-1.0,0.0
1.6951618711431155e+18,1.0,-1.0,-1.0,-4.0,2.0,1.0,0.0,-1.0
1.6951618711431155e+18,-1.0,-1.0,0.0,0.0,-1.0,-2.0,-2.0,1.0
1.6951618711521318e+18,1.0,-1.0,1.0,-1.0,0.0,0.0,-1.0,-1.0
1.6951618711531072e+18,-1.0,0.0,-1.0,2.0,1.0,1.0,2.0,1.0
1.6951618711591053e+18,-1.0,-2.0,0.0,-6.0,-2.0,-1.0,-1.0,1.0
1.6951618711591053e+18,-2.0,-1.0,-2.0,0.0,-2.0,-2.0,-3.0,0.0
1.6951618711661e+18,-1.0,-1.0,0.0,0.0,1.0,-6.0,-3.0,-1.0
1.6951618711661e+18,-2.0,-1.0,0.0,-2.0,-3.0,0.0,2.0,-2.0
1.6951618711980823e+18,2.0,0.0,-2.0,-6.0,-9.0,-4.0,-1.0,1.0
1.6951618711990863e+18,1.0,1.0,-2.0,-1.0,-1.0,3.0,-2.0,-1.0
1.6951618712000806e+18,-1.0,-1.0,-3.0,-1.0,4.0,-7.0,-5.0,-3.0
1.6951618712000806e+18,-3.0,-1.0,3.0,4.0,2.0,2.0,0.0,-2.0
1.6951618712000806e+18,-1.0,0.0,-3.0,-4.0,2.0,12.0,2.0,-1.0
1.6951618712000806e+18,-2.0,-1.0,-2.0,5.0,3.0,-3.0,-2.0,-2.0
1.695161871211075e+18,-3.0,-2.0,-4.0,-7.0,-6.0,-2.0,-3.0,-2.0
1.695161871211075e+18,-2.0,-2.0,-4.0,-4.0,-2.0,-9.0,-2.0,-1.0
1.695161871229064e+18,-2.0,-2.0,-1.0,1.0,-7.0,-8.0,-5.0,-4.0
1.695161871229064e+18,-1.0,-2.0,0.0,6.0,2.0,2.0,0.0,-1.0
1.6951618712300682e+18,1.0,0.0,-1.0,-1.0,1.0,1.0,-1.0,0.0
1.6951618712300682e+18,-3.0,-1.0,-4.0,-2.0,-3.0,-2.0,-1.0,-2.0
1.6951618712500544e+18,-2.0,-2.0,-2.0,-4.0,-2.0,-2.0,-2.0,-1.0
1.6951618712500544e+18,-1.0,-2.0,-2.0,-2.0,-3.0,-1.0,-1.0,-3.0
1.695161871251051e+18,-2.0,-3.0,-2.0,1.0,1.0,-2.0,-2.0,-1.0
1.695161871252054e+18,-2.0,-2.0,-1.0,-1.0,-3.0,-2.0,-1.0,1.0
1.6951618712740413e+18,-1.0,0.0,-1.0,4.0,4.0,3.0,1.0,0.0
1.6951618712750377e+18,-2.0,-1.0,-1.0,-1.0,3.0,-1.0,-1.0,-1.0
1.6951618712750377e+18,-1.0,-1.0,0.0,-1.0,-1.0,0.0,3.0,1.0
1.6951618712750377e+18,-1.0,-3.0,-2.0,-4.0,-3.0,6.0,-1.0,-2.0
1.6951618712790587e+18,-1.0,2.0,-1.0,3.0,1.0,-8.0,-5.0,-1.0
1.6951618712790587e+18,-3.0,-8.0,-1.0,-1.0,1.0,2.0,-1.0,-2.0
1.6951618712860554e+18,-3.0,1.0,-2.0,1.0,3.0,3.0,3.0,0.0
1.6951618712860554e+18,-1.0,-3.0,0.0,-2.0,-8.0,-2.0,-1.0,1.0
1.6951618713030236e+18,-3.0,-1.0,-1.0,0.0,7.0,1.0,1.0,-4.0
1.6951618713030236e+18,4.0,7.0,1.0,-4.0,-5.0,-8.0,-8.0,0.0
1.6951618713090202e+18,-4.0,-13.0,-1.0,-1.0,1.0,5.0,9.0,0.0
1.6951618713090202e+18,1.0,7.0,-1.0,3.0,3.0,-3.0,-9.0,-5.0
1.695161871324981e+18,-4.0,-3.0,1.0,4.0,2.0,1.0,11.0,4.0
1.695161871324981e+18,2.0,-6.0,-6.0,-8.0,-8.0,-10.0,-21.0,-9.0
1.6951618713259807e+18,-5.0,1.0,3.0,-1.0,-1.0,15.0,41.0,-12.0
1.6951618713269921e+18,-3.0,-3.0,-4.0,4.0,5.0,6.0,-3.0,1.0
1.695161871341972e+18,2.0,3.0,-1.0,-4.0,-1.0,4.0,6.0,2.0
1.695161871341972e+18,2.0,-9.0,1.0,3.0,10.0,0.0,7.0,10.0
1.6951618713489674e+18,-16.0,-2.0,-1.0,1.0,-5.0,-5.0,-11.0,-7.0
1.6951618713489674e+18,21.0,31.0,6.0,2.0,4.0,0.0,0.0,13.0
1.6951618713629596e+18,-10.0,-9.0,-1.0,1.0,3.0,1.0,-15.0,-27.0
1.6951618713629596e+18,16.0,8.0,2.0,-3.0,-2.0,5.0,15.0,14.0
1.6951618713639588e+18,-14.0,8.0,-2.0,-5.0,-5.0,-7.0,-30.0,-40.0
1.6951618713639588e+18,-16.0,-43.0,-8.0,-2.0,-7.0,-4.0,9.0,67.0
1.6951618713839475e+18,7.0,10.0,-1.0,-6.0,-8.0,-8.0,-13.0,-16.0
1.6951618713849477e+18,-5.0,-10.0,0.0,1.0,-2.0,3.0,3.0,-10.0
1.695161871394942e+18,-11.0,13.0,5.0,5.0,8.0,1.0,1.0,-14.0
1.695161871394942e+18,19.0,21.0,5.0,3.0,4.0,3.0,2.0,5.0
1.6951618713999388e+18,-28.0,-25.0,-6.0,-2.0,0.0,-3.0,11.0,14.0
1.6951618713999388e+18,1.0,-52.0,-11.0,-8.0,-6.0,9.0,-5.0,36.0
1.6951618714269243e+18,-7.0,33.0,-2.0,-8.0,-9.0,-13.0,-31.0,-1.0
1.6951618714269243e+18,7.0,-4.0,2.0,0.0,1.0,0.0,19.0,-37.0
1.6951618714269243e+18,17.0,35.0,4.0,1.0,0.0,4.0,2.0,-4.0
1.6951618714269243e+18,-13.0,-23.0,-3.0,-4.0,-4.0,1.0,12.0,-11.0
1.6951618714269243e+18,-1.0,0.0,6.0,6.0,12.0,3.0,-31.0,-86.0
1.6951618714269243e+18,-32.0,-23.0,-9.0,-8.0,-12.0,-12.0,5.0,87.0
1.695161871443914e+18,9.0,1.0,5.0,4.0,2.0,3.0,8.0,32.0
1.6951618714449132e+18,2.0,32.0,3.0,7.0,14.0,1.0,2.0,-33.0
1.695161871455907e+18,25.0,-23.0,-7.0,-1.0,-1.0,-4.0,-3.0,22.0
1.6951618714609037e+18,-4.0,9.0,6.0,0.0,2.0,4.0,8.0,-55.0
1.6951618714758953e+18,-5.0,-2.0,0.0,-2.0,-1.0,0.0,6.0,-22.0
1.6951618714758953e+18,-7.0,16.0,6.0,0.0,-2.0,-6.0,-19.0,19.0
1.6951618714768947e+18,11.0,-19.0,-1.0,0.0,-3.0,-5.0,-9.0,-37.0
1.6951618714768947e+18,-16.0,14.0,6.0,4.0,3.0,2.0,-17.0,-38.0
1.6951618714828928e+18,9.0,-1.0,-6.0,-3.0,-2.0,-4.0,20.0,79.0
1.6951618714828928e+18,4.0,17.0,1.0,-2.0,-1.0,3.0,11.0,-17.0
1.6951618714838925e+18,15.0,-3.0,-7.0,0.0,1.0,10.0,9.0,33.0
1.6951618714838925e+18,10.0,-17.0,8.0,8.0,5.0,8.0,-3.0,9.0
1.6951618715048799e+18,3.0,-12.0,-11.0,-11.0,-9.0,-20.0,-53.0,-33.0
1.6951618715048799e+18,-10.0,15.0,-2.0,-2.0,0.0,1.0,12.0,-37.0
1.6951618715128735e+18,-7.0,-8.0,3.0,4.0,3.0,2.0,54.0,36.0
1.6951618715128735e+18,5.0,-8.0,-8.0,-3.0,-5.0,-5.0,-50.0,-19.0
1.6951618715278653e+18,9.0,1.0,-1.0,2.0,-1.0,5.0,8.0,74.0
1.6951618715278653e+18,4.0,11.0,-1.0,1.0,-3.0,-6.0,-8.0,10.0
1.6951618715288645e+18,-10.0,-7.0,-2.0,-3.0,-1.0,5.0,4.0,-18.0
1.6951618715298642e+18,-3.0,3.0,-4.0,-1.0,5.0,5.0,17.0,-28.0
1.6951618715428575e+18,-12.0,-3.0,-1.0,-3.0,-5.0,-9.0,-31.0,-34.0
1.6951618715428575e+18,2.0,-1.0,-1.0,-2.0,-5.0,1.0,23.0,-10.0
1.695161871543858e+18,-11.0,19.0,-3.0,-13.0,-6.0,-7.0,-4.0,21.0
1.695161871543858e+18,-2.0,-23.0,-5.0,-4.0,-3.0,-3.0,11.0,-45.0
1.6951618715638444e+18,28.0,6.0,15.0,6.0,1.0,-4.0,-30.0,13.0
1.6951618715648479e+18,4.0,11.0,-3.0,-2.0,-6.0,-4.0,-15.0,58.0
1.695161871594829e+18,0.0,-35.0,-5.0,3.0,2.0,7.0,41.0,9.0
1.695161871594829e+18,-32.0,-17.0,-15.0,-8.0,-2.0,-16.0,-23.0,-22.0
1.6951618715968282e+18,-18.0,2.0,-1.0,2.0,3.0,22.0,53.0,-77.0
1.6951618715968282e+18,-5.0,7.0,4.0,4.0,1.0,-8.0,-24.0,36.0
1.6951618715968282e+18,-8.0,21.0,8.0,1.0,0.0,-1.0,-11.0,5.0
1.6951618715968282e+18,42.0,3.0,-8.0,-8.0,-10.0,-14.0,-16.0,-22.0
1.6951618716028237e+18,13.0,3.0,10.0,8.0,6.0,8.0,24.0,28.0
1.6951618716028237e+18,-29.0,-7.0,3.0,1.0,-1.0,-8.0,8.0,-16.0
1.695161871603824e+18,21.0,4.0,-5.0,-1.0,3.0,9.0,7.0,37.0
1.695161871603824e+18,41.0,-8.0,-2.0,-2.0,-2.0,0.0,12.0,30.0
1.695161871624809e+18,-11.0,1.0,0.0,-1.0,0.0,-14.0,-57.0,-70.0
1.695161871624809e+18,38.0,9.0,8.0,12.0,5.0,9.0,26.0,42.0
1.6951618716268086e+18,-4.0,-12.0,1.0,-10.0,-1.0,12.0,14.0,54.0
1.6951618716268086e+18,7.0,24.0,2.0,2.0,3.0,5.0,-4.0,-26.0
1.6951618716477957e+18,-11.0,-13.0,-6.0,-10.0,-10.0,-7.0,23.0,22.0
1.6951618716477957e+18,-13.0,-6.0,-4.0,-2.0,2.0,4.0,32.0,-108.0
1.695161871648797e+18,-13.0,-16.0,-3.0,2.0,2.0,-1.0,-38.0,69.0
1.695161871648797e+18,-31.0,10.0,6.0,3.0,2.0,-15.0,-42.0,13.0
1.6951618716727823e+18,26.0,-5.0,-10.0,-10.0,-4.0,21.0,26.0,-15.0
1.695161871673782e+18,-12.0,4.0,3.0,2.0,3.0,3.0,34.0,-4.0
1.695161871677787e+18,18.0,12.0,-2.0,3.0,-9.0,-5.0,0.0,-32.0
1.695161871677787e+18,26.0,5.0,11.0,-6.0,6.0,18.0,17.0,46.0
1.6951618716927703e+18,-58.0,1.0,-4.0,-5.0,3.0,18.0,74.0,-15.0
1.6951618716927703e+18,41.0,14.0,9.0,7.0,1.0,-24.0,-94.0,46.0
1.6951618716937723e+18,-15.0,5.0,2.0,-2.0,-5.0,-16.0,-4.0,-19.0
1.6951618716937723e+18,71.0,11.0,-1.0,0.0,2.0,4.0,13.0,24.0
1.6951618717097667e+18,20.0,0.0,7.0,12.0,8.0,9.0,11.0,1.0
1.6951618717097667e+18,5.0,-18.0,-21.0,-4.0,3.0,16.0,18.0,-75.0
1.6951618717317522e+18,-25.0,2.0,2.0,5.0,0.0,-10.0,14.0,-6.0
1.6951618717317522e+18,51.0,23.0,14.0,-3.0,-1.0,14.0,-12.0,-9.0
1.6951618717327478e+18,-76.0,-20.0,-15.0,-7.0,-6.0,-30.0,-10.0,14.0
1.6951618717327478e+18,-25.0,-12.0,-6.0,-17.0,-12.0,-26.0,-31.0,9.0
1.6951618717327478e+18,-10.0,3.0,3.0,13.0,2.0,14.0,-35.0,-6.0
1.6951618717327478e+18,-68.0,-10.0,-12.0,0.0,-11.0,-41.0,-59.0,-110.0
1.6951618717527393e+18,-7.0,-19.0,0.0,-2.0,-2.0,-7.0,-61.0,38.0
1.6951618717527393e+18,12.0,-6.0,-2.0,-1.0,-6.0,-5.0,22.0,98.0
1.695161871753736e+18,24.0,-2.0,-17.0,-22.0,8.0,39.0,84.0,-12.0
1.695161871753736e+18,-48.0,-9.0,-13.0,-5.0,-12.0,-23.0,0.0,23.0
1.6951618717677294e+18,17.0,13.0,9.0,11.0,5.0,25.0,24.0,-5.0
1.6951618717677294e+18,-17.0,-11.0,-2.0,18.0,5.0,0.0,30.0,24.0
1.6951618717687283e+18,32.0,20.0,10.0,-10.0,-3.0,-24.0,-42.0,-65.0
1.6951618717687283e+18,13.0,-11.0,-1.0,-9.0,-5.0,32.0,51.0,49.0
1.6951618717897147e+18,-13.0,6.0,-6.0,2.0,0.0,-32.0,-46.0,18.0
1.695161871790718e+18,-42.0,4.0,10.0,17.0,6.0,14.0,29.0,-31.0
1.695161871791714e+18,-22.0,-27.0,-3.0,5.0,4.0,5.0,-3.0,16.0
1.695161871791714e+18,53.0,25.0,8.0,-15.0,4.0,4.0,34.0,36.0
1.6951618718047089e+18,18.0,-6.0,-12.0,-19.0,-7.0,9.0,30.0,-31.0
1.6951618718047089e+18,-25.0,-6.0,6.0,-11.0,-11.0,-8.0,-51.0,-4.0
1.69516187182071e+18,9.0,6.0,-5.0,5.0,-1.0,-15.0,-36.0,17.0
1.69516187182071e+18,0.0,-22.0,-3.0,7.0,-3.0,-18.0,-49.0,1.0
1.6951618718266944e+18,0.0,8.0,0.0,10.0,5.0,5.0,-32.0,-50.0
1.6951618718266944e+18,13.0,-9.0,-9.0,-15.0,-7.0,-1.0,10.0,-26.0
1.6951618718426847e+18,5.0,-11.0,8.0,12.0,-2.0,15.0,22.0,-15.0
1.6951618718426847e+18,-78.0,-3.0,-13.0,-24.0,-8.0,-5.0,32.0,-36.0
1.6951618718576763e+18,70.0,6.0,6.0,6.0,6.0,5.0,20.0,62.0
1.6951618718586765e+18,0.0,-2.0,10.0,3.0,10.0,28.0,-6.0,9.0
1.6951618718586765e+18,28.0,5.0,-8.0,2.0,-4.0,-24.0,-47.0,-37.0
1.695161871859675e+18,43.0,5.0,-3.0,7.0,4.0,13.0,25.0,-9.0
1.6951618718726682e+18,-34.0,-17.0,1.0,8.0,5.0,-7.0,-37.0,10.0
1.6951618718726682e+18,-30.0,-4.0,0.0,-11.0,-6.0,2.0,-3.0,-52.0
1.6951618718746673e+18,-35.0,-8.0,-2.0,-10.0,-6.0,-20.0,-17.0,73.0
1.6951618718756692e+18,-22.0,-1.0,3.0,8.0,7.0,30.0,31.0,57.0
1.6951618718986767e+18,15.0,-6.0,1.0,3.0,-5.0,-12.0,-46.0,-65.0
1.6951618718986767e+18,58.0,0.0,-6.0,-5.0,-1.0,-5.0,2.0,14.0
1.6951618718986767e+18,8.0,-6.0,-6.0,8.0,-13.0,-27.0,5.0,-62.0
1.695161871899655e+18,-87.0,-4.0,-1.0,-15.0,-1.0,-10.0,-16.0,-26.0
1.6951618719186652e+18,-9.0,6.0,-3.0,0.0,-3.0,-3.0,36.0,5.0
1.6951618719186652e+18,-11.0,-7.0,0.0,-5.0,-7.0,-30.0,-61.0,-28.0
1.6951618719206423e+18,14.0,5.0,0.0,3.0,4.0,11.0,27.0,-16.0
1.6951618719206423e+18,1.0,-3.0,11.0,17.0,7.0,5.0,18.0,5.0
1.6951618719366543e+18,15.0,5.0,-13.0,-17.0,-7.0,-14.0,-40.0,-2.0
1.695161871937632e+18,-13.0,4.0,8.0,5.0,-1.0,-1.0,16.0,-9.0
1.695161871937632e+18,-8.0,14.0,0.0,-4.0,3.0,7.0,12.0,71.0
1.695161871937632e+18,-11.0,-20.0,4.0,-17.0,-8.0,-1.0,-7.0,-20.0
1.695161871954623e+18,-22.0,-8.0,-15.0,-15.0,-11.0,-9.0,-16.0,-11.0
1.6951618719556206e+18,10.0,7.0,-1.0,-3.0,-7.0,0.0,-12.0,7.0
1.695161871956626e+18,-6.0,2.0,0.0,2.0,5.0,3.0,-20.0,3.0
1.6951618719576223e+18,17.0,-2.0,-1.0,2.0,2.0,-1.0,-2.0,2.0
1.6951618719696305e+18,-3.0,5.0,-7.0,-8.0,-10.0,-9.0,-1.0,-13.0
1.695161871970614e+18,9.0,14.0,-1.0,5.0,19.0,6.0,-8.0,8.0
1.6951618719776077e+18,11.0,-2.0,7.0,1.0,-10.0,0.0,0.0,12.0
1.695161871978607e+18,-5.0,4.0,-9.0,11.0,7.0,-1.0,15.0,-16.0
1.6951618719836032e+18,12.0,4.0,9.0,4.0,21.0,11.0,7.0,-4.0
1.6951618719836032e+18,-9.0,-2.0,-4.0,-6.0,-20.0,-1.0,-2.0,7.0
1.6951618719926019e+18,-3.0,8.0,-9.0,5.0,38.0,18.0,19.0,-9.0
1.6951618719926019e+18,6.0,-6.0,1.0,13.0,6.0,-1.0,-16.0,-2.0
1.695161872014586e+18,-4.0,-2.0,7.0,10.0,8.0,5.0,23.0,18.0
1.695161872015586e+18,6.0,-8.0,-2.0,-2.0,-3.0,-2.0,3.0,-1.0
1.6951618720165852e+18,2.0,-2.0,1.0,-13.0,-18.0,-6.0,-15.0,-13.0
1.695161872017587e+18,8.0,5.0,0.0,-2.0,-12.0,-9.0,-18.0,1.0
1.6951618720285773e+18,4.0,4.0,6.0,3.0,-6.0,-3.0,6.0,44.0
1.6951618720295793e+18,-3.0,-7.0,-19.0,-11.0,-3.0,4.0,12.0,-8.0
1.6951618720505912e+18,6.0,3.0,1.0,-1.0,-2.0,2.0,-2.0,-18.0
1.6951618720505912e+18,-4.0,6.0,2.0,4.0,0.0,-3.0,-4.0,17.0
1.6951618720505912e+18,-5.0,-12.0,-1.0,-6.0,-6.0,3.0,2.0,-24.0
1.6951618720505912e+18,8.0,3.0,-1.0,7.0,9.0,6.0,13.0,-5.0
1.6951618720685553e+18,-6.0,-6.0,-2.0,-2.0,-3.0,-6.0,-6.0,7.0
1.6951618720685553e+18,2.0,5.0,0.0,5.0,3.0,3.0,1.0,-4.0
1.6951618720685553e+18,1.0,-1.0,6.0,-2.0,3.0,2.0,7.0,0.0
1.6951618720685553e+18,2.0,-1.0,-2.0,-4.0,-4.0,-3.0,1.0,10.0
1.6951618720705564e+18,1.0,-2.0,0.0,1.0,-3.0,0.0,1.0,2.0
1.6951618720705564e+18,-5.0,-3.0,-1.0,0.0,-2.0,-5.0,-13.0,-11.0
1.6951618720975404e+18,6.0,4.0,-1.0,0.0,-2.0,1.0,11.0,9.0
1.6951618720975404e+18,-5.0,-4.0,0.0,2.0,4.0,1.0,-7.0,2.0
1.695161872098538e+18,-4.0,-5.0,1.0,-7.0,-10.0,-5.0,-6.0,-4.0
1.6951618720995402e+18,-1.0,1.0,-4.0,0.0,0.0,0.0,5.0,-7.0
1.695161872120527e+18,-2.0,1.0,1.0,0.0,0.0,0.0,0.0,3.0
1.695161872120527e+18,3.0,1.0,-1.0,-2.0,2.0,2.0,-1.0,-3.0
1.6951618721215493e+18,-5.0,-4.0,0.0,-1.0,-2.0,-2.0,-1.0,1.0
1.6951618721215493e+18,1.0,2.0,-2.0,-2.0,-2.0,1.0,5.0,10.0
1.6951618721355264e+18,2.0,1.0,0.0,4.0,0.0,0.0,1.0,-5.0
1.6951618721355264e+18,-1.0,-3.0,0.0,-2.0,-1.0,-1.0,0.0,1.0
1.6951618721365332e+18,1.0,0.0,-2.0,-2.0,-1.0,-5.0,2.0,-1.0
1.6951618721365332e+18,5.0,0.0,0.0,2.0,-1.0,-1.0,-1.0,4.0
1.6951618721575045e+18,8.0,-1.0,-2.0,-4.0,-4.0,-2.0,0.0,10.0
1.6951618721575045e+18,-4.0,-1.0,-2.0,1.0,2.0,4.0,3.0,-5.0
1.6951618721585042e+18,9.0,0.0,0.0,-3.0,1.0,-1.0,-3.0,6.0
1.695161872159503e+18,2.0,1.0,1.0,2.0,1.0,1.0,4.0,-2.0
1.6951618721724977e+18,-1.0,-1.0,0.0,-1.0,-3.0,-1.0,-5.0,-4.0
1.6951618721724977e+18,3.0,0.0,2.0,-1.0,0.0,-3.0,-6.0,6.0
1.6951618721884872e+18,-4.0,-2.0,0.0,0.0,-2.0,2.0,7.0,1.0
1.6951618721884872e+18,0.0,-2.0,-3.0,-3.0,-3.0,-1.0,0.0,4.0
1.6951618721884872e+18,-1.0,0.0,0.0,-2.0,1.0,0.0,2.0,-9.0
1.6951618721894892e+18,-2.0,-2.0,-1.0,4.0,0.0,-1.0,0.0,-1.0
1.6951618721904858e+18,-2.0,-1.0,-1.0,-1.0,-2.0,0.0,-4.0,-1.0
1.6951618721904858e+18,1.0,0.0,-4.0,-5.0,-1.0,1.0,-2.0,0.0
1.695161872210474e+18,-4.0,1.0,2.0,3.0,-1.0,-2.0,0.0,-6.0
1.695161872210474e+18,-2.0,0.0,0.0,3.0,-2.0,-3.0,-4.0,-3.0
1.6951618722114972e+18,-2.0,-3.0,5.0,2.0,1.0,0.0,1.0,2.0
1.6951618722114972e+18,-3.0,0.0,0.0,0.0,-1.0,0.0,-1.0,-1.0
1.6951618722324616e+18,0.0,-1.0,-4.0,-6.0,-1.0,-1.0,-1.0,-3.0
1.6951618722324616e+18,2.0,-1.0,-5.0,-6.0,-2.0,-3.0,1.0,0.0
1.6951618722344604e+18,3.0,-1.0,-4.0,-4.0,-1.0,-3.0,-1.0,1.0
1.6951618722344604e+18,-1.0,-1.0,3.0,4.0,0.0,-2.0,-1.0,0.0
1.6951618722584466e+18,-2.0,-1.0,1.0,4.0,0.0,0.0,3.0,-2.0
1.6951618722584466e+18,0.0,-1.0,-2.0,-3.0,0.0,1.0,2.0,-1.0
1.6951618722584466e+18,-4.0,-3.0,-3.0,-3.0,-1.0,-1.0,-8.0,1.0
1.6951618722584466e+18,3.0,-2.0,-1.0,1.0,-2.0,-4.0,-1.0,1.0
1.6951618722704402e+18,0.0,0.0,5.0,3.0,-1.0,-3.0,-2.0,-2.0
1.6951618722704402e+18,-3.0,-3.0,0.0,-4.0,-3.0,-5.0,-4.0,-1.0
1.695161872271463e+18,-3.0,-1.0,1.0,0.0,1.0,1.0,-1.0,-3.0
1.695161872271463e+18,-2.0,0.0,-2.0,-2.0,-2.0,-4.0,-4.0,-1.0
1.6951618722834563e+18,-1.0,1.0,-3.0,-3.0,-1.0,5.0,4.0,-2.0
1.6951618722834563e+18,-1.0,-1.0,1.0,-1.0,-2.0,-3.0,-4.0,-1.0
1.695161872308418e+18,0.0,2.0,-3.0,-3.0,-3.0,-3.0,-2.0,-2.0
1.695161872308418e+18,-1.0,-1.0,1.0,0.0,0.0,-1.0,-1.0,-3.0
1.695161872308418e+18,-3.0,0.0,-10.0,2.0,1.0,0.0,-1.0,-1.0
1.6951618723094328e+18,0.0,1.0,-1.0,-2.0,2.0,1.0,1.0,0.0
1.69516187231042e+18,-1.0,-1.0,9.0,9.0,-1.0,-1.0,-1.0,-1.0
1.69516187231042e+18,-1.0,3.0,-1.0,-1.0,-2.0,-1.0,0.0,0.0
1.695161872345396e+18,-2.0,-2.0,5.0,0.0,1.0,0.0,-1.0,1.0
1.695161872345396e+18,0.0,1.0,12.0,7.0,3.0,4.0,3.0,3.0
1.695161872347397e+18,-3.0,-3.0,-9.0,0.0,-3.0,-2.0,0.0,-2.0
1.695161872347397e+18,-2.0,-2.0,3.0,-4.0,2.0,-3.0,-4.0,-2.0
1.695161872348399e+18,-1.0,-3.0,-5.0,-5.0,-3.0,-2.0,-1.0,-2.0
1.695161872348399e+18,2.0,1.0,7.0,7.0,2.0,1.0,-1.0,-1.0
1.6951618723613878e+18,-3.0,2.0,-4.0,-1.0,0.0,1.0,-1.0,-3.0
1.6951618723613878e+18,2.0,1.0,-1.0,-2.0,3.0,3.0,5.0,2.0
1.695161872368384e+18,2.0,-4.0,-6.0,-2.0,-4.0,-2.0,-2.0,-1.0
1.695161872368384e+18,-1.0,-1.0,5.0,-3.0,-2.0,-1.0,0.0,1.0
1.6951618723693837e+18,-1.0,-2.0,-5.0,3.0,0.0,0.0,-1.0,-1.0
1.6951618723693837e+18,-1.0,-1.0,-17.0,-17.0,-4.0,-2.0,-2.0,-5.0
1.6951618723963914e+18,1.0,5.0,28.0,26.0,3.0,0.0,3.0,0.0
1.6951618723963914e+18,-9.0,-10.0,-33.0,-18.0,-4.0,-5.0,-5.0,-7.0
1.6951618724223537e+18,0.0,1.0,7.0,0.0,3.0,1.0,3.0,4.0
1.6951618724223537e+18,1.0,3.0,9.0,7.0,5.0,4.0,0.0,0.0
1.6951618724233572e+18,-7.0,-7.0,-8.0,-20.0,-8.0,-6.0,-4.0,-4.0
1.6951618724233572e+18,0.0,2.0,0.0,8.0,4.0,1.0,-1.0,1.0
1.6951618724273518e+18,1.0,1.0,0.0,2.0,0.0,0.0,0.0,1.0
1.6951618724273518e+18,1.0,-1.0,5.0,-1.0,-3.0,0.0,1.0,-1.0
1.6951618724283525e+18,-2.0,2.0,6.0,-1.0,2.0,4.0,1.0,1.0
1.6951618724283525e+18,0.0,-1.0,-24.0,-5.0,1.0,0.0,-1.0,-1.0
1.69516187243435e+18,-4.0,-4.0,-13.0,-3.0,-1.0,-3.0,-2.0,-3.0
1.69516187243435e+18,0.0,0.0,-19.0,-7.0,-2.0,-1.0,-2.0,1.0
1.6951618724513423e+18,-3.0,-3.0,14.0,4.0,-4.0,-2.0,-6.0,-4.0
1.6951618724513423e+18,0.0,0.0,-2.0,-5.0,0.0,0.0,0.0,-1.0
1.6951618724563374e+18,2.0,3.0,13.0,-4.0,3.0,0.0,1.0,-1.0
1.6951618724563374e+18,-5.0,-4.0,-1.0,5.0,-5.0,-1.0,-3.0,-1.0
1.695161872472329e+18,1.0,-1.0,-8.0,-2.0,2.0,0.0,3.0,0.0
1.695161872473326e+18,-2.0,2.0,1.0,3.0,-3.0,-3.0,-1.0,0.0
1.695161872474323e+18,5.0,0.0,1.0,-6.0,-2.0,2.0,3.0,-1.0
1.695161872474323e+18,-2.0,-1.0,12.0,10.0,1.0,2.0,-1.0,1.0
1.6951618724913137e+18,-1.0,-1.0,-9.0,-7.0,-2.0,-2.0,-2.0,-1.0
1.6951618724923164e+18,0.0,1.0,25.0,11.0,0.0,0.0,1.0,2.0
1.6951618724933363e+18,-3.0,-2.0,-5.0,-10.0,-6.0,-4.0,-1.0,-2.0
1.6951618724933363e+18,0.0,0.0,-5.0,1.0,0.0,0.0,0.0,-1.0
1.6951618725103027e+18,1.0,-1.0,-7.0,8.0,1.0,1.0,0.0,0.0
1.6951618725103027e+18,0.0,-2.0,5.0,-20.0,-3.0,0.0,0.0,0.0
1.6951618725113252e+18,-2.0,0.0,-10.0,3.0,0.0,-2.0,-3.0,-1.0
1.6951618725113252e+18,0.0,-1.0,0.0,-9.0,-3.0,-2.0,-1.0,0.0
1.6951618725302907e+18,-1.0,2.0,-1.0,-1.0,3.0,-1.0,-1.0,-1.0
1.6951618725302907e+18,1.0,-1.0,-2.0,5.0,-1.0,-2.0,-1.0,-1.0
1.6951618725332977e+18,-3.0,-1.0,3.0,-3.0,-1.0,1.0,-1.0,-1.0
1.6951618725332977e+18,-2.0,-1.0,1.0,-1.0,-2.0,-2.0,-1.0,-1.0
1.6951618725463048e+18,-1.0,-1.0,-7.0,0.0,-1.0,0.0,-1.0,-1.0
1.6951618725472822e+18,0.0,1.0,8.0,1.0,-2.0,-1.0,-2.0,-1.0
1.6951618725532767e+18,0.0,-1.0,4.0,3.0,0.0,1.0,-1.0,0.0
1.6951618725542766e+18,-1.0,-2.0,-2.0,-1.0,0.0,-2.0,-2.0,-1.0
1.6951618725732667e+18,1.0,1.0,1.0,-2.0,-1.0,0.0,-1.0,0.0
1.695161872575266e+18,1.0,-1.0,-2.0,0.0,1.0,0.0,0.0,-2.0
1.695161872576267e+18,-2.0,-2.0,-3.0,0.0,-3.0,-3.0,-1.0,0.0
1.695161872576267e+18,-2.0,-3.0,0.0,1.0,0.0,-2.0,0.0,-1.0
1.6951618725832632e+18,1.0,-1.0,-4.0,-5.0,0.0,-3.0,-1.0,-1.0
1.6951618725842598e+18,0.0,-1.0,-3.0,1.0,-2.0,0.0,-3.0,-1.0
1.695161872592255e+18,-1.0,-2.0,-1.0,2.0,-1.0,-1.0,0.0,-1.0
1.6951618725932557e+18,-1.0,1.0,5.0,1.0,0.0,0.0,-1.0,-1.0
1.6951618726072522e+18,-1.0,-1.0,-2.0,-2.0,-2.0,1.0,0.0,1.0
1.6951618726082473e+18,-1.0,-2.0,-3.0,1.0,0.0,-3.0,-1.0,-3.0
1.6951618726132426e+18,0.0,-1.0,-1.0,-1.0,-1.0,-2.0,-1.0,-2.0
1.6951618726142449e+18,0.0,0.0,-2.0,-2.0,1.0,0.0,-1.0,1.0
1.6951618726302356e+18,-2.0,-2.0,-3.0,-1.0,-1.0,-3.0,0.0,-1.0
1.6951618726302356e+18,-1.0,0.0,-3.0,-3.0,-2.0,0.0,-1.0,0.0
1.6951618726322404e+18,0.0,0.0,0.0,-2.0,0.0,-1.0,1.0,0.0
1.6951618726322404e+18,1.0,0.0,-1.0,-1.0,-2.0,0.0,0.0,-2.0
1.695161872652222e+18,0.0,-1.0,-3.0,-3.0,0.0,0.0,-1.0,0.0
1.6951618726532237e+18,-2.0,-2.0,0.0,-1.0,0.0,2.0,1.0,0.0
1.6951618726542208e+18,-1.0,0.0,-1.0,-1.0,0.0,0.0,-1.0,-1.0
1.6951618726542208e+18,-1.0,-1.0,-1.0,-1.0,0.0,-1.0,-1.0,-2.0
1.6951618726752082e+18,-1.0,1.0,-1.0,-2.0,0.0,1.0,-1.0,-1.0
1.6951618726752082e+18,0.0,-1.0,0.0,0.0,-1.0,-1.0,-2.0,-1.0
1.6951618726762102e+18,-1.0,-2.0,-1.0,0.0,0.0,-2.0,-2.0,-3.0
1.6951618726762102e+18,0.0,-2.0,1.0,2.0,-1.0,-1.0,0.0,0.0
1.6951618726901996e+18,1.0,0.0,0.0,-1.0,-1.0,1.0,-1.0,0.0
1.6951618726901996e+18,-1.0,-2.0,0.0,0.0,0.0,-1.0,-1.0,0.0
1.6951618726911997e+18,-1.0,-3.0,0.0,-1.0,-2.0,0.0,-3.0,0.0
1.6951618726911997e+18,-3.0,0.0,1.0,1.0,-1.0,-1.0,-1.0,-2.0
1.6951618727121874e+18,-1.0,0.0,-2.0,-2.0,-1.0,-1.0,0.0,-2.0
1.6951618727131863e+18,-1.0,-1.0,-1.0,-2.0,-2.0,-2.0,-1.0,0.0
1.695161872715186e+18,0.0,-1.0,-1.0,-2.0,0.0,0.0,0.0,0.0
1.695161872715186e+18,0.0,0.0,0.0,-3.0,0.0,-1.0,-3.0,0.0
1.6951618727351729e+18,-2.0,-3.0,-1.0,0.0,0.0,0.0,0.0,-1.0
1.6951618727351729e+18,-1.0,0.0,-3.0,1.0,-1.0,-1.0,0.0,-2.0
1.6951618727361748e+18,0.0,-2.0,-1.0,0.0,0.0,-1.0,0.0,-1.0
1.6951618727361748e+18,-1.0,0.0,-1.0,-1.0,-1.0,0.0,0.0,-2.0
1.6951618727511665e+18,-1.0,-2.0,-4.0,-5.0,0.0,-2.0,0.0,0.0
1.6951618727511665e+18,-1.0,0.0,0.0,0.0,0.0,0.0,-1.0,-1.0
1.6951618727511665e+18,0.0,0.0,1.0,4.0,1.0,0.0,0.0,-1.0
1.6951618727511665e+18,0.0,-1.0,-2.0,0.0,-1.0,0.0,-2.0,0.0
1.6951618727731523e+18,-1.0,-1.0,4.0,3.0,-3.0,-1.0,0.0,-3.0
1.6951618727731523e+18,0.0,0.0,-5.0,-5.0,-1.0,-1.0,0.0,0.0
1.695161872774154e+18,-1.0,-2.0,-2.0,-2.0,-1.0,0.0,-1.0,-1.0
1.695161872774154e+18,-3.0,-1.0,0.0,0.0,0.0,-1.0,0.0,-1.0
1.6951618727951393e+18,0.0,-1.0,0.0,0.0,2.0,0.0,0.0,0.0
1.6951618727951393e+18,-1.0,1.0,0.0,0.0,0.0,0.0,-1.0,-1.0
1.6951618727961385e+18,-1.0,0.0,0.0,0.0,-1.0,0.0,-2.0,-1.0
1.6951618727971382e+18,0.0,-1.0,-1.0,-1.0,0.0,-1.0,0.0,-1.0
1.695161872809131e+18,-1.0,-1.0,0.0,0.0,-2.0,-1.0,-2.0,0.0
1.695161872809131e+18,-2.0,-1.0,0.0,0.0,-1.0,0.0,1.0,-1.0
1.6951618728181335e+18,-1.0,-1.0,-1.0,-1.0,0.0,-1.0,1.0,0.0
1.6951618728181335e+18,-1.0,1.0,-2.0,-1.0,-1.0,-1.0,-1.0,0.0
1.695161872832142e+18,-2.0,0.0,-2.0,0.0,-3.0,0.0,-1.0,-4.0
1.695161872833118e+18,1.0,0.0,0.0,-3.0,-1.0,-1.0,-1.0,-2.0
1.6951618728341194e+18,-1.0,0.0,0.0,-2.0,0.0,-2.0,0.0,0.0
1.6951618728341194e+18,-1.0,-1.0,-1.0,1.0,-1.0,-1.0,-1.0,-1.0
1.6951618728541294e+18,1.0,-1.0,-1.0,0.0,-1.0,-1.0,1.0,1.0
1.6951618728541294e+18,0.0,-2.0,-1.0,1.0,-1.0,0.0,-2.0,-1.0
1.6951618728671022e+18,-1.0,-2.0,-1.0,-4.0,-1.0,-1.0,-1.0,-1.0
1.6951618728671022e+18,-1.0,-2.0,0.0,-2.0,-1.0,-1.0,0.0,-1.0
1.6951618728780956e+18,-1.0,1.0,-1.0,0.0,0.0,-1.0,-2.0,-1.0
1.6951618728780956e+18,-1.0,-2.0,-1.0,2.0,-1.0,-1.0,0.0,0.0
1.6951618728790966e+18,0.0,0.0,1.0,0.0,-2.0,-1.0,-1.0,-1.0
1.6951618728790966e+18,-1.0,0.0,0.0,1.0,-2.0,-2.0,-1.0,-1.0
1.695161872900081e+18,0.0,-1.0,-1.0,-4.0,1.0,0.0,-1.0,2.0
1.695161872900081e+18,-1.0,-1.0,-1.0,-2.0,-1.0,-2.0,0.0,1.0
1.6951618729010788e+18,0.0,-1.0,-2.0,-1.0,-1.0,-1.0,0.0,-2.0
1.6951618729010788e+18,-2.0,-1.0,-1.0,-1.0,0.0,0.0,0.0,0.0
1.695161872914071e+18,-1.0,-2.0,-1.0,0.0,-2.0,-2.0,0.0,1.0
1.6951618729150723e+18,0.0,1.0,-1.0,0.0,0.0,-1.0,-1.0,-1.0
1.6951618729150723e+18,0.0,-1.0,-2.0,1.0,-2.0,-1.0,-2.0,-1.0
1.6951618729150723e+18,0.0,-1.0,-1.0,-2.0,-1.0,0.0,-1.0,0.0
1.6951618729290644e+18,-1.0,-1.0,-2.0,0.0,-2.0,0.0,-1.0,-2.0
1.6951618729300623e+18,0.0,-1.0,0.0,0.0,-1.0,0.0,-1.0,1.0
1.695161872937058e+18,-1.0,0.0,0.0,-2.0,-1.0,-1.0,-2.0,1.0
1.695161872937058e+18,0.0,-1.0,-2.0,-2.0,-1.0,-2.0,0.0,-1.0
1.6951618729520517e+18,0.0,-1.0,-2.0,-1.0,1.0,0.0,-2.0,-2.0
1.6951618729520517e+18,0.0,0.0,-1.0,3.0,-1.0,0.0,-1.0,0.0
1.6951618729530511e+18,0.0,2.0,-2.0,-1.0,-1.0,-1.0,-1.0,-2.0
1.6951618729530511e+18,0.0,0.0,-2.0,0.0,0.0,1.0,-1.0,-1.0
1.6951618729760356e+18,-4.0,3.0,-8.0,-3.0,-2.0,-1.0,-2.0,-1.0
1.6951618729760356e+18,-2.0,5.0,-9.0,-6.0,-4.0,-3.0,-1.0,-3.0
1.6951618729760356e+18,-2.0,0.0,1.0,2.0,-1.0,-2.0,-1.0,-1.0
1.695161872977041e+18,2.0,13.0,-8.0,-4.0,-4.0,-4.0,-4.0,-1.0
1.6951618729900278e+18,-2.0,0.0,1.0,0.0,2.0,-1.0,-1.0,-2.0
1.6951618729900278e+18,-1.0,-1.0,-2.0,-3.0,-1.0,-1.0,-1.0,-3.0
1.6951618729910313e+18,2.0,-1.0,0.0,0.0,-2.0,-1.0,0.0,-1.0
1.6951618729910313e+18,-3.0,-1.0,-2.0,-1.0,0.0,0.0,-1.0,-2.0
1.695161873012015e+18,-1.0,0.0,1.0,-1.0,-2.0,1.0,-2.0,-1.0
1.695161873012015e+18,-2.0,-2.0,0.0,2.0,1.0,-1.0,1.0,1.0
1.695161873012015e+18,-1.0,0.0,0.0,-1.0,0.0,0.0,0.0,-1.0
1.6951618730130214e+18,0.0,-5.0,3.0,1.0,1.0,-1.0,0.0,1.0
1.695161873034006e+18,1.0,-1.0,-1.0,1.0,0.0,0.0,0.0,-1.0
1.6951618730350054e+18,-1.0,-3.0,3.0,0.0,-1.0,0.0,0.0,-1.0
1.6951618730350054e+18,-1.0,-1.0,-2.0,-3.0,-3.0,0.0,-1.0,1.0
1.6951618730350054e+18,-3.0,-4.0,0.0,-1.0,0.0,-1.0,-1.0,-1.0
1.6951618730489976e+18,-1.0,-3.0,3.0,-1.0,0.0,-1.0,1.0,1.0
1.6951618730489976e+18,0.0,1.0,-2.0,-2.0,1.0,0.0,0.0,-1.0
1.6951618730639857e+18,-2.0,-3.0,-1.0,-1.0,1.0,-1.0,-1.0,-3.0
1.695161873067985e+18,1.0,-2.0,1.0,-1.0,-1.0,-1.0,0.0,0.0
1.6951618730939676e+18,-1.0,-2.0,0.0,0.0,-1.0,-1.0,-1.0,0.0
1.6951618730939676e+18,-2.0,-1.0,1.0,1.0,0.0,-1.0,-1.0,-1.0
1.695161873103962e+18,0.0,-2.0,-1.0,2.0,0.0,0.0,-1.0,1.0
1.695161873103962e+18,-1.0,-4.0,0.0,-1.0,-1.0,0.0,-1.0,1.0
1.6951618731049646e+18,-1.0,0.0,-1.0,0.0,-1.0,-2.0,-1.0,0.0
1.6951618731059615e+18,-1.0,-2.0,1.0,-1.0,1.0,-1.0,-1.0,0.0
1.6951618731059615e+18,-1.0,-2.0,2.0,0.0,1.0,0.0,0.0,-1.0
1.6951618731069614e+18,0.0,-2.0,-1.0,1.0,0.0,-2.0,0.0,0.0
1.6951618731169577e+18,0.0,-3.0,0.0,1.0,-1.0,-1.0,-1.0,0.0
1.6951618731169577e+18,1.0,-1.0,-2.0,-2.0,-1.0,-2.0,-3.0,-1.0
1.6951618731169577e+18,-1.0,0.0,-1.0,-3.0,-2.0,0.0,-1.0,1.0
1.6951618731179566e+18,-1.0,-2.0,1.0,0.0,1.0,-1.0,0.0,-1.0
1.69516187313195e+18,-1.0,-2.0,1.0,-1.0,-1.0,-1.0,-1.0,0.0
1.69516187313195e+18,0.0,-3.0,1.0,0.0,-1.0,-1.0,-1.0,0.0
1.6951618731399444e+18,1.0,-1.0,-2.0,-1.0,0.0,-1.0,-1.0,-1.0
1.6951618731399444e+18,0.0,-2.0,-1.0,-2.0,-2.0,0.0,-1.0,-2.0
1.6951618731549335e+18,-2.0,-2.0,-1.0,0.0,-1.0,-2.0,-1.0,0.0
1.6951618731549335e+18,-2.0,0.0,0.0,-1.0,-1.0,-1.0,0.0,-2.0
1.6951618731549335e+18,-4.0,1.0,0.0,-2.0,-1.0,0.0,0.0,-3.0
1.6951618731549335e+18,0.0,-3.0,0.0,2.0,0.0,0.0,0.0,-3.0
1.6951618731719237e+18,0.0,-1.0,-2.0,-3.0,-1.0,0.0,0.0,-1.0
1.6951618731719237e+18,0.0,-3.0,-1.0,-1.0,0.0,-1.0,0.0,1.0
1.6951618731719237e+18,-1.0,-3.0,-2.0,-1.0,-1.0,-3.0,0.0,-1.0
1.695161873172924e+18,-1.0,0.0,0.0,0.0,0.0,-1.0,0.0,0.0
1.6951618731919122e+18,1.0,0.0,0.0,-2.0,0.0,-1.0,0.0,-2.0
1.6951618731919122e+18,-1.0,0.0,0.0,1.0,-2.0,-1.0,-2.0,-1.0
1.695161873192912e+18,-3.0,-2.0,-4.0,-1.0,1.0,0.0,-1.0,0.0
1.695161873192912e+18,-2.0,-1.0,-2.0,-2.0,0.0,0.0,-2.0,0.0
1.6951618732198979e+18,0.0,-1.0,-2.0,1.0,-2.0,-1.0,0.0,0.0
1.6951618732198979e+18,1.0,0.0,1.0,0.0,-1.0,0.0,0.0,-1.0
1.6951618732198979e+18,-1.0,0.0,1.0,-1.0,0.0,1.0,-1.0,-1.0
1.6951618732198979e+18,-3.0,0.0,-1.0,-2.0,-1.0,-1.0,-2.0,-1.0
1.6951618732288904e+18,0.0,-1.0,0.0,-1.0,0.0,-1.0,-2.0,0.0
1.695161873229891e+18,-1.0,0.0,-2.0,-3.0,-1.0,-1.0,0.0,-2.0
1.695161873229891e+18,-1.0,-2.0,0.0,2.0,-1.0,-1.0,0.0,-1.0
1.695161873229891e+18,-1.0,0.0,-1.0,0.0,-2.0,-1.0,0.0,-2.0
1.6951618732518774e+18,0.0,-2.0,-2.0,0.0,-2.0,1.0,-2.0,-1.0
1.6951618732518774e+18,0.0,-3.0,-1.0,0.0,0.0,-2.0,0.0,-2.0
1.6951618732528783e+18,1.0,-1.0,0.0,-2.0,-1.0,-1.0,-1.0,0.0
1.6951618732528783e+18,-1.0,1.0,-2.0,-1.0,-1.0,-1.0,0.0,-1.0
1.6951618732748667e+18,-1.0,-1.0,0.0,-1.0,-1.0,-1.0,-1.0,1.0
1.6951618732748667e+18,-2.0,-1.0,-1.0,0.0,-2.0,-1.0,-1.0,1.0
1.6951618732748667e+18,-1.0,-1.0,-2.0,-1.0,-1.0,-2.0,0.0,0.0
1.6951618732758643e+18,-3.0,0.0,0.0,2.0,-2.0,-1.0,1.0,1.0
1.6951618732898568e+18,0.0,1.0,-1.0,-3.0,0.0,-2.0,-1.0,-3.0
1.6951618732898568e+18,0.0,-2.0,-2.0,-2.0,-2.0,0.0,0.0,-1.0
1.695161873290856e+18,1.0,-1.0,3.0,4.0,1.0,-1.0,-1.0,-2.0
1.695161873290856e+18,1.0,-2.0,-1.0,-1.0,-1.0,-1.0,0.0,1.0
1.6951618733118444e+18,-1.0,0.0,-2.0,-2.0,0.0,-1.0,-1.0,0.0
1.6951618733118444e+18,-1.0,-1.0,0.0,-2.0,0.0,0.0,1.0,-1.0
1.6951618733198405e+18,-1.0,-1.0,-2.0,-2.0,-2.0,-1.0,-1.0,-4.0
1.6951618733218376e+18,-1.0,-1.0,0.0,1.0,-1.0,-1.0,0.0,-2.0
1.695161873325836e+18,0.0,1.0,0.0,-1.0,-1.0,1.0,-1.0,-1.0
1.6951618733268352e+18,-1.0,-1.0,2.0,3.0,0.0,-1.0,0.0,-1.0
1.695161873333831e+18,-1.0,-2.0,-3.0,-3.0,-1.0,-1.0,-1.0,1.0
1.695161873333831e+18,0.0,-2.0,-1.0,0.0,-2.0,-2.0,1.0,0.0
1.6951618733588183e+18,-2.0,0.0,0.0,-3.0,-1.0,-2.0,0.0,0.0
1.6951618733658138e+18,0.0,-2.0,-3.0,-1.0,-2.0,-1.0,-1.0,1.0
1.695161873366813e+18,-1.0,-2.0,1.0,-1.0,-2.0,0.0,-1.0,-1.0
1.6951618733678118e+18,0.0,-1.0,-1.0,-3.0,1.0,-2.0,-1.0,0.0
1.6951618733718085e+18,-1.0,-1.0,-2.0,0.0,0.0,-3.0,0.0,-1.0
1.6951618733718085e+18,-1.0,0.0,-1.0,-1.0,1.0,-2.0,0.0,-1.0
1.6951618733728092e+18,0.0,-1.0,-1.0,-3.0,-1.0,-2.0,0.0,0.0
1.6951618733728092e+18,-2.0,1.0,-2.0,-2.0,1.0,2.0,-2.0,-3.0
1.6951618733947978e+18,-1.0,0.0,1.0,2.0,-1.0,-1.0,0.0,0.0
1.6951618733957957e+18,-1.0,-1.0,-1.0,0.0,-3.0,0.0,-3.0,0.0
1.6951618733957957e+18,0.0,-1.0,-1.0,0.0,0.0,-1.0,1.0,0.0
1.6951618733957957e+18,0.0,-2.0,1.0,-1.0,-2.0,-3.0,-1.0,1.0
1.6951618734097874e+18,-2.0,-2.0,2.0,1.0,0.0,0.0,0.0,0.0
1.6951618734097874e+18,1.0,-1.0,-2.0,-1.0,0.0,-1.0,-2.0,-2.0
1.6951618734097874e+18,-1.0,0.0,-2.0,-1.0,0.0,-3.0,-3.0,1.0
1.6951618734107868e+18,1.0,-1.0,-1.0,0.0,0.0,0.0,-1.0,-1.0
1.6951618734317755e+18,2.0,1.0,-2.0,-1.0,0.0,3.0,0.0,-1.0
1.6951618734317755e+18,0.0,-1.0,0.0,-3.0,-2.0,-1.0,-1.0,-2.0
1.6951618734327741e+18,-1.0,-2.0,0.0,3.0,0.0,0.0,0.0,1.0
1.6951618734327741e+18,-1.0,-2.0,-1.0,-3.0,0.0,-1.0,-1.0,0.0
1.6951618734537613e+18,0.0,-1.0,5.0,0.0,1.0,-2.0,-1.0,-2.0
1.6951618734547638e+18,-3.0,0.0,-4.0,1.0,1.0,0.0,-2.0,-1.0
1.6951618734547638e+18,-1.0,-1.0,-4.0,-3.0,-2.0,0.0,-2.0,-2.0
1.695161873455764e+18,-2.0,0.0,1.0,1.0,-1.0,0.0,-1.0,-1.0
1.695161873470753e+18,-1.0,-1.0,-3.0,-3.0,-1.0,-3.0,-1.0,-1.0
1.695161873470753e+18,-2.0,0.0,1.0,-3.0,-1.0,0.0,0.0,0.0
1.6951618734717524e+18,0.0,-1.0,2.0,0.0,0.0,0.0,0.0,0.0
1.6951618734717524e+18,0.0,-1.0,-1.0,0.0,-2.0,0.0,1.0,-1.0
1.6951618734917427e+18,-1.0,-2.0,0.0,0.0,-1.0,0.0,0.0,-2.0
1.6951618734917427e+18,1.0,0.0,-1.0,1.0,0.0,-1.0,-1.0,-1.0
1.69516187349274e+18,0.0,1.0,0.0,-1.0,0.0,-2.0,-1.0,-1.0
1.69516187349274e+18,0.0,1.0,-1.0,-2.0,-1.0,-1.0,0.0,0.0
1.6951618735147277e+18,-1.0,-2.0,-2.0,-1.0,0.0,-2.0,-2.0,0.0
1.6951618735147277e+18,0.0,-1.0,-2.0,0.0,-1.0,-1.0,0.0,0.0
1.6951618735227228e+18,-1.0,0.0,1.0,0.0,-1.0,0.0,0.0,-2.0
1.6951618735227228e+18,0.0,-1.0,-2.0,-3.0,1.0,-1.0,-2.0,0.0
1.695161873530718e+18,-2.0,-2.0,-3.0,-1.0,-3.0,0.0,1.0,-1.0
1.695161873530718e+18,-1.0,-1.0,-1.0,0.0,-1.0,-1.0,-2.0,0.0
1.695161873531717e+18,-1.0,-1.0,-1.0,-1.0,-3.0,-1.0,-2.0,-2.0
1.695161873531717e+18,-1.0,-1.0,-1.0,2.0,-1.0,-2.0,0.0,-1.0
1.6951618735517056e+18,-1.0,-1.0,-1.0,-4.0,-2.0,-1.0,1.0,-2.0
1.6951618735517056e+18,0.0,0.0,2.0,4.0,-1.0,2.0,-3.0,0.0
1.6951618735527055e+18,0.0,-1.0,-2.0,-2.0,0.0,-2.0,0.0,0.0
1.6951618735527055e+18,-1.0,0.0,0.0,-2.0,0.0,-1.0,-2.0,-1.0
1.6951618735827054e+18,0.0,0.0,-1.0,-1.0,-1.0,0.0,-1.0,0.0
1.6951618735827054e+18,-1.0,-1.0,0.0,-2.0,-1.0,0.0,0.0,-1.0
1.6951618735827054e+18,1.0,1.0,0.0,0.0,0.0,-1.0,0.0,-1.0
1.695161873583711e+18,0.0,0.0,-1.0,1.0,0.0,0.0,1.0,0.0
1.6951618736036767e+18,-1.0,-1.0,-2.0,0.0,-1.0,-3.0,-2.0,-2.0
1.6951618736046764e+18,-1.0,-2.0,-2.0,0.0,0.0,-1.0,-1.0,1.0
1.6951618736126707e+18,-2.0,-2.0,-1.0,1.0,-1.0,2.0,2.0,2.0
1.6951618736126707e+18,1.0,0.0,-2.0,0.0,2.0,1.0,2.0,1.0
1.6951618736146934e+18,1.0,2.0,1.0,1.0,1.0,2.0,-1.0,2.0
1.6951618736146934e+18,2.0,1.0,1.0,0.0,1.0,-1.0,-1.0,-2.0
1.695161873615669e+18,0.0,1.0,1.0,-2.0,0.0,-2.0,0.0,-2.0
1.695161873615669e+18,2.0,0.0,-1.0,-1.0,-2.0,-1.0,0.0,0.0
1.69516187363466e+18,-1.0,-2.0,0.0,0.0,-1.0,-1.0,0.0,-2.0
1.69516187363466e+18,0.0,0.0,0.0,-2.0,-1.0,0.0,0.0,-1.0
1.69516187363466e+18,0.0,-1.0,0.0,-2.0,1.0,-1.0,0.0,0.0
1.695161873635658e+18,-1.0,-1.0,0.0,-2.0,-2.0,0.0,0.0,-1.0
1.6951618736496535e+18,-1.0,-1.0,-1.0,-1.0,0.0,1.0,0.0,0.0
1.6951618736496535e+18,-1.0,-1.0,1.0,-2.0,-2.0,-1.0,-1.0,0.0
1.6951618736506537e+18,-1.0,0.0,-3.0,-1.0,-1.0,-1.0,-1.0,-1.0
1.6951618736506537e+18,1.0,-1.0,-1.0,-1.0,-1.0,-1.0,-1.0,-1.0
1.6951618736716398e+18,-1.0,2.0,0.0,2.0,-1.0,-3.0,0.0,2.0
1.6951618736716398e+18,0.0,0.0,-1.0,-1.0,-1.0,-2.0,-1.0,0.0
1.6951618736726372e+18,0.0,0.0,-1.0,0.0,0.0,-1.0,-2.0,-1.0
1.6951618736726372e+18,-2.0,-1.0,0.0,1.0,1.0,-1.0,-2.0,-1.0
1.695161873695547e+18,0.0,-1.0,1.0,-2.0,-2.0,0.0,-1.0,-1.0
1.695161873695547e+18,-1.0,-2.0,1.0,-2.0,-1.0,0.0,1.0,-2.0
1.6951618736965542e+18,0.0,-3.0,1.0,-2.0,-1.0,-2.0,-2.0,-1.0
1.6951618736965542e+18,0.0,-1.0,-2.0,-2.0,0.0,0.0,0.0,0.0
1.695161873710897e+18,-2.0,-1.0,0.0,2.0,0.0,-1.0,-2.0,0.0
1.695161873710897e+18,1.0,-1.0,-2.0,-1.0,1.0,0.0,-1.0,0.0
1.6951618737118994e+18,-1.0,-1.0,1.0,-1.0,-1.0,1.0,-1.0,-2.0
1.6951618737118994e+18,-2.0,-1.0,0.0,0.0,0.0,0.0,-1.0,-2.0
1.6951618737318863e+18,0.0,-1.0,-1.0,-4.0,0.0,-1.0,-1.0,0.0
1.6951618737318863e+18,-1.0,-1.0,0.0,-1.0,-2.0,-1.0,0.0,-2.0
1.6951618737328852e+18,-1.0,0.0,0.0,6.0,-1.0,0.0,0.0,-1.0
1.6951618737328852e+18,0.0,0.0,1.0,-1.0,-2.0,1.0,-2.0,0.0
1.695161873754597e+18,1.0,0.0,-1.0,1.0,-1.0,0.0,-2.0,0.0
1.695161873754597e+18,0.0,-1.0,0.0,-2.0,0.0,1.0,-1.0,0.0
1.695161873754597e+18,0.0,-2.0,-2.0,-2.0,-1.0,-1.0,-2.0,0.0
1.695161873755579e+18,-2.0,-3.0,-1.0,-1.0,-1.0,-2.0,0.0,0.0
1.6951618737695432e+18,1.0,-1.0,0.0,-1.0,-1.0,0.0,2.0,-1.0
1.6951618737695432e+18,0.0,0.0,-2.0,0.0,-2.0,-1.0,0.0,0.0
1.6951618737695432e+18,-3.0,0.0,-1.0,-1.0,0.0,-1.0,1.0,-1.0
1.6951618737705444e+18,-1.0,-1.0,0.0,1.0,-1.0,0.0,0.0,-1.0
1.6951618738075423e+18,-2.0,0.0,0.0,-1.0,1.0,0.0,-2.0,-1.0
1.6951618738075423e+18,0.0,-2.0,-1.0,-2.0,-1.0,-1.0,-1.0,0.0
1.6951618738085422e+18,0.0,0.0,1.0,1.0,0.0,-2.0,1.0,-1.0
1.6951618738085422e+18,-2.0,0.0,-2.0,-2.0,-1.0,-1.0,-1.0,-1.0
1.695161873816561e+18,-3.0,-2.0,-1.0,3.0,1.0,-1.0,1.0,0.0
1.695161873816561e+18,-2.0,-1.0,0.0,-1.0,-1.0,-2.0,0.0,1.0
1.69516187381754e+18,-2.0,-1.0,-1.0,0.0,-2.0,-1.0,-2.0,-1.0
1.69516187381754e+18,-1.0,-1.0,0.0,-2.0,0.0,0.0,-1.0,0.0
1.69516187382853e+18,0.0,0.0,0.0,-4.0,-3.0,-1.0,-2.0,-2.0
1.695161873829537e+18,0.0,0.0,-2.0,-2.0,-1.0,-1.0,0.0,-2.0
1.6951618738368005e+18,0.0,-1.0,-2.0,-2.0,-3.0,-3.0,-1.0,0.0
1.6951618738368005e+18,-1.0,1.0,-1.0,0.0,-2.0,-2.0,-1.0,-1.0
1.6951618738605852e+18,-2.0,-1.0,-1.0,1.0,0.0,2.0,1.0,0.0
1.6951618738615862e+18,-1.0,0.0,-1.0,1.0,1.0,0.0,3.0,0.0
1.695161873862585e+18,0.0,-2.0,-1.0,-2.0,-2.0,0.0,-3.0,0.0
1.695161873862585e+18,0.0,0.0,-1.0,0.0,-1.0,-2.0,-1.0,-2.0
1.695161873875666e+18,-1.0,-2.0,-1.0,-3.0,1.0,0.0,0.0,-2.0
1.695161873875666e+18,-2.0,0.0,-3.0,-4.0,-7.0,-4.0,-2.0,-2.0
1.6951618738766643e+18,0.0,0.0,-1.0,0.0,-1.0,-6.0,0.0,-1.0
1.6951618738766643e+18,-1.0,-1.0,-1.0,0.0,2.0,3.0,-2.0,0.0
1.6951618738936632e+18,2.0,-2.0,0.0,3.0,1.0,5.0,2.0,-1.0
1.6951618738946588e+18,0.0,-1.0,1.0,1.0,-1.0,-4.0,0.0,-1.0
1.6951618738946588e+18,0.0,-1.0,-1.0,-3.0,1.0,6.0,0.0,0.0
1.69516187389566e+18,-1.0,0.0,-2.0,-1.0,-3.0,-5.0,-3.0,-1.0
1.6951618739206382e+18,0.0,-1.0,-2.0,-1.0,-1.0,-5.0,-2.0,-1.0
1.695161873922639e+18,1.0,-2.0,3.0,-1.0,-1.0,0.0,0.0,-1.0
1.695161873923637e+18,-1.0,-1.0,-4.0,-4.0,-2.0,0.0,0.0,0.0
1.6951618739246377e+18,0.0,-2.0,2.0,4.0,2.0,1.0,3.0,-1.0
1.69516187393463e+18,-1.0,-2.0,-2.0,-1.0,-1.0,-3.0,-1.0,-1.0
1.69516187393563e+18,0.0,-2.0,-3.0,1.0,4.0,-1.0,-3.0,0.0
1.695161873936629e+18,0.0,0.0,-1.0,1.0,0.0,-1.0,2.0,0.0
1.6951618739376353e+18,-2.0,-1.0,-1.0,-7.0,-1.0,1.0,-1.0,-1.0
1.6951618739496215e+18,-1.0,0.0,1.0,2.0,-2.0,-4.0,-3.0,-3.0
1.695161873950623e+18,0.0,0.0,1.0,0.0,-1.0,-1.0,-2.0,-2.0
1.695161873950623e+18,0.0,1.0,-1.0,2.0,2.0,0.0,2.0,0.0
1.69516187395162e+18,-2.0,-4.0,-2.0,0.0,-1.0,-1.0,-1.0,0.0
1.6951618739746163e+18,1.0,-2.0,-2.0,-6.0,-4.0,-3.0,-1.0,-1.0
1.695161873975607e+18,-1.0,0.0,-1.0,-2.0,-5.0,-4.0,-4.0,-1.0
1.695161873975607e+18,-1.0,-1.0,-1.0,-1.0,1.0,-7.0,-2.0,-2.0
1.6951618739885988e+18,0.0,1.0,0.0,3.0,1.0,6.0,4.0,1.0
1.6951618739955945e+18,-1.0,0.0,1.0,-5.0,-3.0,-5.0,-4.0,0.0
1.6951618739966313e+18,-2.0,-3.0,1.0,10.0,6.0,15.0,-4.0,1.0
1.6951618739966313e+18,1.0,0.0,1.0,0.0,-6.0,-2.0,7.0,1.0
1.6951618739966313e+18,0.0,-2.0,-1.0,-2.0,-6.0,-3.0,-4.0,-2.0
1.6951618740095918e+18,-2.0,-1.0,-2.0,-2.0,7.0,0.0,-1.0,0.0
1.6951618740095918e+18,-1.0,-1.0,-2.0,0.0,-3.0,-9.0,-3.0,-4.0
1.6951618740175846e+18,-1.0,0.0,1.0,0.0,7.0,10.0,12.0,1.0
1.695161874018582e+18,-1.0,-3.0,-4.0,-3.0,-7.0,-13.0,-10.0,-4.0
1.695161874044567e+18,-3.0,-1.0,-1.0,1.0,-7.0,-3.0,-9.0,-3.0
1.695161874044567e+18,-2.0,1.0,-2.0,-3.0,3.0,-12.0,-31.0,-10.0
1.6951618740455667e+18,-1.0,-4.0,0.0,0.0,-2.0,-3.0,8.0,8.0
1.6951618740455667e+18,1.0,5.0,2.0,-1.0,2.0,6.0,5.0,-3.0
1.6951618740635553e+18,-2.0,-3.0,-2.0,-2.0,5.0,7.0,0.0,6.0
1.6951618740635553e+18,4.0,3.0,-2.0,-1.0,0.0,4.0,23.0,0.0
1.6951618740645545e+18,-4.0,-12.0,-3.0,-3.0,-1.0,2.0,-16.0,3.0
1.6951618740645545e+18,0.0,4.0,2.0,2.0,-2.0,-10.0,-6.0,-19.0
1.69516187407555e+18,-9.0,-17.0,-4.0,-2.0,-3.0,-2.0,-2.0,0.0
1.695161874076548e+18,3.0,-5.0,0.0,5.0,8.0,-1.0,0.0,-4.0
1.6951618740845463e+18,7.0,28.0,0.0,-9.0,-11.0,-10.0,1.0,-4.0
1.6951618740855434e+18,-18.0,-11.0,0.0,0.0,-3.0,-4.0,-5.0,-9.0
1.695161874107531e+18,22.0,45.0,11.0,10.0,0.0,0.0,-16.0,14.0
1.695161874107531e+18,-22.0,-49.0,-13.0,-8.0,-4.0,2.0,-9.0,-2.0
1.6951618741085286e+18,-3.0,-6.0,-3.0,-1.0,3.0,2.0,-9.0,-5.0
1.6951618741085286e+18,6.0,12.0,0.0,-4.0,-2.0,5.0,7.0,10.0
1.695161874114529e+18,-12.0,-28.0,-3.0,4.0,-6.0,-6.0,-2.0,4.0
1.695161874114529e+18,4.0,24.0,6.0,2.0,2.0,-3.0,17.0,-6.0
1.695161874114529e+18,-16.0,3.0,3.0,0.0,5.0,10.0,-6.0,-12.0
1.6951618741155287e+18,4.0,-30.0,-4.0,-4.0,1.0,11.0,30.0,9.0
1.6951618741285192e+18,-52.0,4.0,-5.0,-8.0,-4.0,-7.0,-32.0,-53.0
1.6951618741285192e+18,25.0,0.0,0.0,-1.0,-9.0,-6.0,-8.0,59.0
1.6951618741395167e+18,32.0,-3.0,-1.0,8.0,4.0,6.0,40.0,26.0
1.6951618741405343e+18,-10.0,29.0,5.0,3.0,11.0,10.0,5.0,-55.0
1.6951618741515274e+18,8.0,-16.0,-5.0,-13.0,-11.0,-11.0,26.0,47.0
1.6951618741525028e+18,-25.0,-10.0,2.0,0.0,0.0,4.0,-3.0,-69.0
1.6951618741525028e+18,5.0,-22.0,-1.0,-3.0,-5.0,-4.0,-21.0,57.0
1.6951618741525028e+18,13.0,0.0,-1.0,2.0,0.0,-5.0,-11.0,15.0
1.695161874175492e+18,24.0,-5.0,0.0,6.0,7.0,10.0,22.0,-55.0
1.695161874175492e+18,-16.0,16.0,-1.0,-7.0,-8.0,-10.0,-37.0,18.0
1.695161874175492e+18,13.0,-8.0,-1.0,-6.0,-6.0,4.0,26.0,7.0
1.695161874175492e+18,3.0,-2.0,-3.0,-1.0,2.0,-5.0,-5.0,-9.0
1.695161874188484e+18,1.0,-3.0,-7.0,-2.0,4.0,10.0,27.0,23.0
1.6951618741894825e+18,8.0,20.0,2.0,3.0,2.0,0.0,-25.0,-25.0
1.6951618742054748e+18,3.0,0.0,1.0,0.0,-2.0,1.0,3.0,0.0
1.695161874206473e+18,-7.0,-3.0,-4.0,-9.0,-10.0,-11.0,-13.0,41.0
1.6951618742134687e+18,-31.0,-6.0,-3.0,-1.0,5.0,7.0,2.0,-58.0
1.6951618742144686e+18,14.0,-20.0,-5.0,-5.0,-5.0,-18.0,-23.0,34.0
1.6951618742144686e+18,2.0,14.0,9.0,5.0,7.0,14.0,40.0,-43.0
1.6951618742144686e+18,3.0,9.0,-3.0,2.0,-2.0,-7.0,-29.0,46.0
1.695161874234458e+18,26.0,16.0,4.0,5.0,1.0,7.0,10.0,40.0
1.695161874234458e+18,-12.0,-24.0,-12.0,2.0,-1.0,4.0,14.0,-8.0
1.695161874234458e+18,-20.0,5.0,-4.0,-16.0,-4.0,-12.0,-24.0,-32.0
1.6951618742354604e+18,-2.0,-26.0,-3.0,2.0,-4.0,-6.0,-4.0,-23.0
1.6951618742484493e+18,-22.0,23.0,6.0,0.0,3.0,-1.0,22.0,6.0
1.6951618742494482e+18,7.0,-2.0,6.0,13.0,4.0,1.0,-14.0,-5.0
1.6951618742644454e+18,-22.0,1.0,-1.0,6.0,6.0,6.0,-5.0,-30.0
1.6951618742644454e+18,22.0,30.0,9.0,1.0,1.0,0.0,-24.0,17.0
1.6951618742714368e+18,1.0,-14.0,-8.0,-10.0,-10.0,2.0,41.0,23.0
1.6951618742714368e+18,27.0,20.0,16.0,3.0,10.0,-2.0,2.0,9.0
1.6951618742724347e+18,-45.0,-14.0,-4.0,4.0,2.0,-13.0,-23.0,-12.0
1.6951618742724347e+18,3.0,-6.0,-1.0,3.0,7.0,18.0,36.0,-67.0
1.695161874302417e+18,3.0,-8.0,-3.0,-3.0,-9.0,-9.0,-23.0,30.0
1.695161874302417e+18,-6.0,14.0,-4.0,-10.0,-7.0,2.0,6.0,-49.0
1.6951618743034168e+18,17.0,-14.0,-4.0,-4.0,-11.0,-9.0,-14.0,87.0
1.6951618743034168e+18,-20.0,-6.0,0.0,9.0,3.0,-3.0,28.0,3.0
1.6951618743174083e+18,-37.0,-13.0,-5.0,-19.0,-12.0,-32.0,-85.0,-30.0
1.6951618743184082e+18,0.0,-8.0,-2.0,3.0,-1.0,8.0,57.0,-28.0
1.6951618743184082e+18,22.0,20.0,-2.0,-6.0,-1.0,-8.0,-29.0,16.0
1.6951618743184082e+18,-5.0,-4.0,-5.0,3.0,-4.0,-5.0,-49.0,-14.0
1.6951618743424187e+18,41.0,-15.0,-1.0,-8.0,-2.0,8.0,32.0,-13.0
1.6951618743424187e+18,-43.0,-1.0,-12.0,-8.0,-7.0,-5.0,-21.0,-51.0
1.6951618743424187e+18,-8.0,9.0,2.0,0.0,-2.0,-13.0,3.0,41.0
1.6951618743424187e+18,11.0,-18.0,-6.0,-1.0,-1.0,7.0,7.0,-26.0
1.6951618743623985e+18,53.0,20.0,9.0,18.0,16.0,21.0,23.0,85.0
1.6951618743623985e+18,-14.0,-2.0,-6.0,-11.0,-9.0,-1.0,17.0,-27.0
1.695161874363383e+18,17.0,-13.0,0.0,6.0,2.0,13.0,38.0,9.0
1.695161874363383e+18,13.0,-1.0,0.0,-7.0,-4.0,-8.0,-18.0,-38.0
1.6951618743776195e+18,-56.0,-5.0,1.0,10.0,-1.0,-16.0,-83.0,6.0
1.6951618743786235e+18,18.0,-7.0,-4.0,-12.0,-2.0,4.0,7.0,36.0
1.6951618743786235e+18,-36.0,-2.0,1.0,5.0,5.0,13.0,20.0,-60.0
1.6951618743786235e+18,29.0,28.0,10.0,3.0,5.0,4.0,16.0,72.0
1.6951618743923948e+18,6.0,6.0,-5.0,-4.0,6.0,9.0,50.0,-25.0
1.6951618743923948e+18,12.0,10.0,5.0,21.0,12.0,0.0,3.0,30.0
1.6951618743923948e+18,-2.0,-6.0,-2.0,-16.0,-15.0,-25.0,-67.0,-56.0
1.695161874393427e+18,-20.0,1.0,0.0,-3.0,0.0,5.0,22.0,34.0
1.6951618744155497e+18,2.0,9.0,7.0,4.0,-3.0,-16.0,-22.0,-67.0
1.6951618744155497e+18,-23.0,3.0,-17.0,-5.0,3.0,12.0,-2.0,61.0
1.6951618744165494e+18,-23.0,-10.0,-3.0,6.0,0.0,0.0,22.0,-14.0
1.6951618744175534e+18,-44.0,-15.0,-15.0,-14.0,-12.0,-15.0,-15.0,-24.0
1.695161874428548e+18,-16.0,-5.0,3.0,1.0,11.0,23.0,22.0,-12.0
1.6951618744295427e+18,36.0,-4.0,4.0,-13.0,3.0,16.0,10.0,-29.0
1.6951618744455332e+18,41.0,11.0,-9.0,-2.0,-8.0,-27.0,-19.0,37.0
1.695161874446531e+18,11.0,18.0,22.0,8.0,0.0,11.0,1.0,6.0
1.6951618744525297e+18,12.0,-39.0,-9.0,5.0,-1.0,-12.0,-22.0,-10.0
1.6951618744535332e+18,-15.0,8.0,3.0,9.0,3.0,10.0,35.0,28.0
1.6951618744535332e+18,7.0,13.0,3.0,2.0,13.0,26.0,4.0,-50.0
1.6951618744535332e+18,8.0,-3.0,-12.0,-4.0,-8.0,-12.0,-2.0,-7.0
1.6951618744935055e+18,34.0,8.0,1.0,-6.0,0.0,21.0,48.0,29.0
1.6951618744935055e+18,32.0,-4.0,2.0,-3.0,-12.0,-30.0,-50.0,1.0
1.6951618744935055e+18,-16.0,6.0,4.0,6.0,8.0,10.0,14.0,21.0
1.6951618745044982e+18,-46.0,-24.0,-9.0,-7.0,-7.0,-18.0,-9.0,9.0
1.6951618745114944e+18,29.0,6.0,3.0,9.0,3.0,-2.0,26.0,-46.0
1.6951618745134927e+18,-29.0,-18.0,-6.0,-9.0,2.0,19.0,31.0,6.0
1.6951618745134927e+18,-10.0,36.0,6.0,4.0,-3.0,-13.0,-51.0,-8.0
1.6951618745134927e+18,-2.0,-35.0,-10.0,-9.0,7.0,33.0,34.0,-73.0
1.6951618745194877e+18,1.0,12.0,-1.0,5.0,3.0,-5.0,32.0,90.0
1.6951618745194877e+18,10.0,-12.0,9.0,-5.0,-2.0,4.0,-15.0,-53.0
1.6951618745274985e+18,-27.0,-25.0,-7.0,-1.0,-4.0,-3.0,-13.0,-31.0
1.6951618745274985e+18,41.0,43.0,8.0,7.0,6.0,8.0,29.0,19.0
1.6951618745344801e+18,-9.0,3.0,13.0,-1.0,-2.0,0.0,-15.0,55.0
1.6951618745344801e+18,-14.0,7.0,-9.0,19.0,5.0,21.0,55.0,-18.0
1.695161874535479e+18,18.0,-2.0,4.0,-16.0,11.0,14.0,17.0,66.0
1.695161874535479e+18,41.0,12.0,14.0,19.0,-10.0,-36.0,-33.0,36.0
1.6951618745574674e+18,11.0,-7.0,-16.0,-10.0,-4.0,-1.0,-113.0,-49.0
1.6951618745584758e+18,-9.0,8.0,2.0,-7.0,-19.0,-73.0,-5.0,61.0
1.6951618745684605e+18,-21.0,-13.0,0.0,-1.0,-14.0,0.0,7.0,-24.0
1.6951618745684605e+18,-28.0,-14.0,-25.0,-23.0,5.0,43.0,37.0,-22.0
1.6951618745854559e+18,-11.0,4.0,-2.0,10.0,2.0,-15.0,-36.0,-28.0
1.695161874586458e+18,-27.0,-12.0,1.0,5.0,-8.0,-34.0,10.0,50.0
1.695161874586458e+18,67.0,-4.0,-5.0,-2.0,-1.0,-18.0,-6.0,46.0
1.695161874586458e+18,13.0,-4.0,7.0,-5.0,-9.0,-6.0,-50.0,-39.0
1.6951618745954463e+18,30.0,14.0,9.0,-3.0,-4.0,11.0,23.0,22.0
1.6951618745954463e+18,-12.0,-10.0,0.0,-12.0,22.0,68.0,11.0,-38.0
1.6951618745964493e+18,-11.0,-14.0,-12.0,0.0,-11.0,-25.0,-26.0,-8.0
1.6951618745964493e+18,-12.0,-2.0,-5.0,-15.0,-13.0,-32.0,-22.0,27.0
1.6951618746164372e+18,-11.0,0.0,-6.0,4.0,-2.0,-12.0,18.0,-35.0
1.6951618746174323e+18,1.0,11.0,20.0,7.0,-1.0,10.0,-21.0,-13.0
1.6951618746174323e+18,4.0,12.0,2.0,5.0,6.0,5.0,15.0,-3.0
1.6951618746184323e+18,-9.0,-7.0,-5.0,6.0,0.0,4.0,-12.0,-25.0
1.6951618746464212e+18,-40.0,-13.0,-4.0,-13.0,-6.0,5.0,1.0,-46.0
1.6951618746464212e+18,26.0,10.0,-7.0,8.0,7.0,3.0,-2.0,91.0
1.6951618746514148e+18,-16.0,-6.0,-4.0,8.0,6.0,12.0,32.0,-35.0
1.6951618746514148e+18,1.0,13.0,2.0,-14.0,1.0,-13.0,-4.0,11.0
1.6951618746624108e+18,1.0,1.0,1.0,-3.0,-19.0,-8.0,9.0,13.0
1.6951618746624108e+18,2.0,-8.0,-22.0,1.0,-3.0,-17.0,-13.0,-49.0
1.6951618746694024e+18,18.0,24.0,3.0,-4.0,8.0,19.0,33.0,36.0
1.6951618746694024e+18,-23.0,-22.0,-1.0,18.0,0.0,13.0,35.0,6.0
1.6951618746774031e+18,7.0,14.0,2.0,1.0,9.0,1.0,-10.0,11.0
1.6951618746774031e+18,-8.0,-20.0,3.0,-9.0,-4.0,1.0,5.0,-19.0
1.6951618746774031e+18,-10.0,3.0,-3.0,5.0,-15.0,-1.0,-14.0,-29.0
1.6951618746793976e+18,-4.0,-3.0,7.0,-5.0,11.0,-2.0,4.0,21.0
1.6951618746943892e+18,-12.0,-6.0,-4.0,14.0,-4.0,-5.0,-5.0,-18.0
1.6951618746943892e+18,0.0,-3.0,5.0,-10.0,12.0,10.0,30.0,-3.0
1.6951618746943892e+18,3.0,-4.0,-4.0,-16.0,-9.0,-8.0,-35.0,1.0
1.6951618746943892e+18,-1.0,-4.0,2.0,16.0,-5.0,-2.0,6.0,-6.0
1.695161874730367e+18,-2.0,-5.0,-2.0,-15.0,-4.0,-4.0,10.0,17.0
1.695161874730367e+18,9.0,13.0,5.0,22.0,14.0,1.0,-22.0,-16.0
1.695161874731371e+18,0.0,-10.0,2.0,5.0,2.0,0.0,2.0,9.0
1.695161874731371e+18,0.0,2.0,3.0,-4.0,4.0,0.0,-5.0,1.0
1.6951618747543542e+18,-4.0,-1.0,-13.0,-6.0,0.0,2.0,8.0,-6.0
1.6951618747543542e+18,-7.0,1.0,0.0,-8.0,-10.0,-7.0,-13.0,-3.0
1.6951618747543542e+18,3.0,4.0,4.0,3.0,-2.0,-1.0,-2.0,-29.0
1.6951618747553536e+18,-4.0,4.0,-5.0,0.0,1.0,-6.0,-11.0,6.0
1.6951618747563538e+18,-3.0,-15.0,-5.0,-3.0,1.0,1.0,2.0,9.0
1.695161874757352e+18,4.0,-3.0,-2.0,-6.0,-7.0,-3.0,2.0,-3.0
1.6951618747593516e+18,-7.0,-7.0,-3.0,-3.0,-1.0,-1.0,-5.0,-5.0
1.6951618747603535e+18,6.0,11.0,3.0,7.0,13.0,4.0,0.0,5.0
1.6951618747753426e+18,-5.0,2.0,1.0,-3.0,-2.0,-4.0,-13.0,-14.0
1.6951618747763415e+18,7.0,3.0,1.0,2.0,-3.0,-1.0,-2.0,16.0
1.6951618747853453e+18,-3.0,-3.0,2.0,0.0,1.0,4.0,8.0,-2.0
1.6951618747903357e+18,-3.0,-2.0,-2.0,-4.0,-1.0,-4.0,1.0,8.0
1.69516187479733e+18,-4.0,-10.0,-2.0,2.0,1.0,-2.0,-4.0,-16.0
1.6951618747983293e+18,4.0,6.0,0.0,-2.0,-5.0,-4.0,-6.0,9.0
1.695161874799333e+18,-4.0,-3.0,1.0,1.0,2.0,3.0,3.0,-10.0
1.695161874799333e+18,-1.0,-1.0,-2.0,-4.0,-3.0,-1.0,-5.0,1.0
1.695161874812321e+18,1.0,4.0,0.0,-1.0,0.0,-1.0,0.0,5.0
1.695161874812321e+18,5.0,6.0,1.0,-1.0,-4.0,-2.0,-4.0,1.0
1.695161874812321e+18,-7.0,-7.0,-3.0,-2.0,0.0,-2.0,-1.0,-16.0
1.69516187481332e+18,-4.0,-7.0,-3.0,-3.0,-2.0,0.0,0.0,-2.0
1.6951618748433037e+18,0.0,4.0,3.0,1.0,0.0,-2.0,2.0,2.0
1.6951618748433037e+18,1.0,1.0,-2.0,-5.0,-2.0,-3.0,-5.0,-2.0
1.6951618748443026e+18,-3.0,-6.0,0.0,1.0,0.0,-4.0,-4.0,-2.0
1.6951618748443026e+18,3.0,-2.0,-1.0,1.0,1.0,1.0,1.0,4.0
1.6951618748642908e+18,-3.0,3.0,0.0,-2.0,-1.0,-2.0,0.0,-7.0
1.6951618748642908e+18,-1.0,1.0,-2.0,-3.0,-3.0,-1.0,-6.0,-8.0
1.6951618748642908e+18,-2.0,-5.0,-3.0,-1.0,-1.0,-4.0,-3.0,2.0
1.6951618748653074e+18,6.0,0.0,-2.0,-1.0,-1.0,-1.0,2.0,1.0
1.6951618748732864e+18,-2.0,-1.0,1.0,0.0,1.0,0.0,-2.0,4.0
1.695161874874286e+18,-2.0,0.0,-1.0,-1.0,-1.0,-1.0,-3.0,-9.0
1.695161874874286e+18,0.0,-2.0,-5.0,-8.0,0.0,2.0,1.0,2.0
1.6951618748752847e+18,-3.0,-3.0,2.0,4.0,-1.0,-2.0,-3.0,0.0
1.6951618749022705e+18,4.0,2.0,4.0,6.0,4.0,3.0,-5.0,0.0
1.6951618749022705e+18,-1.0,1.0,-4.0,-3.0,0.0,-1.0,5.0,-3.0
1.695161874911268e+18,1.0,-2.0,0.0,-2.0,-1.0,5.0,-2.0,3.0
1.695161874911268e+18,0.0,2.0,0.0,0.0,-1.0,-3.0,-2.0,0.0
1.6951618749172613e+18,-1.0,-2.0,4.0,-5.0,-2.0,-3.0,-7.0,-4.0
1.6951618749172613e+18,-6.0,0.0,-8.0,-1.0,0.0,-1.0,-4.0,-5.0
1.6951618749182602e+18,2.0,-2.0,-2.0,-6.0,1.0,-1.0,-1.0,3.0
1.6951618749182602e+18,-2.0,-1.0,-4.0,-2.0,-2.0,-3.0,-4.0,-3.0
1.6951618749322547e+18,-4.0,0.0,1.0,6.0,-2.0,2.0,10.0,3.0
1.6951618749332552e+18,2.0,1.0,2.0,-4.0,-4.0,-2.0,-4.0,2.0
1.6951618749562394e+18,-1.0,-2.0,-2.0,4.0,2.0,1.0,2.0,-3.0
1.695161874957238e+18,-5.0,-2.0,3.0,4.0,0.0,-3.0,-5.0,-1.0
1.695161874957238e+18,-1.0,1.0,8.0,7.0,2.0,-1.0,1.0,-6.0
1.6951618749582413e+18,-3.0,-1.0,-3.0,0.0,-2.0,6.0,-2.0,-1.0
1.6951618749622346e+18,0.0,-3.0,-10.0,-8.0,-4.0,-3.0,-1.0,-1.0
1.6951618749622346e+18,-2.0,0.0,-2.0,-14.0,-1.0,-1.0,-1.0,0.0
1.695161874985222e+18,6.0,-1.0,-10.0,-4.0,-2.0,-3.0,1.0,17.0
1.6951618749862213e+18,-5.0,2.0,9.0,13.0,1.0,-3.0,-1.0,-8.0
1.6951618749862213e+18,-2.0,0.0,8.0,7.0,0.0,-1.0,-4.0,-4.0
1.6951618749862213e+18,1.0,7.0,-13.0,-8.0,-4.0,-3.0,0.0,0.0
1.6951618750002373e+18,-2.0,4.0,-7.0,-10.0,-3.0,-2.0,0.0,1.0
1.6951618750002373e+18,0.0,-9.0,-2.0,-4.0,2.0,0.0,0.0,2.0
1.6951618750012132e+18,-1.0,-1.0,-6.0,-6.0,1.0,-2.0,2.0,0.0
1.6951618750012132e+18,-3.0,0.0,9.0,9.0,-3.0,-2.0,-4.0,-4.0
1.6951618750251988e+18,0.0,-7.0,6.0,3.0,-3.0,4.0,1.0,-3.0
1.6951618750251988e+18,3.0,5.0,2.0,3.0,1.0,-3.0,-2.0,-1.0
1.6951618750251988e+18,-3.0,-2.0,-12.0,-9.0,2.0,1.0,1.0,-1.0
1.6951618750251988e+18,1.0,0.0,8.0,3.0,6.0,2.0,0.0,2.0
1.6951618750372014e+18,-6.0,1.0,-12.0,-11.0,-8.0,-8.0,-2.0,-5.0
1.695161875038191e+18,1.0,-5.0,-7.0,-7.0,-4.0,3.0,0.0,-1.0
1.695161875038191e+18,3.0,-1.0,12.0,12.0,2.0,2.0,2.0,4.0
1.695161875038191e+18,1.0,1.0,-8.0,2.0,-2.0,-3.0,-3.0,1.0
1.6951618750521825e+18,-3.0,-1.0,-6.0,-3.0,2.0,0.0,-3.0,-5.0
1.6951618750521825e+18,-1.0,2.0,-3.0,-2.0,0.0,-4.0,0.0,0.0
1.695161875053186e+18,-3.0,4.0,2.0,-2.0,-3.0,-1.0,-1.0,-2.0
1.695161875053186e+18,-1.0,-5.0,-6.0,-6.0,-8.0,-1.0,-1.0,-2.0
1.6951618750751713e+18,-1.0,1.0,8.0,8.0,8.0,1.0,-1.0,-5.0
1.6951618750751713e+18,-2.0,-7.0,-7.0,-4.0,-4.0,-1.0,-1.0,1.0
1.6951618750751713e+18,0.0,-1.0,20.0,7.0,-2.0,-1.0,-2.0,-1.0
1.6951618750761736e+18,0.0,0.0,-18.0,-5.0,1.0,-1.0,2.0,2.0
1.6951618751011607e+18,0.0,-4.0,2.0,-7.0,-6.0,-3.0,-2.0,-2.0
1.6951618751021601e+18,-1.0,5.0,6.0,-4.0,-2.0,-1.0,-2.0,-1.0
1.6951618751021601e+18,0.0,1.0,-9.0,11.0,3.0,1.0,2.0,0.0
1.6951618751021601e+18,0.0,-4.0,13.0,-5.0,-4.0,-2.0,-2.0,-2.0
1.6951618751201467e+18,-1.0,2.0,-16.0,-13.0,-2.0,0.0,-2.0,0.0
1.6951618751201467e+18,0.0,2.0,11.0,9.0,3.0,2.0,0.0,-1.0
1.6951618751211446e+18,-2.0,1.0,3.0,0.0,-2.0,-2.0,0.0,-1.0
1.6951618751211446e+18,0.0,-3.0,1.0,0.0,0.0,-4.0,2.0,0.0
1.6951618751351355e+18,-2.0,-1.0,-3.0,1.0,2.0,11.0,0.0,-1.0
1.6951618751351355e+18,1.0,0.0,-1.0,-4.0,-2.0,-5.0,-2.0,0.0
1.6951618751361403e+18,0.0,-5.0,1.0,-1.0,3.0,-1.0,0.0,1.0
1.6951618751361403e+18,-2.0,2.0,3.0,-4.0,-1.0,-1.0,-2.0,-1.0
1.69516187516312e+18,-2.0,-2.0,-3.0,1.0,-1.0,-3.0,-1.0,-1.0
1.6951618751681216e+18,-2.0,3.0,8.0,1.0,-1.0,1.0,-2.0,0.0
1.695161875169122e+18,0.0,-4.0,-19.0,-15.0,-5.0,-2.0,-1.0,-3.0
1.6951618751701174e+18,-2.0,-4.0,-1.0,7.0,1.0,-1.0,-1.0,0.0
1.695161875172138e+18,0.0,2.0,9.0,-1.0,-5.0,-2.0,-1.0,-2.0
1.695161875172138e+18,0.0,-4.0,-9.0,-3.0,5.0,1.0,0.0,0.0
1.6951618751941018e+18,0.0,0.0,1.0,2.0,1.0,-3.0,0.0,-2.0
1.6951618751941018e+18,0.0,-1.0,-1.0,-2.0,2.0,3.0,1.0,1.0
1.6951618752050967e+18,-1.0,-1.0,2.0,2.0,-2.0,-1.0,0.0,0.0
1.695161875206096e+18,-2.0,0.0,-2.0,0.0,-5.0,-4.0,-3.0,-1.0
1.695161875206096e+18,0.0,-2.0,2.0,0.0,-5.0,-2.0,-1.0,-1.0
1.6951618752070953e+18,-1.0,0.0,-1.0,-2.0,0.0,2.0,1.0,0.0
1.695161875226084e+18,0.0,-2.0,-1.0,1.0,-2.0,-1.0,0.0,-2.0
1.6951618752320837e+18,-2.0,-1.0,-2.0,-2.0,0.0,-1.0,-1.0,-1.0
1.6951618752370826e+18,-1.0,1.0,1.0,-1.0,1.0,-1.0,-3.0,-1.0
1.6951618752370826e+18,-2.0,-2.0,1.0,4.0,0.0,-1.0,-3.0,-1.0
1.6951618752370826e+18,1.0,1.0,3.0,1.0,0.0,-2.0,0.0,-1.0
1.6951618752370826e+18,-1.0,-2.0,-6.0,-3.0,-1.0,0.0,-1.0,-1.0
1.695161875247072e+18,-1.0,0.0,0.0,-1.0,-2.0,0.0,0.0,-2.0
1.695161875247072e+18,-1.0,-2.0,-1.0,-2.0,1.0,0.0,0.0,-1.0
1.6951618752840502e+18,-1.0,0.0,-2.0,0.0,1.0,-1.0,-1.0,-1.0
1.69516187528505e+18,-1.0,-2.0,1.0,-1.0,-1.0,-1.0,-1.0,-1.0
1.69516187528505e+18,-1.0,-2.0,-1.0,0.0,0.0,-1.0,-1.0,0.0
1.69516187528505e+18,0.0,-2.0,-1.0,-3.0,-1.0,1.0,0.0,-1.0
1.69516187528505e+18,-2.0,-1.0,3.0,3.0,3.0,-2.0,0.0,0.0
1.69516187528505e+18,-1.0,-2.0,-4.0,-2.0,-2.0,-2.0,-1.0,-1.0
1.69516187528505e+18,-1.0,-1.0,-1.0,-3.0,-2.0,-2.0,-2.0,0.0
1.69516187528505e+18,0.0,0.0,-1.0,-1.0,0.0,0.0,-1.0,-1.0
1.6951618753130342e+18,0.0,-2.0,-3.0,-3.0,0.0,-1.0,-2.0,0.0
1.6951618753130342e+18,-1.0,0.0,-2.0,-1.0,-1.0,0.0,0.0,1.0
1.6951618753140326e+18,-1.0,-2.0,1.0,-1.0,-2.0,-2.0,-1.0,-2.0
1.6951618753150323e+18,-1.0,-1.0,-2.0,0.0,-1.0,-2.0,1.0,-1.0
1.6951618753210294e+18,0.0,-2.0,-2.0,1.0,-1.0,0.0,0.0,0.0
1.6951618753210294e+18,-1.0,-1.0,-2.0,-2.0,-1.0,0.0,0.0,-2.0
1.6951618753220285e+18,-1.0,-1.0,1.0,-2.0,-2.0,1.0,-2.0,-1.0
1.6951618753220285e+18,-2.0,1.0,0.0,-1.0,-1.0,-1.0,-2.0,-2.0
1.6951618753450176e+18,-1.0,-1.0,-3.0,-1.0,0.0,-2.0,-2.0,-2.0
1.6951618753450176e+18,-1.0,-1.0,-1.0,0.0,-1.0,0.0,-2.0,-2.0
1.6951618753630054e+18,0.0,-2.0,-1.0,-1.0,0.0,-2.0,0.0,0.0
1.6951618753640049e+18,0.0,0.0,-1.0,0.0,-2.0,-2.0,0.0,-1.0
1.6951618753640049e+18,-1.0,0.0,-1.0,0.0,0.0,0.0,0.0,0.0
1.6951618753640049e+18,1.0,0.0,1.0,-1.0,0.0,-1.0,-2.0,0.0
1.6951618753650056e+18,-2.0,1.0,0.0,0.0,-1.0,-1.0,-1.0,-1.0
1.6951618753650056e+18,0.0,-1.0,-1.0,-1.0,0.0,-1.0,-2.0,-2.0
1.6951618753749998e+18,0.0,-1.0,-1.0,-2.0,0.0,-3.0,-1.0,-1.0
1.6951618753760005e+18,0.0,0.0,1.0,1.0,0.0,0.0,-1.0,-1.0
1.6951618753760005e+18,-1.0,-1.0,-2.0,0.0,-1.0,0.0,2.0,2.0
1.6951618753760005e+18,1.0,-2.0,-1.0,0.0,2.0,1.0,-2.0,-1.0
1.6951618753969871e+18,-1.0,-1.0,-1.0,-2.0,-2.0,0.0,0.0,-2.0
1.6951618753969871e+18,-1.0,0.0,-1.0,-1.0,1.0,0.0,0.0,-1.0
1.6951618753969871e+18,-1.0,-1.0,-1.0,-2.0,0.0,-1.0,-2.0,0.0
1.6951618753979901e+18,-1.0,0.0,0.0,-1.0,1.0,0.0,-1.0,1.0
1.6951618754159762e+18,0.0,-1.0,0.0,0.0,-3.0,-1.0,-1.0,0.0
1.6951618754159762e+18,0.0,0.0,-1.0,0.0,-2.0,1.0,0.0,-1.0
1.6951618754189745e+18,0.0,0.0,-1.0,0.0,0.0,0.0,0.0,-1.0
1.6951618754199747e+18,-1.0,0.0,0.0,-1.0,1.0,0.0,2.0,-2.0
1.6951618754339814e+18,-1.0,0.0,-2.0,1.0,1.0,3.0,0.0,1.0
1.6951618754349655e+18,-1.0,-1.0,-3.0,-1.0,-1.0,0.0,-1.0,0.0
1.6951618754349655e+18,-1.0,-2.0,0.0,2.0,0.0,0.0,0.0,-3.0
1.6951618754349655e+18,0.0,-3.0,6.0,-3.0,-1.0,1.0,0.0,-1.0
1.6951618754566497e+18,-1.0,0.0,-7.0,-2.0,-1.0,0.0,-2.0,-2.0
1.6951618754576538e+18,-1.0,-1.0,1.0,1.0,-1.0,-1.0,-1.0,-2.0
1.6951618754576538e+18,-1.0,0.0,-1.0,-3.0,0.0,0.0,-1.0,1.0
1.6951618754576538e+18,0.0,0.0,-2.0,-2.0,-1.0,0.0,0.0,0.0
1.6951618754725522e+18,-2.0,-2.0,0.0,-1.0,0.0,-4.0,-1.0,0.0
1.6951618754725522e+18,-1.0,-1.0,-1.0,-2.0,-2.0,-2.0,0.0,-1.0
1.6951618754795876e+18,0.0,-1.0,-1.0,0.0,-2.0,0.0,0.0,0.0
1.6951618754795876e+18,-2.0,0.0,-1.0,-1.0,-1.0,-2.0,0.0,1.0
1.6951618754947013e+18,-1.0,-1.0,1.0,0.0,0.0,0.0,-1.0,-2.0
1.6951618754947013e+18,-1.0,-1.0,-1.0,0.0,-1.0,-2.0,-1.0,0.0
1.6951618754947013e+18,-1.0,0.0,-1.0,0.0,1.0,0.0,0.0,0.0
1.6951618754947013e+18,-1.0,-3.0,-2.0,0.0,-2.0,-1.0,0.0,-1.0
1.695161875525555e+18,-2.0,-1.0,1.0,2.0,2.0,-1.0,1.0,-1.0
1.695161875525555e+18,-1.0,0.0,0.0,1.0,-1.0,0.0,-1.0,-1.0
1.6951618755265505e+18,-1.0,0.0,-1.0,-3.0,-1.0,-1.0,-1.0,-2.0
1.6951618755265505e+18,-2.0,-1.0,-1.0,3.0,-1.0,1.0,-1.0,1.0
1.6951618755405417e+18,-1.0,-1.0,0.0,-2.0,-1.0,0.0,-2.0,-1.0
1.695161875541542e+18,0.0,-2.0,-1.0,-3.0,0.0,0.0,1.0,-1.0
1.695161875542541e+18,1.0,0.0,-1.0,-2.0,-2.0,-2.0,-3.0,-1.0
1.6951618755435466e+18,0.0,1.0,-1.0,3.0,0.0,-2.0,-1.0,0.0
1.6951618755555459e+18,-2.0,-3.0,1.0,0.0,-2.0,-2.0,-1.0,0.0
1.6951618755565553e+18,1.0,0.0,-1.0,1.0,-1.0,0.0,-2.0,-2.0
1.6951618755565553e+18,-2.0,-2.0,-1.0,-1.0,0.0,-1.0,-2.0,-2.0
1.6951618755565553e+18,0.0,2.0,-1.0,-5.0,-2.0,0.0,0.0,-1.0
1.6951618755775037e+18,0.0,0.0,-3.0,-1.0,-1.0,-1.0,1.0,-1.0
1.6951618755775037e+18,-1.0,1.0,6.0,-1.0,-1.0,-2.0,-1.0,-1.0
1.6951618755785103e+18,-2.0,0.0,-5.0,-1.0,-2.0,-1.0,-1.0,-2.0
1.6951618755785103e+18,-2.0,-2.0,-4.0,0.0,0.0,1.0,0.0,0.0
1.6951618756025213e+18,0.0,-2.0,4.0,3.0,-1.0,-1.0,-2.0,0.0
1.6951618756035213e+18,-1.0,-1.0,-4.0,-1.0,1.0,-3.0,-2.0,1.0
1.6951618756035213e+18,-1.0,0.0,3.0,1.0,-1.0,-2.0,0.0,-1.0
1.6951618756045207e+18,0.0,-2.0,-5.0,-2.0,-1.0,-1.0,0.0,0.0
1.6951618756155126e+18,1.0,4.0,-2.0,-3.0,-2.0,0.0,-2.0,-3.0
1.6951618756165123e+18,-2.0,-1.0,2.0,0.0,-1.0,-1.0,0.0,-1.0
1.6951618756165123e+18,0.0,0.0,-1.0,-1.0,-1.0,0.0,0.0,-1.0
1.695161875617511e+18,-1.0,-6.0,-5.0,-3.0,-1.0,-1.0,-2.0,-2.0
1.6951618756367867e+18,1.0,3.0,6.0,2.0,-1.0,-1.0,-1.0,-1.0
1.6951618756378004e+18,-1.0,-5.0,8.0,2.0,-1.0,3.0,0.0,0.0
1.6951618756378004e+18,-2.0,-3.0,-28.0,-5.0,-2.0,0.0,-1.0,0.0
1.695161875638795e+18,-2.0,1.0,2.0,0.0,0.0,-1.0,-2.0,-2.0
1.695161875661952e+18,-1.0,-2.0,0.0,-2.0,-2.0,-1.0,0.0,-1.0
1.6951618756629514e+18,0.0,0.0,-8.0,0.0,1.0,-1.0,-2.0,-1.0
1.6951618756629514e+18,1.0,4.0,19.0,-1.0,0.0,1.0,-2.0,0.0
1.6951618756639516e+18,-1.0,-4.0,-4.0,-1.0,2.0,0.0,0.0,0.0
1.6951618756749443e+18,-1.0,2.0,8.0,1.0,1.0,0.0,-1.0,1.0
1.6951618756759434e+18,-2.0,1.0,-5.0,-2.0,-2.0,-3.0,-2.0,0.0
1.6951618756759434e+18,0.0,4.0,-4.0,-3.0,-2.0,-1.0,0.0,-2.0
1.6951618756769436e+18,1.0,3.0,4.0,0.0,-3.0,-1.0,-2.0,0.0
1.6951618757139267e+18,-3.0,0.0,-4.0,0.0,2.0,0.0,-2.0,-2.0
1.6951618757309112e+18,-1.0,-3.0,-6.0,-2.0,0.0,-1.0,0.0,-1.0
1.695161875731912e+18,0.0,1.0,4.0,0.0,-2.0,-1.0,0.0,0.0
1.695161875731912e+18,-1.0,0.0,11.0,-1.0,-1.0,-1.0,-1.0,-1.0
1.6951618757329108e+18,-1.0,-5.0,-11.0,-3.0,-1.0,-1.0,0.0,-1.0
1.6951618757329108e+18,0.0,5.0,2.0,-3.0,0.0,-2.0,-1.0,-2.0
1.6951618757359112e+18,2.0,-8.0,0.0,8.0,2.0,0.0,1.0,-1.0
1.6951618757359112e+18,-2.0,3.0,3.0,-1.0,-1.0,0.0,-1.0,-1.0
1.6951618757359112e+18,0.0,-1.0,0.0,-1.0,-3.0,-2.0,-1.0,-2.0
1.6951618757369083e+18,1.0,-2.0,1.0,-1.0,0.0,0.0,-1.0,-1.0
1.6951618757369083e+18,-1.0,0.0,0.0,-2.0,1.0,0.0,0.0,0.0
1.6951618757369083e+18,-2.0,-1.0,-1.0,2.0,1.0,-1.0,0.0,0.0
1.6951618757648924e+18,-1.0,-2.0,-7.0,-2.0,1.0,-1.0,0.0,-1.0
1.69516187576589e+18,-1.0,-1.0,-1.0,-6.0,-2.0,-1.0,1.0,0.0
1.69516187576589e+18,1.0,-1.0,1.0,5.0,0.0,-2.0,-1.0,-1.0
1.69516187576589e+18,0.0,-5.0,-11.0,-2.0,-2.0,0.0,0.0,1.0
1.6951618757808855e+18,-2.0,-1.0,9.0,-4.0,-2.0,-1.0,-1.0,-1.0
1.6951618757838817e+18,-1.0,-3.0,-2.0,1.0,-1.0,-3.0,0.0,1.0
1.6951618757838817e+18,0.0,1.0,8.0,-3.0,-1.0,1.0,-2.0,2.0
1.6951618757838817e+18,-1.0,-2.0,-7.0,1.0,-1.0,-1.0,-1.0,0.0
1.6951618757938765e+18,2.0,-2.0,-2.0,-3.0,-1.0,-2.0,-1.0,-1.0
1.695161875794875e+18,0.0,0.0,1.0,0.0,-1.0,2.0,0.0,-2.0
1.695161875794875e+18,-2.0,-4.0,-4.0,-4.0,0.0,0.0,-1.0,-3.0
1.695161875794875e+18,0.0,2.0,6.0,-2.0,-2.0,0.0,0.0,-3.0
1.6951618758168604e+18,0.0,1.0,-1.0,1.0,0.0,0.0,-1.0,0.0
1.6951618758168604e+18,0.0,-4.0,1.0,1.0,-2.0,0.0,0.0,0.0
1.695161875825855e+18,-2.0,-1.0,-2.0,2.0,-1.0,0.0,1.0,-1.0
1.695161875825855e+18,0.0,-1.0,-2.0,-1.0,0.0,1.0,1.0,1.0
1.6951618758398477e+18,-2.0,-2.0,-2.0,0.0,0.0,0.0,1.0,0.0
1.6951618758398477e+18,0.0,0.0,1.0,1.0,1.0,-2.0,-2.0,-2.0
1.695161875840847e+18,-1.0,-1.0,-1.0,-1.0,-1.0,1.0,1.0,0.0
1.695161875840847e+18,1.0,-1.0,1.0,-2.0,-3.0,-1.0,-1.0,-2.0
1.6951618758538414e+18,-2.0,-2.0,3.0,3.0,-2.0,1.0,1.0,0.0
1.6951618758548388e+18,0.0,-3.0,-14.0,-5.0,-1.0,-1.0,-1.0,1.0
1.6951618758548388e+18,-1.0,-1.0,1.0,-6.0,-1.0,-1.0,-1.0,0.0
1.695161875855848e+18,0.0,1.0,-2.0,1.0,-1.0,0.0,-2.0,-2.0
1.6951618758768264e+18,-1.0,-3.0,-2.0,1.0,0.0,-1.0,-1.0,0.0
1.6951618758778263e+18,1.0,-2.0,0.0,-2.0,-1.0,2.0,-1.0,-1.0
1.6951618758778263e+18,0.0,-1.0,1.0,-1.0,0.0,1.0,-1.0,-1.0
1.6951618758778263e+18,0.0,-2.0,-5.0,-4.0,-1.0,0.0,0.0,-1.0
1.6951618758988137e+18,1.0,1.0,-2.0,-2.0,-1.0,0.0,-2.0,-2.0
1.695161875899814e+18,-1.0,-2.0,3.0,2.0,0.0,-2.0,0.0,1.0
1.6951618759068093e+18,-1.0,0.0,-3.0,-2.0,-1.0,0.0,-1.0,-1.0
1.6951618759068093e+18,0.0,0.0,1.0,2.0,-1.0,-2.0,0.0,0.0
1.6951618759158044e+18,0.0,-1.0,-3.0,-1.0,1.0,-1.0,0.0,0.0
1.6951618759267988e+18,-2.0,0.0,0.0,0.0,-1.0,-2.0,0.0,-2.0
1.6951618759267988e+18,-2.0,-1.0,-1.0,0.0,-3.0,-1.0,-1.0,0.0
1.6951618759277978e+18,-1.0,-1.0,0.0,1.0,0.0,0.0,0.0,-1.0
1.69516187594479e+18,0.0,-1.0,0.0,-2.0,1.0,-1.0,-1.0,-2.0
1.6951618759457871e+18,1.0,-1.0,1.0,-1.0,-2.0,0.0,-2.0,-2.0
1.6951618759457871e+18,0.0,-1.0,0.0,-2.0,-1.0,-2.0,0.0,-1.0
1.6951618759457871e+18,-2.0,-1.0,0.0,3.0,-2.0,-1.0,-2.0,-1.0
1.695161875967775e+18,-1.0,-1.0,-4.0,-3.0,0.0,1.0,-2.0,1.0
1.695161875968774e+18,-1.0,-1.0,0.0,-1.0,0.0,1.0,-1.0,0.0
1.6951618759697733e+18,-1.0,-2.0,1.0,-2.0,-1.0,1.0,-1.0,-1.0
1.6951618759697733e+18,-1.0,-2.0,-1.0,0.0,0.0,-1.0,0.0,0.0
1.695161875974771e+18,-2.0,-1.0,-1.0,1.0,0.0,0.0,0.0,0.0
1.695161875974771e+18,-1.0,0.0,5.0,0.0,1.0,0.0,0.0,-2.0
1.695161875975775e+18,0.0,-3.0,-14.0,-1.0,-1.0,-4.0,0.0,0.0
1.695161875975775e+18,0.0,-1.0,0.0,-2.0,-1.0,-1.0,0.0,-2.0
1.6951618759967583e+18,-1.0,0.0,0.0,-1.0,0.0,-1.0,-1.0,0.0
1.6951618759977577e+18,-1.0,-1.0,0.0,0.0,1.0,-1.0,1.0,-1.0
1.6951618759977577e+18,-1.0,1.0,2.0,1.0,2.0,-1.0,-1.0,-2.0
1.6951618759977577e+18,-1.0,-3.0,-1.0,-2.0,-1.0,-1.0,0.0,-1.0
1.6951618760277396e+18,0.0,-1.0,-1.0,-1.0,0.0,-1.0,0.0,-1.0
1.6951618760277396e+18,-2.0,2.0,1.0,0.0,-3.0,-1.0,-2.0,0.0
1.6951618760277396e+18,-1.0,-2.0,2.0,1.0,0.0,0.0,0.0,-1.0
1.695161876028741e+18,1.0,1.0,-1.0,-1.0,0.0,0.0,0.0,2.0
1.6951618760347517e+18,0.0,-1.0,-2.0,-1.0,-1.0,0.0,-2.0,-2.0
1.6951618760347517e+18,-1.0,-2.0,-2.0,-2.0,-1.0,0.0,0.0,2.0
1.6951618760347517e+18,-1.0,0.0,0.0,-2.0,-1.0,-1.0,-1.0,-2.0
1.6951618760357373e+18,-2.0,0.0,0.0,-2.0,0.0,-1.0,-1.0,-1.0
1.6951618760577231e+18,-2.0,-1.0,-1.0,-1.0,-1.0,0.0,1.0,0.0
1.6951618760577231e+18,-2.0,-1.0,-1.0,0.0,-2.0,-1.0,-1.0,-1.0
1.6951618760587223e+18,0.0,1.0,1.0,0.0,0.0,-3.0,-1.0,0.0
1.6951618760587223e+18,0.0,0.0,-2.0,-1.0,0.0,-1.0,0.0,0.0
1.6951618760807127e+18,0.0,-1.0,-2.0,-3.0,-1.0,-1.0,-2.0,-2.0
1.6951618760807127e+18,-1.0,-1.0,-3.0,-3.0,-1.0,-1.0,0.0,-1.0
1.6951618760807127e+18,-3.0,-1.0,2.0,2.0,-1.0,0.0,-2.0,-2.0
1.6951618760807127e+18,-1.0,-2.0,-1.0,0.0,-1.0,-1.0,-3.0,-1.0
1.6951618760937262e+18,0.0,0.0,-1.0,-1.0,-1.0,0.0,-1.0,0.0
1.6951618760947023e+18,-2.0,-1.0,-1.0,-1.0,0.0,0.0,-1.0,-1.0
1.6951618761017216e+18,0.0,-2.0,-2.0,-3.0,0.0,1.0,-1.0,1.0
1.6951618761017216e+18,-1.0,0.0,-1.0,-1.0,-1.0,0.0,-2.0,-2.0
1.695161876116774e+18,-1.0,0.0,0.0,2.0,-1.0,0.0,-1.0,-1.0
1.695161876116774e+18,0.0,-1.0,-2.0,0.0,-1.0,-1.0,-1.0,-1.0
1.6951618761178086e+18,1.0,-1.0,0.0,0.0,-1.0,-1.0,0.0,-2.0
1.6951618761178086e+18,1.0,-1.0,0.0,-1.0,1.0,1.0,-1.0,-2.0
1.6951618761405542e+18,0.0,-2.0,0.0,-3.0,0.0,-1.0,-1.0,-2.0
1.6951618761405542e+18,-1.0,-2.0,-1.0,0.0,-1.0,-1.0,-1.0,-1.0
1.6951618761415537e+18,-1.0,0.0,0.0,3.0,0.0,-1.0,-2.0,-1.0
1.6951618761415537e+18,0.0,-1.0,0.0,-2.0,1.0,0.0,-1.0,-1.0
1.6951618761535788e+18,-1.0,-2.0,-2.0,0.0,-2.0,-1.0,-1.0,-2.0
1.6951618761535788e+18,0.0,-1.0,-1.0,-3.0,2.0,1.0,-1.0,0.0
1.69516187616237e+18,-3.0,-1.0,0.0,-3.0,-1.0,0.0,-1.0,1.0
1.69516187616237e+18,-2.0,-2.0,-1.0,-2.0,-1.0,-1.0,-1.0,0.0
1.6951618761767985e+18,-1.0,0.0,1.0,4.0,-1.0,0.0,-1.0,-1.0
1.695161876177533e+18,0.0,1.0,-1.0,2.0,-2.0,-1.0,-1.0,-1.0
1.695161876177533e+18,0.0,0.0,-2.0,-1.0,0.0,0.0,-1.0,-1.0
1.695161876177533e+18,-1.0,0.0,0.0,-1.0,-1.0,0.0,-2.0,-3.0
1.695161876199946e+18,-1.0,-1.0,4.0,-1.0,-1.0,-1.0,-1.0,0.0
1.695161876199946e+18,-2.0,-2.0,-9.0,-1.0,0.0,0.0,0.0,-1.0
1.6951618762009674e+18,-1.0,0.0,-1.0,-2.0,-2.0,-2.0,0.0,-2.0
1.6951618762009674e+18,-1.0,-1.0,0.0,0.0,0.0,-1.0,-2.0,-1.0
1.695161876214353e+18,0.0,0.0,-1.0,1.0,-1.0,-3.0,-1.0,0.0
1.695161876214353e+18,-1.0,1.0,1.0,-1.0,-1.0,1.0,-1.0,-2.0
1.6951618762220206e+18,-1.0,-1.0,-3.0,0.0,1.0,1.0,-2.0,0.0
1.6951618762220206e+18,-2.0,0.0,-2.0,-2.0,-1.0,-1.0,-1.0,0.0
1.6951618762449738e+18,-2.0,-1.0,-2.0,-2.0,-2.0,-1.0,-1.0,-2.0
1.695161876245546e+18,-2.0,0.0,0.0,4.0,0.0,-1.0,0.0,-1.0
1.695161876245546e+18,-1.0,-1.0,-1.0,-1.0,-2.0,-1.0,-1.0,-1.0
1.695161876245546e+18,-1.0,0.0,0.0,1.0,-1.0,0.0,-1.0,-1.0
1.695161876260994e+18,-1.0,-1.0,-2.0,-3.0,-1.0,0.0,-1.0,-2.0
1.695161876260994e+18,0.0,-1.0,-1.0,-3.0,-4.0,-1.0,0.0,1.0
1.695161876260994e+18,-2.0,-1.0,1.0,1.0,-2.0,0.0,1.0,-1.0
1.6951618762619924e+18,0.0,-1.0,-1.0,-2.0,-1.0,-1.0,2.0,-1.0
1.695161876274587e+18,-1.0,-1.0,0.0,2.0,-2.0,0.0,0.0,-1.0
1.6951618762755835e+18,0.0,0.0,0.0,-2.0,0.0,-2.0,-2.0,0.0
1.695161876282351e+18,0.0,-1.0,-2.0,-1.0,-2.0,-3.0,0.0,0.0
1.6951618762833505e+18,0.0,-2.0,-3.0,-3.0,-1.0,-1.0,0.0,1.0
1.6951618762975644e+18,-3.0,-1.0,0.0,3.0,-1.0,0.0,0.0,-2.0
1.6951618762975644e+18,-2.0,-1.0,1.0,0.0,-1.0,-2.0,-2.0,-1.0
1.6951618762985623e+18,0.0,0.0,-1.0,-2.0,-2.0,2.0,-1.0,0.0
1.6951618762985623e+18,0.0,0.0,-1.0,-1.0,0.0,-1.0,-2.0,-3.0
1.6951618763197885e+18,0.0,-1.0,-1.0,-1.0,0.0,-1.0,-1.0,0.0
1.6951618763197885e+18,0.0,-1.0,-1.0,-1.0,-1.0,0.0,-1.0,-1.0
1.6951618763207882e+18,-2.0,-2.0,-1.0,-3.0,0.0,-1.0,0.0,-2.0
1.6951618763207882e+18,1.0,0.0,-1.0,-2.0,0.0,0.0,-1.0,0.0
1.695161876333903e+18,0.0,-1.0,0.0,-2.0,-1.0,0.0,-1.0,-1.0
1.6951618763349322e+18,-1.0,-1.0,0.0,0.0,-3.0,-2.0,-2.0,-1.0
1.6951618763582684e+18,1.0,-1.0,-1.0,0.0,0.0,1.0,0.0,0.0
1.695161876359268e+18,-1.0,1.0,1.0,2.0,-2.0,0.0,-1.0,1.0
1.6951618763602673e+18,0.0,0.0,-2.0,-3.0,-2.0,0.0,-1.0,0.0
1.6951618763602673e+18,0.0,-1.0,2.0,2.0,-1.0,-2.0,-1.0,-1.0
1.6951618763612657e+18,-1.0,-1.0,2.0,-2.0,0.0,-1.0,0.0,-1.0
1.6951618763612657e+18,0.0,-2.0,-1.0,1.0,0.0,-1.0,-1.0,-1.0
1.6951618763866304e+18,0.0,-1.0,-2.0,-2.0,0.0,-1.0,1.0,-1.0
1.695161876387631e+18,0.0,-1.0,-3.0,-2.0,-2.0,1.0,-2.0,0.0
1.695161876395513e+18,0.0,-2.0,0.0,1.0,1.0,0.0,0.0,0.0
1.6951618763965123e+18,-1.0,-1.0,-1.0,-1.0,0.0,0.0,-1.0,0.0
1.6951618763965123e+18,0.0,-1.0,-2.0,-5.0,-1.0,-1.0,-2.0,2.0
1.6951618763975132e+18,-2.0,0.0,0.0,2.0,0.0,-2.0,0.0,-3.0
1.6951618764026424e+18,-1.0,1.0,1.0,1.0,1.0,-3.0,-1.0,0.0
1.6951618764036434e+18,-1.0,0.0,-1.0,-2.0,1.0,0.0,0.0,-1.0
1.6951618764185795e+18,-1.0,-1.0,-2.0,-1.0,-1.0,1.0,0.0,-1.0
1.6951618764195863e+18,-1.0,-3.0,-3.0,-3.0,0.0,0.0,1.0,-2.0
1.695161876422577e+18,-1.0,0.0,3.0,1.0,0.0,-1.0,-2.0,0.0
1.6951618764245837e+18,-2.0,-3.0,-14.0,-6.0,-3.0,-1.0,0.0,-1.0
1.695161876440916e+18,0.0,-2.0,0.0,-4.0,-2.0,-3.0,-1.0,-1.0
1.695161876440916e+18,0.0,1.0,2.0,0.0,0.0,0.0,0.0,0.0
1.6951618764419123e+18,0.0,-4.0,-4.0,4.0,3.0,0.0,0.0,-2.0
1.6951618764419123e+18,-2.0,-1.0,5.0,1.0,-3.0,-1.0,-1.0,0.0
1.695161876462588e+18,2.0,1.0,1.0,1.0,0.0,-1.0,-1.0,-2.0
1.6951618764635832e+18,0.0,-1.0,-3.0,-7.0,0.0,0.0,-2.0,1.0
1.6951618764635832e+18,0.0,-1.0,-1.0,-4.0,-1.0,0.0,-1.0,-1.0
1.6951618764645827e+18,-1.0,-2.0,0.0,-3.0,1.0,-2.0,1.0,-1.0
1.6951618764855455e+18,-2.0,-2.0,-3.0,-1.0,1.0,-1.0,2.0,-2.0
1.6951618764855455e+18,-1.0,-2.0,2.0,1.0,-1.0,0.0,-1.0,-2.0
1.6951618764865884e+18,0.0,-1.0,-2.0,-2.0,0.0,0.0,0.0,-1.0
1.6951618764865884e+18,-1.0,-1.0,1.0,1.0,-1.0,0.0,1.0,-1.0
1.6951618765007485e+18,-1.0,0.0,1.0,-1.0,-2.0,-2.0,-2.0,0.0
1.6951618765007485e+18,-1.0,0.0,-2.0,-1.0,1.0,-1.0,1.0,-1.0
1.6951618765007485e+18,0.0,-2.0,-1.0,0.0,-1.0,0.0,-1.0,-1.0
1.6951618765017812e+18,-1.0,2.0,-1.0,0.0,2.0,0.0,-2.0,0.0
1.6951618765235487e+18,-1.0,0.0,-2.0,1.0,0.0,1.0,-2.0,1.0
1.695161876524548e+18,-1.0,-1.0,-1.0,-1.0,-1.0,-1.0,-1.0,-1.0
1.695161876525554e+18,-1.0,0.0,0.0,-1.0,-2.0,-1.0,-2.0,-1.0
1.695161876525554e+18,0.0,1.0,2.0,0.0,1.0,0.0,0.0,-1.0
1.6951618765388844e+18,-1.0,-2.0,-2.0,0.0,1.0,1.0,0.0,-1.0
1.695161876539884e+18,1.0,-1.0,0.0,0.0,1.0,0.0,-1.0,1.0
1.6951618765408906e+18,0.0,-1.0,-1.0,-2.0,-3.0,0.0,-1.0,-1.0
1.695161876541883e+18,-1.0,0.0,-1.0,1.0,-3.0,1.0,-1.0,-1.0
1.6951618765600325e+18,-1.0,-1.0,-3.0,-1.0,-2.0,0.0,0.0,1.0
1.6951618765610455e+18,0.0,-1.0,0.0,0.0,1.0,-1.0,-1.0,-3.0
1.6951618765620324e+18,-1.0,0.0,1.0,0.0,0.0,-2.0,1.0,-2.0
1.6951618765620324e+18,-2.0,-2.0,-2.0,-2.0,-2.0,-1.0,-3.0,0.0
1.6951618765830185e+18,1.0,0.0,1.0,0.0,0.0,0.0,-2.0,0.0
1.6951618765840192e+18,-1.0,-1.0,-2.0,-2.0,-1.0,-1.0,-1.0,0.0
1.6951618765840192e+18,0.0,0.0,-2.0,-3.0,-2.0,-1.0,-2.0,-1.0
1.6951618765840192e+18,0.0,-1.0,0.0,0.0,0.0,-2.0,-1.0,-2.0
1.6951618766130058e+18,-2.0,-1.0,-1.0,-3.0,-1.0,-1.0,-1.0,-1.0
1.695161876626994e+18,-2.0,-2.0,0.0,3.0,-1.0,-3.0,0.0,-1.0
1.695161876626994e+18,-1.0,0.0,-2.0,-1.0,0.0,2.0,2.0,2.0
1.695161876626994e+18,0.0,-1.0,1.0,0.0,2.0,2.0,3.0,1.0
1.695161876626994e+18,0.0,0.0,2.0,1.0,2.0,0.0,1.0,1.0
1.6951618766279933e+18,1.0,1.0,2.0,-3.0,2.0,2.0,0.0,0.0
1.6951618766279933e+18,1.0,1.0,2.0,-2.0,-1.0,0.0,-4.0,1.0
1.6951618766279933e+18,1.0,0.0,1.0,1.0,0.0,0.0,-1.0,0.0
1.6951618766429832e+18,1.0,0.0,-2.0,0.0,-1.0,-3.0,-1.0,-2.0
1.6951618766429832e+18,0.0,-1.0,0.0,0.0,0.0,0.0,0.0,1.0
1.6951618766429832e+18,-1.0,0.0,1.0,0.0,0.0,0.0,-1.0,0.0
1.695161876643983e+18,0.0,-2.0,2.0,-2.0,-2.0,-1.0,1.0,2.0
1.6951618766559754e+18,-1.0,3.0,0.0,-1.0,1.0,0.0,-2.0,1.0
1.695161876656975e+18,-1.0,1.0,-2.0,-1.0,-1.0,-1.0,-2.0,1.0
1.695161876664971e+18,-1.0,0.0,-1.0,-2.0,-1.0,-1.0,-1.0,0.0
1.695161876664971e+18,0.0,1.0,-2.0,-3.0,-3.0,0.0,-1.0,0.0
1.6951618766879572e+18,0.0,-2.0,0.0,-2.0,0.0,0.0,1.0,-1.0
1.695161876689956e+18,-2.0,0.0,1.0,0.0,-2.0,-1.0,-2.0,0.0
1.695161876689956e+18,-1.0,0.0,0.0,-1.0,0.0,1.0,1.0,-1.0
1.6951618766909553e+18,1.0,-1.0,-1.0,0.0,1.0,-1.0,-1.0,-1.0
1.6951618767019484e+18,0.0,0.0,0.0,-1.0,-1.0,-1.0,-1.0,0.0
1.6951618767029514e+18,1.0,1.0,4.0,-2.0,0.0,-1.0,0.0,-1.0
1.6951618767029514e+18,-1.0,0.0,-11.0,0.0,0.0,-2.0,1.0,1.0
1.6951618767039524e+18,1.0,1.0,3.0,3.0,0.0,0.0,1.0,-1.0
1.695161876724936e+18,-1.0,-1.0,0.0,0.0,-3.0,0.0,-1.0,-2.0
1.695161876724936e+18,0.0,-4.0,0.0,3.0,1.0,0.0,-1.0,2.0
1.695161876725935e+18,0.0,2.0,6.0,-7.0,-6.0,-3.0,-3.0,-1.0
1.695161876725935e+18,1.0,-3.0,-1.0,0.0,3.0,-1.0,-1.0,0.0
1.6951618767479235e+18,0.0,-3.0,-3.0,0.0,3.0,1.0,2.0,2.0
1.6951618767479235e+18,-2.0,-1.0,-5.0,-5.0,-9.0,-3.0,-2.0,-3.0
1.6951618767489234e+18,0.0,1.0,8.0,9.0,1.0,-4.0,-2.0,-2.0
1.6951618767489234e+18,-1.0,0.0,-2.0,-1.0,-2.0,3.0,3.0,-4.0
1.695161876761915e+18,2.0,8.0,0.0,-5.0,-2.0,0.0,10.0,14.0
1.695161876762914e+18,-6.0,-18.0,-3.0,1.0,12.0,3.0,-6.0,-15.0
1.695161876762914e+18,-5.0,3.0,-3.0,2.0,-3.0,-5.0,-6.0,-10.0
1.6951618767639145e+18,-4.0,-1.0,2.0,7.0,11.0,4.0,0.0,-2.0
1.6951618767779052e+18,3.0,-4.0,-1.0,2.0,1.0,-4.0,3.0,4.0
1.6951618767869005e+18,2.0,1.0,0.0,-4.0,-4.0,5.0,11.0,7.0
1.6951618767869005e+18,6.0,0.0,-1.0,2.0,9.0,13.0,-9.0,0.0
1.6951618767869005e+18,-9.0,-15.0,-5.0,-3.0,-7.0,-13.0,-12.0,-2.0
1.6951618767988956e+18,-3.0,4.0,0.0,-2.0,-4.0,-3.0,-9.0,-8.0
1.6951618767998948e+18,-2.0,5.0,-2.0,-3.0,-4.0,-10.0,-6.0,10.0
1.6951618767998948e+18,-2.0,-3.0,-1.0,-1.0,1.0,4.0,17.0,-4.0
1.6951618767998948e+18,0.0,2.0,-1.0,-4.0,-3.0,3.0,2.0,0.0
1.695161876838871e+18,-1.0,-1.0,1.0,-1.0,-4.0,-5.0,-4.0,-2.0
1.6951618768398705e+18,0.0,-2.0,-1.0,-3.0,-3.0,-2.0,9.0,-5.0
1.6951618768398705e+18,-3.0,-6.0,-5.0,-2.0,2.0,0.0,-8.0,10.0
1.6951618768398705e+18,4.0,3.0,4.0,1.0,1.0,-3.0,-8.0,3.0
1.69516187684087e+18,-1.0,-3.0,-1.0,0.0,-3.0,-2.0,-4.0,-5.0
1.695161876841871e+18,-1.0,0.0,-13.0,-10.0,-1.0,1.0,-2.0,-6.0
1.6951618768608579e+18,-4.0,1.0,3.0,1.0,-2.0,2.0,6.0,-4.0
1.6951618768608579e+18,0.0,1.0,1.0,3.0,-2.0,0.0,7.0,2.0
1.6951618768618596e+18,-1.0,-2.0,10.0,6.0,3.0,2.0,-4.0,-8.0
1.6951618768628567e+18,1.0,5.0,9.0,12.0,2.0,3.0,-1.0,1.0
1.6951618768628567e+18,-2.0,-7.0,-31.0,-27.0,-9.0,-9.0,0.0,3.0
1.695161876863856e+18,-8.0,-7.0,-10.0,-19.0,-7.0,-6.0,-7.0,-7.0
1.6951618768838474e+18,-2.0,0.0,4.0,4.0,3.0,5.0,2.0,1.0
1.695161876885845e+18,2.0,2.0,9.0,20.0,0.0,-2.0,-4.0,0.0
1.6951618768868454e+18,3.0,-1.0,10.0,12.0,-1.0,-1.0,2.0,2.0
1.6951618768868454e+18,3.0,4.0,-9.0,-2.0,4.0,2.0,-4.0,0.0
1.6951618768968366e+18,-2.0,-3.0,-1.0,-9.0,-4.0,-3.0,-5.0,-3.0
1.6951618768968366e+18,-7.0,-3.0,0.0,-3.0,-3.0,-1.0,4.0,3.0
1.6951618768978373e+18,-1.0,1.0,6.0,5.0,0.0,2.0,11.0,0.0
1.6951618768978373e+18,-2.0,0.0,3.0,6.0,-1.0,0.0,-3.0,-2.0
1.6951618769198252e+18,2.0,-2.0,-5.0,-2.0,2.0,2.0,-2.0,2.0
1.6951618769208256e+18,-1.0,4.0,-1.0,-8.0,-4.0,-6.0,-5.0,-3.0
1.6951618769208256e+18,-3.0,-6.0,8.0,2.0,-1.0,-7.0,-3.0,-4.0
1.6951618769228265e+18,2.0,5.0,2.0,1.0,-1.0,7.0,-1.0,1.0
1.6951618769498102e+18,3.0,3.0,0.0,1.0,-2.0,-13.0,-5.0,1.0
1.6951618769498102e+18,1.0,-8.0,-9.0,-4.0,2.0,6.0,4.0,-2.0
1.6951618769508068e+18,-2.0,4.0,-2.0,-7.0,-2.0,0.0,-1.0,0.0
1.6951618769508068e+18,-6.0,-6.0,-2.0,0.0,0.0,-2.0,1.0,-4.0
1.6951618769568046e+18,-2.0,-19.0,-4.0,-3.0,0.0,6.0,4.0,-2.0
1.6951618769568046e+18,-7.0,16.0,-2.0,2.0,1.0,-2.0,6.0,-1.0
1.6951618769578025e+18,4.0,-19.0,-3.0,-2.0,-2.0,-15.0,-37.0,-5.0
1.6951618769578025e+18,2.0,17.0,4.0,-3.0,-4.0,-2.0,7.0,31.0
1.6951618769797906e+18,3.0,1.0,-3.0,5.0,3.0,2.0,4.0,-13.0
1.6951618769797906e+18,-6.0,-5.0,1.0,-1.0,-2.0,-2.0,-1.0,5.0
1.6951618769817892e+18,-1.0,6.0,-2.0,-4.0,-1.0,7.0,11.0,-14.0
1.6951618769817892e+18,-3.0,-10.0,2.0,7.0,0.0,2.0,-1.0,-9.0
1.6951618770037773e+18,3.0,-1.0,-7.0,-7.0,-2.0,-3.0,0.0,0.0
1.6951618770037773e+18,-4.0,2.0,0.0,-5.0,-2.0,1.0,6.0,-10.0
1.6951618770047762e+18,4.0,13.0,1.0,3.0,5.0,3.0,1.0,2.0
1.695161877005776e+18,6.0,1.0,1.0,-1.0,-2.0,-6.0,-8.0,10.0
1.6951618770247644e+18,-11.0,-16.0,2.0,-4.0,-8.0,3.0,-9.0,-2.0
1.6951618770247644e+18,6.0,22.0,2.0,-3.0,-1.0,-5.0,2.0,-16.0
1.6951618770257636e+18,16.0,-21.0,2.0,5.0,-4.0,-4.0,-8.0,10.0
1.6951618770257636e+18,-27.0,-6.0,-9.0,4.0,6.0,4.0,31.0,54.0
1.6951618770637445e+18,23.0,-1.0,-4.0,-17.0,-18.0,-15.0,-40.0,-18.0
1.6951618770637445e+18,-21.0,7.0,2.0,12.0,16.0,3.0,-10.0,14.0
1.6951618770647442e+18,13.0,33.0,6.0,-3.0,-3.0,3.0,21.0,-18.0
1.6951618770647442e+18,-10.0,-7.0,-5.0,-3.0,0.0,-1.0,-4.0,-18.0
1.695161877065741e+18,-4.0,-25.0,-9.0,2.0,1.0,3.0,14.0,-5.0
1.695161877065741e+18,-4.0,-21.0,-1.0,-10.0,-9.0,5.0,2.0,-16.0
1.6951618770687406e+18,-10.0,7.0,-3.0,-1.0,4.0,2.0,2.0,-3.0
1.6951618770697382e+18,18.0,-17.0,2.0,5.0,2.0,-1.0,-11.0,-38.0
1.6951618770757348e+18,-21.0,30.0,2.0,-1.0,3.0,3.0,15.0,21.0
1.6951618770767352e+18,27.0,-6.0,-7.0,-11.0,-14.0,-20.0,-6.0,60.0
1.695161877092725e+18,-26.0,1.0,2.0,8.0,6.0,1.0,-21.0,-94.0
1.6951618770997248e+18,16.0,10.0,5.0,-2.0,0.0,0.0,-7.0,65.0
1.695161877114737e+18,10.0,20.0,0.0,8.0,3.0,5.0,9.0,44.0
1.695161877114737e+18,3.0,-25.0,-2.0,4.0,6.0,6.0,16.0,-23.0
1.6951618771157174e+18,0.0,-15.0,-15.0,-17.0,-8.0,-4.0,14.0,62.0
1.6951618771157174e+18,1.0,23.0,6.0,2.0,-2.0,-1.0,-16.0,-122.0
1.6951618771377021e+18,-19.0,-20.0,1.0,6.0,9.0,7.0,-3.0,7.0
1.6951618771437053e+18,-19.0,11.0,3.0,0.0,3.0,9.0,2.0,-28.0
1.6951618771437053e+18,-23.0,-29.0,4.0,5.0,1.0,-2.0,-2.0,-7.0
1.695161877144699e+18,9.0,-22.0,-7.0,-14.0,-6.0,-7.0,-15.0,61.0
1.695161877145695e+18,16.0,25.0,-6.0,9.0,5.0,4.0,23.0,6.0
1.695161877145695e+18,-2.0,-4.0,4.0,-8.0,-4.0,2.0,-17.0,-36.0
1.6951618771516905e+18,29.0,27.0,8.0,10.0,7.0,9.0,33.0,14.0
1.6951618771516905e+18,-73.0,4.0,-7.0,-10.0,-6.0,-7.0,-10.0,-10.0
1.6951618771586888e+18,-3.0,-16.0,3.0,-2.0,-5.0,-7.0,-4.0,3.0
1.6951618771596864e+18,-25.0,-3.0,-9.0,-1.0,0.0,3.0,1.0,-43.0
1.695161877174678e+18,-5.0,1.0,-1.0,4.0,5.0,5.0,4.0,9.0
1.695161877174678e+18,30.0,18.0,3.0,3.0,-6.0,-17.0,-12.0,-21.0
1.6951618771846725e+18,-29.0,-28.0,-11.0,1.0,4.0,14.0,33.0,4.0
1.6951618771846725e+18,3.0,-23.0,-7.0,-8.0,-7.0,-38.0,-70.0,50.0
1.69516187718967e+18,43.0,7.0,3.0,-1.0,-5.0,-1.0,3.0,-17.0
1.69516187718967e+18,-8.0,-2.0,0.0,-5.0,-5.0,11.0,66.0,-7.0
1.6951618772046633e+18,-5.0,15.0,4.0,-2.0,-14.0,-39.0,-92.0,-16.0
1.6951618772056607e+18,-36.0,16.0,2.0,-7.0,-1.0,6.0,15.0,-3.0
1.6951618772066609e+18,-56.0,-44.0,-12.0,-5.0,-12.0,-27.0,-54.0,3.0
1.6951618772066609e+18,81.0,6.0,4.0,-2.0,6.0,11.0,10.0,29.0
1.695161877226663e+18,4.0,4.0,-2.0,-6.0,-8.0,-1.0,24.0,-50.0
1.695161877227651e+18,37.0,14.0,7.0,7.0,7.0,13.0,35.0,15.0
1.695161877227651e+18,-27.0,-9.0,1.0,-2.0,-2.0,-1.0,-12.0,22.0
1.695161877227651e+18,-23.0,-1.0,8.0,2.0,-3.0,8.0,25.0,14.0
1.6951618772426388e+18,-5.0,6.0,6.0,9.0,12.0,19.0,62.0,-10.0
1.6951618772426388e+18,63.0,3.0,4.0,1.0,-9.0,-26.0,-55.0,68.0
1.6951618772436388e+18,-31.0,13.0,-7.0,-6.0,0.0,8.0,8.0,-55.0
1.6951618772436388e+18,3.0,-26.0,-8.0,8.0,1.0,15.0,-18.0,11.0
1.695161877264628e+18,2.0,8.0,2.0,-6.0,2.0,-7.0,-31.0,9.0
1.6951618772656364e+18,-37.0,-21.0,0.0,11.0,8.0,19.0,45.0,36.0
1.6951618772656364e+18,12.0,9.0,-12.0,-13.0,-8.0,3.0,-4.0,-55.0
1.6951618772666263e+18,-43.0,-4.0,-8.0,-1.0,-6.0,-16.0,-64.0,-63.0
1.695161877279618e+18,86.0,31.0,3.0,-6.0,0.0,-7.0,56.0,72.0
1.695161877279618e+18,-13.0,-27.0,-10.0,1.0,1.0,5.0,-20.0,-46.0
1.695161877279618e+18,-14.0,-4.0,8.0,0.0,-1.0,1.0,-4.0,-8.0
1.6951618772806198e+18,0.0,-9.0,-7.0,-1.0,1.0,7.0,45.0,-31.0
1.6951618773016082e+18,-24.0,2.0,-23.0,-16.0,-14.0,-41.0,-110.0,-46.0
1.6951618773016082e+18,18.0,12.0,12.0,7.0,0.0,0.0,65.0,38.0
1.6951618773175962e+18,18.0,-16.0,-3.0,1.0,2.0,2.0,-49.0,41.0
1.6951618773175962e+18,-4.0,20.0,12.0,9.0,5.0,1.0,12.0,-45.0
1.6951618773185953e+18,-29.0,-31.0,-6.0,-5.0,0.0,12.0,-8.0,-3.0
1.6951618773185953e+18,16.0,10.0,2.0,-11.0,-1.0,5.0,21.0,-66.0
1.6951618773406075e+18,10.0,10.0,-2.0,0.0,-4.0,-19.0,-36.0,47.0
1.6951618773406075e+18,2.0,3.0,0.0,1.0,-6.0,-22.0,0.0,26.0
1.6951618773425843e+18,49.0,1.0,2.0,5.0,5.0,7.0,10.0,-42.0
1.6951618773425843e+18,-42.0,-6.0,-8.0,-4.0,-4.0,0.0,-18.0,-19.0
1.6951618773425843e+18,13.0,9.0,10.0,6.0,2.0,-5.0,14.0,29.0
1.6951618773435843e+18,21.0,14.0,-3.0,-3.0,4.0,14.0,43.0,-5.0
1.6951618773625723e+18,6.0,-9.0,4.0,-3.0,-8.0,-6.0,11.0,73.0
1.6951618773625723e+18,-2.0,20.0,3.0,15.0,7.0,-7.0,6.0,-6.0
1.6951618773635715e+18,3.0,-18.0,1.0,-25.0,-10.0,-6.0,16.0,-9.0
1.6951618773635715e+18,-12.0,1.0,-15.0,0.0,6.0,-4.0,-39.0,60.0
1.6951618773765632e+18,-15.0,5.0,10.0,2.0,4.0,10.0,5.0,-26.0
1.6951618773765632e+18,-11.0,-8.0,-11.0,-3.0,-6.0,0.0,40.0,7.0
1.6951618773845714e+18,0.0,13.0,-4.0,3.0,-1.0,-8.0,19.0,-39.0
1.6951618773845714e+18,33.0,-4.0,8.0,5.0,8.0,8.0,-32.0,28.0
1.6951618774073981e+18,-14.0,-1.0,-6.0,0.0,-3.0,1.0,10.0,5.0
1.6951618774073981e+18,29.0,3.0,8.0,-4.0,2.0,14.0,2.0,31.0
1.6951618774143734e+18,-8.0,-2.0,2.0,15.0,7.0,3.0,14.0,-21.0
1.6951618774153723e+18,4.0,-2.0,1.0,-11.0,-10.0,-37.0,-35.0,-23.0
1.6951618774273664e+18,-57.0,-16.0,-23.0,-12.0,-3.0,-16.0,2.0,-54.0
1.6951618774273664e+18,15.0,-4.0,-5.0,-13.0,-8.0,-16.0,-33.0,29.0
1.6951618774283702e+18,1.0,7.0,4.0,15.0,6.0,4.0,51.0,32.0
1.6951618774283702e+18,-12.0,3.0,3.0,-7.0,-6.0,-37.0,-91.0,-49.0
1.6951618774533504e+18,10.0,-5.0,-10.0,-5.0,3.0,57.0,99.0,42.0
1.6951618774543498e+18,-2.0,-8.0,-9.0,-8.0,-9.0,-34.0,-30.0,-43.0
1.6951618774543498e+18,-4.0,-4.0,8.0,3.0,-2.0,-9.0,-14.0,0.0
1.6951618774553503e+18,11.0,-10.0,2.0,10.0,-1.0,16.0,72.0,41.0
1.6951618774753375e+18,-4.0,4.0,5.0,-8.0,-3.0,-2.0,14.0,-34.0
1.6951618774753375e+18,-9.0,5.0,-1.0,-4.0,0.0,11.0,10.0,0.0
1.6951618774763418e+18,-6.0,10.0,-2.0,-1.0,3.0,5.0,-54.0,50.0
1.6951618774763418e+18,-3.0,-1.0,-8.0,-1.0,-6.0,-10.0,18.0,-51.0
1.6951618774823588e+18,-5.0,-6.0,8.0,6.0,0.0,-15.0,-31.0,16.0
1.6951618774823588e+18,3.0,-2.0,8.0,23.0,17.0,57.0,32.0,43.0
1.6951618774833364e+18,17.0,12.0,-6.0,-25.0,-18.0,-27.0,13.0,-5.0
1.6951618774833364e+18,-36.0,-26.0,-10.0,-12.0,-6.0,6.0,15.0,48.0
1.6951618775053338e+18,9.0,12.0,-2.0,10.0,3.0,-10.0,-26.0,-24.0
1.6951618775063268e+18,-33.0,-5.0,18.0,-1.0,-4.0,-12.0,-27.0,-24.0
1.6951618775063268e+18,-36.0,-4.0,1.0,-4.0,3.0,10.0,12.0,-71.0
1.6951618775063268e+18,-6.0,-19.0,-40.0,-17.0,-5.0,3.0,8.0,40.0
1.6951618775353037e+18,13.0,4.0,17.0,7.0,5.0,1.0,-42.0,42.0
1.6951618775353037e+18,5.0,3.0,-3.0,5.0,-3.0,-1.0,-11.0,-36.0
1.6951618775353037e+18,12.0,5.0,3.0,12.0,-1.0,9.0,-15.0,18.0
1.6951618775353037e+18,9.0,-2.0,13.0,-3.0,-1.0,-10.0,-5.0,0.0
1.6951618775422991e+18,-10.0,-4.0,-12.0,9.0,4.0,5.0,-22.0,-6.0
1.6951618775422991e+18,6.0,-11.0,-13.0,-13.0,4.0,6.0,-6.0,-2.0
1.695161877543308e+18,5.0,6.0,4.0,-2.0,2.0,13.0,39.0,33.0
1.695161877543308e+18,18.0,17.0,11.0,8.0,5.0,17.0,29.0,-33.0
1.6951618775812767e+18,-7.0,-14.0,3.0,-2.0,-3.0,-12.0,-11.0,38.0
1.6951618775812767e+18,0.0,5.0,1.0,-2.0,-8.0,-9.0,-11.0,-35.0
1.6951618775822769e+18,-1.0,-12.0,-9.0,-2.0,-6.0,7.0,8.0,-6.0
1.6951618775822769e+18,3.0,12.0,1.0,10.0,9.0,9.0,-4.0,26.0
1.6951618775832786e+18,-1.0,2.0,9.0,-2.0,20.0,18.0,19.0,-20.0
1.6951618775832786e+18,3.0,12.0,-7.0,4.0,-9.0,-9.0,-21.0,-8.0
1.6951618775862743e+18,8.0,-15.0,0.0,-4.0,-4.0,1.0,10.0,20.0
1.6951618775862743e+18,-5.0,0.0,4.0,-4.0,-13.0,7.0,44.0,-1.0
1.6951618776122614e+18,2.0,-2.0,3.0,5.0,-6.0,-7.0,-25.0,-21.0
1.6951618776122614e+18,-4.0,-8.0,-10.0,-18.0,-1.0,-14.0,-40.0,-18.0
1.6951618776122614e+18,10.0,-8.0,-7.0,-3.0,-3.0,-5.0,0.0,24.0
1.6951618776122614e+18,-9.0,8.0,-5.0,1.0,-1.0,-4.0,-16.0,-20.0
1.6951618776322506e+18,-2.0,2.0,4.0,4.0,-2.0,2.0,7.0,-4.0
1.6951618776332475e+18,3.0,-18.0,3.0,9.0,2.0,1.0,24.0,20.0
1.6951618776332475e+18,1.0,-2.0,-6.0,-5.0,-3.0,0.0,-8.0,-2.0
1.6951618776332475e+18,-6.0,0.0,1.0,-2.0,1.0,2.0,-20.0,-16.0
1.695161877640245e+18,-3.0,0.0,-5.0,-2.0,-4.0,0.0,20.0,-5.0
1.695161877640245e+18,3.0,7.0,-3.0,0.0,4.0,-3.0,-8.0,14.0
1.6951618776412434e+18,1.0,1.0,-1.0,0.0,3.0,2.0,4.0,-13.0
1.6951618776412434e+18,0.0,0.0,6.0,2.0,2.0,0.0,2.0,2.0
1.6951618776632328e+18,-1.0,-1.0,-1.0,-7.0,-4.0,-6.0,-15.0,-7.0
1.6951618776652293e+18,5.0,3.0,2.0,6.0,-1.0,1.0,20.0,2.0
1.6951618776692283e+18,1.0,-1.0,-7.0,-8.0,-1.0,1.0,-11.0,4.0
1.6951618776692283e+18,0.0,-6.0,4.0,6.0,2.0,0.0,-5.0,0.0
1.695161877692214e+18,0.0,2.0,0.0,0.0,-2.0,-1.0,5.0,-3.0
1.6951618776932134e+18,0.0,2.0,-2.0,-5.0,1.0,1.0,-4.0,-1.0
1.6951618776932134e+18,-1.0,-1.0,0.0,5.0,7.0,3.0,7.0,1.0
1.695161877694213e+18,-1.0,0.0,2.0,0.0,1.0,-1.0,-10.0,0.0
1.6951618777002102e+18,-2.0,0.0,-1.0,-5.0,-6.0,-2.0,4.0,-8.0
1.6951618777002102e+18,8.0,2.0,0.0,-2.0,1.0,-1.0,4.0,6.0
1.6951618777002102e+18,0.0,0.0,-1.0,3.0,1.0,-1.0,-6.0,-2.0
1.695161877701209e+18,-3.0,-3.0,3.0,-2.0,-1.0,4.0,4.0,-4.0
1.695161877732192e+18,0.0,0.0,0.0,-3.0,-4.0,-3.0,4.0,0.0
1.695161877732192e+18,-2.0,-2.0,-1.0,-1.0,0.0,-2.0,-2.0,3.0
1.695161877733191e+18,3.0,0.0,0.0,2.0,1.0,0.0,-2.0,-2.0
1.695161877733191e+18,-3.0,-2.0,-3.0,-3.0,0.0,0.0,-4.0,-3.0
1.6951618777461842e+18,-1.0,-1.0,-1.0,0.0,-2.0,-2.0,2.0,1.0
1.695161877747183e+18,0.0,1.0,0.0,2.0,1.0,1.0,-2.0,1.0
1.695161877748182e+18,-1.0,1.0,0.0,-1.0,-1.0,-1.0,3.0,-2.0
1.6951618777491837e+18,-3.0,-2.0,0.0,-1.0,0.0,0.0,0.0,1.0
1.6951618777591764e+18,2.0,-1.0,-8.0,-7.0,-4.0,-5.0,-2.0,1.0
1.6951618777591764e+18,-5.0,-1.0,-2.0,-5.0,0.0,-2.0,6.0,-1.0
1.6951618777601764e+18,3.0,2.0,7.0,11.0,0.0,-1.0,-1.0,6.0
1.6951618777601764e+18,2.0,-2.0,3.0,3.0,3.0,4.0,5.0,2.0
1.695161877782164e+18,-14.0,-2.0,0.0,-2.0,-4.0,3.0,-4.0,-19.0
1.695161877782164e+18,8.0,1.0,-2.0,-3.0,0.0,0.0,-1.0,9.0
1.695161877783163e+18,0.0,0.0,3.0,-2.0,1.0,1.0,1.0,-1.0
1.695161877783163e+18,-2.0,-2.0,-21.0,-6.0,-2.0,-1.0,-6.0,-4.0
1.6951618778211397e+18,1.0,-2.0,-3.0,-7.0,-1.0,0.0,2.0,3.0
1.6951618778211397e+18,1.0,0.0,3.0,2.0,-3.0,0.0,0.0,-2.0
1.6951618778221404e+18,-4.0,0.0,13.0,16.0,1.0,-3.0,-3.0,-4.0
1.6951618778221404e+18,1.0,-3.0,5.0,-5.0,-3.0,-3.0,-1.0,0.0
1.6951618778231393e+18,2.0,-1.0,2.0,2.0,0.0,0.0,0.0,2.0
1.6951618778241385e+18,-1.0,1.0,-4.0,-6.0,0.0,-2.0,-1.0,-2.0
1.6951618778261368e+18,-1.0,-2.0,-7.0,-12.0,-2.0,2.0,1.0,0.0
1.6951618778261368e+18,1.0,1.0,-4.0,4.0,0.0,0.0,-1.0,-4.0
1.6951618778425582e+18,-8.0,-4.0,2.0,-1.0,-4.0,-3.0,-1.0,3.0
1.6951618778425582e+18,-3.0,-2.0,-6.0,-6.0,-2.0,-1.0,-3.0,-1.0
1.6951618778435453e+18,-2.0,1.0,-9.0,-8.0,1.0,0.0,-2.0,-8.0
1.6951618778435453e+18,-3.0,2.0,26.0,20.0,3.0,-3.0,-8.0,1.0
1.6951618778715267e+18,2.0,-1.0,-8.0,-4.0,4.0,1.0,6.0,1.0
1.695161877872528e+18,2.0,0.0,2.0,5.0,0.0,1.0,1.0,2.0
1.6951618778795233e+18,1.0,-1.0,-2.0,-4.0,-6.0,-1.0,-2.0,1.0
1.6951618778795233e+18,-5.0,-1.0,-15.0,-10.0,-1.0,-1.0,-5.0,-3.0
1.6951618778895173e+18,2.0,-2.0,10.0,3.0,-3.0,-2.0,-4.0,0.0
1.6951618778895173e+18,0.0,-3.0,-3.0,0.0,0.0,-1.0,-1.0,0.0
1.6951618778905165e+18,-1.0,0.0,-4.0,0.0,3.0,2.0,2.0,-9.0
1.6951618778905165e+18,2.0,0.0,0.0,-3.0,-5.0,-3.0,1.0,-1.0
1.6951618779105073e+18,0.0,0.0,4.0,7.0,3.0,0.0,-1.0,-1.0
1.6951618779105073e+18,-1.0,0.0,-11.0,-9.0,3.0,1.0,0.0,-1.0
1.6951618779115062e+18,1.0,-2.0,9.0,10.0,-2.0,-3.0,-1.0,1.0
1.6951618779115062e+18,3.0,1.0,12.0,2.0,-2.0,-1.0,0.0,-3.0
1.6951618779244984e+18,0.0,3.0,-2.0,-4.0,2.0,2.0,1.0,0.0
1.695161877925496e+18,-4.0,0.0,12.0,5.0,-2.0,-4.0,-6.0,-3.0
1.695161877926497e+18,0.0,-1.0,-11.0,-6.0,1.0,-2.0,-2.0,1.0
1.695161877926497e+18,0.0,-1.0,-15.0,-11.0,-5.0,-3.0,-3.0,0.0
1.6951618779484856e+18,-1.0,1.0,4.0,8.0,5.0,0.0,-1.0,1.0
1.6951618779564826e+18,1.0,0.0,3.0,0.0,-1.0,1.0,2.0,-1.0
1.6951618779564826e+18,3.0,-5.0,-8.0,0.0,-1.0,-1.0,0.0,2.0
1.6951618779574815e+18,-2.0,-1.0,0.0,-6.0,-1.0,2.0,1.0,-1.0
1.6951618779624768e+18,0.0,2.0,-7.0,-1.0,-2.0,-1.0,-3.0,-1.0
1.695161877963475e+18,0.0,-1.0,-7.0,-8.0,-4.0,-2.0,-1.0,-2.0
1.695161877963475e+18,-2.0,-1.0,2.0,-3.0,-3.0,-5.0,-2.0,0.0
1.695161877963475e+18,0.0,-4.0,-2.0,1.0,0.0,-1.0,-1.0,-2.0
1.6951618779852237e+18,-2.0,-3.0,0.0,3.0,1.0,4.0,3.0,0.0
1.6951618779852237e+18,-2.0,0.0,7.0,10.0,1.0,-2.0,-2.0,0.0
1.6951618779852237e+18,0.0,1.0,-5.0,-5.0,0.0,-1.0,2.0,2.0
1.695161877986226e+18,0.0,-2.0,3.0,-7.0,-2.0,-2.0,-4.0,-1.0
1.695161878007211e+18,1.0,1.0,6.0,2.0,-1.0,1.0,-1.0,1.0
1.695161878007211e+18,-1.0,1.0,8.0,4.0,1.0,1.0,1.0,-1.0
1.695161878008214e+18,-3.0,-5.0,-21.0,-8.0,-2.0,0.0,-2.0,0.0
1.695161878008214e+18,1.0,1.0,11.0,12.0,0.0,0.0,1.0,1.0
1.695161878022203e+18,0.0,-3.0,-8.0,-16.0,-4.0,-3.0,-3.0,-4.0
1.695161878022203e+18,-2.0,-1.0,-5.0,-2.0,-1.0,-2.0,-2.0,-3.0
1.695161878023214e+18,1.0,4.0,9.0,7.0,4.0,1.0,-1.0,0.0
1.695161878023214e+18,-2.0,-2.0,-4.0,-1.0,1.0,0.0,0.0,-1.0
1.695161878051212e+18,-2.0,-3.0,-2.0,-2.0,-5.0,-1.0,-1.0,0.0
1.6951618780521935e+18,0.0,-1.0,4.0,12.0,0.0,-2.0,-1.0,1.0
1.6951618780599035e+18,0.0,0.0,0.0,-9.0,-1.0,-1.0,-1.0,-1.0
1.6951618780599035e+18,-2.0,0.0,-5.0,-1.0,1.0,0.0,-1.0,-3.0
1.6951618780619162e+18,-2.0,1.0,-2.0,5.0,1.0,0.0,0.0,2.0
1.6951618780619162e+18,0.0,-1.0,-1.0,-7.0,-2.0,-1.0,-1.0,-1.0
1.6951618780669143e+18,-2.0,-2.0,1.0,3.0,-4.0,-2.0,0.0,-2.0
1.6951618780669143e+18,-1.0,-4.0,-14.0,-3.0,2.0,1.0,-3.0,-1.0
1.6951618780815227e+18,-3.0,0.0,0.0,-3.0,-1.0,0.0,0.0,0.0
1.6951618780815227e+18,2.0,-2.0,0.0,-1.0,0.0,0.0,-1.0,-1.0
1.695161878082518e+18,-1.0,2.0,6.0,7.0,1.0,-4.0,0.0,-1.0
1.695161878082518e+18,0.0,-1.0,-9.0,-13.0,-3.0,-1.0,0.0,0.0
1.6951618781123868e+18,-1.0,1.0,-1.0,11.0,0.0,5.0,-1.0,-1.0
1.6951618781123868e+18,-1.0,-2.0,-1.0,-18.0,1.0,-2.0,0.0,1.0
1.695161878113385e+18,-1.0,0.0,-3.0,-2.0,-3.0,1.0,-2.0,0.0
1.695161878113385e+18,1.0,4.0,15.0,18.0,2.0,1.0,-1.0,0.0
1.695161878130376e+18,0.0,0.0,4.0,2.0,-1.0,-4.0,0.0,0.0
1.6951618781343716e+18,-5.0,-7.0,-35.0,-26.0,-10.0,-2.0,-3.0,-2.0
1.6951618781343716e+18,-2.0,-1.0,2.0,-1.0,2.0,0.0,0.0,-1.0
1.6951618781343716e+18,-1.0,0.0,7.0,-1.0,-1.0,-4.0,0.0,-1.0
1.6951618781413916e+18,1.0,-3.0,-16.0,-4.0,-2.0,0.0,0.0,-2.0
1.695161878142376e+18,-1.0,2.0,16.0,14.0,1.0,1.0,0.0,-2.0
1.695161878142376e+18,-2.0,-2.0,4.0,2.0,1.0,1.0,-1.0,-1.0
1.695161878142376e+18,-1.0,-2.0,-10.0,-2.0,-2.0,0.0,-2.0,0.0
1.6951618781652014e+18,-1.0,0.0,10.0,-2.0,-1.0,-3.0,-2.0,0.0
1.6951618781652014e+18,-1.0,0.0,0.0,7.0,-1.0,0.0,-1.0,0.0
1.6951618781701988e+18,-1.0,-1.0,-11.0,-12.0,-1.0,1.0,0.0,-1.0
1.6951618781701988e+18,-2.0,-1.0,15.0,4.0,1.0,-1.0,2.0,0.0
1.6951618781891878e+18,1.0,-1.0,-7.0,1.0,-2.0,-4.0,-1.0,1.0
1.6951618781931853e+18,-2.0,0.0,5.0,7.0,0.0,-1.0,-1.0,-1.0
1.6951618781931853e+18,-1.0,1.0,10.0,11.0,2.0,3.0,0.0,1.0
1.6951618781931853e+18,-2.0,-3.0,-13.0,-11.0,-3.0,1.0,-4.0,-13.0
1.6951618782021804e+18,-3.0,-3.0,-11.0,-8.0,-1.0,-3.0,-2.0,-1.0
1.6951618782021804e+18,1.0,-1.0,-1.0,-1.0,-1.0,-3.0,0.0,1.0
1.6951618782021804e+18,0.0,1.0,3.0,3.0,1.0,2.0,0.0,0.0
1.6951618782031795e+18,-2.0,0.0,1.0,-1.0,-1.0,0.0,0.0,1.0
1.6951618782255452e+18,0.0,-2.0,0.0,-5.0,-3.0,-1.0,-1.0,-2.0
1.6951618782255452e+18,0.0,1.0,7.0,6.0,-1.0,1.0,-2.0,-2.0
1.6951618782265505e+18,0.0,-3.0,-11.0,-4.0,0.0,0.0,0.0,2.0
1.6951618782265505e+18,0.0,-1.0,-5.0,-5.0,-1.0,-2.0,-2.0,3.0
1.6951618782474783e+18,-3.0,1.0,4.0,1.0,-1.0,-1.0,-1.0,-2.0
1.6951618782474783e+18,6.0,0.0,3.0,2.0,1.0,1.0,1.0,4.0
1.69516187824848e+18,-2.0,-2.0,-6.0,-9.0,-3.0,-3.0,-2.0,-2.0
1.6951618782494784e+18,-1.0,-2.0,-5.0,-5.0,-1.0,-1.0,1.0,0.0
1.6951618782644695e+18,-1.0,1.0,3.0,3.0,-1.0,-1.0,-2.0,-2.0
1.6951618782644695e+18,-3.0,0.0,-3.0,-1.0,-1.0,0.0,0.0,-2.0
1.6951618782774674e+18,0.0,-2.0,2.0,-3.0,0.0,-2.0,-1.0,-1.0
1.6951618782784625e+18,1.0,1.0,5.0,3.0,0.0,0.0,1.0,0.0
1.695161878285529e+18,2.0,-1.0,-5.0,-1.0,0.0,-1.0,-3.0,-1.0
1.695161878285529e+18,-2.0,-2.0,-6.0,-4.0,-2.0,-2.0,-1.0,-1.0
1.695161878286601e+18,0.0,0.0,0.0,2.0,-1.0,-3.0,-2.0,-3.0
1.695161878286601e+18,0.0,0.0,0.0,0.0,0.0,-2.0,-2.0,3.0
1.6951618782986007e+18,-1.0,0.0,-1.0,-1.0,1.0,0.0,0.0,-1.0
1.6951618782986007e+18,-1.0,-2.0,0.0,-2.0,-1.0,-2.0,-2.0,-2.0
1.695161878307593e+18,-3.0,-1.0,3.0,1.0,-2.0,-1.0,-1.0,-2.0
1.695161878307593e+18,-1.0,1.0,1.0,0.0,0.0,0.0,-1.0,0.0
1.6951618783385764e+18,-1.0,0.0,2.0,-2.0,-1.0,0.0,1.0,-1.0
1.6951618783395748e+18,-2.0,-1.0,-3.0,0.0,-1.0,1.0,-1.0,-2.0
1.695161878340575e+18,1.0,-2.0,-1.0,-3.0,-2.0,1.0,-1.0,-1.0
1.695161878340575e+18,-1.0,0.0,0.0,-2.0,0.0,0.0,0.0,-1.0
1.695161878352567e+18,2.0,-1.0,1.0,3.0,-1.0,0.0,-1.0,-1.0
1.695161878352567e+18,1.0,-1.0,-3.0,-2.0,-1.0,-1.0,1.0,-1.0
1.695161878358566e+18,-2.0,0.0,2.0,0.0,0.0,-2.0,-1.0,-1.0
1.695161878359564e+18,-1.0,-2.0,-1.0,-1.0,0.0,0.0,0.0,-1.0
1.695161878367558e+18,-1.0,-1.0,0.0,-1.0,0.0,-3.0,0.0,0.0
1.695161878367558e+18,-1.0,0.0,-3.0,-1.0,0.0,0.0,1.0,-1.0
1.695161878368558e+18,0.0,1.0,2.0,1.0,0.0,-1.0,-1.0,0.0
1.6951618783695572e+18,-2.0,-1.0,-4.0,-3.0,-2.0,-1.0,-1.0,-1.0
1.6951618783975406e+18,-2.0,-1.0,-1.0,0.0,-2.0,-1.0,-1.0,-2.0
1.6951618783975406e+18,-2.0,0.0,-1.0,1.0,0.0,-1.0,-2.0,0.0
1.6951618783985403e+18,-1.0,1.0,-2.0,-1.0,0.0,1.0,-2.0,0.0
1.6951618783985403e+18,-1.0,-1.0,2.0,-1.0,0.0,-1.0,0.0,2.0
1.695161878412533e+18,0.0,0.0,11.0,-1.0,1.0,0.0,1.0,-1.0
1.695161878412533e+18,-1.0,-4.0,-7.0,-4.0,-3.0,0.0,-4.0,-1.0
1.6951618784135365e+18,-1.0,-2.0,1.0,-1.0,-2.0,-1.0,-1.0,-2.0
1.6951618784145324e+18,0.0,-2.0,-5.0,-2.0,-3.0,-2.0,-1.0,-1.0
1.695161878427523e+18,-1.0,1.0,8.0,3.0,0.0,0.0,-3.0,-1.0
1.695161878427523e+18,-2.0,-2.0,-1.0,-1.0,-2.0,0.0,0.0,-2.0
1.6951618784285235e+18,1.0,0.0,3.0,-1.0,-1.0,2.0,1.0,1.0
1.6951618784285235e+18,1.0,-1.0,-7.0,2.0,-1.0,-1.0,-1.0,-1.0
1.6951618784505142e+18,-2.0,-2.0,-3.0,-3.0,-3.0,-2.0,-2.0,0.0
1.6951618784505142e+18,-1.0,2.0,-4.0,-1.0,0.0,-2.0,0.0,2.0
1.6951618784515133e+18,0.0,0.0,-2.0,-4.0,-1.0,-2.0,-1.0,-2.0
1.6951618784515133e+18,0.0,-1.0,3.0,0.0,1.0,-2.0,0.0,-1.0
1.695161878464504e+18,0.0,-4.0,-5.0,-2.0,-1.0,1.0,0.0,0.0
1.6951618784655068e+18,-1.0,-1.0,1.0,-2.0,0.0,-2.0,1.0,-1.0
1.695161878466507e+18,-1.0,0.0,1.0,7.0,-1.0,-1.0,0.0,0.0
1.695161878466507e+18,0.0,0.0,1.0,-3.0,0.0,0.0,-1.0,0.0
1.695161878487489e+18,-2.0,-1.0,-5.0,3.0,-1.0,-3.0,-2.0,-1.0
1.695161878487489e+18,-2.0,0.0,2.0,-2.0,-2.0,0.0,-1.0,-1.0
1.6951618784894894e+18,0.0,-2.0,-4.0,-4.0,-1.0,-1.0,-1.0,-1.0
1.6951618784894894e+18,-1.0,-1.0,1.0,0.0,1.0,-1.0,-2.0,0.0
1.6951618785014835e+18,-2.0,0.0,-1.0,-2.0,2.0,0.0,0.0,0.0
1.6951618785014835e+18,1.0,-2.0,3.0,0.0,-3.0,0.0,0.0,-1.0
1.6951618785094766e+18,-1.0,1.0,-5.0,-2.0,-2.0,1.0,-2.0,0.0
1.6951618785104758e+18,-1.0,-1.0,0.0,-2.0,-2.0,-3.0,-2.0,0.0
1.6951618785244915e+18,1.0,0.0,5.0,1.0,0.0,2.0,-1.0,0.0
1.6951618785254723e+18,-3.0,0.0,-1.0,1.0,-2.0,0.0,-2.0,-1.0
1.6951618785264911e+18,-1.0,-1.0,-2.0,-1.0,-1.0,-2.0,0.0,-1.0
1.6951618785264911e+18,0.0,-2.0,1.0,1.0,0.0,-1.0,-1.0,0.0
1.695161878555455e+18,0.0,0.0,-2.0,-1.0,-1.0,-1.0,1.0,-1.0
1.695161878555455e+18,-1.0,1.0,0.0,-1.0,1.0,0.0,-1.0,-1.0
1.69516187855645e+18,-1.0,-2.0,-2.0,-3.0,0.0,-1.0,0.0,1.0
1.69516187855645e+18,-1.0,-1.0,-1.0,4.0,0.0,2.0,-1.0,-2.0
1.695161878561447e+18,1.0,0.0,0.0,-1.0,0.0,0.0,1.0,0.0
1.695161878561447e+18,-1.0,-7.0,-13.0,-7.0,0.0,0.0,-1.0,-1.0
1.6951618785704417e+18,0.0,0.0,7.0,2.0,2.0,-2.0,-1.0,1.0
1.6951618785704417e+18,-3.0,1.0,-2.0,-1.0,0.0,0.0,0.0,-1.0
1.695161878592453e+18,-1.0,-3.0,-3.0,-3.0,-1.0,-2.0,-1.0,-1.0
1.695161878592453e+18,0.0,2.0,3.0,1.0,-1.0,-2.0,2.0,0.0
1.695161878594431e+18,-1.0,0.0,0.0,0.0,0.0,-1.0,0.0,-1.0
1.695161878594431e+18,0.0,0.0,-2.0,-3.0,-2.0,-2.0,0.0,-2.0
1.695161878615416e+18,-2.0,1.0,-5.0,-3.0,0.0,-2.0,-2.0,-1.0
1.695161878615416e+18,0.0,-2.0,0.0,1.0,0.0,0.0,-2.0,0.0
1.6951618786164152e+18,-1.0,-2.0,-3.0,-1.0,-1.0,0.0,1.0,0.0
1.6951618786164152e+18,2.0,-2.0,2.0,0.0,0.0,-1.0,-1.0,0.0
1.6951618786304087e+18,0.0,-1.0,-3.0,-4.0,-1.0,-1.0,-2.0,1.0
1.6951618786304087e+18,-2.0,0.0,1.0,1.0,0.0,-3.0,0.0,-1.0
1.6951618786314076e+18,-1.0,-3.0,-4.0,-4.0,-1.0,0.0,1.0,-1.0
1.6951618786314076e+18,-1.0,1.0,4.0,0.0,-2.0,-2.0,-1.0,0.0
1.6951618786443999e+18,-1.0,5.0,-8.0,-4.0,-2.0,0.0,-2.0,-2.0
1.6951618786453993e+18,0.0,-2.0,3.0,-2.0,-2.0,-1.0,-1.0,-1.0
1.6951618786463992e+18,0.0,-2.0,0.0,1.0,-1.0,1.0,-1.0,0.0
1.695161878647402e+18,1.0,-2.0,-1.0,-1.0,-1.0,-1.0,1.0,-1.0
1.6951618786674107e+18,-2.0,-2.0,-1.0,1.0,0.0,-2.0,-2.0,-2.0
1.6951618786674107e+18,0.0,1.0,1.0,-1.0,-1.0,-2.0,0.0,-1.0
1.695161878669386e+18,-1.0,-1.0,-8.0,0.0,0.0,-2.0,0.0,0.0
1.695161878669386e+18,1.0,-2.0,-6.0,-3.0,0.0,-1.0,-1.0,-1.0
1.6951618786813793e+18,-1.0,0.0,4.0,1.0,1.0,0.0,0.0,-1.0
1.6951618786813793e+18,0.0,0.0,4.0,-1.0,-1.0,-1.0,-2.0,-2.0
1.6951618786903734e+18,-1.0,-1.0,-6.0,-3.0,0.0,-1.0,-1.0,-1.0
1.6951618786903734e+18,0.0,-1.0,1.0,1.0,-1.0,-2.0,-1.0,-1.0
1.6951618787053663e+18,0.0,-3.0,0.0,1.0,0.0,1.0,0.0,0.0
1.6951618787063662e+18,-1.0,0.0,7.0,3.0,0.0,-1.0,-1.0,0.0
1.6951618787063662e+18,0.0,-1.0,-10.0,-5.0,-2.0,0.0,-2.0,-2.0
1.6951618787063662e+18,0.0,0.0,0.0,1.0,0.0,0.0,1.0,-2.0
1.6951618787273518e+18,-2.0,-1.0,-1.0,-2.0,-1.0,0.0,0.0,-1.0
1.6951618787273518e+18,-1.0,-1.0,-4.0,1.0,1.0,0.0,-1.0,2.0
1.6951618787293517e+18,-4.0,-2.0,-4.0,-3.0,1.0,-2.0,0.0,0.0
1.6951618787293517e+18,-3.0,0.0,3.0,5.0,-1.0,0.0,0.0,-1.0
1.695161878741344e+18,1.0,-3.0,-4.0,-2.0,1.0,-2.0,1.0,0.0
1.695161878741344e+18,1.0,0.0,-2.0,-2.0,-1.0,-1.0,-1.0,0.0
1.695161878750339e+18,-1.0,1.0,7.0,2.0,0.0,-1.0,-3.0,-1.0
1.695161878750339e+18,0.0,-1.0,-3.0,-4.0,-2.0,0.0,-2.0,0.0
1.6951618787803228e+18,0.0,0.0,-2.0,0.0,0.0,0.0,0.0,0.0
1.6951618787803228e+18,-1.0,1.0,-3.0,0.0,0.0,-2.0,0.0,-2.0
1.695161878781323e+18,1.0,-3.0,0.0,-3.0,0.0,-1.0,-1.0,-1.0
1.695161878781323e+18,-2.0,2.0,-6.0,-4.0,0.0,-1.0,0.0,-1.0
1.695161878794314e+18,-1.0,-2.0,4.0,1.0,0.0,-1.0,-1.0,-2.0
1.695161878794314e+18,-2.0,-3.0,-6.0,3.0,2.0,0.0,-1.0,-1.0
1.6951618788063073e+18,0.0,-1.0,2.0,1.0,-1.0,1.0,-1.0,-1.0
1.6951618788063073e+18,-1.0,-2.0,4.0,0.0,-1.0,-2.0,-2.0,-1.0
1.6951618788063073e+18,0.0,-2.0,-4.0,-5.0,-3.0,-1.0,-1.0,0.0
1.6951618788073075e+18,0.0,-1.0,-2.0,0.0,-1.0,-1.0,0.0,-1.0
1.6951618788103045e+18,0.0,1.0,5.0,3.0,1.0,0.0,-1.0,-1.0
1.6951618788103045e+18,-1.0,-2.0,-10.0,-5.0,0.0,0.0,0.0,0.0
1.6951618788323167e+18,-3.0,0.0,0.0,0.0,0.0,-1.0,-1.0,-1.0
1.6951618788323167e+18,-1.0,-3.0,7.0,0.0,0.0,-1.0,-2.0,-1.0
1.695161878834291e+18,-1.0,-2.0,-18.0,-6.0,-3.0,-3.0,1.0,0.0
1.695161878834291e+18,-2.0,1.0,2.0,2.0,-1.0,-1.0,-2.0,-1.0
1.6951618788552796e+18,-1.0,-2.0,-2.0,1.0,0.0,-1.0,0.0,0.0
1.6951618788552796e+18,0.0,0.0,3.0,0.0,0.0,1.0,-1.0,0.0
1.6951618788562796e+18,-1.0,1.0,4.0,0.0,0.0,-1.0,0.0,-1.0
1.6951618788572808e+18,-1.0,-1.0,-2.0,-3.0,-1.0,0.0,1.0,0.0
1.6951618788612751e+18,0.0,0.0,-2.0,-4.0,-2.0,1.0,0.0,-1.0
1.6951618788612751e+18,-1.0,-4.0,-12.0,-3.0,-2.0,0.0,-1.0,-2.0
1.6951618788702725e+18,-2.0,-2.0,14.0,10.0,-1.0,-1.0,-2.0,-2.0
1.6951618788702725e+18,-1.0,0.0,2.0,1.0,-1.0,-1.0,-1.0,-2.0
1.6951618788922578e+18,-1.0,0.0,-8.0,-3.0,0.0,-1.0,-1.0,0.0
1.6951618788922578e+18,0.0,1.0,-3.0,-4.0,0.0,-1.0,-1.0,0.0
1.6951618788942564e+18,-1.0,-2.0,0.0,0.0,0.0,1.0,0.0,-1.0
1.6951618788942564e+18,0.0,-1.0,2.0,1.0,-1.0,-1.0,-1.0,-2.0
1.6951618789072494e+18,0.0,-1.0,0.0,-2.0,0.0,-3.0,0.0,0.0
1.695161878908249e+18,-1.0,-2.0,-4.0,-2.0,-1.0,-1.0,1.0,0.0
1.695161878909248e+18,-1.0,0.0,0.0,-1.0,0.0,-1.0,-2.0,-2.0
1.695161878909248e+18,1.0,0.0,4.0,1.0,1.0,-1.0,-2.0,-2.0
1.6951618789302364e+18,-1.0,-3.0,0.0,-1.0,-1.0,0.0,-1.0,0.0
1.6951618789312374e+18,-1.0,-1.0,-3.0,-3.0,0.0,-1.0,2.0,0.0
1.6951618789312374e+18,-1.0,1.0,8.0,9.0,1.0,0.0,-2.0,-1.0
1.6951618789312374e+18,-3.0,-2.0,-11.0,-7.0,0.0,0.0,0.0,0.0
1.6951618789452283e+18,-1.0,-1.0,3.0,0.0,-2.0,0.0,-2.0,-2.0
1.6951618789462285e+18,1.0,0.0,0.0,-1.0,-1.0,-1.0,-2.0,-1.0
1.6951618789462285e+18,-1.0,0.0,1.0,-5.0,-1.0,-2.0,1.0,0.0
1.6951618789472266e+18,0.0,0.0,-6.0,-1.0,-1.0,-1.0,-1.0,0.0
1.6951618789672138e+18,-1.0,0.0,0.0,0.0,0.0,-1.0,0.0,0.0
1.6951618789672138e+18,-1.0,1.0,7.0,1.0,-1.0,0.0,-2.0,0.0
1.6951618789692147e+18,1.0,-3.0,-18.0,-7.0,-2.0,-2.0,-2.0,1.0
1.6951618789692147e+18,-1.0,0.0,4.0,7.0,0.0,-2.0,1.0,1.0
1.6951618789812093e+18,0.0,-1.0,3.0,2.0,-1.0,-1.0,-1.0,-3.0
1.6951618789812093e+18,-1.0,0.0,-3.0,-3.0,0.0,0.0,1.0,-2.0
1.695161879005194e+18,0.0,0.0,1.0,-1.0,0.0,-2.0,1.0,-2.0
1.6951618790061967e+18,-1.0,-1.0,3.0,2.0,-1.0,-1.0,0.0,0.0
1.6951618790061967e+18,-1.0,0.0,0.0,0.0,2.0,-1.0,0.0,0.0
1.6951618790061967e+18,-1.0,-1.0,0.0,2.0,1.0,-2.0,0.0,-1.0
1.6951618790081912e+18,-2.0,-1.0,-4.0,-2.0,-1.0,0.0,-1.0,-1.0
1.6951618790081912e+18,2.0,0.0,-1.0,-3.0,0.0,-1.0,0.0,0.0
1.6951618790361754e+18,-2.0,-3.0,-2.0,-1.0,-3.0,-1.0,-4.0,-2.0
1.6951618790361754e+18,-1.0,0.0,-3.0,1.0,-1.0,-1.0,-1.0,-1.0
1.6951618790361754e+18,-1.0,-3.0,-1.0,-5.0,-2.0,1.0,-2.0,0.0
1.695161879037175e+18,-1.0,-1.0,0.0,1.0,0.0,-2.0,-1.0,-2.0
1.695161879041172e+18,-1.0,-2.0,-1.0,1.0,0.0,-2.0,-1.0,1.0
1.695161879041172e+18,0.0,0.0,4.0,1.0,0.0,0.0,-1.0,1.0
1.6951618790801508e+18,-1.0,0.0,-5.0,-3.0,0.0,-2.0,-1.0,-2.0
1.6951618790811548e+18,-1.0,-3.0,1.0,-1.0,-1.0,1.0,-3.0,-1.0
1.6951618790811548e+18,1.0,1.0,5.0,0.0,-2.0,1.0,0.0,0.0
1.6951618790811548e+18,-3.0,-3.0,-7.0,-2.0,-3.0,-1.0,-1.0,-1.0
1.6951618790881485e+18,0.0,1.0,5.0,3.0,1.0,-1.0,0.0,1.0
1.695161879089153e+18,1.0,-2.0,-4.0,-4.0,-1.0,-2.0,0.0,1.0
1.695161879089153e+18,0.0,0.0,0.0,1.0,-1.0,0.0,-1.0,-1.0
1.695161879090146e+18,0.0,0.0,2.0,-1.0,-2.0,-1.0,0.0,-1.0
1.695161879090146e+18,1.0,0.0,3.0,4.0,1.0,-1.0,0.0,-1.0
1.695161879090146e+18,-2.0,-2.0,-4.0,-6.0,-2.0,1.0,0.0,-1.0
1.695161879111133e+18,0.0,0.0,-9.0,0.0,0.0,-2.0,-2.0,0.0
1.6951618791181317e+18,-1.0,0.0,0.0,-1.0,1.0,-2.0,-3.0,-1.0
1.6951618791181317e+18,-1.0,0.0,-2.0,1.0,0.0,-1.0,0.0,-2.0
1.6951618791191299e+18,0.0,-1.0,1.0,-1.0,0.0,0.0,-1.0,-1.0
1.6951618791321219e+18,0.0,-1.0,-1.0,-1.0,-1.0,-1.0,2.0,0.0
1.6951618791331215e+18,-2.0,-2.0,-1.0,1.0,-1.0,0.0,0.0,-1.0
1.6951618791341192e+18,-1.0,-1.0,5.0,0.0,-2.0,-1.0,-1.0,0.0
1.6951618791341192e+18,-1.0,0.0,-8.0,-5.0,-1.0,-1.0,-1.0,-1.0
1.6951618791471112e+18,-2.0,-2.0,1.0,0.0,-1.0,0.0,0.0,-2.0
1.6951618791481142e+18,-1.0,1.0,0.0,5.0,0.0,0.0,-1.0,0.0
1.6951618791491346e+18,-1.0,-2.0,1.0,-1.0,-1.0,-1.0,-1.0,-2.0
1.6951618791491346e+18,0.0,1.0,2.0,-1.0,0.0,-2.0,-1.0,-2.0
1.695161879170554e+18,-1.0,-1.0,3.0,-2.0,0.0,0.0,-1.0,-2.0
1.695161879172557e+18,1.0,-2.0,-9.0,-4.0,-1.0,-1.0,-1.0,-2.0
1.695161879172557e+18,0.0,-1.0,-1.0,-2.0,-1.0,0.0,0.0,0.0
1.6951618791735575e+18,-1.0,0.0,2.0,2.0,-1.0,0.0,-1.0,-1.0
1.6951618791935414e+18,-1.0,0.0,-1.0,0.0,-1.0,-2.0,0.0,-1.0
1.695161879194542e+18,0.0,-1.0,-2.0,-2.0,-1.0,-1.0,-1.0,1.0
1.695161879194542e+18,0.0,-2.0,-3.0,-4.0,0.0,0.0,0.0,-1.0
1.695161879194542e+18,2.0,1.0,2.0,5.0,-1.0,-2.0,-1.0,-1.0
1.6951618792075325e+18,-3.0,-1.0,1.0,-1.0,0.0,-1.0,-1.0,-1.0
1.6951618792075325e+18,2.0,0.0,0.0,-2.0,2.0,1.0,-1.0,0.0
1.695161879208534e+18,-2.0,-1.0,-2.0,0.0,-1.0,0.0,-1.0,-4.0
1.6951618792095334e+18,0.0,-1.0,6.0,0.0,1.0,-1.0,-1.0,0.0
1.695161879221527e+18,-1.0,-2.0,-8.0,-2.0,1.0,1.0,-2.0,-2.0
1.695161879221527e+18,-1.0,-1.0,-6.0,-3.0,-2.0,-1.0,1.0,-1.0
1.6951618792295212e+18,-1.0,0.0,-1.0,-1.0,-2.0,0.0,-1.0,-2.0
1.69516187923052e+18,-2.0,0.0,-2.0,0.0,-2.0,0.0,0.0,1.0
1.6951618792455122e+18,0.0,-2.0,4.0,-1.0,-1.0,3.0,-1.0,0.0
1.6951618792455122e+18,0.0,-2.0,-10.0,-2.0,-1.0,-2.0,-2.0,-1.0
1.6951618792465114e+18,-1.0,-1.0,0.0,-1.0,0.0,0.0,1.0,0.0
1.6951618792465114e+18,-2.0,0.0,-1.0,0.0,-2.0,1.0,0.0,-1.0
1.6951618792744942e+18,0.0,1.0,0.0,-1.0,0.0,-2.0,-1.0,0.0
1.6951618792754975e+18,-4.0,-1.0,3.0,0.0,-3.0,-2.0,-1.0,-1.0
1.6951618792765197e+18,0.0,-2.0,-1.0,1.0,-1.0,0.0,-1.0,0.0
1.6951618792765197e+18,-1.0,-2.0,-2.0,-2.0,1.0,-1.0,-2.0,0.0
1.6951618792814917e+18,-1.0,0.0,-2.0,-5.0,0.0,-1.0,0.0,-1.0
1.6951618792814917e+18,0.0,-2.0,2.0,5.0,-1.0,-1.0,-2.0,-2.0
1.6951618792974904e+18,-1.0,-1.0,0.0,-2.0,2.0,-2.0,-1.0,0.0
1.6951618792974904e+18,-2.0,-1.0,0.0,-3.0,-2.0,0.0,0.0,2.0
1.6951618793124726e+18,-2.0,-1.0,0.0,0.0,0.0,-1.0,-1.0,-1.0
1.6951618793124726e+18,-2.0,0.0,-4.0,-3.0,0.0,1.0,-1.0,-1.0
1.695161879314473e+18,-2.0,-1.0,-3.0,2.0,0.0,-1.0,-2.0,1.0
1.695161879314473e+18,-1.0,0.0,2.0,2.0,-2.0,-2.0,-2.0,-3.0
1.695161879327464e+18,-1.0,0.0,0.0,0.0,-2.0,-1.0,0.0,-1.0
1.6951618793284654e+18,0.0,-3.0,0.0,-1.0,0.0,1.0,1.0,-1.0
1.695161879333463e+18,-1.0,0.0,1.0,-1.0,-2.0,-1.0,-1.0,0.0
1.695161879333463e+18,0.0,-1.0,-3.0,-1.0,1.0,1.0,0.0,-3.0
1.695161879349476e+18,0.0,-2.0,-7.0,0.0,-2.0,-2.0,-1.0,0.0
1.695161879350454e+18,-2.0,-1.0,2.0,-1.0,1.0,-1.0,-2.0,0.0
1.6951618793514514e+18,0.0,-2.0,-2.0,-4.0,-1.0,-3.0,-1.0,-1.0
1.6951618793514514e+18,-2.0,-1.0,3.0,-1.0,-2.0,0.0,1.0,0.0
1.6951618793654433e+18,0.0,-1.0,6.0,-1.0,-2.0,1.0,0.0,-1.0
1.6951618793654433e+18,0.0,0.0,-8.0,-2.0,-2.0,-1.0,-1.0,1.0
1.6951618793664453e+18,0.0,-2.0,-2.0,-2.0,-2.0,-1.0,-2.0,0.0
1.6951618793664453e+18,0.0,-1.0,-3.0,-4.0,-1.0,-2.0,-1.0,0.0
1.695161879387548e+18,0.0,0.0,4.0,10.0,1.0,-1.0,-1.0,-1.0
1.6951618793885486e+18,-1.0,1.0,7.0,-3.0,-1.0,-1.0,2.0,0.0
1.69516187938955e+18,-1.0,1.0,1.0,0.0,0.0,-2.0,0.0,0.0
1.69516187938955e+18,0.0,-2.0,-3.0,-2.0,0.0,-1.0,-1.0,-2.0
1.695161879409536e+18,0.0,-1.0,-4.0,-3.0,-3.0,-2.0,-1.0,0.0
1.695161879409536e+18,-1.0,0.0,7.0,3.0,0.0,0.0,-1.0,1.0
1.6951618794487025e+18,1.0,-1.0,-4.0,0.0,-1.0,2.0,-1.0,-1.0
1.6951618794497065e+18,-1.0,0.0,1.0,-1.0,0.0,-2.0,0.0,1.0
1.6951618794497065e+18,-3.0,-1.0,-6.0,-5.0,0.0,-1.0,1.0,-2.0
1.6951618794497065e+18,0.0,0.0,5.0,1.0,-2.0,-1.0,-3.0,-1.0
1.6951618794507054e+18,-1.0,0.0,1.0,-1.0,-3.0,0.0,-1.0,-1.0
1.6951618794517133e+18,-1.0,1.0,2.0,0.0,0.0,2.0,-1.0,-1.0
1.6951618794636982e+18,-2.0,0.0,-2.0,0.0,2.0,-1.0,-2.0,1.0
1.6951618794756954e+18,-1.0,-2.0,-4.0,-6.0,-1.0,0.0,-1.0,0.0
1.6951618794756954e+18,1.0,0.0,-1.0,1.0,-1.0,-1.0,0.0,-1.0
1.695161879476692e+18,-1.0,0.0,2.0,4.0,-1.0,-1.0,-2.0,-1.0
1.695161879476692e+18,1.0,-2.0,0.0,-4.0,-1.0,-1.0,-1.0,-2.0
1.695161879477691e+18,0.0,-1.0,-5.0,-1.0,0.0,-1.0,-2.0,-2.0
1.695161879477691e+18,-2.0,-1.0,-1.0,-1.0,-1.0,-3.0,0.0,-2.0
1.695161879478693e+18,1.0,-1.0,-1.0,-2.0,0.0,-1.0,1.0,-1.0
1.6951618794846853e+18,0.0,0.0,-2.0,-2.0,0.0,0.0,-1.0,-2.0
1.6951618794846853e+18,-1.0,-1.0,1.0,0.0,-1.0,0.0,-1.0,-1.0
1.695161879498678e+18,0.0,0.0,0.0,-1.0,0.0,0.0,-2.0,1.0
1.695161879498678e+18,-2.0,-1.0,-4.0,0.0,-2.0,-1.0,-1.0,-2.0
1.6951618795076726e+18,-2.0,-1.0,-2.0,-2.0,-1.0,0.0,-1.0,0.0
1.6951618795076726e+18,2.0,0.0,2.0,2.0,-1.0,0.0,1.0,-2.0
1.695161879508673e+18,-1.0,-2.0,0.0,0.0,-2.0,-1.0,-2.0,-1.0
1.695161879509674e+18,0.0,-1.0,-1.0,-1.0,0.0,-1.0,0.0,-1.0
1.6951618795376566e+18,0.0,-1.0,0.0,0.0,1.0,-1.0,0.0,-1.0
1.695161879539655e+18,-1.0,-2.0,-3.0,-4.0,-1.0,0.0,0.0,0.0
1.6951618795406548e+18,-1.0,-1.0,3.0,1.0,1.0,1.0,-2.0,0.0
1.6951618795406548e+18,0.0,-1.0,-4.0,0.0,-2.0,-2.0,-2.0,-3.0
1.6951618795526487e+18,0.0,1.0,7.0,0.0,-2.0,0.0,0.0,0.0
1.6951618795526487e+18,0.0,-1.0,-6.0,0.0,0.0,-2.0,0.0,-1.0
1.6951618795546468e+18,-1.0,-1.0,0.0,-5.0,0.0,-2.0,0.0,0.0
1.6951618795546468e+18,-1.0,0.0,-1.0,-1.0,-1.0,0.0,-1.0,-1.0
1.6951618795706373e+18,0.0,-2.0,0.0,1.0,-1.0,-2.0,-1.0,0.0
1.695161879572639e+18,-2.0,0.0,4.0,-1.0,0.0,-1.0,0.0,-1.0
1.695161879575639e+18,-1.0,-1.0,-1.0,-1.0,0.0,-1.0,-3.0,-1.0
1.695161879575639e+18,-2.0,0.0,1.0,4.0,-1.0,0.0,0.0,1.0
1.6951618795896271e+18,-1.0,0.0,-2.0,-1.0,-2.0,-1.0,0.0,-2.0
1.6951618795906255e+18,-2.0,0.0,0.0,0.0,-2.0,0.0,-2.0,-4.0
1.6951618795916244e+18,1.0,0.0,-3.0,0.0,-1.0,-1.0,1.0,-2.0
1.6951618795916244e+18,-1.0,-1.0,-4.0,-4.0,-2.0,-2.0,-1.0,-1.0
1.6951618796136146e+18,-1.0,-1.0,-2.0,0.0,-1.0,1.0,-1.0,-1.0
1.6951618796166134e+18,-2.0,-2.0,3.0,-1.0,1.0,1.0,2.0,2.0
1.695161879617613e+18,-1.0,0.0,-4.0,0.0,0.0,0.0,1.0,2.0
1.6951618796186104e+18,-1.0,-1.0,-1.0,-1.0,3.0,1.0,0.0,1.0
1.6951618796356004e+18,-2.0,1.0,5.0,0.0,0.0,1.0,0.0,0.0
1.6951618796365993e+18,2.0,1.0,-7.0,1.0,0.0,0.0,-2.0,0.0
1.6951618796365993e+18,-1.0,2.0,4.0,1.0,-2.0,-1.0,0.0,-2.0
1.6951618796365993e+18,2.0,1.0,5.0,-2.0,1.0,0.0,1.0,-1.0
1.6951618796496164e+18,2.0,0.0,-11.0,-6.0,0.0,1.0,-1.0,0.0
1.6951618796505923e+18,-1.0,-1.0,5.0,3.0,-1.0,-2.0,0.0,-1.0
1.6951618796515932e+18,0.0,0.0,-2.0,-2.0,-1.0,0.0,-2.0,0.0
1.6951618796515932e+18,-1.0,-1.0,2.0,-2.0,0.0,-1.0,-2.0,0.0
1.695161879672579e+18,0.0,-1.0,1.0,0.0,-1.0,-1.0,1.0,-1.0
1.695161879672579e+18,2.0,1.0,1.0,-3.0,-2.0,-1.0,0.0,2.0
1.69516187967358e+18,0.0,-1.0,-3.0,-2.0,0.0,0.0,0.0,-1.0
1.6951618796745772e+18,-1.0,0.0,0.0,-1.0,-1.0,0.0,-3.0,-1.0
1.6951618796895693e+18,-1.0,-1.0,2.0,0.0,-2.0,1.0,-2.0,0.0
1.695161879690569e+18,-1.0,0.0,-1.0,0.0,1.0,-2.0,-1.0,-1.0
1.695161879690569e+18,0.0,1.0,4.0,1.0,0.0,1.0,0.0,-1.0
1.695161879690569e+18,1.0,0.0,-1.0,-2.0,0.0,1.0,-3.0,0.0
1.6951618797105582e+18,0.0,-2.0,-1.0,0.0,-2.0,0.0,0.0,-1.0
1.6951618797105582e+18,-1.0,-1.0,0.0,2.0,0.0,-1.0,0.0,-1.0
1.6951618797175532e+18,-1.0,-1.0,-1.0,-2.0,-2.0,-1.0,-1.0,0.0
1.6951618797175532e+18,-1.0,0.0,-1.0,0.0,-2.0,-1.0,1.0,0.0
1.695161879723551e+18,-1.0,-1.0,-1.0,-1.0,1.0,-1.0,-1.0,1.0
1.695161879723551e+18,-2.0,-1.0,-2.0,3.0,-1.0,1.0,-1.0,-1.0
1.6951618797495583e+18,-1.0,-2.0,-6.0,-5.0,-1.0,-2.0,1.0,1.0
1.6951618797495583e+18,-1.0,0.0,0.0,1.0,-1.0,-1.0,-1.0,0.0
1.6951618797505341e+18,1.0,0.0,6.0,-3.0,-1.0,-1.0,-2.0,-1.0
1.6951618797505341e+18,0.0,0.0,-12.0,-2.0,3.0,1.0,-1.0,1.0
1.6951618797535347e+18,0.0,1.0,2.0,0.0,1.0,2.0,1.0,0.0
1.6951618797545367e+18,-1.0,1.0,0.0,-3.0,-2.0,-1.0,0.0,-2.0
1.695161879781994e+18,-3.0,0.0,-1.0,2.0,1.0,0.0,1.0,-1.0
1.695161879783995e+18,-2.0,-1.0,3.0,1.0,-3.0,-1.0,-4.0,-1.0
1.6951618797849923e+18,1.0,-2.0,-4.0,-3.0,-13.0,-5.0,-2.0,-1.0
1.6951618797849923e+18,-1.0,-3.0,-5.0,-2.0,2.0,-2.0,-2.0,-2.0
1.695161879799982e+18,-1.0,0.0,-1.0,-1.0,2.0,0.0,0.0,0.0
1.695161879799982e+18,0.0,0.0,0.0,-6.0,-2.0,1.0,2.0,1.0
1.695161879800982e+18,-2.0,-3.0,-2.0,1.0,5.0,4.0,-1.0,0.0
1.6951618798019812e+18,-2.0,-1.0,2.0,0.0,-8.0,-4.0,0.0,0.0
1.6951618798079795e+18,0.0,0.0,-4.0,-3.0,-4.0,-5.0,-4.0,-2.0
1.6951618798079795e+18,0.0,-1.0,2.0,-3.0,2.0,2.0,3.0,-1.0
1.6951618798090015e+18,1.0,-1.0,0.0,-2.0,-1.0,-1.0,1.0,-1.0
1.6951618798090015e+18,0.0,-1.0,0.0,0.0,-3.0,-3.0,-1.0,-1.0
1.69516187982999e+18,-3.0,1.0,-2.0,3.0,3.0,-2.0,-1.0,-2.0
1.6951618798309655e+18,0.0,0.0,-1.0,0.0,1.0,-3.0,-3.0,-1.0
1.6951618798319685e+18,1.0,-1.0,2.0,0.0,2.0,1.0,1.0,0.0
1.6951618798319685e+18,-2.0,-4.0,-3.0,3.0,3.0,1.0,1.0,-2.0
1.695161879852498e+18,1.0,2.0,-2.0,0.0,-1.0,-2.0,-1.0,-1.0
1.695161879852498e+18,2.0,-2.0,3.0,-1.0,-4.0,-3.0,0.0,1.0
1.695161879854478e+18,-1.0,-1.0,-3.0,-3.0,2.0,0.0,-2.0,-1.0
1.695161879854478e+18,0.0,-1.0,-1.0,-1.0,0.0,0.0,-1.0,0.0
1.6951618798915418e+18,1.0,-2.0,0.0,-3.0,-4.0,-2.0,1.0,-1.0
1.6951618798915418e+18,0.0,1.0,0.0,-1.0,1.0,0.0,-3.0,-2.0
1.695161879892545e+18,-1.0,1.0,0.0,6.0,4.0,1.0,0.0,-1.0
1.695161879892545e+18,0.0,-2.0,-1.0,-1.0,0.0,-1.0,0.0,-2.0
1.6951618798935644e+18,-1.0,0.0,5.0,3.0,-2.0,-2.0,-2.0,-2.0
1.6951618798935644e+18,0.0,-2.0,-6.0,-1.0,4.0,1.0,-1.0,0.0
1.695161879897158e+18,-4.0,-1.0,-9.0,-5.0,3.0,-1.0,-1.0,-1.0
1.6951618798981545e+18,-1.0,-2.0,-6.0,-4.0,-1.0,1.0,0.0,0.0
1.6951618799141478e+18,-2.0,-1.0,-6.0,-7.0,-2.0,-1.0,-1.0,-1.0
1.6951618799141478e+18,-1.0,-1.0,7.0,6.0,0.0,0.0,0.0,0.0
1.6951618799141478e+18,0.0,-1.0,0.0,-5.0,-5.0,-1.0,-1.0,-1.0
1.6951618799151478e+18,0.0,1.0,0.0,0.0,0.0,0.0,-1.0,0.0
1.6951618799341358e+18,-1.0,-2.0,0.0,0.0,6.0,3.0,0.0,0.0
1.6951618799341358e+18,0.0,-1.0,-1.0,2.0,-4.0,-1.0,-2.0,-2.0
1.6951618799421284e+18,1.0,0.0,1.0,-1.0,-2.0,-2.0,0.0,-1.0
1.695161879943128e+18,-1.0,2.0,2.0,0.0,1.0,-2.0,-2.0,-1.0
1.6951618799531264e+18,1.0,-3.0,-1.0,3.0,3.0,8.0,2.0,1.0
1.6951618799531264e+18,-4.0,-3.0,-1.0,-4.0,-3.0,-3.0,-3.0,-1.0
1.6951618799541243e+18,-2.0,1.0,1.0,2.0,1.0,0.0,-2.0,1.0
1.6951618799541243e+18,-1.0,-3.0,-2.0,-4.0,-4.0,-4.0,-2.0,-2.0
1.6951618799641185e+18,-2.0,-1.0,-2.0,-1.0,-1.0,-1.0,-2.0,1.0
1.6951618799641185e+18,2.0,3.0,0.0,1.0,2.0,0.0,-1.0,-1.0
1.69516187998038e+18,-6.0,-9.0,2.0,4.0,-2.0,-6.0,1.0,-1.0
1.69516187998038e+18,0.0,15.0,0.0,0.0,2.0,8.0,1.0,1.0
1.695161879994367e+18,3.0,-3.0,-3.0,-1.0,1.0,3.0,-1.0,0.0
1.695161879994367e+18,8.0,-5.0,-2.0,-5.0,-5.0,-9.0,-3.0,-1.0
1.6951618800023644e+18,-9.0,-1.0,-2.0,4.0,8.0,6.0,-2.0,0.0
1.6951618800023644e+18,-4.0,-11.0,-3.0,-1.0,-1.0,-10.0,-15.0,-3.0
1.695161880015356e+18,-2.0,-12.0,1.0,2.0,-5.0,-2.0,2.0,-1.0
1.6951618800163569e+18,-9.0,19.0,-1.0,-5.0,-3.0,0.0,0.0,-1.0
1.695161880018354e+18,2.0,-1.0,1.0,-5.0,-2.0,-1.0,2.0,-6.0
1.695161880018354e+18,-3.0,4.0,3.0,0.0,2.0,6.0,7.0,3.0
1.695161880023351e+18,10.0,-4.0,-2.0,-4.0,-1.0,-4.0,3.0,6.0
1.6951618800243505e+18,-13.0,-12.0,-3.0,0.0,-3.0,-11.0,-26.0,2.0
1.695161880048339e+18,-2.0,4.0,4.0,5.0,4.0,3.0,2.0,-13.0
1.695161880048339e+18,2.0,-3.0,-3.0,-7.0,-9.0,-3.0,3.0,12.0
1.6951618800493376e+18,6.0,4.0,1.0,-3.0,-6.0,-9.0,-9.0,-4.0
1.6951618800493376e+18,-2.0,-6.0,-2.0,2.0,5.0,6.0,12.0,4.0
1.695161880050335e+18,7.0,13.0,0.0,-7.0,-1.0,5.0,1.0,-6.0
1.6951618800513352e+18,-13.0,-11.0,0.0,7.0,2.0,0.0,-16.0,-6.0
1.695161880069324e+18,-5.0,5.0,-2.0,1.0,-4.0,-13.0,3.0,11.0
1.695161880069324e+18,7.0,3.0,3.0,1.0,5.0,18.0,0.0,-14.0
1.695161880077648e+18,-2.0,-18.0,-8.0,-3.0,-1.0,-8.0,9.0,7.0
1.695161880077648e+18,6.0,-1.0,-2.0,-3.0,-2.0,6.0,15.0,-2.0
1.695161880093095e+18,0.0,6.0,-1.0,-1.0,4.0,5.0,8.0,6.0
1.695161880093095e+18,-1.0,-1.0,0.0,-1.0,-8.0,-15.0,-28.0,5.0
1.6951618800940938e+18,-5.0,-2.0,0.0,-1.0,-5.0,-3.0,-20.0,0.0
1.6951618800940938e+18,6.0,-1.0,-4.0,-1.0,3.0,1.0,12.0,7.0
1.695161880106174e+18,-3.0,-3.0,-1.0,2.0,-2.0,-2.0,-7.0,-25.0
1.6951618801071672e+18,7.0,1.0,-1.0,-2.0,2.0,11.0,31.0,26.0
1.695161880115393e+18,-2.0,-5.0,-3.0,-1.0,-4.0,-5.0,-6.0,-28.0
1.695161880115393e+18,17.0,6.0,2.0,2.0,5.0,-1.0,-2.0,-3.0
1.6951618801303808e+18,-38.0,-15.0,-5.0,-4.0,-1.0,2.0,-5.0,-6.0
1.6951618801303808e+18,-3.0,-6.0,0.0,5.0,1.0,-12.0,-24.0,3.0
1.6951618801313828e+18,-4.0,-10.0,2.0,4.0,-2.0,-1.0,-1.0,36.0
1.6951618801323855e+18,-15.0,4.0,-4.0,0.0,4.0,2.0,0.0,-23.0
1.6951618801433964e+18,9.0,11.0,7.0,1.0,-1.0,3.0,0.0,-39.0
1.6951618801443732e+18,8.0,9.0,-3.0,-7.0,-4.0,-6.0,12.0,63.0
1.695161880168995e+18,1.0,-14.0,-2.0,2.0,-1.0,1.0,7.0,-13.0
1.695161880170009e+18,-2.0,-5.0,-5.0,-5.0,-6.0,-3.0,12.0,-4.0
1.695161880170009e+18,-10.0,-6.0,-2.0,3.0,-1.0,-10.0,-37.0,1.0
1.695161880170009e+18,33.0,7.0,-5.0,-10.0,-4.0,6.0,5.0,-53.0
1.6951618801740068e+18,-25.0,-10.0,2.0,-2.0,-1.0,-3.0,11.0,10.0
1.6951618801740068e+18,9.0,4.0,3.0,1.0,3.0,11.0,3.0,-8.0
1.695161880191996e+18,-10.0,5.0,-4.0,-4.0,-8.0,-5.0,-19.0,15.0
1.695161880200992e+18,4.0,5.0,9.0,7.0,6.0,-15.0,-11.0,13.0
1.695161880200992e+18,1.0,-15.0,-14.0,-7.0,-8.0,2.0,24.0,-18.0
1.6951618802019904e+18,-16.0,-9.0,-4.0,-16.0,-9.0,-6.0,-17.0,-19.0
1.6951618802039913e+18,16.0,9.0,-2.0,-6.0,-6.0,-5.0,16.0,24.0
1.6951618802039913e+18,-1.0,12.0,4.0,2.0,2.0,7.0,2.0,-16.0
1.6951618802288333e+18,19.0,13.0,6.0,5.0,6.0,-2.0,-22.0,38.0
1.6951618802288333e+18,-10.0,-13.0,0.0,2.0,-6.0,-13.0,-9.0,-8.0
1.69516188022983e+18,39.0,17.0,-1.0,-5.0,1.0,19.0,43.0,-24.0
1.69516188022983e+18,-32.0,-13.0,2.0,-7.0,-11.0,-11.0,22.0,22.0
1.6951618802417882e+18,-15.0,-2.0,0.0,10.0,13.0,5.0,-10.0,-31.0
1.6951618802417882e+18,2.0,-2.0,-11.0,-8.0,-10.0,-13.0,-28.0,47.0
1.695161880257781e+18,-1.0,-13.0,-1.0,2.0,1.0,-3.0,8.0,32.0
1.695161880257781e+18,16.0,20.0,6.0,-2.0,-7.0,-6.0,2.0,-20.0
1.69516188025878e+18,-17.0,5.0,-3.0,-3.0,-6.0,-5.0,-21.0,-34.0
1.69516188025878e+18,28.0,4.0,10.0,6.0,6.0,5.0,-9.0,13.0
1.69516188027979e+18,-4.0,-1.0,2.0,13.0,13.0,9.0,23.0,8.0
1.69516188027979e+18,-42.0,-20.0,-6.0,-6.0,3.0,29.0,32.0,-63.0
1.6951618802817725e+18,13.0,9.0,-1.0,-13.0,-12.0,-33.0,-71.0,51.0
1.6951618802817725e+18,-2.0,15.0,4.0,13.0,7.0,15.0,17.0,17.0
1.69516188028687e+18,9.0,-18.0,-6.0,-5.0,0.0,5.0,-5.0,-58.0
1.69516188028687e+18,-17.0,-12.0,-5.0,-7.0,-7.0,-10.0,-60.0,8.0
1.69516188030154e+18,25.0,11.0,7.0,8.0,17.0,34.0,92.0,-53.0
1.69516188030154e+18,-12.0,-24.0,-20.0,-3.0,-7.0,-33.0,-76.0,96.0
1.6951618803356442e+18,-58.0,-9.0,-1.0,10.0,-6.0,-16.0,-87.0,-24.0
1.6951618803356442e+18,21.0,2.0,0.0,0.0,1.0,4.0,36.0,-43.0
1.6951618803366538e+18,-50.0,2.0,-12.0,-22.0,-19.0,-20.0,-63.0,-22.0
1.6951618803366538e+18,-11.0,10.0,7.0,3.0,3.0,12.0,43.0,-95.0
1.6951618803366538e+18,5.0,-6.0,3.0,-7.0,-8.0,-14.0,10.0,23.0
1.6951618803366538e+18,1.0,-1.0,-17.0,-4.0,2.0,-3.0,-11.0,-4.0
1.6951618803486364e+18,-2.0,6.0,3.0,1.0,0.0,5.0,53.0,20.0
1.6951618803486364e+18,18.0,10.0,6.0,-3.0,1.0,-1.0,-33.0,10.0
1.6951618803496364e+18,53.0,-3.0,-2.0,2.0,-2.0,-10.0,-50.0,14.0
1.6951618803496364e+18,11.0,3.0,-10.0,-4.0,1.0,7.0,29.0,-20.0
1.6951618803536448e+18,-17.0,-23.0,-5.0,-8.0,-12.0,-28.0,-10.0,-19.0
1.6951618803536448e+18,0.0,-2.0,-8.0,-1.0,-8.0,-3.0,15.0,-23.0
1.6951618803699292e+18,10.0,9.0,15.0,-1.0,16.0,17.0,1.0,37.0
1.6951618803699292e+18,-11.0,-3.0,2.0,16.0,4.0,3.0,7.0,9.0
1.6951618803719437e+18,31.0,9.0,7.0,-15.0,-3.0,19.0,37.0,41.0
1.6951618803719437e+18,-21.0,-10.0,-11.0,1.0,-2.0,-12.0,-33.0,-74.0
1.6951618803925783e+18,-22.0,15.0,8.0,-2.0,0.0,19.0,98.0,68.0
1.6951618803925783e+18,25.0,-6.0,-4.0,18.0,8.0,-3.0,-39.0,13.0
1.6951618803935775e+18,23.0,-7.0,0.0,4.0,3.0,20.0,26.0,-47.0
1.695161880394578e+18,2.0,-3.0,2.0,-6.0,2.0,0.0,36.0,17.0
1.6951618804071898e+18,62.0,30.0,11.0,11.0,9.0,-2.0,5.0,25.0
1.6951618804071898e+18,-52.0,-14.0,10.0,5.0,4.0,7.0,-8.0,-3.0
1.695161880413593e+18,-24.0,17.0,-7.0,8.0,3.0,12.0,13.0,66.0
1.695161880413593e+18,13.0,1.0,12.0,14.0,2.0,9.0,9.0,-61.0
1.6951618804295872e+18,-38.0,-19.0,-14.0,-17.0,-4.0,-4.0,-4.0,-49.0
1.6951618804305935e+18,28.0,9.0,22.0,-3.0,-7.0,-19.0,-14.0,83.0
1.6951618804315932e+18,-18.0,-13.0,4.0,1.0,-1.0,-13.0,-30.0,-67.0
1.6951618804315932e+18,-20.0,-1.0,5.0,-15.0,-10.0,-2.0,13.0,29.0
1.6951618804685706e+18,34.0,-15.0,-17.0,-4.0,-3.0,-1.0,-10.0,40.0
1.6951618804685706e+18,-2.0,15.0,-12.0,-7.0,9.0,10.0,13.0,-8.0
1.695161880469565e+18,-11.0,1.0,7.0,10.0,-2.0,-4.0,-29.0,-56.0
1.695161880470565e+18,-7.0,-6.0,2.0,0.0,3.0,-2.0,23.0,56.0
1.695161880470565e+18,37.0,-22.0,2.0,16.0,4.0,-13.0,-16.0,35.0
1.695161880470565e+18,-39.0,-7.0,-6.0,-23.0,-11.0,-4.0,-21.0,-20.0
1.6951618804755615e+18,-15.0,-9.0,-8.0,3.0,0.0,-8.0,-47.0,-36.0
1.6951618804755615e+18,32.0,6.0,17.0,8.0,4.0,9.0,78.0,76.0
1.6951618804965514e+18,-34.0,6.0,-41.0,-29.0,-15.0,3.0,34.0,-81.0
1.695161880497549e+18,14.0,-30.0,7.0,20.0,7.0,-11.0,-2.0,14.0
1.6951618805222497e+18,-17.0,16.0,31.0,5.0,4.0,-3.0,41.0,0.0
1.6951618805222497e+18,-19.0,-11.0,-43.0,-2.0,-3.0,-20.0,-29.0,-32.0
1.6951618805232497e+18,10.0,2.0,15.0,6.0,-2.0,15.0,15.0,-23.0
1.6951618805232497e+18,36.0,15.0,-3.0,-3.0,3.0,21.0,17.0,32.0
1.6951618805262523e+18,-6.0,-18.0,-5.0,-3.0,-1.0,11.0,-23.0,-14.0
