timestamp,left_data_Ac_X,left_data_Ac_Y,left_data_Ac_Z,left_data_Gy_X,left_data_Gy_Y,left_data_Gy_Z,left_data_flex_1,left_data_flex_2,left_data_flex_3,left_data_flex_4,left_data_flex_5,right_data_Ac_X,right_data_Ac_Y,right_data_Ac_Z,right_data_Gy_X,right_data_Gy_Y,right_data_Gy_Z,right_data_flex_1,right_data_flex_2,right_data_flex_3,right_data_flex_4,right_data_flex_5
1695161755188687200,-8.754398346,-3.084928989,-0.363918662,-1.542950988,0.266062796,-0.013189893,-6,17,-9,23,17,-8.690952301,2.67671752,2.292448044,0.309362948,-0.247410417,0.303234309,-67,-35,-23,24,161
1695161755189687200,-8.748413086,-3.107673883,-0.357933164,-1.506578803,0.273124039,0.002931087,-2,21,-8,24,15,-8.670601845,2.661155224,2.288856745,0.315091878,-0.24674426,0.303101093,-65,-34,-24,26,162
1695161755190687200,-8.741230011,-3.128024578,-0.351947635,-1.46940732,0.278986216,0.018119449,-1,23,-11,21,14,-8.649053574,2.650381327,2.284068346,0.320820838,-0.24567841,0.302568167,-71,-34,-24,26,164
1695161755191687200,-8.74003315,-3.150769472,-0.349553436,-1.431969285,0.284049004,0.032241959,-3,18,-7,24,18,-8.627506256,2.63841033,2.282871246,0.326416522,-0.244479313,0.301369071,-70,-34,-24,24,164
1695161755192687200,-8.736441612,-3.172317266,-0.348356336,-1.393732071,0.288179159,0.04516539,-3,21,-7,24,19,-8.604761124,2.630030632,2.285265446,0.33187899,-0.242880553,0.299770296,-67,-34,-27,26,160
1695161755238662200,-8.791508675,-3.047818661,-0.281318694,-0.806448698,0.289245039,0.118309341,-3,18,-11,26,14,-8.066065788,2.582146645,2.45405674,0.367984682,-0.123238891,0.149618685,-70,-35,-24,28,164
1695161755239662200,-8.802282333,-3.003525972,-0.288501292,-0.786597252,0.284182221,0.109915771,-4,11,-9,20,14,-8.042123795,2.584540844,2.463633537,0.364787132,-0.113513015,0.13656202,-70,-36,-28,25,162
1695161755240662200,-8.81066227,-2.967612982,-0.301669419,-0.77447319,0.279652387,0.10258805,-6,19,-12,23,14,-8.024167061,2.588132143,2.479195833,0.360790193,-0.103920363,0.123105668,-67,-36,-29,25,161
1695161755241662200,-8.81664753,-2.93648839,-0.311246216,-0.764880538,0.274722815,0.094327718,-4,2,-13,22,14,-8.005013466,2.589329243,2.49236393,0.356260329,-0.094327718,0.109516084,-71,-35,-25,24,160
1695161755242662200,-8.825027466,-2.904166698,-0.325611442,-0.757153153,0.269660026,0.085001536,-5,19,-12,25,17,-7.989450932,2.591723442,2.505532026,0.351330757,-0.084735066,0.0955268,-67,-35,-24,26,166
1695161755277638800,-8.924386978,-2.704250813,-0.365115762,-0.845751941,0.187589586,-0.140425727,-1,18,-9,19,15,-7.970297337,2.640804529,2.620453835,0.22596018,0.070079632,-0.183059722,-72,-34,-24,24,164
1695161755278638800,-8.939949036,-2.710236311,-0.368707061,-0.852813125,0.185724348,-0.150284842,-4,19,-9,21,16,-7.978677273,2.642001629,2.619256735,0.222229704,0.07500919,-0.196116373,-70,-35,-24,28,162
1695161755279638800,-8.951920509,-2.717418909,-0.36990416,-0.858941793,0.184392035,-0.159477785,-3,17,-16,24,14,-7.989450932,2.646790028,2.613271236,0.218898922,0.079539053,-0.208773345,-70,-34,-22,24,163
1695161755280638800,-8.962694168,-2.726995707,-0.375889659,-0.864537537,0.183192953,-0.167604893,-5,19,-12,18,15,-8.00261879,2.650381327,2.610877037,0.216500759,0.083402753,-0.220897391,-63,-36,-27,28,163
1695161755281638800,-8.967482567,-2.736572504,-0.378283858,-0.869200587,0.182260334,-0.175332308,-1,18,-11,23,14,-8.014590263,2.657563925,2.60130024,0.214901984,0.086866774,-0.232488513,-72,-34,-25,27,162
1695161755315637700,-9.026140213,-2.912546396,-0.513556242,-0.705059707,0.182660028,-0.201978564,-6,18,-11,22,15,-8.342596054,2.877830505,2.515108824,0.25660339,0.12230628,-0.362655431,-66,-34,-26,25,164
1695161755316637700,-9.041702271,-2.914940596,-0.524330199,-0.682676852,0.182393566,-0.199180692,-4,19,-11,24,18,-8.360552788,2.8993783,2.517503023,0.259401232,0.125503823,-0.365320057,-71,-36,-21,24,162
1695161755317637700,-9.058462143,-2.922123194,-0.533906996,-0.659627855,0.182926491,-0.19638285,-3,18,-9,23,15,-8.374917984,2.916137695,2.522291422,0.262199074,0.128701374,-0.36771822,-72,-34,-25,20,167
1695161755318637700,-9.078812599,-2.928108692,-0.538695395,-0.635912716,0.184525266,-0.193318531,-6,18,-16,18,15,-8.385691643,2.931699991,2.524685621,0.264730483,0.132032156,-0.369716704,-71,-34,-24,25,162
1695161755319637700,-9.102754593,-2.934094191,-0.541089594,-0.611664653,0.186790213,-0.189854518,-2,19,-10,22,14,-8.4012537,2.946065187,2.524685621,0.2669954,0.135496169,-0.371448696,-71,-34,-25,25,165
1695161755351593000,-9.744400978,-2.827552319,-0.598550439,-0.067548238,0.297905058,-0.055557426,-1,19,-13,22,14,-8.640673637,3.223792553,2.542642117,0.26233232,0.181727409,-0.33867383,-69,-36,-21,25,161
1695161755352593000,-9.769539833,-2.810792685,-0.597353339,-0.040235836,0.303767234,-0.046897396,-2,18,-17,18,15,-8.653841972,3.232172251,2.541445017,0.260467082,0.181993872,-0.332545161,-74,-39,-25,28,164
1695161755353593000,-9.793481827,-2.797624588,-0.59376204,-0.013722817,0.309229732,-0.038237367,-6,19,-13,16,14,-8.667010307,3.242946148,2.536656618,0.258468598,0.182127118,-0.32615009,-67,-34,-24,26,163
1695161755354593000,-9.809044838,-2.779668093,-0.591367841,0.01185758,0.314026028,-0.029577335,-1,17,-18,20,15,-8.680178642,3.251325846,2.533065319,0.25660339,0.181860641,-0.319355279,-67,-34,-23,26,161
1695161755355593000,-9.827000618,-2.768894196,-0.590170741,0.036638591,0.318289429,-0.020917306,-3,17,-20,19,14,-8.693346024,3.256114244,2.52947402,0.254738122,0.181460962,-0.312027574,-73,-39,-27,24,157
1695161755393593300,-9.337387085,-2.603694439,-0.584185243,0.369050533,0.337208271,0.064084224,-3,18,-18,18,16,-8.761581421,3.27167654,2.519897223,0.269793272,0.171868294,-0.121240422,-69,-34,-25,25,164
1695161755394593300,-9.284713745,-2.596511841,-0.584185243,0.382906556,0.3365421,0.063551299,-1,19,-20,15,19,-8.761581421,3.266888142,2.519897223,0.272990793,0.171601832,-0.109516084,-69,-35,-25,24,163
1695161755395593300,-9.229647636,-2.588132143,-0.585382342,0.396496177,0.335209787,0.06261868,-3,21,-16,19,15,-8.755595207,3.262099743,2.519897223,0.276721269,0.171068922,-0.097924963,-68,-34,-27,24,164
1695161755396593300,-9.178172112,-2.582146645,-0.587776542,0.410218984,0.333877474,0.061552834,-1,19,-21,15,15,-8.753201485,3.258508444,2.521094322,0.280318528,0.170535982,-0.086067379,-71,-34,-23,24,164
1695161755397593300,-9.124302864,-2.577358246,-0.588973641,0.423808575,0.332012266,0.059954058,-2,18,-20,17,16,-8.747216225,3.251325846,2.523488522,0.284049004,0.169869825,-0.074076563,-66,-34,-24,24,163
1695161755431550900,-8.661025047,-2.258929253,-0.976834297,0.685341477,0.191719756,-0.007061256,-1,21,-21,15,15,-8.656236649,3.162740469,2.618059635,0.351197541,0.134297088,0.143623278,-70,-29,-23,24,162
1695161755432550900,-8.664615631,-2.240972757,-1.006761789,0.700529873,0.181460962,-0.009859112,-3,17,-19,15,16,-8.650250435,3.155557871,2.627636433,0.352929562,0.132298619,0.153215915,-66,-34,-25,21,162
1695161755433550900,-8.672995567,-2.223016262,-1.036689281,0.716251135,0.171068922,-0.011990812,-7,18,-19,16,14,-8.645462036,3.149572372,2.633621931,0.354395092,0.130300149,0.162408888,-70,-37,-25,24,166
1695161755434550900,-8.680178642,-2.206256866,-1.063025594,0.732372165,0.161343038,-0.013722817,-6,17,-17,13,16,-8.641871452,3.148375273,2.634819031,0.355194479,0.128967836,0.168404296,-73,-37,-25,27,164
1695161755435550900,-8.690952301,-2.188300371,-1.085770488,0.749425709,0.151883617,-0.01505513,-3,18,-15,17,15,-8.637083054,3.141192675,2.63841033,0.356393576,0.127102599,0.177464008,-69,-34,-25,24,158
1695161755470527500,-8.875306129,-2.088941097,-1.429338455,1.253572702,0.103120975,0.100589581,-3,19,-17,15,14,-8.513781548,2.995146275,2.742558002,0.376911163,0.10258805,0.33401072,-69,-34,-24,27,163
1695161755471527500,-8.875306129,-2.087743998,-1.437718153,1.288079619,0.107384384,0.115111791,-4,17,-20,16,15,-8.507795334,2.987963676,2.749740601,0.378909618,0.101522207,0.341205209,-67,-34,-22,15,162
1695161755472527500,-8.875306129,-2.086546898,-1.44729495,1.322852969,0.112047479,0.130433381,-8,18,-20,15,15,-8.500613213,2.983175278,2.755726099,0.380375206,0.100989282,0.345735073,-71,-34,-29,24,161
1695161755473527500,-8.874108315,-2.08295536,-1.453280449,1.357892871,0.117243491,0.146421134,-5,17,-12,14,14,-8.493430138,2.97479558,2.755726099,0.382240415,0.099923424,0.35266307,-67,-34,-25,22,161
1695161755474527500,-8.877699852,-2.081758261,-1.455674648,1.392932534,0.122705974,0.162808567,-3,18,-18,13,15,-8.48385334,2.968810081,2.762908697,0.384638578,0.099124044,0.359324634,-69,-34,-23,31,166
1695161755510502400,-9.33618927,-1.696291924,-1.456871748,1.844586492,0.22542727,0.473237365,-4,19,-20,19,15,-8.166622162,2.7509377,2.748543501,0.442993879,0.07087902,0.43113628,-73,-34,-25,26,165
1695161755511502400,-9.398438454,-1.679532528,-1.443703651,1.849382758,0.229823887,0.484695256,-4,17,-19,16,14,-8.146271706,2.743755102,2.737769604,0.446591109,0.069413476,0.430869848,-71,-35,-25,21,162
1695161755512502400,-9.469067574,-1.659181833,-1.424550056,1.852047443,0.234087273,0.49495405,-6,10,-22,16,14,-8.125920296,2.735375404,2.728192806,0.449921876,0.068214394,0.430470139,-69,-35,-24,26,164
1695161755513502400,-9.542090416,-1.641225219,-1.406593442,1.852580309,0.237684533,0.50428021,-3,17,-21,20,14,-8.109161377,2.725798607,2.717418909,0.453119457,0.067148544,0.429271042,-71,-35,-28,26,162
1695161755514502400,-9.623494148,-1.623268723,-1.393425345,1.85111475,0.240748852,0.512540579,-4,17,-19,16,16,-8.090007782,2.716221809,2.709039211,0.456450224,0.066615619,0.427672267,-66,-34,-25,22,163
1695161755551494000,-10.43991661,-0.432153404,-1.440112352,1.127669215,0.112180702,0.347200602,-4,18,-21,14,14,-7.91163969,2.686294317,2.474407434,0.525863707,0.114179172,0.304033697,-67,-34,-24,30,164
1695161755552494000,-10.40639782,-0.329202741,-1.484405041,1.0300107,0.098457888,0.312960178,-1,17,-21,15,14,-7.931990147,2.691082716,2.455253839,0.529860616,0.118042871,0.293774903,-67,-34,-24,25,163
1695161755553494000,-10.36689377,-0.229843363,-1.52390933,0.925957143,0.084601834,0.276188374,-6,11,-21,14,14,-7.954735279,2.695871115,2.428917646,0.533857584,0.121506892,0.283649325,-66,-34,-23,22,162
1695161755554494000,-10.32738876,-0.130484,-1.565807939,0.815774918,0.07087902,0.237151608,-3,17,-21,14,15,-7.979874134,2.695871115,2.406172752,0.536255717,0.123638593,0.276721269,-66,-34,-21,26,165
1695161755555494000,-10.29027843,-0.039504327,-1.611297727,0.699597239,0.057555895,0.196116373,-1,18,-22,14,14,-8.025363922,2.694674015,2.373851061,0.540252686,0.126436442,0.266196012,-64,-34,-22,17,160
1695161755589481600,-9.689333916,-0.442927301,-1.697489023,-1.594777942,0.020650841,-0.444192976,-1,19,-21,13,15,-9.696516991,3.11964488,1.944091797,0.637511492,0.136961713,-0.030643184,-62,-34,-25,25,164
1695161755590481600,-9.657012939,-0.555454791,-1.668758631,-1.673917294,0.036372125,-0.452986211,-3,17,-19,15,14,-9.722852707,3.184288263,1.962048292,0.634447217,0.148153126,-0.055690661,-71,-34,-25,31,164
1695161755591481600,-9.62469101,-0.66917938,-1.640028119,-1.744929552,0.053159267,-0.458182245,-2,20,-17,16,14,-9.731232643,3.228580952,1.974019289,0.631249607,0.156546697,-0.072877489,-70,-34,-21,28,166
1695161755592481600,-9.591172218,-0.786495268,-1.617283225,-1.807415009,0.070479326,-0.460047454,-2,17,-20,14,13,-9.728838921,3.298012733,1.994369984,0.624721289,0.170136288,-0.098857582,-65,-34,-23,26,163
1695161755593481600,-9.557653427,-0.907402456,-1.600523829,-1.86150682,0.08726646,-0.458981633,-7,17,-19,15,14,-9.710882187,3.362656355,2.013523579,0.615661561,0.185324654,-0.124837674,-73,-34,-24,22,164
1695161755646425200,-9.048885345,-2.816778183,-1.473631144,-1.383340001,0.141491577,-0.057822358,-2,18,-21,14,14,-8.605957985,3.594893932,1.455674648,0.426739663,0.211704448,-0.285914242,-69,-34,-25,29,163
1695161755647425200,-9.038111687,-2.892195702,-1.474828243,-1.292076588,0.12337213,-0.02691271,-1,11,-17,15,15,-8.573636055,3.563769341,1.397016644,0.43366769,0.186257273,-0.263664633,-73,-35,-22,27,163
1695161755648425200,-9.027337074,-2.956839085,-1.477222443,-1.195883512,0.103254206,0.003996937,-4,17,-20,13,15,-8.549694061,3.53264451,1.33835876,0.442993879,0.159211323,-0.238750383,-70,-34,-28,24,165
1695161755649425200,-9.016563416,-3.016694069,-1.483207941,-1.095427275,0.081404284,0.034506891,-6,18,-19,17,14,-8.528146744,3.499125719,1.278503656,0.454318523,0.130833074,-0.211571202,-68,-34,-21,28,165
1695161755650425200,-9.006986618,-3.075352192,-1.490390539,-0.990840733,0.057289433,0.06461715,-1,19,-17,14,17,-8.518569946,3.469198227,1.22583127,0.467774898,0.101255737,-0.182526797,-66,-34,-24,25,165
1695161755690398600,-8.862137794,-2.928108692,-1.835155606,1.094494581,-0.555973947,0.409552813,-4,17,-19,14,14,-9.385271072,3.369838953,0.480037451,0.943676889,-0.325084209,0.26806125,-67,-34,-23,31,166
1695161755691398600,-8.860940933,-2.86107111,-1.855506301,1.173101068,-0.586750388,0.413682997,-3,17,-21,16,14,-9.496601105,3.459621429,0.416591108,0.951404333,-0.335875928,0.267261863,-70,-34,-23,30,164
1695161755692398600,-8.865729332,-2.79044199,-1.877054095,1.246378303,-0.616727412,0.41608116,-4,17,-23,13,15,-9.552865028,3.432088137,0.337582439,0.966859102,-0.347866774,0.263931066,-68,-34,-5,31,164
1695161755693398600,-8.871714592,-2.721010208,-1.895010591,1.314192891,-0.645372152,0.41754669,-8,18,-22,16,14,-9.601945877,3.410540342,0.319625914,0.991373599,-0.357592642,0.263797849,-66,-33,-24,30,162
1695161755694398600,-8.881291389,-2.643198729,-1.915361404,1.375612617,-0.673084199,0.417280257,-4,18,-17,14,15,-9.670180321,3.446453333,0.325611442,1.014822364,-0.362655431,0.26233232,-66,-43,-19,30,163
1695161755727402400,-8.795100212,-1.04147768,-2.181117773,1.306598783,-0.882923424,0.215701386,-4,17,-20,14,16,-10.11669922,4.252102375,-0.286107093,1.018952489,-0.373980075,0.09352833,-67,-34,-21,31,166
1695161755728402400,-8.771158218,-0.973242998,-2.19428587,1.243313909,-0.876661539,0.195849925,-3,17,-19,13,15,-10.05684471,4.289212227,-0.299275219,0.997901976,-0.369716704,0.086467072,-67,-34,-23,31,163
1695161755729402400,-8.749609947,-0.906205356,-2.205059767,1.175632477,-0.868800879,0.175332308,-1,20,-22,13,15,-9.989806175,4.319139957,-0.317231715,0.974986196,-0.364520669,0.08020521,-66,-34,-23,31,161
1695161755730402400,-8.726864815,-0.848744512,-2.211045265,1.103820801,-0.859474719,0.154548228,-6,19,-18,13,14,-9.917980194,4.349067211,-0.331596941,0.950738132,-0.35839203,0.074875958,-63,-34,-20,32,164
1695161755731402400,-8.70172596,-0.799663365,-2.221819162,1.028545141,-0.848949432,0.133098006,-2,17,-19,14,16,-9.838972092,4.374206543,-0.339976639,0.925157726,-0.35159725,0.070479326,-66,-34,-21,30,164
1695161755766380300,-8.348581314,-1.074996591,-2.292448044,-0.406621754,-0.460580379,-0.202911183,-5,18,-19,16,13,-8.532935143,4.291606426,-0.351947635,0.333344579,-0.024514547,0.215967834,-66,-35,-23,31,166
1695161755767380300,-8.342596054,-1.127668977,-2.293645144,-0.45338589,-0.43579939,-0.211704448,-4,18,-21,13,15,-8.514978409,4.276044369,-0.344765037,0.304166913,-0.000532925,0.229957119,-67,-35,-19,31,164
1695161755768380300,-8.339004517,-1.182735682,-2.294842243,-0.496286362,-0.410885125,-0.219698325,-4,17,-18,15,14,-8.505401611,4.256890774,-0.337582439,0.275522202,0.023182238,0.243147001,-66,-34,-22,31,165
1695161755769380300,-8.333019257,-1.235408068,-2.294842243,-0.534656942,-0.385970891,-0.226626337,-4,19,-21,15,15,-8.500613213,4.23893404,-0.328005642,0.247410417,0.046497703,0.255271077,-70,-34,-25,31,165
1695161755770380300,-8.329427719,-1.288080573,-2.298433542,-0.568630934,-0.361323118,-0.232355282,-1,19,-21,13,14,-8.497021675,4.228160381,-0.318428814,0.228891268,0.061819296,0.262998462,-65,-34,-21,30,165
1695161755804358400,-8.353369713,-2.122459888,-2.335543871,-0.47736752,-0.033441041,-0.209705979,-4,18,-17,13,14,-8.864531517,3.989937067,-0.251391172,-0.320687592,0.279385895,0.294707507,-63,-34,-21,33,166
1695161755805358400,-8.364143372,-2.149993181,-2.334346771,-0.440728962,-0.025580399,-0.206108719,-3,17,-17,13,14,-8.896853447,3.963600874,-0.251391172,-0.352529854,0.276588053,0.290843785,-66,-33,-19,31,166
1695161755806358400,-8.370129585,-2.171540976,-2.335543871,-0.401825428,-0.018385911,-0.202777937,-3,19,-21,16,17,-8.933963776,3.933673382,-0.254982471,-0.383572727,0.272324651,0.286980093,-62,-34,-19,31,164
1695161755807358400,-8.382100105,-2.19189167,-2.336740971,-0.361189902,-0.012124043,-0.199713632,-1,17,-21,15,14,-8.963891029,3.913322687,-0.257376671,-0.414082706,0.267128646,0.283249617,-66,-34,-19,31,163
1695161755808358400,-8.392873764,-2.207453966,-2.33913517,-0.318822354,-0.006661562,-0.196516067,-2,19,-21,14,15,-8.990227699,3.895366192,-0.265756398,-0.443793267,0.260866761,0.279385895,-63,-34,-19,28,166
1695161755863300300,-8.614337921,-1.8602947,-2.394201756,0.45192036,0.054624807,-0.153082699,-3,17,-21,16,15,-8.920795441,3.173514366,-0.535104096,-0.640575767,0.121506892,0.200912714,-64,-34,-17,32,167
1695161755864300300,-8.626308441,-1.81959331,-2.404975653,0.471238881,0.060886677,-0.152150065,-2,9,-21,13,14,-8.890868187,3.139995575,-0.547075093,-0.622323155,0.116710559,0.197981626,-63,-33,-18,33,165
1695161755865300300,-8.639476776,-1.780089021,-2.412158251,0.487359881,0.067415006,-0.151084229,-4,18,-17,14,14,-8.860940933,3.106476784,-0.55784899,-0.601139367,0.111781009,0.195583463,-66,-34,-21,31,167
1695161755866300300,-8.650250435,-1.741781712,-2.41455245,0.500816226,0.074609496,-0.150418073,-4,17,-19,14,14,-8.833407402,3.074155092,-0.572214186,-0.577557385,0.107251145,0.193451747,-63,-36,-21,31,166
1695161755867300300,-8.662221909,-1.71065712,-2.410961151,0.511607945,0.082470134,-0.149885148,-3,18,-21,14,13,-8.801085472,3.046621561,-0.579396784,-0.55157733,0.10285452,0.191719756,-66,-34,-20,30,165
1695161755905278700,-8.832210541,-1.329979062,-2.322375536,0.373713642,0.301235855,-0.161476254,-5,9,-19,15,14,-8.506598473,2.972401381,-0.639251828,0.123638593,-0.019052068,0.231289431,-63,-32,-21,35,165
1695161755906278700,-8.84896946,-1.314416766,-2.318784237,0.348799407,0.318555921,-0.163874418,-7,17,-23,14,14,-8.512583733,2.991554976,-0.642843127,0.153615624,-0.027845331,0.23222205,-65,-34,-19,31,167
1695161755907278700,-8.864531517,-1.302445769,-2.310404539,0.329480857,0.330946386,-0.165872887,-5,19,-17,14,14,-8.519766808,3.01070857,-0.641646028,0.181860641,-0.036905054,0.232754961,-65,-33,-19,30,165
1695161755908278700,-8.883685112,-1.291671872,-2.309207439,0.309496164,0.342937201,-0.167871356,-6,17,-22,17,14,-8.525752068,3.031059265,-0.636857629,0.208773345,-0.045831546,0.232754961,-61,-33,-19,32,167
1695161755909278700,-8.896853447,-1.284489155,-2.30561614,0.289378256,0.354928017,-0.169869825,-5,18,-17,15,14,-8.534132004,3.044227362,-0.641646028,0.225693718,-0.051826954,0.232488513,-62,-34,-20,31,166
1695161755945252600,-8.962694168,-1.313219666,-2.190694571,-0.014122511,0.522799373,-0.171468601,-6,19,-20,18,13,-8.761581421,3.435679436,-0.794874966,0.445525289,-0.168803975,0.15428178,-64,-35,-20,31,166
1695161755946252600,-8.955511093,-1.321599364,-2.182314873,-0.02051761,0.529860616,-0.168803975,-2,17,-17,14,14,-8.760383606,3.446453333,-0.799663365,0.446457893,-0.170402765,0.147220522,-65,-32,-20,32,167
1695161755947252600,-8.949525833,-1.333570361,-2.177526474,-0.025447167,0.536921918,-0.16573967,-4,10,-23,13,13,-8.76636982,3.466804028,-0.798466265,0.447124034,-0.170802444,0.140425727,-67,-33,-17,32,164
1695161755948252600,-8.941145897,-1.343147159,-2.166752577,-0.02917764,0.544116378,-0.162408888,-2,19,-15,16,14,-8.775946617,3.484760523,-0.802057564,0.447390497,-0.170402765,0.133364469,-71,-34,-21,32,165
1695161755949252600,-8.931569099,-1.355118155,-2.159569979,-0.031575806,0.551177621,-0.158545166,-4,19,-21,15,14,-8.780735016,3.503914118,-0.803254664,0.447124034,-0.169336915,0.126303226,-66,-35,-19,32,167
1695161755994249400,-8.980650902,-1.545457244,-1.934514999,0.138027564,0.672817767,0.013722817,-5,21,-19,16,15,-8.635885239,3.769670486,-0.711077929,0.444992334,-0.031842265,0.026379786,-65,-34,-20,33,166
1695161755995249400,-8.993818283,-1.553836942,-1.918952703,0.156147003,0.677480876,0.027312404,-4,17,-16,13,15,-8.621520042,3.787626982,-0.694318473,0.444725901,-0.019984685,0.024647778,-66,-34,-21,31,166
1695161755996249400,-9.010578156,-1.56221664,-1.908178806,0.17506586,0.681877494,0.041434918,-1,19,-21,15,12,-8.608352661,3.804386616,-0.671573579,0.44405973,-0.008127105,0.023315467,-65,-34,-19,32,165
1695161755997249400,-9.026140213,-1.569399238,-1.89860189,0.194517612,0.685874403,0.05595712,-6,17,-20,16,14,-8.597578049,3.817554712,-0.650025785,0.442860663,0.003730475,0.022382848,-63,-33,-19,31,168
1695161755998249400,-9.045293808,-1.576581836,-1.886630893,0.214369074,0.689338386,0.070612557,-3,17,-20,15,14,-8.58680439,3.837905407,-0.634463429,0.441261858,0.015721286,0.021983154,-66,-34,-20,33,166
1695161756168847200,-9.085995674,-1.417367458,-1.193509579,-0.460580379,-0.410751909,-0.182393566,-3,19,-19,16,14,-9.010578156,3.806780815,0.077811554,0.272324651,-0.054358348,-0.016787136,-50,-35,-23,31,167
1695161756169847200,-9.083600998,-1.414973259,-1.216254473,-0.468973964,-0.419278711,-0.176531389,-2,11,-21,15,14,-9.008183479,3.803189516,0.08259996,0.276721269,-0.056223582,-0.01385605,-66,-34,-21,31,166
1695161756170847200,-9.083600998,-1.413776159,-1.240196466,-0.477234304,-0.427805513,-0.170402765,-5,10,-21,18,15,-9.006986618,3.799597979,0.088585466,0.2809847,-0.05808882,-0.010924961,-63,-34,-19,31,166
1695161756171847200,-9.083600998,-1.407790542,-1.26413846,-0.485494643,-0.436065853,-0.164540574,-3,17,-21,18,14,-9.002198219,3.800795317,0.096965171,0.284981638,-0.060353752,-0.008127105,-67,-33,-19,32,165
1695161756172847200,-9.082404137,-1.401805043,-1.292868972,-0.493754983,-0.444459409,-0.15841195,-1,9,-17,16,15,-8.998606682,3.797203779,0.10175357,0.288978547,-0.062751912,-0.005329249,-70,-34,-24,31,167
1695161756226814000,-8.899248123,-1.41257906,-1.751358509,-0.642307758,-0.565433383,-0.053825419,-6,22,-23,14,16,-8.869319916,3.728969097,0.164002821,0.272324651,-0.127102599,0.004396631,-66,-34,-17,31,166
1695161756227814000,-8.888473511,-1.413776159,-1.766920805,-0.648836136,-0.5676983,-0.048496172,-1,17,-17,15,14,-8.859743118,3.724180698,0.164002821,0.267395109,-0.129234299,0.001465544,-65,-34,-19,32,164
1695161756228814000,-8.874108315,-1.413776159,-1.778891921,-0.654964805,-0.569430292,-0.043166921,-3,21,-20,14,15,-8.847772598,3.715801001,0.160411507,0.262465537,-0.130966306,-0.001998469,-77,-30,-18,31,164
1695161756229814000,-8.859743118,-1.420958757,-1.792060018,-0.661093354,-0.570496202,-0.037837673,-2,18,-19,18,14,-8.83699894,3.707421303,0.158017308,0.257269531,-0.13243185,-0.005995406,-65,-35,-22,31,165
1695161756230814000,-8.84896946,-1.422155857,-1.805228114,-0.664957106,-0.571029067,-0.034107197,-2,17,-17,13,14,-8.829815865,3.700238705,0.159214407,0.252073497,-0.133630931,-0.010258805,-66,-31,-19,31,167
1695161756293776000,-8.66341877,-1.539471745,-2.030282974,-0.717450202,-0.500283301,0.088998467,-6,19,-17,19,14,-8.66341877,3.60327363,0.135272399,0.186390504,-0.139626339,-0.140425727,-63,-33,-19,31,166
1695161756294776000,-8.662221909,-1.546654344,-2.037465572,-0.715584993,-0.493754983,0.096992344,-2,11,-20,18,14,-8.653841972,3.60447073,0.126892686,0.185191423,-0.142024502,-0.14748697,-65,-34,-21,31,166
1695161756295776000,-8.661025047,-1.555034041,-2.04584527,-0.712787151,-0.486960173,0.104986221,-4,18,-16,18,14,-8.647856712,3.60327363,0.125695586,0.184392035,-0.144689128,-0.154415011,-67,-33,-19,31,165
1695161756296776000,-8.661025047,-1.567005038,-2.051830769,-0.709456325,-0.47989893,0.113513015,-3,17,-19,20,14,-8.641871452,3.606864929,0.123301387,0.183592647,-0.147620216,-0.161343038,-66,-33,-20,31,167
1695161756297776000,-8.661025047,-1.574187636,-2.060210466,-0.705192924,-0.472837657,0.121906579,-4,11,-20,20,15,-8.639476776,3.609259129,0.124498487,0.183059722,-0.149618685,-0.165872887,-62,-32,-20,31,166
1695161756372732000,-8.832210541,-1.804031014,-2.218227863,-0.450454831,-0.354128659,0.314558983,-4,18,-17,17,15,-8.649053574,3.781641483,-0.020350715,0.143223584,-0.204243496,-0.300036758,-65,-34,-16,31,166
1695161756373732000,-8.844181061,-1.82198751,-2.223016262,-0.427139342,-0.349199086,0.326549739,-4,18,-15,15,14,-8.65144825,3.79480958,-0.027533319,0.138160795,-0.203843787,-0.308297068,-62,-31,-19,31,164
1695161756374732000,-8.856152534,-1.839944005,-2.223016262,-0.402891248,-0.344269514,0.338540584,-3,21,-13,22,13,-8.649053574,3.809175014,-0.032321721,0.132565081,-0.202511474,-0.316424191,-65,-34,-19,32,165
1695161756375732000,-8.868123055,-1.8579005,-2.23139596,-0.377577305,-0.339473218,0.350531399,-2,11,-15,20,14,-8.652645111,3.82713151,-0.033518825,0.126702905,-0.200779468,-0.32468453,-66,-34,-17,31,164
1695161756376732000,-8.880094528,-1.877054095,-2.236184359,-0.351464033,-0.334810108,0.362655431,-6,18,-16,14,14,-8.652645111,3.845088005,-0.037110128,0.120041348,-0.198514536,-0.33294487,-65,-34,-20,32,166
1695161756417704200,-8.987833023,-2.112883091,-2.317587137,0.233820826,-0.242480844,0.576091886,-2,17,-20,20,14,-8.676587105,4.16231966,-0.110133275,-0.076741189,-0.135229707,-0.448456347,-63,-35,-19,31,166
1695161756418704200,-8.997409821,-2.110488892,-2.317587137,0.261932611,-0.237018377,0.584085763,-1,17,-17,17,14,-8.684967041,4.170699596,-0.116118781,-0.085534461,-0.134696782,-0.450454831,-65,-32,-19,31,161
1695161756419704200,-9.004592896,-2.110488892,-2.318784237,0.288712084,-0.231422648,0.591280222,-5,18,-17,20,14,-8.68975544,4.183867455,-0.122104287,-0.094061248,-0.134297088,-0.452053577,-70,-35,-9,31,165
1695161756420704200,-9.011775017,-2.103306293,-2.323572636,0.31429249,-0.225693718,0.597542107,-1,17,-13,19,14,-8.698134422,4.191050053,-0.129286885,-0.102055125,-0.134030625,-0.453252673,-62,-34,-20,31,162
1695161756421704200,-9.016563416,-2.097320795,-2.327163935,0.337874413,-0.219964772,0.603137791,-5,18,-17,16,14,-8.702922821,4.204218388,-0.1316811,-0.109782539,-0.133897394,-0.45445177,-64,-33,-21,32,161
1695161756471673900,-9.120711327,-2.049436569,-2.291250944,0.510275662,-0.094727404,0.564367533,-4,17,-16,16,14,-8.752004623,4.42448473,-0.110133275,-0.26339817,-0.10285452,-0.435000002,-67,-34,-21,29,166
1695161756472673900,-9.124302864,-2.050633669,-2.288856745,0.509343028,-0.087399691,0.555441022,-2,18,-16,19,15,-8.756793022,4.432864666,-0.108936176,-0.272191435,-0.100989282,-0.43260181,-66,-32,-19,31,165
1695161756473673900,-9.129091263,-2.050633669,-2.284068346,0.507611036,-0.079805516,0.54584837,-1,17,-17,19,14,-8.757989883,4.438849926,-0.111330383,-0.2809847,-0.099124044,-0.429937184,-65,-34,-18,32,166
1695161756474673900,-9.1326828,-2.04823947,-2.278082848,0.505079627,-0.072211333,0.535722792,0,18,-17,19,14,-8.760383606,4.443638325,-0.114921682,-0.289511472,-0.09739203,-0.427272588,-69,-36,-21,32,165
1695161756475673900,-9.13866806,-2.04584527,-2.274491549,0.501882076,-0.06461715,0.524931073,-4,20,-13,19,14,-8.757989883,4.447229862,-0.111330383,-0.297771841,-0.095926493,-0.4243415,-66,-34,-20,31,162
1695161756512650300,-9.273940086,-1.959654093,-2.205059767,0.344935685,0.084601834,0.256869823,-3,23,-16,16,15,-8.738836288,4.503493309,-0.140060797,-0.387303203,-0.094061248,-0.346800923,-60,-34,-20,36,163
1695161756513650300,-9.277531624,-1.958456993,-2.196680069,0.333877474,0.093794793,0.240615621,-1,19,-17,24,14,-8.735244751,4.511873245,-0.138863698,-0.390634,-0.092329249,-0.34227106,-65,-34,-21,31,167
1695161756514650300,-9.281123161,-1.956062794,-2.184709072,0.323085755,0.103387438,0.224627867,-1,24,-17,22,14,-8.735244751,4.525041103,-0.137666598,-0.394497722,-0.090464011,-0.337874413,-66,-34,-19,37,166
1695161756515650300,-9.288305283,-1.959654093,-2.172738075,0.312693715,0.113113321,0.208506882,-3,10,-17,17,14,-8.72806263,4.5394063,-0.128089786,-0.398761094,-0.088199086,-0.333611012,-66,-33,-18,31,165
1695161756516650300,-9.294290543,-1.958456993,-2.15478158,0.302568167,0.122839205,0.192785591,-2,19,-19,19,15,-8.724471092,4.552574635,-0.116118781,-0.403424203,-0.086067379,-0.329480857,-65,-32,-19,31,167
1695161756552645100,-9.479841232,-1.976413488,-1.952471495,0.210771829,0.257535994,-0.042367533,-2,18,-12,18,16,-8.857349396,4.954800606,0.056263741,-0.652300179,-0.061952524,-0.263264924,-67,-37,-20,31,164
1695161756553645100,-9.487024307,-1.975216389,-1.935712099,0.21197091,0.261799395,-0.051826954,-2,19,-13,18,15,-8.863334656,4.970362663,0.050278235,-0.672950983,-0.064750381,-0.258202136,-66,-33,-20,32,161
1695161756554645100,-9.490615845,-1.975216389,-1.924938202,0.213702917,0.265796334,-0.061286367,-3,18,-12,20,17,-8.869319916,4.984727859,0.04309563,-0.693868279,-0.068081163,-0.252739668,-70,-34,-20,32,166
1695161756555645100,-9.490615845,-1.972822189,-1.911770105,0.215434924,0.269393563,-0.070212863,-1,23,-19,18,16,-8.872911453,4.997896194,0.04070143,-0.714785576,-0.07194487,-0.246611029,-67,-34,-17,31,165
1695161756556645100,-9.488221169,-1.97042799,-1.902193308,0.217699856,0.272857577,-0.079139359,-4,19,-13,19,16,-8.876502991,5.006275654,0.033518825,-0.735836148,-0.076075032,-0.239816234,-67,-33,-21,32,164
1695161756591605200,-9.323021889,-1.8590976,-1.699883223,0.277520686,0.31788975,-0.22382848,-2,19,-16,18,14,-8.846575737,4.83748436,-0.070628949,-1.025214434,-0.154415011,0.052226644,-66,-34,-18,32,164
1695161756592605200,-9.311050415,-1.849520802,-1.686715126,0.280451775,0.320287883,-0.230756521,-3,21,-13,22,14,-8.85495472,4.821922302,-0.075417355,-1.028278708,-0.1573461,0.065949462,-64,-34,-19,31,166
1695161756593605200,-9.301473618,-1.844732404,-1.67234993,0.283649325,0.32255286,-0.237817764,-1,22,-16,17,14,-8.863334656,4.802768707,-0.077811554,-1.031742692,-0.162275642,0.086467072,-67,-34,-20,31,166
1695161756594605200,-9.29189682,-1.832761407,-1.665167332,0.286447167,0.32468453,-0.24461256,-4,19,-13,24,15,-8.875306129,4.782417774,-0.089782566,-1.034274101,-0.167604893,0.107251145,-63,-34,-21,31,164
1695161756595605200,-9.279925346,-1.81959331,-1.656787634,0.289378256,0.326683015,-0.251673818,-2,19,-15,17,17,-8.888473511,4.76086998,-0.098162271,-1.035606384,-0.173600301,0.128035218,-65,-34,-23,31,166
1695161756626585300,-9.220070839,-1.648407817,-1.425747156,0.321087271,0.345468611,-0.347200602,-1,21,-15,20,14,-9.124302864,4.35385561,-0.344765037,-0.973787129,-0.32468453,0.529061258,-66,-34,-20,31,165
1695161756627585300,-9.217676163,-1.640028119,-1.41018486,0.322286367,0.344535977,-0.349199086,-3,17,-16,20,14,-9.123106003,4.352658749,-0.362721562,-0.970189929,-0.328148544,0.54904592,-67,-34,-21,31,164
1695161756628585300,-9.214085579,-1.63523972,-1.391031146,0.323485464,0.343470156,-0.351064324,1,18,-13,23,15,-9.126696587,4.344278812,-0.391451985,-0.967125535,-0.331346095,0.567831576,-71,-34,-21,31,164
1695161756629585300,-9.210494041,-1.631648421,-1.37666595,0.324817777,0.342137843,-0.352263391,-1,21,-12,23,15,-9.131484985,4.334702015,-0.416591108,-0.964594126,-0.334676892,0.585950971,-67,-34,-19,31,164
1695161756630585300,-9.203310966,-1.626860023,-1.365892053,0.326416522,0.340272576,-0.352929562,-2,18,-13,19,14,-9.142259598,4.325125217,-0.430956304,-0.961663067,-0.337874413,0.603271008,-66,-34,-22,32,161
1695161756669563400,-9.101557732,-1.52630353,-1.201889277,0.386503845,0.25087443,-0.295107216,-1,19,-19,22,14,-9.26556015,4.05577755,-0.685938776,-0.926356792,-0.391566604,0.77447319,-67,-34,-20,31,162
1695161756670563400,-9.09437561,-1.522712231,-1.192312479,0.391033709,0.243013784,-0.288578868,-3,21,-16,18,14,-9.269151688,4.040215492,-0.700303972,-0.924891293,-0.395696759,0.779802442,-67,-34,-18,31,166
1695161756671563400,-9.087192535,-1.516726732,-1.18872118,0.395696759,0.235153139,-0.281784087,-2,17,-17,23,17,-9.271546364,4.023456097,-0.714669228,-0.923026085,-0.400093406,0.785531402,-69,-35,-20,31,166
1695161756672563400,-9.077615738,-1.511938334,-1.180341482,0.400493115,0.22702603,-0.274722815,-4,19,-17,18,14,-9.277531624,4.003105164,-0.726640224,-0.920627892,-0.404756516,0.791393518,-67,-34,-23,30,163
1695161756673563400,-9.071630478,-1.507149935,-1.170764685,0.405289441,0.218898922,-0.267528325,-4,21,-16,20,14,-9.287108421,3.982754469,-0.738611221,-0.91783005,-0.409686059,0.79778862,-70,-34,-18,40,165
1695161756705563100,-8.797493935,-1.290474772,0.666785181,-0.066482387,-0.678679943,-0.188788652,-2,17,-19,20,16,-9.740809441,3.587711334,-1.070208192,-0.731705964,-0.515471697,0.957799375,-67,-33,-19,31,167
1695161756706563100,-8.77834034,-1.285686255,0.638054729,-0.082203679,-0.692669213,-0.17759724,-1,17,-18,19,16,-9.737217903,3.575740337,-1.064222693,-0.719848394,-0.514805496,0.966059744,-65,-34,-19,31,165
1695161756707563100,-8.752004623,-1.280897856,0.608127236,-0.098457888,-0.704926491,-0.166139349,-2,17,-19,17,16,-9.727641106,3.56736064,-1.057040095,-0.707990766,-0.513339996,0.974053621,-70,-33,-19,31,167
1695161756708563100,-8.729259491,-1.278503656,0.574608386,-0.114978559,-0.715451777,-0.154681474,-3,18,-19,13,14,-9.710882187,3.558980942,-1.046266198,-0.696399689,-0.510275662,0.981647789,-65,-34,-19,31,164
1695161756709563100,-8.710105896,-1.278503656,0.543483794,-0.131898925,-0.724511504,-0.143090352,-1,21,-17,24,17,-9.689333916,3.551798105,-1.036689281,-0.685474753,-0.505745769,0.989241958,-63,-34,-20,30,167
1695161756742518900,-9.785101891,-2.925714493,-1.720233917,2.099857569,0.50641191,1.07624197,2,23,10,27,19,-8.29231739,2.517503023,1.976413488,0.130166918,-0.406355262,0.765946448,-67,-35,-21,25,165
1695161756743518900,-9.806650162,-2.947262287,-1.723825216,2.164474726,0.509742737,1.094894409,0,23,10,29,21,-8.268375397,2.493561029,1.982398987,0.131499231,-0.400626332,0.747027516,-63,-34,-23,26,165
1695161756744518900,-9.825803757,-2.961627483,-1.725022316,2.228425741,0.513473213,1.111947894,-1,19,10,30,23,-8.243236542,2.467224836,1.993172884,0.133630931,-0.394630939,0.728108704,-67,-33,-27,28,162
1695161756745518900,-9.841365814,-2.977189779,-1.723825216,2.291577339,0.516937196,1.127402782,-1,25,8,28,22,-8.224082947,2.440888643,2.001552582,0.136428788,-0.388235807,0.709456325,-66,-34,-22,29,166
1695161756746518900,-9.850942612,-2.987963676,-1.722628117,2.353663206,0.520534456,1.141258836,2,22,10,28,20,-8.206126213,2.41694665,2.014720678,0.140159264,-0.381840736,0.690937221,-71,-34,-21,28,164
1695161756775523300,-6.374562263,-5.05296278,3.557783842,-3.557807207,-1.540419579,0.021983154,16,28,-40,18,14,-9.033323288,3.23336935,-0.003591303,-0.410751909,-0.598341525,0.314958632,-49,-34,-17,28,163
1695161756776523300,-6.372167587,-5.099649429,3.588908434,-3.481598616,-1.434101105,0.068347625,16,29,-39,15,14,-9.017760277,3.23576355,-0.026336219,-0.399560481,-0.606468618,0.311361402,-60,-33,-19,28,164
1695161756777523300,-6.361393929,-5.13556242,3.618835926,-3.4011271,-1.329781055,0.113513015,10,26,-42,19,14,-8.998606682,3.241749048,-0.051475335,-0.389035225,-0.613663077,0.30749771,-62,-34,-14,29,163
1695161756778523300,-6.349422932,-5.157110691,3.646369219,-3.317457914,-1.227059722,0.157079637,16,29,-41,18,15,-8.987833023,3.244143248,-0.071826048,-0.382506907,-0.618192911,0.304699838,-62,-34,-17,30,164
1695161756779523300,-6.329071999,-5.15950489,3.660734415,-3.231790066,-1.125404358,0.198914245,16,30,-38,20,15,-8.968679428,3.250128746,-0.098162271,-0.373313934,-0.624721289,0.300569683,-63,-39,-19,33,165
1695161756814488600,-9.360131264,-1.764526606,-2.665943623,-0.432068914,-0.506944835,0.054624807,-4,23,11,24,14,-8.646659851,1.514332533,2.33913517,0.456716686,0.104719758,0.094727404,-61,-34,-18,29,164
1695161756815488600,-9.352949142,-1.766920805,-2.669534922,-0.422343016,-0.500816226,0.049562022,-6,21,13,19,12,-8.638279915,1.522712231,2.34033227,0.476168454,0.106584989,0.098324656,-62,-34,-18,30,160
1695161756816488600,-9.346963882,-1.770512104,-2.669534922,-0.412217438,-0.493888199,0.044632465,-1,22,9,23,14,-8.632294655,1.533486247,2.33913517,0.495486975,0.108183771,0.10178867,-63,-34,-16,28,160
1695161756817488600,-9.334992409,-1.774103403,-2.670732021,-0.401292503,-0.486560494,0.03996937,-6,23,11,22,11,-8.623914719,1.543063045,2.34033227,0.514539063,0.109782539,0.104986221,-65,-32,-17,30,164
1695161756818488600,-9.32421875,-1.778891921,-2.665943623,-0.390101075,-0.478699833,0.035306279,-6,23,11,19,12,-8.620323181,1.550245643,2.341529369,0.526929557,0.110715166,0.107117914,-63,-34,-19,29,165
1695161756857453400,-9.254786491,-2.549824715,0.566228688,-0.324418068,1.787963271,-0.078606427,-7,21,3,18,14,-8.239645004,4.789600372,2.784456491,-0.384372145,0.622056663,-0.662558973,-75,-41,-25,18,152
1695161756858453400,-9.282320023,-2.497152328,0.496796846,-0.283782542,1.811278701,-0.069413476,-8,19,-1,16,12,-8.29231739,4.791994572,2.833537817,-0.41288361,0.635646224,-0.648836136,-75,-43,-25,20,152
1695161756859453400,-9.302670479,-2.444479942,0.428562105,-0.243679941,1.831263423,-0.061819296,-10,19,-2,16,14,-8.343792915,4.800374508,2.887407303,-0.442993879,0.649369061,-0.634846866,-75,-44,-25,17,152
1695161756860453400,-9.326612473,-2.393004656,0.362721562,-0.204376727,1.847784162,-0.055557426,-7,19,3,16,14,-8.38928318,4.808753967,2.934094191,-0.474702895,0.663491547,-0.620857537,-73,-43,-27,18,151
1695161756861453400,-9.354146004,-2.342726469,0.29807812,-0.165872887,1.860441089,-0.050494641,-7,18,3,18,11,-8.432378769,4.812345505,2.977189779,-0.50747782,0.67734766,-0.606335402,-75,-46,-29,17,152
1695161756890458200,-9.088389397,-1.756146908,-0.549469292,0.191453278,-0.021050537,-0.377310872,-8,21,5,20,15,-8.573636055,4.465186119,0.442927301,0.116710559,0.061019909,0.040369064,-76,-45,-27,16,151
1695161756891458200,-9.081207275,-1.759738207,-0.555454791,0.181993872,-0.02158346,-0.372781008,-8,25,4,18,14,-8.571242332,4.465186119,0.439336002,0.113513015,0.060486984,0.041834611,-76,-45,-29,16,151
1695161756892458200,-9.071630478,-1.756146908,-0.55784899,0.172934145,-0.022382848,-0.368117899,-7,23,1,22,14,-8.572439194,4.461595058,0.438138902,0.110182241,0.059687596,0.043300152,-77,-45,-32,16,151
1695161756893458200,-9.064447403,-1.753752708,-0.566228688,0.163874418,-0.023182238,-0.363454819,-6,21,1,18,15,-8.573636055,4.458003521,0.434547603,0.107917301,0.058754977,0.044099543,-76,-45,-29,15,151
1695161756894458200,-9.058462143,-1.750161409,-0.569819987,0.15534763,-0.024514547,-0.35839203,-7,22,7,24,14,-8.573636055,4.45441246,0.432153404,0.104719758,0.057822358,0.045431852,-76,-47,-29,15,151
1695161756926415400,-9.001001358,-3.804386616,-0.940921247,0.237551302,0.056490045,-0.504013777,-1,28,10,23,20,-8.263586998,4.924872875,0.104147777,0.01185758,-0.082470134,0.579422712,-67,-35,-20,21,157
1695161756927415400,-9.015366554,-3.852270603,-0.957680702,0.248076573,0.057822358,-0.509343028,-1,25,10,24,17,-8.270770073,4.929661274,0.081402861,0.012790199,-0.083802447,0.575026035,-67,-34,-18,25,160
1695161756928415400,-9.021351814,-3.90254879,-0.976834297,0.259800911,0.059421133,-0.515205204,-2,29,9,29,19,-8.274360657,4.935647011,0.05865794,0.014255743,-0.08513476,0.570096493,-63,-36,-20,27,160
1695161756929415400,-9.032125473,-3.958812475,-0.991199493,0.27272436,0.060886677,-0.521733522,-2,27,9,24,19,-8.282740593,4.953603268,0.033518825,0.016254211,-0.086200617,0.564767241,-64,-35,-19,22,161
1695161756930415400,-9.051279068,-4.022258759,-1.006761789,0.286980093,0.062485453,-0.528928041,-6,26,11,25,18,-8.289923668,4.973954201,0.010773907,0.019052068,-0.086999997,0.558638573,-63,-37,-18,24,158
1695161756967390100,-9.514557838,-6.491878033,-1.252167463,0.873464048,0.055024505,-0.891849875,-5,26,10,26,21,-8.540117264,7.017405033,-0.247799873,-0.224627867,-0.111781009,0.444859117,-65,-37,-19,24,160
1695161756968390100,-9.542090416,-6.694188118,-1.243787766,0.940879047,0.046497703,-0.935416579,-4,23,4,27,20,-8.543708801,7.165845871,-0.265756398,-0.264464021,-0.116444103,0.456716686,-65,-37,-20,25,160
1695161756969390100,-9.578003883,-6.903680801,-1.22822547,1.012157679,0.036638591,-0.983113289,-2,29,8,18,17,-8.547300339,7.317877293,-0.286107093,-0.305632442,-0.121506892,0.472304761,-66,-34,-17,25,158
1695161756970390100,-9.63666153,-7.32745409,-1.18991828,1.167638659,0.021183766,-1.08809948,-3,24,6,23,18,-8.550890923,7.473500729,-0.304063618,-0.347200602,-0.126702905,0.492289424,-65,-34,-21,25,160
1695161756971390100,-9.684545517,-7.575253963,-1.207874775,1.283816218,0.01292343,-1.161776423,-6,29,10,22,21,-8.55448246,7.636306286,-0.326808542,-0.38956812,-0.131632462,0.516537488,-67,-34,-19,21,158
1695161757014366400,-10.20887566,-8.614337921,-1.030703783,2.380709171,-0.352263391,-2.484629393,-3,29,8,14,15,-8.844181061,10.51772785,-0.85353291,-0.710122526,-0.382906556,1.862705946,-63,-36,-16,29,162
1695161757015366400,-10.19929886,-8.628703117,-0.975637197,2.366586447,-0.366252691,-2.534724236,-4,30,10,14,17,-8.833407402,10.59673691,-0.852335811,-0.680811644,-0.388768762,1.955834508,-63,-44,-15,33,159
1695161757016366400,-10.18613148,-8.661025047,-0.912190855,2.347534418,-0.381041348,-2.581888199,-7,31,8,18,16,-8.817844391,10.66736603,-0.864306808,-0.647503793,-0.38956812,2.048696756,-64,-34,-13,31,161
1695161757017366400,-10.17296314,-8.687360764,-0.846350312,2.322620153,-0.397162348,-2.622257233,-4,31,6,15,19,-8.809465408,10.72003841,-0.873883605,-0.610732019,-0.384372145,2.143157721,-63,-36,-15,29,160
1695161757018366400,-10.14064121,-8.720879555,-0.762553215,2.294508457,-0.410885125,-2.661693573,-1,28,11,16,14,-8.797493935,10.77989292,-0.89184016,-0.569696784,-0.37344715,2.236419678,-63,-36,-17,29,160
1695161757058338100,-8.335412979,-10.15380955,0.684741676,2.309163809,-0.120840736,-2.901643038,-4,79,55,29,31,-8.015787125,12.31457615,-0.539892495,-0.113779478,0.07714089,3.666923523,-60,-34,-2,34,170
1695161757059338100,-8.28633213,-10.12268448,0.605733037,2.359525204,-0.045698319,-2.894182205,-6,81,58,28,33,-7.953537941,12.4318924,-0.488417149,-0.139359877,0.098457888,3.70822525,-61,-37,-5,34,177
1695161757060338100,-8.265981674,-10.05445004,0.503979445,2.404690742,0.025047474,-2.884855986,-7,85,63,30,33,-7.886500359,12.53484344,-0.462080926,-0.165073514,0.121506892,3.745263338,-59,-34,-31,40,176
1695161757061338100,-8.265981674,-9.979032516,0.427365005,2.434267998,0.071811639,-2.874330759,-6,87,61,29,39,-7.825448036,12.62103462,-0.480037451,-0.191053599,0.145355284,3.777371883,-60,-34,-7,38,178
1695161757062338100,-8.275558472,-9.864110947,0.361524463,2.459448576,0.114312403,-2.864072084,-4,89,68,31,42,-7.756016254,12.697649,-0.514753342,-0.219032168,0.169736609,3.806016684,-63,-33,-4,40,183
1695161757101315300,-7.739256859,-7.340622425,0.948103845,2.607335329,0.065949462,-2.722047567,-1,102,90,46,61,-5.76404047,11.24915695,-0.304063618,-0.979782522,1.032408834,3.942578793,-61,-34,15,63,215
1695161757102315300,-7.673416615,-7.187393665,1.007958889,2.5882833,0.042900458,-2.705926418,-2,103,90,45,64,-5.658695698,11.08874512,-0.241814375,-1.012024522,1.098091841,3.936716557,-60,-35,15,63,216
1695161757103315300,-7.605181694,-7.041347027,1.072602391,2.56576705,0.020784073,-2.688073635,-6,99,90,43,62,-5.555745125,10.92593956,-0.18674773,-1.043467045,1.163508415,3.927257299,-60,-34,15,62,215
1695161757104315300,-7.540538311,-6.904877663,1.127668977,2.540053606,0.000266462,-2.668222189,-6,100,88,45,62,-5.440823555,10.71764374,-0.108936176,-1.084102511,1.248909593,3.911003113,-60,-34,17,63,215
1695161757105315300,-7.473500729,-6.770802498,1.182735682,2.511275768,-0.019451762,-2.646372318,-4,98,89,45,64,-5.372588634,10.57518864,-0.062249243,-1.114745736,1.310595751,3.894882202,-60,-37,18,63,215
1695161757153285300,-6.512228489,-4.945223808,1.855506301,1.642474771,-0.133364469,-2.058289528,-3,93,67,44,62,-4.863820553,8.312667847,0.881066203,-1.871499181,1.739866734,3.018087149,-63,-35,8,54,208
1695161757154285300,-6.4691329,-4.887762547,1.880645394,1.589848399,-0.131099537,-2.018586397,-3,92,68,45,62,-4.848258495,8.287528992,0.924161851,-1.906805515,1.728542089,2.98504591,-62,-37,7,56,209
1695161757155285300,-6.426037312,-4.8314991,1.909375906,1.538154602,-0.128701374,-1.977551341,-3,87,63,45,58,-4.824316502,8.24802494,0.992396593,-1.960897326,1.708290935,2.938548088,-61,-38,5,52,204
1695161757156285300,-6.382941723,-4.772840977,1.935712099,1.48766005,-0.125637069,-1.935983181,-3,89,63,45,61,-4.802768707,8.202534676,1.060631394,-2.016321659,1.683509946,2.896446943,-60,-34,9,56,210
1695161757157285300,-6.333860397,-4.723760128,1.962048292,1.43823123,-0.122173049,-1.894015193,-2,91,61,45,54,-4.782417774,8.155848503,1.11689508,-2.07254529,1.655131698,2.858343124,-61,-35,7,50,206
1695161757194262100,-5.475539207,-4.345476151,2.329558372,0.959531426,-0.047830015,-1.160710573,-2,78,47,42,53,-4.135983467,6.473921299,1.945288897,-2.487693548,0.693202138,2.337275743,-61,-34,3,48,200
1695161757195262100,-5.42765522,-4.355052948,2.345120668,0.958065867,-0.040635526,-1.125937223,-3,77,52,44,51,-4.060565948,6.423643112,1.999158382,-2.457050562,0.644439518,2.300903559,-60,-36,3,47,201
1695161757196262100,-5.376179695,-4.367023945,2.369062662,0.958998442,-0.033307809,-1.091163874,-2,81,48,43,55,-3.992331266,6.387730122,2.056619167,-2.421744108,0.598075032,2.26359868,-58,-34,5,57,198
1695161757197262100,-5.323507309,-4.371812344,2.391807556,0.962462485,-0.024248086,-1.05545783,-4,78,46,43,50,-3.920505285,6.357802391,2.109291792,-2.382707596,0.554108739,2.224961758,-61,-36,3,48,199
1695161757198262100,-5.268440723,-4.373009205,2.41574955,0.968191385,-0.013323124,-1.019885182,-1,74,45,44,51,-3.841496706,6.337451935,2.166752577,-2.33887434,0.512007654,2.186591148,-62,-35,1,47,197
1695161757240233900,-4.468777657,-3.758896589,2.670732021,1.04759717,0.40462327,-0.30643183,-1,67,43,41,46,-2.019509077,6.833051682,4.334702015,-1.830464005,0.041434918,1.869234324,-60,-35,3,56,192
1695161757241233900,-4.442441463,-3.696647406,2.669534922,1.037071943,0.434200615,-0.261932611,-1,72,44,35,47,-1.956062794,6.891709805,4.396951199,-1.810079575,0.023448698,1.851248026,-61,-35,7,58,192
1695161757242233900,-4.419696331,-3.634398222,2.670732021,1.024548173,0.464310884,-0.216767237,-1,69,47,41,46,-1.892616391,6.961141586,4.459200859,-1.78516531,0.005329249,1.831796408,-55,-35,-1,58,194
1695161757243233900,-4.393360138,-3.56616354,2.673126221,1.008826971,0.494554371,-0.171068922,-2,66,45,36,47,-1.824381709,7.037755966,4.519055843,-1.754788637,-0.012790199,1.810612559,-60,-36,1,58,196
1695161757244233900,-4.374206543,-3.497928619,2.671929121,0.990441024,0.524398148,-0.125104129,-1,66,44,38,45,-1.741781712,7.110779285,4.588487625,-1.718683004,-0.030243492,1.787696838,-60,-34,3,56,188
1695161757282208700,-4.137180328,-2.493561029,2.591723442,0.365453273,1.053059697,0.711188376,-6,64,39,31,44,0.466869324,7.62194109,5.697002888,-0.957399666,-0.130566612,1.609966397,-59,-36,1,60,192
1695161757283208700,-4.138377666,-2.477998734,2.584540844,0.327349156,1.078240395,0.752889752,-1,62,40,35,43,0.560243189,7.600393295,5.732915878,-0.933817804,-0.116577335,1.611431837,-57,-34,4,62,192
1695161757284208700,-4.139574528,-2.466027737,2.579752445,0.291110277,1.103021502,0.794457912,0,61,37,36,46,0.63326633,7.58961916,5.762843609,-0.911834598,-0.100722812,1.61276412,-59,-34,0,61,188
1695161757285208700,-4.144362926,-2.458845139,2.56778121,0.256070435,1.127003074,0.835493088,-2,64,39,34,39,0.691924274,7.58722496,5.777208805,-0.891183794,-0.084468603,1.612497687,-60,-34,0,58,192
1695161757286208700,-4.159925461,-2.448071241,2.558204412,0.221297085,1.149652362,0.876661539,-4,59,36,32,41,0.723048925,7.594407558,5.784391403,-0.878260314,-0.073277183,1.61063242,-60,-34,3,52,184
1695161757320188500,-4.941632271,-2.97479558,2.41574955,-0.222229704,1.383606434,1.468874454,-5,52,28,30,35,1.316810966,7.821856976,5.566518784,-0.731039822,0.100856051,1.40239203,-58,-35,-2,57,192
1695161757321188500,-5.029020786,-3.057395458,2.408566952,-0.228091896,1.386137843,1.491124034,-5,53,32,29,37,1.368286252,7.773972988,5.564124584,-0.72611028,0.099923424,1.410785556,-59,-34,0,59,189
1695161757322188500,-5.116408825,-3.143586874,2.401384354,-0.231689125,1.387603283,1.512574315,-2,53,29,30,32,1.420958757,7.73446846,5.562927723,-0.72038132,0.099656969,1.420245051,-58,-34,2,57,191
1695161757323188500,-5.20619154,-3.23456645,2.397793055,-0.232888207,1.38733685,1.533624887,-4,51,26,30,36,1.470039845,7.699752808,5.568912983,-0.713586569,0.100456357,1.429837704,-57,-34,-1,59,192
1695161757324188500,-5.295974255,-3.325546265,2.398990154,-0.231555894,1.386137843,1.553875923,-3,50,27,27,35,1.503558636,7.679401875,5.570110321,-0.708790183,0.101655439,1.435833097,-60,-34,0,61,189
1695161757361166500,-6.639121532,-4.288015366,2.49236393,-0.001598775,1.257036805,1.865503907,-6,48,26,28,31,2.23019886,7.059303761,5.662287235,-0.653765678,0.373047471,1.386670709,-58,-33,-1,57,186
1695161757362166500,-6.682217121,-4.268861771,2.503137827,-0.001732006,1.252107143,1.876428843,-2,46,26,28,32,2.249352455,7.015010834,5.64552784,-0.645638585,0.389434904,1.3790766,-59,-34,1,58,188
1695161757363166500,-6.72890377,-4.23893404,2.515108824,-0.005329249,1.248243451,1.886287808,-4,47,22,30,35,2.262520552,6.964732647,5.629965305,-0.635246515,0.404490054,1.37121594,-51,-34,3,57,189
1695161757364166500,-6.768408298,-4.199429989,2.52827692,-0.013722817,1.244912744,1.896013856,-3,49,20,27,31,2.275688648,6.931213856,5.61679697,-0.626986206,0.413816214,1.365886688,-59,-36,1,56,193
1695161757365166500,-6.80791235,-4.152742863,2.540247917,-0.026779478,1.24251461,1.905339956,-2,47,24,27,34,2.293645144,6.879738808,5.603629112,-0.612197518,0.426872909,1.358159304,-60,-35,1,61,188
1695161757396144600,-7.490260124,-3.175908566,2.347514868,-0.969656944,1.215202093,1.926923394,-4,49,25,29,31,2.737769604,6.50384903,5.785588264,-0.237018377,0.525996923,1.324318528,-58,-34,0,57,192
1695161757397144600,-7.547720909,-3.172317266,2.312798738,-1.038937211,1.20667541,1.923192978,-6,45,24,28,28,2.7533319,6.459556103,5.781997204,-0.212637067,0.523732007,1.325517535,-59,-35,-1,58,185
1695161757398144600,-7.607575893,-3.175908566,2.275688648,-1.107151628,1.197215915,1.919462442,-3,47,23,29,31,2.767697096,6.410475254,5.773617268,-0.1854579,0.520667672,1.326583505,-58,-34,3,58,188
1695161757399144600,-7.667430878,-3.184288263,2.237381458,-1.174300075,1.186557412,1.915865302,-3,46,23,28,32,2.780865192,6.355408192,5.760449409,-0.154947937,0.517070413,1.32711637,-59,-34,3,56,186
1695161757400144600,-7.7284832,-3.199850559,2.196680069,-1.239583492,1.174566507,1.912401199,-1,46,23,30,30,2.79163909,6.299144745,5.748478413,-0.121107198,0.512407362,1.32751596,-59,-37,1,58,187
1695161757434122300,-8.834604263,-3.435679436,1.471236944,-1.953169942,0.800586522,1.820871353,-4,49,25,29,35,3.432088137,6.617573261,5.992686749,0.782467067,0.381707519,1.436765671,-63,-34,0,57,188
1695161757435122300,-8.914810181,-3.445256233,1.423352957,-1.970490098,0.775805533,1.818073511,-4,46,21,29,28,3.475183725,6.640318394,5.989095688,0.815908134,0.373713642,1.455950975,-63,-35,0,56,184
1695161757436122300,-8.993818283,-3.45722723,1.373074651,-1.986744285,0.750757992,1.816341519,-2,47,21,30,29,3.513490915,6.658275127,5.978321552,0.847084224,0.365053594,1.476068854,-62,-34,-2,59,186
1695161757437122300,-9.076418877,-3.466804028,1.322796464,-2.001932621,0.725310862,1.816075087,-5,47,21,28,32,3.554192305,6.679822922,5.972336292,0.876928031,0.355194479,1.498185277,-67,-34,1,57,186
1695161757438122300,-9.163806915,-3.477577925,1.278503656,-2.016587973,0.700130105,1.816741228,-3,43,25,30,31,3.586514235,6.701370716,5.973533154,0.905039787,0.344269514,1.521101117,-65,-34,-2,56,184
1695161757484094000,-10.50815105,-3.38180995,0.299275219,-2.233355284,0.240748852,1.888685942,-3,49,16,29,30,4.294000626,7.891288757,5.9412117,1.318456292,0.002264931,1.717617154,-75,-34,0,63,183
1695161757485094000,-10.54645824,-3.355473757,0.250194073,-2.248676777,0.219165385,1.886820912,-2,49,19,26,29,4.402936935,8.007407188,5.978321552,1.28554821,-0.025580399,1.72960794,-75,-33,2,64,184
1695161757486094000,-10.57997704,-3.326743364,0.198718742,-2.265197515,0.198114842,1.884022951,-2,50,20,30,32,4.519055843,8.106766701,6.016628742,1.241315484,-0.052359879,1.742797852,-79,-34,0,63,184
1695161757487094000,-10.6111021,-3.300406933,0.143652096,-2.283050537,0.177197546,1.880425692,-5,45,19,28,31,4.635174274,8.182184219,6.05852747,1.185758114,-0.077274114,1.757320046,-75,-34,1,65,183
1695161757488094000,-10.63624096,-3.263296843,0.090979666,-2.30196929,0.15681316,1.875496149,-5,48,14,28,30,4.742913723,8.250418663,6.104017258,1.125271082,-0.10178867,1.774373651,-76,-35,1,63,183
1695161757527092600,-10.90439129,-2.748543501,-0.626083732,-2.855811834,-0.045032158,1.627952576,-3,45,21,29,29,6.035782337,7.641094685,6.404489517,-1.351630926,0.015721286,1.626620173,-76,-29,30,109,192
1695161757528092600,-10.91755962,-2.7509377,-0.644040287,-2.891251326,-0.041434918,1.612364411,-2,47,20,29,29,6.081272125,7.443572998,6.391321659,-1.514173031,0.06261868,1.590247989,-76,-31,29,111,192
1695161757529092600,-10.93671322,-2.755726099,-0.663193882,-2.925891161,-0.03650536,1.597842336,-3,42,19,26,31,6.112396717,7.308300495,6.378153324,-1.620758057,0.096192956,1.565733552,-67,-31,29,113,195
1695161757530092600,-10.95586681,-2.761711597,-0.684741676,-2.959732056,-0.030376723,1.584519148,-3,44,20,28,29,6.153098583,7.101202011,6.366182327,-1.778503895,0.148686066,1.528828502,-77,-31,31,116,194
1695161757531092600,-10.97142887,-2.774879694,-0.700303972,-2.992640257,-0.023049004,1.572128534,-2,43,15,30,29,6.197391033,6.897695065,6.366182327,-1.931986213,0.203843787,1.493522167,-76,-29,32,124,196
1695161757569045700,-11.49216843,-3.633201122,-0.867898107,-3.214603424,0.178529859,1.590381384,-2,46,20,29,29,6.075286865,3.333925962,6.106411457,-4.169205189,1.160044432,1.245445609,-79,-32,188,270,311
1695161757570045700,-11.51251888,-3.708618402,-0.866701007,-3.193019867,0.1854579,1.602238894,-4,46,19,29,29,6.047753334,3.064578056,6.042964935,-4.155482292,1.18522501,1.2357198,-78,-35,195,274,316
1695161757571045700,-11.52688408,-3.780444384,-0.861912608,-3.167039633,0.191453278,1.614362955,-2,49,19,29,29,5.986701488,2.613271236,5.926846504,-4.101390362,1.225993872,1.220531344,-81,-33,206,281,324
1695161757572045700,-11.54484081,-3.858256102,-0.864306808,-3.136263371,0.196516067,1.626487017,-5,47,19,28,28,5.940014362,2.126051188,5.790376663,-4.004398346,1.270226598,1.207874417,-81,-31,219,287,327
1695161757573045700,-11.55441761,-3.934870481,-0.867898107,-3.100690842,0.200246558,1.638744235,-3,44,16,29,29,5.887341976,1.659181833,5.64313364,-3.873964787,1.312594175,1.198281765,-79,-38,227,292,336
1695161757608022300,-11.05881786,-4.65193367,-1.203086376,-1.754388928,0.043833077,1.611831546,-6,43,17,27,29,5.501875401,-1.455674648,5.787982464,3.284549713,2.596143961,0.673217416,-79,-35,463,488,480
1695161757609022300,-11.00494766,-4.638765812,-1.218648672,-1.663791776,0.026779478,1.589848399,-4,49,16,29,29,5.467159748,-1.328781962,5.64313364,3.716218948,2.711522102,0.61286366,-83,-33,465,494,488
1695161757610022300,-10.94748688,-4.617218018,-1.242590666,-1.574127078,0.009592649,1.565866828,-2,43,15,26,29,5.415684223,-1.199495077,5.462371349,4.151085854,2.832229614,0.553842247,-86,-34,469,495,490
1695161757611022300,-10.89361763,-4.593276024,-1.258152962,-1.485528231,-0.007327718,1.539753437,-2,48,20,29,28,5.373785496,-1.082179189,5.335478306,4.365588188,2.914166927,0.513606429,-83,-33,478,496,496
1695161757612022300,-10.83376312,-4.564545631,-1.274912357,-1.398261786,-0.023981623,1.511908054,-6,43,16,23,30,5.279214859,-0.852335811,5.130774021,4.365588188,3.038871288,0.449388951,-81,-33,479,498,500
1695161757644025700,-9.943120003,-3.415328741,-1.326387763,-0.364787132,-0.131232768,0.839623272,-3,44,17,27,29,3.778050184,8.853757858,2.944868088,4.365588188,4.365588188,-0.483362943,-83,-34,415,436,423
1695161757645025700,-9.911994934,-3.323152065,-1.329979062,-0.344802469,-0.120707504,0.792592645,-8,46,12,28,29,4.059369087,9.193734169,3.143586874,4.365588188,4.365588188,-0.42327565,-83,-32,414,431,417
1695161757646025700,-9.891644478,-3.259705544,-1.323993564,-0.334143966,-0.111514546,0.758485436,-2,46,17,28,29,4.307168961,9.465476036,3.290830135,4.365588188,4.365588188,-0.350931078,-82,-34,412,429,414
1695161757647025700,-9.870096207,-3.201047659,-1.321599364,-0.326816231,-0.101255737,0.725444078,-4,45,19,28,28,4.479551315,9.612719536,3.341108561,4.365588188,4.365588188,-0.269260317,-86,-33,409,422,413
1695161757648025700,-9.847352028,-3.145981073,-1.318008065,-0.32255286,-0.089931086,0.693335354,-1,42,19,28,28,4.584896088,9.640253067,3.280056238,4.365588188,4.365588188,-0.182393566,-81,-34,404,421,411
1695161757685980500,-9.421183586,-2.910152197,-1.040280581,-0.471105665,0.242347628,0.308830023,-10,44,13,26,28,2.981978178,6.297947407,2.021903276,4.365588188,4.237686157,0.664690673,-76,-28,367,374,407
1695161757686980500,-9.40083313,-2.914940596,-1.036689281,-0.474436462,0.260067374,0.296839207,-6,47,13,26,30,2.906560898,6.543353081,1.974019289,4.365588188,4.090732098,0.606735051,-75,-34,363,371,407
1695161757687980500,-9.381679535,-2.916137695,-1.028309584,-0.476434916,0.277254194,0.284848392,-6,45,17,29,28,2.829946518,6.779181957,1.9321208,4.365588188,3.949773312,0.534656942,-74,-34,365,371,407
1695161757688980500,-9.36252594,-2.918531895,-1.022324085,-0.477500767,0.29350841,0.272990793,-5,44,19,30,29,2.7533319,7.024587631,1.885433793,4.365588188,3.815742731,0.452586502,-74,-35,360,367,407
1695161757689980500,-9.344569206,-2.918531895,-1.017535686,-0.477234304,0.308830023,0.260600299,-4,42,16,26,28,2.688688517,7.296329498,1.861491799,4.365588188,3.691038132,0.359324634,-71,-34,361,367,406
1695161757720961000,-9.331400871,-3.023876667,-0.822408259,-0.230756521,0.425274134,-0.020117918,-2,43,19,28,30,4.872200489,8.190564156,-2.827552319,1.385471582,2.74096632,-2.273857594,-61,-37,327,351,400
1695161757721961000,-9.345766068,-3.01310277,-0.812831461,-0.207174569,0.423142403,-0.037704438,-9,43,17,26,29,5.032611847,8.107964516,-3.062183857,1.303800941,2.78613162,-2.371516228,-61,-35,329,346,394
1695161757722961000,-9.357737541,-2.998737574,-0.803254664,-0.183326185,0.419944882,-0.055823889,-4,45,17,28,30,5.191826344,8.045714378,-3.270479441,1.233721256,2.84062314,-2.458382845,-61,-33,328,350,394
1695161757723961000,-9.380482674,-2.981978178,-0.800860465,-0.159611031,0.41608116,-0.074209802,-2,46,14,29,28,5.342660904,8.000225067,-3.462015629,1.174566507,2.904307842,-2.534457922,-62,-39,324,346,391
1695161757724961000,-9.40083313,-2.960430384,-0.793677866,-0.136695251,0.411284834,-0.092995405,-6,47,14,28,28,5.468356609,7.976283073,-3.64277792,1.125537515,2.975586653,-2.599607944,-61,-35,323,349,393
1695161757756937800,-9.575610161,-2.205059767,-0.776918471,-0.020650841,0.280185282,-0.544782579,-7,43,17,26,29,1.22822547,7.922413349,-4.244919777,1.190954089,4.260068893,-2.347401142,-61,-34,303,337,375
1695161757757937800,-9.587580681,-2.165555477,-0.774524271,-0.033707503,0.275788665,-0.572761118,-1,47,16,30,31,0.800860465,7.99064827,-4.167108059,1.210672259,4.286581993,-2.29584074,-63,-34,302,337,374
1695161757758937800,-9.601945877,-2.127248287,-0.775721371,-0.048496172,0.271924943,-0.600872934,-8,45,17,28,28,0.37110126,8.07324791,-4.089296341,1.227992415,4.307499409,-2.243614197,-65,-35,301,338,374
1695161757759937800,-9.612719536,-2.087743998,-0.778115571,-0.065150075,0.268860638,-0.629251182,-5,43,15,28,28,-0.064643443,8.172607422,-4.012681961,1.242114782,4.323753357,-2.191520691,-65,-34,302,335,373
1695161757760937800,-9.619902611,-2.04704237,-0.773327172,-0.08313629,0.266595691,-0.657362938,-5,45,15,28,29,-0.497993946,8.273163795,-3.933673382,1.252773285,4.334545135,-2.139960289,-67,-35,303,337,372
1695161757791917700,-9.88805294,-1.832761407,-0.695515573,-0.499217451,0.340006143,-1.121940255,-6,47,9,26,28,-6.897695065,8.760383606,-2.37863946,1.091963172,3.612298727,-1.203078032,-66,-34,291,335,366
1695161757792917700,-9.884461403,-1.838746905,-0.696712673,-0.515205204,0.345468611,-1.140992403,-2,47,13,25,28,-7.06768322,8.736441612,-2.347514868,1.085035205,3.536756516,-1.154848337,-70,-25,291,335,364
1695161757793917700,-9.883264542,-1.845929503,-0.689530075,-0.529860616,0.350797862,-1.159245014,-6,40,14,25,27,-7.219715118,8.713697433,-2.323572636,1.077707529,3.459348917,-1.107950926,-66,-34,289,334,365
1695161757794917700,-9.883264542,-1.8590976,-0.688332975,-0.543050528,0.355594188,-1.177364469,-1,45,13,28,29,-7.347805023,8.696937561,-2.30681324,1.07051301,3.380476236,-1.063052058,-71,-34,292,334,363
1695161757795917700,-9.879673004,-1.871068597,-0.689530075,-0.554375172,0.359857589,-1.194817781,-4,43,16,28,32,-7.455543995,8.678980827,-2.299630642,1.063318491,3.300937176,-1.020418048,-73,-33,286,333,362
1695161757829903100,-9.822212219,-1.853112102,-0.724246025,-0.545049012,0.359058201,-1.475402713,-1,42,17,26,31,-8.905233383,9.58039856,-2.855085611,0.7411654,1.832862139,-0.502015293,-71,-69,286,332,357
1695161757830903100,-9.827000618,-1.885433793,-0.703895271,-0.532658458,0.358791709,-1.4844625,-4,41,15,26,30,-9.160215378,9.709685326,-2.813186884,0.728774905,1.745595694,-0.449255735,-70,-71,288,332,355
1695161757831903100,-9.865307808,-1.902193308,-0.691924274,-0.51786983,0.354528338,-1.488725781,-7,37,16,28,30,-9.449913979,9.838972092,-2.760514498,0.72038132,1.654465556,-0.387969375,-67,-72,286,330,355
1695161757832903100,-9.915586472,-1.886630893,-0.675164878,-0.500949442,0.345468611,-1.488459349,-8,39,16,29,28,-9.755174637,9.97065258,-2.717418909,0.715584993,1.559471607,-0.318289429,-72,-78,287,331,355
1695161757833903100,-9.953893661,-1.844732404,-0.650025785,-0.481764168,0.334810108,-1.486460924,-7,41,11,27,27,-10.06881523,10.09156036,-2.683900118,0.714785576,1.460214376,-0.241015315,-66,-76,287,330,352
1695161757863880000,-9.704896927,-1.528697729,-0.475249052,-0.074076563,0.255004585,-1.430770278,-5,37,14,27,31,-6.525396824,10.64581776,-3.520673513,-0.120441042,-0.277120978,0.117643185,-71,-123,286,328,344
1695161757864880000,-9.666589737,-1.509544134,-0.471657723,-0.056223582,0.25447166,-1.421843886,-5,38,12,29,31,-6.208165169,10.51293945,-3.592499733,-0.18599081,-0.332012266,0.079805516,-63,-123,286,330,343
1695161757865880000,-9.63666153,-1.493981838,-0.469263524,-0.038903523,0.253938764,-1.412917376,-3,36,12,27,26,-5.907692909,10.38604736,-3.647566319,-0.244479313,-0.387169987,0.045964777,-65,-123,286,328,346
1695161757866880000,-9.59835434,-1.477222443,-0.465672225,-0.016920367,0.254071981,-1.399594188,-3,41,13,24,25,-5.629965305,10.26513958,-3.691859007,-0.296173036,-0.442594171,0.016787136,-65,-128,286,328,345
1695161757867880000,-9.570821762,-1.461660147,-0.466869324,-0.001598775,0.254871368,-1.388136268,-3,37,15,29,29,-5.371391296,10.14423275,-3.715801001,-0.341338426,-0.497751892,-0.006794794,-65,-128,285,328,344
1695161757905853900,-8.902838707,-1.270123959,-0.438138902,0.026246555,0.35372895,-0.995104134,-4,35,13,27,27,-4.947618008,8.933963776,-2.795230389,-0.615261853,-1.439297199,0.4243415,-66,-103,275,322,343
1695161757906853900,-8.868123055,-1.273715258,-0.432153404,0.02158346,0.359191418,-0.963395119,-4,42,15,27,29,-5.05894804,8.878896713,-2.717418909,-0.620857537,-1.478200555,0.455251127,-63,-98,275,322,342
1695161757907853900,-8.834604263,-1.283292055,-0.434547603,0.01718683,0.364387453,-0.931286395,-6,38,15,28,31,-5.164293289,8.819042206,-2.63721323,-0.624987781,-1.516438007,0.485761106,-64,-95,271,321,343
1695161757908853900,-8.803479195,-1.294066072,-0.430956304,0.013056661,0.369050533,-0.898111761,-4,37,16,25,27,-5.273229122,8.759186745,-2.565387011,-0.628318548,-1.554275632,0.51573813,-65,-87,272,324,343
1695161757909853900,-8.780735016,-1.30124867,-0.423773706,0.009059724,0.373580426,-0.864137828,-2,39,18,31,26,-5.383362293,8.70172596,-2.48996973,-0.628851414,-1.59304595,0.54544872,-63,-73,270,321,343
1695161757955823100,-8.583212852,-1.608903527,-0.450109929,0.083802447,0.345068902,-0.194384381,-4,36,13,29,29,-7.490260124,7.536946774,-0.864306808,-0.523732007,-2.911235809,1.156980157,-63,-55,260,316,343
1695161757956823100,-8.58680439,-1.628057122,-0.460883826,0.098324656,0.3365421,-0.160277188,-3,36,19,30,27,-7.563282967,7.451952934,-0.82001406,-0.512673795,-3.006895781,1.186823845,-63,-50,255,317,342
1695161757957823100,-8.58680439,-1.647210717,-0.468066424,0.113912709,0.327349156,-0.126569673,-3,45,15,27,31,-7.625532627,7.380126953,-0.788889468,-0.500949442,-3.102555752,1.216534495,-64,-54,258,313,343
1695161757958823100,-8.590395927,-1.665167332,-0.470460624,0.130566612,0.318022966,-0.093261868,-1,42,17,29,28,-7.675810814,7.32146883,-0.757764816,-0.488692194,-3.197416544,1.245578766,-66,-52,258,309,343
1695161757959823100,-8.596381187,-1.684320927,-0.472854823,0.148153126,0.308163851,-0.060486984,-2,41,16,32,29,-7.723694801,7.275979042,-0.735019922,-0.475768775,-3.290944815,1.273690581,-66,-55,255,310,343
1695161757998822600,-8.809465408,-1.8602947,-0.610521436,0.539586544,0.115511484,0.487093419,-3,39,16,29,29,-7.341819286,6.343437195,-0.909796655,-0.288445652,-4.365721226,1.587983131,-67,-54,248,286,332
1695161757999822600,-8.823830605,-1.8602947,-0.620098233,0.557572722,0.106451757,0.512940288,-6,39,9,28,30,-7.264008045,6.295553207,-0.951695204,-0.272990793,-4.365721226,1.599307895,-66,-55,250,283,330
1695161758000822600,-8.8429842,-1.8579005,-0.628477931,0.574626327,0.097791731,0.538120985,-2,41,19,29,29,-7.181407928,6.251260757,-0.998382092,-0.25766921,-4.365721226,1.61063242,-66,-55,247,283,331
1695161758001822600,-8.862137794,-1.8590976,-0.640448928,0.590747297,0.089264929,0.562635541,-1,40,17,29,27,-7.10000515,6.212953568,-1.040280581,-0.241814688,-4.365721226,1.621690631,-65,-52,248,281,328
1695161758002822600,-8.876502991,-1.856703401,-0.647631586,0.606068909,0.081004597,0.586750388,-7,39,14,28,27,-7.022193432,6.174646378,-1.085770488,-0.225693718,-4.365721226,1.632349133,-65,-55,248,282,327
1695161758049769800,-8.985439301,-1.891419291,-0.804451764,0.738234282,-0.015188362,0.922359884,-8,37,16,26,29,-5.008669853,5.644330502,-2.82276392,-0.07794027,-4.365721226,1.528828502,-67,-52,240,268,325
1695161758050769800,-8.986636162,-1.895010591,-0.815225661,0.739166975,-0.018785605,0.93395102,-4,41,16,30,25,-4.882974148,5.629965305,-2.958036184,-0.085667685,-4.365721226,1.494454861,-76,-57,238,266,325
1695161758051769800,-8.987833023,-1.899798989,-0.830788016,0.739566624,-0.022382848,0.944476247,-2,38,17,28,29,-4.762067318,5.626373768,-3.089717388,-0.094860643,-4.365721226,1.456350684,-71,-52,239,268,324
1695161758052769800,-8.986636162,-1.900996208,-0.837970614,0.739566624,-0.02571363,0.954468608,-6,41,16,25,25,-4.643554211,5.639542103,-3.226186752,-0.105785601,-4.365721226,1.414382815,-69,-55,237,268,324
1695161758053769800,-8.985439301,-1.906981707,-0.848744512,0.739166975,-0.02917764,0.963661551,-4,42,12,29,29,-4.522646904,5.663484097,-3.361459255,-0.11817611,-4.365721226,1.368418097,-71,-52,239,266,324
1695161758097746000,-8.926780701,-2.112883091,-1.040280581,0.755287945,-0.091130167,1.048663139,-2,41,13,28,24,-2.954444885,6.533776283,-4.825513363,-0.961130142,-4.365721226,-0.07993874,-73,-51,195,242,306
1695161758098746000,-8.925583839,-2.122459888,-1.051054597,0.760483861,-0.094594181,1.050261855,-2,43,16,29,27,-2.929305792,6.50983429,-4.924872875,-1.017886639,-4.365721226,-0.160277188,-71,-50,189,235,301
1695161758099746000,-8.924386978,-2.132036686,-1.063025594,0.766212881,-0.097924963,1.051727414,-6,37,13,25,28,-2.924517393,6.46554184,-5.045780182,-1.067848325,-4.365721226,-0.243013784,-73,-50,185,236,302
1695161758100746000,-8.925583839,-2.147598982,-1.07739079,0.77447319,-0.10285452,1.053059697,-2,39,16,30,29,-2.93648839,6.396110058,-5.20619154,-1.117010713,-4.365721226,-0.322952509,-73,-49,179,236,299
1695161758101746000,-8.925583839,-2.160767078,-1.086967587,0.781001568,-0.106318533,1.053859115,-6,35,10,27,29,-2.950853586,6.330269337,-5.38934803,-1.159245014,-4.365721226,-0.401692182,-75,-55,172,233,298
1695161758143716300,-9.033323288,-2.287659645,-1.310825467,0.932352185,-0.15681316,1.037338495,-3,36,17,28,31,-1.910573006,6.187814236,-4.510675907,-0.592745841,-4.365721226,-1.514306307,-75,-48,89,167,248
1695161758144716300,-9.036913872,-2.290053844,-1.321599364,0.939280272,-0.15841195,1.033874393,-2,43,12,23,30,-1.886630893,6.367379189,-4.203021049,-0.589015305,-4.365721226,-1.560271144,-76,-46,78,161,246
1695161758145716300,-9.040505409,-2.288856745,-1.335964561,0.945542097,-0.159744263,1.030277133,-4,39,19,29,29,-1.862688899,6.549338818,-3.884592295,-0.600206733,-4.365721226,-1.609433293,-76,-49,71,158,244
1695161758146716300,-9.041702271,-2.291250944,-1.344344258,0.951404333,-0.160943344,1.026147008,-4,38,13,28,28,-1.856703401,6.749254704,-3.592499733,-0.631516039,-4.365721226,-1.664990902,-76,-48,62,149,236
1695161758147716300,-9.042900085,-2.290053844,-1.352723956,0.956733584,-0.161875948,1.021883607,-3,39,15,26,28,-1.862688899,6.865373611,-3.412934542,-0.665090322,-4.365721226,-1.702295542,-75,-48,56,144,237
1695161758190693300,-9.273940086,-2.250549555,-1.483207941,0.949805498,-0.148419604,0.861739695,-3,37,12,28,24,-2.728192806,6.196194172,-1.207874775,-2.589482307,-4.365721226,-3.14026022,-71,-44,-18,32,210
1695161758191693300,-9.28591156,-2.248155355,-1.489193439,0.943810105,-0.14748697,0.848816216,-1,41,17,28,29,-2.792836189,6.139930248,-1.11450088,-2.636512995,-4.365721226,-3.186891079,-75,-41,-25,32,212
1695161758192693300,-9.29788208,-2.245761156,-1.492784739,0.936882079,-0.146820813,0.835493088,-7,37,15,29,30,-2.844311714,6.108805656,-1.063025594,-2.667555809,-4.365721226,-3.219000101,-75,-44,-17,29,209
1695161758193693300,-9.307458878,-2.239775658,-1.497573137,0.929554343,-0.146287903,0.821903527,-4,37,14,27,30,-2.958036184,6.068104267,-0.980425596,-2.714719772,-4.365721226,-3.268428802,-74,-43,-24,26,208
1695161758194693300,-9.320627213,-2.236184359,-1.501164436,0.921560466,-0.145621747,0.807781041,-2,39,15,28,29,-3.100491285,6.041768074,-0.885854602,-2.762016773,-4.365721226,-3.319989204,-76,-41,-24,26,207
1695161758244525800,-9.514557838,-2.147598982,-1.618480325,0.709056675,-0.166539043,0.482297063,-1,39,18,32,29,-5.790376663,5.098452568,0.545877993,-3.23485446,-2.196450233,-4.365721226,-71,-44,-41,6,200
1695161758245525800,-9.526528358,-2.141613483,-1.625662923,0.695733547,-0.169470131,0.463378251,-2,42,19,30,30,-5.87896204,4.963180065,0.604535937,-3.185692072,-2.079606533,-4.365721226,-74,-44,-40,1,198
1695161758246525800,-9.539696693,-2.138022184,-1.63763392,0.68201071,-0.172534451,0.444592625,-4,42,13,31,30,-5.963956356,4.811148167,0.66917938,-3.126404285,-1.959165335,-4.365721226,-76,-44,-40,1,200
1695161758247525800,-9.55406189,-2.135627985,-1.644816518,0.668021441,-0.175732017,0.426073521,-1,37,20,30,31,-6.050147533,4.643554211,0.738611221,-3.056591272,-1.834993839,-4.365721226,-75,-44,-41,0,198
1695161758248525800,-9.564835548,-2.129642487,-1.657984734,0.654032171,-0.17866309,0.407554358,-2,42,20,27,29,-6.136339188,4.46039772,0.806845963,-2.976385832,-1.706825376,-4.365721226,-73,-40,-47,0,201
1695161758286505500,-9.376891136,-2.021903276,-1.8590976,0.344669193,-0.21663399,0.078606427,-3,39,19,31,29,-10.65419769,3.191470861,2.82156682,-0.221163854,1.120741129,-4.365721226,-71,-37,-44,-1,200
1695161758287505500,-9.352949142,-2.015917778,-1.863885999,0.326416522,-0.215168446,0.061286367,-4,41,17,28,29,-10.99776554,3.208230257,2.907757998,-0.062485453,1.245312333,-4.365721226,-69,-39,-45,-1,202
1695161758288505500,-9.33020401,-2.013523579,-1.877054095,0.308297068,-0.213436455,0.043300152,-1,40,15,29,31,-11.33893967,3.232172251,2.996343374,0.094727404,1.365753412,-4.365721226,-71,-40,-46,-1,200
1695161758289505500,-9.308655739,-2.00873518,-1.877054095,0.290044397,-0.211038291,0.025447167,-2,41,15,26,35,-11.66933918,3.265691042,3.077746391,0.251807034,1.482197642,-4.365721226,-69,-37,-45,-1,200
1695161758290505500,-9.288305283,-2.00873518,-1.880645394,0.272058189,-0.20824042,0.007327718,-2,42,21,31,29,-11.99495029,3.295618534,3.163937569,0.407820851,1.59517765,-4.365721226,-73,-38,-45,-1,202
1695161758327502000,-9.476250648,-1.874659896,-1.927332401,-0.02358193,-0.119508423,-0.335076571,-2,41,21,30,30,-18.16241455,6.115988255,4.425682068,2.401626348,3.185159206,-4.365721226,-69,-31,-47,-4,210
1695161758328502000,-9.502586365,-1.861491799,-1.9309237,-0.037970904,-0.116310872,-0.350797862,-3,43,19,29,32,-18.37071037,6.330269337,4.382586002,2.439464092,3.218067408,-4.365721226,-65,-33,-44,-2,204
1695161758329502000,-9.530119896,-1.850717902,-1.935712099,-0.052359879,-0.113779478,-0.365986198,-2,45,17,31,28,-18.54668427,6.53976202,4.319139957,2.471839428,3.244180679,-4.365721226,-70,-33,-45,-2,202
1695161758330502000,-9.552865028,-1.842338204,-1.946485996,-0.066615619,-0.111781009,-0.380774885,-4,45,22,29,27,-18.68435097,6.734889507,4.252102375,2.498751879,3.263765574,-4.365721226,-66,-33,-48,-4,212
1695161758331502000,-9.570821762,-1.830367208,-1.953668594,-0.080738127,-0.110049009,-0.395030618,-1,42,21,34,31,-18.7861042,6.928819656,4.187458992,2.522200584,3.277222157,-4.365721226,-69,-34,-47,-4,208
1695161758416982000,-9.386467934,-1.654393315,-2.135627985,-0.280052066,-0.090464011,-0.622456372,-3,45,23,29,32,-15.95256615,9.479841232,3.475183725,1.851914287,2.949339867,-4.365721226,-68,-34,-47,-1,202
1695161758417982000,-9.369708061,-1.638831019,-2.147598982,-0.288445652,-0.08753293,-0.634313881,-1,39,21,28,29,-15.65329075,9.440337181,3.49673152,1.764914274,2.938015223,-4.365721226,-65,-32,-45,0,201
1695161758418982000,-9.355342865,-1.618480325,-2.157175779,-0.296972424,-0.083802447,-0.646437943,-1,46,21,30,30,-15.35401535,9.384073257,3.519476414,1.675649405,2.928156137,-4.365721226,-71,-31,-37,-1,205
1695161758419982000,-9.333795547,-1.602918029,-2.161964178,-0.305632442,-0.079672284,-0.658562064,-1,46,23,29,30,-15.05713463,9.30386734,3.530250311,1.584785581,2.920162201,-4.365721226,-71,-32,-44,-1,203
1695161758420982000,-9.312247276,-1.590947032,-2.164358377,-0.314425707,-0.075142421,-0.670686066,-1,43,23,28,29,-14.87038708,9.238027573,3.527856112,1.52349925,2.915099621,-4.274991035,-69,-34,-46,-1,204
1695161758458956200,-9.084798813,-1.271321058,-2.126051188,-0.519868255,0.098591112,-0.856410444,-1,43,26,34,30,-12.80658531,5.748478413,2.56897831,0.594744265,2.501416683,-0.611531377,-71,-33,-41,2,200
1695161758459956200,-9.0740242,-1.258152962,-2.118868589,-0.530660033,0.111114852,-0.861606419,-1,44,24,28,30,-12.82813263,5.598840714,2.524685621,0.624055147,2.451854467,-0.458182245,-70,-32,-40,2,200
1695161758460956200,-9.064447403,-1.246181965,-2.114080191,-0.541318536,0.123638593,-0.866003036,-2,43,26,33,31,-12.8448925,5.45997715,2.488772631,0.661626339,2.398428679,-0.312560499,-67,-35,-40,8,200
1695161758461956200,-9.054870605,-1.236605167,-2.108094692,-0.55157733,0.136295557,-0.869866788,-4,41,23,31,29,-12.86284828,5.329493046,2.460042238,0.706791699,2.340739727,-0.175332308,-70,-34,-44,4,200
1695161758462956200,-9.045293808,-1.22822547,-2.106897593,-0.561303198,0.148686066,-0.872797847,-2,42,23,29,31,-12.87003136,5.216965675,2.434903145,0.758618653,2.280119419,-0.047163859,-69,-32,-43,5,200
1695161758850337700,-8.678980827,-1.357512355,-1.854309201,-0.578756511,0.375712097,-0.724245012,-3,47,25,32,28,-11.65976238,5.214571476,2.262520552,2.278120995,0.820970893,0.684941769,-66,-34,-41,13,197
1695161758851337700,-8.646659851,-1.381454349,-1.835155606,-0.564900458,0.387836158,-0.704127073,0,43,23,34,31,-11.59033012,5.266046524,2.245761156,2.311828375,0.762748837,0.66375798,-66,-34,-39,16,196
1695161758852337700,-8.611943245,-1.407790542,-1.814804912,-0.548779488,0.399826974,-0.682810128,-2,45,23,30,33,-11.46104336,5.31512785,2.243366957,2.362722635,0.676548243,0.63111639,-66,-34,-40,14,198
1695161758853337700,-8.579621315,-1.438915253,-1.789665818,-0.530393541,0.411951005,-0.660027564,-3,41,25,30,31,-11.3173914,5.360617638,2.254140854,2.413483858,0.593944848,0.598341525,-69,-34,-39,15,196
1695161758854337700,-8.549694061,-1.467645645,-1.764526606,-0.509742737,0.424075037,-0.636445642,0,45,25,32,25,-11.17733097,5.433640957,2.26730895,2.45891571,0.515471697,0.56516695,-69,-34,-47,15,197
1695161758978263400,-8.495824814,-2.04823947,-1.327584863,0.281117916,0.597275674,-0.028245023,-3,45,24,34,29,-9.070432663,7.02937603,2.282871246,1.802885056,-0.431269497,0.092329249,-65,-35,-38,20,198
1695161758979263400,-8.526948929,-2.063801765,-1.313219666,0.338807046,0.599540591,0.008260337,-1,45,26,32,30,-9.015366554,7.085639954,2.279279947,1.705359817,-0.44619143,0.080471672,-66,-34,-35,19,189
1695161758980263400,-8.559270859,-2.075772762,-1.29885447,0.396629393,0.600872934,0.044765696,-3,45,24,32,32,-8.965087891,7.137115479,2.266111851,1.604237318,-0.458182245,0.069679938,-67,-34,-37,21,196
1695161758981263400,-8.593987465,-2.088941097,-1.282094955,0.45445177,0.601272583,0.080871366,-1,46,25,34,31,-8.921992302,7.182605267,2.251746655,1.50058341,-0.467108727,0.059687596,-66,-35,-35,20,187
1695161758982263400,-8.628703117,-2.092532396,-1.26294136,0.511874437,0.600739658,0.116577335,-1,44,26,30,31,-8.878896713,7.220912457,2.233790159,1.394797802,-0.473237365,0.050494641,-65,-34,-35,20,193
1695161759057243900,-9.410409927,-2.069787264,-1.149216771,1.337641597,0.437531412,0.648303211,-1,46,26,34,41,-8.761581421,6.623558998,1.650802016,-0.309229732,-0.302967817,0.137094945,-70,-35,-36,18,192
1695161759058243900,-9.440337181,-2.067393064,-1.148019671,1.365486979,0.422875971,0.667888165,-2,43,24,30,31,-8.771158218,6.548141479,1.617283225,-0.363321573,-0.292176098,0.160010725,-67,-34,-35,19,190
1695161759059243900,-9.473855972,-2.061407566,-1.146822572,1.39160037,0.4082205,0.686540544,-5,45,24,32,32,-8.781931877,6.46554184,1.584961534,-0.41288361,-0.282183766,0.185191423,-67,-34,-37,22,192
1695161759060243900,-9.503783226,-2.060210466,-1.138442874,1.415981531,0.393298626,0.704127073,-1,44,22,30,29,-8.789113998,6.379350662,1.546654344,-0.458182245,-0.272591114,0.212104142,-69,-34,-39,15,188
1695161759061243900,-9.531316757,-2.054224968,-1.137245774,1.438630939,0.378509969,0.72038132,-3,45,23,32,33,-8.80467701,6.296750546,1.504755735,-0.499483913,-0.263931066,0.240882084,-67,-34,-37,17,192
1695161759134199400,-9.763554573,-1.777694821,-1.070208192,1.514439583,0.145088822,0.77447319,-2,41,23,31,31,-9.058462143,4.756081581,0.918176353,-0.598208308,-0.292042881,1.052793264,-65,-34,-34,24,193
1695161759135199400,-9.761159897,-1.753752708,-1.060631394,1.497652292,0.136295557,0.763548255,-1,39,22,31,31,-9.071630478,4.701014996,0.894234359,-0.580888212,-0.30176878,1.100356817,-67,-34,-37,20,188
1695161759136199400,-9.758766174,-1.729810715,-1.058237195,1.478600383,0.128035218,0.751290977,-2,43,23,31,32,-9.082404137,4.662707806,0.881066203,-0.56876421,-0.308430314,1.131000042,-65,-34,-36,25,195
1695161759137199400,-9.756371498,-1.70946002,-1.055842996,1.457150102,0.120041348,0.737834632,-2,41,19,30,31,-9.095572472,4.610035419,0.866701007,-0.550111771,-0.318422645,1.177497745,-66,-34,-34,24,193
1695161759138199400,-9.756371498,-1.689109325,-1.055842996,1.433301687,0.112846859,0.723045945,-1,43,24,30,33,-9.111134529,4.559757233,0.849941611,-0.53079325,-0.328814715,1.223995328,-65,-39,-34,26,194
1695161759223125900,-9.625887871,-1.352723956,-0.867898107,0.67161864,0.039702907,0.264730483,-3,45,23,30,33,-9.226056099,4.16231966,0.727837324,-0.255803972,-0.40928638,1.903874397,-63,-37,-32,31,190
1695161759224125900,-9.612719536,-1.349132657,-0.858321309,0.620990813,0.03757121,0.234486982,-1,44,21,29,31,-9.2212677,4.150348663,0.719457626,-0.25300613,-0.40462327,1.923326135,-63,-34,-31,31,190
1695161759225125900,-9.603142738,-1.343147159,-0.847547412,0.570496202,0.035306279,0.204243496,-1,41,24,33,34,-9.21528244,4.139574528,0.715866327,-0.251140893,-0.399294019,1.941179156,-60,-31,-31,31,192
1695161759226125900,-9.591172218,-1.340752959,-0.834379315,0.520001531,0.032641653,0.174399704,-3,43,16,29,35,-9.20929718,4.12640667,0.721851826,-0.250341505,-0.39316541,1.957300067,-62,-34,-33,31,190
1695161759227125900,-9.578003883,-1.334767461,-0.829590917,0.46950686,0.029977029,0.144555897,-4,44,21,31,31,-9.200917244,4.114435673,0.721851826,-0.250474721,-0.385571182,1.971955538,-62,-34,-33,29,189
1695161759288086500,-9.295488358,-1.483207941,-0.683544576,-0.241415009,-0.083669223,-0.270192951,-1,44,23,31,30,-8.888473511,4.252102375,0.803254664,-0.281251162,-0.038903523,1.923725843,-60,-34,-28,38,189
1695161759289086500,-9.279925346,-1.491587639,-0.679953277,-0.263797849,-0.09272895,-0.282983154,-4,43,24,30,29,-8.875306129,4.327519417,0.821211159,-0.276188374,-0.004130168,1.901742697,-62,-34,-29,37,189
1695161759290086500,-9.261969566,-1.498770237,-0.679953277,-0.284448713,-0.10178867,-0.294840723,-2,42,22,30,30,-8.866926193,4.411316395,0.842759013,-0.271258801,0.032108728,1.8786937,-60,-34,-28,34,192
1695161759291086500,-9.242815971,-1.507149935,-0.673967779,-0.304033697,-0.111114852,-0.305366009,-4,38,22,30,31,-8.866926193,4.497508049,0.866701007,-0.2669954,0.06981317,1.854179144,-60,-34,-28,34,186
1695161759292086500,-9.226056099,-1.513135433,-0.666785181,-0.322153151,-0.120574266,-0.315091878,-4,43,20,30,30,-8.872911453,4.582501888,0.89064306,-0.264330775,0.108583458,1.829664588,-63,-35,-34,40,191
1695161759325064400,-9.92636013,-1.194706678,-1.035492182,-0.586883605,-0.393698305,-0.339473218,-1,42,23,30,29,-10.11071396,6.455965042,1.41018486,-0.686007679,0.68560797,1.603970885,-61,-34,-29,40,190
1695161759326064400,-10.00776291,-1.185129881,-1.060631394,-0.604336917,-0.414748847,-0.333344579,-1,42,20,28,32,-10.14542961,6.532579422,1.434126854,-0.732372165,0.696932614,1.603837609,-59,-37,-27,36,189
1695161759327064400,-10.08916569,-1.173158884,-1.083376288,-0.622722805,-0.435666144,-0.326016843,-2,45,22,30,29,-10.17056847,6.606799603,1.452083349,-0.781134784,0.705992341,1.602771878,-62,-35,-27,37,189
1695161759328064400,-10.15859795,-1.168370485,-1.107318282,-0.64150846,-0.456716686,-0.31788975,-2,39,19,32,31,-10.18253994,6.673837185,1.470039845,-0.831496119,0.713053584,1.600373626,-61,-38,-25,36,190
1695161759329064400,-10.22084713,-1.170764685,-1.137245774,-0.660693705,-0.477500767,-0.308963239,-1,40,20,32,30,-10.1837368,6.739677906,1.482010841,-0.883989275,0.717583418,1.59770906,-62,-34,-31,38,188
1695161759359069800,-9.081207275,-1.711854219,-1.556231141,-0.866669238,-0.66695559,-0.040635526,-1,41,20,29,31,-8.983044624,6.323086739,0.642843127,-1.713220596,0.360923439,1.520834565,-61,-36,-24,40,188
1695161759360069800,-8.962694168,-1.744175911,-1.572990537,-0.86693567,-0.661892772,-0.030376723,-1,46,25,29,32,-8.916007042,6.253654957,0.580593884,-1.721747398,0.328415006,1.526963234,-61,-34,-25,40,192
1695161759361069800,-8.847772598,-1.776497602,-1.575384736,-0.866269529,-0.655364454,-0.021183766,-1,41,24,30,33,-8.858546257,6.205770969,0.511162043,-1.725477815,0.297505349,1.533091784,-62,-35,-28,37,190
1695161759362069800,-8.729259491,-1.805228114,-1.581370234,-0.864937186,-0.646837711,-0.01292343,-1,45,22,34,28,-8.815450668,6.174646378,0.433350503,-1.724811554,0.267794788,1.538021445,-60,-35,-25,40,189
1695161759363069800,-8.616731644,-1.832761407,-1.590947032,-0.862938762,-0.636578858,-0.005995406,-1,47,26,31,34,-8.775946617,6.150704384,0.347159237,-1.718283296,0.238617152,1.54428339,-63,-35,-27,36,189
1695161759401024000,-7.946355343,-2.120065689,-1.222239971,-0.672418058,-0.156679943,-0.064750381,-2,43,25,31,33,-8.742427826,8.686163902,-0.617704034,-0.453252673,-0.063418068,1.923859,-57,-36,-24,63,198
1695161759402024000,-7.999027729,-2.140416384,-1.197100878,-0.653232813,-0.127102599,-0.0678147,-5,41,25,27,29,-8.66940403,8.956708908,-0.578199685,-0.339206725,-0.043033689,1.992606401,-60,-34,-15,73,198
1695161759403024000,-8.060079575,-2.161964178,-1.171961784,-0.632848382,-0.098724343,-0.069679938,-5,39,20,27,28,-8.596381187,9.25957489,-0.560243189,-0.228091896,-0.014122511,2.065084219,-62,-35,-13,78,196
1695161759404024000,-8.124723434,-2.184709072,-1.143231273,-0.611131668,-0.071678407,-0.070479326,-6,37,20,29,27,-8.518569946,9.534908295,-0.562637389,-0.112580396,0.022382848,2.141159296,-59,-34,-15,80,197
1695161759405024000,-8.200140953,-2.206256866,-1.119289279,-0.587949455,-0.046764165,-0.070079632,-4,38,24,28,28,-8.473079681,9.703699112,-0.573411286,-0.032908116,0.051826954,2.19551754,-57,-34,-11,85,200
1695161759436024900,-9.437943459,-2.449268341,-1.083376288,0.125637069,-0.045964777,0.078339972,-3,41,20,30,30,-6.210559368,13.97016716,-3.151966572,2.232822418,2.378310919,3.846652269,-61,-36,94,151,262
1695161759437024900,-9.45111084,-2.425326347,-1.083376288,0.164940268,-0.064483918,0.08313629,-5,38,20,29,28,-6.081272125,14.00967121,-3.542221308,2.356461048,2.594811678,3.893949509,-63,-34,100,152,263
1695161759438024900,-9.457097054,-2.398990154,-1.086967587,0.202511474,-0.083402753,0.086733535,-2,39,16,29,31,-5.953182697,13.99650288,-4.001908302,2.489425659,2.811845303,3.936183691,-62,-35,106,157,270
1695161759439024900,-9.453505516,-2.370259762,-1.091755986,0.238483921,-0.102055125,0.088865243,-4,37,15,34,30,-5.84065485,14.01326275,-4.414907932,2.614130259,3.028212786,3.980016708,-60,-35,116,159,275
1695161759440024900,-9.44512558,-2.342726469,-1.094150186,0.272324651,-0.120574266,0.089664623,-4,38,15,29,28,-5.770026207,14.05635834,-4.839878559,2.73203969,3.244313955,4.019586563,-62,-29,126,162,280
1695161759473003400,-8.898050308,-1.44968915,-0.798466265,0.262998462,-0.211571202,-0.061019909,-2,37,20,30,29,-5.58088398,14.14733791,-10.71764374,1.653666139,4.365588188,3.270560503,-46,-36,203,195,311
1695161759474003400,-8.877699852,-1.401805043,-0.775721371,0.219964772,-0.201845318,-0.073410407,-13,38,21,30,29,-5.559336185,13.86242771,-10.94389629,1.487127066,4.365588188,3.159178972,-47,-35,203,197,313
1695161759475003400,-8.860940933,-1.352723956,-0.761356115,0.172934145,-0.190920368,-0.085667685,-4,41,19,28,31,-5.531803131,13.55237865,-11.1605711,1.322053552,4.365588188,3.047797918,-44,-34,198,197,313
1695161759476003400,-8.846575737,-1.310825467,-0.74459672,0.122173049,-0.179196015,-0.097791731,-3,37,21,29,29,-5.493495941,13.2375412,-11.36288166,1.158978581,4.365588188,2.935617208,-45,-35,203,213,313
1695161759477003400,-8.829815865,-1.272518158,-0.730231524,0.0678147,-0.166805506,-0.109649308,-1,38,19,29,30,-5.457582951,12.91193008,-11.53765774,0.997235835,4.365588188,2.823036671,-44,-35,203,197,311
1695161759507976600,-8.827422142,-1.703474522,-0.318428814,-1.030143976,0.061819296,-0.261133224,-1,47,24,30,33,-2.642001629,6.617573261,-13.63258457,-1.215735078,4.365588188,0.820837617,-41,-41,206,200,310
1695161759508976600,-8.832210541,-1.775300503,-0.301669419,-1.061719775,0.0678147,-0.2669954,-1,45,21,32,32,-2.513911724,6.43321991,-13.64694977,-1.245445609,4.365588188,0.762482405,-42,-38,206,195,310
1695161759509976600,-8.834604263,-1.842338204,-0.284909993,-1.088232756,0.072477795,-0.272990793,-1,45,21,28,30,-2.334346771,6.154295444,-13.65772343,-1.286214352,4.365588188,0.675082684,-42,-36,207,196,308
1695161759510976600,-8.840589523,-1.905784607,-0.270544797,-1.10994947,0.075675346,-0.278986216,-2,43,21,30,29,-2.169146776,5.869385242,-13.67328548,-1.323385835,4.365588188,0.587816238,-43,-41,207,196,309
1695161759511976600,-8.84896946,-1.966836691,-0.258573771,-1.126869917,0.077540584,-0.284981638,-3,45,19,32,31,-1.996764183,5.583278179,-13.6840601,-1.354961753,4.365588188,0.502947927,-44,-39,204,195,308
1695161759543938200,-8.874108315,-2.363077164,-0.220266551,-0.914099514,-0.080071971,-0.413416535,-4,44,19,31,30,0.055066638,1.582567334,-11.94946098,-1.384272695,4.365588188,-0.817373693,-53,-37,190,189,284
1695161759544938200,-8.860940933,-2.346317768,-0.22146365,-0.896246552,-0.092062794,-0.419811636,-4,42,18,28,27,0.077811554,1.45088625,-11.76510715,-1.37228179,4.365588188,-0.885055125,-53,-39,190,189,282
1695161759545938200,-8.847772598,-2.324769735,-0.219069451,-0.879592657,-0.103520676,-0.425940275,-1,41,21,29,30,0.10055647,1.319205165,-11.58554173,-1.360424161,4.365588188,-0.954468608,-49,-40,191,191,282
1695161759546938200,-8.835801125,-2.303221941,-0.216675252,-0.864404321,-0.114312403,-0.431669205,-1,44,23,32,29,0.113724582,1.233013868,-11.47301483,-1.35256362,4.365588188,-1.001765728,-50,-44,190,188,283
1695161759547938200,-8.819042206,-2.286462545,-0.216675252,-0.850681484,-0.124437973,-0.437398165,-1,42,22,32,32,0.1316811,1.108515382,-11.29584408,-1.339640021,4.365588188,-1.073710561,-55,-39,190,188,283
1695161759576919700,-8.58680439,-1.788468719,-0.312443316,-0.908104122,-0.193451747,-0.563967824,-1,38,22,30,29,-0.776918471,0.001197101,-7.472303391,-1.027479291,4.365588188,-2.296640158,-60,-42,175,182,279
1695161759577919700,-8.58680439,-1.758541107,-0.328005642,-0.92609036,-0.194117904,-0.572627902,-4,42,20,29,29,-0.926556051,-0.027533319,-7.252037048,-0.997635543,4.365588188,-2.321421146,-59,-37,175,180,279
1695161759578919700,-8.591592789,-1.731007814,-0.342370838,-0.945542097,-0.194650844,-0.58168757,-2,44,21,29,30,-1.083376288,-0.038307227,-7.031770229,-0.96406126,4.365588188,-2.341938734,-60,-43,173,179,278
1695161759579919700,-8.598775864,-1.707065821,-0.353144765,-0.966192961,-0.195183769,-0.591147006,-1,38,23,30,29,-1.244984865,-0.038307227,-6.80192709,-0.927022934,4.365588188,-2.358059645,-60,-40,169,180,278
1695161759580919700,-8.604761124,-1.681926727,-0.368707061,-0.987909675,-0.195983157,-0.600473166,-1,45,25,32,28,-1.414973259,-0.023942016,-6.556521416,-0.887986183,4.365588188,-2.369784117,-61,-40,168,174,277
1695161759614922400,-9.245209694,-1.569399238,-0.506373644,-1.414649367,-0.201179162,-0.72824192,-1,43,16,29,32,-5.674258232,2.880224705,-2.393004656,-0.277653903,4.365588188,-2.052027464,-67,-40,158,174,276
1695161759615922400,-9.293093681,-1.577778935,-0.502782345,-1.429171562,-0.200779468,-0.728508472,-2,43,21,30,31,-5.791574001,2.993949175,-2.280477047,-0.266862184,4.365588188,-2.027113199,-66,-37,158,174,277
1695161759616922400,-9.340977669,-1.586158633,-0.502782345,-1.442494631,-0.200379789,-0.727709055,-2,42,23,31,31,-5.948394299,3.173514366,-2.120065689,-0.251407355,4.365588188,-1.988609552,-65,-41,158,173,274
1695161759617922400,-9.390059471,-1.59812963,-0.497993946,-1.454085827,-0.199713632,-0.725977063,-1,43,21,32,31,-6.071695328,3.351882458,-1.96923089,-0.237018377,4.365588188,-1.948240399,-65,-35,158,173,276
1695161759618922400,-9.430760384,-1.607706428,-0.499191046,-1.464477777,-0.199180692,-0.723712087,-2,42,20,28,31,-6.167463779,3.526659012,-1.823184609,-0.223961711,4.365588188,-1.906539083,-66,-41,173,174,274
1695161759658874300,-9.775525093,-1.647210717,-0.433350503,-1.458482385,-0.235686064,-0.572494626,-1,42,18,30,29,-5.240907669,6.484695435,-0.702698171,-0.222096488,2.966660023,-1.168704391,-65,-41,158,173,273
1695161759659874300,-9.758766174,-1.661576033,-0.415394008,-1.449289441,-0.23941654,-0.557572722,-1,42,17,28,32,-5.124788761,6.567295074,-0.645237386,-0.227825418,2.901376724,-1.14792037,-63,-40,159,170,275
1695161759660874300,-9.738415718,-1.680729628,-0.389057785,-1.439297199,-0.243147001,-0.541451752,-2,42,21,27,29,-5.019443989,6.634333134,-0.59495914,-0.232621744,2.840090275,-1.127269506,-65,-47,157,169,276
1695161759661874300,-9.715670586,-1.703474522,-0.359130263,-1.428105593,-0.247277185,-0.523998499,-10,41,20,29,30,-4.929661274,6.690596581,-0.551863492,-0.236751899,2.782134771,-1.10635221,-69,-41,156,174,274
1695161759662874300,-9.689333916,-1.726219416,-0.326808542,-1.415715098,-0.25087443,-0.505479336,-4,41,19,26,30,-4.850652695,6.745663166,-0.506373644,-0.239016846,2.726577282,-1.085168481,-63,-41,158,174,276
1695161759719838800,-9.15063858,-2.273294449,0.328005642,-0.98844254,-0.286580414,0.092196018,-2,38,15,29,30,-4.450820923,8.189367294,0.517147541,-0.206108719,1.566266418,-0.556773365,-65,-103,155,172,273
1695161759720838800,-9.139864922,-2.292448044,0.351947635,-0.962062836,-0.287246555,0.132565081,-1,43,21,29,31,-4.563348293,8.265981674,0.574608386,-0.200912714,1.506179094,-0.504813194,-67,-104,156,174,269
1695161759721838800,-9.119514465,-2.310404539,0.375889659,-0.935949445,-0.288445652,0.172934145,-4,38,19,29,30,-4.704606533,8.35097599,0.634463429,-0.192785591,1.445958614,-0.448056638,-72,-105,155,172,273
1695161759722838800,-9.10036087,-2.329558372,0.397437483,-0.910502255,-0.290444106,0.213303223,-2,43,19,30,32,-4.874594688,8.438364029,0.70509243,-0.180128634,1.384006023,-0.386370599,-65,-107,156,172,273
1695161759723838800,-9.083600998,-2.351106167,0.415394008,-0.885055125,-0.293641627,0.25300613,-3,41,20,31,30,-5.064933777,8.544905663,0.792480767,-0.162941799,1.318722844,-0.319222063,-63,-106,158,173,270
1695161759771808000,-8.893261909,-2.664746523,0.59495914,-0.50068301,-0.444992334,0.820304751,-2,42,15,29,31,-6.636727333,10.17535686,1.966836691,-0.439663082,-0.519735038,0.774739683,-63,-113,157,180,288
1695161759772808000,-8.892065048,-2.661155224,0.587776542,-0.491490036,-0.454718202,0.836825371,-3,41,13,28,30,-6.527791023,10.1047287,1.889025092,-0.498551309,-0.598607957,0.77913624,-62,-113,157,179,290
1695161759773808000,-8.888473511,-2.657563925,0.581790984,-0.484162331,-0.464444101,0.85188055,-2,45,15,27,31,-6.458359241,10.05325317,1.831564307,-0.536388993,-0.648969352,0.781934142,-63,-101,155,181,291
1695161759774808000,-8.880094528,-2.649184227,0.567425787,-0.479632467,-0.473770291,0.865336955,-3,42,15,29,29,-6.366182327,9.97065258,1.734599113,-0.589148581,-0.721180677,0.786464036,-61,-91,158,177,290
1695161759775808000,-8.866926193,-2.669534922,0.545877993,-0.47416997,-0.483496159,0.877594173,-1,38,13,29,31,-6.284779549,9.87608242,1.629254222,-0.636312425,-0.790460944,0.790860653,-63,-80,157,178,290
1695161759826777500,-9.139864922,-2.472013235,0.178368032,-0.757019937,-0.526263416,0.847750366,-1,41,17,30,28,-6.671442986,8.35696125,1.018732786,-0.523465574,-2.406822205,1.584252715,-73,-51,143,177,280
1695161759827777500,-9.157821655,-2.470816135,0.14844051,-0.785664618,-0.521866739,0.835626304,-2,39,15,28,31,-6.714538574,8.259995461,1.001973391,-0.499883622,-2.535656929,1.666722894,-74,-55,143,176,279
1695161759828777500,-9.175778389,-2.473210335,0.126892686,-0.8149755,-0.517070413,0.822969377,-2,39,15,31,29,-6.751648903,8.154650688,0.970848799,-0.475102603,-2.670220613,1.750924945,-75,-53,140,173,279
1695161759829777500,-9.192537308,-2.479195833,0.107739076,-0.844552815,-0.511874437,0.809513032,-1,38,15,28,32,-6.770802498,8.080430984,0.951695204,-0.457116395,-2.762949467,1.807548285,-75,-56,141,177,279
1695161759830777500,-9.211690903,-2.486378431,0.08379706,-0.87413013,-0.505745769,0.795390487,-2,38,16,29,29,-6.794744492,7.957129478,0.92775315,-0.428471655,-2.905773401,1.893215895,-76,-53,135,175,279
1695161759873752400,-9.157821655,-2.938882589,-0.238223076,-1.293941855,-0.279918849,0.47057274,-3,26,14,31,30,-6.139930248,5.172672749,0.238223076,0.274589568,-4.365721226,3.199548244,-73,-48,98,161,253
1695161759874752400,-9.143456459,-2.980781078,-0.251391172,-1.305000067,-0.260733545,0.451653898,-2,26,21,29,30,-6.076483727,5.064933777,0.125695586,0.300969362,-4.365721226,3.222330809,-74,-50,95,159,251
1695161759875752400,-9.129091263,-3.004723072,-0.262165099,-1.317124128,-0.243813157,0.433267981,-3,26,16,31,30,-6.001066685,4.945223808,-0.019153614,0.324551284,-4.365721226,3.238718033,-73,-49,94,159,251
1695161759876752400,-9.11233139,-3.026270866,-0.262165099,-1.330180645,-0.228891268,0.41501531,-4,22,14,29,29,-5.90290451,4.823119164,-0.209492654,0.35159725,-4.365721226,3.252574205,-73,-50,96,158,252
1695161759877752400,-9.091980934,-3.031059265,-0.25977087,-1.344036818,-0.21556814,0.397295564,-4,22,16,28,29,-5.804741859,4.72256279,-0.40940848,0.382506907,-4.365721226,3.264431715,-75,-49,94,156,247
1695161759932718200,-8.971074104,-3.229778051,-0.532709897,-1.336842299,0.013722817,0.182127118,-4,29,21,30,27,-3.930082083,4.156333923,-5.109226227,0.834027529,-4.365721226,2.857410431,-67,-48,62,126,236
1695161759933718200,-8.973467827,-3.221398354,-0.568622887,-1.31565845,0.025313934,0.176931083,-1,31,12,29,28,-3.926490784,4.27125597,-5.27682066,0.794591129,-4.365721226,2.801852942,-74,-48,61,120,234
1695161759934718200,-8.981847763,-3.210624456,-0.599747539,-1.293009162,0.036771823,0.171335369,-1,32,17,29,28,-3.938461781,4.393360138,-5.440823555,0.741298616,-4.365721226,2.741499186,-67,-48,59,115,232
1695161759935718200,-8.979453087,-3.19865346,-0.628477931,-1.270226598,0.047163859,0.16573967,-1,29,13,29,30,-3.965995073,4.53102684,-5.583278179,0.671485424,-4.365721226,2.677015305,-69,-47,55,114,240
1695161759936718200,-8.968679428,-3.183091164,-0.651222885,-1.247843862,0.057156201,0.159477785,-2,31,17,32,32,-4.005499363,4.687847137,-5.699397087,0.580222011,-4.365721226,2.606535912,-65,-50,57,110,234
1695161760008673000,-8.479064941,-2.93529129,-0.85592711,-0.890784025,0.182393566,0.030909648,-3,32,13,29,29,-5.961562157,5.804741859,-11.48139381,-2.578290939,-4.365721226,-0.022782542,-54,-43,30,78,230
1695161760009673000,-8.451532364,-2.931699991,-0.852335811,-0.875062823,0.186257273,0.025313934,-1,30,17,28,32,-5.963956356,5.813121796,-11.64300251,-2.687540531,-4.365721226,-0.193984687,-60,-48,23,78,228
1695161760010673000,-8.423998833,-2.925714493,-0.85353291,-0.859208286,0.189854518,0.019851454,-3,31,13,29,28,-5.956773758,5.808333397,-11.75912189,-2.789595604,-4.365721226,-0.362921923,-54,-47,27,76,227
1695161760011673000,-8.4012537,-2.918531895,-0.851138711,-0.843753397,0.193451747,0.015188362,-1,30,16,30,28,-5.953182697,5.80234766,-11.8093996,-2.855811834,-4.365721226,-0.473370582,-51,-44,23,72,227
1695161760012673000,-8.379706383,-2.907757998,-0.85353291,-0.828698277,0.197049007,0.010525269,-4,32,12,29,29,-5.954379559,5.793968201,-11.84531307,-2.954003096,-4.365721226,-0.636978507,-47,-44,21,68,225
1695161760074636500,-8.342596054,-2.853888512,-0.830788016,-0.597408891,0.210638598,-0.026113322,-1,32,12,28,31,-5.839457989,6.248866558,-7.386112213,-4.365721226,-4.365721226,-2.679813385,-40,-49,-6,46,220
1695161760075636500,-8.353369713,-2.86107111,-0.834379315,-0.58381933,0.207441032,-0.022782542,-3,29,14,29,29,-5.98550415,6.248866558,-7.273584843,-4.365721226,-4.365721226,-2.758419752,-38,-44,-6,46,220
1695161760076636500,-8.365341187,-2.869450808,-0.835576415,-0.569297075,0.203977033,-0.018652374,-1,32,15,28,29,-6.099228859,6.221333027,-7.107187748,-4.365721226,-4.365721226,-2.832762718,-39,-45,-9,45,220
1695161760077636500,-8.376114845,-2.879027605,-0.846350312,-0.553842247,0.200246558,-0.01385605,-4,32,19,28,28,-6.194996834,6.184223175,-6.879738808,-4.365721226,-4.365721226,-2.900444269,-39,-43,-9,47,217
1695161760078636500,-8.390480042,-2.887407303,-0.85473001,-0.537321568,0.19638285,-0.008127105,-2,32,15,29,30,-6.254851818,6.161478043,-6.701370716,-4.365721226,-4.365721226,-2.942544937,-39,-46,-13,42,217
1695161760155135500,-8.747216225,-3.038241863,-1.027112484,-0.03757121,0.143090352,0.156679943,-4,29,15,27,30,-10.07958889,6.030993938,-2.788047791,-3.749526739,-4.11857748,-4.151751995,-35,-44,-25,30,211
1695161760156135500,-8.790311813,-3.045424461,-1.028309584,-0.003597243,0.143356815,0.16773814,-4,26,11,29,27,-10.23401546,5.940014362,-2.625242233,-3.677315474,-3.94084692,-4.214770317,-34,-45,-25,31,212
1695161760157135500,-8.83699894,-3.05140996,-1.027112484,0.031176111,0.143356815,0.179062784,-3,31,13,28,30,-10.38245583,5.84065485,-2.462436438,-3.598176241,-3.763915777,-4.27738905,-31,-41,-16,30,214
1695161760158135500,-8.884882927,-3.059789658,-1.025915384,0.065949462,0.144022971,0.190787122,-5,29,15,29,31,-10.52730465,5.732915878,-2.312798738,-3.511842251,-3.587384462,-4.339874268,-29,-45,-19,31,213
1695161760159135500,-8.927978516,-3.063380957,-1.019929886,0.100589581,0.145488501,0.202511474,-4,27,13,28,28,-10.66377449,5.622782707,-2.165555477,-3.418980122,-3.411918879,-4.365721226,-30,-47,-31,28,213
1695161760200110500,-9.768342972,-3.284844637,-0.859518409,0.778203666,0.178929552,0.44512558,-7,26,10,28,29,-15.08347034,4.241328239,0.942118347,-0.121240422,0.115777947,-4.365721226,-29,-43,-28,25,208
1695161760201110500,-9.786299706,-3.300406933,-0.845153213,0.818972409,0.180128634,0.457249612,-4,25,11,31,29,-15.31091976,4.310760021,1.071405292,0.014255743,0.240748852,-4.365721226,-30,-46,-31,24,209
1695161760202110500,-9.798270226,-3.314772367,-0.834379315,0.860407352,0.181327716,0.469373643,-2,22,10,29,29,-15.64610767,4.425682068,1.244984865,0.215834603,0.428871363,-4.365721226,-31,-43,-28,28,214
1695161760203110500,-9.806650162,-3.330334663,-0.824802458,0.902508378,0.182393566,0.48096475,-3,25,8,29,29,-16.00164795,4.551377296,1.401805043,0.415148526,0.615661561,-4.365721226,-34,-44,-29,28,211
1695161760204110500,-9.815030098,-3.345896959,-0.81881696,0.94580853,0.183326185,0.49242267,-1,26,10,29,29,-16.37753677,4.689043999,1.537077546,0.610865235,0.798588037,-4.365721226,-32,-40,-31,26,212
1695161760293551400,-9.854534149,-2.885013103,-0.501585245,1.751724243,0.125903517,0.563834608,-3,22,10,30,32,-19.61330032,10.2028904,-0.256179571,3.301203489,1.73600316,-4.365721226,-44,-34,-29,22,210
1695161760294551400,-9.853337288,-2.810792685,-0.495599747,1.788096428,0.117376715,0.552909672,-3,25,9,27,28,-19.61330032,10.45428181,-0.389057785,3.346235752,1.634747386,-4.365721226,-44,-35,-32,24,214
1695161760295551400,-9.852140427,-2.732981205,-0.497993946,1.822070479,0.109649308,0.538254201,-2,25,6,31,27,-19.61330032,10.70567322,-0.523133099,3.370616913,1.526296973,-4.365721226,-44,-35,-34,25,214
1695161760296551400,-9.838972092,-2.659958124,-0.496796846,1.85324657,0.102987751,0.519601822,-6,22,10,27,28,-19.61330032,10.9295311,-0.651222885,3.37821126,1.411584973,-4.365721226,-41,-34,-29,21,208
1695161760297551400,-9.819818497,-2.589329243,-0.492008448,1.881358266,0.096992344,0.496686071,-5,19,5,31,30,-19.61330032,11.12944698,-0.754173517,3.371016741,1.293009162,-4.365721226,-45,-34,-34,21,211
1695161760352550600,-9.657012939,-2.122459888,-0.723048925,1.953836083,0.216367543,-0.232754961,-4,26,10,27,27,-10.45069027,8.852560997,-0.688332975,1.416514635,0.209972441,-1.924525261,-44,-36,-28,31,205
1695161760353550600,-9.647436142,-2.085349798,-0.74459672,1.931320071,0.232888207,-0.269127101,-3,28,10,27,28,-10.34175396,8.58680439,-0.636857629,1.34470284,0.233021438,-1.616894245,-43,-34,-29,31,206
1695161760354550600,-9.641449928,-2.059013367,-0.776918471,1.906006098,0.250341505,-0.305232793,-3,27,9,29,29,-10.24239445,8.256404877,-0.560243189,1.265163779,0.272058189,-1.221197605,-42,-35,-25,31,205
1695161760355550600,-9.657012939,-2.038662672,-0.827196658,1.869500756,0.271525264,-0.351730466,-4,29,9,29,31,-10.19929886,8.031349182,-0.493205547,1.216267943,0.30643183,-0.938081205,-43,-35,-25,31,204
1695161760356550600,-9.685743332,-2.018311977,-0.858321309,1.840589523,0.284182221,-0.384771824,-1,25,9,28,29,-10.1789484,7.835024834,-0.421379507,1.174566507,0.34440276,-0.668820798,-43,-36,-25,32,204
1695161760393527300,-9.668983459,-1.628057122,-1.22822547,1.273957014,0.209173039,-0.786064267,-1,29,10,28,29,-11.30182934,5.686229229,-0.062249243,1.710289359,0.927955568,1.321653843,-43,-36,-23,40,204
1695161760394527300,-9.649829865,-1.589749932,-1.242590666,1.249176025,0.197715163,-0.80351758,-2,29,10,29,28,-11.26591587,5.627571106,-0.090979666,1.777704477,0.933151603,1.294607997,-44,-36,-23,34,201
1695161760395527300,-9.631873131,-1.553836942,-1.256955862,1.224794865,0.186390504,-0.820437968,-3,26,9,27,28,-11.23598862,5.590460777,-0.114921682,1.880026102,0.939147055,1.24611187,-43,-36,-22,37,203
1695161760396527300,-9.615114212,-1.516726732,-1.270123959,1.200546741,0.175465539,-0.837091923,-2,26,12,28,30,-11.21683502,5.607220173,-0.160411507,1.971955538,0.93861407,1.186557412,-44,-37,-23,40,200
1695161760397527300,-9.59236908,-1.478419542,-1.286883354,1.17656517,0.165073514,-0.853212893,-2,28,9,27,29,-11.20606136,5.623979568,-0.232237563,2.054958582,0.929021418,1.115811586,-44,-36,-29,38,199
1695161760483537700,-9.28591156,-0.991199493,-1.403002143,0.711454809,0.118975498,-0.922759533,-4,25,13,28,30,-9.349357605,6.496666431,0.001197101,2.53672266,-0.164007664,-0.373846859,-42,-36,-28,40,201
1695161760484537700,-9.26556015,-0.994790792,-1.394622445,0.686940312,0.125237361,-0.906638563,-3,31,17,29,30,-9.204508781,6.582857609,0.039504327,2.482897282,-0.22542727,-0.406088829,-44,-38,-24,41,188
1695161760485537700,-9.246406555,-1.00556469,-1.387439847,0.663091898,0.131898925,-0.888119459,0,31,15,26,27,-9.06803894,6.663063526,0.081402861,2.422276974,-0.284049004,-0.43366769,-45,-35,-27,40,197
1695161760486537700,-9.22725296,-1.022324085,-1.380257249,0.640309334,0.139359877,-0.867068946,-2,32,15,31,29,-8.981847763,6.714538574,0.106541976,2.378310919,-0.321087271,-0.44872281,-39,-37,-23,40,200
1695161760487537700,-9.206902504,-1.04147768,-1.369483352,0.618725896,0.147620216,-0.843087316,-4,31,17,29,27,-8.852560997,6.792350292,0.146046311,2.306765556,-0.373313934,-0.467774898,-44,-36,-21,45,200
1695161760551558700,-8.265981674,-2.166752577,-1.158793569,0.709989309,0.391566604,0.004396631,-4,23,13,28,28,-7.503427982,6.974309444,0.386663586,0.454851478,-0.533058167,-0.222629398,-44,-35,-24,41,200
1695161760552558700,-8.212111473,-2.236184359,-1.159990668,0.75155741,0.403690636,0.057289433,-3,31,15,27,27,-7.51300478,6.930016994,0.392649084,0.370249629,-0.505745769,-0.187856048,-44,-36,-28,44,199
1695161760553558700,-8.160636902,-2.30681324,-1.157596469,0.796989322,0.415415019,0.108849928,-7,27,16,30,27,-7.534552574,6.884527206,0.402225882,0.288712084,-0.476834595,-0.152150065,-44,-36,-19,39,200
1695161760554558700,-8.107964516,-2.372653961,-1.15161097,0.846418023,0.426339954,0.158811629,-6,27,19,29,30,-7.559691906,6.839036942,0.415394008,0.210505351,-0.44619143,-0.115511484,-43,-37,-21,40,199
1695161760555558700,-8.057685852,-2.436100245,-1.148019671,0.899310887,0.436199099,0.207307816,-3,30,17,29,29,-7.5836339,6.783970356,0.435744703,0.135629401,-0.41394946,-0.077807046,-39,-39,-29,40,200
1695161760594534700,-7.80509758,-2.767697096,-1.258152962,2.206043005,0.40462327,0.767145455,-2,28,13,30,27,-8.930372238,5.783194065,1.027112484,-0.798321605,0.284848392,0.637777925,-44,-40,-20,40,200
1695161760595534700,-7.836222172,-2.744952202,-1.268926859,2.270260334,0.392632455,0.779935658,-8,29,12,29,28,-9.034520149,5.705382824,1.045069098,-0.820837617,0.311761081,0.671885133,-43,-37,-23,38,201
1695161760596534700,-7.869740963,-2.719813108,-1.282094955,2.332212925,0.379709035,0.791793287,-6,27,13,30,28,-9.14465332,5.621585369,1.063025594,-0.839889765,0.336675346,0.705459356,-44,-34,-20,45,198
1695161760597534700,-7.905653954,-2.695871115,-1.292868972,2.391900539,0.365719765,0.802185297,-8,27,13,29,28,-9.251194954,5.538985729,1.07739079,-0.855744243,0.359058201,0.73863399,-44,-35,-22,37,199
1695161760598534700,-7.943961143,-2.669534922,-1.304839969,2.449323177,0.350664616,0.811777949,-1,25,15,28,27,-9.357737541,5.450400352,1.094150186,-0.867601812,0.37917611,0.771542132,-43,-36,-22,40,199
1695161760760471400,-9.040505409,-1.887827992,-1.552639842,2.968924999,-0.038903523,0.840822339,-3,29,13,29,29,-10.53568459,4.185064793,1.622071624,-0.501349151,0.431003064,1.224528432,-43,-36,-23,40,201
1695161760761471400,-9.109937668,-1.831564307,-1.574187636,2.963196039,-0.062218986,0.83469373,-8,26,15,29,29,-10.51653099,4.152742863,1.650802016,-0.468041331,0.425274134,1.233987808,-44,-35,-22,38,202
1695161760762471400,-9.186552048,-1.775300503,-1.593341231,2.953603268,-0.085534461,0.82789892,-4,29,11,27,31,-10.49618053,4.134786129,1.675941229,-0.446591109,0.421277195,1.239183784,-43,-36,-21,37,200
1695161760763471400,-9.261969566,-1.715445518,-1.611297727,2.939747334,-0.108583458,0.820571184,-6,26,13,28,27,-10.45547867,4.108449936,1.722628117,-0.41501531,0.415681452,1.245578766,-44,-36,-13,38,200
1695161760764471400,-9.339780807,-1.655590534,-1.629254222,2.921894312,-0.131366,0.812444091,-8,30,13,29,27,-10.39921474,4.084507942,1.78128612,-0.384105653,0.411284834,1.250508428,-44,-38,-24,37,199
1695161760804469200,-10.29027843,-0.814028561,-1.873462796,1.863105655,-0.415681452,0.606068909,-2,28,15,29,25,-8.44554615,3.671508312,2.573766708,0.014122511,0.412483901,1.186957121,-44,-35,-27,36,211
1695161760805469200,-10.28668785,-0.808043063,-1.886630893,1.745329261,-0.419545174,0.589681447,-5,21,15,28,27,-8.347384453,3.648763418,2.588132143,0.023182238,0.411951005,1.181094885,-44,-36,-28,38,199
1695161760806469200,-10.27711105,-0.805648863,-1.89620769,1.655264854,-0.420611024,0.577157736,-3,26,12,31,30,-8.249221802,3.624821424,2.602497339,0.03130934,0.410751909,1.175366044,-44,-40,-27,41,196
1695161760807469200,-10.26274586,-0.810437262,-1.906981707,1.564534426,-0.420344561,0.564634025,-1,29,14,29,24,-8.151060104,3.600879431,2.622848034,0.038370594,0.408620209,1.169237256,-44,-36,-21,40,198
1695161760808469200,-10.24359226,-0.81761986,-1.921346903,1.473271132,-0.418346077,0.552243471,-4,28,12,28,25,-8.060079575,3.576937437,2.63601613,0.044366002,0.405822366,1.16297555,-44,-38,-24,37,196
1695161760843439300,-9.220070839,-1.758541107,-1.966836691,0.129767224,-0.179595709,0.255803972,-8,25,11,29,28,-7.243657112,3.260902643,2.603694439,0.039836142,0.244879022,0.924758077,-44,-39,-23,41,198
1695161760844439300,-9.15063858,-1.824381709,-1.968033791,0.088598773,-0.159078106,0.234486982,-1,29,13,27,27,-7.25323391,3.257311344,2.588132143,0.033441041,0.233154669,0.904107153,-44,-35,-23,42,196
1695161760845439300,-9.083600998,-1.885433793,-1.968033791,0.051160797,-0.138294026,0.212503821,-3,30,15,29,28,-7.275979042,3.252522945,2.56778121,0.026513018,0.221430331,0.882523715,-44,-37,-23,41,196
1695161760846439300,-9.011775017,-1.947683096,-1.97162509,0.017719755,-0.117243491,0.189987749,-3,29,15,30,26,-7.301117897,3.248931646,2.545036316,0.019185297,0.209039822,0.859874368,-44,-37,-22,45,196
1695161760847439300,-8.920795441,-2.027888775,-1.965639591,-0.021050537,-0.088865243,0.158944875,-2,27,17,24,26,-7.338228226,3.248931646,2.522291422,0.011457887,0.195983157,0.836159289,-44,-39,-24,44,198
1695161760927817000,-8.303091049,-2.60130024,-1.78368032,0.008526799,0.26020062,-0.358525276,-2,27,15,28,27,-8.752004623,3.7193923,2.134430885,-0.235686064,-0.102721281,0.150018379,-43,-35,-22,44,195
1695161760928817000,-8.313865662,-2.591723442,-1.768117905,0.036238898,0.275388956,-0.396229684,-2,27,13,29,27,-8.840589523,3.769670486,2.123656988,-0.257402748,-0.113113321,0.105252676,-44,-45,-23,46,196
1695161760929817000,-8.322244644,-2.582146645,-1.757344007,0.050361406,0.282317013,-0.414615631,-7,25,13,29,29,-8.924386978,3.818751812,2.123656988,-0.280052066,-0.122173049,0.059820827,-44,-35,-20,44,198
1695161760930817000,-8.340201378,-2.56778121,-1.744175911,0.071411945,0.291243494,-0.442061275,-4,29,13,28,26,-8.978256226,3.853467703,2.129642487,-0.295373648,-0.126969382,0.029577335,-44,-36,-23,45,197
1695161760931817000,-8.35696125,-2.547430515,-1.727416515,0.09246248,0.298704445,-0.469107211,-3,29,12,28,26,-9.057265282,3.909731388,2.138022184,-0.319355279,-0.132565081,-0.016254211,-45,-41,-24,44,198
1695161761109133700,-9.18894577,-1.549048543,-1.78248322,0.259800911,0.237284839,-0.87306428,-1,24,15,28,27,-9.017760277,4.739322186,2.223016262,-0.944342971,0.098724343,-0.735969365,-48,-37,-23,41,196
1695161761110133700,-9.248801231,-1.474828243,-1.795651317,0.247010723,0.227425739,-0.887586534,-2,27,14,26,26,-8.965087891,4.734533787,2.206256866,-0.968990803,0.113246553,-0.752223551,-44,-36,-28,41,194
1695161761111133700,-9.311050415,-1.405396342,-1.812410712,0.231422648,0.217166916,-0.901176095,-6,25,11,28,27,-8.910021782,4.727351189,2.184709072,-0.991107166,0.126702905,-0.765946448,-44,-34,-24,40,195
1695161761112133700,-9.370905876,-1.33835876,-1.823184609,0.213303223,0.207307816,-0.913433373,-5,25,13,29,27,-8.860940933,4.714183331,2.163161278,-1.01029253,0.138826951,-0.776871383,-44,-37,-23,43,197
1695161761113133700,-9.427168846,-1.268926859,-1.842338204,0.192119434,0.197448686,-0.924624801,-1,32,11,28,28,-8.81066227,4.702212334,2.136825085,-1.027079582,0.149751917,-0.784998477,-44,-37,-21,42,195
1695161761347644300,-9.404424667,-0.701501071,-2.069787264,-0.532525241,0.142024502,-0.896113276,-5,27,21,29,28,-8.124723434,3.981557369,1.657984734,-0.846018374,0.074076563,-0.432468593,-43,-37,-19,41,200
1695161761348644300,-9.361329079,-0.70628953,-2.076969862,-0.578356802,0.147886679,-0.883989275,-4,29,15,26,25,-8.119935036,3.948038578,1.638831019,-0.814842284,0.05768913,-0.39529708,-44,-36,-21,42,199
1695161761349644300,-9.317035675,-0.714669228,-2.087743998,-0.623921931,0.155081168,-0.870799422,-3,28,15,29,27,-8.118738174,3.910928488,1.616086125,-0.782067418,0.040635526,-0.357992321,-44,-34,-23,42,197
1695161761350644300,-9.270348549,-0.721851826,-2.092532396,-0.668554366,0.163341507,-0.856943309,-3,26,15,29,29,-8.117541313,3.877409697,1.592144132,-0.74796015,0.022782542,-0.320421129,-44,-37,-25,40,196
1695161761351644300,-9.222464561,-0.74220252,-2.093729496,-0.712387443,0.172534451,-0.842287898,-4,21,21,26,27,-8.119935036,3.841496706,1.572990537,-0.712653935,0.0042634,-0.282849908,-44,-37,-23,42,197
1695161761493555000,-8.525752068,-1.210268974,-2.029085875,-1.217866778,0.4981516,-0.525730491,-4,26,21,29,29,-8.458714485,3.512293816,1.199495077,-0.032108728,-0.372514546,0.271258801,-44,-36,-23,43,195
1695161761494555000,-8.519766808,-1.240196466,-2.00873518,-1.223329306,0.518535972,-0.50854367,-1,27,23,30,28,-8.480262756,3.511096716,1.176750183,-0.005196018,-0.387303203,0.288179159,-42,-36,-22,45,196
1695161761495555000,-8.520963669,-1.274912357,-1.993172884,-1.225993872,0.538387418,-0.490557432,-1,28,24,29,31,-8.497021675,3.511096716,1.167173386,0.012257273,-0.396629393,0.298837662,-44,-36,-21,43,195
1695161761496555000,-8.523358345,-1.308431268,-1.980004787,-1.226260424,0.558105648,-0.472437978,-4,29,15,29,27,-8.51617527,3.514688015,1.157596469,0.037970904,-0.409419596,0.313626319,-44,-38,-23,42,197
1695161761497555000,-8.528146744,-1.345541358,-1.964442492,-1.223728895,0.577424169,-0.453652382,-3,29,20,29,27,-8.530540466,3.519476414,1.144428372,0.063018374,-0.420211345,0.327349156,-44,-35,-21,44,194
1695161761554519300,-8.984241486,-2.091335297,-1.541865945,-0.598341525,0.780601799,-0.007860643,-6,27,15,29,28,-8.339004517,3.805583715,1.234210968,0.287246555,-0.256470144,0.327349156,-44,-36,-20,46,194
1695161761555519300,-9.020154953,-2.135627985,-1.517923832,-0.5339908,0.780735075,0.020251149,-1,31,16,24,25,-8.307879448,3.821146011,1.254561663,0.284315467,-0.233687595,0.317356825,-44,-36,-22,47,196
1695161761556519300,-9.057265282,-2.171540976,-1.491587639,-0.467375189,0.779802442,0.048762634,-2,29,23,29,27,-8.279149055,3.839102507,1.274912357,0.279519141,-0.210771829,0.306831539,-44,-37,-19,45,195
1695161761557519300,-9.096769333,-2.205059767,-1.466448545,-0.398761094,0.778203666,0.077807046,-6,26,15,26,30,-8.249221802,3.857059002,1.304839969,0.273257256,-0.187323123,0.295906603,-44,-36,-22,49,198
1695161761558519300,-9.133879662,-2.238578558,-1.440112352,-0.328015327,0.775805533,0.107251145,-3,29,21,28,28,-8.216899872,3.872621298,1.332373261,0.265130162,-0.163474724,0.284848392,-44,-36,-23,47,196
1695161761596495400,-9.501389503,-2.375048161,-0.878672004,0.937947929,0.684275687,0.652966261,-3,27,13,26,26,-7.788338184,3.963600874,1.869871497,-0.121506892,0.233954057,0.071012251,-42,-36,-21,46,203
1695161761597495400,-9.50976944,-2.357091665,-0.863109708,0.986577332,0.676015317,0.677747309,-2,31,19,26,29,-7.782352448,3.949235678,1.890222192,-0.144822344,0.246211335,0.060886677,-45,-39,-21,47,197
1695161761598495400,-9.512163162,-2.331952572,-0.843956113,1.031875968,0.667621732,0.70172894,-1,25,16,29,28,-7.777564049,3.936067581,1.903390408,-0.1672052,0.257269531,0.050761104,-44,-35,-21,48,192
1695161761599495400,-9.510966301,-2.304419041,-0.829590917,1.073710561,0.658695281,0.724911153,-2,23,19,29,28,-7.777564049,3.920505285,1.926135302,-0.188788652,0.2669954,0.040901989,-44,-39,-24,33,193
1695161761600495400,-9.513360023,-2.275688648,-0.81761986,1.111681461,0.649369061,0.747160852,-2,27,17,29,27,-7.777564049,3.904942989,1.944091797,-0.209173039,0.275788665,0.031042879,-44,-36,-21,48,192
1695161761632474300,-9.355342865,-1.63523972,-0.610521436,1.079705954,0.430336893,0.937148511,-3,26,11,29,25,-8.124723434,3.699041605,2.090138197,-0.357459426,0.245012254,-0.134830013,-45,-41,-25,44,194
1695161761633474300,-9.342175484,-1.612494826,-0.602141738,1.042534471,0.41754669,0.932485461,-4,26,14,29,26,-8.143877029,3.702632904,2.088941097,-0.356127113,0.239150077,-0.139093414,-45,-37,-20,44,194
1695161761634474300,-9.33020401,-1.586158633,-0.590170741,1.003098011,0.404490054,0.926356792,-7,29,15,28,28,-8.167819023,3.707421303,2.084152699,-0.353595704,0.230223581,-0.145355284,-44,-43,-20,44,193
1695161761635474300,-9.319430351,-1.55862534,-0.585382342,0.960996926,0.391433388,0.918629408,-3,26,15,30,28,-8.189367294,3.709815502,2.086546898,-0.350398153,0.221430331,-0.151617154,-46,-37,-21,45,194
1695161761636474300,-9.308655739,-1.532289028,-0.574608386,0.916630924,0.378243476,0.909169972,-6,28,13,28,26,-8.213309288,3.712209702,2.081758261,-0.346667677,0.212637067,-0.157212853,-45,-37,-23,42,193
1695161761675449400,-9.425971985,-1.361103654,-0.567425787,-0.126036748,0.109516084,0.533457875,-2,30,13,27,27,-8.547300339,4.041412354,2.018311977,-0.246477783,0.169070452,-0.200379789,-44,-38,-20,44,193
1695161761676449400,-9.442731857,-1.37666595,-0.572214186,-0.18385911,0.092862174,0.507877529,-2,27,12,28,27,-8.561665535,4.064157486,2.015917778,-0.243813157,0.17346707,-0.198514536,-44,-37,-22,44,193
1695161761677449400,-9.460687637,-1.393425345,-0.574608386,-0.240082696,0.076075032,0.482563555,-3,29,13,28,27,-8.579621315,4.084507942,2.013523579,-0.24154824,0.178263396,-0.195983157,-44,-37,-23,46,194
1695161761678449400,-9.479841232,-1.416170359,-0.580593884,-0.294707507,0.059021436,0.458048999,-2,26,13,29,29,-8.59278965,4.103661537,2.00993228,-0.239683002,0.182793275,-0.192918837,-44,-38,-21,46,196
1695161761679449400,-9.495404243,-1.44729495,-0.588973641,-0.347333819,0.041834611,0.434200615,-6,25,14,29,27,-8.605957985,4.120420933,2.005143881,-0.238350689,0.18798928,-0.189321592,-44,-35,-21,45,194
1695161761719424600,-9.697713852,-1.865083098,-0.829590917,-0.928488553,-0.253539056,0.162275642,-1,26,12,30,29,-8.901641846,4.244919777,1.877054095,-0.280718207,0.227425739,-0.021183766,-43,-37,-18,45,194
1695161761720424600,-9.702502251,-1.877054095,-0.85353291,-0.940612555,-0.265796334,0.156280249,-1,27,14,29,27,-8.913613319,4.234145641,1.869871497,-0.283516079,0.224361405,-0.008526799,-44,-39,-19,44,197
1695161761721424600,-9.701305389,-1.886630893,-0.872686505,-0.951537549,-0.277787149,0.150950998,-1,28,13,28,28,-8.918401718,4.217386246,1.8590976,-0.285781026,0.221030638,0.004929556,-44,-37,-20,44,193
1695161761722424600,-9.703699112,-1.89620769,-0.89064306,-0.960996926,-0.289511472,0.146421134,-6,26,11,28,30,-8.920795441,4.204218388,1.850717902,-0.286980093,0.218232766,0.01385605,-44,-36,-23,42,197
1695161761723424600,-9.706093788,-1.906981707,-0.907402456,-0.969257295,-0.300969362,0.142424196,-2,27,14,28,28,-8.926780701,4.187458992,1.847126603,-0.288045943,0.213569671,0.027445635,-44,-36,-18,46,195
1695161761761403100,-9.59835434,-2.038662672,-1.260547161,-0.963794768,-0.465243489,0.16827105,-3,26,12,28,23,-8.795100212,3.767276287,1.640028119,-0.17506586,0.053825419,0.286846846,-45,-37,-23,45,194
1695161761762403100,-9.587580681,-2.04584527,-1.277306557,-0.95726645,-0.471771836,0.173999995,-5,27,12,26,26,-8.7843256,3.748122692,1.631648421,-0.164274111,0.045831546,0.298571229,-44,-35,-19,45,194
1695161761763403100,-9.575610161,-2.056619167,-1.29885447,-0.947407365,-0.47989893,0.182260334,-6,26,11,30,25,-8.774748802,3.730166197,1.622071624,-0.153615624,0.038503829,0.309895873,-44,-37,-20,42,196
1695161761764403100,-9.567230225,-2.064998865,-1.314416766,-0.939679921,-0.485761106,0.188788652,-4,28,15,28,27,-8.760383606,3.714603901,1.617283225,-0.142957121,0.031575806,0.321087271,-43,-34,-23,42,189
1695161761765403100,-9.557653427,-2.075772762,-1.328781962,-0.931153178,-0.491090357,0.195450217,-2,29,13,29,24,-8.748413086,3.699041605,1.611297727,-0.132165387,0.025313934,0.33187899,-44,-37,-19,44,199
1695161761804399800,-9.202114105,-2.312798738,-1.565807939,-0.678147018,-0.542117953,0.333611012,-7,25,11,27,25,-8.634688377,3.554192305,1.499967337,-0.012390506,0.005728943,0.423941821,-44,-38,-19,45,197
