timestamp,EMG_s0,EMG_s1,EMG_s2,EMG_s3,EMG_s4,EMG_s5,EMG_s6,EMG_s7
1.6951621648636795e+18,-1.0,-1.0,-1.0,-2.0,0.0,-1.0,0.0,0.0
1.6951621648636795e+18,-2.0,-1.0,0.0,0.0,-1.0,-1.0,-1.0,-2.0
1.6951621648646794e+18,0.0,-1.0,0.0,0.0,0.0,0.0,0.0,0.0
1.6951621648646794e+18,0.0,1.0,-1.0,0.0,0.0,-1.0,1.0,-1.0
1.6951621648676787e+18,-1.0,-1.0,-1.0,-1.0,-2.0,-1.0,-1.0,0.0
1.6951621648676787e+18,0.0,0.0,1.0,-1.0,-1.0,1.0,-1.0,-1.0
1.695162164868677e+18,1.0,0.0,-1.0,-2.0,0.0,-2.0,-1.0,0.0
1.695162164868677e+18,0.0,-4.0,-3.0,1.0,-2.0,-1.0,-1.0,-2.0
1.695162164868677e+18,-1.0,0.0,0.0,-1.0,1.0,-1.0,0.0,0.0
1.695162164869679e+18,0.0,-1.0,0.0,0.0,-1.0,1.0,-1.0,-1.0
1.6951621648766743e+18,0.0,-1.0,-2.0,0.0,-1.0,1.0,0.0,-2.0
1.6951621648766743e+18,-2.0,1.0,-1.0,-1.0,0.0,0.0,-1.0,-1.0
1.695162164894665e+18,1.0,-1.0,-2.0,-1.0,-1.0,0.0,-1.0,-1.0
1.6951621648956646e+18,-1.0,0.0,-1.0,-2.0,-1.0,-3.0,-1.0,-1.0
1.6951621649186473e+18,-1.0,0.0,0.0,0.0,0.0,-1.0,-1.0,-2.0
1.6951621649186473e+18,0.0,1.0,1.0,0.0,2.0,-3.0,1.0,1.0
1.695162164919647e+18,-1.0,0.0,0.0,-1.0,-2.0,1.0,-1.0,-2.0
1.695162164919647e+18,-2.0,-1.0,-1.0,-1.0,-1.0,-2.0,-1.0,0.0
1.6951621649326403e+18,-1.0,0.0,-1.0,0.0,-3.0,-1.0,-1.0,-1.0
1.6951621649326403e+18,0.0,-1.0,0.0,1.0,-1.0,-1.0,-2.0,0.0
1.6951621649326403e+18,-1.0,0.0,-1.0,-1.0,-1.0,-1.0,-2.0,-1.0
1.6951621649326403e+18,1.0,-1.0,-2.0,-2.0,-1.0,1.0,0.0,0.0
1.6951621649406372e+18,-1.0,-1.0,1.0,-1.0,0.0,0.0,0.0,0.0
1.6951621649406372e+18,0.0,0.0,-2.0,-2.0,-1.0,-2.0,0.0,-2.0
1.6951621649556268e+18,0.0,-2.0,-1.0,0.0,-1.0,-1.0,-1.0,0.0
1.6951621649556268e+18,-1.0,-2.0,0.0,0.0,-1.0,0.0,0.0,-1.0
1.6951621649726177e+18,-1.0,-2.0,0.0,0.0,-3.0,-1.0,0.0,-2.0
1.6951621649726177e+18,-2.0,-1.0,-1.0,0.0,0.0,0.0,0.0,-1.0
1.6951621649746163e+18,-1.0,0.0,-1.0,0.0,1.0,-1.0,-1.0,-2.0
1.6951621649746163e+18,0.0,0.0,0.0,0.0,0.0,-1.0,0.0,0.0
1.69516216498661e+18,-1.0,-1.0,-2.0,-1.0,-1.0,0.0,-3.0,-1.0
1.69516216498661e+18,0.0,0.0,1.0,-2.0,-2.0,0.0,-1.0,-2.0
1.6951621649886085e+18,0.0,-1.0,0.0,1.0,-1.0,0.0,-2.0,-3.0
1.6951621649886085e+18,1.0,0.0,-1.0,-1.0,-1.0,-1.0,0.0,-1.0
1.695162165026586e+18,-1.0,-2.0,-1.0,-1.0,-1.0,0.0,-1.0,0.0
1.695162165026586e+18,0.0,1.0,-1.0,0.0,-1.0,0.0,-2.0,1.0
1.695162165026586e+18,-1.0,-1.0,-1.0,0.0,-2.0,-1.0,-1.0,-1.0
1.695162165026586e+18,-1.0,-1.0,-2.0,0.0,-3.0,-1.0,-3.0,0.0
1.695162165027587e+18,0.0,0.0,0.0,1.0,0.0,-1.0,-1.0,-1.0
1.695162165027587e+18,-1.0,-1.0,-2.0,-2.0,2.0,-1.0,-2.0,-1.0
1.6951621650305843e+18,-2.0,-2.0,-2.0,-1.0,0.0,0.0,-1.0,0.0
1.6951621650305843e+18,-1.0,1.0,0.0,0.0,-2.0,0.0,1.0,0.0
1.6951621650365798e+18,-2.0,1.0,-3.0,-1.0,0.0,-2.0,-1.0,1.0
1.695162165037586e+18,-1.0,-1.0,0.0,-2.0,-2.0,-3.0,-1.0,-2.0
1.6951621650445788e+18,0.0,0.0,0.0,-2.0,-1.0,-1.0,-1.0,-2.0
1.6951621650455828e+18,-1.0,-1.0,1.0,0.0,-1.0,-1.0,-3.0,-2.0
1.6951621650535703e+18,-1.0,-1.0,-1.0,-2.0,-2.0,-1.0,-1.0,-3.0
1.6951621650535703e+18,0.0,-2.0,-3.0,1.0,-5.0,-2.0,0.0,-4.0
1.6951621650675684e+18,-2.0,-2.0,-3.0,-2.0,-2.0,-3.0,-3.0,-1.0
1.6951621650675684e+18,-1.0,-2.0,-2.0,-1.0,0.0,-2.0,-1.0,-1.0
1.695162165083577e+18,-2.0,-2.0,-3.0,-1.0,0.0,-1.0,-2.0,-2.0
1.695162165083577e+18,-3.0,-3.0,-1.0,0.0,-2.0,-1.0,0.0,0.0
1.6951621650895744e+18,-2.0,-1.0,-1.0,-2.0,-1.0,0.0,-2.0,-1.0
1.6951621650895744e+18,-3.0,-2.0,-4.0,0.0,0.0,-3.0,-1.0,-2.0
1.695162165103542e+18,-1.0,-2.0,-1.0,-1.0,-1.0,-1.0,-2.0,-1.0
1.695162165103542e+18,1.0,-1.0,-1.0,-2.0,0.0,-1.0,-1.0,-2.0
1.6951621651135393e+18,-1.0,-3.0,-1.0,0.0,-1.0,-2.0,0.0,-1.0
1.6951621651135393e+18,-1.0,0.0,-2.0,-2.0,-1.0,-1.0,0.0,0.0
1.6951621651145357e+18,-1.0,-1.0,1.0,-2.0,-1.0,0.0,0.0,-1.0
1.695162165115538e+18,-1.0,0.0,-2.0,-1.0,0.0,-2.0,-2.0,-1.0
1.695162165141521e+18,-1.0,-1.0,-2.0,2.0,-1.0,-2.0,1.0,-1.0
1.695162165141521e+18,1.0,-1.0,-1.0,-1.0,-1.0,0.0,-2.0,-4.0
1.695162165141521e+18,-1.0,0.0,-3.0,0.0,-1.0,-1.0,1.0,-2.0
1.6951621651425226e+18,-2.0,-1.0,1.0,0.0,0.0,1.0,-1.0,-1.0
1.6951621651495155e+18,-1.0,0.0,-1.0,1.0,-2.0,1.0,0.0,0.0
1.6951621651495155e+18,-1.0,-1.0,0.0,-1.0,-1.0,-1.0,0.0,1.0
1.695162165158511e+18,-2.0,0.0,-2.0,0.0,-1.0,-1.0,0.0,-1.0
1.695162165158511e+18,-1.0,-2.0,-1.0,0.0,-2.0,-1.0,-1.0,-2.0
1.6951621651735025e+18,-2.0,1.0,-1.0,-1.0,-1.0,-1.0,-1.0,0.0
1.6951621651735025e+18,-1.0,0.0,-2.0,0.0,-2.0,-1.0,-2.0,0.0
1.6951621651755018e+18,0.0,-1.0,2.0,0.0,0.0,-1.0,-1.0,0.0
1.6951621651755018e+18,0.0,0.0,-2.0,0.0,-1.0,0.0,-1.0,-2.0
1.695162165195513e+18,1.0,-1.0,-1.0,-2.0,-1.0,-2.0,-2.0,-2.0
1.6951621651964897e+18,1.0,-2.0,0.0,-2.0,-2.0,-1.0,-1.0,-2.0
1.6951621651974922e+18,0.0,-1.0,-1.0,0.0,0.0,-1.0,4.0,3.0
1.6951621651974922e+18,0.0,0.0,-1.0,-1.0,3.0,2.0,4.0,2.0
1.6951621652094807e+18,-1.0,-1.0,0.0,1.0,2.0,3.0,2.0,2.0
1.6951621652094807e+18,1.0,2.0,0.0,0.0,1.0,2.0,1.0,-1.0
1.6951621652184822e+18,2.0,0.0,-1.0,-1.0,-1.0,0.0,0.0,-1.0
1.6951621652184822e+18,1.0,1.0,1.0,-2.0,1.0,0.0,-2.0,1.0
1.6951621652334676e+18,2.0,0.0,-1.0,-1.0,0.0,1.0,-1.0,0.0
1.6951621652334676e+18,-2.0,-1.0,0.0,-1.0,0.0,0.0,0.0,1.0
1.6951621652354693e+18,-3.0,1.0,1.0,0.0,-2.0,2.0,-2.0,1.0
1.6951621652354693e+18,-2.0,-1.0,0.0,-2.0,-2.0,0.0,-1.0,0.0
1.695162165255455e+18,-1.0,1.0,0.0,-1.0,1.0,0.0,0.0,-2.0
1.695162165255455e+18,1.0,-2.0,0.0,0.0,1.0,-1.0,1.0,-1.0
1.6951621652684723e+18,-1.0,-1.0,-2.0,-2.0,-2.0,-1.0,-1.0,-2.0
1.6951621652684723e+18,0.0,-1.0,0.0,0.0,-1.0,-2.0,0.0,-1.0
1.6951621652694723e+18,0.0,0.0,0.0,-1.0,-1.0,0.0,-2.0,-1.0
1.6951621652694723e+18,0.0,0.0,0.0,-2.0,-1.0,0.0,-1.0,0.0
1.6951621652864397e+18,-1.0,0.0,1.0,-2.0,1.0,-2.0,-1.0,-2.0
1.6951621652864397e+18,-2.0,-1.0,-1.0,1.0,0.0,0.0,0.0,0.0
1.6951621652934572e+18,0.0,-2.0,0.0,0.0,-1.0,0.0,-1.0,-1.0
1.6951621652934572e+18,1.0,-1.0,0.0,-1.0,-1.0,-1.0,0.0,0.0
1.695162165294433e+18,2.0,-1.0,0.0,0.0,-1.0,0.0,1.0,-2.0
1.6951621652954337e+18,-2.0,1.0,-1.0,-2.0,-1.0,0.0,-2.0,-1.0
1.6951621653154227e+18,0.0,0.0,0.0,-1.0,-2.0,-1.0,0.0,0.0
1.6951621653164308e+18,-1.0,-1.0,-2.0,1.0,0.0,0.0,1.0,0.0
1.6951621653224207e+18,1.0,0.0,-1.0,-1.0,1.0,-1.0,-1.0,0.0
1.6951621653224207e+18,0.0,-1.0,0.0,-1.0,0.0,-3.0,-1.0,-2.0
1.695162165356398e+18,-1.0,-1.0,0.0,-3.0,-2.0,0.0,0.0,-2.0
1.695162165356398e+18,0.0,0.0,-1.0,-1.0,1.0,0.0,-1.0,-1.0
1.695162165356398e+18,0.0,-2.0,-1.0,0.0,0.0,0.0,-2.0,-3.0
1.695162165356398e+18,0.0,-2.0,0.0,1.0,-3.0,-1.0,0.0,-1.0
1.695162165356398e+18,0.0,-2.0,-1.0,1.0,-1.0,-2.0,-1.0,-1.0
1.695162165356398e+18,0.0,-1.0,-2.0,1.0,-3.0,-1.0,-2.0,0.0
1.695162165364395e+18,-2.0,-1.0,-2.0,0.0,1.0,1.0,-1.0,-1.0
1.695162165364395e+18,-1.0,-1.0,-2.0,0.0,0.0,-1.0,-1.0,-2.0
1.6951621653763858e+18,0.0,-1.0,-1.0,-1.0,0.0,-2.0,-1.0,0.0
1.6951621653763858e+18,-1.0,-1.0,0.0,-2.0,-1.0,1.0,0.0,0.0
1.6951621653773883e+18,0.0,1.0,-1.0,0.0,0.0,1.0,0.0,0.0
1.6951621653773883e+18,-2.0,-1.0,0.0,-4.0,-1.0,0.0,-2.0,0.0
1.6951621653983729e+18,-2.0,-1.0,0.0,0.0,-2.0,-1.0,-1.0,0.0
1.6951621653983729e+18,-1.0,0.0,-3.0,-1.0,-2.0,-1.0,-1.0,-1.0
1.6951621653993728e+18,-1.0,0.0,-1.0,0.0,-2.0,-1.0,0.0,2.0
1.6951621654003722e+18,-2.0,0.0,0.0,0.0,0.0,0.0,0.0,-1.0
1.695162165413366e+18,-1.0,0.0,0.0,0.0,2.0,1.0,0.0,-1.0
1.695162165413366e+18,-2.0,-2.0,0.0,0.0,-1.0,-2.0,1.0,-2.0
1.6951621654153636e+18,-1.0,-2.0,0.0,-1.0,-1.0,0.0,-2.0,-3.0
1.6951621654153636e+18,1.0,-2.0,-1.0,0.0,-2.0,1.0,-1.0,-2.0
1.6951621654363622e+18,-1.0,-2.0,-2.0,-1.0,-2.0,0.0,-3.0,-2.0
1.6951621654363622e+18,1.0,-1.0,1.0,-1.0,-1.0,-1.0,-2.0,-5.0
1.695162165437354e+18,-1.0,-3.0,-4.0,-2.0,-3.0,-2.0,-3.0,-1.0
1.695162165438354e+18,-1.0,-2.0,-2.0,-2.0,-2.0,0.0,-1.0,0.0
1.695162165458338e+18,-1.0,-1.0,-3.0,-1.0,-1.0,-1.0,0.0,-1.0
1.695162165458338e+18,-3.0,-2.0,-3.0,-2.0,-1.0,-3.0,0.0,-1.0
1.6951621654603374e+18,-3.0,-1.0,-2.0,0.0,-2.0,-4.0,-1.0,-2.0
1.6951621654603374e+18,-2.0,-1.0,-1.0,0.0,-1.0,-2.0,-3.0,-2.0
1.6951621654723333e+18,-1.0,1.0,-3.0,1.0,-2.0,0.0,0.0,-1.0
1.695162165473333e+18,-1.0,-2.0,0.0,-1.0,-1.0,-2.0,0.0,-1.0
1.6951621654793505e+18,0.0,-1.0,-2.0,-2.0,-2.0,-2.0,-2.0,1.0
1.6951621654793505e+18,-1.0,-2.0,-3.0,-2.0,-1.0,1.0,0.0,-2.0
1.69516216549632e+18,-1.0,-2.0,-3.0,-2.0,-3.0,-1.0,-3.0,-1.0
1.69516216549632e+18,-3.0,-2.0,-2.0,-2.0,-4.0,-2.0,-2.0,-1.0
1.6951621654973404e+18,-2.0,-2.0,-2.0,-3.0,-6.0,-3.0,-3.0,-2.0
1.6951621654973404e+18,-1.0,0.0,0.0,9.0,7.0,-2.0,-2.0,-4.0
1.6951621655282998e+18,-1.0,0.0,2.0,-6.0,-9.0,-4.0,0.0,0.0
1.6951621655293025e+18,0.0,-1.0,-3.0,6.0,15.0,5.0,-2.0,1.0
1.6951621655293025e+18,0.0,0.0,0.0,-3.0,-4.0,0.0,1.0,0.0
1.6951621655303007e+18,-1.0,-2.0,-1.0,-2.0,-3.0,-3.0,-2.0,-2.0
1.6951621655322995e+18,-2.0,-3.0,-4.0,-3.0,-2.0,-1.0,-1.0,-2.0
1.6951621655332959e+18,-3.0,0.0,0.0,-3.0,-6.0,-2.0,-3.0,-2.0
1.6951621655472883e+18,-2.0,-1.0,-1.0,-2.0,-2.0,-3.0,0.0,-1.0
1.6951621655472883e+18,-1.0,-3.0,-4.0,-4.0,-2.0,0.0,0.0,-1.0
1.6951621655802708e+18,-1.0,-2.0,2.0,1.0,-1.0,0.0,-2.0,-2.0
1.6951621655802708e+18,-1.0,-1.0,0.0,-1.0,-3.0,1.0,0.0,-1.0
1.6951621655812925e+18,-1.0,0.0,0.0,2.0,2.0,0.0,-2.0,-1.0
1.6951621655812925e+18,0.0,1.0,-1.0,-3.0,-4.0,-2.0,-1.0,-2.0
1.6951621655822717e+18,-1.0,0.0,-2.0,1.0,0.0,-2.0,-1.0,-2.0
1.6951621655822717e+18,0.0,0.0,0.0,-2.0,3.0,4.0,3.0,1.0
1.6951621655862682e+18,-1.0,-2.0,0.0,3.0,4.0,5.0,1.0,0.0
1.6951621655862682e+18,0.0,-2.0,1.0,0.0,-2.0,1.0,0.0,4.0
1.695162165592262e+18,0.0,1.0,0.0,-3.0,0.0,-1.0,-2.0,-2.0
1.695162165592262e+18,2.0,2.0,0.0,-4.0,-3.0,-2.0,-2.0,1.0
1.6951621656082552e+18,0.0,0.0,3.0,2.0,4.0,0.0,0.0,-1.0
1.6951621656092544e+18,0.0,1.0,1.0,1.0,-1.0,0.0,-1.0,-1.0
1.6951621656232468e+18,0.0,-2.0,-1.0,1.0,2.0,2.0,2.0,-1.0
1.695162165624249e+18,-2.0,0.0,-2.0,-3.0,-8.0,-2.0,-1.0,0.0
1.6951621656252442e+18,-1.0,-1.0,-2.0,-2.0,0.0,-5.0,-1.0,-1.0
1.6951621656252442e+18,1.0,-1.0,1.0,-10.0,-6.0,0.0,-1.0,0.0
1.695162165639236e+18,0.0,1.0,-1.0,6.0,1.0,-1.0,-1.0,2.0
1.6951621656402355e+18,0.0,-1.0,1.0,-4.0,3.0,3.0,-1.0,-1.0
1.6951621656402355e+18,0.0,1.0,2.0,0.0,1.0,4.0,1.0,-1.0
1.6951621656412347e+18,-3.0,2.0,-1.0,0.0,-2.0,0.0,-1.0,-3.0
1.6951621656562258e+18,0.0,1.0,-2.0,-4.0,2.0,-3.0,-2.0,-3.0
1.6951621656572265e+18,1.0,-2.0,-3.0,-2.0,-7.0,-13.0,-3.0,-2.0
1.6951621656612232e+18,-1.0,1.0,-1.0,3.0,-4.0,10.0,1.0,-2.0
1.6951621656612232e+18,0.0,-1.0,1.0,1.0,6.0,5.0,5.0,1.0
1.695162165676215e+18,0.0,0.0,0.0,-7.0,-2.0,2.0,-1.0,0.0
1.695162165676215e+18,-1.0,-2.0,-1.0,0.0,-6.0,-4.0,-4.0,-2.0
1.695162165677216e+18,0.0,-1.0,-2.0,6.0,8.0,-4.0,-1.0,0.0
1.6951621656782162e+18,-1.0,-2.0,-1.0,1.0,-1.0,2.0,-1.0,-2.0
1.6951621656982026e+18,0.0,-2.0,0.0,0.0,-5.0,-8.0,2.0,0.0
1.6951621656992087e+18,-3.0,-2.0,-2.0,1.0,14.0,8.0,2.0,-1.0
1.6951621657002025e+18,-1.0,0.0,-1.0,-4.0,-1.0,-2.0,0.0,0.0
1.6951621657002025e+18,0.0,0.0,0.0,2.0,-1.0,1.0,0.0,-1.0
1.6951621657121935e+18,-2.0,-1.0,-1.0,-2.0,-4.0,-2.0,0.0,0.0
1.6951621657121935e+18,-2.0,0.0,-1.0,0.0,-4.0,-2.0,-1.0,-2.0
1.6951621657221885e+18,-3.0,-1.0,-1.0,-4.0,-4.0,-3.0,-2.0,-1.0
1.6951621657221885e+18,-1.0,-1.0,-1.0,-2.0,1.0,-3.0,0.0,0.0
1.6951621657361805e+18,-1.0,0.0,-1.0,0.0,-5.0,-3.0,-3.0,0.0
1.6951621657361805e+18,1.0,-1.0,0.0,-4.0,-3.0,1.0,-2.0,-1.0
1.6951621657401787e+18,-1.0,-3.0,0.0,5.0,4.0,1.0,-1.0,0.0
1.6951621657401787e+18,1.0,1.0,-3.0,-6.0,-6.0,-11.0,-1.0,0.0
1.6951621657681626e+18,-3.0,0.0,3.0,-1.0,-3.0,7.0,2.0,-2.0
1.6951621657681626e+18,1.0,2.0,1.0,3.0,5.0,11.0,3.0,2.0
1.6951621657681626e+18,-1.0,-1.0,-1.0,-3.0,-5.0,-11.0,-3.0,-1.0
1.6951621657691622e+18,-3.0,-2.0,-2.0,-1.0,0.0,4.0,-2.0,-1.0
1.6951621657731592e+18,-1.0,0.0,-2.0,-4.0,0.0,1.0,-1.0,-2.0
1.6951621657731592e+18,0.0,-2.0,-3.0,-4.0,-7.0,-4.0,-1.0,1.0
1.6951621657811584e+18,-1.0,-1.0,-2.0,-6.0,-12.0,-5.0,-5.0,-2.0
1.6951621657811584e+18,0.0,0.0,-5.0,-6.0,-6.0,-7.0,1.0,0.0
1.6951621657971466e+18,0.0,0.0,0.0,8.0,18.0,10.0,2.0,1.0
1.6951621657971466e+18,-3.0,0.0,6.0,1.0,-8.0,-3.0,-3.0,-4.0
1.695162165798145e+18,2.0,0.0,-4.0,-3.0,-1.0,-3.0,-6.0,0.0
1.695162165798145e+18,-4.0,-3.0,7.0,7.0,-2.0,-4.0,0.0,-5.0
1.6951621658181335e+18,-2.0,-5.0,-4.0,-2.0,1.0,2.0,2.0,0.0
1.695162165819133e+18,-1.0,0.0,0.0,6.0,4.0,-2.0,4.0,-1.0
1.6951621658231304e+18,0.0,-1.0,-2.0,-8.0,-12.0,-9.0,-16.0,-3.0
1.6951621658231304e+18,2.0,1.0,9.0,10.0,6.0,7.0,-1.0,3.0
1.695162165834124e+18,-2.0,0.0,0.0,-2.0,-1.0,-2.0,-3.0,-1.0
1.6951621658421197e+18,2.0,2.0,-3.0,1.0,6.0,9.0,8.0,4.0
1.6951621658431204e+18,-5.0,-5.0,-6.0,-5.0,-9.0,-1.0,-5.0,-4.0
1.6951621658431204e+18,1.0,-1.0,-5.0,-1.0,16.0,5.0,-1.0,-1.0
1.695162165856111e+18,-3.0,-7.0,-4.0,-1.0,-13.0,-10.0,-3.0,1.0
1.695162165856111e+18,1.0,4.0,3.0,15.0,21.0,-6.0,-2.0,-1.0
1.6951621658571113e+18,-1.0,3.0,12.0,3.0,-2.0,9.0,6.0,2.0
1.6951621658581102e+18,0.0,-3.0,-5.0,-3.0,-2.0,-1.0,-10.0,-3.0
1.6951621658790991e+18,0.0,-3.0,-2.0,8.0,8.0,-3.0,3.0,-1.0
1.6951621658810972e+18,0.0,-4.0,-7.0,-19.0,-20.0,-14.0,-22.0,-3.0
1.6951621658810972e+18,1.0,1.0,1.0,-5.0,-3.0,0.0,15.0,1.0
1.695162165882097e+18,1.0,5.0,-1.0,-12.0,-10.0,1.0,16.0,2.0
1.6951621659010867e+18,-1.0,7.0,10.0,15.0,19.0,7.0,-12.0,-7.0
1.6951621659010867e+18,-3.0,-5.0,-12.0,-8.0,-17.0,-7.0,19.0,5.0
1.695162165902085e+18,-5.0,-4.0,1.0,0.0,9.0,-15.0,-22.0,-12.0
1.695162165902085e+18,0.0,3.0,1.0,0.0,11.0,26.0,13.0,5.0
1.6951621659160768e+18,0.0,-2.0,-5.0,-3.0,-5.0,0.0,14.0,4.0
1.6951621659160768e+18,-1.0,0.0,1.0,-4.0,1.0,6.0,-12.0,0.0
1.6951621659170765e+18,2.0,5.0,4.0,8.0,-11.0,-11.0,0.0,4.0
1.6951621659180787e+18,-1.0,-5.0,-5.0,-4.0,6.0,-3.0,-9.0,-3.0
1.6951621659390638e+18,1.0,-1.0,1.0,1.0,-2.0,4.0,5.0,1.0
1.6951621659400627e+18,-3.0,-6.0,-10.0,-6.0,-4.0,-5.0,-10.0,-5.0
1.6951621659400627e+18,-4.0,-7.0,-17.0,-32.0,-12.0,-8.0,2.0,0.0
1.6951621659410627e+18,0.0,7.0,2.0,0.0,-6.0,-10.0,-5.0,-2.0
1.695162165953059e+18,0.0,-3.0,4.0,13.0,14.0,12.0,-12.0,-1.0
1.695162165953059e+18,2.0,8.0,6.0,11.0,-3.0,-5.0,-9.0,-4.0
1.6951621659950316e+18,-2.0,-6.0,-5.0,-6.0,22.0,23.0,31.0,2.0
1.6951621659970296e+18,0.0,-1.0,0.0,21.0,1.0,-13.0,3.0,5.0
1.6951621659980293e+18,-5.0,-4.0,-6.0,-24.0,-12.0,1.0,-3.0,-2.0
1.6951621659980293e+18,3.0,5.0,3.0,9.0,9.0,10.0,3.0,1.0
1.6951621660300114e+18,-2.0,-3.0,1.0,0.0,-4.0,-10.0,-21.0,-4.0
1.6951621660300114e+18,1.0,2.0,1.0,3.0,-5.0,-3.0,4.0,0.0
1.6951621660300114e+18,-1.0,0.0,-1.0,-3.0,5.0,-5.0,-9.0,-4.0
1.6951621660310136e+18,1.0,-1.0,3.0,-5.0,-1.0,5.0,31.0,3.0
1.6951621660320108e+18,-1.0,0.0,-14.0,-12.0,-8.0,0.0,2.0,2.0
1.6951621660320108e+18,-2.0,-5.0,-4.0,-8.0,-12.0,-6.0,-14.0,-1.0
1.695162166042005e+18,1.0,3.0,3.0,2.0,-9.0,-6.0,-1.0,-1.0
1.6951621660430075e+18,-2.0,-3.0,-7.0,-1.0,3.0,0.0,-8.0,-3.0
1.695162166053001e+18,0.0,-2.0,0.0,-1.0,2.0,-3.0,-10.0,-5.0
1.695162166053001e+18,-1.0,1.0,-3.0,-2.0,11.0,7.0,6.0,-2.0
1.695162166053998e+18,1.0,-1.0,11.0,7.0,-12.0,-3.0,3.0,0.0
1.695162166053998e+18,-2.0,-3.0,-3.0,0.0,-1.0,-7.0,-11.0,-2.0
1.695162166065991e+18,1.0,5.0,17.0,29.0,8.0,15.0,16.0,4.0
1.695162166065991e+18,-2.0,-2.0,-8.0,-12.0,6.0,-3.0,-9.0,-2.0
1.695162166065991e+18,-1.0,-3.0,-7.0,-19.0,-12.0,-6.0,-1.0,-1.0
1.6951621660669908e+18,0.0,-6.0,10.0,11.0,0.0,0.0,4.0,-2.0
1.695162166083008e+18,2.0,5.0,3.0,17.0,2.0,-10.0,-39.0,-10.0
1.6951621660839818e+18,1.0,15.0,-8.0,-5.0,-8.0,7.0,48.0,8.0
1.6951621660839818e+18,-1.0,-8.0,0.0,2.0,2.0,2.0,5.0,4.0
1.6951621660839818e+18,-5.0,-4.0,-1.0,-14.0,-19.0,-10.0,-16.0,-9.0
1.6951621661179617e+18,0.0,-2.0,8.0,10.0,13.0,10.0,19.0,6.0
1.6951621661189612e+18,1.0,-11.0,-4.0,1.0,6.0,1.0,-4.0,-4.0
1.6951621661629453e+18,2.0,3.0,-4.0,-7.0,-13.0,-5.0,7.0,3.0
1.6951621661629453e+18,2.0,6.0,-10.0,-17.0,-1.0,-3.0,-3.0,-1.0
1.695162166231897e+18,-2.0,-5.0,19.0,27.0,16.0,12.0,8.0,3.0
1.6951621662328996e+18,-4.0,-1.0,-2.0,-10.0,-12.0,-15.0,-15.0,-3.0
1.6951621662328996e+18,-3.0,2.0,-5.0,0.0,0.0,-4.0,-5.0,-6.0
1.6951621662328996e+18,-1.0,-5.0,4.0,0.0,4.0,10.0,0.0,3.0
1.695162166234894e+18,3.0,6.0,-12.0,-18.0,-9.0,-8.0,-2.0,-2.0
1.695162166234894e+18,-3.0,-9.0,6.0,7.0,7.0,2.0,-8.0,-2.0
1.695162166256882e+18,0.0,1.0,0.0,-2.0,3.0,-1.0,-3.0,-4.0
1.695162166256882e+18,1.0,-4.0,-1.0,2.0,0.0,2.0,-4.0,2.0
1.695162166256882e+18,-3.0,-2.0,0.0,0.0,5.0,0.0,3.0,1.0
1.695162166256882e+18,0.0,2.0,-9.0,-11.0,-1.0,5.0,5.0,-1.0
1.6951621662678753e+18,-1.0,2.0,-3.0,-5.0,-8.0,-4.0,-5.0,4.0
1.695162166268877e+18,2.0,15.0,1.0,9.0,6.0,3.0,7.0,1.0
1.6951621663078523e+18,2.0,1.0,-1.0,-2.0,5.0,11.0,19.0,5.0
1.6951621663078523e+18,3.0,4.0,3.0,1.0,-6.0,0.0,3.0,0.0
1.6951621663088532e+18,-2.0,-11.0,-9.0,-13.0,-3.0,-10.0,-8.0,-3.0
1.6951621663088532e+18,1.0,5.0,5.0,6.0,3.0,5.0,9.0,1.0
1.6951621663448346e+18,-5.0,3.0,-1.0,-2.0,4.0,7.0,5.0,-1.0
1.6951621663448346e+18,1.0,-8.0,11.0,9.0,-9.0,-13.0,-18.0,0.0
1.6951621663458314e+18,2.0,8.0,-2.0,0.0,-2.0,12.0,-4.0,0.0
1.6951621663458314e+18,0.0,1.0,1.0,0.0,3.0,1.0,10.0,1.0
1.6951621663458314e+18,-1.0,0.0,1.0,-1.0,4.0,-1.0,-5.0,-3.0
1.695162166346832e+18,-3.0,-6.0,-4.0,0.0,-2.0,-6.0,-3.0,-2.0
1.6951621663608223e+18,0.0,-2.0,5.0,0.0,1.0,-2.0,-1.0,0.0
1.6951621663648205e+18,2.0,6.0,-6.0,0.0,-10.0,-5.0,-8.0,-3.0
1.6951621664397793e+18,5.0,33.0,-8.0,-4.0,-4.0,-5.0,3.0,-2.0
1.6951621664397793e+18,-2.0,-13.0,3.0,0.0,3.0,-6.0,-4.0,0.0
1.695162166471759e+18,-3.0,-16.0,-15.0,-12.0,1.0,-1.0,-1.0,-1.0
1.695162166471759e+18,0.0,-4.0,-2.0,-1.0,2.0,-3.0,-13.0,-5.0
1.6951621665826964e+18,-1.0,4.0,12.0,-5.0,-6.0,-12.0,-9.0,-5.0
1.6951621665836966e+18,2.0,7.0,-24.0,-5.0,-2.0,1.0,38.0,-4.0
1.6951621665836966e+18,-3.0,-8.0,10.0,5.0,2.0,0.0,-10.0,-6.0
1.6951621665836966e+18,-5.0,-8.0,-16.0,-14.0,-12.0,-16.0,-71.0,9.0
1.6951621666656714e+18,1.0,-3.0,8.0,13.0,7.0,15.0,20.0,0.0
1.6951621666656714e+18,3.0,-2.0,12.0,7.0,-3.0,-11.0,8.0,-10.0
1.6951621666976297e+18,-2.0,-6.0,4.0,8.0,2.0,0.0,-2.0,4.0
1.6951621666976297e+18,2.0,8.0,-6.0,-7.0,-1.0,7.0,25.0,-6.0
1.6951621666996467e+18,-1.0,5.0,-2.0,-2.0,-4.0,-4.0,-10.0,0.0
1.6951621666996467e+18,-4.0,-8.0,4.0,6.0,3.0,4.0,-6.0,6.0
1.6951621666996467e+18,0.0,18.0,-21.0,-13.0,-12.0,-4.0,-1.0,-1.0
1.6951621666996467e+18,2.0,-6.0,-1.0,-2.0,18.0,5.0,5.0,-1.0
1.6951621667096236e+18,-3.0,-16.0,21.0,27.0,6.0,-1.0,2.0,3.0
1.6951621667106222e+18,-1.0,7.0,-10.0,-2.0,-9.0,-4.0,0.0,-3.0
1.6951621667196398e+18,-2.0,-8.0,2.0,6.0,2.0,0.0,1.0,-1.0
1.6951621667206193e+18,-1.0,2.0,-3.0,-6.0,-5.0,-1.0,-2.0,3.0
1.695162166721616e+18,1.0,-4.0,-2.0,-4.0,-1.0,-1.0,-1.0,-2.0
1.695162166721616e+18,0.0,-2.0,0.0,-3.0,-2.0,0.0,1.0,-2.0
1.6951621667266117e+18,1.0,4.0,0.0,3.0,-1.0,-2.0,-2.0,-2.0
1.6951621667266117e+18,0.0,-3.0,2.0,2.0,0.0,0.0,-2.0,0.0
1.6951621667276124e+18,-2.0,-8.0,-2.0,-3.0,1.0,-2.0,1.0,0.0
1.6951621667276124e+18,1.0,13.0,-3.0,0.0,-3.0,-2.0,-2.0,-4.0
1.6951621667286124e+18,-2.0,-15.0,0.0,2.0,2.0,1.0,2.0,2.0
1.695162166729613e+18,-1.0,-2.0,-3.0,-3.0,-1.0,-2.0,-1.0,-1.0
1.6951621667485998e+18,1.0,14.0,0.0,1.0,0.0,-1.0,-3.0,-2.0
1.6951621667485998e+18,-2.0,17.0,-10.0,-7.0,-3.0,-3.0,-1.0,-2.0
1.695162166749602e+18,-2.0,-13.0,1.0,1.0,0.0,0.0,-1.0,-1.0
1.695162166749602e+18,-3.0,-27.0,6.0,8.0,4.0,3.0,2.0,-1.0
1.6951621668545426e+18,2.0,-2.0,2.0,-1.0,-1.0,0.0,-2.0,0.0
1.6951621668555507e+18,0.0,1.0,-3.0,-2.0,-2.0,-1.0,1.0,-1.0
1.695162166856538e+18,0.0,2.0,-2.0,-2.0,-5.0,-3.0,-3.0,-2.0
1.695162166856538e+18,-1.0,8.0,-3.0,0.0,-2.0,1.0,-1.0,1.0
1.69516216685754e+18,-2.0,-10.0,1.0,3.0,4.0,-2.0,0.0,0.0
1.69516216685754e+18,-3.0,-11.0,4.0,1.0,2.0,2.0,1.0,2.0
1.6951621668845222e+18,-1.0,0.0,-2.0,-2.0,-1.0,-2.0,-1.0,-1.0
1.6951621668845222e+18,-1.0,1.0,-2.0,-1.0,-1.0,0.0,-2.0,-3.0
1.6951621668855212e+18,-3.0,-4.0,0.0,0.0,1.0,-1.0,-2.0,0.0
1.6951621668855212e+18,1.0,3.0,-3.0,-3.0,-2.0,0.0,-1.0,-1.0
1.6951621668875238e+18,0.0,-23.0,7.0,2.0,2.0,0.0,3.0,1.0
1.6951621668875238e+18,0.0,6.0,-3.0,-1.0,0.0,1.0,0.0,0.0
1.6951621669385065e+18,0.0,2.0,-2.0,-3.0,-3.0,-3.0,1.0,-2.0
1.6951621669385065e+18,-2.0,-7.0,-1.0,-2.0,-1.0,0.0,-2.0,0.0
1.6951621669385065e+18,-2.0,-6.0,-1.0,0.0,-1.0,-5.0,0.0,1.0
1.6951621669394975e+18,1.0,-3.0,-2.0,0.0,3.0,7.0,-1.0,-1.0
1.6951621669494866e+18,-2.0,6.0,-4.0,-4.0,-6.0,-4.0,-1.0,-2.0
1.6951621669504873e+18,-3.0,-5.0,3.0,2.0,-1.0,-3.0,-2.0,-1.0
1.6951621669784704e+18,-1.0,4.0,-1.0,-2.0,-1.0,2.0,0.0,-1.0
1.695162166979472e+18,-2.0,-5.0,-2.0,1.0,1.0,-1.0,-1.0,-2.0
1.695162166979472e+18,-1.0,-2.0,-2.0,-2.0,-3.0,11.0,0.0,0.0
1.695162166979472e+18,0.0,0.0,-1.0,0.0,-3.0,-4.0,-1.0,0.0
1.6951621669894856e+18,-1.0,-1.0,0.0,2.0,8.0,5.0,-1.0,2.0
1.6951621669894856e+18,1.0,2.0,-3.0,-2.0,-5.0,-3.0,-1.0,-1.0
1.6951621669904617e+18,-1.0,0.0,4.0,1.0,2.0,-4.0,-1.0,-1.0
1.6951621669904617e+18,-1.0,0.0,0.0,-1.0,-3.0,0.0,-1.0,0.0
1.695162166991463e+18,1.0,5.0,-4.0,-1.0,0.0,-2.0,-2.0,-2.0
1.695162166991463e+18,-1.0,-6.0,-4.0,1.0,-1.0,0.0,1.0,0.0
1.69516216699446e+18,-1.0,2.0,4.0,-2.0,0.0,-2.0,0.0,-1.0
1.69516216699446e+18,-1.0,-1.0,-13.0,-3.0,-2.0,-1.0,-1.0,-1.0
1.6951621670174456e+18,-3.0,-4.0,-6.0,-2.0,-1.0,-2.0,0.0,-1.0
1.6951621670174456e+18,-1.0,3.0,5.0,-3.0,-1.0,5.0,1.0,1.0
1.6951621670184453e+18,-1.0,-1.0,-7.0,1.0,-2.0,-4.0,-1.0,-1.0
1.6951621670184453e+18,-2.0,-9.0,2.0,-3.0,-3.0,-5.0,-2.0,-3.0
1.6951621670254408e+18,0.0,8.0,20.0,0.0,-2.0,0.0,-1.0,0.0
1.6951621670264522e+18,1.0,6.0,-22.0,0.0,4.0,5.0,-1.0,-2.0
1.6951621670274445e+18,-4.0,-16.0,-3.0,-2.0,-3.0,-2.0,-2.0,-2.0
1.6951621670274445e+18,-1.0,1.0,-2.0,-1.0,-1.0,1.0,-1.0,-1.0
1.6951621670394573e+18,-2.0,-6.0,-14.0,-2.0,-5.0,-13.0,-4.0,0.0
1.6951621670394573e+18,-1.0,3.0,24.0,0.0,3.0,2.0,-3.0,-1.0
1.6951621670494515e+18,1.0,-1.0,-8.0,5.0,10.0,13.0,7.0,0.0
1.6951621670494515e+18,0.0,2.0,-8.0,-7.0,-5.0,0.0,-1.0,-2.0
1.6951621670634437e+18,-1.0,-1.0,8.0,1.0,3.0,0.0,-2.0,1.0
1.6951621670634437e+18,0.0,-3.0,-4.0,-2.0,-7.0,-6.0,-1.0,0.0
1.6951621670654185e+18,-1.0,0.0,-10.0,-5.0,-5.0,-8.0,-5.0,0.0
1.6951621670654185e+18,0.0,4.0,16.0,2.0,-2.0,0.0,-1.0,1.0
1.695162167089429e+18,0.0,0.0,-1.0,0.0,-4.0,0.0,0.0,-1.0
1.695162167089429e+18,1.0,0.0,-1.0,1.0,4.0,3.0,2.0,-1.0
1.695162167089429e+18,2.0,-5.0,-6.0,1.0,0.0,-1.0,-1.0,-1.0
1.6951621670914038e+18,1.0,1.0,-11.0,-1.0,4.0,2.0,1.0,2.0
1.6951621670994232e+18,-2.0,0.0,2.0,-2.0,1.0,0.0,-2.0,-1.0
1.6951621670994232e+18,-3.0,-6.0,1.0,1.0,-4.0,-5.0,-1.0,1.0
1.6951621671254077e+18,0.0,4.0,9.0,-2.0,-5.0,-1.0,-1.0,0.0
1.6951621671254077e+18,0.0,-1.0,0.0,1.0,2.0,3.0,1.0,0.0
1.6951621671254077e+18,1.0,-6.0,-10.0,-3.0,0.0,-1.0,-2.0,1.0
1.695162167126384e+18,-1.0,-1.0,-3.0,-4.0,-2.0,-1.0,-2.0,-1.0
1.6951621671273859e+18,-1.0,6.0,11.0,1.0,0.0,-2.0,-1.0,0.0
1.6951621671273859e+18,0.0,-3.0,-11.0,-1.0,0.0,-1.0,0.0,-1.0
1.695162167146374e+18,-1.0,1.0,-4.0,0.0,-1.0,0.0,0.0,-2.0
1.695162167146374e+18,0.0,-1.0,-1.0,0.0,-1.0,-2.0,0.0,-3.0
1.695162167147395e+18,0.0,-1.0,3.0,-2.0,-2.0,-1.0,0.0,2.0
1.695162167147395e+18,-1.0,-2.0,-1.0,1.0,-1.0,0.0,0.0,1.0
1.6951621671603656e+18,0.0,-2.0,-1.0,-1.0,-1.0,1.0,1.0,-1.0
1.6951621671613673e+18,0.0,-3.0,0.0,-1.0,-1.0,-1.0,-1.0,-1.0
1.6951621671763548e+18,0.0,1.0,0.0,-1.0,-1.0,-1.0,-2.0,-3.0
1.6951621671763548e+18,-1.0,1.0,2.0,0.0,0.0,1.0,0.0,-2.0
1.6951621671923464e+18,0.0,-3.0,-2.0,-1.0,-1.0,0.0,0.0,0.0
1.6951621671923464e+18,-1.0,-2.0,-2.0,-1.0,-1.0,-1.0,-1.0,0.0
1.6951621671933601e+18,-1.0,0.0,0.0,-2.0,-4.0,-1.0,-1.0,-1.0
1.6951621671933601e+18,0.0,2.0,1.0,1.0,0.0,0.0,-1.0,-1.0
1.6951621672063432e+18,0.0,-2.0,-1.0,0.0,-1.0,-1.0,0.0,-3.0
1.6951621672063432e+18,0.0,-2.0,-3.0,0.0,-1.0,-1.0,-1.0,-2.0
1.6951621672133363e+18,-2.0,1.0,1.0,-1.0,1.0,-1.0,-1.0,-1.0
1.6951621672133363e+18,0.0,1.0,1.0,1.0,-1.0,0.0,0.0,-3.0
1.6951621672193347e+18,-2.0,-1.0,-2.0,-1.0,0.0,-1.0,-2.0,0.0
1.6951621672203305e+18,-2.0,0.0,-2.0,-1.0,-1.0,-1.0,-3.0,-1.0
1.695162167245318e+18,-1.0,0.0,0.0,-3.0,-2.0,-1.0,-1.0,-1.0
1.695162167245318e+18,-1.0,-1.0,-1.0,-2.0,0.0,-1.0,-1.0,0.0
1.6951621672463383e+18,-1.0,-1.0,-2.0,0.0,0.0,-1.0,-1.0,-1.0
1.6951621672463383e+18,-1.0,-1.0,-3.0,-1.0,0.0,-3.0,0.0,-1.0
1.6951621672493366e+18,0.0,0.0,0.0,0.0,-2.0,0.0,-1.0,0.0
1.695162167250313e+18,-1.0,0.0,0.0,0.0,0.0,-1.0,-1.0,-1.0
1.6951621672663058e+18,0.0,-1.0,1.0,-1.0,-2.0,0.0,0.0,-1.0
1.6951621672663058e+18,-1.0,0.0,0.0,-1.0,-1.0,-2.0,-1.0,0.0
1.6951621672673262e+18,-1.0,0.0,1.0,-2.0,-1.0,-2.0,-2.0,-2.0
1.6951621672673262e+18,-2.0,0.0,0.0,-2.0,-3.0,-2.0,-2.0,-1.0
1.6951621672793206e+18,-1.0,-1.0,-1.0,-1.0,1.0,0.0,-1.0,-1.0
1.6951621672802962e+18,0.0,-2.0,-1.0,-1.0,0.0,-1.0,-1.0,-1.0
1.6951621672882916e+18,-1.0,1.0,-1.0,-2.0,1.0,-1.0,0.0,0.0
1.6951621672882916e+18,0.0,0.0,0.0,0.0,2.0,-1.0,-2.0,-3.0
1.6951621673033152e+18,-2.0,-2.0,0.0,-2.0,-1.0,-1.0,-1.0,0.0
1.6951621673042824e+18,-1.0,-1.0,-1.0,-1.0,-1.0,-1.0,1.0,-2.0
1.6951621673052813e+18,-1.0,-1.0,-1.0,0.0,-2.0,0.0,-1.0,-1.0
1.6951621673052813e+18,0.0,-1.0,0.0,-1.0,-2.0,-1.0,-1.0,-1.0
1.695162167333579e+18,0.0,0.0,-2.0,-2.0,-1.0,-1.0,-2.0,0.0
1.695162167333579e+18,-1.0,-2.0,0.0,-1.0,1.0,0.0,-2.0,1.0
1.6951621673345777e+18,-1.0,-1.0,-1.0,2.0,0.0,-1.0,0.0,-1.0
1.695162167335579e+18,-1.0,-1.0,0.0,0.0,-1.0,-1.0,1.0,-1.0
1.6951621673396068e+18,1.0,-1.0,0.0,0.0,-2.0,-2.0,-1.0,0.0
1.6951621673396068e+18,-2.0,-1.0,0.0,-2.0,-2.0,-1.0,-1.0,0.0
1.6951621673488023e+18,-1.0,-1.0,-3.0,-1.0,-1.0,-2.0,-1.0,-1.0
1.6951621673488023e+18,0.0,-3.0,0.0,-1.0,-1.0,-1.0,-1.0,0.0
1.6951621673635822e+18,1.0,-1.0,0.0,0.0,0.0,0.0,0.0,0.0
1.695162167364583e+18,-1.0,-1.0,-1.0,0.0,-2.0,1.0,1.0,0.0
1.6951621673655808e+18,0.0,-2.0,-1.0,0.0,0.0,-2.0,-1.0,0.0
1.6951621673655808e+18,-2.0,0.0,0.0,-1.0,0.0,-2.0,-1.0,-1.0
1.6951621673865887e+18,-2.0,0.0,0.0,-2.0,-2.0,0.0,-1.0,-1.0
1.6951621673865887e+18,-2.0,-2.0,-1.0,-1.0,-1.0,-2.0,0.0,0.0
1.6951621673875814e+18,-1.0,0.0,-2.0,-1.0,-1.0,0.0,0.0,0.0
1.695162167388594e+18,-1.0,0.0,-1.0,-3.0,-2.0,0.0,0.0,-1.0
1.6951621673995794e+18,-3.0,-2.0,-2.0,-2.0,-2.0,-2.0,0.0,-1.0
1.695162167400607e+18,-2.0,-3.0,-2.0,1.0,0.0,0.0,0.0,-2.0
1.69516216740881e+18,-1.0,-2.0,-2.0,-1.0,-1.0,1.0,-1.0,-2.0
1.69516216740881e+18,-1.0,-1.0,-1.0,-1.0,0.0,-1.0,-1.0,-2.0
1.6951621674229947e+18,0.0,-1.0,-1.0,-1.0,0.0,0.0,0.0,0.0
1.695162167423994e+18,0.0,-2.0,0.0,0.0,0.0,0.0,0.0,1.0
1.6951621674300416e+18,-2.0,-2.0,1.0,-1.0,-1.0,-1.0,-3.0,0.0
1.6951621674300416e+18,-2.0,-1.0,-2.0,-1.0,-3.0,-1.0,-1.0,0.0
1.6951621674465795e+18,-1.0,-1.0,0.0,1.0,-2.0,1.0,0.0,-2.0
1.6951621674475786e+18,-2.0,-1.0,0.0,-1.0,-2.0,-2.0,0.0,0.0
1.6951621674475786e+18,1.0,0.0,0.0,-1.0,0.0,0.0,1.0,-1.0
1.6951621674485798e+18,0.0,-2.0,-1.0,0.0,0.0,0.0,-3.0,1.0
1.6951621674685711e+18,1.0,0.0,-2.0,-1.0,0.0,-2.0,-2.0,-2.0
1.6951621674695708e+18,-1.0,0.0,0.0,0.0,0.0,-1.0,0.0,-1.0
1.695162167470566e+18,-1.0,0.0,-1.0,-1.0,0.0,-1.0,-1.0,0.0
1.695162167471565e+18,0.0,-1.0,0.0,0.0,0.0,0.0,0.0,-2.0
1.6951621674835576e+18,-2.0,-1.0,-3.0,0.0,-1.0,0.0,-2.0,0.0
1.6951621674835576e+18,-1.0,-1.0,-3.0,0.0,0.0,-1.0,-1.0,0.0
1.6951621674905536e+18,0.0,0.0,0.0,0.0,0.0,-1.0,-1.0,0.0
1.6951621674905536e+18,0.0,-1.0,0.0,1.0,-1.0,1.0,-1.0,0.0
1.6951621675065772e+18,0.0,-1.0,-1.0,1.0,-1.0,-2.0,-2.0,-2.0
1.6951621675075763e+18,0.0,1.0,-2.0,-2.0,0.0,-2.0,-2.0,-3.0
1.6951621675085755e+18,-2.0,-2.0,0.0,-1.0,-2.0,-1.0,-2.0,-1.0
1.6951621675095846e+18,0.0,-1.0,-2.0,-2.0,1.0,1.0,0.0,-1.0
1.6951621675205696e+18,-1.0,2.0,0.0,0.0,1.0,0.0,0.0,1.0
1.6951621675215726e+18,0.0,0.0,-1.0,0.0,-1.0,0.0,-2.0,-1.0
1.695162167528565e+18,1.0,-1.0,-1.0,-1.0,-1.0,-2.0,-2.0,-3.0
1.6951621675295954e+18,1.0,-2.0,-1.0,0.0,-2.0,-2.0,0.0,-3.0
1.6951621675495537e+18,0.0,-2.0,0.0,-1.0,-1.0,-1.0,-1.0,-1.0
1.6951621675495537e+18,-2.0,-1.0,-2.0,-1.0,0.0,-1.0,0.0,-2.0
1.6951621675515853e+18,-1.0,-2.0,-1.0,0.0,0.0,-1.0,1.0,-1.0
1.6951621675515853e+18,-2.0,0.0,-2.0,-1.0,-2.0,-1.0,-1.0,-2.0
1.695162167566543e+18,-1.0,-1.0,-3.0,0.0,0.0,0.0,1.0,-3.0
1.695162167566543e+18,1.0,0.0,0.0,1.0,-2.0,-1.0,-2.0,1.0
1.695162167568548e+18,0.0,0.0,-1.0,0.0,0.0,-1.0,-2.0,-1.0
1.695162167568548e+18,0.0,-1.0,-1.0,-1.0,-1.0,0.0,-1.0,-1.0
1.6951621675805358e+18,1.0,-1.0,-2.0,0.0,-1.0,0.0,0.0,-1.0
1.6951621675805358e+18,-2.0,-1.0,-1.0,-1.0,1.0,-1.0,0.0,-2.0
1.69516216758953e+18,0.0,-1.0,1.0,-1.0,0.0,0.0,-2.0,-1.0
1.6951621675905288e+18,-2.0,-1.0,-2.0,-1.0,1.0,-3.0,-1.0,0.0
1.6951621676035218e+18,-1.0,-1.0,0.0,-1.0,-1.0,0.0,-1.0,0.0
1.6951621676045215e+18,-2.0,0.0,0.0,-2.0,-2.0,0.0,-1.0,-1.0
1.6951621676105185e+18,-1.0,0.0,-2.0,0.0,-1.0,-1.0,1.0,0.0
1.6951621676105185e+18,0.0,0.0,-2.0,0.0,0.0,-1.0,0.0,0.0
1.695162167633504e+18,0.0,-1.0,-2.0,-1.0,0.0,-1.0,-2.0,-1.0
1.695162167634504e+18,0.0,-1.0,0.0,-3.0,-1.0,-1.0,-1.0,-1.0
1.6951621676355039e+18,-2.0,-1.0,-1.0,-1.0,-3.0,-2.0,-1.0,1.0
1.6951621676355039e+18,0.0,0.0,0.0,-3.0,-2.0,1.0,0.0,-1.0
1.695162167640502e+18,-2.0,0.0,0.0,-1.0,-1.0,-1.0,1.0,0.0
1.695162167640502e+18,-1.0,1.0,2.0,-1.0,0.0,-2.0,-1.0,-1.0
1.6951621676565138e+18,0.0,-1.0,-1.0,1.0,-3.0,0.0,-2.0,-2.0
1.6951621676574907e+18,-1.0,-2.0,0.0,-1.0,-1.0,0.0,1.0,-1.0
1.6951621676704837e+18,-3.0,-1.0,0.0,-1.0,-2.0,-1.0,-3.0,2.0
1.695162167671482e+18,0.0,-1.0,-1.0,-1.0,-2.0,-1.0,-2.0,-2.0
1.69516216769447e+18,-2.0,-1.0,1.0,-1.0,1.0,-2.0,0.0,-1.0
1.6951621676954683e+18,-1.0,-1.0,1.0,-1.0,-1.0,-2.0,0.0,-1.0
1.6951621676954683e+18,0.0,-1.0,-3.0,-2.0,0.0,-2.0,1.0,0.0
1.6951621676954683e+18,0.0,0.0,0.0,-1.0,0.0,-1.0,0.0,-1.0
1.6951621676964705e+18,1.0,0.0,-2.0,-1.0,-2.0,-1.0,-2.0,0.0
1.6951621676974684e+18,0.0,0.0,-1.0,-1.0,-2.0,-2.0,-1.0,-1.0
1.6951621677084603e+18,-1.0,0.0,1.0,-1.0,-1.0,1.0,-2.0,0.0
1.6951621677084603e+18,0.0,-1.0,-1.0,0.0,-1.0,1.0,-1.0,1.0
1.6951621677104602e+18,-2.0,-1.0,0.0,-1.0,1.0,-1.0,-2.0,-1.0
1.6951621677104602e+18,-1.0,-1.0,-2.0,-1.0,1.0,0.0,1.0,0.0
1.695162167735469e+18,0.0,-1.0,-2.0,-2.0,-1.0,-2.0,0.0,-3.0
1.695162167735469e+18,-1.0,-1.0,-2.0,1.0,0.0,-1.0,0.0,-1.0
1.695162167735469e+18,-1.0,0.0,0.0,-1.0,-2.0,0.0,0.0,0.0
1.695162167735469e+18,0.0,0.0,0.0,-1.0,0.0,-2.0,-1.0,0.0
1.695162167746439e+18,-1.0,-1.0,1.0,-1.0,-1.0,-2.0,-1.0,0.0
1.695162167746439e+18,0.0,-2.0,1.0,0.0,-2.0,-1.0,-1.0,0.0
1.6951621677474388e+18,-1.0,0.0,-1.0,-2.0,-1.0,0.0,0.0,0.0
1.6951621677484426e+18,-1.0,-1.0,0.0,-2.0,-1.0,0.0,0.0,0.0
1.6951621677684508e+18,0.0,-1.0,0.0,1.0,0.0,0.0,-2.0,-1.0
1.6951621677684508e+18,-1.0,0.0,0.0,-1.0,0.0,-2.0,0.0,1.0
1.695162167770425e+18,-1.0,0.0,-1.0,-1.0,-1.0,-1.0,-2.0,-1.0
1.695162167770425e+18,-1.0,-1.0,-1.0,0.0,1.0,-2.0,-1.0,0.0
1.6951621677834186e+18,0.0,-2.0,-3.0,-2.0,-1.0,0.0,-1.0,-1.0
1.6951621677834186e+18,-1.0,-2.0,-1.0,-1.0,-1.0,-1.0,1.0,-1.0
1.695162167803407e+18,-2.0,-2.0,-1.0,-2.0,0.0,0.0,2.0,0.0
1.695162167809427e+18,-2.0,-1.0,0.0,-1.0,-1.0,0.0,-1.0,-3.0
1.695162167809427e+18,-1.0,-1.0,0.0,-3.0,-1.0,-2.0,0.0,-1.0
1.695162167809427e+18,-1.0,-1.0,0.0,0.0,-1.0,0.0,0.0,0.0
1.695162167809427e+18,0.0,-1.0,-1.0,0.0,-1.0,-2.0,-2.0,-1.0
1.695162167809427e+18,0.0,0.0,-1.0,0.0,-1.0,-2.0,-1.0,0.0
1.695162167827416e+18,-1.0,0.0,0.0,0.0,-1.0,-1.0,-1.0,-2.0
1.6951621678283927e+18,-1.0,0.0,0.0,-2.0,-1.0,0.0,0.0,-2.0
1.695162167844383e+18,-1.0,-1.0,0.0,-2.0,-2.0,-1.0,-1.0,0.0
1.6951621678453837e+18,-1.0,-1.0,0.0,0.0,0.0,-1.0,-1.0,1.0
1.6951621678453837e+18,0.0,0.0,-1.0,-1.0,0.0,-1.0,-1.0,-2.0
1.6951621678453837e+18,0.0,-1.0,-1.0,-2.0,-2.0,-1.0,-3.0,0.0
1.6951621678583795e+18,-1.0,0.0,-1.0,-2.0,-1.0,2.0,0.0,-3.0
1.6951621678583795e+18,0.0,-2.0,-1.0,1.0,-1.0,-1.0,-1.0,-1.0
1.6951621678663706e+18,-1.0,-1.0,0.0,0.0,-2.0,1.0,-1.0,1.0
1.6951621678663706e+18,1.0,-1.0,-1.0,-1.0,0.0,-2.0,-2.0,-1.0
1.6951621678673754e+18,1.0,-1.0,-1.0,0.0,1.0,-1.0,1.0,-1.0
1.6951621678683707e+18,0.0,0.0,-1.0,-1.0,-2.0,0.0,0.0,-1.0
1.6951621679048392e+18,-2.0,0.0,-2.0,0.0,-2.0,0.0,0.0,0.0
1.695162167907838e+18,-1.0,0.0,0.0,2.0,1.0,0.0,1.0,-1.0
1.695162167907838e+18,-2.0,-1.0,-1.0,1.0,1.0,-1.0,-1.0,0.0
1.6951621679088412e+18,-1.0,-1.0,-2.0,-1.0,-2.0,-2.0,1.0,-2.0
1.6951621679088412e+18,1.0,-1.0,-1.0,-1.0,0.0,-3.0,-1.0,1.0
1.6951621679088412e+18,-1.0,-1.0,-1.0,-3.0,-1.0,-1.0,-1.0,-1.0
1.6951621679118356e+18,0.0,0.0,0.0,-1.0,0.0,-2.0,0.0,0.0
1.6951621679118356e+18,-1.0,-1.0,-2.0,-1.0,0.0,0.0,-2.0,-1.0
1.6951621679268255e+18,-1.0,-1.0,0.0,0.0,-1.0,-1.0,-2.0,-1.0
1.6951621679268255e+18,-2.0,-1.0,-2.0,-2.0,-1.0,0.0,-2.0,0.0
1.6951621679288256e+18,0.0,1.0,0.0,-2.0,-1.0,-2.0,0.0,-3.0
1.6951621679288256e+18,-1.0,1.0,1.0,0.0,-1.0,1.0,0.0,-2.0
1.6951621679558154e+18,0.0,-1.0,0.0,0.0,0.0,-2.0,0.0,-2.0
1.6951621679568097e+18,-3.0,-2.0,0.0,0.0,-2.0,0.0,0.0,-2.0
1.695162167957809e+18,-2.0,0.0,-1.0,0.0,-2.0,-1.0,1.0,0.0
1.695162167957809e+18,0.0,0.0,-1.0,-1.0,-1.0,-1.0,0.0,0.0
1.695162167977797e+18,-1.0,0.0,-1.0,-3.0,-1.0,-1.0,0.0,0.0
1.695162167977797e+18,0.0,1.0,0.0,-1.0,-2.0,-2.0,-1.0,0.0
1.695162167978802e+18,0.0,-1.0,-2.0,-1.0,0.0,0.0,-1.0,-1.0
1.695162167978802e+18,-1.0,-1.0,-1.0,-1.0,-1.0,0.0,-1.0,-1.0
1.695162167993787e+18,-2.0,-1.0,0.0,2.0,-1.0,0.0,-1.0,-1.0
1.695162167993787e+18,0.0,-1.0,-3.0,-1.0,0.0,1.0,-1.0,0.0
1.6951621679947927e+18,-1.0,-1.0,0.0,-1.0,-1.0,-1.0,-2.0,-2.0
1.695162167995786e+18,0.0,-1.0,-2.0,-2.0,1.0,-2.0,-2.0,0.0
1.6951621680087788e+18,0.0,-1.0,0.0,-2.0,0.0,0.0,-1.0,-1.0
1.6951621680087788e+18,-2.0,0.0,0.0,-1.0,-2.0,-1.0,0.0,1.0
1.6951621680097787e+18,-1.0,-2.0,-1.0,-1.0,-1.0,1.0,-1.0,-2.0
1.695162168010788e+18,0.0,0.0,-1.0,-1.0,-2.0,-1.0,0.0,-1.0
1.6951621680227712e+18,0.0,0.0,-2.0,0.0,-1.0,-1.0,-2.0,-2.0
1.6951621680227712e+18,0.0,-1.0,0.0,-1.0,-1.0,-1.0,0.0,-1.0
1.695162168050755e+18,-3.0,0.0,-1.0,0.0,-1.0,-1.0,-2.0,0.0
1.695162168051755e+18,0.0,0.0,0.0,-1.0,1.0,0.0,-2.0,0.0
1.6951621680537551e+18,-1.0,-2.0,-2.0,-1.0,0.0,1.0,1.0,1.0
1.6951621680537551e+18,-1.0,-2.0,1.0,0.0,0.0,-2.0,-1.0,-1.0
1.6951621680567764e+18,0.0,0.0,0.0,0.0,0.0,0.0,0.0,0.0
1.6951621680567764e+18,-2.0,-2.0,1.0,-1.0,0.0,0.0,-1.0,-1.0
1.695162168068746e+18,-1.0,-1.0,0.0,2.0,-1.0,-1.0,-2.0,1.0
1.695162168068746e+18,-1.0,0.0,1.0,-1.0,0.0,0.0,0.0,-1.0
1.6951621680707446e+18,-1.0,-1.0,3.0,1.0,-1.0,-1.0,1.0,-1.0
1.6951621680707446e+18,-1.0,-1.0,-7.0,-3.0,-1.0,-1.0,0.0,-1.0
1.6951621680917358e+18,-1.0,-2.0,0.0,-2.0,-2.0,0.0,0.0,-1.0
1.6951621680917358e+18,-2.0,-1.0,1.0,1.0,0.0,0.0,-3.0,-3.0
1.6951621680927304e+18,0.0,-1.0,0.0,-2.0,-1.0,-3.0,-1.0,2.0
1.6951621680927304e+18,-1.0,0.0,-1.0,1.0,0.0,0.0,-1.0,-1.0
1.6951621681057285e+18,-2.0,0.0,-1.0,-1.0,0.0,0.0,-2.0,-1.0
1.6951621681067233e+18,-1.0,-1.0,-2.0,0.0,-1.0,-2.0,-3.0,-1.0
1.6951621681077217e+18,1.0,-1.0,-2.0,0.0,0.0,0.0,0.0,0.0
1.6951621681077217e+18,-2.0,0.0,3.0,0.0,-2.0,-1.0,-1.0,-1.0
1.6951621681287101e+18,-1.0,1.0,-1.0,-2.0,0.0,0.0,0.0,-1.0
1.6951621681297103e+18,1.0,1.0,-1.0,-1.0,-1.0,0.0,-1.0,-2.0
1.695162168130714e+18,-2.0,-4.0,-2.0,-1.0,-1.0,-1.0,-1.0,-3.0
1.695162168130714e+18,-2.0,0.0,6.0,1.0,0.0,0.0,0.0,-1.0
1.6951621681427064e+18,-1.0,-1.0,-11.0,-3.0,0.0,-2.0,-1.0,-2.0
1.6951621681427064e+18,-1.0,-1.0,0.0,-3.0,-1.0,-1.0,0.0,0.0
1.6951621681517015e+18,-2.0,-1.0,-1.0,-1.0,-1.0,-1.0,0.0,-1.0
1.6951621681517015e+18,0.0,-1.0,4.0,0.0,0.0,-2.0,-1.0,-1.0
1.6951621681666885e+18,-1.0,-2.0,-2.0,-2.0,-2.0,-1.0,0.0,-1.0
1.6951621681666885e+18,0.0,1.0,0.0,1.0,-2.0,-1.0,-1.0,2.0
1.6951621681676882e+18,1.0,0.0,2.0,-1.0,-1.0,0.0,-1.0,1.0
1.6951621681676882e+18,-1.0,-1.0,-18.0,-2.0,-2.0,-2.0,-1.0,1.0
1.6951621681886756e+18,-2.0,2.0,17.0,0.0,-2.0,-1.0,0.0,-2.0
1.6951621681896753e+18,0.0,-2.0,-3.0,-1.0,-1.0,-2.0,0.0,-2.0
1.695162168190675e+18,-1.0,0.0,4.0,0.0,-1.0,-1.0,-2.0,-1.0
1.695162168190675e+18,0.0,-1.0,2.0,0.0,-2.0,-1.0,0.0,-1.0
1.6951621682036687e+18,0.0,-1.0,-4.0,-1.0,0.0,0.0,-1.0,0.0
1.6951621682036687e+18,0.0,-1.0,-2.0,0.0,-2.0,1.0,1.0,-1.0
1.6951621682186642e+18,-1.0,-2.0,-10.0,-2.0,-2.0,-2.0,-1.0,-1.0
1.6951621682186642e+18,-1.0,0.0,1.0,-2.0,-2.0,-1.0,0.0,-2.0
1.6951621682256545e+18,-1.0,-1.0,0.0,-1.0,0.0,-1.0,-1.0,-1.0
1.6951621682266593e+18,0.0,-2.0,4.0,1.0,-2.0,0.0,0.0,0.0
1.695162168227658e+18,-2.0,0.0,1.0,0.0,1.0,-1.0,-3.0,-2.0
1.695162168227658e+18,-1.0,-1.0,-9.0,-4.0,-2.0,-2.0,-1.0,-1.0
1.695162168248644e+18,0.0,-1.0,3.0,0.0,0.0,-2.0,0.0,-1.0
1.695162168248644e+18,0.0,-1.0,-2.0,0.0,-1.0,0.0,-1.0,1.0
1.695162168250664e+18,1.0,1.0,0.0,1.0,0.0,0.0,0.0,1.0
1.695162168250664e+18,0.0,0.0,3.0,-1.0,-1.0,-1.0,-1.0,-1.0
1.6951621682626373e+18,-1.0,-2.0,-2.0,-1.0,-2.0,-1.0,-1.0,0.0
1.695162168263634e+18,0.0,0.0,-4.0,-2.0,0.0,-2.0,0.0,-1.0
1.6951621682716288e+18,-1.0,-1.0,-3.0,0.0,-1.0,0.0,-1.0,1.0
1.6951621682726272e+18,-1.0,-2.0,5.0,-1.0,-3.0,-1.0,-2.0,-2.0
1.6951621682866194e+18,0.0,-2.0,-3.0,-1.0,-1.0,-1.0,0.0,-1.0
1.6951621682866194e+18,0.0,-1.0,-3.0,-2.0,-1.0,-3.0,-3.0,-2.0
1.6951621682886226e+18,-1.0,0.0,-1.0,-2.0,-1.0,-1.0,-1.0,-1.0
1.6951621682896192e+18,0.0,0.0,0.0,0.0,2.0,1.0,-1.0,0.0
1.695162168308606e+18,0.0,-1.0,-2.0,0.0,-1.0,0.0,1.0,0.0
1.695162168308606e+18,-3.0,-1.0,-1.0,-2.0,1.0,0.0,0.0,0.0
1.695162168315613e+18,-2.0,-1.0,0.0,0.0,0.0,-1.0,-1.0,-1.0
1.695162168315613e+18,-2.0,-1.0,1.0,1.0,0.0,0.0,-1.0,-1.0
1.6951621683245998e+18,-2.0,-1.0,-2.0,1.0,-1.0,-1.0,-1.0,0.0
1.6951621683255997e+18,-2.0,1.0,-1.0,1.0,-1.0,0.0,-1.0,0.0
1.69516216833859e+18,0.0,-1.0,-1.0,-1.0,0.0,-2.0,-1.0,-2.0
1.69516216833859e+18,-1.0,-3.0,1.0,0.0,-1.0,-1.0,-1.0,1.0
1.6951621683535813e+18,-1.0,0.0,0.0,0.0,1.0,-2.0,0.0,0.0
1.6951621683535813e+18,-1.0,-2.0,0.0,0.0,-2.0,1.0,-1.0,-3.0
1.695162168354581e+18,1.0,-1.0,-1.0,-1.0,-2.0,-1.0,-1.0,0.0
1.6951621683555794e+18,-1.0,0.0,0.0,-2.0,-2.0,-1.0,0.0,-1.0
1.6951621683695744e+18,-1.0,0.0,-2.0,-2.0,-2.0,1.0,0.0,-1.0
1.6951621683695744e+18,-1.0,0.0,-2.0,-1.0,-1.0,0.0,0.0,-1.0
1.695162168370572e+18,1.0,0.0,0.0,0.0,1.0,0.0,-1.0,-1.0
1.695162168370572e+18,0.0,1.0,-1.0,-1.0,0.0,0.0,0.0,-1.0
1.695162168381567e+18,0.0,-1.0,-1.0,1.0,0.0,2.0,0.0,-1.0
1.6951621683825687e+18,-1.0,-2.0,-1.0,-1.0,0.0,-2.0,0.0,-2.0
1.695162168390559e+18,-1.0,0.0,0.0,-1.0,-2.0,0.0,0.0,0.0
1.6951621683915587e+18,-1.0,0.0,-2.0,0.0,0.0,-1.0,1.0,-3.0
1.6951621684135475e+18,-3.0,-1.0,0.0,1.0,-3.0,-1.0,-2.0,-1.0
1.6951621684135475e+18,1.0,-1.0,-1.0,-2.0,0.0,0.0,-1.0,-1.0
1.6951621684145475e+18,-1.0,0.0,0.0,-1.0,-1.0,-1.0,-2.0,0.0
1.695162168415545e+18,-1.0,-2.0,-1.0,-2.0,-2.0,-1.0,-2.0,-1.0
1.695162168428538e+18,0.0,-2.0,-2.0,-1.0,0.0,-1.0,-2.0,-1.0
1.6951621684295506e+18,0.0,-2.0,-2.0,0.0,0.0,0.0,0.0,-2.0
1.69516216843056e+18,-2.0,1.0,-1.0,-2.0,-2.0,0.0,0.0,-1.0
1.69516216843056e+18,1.0,-1.0,-2.0,-2.0,1.0,0.0,0.0,-1.0
1.6951621684505492e+18,0.0,0.0,-1.0,-2.0,-1.0,-3.0,-2.0,-2.0
1.6951621684515295e+18,-1.0,-2.0,0.0,-2.0,-3.0,-1.0,-4.0,-2.0
1.6951621684525268e+18,-1.0,-3.0,-2.0,-3.0,-2.0,-2.0,-2.0,-2.0
1.6951621684525268e+18,-2.0,-2.0,-2.0,0.0,-3.0,-1.0,-2.0,-2.0
1.6951621684665193e+18,-2.0,-3.0,-2.0,1.0,-3.0,-2.0,-2.0,-3.0
1.6951621684665193e+18,-3.0,-2.0,-1.0,0.0,-1.0,-2.0,-2.0,-2.0
1.6951621684675395e+18,-1.0,-1.0,-2.0,0.0,0.0,-1.0,0.0,-1.0
1.6951621684675395e+18,-1.0,-1.0,-1.0,1.0,-1.0,1.0,-1.0,-2.0
1.695162168488503e+18,0.0,-1.0,-3.0,-1.0,-1.0,0.0,-3.0,-1.0
1.695162168488503e+18,-1.0,0.0,-2.0,0.0,-1.0,0.0,-1.0,0.0
1.6951621684895027e+18,0.0,-2.0,0.0,1.0,-1.0,0.0,-1.0,-3.0
1.6951621684905068e+18,-1.0,-2.0,0.0,-2.0,-1.0,-2.0,-2.0,0.0
1.6951621685155118e+18,-1.0,1.0,-1.0,1.0,-2.0,-1.0,1.0,-2.0
1.6951621685155118e+18,-3.0,-1.0,1.0,-1.0,1.0,-2.0,0.0,0.0
1.6951621685164874e+18,0.0,-1.0,-2.0,-2.0,1.0,-2.0,-1.0,-1.0
1.6951621685164874e+18,0.0,-1.0,-2.0,-1.0,-1.0,0.0,-1.0,-2.0
1.6951621685256118e+18,-1.0,-1.0,-2.0,-2.0,0.0,0.0,0.0,0.0
1.6951621685256118e+18,0.0,-1.0,-1.0,0.0,-2.0,-2.0,-1.0,-1.0
1.695162168533639e+18,-2.0,-1.0,-2.0,-1.0,-3.0,-1.0,-1.0,-1.0
1.695162168533639e+18,0.0,2.0,1.0,0.0,-3.0,-1.0,-3.0,-1.0
1.6951621685486523e+18,0.0,0.0,2.0,-2.0,-5.0,-1.0,-1.0,0.0
1.6951621685486523e+18,-1.0,-1.0,1.0,-2.0,3.0,-2.0,-1.0,-1.0
1.6951621685496425e+18,-1.0,-1.0,0.0,-3.0,-5.0,1.0,-2.0,-1.0
1.6951621685496425e+18,-1.0,-2.0,-6.0,-1.0,-1.0,-6.0,0.0,0.0
1.6951621685623813e+18,0.0,0.0,2.0,3.0,3.0,-9.0,-1.0,-1.0
1.6951621685623813e+18,3.0,1.0,2.0,3.0,10.0,26.0,6.0,1.0
1.6951621685713905e+18,1.0,0.0,0.0,1.0,-4.0,-1.0,1.0,0.0
1.695162168572385e+18,1.0,1.0,-4.0,-1.0,3.0,3.0,-2.0,1.0
1.6951621685853783e+18,-2.0,-2.0,0.0,-12.0,-11.0,-13.0,-1.0,-2.0
1.6951621685863913e+18,-3.0,0.0,8.0,8.0,11.0,0.0,-2.0,-2.0
1.6951621685943747e+18,-1.0,0.0,-6.0,-4.0,6.0,4.0,-2.0,-1.0
1.6951621685943747e+18,-3.0,-5.0,2.0,0.0,-9.0,-8.0,-2.0,-1.0
1.6951621686163602e+18,1.0,1.0,-1.0,-1.0,-2.0,-5.0,-2.0,1.0
1.6951621686183603e+18,-1.0,-1.0,-7.0,-14.0,-13.0,-9.0,0.0,0.0
1.6951621686193672e+18,1.0,1.0,9.0,18.0,17.0,6.0,3.0,1.0
1.6951621686203643e+18,-1.0,-1.0,-4.0,3.0,10.0,13.0,3.0,0.0
1.6951621686333548e+18,0.0,-1.0,-8.0,-9.0,1.0,4.0,-2.0,-1.0
1.695162168643349e+18,-1.0,-2.0,-3.0,-7.0,-24.0,-11.0,-4.0,-2.0
1.6951621686443492e+18,-1.0,-2.0,-1.0,-7.0,-9.0,-10.0,-5.0,-4.0
1.6951621686443492e+18,1.0,-1.0,2.0,0.0,-5.0,-6.0,-2.0,-1.0
1.6951621686473464e+18,-1.0,-1.0,1.0,7.0,15.0,8.0,3.0,1.0
1.6951621686483425e+18,-1.0,0.0,0.0,7.0,6.0,5.0,0.0,-1.0
1.6951621686523387e+18,-1.0,-1.0,0.0,-7.0,-5.0,-3.0,-2.0,-1.0
1.6951621686523387e+18,-3.0,-3.0,-13.0,-12.0,-8.0,-11.0,-3.0,-2.0
1.6951621686763254e+18,-2.0,1.0,6.0,4.0,-8.0,3.0,-3.0,-4.0
1.6951621686773243e+18,2.0,3.0,-2.0,-4.0,-2.0,-6.0,2.0,0.0
1.6951621686783235e+18,-3.0,-5.0,-1.0,1.0,4.0,-7.0,-1.0,-2.0
1.6951621686783235e+18,2.0,1.0,-3.0,-10.0,-3.0,10.0,1.0,-1.0
1.6951621686913157e+18,1.0,-1.0,9.0,28.0,13.0,4.0,4.0,2.0
1.6951621686923195e+18,-2.0,-3.0,-2.0,-6.0,-16.0,-12.0,-9.0,-3.0
1.6951621686923195e+18,0.0,2.0,0.0,-2.0,7.0,3.0,0.0,1.0
1.6951621686933202e+18,0.0,2.0,-1.0,-6.0,-3.0,-2.0,-2.0,0.0
1.6951621687083072e+18,0.0,0.0,-6.0,-9.0,-5.0,1.0,3.0,0.0
1.6951621687083072e+18,-2.0,-3.0,4.0,24.0,3.0,-11.0,-12.0,-3.0
1.6951621687123036e+18,3.0,-1.0,-3.0,-10.0,3.0,19.0,15.0,4.0
1.6951621687123036e+18,-2.0,-4.0,-3.0,-4.0,-2.0,-12.0,-5.0,-2.0
1.6951621687292946e+18,0.0,3.0,-3.0,-5.0,-17.0,-3.0,-3.0,0.0
1.6951621687302938e+18,-3.0,-2.0,0.0,4.0,14.0,-1.0,-22.0,-8.0
1.695162168733294e+18,-4.0,-5.0,-3.0,-2.0,-11.0,-3.0,26.0,2.0
1.695162168733294e+18,-1.0,0.0,-4.0,6.0,6.0,-2.0,-15.0,-11.0
1.6951621687512814e+18,0.0,-2.0,-4.0,-11.0,6.0,10.0,12.0,10.0
1.6951621687512814e+18,2.0,0.0,-3.0,-5.0,-10.0,-22.0,-11.0,-1.0
1.6951621687522852e+18,2.0,5.0,1.0,1.0,-10.0,-29.0,-15.0,1.0
1.6951621687532826e+18,0.0,1.0,9.0,11.0,5.0,57.0,25.0,3.0
1.6951621687652782e+18,-4.0,-7.0,-5.0,8.0,31.0,-1.0,-16.0,-10.0
1.6951621687652782e+18,1.0,-1.0,-3.0,-15.0,-10.0,6.0,27.0,3.0
1.6951621687732685e+18,1.0,6.0,-1.0,-1.0,-2.0,-8.0,-7.0,1.0
1.6951621687742684e+18,-1.0,-6.0,5.0,-8.0,-6.0,-3.0,1.0,0.0
1.6951621687892603e+18,2.0,2.0,-4.0,-5.0,-11.0,-13.0,-14.0,-3.0
1.6951621687892603e+18,-4.0,-3.0,0.0,3.0,14.0,11.0,6.0,-5.0
1.6951621687902597e+18,-2.0,-1.0,4.0,-4.0,-20.0,-14.0,-8.0,-3.0
1.6951621687912635e+18,4.0,11.0,-2.0,7.0,-14.0,-21.0,-14.0,0.0
1.6951621688272381e+18,-2.0,-9.0,0.0,-4.0,13.0,25.0,29.0,11.0
1.6951621688272381e+18,1.0,5.0,-3.0,8.0,9.0,-5.0,-19.0,-1.0
1.6951621688282427e+18,-2.0,-4.0,1.0,0.0,-1.0,16.0,36.0,2.0
1.6951621688282427e+18,-3.0,-3.0,5.0,0.0,-5.0,-20.0,-24.0,-5.0
1.6951621688292408e+18,-1.0,1.0,-1.0,-1.0,-17.0,-2.0,0.0,-2.0
1.6951621688292408e+18,0.0,2.0,-6.0,-9.0,-31.0,-18.0,-16.0,-4.0
1.6951621688402307e+18,-3.0,-6.0,-1.0,-1.0,39.0,25.0,0.0,2.0
1.6951621688402307e+18,-2.0,1.0,4.0,-10.0,1.0,2.0,22.0,-3.0
1.695162168849226e+18,0.0,2.0,8.0,29.0,7.0,-12.0,-30.0,-3.0
1.695162168849226e+18,-1.0,-6.0,-7.0,-11.0,-10.0,-2.0,6.0,1.0
1.6951621688502262e+18,2.0,4.0,-2.0,8.0,2.0,17.0,8.0,1.0
1.695162168851225e+18,-3.0,-8.0,-3.0,-9.0,-2.0,-19.0,-24.0,-8.0
1.6951621688812099e+18,3.0,6.0,3.0,-5.0,-16.0,-10.0,27.0,2.0
1.6951621688832097e+18,-2.0,-6.0,-3.0,-4.0,-4.0,23.0,7.0,2.0
1.6951621688842079e+18,-3.0,-3.0,-1.0,5.0,21.0,-3.0,-20.0,0.0
1.6951621688842079e+18,-1.0,1.0,0.0,-2.0,-1.0,0.0,6.0,4.0
1.6951621688852063e+18,-3.0,-3.0,-6.0,-17.0,-11.0,-12.0,-4.0,-5.0
1.6951621688852063e+18,-3.0,0.0,0.0,8.0,2.0,-7.0,9.0,4.0
1.6951621688932234e+18,0.0,-2.0,-7.0,-26.0,-12.0,11.0,3.0,-1.0
1.6951621688941988e+18,-1.0,-4.0,-11.0,5.0,5.0,8.0,13.0,3.0
1.695162168919187e+18,0.0,1.0,4.0,8.0,-3.0,1.0,3.0,-3.0
1.6951621689201876e+18,-3.0,-2.0,-1.0,-9.0,-11.0,-12.0,-5.0,1.0
1.6951621689211873e+18,-2.0,0.0,0.0,-7.0,-21.0,-15.0,-18.0,-8.0
1.6951621689211873e+18,2.0,3.0,6.0,6.0,4.0,2.0,-5.0,6.0
1.6951621689311795e+18,-5.0,-2.0,-6.0,-12.0,-1.0,-7.0,-9.0,-6.0
1.6951621689321792e+18,-1.0,-2.0,5.0,20.0,8.0,10.0,13.0,3.0
1.6951621689331802e+18,1.0,4.0,-11.0,-12.0,-11.0,-9.0,-27.0,-6.0
1.6951621689331802e+18,-1.0,2.0,1.0,6.0,17.0,8.0,5.0,6.0
1.6951621689561667e+18,-3.0,-1.0,-3.0,-14.0,-7.0,-6.0,-2.0,-5.0
1.6951621689561667e+18,1.0,0.0,9.0,7.0,3.0,0.0,-4.0,-3.0
1.6951621689571679e+18,-1.0,0.0,4.0,18.0,5.0,-15.0,-24.0,-6.0
1.6951621689571679e+18,2.0,6.0,-8.0,-14.0,-10.0,0.0,15.0,-3.0
1.6951621689681582e+18,0.0,-5.0,-12.0,-8.0,-13.0,-2.0,-12.0,0.0
1.6951621689681582e+18,2.0,8.0,-5.0,-10.0,19.0,8.0,4.0,-1.0
1.695162168970155e+18,-3.0,-7.0,4.0,5.0,-1.0,3.0,9.0,-1.0
1.695162168970155e+18,2.0,-19.0,2.0,4.0,15.0,0.0,-13.0,-3.0
1.6951621689981386e+18,-3.0,-10.0,-2.0,4.0,4.0,9.0,20.0,9.0
1.6951621689991386e+18,4.0,-5.0,10.0,13.0,5.0,9.0,5.0,6.0
1.6951621690001395e+18,-1.0,-1.0,-6.0,-10.0,-10.0,-7.0,-6.0,-6.0
1.6951621690001395e+18,-4.0,2.0,5.0,16.0,0.0,3.0,17.0,7.0
1.6951621690041382e+18,3.0,30.0,-13.0,-16.0,-1.0,-2.0,-13.0,-7.0
1.695162169005137e+18,-3.0,-4.0,4.0,-2.0,-4.0,-9.0,4.0,-6.0
1.6951621690251267e+18,-1.0,-2.0,-1.0,11.0,16.0,10.0,-11.0,4.0
1.6951621690251267e+18,-4.0,-5.0,9.0,2.0,-9.0,-13.0,-15.0,-6.0
1.6951621690431145e+18,5.0,8.0,-4.0,-7.0,-3.0,8.0,10.0,3.0
1.6951621690441162e+18,-6.0,-1.0,0.0,-6.0,-4.0,-1.0,8.0,-1.0
1.695162169045115e+18,0.0,9.0,-3.0,5.0,-15.0,-6.0,4.0,-2.0
1.695162169045115e+18,1.0,10.0,1.0,8.0,5.0,2.0,-2.0,0.0
1.6951621690750953e+18,-3.0,-11.0,8.0,2.0,-7.0,-14.0,-13.0,-6.0
1.6951621690750953e+18,-2.0,-14.0,-7.0,-9.0,-2.0,12.0,-12.0,-1.0
1.6951621690760973e+18,0.0,-4.0,6.0,2.0,-7.0,-6.0,2.0,0.0
1.6951621690760973e+18,-3.0,-2.0,-11.0,-7.0,6.0,-1.0,-1.0,-2.0
1.695162169077097e+18,-2.0,-5.0,8.0,9.0,-4.0,-3.0,-13.0,-3.0
1.695162169077097e+18,-1.0,-3.0,-6.0,-8.0,0.0,-14.0,-12.0,-9.0
1.695162169081093e+18,0.0,-1.0,6.0,5.0,3.0,17.0,23.0,13.0
1.695162169082093e+18,1.0,4.0,3.0,-1.0,-15.0,-17.0,-11.0,-8.0
1.6951621690981059e+18,3.0,-15.0,3.0,-3.0,3.0,3.0,0.0,2.0
1.6951621690981059e+18,-5.0,7.0,-6.0,1.0,11.0,2.0,-9.0,-3.0
1.6951621690981059e+18,2.0,14.0,-2.0,-1.0,-2.0,-5.0,-3.0,-4.0
1.695162169099082e+18,-9.0,-17.0,-2.0,-2.0,-6.0,1.0,3.0,1.0
1.6951621691100764e+18,4.0,13.0,-5.0,-2.0,7.0,2.0,1.0,-1.0
1.6951621691100764e+18,3.0,8.0,-3.0,-17.0,-14.0,0.0,29.0,1.0
1.6951621691110774e+18,-5.0,-27.0,4.0,26.0,24.0,3.0,-5.0,0.0
1.6951621691110774e+18,2.0,25.0,-11.0,-6.0,-9.0,-3.0,4.0,-1.0
1.6951621691572838e+18,-6.0,-16.0,-3.0,-9.0,7.0,6.0,-2.0,2.0
1.6951621691572838e+18,2.0,6.0,8.0,26.0,17.0,3.0,-1.0,1.0
1.6951621691583014e+18,0.0,-2.0,-16.0,-27.0,-19.0,-4.0,22.0,3.0
1.6951621691583014e+18,-2.0,-1.0,1.0,-1.0,-4.0,-13.0,-31.0,-11.0
1.695162169159299e+18,3.0,3.0,22.0,23.0,12.0,15.0,21.0,4.0
1.695162169159299e+18,-1.0,-2.0,-23.0,-20.0,-6.0,-2.0,-10.0,-1.0
1.695162169170664e+18,-3.0,-5.0,17.0,18.0,0.0,-9.0,-12.0,-6.0
1.6951621691716613e+18,-4.0,-13.0,-9.0,-7.0,12.0,8.0,-3.0,2.0
1.6951621691846e+18,-1.0,27.0,-15.0,-9.0,-10.0,6.0,10.0,4.0
1.6951621691855852e+18,-4.0,-41.0,18.0,8.0,9.0,4.0,7.0,10.0
1.695162169210458e+18,3.0,10.0,-9.0,-12.0,-9.0,-3.0,-2.0,-1.0
1.695162169210458e+18,5.0,6.0,-7.0,-7.0,-3.0,2.0,16.0,3.0
1.6951621692114678e+18,-7.0,-13.0,10.0,15.0,10.0,-3.0,-9.0,-6.0
1.6951621692114678e+18,1.0,16.0,-21.0,-32.0,-9.0,-8.0,-10.0,-7.0
1.695162169212462e+18,-1.0,0.0,6.0,7.0,-3.0,-2.0,-2.0,-2.0
1.695162169213468e+18,3.0,-4.0,5.0,3.0,-4.0,0.0,-1.0,2.0
1.6951621692556142e+18,-3.0,-6.0,-10.0,-12.0,-7.0,-7.0,-5.0,-6.0
1.695162169257618e+18,1.0,5.0,6.0,14.0,5.0,4.0,-4.0,-1.0
1.6951621692706045e+18,4.0,0.0,-1.0,-3.0,4.0,9.0,7.0,1.0
1.6951621692706045e+18,1.0,4.0,3.0,0.0,-7.0,-6.0,-7.0,-4.0
1.6951621692706045e+18,-1.0,2.0,-5.0,-5.0,-2.0,1.0,-5.0,1.0
1.6951621692716042e+18,-3.0,-9.0,4.0,3.0,0.0,7.0,9.0,1.0
1.6951621692726085e+18,-1.0,-9.0,3.0,-1.0,-2.0,-6.0,-3.0,2.0
1.6951621692726085e+18,-1.0,17.0,-6.0,5.0,-4.0,-6.0,-24.0,-4.0
1.6951621693215757e+18,1.0,-3.0,-3.0,-8.0,0.0,-6.0,-7.0,-5.0
1.695162169333569e+18,2.0,-5.0,2.0,1.0,-5.0,12.0,-1.0,2.0
1.69516216939953e+18,3.0,2.0,-1.0,4.0,-2.0,9.0,3.0,3.0
1.69516216939953e+18,1.0,5.0,4.0,3.0,0.0,0.0,-3.0,-3.0
1.69516216939953e+18,-3.0,-1.0,0.0,1.0,13.0,7.0,4.0,-3.0
1.69516216939953e+18,-2.0,-17.0,-16.0,-4.0,-1.0,-19.0,-24.0,-2.0
1.6951621694355118e+18,3.0,-17.0,-15.0,-20.0,-6.0,17.0,26.0,7.0
1.6951621694355118e+18,0.0,2.0,3.0,-2.0,0.0,3.0,13.0,0.0
1.6951621694365097e+18,-1.0,1.0,3.0,10.0,-4.0,-7.0,-6.0,-3.0
1.6951621694365097e+18,-2.0,-1.0,-25.0,-20.0,-6.0,-3.0,-4.0,-2.0
1.6951621694375094e+18,-1.0,-15.0,0.0,-4.0,5.0,6.0,4.0,3.0
1.6951621694375094e+18,1.0,-1.0,4.0,-2.0,-9.0,-4.0,1.0,-1.0
1.6951621694501258e+18,0.0,-5.0,-1.0,3.0,0.0,-2.0,-4.0,-2.0
1.6951621694501258e+18,0.0,2.0,3.0,6.0,5.0,2.0,3.0,0.0
1.6951621694501258e+18,-1.0,-9.0,-1.0,0.0,-2.0,0.0,-1.0,-2.0
1.6951621694501258e+18,1.0,0.0,2.0,0.0,-4.0,0.0,3.0,1.0
1.695162169457117e+18,-2.0,1.0,-8.0,1.0,-1.0,-4.0,-3.0,-3.0
1.695162169457117e+18,-1.0,0.0,1.0,-2.0,-5.0,-2.0,2.0,0.0
1.6951621694581164e+18,-2.0,-10.0,-1.0,4.0,5.0,2.0,-3.0,1.0
1.6951621694581164e+18,-1.0,2.0,0.0,-2.0,-2.0,1.0,0.0,0.0
1.6951621695006595e+18,-1.0,-1.0,3.0,-4.0,-2.0,-2.0,-2.0,-1.0
1.6951621695006595e+18,-1.0,-1.0,2.0,7.0,-2.0,-2.0,0.0,-1.0
1.695162169501539e+18,1.0,-10.0,4.0,-2.0,4.0,-1.0,0.0,1.0
1.695162169501539e+18,-13.0,-4.0,1.0,5.0,-3.0,0.0,1.0,-2.0
1.6951621695108726e+18,6.0,0.0,-2.0,-9.0,-6.0,-4.0,-4.0,0.0
1.6951621695108726e+18,0.0,2.0,8.0,8.0,2.0,1.0,-1.0,-1.0
1.6951621695118723e+18,-6.0,-7.0,-15.0,-4.0,3.0,2.0,2.0,0.0
1.6951621695118723e+18,9.0,4.0,9.0,0.0,-6.0,-1.0,2.0,2.0
1.6951621695159713e+18,-1.0,4.0,1.0,-2.0,2.0,0.0,-1.0,-1.0
1.6951621695159713e+18,-12.0,0.0,4.0,-1.0,-1.0,-2.0,-3.0,-1.0
1.6951621695169953e+18,3.0,-9.0,1.0,1.0,-2.0,-2.0,-3.0,-2.0
1.6951621695169953e+18,-2.0,0.0,0.0,1.0,-3.0,-1.0,-1.0,-1.0
1.6951621695465738e+18,-7.0,-9.0,-14.0,-3.0,-1.0,0.0,-1.0,0.0
1.6951621695465738e+18,4.0,3.0,2.0,5.0,1.0,-1.0,0.0,1.0
1.6951621695465738e+18,-2.0,-2.0,1.0,1.0,2.0,2.0,2.0,0.0
1.695162169547573e+18,-2.0,2.0,1.0,1.0,-3.0,-1.0,0.0,-1.0
1.6951621695627164e+18,2.0,2.0,4.0,-1.0,-1.0,-3.0,-5.0,-1.0
1.6951621695627164e+18,3.0,-1.0,-1.0,-1.0,-1.0,0.0,1.0,1.0
1.6951621695627164e+18,-1.0,-4.0,-1.0,0.0,0.0,0.0,-1.0,-2.0
1.6951621695637166e+18,2.0,0.0,-2.0,-1.0,-2.0,-2.0,-3.0,-3.0
1.6951621695755715e+18,-2.0,-2.0,0.0,-2.0,-1.0,-1.0,0.0,-2.0
1.6951621695755715e+18,-1.0,-1.0,1.0,2.0,0.0,0.0,-1.0,-1.0
1.695162169576571e+18,-1.0,2.0,4.0,-1.0,-1.0,-1.0,-1.0,-1.0
1.695162169576571e+18,-2.0,-5.0,-8.0,-1.0,0.0,2.0,0.0,0.0
1.6951621696195443e+18,-2.0,-1.0,2.0,-1.0,-1.0,-1.0,0.0,0.0
1.6951621696195443e+18,0.0,-3.0,-2.0,-2.0,-1.0,-2.0,1.0,-1.0
1.6951621696345725e+18,1.0,-1.0,1.0,1.0,-1.0,0.0,-2.0,-2.0
1.695162169635555e+18,1.0,0.0,-1.0,-2.0,-4.0,-5.0,-2.0,-1.0
1.6951621696446474e+18,0.0,0.0,-2.0,0.0,3.0,2.0,0.0,1.0
1.6951621696446474e+18,0.0,-2.0,1.0,1.0,2.0,0.0,2.0,-1.0
1.695162169652168e+18,-3.0,0.0,-1.0,-1.0,1.0,-3.0,-2.0,-1.0
1.695162169652168e+18,0.0,-1.0,-2.0,-1.0,-2.0,0.0,1.0,-1.0
1.6951621696541596e+18,-2.0,-2.0,0.0,1.0,-2.0,-2.0,-2.0,-3.0
1.6951621696541596e+18,1.0,1.0,1.0,2.0,0.0,-2.0,-1.0,-1.0
1.6951621696541596e+18,-1.0,-3.0,-1.0,-3.0,-1.0,0.0,0.0,-1.0
1.6951621696551616e+18,-2.0,-2.0,1.0,-2.0,1.0,0.0,0.0,-1.0
1.69516216965818e+18,0.0,0.0,1.0,-2.0,-1.0,-2.0,0.0,-1.0
1.69516216965818e+18,-1.0,-1.0,-2.0,-1.0,-2.0,0.0,-2.0,1.0
1.69516216965918e+18,-1.0,-1.0,-3.0,1.0,-1.0,-1.0,0.0,1.0
1.69516216965918e+18,1.0,2.0,4.0,-1.0,0.0,-1.0,0.0,0.0
1.695162169673149e+18,0.0,-3.0,0.0,0.0,-1.0,0.0,-2.0,-3.0
1.695162169673149e+18,-1.0,-2.0,-1.0,0.0,-1.0,0.0,1.0,0.0
1.695162169673149e+18,-1.0,-2.0,0.0,-1.0,-2.0,1.0,0.0,0.0
1.6951621696741486e+18,-2.0,-6.0,-5.0,0.0,4.0,1.0,0.0,-2.0
1.6951621696911406e+18,-1.0,0.0,1.0,-2.0,-3.0,-7.0,-3.0,-2.0
1.6951621696911406e+18,-1.0,0.0,-1.0,0.0,-1.0,5.0,0.0,-1.0
1.6951621697175777e+18,-1.0,0.0,-7.0,-2.0,1.0,-1.0,1.0,0.0
1.6951621697175777e+18,-2.0,-1.0,3.0,0.0,3.0,8.0,4.0,1.0
1.6951621697265692e+18,0.0,2.0,0.0,0.0,1.0,-1.0,-3.0,1.0
1.6951621697265692e+18,1.0,-3.0,-5.0,-3.0,-3.0,-2.0,0.0,-1.0
1.6951621697497554e+18,-2.0,-2.0,0.0,-2.0,-3.0,-4.0,-2.0,-2.0
1.6951621697497554e+18,-1.0,0.0,-4.0,-4.0,-5.0,-6.0,-2.0,-1.0
1.6951621697517637e+18,-1.0,-1.0,1.0,1.0,-2.0,0.0,-1.0,-2.0
1.6951621697517637e+18,0.0,2.0,-7.0,4.0,2.0,-1.0,-3.0,-1.0
1.6951621697517637e+18,-1.0,-3.0,1.0,-2.0,-5.0,-2.0,-1.0,-1.0
1.6951621697517637e+18,1.0,2.0,4.0,9.0,9.0,1.0,0.0,0.0
1.6951621697651779e+18,0.0,3.0,-1.0,-4.0,-4.0,-1.0,1.0,0.0
1.6951621697651779e+18,-1.0,-3.0,4.0,2.0,-2.0,1.0,0.0,-1.0
1.6951621697651779e+18,-2.0,1.0,0.0,-4.0,-2.0,-2.0,-3.0,-1.0
1.6951621697661814e+18,0.0,0.0,-8.0,-1.0,-2.0,-2.0,-1.0,0.0
1.6951621697701747e+18,-1.0,-8.0,-8.0,1.0,2.0,3.0,3.0,1.0
1.6951621697701747e+18,0.0,2.0,1.0,-2.0,-1.0,1.0,1.0,0.0
1.695162169771171e+18,-1.0,-1.0,27.0,-1.0,-1.0,-1.0,0.0,0.0
1.695162169771171e+18,0.0,-4.0,-29.0,-7.0,-4.0,-3.0,-1.0,-2.0
1.6951621697948198e+18,-1.0,5.0,10.0,-1.0,-4.0,0.0,-1.0,-1.0
1.6951621697948198e+18,-1.0,-4.0,-15.0,-4.0,-1.0,-3.0,-3.0,-3.0
1.6951621697948198e+18,-1.0,0.0,1.0,2.0,2.0,0.0,1.0,1.0
1.6951621697948198e+18,-1.0,3.0,6.0,-1.0,-3.0,-1.0,0.0,-2.0
1.6951621698237947e+18,-2.0,-9.0,-2.0,-3.0,-2.0,0.0,0.0,-2.0
1.6951621698237947e+18,0.0,1.0,4.0,-1.0,0.0,-6.0,-2.0,-1.0
1.6951621698237947e+18,-2.0,-1.0,-8.0,1.0,-1.0,4.0,-3.0,-2.0
1.6951621698237947e+18,-1.0,1.0,5.0,-1.0,1.0,0.0,-1.0,-1.0
1.6951621698387863e+18,0.0,-1.0,-6.0,-2.0,-6.0,-1.0,0.0,-2.0
1.6951621698387863e+18,0.0,1.0,14.0,1.0,2.0,-4.0,0.0,-2.0
1.6951621698387863e+18,1.0,0.0,-9.0,1.0,1.0,3.0,-1.0,1.0
1.6951621698398093e+18,1.0,-2.0,2.0,1.0,4.0,1.0,0.0,1.0
1.6951621698525258e+18,-1.0,2.0,1.0,0.0,1.0,0.0,-1.0,1.0
1.6951621698534948e+18,-2.0,-2.0,-2.0,-4.0,-4.0,-3.0,-2.0,0.0
1.6951621698534948e+18,1.0,-2.0,-7.0,-2.0,-1.0,-5.0,-1.0,-2.0
1.6951621698534948e+18,-2.0,-3.0,4.0,-1.0,-3.0,-2.0,-2.0,-1.0
1.6951621698754934e+18,0.0,2.0,0.0,0.0,1.0,0.0,-2.0,-1.0
1.6951621698754934e+18,0.0,0.0,-5.0,-2.0,-3.0,0.0,1.0,0.0
1.6951621698754934e+18,-1.0,-1.0,-3.0,1.0,4.0,0.0,0.0,-1.0
1.6951621698765074e+18,-1.0,0.0,7.0,-1.0,-2.0,1.0,-1.0,0.0
1.6951621699004803e+18,-1.0,-1.0,-2.0,-4.0,0.0,-1.0,-1.0,-1.0
1.6951621699004803e+18,-1.0,-2.0,-1.0,1.0,0.0,0.0,-1.0,-2.0
1.6951621699014807e+18,-1.0,1.0,-1.0,0.0,1.0,3.0,3.0,1.0
1.6951621699014807e+18,-1.0,-2.0,-5.0,-2.0,-2.0,-2.0,-1.0,-1.0
1.6951621699124736e+18,-1.0,0.0,-4.0,-3.0,-1.0,-1.0,0.0,-1.0
1.6951621699134725e+18,-2.0,-2.0,4.0,-2.0,-7.0,-8.0,-1.0,0.0
1.6951621699134725e+18,0.0,0.0,-3.0,0.0,-1.0,5.0,-1.0,0.0
1.6951621699134725e+18,-1.0,0.0,2.0,1.0,11.0,6.0,-1.0,-2.0
1.6951621699274652e+18,1.0,1.0,4.0,1.0,-4.0,-5.0,0.0,0.0
1.6951621699274652e+18,-1.0,-3.0,-1.0,-1.0,1.0,2.0,-1.0,-1.0
1.6951621699344632e+18,1.0,1.0,0.0,-1.0,0.0,-6.0,0.0,-1.0
1.6951621699344632e+18,0.0,-1.0,3.0,-3.0,-5.0,-3.0,-1.0,-2.0
1.6951621699514514e+18,-1.0,-2.0,-2.0,-2.0,4.0,3.0,-1.0,-1.0
1.6951621699514514e+18,-1.0,1.0,1.0,0.0,-3.0,0.0,0.0,0.0
1.6951621699524503e+18,0.0,-2.0,0.0,-2.0,-2.0,-2.0,0.0,0.0
1.6951621699524503e+18,-1.0,-2.0,-2.0,-1.0,-4.0,-1.0,-2.0,-3.0
1.6951621699724383e+18,0.0,2.0,0.0,-2.0,-2.0,-2.0,0.0,-1.0
1.6951621699734382e+18,0.0,0.0,-2.0,0.0,-1.0,1.0,-1.0,-1.0
1.6951621699734382e+18,0.0,-1.0,-1.0,-2.0,0.0,0.0,0.0,-1.0
1.6951621699734382e+18,0.0,0.0,2.0,-1.0,-3.0,-3.0,-1.0,0.0
1.6951621699984248e+18,0.0,-4.0,0.0,-2.0,-1.0,-2.0,1.0,1.0
1.6951621699994245e+18,-1.0,-1.0,-1.0,0.0,3.0,2.0,-1.0,-1.0
1.6951621700194107e+18,-1.0,-1.0,-2.0,-1.0,1.0,-1.0,-1.0,-1.0
1.6951621700204173e+18,-3.0,0.0,-4.0,0.0,-4.0,-4.0,-2.0,-1.0
1.6951621700214108e+18,-2.0,-1.0,-3.0,2.0,0.0,0.0,-2.0,-1.0
1.6951621700214108e+18,0.0,-2.0,-3.0,0.0,1.0,2.0,0.0,0.0
1.69516217002241e+18,-1.0,-1.0,1.0,-1.0,-2.0,-1.0,-2.0,0.0
1.69516217002241e+18,-1.0,-1.0,-1.0,-1.0,-4.0,-3.0,-1.0,0.0
1.6951621700324042e+18,-1.0,-1.0,-1.0,0.0,1.0,1.0,-1.0,-2.0
1.6951621700324042e+18,0.0,1.0,0.0,-1.0,0.0,0.0,1.0,-1.0
1.6951621700414e+18,-1.0,-2.0,-2.0,0.0,-1.0,-3.0,1.0,0.0
1.6951621700414e+18,0.0,0.0,0.0,1.0,-1.0,-3.0,0.0,0.0
1.6951621700633856e+18,0.0,-2.0,-4.0,0.0,3.0,0.0,-2.0,-1.0
1.6951621700633856e+18,1.0,-1.0,0.0,-1.0,-1.0,0.0,-3.0,0.0
1.695162170064386e+18,0.0,-2.0,1.0,-1.0,0.0,0.0,-1.0,-1.0
1.695162170064386e+18,0.0,-1.0,0.0,0.0,-2.0,0.0,-2.0,-1.0
1.6951621700783793e+18,0.0,-1.0,0.0,1.0,-1.0,0.0,-1.0,-2.0
1.6951621700783793e+18,-3.0,0.0,-2.0,-2.0,-1.0,1.0,-2.0,-2.0
1.6951621700793774e+18,0.0,-2.0,0.0,-3.0,-1.0,1.0,-2.0,-2.0
1.6951621700793774e+18,1.0,0.0,0.0,-2.0,-1.0,-1.0,-1.0,-1.0
1.69516217009237e+18,-1.0,0.0,-3.0,-1.0,0.0,0.0,-1.0,-1.0
1.69516217009237e+18,0.0,-1.0,0.0,-1.0,0.0,-2.0,-1.0,0.0
1.6951621700933688e+18,-1.0,-1.0,-1.0,0.0,-1.0,-1.0,0.0,0.0
1.6951621700933688e+18,-1.0,-1.0,0.0,-1.0,-1.0,-1.0,0.0,-1.0
1.6951621701153582e+18,0.0,0.0,0.0,1.0,-1.0,0.0,3.0,-2.0
1.6951621701153582e+18,0.0,-3.0,-3.0,-2.0,0.0,-1.0,-2.0,-2.0
1.6951621701153582e+18,0.0,0.0,0.0,-1.0,-1.0,-3.0,-2.0,-1.0
1.6951621701163576e+18,-2.0,-1.0,-1.0,0.0,-2.0,-1.0,-1.0,0.0
1.69516217013135e+18,0.0,0.0,-2.0,0.0,0.0,-1.0,-1.0,-1.0
1.69516217013135e+18,-1.0,0.0,1.0,-1.0,-2.0,0.0,0.0,1.0
1.69516217013135e+18,-1.0,0.0,0.0,-2.0,-3.0,-2.0,-3.0,-1.0
1.695162170132347e+18,-1.0,0.0,-1.0,0.0,0.0,1.0,-1.0,-1.0
1.695162170153336e+18,-2.0,0.0,-1.0,-2.0,-3.0,-1.0,-1.0,1.0
1.695162170153336e+18,-1.0,0.0,-1.0,0.0,0.0,-1.0,1.0,0.0
1.695162170153336e+18,-1.0,-3.0,0.0,-1.0,-2.0,-2.0,-1.0,-2.0
1.695162170154335e+18,0.0,-1.0,-1.0,-1.0,-1.0,-1.0,-1.0,-1.0
1.6951621701753226e+18,-3.0,-3.0,-1.0,-2.0,1.0,0.0,-1.0,-1.0
1.6951621701753226e+18,0.0,0.0,0.0,-1.0,1.0,-1.0,0.0,-2.0
1.6951621701763213e+18,0.0,0.0,-3.0,2.0,0.0,-1.0,0.0,1.0
1.6951621701763213e+18,0.0,1.0,0.0,-1.0,-2.0,-1.0,-1.0,-1.0
1.6951621701903137e+18,0.0,-2.0,-1.0,-1.0,-1.0,-1.0,-1.0,-2.0
1.6951621701903137e+18,0.0,-2.0,-2.0,-1.0,1.0,1.0,0.0,-2.0
1.6951621701913132e+18,-2.0,0.0,-1.0,1.0,0.0,0.0,0.0,-3.0
1.6951621701913132e+18,-1.0,-2.0,-2.0,-1.0,1.0,0.0,-2.0,-1.0
1.6951621702124165e+18,-1.0,-1.0,-2.0,-1.0,0.0,-1.0,0.0,1.0
1.6951621702133737e+18,-2.0,1.0,0.0,-1.0,-1.0,-1.0,-2.0,0.0
1.6951621702133737e+18,-1.0,-1.0,-2.0,-1.0,-1.0,-2.0,-1.0,-1.0
1.6951621702133737e+18,0.0,-1.0,0.0,1.0,0.0,-2.0,-1.0,-1.0
1.6951621702384545e+18,1.0,0.0,1.0,-2.0,-1.0,-1.0,0.0,-1.0
1.6951621702424527e+18,0.0,-2.0,-1.0,-1.0,-3.0,-1.0,-1.0,0.0
1.6951621702424527e+18,0.0,1.0,-2.0,0.0,-2.0,1.0,0.0,-1.0
1.6951621702434534e+18,-2.0,0.0,-1.0,0.0,0.0,1.0,0.0,0.0
1.69516217025045e+18,-2.0,-1.0,0.0,0.0,0.0,-1.0,-2.0,0.0
1.69516217025045e+18,-2.0,-1.0,0.0,0.0,-2.0,0.0,-1.0,-1.0
1.69516217025045e+18,0.0,0.0,-2.0,-2.0,1.0,-1.0,-2.0,0.0
1.6951621702514537e+18,-1.0,-1.0,-1.0,-1.0,-2.0,-1.0,-1.0,0.0
1.6951621702725732e+18,-2.0,0.0,-1.0,0.0,0.0,-1.0,-1.0,-1.0
1.6951621702725732e+18,0.0,-1.0,-1.0,0.0,0.0,-2.0,0.0,-3.0
1.695162170273542e+18,0.0,-1.0,1.0,-2.0,0.0,0.0,-1.0,-1.0
1.695162170273542e+18,-2.0,-1.0,1.0,-2.0,1.0,0.0,0.0,-1.0
1.695162170295587e+18,1.0,-1.0,-3.0,-2.0,-2.0,-1.0,-2.0,-1.0
1.6951621702965832e+18,-1.0,-1.0,-1.0,-1.0,0.0,-1.0,0.0,1.0
1.6951621702975834e+18,-1.0,0.0,0.0,2.0,-2.0,0.0,-1.0,1.0
1.6951621702975834e+18,-1.0,-2.0,-2.0,0.0,-2.0,-1.0,-1.0,-2.0
1.6951621703112876e+18,-1.0,0.0,-1.0,-1.0,-3.0,-1.0,0.0,0.0
1.6951621703112876e+18,0.0,-2.0,-1.0,-3.0,0.0,-2.0,-2.0,0.0
1.695162170312288e+18,-1.0,-2.0,-1.0,-1.0,0.0,-1.0,-1.0,-2.0
1.695162170312288e+18,1.0,-1.0,0.0,0.0,-1.0,-1.0,-1.0,0.0
1.6951621703325706e+18,1.0,-1.0,0.0,-1.0,-2.0,-2.0,-1.0,-1.0
1.695162170333569e+18,-2.0,0.0,-2.0,0.0,-1.0,0.0,-1.0,-1.0
1.6951621703416074e+18,-2.0,-3.0,-2.0,-2.0,0.0,-1.0,0.0,0.0
1.6951621703426092e+18,0.0,-2.0,0.0,-2.0,-2.0,1.0,0.0,1.0
1.6951621703575972e+18,0.0,-1.0,-1.0,-2.0,0.0,0.0,-1.0,-1.0
1.695162170358597e+18,0.0,0.0,1.0,-1.0,-1.0,-1.0,0.0,0.0
1.695162170359605e+18,-2.0,-1.0,0.0,0.0,0.0,-1.0,-1.0,0.0
1.695162170359605e+18,0.0,0.0,-2.0,0.0,1.0,-2.0,0.0,-2.0
1.6951621703785848e+18,-2.0,0.0,-1.0,-1.0,-1.0,-1.0,0.0,1.0
1.695162170379585e+18,-1.0,-1.0,0.0,1.0,-1.0,-1.0,-2.0,0.0
1.6951621703805834e+18,-1.0,0.0,-2.0,-1.0,-1.0,-3.0,1.0,-1.0
1.6951621703805834e+18,0.0,-1.0,-1.0,-1.0,0.0,-2.0,-1.0,-1.0
1.695162170394577e+18,0.0,0.0,0.0,-2.0,-2.0,0.0,-2.0,1.0
1.6951621703955873e+18,1.0,-4.0,3.0,1.0,2.0,1.0,0.0,-1.0
1.6951621703955873e+18,1.0,0.0,-1.0,0.0,-2.0,0.0,-1.0,-1.0
1.6951621703965757e+18,0.0,-2.0,-3.0,-2.0,-2.0,0.0,0.0,-2.0
1.6951621704245596e+18,-2.0,-1.0,0.0,1.0,1.0,-1.0,0.0,-1.0
1.6951621704255652e+18,-2.0,-2.0,-2.0,-2.0,-2.0,-1.0,0.0,-2.0
1.6951621704255652e+18,0.0,0.0,-1.0,0.0,1.0,0.0,-1.0,0.0
1.6951621704255652e+18,-1.0,0.0,-1.0,0.0,-1.0,0.0,-1.0,0.0
1.6951621704325545e+18,-1.0,0.0,0.0,-2.0,1.0,-1.0,0.0,0.0
1.695162170438551e+18,-1.0,0.0,-2.0,-1.0,-1.0,-1.0,-2.0,0.0
1.695162170438551e+18,0.0,-2.0,-1.0,-1.0,-2.0,-1.0,0.0,1.0
1.6951621704405494e+18,-2.0,-1.0,-1.0,-3.0,0.0,-2.0,-1.0,-1.0
1.695162170453543e+18,1.0,-2.0,-1.0,-1.0,0.0,1.0,0.0,-2.0
1.695162170454541e+18,1.0,0.0,-2.0,1.0,-1.0,-2.0,-1.0,0.0
1.695162170454541e+18,0.0,-1.0,-1.0,-2.0,-1.0,-1.0,0.0,0.0
1.695162170454541e+18,-1.0,-2.0,1.0,0.0,0.0,0.0,1.0,0.0
1.6951621704755292e+18,-1.0,-2.0,-1.0,-1.0,-1.0,-2.0,-1.0,-3.0
1.6951621704755292e+18,0.0,0.0,0.0,0.0,-1.0,-1.0,0.0,-2.0
1.6951621704765279e+18,-2.0,0.0,-2.0,-1.0,0.0,-1.0,-1.0,0.0
1.6951621704765279e+18,-1.0,0.0,-1.0,0.0,-2.0,-1.0,-1.0,-1.0
1.6951621704905198e+18,-1.0,0.0,0.0,1.0,0.0,0.0,0.0,-1.0
1.6951621704905198e+18,-1.0,-1.0,-2.0,-1.0,0.0,1.0,-2.0,-2.0
1.6951621704915203e+18,0.0,-2.0,-1.0,-1.0,-2.0,-1.0,1.0,-2.0
1.6951621704915203e+18,-3.0,0.0,1.0,0.0,-2.0,-1.0,-1.0,-1.0
1.6951621705215045e+18,-1.0,-2.0,-2.0,-1.0,0.0,-1.0,-1.0,0.0
1.6951621705215045e+18,-3.0,0.0,-1.0,-2.0,0.0,0.0,0.0,-1.0
1.6951621705225021e+18,0.0,-1.0,1.0,0.0,-3.0,0.0,-1.0,-2.0
1.6951621705225021e+18,0.0,-1.0,-1.0,-1.0,-2.0,-1.0,-2.0,-1.0
1.695162170535499e+18,0.0,-1.0,-3.0,0.0,-2.0,0.0,-1.0,-2.0
1.695162170535499e+18,-1.0,1.0,-1.0,-1.0,-2.0,0.0,-2.0,0.0
1.6951621705435146e+18,0.0,-1.0,-1.0,-1.0,0.0,0.0,-1.0,-1.0
1.6951621705435146e+18,1.0,-1.0,-1.0,1.0,0.0,-2.0,0.0,-2.0
1.6951621705505103e+18,1.0,0.0,1.0,-1.0,0.0,-1.0,0.0,0.0
1.6951621705505103e+18,-1.0,-1.0,-2.0,-3.0,0.0,-2.0,-1.0,1.0
1.6951621705514852e+18,-2.0,0.0,0.0,-1.0,-1.0,0.0,0.0,0.0
1.6951621705514852e+18,0.0,-1.0,-1.0,-2.0,-2.0,-1.0,0.0,1.0
1.695162170572478e+18,0.0,0.0,0.0,-1.0,-1.0,-1.0,0.0,-1.0
1.6951621705734764e+18,0.0,-2.0,0.0,-2.0,-1.0,-1.0,1.0,0.0
1.6951621705734764e+18,1.0,-2.0,0.0,0.0,-2.0,0.0,-1.0,0.0
1.6951621705744763e+18,-1.0,-1.0,-2.0,-1.0,-2.0,-1.0,-1.0,-1.0
1.695162170595461e+18,-1.0,-1.0,-2.0,0.0,-1.0,-1.0,-2.0,-2.0
1.6951621705964598e+18,-1.0,1.0,-1.0,0.0,-1.0,-1.0,0.0,0.0
1.6951621705974584e+18,0.0,0.0,-2.0,-3.0,-1.0,0.0,-2.0,0.0
1.6951621705974584e+18,0.0,-1.0,0.0,0.0,1.0,1.0,1.0,-2.0
1.695162170610452e+18,-2.0,-1.0,-2.0,0.0,-1.0,0.0,-1.0,0.0
1.6951621706114514e+18,0.0,-2.0,0.0,0.0,0.0,-2.0,0.0,-1.0
1.6951621706114514e+18,-1.0,0.0,-2.0,-1.0,-1.0,-1.0,-1.0,-2.0
1.6951621706124567e+18,-1.0,0.0,1.0,-1.0,-1.0,0.0,-3.0,-2.0
1.6951621706325967e+18,-1.0,1.0,-1.0,0.0,-2.0,-1.0,1.0,0.0
1.6951621706335718e+18,-1.0,0.0,-1.0,-3.0,-3.0,0.0,0.0,-1.0
1.6951621706335718e+18,-1.0,-1.0,-1.0,0.0,0.0,-1.0,0.0,-1.0
1.6951621706335718e+18,0.0,-1.0,-1.0,0.0,-1.0,-1.0,0.0,1.0
1.6951621706556096e+18,-2.0,-3.0,1.0,0.0,0.0,0.0,-1.0,-2.0
1.6951621706566093e+18,0.0,-2.0,-2.0,1.0,-1.0,-1.0,-2.0,-1.0
1.6951621706566093e+18,-1.0,0.0,-1.0,0.0,0.0,0.0,-1.0,-1.0
1.6951621706576438e+18,0.0,-1.0,-2.0,-1.0,-2.0,-2.0,-1.0,0.0
1.6951621706731732e+18,-1.0,0.0,0.0,-1.0,2.0,0.0,-1.0,1.0
1.6951621706731732e+18,0.0,-1.0,-1.0,0.0,-1.0,-2.0,-1.0,-1.0
1.6951621706731732e+18,0.0,-2.0,-1.0,0.0,-2.0,1.0,-1.0,-1.0
1.6951621706741798e+18,-1.0,-1.0,0.0,0.0,1.0,0.0,-2.0,0.0
1.695162170693488e+18,0.0,0.0,1.0,-4.0,-1.0,-2.0,0.0,-2.0
1.695162170694493e+18,-1.0,0.0,-1.0,-1.0,-1.0,1.0,0.0,-1.0
1.695162170694493e+18,-1.0,0.0,-1.0,-1.0,0.0,-2.0,-2.0,0.0
1.695162170694493e+18,-1.0,-1.0,0.0,-3.0,-1.0,0.0,-2.0,-1.0
1.6951621707265257e+18,-1.0,-2.0,-3.0,1.0,-2.0,-1.0,-1.0,-1.0
1.695162170727525e+18,-2.0,0.0,-2.0,0.0,0.0,-1.0,0.0,0.0
1.6951621707325215e+18,-2.0,-1.0,0.0,0.0,1.0,-1.0,1.0,-1.0
1.6951621707335299e+18,0.0,0.0,-2.0,0.0,2.0,0.0,-1.0,-1.0
1.6951621707335299e+18,-2.0,0.0,-1.0,-1.0,-1.0,-1.0,-1.0,-1.0
1.6951621707345206e+18,0.0,0.0,0.0,-2.0,-1.0,0.0,-1.0,-1.0
1.6951621707355277e+18,0.0,-1.0,-2.0,1.0,-1.0,-1.0,-1.0,-2.0
1.6951621707365202e+18,-1.0,-1.0,-3.0,-2.0,-1.0,-2.0,0.0,0.0
1.6951621707545088e+18,-2.0,-2.0,-1.0,-1.0,0.0,0.0,0.0,-1.0
1.695162170755508e+18,-1.0,-2.0,-1.0,-1.0,0.0,0.0,0.0,-1.0
1.6951621707565082e+18,-1.0,0.0,0.0,-2.0,-2.0,0.0,-1.0,-2.0
1.6951621707575122e+18,-1.0,0.0,0.0,-1.0,-2.0,-2.0,0.0,-1.0
1.6951621707834906e+18,1.0,-1.0,-1.0,0.0,0.0,-2.0,-3.0,0.0
1.6951621707844902e+18,0.0,1.0,0.0,1.0,0.0,0.0,-1.0,0.0
1.6951621707844902e+18,0.0,0.0,-1.0,-1.0,0.0,0.0,-1.0,-1.0
1.6951621707854945e+18,0.0,-1.0,-2.0,0.0,0.0,0.0,0.0,0.0
1.6951621707984865e+18,0.0,0.0,1.0,2.0,0.0,0.0,-1.0,1.0
1.695162170799484e+18,-1.0,-1.0,-1.0,-1.0,0.0,-1.0,-1.0,-2.0
1.695162170799484e+18,0.0,-1.0,-2.0,-2.0,0.0,-1.0,-1.0,1.0
1.6951621708004815e+18,-1.0,-2.0,0.0,0.0,-1.0,0.0,-2.0,-2.0
1.695162170813473e+18,-1.0,-1.0,0.0,-2.0,0.0,-1.0,-1.0,-2.0
1.695162170813473e+18,-1.0,-1.0,-1.0,-1.0,-1.0,-1.0,-3.0,-1.0
1.6951621708144742e+18,-3.0,0.0,-1.0,-1.0,1.0,-1.0,-1.0,0.0
1.6951621708154716e+18,-1.0,1.0,0.0,1.0,-1.0,-1.0,-1.0,0.0
1.695162170843455e+18,0.0,0.0,0.0,-1.0,-1.0,0.0,-1.0,-2.0
1.695162170843455e+18,-1.0,-1.0,-1.0,-1.0,-1.0,-1.0,-1.0,-1.0
1.6951621708444557e+18,-2.0,-1.0,-1.0,0.0,0.0,-1.0,-2.0,0.0
1.6951621708444557e+18,-2.0,0.0,-1.0,-1.0,0.0,0.0,0.0,1.0
1.6951621708504566e+18,0.0,-1.0,-2.0,-3.0,-1.0,-1.0,-2.0,0.0
1.6951621708504566e+18,1.0,1.0,0.0,-2.0,0.0,-1.0,-1.0,-1.0
1.6951621708514514e+18,-1.0,-1.0,-1.0,0.0,-1.0,0.0,1.0,-1.0
1.6951621708514514e+18,-1.0,0.0,-2.0,-1.0,0.0,-1.0,0.0,-1.0
1.6951621708724385e+18,0.0,0.0,-1.0,0.0,-1.0,-2.0,-1.0,-1.0
1.6951621708734385e+18,-1.0,-1.0,0.0,0.0,1.0,-1.0,0.0,-1.0
1.6951621708734385e+18,1.0,-1.0,-1.0,0.0,-3.0,-1.0,-1.0,0.0
1.6951621708734385e+18,-2.0,-2.0,1.0,0.0,-2.0,-1.0,0.0,-1.0
1.6951621708954253e+18,0.0,-1.0,1.0,-1.0,-2.0,0.0,-1.0,0.0
1.6951621708954253e+18,1.0,-1.0,-1.0,-2.0,-1.0,0.0,-1.0,0.0
1.6951621708954253e+18,-1.0,-2.0,0.0,-1.0,0.0,0.0,0.0,0.0
1.695162170896425e+18,-1.0,-1.0,-1.0,-2.0,-2.0,0.0,0.0,-2.0
1.6951621709114194e+18,-1.0,0.0,-2.0,-1.0,0.0,-2.0,0.0,-1.0
1.6951621709114194e+18,-1.0,-1.0,0.0,-1.0,-3.0,1.0,0.0,-1.0
1.6951621709124183e+18,1.0,-2.0,-1.0,-1.0,0.0,-1.0,-1.0,-1.0
1.6951621709124183e+18,-2.0,0.0,-1.0,0.0,0.0,0.0,-2.0,-2.0
1.6951621709354033e+18,0.0,-1.0,0.0,-1.0,0.0,0.0,-1.0,-1.0
1.695162170936404e+18,-1.0,0.0,-1.0,0.0,2.0,0.0,-1.0,-1.0
1.695162170936404e+18,-1.0,0.0,0.0,0.0,0.0,-1.0,0.0,-2.0
1.695162170936404e+18,-1.0,-2.0,-2.0,-1.0,-1.0,-1.0,-1.0,-1.0
1.6951621709553925e+18,-2.0,1.0,-2.0,0.0,-1.0,-2.0,-2.0,0.0
1.6951621709553925e+18,-2.0,-2.0,-1.0,-1.0,-3.0,-1.0,-1.0,-1.0
1.6951621709553925e+18,0.0,-2.0,-2.0,-1.0,-2.0,0.0,-2.0,-1.0
1.6951621709563904e+18,0.0,-1.0,-1.0,-1.0,2.0,0.0,-1.0,-3.0
1.6951621709703887e+18,0.0,-1.0,0.0,0.0,0.0,0.0,1.0,-1.0
1.6951621709703887e+18,1.0,0.0,2.0,2.0,-3.0,-1.0,-1.0,1.0
1.6951621709713825e+18,-2.0,0.0,1.0,0.0,-1.0,-3.0,1.0,-1.0
1.695162170978379e+18,0.0,-2.0,-1.0,0.0,-1.0,-2.0,-1.0,0.0
1.6951621709923704e+18,-2.0,-1.0,-1.0,-2.0,1.0,-1.0,0.0,-2.0
1.6951621709923704e+18,-1.0,-1.0,-1.0,1.0,0.0,0.0,0.0,-2.0
1.6951621710073633e+18,-2.0,-2.0,1.0,-1.0,-1.0,-2.0,0.0,-2.0
1.695162171008363e+18,-1.0,-1.0,0.0,-1.0,-1.0,1.0,0.0,-1.0
1.695162171018355e+18,-1.0,-1.0,0.0,-2.0,-1.0,0.0,-1.0,-1.0
1.695162171018355e+18,0.0,-2.0,1.0,-1.0,1.0,-2.0,-1.0,0.0
1.695162171018355e+18,-2.0,0.0,-1.0,0.0,0.0,0.0,-2.0,0.0
1.695162171018355e+18,1.0,-1.0,0.0,-1.0,-1.0,0.0,-2.0,-1.0
1.695162171030358e+18,0.0,-1.0,-1.0,3.0,-1.0,0.0,0.0,0.0
1.695162171030358e+18,1.0,-1.0,-2.0,-2.0,1.0,0.0,-1.0,-1.0
1.6951621710313482e+18,-1.0,0.0,-2.0,-1.0,0.0,0.0,1.0,1.0
1.6951621710313482e+18,-1.0,-1.0,0.0,0.0,1.0,-2.0,-1.0,0.0
1.695162171055334e+18,-1.0,-2.0,-1.0,-1.0,-1.0,-2.0,0.0,0.0
1.695162171055334e+18,0.0,-1.0,-3.0,-2.0,-1.0,-2.0,-1.0,1.0
1.695162171055334e+18,0.0,-1.0,0.0,-2.0,0.0,0.0,0.0,0.0
1.6951621710563333e+18,-2.0,0.0,1.0,-1.0,-1.0,0.0,-1.0,0.0
1.6951621710753224e+18,-1.0,-2.0,1.0,1.0,1.0,1.0,0.0,-1.0
1.6951621710753224e+18,-2.0,1.0,0.0,0.0,-1.0,-2.0,-1.0,0.0
1.695162171076322e+18,-1.0,-1.0,0.0,-3.0,-1.0,0.0,1.0,-1.0
1.695162171076322e+18,0.0,0.0,-3.0,-2.0,-1.0,0.0,0.0,-2.0
1.695162171098311e+18,-3.0,0.0,-2.0,-1.0,-1.0,-1.0,-2.0,-1.0
1.695162171098311e+18,0.0,0.0,0.0,0.0,-1.0,0.0,0.0,-2.0
1.69516217109931e+18,1.0,-1.0,-1.0,0.0,-1.0,-1.0,-2.0,-1.0
1.69516217109931e+18,-3.0,-2.0,0.0,-1.0,-1.0,0.0,0.0,-1.0
1.6951621711128996e+18,-1.0,0.0,-2.0,-1.0,-1.0,-2.0,-1.0,-2.0
1.6951621711128996e+18,-2.0,-1.0,-1.0,-1.0,-2.0,-1.0,1.0,0.0
1.6951621711138975e+18,-1.0,-1.0,0.0,1.0,-1.0,-2.0,-3.0,-1.0
1.6951621711138975e+18,-2.0,-2.0,-1.0,1.0,-1.0,0.0,-1.0,0.0
1.695162171135541e+18,0.0,0.0,-1.0,0.0,-1.0,0.0,1.0,-1.0
1.695162171136546e+18,-2.0,-1.0,-3.0,-1.0,0.0,-1.0,-1.0,0.0
1.695162171136546e+18,-1.0,0.0,0.0,-2.0,-1.0,2.0,-1.0,-1.0
1.695162171137546e+18,0.0,0.0,-1.0,-1.0,0.0,-2.0,-3.0,-1.0
1.695162171150532e+18,0.0,-2.0,1.0,-1.0,-1.0,1.0,-3.0,0.0
1.695162171150532e+18,-1.0,0.0,0.0,0.0,0.0,2.0,0.0,-2.0
1.6951621711585275e+18,0.0,-2.0,-1.0,0.0,0.0,-2.0,-1.0,0.0
1.6951621711595282e+18,0.0,0.0,-2.0,1.0,-2.0,0.0,-1.0,-1.0
1.6951621711865116e+18,-2.0,-1.0,-2.0,-2.0,-2.0,-1.0,1.0,1.0
1.6951621711925082e+18,1.0,-2.0,-1.0,0.0,-1.0,0.0,0.0,0.0
1.6951621711925082e+18,-1.0,-1.0,-1.0,-1.0,-1.0,-1.0,0.0,-2.0
1.695162171193511e+18,0.0,-3.0,-1.0,0.0,-2.0,-2.0,-1.0,0.0
1.6951621712035046e+18,2.0,0.0,1.0,0.0,0.0,-1.0,0.0,-1.0
1.6951621712045005e+18,-2.0,-2.0,0.0,-2.0,-1.0,0.0,-1.0,-1.0
1.6951621712055e+18,-1.0,1.0,-1.0,-1.0,-1.0,0.0,0.0,-1.0
1.6951621712055e+18,0.0,0.0,0.0,-1.0,0.0,0.0,1.0,-1.0
1.695162171209496e+18,1.0,-1.0,-3.0,0.0,-3.0,0.0,-1.0,-1.0
1.695162171209496e+18,-1.0,1.0,0.0,-2.0,-1.0,-1.0,-1.0,0.0
1.695162171225489e+18,-1.0,-1.0,-1.0,-1.0,0.0,-2.0,0.0,0.0
1.695162171226491e+18,-2.0,-2.0,-2.0,-3.0,-1.0,-1.0,2.0,-1.0
1.6951621712414794e+18,-2.0,-1.0,0.0,-1.0,0.0,0.0,-1.0,1.0
1.6951621712414794e+18,0.0,-1.0,-1.0,1.0,0.0,-2.0,-1.0,0.0
1.6951621712424814e+18,1.0,1.0,-1.0,0.0,-3.0,-1.0,-1.0,-1.0
1.6951621712424814e+18,0.0,1.0,2.0,-1.0,-1.0,-2.0,-2.0,-1.0
1.6951621712554706e+18,0.0,0.0,-2.0,-2.0,-1.0,-2.0,0.0,-1.0
1.6951621712554706e+18,-1.0,0.0,0.0,-1.0,-1.0,2.0,-1.0,-1.0
1.6951621712684646e+18,0.0,-3.0,-1.0,-1.0,0.0,-1.0,-1.0,1.0
1.6951621712744635e+18,0.0,0.0,1.0,1.0,1.0,-1.0,-1.0,0.0
1.6951621712784576e+18,0.0,-1.0,0.0,0.0,-1.0,0.0,-1.0,-1.0
1.6951621712794606e+18,0.0,0.0,-2.0,-1.0,-3.0,0.0,-1.0,-3.0
1.6951621712794606e+18,-1.0,-2.0,-2.0,-2.0,-1.0,1.0,-1.0,1.0
1.6951621712794606e+18,0.0,0.0,-1.0,-1.0,0.0,0.0,-1.0,1.0
1.6951621712924733e+18,0.0,-2.0,-2.0,-1.0,1.0,-1.0,0.0,0.0
1.6951621712934495e+18,0.0,-1.0,-1.0,0.0,-1.0,-1.0,-2.0,-1.0
1.6951621713004447e+18,-1.0,-1.0,-2.0,-1.0,-1.0,0.0,0.0,-1.0
1.6951621713004447e+18,-1.0,-1.0,0.0,-1.0,1.0,-1.0,1.0,-1.0
1.695162171315439e+18,-2.0,-1.0,1.0,-1.0,-1.0,-1.0,-1.0,-1.0
1.695162171315439e+18,-1.0,0.0,-1.0,-1.0,-1.0,-1.0,-2.0,-2.0
1.6951621713164367e+18,-1.0,-1.0,-1.0,0.0,-2.0,-1.0,-3.0,-1.0
1.6951621713164367e+18,-2.0,1.0,-2.0,-2.0,-2.0,-1.0,-1.0,-1.0
1.6951621713414461e+18,0.0,0.0,-1.0,-2.0,-2.0,0.0,-1.0,0.0
1.6951621713434442e+18,-1.0,1.0,0.0,0.0,-1.0,-2.0,-1.0,-2.0
1.6951621713444252e+18,1.0,-1.0,-1.0,0.0,0.0,0.0,-1.0,-1.0
1.6951621713444252e+18,1.0,0.0,-2.0,0.0,0.0,-2.0,0.0,0.0
1.6951621713534144e+18,-1.0,0.0,-2.0,0.0,0.0,-1.0,-1.0,-1.0
1.6951621713534144e+18,0.0,-1.0,-2.0,1.0,-1.0,-1.0,-1.0,-1.0
1.6951621713544164e+18,-2.0,-1.0,1.0,-1.0,0.0,1.0,-1.0,-1.0
1.6951621713544164e+18,-1.0,-1.0,-2.0,-1.0,-2.0,1.0,-2.0,0.0
1.6951621713754048e+18,-1.0,0.0,-1.0,0.0,-1.0,-1.0,-2.0,0.0
1.6951621713754048e+18,-1.0,0.0,0.0,0.0,-1.0,-1.0,-2.0,0.0
1.6951621713764017e+18,-1.0,0.0,-1.0,-1.0,-2.0,-3.0,-1.0,0.0
1.6951621713764017e+18,-1.0,1.0,1.0,0.0,-1.0,-2.0,0.0,-1.0
1.6951621713913935e+18,-1.0,-1.0,-2.0,-2.0,-1.0,-1.0,0.0,0.0
1.6951621713913935e+18,-1.0,-2.0,-1.0,0.0,-1.0,-1.0,0.0,0.0
1.6951621713983903e+18,-1.0,0.0,1.0,1.0,-1.0,0.0,0.0,0.0
1.6951621713983903e+18,-1.0,0.0,0.0,-2.0,-1.0,0.0,0.0,-2.0
1.6951621714213773e+18,-1.0,0.0,-1.0,1.0,-1.0,-2.0,-1.0,-1.0
1.6951621714213773e+18,0.0,-2.0,-2.0,-1.0,-1.0,-2.0,0.0,0.0
1.695162171422376e+18,-2.0,0.0,1.0,-1.0,0.0,0.0,-2.0,0.0
1.695162171422376e+18,0.0,-2.0,-1.0,0.0,0.0,-2.0,-1.0,1.0
1.6951621714373688e+18,0.0,-2.0,1.0,1.0,0.0,0.0,0.0,-1.0
1.6951621714373688e+18,-2.0,-1.0,-1.0,-1.0,0.0,0.0,1.0,0.0
1.6951621714503585e+18,-1.0,-2.0,-2.0,0.0,1.0,-2.0,-1.0,-2.0
1.6951621714503585e+18,-1.0,0.0,-1.0,-2.0,-1.0,-1.0,-2.0,-2.0
1.6951621714583542e+18,-2.0,-1.0,0.0,-2.0,-2.0,-2.0,-2.0,-2.0
1.6951621714583542e+18,-2.0,0.0,0.0,-3.0,0.0,-1.0,-2.0,0.0
1.6951621714593536e+18,-1.0,-2.0,-2.0,-1.0,-1.0,-1.0,-1.0,-1.0
1.6951621714593536e+18,-3.0,-2.0,-3.0,0.0,-3.0,-1.0,-1.0,-2.0
1.6951621714813407e+18,-3.0,-2.0,-2.0,1.0,-1.0,0.0,0.0,-2.0
1.6951621714813407e+18,-2.0,-4.0,-2.0,-1.0,0.0,-1.0,-1.0,-2.0
1.6951621714813407e+18,-2.0,-1.0,-1.0,1.0,-2.0,-1.0,-1.0,-3.0
1.6951621714813407e+18,0.0,0.0,-3.0,-3.0,-1.0,-2.0,-2.0,-1.0
1.6951621715033313e+18,-1.0,-1.0,-1.0,-1.0,0.0,0.0,0.0,-1.0
1.6951621715043277e+18,-1.0,-1.0,0.0,-2.0,0.0,-2.0,-1.0,-1.0
1.6951621715043277e+18,0.0,-1.0,-2.0,0.0,-1.0,-2.0,-1.0,-1.0
1.6951621715043277e+18,0.0,-2.0,0.0,-1.0,-3.0,-1.0,-1.0,-1.0
1.6951621715183432e+18,-4.0,-2.0,-1.0,-3.0,-1.0,-1.0,-1.0,-1.0
1.6951621715183432e+18,0.0,-3.0,-2.0,0.0,-1.0,0.0,-1.0,-1.0
1.695162171519321e+18,-3.0,-1.0,-1.0,-2.0,0.0,-1.0,0.0,-2.0
1.695162171519321e+18,0.0,-1.0,-1.0,2.0,-1.0,-1.0,0.0,-1.0
1.6951621715323356e+18,0.0,0.0,-2.0,1.0,0.0,-1.0,-2.0,-2.0
1.6951621715333107e+18,0.0,0.0,1.0,0.0,0.0,0.0,-2.0,-1.0
1.6951621715333107e+18,-1.0,-1.0,0.0,-2.0,0.0,-2.0,0.0,-1.0
1.6951621715333107e+18,-1.0,0.0,0.0,2.0,1.0,1.0,-2.0,-1.0
1.6951621715635072e+18,0.0,1.0,0.0,-2.0,0.0,-2.0,1.0,-2.0
1.6951621715635072e+18,-1.0,0.0,-1.0,0.0,-2.0,0.0,0.0,-1.0
1.6951621715645071e+18,-1.0,-2.0,-2.0,-1.0,0.0,0.0,0.0,-1.0
1.6951621715645071e+18,-1.0,-1.0,1.0,-2.0,0.0,-1.0,0.0,-1.0
1.695162171578499e+18,-1.0,-1.0,-1.0,1.0,-2.0,1.0,-1.0,-1.0
1.695162171578499e+18,2.0,-1.0,-1.0,-1.0,-1.0,0.0,-1.0,-2.0
1.695162171579498e+18,1.0,-1.0,-1.0,-2.0,-1.0,1.0,1.0,-1.0
1.695162171579498e+18,-1.0,-1.0,-1.0,-1.0,-1.0,-1.0,-1.0,-1.0
1.69516217159249e+18,0.0,-1.0,0.0,0.0,0.0,-1.0,-1.0,0.0
1.69516217159249e+18,-2.0,-1.0,0.0,0.0,0.0,-4.0,1.0,1.0
1.6951621715935288e+18,-2.0,0.0,0.0,1.0,1.0,2.0,2.0,2.0
1.6951621715935288e+18,-1.0,-1.0,2.0,-1.0,0.0,2.0,1.0,0.0
1.6951621716155466e+18,0.0,1.0,2.0,-1.0,2.0,0.0,0.0,-1.0
1.6951621716155466e+18,-1.0,1.0,3.0,-1.0,-1.0,0.0,0.0,0.0
1.6951621716155466e+18,1.0,2.0,0.0,0.0,-3.0,-2.0,-3.0,-1.0
1.695162171616556e+18,1.0,0.0,-1.0,2.0,4.0,0.0,0.0,1.0
1.6951621716385738e+18,0.0,1.0,-1.0,-1.0,0.0,2.0,1.0,1.0
1.6951621716395768e+18,2.0,-1.0,-2.0,-5.0,-6.0,3.0,-1.0,0.0
1.6951621716395768e+18,0.0,-1.0,0.0,-1.0,-4.0,-5.0,-4.0,1.0
1.6951621716395768e+18,0.0,0.0,1.0,0.0,-4.0,-11.0,-5.0,-2.0
1.6951621716525678e+18,-1.0,-1.0,1.0,4.0,-1.0,7.0,4.0,0.0
1.695162171653565e+18,1.0,1.0,1.0,3.0,-1.0,3.0,1.0,1.0
1.695162171653565e+18,2.0,2.0,0.0,-17.0,-10.0,-1.0,0.0,-1.0
1.6951621716545692e+18,-1.0,0.0,2.0,4.0,5.0,1.0,0.0,0.0
1.6951621716755725e+18,1.0,-1.0,-5.0,8.0,14.0,1.0,-1.0,-1.0
1.6951621716755725e+18,-2.0,-1.0,-2.0,1.0,-2.0,1.0,-2.0,-3.0
1.695162171676051e+18,0.0,-1.0,-1.0,3.0,6.0,-6.0,-2.0,-2.0
1.695162171676051e+18,0.0,1.0,1.0,1.0,0.0,6.0,0.0,-1.0
1.6951621717087585e+18,-1.0,-1.0,0.0,-6.0,1.0,-3.0,0.0,-1.0
1.6951621717097582e+18,-1.0,-2.0,0.0,2.0,2.0,-8.0,2.0,1.0
1.6951621717097582e+18,-1.0,1.0,3.0,3.0,1.0,21.0,3.0,0.0
1.6951621717097582e+18,0.0,-2.0,-4.0,-7.0,-6.0,2.0,3.0,1.0
1.695162171720751e+18,-2.0,-2.0,-1.0,-1.0,-11.0,-8.0,-5.0,-3.0
1.6951621717217516e+18,-1.0,1.0,-1.0,-1.0,-10.0,-22.0,-7.0,-3.0
1.695162171722751e+18,-2.0,-2.0,-1.0,2.0,9.0,6.0,-1.0,0.0
1.695162171722751e+18,-1.0,-1.0,-8.0,-5.0,12.0,16.0,1.0,1.0
1.6951621717354112e+18,-1.0,-2.0,-2.0,-2.0,0.0,-2.0,-1.0,0.0
1.695162171736412e+18,-1.0,1.0,-3.0,-2.0,-8.0,-4.0,0.0,1.0
1.695162171736412e+18,-2.0,0.0,0.0,6.0,-11.0,-16.0,-2.0,-2.0
1.695162171736412e+18,-2.0,-3.0,-2.0,-2.0,-10.0,-3.0,-4.0,-2.0
1.6951621717577324e+18,0.0,1.0,-7.0,-9.0,0.0,1.0,-2.0,-1.0
1.6951621717577324e+18,-1.0,-1.0,3.0,1.0,6.0,2.0,0.0,-3.0
1.695162171758749e+18,0.0,1.0,-2.0,8.0,11.0,7.0,0.0,2.0
1.695162171758749e+18,-3.0,-8.0,-7.0,-11.0,-13.0,-15.0,-9.0,-6.0
1.6951621717732352e+18,-1.0,-3.0,6.0,-4.0,-29.0,-16.0,-12.0,-2.0
1.6951621717732352e+18,-5.0,-7.0,-7.0,-1.0,11.0,1.0,2.0,-5.0
1.6951621717732352e+18,-1.0,0.0,0.0,2.0,6.0,9.0,-1.0,4.0
1.6951621717732352e+18,2.0,1.0,2.0,4.0,9.0,16.0,13.0,0.0
1.6951621717952177e+18,3.0,3.0,2.0,5.0,16.0,14.0,-2.0,3.0
1.6951621717952177e+18,1.0,2.0,-4.0,1.0,3.0,11.0,-6.0,4.0
1.695162171796215e+18,-5.0,-5.0,-6.0,-15.0,-15.0,-39.0,-30.0,-10.0
1.695162171796215e+18,0.0,-2.0,-1.0,-3.0,-18.0,11.0,33.0,4.0
1.6951621718172262e+18,0.0,1.0,-3.0,-7.0,-22.0,-5.0,13.0,1.0
1.6951621718182129e+18,2.0,4.0,6.0,10.0,31.0,21.0,-12.0,-3.0
1.6951621718182129e+18,0.0,5.0,-4.0,-4.0,7.0,-15.0,-19.0,-10.0
1.6951621718182129e+18,1.0,-4.0,0.0,7.0,10.0,9.0,2.0,4.0
1.6951621718321966e+18,-1.0,1.0,-2.0,-5.0,-3.0,0.0,-1.0,0.0
1.6951621718331968e+18,-1.0,-4.0,0.0,-5.0,-26.0,-29.0,-18.0,-4.0
1.695162171840191e+18,-1.0,0.0,3.0,-3.0,-9.0,-4.0,12.0,0.0
1.695162171840191e+18,2.0,6.0,5.0,2.0,-12.0,-11.0,0.0,0.0
1.6951621718549783e+18,-2.0,2.0,-3.0,6.0,23.0,14.0,-46.0,-8.0
1.695162171855947e+18,2.0,2.0,3.0,5.0,15.0,34.0,67.0,15.0
1.695162171855947e+18,-2.0,-4.0,-5.0,1.0,7.0,-3.0,-4.0,2.0
1.695162171855947e+18,0.0,2.0,6.0,11.0,4.0,-5.0,9.0,-1.0
1.6951621718786222e+18,-5.0,-8.0,-10.0,-21.0,-20.0,-25.0,-11.0,-6.0
1.6951621718786222e+18,-3.0,-3.0,-5.0,-8.0,-17.0,-16.0,-35.0,-2.0
1.6951621718796216e+18,1.0,-1.0,8.0,4.0,2.0,8.0,2.0,-2.0
1.6951621718796216e+18,1.0,5.0,3.0,0.0,-5.0,-25.0,-10.0,3.0
1.6951621718935785e+18,1.0,-1.0,2.0,12.0,10.0,43.0,43.0,3.0
1.6951621718935785e+18,-2.0,-4.0,-9.0,-8.0,11.0,-8.0,4.0,-1.0
1.6951621718945764e+18,1.0,1.0,0.0,-5.0,-11.0,11.0,8.0,-1.0
1.6951621718945764e+18,-2.0,-4.0,-3.0,0.0,7.0,-3.0,-15.0,-1.0
1.695162171917534e+18,-2.0,1.0,-1.0,6.0,10.0,-3.0,8.0,2.0
1.695162171917534e+18,-3.0,-7.0,-2.0,-9.0,-21.0,-12.0,-9.0,-3.0
1.6951621719185336e+18,2.0,-2.0,4.0,9.0,13.0,10.0,11.0,5.0
1.6951621719185336e+18,-2.0,2.0,0.0,0.0,-10.0,-2.0,-14.0,-4.0
1.6951621719465172e+18,0.0,-1.0,-10.0,-19.0,0.0,-11.0,-2.0,-4.0
1.6951621719475172e+18,2.0,5.0,-8.0,-10.0,-5.0,11.0,-2.0,4.0
1.6951621719475172e+18,-3.0,-1.0,15.0,28.0,-1.0,-20.0,-19.0,-3.0
1.6951621719475172e+18,-3.0,-7.0,-9.0,-12.0,-7.0,-16.0,-35.0,-5.0
1.6951621719691745e+18,2.0,0.0,7.0,1.0,14.0,14.0,35.0,5.0
1.6951621719691745e+18,4.0,2.0,-1.0,3.0,2.0,15.0,-8.0,4.0
1.6951621719691745e+18,-1.0,-3.0,-15.0,-20.0,-10.0,0.0,8.0,3.0
1.6951621719691745e+18,-3.0,2.0,13.0,11.0,12.0,6.0,-10.0,-6.0
1.6951621719850156e+18,0.0,0.0,5.0,8.0,-4.0,-18.0,-17.0,-2.0
1.6951621719850156e+18,-2.0,0.0,-6.0,1.0,-18.0,-17.0,-3.0,-5.0
1.6951621719860145e+18,3.0,3.0,-7.0,-14.0,6.0,14.0,10.0,3.0
1.6951621719860145e+18,0.0,1.0,1.0,1.0,4.0,7.0,-3.0,-1.0
1.6951621720075796e+18,-1.0,-3.0,-4.0,-10.0,-12.0,5.0,11.0,1.0
1.6951621720075796e+18,-4.0,-6.0,8.0,16.0,-4.0,-18.0,8.0,-4.0
1.6951621720085788e+18,1.0,1.0,-1.0,-2.0,15.0,8.0,-1.0,-4.0
1.6951621720085788e+18,-1.0,-3.0,-5.0,10.0,5.0,2.0,19.0,2.0
1.6951621720505551e+18,-3.0,-2.0,-1.0,-12.0,-28.0,-29.0,-24.0,2.0
1.6951621720605501e+18,1.0,1.0,8.0,-3.0,-2.0,-3.0,19.0,-3.0
1.6951621720605501e+18,-3.0,-5.0,-11.0,-4.0,6.0,24.0,11.0,-4.0
1.6951621720605501e+18,3.0,1.0,-4.0,-9.0,-3.0,-39.0,6.0,1.0
1.6951621720615483e+18,2.0,4.0,11.0,21.0,31.0,76.0,-2.0,3.0
1.695162172062548e+18,-1.0,0.0,2.0,2.0,19.0,-26.0,-7.0,-5.0
1.695162172062548e+18,-3.0,-6.0,-8.0,-23.0,-43.0,-26.0,-2.0,-1.0
1.695162172062548e+18,-2.0,-1.0,-1.0,4.0,-17.0,-45.0,-3.0,-5.0
1.6951621720635471e+18,1.0,-2.0,-10.0,5.0,15.0,53.0,17.0,4.0
1.6951621720635471e+18,3.0,4.0,1.0,-7.0,37.0,40.0,1.0,3.0
1.6951621720725414e+18,0.0,0.0,-7.0,-3.0,-1.0,-8.0,-2.0,-2.0
1.6951621720735414e+18,-4.0,-4.0,12.0,12.0,-6.0,11.0,3.0,-1.0
1.695162172083538e+18,-2.0,-2.0,-4.0,-12.0,-20.0,-62.0,-12.0,-5.0
1.695162172084536e+18,-5.0,-4.0,6.0,15.0,-8.0,3.0,-5.0,-5.0
1.6951621720855375e+18,0.0,-3.0,-2.0,-7.0,-6.0,6.0,12.0,-1.0
1.6951621720865413e+18,0.0,0.0,-2.0,2.0,-18.0,-7.0,-3.0,-1.0
1.6951621721514967e+18,1.0,5.0,10.0,11.0,13.0,3.0,21.0,1.0
1.6951621721514967e+18,-1.0,-3.0,-10.0,-6.0,4.0,16.0,5.0,4.0
1.6951621721724849e+18,3.0,-5.0,12.0,8.0,6.0,-2.0,8.0,8.0
1.6951621721744837e+18,-1.0,-2.0,-27.0,-25.0,-4.0,21.0,-10.0,-4.0
1.6951621721744837e+18,-4.0,-12.0,15.0,21.0,-1.0,-16.0,-2.0,-4.0
1.6951621721764828e+18,-1.0,-6.0,-5.0,-2.0,-16.0,-28.0,-16.0,-5.0
1.6951621721774815e+18,-2.0,7.0,-12.0,-14.0,23.0,21.0,-2.0,0.0
1.6951621721774815e+18,3.0,7.0,2.0,0.0,13.0,30.0,17.0,2.0
1.69516217217849e+18,0.0,-3.0,7.0,9.0,-7.0,-5.0,-12.0,-2.0
1.69516217217849e+18,-1.0,2.0,-6.0,-9.0,5.0,-1.0,5.0,0.0
1.6951621721874765e+18,0.0,3.0,-8.0,-1.0,8.0,-18.0,-12.0,-1.0
1.695162172189475e+18,1.0,5.0,10.0,3.0,-7.0,21.0,-3.0,-3.0
1.695162172189475e+18,-2.0,5.0,1.0,15.0,17.0,10.0,33.0,1.0
1.695162172189475e+18,-1.0,-4.0,1.0,1.0,11.0,6.0,-18.0,0.0
1.695162172190478e+18,0.0,-3.0,-3.0,-10.0,-21.0,-20.0,-16.0,-4.0
1.695162172190478e+18,0.0,-2.0,3.0,-4.0,-9.0,-7.0,6.0,3.0
1.695162172202467e+18,-4.0,-4.0,-5.0,-1.0,1.0,-8.0,-21.0,-5.0
1.695162172204466e+18,-1.0,-6.0,3.0,1.0,6.0,22.0,8.0,3.0
1.6951621722054659e+18,1.0,-1.0,5.0,4.0,11.0,11.0,18.0,7.0
1.6951621722064645e+18,1.0,0.0,-5.0,-2.0,12.0,11.0,5.0,-10.0
1.6951621722064645e+18,-1.0,-2.0,-3.0,-11.0,-25.0,-22.0,-20.0,-2.0
1.695162172207471e+18,-1.0,1.0,2.0,-3.0,-6.0,-16.0,-9.0,-3.0
1.695162172223455e+18,0.0,-1.0,2.0,14.0,2.0,6.0,3.0,-1.0
1.695162172224455e+18,-2.0,-4.0,-7.0,-9.0,-3.0,-6.0,-24.0,-5.0
1.6951621722254546e+18,-1.0,0.0,2.0,1.0,-13.0,-26.0,-15.0,2.0
1.6951621722264612e+18,0.0,-2.0,-6.0,-13.0,0.0,11.0,-11.0,-3.0
1.6951621722384466e+18,-4.0,-4.0,0.0,10.0,7.0,-1.0,-1.0,-7.0
1.6951621722394486e+18,2.0,-1.0,-8.0,-12.0,-3.0,-1.0,-4.0,7.0
1.6951621722394486e+18,-2.0,-2.0,1.0,3.0,6.0,12.0,-1.0,1.0
1.6951621722404477e+18,1.0,3.0,5.0,5.0,3.0,-6.0,2.0,-1.0
1.6951621722614339e+18,-2.0,1.0,-6.0,-14.0,-14.0,-2.0,-15.0,-1.0
1.6951621722614339e+18,-1.0,7.0,-1.0,-3.0,-7.0,-14.0,-16.0,-6.0
1.6951621722624325e+18,-3.0,-2.0,1.0,6.0,1.0,-1.0,-4.0,-6.0
1.6951621722624325e+18,-1.0,-8.0,1.0,-2.0,-7.0,-7.0,3.0,-5.0
1.6951621722914166e+18,1.0,0.0,-11.0,-11.0,-2.0,1.0,10.0,3.0
1.6951621722914166e+18,1.0,15.0,-3.0,7.0,11.0,-12.0,7.0,0.0
1.6951621722924196e+18,0.0,2.0,3.0,5.0,11.0,42.0,23.0,-3.0
1.6951621722924196e+18,1.0,-3.0,-2.0,-2.0,-1.0,-16.0,-8.0,-7.0
1.6951621722974144e+18,-1.0,5.0,-5.0,-6.0,-5.0,0.0,3.0,3.0
1.6951621722984115e+18,-4.0,-15.0,-3.0,-10.0,-6.0,-6.0,2.0,-1.0
1.6951621722984115e+18,2.0,-15.0,12.0,9.0,3.0,1.0,6.0,6.0
1.6951621722984115e+18,-2.0,-1.0,8.0,9.0,-5.0,3.0,-5.0,4.0
1.6951621723223977e+18,0.0,16.0,-19.0,-26.0,1.0,0.0,-13.0,-1.0
1.6951621723223977e+18,-1.0,-20.0,4.0,7.0,7.0,14.0,-4.0,0.0
1.6951621723233964e+18,-2.0,-9.0,0.0,1.0,-2.0,-11.0,2.0,2.0
1.6951621723233964e+18,-2.0,-2.0,-1.0,-3.0,-4.0,-6.0,0.0,-3.0
1.6951621723363901e+18,-3.0,-13.0,5.0,1.0,-1.0,-7.0,-1.0,-4.0
1.6951621723403868e+18,5.0,20.0,0.0,3.0,0.0,16.0,11.0,6.0
1.6951621723403868e+18,-5.0,-3.0,-15.0,-21.0,0.0,-11.0,-15.0,-9.0
1.695162172341386e+18,0.0,4.0,0.0,2.0,-8.0,-9.0,-11.0,-2.0
1.6951621723574006e+18,-5.0,-21.0,7.0,3.0,-6.0,-5.0,24.0,2.0
1.6951621723583782e+18,-1.0,-2.0,4.0,1.0,2.0,7.0,13.0,0.0
1.6951621723583782e+18,1.0,9.0,-3.0,2.0,2.0,1.0,-11.0,-3.0
1.6951621723583782e+18,3.0,-18.0,-1.0,-3.0,5.0,8.0,8.0,8.0
1.6951621724053517e+18,-1.0,3.0,10.0,9.0,2.0,0.0,3.0,-6.0
1.6951621724113492e+18,-4.0,-7.0,-11.0,-11.0,-6.0,-8.0,-33.0,-4.0
1.6951621724123464e+18,0.0,-1.0,8.0,4.0,0.0,6.0,32.0,8.0
1.6951621724123464e+18,-4.0,10.0,-10.0,-8.0,-4.0,-11.0,-17.0,-9.0
1.6951621724123464e+18,2.0,11.0,-5.0,3.0,4.0,7.0,-1.0,5.0
1.6951621724123464e+18,2.0,12.0,-6.0,-3.0,-5.0,-4.0,7.0,0.0
1.6951621724123464e+18,-1.0,-27.0,-1.0,2.0,1.0,5.0,6.0,1.0
1.695162172413345e+18,0.0,2.0,5.0,8.0,7.0,5.0,18.0,0.0
1.6951621724333568e+18,0.0,2.0,4.0,-1.0,-7.0,-3.0,-15.0,-6.0
1.6951621724333568e+18,3.0,6.0,-7.0,2.0,9.0,6.0,27.0,9.0
1.6951621724343327e+18,1.0,10.0,-3.0,-8.0,-18.0,-20.0,-1.0,-1.0
1.6951621724343327e+18,-2.0,-9.0,-2.0,-7.0,-2.0,8.0,-37.0,-2.0
1.695162172464339e+18,1.0,-5.0,11.0,15.0,3.0,1.0,4.0,4.0
1.6951621724653153e+18,-5.0,-11.0,20.0,30.0,13.0,-4.0,-8.0,-5.0
1.6951621724653153e+18,3.0,12.0,-12.0,-28.0,8.0,15.0,3.0,-1.0
1.6951621724653153e+18,-7.0,-13.0,-18.0,-17.0,-15.0,-10.0,13.0,-2.0
1.6951621724673372e+18,-2.0,6.0,1.0,1.0,-4.0,-28.0,-30.0,-17.0
1.6951621724673372e+18,1.0,-2.0,3.0,-2.0,5.0,18.0,11.0,7.0
1.695162172518285e+18,1.0,8.0,9.0,20.0,-4.0,-9.0,-11.0,-3.0
1.6951621725202842e+18,0.0,6.0,-2.0,-4.0,6.0,7.0,11.0,0.0
1.695162172522285e+18,-2.0,-9.0,0.0,0.0,1.0,12.0,10.0,8.0
1.6951621725232852e+18,-1.0,20.0,-9.0,-10.0,-14.0,-34.0,-38.0,-12.0
1.6951621725232852e+18,-6.0,-36.0,3.0,2.0,0.0,-4.0,-4.0,2.0
1.6951621725232852e+18,2.0,5.0,0.0,-1.0,-1.0,18.0,12.0,2.0
1.695162172525281e+18,-1.0,-1.0,4.0,9.0,3.0,-7.0,5.0,0.0
1.695162172525281e+18,4.0,-26.0,2.0,-8.0,2.0,6.0,-5.0,-7.0
1.695162172567257e+18,-2.0,15.0,5.0,13.0,4.0,9.0,-6.0,1.0
1.695162172567257e+18,-1.0,2.0,-8.0,-9.0,-4.0,-3.0,-10.0,-6.0
1.695162172578251e+18,4.0,23.0,-10.0,-6.0,-2.0,0.0,-10.0,-4.0
1.695162172578251e+18,-5.0,-18.0,10.0,8.0,3.0,7.0,14.0,2.0
1.6951621725792504e+18,1.0,5.0,-1.0,8.0,1.0,-3.0,0.0,-1.0
1.6951621725792504e+18,-2.0,6.0,0.0,-4.0,-3.0,-3.0,3.0,-1.0
1.695162172629245e+18,3.0,0.0,-12.0,-17.0,-4.0,0.0,-4.0,1.0
1.6951621726302213e+18,0.0,5.0,-2.0,-7.0,-5.0,-1.0,2.0,-3.0
1.6951621726302213e+18,-3.0,-8.0,3.0,1.0,-8.0,-9.0,-7.0,-4.0
1.6951621726302213e+18,3.0,1.0,2.0,7.0,7.0,4.0,4.0,5.0
1.6951621726322194e+18,0.0,-4.0,7.0,3.0,2.0,2.0,0.0,-1.0
1.6951621726322194e+18,0.0,5.0,-5.0,-5.0,-1.0,0.0,5.0,0.0
1.6951621726602076e+18,1.0,17.0,-8.0,-1.0,-2.0,-2.0,-3.0,-1.0
1.6951621726602076e+18,-2.0,-8.0,0.0,4.0,5.0,3.0,2.0,3.0
1.695162172661205e+18,-4.0,-2.0,3.0,5.0,2.0,-2.0,-1.0,-2.0
1.695162172661205e+18,-2.0,-8.0,-5.0,-4.0,-2.0,-1.0,1.0,0.0
1.6951621726622031e+18,-7.0,-5.0,0.0,1.0,-2.0,-2.0,-3.0,-5.0
1.6951621726622031e+18,1.0,-1.0,-6.0,-8.0,-2.0,-1.0,1.0,5.0
1.695162172666203e+18,2.0,-8.0,2.0,2.0,0.0,-2.0,0.0,2.0
1.695162172666203e+18,-1.0,3.0,4.0,5.0,2.0,0.0,3.0,-1.0
1.6951621726682017e+18,-4.0,-5.0,-1.0,-1.0,-3.0,0.0,-3.0,-1.0
1.6951621726682017e+18,-1.0,0.0,-6.0,-8.0,0.0,-1.0,2.0,0.0
1.695162172712197e+18,2.0,1.0,-6.0,-4.0,0.0,-1.0,-2.0,-1.0
1.695162172712197e+18,-4.0,-4.0,0.0,1.0,-1.0,0.0,0.0,-1.0
1.6951621727131735e+18,0.0,-4.0,0.0,1.0,-3.0,-3.0,-1.0,0.0
1.6951621727131735e+18,1.0,1.0,-3.0,0.0,0.0,2.0,0.0,-3.0
1.6951621727141724e+18,0.0,-1.0,0.0,-1.0,1.0,-2.0,-2.0,-1.0
1.6951621727151747e+18,-1.0,-1.0,-1.0,-1.0,1.0,0.0,2.0,0.0
1.6951621727271647e+18,0.0,-3.0,-1.0,-2.0,0.0,1.0,0.0,-1.0
1.6951621727271647e+18,0.0,1.0,-1.0,1.0,-2.0,-1.0,0.0,-1.0
1.6951621727291674e+18,-1.0,-2.0,0.0,-2.0,-1.0,-2.0,-1.0,-1.0
1.6951621727291674e+18,0.0,-2.0,2.0,0.0,0.0,-1.0,0.0,-1.0
1.6951621727291674e+18,-2.0,2.0,-3.0,-3.0,0.0,-1.0,-1.0,0.0
1.6951621727301642e+18,-2.0,-1.0,0.0,1.0,-1.0,-1.0,-1.0,0.0
1.6951621728081193e+18,1.0,-1.0,0.0,1.0,-1.0,-2.0,-2.0,-2.0
1.695162172809119e+18,-1.0,-2.0,-2.0,-2.0,-1.0,-1.0,0.0,-2.0
1.6951621728141164e+18,-1.0,-3.0,-1.0,-1.0,-2.0,0.0,2.0,0.0
1.6951621728151155e+18,-2.0,0.0,2.0,1.0,-2.0,-4.0,-3.0,-1.0
1.6951621728181133e+18,0.0,0.0,1.0,0.0,0.0,-2.0,0.0,1.0
1.6951621728181133e+18,1.0,1.0,-2.0,2.0,1.0,1.0,0.0,0.0
1.695162172819114e+18,-2.0,-1.0,-1.0,0.0,0.0,2.0,0.0,0.0
1.6951621728201124e+18,1.0,0.0,-1.0,-1.0,0.0,-1.0,-1.0,-1.0
1.6951621728450977e+18,-1.0,0.0,-2.0,0.0,1.0,-2.0,-2.0,-1.0
1.6951621728450977e+18,-2.0,-1.0,0.0,0.0,-2.0,-3.0,-4.0,-2.0
1.6951621728460972e+18,-1.0,0.0,-2.0,0.0,0.0,-1.0,6.0,1.0
1.6951621728460972e+18,-2.0,-1.0,0.0,2.0,-1.0,2.0,2.0,1.0
1.6951621728460972e+18,1.0,-3.0,-1.0,1.0,2.0,1.0,2.0,1.0
1.695162172847098e+18,-2.0,-1.0,0.0,-3.0,0.0,0.0,0.0,-2.0
1.6951621728530957e+18,-2.0,-2.0,-1.0,0.0,-4.0,-1.0,-3.0,-3.0
1.6951621728530957e+18,-2.0,1.0,1.0,-1.0,2.0,-1.0,-1.0,0.0
1.6951621728770788e+18,-1.0,0.0,0.0,-2.0,-4.0,0.0,-1.0,-1.0
1.695162172878079e+18,1.0,-1.0,-2.0,0.0,3.0,-2.0,1.0,-1.0
1.695162172878079e+18,-1.0,-3.0,0.0,-1.0,-1.0,-4.0,-1.0,-1.0
1.695162172878079e+18,0.0,-2.0,-1.0,-1.0,-1.0,7.0,1.0,-2.0
1.695162172879078e+18,0.0,-1.0,0.0,1.0,1.0,0.0,0.0,1.0
1.6951621728800778e+18,0.0,-1.0,1.0,0.0,-3.0,-3.0,-2.0,-1.0
1.6951621729130598e+18,-1.0,-4.0,0.0,0.0,1.0,1.0,0.0,-2.0
1.6951621729130598e+18,0.0,1.0,-1.0,0.0,-1.0,-4.0,-2.0,-2.0
1.6951621729299274e+18,-2.0,0.0,0.0,-3.0,-3.0,-2.0,-1.0,0.0
1.6951621729299274e+18,-2.0,0.0,1.0,-1.0,-4.0,-1.0,0.0,0.0
1.695162172930927e+18,-1.0,1.0,-2.0,0.0,1.0,-3.0,-2.0,-1.0
1.695162172930927e+18,-1.0,-3.0,-1.0,-2.0,-1.0,-3.0,-1.0,-1.0
1.6951621729319432e+18,-1.0,-2.0,0.0,1.0,-3.0,1.0,-1.0,-1.0
1.6951621729319432e+18,-1.0,-1.0,0.0,-4.0,-2.0,-1.0,-1.0,-3.0
1.695162172935543e+18,-1.0,1.0,-1.0,3.0,-1.0,-1.0,-3.0,1.0
1.6951621729365473e+18,-1.0,-2.0,-2.0,-1.0,-5.0,-3.0,-1.0,1.0
1.6951621729365473e+18,-2.0,-1.0,0.0,1.0,0.0,-4.0,1.0,-1.0
1.6951621729365473e+18,0.0,-2.0,-2.0,3.0,6.0,12.0,2.0,1.0
1.6951621729375452e+18,0.0,-1.0,-1.0,-4.0,-3.0,-7.0,-2.0,-1.0
1.6951621729375452e+18,0.0,0.0,-2.0,-4.0,-9.0,-5.0,-3.0,-2.0
1.695162172957591e+18,-1.0,-2.0,0.0,0.0,-3.0,-5.0,-4.0,-1.0
1.695162172957591e+18,0.0,0.0,1.0,1.0,-6.0,-17.0,0.0,0.0
1.6951621729585882e+18,3.0,2.0,2.0,3.0,14.0,35.0,8.0,0.0
1.6951621729585882e+18,-1.0,0.0,-1.0,4.0,8.0,6.0,0.0,-1.0
1.6951621729805988e+18,-1.0,-2.0,0.0,-2.0,1.0,-7.0,-1.0,-2.0
1.6951621729815805e+18,-1.0,-2.0,-3.0,-4.0,-4.0,-7.0,-3.0,-1.0
1.6951621729815805e+18,-2.0,-1.0,-3.0,-3.0,-8.0,-16.0,-6.0,-2.0
1.6951621729815805e+18,0.0,1.0,-1.0,-2.0,-4.0,-3.0,-1.0,-1.0
1.695162172994565e+18,-1.0,1.0,-2.0,1.0,2.0,5.0,1.0,-1.0
1.695162172994565e+18,-1.0,-3.0,-1.0,1.0,1.0,0.0,1.0,0.0
1.6951621730025807e+18,0.0,-1.0,0.0,-4.0,-1.0,-4.0,0.0,-1.0
1.6951621730025807e+18,0.0,-2.0,-1.0,0.0,2.0,3.0,-1.0,0.0
1.6951621730175498e+18,0.0,0.0,-1.0,-3.0,1.0,-2.0,1.0,-1.0
1.6951621730175498e+18,0.0,0.0,0.0,1.0,0.0,3.0,0.0,-1.0
1.6951621730185477e+18,-2.0,0.0,-2.0,-1.0,0.0,2.0,-3.0,-2.0
1.6951621730185477e+18,-3.0,-2.0,0.0,2.0,0.0,-6.0,-1.0,-2.0
1.695162173042586e+18,1.0,0.0,0.0,-1.0,-8.0,-2.0,0.0,-1.0
1.695162173042586e+18,1.0,1.0,-1.0,0.0,4.0,6.0,-1.0,-2.0
1.6951621730435827e+18,-1.0,-2.0,0.0,2.0,3.0,3.0,-1.0,0.0
1.6951621730435827e+18,-1.0,0.0,-3.0,-1.0,-5.0,-7.0,0.0,0.0
1.6951621730549814e+18,1.0,1.0,0.0,1.0,6.0,3.0,0.0,-2.0
1.6951621730549814e+18,-1.0,1.0,0.0,-2.0,-6.0,-2.0,1.0,-1.0
1.6951621730705498e+18,-1.0,-1.0,-1.0,0.0,-2.0,-4.0,-1.0,-2.0
1.6951621730705498e+18,0.0,0.0,1.0,-1.0,0.0,0.0,-1.0,0.0
1.6951621730805673e+18,-1.0,-1.0,-1.0,-2.0,-3.0,1.0,-2.0,-2.0
1.6951621730805673e+18,-1.0,-2.0,-2.0,-1.0,3.0,1.0,-1.0,1.0
1.6951621730805673e+18,-2.0,-1.0,0.0,-2.0,-1.0,-2.0,-1.0,0.0
1.6951621730805673e+18,0.0,-1.0,0.0,0.0,-2.0,0.0,0.0,-2.0
1.6951621731008817e+18,-1.0,0.0,-2.0,1.0,0.0,0.0,-1.0,2.0
1.6951621731015406e+18,1.0,-1.0,-1.0,-1.0,2.0,0.0,0.0,2.0
1.6951621731015406e+18,-1.0,1.0,-1.0,-1.0,-3.0,-4.0,-1.0,-1.0
1.6951621731015406e+18,0.0,-3.0,1.0,0.0,0.0,-1.0,-2.0,0.0
1.6951621731142385e+18,0.0,-2.0,-1.0,-2.0,0.0,0.0,-1.0,-2.0
1.695162173115207e+18,-1.0,0.0,-1.0,0.0,-1.0,0.0,0.0,1.0
1.6951621731224008e+18,1.0,-2.0,-2.0,-1.0,-2.0,-3.0,-1.0,1.0
1.6951621731233692e+18,-2.0,-1.0,-1.0,0.0,0.0,-1.0,0.0,-1.0
1.69516217314607e+18,0.0,0.0,-2.0,0.0,-1.0,0.0,0.0,1.0
1.69516217314607e+18,-1.0,0.0,0.0,-1.0,-1.0,1.0,0.0,-2.0
1.69516217314607e+18,0.0,1.0,-2.0,0.0,-1.0,-2.0,0.0,-1.0
1.6951621731470738e+18,-1.0,-1.0,-1.0,-2.0,2.0,-1.0,-2.0,-1.0
1.695162173161071e+18,2.0,-2.0,-2.0,0.0,-2.0,-2.0,0.0,1.0
1.695162173161071e+18,-1.0,-2.0,-3.0,-1.0,-1.0,-1.0,-1.0,1.0
1.695162173162061e+18,0.0,-1.0,0.0,-2.0,-3.0,-3.0,-1.0,0.0
1.695162173162061e+18,-1.0,0.0,0.0,1.0,-1.0,-1.0,0.0,0.0
1.6951621731750538e+18,-2.0,-2.0,-1.0,-3.0,0.0,-1.0,-2.0,0.0
1.6951621731750538e+18,-2.0,-1.0,0.0,-2.0,-1.0,0.0,-1.0,-2.0
1.695162173182611e+18,-2.0,-2.0,-2.0,0.0,-1.0,0.0,-1.0,0.0
1.695162173182611e+18,1.0,-1.0,-1.0,-1.0,0.0,1.0,-2.0,1.0
1.6951621732059067e+18,-1.0,0.0,1.0,-1.0,-2.0,-2.0,-1.0,-2.0
1.6951621732059067e+18,0.0,-2.0,0.0,-2.0,-1.0,0.0,-1.0,0.0
1.6951621732069238e+18,-1.0,0.0,-2.0,-3.0,-2.0,-2.0,-2.0,-1.0
1.6951621732069238e+18,0.0,-1.0,0.0,-1.0,-1.0,1.0,0.0,-4.0
1.6951621732212726e+18,-1.0,-2.0,-2.0,0.0,1.0,-2.0,0.0,1.0
1.6951621732212726e+18,0.0,0.0,-1.0,-1.0,0.0,-3.0,1.0,-1.0
1.6951621732212726e+18,-1.0,0.0,-1.0,0.0,-2.0,-2.0,1.0,-1.0
1.6951621732212726e+18,0.0,0.0,1.0,-2.0,0.0,0.0,0.0,-1.0
1.695162173234582e+18,-1.0,-1.0,-1.0,0.0,-1.0,0.0,0.0,-1.0
1.695162173234582e+18,0.0,-1.0,-1.0,0.0,-2.0,0.0,-1.0,-1.0
1.6951621732426076e+18,-1.0,1.0,-2.0,-3.0,-2.0,0.0,0.0,1.0
1.6951621732426076e+18,-1.0,-1.0,-1.0,-2.0,0.0,-1.0,0.0,-1.0
1.6951621732577073e+18,-2.0,0.0,-2.0,-1.0,1.0,1.0,-1.0,-2.0
1.6951621732584576e+18,1.0,-1.0,1.0,2.0,-2.0,1.0,-2.0,-1.0
1.6951621732584576e+18,1.0,-1.0,0.0,0.0,-1.0,-3.0,-1.0,-1.0
1.6951621732584576e+18,-1.0,-1.0,0.0,1.0,-1.0,-2.0,-1.0,-1.0
1.695162173280932e+18,0.0,-2.0,-2.0,-2.0,-1.0,0.0,-2.0,1.0
1.6951621732815434e+18,-2.0,1.0,-1.0,-1.0,-1.0,-1.0,-2.0,1.0
1.6951621732815434e+18,-1.0,-1.0,0.0,0.0,0.0,-1.0,-1.0,0.0
1.6951621732815434e+18,0.0,-2.0,-1.0,-1.0,-2.0,-1.0,0.0,1.0
1.6951621732945254e+18,-1.0,-2.0,0.0,0.0,0.0,0.0,-2.0,-1.0
1.6951621732945254e+18,0.0,-1.0,-2.0,-2.0,-1.0,-1.0,-1.0,-1.0
1.695162173303488e+18,-1.0,-2.0,0.0,0.0,1.0,0.0,-1.0,-1.0
1.695162173303488e+18,-3.0,0.0,0.0,0.0,-1.0,0.0,-1.0,-1.0
1.6951621733240133e+18,0.0,1.0,0.0,0.0,-1.0,-1.0,-2.0,-1.0
1.6951621733250112e+18,-1.0,-1.0,-1.0,-1.0,-2.0,0.0,-2.0,-1.0
1.6951621733260134e+18,0.0,0.0,0.0,-1.0,-1.0,-1.0,-1.0,-1.0
1.6951621733260134e+18,-1.0,0.0,0.0,1.0,-1.0,-2.0,0.0,-2.0
1.6951621733565834e+18,0.0,-2.0,-1.0,-1.0,-2.0,-2.0,0.0,-3.0
1.6951621733565834e+18,0.0,0.0,-2.0,-1.0,-1.0,-2.0,-1.0,-1.0
1.6951621733575828e+18,0.0,-2.0,-3.0,0.0,-1.0,-1.0,0.0,0.0
1.6951621733575828e+18,-1.0,-1.0,-1.0,-1.0,0.0,-1.0,-1.0,-1.0
1.695162173364562e+18,-1.0,0.0,-1.0,0.0,-1.0,-1.0,1.0,-1.0
1.695162173364562e+18,-1.0,-1.0,0.0,0.0,0.0,0.0,2.0,0.0
1.6951621733655608e+18,-2.0,-2.0,0.0,0.0,-2.0,0.0,0.0,0.0
1.69516217336656e+18,-1.0,-2.0,-2.0,-2.0,-1.0,-1.0,-1.0,-1.0
1.6951621733785513e+18,0.0,0.0,1.0,1.0,-1.0,0.0,-2.0,0.0
1.6951621733795538e+18,-3.0,-1.0,-1.0,-1.0,-2.0,-1.0,-1.0,-1.0
1.6951621733795538e+18,1.0,-2.0,0.0,-1.0,1.0,-1.0,-1.0,0.0
1.6951621733805532e+18,0.0,0.0,-1.0,0.0,0.0,0.0,0.0,0.0
1.6951621734165302e+18,0.0,-2.0,-3.0,-1.0,-1.0,-1.0,0.0,-1.0
1.6951621734175357e+18,-1.0,-1.0,-1.0,1.0,0.0,-1.0,0.0,-2.0
1.6951621734175357e+18,-1.0,-1.0,-1.0,0.0,0.0,-2.0,-1.0,-2.0
1.695162173418535e+18,-1.0,-2.0,0.0,-1.0,-1.0,0.0,-2.0,-2.0
1.6951621734465193e+18,0.0,0.0,0.0,-2.0,-1.0,0.0,0.0,0.0
1.69516217345052e+18,-1.0,0.0,-2.0,0.0,0.0,0.0,0.0,-1.0
1.6951621734515113e+18,-1.0,-2.0,-1.0,-1.0,-1.0,-1.0,-1.0,0.0
1.6951621734515113e+18,0.0,-1.0,-1.0,-1.0,-1.0,0.0,-1.0,0.0
1.6951621734515113e+18,-2.0,-1.0,-2.0,-1.0,-2.0,-1.0,1.0,-1.0
1.6951621734525123e+18,0.0,0.0,-1.0,-1.0,-1.0,-1.0,0.0,0.0
1.6951621734525123e+18,0.0,0.0,-3.0,1.0,0.0,0.0,-2.0,-1.0
1.6951621734535094e+18,0.0,0.0,-1.0,-1.0,0.0,-2.0,-2.0,0.0
1.6951621734744973e+18,-1.0,1.0,0.0,-3.0,0.0,0.0,-1.0,-2.0
1.695162173475497e+18,-2.0,-2.0,0.0,-1.0,-1.0,1.0,-1.0,0.0
1.695162173475497e+18,0.0,-1.0,0.0,-2.0,0.0,-1.0,-1.0,-2.0
1.695162173476497e+18,0.0,-2.0,0.0,-2.0,-2.0,0.0,-1.0,0.0
1.695162173485492e+18,0.0,-1.0,-1.0,1.0,-1.0,0.0,-1.0,0.0
1.695162173485492e+18,1.0,-2.0,-1.0,0.0,-1.0,-1.0,-1.0,1.0
1.6951621734864927e+18,-1.0,1.0,0.0,0.0,-2.0,-1.0,-1.0,1.0
1.6951621734864927e+18,-2.0,0.0,0.0,1.0,0.0,1.0,-1.0,-1.0
1.6951621734984883e+18,-1.0,-1.0,-1.0,-1.0,-1.0,-2.0,-3.0,-1.0
1.6951621734984883e+18,1.0,-1.0,-1.0,0.0,-1.0,0.0,-1.0,-1.0
1.695162173505478e+18,-1.0,-2.0,-2.0,0.0,-1.0,-1.0,-1.0,-1.0
1.695162173505478e+18,0.0,0.0,-3.0,-1.0,0.0,-1.0,-2.0,1.0
1.695162173521469e+18,-2.0,-2.0,0.0,-1.0,-2.0,0.0,-2.0,0.0
1.695162173521469e+18,-1.0,-1.0,-1.0,0.0,-1.0,0.0,0.0,-3.0
1.6951621735224689e+18,0.0,-1.0,0.0,0.0,-1.0,0.0,-1.0,-1.0
1.6951621735224689e+18,-2.0,-1.0,1.0,1.0,1.0,-1.0,0.0,0.0
1.6951621735474578e+18,-1.0,-1.0,-1.0,-1.0,0.0,0.0,-2.0,-3.0
1.6951621735484572e+18,-1.0,0.0,0.0,-2.0,-1.0,-2.0,-1.0,-1.0
1.6951621735534636e+18,-2.0,-1.0,0.0,-3.0,0.0,-1.0,0.0,0.0
1.695162173554463e+18,0.0,-2.0,-1.0,-2.0,-1.0,-2.0,0.0,0.0
1.695162173557449e+18,-1.0,0.0,-1.0,-1.0,-1.0,-1.0,-2.0,0.0
1.6951621735584507e+18,-1.0,-2.0,1.0,-1.0,1.0,-2.0,-1.0,-3.0
1.6951621735584507e+18,0.0,0.0,-2.0,-2.0,-3.0,0.0,-1.0,0.0
1.6951621735584507e+18,-2.0,-1.0,-1.0,-1.0,-1.0,0.0,0.0,1.0
1.6951621735814395e+18,-1.0,-1.0,2.0,-1.0,0.0,-1.0,1.0,-1.0
1.6951621735814395e+18,-1.0,-1.0,0.0,1.0,0.0,-2.0,0.0,-2.0
1.6951621735814395e+18,1.0,0.0,-1.0,-2.0,-1.0,1.0,0.0,-2.0
1.695162173582434e+18,0.0,-1.0,-2.0,0.0,1.0,0.0,0.0,-1.0
1.695162173622417e+18,0.0,0.0,-1.0,0.0,-2.0,-1.0,-1.0,0.0
1.6951621736284076e+18,-2.0,0.0,-2.0,0.0,-2.0,0.0,-1.0,1.0
1.6951621736284076e+18,-1.0,0.0,-1.0,-1.0,0.0,0.0,0.0,-1.0
1.695162173629413e+18,-1.0,-1.0,-1.0,-2.0,-2.0,-1.0,0.0,-1.0
1.695162173629413e+18,-1.0,-1.0,-1.0,-1.0,-2.0,1.0,0.0,0.0
1.695162173629413e+18,-1.0,0.0,-1.0,-1.0,0.0,1.0,-2.0,1.0
1.695162173629413e+18,-1.0,-2.0,0.0,-2.0,-1.0,-1.0,0.0,-1.0
1.6951621736314084e+18,-1.0,-1.0,-1.0,-1.0,-1.0,-1.0,-2.0,-2.0
1.6951621736414e+18,0.0,-1.0,1.0,-1.0,0.0,0.0,-1.0,-1.0
1.6951621736414e+18,0.0,-1.0,-1.0,0.0,1.0,-2.0,-1.0,-1.0
1.6951621736423995e+18,0.0,-1.0,-2.0,1.0,0.0,-1.0,-1.0,0.0
1.6951621736423995e+18,0.0,0.0,-1.0,-2.0,-1.0,-1.0,-1.0,-2.0
1.6951621736713833e+18,1.0,-1.0,-1.0,0.0,-1.0,-1.0,-1.0,-1.0
1.6951621736713833e+18,-1.0,-1.0,-3.0,-1.0,-1.0,-1.0,0.0,0.0
1.6951621736723855e+18,-1.0,-1.0,-2.0,-1.0,0.0,-2.0,-1.0,0.0
1.6951621736723855e+18,1.0,-2.0,-1.0,0.0,1.0,-1.0,-1.0,-1.0
1.6951621736783826e+18,-2.0,-2.0,-3.0,1.0,-2.0,-2.0,0.0,-1.0
1.6951621736783826e+18,-2.0,0.0,0.0,-1.0,-1.0,1.0,-1.0,-1.0
1.6951621736783826e+18,-1.0,0.0,1.0,-1.0,-2.0,0.0,1.0,-3.0
1.6951621736783826e+18,-1.0,-1.0,-1.0,0.0,-1.0,0.0,-1.0,-1.0
1.6951621737023644e+18,0.0,0.0,-2.0,-2.0,-1.0,-1.0,-1.0,-3.0
1.695162173703365e+18,1.0,-1.0,0.0,-2.0,-3.0,-2.0,0.0,-1.0
1.695162173703365e+18,-1.0,0.0,-1.0,-1.0,-3.0,1.0,-1.0,-1.0
1.695162173703365e+18,0.0,0.0,-1.0,1.0,-1.0,-1.0,-1.0,-1.0
1.695162173723353e+18,-2.0,0.0,0.0,-1.0,0.0,0.0,0.0,-1.0
1.695162173723353e+18,0.0,0.0,-1.0,-1.0,0.0,-2.0,-1.0,-1.0
1.6951621737243515e+18,-1.0,0.0,-1.0,-1.0,0.0,0.0,-3.0,-1.0
1.6951621737243515e+18,0.0,-1.0,-1.0,0.0,-1.0,0.0,0.0,0.0
1.6951621737393434e+18,0.0,-1.0,-1.0,0.0,-1.0,1.0,-1.0,-1.0
1.695162173740343e+18,0.0,-2.0,-1.0,-1.0,-3.0,-1.0,0.0,-1.0
1.695162173740343e+18,-2.0,-2.0,-1.0,-1.0,-1.0,-2.0,0.0,-1.0
1.695162173740343e+18,-1.0,1.0,-2.0,0.0,0.0,-2.0,-2.0,-1.0
1.6951621737603308e+18,0.0,-1.0,-2.0,-1.0,1.0,-1.0,-1.0,0.0
1.6951621737603308e+18,-2.0,0.0,-1.0,-1.0,0.0,-1.0,0.0,-1.0
1.695162173761331e+18,2.0,-1.0,-1.0,0.0,-2.0,0.0,-1.0,-1.0
1.695162173761331e+18,0.0,-1.0,1.0,0.0,-2.0,1.0,1.0,0.0
1.6951621737843187e+18,0.0,-1.0,-1.0,-1.0,0.0,1.0,0.0,1.0
1.695162173785317e+18,0.0,0.0,0.0,1.0,-1.0,-3.0,0.0,-1.0
1.6951621737863168e+18,-1.0,-2.0,-1.0,-1.0,2.0,-1.0,0.0,0.0
1.6951621737863168e+18,2.0,0.0,-2.0,-1.0,-1.0,-1.0,-2.0,-1.0
1.6951621737973345e+18,1.0,0.0,0.0,-1.0,-1.0,0.0,-1.0,-1.0
1.69516217379831e+18,0.0,-2.0,-2.0,0.0,1.0,1.0,0.0,0.0
1.69516217379831e+18,0.0,0.0,-1.0,-2.0,0.0,0.0,0.0,0.0
1.69516217379831e+18,-1.0,0.0,-1.0,0.0,-3.0,1.0,-1.0,-1.0
1.6951621738222966e+18,0.0,-1.0,0.0,-2.0,-2.0,-3.0,-1.0,0.0
1.6951621738222966e+18,-1.0,-3.0,-1.0,-1.0,-2.0,-1.0,0.0,-2.0
1.6951621738222966e+18,-2.0,0.0,-2.0,0.0,1.0,0.0,0.0,1.0
1.695162173823298e+18,-1.0,0.0,-1.0,-3.0,-2.0,0.0,0.0,-1.0
1.6951621738432855e+18,-2.0,-2.0,-2.0,0.0,0.0,-1.0,0.0,1.0
1.6951621738432855e+18,0.0,0.0,-2.0,-1.0,-2.0,0.0,-2.0,-1.0
1.695162173844283e+18,0.0,-1.0,-1.0,1.0,-3.0,-1.0,0.0,-2.0
1.695162173844283e+18,-1.0,-1.0,0.0,-2.0,0.0,-1.0,-2.0,-2.0
1.6951621738572764e+18,-1.0,0.0,-1.0,-1.0,-1.0,-1.0,-1.0,-1.0
1.6951621738582753e+18,-2.0,-1.0,-2.0,-2.0,0.0,-1.0,-1.0,0.0
1.6951621738582753e+18,-1.0,0.0,0.0,-2.0,0.0,0.0,-1.0,-1.0
1.6951621738582753e+18,0.0,-2.0,0.0,-1.0,1.0,-1.0,0.0,-1.0
1.6951621738892572e+18,0.0,0.0,0.0,-1.0,-1.0,-1.0,-1.0,-1.0
1.6951621738902566e+18,0.0,-1.0,0.0,-1.0,-1.0,-1.0,-3.0,1.0
1.6951621738902566e+18,0.0,-1.0,0.0,0.0,-2.0,2.0,-2.0,-1.0
1.6951621738902566e+18,1.0,-2.0,0.0,-1.0,-2.0,-3.0,1.0,1.0
1.6951621739032535e+18,0.0,-2.0,-1.0,-1.0,-1.0,0.0,0.0,1.0
1.695162173904249e+18,0.0,0.0,-1.0,0.0,0.0,-2.0,0.0,-1.0
1.695162173904249e+18,0.0,0.0,-2.0,-2.0,-1.0,-2.0,-1.0,-1.0
1.695162173904249e+18,-2.0,0.0,-1.0,-2.0,-2.0,0.0,0.0,0.0
1.695162173917254e+18,0.0,-1.0,0.0,-2.0,0.0,0.0,0.0,-1.0
1.695162173917254e+18,-1.0,-1.0,0.0,-1.0,0.0,1.0,-1.0,1.0
1.6951621739252385e+18,-2.0,-1.0,0.0,1.0,0.0,-1.0,0.0,-1.0
1.6951621739282363e+18,-1.0,1.0,0.0,-2.0,-1.0,0.0,0.0,-2.0
1.6951621739402335e+18,-2.0,0.0,-1.0,-1.0,-1.0,0.0,1.0,-2.0
1.6951621739402335e+18,-1.0,0.0,0.0,0.0,1.0,1.0,0.0,-1.0
1.6951621739412275e+18,0.0,-1.0,-1.0,-1.0,-1.0,-2.0,-1.0,-1.0
1.6951621739412275e+18,-1.0,0.0,-2.0,0.0,-1.0,-3.0,-2.0,-1.0
1.695162173963499e+18,-1.0,-1.0,0.0,0.0,0.0,-1.0,-1.0,0.0
1.695162173963499e+18,0.0,1.0,-2.0,-1.0,-2.0,-1.0,-1.0,-1.0
1.6951621739644966e+18,0.0,0.0,-1.0,0.0,-1.0,-3.0,1.0,-1.0
1.6951621739644966e+18,0.0,0.0,-1.0,1.0,-1.0,-1.0,-1.0,-1.0
1.695162173976745e+18,0.0,-2.0,0.0,-2.0,-2.0,-1.0,-1.0,0.0
1.6951621739777482e+18,-1.0,0.0,0.0,-2.0,-1.0,-1.0,-1.0,0.0
1.695162173985543e+18,-1.0,-1.0,-2.0,0.0,-1.0,-1.0,-1.0,-1.0
1.695162173985543e+18,0.0,1.0,1.0,0.0,-1.0,-1.0,-1.0,0.0
1.69516217399987e+18,1.0,-2.0,-2.0,-2.0,0.0,-1.0,-1.0,-3.0
1.6951621740008911e+18,0.0,-2.0,0.0,0.0,0.0,0.0,-1.0,-2.0
1.6951621740008911e+18,0.0,-1.0,0.0,-2.0,-2.0,-2.0,-1.0,0.0
1.6951621740008911e+18,-4.0,-1.0,-1.0,-1.0,0.0,1.0,1.0,-2.0
1.6951621740232323e+18,-1.0,1.0,-2.0,0.0,-1.0,0.0,0.0,-2.0
1.695162174024212e+18,0.0,0.0,-1.0,0.0,-1.0,-1.0,1.0,-1.0
1.695162174024212e+18,1.0,-2.0,0.0,-1.0,0.0,0.0,-1.0,0.0
1.695162174024212e+18,-1.0,-3.0,-2.0,0.0,-1.0,0.0,0.0,-1.0
1.695162174037548e+18,0.0,1.0,0.0,0.0,-1.0,1.0,-1.0,1.0
1.695162174037548e+18,0.0,-1.0,0.0,-2.0,-1.0,1.0,-2.0,-1.0
1.695162174045544e+18,-2.0,0.0,-2.0,1.0,0.0,-1.0,-1.0,1.0
1.695162174045544e+18,-1.0,-1.0,-1.0,0.0,1.0,0.0,-1.0,1.0
1.695162174080599e+18,-1.0,0.0,-1.0,-1.0,-1.0,0.0,-1.0,-1.0
1.6951621740855964e+18,-1.0,-1.0,-1.0,-1.0,-1.0,-1.0,0.0,-1.0
1.6951621740866028e+18,0.0,-1.0,0.0,-3.0,0.0,-1.0,0.0,-1.0
1.6951621740875948e+18,2.0,-1.0,0.0,-2.0,0.0,-2.0,-1.0,-1.0
1.6951621740875948e+18,0.0,-1.0,-1.0,1.0,-2.0,-1.0,-1.0,-1.0
1.6951621740875948e+18,0.0,-1.0,-2.0,2.0,-1.0,-1.0,-1.0,-2.0
1.695162174089594e+18,0.0,1.0,-1.0,-1.0,-1.0,-1.0,-2.0,-1.0
1.695162174089594e+18,0.0,-2.0,-2.0,-1.0,-2.0,-1.0,-2.0,-1.0
1.6951621740975887e+18,0.0,-4.0,-1.0,-1.0,1.0,-1.0,-2.0,-1.0
1.6951621740975887e+18,-2.0,0.0,0.0,-2.0,0.0,-1.0,0.0,0.0
1.6951621741055844e+18,-2.0,0.0,0.0,-1.0,-1.0,1.0,-1.0,0.0
1.6951621741065838e+18,-1.0,0.0,-2.0,0.0,-3.0,-1.0,0.0,-1.0
1.6951621741285868e+18,-2.0,0.0,0.0,-1.0,-1.0,0.0,0.0,0.0
1.6951621741285868e+18,-1.0,-2.0,0.0,0.0,0.0,0.0,0.0,-3.0
1.6951621741295695e+18,0.0,-3.0,0.0,-1.0,-1.0,-1.0,2.0,0.0
1.6951621741295695e+18,-1.0,2.0,0.0,-1.0,1.0,1.0,0.0,-1.0
1.6951621741505805e+18,-1.0,-2.0,-1.0,-2.0,-1.0,0.0,-1.0,1.0
1.6951621741515584e+18,-2.0,-1.0,-1.0,0.0,0.0,-2.0,1.0,-2.0
1.6951621741515584e+18,-1.0,0.0,-1.0,2.0,1.0,-1.0,0.0,-1.0
1.6951621741515584e+18,-1.0,-3.0,-2.0,0.0,1.0,-2.0,1.0,-1.0
1.6951621741565524e+18,-2.0,1.0,-1.0,0.0,-1.0,-2.0,0.0,-1.0
1.6951621741575526e+18,-1.0,0.0,-3.0,-1.0,-1.0,1.0,-1.0,1.0
1.695162174165548e+18,-1.0,0.0,-1.0,-2.0,0.0,0.0,-1.0,0.0
1.695162174165548e+18,0.0,0.0,-1.0,-1.0,0.0,0.0,0.0,-1.0
1.6951621741805404e+18,0.0,0.0,0.0,1.0,-2.0,-1.0,0.0,0.0
1.6951621741815424e+18,-2.0,-1.0,-1.0,-2.0,-2.0,-1.0,-2.0,0.0
1.6951621741815424e+18,1.0,-1.0,0.0,0.0,-3.0,-1.0,0.0,-1.0
1.6951621741815424e+18,-2.0,-1.0,0.0,-1.0,-1.0,0.0,-2.0,0.0
1.6951621742035272e+18,-2.0,-1.0,1.0,-2.0,-3.0,0.0,0.0,-1.0
1.6951621742035272e+18,-1.0,1.0,0.0,-1.0,-1.0,-2.0,0.0,-1.0
1.695162174204526e+18,0.0,-2.0,-2.0,0.0,0.0,0.0,-1.0,1.0
1.695162174204526e+18,0.0,-2.0,0.0,-1.0,0.0,-1.0,-1.0,1.0
1.6951621742165194e+18,-1.0,-1.0,-1.0,-1.0,1.0,-2.0,-1.0,-2.0
1.6951621742175214e+18,1.0,0.0,0.0,1.0,-1.0,-1.0,1.0,1.0
1.6951621742255145e+18,-1.0,1.0,-1.0,-2.0,0.0,1.0,-1.0,-1.0
1.6951621742255145e+18,-2.0,-1.0,0.0,0.0,-1.0,-1.0,-1.0,-3.0
1.695162174240505e+18,0.0,0.0,-2.0,0.0,-1.0,-1.0,1.0,1.0
1.695162174240505e+18,-2.0,0.0,-1.0,-1.0,-2.0,-2.0,-1.0,-1.0
1.6951621742415058e+18,0.0,-1.0,0.0,0.0,-1.0,-2.0,-2.0,-4.0
1.6951621742415058e+18,0.0,-1.0,-1.0,1.0,-1.0,-1.0,0.0,0.0
1.6951621742634944e+18,0.0,0.0,-2.0,0.0,-1.0,0.0,0.0,-1.0
1.6951621742634944e+18,0.0,-1.0,-1.0,-1.0,-2.0,1.0,-1.0,0.0
1.6951621742644915e+18,-3.0,-1.0,-2.0,0.0,-1.0,-1.0,1.0,0.0
1.6951621742644915e+18,0.0,0.0,-1.0,-2.0,-1.0,-1.0,-2.0,-1.0
1.695162174277485e+18,0.0,-1.0,-1.0,-2.0,1.0,-4.0,-1.0,-2.0
1.695162174277485e+18,0.0,-2.0,-2.0,1.0,0.0,-2.0,-2.0,1.0
1.6951621742924787e+18,-1.0,-1.0,-1.0,-1.0,0.0,-1.0,-2.0,0.0
1.695162174293479e+18,-2.0,-1.0,0.0,1.0,0.0,-1.0,0.0,0.0
1.6951621743004723e+18,-1.0,0.0,0.0,1.0,-1.0,-1.0,-1.0,-1.0
1.695162174301494e+18,1.0,-2.0,0.0,0.0,1.0,-1.0,-1.0,1.0
1.695162174301494e+18,0.0,-2.0,0.0,-1.0,0.0,-2.0,0.0,-1.0
1.695162174301494e+18,0.0,0.0,0.0,-1.0,0.0,0.0,-1.0,-1.0
1.6951621743325084e+18,1.0,-1.0,0.0,-1.0,-1.0,0.0,-2.0,-3.0
1.695162174333485e+18,0.0,-2.0,0.0,0.0,-1.0,-2.0,-1.0,-1.0
1.695162174333485e+18,0.0,-1.0,-2.0,1.0,-1.0,-1.0,0.0,-1.0
1.695162174333485e+18,-2.0,-1.0,-1.0,-2.0,-2.0,-2.0,-2.0,-1.0
1.6951621743535242e+18,-2.0,0.0,0.0,-2.0,-1.0,-2.0,1.0,-2.0
1.6951621743535242e+18,-1.0,-1.0,0.0,0.0,0.0,0.0,-1.0,-2.0
1.6951621743545242e+18,0.0,0.0,0.0,-2.0,0.0,-1.0,0.0,-2.0
1.6951621743545242e+18,-1.0,-1.0,0.0,-1.0,0.0,-2.0,2.0,-2.0
1.6951621743615872e+18,-1.0,-1.0,-1.0,-1.0,0.0,-1.0,-4.0,0.0
1.6951621743615872e+18,0.0,0.0,-3.0,-2.0,-1.0,0.0,-2.0,-1.0
1.695162174362588e+18,-1.0,-1.0,0.0,0.0,0.0,1.0,-2.0,-1.0
1.695162174362588e+18,0.0,-1.0,-1.0,0.0,0.0,0.0,-3.0,0.0
1.6951621743909066e+18,-1.0,-1.0,-1.0,-1.0,-1.0,0.0,-1.0,-1.0
1.6951621743909066e+18,-2.0,-1.0,0.0,-1.0,1.0,0.0,-1.0,0.0
1.6951621743928845e+18,0.0,-2.0,-1.0,0.0,-1.0,1.0,-1.0,1.0
1.6951621743928845e+18,-2.0,0.0,-2.0,1.0,0.0,0.0,-2.0,-1.0
1.6951621744068777e+18,-1.0,-1.0,1.0,1.0,0.0,1.0,1.0,1.0
1.6951621744078764e+18,-2.0,-1.0,-1.0,-1.0,-2.0,0.0,-1.0,-1.0
1.695162174409876e+18,-1.0,1.0,-1.0,-1.0,-2.0,-2.0,-1.0,-2.0
1.6951621744108746e+18,-1.0,1.0,0.0,-1.0,-1.0,-1.0,0.0,0.0
1.695162174425866e+18,0.0,1.0,0.0,0.0,-1.0,-1.0,-1.0,1.0
1.695162174425866e+18,-1.0,0.0,-1.0,0.0,-1.0,0.0,0.0,-2.0
1.6951621744278643e+18,-1.0,-1.0,-1.0,-1.0,-1.0,-2.0,-2.0,0.0
1.6951621744288645e+18,0.0,0.0,-2.0,-3.0,-2.0,-2.0,0.0,-1.0
1.6951621744438546e+18,0.0,-1.0,-1.0,0.0,-2.0,-1.0,-2.0,-1.0
1.6951621744448556e+18,-1.0,0.0,0.0,1.0,0.0,-2.0,-1.0,-2.0
1.6951621744458596e+18,-2.0,-2.0,0.0,-1.0,0.0,-1.0,0.0,-2.0
1.6951621744458596e+18,-1.0,-1.0,0.0,0.0,-1.0,1.0,-1.0,0.0
1.6951621744668416e+18,-1.0,-2.0,-1.0,0.0,0.0,-1.0,0.0,0.0
1.6951621744708393e+18,-1.0,0.0,-3.0,-2.0,-3.0,-1.0,0.0,-1.0
1.695162174471839e+18,0.0,-2.0,-2.0,-2.0,-1.0,-1.0,0.0,0.0
1.6951621744728415e+18,-2.0,0.0,-1.0,0.0,0.0,-3.0,-2.0,-2.0
1.6951621744848338e+18,-1.0,0.0,-3.0,-1.0,0.0,-1.0,0.0,-2.0
1.6951621744868319e+18,-1.0,-1.0,0.0,-1.0,1.0,1.0,-2.0,0.0
1.6951621744878287e+18,0.0,1.0,-2.0,0.0,-2.0,0.0,-2.0,-1.0
1.6951621744888297e+18,-1.0,-2.0,-1.0,0.0,-1.0,-1.0,0.0,-1.0
1.6951621745048205e+18,0.0,-1.0,-1.0,-1.0,0.0,0.0,-1.0,0.0
1.695162174505819e+18,0.0,0.0,1.0,-1.0,-1.0,0.0,0.0,0.0
1.695162174505819e+18,0.0,-2.0,-1.0,-2.0,-2.0,-2.0,-2.0,-1.0
1.695162174505819e+18,0.0,-2.0,-1.0,-2.0,-2.0,1.0,-1.0,-1.0
1.6951621745338035e+18,-1.0,-1.0,0.0,-1.0,-1.0,1.0,0.0,0.0
1.6951621745338035e+18,0.0,-1.0,0.0,0.0,0.0,-2.0,0.0,-1.0
1.695162174534803e+18,0.0,0.0,1.0,-1.0,0.0,-1.0,0.0,1.0
1.695162174534803e+18,-1.0,-1.0,0.0,-1.0,0.0,1.0,-1.0,-3.0
1.695162174539799e+18,0.0,-1.0,-1.0,-1.0,-1.0,-2.0,-1.0,-1.0
1.695162174539799e+18,0.0,0.0,-2.0,-2.0,0.0,0.0,0.0,-1.0
1.6951621745557914e+18,-2.0,0.0,-2.0,0.0,-1.0,0.0,0.0,-1.0
1.6951621745567972e+18,0.0,0.0,-2.0,0.0,0.0,-1.0,-2.0,1.0
1.695162174564785e+18,-2.0,0.0,0.0,0.0,0.0,-2.0,0.0,-2.0
1.6951621745657846e+18,-1.0,-1.0,1.0,0.0,0.0,-3.0,0.0,-2.0
1.6951621745667837e+18,0.0,0.0,1.0,-1.0,0.0,2.0,0.0,-1.0
1.6951621745667837e+18,1.0,-1.0,-1.0,-1.0,-1.0,0.0,0.0,0.0
1.695162174586773e+18,-2.0,-1.0,-2.0,-2.0,0.0,0.0,1.0,0.0
1.695162174587772e+18,-1.0,-2.0,-1.0,1.0,0.0,-1.0,-1.0,-1.0
1.695162174587772e+18,-1.0,-2.0,-1.0,-2.0,-1.0,-2.0,0.0,-1.0
1.695162174587772e+18,-2.0,0.0,-1.0,-2.0,-1.0,0.0,0.0,-2.0
1.6951621746157816e+18,0.0,-2.0,-1.0,-1.0,0.0,0.0,-3.0,-1.0
1.6951621746167606e+18,0.0,-1.0,0.0,0.0,-1.0,-2.0,1.0,2.0
1.6951621746177592e+18,-1.0,-1.0,-2.0,-1.0,4.0,2.0,1.0,2.0
1.6951621746177592e+18,-2.0,0.0,1.0,1.0,0.0,2.0,0.0,2.0
1.6951621746247514e+18,0.0,2.0,0.0,1.0,2.0,2.0,-1.0,0.0
1.69516217463475e+18,0.0,1.0,1.0,-1.0,-1.0,0.0,0.0,0.0
1.6951621746357448e+18,2.0,3.0,0.0,1.0,1.0,-1.0,-1.0,-1.0
1.6951621746367488e+18,0.0,0.0,0.0,1.0,0.0,-1.0,1.0,-1.0
1.695162174646742e+18,0.0,0.0,0.0,0.0,-1.0,-1.0,0.0,-1.0
1.695162174646742e+18,0.0,-1.0,-1.0,-1.0,-1.0,0.0,-1.0,0.0
1.6951621746477463e+18,0.0,1.0,0.0,2.0,1.0,-2.0,-1.0,0.0
1.6951621746477463e+18,0.0,-1.0,-1.0,-1.0,-1.0,0.0,-1.0,-1.0
1.6951621746687299e+18,0.0,-1.0,1.0,1.0,-1.0,-2.0,-1.0,0.0
1.6951621746687299e+18,-2.0,1.0,0.0,-2.0,1.0,0.0,-1.0,-1.0
1.695162174670724e+18,-2.0,-1.0,0.0,-3.0,0.0,0.0,-1.0,0.0
1.695162174670724e+18,0.0,0.0,-1.0,0.0,0.0,-2.0,-1.0,-1.0
1.6951621746837422e+18,-1.0,-2.0,1.0,-1.0,0.0,-1.0,-1.0,0.0
1.6951621746847168e+18,0.0,0.0,-2.0,-2.0,-3.0,-1.0,1.0,0.0
1.695162174689714e+18,-3.0,-1.0,2.0,-3.0,-3.0,0.0,0.0,-1.0
1.6951621746907139e+18,1.0,1.0,0.0,2.0,2.0,-1.0,0.0,0.0
1.695162174706704e+18,-1.0,0.0,-1.0,-2.0,2.0,3.0,0.0,0.0
1.695162174706704e+18,1.0,-1.0,-2.0,-1.0,-11.0,-2.0,-2.0,0.0
1.695162174711704e+18,-1.0,-5.0,1.0,2.0,10.0,0.0,-1.0,0.0
1.695162174719697e+18,-1.0,-2.0,-2.0,-5.0,-10.0,0.0,-2.0,-2.0
1.695162174724696e+18,0.0,1.0,1.0,-7.0,7.0,-2.0,1.0,0.0
1.695162174724696e+18,1.0,1.0,1.0,10.0,-2.0,-6.0,2.0,1.0
1.6951621747286907e+18,-2.0,-1.0,-3.0,5.0,12.0,13.0,-2.0,-2.0
1.69516217472969e+18,2.0,2.0,5.0,3.0,-7.0,-4.0,1.0,2.0
1.6951621747436818e+18,-3.0,-4.0,-7.0,-13.0,-16.0,-7.0,-4.0,-5.0
1.6951621747436818e+18,-1.0,1.0,5.0,-11.0,-2.0,10.0,2.0,2.0
1.6951621747446817e+18,0.0,0.0,-1.0,-2.0,-1.0,-10.0,-2.0,-1.0
1.695162174745684e+18,0.0,-4.0,-1.0,13.0,10.0,-9.0,-3.0,-1.0
1.69516217478166e+18,3.0,0.0,-2.0,-9.0,-2.0,8.0,-2.0,1.0
1.69516217478166e+18,-1.0,1.0,6.0,13.0,-2.0,3.0,3.0,-2.0
1.6951621747826614e+18,0.0,-1.0,0.0,-5.0,-28.0,-36.0,1.0,-2.0
1.6951621747836636e+18,0.0,0.0,-4.0,-7.0,26.0,63.0,7.0,1.0
1.6951621747836636e+18,0.0,-1.0,2.0,12.0,18.0,3.0,2.0,0.0
1.6951621747836636e+18,0.0,-2.0,-4.0,-1.0,-3.0,-14.0,-3.0,-1.0
1.6951621747886559e+18,-1.0,0.0,-3.0,-2.0,2.0,-3.0,-2.0,1.0
1.6951621747886559e+18,-3.0,-2.0,-2.0,-4.0,-19.0,-26.0,-5.0,-3.0
1.6951621748036483e+18,0.0,-1.0,-3.0,1.0,-4.0,1.0,-4.0,0.0
1.6951621748036483e+18,-3.0,-3.0,-7.0,-8.0,-2.0,-4.0,-1.0,-1.0
1.6951621748096466e+18,-1.0,0.0,3.0,6.0,-10.0,-7.0,-7.0,-2.0
1.6951621748096466e+18,1.0,0.0,-1.0,-11.0,-8.0,-15.0,-8.0,-1.0
1.6951621748256369e+18,-4.0,-4.0,-5.0,-4.0,1.0,-3.0,-39.0,-8.0
1.6951621748266345e+18,2.0,1.0,1.0,1.0,8.0,13.0,39.0,0.0
1.6951621748276342e+18,2.0,-1.0,-4.0,-6.0,-2.0,5.0,5.0,5.0
1.6951621748276342e+18,-1.0,2.0,2.0,3.0,11.0,11.0,15.0,3.0
1.695162174843648e+18,0.0,-3.0,-6.0,-7.0,-14.0,-23.0,-30.0,-7.0
1.695162174843648e+18,-1.0,-4.0,-1.0,4.0,-6.0,-2.0,15.0,14.0
1.695162174848621e+18,-1.0,-1.0,0.0,4.0,35.0,32.0,-5.0,0.0
1.695162174848621e+18,2.0,-1.0,0.0,-3.0,-1.0,15.0,35.0,6.0
1.6951621748710436e+18,-2.0,-1.0,2.0,0.0,-12.0,-29.0,3.0,-8.0
1.6951621748710436e+18,-1.0,-3.0,-6.0,-5.0,14.0,35.0,-23.0,-2.0
1.6951621748720384e+18,1.0,-1.0,1.0,-1.0,-19.0,-28.0,20.0,-1.0
1.6951621748730383e+18,-1.0,-1.0,-1.0,-1.0,-9.0,-17.0,-17.0,0.0
1.6951621748855063e+18,0.0,-1.0,-1.0,0.0,20.0,36.0,11.0,4.0
1.6951621748865093e+18,0.0,0.0,4.0,13.0,4.0,-19.0,-28.0,-9.0
1.6951621748875044e+18,-2.0,-2.0,-5.0,-7.0,-11.0,-8.0,-18.0,-4.0
1.6951621748875044e+18,0.0,1.0,-1.0,-11.0,-12.0,-22.0,-17.0,-7.0
1.6951621748995185e+18,-1.0,4.0,2.0,3.0,-9.0,-5.0,13.0,4.0
1.6951621748995185e+18,-4.0,-4.0,-4.0,-2.0,11.0,1.0,-22.0,-8.0
1.6951621749154862e+18,1.0,1.0,3.0,1.0,7.0,17.0,25.0,7.0
1.6951621749164882e+18,-4.0,-1.0,3.0,6.0,-16.0,-26.0,-45.0,-11.0
1.6951621749234816e+18,2.0,1.0,1.0,0.0,4.0,20.0,47.0,9.0
1.6951621749234816e+18,1.0,5.0,1.0,4.0,9.0,13.0,20.0,6.0
1.6951621749244833e+18,5.0,3.0,15.0,9.0,-1.0,14.0,25.0,6.0
1.6951621749254812e+18,-2.0,-7.0,-13.0,-4.0,7.0,-11.0,-19.0,-10.0
1.695162174946472e+18,0.0,-1.0,17.0,10.0,-8.0,1.0,8.0,6.0
1.695162174946472e+18,-3.0,-4.0,-18.0,-26.0,-22.0,-22.0,-2.0,-6.0
1.6951621749474918e+18,2.0,4.0,2.0,7.0,3.0,3.0,-13.0,-7.0
1.6951621749474918e+18,-1.0,-4.0,-1.0,1.0,6.0,22.0,38.0,6.0
1.6951621749593006e+18,-2.0,-3.0,-6.0,-8.0,-3.0,-12.0,-15.0,-4.0
1.6951621749593006e+18,0.0,0.0,4.0,3.0,-4.0,-11.0,1.0,-1.0
1.6951621749687734e+18,-3.0,-2.0,-8.0,-15.0,-4.0,17.0,0.0,1.0
1.6951621749687734e+18,1.0,3.0,3.0,-2.0,3.0,-7.0,-5.0,0.0
1.695162174983764e+18,3.0,4.0,5.0,14.0,-3.0,-6.0,0.0,0.0
1.695162174983764e+18,-2.0,-5.0,-15.0,-16.0,4.0,14.0,17.0,1.0
1.6951621749857638e+18,-3.0,-4.0,-2.0,-14.0,-13.0,-11.0,-31.0,-11.0
1.6951621749857638e+18,-2.0,-3.0,-12.0,7.0,19.0,2.0,-7.0,-6.0
1.695162175049937e+18,3.0,1.0,-7.0,-10.0,-3.0,5.0,30.0,8.0
1.6951621750504584e+18,0.0,1.0,8.0,-4.0,-12.0,-16.0,-15.0,-8.0
1.6951621750604987e+18,0.0,-1.0,7.0,20.0,-5.0,-3.0,-1.0,-3.0
1.6951621750604987e+18,-5.0,-4.0,-5.0,-8.0,-12.0,-5.0,-13.0,-4.0
1.6951621750614984e+18,-2.0,-4.0,-18.0,-32.0,1.0,3.0,-12.0,3.0
1.6951621750614984e+18,1.0,2.0,10.0,33.0,11.0,3.0,-3.0,1.0
1.6951621750745372e+18,-3.0,-2.0,-4.0,-8.0,7.0,-4.0,-1.0,-1.0
1.6951621750745372e+18,-3.0,0.0,-2.0,-6.0,-11.0,1.0,-1.0,2.0
1.6951621750754916e+18,-2.0,0.0,7.0,20.0,17.0,-7.0,-14.0,-8.0
1.6951621750754916e+18,-4.0,-6.0,-7.0,-30.0,-34.0,-10.0,4.0,-1.0
1.6951621750764908e+18,2.0,4.0,0.0,-8.0,-14.0,4.0,7.0,-1.0
1.6951621750764908e+18,-2.0,-6.0,-4.0,3.0,11.0,2.0,30.0,2.0
1.6951621750799378e+18,-4.0,-4.0,-20.0,-14.0,-14.0,-9.0,-11.0,-6.0
1.6951621750799378e+18,1.0,-7.0,14.0,-4.0,-1.0,13.0,15.0,7.0
1.6951621750956216e+18,1.0,3.0,6.0,17.0,6.0,1.0,6.0,3.0
1.6951621750956216e+18,0.0,0.0,-4.0,-3.0,-1.0,2.0,-12.0,-1.0
1.6951621750975987e+18,-4.0,-3.0,2.0,2.0,1.0,-5.0,5.0,-5.0
1.6951621750975987e+18,1.0,1.0,1.0,12.0,15.0,10.0,13.0,7.0
1.6951621751075932e+18,-1.0,-2.0,4.0,-1.0,-5.0,-3.0,-18.0,-6.0
1.6951621751075932e+18,2.0,5.0,-4.0,-12.0,-10.0,-11.0,-25.0,0.0
1.6951621751095905e+18,0.0,-12.0,11.0,15.0,2.0,1.0,12.0,6.0
1.695162175110593e+18,-1.0,3.0,3.0,-7.0,1.0,1.0,7.0,0.0
1.695162175133599e+18,-7.0,-8.0,-7.0,2.0,-4.0,-9.0,-16.0,-10.0
1.6951621751345774e+18,0.0,3.0,1.0,2.0,18.0,3.0,-23.0,-4.0
1.6951621751355753e+18,1.0,6.0,-8.0,-2.0,-2.0,1.0,6.0,5.0
1.695162175136575e+18,-5.0,-4.0,-2.0,-4.0,-13.0,-9.0,-15.0,-5.0
1.6951621751485908e+18,-4.0,-7.0,-5.0,-6.0,-2.0,-12.0,-29.0,-8.0
1.6951621751485908e+18,-1.0,0.0,3.0,2.0,-6.0,4.0,19.0,4.0
1.6951621751495672e+18,4.0,8.0,-2.0,-5.0,20.0,12.0,1.0,6.0
1.6951621751495672e+18,1.0,3.0,3.0,-5.0,-8.0,0.0,-9.0,4.0
1.695162175162583e+18,1.0,2.0,-11.0,-4.0,0.0,-6.0,4.0,0.0
1.695162175162583e+18,-2.0,-7.0,8.0,12.0,-3.0,4.0,8.0,1.0
1.6951621751695555e+18,-2.0,-1.0,2.0,0.0,-2.0,-2.0,-2.0,-4.0
1.6951621751705572e+18,-1.0,5.0,-2.0,2.0,3.0,-7.0,4.0,-2.0
1.6951621751855483e+18,2.0,4.0,-4.0,-4.0,-9.0,2.0,0.0,3.0
1.695162175186546e+18,-2.0,18.0,1.0,10.0,4.0,-3.0,0.0,-6.0
1.695162175187566e+18,0.0,-9.0,1.0,6.0,6.0,3.0,18.0,-3.0
1.695162175187566e+18,1.0,0.0,-2.0,-5.0,-7.0,-2.0,-13.0,2.0
1.6951621751997445e+18,-3.0,-4.0,3.0,5.0,2.0,8.0,2.0,2.0
1.6951621751997445e+18,1.0,9.0,-21.0,-24.0,-9.0,-5.0,0.0,0.0
1.6951621752472481e+18,1.0,-4.0,5.0,13.0,-3.0,1.0,-2.0,4.0
1.6951621752482732e+18,-3.0,-3.0,5.0,5.0,-3.0,-12.0,-2.0,-6.0
1.6951621752742267e+18,3.0,-13.0,10.0,-1.0,9.0,12.0,20.0,7.0
1.695162175275225e+18,-3.0,-7.0,7.0,11.0,-3.0,1.0,-13.0,-1.0
1.6951621752762248e+18,-2.0,10.0,-19.0,-18.0,15.0,0.0,-14.0,-3.0
1.6951621752762248e+18,1.0,-11.0,6.0,7.0,-2.0,0.0,7.0,0.0
1.695162175277225e+18,-6.0,3.0,-3.0,12.0,-10.0,-15.0,-12.0,-12.0
1.695162175277225e+18,1.0,-13.0,-3.0,-12.0,-2.0,-2.0,10.0,1.0
1.6951621752932145e+18,1.0,4.0,-5.0,-10.0,9.0,0.0,2.0,-2.0
1.6951621752932145e+18,-1.0,11.0,-4.0,7.0,-1.0,-4.0,1.0,3.0
1.6951621752982118e+18,0.0,-7.0,5.0,6.0,3.0,2.0,-11.0,-2.0
1.6951621752992108e+18,1.0,-4.0,-18.0,-30.0,-5.0,1.0,29.0,6.0
1.6951621753172006e+18,0.0,1.0,5.0,4.0,-8.0,-1.0,1.0,-1.0
1.6951621753182003e+18,0.0,7.0,2.0,2.0,-1.0,-3.0,-10.0,-5.0
1.6951621753192008e+18,-3.0,5.0,-19.0,-38.0,-18.0,-9.0,-10.0,-7.0
1.6951621753201994e+18,0.0,-13.0,23.0,41.0,21.0,3.0,-3.0,-2.0
1.6951621753381888e+18,-1.0,-8.0,-9.0,-9.0,3.0,2.0,5.0,2.0
1.6951621753381888e+18,0.0,3.0,18.0,7.0,-3.0,-4.0,1.0,-2.0
1.6951621753741665e+18,-3.0,3.0,5.0,7.0,-3.0,3.0,-12.0,-4.0
1.695162175375166e+18,-3.0,3.0,-9.0,-18.0,-6.0,-1.0,-4.0,1.0
1.695162175375166e+18,0.0,-5.0,0.0,12.0,6.0,3.0,-4.0,-1.0
1.695162175375166e+18,1.0,-8.0,6.0,10.0,21.0,3.0,-14.0,-1.0
1.6951621753771645e+18,-2.0,6.0,-6.0,-9.0,-9.0,-10.0,9.0,4.0
1.6951621753771645e+18,2.0,-8.0,1.0,-3.0,-3.0,-5.0,-15.0,-5.0
1.695162175396155e+18,-1.0,-5.0,13.0,2.0,-1.0,5.0,-5.0,2.0
1.695162175396155e+18,0.0,-3.0,-10.0,-7.0,1.0,5.0,17.0,7.0
1.6951621754121444e+18,-1.0,5.0,-6.0,-8.0,-3.0,-1.0,3.0,-3.0
1.6951621754121444e+18,1.0,-23.0,7.0,2.0,1.0,-9.0,-7.0,-4.0
1.6951621754131446e+18,1.0,-1.0,-4.0,-4.0,-11.0,-3.0,4.0,0.0
1.6951621754141445e+18,-2.0,8.0,-4.0,-1.0,-1.0,-6.0,-10.0,-4.0
1.6951621754141445e+18,0.0,-20.0,7.0,0.0,4.0,3.0,6.0,2.0
1.6951621754141445e+18,-5.0,0.0,-11.0,-6.0,5.0,8.0,17.0,2.0
1.6951621754571228e+18,2.0,-5.0,1.0,-1.0,-4.0,0.0,0.0,-1.0
1.6951621754571228e+18,-2.0,-4.0,4.0,6.0,-4.0,-7.0,-16.0,-6.0
1.6951621754581204e+18,1.0,14.0,-8.0,-4.0,-2.0,9.0,9.0,10.0
1.6951621754581204e+18,-2.0,-1.0,1.0,2.0,7.0,-3.0,-19.0,-3.0
1.6951621754581204e+18,1.0,-7.0,6.0,1.0,-1.0,2.0,3.0,3.0
1.695162175459143e+18,-2.0,16.0,-9.0,-7.0,-4.0,-13.0,-2.0,-9.0
1.69516217546012e+18,-1.0,-2.0,-8.0,-8.0,-3.0,4.0,5.0,-2.0
1.69516217546012e+18,-2.0,-4.0,5.0,3.0,-3.0,-5.0,-2.0,-5.0
1.6951621754621174e+18,-2.0,0.0,4.0,-7.0,2.0,-8.0,-9.0,-3.0
1.6951621754621174e+18,0.0,16.0,-4.0,-4.0,-5.0,3.0,-4.0,0.0
1.695162175488101e+18,3.0,0.0,-15.0,-2.0,-4.0,-3.0,2.0,-2.0
1.695162175488101e+18,3.0,12.0,-5.0,-6.0,-3.0,1.0,-5.0,-1.0
1.695162175489102e+18,-2.0,-14.0,-6.0,-8.0,-7.0,-12.0,14.0,-10.0
1.695162175489102e+18,5.0,3.0,1.0,1.0,2.0,29.0,20.0,23.0
1.6951621755240812e+18,-1.0,2.0,3.0,-3.0,5.0,0.0,-5.0,-6.0
1.6951621755280794e+18,3.0,3.0,-5.0,-4.0,-1.0,5.0,-1.0,10.0
1.695162175529081e+18,-1.0,2.0,4.0,7.0,4.0,-1.0,-8.0,-1.0
1.695162175529081e+18,-2.0,-4.0,-21.0,-29.0,-12.0,-21.0,-18.0,-14.0
1.69516217560004e+18,-3.0,-3.0,16.0,16.0,-2.0,-6.0,-19.0,-3.0
1.69516217560004e+18,-6.0,-4.0,3.0,8.0,14.0,10.0,2.0,2.0
1.6951621756010606e+18,2.0,14.0,-8.0,-12.0,-7.0,0.0,9.0,1.0
1.6951621756010606e+18,-3.0,-13.0,7.0,9.0,2.0,-6.0,-17.0,-2.0
1.6951621756120543e+18,1.0,2.0,-14.0,-20.0,-6.0,-3.0,-13.0,-5.0
1.6951621756130337e+18,0.0,2.0,4.0,2.0,-3.0,-4.0,9.0,-6.0
1.6951621756200266e+18,-2.0,-4.0,5.0,10.0,1.0,3.0,12.0,-2.0
1.6951621756200266e+18,2.0,8.0,6.0,2.0,2.0,14.0,33.0,4.0
1.6951621756300224e+18,-4.0,3.0,-10.0,-17.0,-10.0,-20.0,-21.0,-10.0
1.6951621756300224e+18,1.0,-6.0,12.0,23.0,8.0,0.0,-11.0,1.0
1.695162175637017e+18,-2.0,4.0,-10.0,-8.0,-3.0,-9.0,5.0,-4.0
1.6951621756380163e+18,4.0,-30.0,12.0,-1.0,-8.0,2.0,2.0,7.0
1.6951621756380163e+18,0.0,5.0,0.0,5.0,9.0,2.0,0.0,-6.0
1.6951621756380163e+18,2.0,4.0,-7.0,-11.0,-5.0,-6.0,5.0,16.0
1.6951621756510098e+18,-2.0,-5.0,-16.0,-17.0,-8.0,3.0,-4.0,5.0
1.6951621756520077e+18,-1.0,1.0,9.0,10.0,-1.0,-7.0,-27.0,-11.0
1.6951621756799939e+18,-3.0,5.0,-4.0,-6.0,7.0,2.0,4.0,0.0
1.6951621756799939e+18,-1.0,1.0,-6.0,-7.0,-4.0,-4.0,-4.0,0.0
1.6951621756899863e+18,1.0,-5.0,12.0,10.0,-8.0,-3.0,0.0,1.0
1.6951621756899863e+18,-1.0,-4.0,-4.0,-9.0,2.0,-1.0,-3.0,-5.0
1.6951621756909857e+18,-6.0,6.0,1.0,5.0,0.0,6.0,1.0,0.0
1.6951621756909857e+18,4.0,11.0,-6.0,-3.0,5.0,0.0,1.0,-1.0
1.6951621756919882e+18,-8.0,-44.0,18.0,15.0,-3.0,-1.0,4.0,2.0
1.6951621756919882e+18,3.0,8.0,-19.0,-36.0,-11.0,-8.0,-12.0,-5.0
1.6951621757499523e+18,-4.0,-11.0,17.0,31.0,3.0,0.0,5.0,-2.0
1.6951621757499523e+18,-4.0,-12.0,-9.0,-7.0,4.0,-2.0,-2.0,2.0
1.6951621757499523e+18,1.0,-7.0,2.0,2.0,2.0,-2.0,1.0,1.0
