timestamp,EMG_s0,EMG_s1,EMG_s2,EMG_s3,EMG_s4,EMG_s5,EMG_s6,EMG_s7
1.695162284837562e+18,-2.0,-2.0,-2.0,-1.0,-1.0,-1.0,-1.0,0.0
1.695162284837562e+18,-1.0,-3.0,-1.0,-2.0,1.0,-2.0,1.0,0.0
1.6951622848385367e+18,0.0,-1.0,-1.0,-2.0,0.0,-1.0,0.0,-2.0
1.6951622848385367e+18,-1.0,-2.0,-1.0,-2.0,-2.0,0.0,1.0,0.0
1.6951622848395356e+18,0.0,1.0,-1.0,0.0,0.0,0.0,0.0,-1.0
1.6951622848395356e+18,-1.0,-2.0,0.0,-1.0,-1.0,0.0,0.0,-2.0
1.6951622848445327e+18,-2.0,-3.0,-2.0,2.0,0.0,-2.0,-1.0,-1.0
1.6951622848445327e+18,0.0,-1.0,0.0,-1.0,1.0,0.0,0.0,0.0
1.6951622848475305e+18,-1.0,0.0,-2.0,-2.0,-2.0,0.0,-2.0,-2.0
1.6951622848475305e+18,-3.0,0.0,-1.0,0.0,-1.0,-2.0,-1.0,-1.0
1.6951622848495296e+18,-2.0,-2.0,-1.0,-2.0,-2.0,-1.0,0.0,1.0
1.6951622848505308e+18,-1.0,-1.0,0.0,-1.0,-1.0,0.0,-2.0,0.0
1.6951622848645235e+18,-1.0,0.0,0.0,-1.0,-1.0,0.0,-1.0,-2.0
1.6951622848645235e+18,1.0,0.0,-2.0,0.0,0.0,-1.0,0.0,0.0
1.6951622848755151e+18,-2.0,-1.0,1.0,-3.0,0.0,0.0,-1.0,-1.0
1.6951622848755151e+18,-1.0,-1.0,-1.0,0.0,1.0,0.0,0.0,-1.0
1.695162284895503e+18,1.0,-2.0,0.0,-3.0,0.0,-1.0,-1.0,1.0
1.695162284895503e+18,-2.0,-1.0,-1.0,-3.0,0.0,-1.0,-3.0,-2.0
1.6951622848965033e+18,0.0,-2.0,-2.0,1.0,-1.0,-2.0,-1.0,-3.0
1.6951622848975025e+18,0.0,0.0,-3.0,0.0,-4.0,-1.0,-3.0,0.0
1.6951622849135168e+18,-2.0,-2.0,-3.0,1.0,-2.0,-3.0,-2.0,-2.0
1.6951622849135168e+18,-2.0,-3.0,-2.0,-2.0,-3.0,-1.0,-3.0,-3.0
1.6951622849135168e+18,-3.0,-1.0,-2.0,-3.0,2.0,-1.0,-1.0,-1.0
1.6951622849135168e+18,-3.0,-1.0,-1.0,-2.0,-1.0,-2.0,0.0,-1.0
1.6951622849504753e+18,-1.0,-2.0,-3.0,-2.0,-2.0,-1.0,-2.0,-1.0
1.6951622849514775e+18,-1.0,0.0,-1.0,1.0,-1.0,-1.0,-2.0,-1.0
1.6951622849514775e+18,-1.0,0.0,1.0,2.0,-1.0,-2.0,-1.0,-1.0
1.6951622849514775e+18,0.0,0.0,0.0,1.0,0.0,0.0,1.0,-2.0
1.695162284980457e+18,-2.0,-1.0,-1.0,-1.0,-3.0,-1.0,1.0,0.0
1.695162284980457e+18,-2.0,-1.0,-2.0,-2.0,0.0,0.0,0.0,-1.0
1.695162284981454e+18,-3.0,-2.0,-2.0,-2.0,-4.0,-3.0,-2.0,-2.0
1.695162284981454e+18,-3.0,-3.0,-2.0,-1.0,-2.0,0.0,0.0,-1.0
1.6951622849854523e+18,-1.0,-1.0,-1.0,0.0,0.0,0.0,-1.0,-2.0
1.6951622849864522e+18,-2.0,-1.0,-2.0,-2.0,-4.0,-2.0,-2.0,-1.0
1.6951622849864522e+18,-3.0,-2.0,-2.0,0.0,-1.0,1.0,1.0,-3.0
1.6951622849864522e+18,-1.0,-1.0,-1.0,3.0,4.0,1.0,0.0,0.0
1.695162284987454e+18,-1.0,-2.0,-1.0,-1.0,-1.0,-2.0,-2.0,-2.0
1.695162284987454e+18,-1.0,-3.0,-2.0,-2.0,-1.0,-2.0,-1.0,0.0
1.695162284999444e+18,-1.0,-2.0,-1.0,-2.0,0.0,-3.0,-2.0,-2.0
1.695162284999444e+18,-2.0,-1.0,-2.0,-2.0,-1.0,-2.0,-2.0,-2.0
1.6951622850074394e+18,-2.0,-1.0,-3.0,-1.0,-1.0,0.0,-2.0,0.0
1.6951622850074394e+18,-1.0,-2.0,-3.0,0.0,0.0,-2.0,0.0,-1.0
1.6951622850134354e+18,-1.0,-1.0,-1.0,-2.0,-2.0,-3.0,-1.0,0.0
1.6951622850144356e+18,0.0,-2.0,-2.0,0.0,-2.0,-3.0,-2.0,0.0
1.6951622850224307e+18,-1.0,-3.0,-2.0,0.0,0.0,-2.0,0.0,-1.0
1.6951622850224307e+18,-1.0,-1.0,-2.0,-2.0,1.0,-1.0,-1.0,-3.0
1.695162285051417e+18,0.0,-2.0,2.0,0.0,-1.0,-1.0,0.0,-1.0
1.695162285051417e+18,0.0,0.0,-1.0,-1.0,-1.0,-1.0,-1.0,-2.0
1.6951622850524142e+18,-2.0,0.0,0.0,-2.0,-1.0,-1.0,-3.0,0.0
1.6951622850524142e+18,-1.0,1.0,0.0,0.0,-1.0,0.0,0.0,-3.0
1.6951622850594117e+18,-1.0,-1.0,-1.0,-1.0,0.0,0.0,0.0,0.0
1.6951622850594117e+18,-4.0,-1.0,-1.0,-1.0,-2.0,-2.0,-2.0,-1.0
1.6951622850604132e+18,-2.0,0.0,1.0,1.0,0.0,-1.0,-1.0,-1.0
1.6951622850604132e+18,-1.0,-1.0,-1.0,2.0,0.0,1.0,-1.0,-1.0
1.6951622850924145e+18,0.0,-2.0,-4.0,-4.0,-2.0,-7.0,-2.0,-1.0
1.6951622850933993e+18,-1.0,-3.0,-2.0,-4.0,-2.0,0.0,1.0,1.0
1.6951622850933993e+18,-1.0,0.0,1.0,3.0,-1.0,2.0,3.0,1.0
1.6951622850933993e+18,0.0,1.0,0.0,2.0,-2.0,6.0,3.0,3.0
1.6951622851043855e+18,2.0,4.0,0.0,2.0,8.0,7.0,2.0,1.0
1.6951622851043855e+18,2.0,3.0,-1.0,3.0,14.0,5.0,1.0,0.0
1.69516228511238e+18,0.0,0.0,0.0,-1.0,1.0,-2.0,-2.0,-2.0
1.69516228511238e+18,-1.0,0.0,1.0,4.0,-1.0,-4.0,-4.0,0.0
1.6951622851193746e+18,-1.0,0.0,0.0,-8.0,-9.0,-8.0,-3.0,-1.0
1.6951622851193746e+18,0.0,0.0,0.0,4.0,-3.0,0.0,-1.0,0.0
1.6951622851203748e+18,2.0,0.0,-3.0,-7.0,5.0,3.0,2.0,2.0
1.6951622851203748e+18,1.0,2.0,1.0,4.0,7.0,2.0,-1.0,0.0
1.6951622851423624e+18,-1.0,-1.0,-1.0,1.0,5.0,4.0,2.0,0.0
1.6951622851423624e+18,-1.0,-1.0,-1.0,-6.0,-6.0,0.0,-4.0,-2.0
1.6951622851433623e+18,-1.0,-1.0,-1.0,-2.0,-12.0,-4.0,-1.0,-2.0
1.6951622851433623e+18,-1.0,-2.0,-3.0,-4.0,2.0,-10.0,-3.0,-2.0
1.6951622851653512e+18,0.0,1.0,0.0,6.0,9.0,7.0,-2.0,0.0
1.6951622851653512e+18,-1.0,0.0,0.0,2.0,6.0,-2.0,1.0,-1.0
1.695162285166349e+18,0.0,-1.0,0.0,-3.0,-17.0,-7.0,-2.0,-2.0
1.695162285166349e+18,-1.0,-1.0,1.0,-6.0,0.0,7.0,-1.0,0.0
1.695162285179341e+18,1.0,0.0,2.0,5.0,0.0,-3.0,0.0,0.0
1.695162285179341e+18,-1.0,0.0,-2.0,-2.0,-5.0,-7.0,-4.0,-2.0
1.695162285188336e+18,2.0,-1.0,2.0,4.0,9.0,5.0,2.0,1.0
1.695162285188336e+18,1.0,-3.0,-18.0,-16.0,5.0,2.0,5.0,0.0
1.6951622852023286e+18,0.0,0.0,0.0,-4.0,-8.0,3.0,-5.0,-3.0
1.6951622852023286e+18,-4.0,-1.0,9.0,11.0,-7.0,-17.0,0.0,-2.0
1.695162285203331e+18,-2.0,-1.0,0.0,8.0,1.0,-9.0,-30.0,-8.0
1.695162285203331e+18,0.0,0.0,5.0,8.0,3.0,13.0,14.0,8.0
1.6951622852273142e+18,1.0,-2.0,-10.0,-21.0,-9.0,10.0,15.0,5.0
1.6951622852273142e+18,1.0,-2.0,-1.0,-1.0,-4.0,-13.0,1.0,1.0
1.6951622852273142e+18,1.0,2.0,5.0,-5.0,-3.0,-3.0,12.0,1.0
1.6951622852273142e+18,-4.0,-1.0,-1.0,8.0,23.0,24.0,-19.0,-9.0
1.6951622852393065e+18,0.0,1.0,2.0,3.0,-6.0,-7.0,-4.0,3.0
1.6951622852393065e+18,-1.0,-3.0,-2.0,-5.0,-7.0,-2.0,17.0,1.0
1.6951622852692895e+18,-1.0,0.0,-5.0,-3.0,-6.0,-1.0,10.0,4.0
1.6951622852692895e+18,-1.0,-3.0,-2.0,-7.0,-12.0,-11.0,2.0,-1.0
1.695162285270292e+18,-1.0,-1.0,1.0,7.0,12.0,2.0,-9.0,-4.0
1.6951622852712899e+18,1.0,0.0,-3.0,-2.0,-5.0,0.0,-10.0,-3.0
1.6951622852712899e+18,1.0,-2.0,-1.0,-1.0,3.0,-4.0,5.0,1.0
1.6951622852712899e+18,-1.0,1.0,3.0,-4.0,-4.0,-5.0,-6.0,-3.0
1.695162285285281e+18,-1.0,-1.0,-2.0,2.0,-2.0,1.0,-2.0,-2.0
1.6951622852862807e+18,-1.0,-4.0,-4.0,-6.0,-2.0,-6.0,-17.0,-2.0
1.6951622852862807e+18,0.0,1.0,-3.0,-6.0,-3.0,12.0,19.0,2.0
1.6951622852862807e+18,1.0,-1.0,4.0,-5.0,0.0,-3.0,1.0,2.0
1.6951622852992737e+18,-2.0,-2.0,1.0,-4.0,-3.0,-2.0,-2.0,-1.0
1.6951622852992737e+18,0.0,3.0,0.0,4.0,4.0,2.0,-2.0,-1.0
1.695162285307268e+18,0.0,-1.0,2.0,5.0,7.0,-3.0,-4.0,-3.0
1.695162285307268e+18,1.0,-1.0,1.0,10.0,-12.0,-9.0,-8.0,-3.0
1.6951622853302543e+18,0.0,-4.0,0.0,2.0,4.0,5.0,3.0,-2.0
1.6951622853302543e+18,-1.0,-2.0,-3.0,-2.0,-3.0,-6.0,-25.0,-8.0
1.6951622853302543e+18,-1.0,-3.0,-4.0,-9.0,1.0,16.0,22.0,5.0
1.6951622853312563e+18,-1.0,0.0,-2.0,-1.0,-4.0,-13.0,1.0,-3.0
1.6951622853452485e+18,-5.0,-6.0,-3.0,1.0,-9.0,-8.0,-7.0,-2.0
1.6951622853452485e+18,-2.0,1.0,4.0,6.0,0.0,-2.0,-5.0,-3.0
1.6951622853462487e+18,-2.0,-4.0,-12.0,-9.0,4.0,-11.0,-18.0,-8.0
1.6951622853462487e+18,-1.0,-1.0,-4.0,-8.0,-3.0,1.0,-7.0,0.0
1.695162285364259e+18,1.0,3.0,0.0,9.0,-4.0,4.0,20.0,2.0
1.695162285364259e+18,-1.0,-4.0,-9.0,-14.0,-2.0,-2.0,7.0,3.0
1.6951622853672356e+18,-3.0,-1.0,4.0,4.0,-16.0,-13.0,-10.0,-4.0
1.695162285368235e+18,0.0,-1.0,0.0,-5.0,5.0,15.0,-3.0,1.0
1.6951622853822326e+18,-2.0,0.0,4.0,9.0,7.0,-14.0,-4.0,-3.0
1.6951622853822326e+18,0.0,0.0,0.0,6.0,6.0,8.0,9.0,1.0
1.6951622853832246e+18,1.0,3.0,4.0,-6.0,-3.0,12.0,0.0,5.0
1.6951622853832246e+18,-2.0,-4.0,5.0,11.0,-5.0,-22.0,2.0,-1.0
1.6951622854052355e+18,-4.0,0.0,6.0,4.0,2.0,7.0,-16.0,-8.0
1.6951622854052355e+18,0.0,-1.0,-3.0,-6.0,17.0,15.0,15.0,7.0
1.6951622854062116e+18,-1.0,0.0,-15.0,-21.0,-12.0,-11.0,-14.0,-6.0
1.6951622854062116e+18,-2.0,-4.0,-9.0,-10.0,-10.0,-7.0,0.0,1.0
1.6951622854281984e+18,0.0,-4.0,-2.0,2.0,-11.0,-10.0,-7.0,-1.0
1.6951622854281984e+18,-1.0,1.0,3.0,-1.0,-5.0,-6.0,-13.0,-6.0
1.6951622854281984e+18,-3.0,-4.0,-2.0,2.0,3.0,11.0,16.0,5.0
1.6951622854281984e+18,1.0,3.0,0.0,-1.0,4.0,-4.0,-7.0,1.0
1.6951622854671775e+18,1.0,-3.0,-7.0,-4.0,1.0,-2.0,4.0,0.0
1.6951622854671775e+18,-2.0,-2.0,10.0,15.0,4.0,9.0,0.0,0.0
1.6951622854671775e+18,-2.0,-1.0,-4.0,0.0,-3.0,-2.0,1.0,-1.0
1.6951622854681764e+18,-1.0,-2.0,-1.0,2.0,-2.0,-7.0,-9.0,-6.0
1.6951622854691758e+18,3.0,2.0,3.0,-14.0,4.0,2.0,7.0,4.0
1.6951622854691758e+18,2.0,3.0,0.0,-2.0,-10.0,5.0,-6.0,-2.0
1.6951622854801713e+18,-3.0,-2.0,9.0,19.0,11.0,-2.0,9.0,-2.0
1.6951622854801713e+18,2.0,2.0,-5.0,-23.0,-35.0,-5.0,5.0,7.0
1.6951622854821673e+18,-2.0,-6.0,4.0,31.0,15.0,-7.0,-3.0,-2.0
1.6951622854821673e+18,-1.0,-1.0,-19.0,-22.0,27.0,30.0,20.0,5.0
1.6951622854951608e+18,-2.0,-4.0,9.0,1.0,-8.0,-20.0,-23.0,-9.0
1.6951622854961608e+18,-1.0,-2.0,-16.0,15.0,0.0,8.0,4.0,2.0
1.6951622855031572e+18,-2.0,-2.0,-10.0,-30.0,-15.0,-7.0,0.0,-3.0
1.6951622855031572e+18,-1.0,0.0,1.0,-5.0,-13.0,-13.0,-5.0,-1.0
1.6951622855041554e+18,3.0,2.0,-1.0,1.0,11.0,2.0,-8.0,-2.0
1.6951622855041554e+18,-1.0,-4.0,-10.0,-13.0,-10.0,-7.0,8.0,0.0
1.695162285541158e+18,0.0,3.0,4.0,1.0,3.0,9.0,3.0,3.0
1.695162285541158e+18,-3.0,-6.0,-5.0,-4.0,-9.0,-5.0,-3.0,-3.0
1.695162285541158e+18,1.0,1.0,10.0,6.0,4.0,2.0,-12.0,-1.0
1.6951622855421335e+18,1.0,-1.0,2.0,9.0,6.0,-2.0,-3.0,-2.0
1.6951622855431332e+18,-3.0,-3.0,-18.0,-27.0,-3.0,-3.0,-19.0,-9.0
1.6951622855441416e+18,1.0,6.0,-4.0,0.0,-5.0,-2.0,7.0,-1.0
1.6951622856314555e+18,-2.0,1.0,-4.0,-5.0,-7.0,-8.0,-7.0,-4.0
1.695162285632431e+18,0.0,2.0,5.0,3.0,9.0,5.0,23.0,7.0
1.6951622856334313e+18,-1.0,-1.0,8.0,11.0,-3.0,-4.0,-6.0,-1.0
1.6951622856334313e+18,0.0,0.0,2.0,-1.0,-7.0,2.0,5.0,0.0
1.6951622856344302e+18,2.0,3.0,-9.0,-9.0,5.0,6.0,0.0,0.0
1.6951622856344302e+18,-4.0,-3.0,8.0,7.0,6.0,-2.0,-25.0,-7.0
1.695162285647423e+18,2.0,2.0,-6.0,-9.0,-7.0,3.0,28.0,5.0
1.695162285647423e+18,-3.0,-2.0,6.0,4.0,-9.0,-20.0,-25.0,-4.0
1.695162285648422e+18,-3.0,-6.0,9.0,17.0,5.0,-3.0,-28.0,-14.0
1.695162285648422e+18,-4.0,-5.0,-2.0,-2.0,-1.0,18.0,69.0,23.0
1.6951622856494241e+18,0.0,7.0,-10.0,0.0,-3.0,4.0,5.0,2.0
1.6951622856494241e+18,4.0,5.0,-2.0,-6.0,7.0,0.0,0.0,2.0
1.695162285652421e+18,1.0,-4.0,5.0,-3.0,-6.0,-8.0,10.0,4.0
1.695162285652421e+18,-6.0,-16.0,18.0,16.0,0.0,-7.0,-28.0,-12.0
1.6951622856824046e+18,-2.0,-3.0,-11.0,-11.0,-9.0,-19.0,-49.0,-2.0
1.6951622856824046e+18,-2.0,9.0,0.0,7.0,14.0,-9.0,-34.0,-14.0
1.6951622857083878e+18,3.0,-7.0,3.0,8.0,20.0,40.0,64.0,17.0
1.6951622857083878e+18,2.0,15.0,6.0,5.0,4.0,-4.0,6.0,-8.0
1.6951622857093883e+18,2.0,4.0,-4.0,-9.0,-10.0,12.0,35.0,17.0
1.69516228571039e+18,-2.0,-9.0,-2.0,0.0,-20.0,-20.0,-3.0,-8.0
1.695162285715387e+18,-2.0,-1.0,-4.0,-6.0,-5.0,-16.0,-43.0,-11.0
1.695162285715387e+18,0.0,-5.0,5.0,5.0,5.0,10.0,10.0,5.0
1.695162285760358e+18,3.0,16.0,0.0,5.0,6.0,-4.0,-6.0,-6.0
1.6951622857613583e+18,-1.0,-33.0,0.0,-2.0,7.0,22.0,28.0,13.0
1.6951622857613583e+18,-3.0,-11.0,8.0,9.0,3.0,4.0,23.0,4.0
1.6951622857613583e+18,-1.0,11.0,-11.0,-20.0,-11.0,-1.0,-6.0,1.0
1.6951622857613583e+18,-5.0,-14.0,20.0,33.0,8.0,1.0,5.0,-4.0
1.695162285762357e+18,4.0,2.0,3.0,-15.0,3.0,-3.0,-18.0,-2.0
1.695162285764357e+18,-1.0,9.0,-6.0,5.0,0.0,-8.0,-13.0,-1.0
1.6951622857653558e+18,0.0,-13.0,14.0,1.0,0.0,11.0,34.0,14.0
1.6951622858123284e+18,1.0,-11.0,-3.0,-17.0,-4.0,2.0,5.0,1.0
1.6951622858123284e+18,-4.0,2.0,6.0,10.0,0.0,-2.0,-9.0,-9.0
1.6951622858133276e+18,-5.0,-7.0,6.0,7.0,10.0,16.0,23.0,9.0
1.6951622858133276e+18,2.0,23.0,-7.0,-4.0,-2.0,2.0,5.0,1.0
1.6951622858133276e+18,-1.0,11.0,4.0,2.0,-9.0,-7.0,-7.0,-7.0
1.6951622858143273e+18,-2.0,-8.0,6.0,14.0,11.0,0.0,-14.0,0.0
1.6951622858183258e+18,-5.0,-14.0,-6.0,-14.0,-13.0,-1.0,-3.0,-3.0
1.6951622858183258e+18,2.0,9.0,-3.0,3.0,7.0,1.0,1.0,-3.0
1.6951622858712937e+18,2.0,10.0,-4.0,2.0,7.0,5.0,11.0,-1.0
1.6951622858712937e+18,0.0,-12.0,-6.0,-10.0,-4.0,7.0,4.0,3.0
1.6951622858722936e+18,2.0,-4.0,3.0,12.0,7.0,17.0,25.0,10.0
1.6951622858722936e+18,-1.0,7.0,-1.0,-6.0,-11.0,-11.0,-16.0,-3.0
1.6951622858742925e+18,-3.0,-3.0,-3.0,-4.0,-3.0,-5.0,-12.0,-2.0
1.6951622858742925e+18,-1.0,9.0,3.0,1.0,-7.0,-6.0,-2.0,-2.0
1.6951622858802898e+18,0.0,-6.0,-17.0,-15.0,-4.0,-6.0,-2.0,-1.0
1.6951622858802898e+18,-6.0,3.0,1.0,7.0,1.0,-8.0,-20.0,-5.0
1.695162285908274e+18,-4.0,-1.0,-7.0,-5.0,-4.0,-4.0,-23.0,-7.0
1.6951622859152694e+18,-2.0,-3.0,-6.0,-7.0,-12.0,-3.0,18.0,7.0
1.695162285922266e+18,-3.0,2.0,0.0,3.0,4.0,1.0,6.0,-4.0
1.695162285922266e+18,-1.0,1.0,-4.0,-1.0,-2.0,-9.0,-2.0,-8.0
1.6951622859312594e+18,6.0,0.0,7.0,2.0,10.0,19.0,-4.0,9.0
1.69516228593226e+18,1.0,3.0,14.0,27.0,4.0,-4.0,-7.0,-5.0
1.69516228593226e+18,-1.0,-10.0,-2.0,-19.0,-11.0,-9.0,-11.0,2.0
1.69516228593226e+18,-2.0,-2.0,10.0,17.0,9.0,9.0,4.0,-2.0
1.6951622859342592e+18,-1.0,1.0,-7.0,-14.0,-6.0,-11.0,19.0,2.0
1.6951622859342592e+18,-3.0,1.0,-11.0,-11.0,-6.0,1.0,-5.0,-4.0
1.6951622859622456e+18,1.0,-2.0,10.0,4.0,7.0,2.0,0.0,1.0
1.6951622859622456e+18,3.0,24.0,-5.0,-1.0,-7.0,-5.0,-7.0,-2.0
1.6951622859632453e+18,-2.0,-4.0,-4.0,2.0,-5.0,-10.0,-9.0,1.0
1.6951622859632453e+18,-3.0,-15.0,8.0,8.0,7.0,1.0,5.0,-5.0
1.6951622859832315e+18,-4.0,-23.0,7.0,4.0,2.0,1.0,9.0,-6.0
1.6951622859832315e+18,7.0,10.0,-8.0,-12.0,-1.0,9.0,16.0,8.0
1.695162285984231e+18,1.0,-5.0,7.0,8.0,0.0,-3.0,-3.0,-4.0
1.695162285984231e+18,-1.0,1.0,-5.0,-7.0,-6.0,-7.0,-12.0,-9.0
1.6951622859862303e+18,-4.0,3.0,-4.0,5.0,2.0,-4.0,8.0,-10.0
1.6951622859862303e+18,2.0,-6.0,-3.0,-4.0,0.0,7.0,2.0,1.0
1.6951622860142144e+18,5.0,10.0,-10.0,-9.0,6.0,21.0,36.0,11.0
1.6951622860142144e+18,-1.0,-1.0,-2.0,-3.0,1.0,1.0,-2.0,-3.0
1.6951622860152123e+18,-2.0,-3.0,0.0,-3.0,-13.0,-24.0,-19.0,-8.0
1.695162286016214e+18,1.0,1.0,-2.0,9.0,13.0,6.0,14.0,6.0
1.695162286016214e+18,-10.0,-16.0,3.0,-3.0,-3.0,-14.0,-3.0,-11.0
1.695162286016214e+18,2.0,16.0,-6.0,-2.0,-7.0,3.0,-2.0,4.0
1.6951622860202097e+18,1.0,0.0,-1.0,5.0,3.0,-3.0,5.0,0.0
1.6951622860202097e+18,0.0,3.0,-14.0,-16.0,2.0,10.0,-16.0,7.0
1.6951622860352015e+18,-5.0,-4.0,-3.0,-3.0,-8.0,-25.0,-10.0,-14.0
1.6951622860352015e+18,3.0,6.0,11.0,13.0,-2.0,5.0,5.0,3.0
1.6951622860371996e+18,2.0,1.0,-4.0,-8.0,1.0,6.0,-4.0,3.0
1.6951622860371996e+18,-3.0,5.0,-5.0,-12.0,-5.0,-11.0,5.0,-3.0
1.695162286058188e+18,0.0,12.0,-1.0,6.0,3.0,3.0,-12.0,1.0
1.695162286058188e+18,-2.0,6.0,-12.0,-13.0,-3.0,1.0,12.0,1.0
1.69516228605919e+18,-1.0,-7.0,8.0,14.0,3.0,6.0,0.0,1.0
1.6951622860601866e+18,-6.0,-12.0,1.0,-4.0,-6.0,-14.0,-16.0,-10.0
1.695162286064184e+18,-5.0,-4.0,-3.0,8.0,3.0,-7.0,-20.0,-8.0
1.695162286064184e+18,0.0,-1.0,-6.0,-10.0,-8.0,0.0,-7.0,-3.0
1.6951622860731786e+18,2.0,10.0,1.0,5.0,11.0,30.0,36.0,19.0
1.6951622860731786e+18,-3.0,-5.0,-3.0,-1.0,-1.0,3.0,12.0,10.0
1.6951622860961656e+18,-2.0,-7.0,16.0,7.0,-10.0,-13.0,-10.0,2.0
1.6951622860961656e+18,-1.0,-3.0,-8.0,0.0,11.0,1.0,-2.0,-6.0
1.6951622860971656e+18,1.0,6.0,-12.0,-4.0,3.0,4.0,6.0,-2.0
1.6951622860971656e+18,-1.0,-7.0,7.0,1.0,-4.0,1.0,2.0,-4.0
1.6951622861091581e+18,-2.0,4.0,-7.0,-10.0,-9.0,-14.0,-20.0,-6.0
1.6951622861101596e+18,-2.0,-24.0,13.0,9.0,5.0,14.0,-11.0,-4.0
1.6951622861261484e+18,2.0,9.0,-3.0,-5.0,-5.0,-16.0,-25.0,-1.0
1.695162286132146e+18,0.0,-14.0,3.0,2.0,-1.0,13.0,17.0,3.0
1.695162286132146e+18,3.0,16.0,-2.0,5.0,1.0,1.0,8.0,4.0
1.6951622861331471e+18,-2.0,4.0,-4.0,-5.0,0.0,-13.0,-11.0,-4.0
1.6951622861331471e+18,-4.0,-8.0,-8.0,-5.0,-4.0,-4.0,-4.0,-6.0
1.6951622861331471e+18,-2.0,-6.0,10.0,17.0,-5.0,-13.0,-34.0,-12.0
1.6951622861501363e+18,5.0,-4.0,-15.0,-27.0,-3.0,18.0,31.0,12.0
1.6951622861511357e+18,0.0,-5.0,12.0,13.0,10.0,3.0,-7.0,6.0
1.6951622861511357e+18,1.0,0.0,-9.0,-20.0,-13.0,-8.0,10.0,-4.0
1.6951622861521382e+18,-4.0,2.0,-10.0,-9.0,2.0,13.0,6.0,-6.0
1.6951622861691254e+18,2.0,-35.0,16.0,21.0,16.0,8.0,-3.0,11.0
1.6951622861691254e+18,-5.0,4.0,-16.0,-13.0,-6.0,0.0,-11.0,-6.0
1.695162286186116e+18,7.0,15.0,-12.0,-25.0,-15.0,-5.0,24.0,12.0
1.695162286186116e+18,-6.0,-30.0,15.0,13.0,3.0,-3.0,-5.0,-1.0
1.695162286187114e+18,0.0,11.0,-6.0,-10.0,-7.0,1.0,-9.0,-7.0
1.695162286187114e+18,7.0,5.0,-3.0,-2.0,0.0,-7.0,27.0,0.0
1.695162286209101e+18,-6.0,4.0,13.0,19.0,6.0,-4.0,-24.0,-7.0
1.6951622862130998e+18,0.0,6.0,-5.0,-13.0,-3.0,3.0,5.0,1.0
1.6951622862130998e+18,3.0,9.0,-2.0,-2.0,-1.0,1.0,10.0,0.0
1.6951622862140982e+18,-6.0,2.0,-2.0,-2.0,-4.0,-14.0,-14.0,-1.0
1.6951622862211177e+18,2.0,3.0,-2.0,1.0,-1.0,2.0,-12.0,-3.0
1.6951622862220964e+18,2.0,-10.0,-13.0,-9.0,-3.0,-2.0,6.0,4.0
1.695162286229091e+18,-3.0,6.0,9.0,7.0,1.0,1.0,-1.0,-7.0
1.6951622862300902e+18,4.0,10.0,-2.0,2.0,-7.0,-1.0,-3.0,1.0
1.6951622862380846e+18,-9.0,-44.0,20.0,15.0,7.0,2.0,-1.0,0.0
1.6951622862380846e+18,3.0,4.0,-12.0,-17.0,-8.0,-9.0,-1.0,3.0
1.695162286246081e+18,-2.0,12.0,13.0,22.0,2.0,6.0,-6.0,-8.0
1.695162286246081e+18,0.0,-3.0,-8.0,-12.0,-1.0,1.0,5.0,5.0
1.6951622862610714e+18,0.0,-9.0,19.0,19.0,6.0,0.0,1.0,2.0
1.6951622862610714e+18,2.0,20.0,-5.0,-5.0,-2.0,-1.0,1.0,-1.0
1.695162286276063e+18,0.0,-4.0,-8.0,-7.0,-3.0,-3.0,-1.0,0.0
1.695162286276063e+18,-4.0,-3.0,12.0,7.0,-2.0,2.0,5.0,2.0
1.6951622862820723e+18,0.0,1.0,-5.0,-9.0,1.0,3.0,0.0,-1.0
1.6951622862880566e+18,0.0,3.0,5.0,1.0,-1.0,-4.0,-2.0,0.0
1.6951622862980498e+18,0.0,8.0,-9.0,-11.0,-2.0,-3.0,-2.0,-3.0
1.6951622862980498e+18,-1.0,-4.0,4.0,4.0,-1.0,2.0,4.0,1.0
1.6951622862990495e+18,-1.0,4.0,-9.0,-4.0,-2.0,-2.0,-3.0,-2.0
1.6951622862990495e+18,0.0,0.0,-1.0,-3.0,-2.0,0.0,-2.0,-1.0
1.695162286304046e+18,-2.0,-5.0,0.0,-3.0,-3.0,0.0,2.0,-1.0
1.695162286304046e+18,-1.0,-5.0,-2.0,1.0,1.0,2.0,1.0,3.0
1.6951622863370276e+18,-2.0,1.0,-3.0,-2.0,-2.0,-2.0,-5.0,-2.0
1.6951622863380275e+18,0.0,-1.0,5.0,9.0,3.0,0.0,1.0,0.0
1.6951622863380275e+18,-2.0,-5.0,-4.0,-5.0,0.0,0.0,4.0,0.0
1.6951622863390292e+18,0.0,-1.0,-2.0,-5.0,-2.0,-2.0,1.0,0.0
1.6951622863490222e+18,0.0,4.0,-2.0,3.0,0.0,0.0,-1.0,-1.0
1.6951622863500216e+18,0.0,-1.0,5.0,6.0,0.0,0.0,0.0,-1.0
1.6951622863740058e+18,0.0,-2.0,-6.0,-8.0,-1.0,0.0,-2.0,0.0
1.6951622863740058e+18,0.0,-2.0,-2.0,1.0,-2.0,-1.0,-3.0,0.0
1.6951622863760054e+18,-1.0,1.0,-1.0,-1.0,-1.0,-3.0,-3.0,-3.0
1.6951622863760054e+18,-2.0,-3.0,1.0,1.0,2.0,0.0,-1.0,-1.0
1.6951622863770056e+18,-1.0,-1.0,0.0,-2.0,2.0,-1.0,-2.0,0.0
1.6951622863770056e+18,0.0,0.0,-1.0,1.0,0.0,0.0,0.0,1.0
1.6951622863989924e+18,2.0,0.0,-2.0,-3.0,-1.0,1.0,-2.0,-2.0
1.6951622863989924e+18,1.0,-2.0,1.0,1.0,-2.0,-1.0,0.0,-1.0
1.6951622864119846e+18,-1.0,0.0,-1.0,-2.0,0.0,0.0,0.0,-1.0
1.6951622864119846e+18,0.0,-2.0,1.0,-1.0,0.0,0.0,-3.0,-3.0
1.6951622864129843e+18,-1.0,-1.0,-3.0,-3.0,0.0,1.0,0.0,1.0
1.6951622864129843e+18,-1.0,0.0,-1.0,1.0,0.0,0.0,1.0,0.0
1.6951622864139835e+18,0.0,0.0,-2.0,-1.0,-4.0,-4.0,-1.0,-1.0
1.6951622864139835e+18,1.0,-2.0,-1.0,-2.0,0.0,0.0,0.0,1.0
1.695162286424977e+18,0.0,1.0,-1.0,1.0,-2.0,-1.0,1.0,0.0
1.6951622864259794e+18,0.0,0.0,1.0,2.0,1.0,-1.0,0.0,1.0
1.6951622864489646e+18,0.0,-2.0,-1.0,-1.0,2.0,-3.0,3.0,0.0
1.6951622864489646e+18,-1.0,-1.0,-2.0,-2.0,-8.0,-5.0,-1.0,0.0
1.695162286450963e+18,-5.0,2.0,0.0,3.0,8.0,14.0,1.0,-3.0
1.695162286450963e+18,6.0,0.0,1.0,1.0,-1.0,4.0,-3.0,-5.0
1.695162286451965e+18,-4.0,-4.0,-2.0,-4.0,-17.0,-28.0,-6.0,5.0
1.695162286451965e+18,1.0,1.0,2.0,6.0,17.0,29.0,8.0,4.0
1.6951622864839583e+18,-1.0,0.0,0.0,1.0,0.0,-5.0,0.0,-13.0
1.6951622864849454e+18,-4.0,-4.0,-2.0,-2.0,-3.0,-11.0,0.0,15.0
1.6951622865219213e+18,-1.0,-2.0,-1.0,-3.0,-10.0,3.0,-3.0,-2.0
1.6951622865219213e+18,-1.0,1.0,-4.0,-4.0,-2.0,-8.0,-4.0,-1.0
1.695162286547907e+18,1.0,-2.0,-1.0,-2.0,7.0,5.0,1.0,3.0
1.695162286547907e+18,-2.0,-1.0,-2.0,1.0,0.0,2.0,-2.0,-9.0
1.695162286547907e+18,1.0,-1.0,-2.0,-5.0,0.0,-2.0,-8.0,-6.0
1.695162286547907e+18,-2.0,-2.0,0.0,-4.0,-15.0,-12.0,-1.0,1.0
1.6951622865489062e+18,1.0,1.0,-1.0,0.0,9.0,11.0,4.0,-1.0
1.6951622865489062e+18,-2.0,0.0,-1.0,0.0,-2.0,-1.0,1.0,-3.0
1.6951622865599007e+18,1.0,-1.0,0.0,2.0,9.0,21.0,4.0,2.0
1.6951622865599007e+18,-2.0,-2.0,-1.0,-2.0,-7.0,-6.0,-6.0,-5.0
1.6951622865699174e+18,-1.0,-2.0,-2.0,-1.0,4.0,-6.0,-2.0,-2.0
1.6951622865699174e+18,-2.0,1.0,1.0,2.0,12.0,3.0,0.0,1.0
1.6951622865718935e+18,-3.0,-2.0,-2.0,-4.0,-9.0,-14.0,-6.0,2.0
1.6951622865718935e+18,-2.0,-3.0,-3.0,-5.0,-12.0,-18.0,-3.0,-2.0
1.6951622865749146e+18,1.0,-2.0,-3.0,-2.0,-2.0,6.0,3.0,0.0
1.6951622865749146e+18,-2.0,-1.0,1.0,6.0,6.0,4.0,1.0,-3.0
1.6951622865768911e+18,0.0,0.0,0.0,-3.0,-1.0,5.0,-1.0,-1.0
1.6951622865768911e+18,-1.0,-2.0,-12.0,-1.0,-3.0,-6.0,-4.0,-2.0
1.6951622865899064e+18,-3.0,-1.0,1.0,-1.0,-7.0,-11.0,-4.0,-1.0
1.695162286590897e+18,0.0,0.0,6.0,0.0,2.0,-1.0,5.0,0.0
1.6951622865918815e+18,-1.0,-1.0,-9.0,-1.0,4.0,16.0,1.0,1.0
1.6951622865918815e+18,0.0,-2.0,-13.0,-2.0,-1.0,2.0,1.0,1.0
1.6951622866128712e+18,-2.0,7.0,32.0,4.0,-1.0,-3.0,-4.0,-3.0
1.6951622866128712e+18,-2.0,-7.0,-10.0,-6.0,-15.0,-11.0,-3.0,-3.0
1.6951622866138693e+18,0.0,1.0,-2.0,2.0,15.0,6.0,-1.0,1.0
1.69516228661487e+18,0.0,0.0,-4.0,-3.0,-1.0,3.0,0.0,0.0
1.6951622866268626e+18,-1.0,-2.0,-2.0,1.0,-3.0,-4.0,-2.0,0.0
1.6951622866268626e+18,1.0,2.0,1.0,0.0,0.0,0.0,-1.0,-1.0
1.6951622866418527e+18,-2.0,-3.0,2.0,-5.0,-10.0,-9.0,-3.0,-1.0
1.6951622866418527e+18,-2.0,-1.0,2.0,-1.0,4.0,4.0,-2.0,-1.0
1.6951622866508488e+18,0.0,-1.0,-8.0,-2.0,-1.0,4.0,1.0,-2.0
1.695162286651848e+18,-1.0,0.0,2.0,0.0,0.0,-3.0,-4.0,-1.0
1.695162286651848e+18,-1.0,-2.0,-10.0,-3.0,-9.0,-21.0,1.0,-1.0
1.6951622866528486e+18,0.0,0.0,2.0,1.0,7.0,24.0,2.0,-3.0
1.6951622866718372e+18,1.0,3.0,9.0,1.0,1.0,2.0,3.0,2.0
1.6951622866718372e+18,0.0,-1.0,-9.0,-2.0,-4.0,2.0,-1.0,-1.0
1.6951622866868506e+18,-2.0,5.0,15.0,1.0,-2.0,-10.0,-5.0,-2.0
1.6951622866878275e+18,-2.0,-4.0,0.0,-1.0,-3.0,-19.0,-4.0,-3.0
1.6951622866878275e+18,-2.0,-1.0,-9.0,0.0,4.0,7.0,-1.0,-2.0
1.6951622866878275e+18,1.0,0.0,-1.0,-2.0,4.0,0.0,1.0,0.0
1.6951622867038172e+18,0.0,0.0,-2.0,-2.0,-12.0,4.0,0.0,0.0
1.6951622867048197e+18,0.0,0.0,7.0,3.0,0.0,-5.0,0.0,0.0
1.695162286710814e+18,-1.0,-4.0,-12.0,-3.0,2.0,8.0,2.0,1.0
1.695162286710814e+18,0.0,0.0,0.0,4.0,9.0,3.0,-1.0,-2.0
1.6951622867118372e+18,-2.0,-1.0,1.0,4.0,7.0,10.0,3.0,2.0
1.6951622867118372e+18,0.0,-1.0,-3.0,-2.0,-5.0,-2.0,-2.0,-1.0
1.6951622867417969e+18,-2.0,-2.0,-4.0,-1.0,-6.0,-6.0,-1.0,-1.0
1.6951622867427968e+18,-2.0,-1.0,1.0,-2.0,-9.0,-6.0,-1.0,-2.0
1.6951622867557896e+18,0.0,-1.0,1.0,-2.0,-3.0,5.0,-2.0,-1.0
1.695162286756788e+18,-1.0,0.0,0.0,-1.0,-4.0,-10.0,-3.0,-2.0
1.695162286756788e+18,-1.0,-3.0,-4.0,1.0,2.0,-3.0,-3.0,-2.0
1.695162286756788e+18,-1.0,-1.0,1.0,-2.0,2.0,4.0,0.0,-1.0
1.695162286757797e+18,-2.0,-1.0,-6.0,-1.0,-1.0,2.0,1.0,0.0
1.695162286758786e+18,-2.0,2.0,3.0,-2.0,0.0,-4.0,-1.0,-2.0
1.6951622867707812e+18,1.0,0.0,-2.0,-1.0,0.0,2.0,-1.0,-1.0
1.6951622867707812e+18,-1.0,0.0,0.0,0.0,0.0,1.0,0.0,0.0
1.6951622867717786e+18,0.0,-1.0,-1.0,-1.0,-1.0,1.0,1.0,1.0
1.6951622867717786e+18,0.0,0.0,3.0,-1.0,1.0,-1.0,-2.0,1.0
1.6951622867937667e+18,0.0,-1.0,-1.0,0.0,-1.0,2.0,1.0,-2.0
1.6951622867937667e+18,-1.0,-1.0,0.0,-2.0,-1.0,-2.0,0.0,1.0
1.695162286794768e+18,0.0,-2.0,-2.0,-1.0,-2.0,1.0,-2.0,-1.0
1.69516228679577e+18,-1.0,0.0,1.0,3.0,0.0,-1.0,-1.0,0.0
1.6951622868067594e+18,-1.0,-1.0,-3.0,0.0,1.0,-2.0,0.0,0.0
1.6951622868067594e+18,-1.0,0.0,-1.0,-2.0,-1.0,-2.0,0.0,-2.0
1.6951622868157553e+18,0.0,-1.0,-2.0,0.0,0.0,1.0,1.0,-2.0
1.6951622868157553e+18,0.0,1.0,0.0,-2.0,0.0,-3.0,-2.0,0.0
1.6951622868377644e+18,0.0,-1.0,-2.0,0.0,-3.0,-3.0,-1.0,2.0
1.6951622868377644e+18,0.0,0.0,-4.0,-1.0,-2.0,-1.0,-1.0,-1.0
1.6951622868397404e+18,-1.0,0.0,0.0,-1.0,-2.0,2.0,-1.0,1.0
1.6951622868397404e+18,-1.0,-2.0,0.0,-1.0,-1.0,-2.0,0.0,0.0
1.6951622868527345e+18,-2.0,-1.0,2.0,1.0,1.0,-1.0,0.0,-1.0
1.6951622868527345e+18,1.0,-2.0,-2.0,1.0,-2.0,1.0,0.0,-2.0
1.6951622868547356e+18,0.0,-1.0,-2.0,0.0,-1.0,-1.0,-1.0,-1.0
1.6951622868547356e+18,-1.0,0.0,0.0,-1.0,-1.0,0.0,-1.0,-1.0
1.6951622868667246e+18,0.0,0.0,-2.0,-3.0,-1.0,-1.0,-2.0,-2.0
1.6951622868667246e+18,0.0,-1.0,1.0,0.0,0.0,-2.0,-2.0,-1.0
1.695162286882715e+18,-2.0,-2.0,-3.0,0.0,-1.0,-3.0,-1.0,-1.0
1.695162286882715e+18,-1.0,-1.0,-1.0,1.0,-1.0,-2.0,-3.0,-2.0
1.6951622868907103e+18,-1.0,-1.0,-1.0,-1.0,0.0,-1.0,-1.0,0.0
1.6951622868907103e+18,0.0,0.0,-2.0,-2.0,-2.0,0.0,-1.0,1.0
1.6951622868917097e+18,-1.0,-1.0,-1.0,-1.0,0.0,0.0,-2.0,-1.0
1.6951622868917097e+18,-2.0,-2.0,-2.0,-1.0,-1.0,-1.0,-1.0,-2.0
1.6951622869126994e+18,-2.0,0.0,-3.0,-1.0,1.0,-2.0,-1.0,-1.0
1.6951622869126994e+18,-2.0,0.0,0.0,0.0,-2.0,0.0,0.0,0.0
1.6951622869146964e+18,1.0,-1.0,1.0,0.0,-1.0,0.0,-1.0,-2.0
1.6951622869146964e+18,0.0,-2.0,0.0,0.0,-1.0,-2.0,-1.0,2.0
1.6951622869266906e+18,0.0,-2.0,-3.0,-1.0,-1.0,-1.0,-1.0,-2.0
1.6951622869266906e+18,-1.0,-1.0,0.0,-1.0,0.0,-2.0,-1.0,-2.0
1.6951622869436808e+18,0.0,-3.0,-1.0,-1.0,-2.0,0.0,-1.0,0.0
1.6951622869436808e+18,-1.0,1.0,1.0,-1.0,-1.0,-1.0,0.0,-2.0
1.6951622869506765e+18,-2.0,-1.0,-2.0,-2.0,-1.0,-2.0,0.0,-1.0
1.6951622869516767e+18,-1.0,0.0,-1.0,-1.0,0.0,-2.0,-2.0,-1.0
1.6951622869516767e+18,-1.0,2.0,-3.0,-1.0,0.0,1.0,-1.0,0.0
1.6951622869526787e+18,0.0,0.0,0.0,-1.0,0.0,-2.0,-1.0,-1.0
1.6951622869726868e+18,-1.0,-1.0,-1.0,0.0,-1.0,0.0,-2.0,-2.0
1.6951622869726868e+18,0.0,-1.0,-2.0,-2.0,-1.0,-1.0,0.0,0.0
1.6951622869746624e+18,-1.0,0.0,1.0,0.0,0.0,0.0,-2.0,-1.0
1.6951622869746624e+18,0.0,0.0,-1.0,0.0,0.0,0.0,0.0,0.0
1.6951622869946514e+18,1.0,-1.0,0.0,-2.0,-1.0,0.0,1.0,0.0
1.6951622869946514e+18,0.0,-2.0,0.0,0.0,-1.0,-2.0,-1.0,0.0
1.6951622870236357e+18,-1.0,-2.0,-1.0,0.0,0.0,-1.0,-1.0,0.0
1.6951622870246344e+18,-1.0,0.0,-1.0,0.0,2.0,0.0,-1.0,-1.0
1.6951622870246344e+18,-1.0,-1.0,-1.0,-1.0,-1.0,-1.0,0.0,-1.0
1.6951622870246344e+18,-2.0,-1.0,-1.0,0.0,-1.0,1.0,0.0,0.0
1.6951622870246344e+18,1.0,-1.0,-1.0,-3.0,1.0,1.0,0.0,0.0
1.6951622870246344e+18,-1.0,-1.0,0.0,-1.0,0.0,-1.0,-1.0,0.0
1.6951622870326316e+18,-1.0,0.0,0.0,0.0,-1.0,-1.0,-1.0,-1.0
1.6951622870336297e+18,0.0,-1.0,-1.0,-2.0,-1.0,-1.0,-1.0,-2.0
1.6951622870346312e+18,0.0,-1.0,2.0,0.0,-2.0,-1.0,0.0,-1.0
1.6951622870346312e+18,-1.0,-1.0,1.0,-1.0,0.0,2.0,-2.0,-1.0
1.6951622870556157e+18,-2.0,-2.0,-3.0,-1.0,-1.0,-1.0,-1.0,-2.0
1.6951622870556157e+18,-1.0,-1.0,-2.0,-1.0,0.0,-1.0,-2.0,-1.0
1.6951622870586138e+18,-1.0,-1.0,-3.0,0.0,-1.0,-1.0,-1.0,1.0
1.6951622870646346e+18,-1.0,-1.0,-2.0,-1.0,-2.0,-4.0,-1.0,1.0
1.6951622870706092e+18,-1.0,0.0,-1.0,0.0,1.0,-1.0,0.0,-1.0
1.6951622870706092e+18,-2.0,-2.0,0.0,-2.0,-1.0,-3.0,0.0,-1.0
1.6951622870716073e+18,-1.0,-1.0,-1.0,-2.0,-1.0,-2.0,0.0,-2.0
1.6951622870716073e+18,0.0,-1.0,-2.0,-1.0,-3.0,0.0,-1.0,-1.0
1.695162287092597e+18,0.0,-2.0,0.0,-1.0,-1.0,-1.0,0.0,0.0
1.6951622870935946e+18,0.0,0.0,-1.0,-1.0,0.0,-1.0,-1.0,0.0
1.6951622870945938e+18,0.0,0.0,-1.0,-2.0,-1.0,0.0,-1.0,-1.0
1.6951622870945938e+18,0.0,-1.0,-1.0,-2.0,-2.0,-1.0,2.0,-2.0
1.6951622871065894e+18,-2.0,-1.0,0.0,0.0,0.0,-1.0,-1.0,0.0
1.6951622871065894e+18,-1.0,-2.0,0.0,0.0,0.0,0.0,-1.0,0.0
1.695162287123578e+18,-1.0,0.0,0.0,-3.0,-1.0,0.0,0.0,0.0
1.695162287123578e+18,-1.0,-1.0,-2.0,-1.0,0.0,-1.0,-1.0,0.0
1.6951622871295736e+18,1.0,-2.0,-1.0,-1.0,-1.0,-1.0,-1.0,0.0
1.6951622871305733e+18,-1.0,1.0,-1.0,-1.0,-2.0,-1.0,-1.0,1.0
1.6951622871365706e+18,-1.0,-1.0,0.0,-2.0,-1.0,-1.0,0.0,0.0
1.6951622871365706e+18,-2.0,-3.0,-2.0,0.0,1.0,-3.0,-2.0,0.0
1.695162287168552e+18,-2.0,-1.0,-1.0,-1.0,-2.0,-1.0,-2.0,-2.0
1.695162287168552e+18,-2.0,-1.0,-2.0,0.0,-1.0,0.0,1.0,0.0
1.695162287170551e+18,0.0,-3.0,2.0,1.0,-1.0,0.0,-1.0,-2.0
1.695162287170551e+18,0.0,-2.0,-1.0,0.0,-1.0,0.0,0.0,1.0
1.6951622871715507e+18,0.0,2.0,-2.0,0.0,-3.0,-4.0,-2.0,0.0
1.6951622871715507e+18,-2.0,0.0,0.0,1.0,2.0,0.0,1.0,-1.0
1.6951622871755476e+18,0.0,2.0,-5.0,-1.0,0.0,-1.0,-2.0,-2.0
1.6951622871755476e+18,-1.0,-3.0,-2.0,-2.0,0.0,1.0,0.0,1.0
1.695162287189563e+18,3.0,1.0,6.0,1.0,1.0,2.0,1.0,2.0
1.695162287189563e+18,0.0,-3.0,3.0,-1.0,-1.0,1.0,-1.0,-1.0
1.695162287198535e+18,0.0,2.0,-1.0,0.0,-1.0,0.0,0.0,-3.0
1.6951622871995336e+18,0.0,-2.0,1.0,0.0,-3.0,-1.0,-2.0,-1.0
1.6951622872205376e+18,1.0,-11.0,3.0,3.0,2.0,2.0,2.0,3.0
1.6951622872205376e+18,0.0,3.0,3.0,0.0,0.0,-2.0,-2.0,-3.0
1.6951622872215214e+18,-8.0,-7.0,2.0,4.0,3.0,1.0,1.0,-1.0
1.6951622872215214e+18,2.0,1.0,0.0,-3.0,-3.0,-3.0,-1.0,0.0
1.695162287226519e+18,1.0,3.0,-2.0,-2.0,-1.0,-2.0,-2.0,-1.0
1.695162287226519e+18,-4.0,-20.0,9.0,8.0,5.0,3.0,1.0,0.0
1.6951622872355146e+18,-3.0,9.0,-6.0,-4.0,-1.0,-2.0,-1.0,-1.0
1.6951622872355146e+18,2.0,2.0,-4.0,-4.0,-4.0,-2.0,1.0,-1.0
1.6951622872495754e+18,-3.0,-5.0,-1.0,1.0,2.0,-1.0,-2.0,-2.0
1.6951622872495754e+18,-1.0,0.0,0.0,1.0,-1.0,0.0,1.0,0.0
1.6951622872585933e+18,0.0,0.0,1.0,-1.0,0.0,-1.0,-2.0,-1.0
1.6951622872615685e+18,-2.0,-1.0,3.0,-1.0,1.0,2.0,1.0,0.0
1.6951622872805576e+18,-1.0,2.0,-5.0,-2.0,-1.0,0.0,0.0,-2.0
1.6951622872805576e+18,-2.0,0.0,-2.0,-1.0,-3.0,-1.0,-1.0,-2.0
1.6951622872845563e+18,2.0,-4.0,3.0,-1.0,-3.0,-2.0,1.0,-2.0
1.6951622872845563e+18,-1.0,2.0,1.0,0.0,2.0,0.0,0.0,-2.0
1.695162287286555e+18,-3.0,-1.0,-2.0,-2.0,-1.0,0.0,0.0,-3.0
1.695162287286555e+18,1.0,4.0,-4.0,-4.0,-2.0,-2.0,-1.0,-1.0
1.6951622873115402e+18,0.0,0.0,-1.0,-2.0,-1.0,0.0,-1.0,0.0
1.6951622873125394e+18,-1.0,-1.0,-3.0,-2.0,-2.0,-1.0,-1.0,-1.0
1.6951622873125394e+18,0.0,1.0,-4.0,-3.0,-2.0,0.0,-1.0,-3.0
1.6951622873125394e+18,0.0,-1.0,-4.0,-3.0,-1.0,0.0,-1.0,-1.0
1.6951622873165604e+18,-1.0,-3.0,-2.0,-1.0,-2.0,0.0,-1.0,0.0
1.6951622873165604e+18,-2.0,-2.0,-1.0,1.0,-1.0,-1.0,-2.0,-2.0
1.6951622873335286e+18,-1.0,-2.0,1.0,0.0,-1.0,0.0,0.0,-1.0
1.6951622873335286e+18,2.0,3.0,-3.0,-3.0,-2.0,-1.0,0.0,1.0
1.6951622873345275e+18,1.0,-2.0,-2.0,0.0,1.0,0.0,-1.0,0.0
1.6951622873345275e+18,0.0,-1.0,1.0,-1.0,-1.0,-1.0,-1.0,-2.0
1.6951622873555154e+18,-2.0,1.0,-1.0,0.0,-1.0,1.0,-3.0,-1.0
1.6951622873555154e+18,-1.0,2.0,-3.0,-2.0,0.0,-1.0,-1.0,0.0
1.6951622873565156e+18,0.0,-1.0,-2.0,0.0,-1.0,-2.0,-2.0,-1.0
1.6951622873565156e+18,-1.0,-2.0,0.0,-1.0,1.0,0.0,-1.0,0.0
1.6951622873695306e+18,-1.0,0.0,-2.0,-1.0,-1.0,-1.0,-1.0,-2.0
1.6951622873695306e+18,-1.0,-2.0,-3.0,-1.0,-2.0,-1.0,0.0,-1.0
1.6951622873865004e+18,0.0,-1.0,-1.0,0.0,-2.0,0.0,-1.0,0.0
1.6951622873865004e+18,-2.0,-1.0,0.0,-1.0,1.0,1.0,0.0,-3.0
1.695162287393494e+18,-1.0,-1.0,-1.0,-2.0,-1.0,-1.0,-1.0,0.0
1.695162287393494e+18,-1.0,-1.0,-3.0,-2.0,-1.0,0.0,-1.0,-1.0
1.6951622873944957e+18,0.0,0.0,1.0,-1.0,0.0,-1.0,-1.0,0.0
1.6951622873944957e+18,-2.0,-2.0,0.0,2.0,-1.0,0.0,-1.0,-1.0
1.695162287415481e+18,-2.0,0.0,-1.0,0.0,-1.0,-2.0,-1.0,1.0
1.695162287416483e+18,0.0,1.0,-2.0,-2.0,0.0,-3.0,-1.0,-1.0
1.695162287416483e+18,-1.0,-3.0,-1.0,-3.0,-1.0,0.0,-1.0,-1.0
1.695162287416483e+18,-1.0,-1.0,-1.0,-1.0,-1.0,0.0,-2.0,-1.0
1.6951622874294758e+18,0.0,-2.0,1.0,-2.0,-1.0,-2.0,-1.0,-1.0
1.6951622874294758e+18,-1.0,1.0,-2.0,0.0,-2.0,0.0,-1.0,-1.0
1.6951622874364818e+18,-1.0,0.0,-2.0,-2.0,-2.0,-1.0,-1.0,0.0
1.6951622874364818e+18,0.0,-1.0,-1.0,0.0,-1.0,0.0,-1.0,0.0
1.6951622874604547e+18,1.0,0.0,-3.0,0.0,-2.0,0.0,-1.0,-1.0
1.6951622874604547e+18,-2.0,-1.0,-1.0,0.0,0.0,-1.0,-2.0,0.0
1.695162287469467e+18,1.0,0.0,-1.0,-1.0,0.0,0.0,0.0,-2.0
1.695162287469467e+18,0.0,0.0,0.0,0.0,0.0,0.0,-1.0,0.0
1.6951622874754463e+18,-1.0,-2.0,0.0,-1.0,2.0,-1.0,-2.0,-1.0
1.6951622874754463e+18,0.0,-1.0,1.0,-2.0,-1.0,-1.0,0.0,0.0
1.695162287477446e+18,-1.0,-2.0,-2.0,-1.0,-1.0,-1.0,0.0,-1.0
1.695162287477446e+18,-2.0,0.0,-1.0,1.0,-2.0,-2.0,-1.0,-1.0
1.6951622874974344e+18,-1.0,-1.0,-1.0,-2.0,-1.0,0.0,1.0,-1.0
1.6951622874984325e+18,-1.0,1.0,-1.0,0.0,-1.0,-1.0,-1.0,-2.0
1.695162287499432e+18,0.0,-2.0,-1.0,-2.0,-2.0,0.0,-1.0,0.0
1.695162287499432e+18,0.0,0.0,-1.0,0.0,-1.0,-1.0,-1.0,-2.0
1.6951622875204224e+18,-1.0,-1.0,0.0,-1.0,-1.0,-1.0,0.0,0.0
1.6951622875204224e+18,0.0,-2.0,-1.0,-2.0,0.0,0.0,0.0,-1.0
1.6951622875214203e+18,-1.0,-2.0,-1.0,1.0,0.0,-1.0,0.0,-1.0
1.6951622875224202e+18,-1.0,-1.0,-3.0,-2.0,-1.0,-2.0,0.0,-1.0
1.6951622875355364e+18,-2.0,-1.0,-1.0,0.0,-1.0,-2.0,-3.0,-1.0
1.6951622875355364e+18,0.0,1.0,0.0,0.0,-1.0,-1.0,-1.0,-1.0
1.6951622875365466e+18,1.0,-1.0,-1.0,0.0,-1.0,-2.0,-1.0,0.0
1.6951622875375557e+18,0.0,-2.0,-2.0,-1.0,-1.0,0.0,-1.0,0.0
1.6951622875489746e+18,0.0,-1.0,0.0,-1.0,1.0,-1.0,-1.0,-1.0
1.695162287549999e+18,-1.0,0.0,-3.0,-1.0,0.0,-2.0,0.0,0.0
1.695162287575275e+18,-2.0,0.0,0.0,0.0,-1.0,-1.0,1.0,-1.0
1.695162287575275e+18,-3.0,-1.0,1.0,0.0,-2.0,-2.0,0.0,-3.0
1.6951622875762762e+18,0.0,0.0,-1.0,-2.0,-1.0,0.0,-2.0,1.0
1.6951622875762762e+18,0.0,-2.0,0.0,-1.0,1.0,-2.0,-3.0,-2.0
1.695162287586543e+18,0.0,-2.0,-1.0,-1.0,-2.0,-2.0,-2.0,1.0
1.695162287586543e+18,1.0,-1.0,-1.0,-2.0,0.0,0.0,-2.0,1.0
1.6951622875951885e+18,0.0,0.0,-3.0,0.0,-3.0,0.0,0.0,-1.0
1.6951622875951885e+18,-2.0,0.0,0.0,0.0,0.0,0.0,-1.0,-1.0
1.6951622875971553e+18,0.0,-3.0,-1.0,0.0,0.0,0.0,-1.0,-2.0
1.6951622875971553e+18,-1.0,-2.0,0.0,-1.0,-1.0,-2.0,1.0,-1.0
1.6951622876086523e+18,-1.0,-1.0,0.0,-3.0,-1.0,0.0,1.0,0.0
1.6951622876096763e+18,-1.0,-1.0,1.0,-2.0,-2.0,1.0,-1.0,-1.0
1.6951622876503526e+18,1.0,-1.0,-1.0,-1.0,-1.0,-1.0,-2.0,-1.0
1.6951622876503526e+18,0.0,0.0,-1.0,1.0,-1.0,-1.0,-2.0,-1.0
1.6951622876503526e+18,0.0,1.0,-1.0,1.0,-1.0,-2.0,1.0,0.0
1.6951622876513513e+18,-1.0,-1.0,-1.0,0.0,0.0,-1.0,-1.0,1.0
1.6951622876635026e+18,-1.0,-1.0,2.0,-1.0,0.0,0.0,0.0,0.0
1.6951622876635026e+18,1.0,-1.0,-1.0,0.0,-1.0,-1.0,-1.0,0.0
1.695162287664502e+18,0.0,0.0,0.0,0.0,0.0,0.0,-1.0,-2.0
1.695162287664502e+18,-2.0,-2.0,-1.0,0.0,-2.0,1.0,-2.0,-1.0
1.6951622876655012e+18,-1.0,-1.0,-1.0,-1.0,0.0,-2.0,-1.0,1.0
1.6951622876665032e+18,-2.0,-1.0,-1.0,-1.0,1.0,-2.0,-1.0,-2.0
1.6951622876691535e+18,-1.0,-1.0,0.0,1.0,-1.0,-2.0,-2.0,-1.0
1.6951622876701517e+18,-1.0,-1.0,0.0,-1.0,-2.0,-2.0,-1.0,-2.0
1.6951622876787377e+18,-1.0,-1.0,0.0,-1.0,-2.0,-2.0,-1.0,0.0
1.6951622876787377e+18,0.0,0.0,0.0,-2.0,-3.0,-1.0,0.0,-1.0
1.6951622877005824e+18,-2.0,-1.0,-1.0,-2.0,1.0,0.0,1.0,0.0
1.6951622877005824e+18,-1.0,-2.0,-1.0,-1.0,-2.0,1.0,-2.0,1.0
1.6951622877015836e+18,-2.0,-2.0,-1.0,-1.0,-1.0,-1.0,0.0,0.0
1.695162287702584e+18,0.0,-2.0,1.0,-2.0,-1.0,-1.0,-2.0,1.0
1.695162287715542e+18,-2.0,-1.0,-1.0,-1.0,-1.0,-1.0,-1.0,0.0
1.695162287715542e+18,1.0,-1.0,-2.0,1.0,1.0,0.0,2.0,1.0
1.6951622877165453e+18,-2.0,0.0,-1.0,0.0,-1.0,0.0,-1.0,2.0
1.6951622877175475e+18,0.0,-1.0,-1.0,-1.0,-2.0,-2.0,1.0,-1.0
1.6951622877294495e+18,-1.0,-1.0,0.0,-2.0,0.0,-2.0,-1.0,-2.0
1.6951622877294495e+18,-1.0,0.0,-1.0,-2.0,0.0,-2.0,-1.0,1.0
1.695162287738179e+18,-1.0,0.0,-1.0,1.0,0.0,0.0,0.0,-3.0
1.695162287738179e+18,-1.0,-1.0,0.0,0.0,0.0,3.0,-1.0,-1.0
1.6951622877602867e+18,-2.0,-2.0,-1.0,-1.0,-3.0,-1.0,-1.0,-2.0
1.6951622877612938e+18,1.0,-1.0,-1.0,0.0,-1.0,0.0,-1.0,-1.0
1.6951622877622886e+18,-1.0,-1.0,0.0,-1.0,0.0,-1.0,0.0,1.0
1.6951622877622886e+18,-1.0,-1.0,0.0,-2.0,-1.0,0.0,-1.0,1.0
1.6951622877754962e+18,-1.0,0.0,-2.0,-2.0,-1.0,-2.0,-1.0,0.0
1.6951622877754962e+18,-2.0,0.0,0.0,-1.0,-1.0,-1.0,0.0,-1.0
1.695162287776501e+18,-1.0,0.0,-1.0,-3.0,-1.0,0.0,-1.0,0.0
1.6951622877774958e+18,-1.0,-1.0,0.0,-2.0,-2.0,-2.0,1.0,-1.0
1.6951622877929917e+18,1.0,-1.0,0.0,-1.0,-2.0,0.0,0.0,0.0
1.6951622877990075e+18,-2.0,-3.0,0.0,-1.0,-1.0,-3.0,-1.0,-2.0
1.695162287799986e+18,-1.0,0.0,-2.0,0.0,1.0,-1.0,0.0,1.0
1.6951622878009892e+18,-3.0,-2.0,-1.0,-1.0,0.0,-2.0,-2.0,0.0
1.6951622878275282e+18,0.0,-1.0,-1.0,0.0,0.0,-1.0,-2.0,-1.0
1.6951622878285279e+18,-1.0,0.0,-2.0,0.0,1.0,-1.0,-1.0,0.0
1.695162287829527e+18,0.0,0.0,-1.0,-1.0,-1.0,-2.0,-1.0,-1.0
1.695162287829527e+18,-1.0,0.0,-3.0,-2.0,0.0,-1.0,0.0,-2.0
1.6951622878355246e+18,-2.0,0.0,-2.0,-2.0,-2.0,-2.0,0.0,0.0
1.6951622878355246e+18,-1.0,0.0,-1.0,-1.0,2.0,-1.0,0.0,-1.0
1.6951622878365233e+18,-1.0,0.0,0.0,-2.0,0.0,0.0,-1.0,-3.0
1.6951622878365233e+18,-3.0,0.0,-1.0,-1.0,-1.0,-1.0,-2.0,-2.0
1.6951622878487498e+18,1.0,-1.0,-1.0,-1.0,-1.0,-1.0,0.0,0.0
1.6951622878497574e+18,-2.0,-2.0,-2.0,-1.0,-1.0,-1.0,-1.0,-2.0
1.69516228785802e+18,0.0,-1.0,-1.0,-1.0,-3.0,-1.0,-1.0,-1.0
1.69516228785802e+18,-1.0,0.0,-1.0,-2.0,-1.0,-1.0,0.0,1.0
1.6951622878722378e+18,0.0,0.0,2.0,-1.0,-1.0,1.0,-1.0,-2.0
1.695162287873237e+18,-1.0,0.0,-1.0,-2.0,-1.0,0.0,0.0,0.0
1.6951622878872297e+18,-2.0,-2.0,-1.0,0.0,2.0,-2.0,0.0,0.0
1.6951622878882296e+18,1.0,0.0,-1.0,-2.0,-1.0,2.0,-1.0,0.0
1.6951622878952317e+18,0.0,0.0,0.0,-1.0,0.0,-3.0,-2.0,-1.0
1.6951622878952317e+18,0.0,0.0,0.0,-2.0,-2.0,-1.0,-1.0,-1.0
1.695162287897226e+18,-1.0,0.0,0.0,1.0,-1.0,-1.0,-2.0,-1.0
1.695162287897226e+18,0.0,0.0,-1.0,1.0,-1.0,-1.0,0.0,0.0
1.6951622879182157e+18,-2.0,-1.0,-1.0,0.0,0.0,0.0,0.0,0.0
1.6951622879182157e+18,0.0,0.0,1.0,-1.0,-2.0,-2.0,-1.0,-1.0
1.6951622879195041e+18,0.0,-1.0,-1.0,-1.0,0.0,0.0,-1.0,-1.0
1.6951622879195041e+18,-2.0,-2.0,-2.0,0.0,-2.0,-2.0,-1.0,-1.0
1.6951622879568543e+18,-1.0,-2.0,-1.0,0.0,-1.0,1.0,0.0,0.0
1.6951622879578516e+18,-2.0,-1.0,-1.0,-1.0,1.0,0.0,0.0,-1.0
1.6951622879588503e+18,-2.0,-1.0,0.0,1.0,-2.0,1.0,-1.0,0.0
1.6951622879598497e+18,1.0,-1.0,0.0,-1.0,-1.0,0.0,0.0,0.0
1.6951622879608497e+18,0.0,-1.0,-1.0,1.0,0.0,-1.0,-2.0,0.0
1.6951622879608497e+18,-1.0,0.0,-2.0,0.0,-2.0,-2.0,-1.0,0.0
1.6951622879648466e+18,0.0,-2.0,-1.0,-2.0,-1.0,0.0,-1.0,-1.0
1.6951622879648466e+18,-2.0,0.0,0.0,-1.0,0.0,0.0,-3.0,-1.0
1.695162287970008e+18,-1.0,-1.0,-1.0,-1.0,-2.0,0.0,0.0,-2.0
1.695162287970008e+18,1.0,-2.0,1.0,0.0,-1.0,0.0,-1.0,-1.0
1.6951622879794565e+18,-1.0,-1.0,-1.0,1.0,-1.0,-1.0,-1.0,0.0
1.6951622879794565e+18,0.0,-1.0,-2.0,0.0,0.0,0.0,0.0,-1.0
1.6951622880007562e+18,-2.0,-1.0,-1.0,-2.0,-1.0,-2.0,0.0,1.0
1.6951622880017551e+18,-1.0,-1.0,-2.0,-1.0,-1.0,-3.0,-1.0,-1.0
1.6951622880027546e+18,-1.0,-1.0,-1.0,-2.0,-2.0,-1.0,-1.0,-1.0
1.6951622880027546e+18,-1.0,-2.0,-1.0,-3.0,0.0,-1.0,-1.0,-1.0
1.6951622880162488e+18,-1.0,-1.0,-1.0,0.0,0.0,0.0,-2.0,-2.0
1.6951622880162488e+18,-1.0,-1.0,-1.0,0.0,-1.0,-2.0,0.0,-1.0
1.6951622880182446e+18,-1.0,-1.0,-1.0,0.0,-1.0,0.0,-2.0,-3.0
1.6951622880182446e+18,0.0,0.0,-1.0,0.0,-1.0,-1.0,-1.0,-3.0
1.6951622880302374e+18,-1.0,-1.0,0.0,-1.0,0.0,-2.0,-2.0,-1.0
1.6951622880302374e+18,-1.0,-1.0,-2.0,-1.0,0.0,0.0,-1.0,-1.0
1.6951622880392338e+18,-1.0,-1.0,0.0,-1.0,-1.0,0.0,1.0,-1.0
1.6951622880392338e+18,-1.0,-1.0,-1.0,1.0,-2.0,-2.0,0.0,0.0
1.6951622880539953e+18,1.0,0.0,-2.0,-1.0,-1.0,-2.0,-1.0,-2.0
1.6951622880549952e+18,0.0,-1.0,-1.0,-1.0,-3.0,-1.0,0.0,0.0
1.6951622880549952e+18,-1.0,-1.0,-2.0,-3.0,0.0,-2.0,0.0,-1.0
1.6951622880559939e+18,-1.0,-1.0,0.0,-2.0,0.0,-1.0,-2.0,-1.0
1.6951622880929746e+18,-2.0,-1.0,0.0,-2.0,2.0,-2.0,-1.0,-1.0
1.6951622880999767e+18,-1.0,0.0,1.0,0.0,-1.0,-2.0,-3.0,-1.0
1.695162288100977e+18,-1.0,1.0,1.0,0.0,-1.0,-1.0,0.0,0.0
1.6951622881019681e+18,-2.0,-1.0,-1.0,1.0,-1.0,-1.0,-1.0,-2.0
1.6951622881019681e+18,-1.0,-1.0,-3.0,-2.0,-1.0,1.0,-1.0,-1.0
1.6951622881029668e+18,-1.0,-1.0,-1.0,-1.0,0.0,0.0,-1.0,1.0
1.6951622881039688e+18,0.0,-1.0,1.0,-2.0,0.0,2.0,0.0,1.0
1.6951622881039688e+18,-1.0,-1.0,-1.0,0.0,3.0,0.0,0.0,0.0
1.6951622881219566e+18,-2.0,1.0,2.0,2.0,1.0,2.0,1.0,0.0
1.6951622881219566e+18,2.0,0.0,1.0,0.0,1.0,0.0,-2.0,0.0
1.695162288127953e+18,1.0,1.0,1.0,-1.0,0.0,-2.0,1.0,1.0
1.6951622881289526e+18,1.0,1.0,0.0,-2.0,-2.0,-2.0,0.0,1.0
1.6951622881459428e+18,-2.0,-1.0,-1.0,1.0,1.0,-2.0,-1.0,1.0
1.695162288146942e+18,0.0,1.0,0.0,-2.0,0.0,0.0,-2.0,0.0
1.695162288146942e+18,0.0,1.0,0.0,1.0,0.0,-2.0,-2.0,-2.0
1.6951622881479421e+18,1.0,0.0,-2.0,-1.0,0.0,1.0,0.0,1.0
1.695162288149941e+18,0.0,0.0,-1.0,-1.0,-2.0,0.0,-1.0,-2.0
1.69516228815094e+18,-1.0,0.0,1.0,-1.0,0.0,0.0,3.0,1.0
1.6951622881669325e+18,0.0,-1.0,-2.0,0.0,-1.0,0.0,0.0,0.0
1.6951622881669325e+18,-1.0,0.0,-1.0,-1.0,1.0,0.0,-1.0,0.0
1.6951622881839194e+18,0.0,0.0,-1.0,-1.0,-2.0,-2.0,-3.0,-1.0
1.6951622881849196e+18,-1.0,-1.0,-3.0,-1.0,-1.0,0.0,0.0,0.0
1.6951622881849196e+18,-1.0,0.0,0.0,-1.0,-2.0,-2.0,-1.0,-1.0
1.6951622881859185e+18,0.0,0.0,-1.0,-1.0,-2.0,-3.0,0.0,-2.0
1.6951622881969124e+18,-1.0,-2.0,0.0,-1.0,-1.0,-3.0,-1.0,-1.0
1.6951622881969124e+18,0.0,0.0,0.0,-2.0,-4.0,4.0,-1.0,0.0
1.6951622881979154e+18,-2.0,-2.0,-3.0,-3.0,0.0,0.0,-4.0,1.0
1.6951622881979154e+18,-2.0,-2.0,-1.0,0.0,-2.0,-46.0,-5.0,-1.0
1.6951622882099103e+18,2.0,-1.0,1.0,0.0,2.0,49.0,7.0,2.0
1.6951622882099103e+18,-2.0,-2.0,-2.0,3.0,6.0,28.0,4.0,-1.0
1.6951622882178995e+18,-2.0,1.0,-2.0,-20.0,-27.0,-66.0,-7.0,-2.0
1.695162288218899e+18,0.0,3.0,2.0,5.0,-6.0,14.0,-1.0,1.0
1.6951622882318912e+18,1.0,0.0,3.0,4.0,27.0,55.0,8.0,0.0
1.6951622882318912e+18,1.0,-1.0,-1.0,3.0,32.0,5.0,1.0,0.0
1.6951622882388861e+18,1.0,-1.0,-1.0,6.0,-14.0,-17.0,-2.0,2.0
1.6951622882388861e+18,-1.0,-2.0,-2.0,-4.0,0.0,-4.0,-4.0,-2.0
1.695162288254878e+18,-3.0,-4.0,-7.0,-9.0,-23.0,-17.0,-5.0,-3.0
1.695162288255881e+18,-2.0,1.0,1.0,-4.0,6.0,22.0,-4.0,-2.0
1.695162288256878e+18,-3.0,-4.0,-3.0,-1.0,-4.0,-71.0,-11.0,-5.0
1.695162288256878e+18,-1.0,1.0,5.0,-4.0,-76.0,0.0,-4.0,-3.0
1.6951622882738675e+18,1.0,5.0,0.0,12.0,50.0,52.0,11.0,3.0
1.6951622882738675e+18,4.0,2.0,2.0,3.0,69.0,52.0,13.0,2.0
1.6951622882778657e+18,0.0,-1.0,-1.0,8.0,14.0,8.0,3.0,0.0
1.6951622882778657e+18,0.0,-4.0,-3.0,-4.0,14.0,-3.0,-1.0,-1.0
1.6951622882918564e+18,-2.0,-4.0,-2.0,-7.0,-45.0,-46.0,-11.0,-1.0
1.695162288292864e+18,-3.0,-5.0,-8.0,-12.0,-46.0,-36.0,-12.0,-5.0
1.6951622883118449e+18,-3.0,-1.0,-1.0,-4.0,-3.0,-21.0,-2.0,-3.0
1.695162288313847e+18,1.0,-2.0,-3.0,1.0,11.0,54.0,4.0,1.0
1.695162288314847e+18,-3.0,-1.0,-1.0,-3.0,-5.0,-16.0,1.0,0.0
1.695162288315843e+18,0.0,0.0,1.0,0.0,-4.0,-26.0,-2.0,0.0
1.6951622883168438e+18,-1.0,-1.0,0.0,8.0,4.0,30.0,1.0,-1.0
1.6951622883168438e+18,-2.0,-1.0,-2.0,1.0,3.0,-11.0,-5.0,-3.0
1.695162288337831e+18,0.0,1.0,1.0,-8.0,-11.0,-31.0,-5.0,-2.0
1.695162288337831e+18,-1.0,0.0,4.0,15.0,-13.0,-11.0,-2.0,-1.0
1.6951622883448264e+18,2.0,1.0,3.0,5.0,19.0,39.0,11.0,4.0
1.6951622883458289e+18,1.0,0.0,-8.0,0.0,32.0,33.0,2.0,1.0
1.6951622883518223e+18,1.0,-1.0,1.0,7.0,2.0,-24.0,-3.0,-1.0
1.6951622883518223e+18,-3.0,-2.0,-4.0,-7.0,-24.0,-4.0,-1.0,0.0
1.695162288366814e+18,0.0,0.0,3.0,-3.0,1.0,27.0,5.0,-1.0
1.695162288366814e+18,-2.0,-1.0,2.0,3.0,6.0,-21.0,-11.0,-3.0
1.6951622883818053e+18,0.0,0.0,-2.0,-6.0,-19.0,-25.0,-6.0,-2.0
1.6951622883818053e+18,-1.0,0.0,2.0,-4.0,-6.0,8.0,12.0,3.0
1.6951622884087905e+18,-4.0,-2.0,-2.0,-7.0,-1.0,-35.0,-14.0,-7.0
1.6951622884097897e+18,-3.0,-3.0,-4.0,-7.0,-4.0,32.0,-14.0,-5.0
1.6951622884097897e+18,0.0,0.0,-1.0,-2.0,-23.0,-60.0,-8.0,1.0
1.6951622884107907e+18,0.0,2.0,-3.0,-7.0,7.0,51.0,21.0,1.0
1.6951622884207828e+18,3.0,3.0,11.0,9.0,19.0,45.0,32.0,8.0
1.6951622884207828e+18,-2.0,-2.0,4.0,14.0,29.0,-30.0,-5.0,-5.0
1.695162288421782e+18,0.0,1.0,0.0,-3.0,-5.0,8.0,-21.0,-1.0
1.695162288421782e+18,-5.0,-7.0,-2.0,1.0,-12.0,-35.0,-20.0,-10.0
1.6951622884227825e+18,1.0,1.0,-5.0,-2.0,-1.0,20.0,-20.0,-2.0
1.6951622884237814e+18,0.0,2.0,3.0,-4.0,-11.0,-22.0,29.0,2.0
1.6951622884357768e+18,-4.0,-3.0,-3.0,-6.0,-5.0,7.0,-24.0,-4.0
1.6951622884357768e+18,2.0,1.0,0.0,1.0,-15.0,-8.0,14.0,1.0
1.6951622884367767e+18,-3.0,-1.0,-4.0,1.0,2.0,13.0,5.0,-3.0
1.6951622884367767e+18,0.0,1.0,-2.0,-1.0,-9.0,-22.0,-17.0,0.0
1.6951622884577628e+18,2.0,3.0,0.0,5.0,26.0,24.0,11.0,2.0
1.6951622884587617e+18,0.0,-1.0,-3.0,5.0,-9.0,-9.0,-24.0,-10.0
1.695162288459762e+18,0.0,-4.0,-4.0,1.0,2.0,-5.0,-5.0,1.0
1.695162288459762e+18,3.0,3.0,6.0,4.0,-3.0,7.0,15.0,8.0
1.6951622884807485e+18,-3.0,-2.0,-7.0,-9.0,-1.0,6.0,-29.0,-12.0
1.6951622884807485e+18,2.0,5.0,1.0,6.0,26.0,17.0,44.0,21.0
1.695162288481748e+18,5.0,5.0,3.0,7.0,9.0,22.0,28.0,4.0
1.695162288481748e+18,-4.0,-5.0,0.0,-3.0,-16.0,-20.0,-29.0,-9.0
1.6951622884957402e+18,-1.0,-3.0,-5.0,-20.0,-18.0,-6.0,16.0,3.0
1.6951622884967393e+18,-1.0,-2.0,-6.0,-3.0,23.0,-10.0,-13.0,-3.0
1.6951622884977385e+18,-4.0,-3.0,4.0,16.0,-25.0,-13.0,-10.0,-7.0
1.6951622884977385e+18,3.0,0.0,-2.0,-20.0,1.0,12.0,23.0,8.0
1.6951622885177293e+18,0.0,3.0,7.0,16.0,8.0,9.0,-10.0,-8.0
1.6951622885177293e+18,-6.0,-2.0,-15.0,-14.0,-19.0,-47.0,-30.0,-10.0
1.695162288518728e+18,-2.0,-6.0,-1.0,-9.0,13.0,31.0,25.0,10.0
1.6951622885197279e+18,0.0,-2.0,-8.0,-13.0,1.0,11.0,2.0,0.0
1.695162288531719e+18,5.0,0.0,9.0,20.0,17.0,3.0,47.0,4.0
1.695162288531719e+18,0.0,-2.0,-6.0,-23.0,-26.0,9.0,16.0,10.0
1.6951622885726956e+18,0.0,-1.0,4.0,-5.0,-16.0,-9.0,9.0,2.0
1.6951622885726956e+18,-2.0,1.0,-2.0,0.0,-2.0,-4.0,8.0,-1.0
1.6951622885726956e+18,-3.0,-4.0,-2.0,-4.0,3.0,17.0,22.0,1.0
1.6951622885737004e+18,0.0,-3.0,2.0,12.0,10.0,-33.0,-29.0,-2.0
1.6951622885776932e+18,0.0,4.0,0.0,-22.0,-12.0,7.0,3.0,1.0
1.6951622885776932e+18,0.0,3.0,5.0,33.0,38.0,19.0,13.0,2.0
1.6951622885786924e+18,-1.0,-3.0,-3.0,-7.0,3.0,-2.0,0.0,3.0
1.6951622885786924e+18,0.0,-2.0,6.0,19.0,28.0,0.0,-4.0,-4.0
1.6951622885856883e+18,-1.0,1.0,-13.0,-8.0,-28.0,-6.0,-32.0,-10.0
1.6951622885856883e+18,-7.0,-8.0,4.0,0.0,5.0,27.0,2.0,-1.0
1.69516228859169e+18,1.0,0.0,-4.0,-6.0,-29.0,-31.0,-33.0,2.0
1.69516228859169e+18,-5.0,-7.0,-20.0,-42.0,-44.0,-44.0,-47.0,-18.0
1.6951622886076805e+18,1.0,-4.0,-3.0,12.0,24.0,23.0,13.0,17.0
1.6951622886076805e+18,1.0,3.0,5.0,-6.0,-1.0,-10.0,-18.0,-4.0
1.6951622886696504e+18,-4.0,-4.0,4.0,7.0,7.0,3.0,22.0,0.0
1.6951622886696504e+18,0.0,4.0,-3.0,-24.0,-43.0,-17.0,12.0,-6.0
1.6951622886706634e+18,-5.0,-7.0,-10.0,-2.0,13.0,-8.0,-11.0,-1.0
1.6951622886706634e+18,6.0,0.0,-1.0,-7.0,-11.0,24.0,9.0,6.0
1.6951622886716393e+18,-1.0,1.0,9.0,19.0,29.0,12.0,5.0,2.0
1.6951622886716393e+18,2.0,6.0,6.0,22.0,2.0,0.0,-5.0,3.0
1.6951622886846339e+18,-1.0,3.0,3.0,13.0,-11.0,-11.0,-11.0,-8.0
1.6951622886846339e+18,-4.0,-4.0,10.0,9.0,14.0,-17.0,-5.0,-1.0
1.695162288685636e+18,2.0,-1.0,3.0,4.0,-13.0,-5.0,-16.0,0.0
1.695162288685636e+18,-2.0,1.0,3.0,11.0,6.0,14.0,14.0,-1.0
1.695162288698625e+18,1.0,2.0,6.0,0.0,4.0,0.0,-8.0,-2.0
1.695162288698625e+18,2.0,4.0,-8.0,-16.0,-27.0,-20.0,-19.0,-4.0
1.6951622886996237e+18,-4.0,-5.0,-5.0,5.0,10.0,3.0,15.0,-2.0
1.6951622886996237e+18,3.0,11.0,1.0,-26.0,1.0,40.0,16.0,10.0
1.695162288700623e+18,-5.0,-10.0,-1.0,39.0,22.0,-11.0,1.0,-3.0
1.695162288701622e+18,-2.0,-1.0,-6.0,-13.0,-4.0,-9.0,-6.0,-6.0
1.6951622887206108e+18,-1.0,7.0,-6.0,6.0,6.0,7.0,-7.0,-7.0
1.6951622887206108e+18,-2.0,-16.0,0.0,-7.0,-8.0,-16.0,-3.0,1.0
1.6951622887216113e+18,-1.0,2.0,4.0,-12.0,2.0,6.0,-3.0,-5.0
1.695162288722614e+18,0.0,7.0,-3.0,18.0,-13.0,-9.0,-3.0,-4.0
1.6951622887356027e+18,-1.0,11.0,-12.0,-13.0,3.0,1.0,-21.0,-2.0
1.6951622887356027e+18,0.0,-10.0,7.0,12.0,15.0,5.0,17.0,3.0
1.6951622887366036e+18,0.0,4.0,-2.0,-11.0,2.0,6.0,7.0,3.0
1.6951622887376026e+18,-3.0,-29.0,-13.0,-19.0,3.0,2.0,2.0,0.0
1.6951622887575916e+18,2.0,14.0,-3.0,-1.0,-4.0,0.0,-2.0,1.0
1.6951622887575916e+18,-2.0,-11.0,-12.0,-13.0,0.0,-15.0,-18.0,-14.0
1.6951622887595894e+18,-4.0,-13.0,7.0,11.0,-4.0,-7.0,11.0,-2.0
1.6951622887595894e+18,0.0,2.0,-8.0,-11.0,5.0,8.0,-13.0,3.0
1.6951622887715827e+18,5.0,1.0,6.0,1.0,-12.0,-2.0,-3.0,3.0
1.6951622887725847e+18,-3.0,1.0,10.0,18.0,26.0,-3.0,-7.0,-4.0
1.6951622887805765e+18,5.0,-6.0,0.0,3.0,-8.0,-9.0,-11.0,-12.0
1.6951622887805765e+18,0.0,2.0,5.0,-2.0,0.0,-4.0,7.0,-2.0
1.6951622887955676e+18,-6.0,-7.0,1.0,-10.0,-8.0,0.0,-4.0,-7.0
1.6951622887955676e+18,1.0,9.0,0.0,16.0,10.0,0.0,14.0,5.0
1.695162288809561e+18,-2.0,-16.0,1.0,-3.0,11.0,3.0,-7.0,-1.0
1.6951622888105597e+18,-3.0,-4.0,-10.0,-14.0,-24.0,-12.0,2.0,-7.0
1.6951622888315476e+18,-5.0,-9.0,17.0,30.0,20.0,8.0,0.0,4.0
1.695162288832561e+18,-1.0,-8.0,-7.0,-20.0,-6.0,-9.0,-2.0,-5.0
1.6951622888495373e+18,4.0,13.0,10.0,16.0,3.0,13.0,8.0,5.0
1.6951622888505372e+18,-4.0,1.0,-14.0,-20.0,-15.0,-10.0,0.0,1.0
1.6951622888505372e+18,0.0,-3.0,4.0,8.0,8.0,5.0,0.0,2.0
1.6951622888515387e+18,1.0,5.0,1.0,-5.0,-10.0,-10.0,-10.0,-1.0
1.695162288870527e+18,0.0,7.0,0.0,1.0,0.0,-3.0,0.0,1.0
1.6951622888715249e+18,0.0,-9.0,7.0,6.0,-5.0,4.0,-3.0,-3.0
1.6951622888715249e+18,-2.0,-7.0,-3.0,-5.0,12.0,-4.0,-2.0,-9.0
1.6951622888715249e+18,2.0,6.0,-3.0,-1.0,-5.0,-1.0,-5.0,7.0
1.6951622888735247e+18,-1.0,-3.0,11.0,0.0,-8.0,-9.0,-25.0,4.0
1.6951622888735247e+18,-3.0,1.0,-12.0,-12.0,-1.0,11.0,10.0,1.0
1.6951622888855173e+18,0.0,-4.0,-1.0,2.0,0.0,-6.0,-3.0,3.0
1.6951622888855173e+18,2.0,4.0,2.0,2.0,-5.0,-2.0,-4.0,-5.0
1.6951622888865167e+18,-5.0,-6.0,-12.0,-18.0,-34.0,-38.0,-34.0,-11.0
1.6951622888865167e+18,1.0,5.0,16.0,19.0,17.0,6.0,12.0,4.0
1.6951622888915154e+18,0.0,-5.0,-2.0,-12.0,-1.0,16.0,9.0,0.0
1.6951622888915154e+18,0.0,19.0,-4.0,9.0,-5.0,1.0,2.0,0.0
1.695162288924494e+18,-6.0,-7.0,-5.0,-12.0,21.0,9.0,-12.0,-6.0
1.6951622889254979e+18,-3.0,9.0,2.0,6.0,-3.0,-21.0,-31.0,-14.0
1.6951622889254979e+18,2.0,1.0,-9.0,-10.0,-16.0,1.0,14.0,-4.0
1.6951622889264978e+18,1.0,-5.0,0.0,-21.0,-18.0,-2.0,10.0,10.0
1.695162288936511e+18,-3.0,-2.0,-2.0,29.0,18.0,13.0,22.0,2.0
1.695162288937487e+18,1.0,14.0,-2.0,-6.0,0.0,2.0,-8.0,-5.0
1.6951622889594762e+18,2.0,4.0,-5.0,-3.0,-2.0,3.0,2.0,8.0
1.6951622889594762e+18,-3.0,-1.0,11.0,13.0,5.0,0.0,-5.0,-9.0
1.6951622889854664e+18,0.0,-6.0,6.0,0.0,-6.0,-3.0,21.0,-4.0
1.6951622889904566e+18,-3.0,6.0,-28.0,-15.0,14.0,6.0,4.0,1.0
1.6951622889904566e+18,-2.0,-1.0,3.0,-1.0,-11.0,-11.0,-12.0,-6.0
1.6951622889914578e+18,-1.0,-5.0,4.0,2.0,2.0,4.0,-22.0,2.0
1.6951622889994516e+18,6.0,8.0,6.0,5.0,2.0,6.0,-1.0,15.0
1.6951622889994516e+18,2.0,-1.0,-5.0,0.0,-5.0,-8.0,1.0,-3.0
1.6951622889994516e+18,-3.0,-9.0,-15.0,-30.0,-12.0,-2.0,16.0,-2.0
1.6951622890004547e+18,-3.0,-5.0,3.0,12.0,7.0,7.0,40.0,9.0
1.6951622890014508e+18,-2.0,-3.0,0.0,-2.0,-1.0,-7.0,-11.0,-6.0
1.695162289002479e+18,-3.0,-9.0,-1.0,-1.0,0.0,-5.0,-6.0,-6.0
1.695162289028616e+18,0.0,9.0,-4.0,-6.0,-10.0,-9.0,-23.0,3.0
1.695162289028616e+18,-2.0,-14.0,13.0,5.0,-6.0,-5.0,2.0,1.0
1.6951622890366106e+18,4.0,0.0,2.0,3.0,7.0,10.0,11.0,5.0
1.6951622890366106e+18,1.0,11.0,-10.0,-3.0,4.0,1.0,-3.0,-3.0
1.695162289038612e+18,-6.0,-8.0,-2.0,1.0,-11.0,-4.0,-6.0,-7.0
1.695162289038612e+18,-1.0,21.0,1.0,-6.0,8.0,-7.0,-7.0,-2.0
1.695162289038612e+18,-2.0,1.0,1.0,17.0,0.0,5.0,-12.0,3.0
1.6951622890396114e+18,-1.0,-2.0,-9.0,-26.0,-4.0,-5.0,-10.0,-6.0
1.6951622890892657e+18,-1.0,-2.0,-1.0,5.0,-1.0,-4.0,-8.0,-2.0
1.6951622890892657e+18,4.0,13.0,2.0,4.0,6.0,3.0,3.0,1.0
1.6951622890902656e+18,-2.0,-3.0,-1.0,-11.0,-8.0,-2.0,23.0,2.0
1.6951622890902656e+18,0.0,2.0,-3.0,3.0,-6.0,-8.0,3.0,-4.0
1.6951622890912663e+18,-1.0,4.0,-21.0,-15.0,4.0,6.0,8.0,-5.0
1.6951622890912663e+18,0.0,-7.0,19.0,9.0,-2.0,1.0,7.0,1.0
1.6951622890962806e+18,-4.0,-8.0,3.0,9.0,4.0,6.0,-3.0,-5.0
1.6951622890962806e+18,6.0,2.0,12.0,19.0,16.0,21.0,13.0,17.0
1.6951622890976517e+18,1.0,2.0,0.0,-11.0,-11.0,-15.0,-6.0,-3.0
1.6951622890976517e+18,-9.0,-6.0,4.0,12.0,0.0,-3.0,-2.0,-5.0
1.6951622891393516e+18,-2.0,14.0,6.0,-4.0,-3.0,2.0,-4.0,-9.0
1.6951622891393516e+18,0.0,-6.0,0.0,-1.0,0.0,-2.0,2.0,-1.0
1.69516228914976e+18,0.0,0.0,4.0,4.0,15.0,11.0,15.0,4.0
1.69516228914976e+18,-2.0,-6.0,-24.0,-14.0,-10.0,-4.0,-2.0,-1.0
1.695162289150768e+18,-1.0,5.0,-3.0,-5.0,-4.0,-16.0,-19.0,-6.0
1.695162289150768e+18,-2.0,-14.0,0.0,-4.0,-6.0,-5.0,4.0,-3.0
1.6951622891517573e+18,1.0,4.0,6.0,6.0,-4.0,-9.0,-10.0,-1.0
1.6951622891517573e+18,-3.0,-17.0,9.0,6.0,4.0,8.0,7.0,1.0
1.6951622892026084e+18,1.0,-6.0,5.0,5.0,6.0,1.0,-5.0,2.0
1.6951622892036137e+18,-5.0,12.0,-8.0,-3.0,-2.0,-5.0,-3.0,-7.0
1.6951622892046136e+18,-6.0,-33.0,9.0,8.0,1.0,0.0,2.0,2.0
1.6951622892046136e+18,-2.0,-1.0,2.0,-2.0,-1.0,1.0,-1.0,4.0
1.6951622892585787e+18,1.0,5.0,-16.0,-12.0,-2.0,-1.0,-5.0,0.0
1.6951622892585787e+18,0.0,2.0,1.0,2.0,-2.0,-2.0,-8.0,-5.0
1.6951622892935562e+18,-3.0,-5.0,9.0,16.0,5.0,0.0,2.0,-3.0
1.6951622892945564e+18,2.0,-8.0,1.0,-4.0,0.0,2.0,1.0,2.0
1.6951622892945564e+18,0.0,9.0,-4.0,-7.0,-10.0,-7.0,-9.0,-3.0
1.6951622892955556e+18,2.0,-1.0,-4.0,-13.0,-1.0,1.0,2.0,0.0
1.695162289298553e+18,3.0,4.0,3.0,5.0,2.0,2.0,3.0,3.0
1.695162289299553e+18,-3.0,-2.0,-2.0,1.0,0.0,-2.0,-6.0,-3.0
1.6951622893005527e+18,0.0,0.0,-1.0,1.0,-3.0,-2.0,-5.0,-4.0
1.6951622893005527e+18,0.0,1.0,4.0,-3.0,1.0,-1.0,0.0,0.0
1.6951622893005527e+18,0.0,0.0,-1.0,0.0,0.0,1.0,1.0,0.0
1.6951622893015575e+18,-1.0,0.0,-3.0,-3.0,-1.0,-2.0,-2.0,-1.0
1.695162289327536e+18,-1.0,-3.0,-1.0,1.0,-2.0,-2.0,-2.0,-1.0
1.6951622893285358e+18,0.0,-2.0,-3.0,-7.0,1.0,-2.0,1.0,0.0
1.6951622893375306e+18,-1.0,-1.0,0.0,0.0,1.0,1.0,1.0,1.0
1.6951622893375306e+18,-2.0,0.0,1.0,4.0,-1.0,-1.0,-3.0,0.0
1.6951622893545208e+18,0.0,0.0,1.0,1.0,-2.0,-4.0,-4.0,-2.0
1.6951622893555218e+18,0.0,-1.0,-3.0,-2.0,-2.0,-3.0,-2.0,-1.0
1.6951622893575206e+18,-3.0,-2.0,0.0,1.0,3.0,4.0,2.0,1.0
1.6951622893575206e+18,-1.0,-1.0,-4.0,-2.0,0.0,-2.0,-1.0,0.0
1.6951622893585196e+18,0.0,0.0,2.0,2.0,-2.0,-1.0,-1.0,-3.0
1.6951622893585196e+18,-1.0,-1.0,0.0,-1.0,0.0,2.0,1.0,0.0
1.6951622893675139e+18,1.0,0.0,-1.0,-5.0,-4.0,-4.0,-3.0,1.0
1.6951622893685125e+18,0.0,-1.0,1.0,-3.0,1.0,0.0,-1.0,0.0
1.6951622893695137e+18,0.0,-2.0,1.0,4.0,2.0,-2.0,2.0,1.0
1.6951622893695137e+18,-1.0,2.0,-4.0,-5.0,-4.0,-2.0,-4.0,-2.0
1.6951622893895242e+18,-1.0,0.0,0.0,1.0,1.0,3.0,1.0,-1.0
1.6951622893904996e+18,-2.0,-1.0,-1.0,-1.0,-2.0,-4.0,-3.0,-2.0
1.6951622893904996e+18,-1.0,-3.0,-1.0,0.0,2.0,2.0,0.0,1.0
1.6951622893915238e+18,-1.0,0.0,-3.0,-2.0,0.0,0.0,0.0,-3.0
1.6951622893915238e+18,0.0,2.0,0.0,0.0,-4.0,-1.0,0.0,-2.0
1.6951622893915238e+18,-1.0,-1.0,-3.0,-1.0,-1.0,1.0,0.0,0.0
1.695162289403492e+18,0.0,0.0,-1.0,1.0,0.0,-2.0,-3.0,0.0
1.695162289403492e+18,-1.0,-1.0,-1.0,0.0,2.0,2.0,1.0,-1.0
1.6951622894044956e+18,-1.0,-1.0,-1.0,0.0,-1.0,-2.0,-1.0,0.0
1.6951622894044956e+18,0.0,0.0,-1.0,-2.0,-1.0,0.0,-1.0,-3.0
1.6951622894254797e+18,-2.0,0.0,1.0,0.0,-2.0,-3.0,0.0,-1.0
1.695162289426479e+18,0.0,-1.0,-1.0,0.0,-1.0,1.0,0.0,0.0
1.6951622894274824e+18,0.0,-1.0,-1.0,-3.0,-1.0,0.0,-1.0,0.0
1.6951622894274824e+18,0.0,2.0,-2.0,-4.0,-2.0,-1.0,0.0,-2.0
1.6951622894404703e+18,-2.0,-1.0,0.0,-1.0,-3.0,-1.0,-2.0,-1.0
1.6951622894404703e+18,-1.0,-2.0,0.0,0.0,-2.0,-2.0,-3.0,-2.0
1.69516228944247e+18,0.0,-1.0,-1.0,-1.0,-1.0,-1.0,-1.0,0.0
1.69516228944247e+18,-1.0,-1.0,-1.0,1.0,3.0,2.0,-1.0,-1.0
1.695162289457466e+18,1.0,1.0,-2.0,-1.0,-3.0,-5.0,0.0,-2.0
1.6951622894634593e+18,0.0,-1.0,-1.0,-4.0,-5.0,4.0,0.0,-2.0
1.6951622894644636e+18,1.0,1.0,2.0,0.0,1.0,-11.0,-5.0,-3.0
1.6951622894644636e+18,-1.0,-2.0,-1.0,2.0,2.0,9.0,2.0,0.0
1.6951622895014395e+18,0.0,1.0,-1.0,-4.0,-2.0,0.0,0.0,-1.0
1.6951622895024364e+18,-1.0,-1.0,-1.0,-1.0,0.0,-5.0,-2.0,-1.0
1.695162289503437e+18,-2.0,-1.0,1.0,1.0,-3.0,-1.0,-1.0,-1.0
1.695162289503437e+18,-1.0,-2.0,0.0,1.0,-4.0,-8.0,-5.0,-1.0
1.695162289504434e+18,0.0,-2.0,-2.0,-2.0,-1.0,0.0,-1.0,-1.0
1.695162289504434e+18,-3.0,-3.0,0.0,1.0,0.0,1.0,0.0,-1.0
1.6951622895164314e+18,2.0,-1.0,-2.0,-4.0,-3.0,0.0,2.0,0.0
1.6951622895164314e+18,-1.0,-1.0,0.0,-2.0,2.0,0.0,1.0,0.0
1.695162289517428e+18,0.0,-1.0,-1.0,-1.0,-2.0,-1.0,-2.0,-3.0
1.695162289517428e+18,-1.0,-5.0,-3.0,-4.0,-2.0,-4.0,-2.0,-1.0
1.6951622895344182e+18,-4.0,0.0,6.0,3.0,1.0,4.0,1.0,-2.0
1.6951622895354207e+18,-1.0,-1.0,-9.0,-2.0,-2.0,-2.0,0.0,0.0
1.6951622895534062e+18,-1.0,2.0,10.0,0.0,-2.0,-2.0,-2.0,-1.0
1.6951622895534062e+18,0.0,1.0,1.0,-2.0,-1.0,-2.0,1.0,-1.0
1.6951622895554084e+18,0.0,0.0,0.0,-1.0,-2.0,-1.0,-1.0,0.0
1.6951622895554084e+18,-1.0,-2.0,0.0,1.0,2.0,0.0,1.0,0.0
1.6951622895614016e+18,-2.0,0.0,-2.0,1.0,1.0,-2.0,0.0,0.0
1.6951622895614016e+18,2.0,-1.0,-1.0,-2.0,0.0,0.0,0.0,2.0
1.695162289562404e+18,-1.0,-1.0,-2.0,-1.0,-1.0,3.0,0.0,0.0
1.6951622895634012e+18,-1.0,0.0,-1.0,-2.0,-1.0,-4.0,-3.0,-1.0
1.6951622895743936e+18,0.0,-2.0,-3.0,0.0,2.0,2.0,0.0,1.0
1.6951622895743936e+18,-1.0,1.0,5.0,3.0,2.0,1.0,1.0,0.0
1.6951622895833887e+18,-2.0,-6.0,-13.0,-7.0,-2.0,2.0,-2.0,-2.0
1.6951622895833887e+18,0.0,0.0,8.0,1.0,-2.0,-4.0,-3.0,-1.0
1.6951622896043804e+18,-2.0,-6.0,-13.0,-5.0,-3.0,-3.0,-2.0,-1.0
1.6951622896063767e+18,-1.0,1.0,-2.0,0.0,-1.0,1.0,0.0,-1.0
1.6951622896223708e+18,-1.0,-3.0,-2.0,-5.0,-7.0,-4.0,-1.0,1.0
1.6951622896223708e+18,1.0,-2.0,2.0,7.0,15.0,6.0,2.0,0.0
1.695162289623366e+18,-2.0,3.0,7.0,15.0,15.0,8.0,0.0,1.0
1.695162289623366e+18,-1.0,-3.0,-4.0,-3.0,-3.0,-1.0,-3.0,-1.0
1.6951622896263693e+18,-1.0,-1.0,-1.0,2.0,-4.0,-5.0,-1.0,-1.0
1.6951622896273636e+18,-2.0,-2.0,-7.0,-11.0,-7.0,-4.0,-1.0,0.0
1.69516228963436e+18,0.0,-2.0,-2.0,-4.0,-4.0,1.0,1.0,0.0
1.69516228963436e+18,0.0,0.0,-4.0,-3.0,-3.0,-5.0,-3.0,0.0
1.6951622896433554e+18,-1.0,-1.0,-1.0,2.0,3.0,1.0,-1.0,-2.0
1.695162289644355e+18,-1.0,-1.0,-2.0,-1.0,0.0,-1.0,0.0,-1.0
1.6951622896573468e+18,-2.0,-2.0,-3.0,-3.0,-3.0,-4.0,-2.0,-2.0
1.6951622896573468e+18,-2.0,1.0,7.0,-2.0,-7.0,1.0,-1.0,-2.0
1.6951622896693443e+18,1.0,4.0,12.0,2.0,8.0,4.0,0.0,0.0
1.6951622896693443e+18,0.0,-1.0,-14.0,-3.0,-1.0,-1.0,-1.0,-1.0
1.6951622896883505e+18,0.0,0.0,-2.0,-3.0,-1.0,-2.0,-3.0,0.0
1.6951622896883505e+18,-3.0,-1.0,-2.0,-1.0,-3.0,-7.0,1.0,-1.0
1.695162289689334e+18,-2.0,1.0,1.0,-1.0,-4.0,3.0,0.0,0.0
1.695162289689334e+18,1.0,0.0,1.0,4.0,9.0,11.0,2.0,-1.0
1.6951622897033203e+18,-1.0,0.0,1.0,-2.0,2.0,-3.0,0.0,0.0
1.6951622897033203e+18,-1.0,-1.0,-4.0,0.0,0.0,-3.0,-4.0,-1.0
1.6951622897043205e+18,-2.0,-1.0,-2.0,0.0,-2.0,-4.0,-2.0,-1.0
1.6951622897043205e+18,-3.0,1.0,2.0,-2.0,-8.0,-4.0,-1.0,-1.0
1.6951622897183117e+18,-2.0,-3.0,-9.0,-5.0,-6.0,0.0,-1.0,0.0
1.6951622897193147e+18,0.0,0.0,9.0,1.0,5.0,0.0,0.0,-1.0
1.6951622897193147e+18,-2.0,1.0,-4.0,0.0,5.0,2.0,0.0,-2.0
1.695162289720316e+18,1.0,-2.0,-1.0,-3.0,-8.0,-4.0,-2.0,0.0
1.695162289740302e+18,-1.0,0.0,2.0,1.0,0.0,1.0,0.0,0.0
1.6951622897412987e+18,0.0,-1.0,-6.0,0.0,3.0,1.0,1.0,1.0
1.6951622897422986e+18,0.0,-2.0,-1.0,0.0,1.0,-2.0,-3.0,-1.0
1.6951622897422986e+18,-1.0,1.0,3.0,-1.0,-5.0,-3.0,-1.0,-1.0
1.6951622897562906e+18,1.0,1.0,-1.0,-2.0,-3.0,0.0,1.0,-1.0
1.6951622897562906e+18,-2.0,1.0,-2.0,-1.0,0.0,0.0,0.0,0.0
1.695162289763286e+18,-1.0,-1.0,-2.0,-3.0,1.0,0.0,-1.0,-2.0
1.695162289763286e+18,0.0,0.0,0.0,-1.0,-4.0,-8.0,-2.0,-1.0
1.6951622897782804e+18,0.0,2.0,2.0,2.0,-4.0,8.0,1.0,-2.0
1.6951622897782804e+18,-1.0,-3.0,-3.0,0.0,5.0,2.0,-1.0,0.0
1.695162289779277e+18,-1.0,0.0,0.0,-1.0,0.0,0.0,1.0,-1.0
1.6951622897802783e+18,-1.0,0.0,1.0,-1.0,-1.0,-1.0,-1.0,1.0
1.6951622898082609e+18,-1.0,-1.0,0.0,-3.0,-1.0,-2.0,-2.0,-1.0
1.6951622898082609e+18,0.0,-1.0,-1.0,-1.0,0.0,0.0,-2.0,-2.0
1.6951622898092646e+18,0.0,-1.0,-3.0,-1.0,-1.0,-1.0,0.0,1.0
1.6951622898102592e+18,0.0,-1.0,0.0,-2.0,-1.0,0.0,-1.0,-2.0
1.6951622898142577e+18,-1.0,1.0,0.0,-2.0,-1.0,-2.0,1.0,-1.0
1.6951622898142577e+18,-1.0,0.0,-1.0,0.0,-1.0,2.0,-1.0,0.0
1.6951622898302525e+18,1.0,-2.0,-1.0,2.0,0.0,-3.0,0.0,0.0
1.6951622898312512e+18,-1.0,-1.0,-2.0,0.0,-2.0,0.0,0.0,-1.0
1.6951622898382438e+18,0.0,-2.0,1.0,1.0,-1.0,-2.0,-1.0,-1.0
1.6951622898382438e+18,-3.0,0.0,-2.0,0.0,-1.0,-1.0,-1.0,-3.0
1.6951622898392468e+18,-4.0,1.0,-1.0,0.0,-3.0,-1.0,0.0,-1.0
1.6951622898402463e+18,-3.0,0.0,-1.0,0.0,-1.0,0.0,1.0,0.0
1.6951622898682253e+18,0.0,-1.0,0.0,-1.0,1.0,-2.0,-3.0,-1.0
1.6951622898682253e+18,0.0,0.0,-1.0,-3.0,-2.0,-1.0,-2.0,-2.0
1.6951622898692293e+18,0.0,-1.0,-1.0,0.0,-2.0,-1.0,-3.0,-1.0
1.6951622898692293e+18,-1.0,1.0,-1.0,1.0,0.0,-1.0,-1.0,-2.0
1.6951622898742226e+18,-1.0,-1.0,-3.0,-2.0,-3.0,-1.0,-1.0,0.0
1.6951622898742226e+18,-1.0,-1.0,-2.0,-2.0,-2.0,0.0,-1.0,0.0
1.6951622898902136e+18,1.0,-1.0,-1.0,-3.0,-2.0,0.0,-2.0,1.0
1.6951622898912207e+18,-1.0,0.0,-2.0,0.0,0.0,-2.0,-1.0,-1.0
1.6951622899012116e+18,-3.0,-2.0,0.0,-1.0,-2.0,-4.0,0.0,0.0
1.6951622899062093e+18,1.0,-2.0,-2.0,-1.0,-1.0,-2.0,-1.0,-1.0
1.6951622899072092e+18,-1.0,-2.0,0.0,0.0,2.0,-1.0,-1.0,0.0
1.6951622899072092e+18,-2.0,-2.0,0.0,-1.0,0.0,-1.0,-1.0,0.0
1.6951622899201964e+18,-1.0,0.0,-1.0,0.0,-1.0,1.0,-2.0,-1.0
1.6951622899211999e+18,-2.0,-1.0,0.0,-1.0,-2.0,0.0,-1.0,-1.0
1.695162289922219e+18,1.0,-2.0,-2.0,1.0,-1.0,-1.0,0.0,-1.0
1.695162289922219e+18,1.0,-1.0,-1.0,-2.0,-2.0,1.0,-2.0,-1.0
1.6951622899341875e+18,-1.0,-1.0,-1.0,-2.0,0.0,-1.0,-1.0,-1.0
1.6951622899341875e+18,0.0,0.0,-1.0,0.0,1.0,-2.0,-1.0,0.0
1.695162289943183e+18,-1.0,-1.0,-2.0,-2.0,0.0,-1.0,0.0,-1.0
1.6951622899441833e+18,-1.0,1.0,-1.0,-2.0,-2.0,-1.0,-2.0,0.0
1.695162289969169e+18,1.0,-1.0,0.0,-2.0,-1.0,1.0,-1.0,-2.0
1.6951622899831836e+18,-1.0,-1.0,-1.0,-1.0,0.0,1.0,0.0,-1.0
1.6951622899831836e+18,-1.0,0.0,1.0,-1.0,-1.0,-1.0,-2.0,0.0
1.6951622899831836e+18,0.0,-1.0,0.0,-1.0,1.0,1.0,-2.0,-1.0
1.695162289984183e+18,-2.0,0.0,-1.0,-2.0,0.0,-2.0,-1.0,0.0
1.695162289984183e+18,1.0,-1.0,-1.0,1.0,0.0,-1.0,0.0,-1.0
1.695162289984183e+18,-1.0,-1.0,-2.0,0.0,0.0,-1.0,-1.0,-1.0
1.695162289984183e+18,-3.0,-2.0,2.0,-1.0,-1.0,1.0,0.0,0.0
1.6951622899941542e+18,-1.0,-2.0,0.0,-2.0,-1.0,-1.0,-2.0,0.0
1.6951622899941542e+18,-1.0,0.0,-2.0,0.0,0.0,0.0,0.0,0.0
1.6951622900181407e+18,1.0,0.0,-1.0,-1.0,-2.0,-2.0,0.0,-1.0
1.6951622900191396e+18,-1.0,-1.0,-2.0,-1.0,0.0,-1.0,0.0,0.0
1.695162290020139e+18,-1.0,-1.0,0.0,0.0,-3.0,-1.0,0.0,-1.0
1.6951622900211415e+18,-1.0,-1.0,0.0,-1.0,-1.0,-1.0,-1.0,-1.0
1.6951622900241367e+18,0.0,-1.0,-1.0,-1.0,-2.0,-1.0,-1.0,-1.0
1.6951622900251364e+18,0.0,-1.0,-2.0,-1.0,-2.0,-1.0,-1.0,0.0
1.695162290048123e+18,-3.0,-1.0,-2.0,0.0,-2.0,1.0,-1.0,0.0
1.6951622900541243e+18,1.0,-1.0,-1.0,-1.0,-1.0,-3.0,-1.0,-1.0
1.6951622900551237e+18,-2.0,1.0,1.0,-1.0,-2.0,0.0,-1.0,-2.0
1.6951622900551237e+18,0.0,-1.0,2.0,0.0,1.0,0.0,-1.0,-1.0
1.6951622900551237e+18,-1.0,0.0,0.0,-1.0,0.0,-3.0,-1.0,0.0
1.6951622900551237e+18,-2.0,-1.0,-2.0,-2.0,0.0,-1.0,0.0,-1.0
1.695162290063114e+18,-1.0,-2.0,0.0,-1.0,0.0,0.0,0.0,-1.0
1.695162290063114e+18,1.0,-1.0,-1.0,0.0,-2.0,-2.0,-1.0,-2.0
1.695162290077138e+18,-1.0,0.0,-1.0,0.0,-2.0,1.0,-1.0,0.0
1.6951622900781059e+18,0.0,0.0,0.0,0.0,-1.0,0.0,0.0,-1.0
1.6951622901090204e+18,-1.0,-1.0,0.0,-1.0,0.0,-1.0,-2.0,-2.0
1.6951622901090204e+18,-1.0,-1.0,-1.0,-2.0,-2.0,-2.0,-1.0,-2.0
1.6951622901090204e+18,-1.0,0.0,-1.0,0.0,0.0,1.0,-1.0,0.0
1.6951622901100242e+18,0.0,-2.0,-1.0,0.0,0.0,0.0,-2.0,-1.0
1.6951622901110236e+18,0.0,-1.0,0.0,-1.0,0.0,-1.0,-1.0,1.0
1.6951622901110236e+18,-2.0,-1.0,-1.0,-1.0,-1.0,-2.0,0.0,0.0
1.6951622901140183e+18,1.0,-2.0,1.0,-2.0,0.0,-1.0,0.0,0.0
1.6951622901140183e+18,-1.0,1.0,0.0,-2.0,-1.0,-1.0,-1.0,-1.0
1.6951622901230141e+18,-1.0,0.0,-2.0,-1.0,-1.0,-1.0,-1.0,-1.0
1.695162290124012e+18,-1.0,-2.0,-1.0,-1.0,0.0,2.0,-1.0,0.0
1.695162290168573e+18,-1.0,5.0,-4.0,-3.0,-2.0,-1.0,-2.0,-1.0
1.695162290168573e+18,-1.0,-3.0,1.0,0.0,-2.0,-1.0,0.0,-1.0
1.6951622901695526e+18,0.0,-1.0,-1.0,-1.0,-2.0,-1.0,1.0,-1.0
1.6951622901705523e+18,-1.0,-1.0,-2.0,-4.0,0.0,-3.0,1.0,-1.0
1.695162290180542e+18,0.0,0.0,-1.0,0.0,-1.0,-1.0,-1.0,0.0
1.695162290180542e+18,-1.0,-3.0,0.0,1.0,0.0,0.0,-1.0,0.0
1.695162290180542e+18,-1.0,-1.0,-1.0,-2.0,-1.0,-1.0,-1.0,0.0
1.6951622901815465e+18,-1.0,0.0,-1.0,0.0,-3.0,0.0,-2.0,0.0
1.6951622901825423e+18,0.0,-3.0,-2.0,0.0,-1.0,0.0,0.0,-2.0
1.6951622901825423e+18,1.0,0.0,1.0,-2.0,-2.0,-2.0,-1.0,0.0
1.6951622901835402e+18,1.0,-1.0,1.0,-1.0,0.0,-1.0,-1.0,1.0
1.6951622901835402e+18,-3.0,-2.0,0.0,1.0,1.0,1.0,-1.0,0.0
1.695162290197535e+18,0.0,1.0,0.0,-2.0,-1.0,-1.0,-1.0,1.0
1.695162290197535e+18,-1.0,-2.0,-3.0,-2.0,-1.0,-3.0,-2.0,-3.0
1.6951622902045284e+18,1.0,-2.0,0.0,-2.0,-1.0,0.0,0.0,0.0
1.6951622902045284e+18,-2.0,-4.0,2.0,2.0,0.0,0.0,0.0,-2.0
1.6951622902245402e+18,-3.0,-5.0,0.0,2.0,-1.0,0.0,1.0,0.0
1.6951622902245402e+18,-2.0,-7.0,1.0,2.0,0.0,1.0,1.0,0.0
1.6951622902265193e+18,-1.0,-1.0,-2.0,-1.0,1.0,-1.0,-1.0,0.0
1.6951622902265193e+18,1.0,2.0,-2.0,-1.0,-2.0,-1.0,-1.0,-1.0
1.6951622902435062e+18,2.0,14.0,-12.0,-8.0,-5.0,-4.0,-4.0,-3.0
1.6951622902435062e+18,2.0,3.0,-2.0,-1.0,-2.0,-2.0,-1.0,-1.0
1.6951622902445056e+18,-3.0,-5.0,3.0,2.0,1.0,1.0,-1.0,0.0
1.6951622902445056e+18,-1.0,2.0,2.0,1.0,-2.0,0.0,-2.0,1.0
1.6951622902644987e+18,5.0,4.0,1.0,-3.0,-3.0,-1.0,-3.0,0.0
1.6951622902644987e+18,-3.0,9.0,-8.0,-2.0,-1.0,-1.0,-3.0,-1.0
1.695162290272513e+18,0.0,-2.0,-2.0,0.0,0.0,0.0,-1.0,-1.0
1.695162290273489e+18,5.0,8.0,-6.0,-5.0,-6.0,-4.0,-4.0,0.0
1.6951622902804844e+18,0.0,-7.0,0.0,1.0,0.0,-1.0,0.0,1.0
1.6951622902864852e+18,-2.0,-11.0,6.0,2.0,2.0,1.0,0.0,1.0
1.6951622902864852e+18,-3.0,1.0,-5.0,-1.0,-1.0,0.0,0.0,-2.0
1.6951622902894797e+18,-2.0,-2.0,-3.0,-1.0,-1.0,-1.0,0.0,0.0
1.6951622903034719e+18,-3.0,-8.0,7.0,3.0,2.0,1.0,0.0,-1.0
1.6951622903034719e+18,-2.0,-3.0,-9.0,-1.0,0.0,-1.0,0.0,-1.0
1.6951622903044736e+18,-1.0,1.0,-1.0,-1.0,-3.0,0.0,-1.0,-1.0
1.6951622903044736e+18,-2.0,-3.0,5.0,1.0,1.0,-1.0,0.0,0.0
1.6951622903174628e+18,0.0,10.0,-8.0,-4.0,-2.0,-3.0,-1.0,-3.0
1.6951622903184701e+18,2.0,0.0,2.0,0.0,-1.0,-1.0,-1.0,0.0
1.695162290324459e+18,-2.0,-1.0,2.0,-1.0,0.0,1.0,-1.0,0.0
1.695162290324459e+18,-1.0,2.0,-4.0,-4.0,-1.0,0.0,-2.0,-2.0
1.69516229034045e+18,-3.0,-11.0,5.0,0.0,-1.0,-1.0,-1.0,-1.0
1.69516229034045e+18,-1.0,1.0,0.0,-1.0,-2.0,-1.0,0.0,-1.0
1.6951622903424507e+18,0.0,-1.0,0.0,-1.0,-2.0,-2.0,0.0,-1.0
1.6951622903424507e+18,-3.0,-4.0,1.0,1.0,-3.0,0.0,-1.0,0.0
1.695162290364438e+18,-3.0,-4.0,-2.0,-1.0,1.0,0.0,0.0,-1.0
1.695162290364438e+18,1.0,-1.0,2.0,0.0,-1.0,-1.0,-1.0,0.0
1.6951622903784294e+18,0.0,-2.0,-3.0,0.0,-1.0,-1.0,0.0,0.0
1.6951622903794286e+18,1.0,2.0,-3.0,-1.0,0.0,0.0,2.0,-1.0
1.6951622903794286e+18,-2.0,-1.0,1.0,2.0,-1.0,-1.0,0.0,-1.0
1.6951622903794286e+18,-1.0,2.0,-1.0,-1.0,-1.0,-1.0,-2.0,-1.0
1.695162290385429e+18,0.0,1.0,-1.0,-1.0,-1.0,-1.0,-1.0,-2.0
1.6951622903864248e+18,-2.0,-4.0,0.0,0.0,0.0,0.0,0.0,-1.0
1.695162290400415e+18,0.0,-2.0,0.0,0.0,2.0,0.0,-1.0,-1.0
1.695162290400415e+18,-2.0,0.0,0.0,-2.0,-1.0,1.0,-1.0,0.0
1.695162290401415e+18,-2.0,0.0,0.0,-1.0,1.0,-1.0,-1.0,-2.0
1.6951622904024146e+18,0.0,-2.0,0.0,-2.0,-1.0,0.0,0.0,1.0
1.6951622904274002e+18,-1.0,-2.0,0.0,-1.0,-3.0,-2.0,-1.0,0.0
1.6951622904274002e+18,-1.0,1.0,-1.0,-1.0,0.0,-1.0,-1.0,-2.0
1.6951622904274002e+18,0.0,-1.0,-2.0,-1.0,-1.0,-1.0,0.0,-1.0
1.6951622904274002e+18,-1.0,-1.0,-2.0,0.0,-2.0,0.0,-2.0,-2.0
1.6951622904363937e+18,-1.0,1.0,-1.0,0.0,-2.0,1.0,0.0,-1.0
1.6951622904363937e+18,-1.0,-1.0,-2.0,0.0,0.0,-2.0,-2.0,-1.0
1.6951622904453888e+18,-1.0,0.0,-2.0,-1.0,-1.0,-2.0,-1.0,-2.0
1.6951622904453888e+18,-1.0,-2.0,0.0,2.0,0.0,-1.0,0.0,-1.0
1.695162290465381e+18,-2.0,-1.0,-1.0,-2.0,0.0,-1.0,-1.0,0.0
1.695162290465381e+18,0.0,-2.0,-1.0,-1.0,-1.0,1.0,-1.0,-2.0
1.6951622904663777e+18,1.0,1.0,-1.0,0.0,0.0,2.0,-1.0,0.0
1.6951622904663777e+18,-3.0,0.0,-2.0,0.0,2.0,0.0,-1.0,0.0
1.6951622904833682e+18,0.0,-1.0,0.0,-1.0,0.0,-1.0,0.0,-3.0
1.6951622904833682e+18,0.0,0.0,0.0,-1.0,0.0,-1.0,-1.0,-2.0
1.6951622904843717e+18,-1.0,-1.0,0.0,-1.0,0.0,-2.0,-3.0,0.0
1.6951622904843717e+18,1.0,0.0,-1.0,-2.0,-2.0,-1.0,-1.0,-1.0
1.695162290496383e+18,-1.0,-2.0,-1.0,0.0,-1.0,0.0,0.0,-1.0
1.695162290496383e+18,-1.0,0.0,-3.0,-1.0,-1.0,0.0,1.0,-1.0
1.6951622905053545e+18,0.0,0.0,-1.0,-2.0,-1.0,0.0,0.0,0.0
1.6951622905053545e+18,-1.0,-1.0,0.0,-2.0,-2.0,-2.0,-1.0,-2.0
1.6951622905353375e+18,0.0,-1.0,1.0,0.0,1.0,-1.0,0.0,-1.0
1.6951622905353375e+18,0.0,-1.0,0.0,-2.0,0.0,-2.0,0.0,0.0
1.6951622905363374e+18,-3.0,-3.0,-1.0,0.0,-1.0,-3.0,-1.0,0.0
1.695162290537338e+18,-2.0,0.0,0.0,-1.0,1.0,-2.0,-1.0,-1.0
1.6951622905563277e+18,0.0,-1.0,0.0,-1.0,-2.0,0.0,-1.0,-1.0
1.695162290557329e+18,-2.0,-1.0,-1.0,1.0,2.0,0.0,-1.0,1.0
1.6951622905583278e+18,-1.0,0.0,-1.0,0.0,-3.0,0.0,0.0,-1.0
1.6951622905583278e+18,0.0,0.0,-1.0,0.0,-1.0,-1.0,0.0,-1.0
1.6951622905583278e+18,-1.0,-1.0,-2.0,-2.0,-1.0,0.0,-2.0,-1.0
1.6951622905583278e+18,0.0,-2.0,-1.0,-1.0,-1.0,-1.0,-2.0,0.0
1.6951622905653204e+18,0.0,-1.0,0.0,-2.0,1.0,-1.0,-2.0,-2.0
1.6951622905653204e+18,0.0,-2.0,-2.0,2.0,0.0,-1.0,0.0,1.0
1.6951622905933286e+18,0.0,0.0,0.0,-1.0,-1.0,-1.0,-1.0,1.0
1.6951622905933286e+18,-1.0,-2.0,-1.0,-1.0,-2.0,-3.0,-3.0,0.0
1.6951622905943066e+18,-1.0,-1.0,0.0,-1.0,-2.0,-2.0,-1.0,1.0
1.6951622905943066e+18,1.0,-3.0,-1.0,-2.0,-2.0,0.0,-2.0,-1.0
1.6951622906033014e+18,-2.0,-3.0,-1.0,-1.0,1.0,0.0,-2.0,1.0
1.6951622906033014e+18,-1.0,0.0,0.0,-1.0,0.0,-1.0,1.0,2.0
1.6951622906043223e+18,0.0,-1.0,-2.0,-1.0,0.0,-2.0,-1.0,-1.0
1.6951622906043223e+18,1.0,1.0,-1.0,-1.0,0.0,0.0,-2.0,-1.0
1.6951622906292861e+18,-1.0,1.0,-1.0,1.0,-2.0,1.0,-2.0,-1.0
1.6951622906292861e+18,-2.0,-1.0,-1.0,0.0,1.0,-1.0,0.0,-1.0
1.6951622906292861e+18,-1.0,-1.0,0.0,-1.0,0.0,-1.0,1.0,-2.0
1.6951622906292861e+18,-1.0,0.0,1.0,-1.0,-1.0,-1.0,2.0,0.0
1.6951622906403013e+18,-2.0,-1.0,-3.0,-3.0,1.0,-1.0,0.0,0.0
1.6951622906403013e+18,-1.0,1.0,0.0,-3.0,-2.0,-2.0,-2.0,0.0
1.695162290642277e+18,0.0,0.0,-3.0,-1.0,-1.0,0.0,-2.0,0.0
1.695162290642277e+18,0.0,-3.0,-2.0,-2.0,-1.0,-2.0,0.0,0.0
1.6951622906626355e+18,-1.0,-1.0,1.0,-2.0,-1.0,-3.0,0.0,-2.0
1.6951622906626355e+18,-1.0,1.0,0.0,0.0,0.0,0.0,-1.0,-1.0
1.6951622906645885e+18,-1.0,-1.0,1.0,0.0,0.0,0.0,-1.0,-1.0
1.6951622906645885e+18,-2.0,0.0,1.0,0.0,-2.0,0.0,-1.0,-1.0
1.6951622906775324e+18,1.0,-1.0,-2.0,0.0,-2.0,-3.0,0.0,-2.0
1.6951622906775324e+18,1.0,-1.0,0.0,0.0,-2.0,-2.0,1.0,-2.0
1.695162290686528e+18,-2.0,0.0,0.0,-2.0,-1.0,-1.0,0.0,-2.0
1.6951622906875274e+18,-2.0,0.0,-2.0,-1.0,0.0,-2.0,-2.0,-1.0
1.6951622907005235e+18,-1.0,0.0,0.0,1.0,-1.0,-2.0,-1.0,-1.0
1.6951622907015196e+18,-1.0,-2.0,-2.0,-1.0,0.0,0.0,1.0,-2.0
1.6951622907025196e+18,-1.0,-1.0,0.0,0.0,0.0,-2.0,0.0,0.0
1.6951622907025196e+18,-1.0,-3.0,-1.0,-2.0,-1.0,1.0,-2.0,0.0
1.6951622907235067e+18,-1.0,-1.0,1.0,-2.0,0.0,-1.0,0.0,-1.0
1.6951622907235067e+18,1.0,1.0,-2.0,-2.0,0.0,1.0,-1.0,0.0
1.695162290729503e+18,0.0,1.0,-1.0,0.0,-1.0,0.0,-3.0,-1.0
1.6951622907305068e+18,-1.0,-1.0,-1.0,0.0,-1.0,-1.0,0.0,0.0
1.695162290736497e+18,0.0,0.0,-1.0,1.0,-1.0,0.0,-1.0,-2.0
1.6951622907374976e+18,0.0,-1.0,-1.0,-2.0,-2.0,-1.0,-2.0,-1.0
1.6951622907454932e+18,0.0,0.0,-2.0,-1.0,0.0,-1.0,1.0,1.0
1.695162290746493e+18,0.0,0.0,1.0,0.0,0.0,-2.0,-2.0,1.0
1.695162290775475e+18,-2.0,-1.0,0.0,-2.0,-1.0,-1.0,-1.0,-1.0
1.695162290775475e+18,-2.0,0.0,-2.0,1.0,-1.0,-1.0,1.0,-2.0
1.695162290776475e+18,0.0,-1.0,-1.0,-2.0,-1.0,1.0,-1.0,0.0
1.6951622907774738e+18,-2.0,-1.0,-1.0,-2.0,-2.0,-1.0,-2.0,-3.0
1.695162290781471e+18,0.0,-1.0,-1.0,0.0,-2.0,-1.0,2.0,1.0
1.6951622907824712e+18,0.0,-2.0,0.0,-2.0,-2.0,-1.0,0.0,0.0
1.6951622907934646e+18,-1.0,-1.0,-1.0,1.0,-1.0,-1.0,0.0,-1.0
1.6951622907934646e+18,0.0,1.0,0.0,-1.0,-1.0,-2.0,-1.0,0.0
1.695162290805457e+18,-1.0,0.0,-1.0,-2.0,-1.0,1.0,-1.0,-1.0
1.695162290805457e+18,-1.0,-2.0,0.0,-2.0,0.0,0.0,-3.0,0.0
1.6951622908064576e+18,-1.0,-2.0,2.0,-2.0,-4.0,-1.0,-1.0,1.0
1.6951622908074557e+18,0.0,0.0,-2.0,0.0,0.0,0.0,-2.0,0.0
1.695162290827776e+18,1.0,-1.0,-2.0,-1.0,1.0,0.0,-1.0,-1.0
1.695162290827776e+18,-1.0,0.0,-1.0,-1.0,-1.0,-1.0,-2.0,1.0
1.695162290829401e+18,0.0,-2.0,-1.0,0.0,0.0,0.0,-1.0,-2.0
1.695162290829401e+18,-2.0,0.0,-1.0,0.0,0.0,-1.0,0.0,-1.0
1.6951622908435663e+18,-1.0,-1.0,1.0,0.0,-2.0,-1.0,-2.0,-3.0
1.6951622908435663e+18,-1.0,0.0,-1.0,0.0,-2.0,-1.0,-1.0,-2.0
1.6951622908445678e+18,-1.0,-1.0,-1.0,0.0,1.0,0.0,0.0,-2.0
1.6951622908445678e+18,0.0,-2.0,-2.0,-4.0,-1.0,0.0,-1.0,-1.0
1.6951622908573002e+18,0.0,-1.0,-1.0,0.0,0.0,-1.0,0.0,0.0
1.6951622908573002e+18,-1.0,1.0,1.0,0.0,-1.0,1.0,0.0,-1.0
1.6951622908662945e+18,-1.0,0.0,0.0,0.0,1.0,0.0,-2.0,-1.0
1.6951622908662945e+18,-1.0,0.0,-2.0,-1.0,-1.0,-1.0,1.0,-1.0
1.6951622908812854e+18,0.0,0.0,0.0,-1.0,0.0,0.0,-2.0,-1.0
1.6951622908812854e+18,-1.0,-1.0,-2.0,-2.0,-2.0,-2.0,0.0,-1.0
1.6951622908822853e+18,0.0,-1.0,-2.0,-2.0,-1.0,-2.0,-1.0,-1.0
1.6951622908822853e+18,-1.0,-1.0,-1.0,-1.0,1.0,-1.0,1.0,0.0
1.6951622909022958e+18,-1.0,-2.0,-1.0,-1.0,-2.0,0.0,0.0,-1.0
1.6951622909032947e+18,0.0,-2.0,-1.0,0.0,0.0,-1.0,-1.0,1.0
1.695162290904294e+18,0.0,1.0,0.0,1.0,-1.0,-1.0,-1.0,-1.0
1.695162290904294e+18,0.0,-1.0,-1.0,-1.0,-1.0,-1.0,-1.0,-1.0
1.6951622909162642e+18,-3.0,-1.0,0.0,0.0,-1.0,0.0,0.0,-1.0
1.6951622909172726e+18,0.0,-2.0,-2.0,1.0,1.0,0.0,-1.0,-1.0
1.6951622909252616e+18,-1.0,0.0,0.0,-4.0,0.0,0.0,-1.0,0.0
1.6951622909262633e+18,0.0,-1.0,0.0,-1.0,-1.0,-1.0,-2.0,-2.0
1.695162290940274e+18,-1.0,0.0,-2.0,-2.0,0.0,-2.0,-2.0,0.0
1.695162290940274e+18,-1.0,-1.0,0.0,-1.0,0.0,-4.0,0.0,-1.0
1.69516229094225e+18,-1.0,0.0,-1.0,-1.0,-2.0,0.0,-1.0,0.0
1.69516229094225e+18,-1.0,-2.0,-1.0,1.0,-2.0,1.0,1.0,-2.0
1.6951622909702572e+18,-1.0,0.0,0.0,0.0,0.0,-1.0,-1.0,0.0
1.6951622909702572e+18,-1.0,0.0,-2.0,-1.0,-3.0,0.0,-2.0,-2.0
1.6951622909722337e+18,-1.0,-1.0,-1.0,-1.0,-1.0,-1.0,0.0,0.0
1.6951622909722337e+18,-2.0,-1.0,0.0,1.0,0.0,-1.0,-2.0,-1.0
1.6951622909762314e+18,-1.0,-1.0,-2.0,-2.0,-2.0,0.0,-1.0,1.0
1.6951622909762314e+18,-1.0,-1.0,-2.0,-3.0,-1.0,-1.0,-2.0,-1.0
1.6951622909932198e+18,0.0,1.0,-1.0,1.0,-2.0,-1.0,-1.0,0.0
1.6951622909932198e+18,-1.0,0.0,-2.0,-2.0,1.0,-1.0,-2.0,-1.0
1.69516229100024e+18,0.0,-1.0,0.0,-1.0,0.0,-1.0,-1.0,0.0
1.69516229100024e+18,-1.0,0.0,0.0,1.0,1.0,-1.0,-1.0,0.0
1.6951622910022147e+18,-1.0,-2.0,0.0,-1.0,-2.0,-1.0,0.0,-1.0
1.6951622910022147e+18,1.0,-1.0,0.0,-1.0,0.0,0.0,-1.0,0.0
1.6951622910331999e+18,0.0,0.0,-1.0,0.0,0.0,-1.0,0.0,0.0
1.6951622910331999e+18,0.0,-1.0,-1.0,-1.0,-2.0,0.0,0.0,-2.0
1.6951622910341975e+18,-1.0,-2.0,-1.0,0.0,-1.0,-1.0,-2.0,-1.0
1.6951622910341975e+18,-1.0,-1.0,-1.0,0.0,0.0,-1.0,-1.0,-1.0
1.695162291053185e+18,1.0,-1.0,0.0,-1.0,0.0,-2.0,0.0,-1.0
1.695162291053185e+18,-1.0,0.0,0.0,-1.0,-1.0,-1.0,-1.0,0.0
1.6951622910541868e+18,0.0,-1.0,-1.0,0.0,-1.0,0.0,-1.0,-1.0
1.6951622910541868e+18,-2.0,-1.0,1.0,-2.0,-1.0,-1.0,0.0,0.0
1.6951622910601812e+18,0.0,-1.0,-1.0,1.0,0.0,0.0,0.0,0.0
1.6951622910601812e+18,-2.0,-2.0,0.0,0.0,0.0,1.0,-1.0,0.0
1.6951622910631798e+18,0.0,0.0,0.0,-1.0,1.0,-1.0,1.0,-1.0
1.6951622910631798e+18,0.0,1.0,-2.0,0.0,0.0,0.0,-1.0,-1.0
1.6951622910831695e+18,-2.0,0.0,-1.0,-1.0,-2.0,0.0,-1.0,-2.0
1.6951622910831695e+18,-1.0,-2.0,-1.0,-1.0,-1.0,-1.0,-1.0,1.0
1.695162291084192e+18,-2.0,-1.0,-1.0,-1.0,-1.0,-2.0,-1.0,-2.0
1.695162291084192e+18,-2.0,-1.0,-1.0,-2.0,-2.0,-1.0,-1.0,0.0
1.695162291096167e+18,0.0,-2.0,-1.0,-1.0,-1.0,0.0,-2.0,-1.0
1.695162291096167e+18,1.0,-2.0,-1.0,-1.0,0.0,0.0,0.0,0.0
1.695162291105559e+18,-1.0,-1.0,0.0,-2.0,1.0,0.0,2.0,2.0
1.695162291105559e+18,-1.0,0.0,0.0,1.0,1.0,0.0,2.0,1.0
1.695162291120549e+18,-1.0,1.0,3.0,1.0,2.0,2.0,0.0,0.0
1.695162291120549e+18,3.0,1.0,1.0,1.0,2.0,-1.0,1.0,-3.0
1.6951622911215734e+18,2.0,-1.0,2.0,0.0,-3.0,-2.0,-1.0,0.0
1.6951622911215734e+18,1.0,0.0,1.0,-1.0,1.0,1.0,-1.0,0.0
1.6951622911425377e+18,-1.0,-1.0,-2.0,-2.0,1.0,0.0,0.0,-1.0
1.695162291143537e+18,0.0,0.0,0.0,-1.0,0.0,-1.0,-2.0,0.0
1.695162291144537e+18,0.0,-1.0,-1.0,-2.0,0.0,-1.0,-2.0,-2.0
1.695162291144537e+18,-2.0,-1.0,0.0,-1.0,-1.0,-1.0,0.0,-1.0
1.6951622911655237e+18,-1.0,-2.0,-1.0,0.0,1.0,-2.0,-1.0,0.0
1.6951622911655237e+18,-2.0,-1.0,1.0,0.0,1.0,-1.0,-2.0,-2.0
1.6951622911665236e+18,1.0,1.0,-1.0,0.0,-1.0,0.0,-1.0,1.0
1.6951622911665236e+18,2.0,-2.0,1.0,-1.0,-1.0,-1.0,0.0,-1.0
1.6951622911805156e+18,1.0,0.0,0.0,-2.0,-3.0,0.0,-1.0,-1.0
1.6951622911805156e+18,0.0,0.0,-3.0,-1.0,-2.0,-1.0,1.0,-1.0
1.695162291203502e+18,-1.0,0.0,-1.0,-1.0,2.0,-1.0,0.0,-1.0
1.695162291203502e+18,-1.0,0.0,0.0,2.0,-1.0,-1.0,-1.0,-1.0
1.695162291203502e+18,-1.0,0.0,-3.0,-1.0,0.0,-1.0,-1.0,-1.0
1.695162291203502e+18,-1.0,-2.0,2.0,-1.0,-1.0,-1.0,-2.0,-1.0
1.6951622912094996e+18,1.0,-1.0,0.0,1.0,0.0,0.0,-1.0,-1.0
1.6951622912094996e+18,0.0,0.0,0.0,-2.0,0.0,-1.0,0.0,0.0
1.6951622912254902e+18,0.0,-1.0,-2.0,-1.0,-1.0,0.0,0.0,0.0
1.6951622912254902e+18,-1.0,-1.0,-2.0,-2.0,-3.0,-1.0,1.0,-2.0
1.6951622912264893e+18,-1.0,-2.0,-1.0,-4.0,0.0,-1.0,0.0,-2.0
1.695162291227492e+18,-1.0,-2.0,-1.0,-2.0,-2.0,0.0,-2.0,-1.0
1.695162291239483e+18,-3.0,0.0,0.0,-1.0,-1.0,-1.0,-2.0,0.0
1.695162291239483e+18,-2.0,0.0,-2.0,2.0,0.0,0.0,-1.0,1.0
1.6951622912474793e+18,0.0,1.0,1.0,0.0,-1.0,0.0,2.0,0.0
1.6951622912474793e+18,0.0,-1.0,-1.0,0.0,0.0,-1.0,-1.0,0.0
1.69516229126247e+18,0.0,-2.0,-1.0,-2.0,-3.0,-2.0,0.0,-2.0
1.69516229126247e+18,1.0,-1.0,1.0,-1.0,-2.0,-1.0,0.0,0.0
1.6951622912684887e+18,-1.0,-2.0,-1.0,-1.0,-2.0,-3.0,0.0,-2.0
1.695162291269465e+18,-1.0,-1.0,-3.0,0.0,-1.0,0.0,0.0,0.0
1.6951622912854802e+18,2.0,-2.0,0.0,-1.0,0.0,0.0,0.0,0.0
1.6951622912854802e+18,-2.0,-2.0,-2.0,-1.0,1.0,-1.0,0.0,1.0
1.6951622912915267e+18,0.0,-1.0,0.0,-2.0,-2.0,1.0,-2.0,-3.0
1.6951622912915267e+18,-1.0,0.0,-2.0,-4.0,-7.0,-3.0,-2.0,-2.0
1.695162291299606e+18,0.0,0.0,-2.0,3.0,6.0,0.0,0.0,-2.0
1.695162291299606e+18,-2.0,1.0,1.0,1.0,-1.0,-1.0,-1.0,0.0
1.6951622913065784e+18,0.0,0.0,2.0,-7.0,-10.0,-4.0,-1.0,-1.0
1.6951622913065784e+18,-2.0,-1.0,-8.0,17.0,22.0,8.0,2.0,1.0
1.695162291322645e+18,-1.0,2.0,-1.0,-14.0,-10.0,-4.0,0.0,0.0
1.6951622913236452e+18,2.0,-3.0,-9.0,10.0,23.0,5.0,1.0,-1.0
1.6951622913246449e+18,0.0,3.0,10.0,1.0,0.0,4.0,-1.0,-1.0
1.6951622913256443e+18,1.0,-2.0,0.0,-2.0,-4.0,-1.0,-1.0,-1.0
1.695162291345543e+18,-1.0,-3.0,0.0,3.0,-10.0,-7.0,-2.0,-1.0
1.695162291345543e+18,0.0,-1.0,-9.0,-18.0,-8.0,-7.0,-4.0,-1.0
1.6951622913465462e+18,-1.0,-2.0,-15.0,-2.0,1.0,-2.0,1.0,-2.0
1.6951622913465462e+18,-3.0,2.0,30.0,5.0,9.0,6.0,0.0,-1.0
1.695162291359735e+18,-2.0,-1.0,-1.0,14.0,10.0,0.0,-1.0,-2.0
1.695162291359735e+18,-1.0,-1.0,1.0,-12.0,-14.0,0.0,-1.0,-2.0
1.6951622913677297e+18,1.0,-1.0,-9.0,1.0,-1.0,-4.0,-4.0,0.0
1.6951622913687316e+18,0.0,-1.0,-9.0,-18.0,-11.0,-7.0,-3.0,-1.0
1.695162291383239e+18,0.0,-1.0,0.0,0.0,-7.0,-3.0,1.0,0.0
1.695162291383239e+18,1.0,3.0,10.0,3.0,-5.0,-5.0,1.0,1.0
1.6951622913842404e+18,-1.0,-1.0,-2.0,-3.0,3.0,11.0,3.0,3.0
1.6951622913842404e+18,1.0,-2.0,-13.0,-10.0,1.0,-4.0,0.0,-2.0
1.6951622914132224e+18,0.0,0.0,1.0,-3.0,-1.0,0.0,-4.0,0.0
1.6951622914132224e+18,-1.0,-1.0,-5.0,6.0,2.0,4.0,1.0,1.0
1.6951622914152223e+18,-2.0,-2.0,6.0,8.0,3.0,-3.0,1.0,-2.0
1.6951622914152223e+18,-1.0,-2.0,1.0,-1.0,-6.0,-2.0,-1.0,-3.0
1.6951622914192177e+18,-2.0,-2.0,-5.0,-7.0,-3.0,-6.0,-3.0,-1.0
1.6951622914192177e+18,-2.0,0.0,2.0,-8.0,-9.0,-7.0,-2.0,-3.0
1.695162291435232e+18,1.0,1.0,2.0,5.0,3.0,-1.0,-3.0,-1.0
1.6951622914362084e+18,-2.0,0.0,-3.0,1.0,-7.0,4.0,0.0,0.0
1.6951622914432046e+18,-1.0,-3.0,-2.0,-7.0,0.0,-4.0,-7.0,-2.0
1.6951622914432046e+18,-2.0,-1.0,1.0,3.0,-8.0,-18.0,-26.0,-8.0
1.695162291444227e+18,0.0,1.0,1.0,3.0,12.0,20.0,28.0,6.0
1.695162291444227e+18,-1.0,-1.0,-6.0,-2.0,-4.0,-8.0,-23.0,-8.0
1.6951622914731873e+18,4.0,0.0,1.0,1.0,8.0,18.0,39.0,10.0
1.6951622914731873e+18,-2.0,3.0,2.0,-1.0,0.0,1.0,-1.0,0.0
1.695162291474187e+18,-3.0,-4.0,-3.0,-10.0,-12.0,-13.0,-22.0,-5.0
1.6951622914751862e+18,0.0,-2.0,4.0,7.0,-13.0,-6.0,-5.0,-3.0
1.695162291479183e+18,0.0,1.0,-7.0,-7.0,-8.0,3.0,-12.0,0.0
1.695162291479183e+18,1.0,-1.0,2.0,9.0,28.0,3.0,3.0,-5.0
1.69516229149518e+18,-1.0,1.0,-1.0,8.0,2.0,7.0,-8.0,0.0
1.69516229149518e+18,0.0,2.0,0.0,-2.0,3.0,-5.0,8.0,2.0
1.6951622915031693e+18,-2.0,-3.0,1.0,1.0,-7.0,-5.0,-8.0,-6.0
1.695162291510191e+18,0.0,-1.0,0.0,5.0,-14.0,-11.0,5.0,-1.0
1.695162291510191e+18,-3.0,-6.0,-6.0,-6.0,-4.0,-3.0,12.0,1.0
1.695162291510191e+18,1.0,1.0,1.0,-6.0,-4.0,12.0,0.0,0.0
1.695162291533156e+18,0.0,1.0,3.0,10.0,5.0,-15.0,-6.0,-2.0
1.695162291534155e+18,-1.0,-1.0,-5.0,-2.0,10.0,23.0,7.0,3.0
1.6951622915351519e+18,0.0,0.0,3.0,-8.0,7.0,-2.0,1.0,0.0
1.6951622915351519e+18,2.0,1.0,0.0,3.0,-1.0,-3.0,18.0,3.0
1.6951622915721306e+18,-4.0,-5.0,-11.0,-13.0,-2.0,0.0,-8.0,-4.0
1.6951622915791503e+18,-3.0,-2.0,-2.0,-5.0,-11.0,-6.0,-17.0,-4.0
1.6951622915801272e+18,0.0,0.0,-2.0,5.0,-2.0,-7.0,-2.0,-3.0
1.6951622915801272e+18,-4.0,-2.0,3.0,3.0,-13.0,-2.0,-3.0,-4.0
1.6951622915801272e+18,0.0,-1.0,-1.0,-4.0,3.0,1.0,-15.0,1.0
1.6951622915801272e+18,1.0,0.0,4.0,-1.0,0.0,10.0,3.0,2.0
1.6951622915801272e+18,-1.0,0.0,-14.0,-13.0,-12.0,-3.0,5.0,2.0
1.6951622915811256e+18,1.0,2.0,-1.0,-3.0,11.0,-5.0,-5.0,0.0
1.695162291585122e+18,-1.0,-3.0,4.0,5.0,-7.0,-4.0,-9.0,-5.0
1.6951622915861222e+18,-6.0,-7.0,-6.0,-2.0,-4.0,-7.0,-10.0,-1.0
1.695162291587122e+18,1.0,-2.0,8.0,3.0,5.0,-6.0,3.0,-2.0
1.695162291587122e+18,-1.0,-2.0,-6.0,3.0,-2.0,3.0,-7.0,-4.0
1.695162291614106e+18,2.0,3.0,-7.0,-13.0,1.0,4.0,-2.0,3.0
1.6951622916161062e+18,0.0,-2.0,-5.0,-12.0,-3.0,8.0,9.0,0.0
1.6951622916171123e+18,0.0,1.0,10.0,19.0,10.0,-4.0,-2.0,-1.0
1.6951622916171123e+18,-1.0,-3.0,1.0,4.0,10.0,-5.0,-13.0,-5.0
1.6951622916231007e+18,-1.0,0.0,-1.0,-4.0,-12.0,-11.0,-6.0,1.0
1.6951622916231007e+18,2.0,2.0,0.0,0.0,3.0,13.0,22.0,5.0
1.6951622916241234e+18,1.0,3.0,2.0,0.0,-3.0,4.0,-2.0,-1.0
1.6951622916251003e+18,-3.0,-8.0,-7.0,-11.0,-3.0,4.0,1.0,-1.0
1.695162291646113e+18,1.0,1.0,3.0,5.0,3.0,-3.0,2.0,-3.0
1.6951622916530852e+18,-1.0,-3.0,3.0,4.0,-16.0,-11.0,-1.0,-2.0
1.6951622916540833e+18,-3.0,-2.0,-8.0,-18.0,7.0,5.0,-5.0,0.0
1.6951622916540833e+18,1.0,2.0,5.0,7.0,-2.0,-5.0,5.0,1.0
1.695162291676074e+18,-4.0,-9.0,-4.0,-3.0,12.0,3.0,9.0,-1.0
1.695162291676074e+18,0.0,1.0,0.0,1.0,-6.0,-3.0,-13.0,-5.0
1.69516229167707e+18,1.0,3.0,0.0,-11.0,-12.0,-4.0,-3.0,1.0
1.69516229167707e+18,-1.0,-1.0,3.0,7.0,5.0,11.0,5.0,4.0
1.6951622916980626e+18,-2.0,1.0,13.0,14.0,3.0,1.0,0.0,-3.0
1.6951622916990628e+18,1.0,-2.0,-5.0,-9.0,-2.0,-4.0,15.0,1.0
1.695162291724044e+18,-1.0,-5.0,-17.0,-11.0,-5.0,-9.0,-11.0,0.0
1.6951622917310392e+18,3.0,2.0,-2.0,-20.0,-13.0,-4.0,-11.0,-2.0
1.6951622917310392e+18,0.0,0.0,4.0,11.0,11.0,8.0,12.0,3.0
1.6951622917310392e+18,0.0,1.0,10.0,22.0,11.0,5.0,-6.0,-1.0
1.695162291732039e+18,-3.0,-1.0,6.0,18.0,-5.0,-9.0,-17.0,-10.0
1.695162291732039e+18,-3.0,-3.0,0.0,3.0,-6.0,-10.0,9.0,2.0
1.695162291733039e+18,2.0,2.0,-1.0,3.0,8.0,15.0,11.0,-3.0
1.695162291733039e+18,-1.0,-1.0,-11.0,-16.0,-6.0,-9.0,0.0,-3.0
1.695162291733039e+18,1.0,1.0,12.0,11.0,3.0,-3.0,-3.0,3.0
1.695162291733039e+18,-1.0,0.0,-3.0,4.0,-4.0,1.0,6.0,2.0
1.6951622917500298e+18,-1.0,-1.0,-2.0,-16.0,-14.0,-3.0,-6.0,-3.0
1.6951622917500298e+18,-2.0,-4.0,-4.0,3.0,28.0,12.0,-8.0,-1.0
1.695162291752037e+18,2.0,-2.0,-2.0,2.0,-2.0,7.0,20.0,-1.0
1.695162291752037e+18,1.0,4.0,11.0,3.0,5.0,0.0,-1.0,3.0
1.6951622917880302e+18,1.0,0.0,-8.0,-6.0,-12.0,-2.0,12.0,3.0
1.6951622917880302e+18,0.0,0.0,3.0,-4.0,-12.0,-9.0,-6.0,-5.0
1.6951622917900052e+18,-5.0,0.0,-2.0,-6.0,-6.0,9.0,10.0,7.0
1.6951622917900052e+18,-1.0,-3.0,-7.0,6.0,3.0,-5.0,-10.0,-3.0
1.695162291811993e+18,-3.0,1.0,-11.0,-17.0,-7.0,-5.0,-19.0,-9.0
1.695162291811993e+18,-1.0,3.0,12.0,15.0,0.0,-13.0,-5.0,2.0
1.6951622918130158e+18,-2.0,-3.0,0.0,-3.0,6.0,8.0,12.0,3.0
1.6951622918130158e+18,0.0,0.0,-7.0,-15.0,-2.0,8.0,8.0,1.0
1.695162291813992e+18,0.0,3.0,5.0,8.0,-4.0,-4.0,8.0,-3.0
1.695162291813992e+18,-1.0,8.0,-5.0,1.0,9.0,-2.0,-12.0,-4.0
1.69516229183998e+18,0.0,-6.0,4.0,-8.0,-6.0,1.0,-6.0,1.0
1.69516229183998e+18,-1.0,-1.0,3.0,5.0,-2.0,-8.0,-9.0,-8.0
1.6951622918409772e+18,1.0,-2.0,-5.0,-3.0,6.0,12.0,9.0,7.0
1.6951622918409772e+18,-3.0,2.0,0.0,-4.0,-8.0,-5.0,0.0,1.0
1.6951622918409772e+18,1.0,22.0,-15.0,-4.0,1.0,-8.0,-8.0,-2.0
1.6951622918409772e+18,-5.0,-9.0,2.0,1.0,1.0,-2.0,-6.0,-12.0
1.695162291847972e+18,-2.0,-7.0,2.0,-3.0,0.0,-4.0,-9.0,-2.0
1.695162291847972e+18,0.0,-3.0,-3.0,-11.0,-13.0,-10.0,-17.0,4.0
1.6951622918489723e+18,2.0,7.0,-4.0,-10.0,0.0,-6.0,-1.0,-2.0
1.6951622918499715e+18,-3.0,-18.0,2.0,2.0,7.0,11.0,21.0,2.0
1.6951622918619658e+18,4.0,3.0,1.0,-1.0,-7.0,-11.0,-6.0,12.0
1.6951622918619658e+18,1.0,-5.0,1.0,-8.0,-4.0,7.0,27.0,-12.0
1.695162291901941e+18,-4.0,-55.0,26.0,15.0,3.0,11.0,0.0,4.0
1.695162291901941e+18,-1.0,7.0,-2.0,2.0,1.0,-14.0,-16.0,0.0
1.695162291901941e+18,-4.0,12.0,-7.0,-9.0,-5.0,-10.0,1.0,-6.0
1.695162291901941e+18,-8.0,-35.0,6.0,4.0,9.0,5.0,-7.0,-4.0
1.6951622919039396e+18,2.0,20.0,4.0,7.0,-3.0,0.0,17.0,0.0
1.6951622919039396e+18,2.0,-4.0,-8.0,-12.0,-1.0,-3.0,-17.0,-7.0
1.6951622919239516e+18,-1.0,-8.0,5.0,14.0,6.0,9.0,5.0,5.0
1.6951622919249285e+18,1.0,17.0,-10.0,-11.0,-8.0,-22.0,-19.0,-11.0
1.6951622919259305e+18,1.0,1.0,0.0,10.0,4.0,14.0,35.0,5.0
1.6951622919259305e+18,0.0,5.0,-1.0,-3.0,2.0,-1.0,-13.0,4.0
1.69516229192693e+18,1.0,9.0,-3.0,0.0,-4.0,2.0,-6.0,-1.0
1.69516229192693e+18,2.0,15.0,-8.0,-9.0,-5.0,-3.0,9.0,-4.0
1.695162292029154e+18,-3.0,-11.0,1.0,5.0,-4.0,-13.0,-21.0,-11.0
1.6951622920301494e+18,-3.0,-19.0,-9.0,-14.0,1.0,3.0,13.0,4.0
1.6951622920301494e+18,7.0,23.0,-5.0,-3.0,1.0,-6.0,-1.0,-7.0
1.6951622920311488e+18,-1.0,0.0,10.0,14.0,2.0,5.0,10.0,7.0
1.6951622920321477e+18,-2.0,2.0,-17.0,-20.0,0.0,1.0,-25.0,-14.0
1.6951622920321477e+18,1.0,9.0,5.0,8.0,-1.0,-3.0,0.0,1.0
1.6951622920361513e+18,-4.0,2.0,-6.0,-4.0,-5.0,-8.0,-17.0,-6.0
1.6951622920361513e+18,4.0,-3.0,-3.0,-5.0,-5.0,4.0,-11.0,-4.0
1.695162292090143e+18,2.0,3.0,-1.0,-3.0,-3.0,-1.0,12.0,3.0
1.695162292090143e+18,1.0,8.0,-12.0,2.0,6.0,2.0,5.0,-5.0
1.695162292092114e+18,-4.0,-23.0,0.0,-4.0,-2.0,0.0,9.0,5.0
1.695162292092114e+18,-3.0,-12.0,10.0,5.0,4.0,10.0,29.0,10.0
1.695162292092114e+18,0.0,4.0,-4.0,-2.0,-2.0,-6.0,-11.0,1.0
1.6951622920931139e+18,2.0,12.0,-2.0,-6.0,-4.0,1.0,19.0,-1.0
1.6951622921420854e+18,0.0,4.0,-1.0,4.0,-3.0,-9.0,-24.0,0.0
1.695162292143085e+18,-8.0,-15.0,4.0,0.0,4.0,2.0,5.0,4.0
1.6951622921440842e+18,-3.0,24.0,-28.0,-17.0,-16.0,-10.0,-28.0,-9.0
1.6951622921440842e+18,-3.0,-29.0,10.0,6.0,6.0,-2.0,2.0,2.0
1.6951622921450895e+18,-2.0,-7.0,2.0,2.0,-4.0,-17.0,-12.0,-10.0
1.6951622921450895e+18,2.0,3.0,6.0,7.0,0.0,1.0,9.0,5.0
1.6951622921940562e+18,2.0,22.0,-4.0,-6.0,-5.0,6.0,-5.0,-5.0
1.6951622921950656e+18,-1.0,-11.0,10.0,13.0,11.0,7.0,8.0,10.0
1.695162292202052e+18,2.0,11.0,20.0,15.0,2.0,-2.0,12.0,-9.0
1.695162292203055e+18,0.0,-10.0,-30.0,-31.0,0.0,1.0,-16.0,-6.0
1.695162292203055e+18,2.0,-11.0,-11.0,-17.0,1.0,3.0,0.0,9.0
1.69516229220405e+18,-1.0,-1.0,1.0,2.0,-2.0,-3.0,13.0,-6.0
1.69516229220405e+18,-1.0,-9.0,-6.0,-8.0,0.0,2.0,11.0,-4.0
1.6951622922050545e+18,-3.0,16.0,1.0,5.0,0.0,3.0,3.0,3.0
1.6951622922550208e+18,-1.0,-7.0,7.0,5.0,1.0,14.0,-1.0,9.0
1.6951622922550208e+18,1.0,7.0,-8.0,-9.0,2.0,-5.0,-1.0,-2.0
1.69516229225602e+18,-5.0,-10.0,14.0,22.0,5.0,3.0,-2.0,-1.0
1.69516229225602e+18,1.0,2.0,-13.0,-15.0,-4.0,-1.0,4.0,0.0
1.6951622922919982e+18,-4.0,0.0,-7.0,-11.0,-8.0,-19.0,-33.0,-10.0
1.6951622922919982e+18,2.0,-4.0,17.0,22.0,9.0,21.0,27.0,13.0
1.695162292292998e+18,2.0,15.0,-6.0,-9.0,6.0,-3.0,1.0,-7.0
1.695162292292998e+18,0.0,-20.0,1.0,11.0,4.0,11.0,33.0,19.0
1.6951622922979948e+18,0.0,10.0,-11.0,-12.0,-1.0,-7.0,5.0,2.0
1.695162292299995e+18,3.0,-7.0,6.0,7.0,7.0,23.0,27.0,8.0
1.695162292304008e+18,-1.0,-18.0,-3.0,-10.0,-2.0,-5.0,-11.0,-2.0
1.695162292304008e+18,4.0,8.0,4.0,8.0,-1.0,-10.0,-9.0,-1.0
1.6951622923070129e+18,-3.0,0.0,1.0,3.0,6.0,6.0,8.0,6.0
1.6951622923070129e+18,-6.0,-17.0,1.0,-5.0,-4.0,-11.0,2.0,-6.0
1.6951622923489892e+18,2.0,11.0,-3.0,-1.0,-2.0,-4.0,-9.0,-1.0
1.6951622923499666e+18,-2.0,-18.0,5.0,0.0,-6.0,-5.0,-7.0,-2.0
1.6951622923666688e+18,-1.0,2.0,-10.0,-7.0,4.0,4.0,5.0,0.0
1.6951622923666688e+18,3.0,2.0,3.0,4.0,0.0,-1.0,-2.0,0.0
1.6951622923683707e+18,-1.0,-10.0,-2.0,-5.0,4.0,9.0,6.0,2.0
1.6951622923683707e+18,0.0,5.0,-3.0,-4.0,-6.0,-2.0,-5.0,1.0
1.6951622923693747e+18,1.0,13.0,-4.0,12.0,-2.0,-2.0,-2.0,-1.0
1.6951622923693747e+18,-4.0,-11.0,-1.0,-20.0,-4.0,-2.0,0.0,-2.0
1.6951622924201864e+18,-4.0,0.0,-8.0,3.0,-1.0,3.0,2.0,1.0
1.6951622924201864e+18,0.0,13.0,-7.0,-8.0,-3.0,-10.0,-10.0,-7.0
1.6951622924211679e+18,-1.0,-4.0,6.0,5.0,0.0,1.0,3.0,1.0
1.6951622924211679e+18,-1.0,-13.0,3.0,1.0,1.0,1.0,1.0,1.0
1.6951622924575406e+18,-2.0,2.0,-4.0,0.0,-4.0,-2.0,-5.0,-2.0
1.6951622924575406e+18,-1.0,-1.0,-1.0,1.0,-1.0,-2.0,-2.0,-1.0
1.6951622924585405e+18,-2.0,-7.0,0.0,-1.0,0.0,2.0,0.0,1.0
1.6951622924585405e+18,0.0,8.0,-4.0,-2.0,-3.0,-4.0,-2.0,-3.0
1.695162292460539e+18,-2.0,-5.0,2.0,-3.0,2.0,2.0,2.0,-2.0
1.695162292460539e+18,-2.0,-4.0,-8.0,-5.0,-2.0,-2.0,0.0,-2.0
1.695162292464537e+18,-1.0,-5.0,2.0,6.0,-1.0,-1.0,1.0,-1.0
1.695162292465537e+18,-1.0,-4.0,2.0,-2.0,-1.0,1.0,-1.0,-1.0
1.6951622924665367e+18,0.0,2.0,-5.0,-5.0,-5.0,0.0,-1.0,-1.0
1.6951622924675354e+18,-1.0,-3.0,0.0,2.0,3.0,1.0,0.0,0.0
1.6951622924685353e+18,0.0,-1.0,-5.0,-4.0,-1.0,-1.0,0.0,-1.0
1.6951622924695345e+18,-1.0,-1.0,2.0,4.0,-1.0,-2.0,-3.0,-3.0
1.6951622924795343e+18,-2.0,-5.0,0.0,1.0,-4.0,-2.0,0.0,-2.0
1.6951622924795343e+18,2.0,-1.0,-4.0,-1.0,4.0,2.0,3.0,3.0
1.6951622925255025e+18,-2.0,-3.0,3.0,-1.0,-3.0,-3.0,-1.0,-1.0
1.6951622925255025e+18,-1.0,-3.0,1.0,1.0,2.0,3.0,2.0,0.0
1.6951622925404974e+18,-1.0,1.0,-1.0,0.0,0.0,-1.0,-2.0,-1.0
1.6951622925414963e+18,0.0,-1.0,-1.0,-4.0,-3.0,-2.0,-1.0,-3.0
1.6951622925424922e+18,-5.0,-3.0,-2.0,2.0,1.0,3.0,3.0,-1.0
1.6951622925424922e+18,2.0,2.0,-4.0,-3.0,0.0,-1.0,0.0,0.0
1.695162292584466e+18,-4.0,-1.0,-2.0,-1.0,0.0,1.0,0.0,0.0
1.695162292584466e+18,0.0,-2.0,-1.0,0.0,-1.0,-1.0,-1.0,-2.0
1.695162292584466e+18,0.0,0.0,-4.0,-3.0,-3.0,-3.0,-2.0,0.0
1.695162292584466e+18,-4.0,-2.0,-2.0,0.0,-1.0,-1.0,0.0,-2.0
1.695162292586465e+18,-1.0,-2.0,-1.0,3.0,2.0,1.0,3.0,-2.0
1.695162292586465e+18,0.0,-2.0,2.0,1.0,2.0,1.0,0.0,1.0
1.6951622925894636e+18,0.0,0.0,-1.0,-2.0,-2.0,-3.0,0.0,-1.0
1.6951622925894636e+18,0.0,-1.0,0.0,1.0,3.0,0.0,-1.0,-1.0
1.6951622926084529e+18,1.0,1.0,-2.0,-2.0,-1.0,0.0,-1.0,-2.0
1.6951622926084529e+18,-1.0,-3.0,-1.0,-2.0,-2.0,-3.0,-3.0,0.0
1.6951622926094546e+18,-1.0,-2.0,-1.0,-2.0,2.0,0.0,0.0,-1.0
1.6951622926094546e+18,-2.0,1.0,-2.0,0.0,-2.0,2.0,-2.0,0.0
1.69516229261245e+18,0.0,-2.0,-1.0,0.0,-3.0,-1.0,-1.0,-2.0
1.69516229261245e+18,0.0,1.0,0.0,1.0,1.0,0.0,-2.0,2.0
1.6951622926434345e+18,0.0,-1.0,-2.0,0.0,2.0,-2.0,0.0,0.0
1.6951622926434345e+18,-2.0,-1.0,1.0,-3.0,0.0,-1.0,-2.0,-2.0
1.6951622926444342e+18,-1.0,-3.0,-1.0,0.0,0.0,0.0,1.0,2.0
1.6951622926454318e+18,-1.0,-3.0,0.0,-2.0,-6.0,-6.0,-4.0,-3.0
1.6951622926454318e+18,0.0,0.0,0.0,-4.0,1.0,4.0,6.0,3.0
1.6951622926464346e+18,0.0,-2.0,-2.0,0.0,2.0,8.0,3.0,-1.0
1.6951622926564268e+18,0.0,0.0,1.0,0.0,3.0,-2.0,-1.0,-1.0
1.6951622926564268e+18,0.0,0.0,-1.0,-1.0,0.0,6.0,1.0,-1.0
1.6951622926804319e+18,-1.0,-2.0,-2.0,1.0,-5.0,-8.0,-4.0,-1.0
1.6951622926804319e+18,-2.0,-1.0,0.0,-2.0,-5.0,-10.0,-2.0,-1.0
1.6951622926814336e+18,-1.0,0.0,0.0,-1.0,-1.0,3.0,0.0,0.0
1.6951622926824315e+18,-1.0,-1.0,-2.0,2.0,5.0,4.0,1.0,-1.0
1.695162292695427e+18,0.0,-1.0,1.0,-2.0,-1.0,-5.0,-3.0,0.0
1.695162292695427e+18,1.0,-2.0,-2.0,-3.0,-1.0,1.0,-3.0,0.0
1.6951622926964257e+18,-2.0,0.0,-1.0,-1.0,-2.0,-7.0,-3.0,-3.0
1.6951622926974364e+18,-1.0,0.0,0.0,2.0,3.0,3.0,3.0,1.0
1.6951622927194327e+18,-2.0,-2.0,0.0,0.0,0.0,2.0,0.0,0.0
1.6951622927204124e+18,0.0,-1.0,0.0,1.0,-2.0,-3.0,-2.0,0.0
1.6951622927334254e+18,-1.0,-2.0,-1.0,-1.0,-3.0,-3.0,-2.0,-2.0
1.6951622927334254e+18,-2.0,0.0,0.0,1.0,0.0,-1.0,0.0,-1.0
1.695162292734401e+18,0.0,0.0,-1.0,1.0,1.0,6.0,1.0,-2.0
1.695162292734401e+18,-1.0,-1.0,0.0,-2.0,3.0,1.0,0.0,0.0
1.6951622927354025e+18,0.0,2.0,-1.0,-1.0,-2.0,-1.0,-2.0,-1.0
1.6951622927364045e+18,0.0,-1.0,0.0,-3.0,-3.0,-4.0,-2.0,-1.0
1.695162292755484e+18,0.0,-1.0,0.0,0.0,-5.0,-7.0,-3.0,-1.0
1.6951622927564652e+18,0.0,0.0,1.0,-2.0,-3.0,-2.0,1.0,-1.0
1.6951622927564652e+18,0.0,-2.0,0.0,-1.0,0.0,1.0,0.0,0.0
1.6951622927574664e+18,-2.0,-1.0,-1.0,-2.0,-1.0,2.0,0.0,-1.0
1.695162292761474e+18,0.0,-1.0,0.0,-3.0,-2.0,-1.0,-1.0,0.0
1.695162292761474e+18,0.0,-2.0,-2.0,-1.0,-1.0,0.0,0.0,-1.0
1.6951622927774643e+18,-2.0,-1.0,0.0,-1.0,-1.0,-1.0,1.0,0.0
1.695162292778452e+18,-1.0,-2.0,0.0,-2.0,-3.0,-9.0,-4.0,0.0
1.695162292785448e+18,1.0,0.0,-1.0,2.0,3.0,1.0,2.0,-2.0
1.695162292785448e+18,-1.0,0.0,1.0,3.0,2.0,17.0,5.0,1.0
1.6951622927874473e+18,-2.0,-1.0,2.0,0.0,0.0,-5.0,-2.0,0.0
1.6951622927874473e+18,0.0,-1.0,1.0,-2.0,-4.0,-1.0,-4.0,-2.0
1.695162292813435e+18,-2.0,-1.0,0.0,1.0,0.0,-5.0,-1.0,0.0
1.6951622928164337e+18,-1.0,0.0,-1.0,-1.0,-4.0,-9.0,-1.0,-1.0
1.6951622928164337e+18,-1.0,-1.0,-1.0,-1.0,2.0,7.0,0.0,0.0
1.6951622928174305e+18,0.0,-1.0,-1.0,0.0,0.0,1.0,-1.0,-3.0
1.6951622928214267e+18,-2.0,-1.0,-2.0,-3.0,0.0,-3.0,-2.0,-2.0
1.6951622928214267e+18,-1.0,-1.0,-3.0,-1.0,-5.0,-9.0,-4.0,-1.0
1.6951622928314217e+18,-2.0,0.0,0.0,1.0,-2.0,5.0,0.0,0.0
1.6951622928314217e+18,1.0,-1.0,-1.0,3.0,9.0,4.0,2.0,0.0
1.6951622928446003e+18,-1.0,1.0,0.0,-1.0,2.0,5.0,0.0,-1.0
1.6951622928446003e+18,-1.0,-2.0,-2.0,-3.0,-1.0,-2.0,-3.0,-3.0
1.6951622928515482e+18,0.0,-4.0,-1.0,-1.0,-5.0,-8.0,-4.0,-1.0
1.6951622928515482e+18,0.0,-1.0,0.0,-1.0,-3.0,-1.0,0.0,-1.0
1.695162292868581e+18,0.0,-2.0,-3.0,0.0,-2.0,-1.0,0.0,0.0
1.695162292868581e+18,-1.0,-1.0,0.0,-1.0,0.0,-9.0,-1.0,0.0
1.695162292869573e+18,1.0,1.0,-1.0,0.0,2.0,8.0,1.0,-1.0
1.695162292869573e+18,-1.0,-1.0,-2.0,-1.0,0.0,1.0,0.0,0.0
1.6951622928815447e+18,-2.0,0.0,0.0,0.0,-2.0,-1.0,-2.0,-1.0
1.6951622928815447e+18,0.0,-1.0,-1.0,-1.0,0.0,0.0,-1.0,-2.0
1.6951622928995118e+18,-2.0,0.0,0.0,1.0,2.0,-2.0,1.0,-1.0
1.6951622929005107e+18,0.0,0.0,1.0,0.0,-1.0,1.0,0.0,-1.0
1.6951622929135035e+18,-1.0,-1.0,-1.0,-2.0,-1.0,-1.0,-2.0,-2.0
1.6951622929145027e+18,-2.0,-2.0,-1.0,1.0,0.0,2.0,-1.0,-3.0
1.6951622929145027e+18,0.0,0.0,-1.0,-2.0,0.0,-2.0,0.0,-2.0
1.6951622929155023e+18,-1.0,-2.0,0.0,-2.0,-1.0,-1.0,-1.0,0.0
1.695162292935496e+18,0.0,0.0,1.0,1.0,-1.0,-1.0,0.0,-1.0
1.695162292942492e+18,-1.0,-1.0,0.0,0.0,-1.0,0.0,1.0,0.0
1.6951622929444902e+18,0.0,-3.0,-2.0,-1.0,-2.0,-3.0,-1.0,0.0
1.6951622929444902e+18,0.0,1.0,-1.0,-3.0,-3.0,-3.0,-1.0,-2.0
1.6951622929444902e+18,-1.0,0.0,-2.0,-2.0,1.0,2.0,0.0,0.0
1.6951622929444902e+18,1.0,1.0,-1.0,0.0,1.0,2.0,-1.0,1.0
1.6951622929504858e+18,0.0,-1.0,1.0,-2.0,0.0,-3.0,0.0,0.0
1.6951622929514819e+18,-1.0,-1.0,1.0,1.0,-5.0,-2.0,-1.0,0.0
1.6951622929644726e+18,-2.0,-3.0,-1.0,0.0,0.0,0.0,0.0,-2.0
1.6951622929654774e+18,1.0,0.0,1.0,-1.0,-1.0,-1.0,-1.0,-2.0
1.6951622929714742e+18,-2.0,-1.0,-1.0,-1.0,0.0,-2.0,-1.0,0.0
1.6951622929714742e+18,-1.0,1.0,-1.0,0.0,0.0,-1.0,-1.0,1.0
1.6951622929954555e+18,-2.0,0.0,0.0,-1.0,-1.0,-2.0,-2.0,-1.0
1.6951622929954555e+18,-1.0,-1.0,0.0,-1.0,-2.0,0.0,0.0,0.0
1.6951622929974548e+18,0.0,-1.0,-1.0,-1.0,-1.0,-2.0,-1.0,0.0
1.6951622929974548e+18,-2.0,-1.0,-3.0,0.0,0.0,0.0,-2.0,0.0
1.6951622930104476e+18,-3.0,-1.0,0.0,1.0,-1.0,0.0,-1.0,0.0
1.695162293011448e+18,-1.0,-2.0,1.0,-1.0,1.0,-1.0,-2.0,-1.0
1.695162293012447e+18,-1.0,0.0,-2.0,-1.0,-2.0,-2.0,-2.0,-1.0
1.695162293012447e+18,0.0,-1.0,-2.0,-2.0,-3.0,-1.0,-1.0,1.0
1.6951622930244396e+18,0.0,-1.0,-2.0,-1.0,-2.0,-1.0,-1.0,0.0
1.6951622930304625e+18,0.0,-1.0,0.0,0.0,-1.0,-1.0,-1.0,0.0
1.6951622930334387e+18,-1.0,-1.0,0.0,-1.0,-1.0,-1.0,1.0,0.0
1.6951622930344353e+18,-1.0,-1.0,1.0,-2.0,-1.0,-1.0,-2.0,-1.0
1.6951622930484255e+18,-3.0,0.0,-1.0,-1.0,0.0,0.0,-1.0,-2.0
1.6951622930484255e+18,-1.0,-1.0,-2.0,-3.0,-1.0,0.0,-2.0,0.0
1.6951622930494303e+18,0.0,-1.0,-1.0,0.0,0.0,0.0,0.0,-1.0
1.6951622930494303e+18,0.0,-2.0,-1.0,-1.0,-1.0,-1.0,0.0,0.0
1.6951622930704128e+18,-1.0,0.0,1.0,-2.0,0.0,-2.0,0.0,-1.0
1.6951622930714166e+18,-3.0,-1.0,-1.0,-1.0,0.0,-2.0,0.0,-1.0
1.6951622930724175e+18,0.0,-1.0,-2.0,0.0,-2.0,0.0,-2.0,-1.0
1.6951622930724175e+18,-2.0,0.0,-1.0,-3.0,1.0,0.0,1.0,0.0
1.695162293085409e+18,1.0,-2.0,-2.0,0.0,-3.0,1.0,-2.0,-1.0
1.695162293085409e+18,0.0,0.0,-1.0,-1.0,0.0,0.0,-1.0,0.0
1.6951622931083917e+18,1.0,-2.0,0.0,-1.0,-1.0,-2.0,0.0,-2.0
1.6951622931123889e+18,-1.0,-1.0,0.0,0.0,-2.0,0.0,-1.0,0.0
1.6951622931123889e+18,-1.0,1.0,0.0,-2.0,-2.0,-1.0,0.0,0.0
1.6951622931134144e+18,-2.0,-2.0,-1.0,-1.0,-1.0,0.0,-1.0,0.0
1.695162293116389e+18,0.0,0.0,0.0,-3.0,-2.0,-1.0,1.0,1.0
1.695162293116389e+18,-3.0,-1.0,0.0,0.0,1.0,0.0,1.0,-1.0
1.6951622931303788e+18,-1.0,1.0,1.0,0.0,0.0,-2.0,-1.0,0.0
1.695162293131378e+18,1.0,-2.0,-1.0,0.0,0.0,-1.0,0.0,-1.0
1.6951622931323784e+18,-2.0,-1.0,0.0,0.0,0.0,0.0,-2.0,-2.0
1.6951622931323784e+18,0.0,-1.0,-1.0,-1.0,-1.0,-1.0,-2.0,-2.0
1.6951622931453704e+18,0.0,-2.0,1.0,-1.0,1.0,-2.0,-2.0,-1.0
1.6951622931453704e+18,0.0,0.0,-1.0,-2.0,-3.0,1.0,1.0,-1.0
1.6951622931593618e+18,0.0,-2.0,-1.0,0.0,-2.0,0.0,-2.0,-1.0
1.6951622931603666e+18,0.0,-2.0,-1.0,0.0,-1.0,-1.0,-1.0,-2.0
1.6951622931687316e+18,-1.0,-3.0,-1.0,0.0,-1.0,-2.0,-1.0,0.0
1.6951622931687316e+18,-1.0,-2.0,-2.0,-1.0,-1.0,-1.0,-1.0,-1.0
1.6951622931747297e+18,-2.0,0.0,0.0,-2.0,0.0,-1.0,-1.0,-1.0
1.6951622931747297e+18,0.0,0.0,-1.0,1.0,-2.0,0.0,0.0,-1.0
1.6951622931915407e+18,-1.0,-2.0,-2.0,-1.0,-1.0,2.0,-1.0,-1.0
1.6951622931915407e+18,-3.0,-1.0,1.0,0.0,1.0,-1.0,-1.0,-2.0
1.6951622931925468e+18,-2.0,-1.0,-1.0,-1.0,-1.0,0.0,0.0,-1.0
1.6951622931925468e+18,-1.0,0.0,0.0,-2.0,0.0,-1.0,-1.0,0.0
1.6951622932095373e+18,-1.0,1.0,0.0,-1.0,0.0,-1.0,0.0,0.0
1.6951622932145334e+18,0.0,1.0,-1.0,0.0,0.0,-1.0,-1.0,0.0
1.6951622932155333e+18,-1.0,-1.0,-1.0,0.0,-1.0,0.0,0.0,-1.0
1.6951622932155333e+18,-1.0,1.0,-4.0,-3.0,0.0,-1.0,-2.0,-2.0
1.6951622932355226e+18,-2.0,1.0,-3.0,-4.0,-2.0,-1.0,-3.0,-2.0
1.6951622932355226e+18,-1.0,-3.0,-3.0,-2.0,0.0,-1.0,-1.0,0.0
1.6951622932375206e+18,-1.0,-1.0,-1.0,-2.0,-1.0,-3.0,-2.0,2.0
1.6951622932375206e+18,-3.0,-4.0,0.0,2.0,2.0,1.0,0.0,-3.0
1.6951622932515133e+18,0.0,1.0,0.0,0.0,-3.0,-1.0,0.0,0.0
1.6951622932515133e+18,-4.0,7.0,-11.0,-4.0,-3.0,-2.0,-2.0,-1.0
1.6951622932525125e+18,-1.0,-2.0,0.0,1.0,-1.0,0.0,0.0,-2.0
1.6951622932535124e+18,-1.0,-2.0,1.0,1.0,0.0,0.0,-1.0,0.0
1.6951622932727555e+18,2.0,-7.0,7.0,1.0,1.0,3.0,2.0,3.0
1.6951622932737403e+18,3.0,16.0,-13.0,-10.0,-8.0,-5.0,-2.0,-3.0
1.6951622932747366e+18,-5.0,-32.0,18.0,11.0,10.0,5.0,4.0,0.0
1.6951622932747366e+18,2.0,17.0,-19.0,-12.0,-6.0,-4.0,-3.0,0.0
1.695162293287783e+18,-6.0,-13.0,7.0,5.0,3.0,2.0,1.0,-3.0
1.6951622932887882e+18,4.0,11.0,-6.0,-4.0,-2.0,-2.0,-4.0,-3.0
1.695162293289791e+18,-5.0,26.0,-31.0,-11.0,-10.0,-7.0,-6.0,-4.0
1.695162293289791e+18,-3.0,6.0,-1.0,0.0,0.0,0.0,-2.0,-1.0
1.6951622933103076e+18,6.0,23.0,-25.0,-13.0,-9.0,-7.0,-3.0,-2.0
1.6951622933103076e+18,-8.0,-12.0,2.0,9.0,8.0,5.0,0.0,-2.0
1.695162293312311e+18,12.0,11.0,4.0,-8.0,-7.0,-5.0,0.0,1.0
1.695162293312311e+18,-8.0,-22.0,23.0,14.0,10.0,5.0,3.0,-2.0
1.6951622933239327e+18,7.0,15.0,-9.0,-10.0,-8.0,-6.0,-3.0,-2.0
1.695162293324937e+18,0.0,1.0,1.0,0.0,-1.0,-1.0,1.0,2.0
1.6951622933329736e+18,-8.0,-5.0,-6.0,4.0,4.0,1.0,-1.0,-3.0
1.6951622933339745e+18,8.0,0.0,7.0,-3.0,-5.0,-4.0,0.0,4.0
1.6951622933485453e+18,-5.0,-12.0,13.0,8.0,6.0,3.0,0.0,-3.0
1.6951622933485453e+18,-2.0,7.0,-13.0,-6.0,-4.0,-3.0,-1.0,-2.0
1.695162293349549e+18,1.0,-5.0,5.0,2.0,0.0,0.0,-1.0,1.0
1.6951622933505436e+18,-1.0,-4.0,-2.0,-2.0,-3.0,-1.0,-1.0,0.0
1.6951622933705354e+18,-6.0,-7.0,-2.0,3.0,2.0,2.0,0.0,0.0
1.6951622933705354e+18,0.0,-5.0,7.0,1.0,0.0,-1.0,-2.0,0.0
1.6951622933705354e+18,0.0,6.0,-4.0,-2.0,-3.0,-1.0,-1.0,0.0
1.6951622933715325e+18,-1.0,1.0,-3.0,1.0,-1.0,-3.0,0.0,-2.0
1.6951622934055496e+18,3.0,14.0,-8.0,-5.0,-4.0,-3.0,-2.0,-1.0
1.6951622934055496e+18,1.0,-8.0,5.0,2.0,1.0,0.0,1.0,0.0
1.6951622934155415e+18,-1.0,-2.0,5.0,2.0,0.0,1.0,1.0,-2.0
1.6951622934165417e+18,-2.0,-2.0,-2.0,0.0,-3.0,-1.0,0.0,-1.0
1.6951622934165417e+18,-1.0,-5.0,0.0,2.0,0.0,-2.0,-1.0,1.0
1.695162293417541e+18,1.0,-6.0,4.0,-1.0,1.0,0.0,0.0,2.0
1.695162293417541e+18,-1.0,-3.0,1.0,0.0,1.0,0.0,-1.0,-1.0
1.695162293417541e+18,1.0,4.0,-8.0,-4.0,-3.0,-4.0,0.0,-1.0
1.6951622934295365e+18,-3.0,-4.0,-1.0,-3.0,0.0,-2.0,1.0,-2.0
1.695162293430533e+18,-3.0,-7.0,5.0,2.0,1.0,0.0,-1.0,-1.0
1.695162293430533e+18,0.0,-2.0,0.0,-3.0,-1.0,-2.0,-2.0,0.0
1.695162293431534e+18,-1.0,-2.0,0.0,-1.0,-1.0,0.0,0.0,-2.0
1.6951622934525202e+18,1.0,-4.0,2.0,1.0,-2.0,1.0,-1.0,1.0
1.6951622934525202e+18,0.0,-6.0,4.0,2.0,1.0,0.0,0.0,0.0
1.6951622934525202e+18,1.0,1.0,-2.0,-2.0,-1.0,-3.0,-2.0,1.0
1.6951622934525202e+18,-1.0,-11.0,5.0,3.0,0.0,0.0,-1.0,0.0
1.6951622934715105e+18,-2.0,-8.0,6.0,4.0,2.0,1.0,2.0,0.0
1.6951622934715105e+18,-1.0,1.0,-2.0,-1.0,-1.0,-1.0,0.0,1.0
1.6951622934715105e+18,4.0,3.0,-5.0,-3.0,-4.0,-4.0,-1.0,-1.0
1.6951622934715105e+18,-3.0,-3.0,-1.0,1.0,0.0,0.0,-2.0,-1.0
1.6951622934895227e+18,-1.0,0.0,-1.0,-1.0,-1.0,1.0,-1.0,-1.0
1.6951622934895227e+18,1.0,-13.0,8.0,2.0,0.0,0.0,1.0,0.0
1.6951622934904975e+18,-3.0,-5.0,4.0,2.0,3.0,0.0,0.0,-1.0
1.6951622934904975e+18,1.0,1.0,-3.0,-1.0,-2.0,-2.0,-2.0,-1.0
1.6951622935134907e+18,-2.0,3.0,-4.0,-1.0,-1.0,-3.0,-3.0,-1.0
1.6951622935134907e+18,-1.0,3.0,-5.0,-2.0,-1.0,-3.0,-2.0,-2.0
1.695162293514484e+18,-2.0,-1.0,-1.0,1.0,1.0,0.0,-1.0,0.0
1.695162293514484e+18,-1.0,2.0,-3.0,-2.0,-2.0,-2.0,0.0,-1.0
1.695162293528476e+18,0.0,-1.0,0.0,-1.0,-1.0,-1.0,0.0,-2.0
1.6951622935294758e+18,0.0,0.0,1.0,-1.0,-1.0,0.0,0.0,-1.0
1.6951622935294758e+18,-1.0,-2.0,0.0,-2.0,-1.0,0.0,1.0,-1.0
1.6951622935294758e+18,-1.0,1.0,-2.0,-2.0,0.0,0.0,-1.0,0.0
1.6951622935504637e+18,0.0,-3.0,1.0,-1.0,-1.0,0.0,-2.0,0.0
1.6951622935544643e+18,-3.0,-1.0,-1.0,2.0,-1.0,-1.0,0.0,0.0
1.6951622935544643e+18,1.0,-1.0,0.0,0.0,0.0,2.0,-1.0,-1.0
1.6951622935544643e+18,-2.0,3.0,0.0,-2.0,-1.0,-2.0,-1.0,-2.0
1.6951622935814464e+18,0.0,-2.0,-1.0,-1.0,0.0,-2.0,-1.0,-2.0
1.6951622935814464e+18,-1.0,0.0,-1.0,-2.0,0.0,-2.0,-1.0,-2.0
1.6951622935824458e+18,-1.0,0.0,-1.0,-1.0,-1.0,1.0,-1.0,-1.0
1.6951622935824458e+18,0.0,-6.0,4.0,1.0,-1.0,-1.0,0.0,0.0
1.6951622935924398e+18,-2.0,-2.0,0.0,-2.0,0.0,0.0,-1.0,-1.0
1.695162293593442e+18,-1.0,0.0,-2.0,-1.0,-1.0,1.0,-1.0,-3.0
1.695162293593442e+18,-2.0,-5.0,1.0,-1.0,0.0,0.0,0.0,1.0
1.695162293593442e+18,1.0,3.0,-4.0,0.0,-2.0,0.0,-1.0,-2.0
1.6951622936174482e+18,-2.0,0.0,-3.0,0.0,-2.0,-1.0,0.0,-1.0
1.695162293618424e+18,0.0,-1.0,-1.0,-1.0,0.0,-1.0,-1.0,-1.0
1.695162293618424e+18,-2.0,1.0,0.0,-2.0,-3.0,-1.0,-1.0,-1.0
1.695162293619427e+18,-1.0,3.0,-3.0,-3.0,0.0,0.0,-1.0,-2.0
1.6951622936254236e+18,-1.0,-1.0,-2.0,-2.0,-1.0,0.0,-2.0,1.0
1.6951622936324398e+18,0.0,-4.0,-1.0,0.0,0.0,0.0,-1.0,-1.0
1.6951622936394358e+18,1.0,4.0,-4.0,-2.0,0.0,-1.0,-2.0,-1.0
1.6951622936394358e+18,0.0,-3.0,1.0,-1.0,-2.0,2.0,-1.0,-1.0
1.695162293647409e+18,0.0,0.0,0.0,0.0,0.0,0.0,0.0,0.0
1.695162293647409e+18,-1.0,-1.0,-1.0,-1.0,-2.0,0.0,-1.0,-1.0
1.6951622936484088e+18,-1.0,0.0,-1.0,-1.0,-1.0,-1.0,-1.0,-2.0
1.6951622936484088e+18,-2.0,0.0,-1.0,-3.0,0.0,0.0,-1.0,-1.0
1.6951622936773916e+18,-1.0,-1.0,-1.0,-1.0,0.0,-1.0,-2.0,0.0
1.6951622936783913e+18,-2.0,-1.0,0.0,0.0,-1.0,-2.0,-1.0,-1.0
1.6951622936783913e+18,-2.0,-4.0,0.0,1.0,-1.0,0.0,-1.0,-3.0
1.6951622936793894e+18,0.0,-1.0,-1.0,1.0,-1.0,-1.0,0.0,-1.0
1.695162293692384e+18,0.0,-1.0,-1.0,-3.0,-1.0,1.0,0.0,1.0
1.695162293692384e+18,-1.0,0.0,0.0,-2.0,0.0,0.0,0.0,-1.0
1.695162293692384e+18,0.0,-2.0,-2.0,-2.0,-1.0,0.0,1.0,-3.0
1.6951622936933947e+18,0.0,-1.0,-2.0,1.0,1.0,-1.0,0.0,-1.0
1.6951622937153687e+18,-2.0,-2.0,1.0,0.0,-1.0,-1.0,0.0,-1.0
1.6951622937153687e+18,-1.0,0.0,-1.0,1.0,-2.0,-1.0,-1.0,-1.0
1.6951622937163694e+18,1.0,0.0,1.0,-1.0,-2.0,0.0,1.0,-1.0
1.6951622937173686e+18,0.0,-1.0,-1.0,-2.0,-2.0,-1.0,-1.0,-1.0
1.6951622937293622e+18,0.0,-1.0,-2.0,0.0,-1.0,-1.0,1.0,-2.0
1.6951622937303634e+18,0.0,-1.0,0.0,-1.0,0.0,-1.0,-1.0,1.0
1.6951622937303634e+18,0.0,0.0,-2.0,-1.0,-1.0,-1.0,-1.0,0.0
1.6951622937303634e+18,-1.0,3.0,-2.0,-2.0,0.0,-3.0,-3.0,0.0
1.695162293753371e+18,0.0,-2.0,1.0,1.0,-2.0,-1.0,1.0,-1.0
1.6951622937553472e+18,1.0,-2.0,4.0,-2.0,-1.0,0.0,-1.0,-2.0
1.6951622937553472e+18,-2.0,-1.0,-7.0,-1.0,-2.0,1.0,-1.0,0.0
1.6951622937553472e+18,-1.0,0.0,0.0,1.0,-1.0,-1.0,0.0,1.0
1.6951622937763343e+18,-2.0,1.0,-1.0,-1.0,-2.0,-3.0,-2.0,-1.0
1.6951622937773332e+18,-1.0,-2.0,0.0,0.0,-1.0,-1.0,-1.0,0.0
1.6951622937773332e+18,-2.0,-3.0,-1.0,-1.0,1.0,-1.0,-1.0,1.0
1.6951622937773332e+18,0.0,-2.0,-2.0,-2.0,-2.0,-1.0,-1.0,-2.0
1.6951622937963254e+18,-2.0,0.0,-2.0,0.0,-2.0,0.0,-2.0,0.0
1.6951622937963254e+18,0.0,1.0,-1.0,0.0,1.0,-1.0,0.0,-1.0
1.6951622937973228e+18,0.0,2.0,2.0,0.0,0.0,-1.0,-1.0,-1.0
1.6951622937973228e+18,1.0,-2.0,-1.0,1.0,0.0,1.0,-1.0,-2.0
1.6951622938291464e+18,-2.0,-2.0,1.0,-1.0,0.0,-2.0,0.0,1.0
1.6951622938291464e+18,-1.0,0.0,-1.0,-1.0,0.0,1.0,-2.0,-1.0
1.695162293830153e+18,-1.0,-1.0,1.0,-1.0,0.0,-2.0,-1.0,-2.0
1.695162293830153e+18,1.0,-1.0,-1.0,-1.0,1.0,0.0,-1.0,-1.0
1.695162293831148e+18,-1.0,-3.0,0.0,-2.0,2.0,1.0,-1.0,-4.0
1.695162293831148e+18,-2.0,1.0,-7.0,-1.0,-2.0,-2.0,0.0,0.0
1.69516229383515e+18,-1.0,1.0,0.0,1.0,-2.0,-1.0,1.0,0.0
1.69516229383515e+18,-2.0,0.0,1.0,-1.0,-2.0,-2.0,1.0,0.0
1.6951622938493878e+18,0.0,-1.0,0.0,-1.0,0.0,-1.0,-1.0,0.0
1.6951622938493878e+18,0.0,1.0,-2.0,-2.0,-2.0,0.0,-1.0,-1.0
1.6951622938571213e+18,-1.0,1.0,-1.0,-1.0,-2.0,-2.0,-2.0,-1.0
1.695162293858126e+18,-1.0,0.0,-5.0,-3.0,1.0,1.0,-2.0,-1.0
1.6951622938721208e+18,0.0,0.0,-2.0,-3.0,0.0,-1.0,0.0,-1.0
1.6951622938721208e+18,-3.0,-4.0,1.0,-1.0,1.0,0.0,0.0,-1.0
1.695162293880112e+18,1.0,1.0,0.0,0.0,-2.0,-1.0,-2.0,-1.0
1.695162293881113e+18,-4.0,-2.0,-1.0,2.0,3.0,1.0,-1.0,0.0
1.6951622938881078e+18,-1.0,-1.0,1.0,-2.0,0.0,0.0,0.0,1.0
1.6951622938881078e+18,1.0,-1.0,1.0,-2.0,-1.0,0.0,-1.0,0.0
1.6951622938891085e+18,-2.0,-2.0,1.0,-2.0,-1.0,0.0,0.0,0.0
1.6951622938891085e+18,0.0,-1.0,-1.0,-1.0,-2.0,-2.0,1.0,-1.0
1.69516229391411e+18,-1.0,-1.0,-2.0,0.0,-1.0,-1.0,-1.0,0.0
1.69516229391411e+18,0.0,2.0,-1.0,0.0,0.0,-2.0,0.0,-2.0
1.6951622939150927e+18,0.0,-2.0,0.0,0.0,0.0,0.0,-2.0,1.0
1.6951622939150927e+18,-2.0,-2.0,0.0,0.0,0.0,-2.0,-1.0,-1.0
1.695162293941078e+18,-2.0,0.0,-1.0,-1.0,-2.0,-2.0,-1.0,-2.0
1.695162293941078e+18,0.0,-1.0,0.0,-1.0,-1.0,1.0,0.0,0.0
1.6951622939420777e+18,-1.0,0.0,0.0,-1.0,-1.0,0.0,0.0,1.0
1.6951622939430766e+18,-1.0,-5.0,1.0,0.0,-1.0,1.0,-1.0,1.0
1.6951622939480727e+18,0.0,-1.0,-1.0,0.0,-2.0,0.0,-1.0,-1.0
1.6951622939490772e+18,0.0,-1.0,-1.0,0.0,-1.0,-1.0,-3.0,-1.0
1.6951622939490772e+18,0.0,0.0,-1.0,0.0,0.0,0.0,-1.0,-1.0
1.6951622939490772e+18,-2.0,0.0,0.0,-2.0,-2.0,-1.0,0.0,-2.0
1.6951622939700616e+18,-1.0,0.0,-2.0,-1.0,1.0,-1.0,0.0,-1.0
1.6951622939700616e+18,0.0,1.0,-2.0,0.0,-3.0,0.0,-1.0,-2.0
1.6951622939710605e+18,-1.0,-2.0,-1.0,0.0,-2.0,0.0,0.0,-2.0
1.6951622939720622e+18,-1.0,-1.0,-2.0,-2.0,-2.0,-2.0,0.0,0.0
1.6951622939920502e+18,0.0,-1.0,-1.0,0.0,1.0,0.0,-1.0,-2.0
1.6951622939930473e+18,-2.0,-1.0,-1.0,-1.0,1.0,-2.0,-1.0,2.0
1.6951622939930473e+18,0.0,-1.0,0.0,0.0,-1.0,-2.0,-2.0,-1.0
1.6951622939930473e+18,-1.0,0.0,-1.0,0.0,-1.0,0.0,-2.0,1.0
1.6951622940070377e+18,-1.0,-2.0,1.0,1.0,1.0,1.0,-1.0,-1.0
1.6951622940080381e+18,0.0,-6.0,2.0,0.0,-1.0,-1.0,-1.0,0.0
1.6951622940080381e+18,-1.0,-1.0,-1.0,-2.0,-1.0,-2.0,1.0,-1.0
1.6951622940080381e+18,0.0,0.0,-2.0,-1.0,-2.0,-1.0,-1.0,-2.0
1.6951622940300247e+18,-1.0,-1.0,-1.0,0.0,-2.0,-3.0,0.0,-1.0
1.6951622940300247e+18,-1.0,-1.0,0.0,-1.0,1.0,-2.0,0.0,1.0
1.6951622940300247e+18,-3.0,-4.0,0.0,0.0,1.0,0.0,0.0,0.0
1.695162294031025e+18,-1.0,-2.0,-1.0,-1.0,0.0,0.0,-2.0,-1.0
1.6951622940520123e+18,0.0,-1.0,-2.0,-2.0,-2.0,-1.0,0.0,1.0
1.6951622940520123e+18,0.0,8.0,-4.0,-2.0,-4.0,0.0,-1.0,-3.0
1.6951622940530122e+18,-1.0,-1.0,-1.0,-1.0,0.0,-1.0,1.0,0.0
1.6951622940530122e+18,1.0,0.0,-1.0,-1.0,-1.0,-1.0,-2.0,0.0
1.6951622940700024e+18,0.0,0.0,-2.0,0.0,-1.0,0.0,-2.0,-1.0
1.6951622940700024e+18,-1.0,-3.0,2.0,0.0,-1.0,-3.0,0.0,0.0
1.6951622940700024e+18,-1.0,2.0,-2.0,0.0,0.0,-2.0,1.0,-1.0
1.6951622940700024e+18,0.0,-1.0,-1.0,-1.0,-2.0,-2.0,-2.0,-2.0
1.6951622940903936e+18,0.0,0.0,-3.0,-1.0,-1.0,-1.0,-2.0,0.0
1.6951622940903936e+18,-1.0,-2.0,-3.0,-1.0,-2.0,0.0,0.0,-1.0
1.6951622940903936e+18,1.0,-2.0,-1.0,-2.0,0.0,-1.0,-3.0,-1.0
1.6951622940903936e+18,1.0,-2.0,-1.0,-1.0,-3.0,-1.0,-1.0,0.0
1.6951622941122975e+18,0.0,-1.0,1.0,0.0,-1.0,1.0,-1.0,-3.0
1.6951622941122975e+18,-3.0,-3.0,-2.0,0.0,-2.0,1.0,0.0,-2.0
1.6951622941132933e+18,-1.0,-2.0,1.0,-1.0,-1.0,1.0,-1.0,-2.0
1.6951622941132933e+18,0.0,1.0,-3.0,-1.0,0.0,-1.0,0.0,-1.0
1.6951622941268244e+18,-1.0,0.0,2.0,-3.0,-1.0,-2.0,-1.0,1.0
1.6951622941268244e+18,1.0,-1.0,0.0,-2.0,-1.0,-4.0,0.0,1.0
1.6951622941278277e+18,-2.0,-1.0,-1.0,0.0,0.0,0.0,0.0,-1.0
1.6951622941278277e+18,-1.0,0.0,-1.0,-1.0,-2.0,-2.0,0.0,0.0
1.6951622941558707e+18,-3.0,-2.0,0.0,3.0,1.0,1.0,0.0,-2.0
1.6951622941558707e+18,-3.0,-2.0,0.0,0.0,1.0,0.0,-2.0,-2.0
1.6951622941558707e+18,0.0,1.0,-1.0,-1.0,-1.0,-2.0,-3.0,-1.0
1.6951622941558707e+18,-1.0,-3.0,-1.0,-1.0,-1.0,1.0,0.0,0.0
1.695162294171868e+18,0.0,-2.0,0.0,-3.0,-1.0,-1.0,0.0,1.0
1.6951622941728448e+18,0.0,0.0,-2.0,1.0,0.0,-1.0,-3.0,-1.0
1.6951622941728448e+18,-1.0,0.0,-1.0,2.0,-3.0,-1.0,-2.0,-1.0
1.6951622941728448e+18,-3.0,-1.0,1.0,0.0,2.0,-3.0,0.0,0.0
1.6951622941873426e+18,-1.0,1.0,-2.0,-2.0,-3.0,-3.0,1.0,-2.0
1.6951622941873426e+18,-1.0,-3.0,-1.0,-2.0,0.0,0.0,0.0,-1.0
1.6951622941883438e+18,1.0,0.0,-2.0,0.0,1.0,-1.0,-2.0,-2.0
1.6951622941883438e+18,0.0,-1.0,-1.0,0.0,0.0,0.0,-1.0,-1.0
1.6951622942093317e+18,0.0,-1.0,-1.0,-2.0,0.0,0.0,-1.0,3.0
1.6951622942093317e+18,0.0,-2.0,-2.0,0.0,-2.0,-1.0,-1.0,-1.0
1.6951622942173268e+18,0.0,-2.0,1.0,-1.0,0.0,1.0,0.0,-1.0
1.6951622942173268e+18,-1.0,-3.0,2.0,2.0,0.0,0.0,0.0,-1.0
1.6951622942334031e+18,0.0,-1.0,-3.0,-1.0,-1.0,-2.0,-1.0,-1.0
1.6951622942334031e+18,0.0,0.0,-3.0,-3.0,-2.0,-1.0,0.0,-1.0
1.6951622942343864e+18,-2.0,-3.0,0.0,0.0,1.0,0.0,-1.0,-1.0
1.6951622942343864e+18,-1.0,1.0,-1.0,0.0,-2.0,-2.0,-1.0,-1.0
1.6951622942474458e+18,0.0,-1.0,-1.0,3.0,-1.0,1.0,-1.0,-1.0
1.6951622942474458e+18,0.0,0.0,0.0,-2.0,0.0,0.0,1.0,0.0
1.6951622942474458e+18,1.0,1.0,-2.0,-2.0,-2.0,-1.0,-1.0,-1.0
1.6951622942484672e+18,-1.0,-1.0,1.0,-1.0,0.0,-2.0,-1.0,-2.0
1.695162294269622e+18,-2.0,-1.0,-1.0,-2.0,-1.0,-1.0,0.0,-1.0
1.695162294269622e+18,1.0,-2.0,1.0,0.0,-4.0,-1.0,0.0,0.0
1.6951622942706255e+18,0.0,-1.0,0.0,0.0,0.0,-2.0,0.0,-2.0
1.6951622942706255e+18,-2.0,-3.0,-1.0,0.0,-1.0,-1.0,0.0,0.0
1.6951622942926408e+18,-1.0,-2.0,1.0,1.0,1.0,-1.0,0.0,0.0
1.6951622942926408e+18,-1.0,-2.0,0.0,0.0,-1.0,-1.0,-2.0,-1.0
1.6951622942926408e+18,-2.0,-1.0,-1.0,-2.0,-2.0,0.0,-1.0,-1.0
1.6951622942926408e+18,1.0,-2.0,-1.0,-2.0,-1.0,0.0,-2.0,0.0
1.6951622943090575e+18,0.0,0.0,-3.0,-1.0,-1.0,-2.0,-2.0,-2.0
1.69516229431005e+18,-1.0,-1.0,-1.0,-2.0,0.0,1.0,-1.0,1.0
1.69516229431005e+18,0.0,-1.0,1.0,0.0,-1.0,-2.0,-1.0,-2.0
1.6951622943110505e+18,-1.0,0.0,-2.0,-1.0,0.0,-2.0,-1.0,-2.0
1.6951622943400343e+18,-1.0,-1.0,0.0,-2.0,-1.0,-1.0,1.0,-3.0
1.6951622943400343e+18,-1.0,-1.0,-1.0,-1.0,2.0,-1.0,-1.0,-1.0
1.6951622943420375e+18,0.0,-1.0,-1.0,-1.0,-2.0,0.0,-1.0,1.0
1.695162294343035e+18,-2.0,-1.0,-2.0,-1.0,-1.0,-1.0,-1.0,-1.0
1.695162294354026e+18,-2.0,-1.0,-1.0,-1.0,-3.0,-1.0,-2.0,-1.0
1.695162294354026e+18,-1.0,1.0,0.0,2.0,0.0,0.0,-1.0,-2.0
1.6951622943550264e+18,-2.0,-2.0,-2.0,0.0,-2.0,-2.0,1.0,-1.0
1.6951622943550264e+18,-1.0,-1.0,1.0,0.0,1.0,-1.0,0.0,1.0
1.6951622943860063e+18,0.0,-2.0,-1.0,1.0,-1.0,-1.0,0.0,1.0
1.69516229438801e+18,-1.0,0.0,-1.0,0.0,-2.0,-3.0,-1.0,-2.0
1.695162294389009e+18,-1.0,-1.0,-3.0,-1.0,0.0,0.0,-2.0,1.0
1.6951622943900106e+18,-2.0,0.0,-1.0,-1.0,-1.0,1.0,1.0,-1.0
1.6951622943979986e+18,-2.0,0.0,-2.0,-1.0,-2.0,-1.0,-1.0,-1.0
1.6951622943979986e+18,-1.0,-1.0,0.0,-1.0,-1.0,-2.0,-1.0,0.0
1.6951622943989985e+18,0.0,-2.0,-1.0,-1.0,-1.0,-1.0,0.0,1.0
1.6951622943989985e+18,-2.0,0.0,-1.0,0.0,-1.0,-2.0,-1.0,-2.0
1.6951622944119905e+18,-1.0,-1.0,-3.0,2.0,-2.0,1.0,-1.0,-2.0
1.695162294412991e+18,0.0,-1.0,-2.0,-2.0,0.0,-1.0,0.0,-1.0
1.69516229441399e+18,-1.0,-1.0,-2.0,-1.0,-3.0,-1.0,-1.0,-2.0
1.69516229441399e+18,0.0,-1.0,-1.0,-1.0,-1.0,0.0,-2.0,-1.0
1.6951622944349786e+18,-2.0,-1.0,0.0,0.0,-1.0,0.0,-4.0,0.0
1.6951622944359793e+18,-1.0,-2.0,-1.0,0.0,1.0,-1.0,-3.0,-3.0
1.6951622944359793e+18,-1.0,-2.0,-1.0,1.0,-1.0,-3.0,0.0,-1.0
1.6951622944359793e+18,-2.0,-1.0,-2.0,-1.0,-1.0,0.0,1.0,-2.0
1.6951622944509683e+18,0.0,-1.0,-2.0,-2.0,1.0,-2.0,-1.0,0.0
1.6951622944529674e+18,-1.0,0.0,-1.0,-2.0,-1.0,1.0,-1.0,-2.0
1.6951622944529674e+18,-1.0,-1.0,0.0,1.0,-1.0,1.0,0.0,-2.0
1.6951622944529674e+18,0.0,-2.0,2.0,0.0,-1.0,-1.0,0.0,-2.0
1.6951622944719583e+18,-1.0,0.0,-1.0,-2.0,0.0,-2.0,-1.0,-2.0
1.6951622944729554e+18,-1.0,-2.0,-1.0,-2.0,-1.0,-1.0,1.0,0.0
1.6951622944729554e+18,-3.0,-1.0,-1.0,-1.0,-1.0,0.0,-3.0,-1.0
1.6951622944729554e+18,-1.0,0.0,-1.0,-1.0,-1.0,-2.0,-1.0,-1.0
1.6951622944889464e+18,0.0,-1.0,-2.0,1.0,0.0,1.0,-2.0,1.0
1.6951622944929457e+18,0.0,-1.0,-1.0,0.0,-1.0,1.0,0.0,1.0
1.6951622944939466e+18,-1.0,0.0,-1.0,0.0,1.0,1.0,0.0,0.0
1.6951622944939466e+18,0.0,2.0,4.0,2.0,4.0,2.0,1.0,-1.0
1.695162294508935e+18,2.0,2.0,3.0,1.0,4.0,1.0,1.0,1.0
1.695162294509934e+18,-1.0,2.0,0.0,-1.0,-1.0,-4.0,-1.0,-1.0
1.695162294516953e+18,0.0,-1.0,0.0,-2.0,-2.0,1.0,1.0,-1.0
1.695162294517935e+18,-1.0,-1.0,-1.0,1.0,0.0,3.0,-2.0,0.0
1.6951622945319217e+18,-1.0,0.0,-1.0,-4.0,-7.0,-14.0,-1.0,-2.0
1.695162294532921e+18,2.0,1.0,1.0,-1.0,2.0,6.0,0.0,-1.0
1.695162294532921e+18,-3.0,1.0,0.0,-6.0,-5.0,8.0,0.0,-1.0
1.695162294532921e+18,1.0,-1.0,-2.0,-3.0,5.0,-8.0,2.0,1.0
1.6951622945486802e+18,-1.0,0.0,1.0,5.0,-5.0,7.0,1.0,1.0
1.6951622945486802e+18,-1.0,0.0,-3.0,-7.0,-4.0,-9.0,-2.0,2.0
1.6951622945496845e+18,0.0,1.0,0.0,-8.0,-20.0,-10.0,-4.0,-2.0
1.6951622945496845e+18,1.0,0.0,-3.0,7.0,20.0,15.0,1.0,0.0
1.6951622945787366e+18,-2.0,0.0,0.0,-9.0,-11.0,-10.0,-2.0,-3.0
1.6951622945857344e+18,0.0,-1.0,0.0,0.0,0.0,-5.0,-1.0,-2.0
1.6951622945857344e+18,-1.0,0.0,2.0,4.0,12.0,5.0,0.0,0.0
1.6951622945857344e+18,3.0,0.0,1.0,-4.0,-20.0,-1.0,1.0,-1.0
1.6951622946087475e+18,0.0,-2.0,1.0,4.0,21.0,7.0,4.0,2.0
1.6951622946087475e+18,-2.0,-2.0,-3.0,-3.0,-4.0,3.0,-2.0,-1.0
1.6951622946097464e+18,0.0,0.0,2.0,0.0,0.0,-12.0,-2.0,-3.0
1.6951622946097464e+18,-3.0,-2.0,0.0,-5.0,-9.0,2.0,-2.0,0.0
1.6951622946107482e+18,-2.0,-3.0,-5.0,3.0,2.0,12.0,-1.0,-3.0
1.6951622946107482e+18,-1.0,1.0,3.0,7.0,8.0,-10.0,-1.0,-2.0
1.6951622946137454e+18,1.0,-1.0,-1.0,5.0,-8.0,-10.0,-2.0,3.0
1.6951622946137454e+18,0.0,-2.0,-1.0,-10.0,4.0,-2.0,-2.0,-1.0
1.6951622946301018e+18,-1.0,0.0,-2.0,10.0,0.0,1.0,-13.0,-4.0
1.6951622946301018e+18,-1.0,2.0,0.0,-3.0,-9.0,2.0,3.0,-1.0
1.6951622946301018e+18,-2.0,-4.0,-2.0,3.0,0.0,-22.0,-5.0,-3.0
1.6951622946301018e+18,1.0,3.0,0.0,-5.0,-15.0,2.0,-13.0,0.0
1.6951622946601413e+18,1.0,-4.0,-3.0,-7.0,24.0,34.0,30.0,4.0
1.6951622946611187e+18,1.0,3.0,5.0,9.0,11.0,1.0,-6.0,-1.0
1.6951622946611187e+18,-3.0,-4.0,0.0,3.0,5.0,-17.0,-19.0,-10.0
1.6951622946621181e+18,1.0,2.0,-3.0,-5.0,-17.0,-5.0,2.0,8.0
1.695162294666144e+18,0.0,3.0,2.0,-3.0,-4.0,-5.0,19.0,-4.0
1.695162294667117e+18,-4.0,-3.0,-3.0,0.0,0.0,-10.0,-41.0,1.0
1.6951622946781112e+18,3.0,4.0,0.0,-2.0,3.0,21.0,39.0,13.0
1.6951622946791112e+18,0.0,-1.0,0.0,1.0,4.0,0.0,2.0,0.0
1.695162294689103e+18,0.0,-4.0,-1.0,3.0,-2.0,24.0,65.0,8.0
1.695162294690109e+18,0.0,1.0,3.0,1.0,2.0,-16.0,-22.0,-5.0
1.695162294690109e+18,1.0,1.0,-4.0,-1.0,7.0,16.0,11.0,0.0
1.6951622946911017e+18,-3.0,3.0,2.0,8.0,12.0,-24.0,-41.0,-9.0
1.6951622947190845e+18,-3.0,-7.0,4.0,0.0,-30.0,-2.0,8.0,1.0
1.6951622947190845e+18,-2.0,-8.0,-9.0,-9.0,-1.0,0.0,26.0,0.0
1.6951622947190845e+18,3.0,2.0,-1.0,-11.0,3.0,10.0,-3.0,2.0
1.6951622947200876e+18,-2.0,-4.0,-4.0,-3.0,4.0,-13.0,-8.0,-9.0
1.695162294726083e+18,1.0,4.0,3.0,14.0,7.0,1.0,-35.0,5.0
1.6951622947270843e+18,-5.0,-5.0,1.0,4.0,-7.0,13.0,0.0,-6.0
1.695162294734082e+18,-3.0,-1.0,-1.0,2.0,11.0,7.0,-3.0,-2.0
1.6951622947350925e+18,3.0,-2.0,-9.0,-8.0,-7.0,9.0,48.0,12.0
1.6951622947510674e+18,0.0,1.0,1.0,-6.0,-13.0,-35.0,-32.0,-6.0
1.6951622947510674e+18,2.0,6.0,2.0,-2.0,-6.0,19.0,18.0,5.0
1.6951622947520655e+18,-4.0,-3.0,-5.0,-7.0,-2.0,-11.0,-19.0,-6.0
1.6951622947520655e+18,-6.0,-9.0,2.0,10.0,0.0,-16.0,-26.0,-9.0
1.695162294780049e+18,3.0,3.0,-8.0,-12.0,4.0,15.0,14.0,7.0
1.695162294780049e+18,1.0,3.0,1.0,9.0,-1.0,-2.0,1.0,-4.0
1.6951622947810527e+18,0.0,-1.0,0.0,-6.0,1.0,4.0,6.0,-3.0
1.6951622947810527e+18,-3.0,-4.0,-9.0,-12.0,-15.0,-5.0,-3.0,-3.0
1.6951622947860928e+18,-4.0,-2.0,0.0,3.0,3.0,-14.0,-14.0,-1.0
1.6951622947860928e+18,-1.0,-5.0,-4.0,-16.0,-8.0,1.0,0.0,-3.0
1.6951622947942904e+18,2.0,1.0,1.0,8.0,4.0,9.0,-22.0,3.0
1.6951622947942904e+18,2.0,7.0,8.0,12.0,0.0,-13.0,3.0,-3.0
1.695162294809418e+18,1.0,-7.0,0.0,-2.0,-2.0,21.0,43.0,21.0
1.695162294809418e+18,-1.0,1.0,-4.0,0.0,1.0,-8.0,6.0,-7.0
1.6951622948104207e+18,-5.0,-8.0,1.0,-1.0,-13.0,-14.0,-16.0,1.0
1.6951622948104207e+18,-1.0,1.0,-6.0,-12.0,-6.0,15.0,26.0,0.0
1.695162294833492e+18,-1.0,1.0,4.0,6.0,19.0,10.0,-6.0,-4.0
1.695162294834492e+18,3.0,4.0,3.0,3.0,-1.0,-6.0,2.0,2.0
1.6951622948354916e+18,0.0,-2.0,-3.0,-5.0,-9.0,-7.0,-4.0,-3.0
1.6951622948364915e+18,-1.0,1.0,6.0,26.0,22.0,16.0,6.0,2.0
1.6951622948634752e+18,-6.0,-5.0,-4.0,-3.0,-5.0,-22.0,-7.0,-11.0
1.6951622948644787e+18,-1.0,-1.0,7.0,12.0,11.0,9.0,-5.0,7.0
1.6951622948644787e+18,-3.0,-1.0,-9.0,-12.0,-9.0,-8.0,5.0,-3.0
1.6951622948664796e+18,-1.0,0.0,4.0,3.0,4.0,2.0,-4.0,-2.0
1.6951622949664133e+18,0.0,-2.0,-8.0,-18.0,-8.0,-8.0,-27.0,-7.0
1.695162294967414e+18,2.0,1.0,-2.0,-4.0,-17.0,4.0,21.0,6.0
1.6951622949804058e+18,-1.0,-2.0,3.0,21.0,24.0,5.0,8.0,-3.0
1.6951622949804058e+18,-4.0,-2.0,-10.0,-22.0,-19.0,-27.0,-29.0,-15.0
1.6951622949814067e+18,3.0,2.0,-1.0,1.0,2.0,3.0,13.0,8.0
1.6951622949814067e+18,-3.0,-6.0,-4.0,-6.0,-1.0,-6.0,-6.0,-7.0
1.6951622949834048e+18,2.0,4.0,-2.0,0.0,-3.0,13.0,3.0,2.0
1.6951622949834048e+18,0.0,1.0,-1.0,8.0,6.0,14.0,14.0,3.0
1.6951622950293778e+18,-1.0,1.0,0.0,2.0,-2.0,-6.0,7.0,-4.0
1.6951622950303895e+18,-3.0,-1.0,0.0,-5.0,10.0,12.0,21.0,10.0
1.6951622950313795e+18,-2.0,1.0,-5.0,0.0,3.0,-4.0,2.0,-5.0
1.6951622950323786e+18,3.0,-3.0,-9.0,-18.0,-12.0,-9.0,-12.0,-2.0
1.6951622950343772e+18,0.0,3.0,9.0,8.0,10.0,4.0,-4.0,1.0
1.6951622950343772e+18,-1.0,-7.0,6.0,5.0,-1.0,-3.0,-3.0,-4.0
1.6951622950453688e+18,-1.0,0.0,-7.0,-3.0,-3.0,-5.0,-31.0,-6.0
1.6951622950453688e+18,2.0,0.0,9.0,9.0,4.0,0.0,7.0,-2.0
1.6951622950453688e+18,-1.0,-2.0,-5.0,-6.0,-8.0,-10.0,-20.0,-5.0
1.6951622950453688e+18,1.0,4.0,4.0,5.0,10.0,8.0,4.0,6.0
1.6951622950463683e+18,-1.0,-1.0,-4.0,-6.0,-4.0,0.0,11.0,0.0
1.6951622950463683e+18,-1.0,3.0,-8.0,-3.0,7.0,-2.0,-25.0,0.0
1.6951622951043584e+18,1.0,-1.0,0.0,-4.0,-8.0,7.0,-1.0,2.0
1.6951622951053376e+18,-1.0,5.0,-7.0,-3.0,-4.0,-3.0,3.0,-4.0
1.6951622951053376e+18,1.0,-9.0,8.0,13.0,12.0,2.0,-11.0,2.0
1.6951622951053376e+18,-2.0,2.0,-6.0,-7.0,-19.0,-14.0,0.0,-4.0
1.69516229512458e+18,5.0,27.0,-12.0,-11.0,8.0,0.0,0.0,1.0
1.69516229512458e+18,-2.0,-25.0,9.0,11.0,1.0,-2.0,3.0,-1.0
1.69516229515924e+18,1.0,-16.0,0.0,-10.0,-5.0,0.0,-8.0,0.0
1.6951622951602437e+18,-5.0,-13.0,22.0,27.0,7.0,4.0,2.0,-2.0
1.6951622951602437e+18,-1.0,-2.0,3.0,0.0,-9.0,-6.0,-8.0,-1.0
1.695162295161237e+18,1.0,2.0,-3.0,-11.0,4.0,6.0,-1.0,0.0
1.695162295162237e+18,2.0,2.0,2.0,6.0,-3.0,2.0,6.0,6.0
1.695162295162237e+18,-2.0,10.0,-8.0,-10.0,-6.0,-15.0,-25.0,-11.0
1.6951622951802273e+18,-6.0,-15.0,7.0,14.0,16.0,1.0,-2.0,-4.0
1.6951622951802273e+18,-1.0,-2.0,-5.0,-11.0,-8.0,-3.0,-3.0,1.0
1.6951622951852242e+18,1.0,7.0,5.0,7.0,1.0,5.0,-3.0,-9.0
1.6951622951862244e+18,2.0,0.0,-8.0,-12.0,6.0,5.0,1.0,6.0
1.6951622952292204e+18,2.0,0.0,1.0,7.0,5.0,13.0,4.0,1.0
1.6951622952292204e+18,5.0,21.0,-1.0,2.0,5.0,5.0,5.0,3.0
1.6951622952301993e+18,-2.0,-11.0,0.0,-3.0,-4.0,-5.0,-1.0,1.0
1.6951622952311985e+18,0.0,-2.0,-7.0,-15.0,-7.0,-1.0,4.0,-2.0
1.695162295255186e+18,1.0,14.0,-1.0,0.0,-3.0,-3.0,-1.0,0.0
1.695162295255186e+18,-9.0,-16.0,-17.0,-6.0,-7.0,-12.0,-10.0,-5.0
1.6951622952571837e+18,2.0,-1.0,1.0,-5.0,-3.0,-3.0,-3.0,-3.0
1.6951622952571837e+18,-1.0,6.0,-11.0,-10.0,2.0,4.0,9.0,5.0
1.695162295308155e+18,0.0,2.0,1.0,-2.0,0.0,-9.0,0.0,-2.0
1.6951622953091533e+18,-3.0,-23.0,8.0,-6.0,-11.0,2.0,-3.0,7.0
1.695162295310155e+18,-5.0,-4.0,-7.0,-4.0,-4.0,-20.0,-41.0,-14.0
1.6951622953111537e+18,1.0,-34.0,19.0,15.0,12.0,15.0,25.0,10.0
1.6951622953111537e+18,1.0,-10.0,-2.0,3.0,-1.0,7.0,12.0,6.0
1.69516229531217e+18,-4.0,-11.0,1.0,6.0,3.0,0.0,9.0,-1.0
1.6951622953591255e+18,-1.0,3.0,-11.0,-9.0,-1.0,11.0,-6.0,-2.0
1.6951622953771146e+18,4.0,20.0,1.0,5.0,-8.0,-6.0,-15.0,-1.0
1.695162295412094e+18,-5.0,-12.0,-10.0,-6.0,2.0,10.0,19.0,0.0
1.695162295412094e+18,5.0,25.0,0.0,-5.0,-5.0,-3.0,-8.0,6.0
1.6951622954200911e+18,2.0,5.0,-10.0,-8.0,0.0,2.0,-1.0,3.0
1.6951622954200911e+18,0.0,2.0,2.0,1.0,-1.0,3.0,13.0,2.0
1.6951622954210893e+18,-2.0,-4.0,-3.0,-4.0,3.0,1.0,-7.0,2.0
1.6951622954220882e+18,0.0,1.0,1.0,0.0,-2.0,-5.0,10.0,-6.0
1.695162295423088e+18,-1.0,-2.0,14.0,10.0,3.0,13.0,25.0,10.0
1.6951622954240878e+18,-2.0,-3.0,-1.0,-4.0,3.0,-7.0,-20.0,-7.0
1.6951622954730632e+18,7.0,11.0,1.0,4.0,7.0,26.0,51.0,14.0
1.695162295485053e+18,-3.0,8.0,-12.0,-5.0,-5.0,-7.0,-13.0,-11.0
1.695162295486052e+18,0.0,-13.0,-6.0,-2.0,2.0,3.0,-12.0,4.0
1.695162295486052e+18,-1.0,-3.0,-6.0,0.0,3.0,1.0,-13.0,-3.0
1.6951622955220288e+18,-1.0,-6.0,18.0,11.0,-3.0,4.0,15.0,1.0
1.6951622955220288e+18,2.0,3.0,0.0,1.0,-5.0,-14.0,-28.0,-18.0
1.6951622955320233e+18,2.0,-3.0,-3.0,-11.0,-3.0,7.0,41.0,13.0
1.6951622955320233e+18,-2.0,2.0,10.0,8.0,-3.0,-13.0,-13.0,-3.0
1.695162295534025e+18,-5.0,-5.0,8.0,3.0,-2.0,-23.0,-25.0,-5.0
1.695162295534025e+18,-1.0,0.0,1.0,4.0,3.0,8.0,0.0,4.0
1.6951622955849943e+18,0.0,-3.0,-9.0,-14.0,-3.0,-12.0,-36.0,-10.0
1.6951622955849943e+18,-2.0,9.0,4.0,9.0,-5.0,-9.0,-23.0,-11.0
1.6951622955859924e+18,-4.0,-17.0,-6.0,-9.0,-7.0,3.0,9.0,2.0
1.6951622955869916e+18,2.0,6.0,8.0,1.0,0.0,-3.0,-6.0,-1.0
1.6951622956359634e+18,-5.0,-1.0,-14.0,-8.0,5.0,2.0,8.0,0.0
1.6951622956359634e+18,-2.0,6.0,3.0,7.0,-9.0,-4.0,-9.0,-4.0
1.6951622956369654e+18,0.0,13.0,5.0,-3.0,-2.0,-4.0,3.0,-2.0
1.695162295637963e+18,1.0,-21.0,-5.0,3.0,-5.0,-5.0,0.0,3.0
1.695162295656951e+18,-3.0,-12.0,0.0,6.0,1.0,-1.0,3.0,0.0
1.695162295656951e+18,-2.0,3.0,2.0,-1.0,-1.0,-6.0,-3.0,-2.0
1.695162295696931e+18,1.0,5.0,2.0,-2.0,2.0,5.0,-1.0,1.0
1.6951622956979328e+18,-2.0,-6.0,-6.0,1.0,1.0,1.0,-2.0,-1.0
1.6951622956979328e+18,1.0,-4.0,-6.0,-4.0,-1.0,-1.0,6.0,-2.0
1.6951622956989312e+18,-2.0,5.0,-3.0,-7.0,-1.0,-2.0,-6.0,-1.0
1.6951622957499139e+18,0.0,1.0,-1.0,0.0,-3.0,-3.0,0.0,-1.0
1.6951622957499139e+18,-4.0,2.0,-4.0,-5.0,-2.0,-2.0,-3.0,-3.0
1.6951622957499139e+18,-1.0,2.0,-4.0,1.0,0.0,0.0,1.0,0.0
1.6951622957499139e+18,-1.0,-5.0,0.0,-3.0,0.0,0.0,-1.0,1.0
1.6951622957509148e+18,-1.0,-4.0,0.0,1.0,3.0,3.0,2.0,2.0
1.6951622957519135e+18,0.0,0.0,-3.0,-3.0,-2.0,-1.0,-3.0,0.0
1.6951622958020948e+18,-1.0,-3.0,-1.0,0.0,-2.0,-1.0,-1.0,-1.0
1.6951622958020948e+18,-1.0,2.0,-1.0,0.0,0.0,0.0,1.0,-1.0
1.6951622958030945e+18,-1.0,-7.0,0.0,-1.0,-3.0,-3.0,-2.0,-1.0
1.6951622958030945e+18,0.0,4.0,-1.0,-2.0,-3.0,0.0,-1.0,-1.0
