timestamp,left_data_Ac_X,left_data_Ac_Y,left_data_Ac_Z,left_data_Gy_X,left_data_Gy_Y,left_data_Gy_Z,left_data_flex_1,left_data_flex_2,left_data_flex_3,left_data_flex_4,left_data_flex_5,right_data_Ac_X,right_data_Ac_Y,right_data_Ac_Z,right_data_Gy_X,right_data_Gy_Y,right_data_Gy_Z,right_data_flex_1,right_data_flex_2,right_data_flex_3,right_data_flex_4,right_data_flex_5
1695162284615658500,-9.279925346,-1.800439715,-1.572990537,-1.741065741,-0.2290245,0.904506922,0,25,13,27,14,-8.789113998,2.852691412,-0.626083732,-0.338940263,0.27165848,0.314558983,-63,-34,-31,25,160
1695162284616658500,-9.282320023,-1.868674397,-1.565807939,-1.725744247,-0.218099549,0.92355895,1,25,20,30,14,-8.798690796,2.794033289,-0.635660529,-0.362388968,0.264064312,0.272857577,-60,-34,-31,21,160
1695162284617658500,-9.281123161,-1.940500498,-1.553836942,-1.706425786,-0.207840726,0.942344546,1,27,19,23,14,-8.797493935,2.742558002,-0.647631586,-0.376644701,0.258468598,0.240882084,-61,-34,-29,28,157
1695162284618658500,-9.281123161,-2.011129379,-1.538274646,-1.68337667,-0.198114842,0.961130142,0,22,15,26,12,-8.795100212,2.694674015,-0.648828685,-0.3885023,0.252606452,0.20824042,-59,-34,-29,25,156
1695162284619658500,-9.284713745,-2.084152699,-1.522712231,-1.656330824,-0.18905513,0.979516089,4,28,21,28,14,-8.791508675,2.646790028,-0.654814184,-0.397295564,0.247010723,0.175332308,-60,-35,-29,22,158
1695162284680625500,-9.40083313,-2.940079689,-1.212663174,-0.64723736,-0.139093414,1.243447185,1,23,17,28,14,-8.670601845,2.288856745,-0.657208383,-0.145888209,0.186790213,-0.462045938,-58,-33,-31,24,157
1695162284681625500,-9.398438454,-2.942473888,-1.191115379,-0.583552837,-0.139892802,1.251441121,-1,22,15,27,14,-8.670601845,2.30801034,-0.657208383,-0.122705974,0.18798928,-0.493888199,-60,-34,-29,29,156
1695162284682625500,-9.397241592,-2.942473888,-1.176750183,-0.520934165,-0.140558958,1.258635521,1,25,17,27,12,-8.670601845,2.327163935,-0.651222885,-0.099523738,0.189188361,-0.525730491,-60,-34,-25,26,157
1695162284683625500,-9.397241592,-2.943670988,-1.158793569,-0.459381312,-0.141358346,1.26476419,2,22,19,26,11,-8.667010307,2.349909067,-0.640448928,-0.076341502,0.190653905,-0.557572722,-59,-34,-30,18,156
1695162284684625500,-9.398438454,-2.944868088,-1.146822572,-0.399427265,-0.142290965,1.270093441,2,23,16,27,15,-8.664615631,2.373851061,-0.63326633,-0.053159267,0.191986218,-0.589148581,-61,-34,-25,26,163
1695162284720601400,-9.461885452,-2.303221941,-1.024718285,0.192119434,-0.164940268,1.175632477,0,23,14,26,14,-8.749609947,3.065775394,-0.306457818,0.219698325,0.195849925,-1.094361424,-61,-36,-33,20,155
1695162284721601400,-9.47146225,-2.249352455,-1.027112484,0.18599081,-0.166539043,1.159511447,1,22,16,22,14,-8.76636982,3.102885485,-0.270544797,0.221963242,0.194384381,-1.114212871,-61,-34,-31,25,158
1695162284722601400,-9.478644371,-2.19189167,-1.021126986,0.175732017,-0.168137819,1.142457843,5,23,15,25,13,-8.783128738,3.141192675,-0.238223076,0.22236295,0.193451747,-1.133664608,-60,-34,-29,24,160
1695162284723601400,-9.484629631,-2.138022184,-1.015141487,0.161343038,-0.170003071,1.124471664,1,22,14,27,14,-8.801085472,3.178302765,-0.213083953,0.221430331,0.192385912,-1.152450204,-60,-31,-29,26,160
1695162284724601400,-9.48941803,-2.081758261,-1.011550188,0.14282389,-0.171601832,1.105552793,2,25,19,28,14,-8.82263279,3.213018656,-0.190339029,0.219698325,0.191586524,-1.170836091,-60,-32,-27,26,161
1695162284758580200,-10.43632507,-1.276109457,-1.192312479,-0.771941781,-0.279918849,0.639509916,1,23,11,24,11,-10.36569595,3.393780947,0.011971008,0.146021441,0.096459419,-1.399061322,-61,-34,-30,24,158
1695162284759580200,-10.57758331,-1.243787766,-1.222239971,-0.844153166,-0.293641627,0.610998452,-1,21,13,24,12,-10.52610779,3.379415751,-0.002394202,0.15428178,0.07714089,-1.406921864,-60,-29,-29,22,153
1695162284760580200,-10.7188406,-1.218648672,-1.250970364,-0.917563498,-0.308163851,0.582886636,4,19,16,24,9,-10.62786102,3.374627352,-0.005985504,0.161076576,0.063817769,-1.412117839,-59,-34,-31,25,157
1695162284761580200,-10.85770512,-1.200692177,-1.277306557,-0.991640151,-0.323218971,0.555441022,-1,25,15,26,12,-10.7727108,3.372233152,-0.010773907,0.172800913,0.042900458,-1.420245051,-60,-34,-31,29,156
1695162284762580200,-10.99058247,-1.191115379,-1.304839969,-1.065983176,-0.338407338,0.528661549,-1,21,12,24,11,-10.9103775,3.378218651,-0.011971008,0.185591117,0.02158346,-1.429171562,-60,-32,-25,24,162
1695162284795559500,-10.87685871,-1.544260144,-1.678335428,-2.31302762,-0.440595686,0.147353753,0,21,13,28,14,-10.25436592,4.054580688,0.513556242,0.479765713,-0.042900458,-1.617560506,-60,-33,-29,22,157
1695162284796559500,-10.78587818,-1.582567334,-1.679532528,-2.36538744,-0.430336893,0.127102599,3,21,16,26,14,-10.10233402,4.084507942,0.551863492,0.484029084,-0.023049004,-1.619958639,-61,-34,-31,9,162
1695162284797559500,-10.70687008,-1.619677424,-1.675941229,-2.415482283,-0.418346077,0.106318533,-1,20,15,25,14,-9.947908401,4.107253075,0.581790984,0.487493098,-0.001865237,-1.620091796,-60,-32,-29,18,160
1695162284798559500,-10.6206789,-1.668758631,-1.677138329,-2.479300261,-0.399427265,0.078739658,2,19,15,28,12,-9.797073364,4.128800869,0.608127236,0.49029094,0.020117918,-1.617960215,-58,-34,-25,25,158
1695162284799559500,-10.57638645,-1.707065821,-1.667561531,-2.524199247,-0.383173048,0.057022974,0,25,15,29,13,-9.649829865,4.140771866,0.628477931,0.492555887,0.04276723,-1.613563538,-61,-33,-29,24,161
1695162284831541800,-11.00494766,-2.341529369,-1.33835876,-2.859408855,0.011990812,-0.360923439,0,24,16,25,14,-8.690952301,4.065354347,1.104924083,0.595277131,0.41861257,-1.052260399,-59,-33,-28,22,160
1695162284832541800,-11.04205799,-2.396595955,-1.320402265,-2.848084211,0.025580399,-0.376244992,1,25,12,22,13,-8.759186745,4.106055737,1.164779186,0.597408891,0.435133219,-1.01282382,-61,-34,-29,22,156
1695162284833541800,-11.07557678,-2.457648039,-1.297657371,-2.832096577,0.037304748,-0.390234292,1,21,10,30,14,-8.834604263,4.149151325,1.22583127,0.597542107,0.451653898,-0.97445327,-54,-34,-34,20,157
1695162284834541800,-11.09592819,-2.521094322,-1.273715258,-2.811445713,0.04729709,-0.402491599,1,23,20,26,14,-8.916007042,4.203021049,1.284489155,0.595010698,0.468307823,-0.937015295,-61,-34,-29,21,156
1695162284835541800,-11.11149025,-2.591723442,-1.246181965,-2.785998583,0.05595712,-0.413416535,5,23,21,30,14,-9.004592896,4.258087635,1.347935557,0.589415014,0.484828472,-0.900909662,-61,-34,-31,20,159
1695162284874513600,-9.149441719,-3.962403774,-0.150834709,-1.3790766,0.193718225,-0.453918815,1,23,19,26,13,-10.34774017,5.032611847,1.886630893,-0.138160795,0.576091886,-0.329880536,-60,-31,-29,20,158
1695162284875513600,-8.981847763,-3.971980572,-0.070628949,-1.271825433,0.213036761,-0.45658344,0,22,21,28,13,-10.33936024,5.007472992,1.868674397,-0.193851456,0.559571207,-0.297372133,-61,-34,-31,19,158
1695162284876513600,-8.81664753,-3.974374771,0.001197101,-1.165107131,0.233154669,-0.460447162,1,26,14,30,13,-10.3214035,4.9763484,1.847126603,-0.248209804,0.540785611,-0.26339817,-61,-33,-29,13,160
1695162284877513600,-8.656236649,-3.965995073,0.056263741,-1.059721231,0.253938764,-0.465376705,4,22,15,30,14,-10.29985619,4.93804121,1.81959331,-0.300836146,0.519735038,-0.228225112,-61,-31,-25,20,158
1695162284878513600,-8.499416351,-3.945644379,0.107739076,-0.956067383,0.274189889,-0.471771836,4,21,12,28,13,-10.27351952,4.887762547,1.786074519,-0.351197541,0.496153146,-0.191852987,-60,-33,-33,21,158
1695162284911492300,-6.627150536,-2.293645144,0.604535937,-0.039303213,0.461379766,-0.796856046,5,20,19,26,13,-9.40681839,3.318363667,1.053448796,-0.538120985,-0.250341505,0.773274124,-60,-34,-29,24,160
1695162284912492300,-6.588842869,-2.205059767,0.620098233,-0.053292494,0.456716686,-0.822836161,1,21,19,27,13,-9.386467934,3.257311344,1.037886381,-0.504946411,-0.289111793,0.833361447,-63,-33,-31,22,160
1695162284913492300,-6.551733017,-2.128445387,0.63326633,-0.070479326,0.450188369,-0.849215925,4,22,12,26,13,-9.381679535,3.202244759,1.010353088,-0.469906569,-0.327615619,0.893182218,-62,-34,-31,20,158
1695162284914492300,-6.525396824,-2.043451071,0.645237386,-0.09246248,0.441661566,-0.875329256,2,26,12,29,15,-9.382876396,3.165134668,0.990002394,-0.445658505,-0.353462487,0.93288517,-60,-33,-28,18,161
1695162284915492300,-6.508637428,-1.966836691,0.654814184,-0.118709028,0.431269497,-0.901842296,0,25,16,29,14,-9.379284859,3.106476784,0.9660604,-0.4082205,-0.391966313,0.992705941,-63,-34,-29,26,160
1695162284948474500,-7.65785408,-0.829590917,0.199915841,-0.935016811,-0.133098006,-1.38480556,1,22,19,24,13,-9.549273491,2.71263051,0.77931267,0.220497698,-0.864670753,1.94357729,-60,-33,-29,22,158
1695162284949474500,-7.793126583,-0.78170687,0.161608621,-0.981647789,-0.180395097,-1.406255722,8,24,15,27,13,-9.544485092,2.709039211,0.768538773,0.235419586,-0.875462472,1.973554254,-63,-34,-30,19,160
1695162284950474500,-7.937975883,-0.736217022,0.126892686,-1.027079582,-0.228225112,-1.426107168,-1,23,15,27,13,-9.542090416,2.701856613,0.758961916,0.248343036,-0.884788632,2.001399517,-60,-34,-25,21,160
1695162284951474500,-8.086416245,-0.694318473,0.08379706,-1.071845293,-0.27632159,-1.445292473,5,21,15,27,13,-9.536105156,2.699462414,0.758961916,0.259267986,-0.892782509,2.02671361,-60,-33,-29,24,157
1695162284952474500,-8.287528992,-0.645237386,0.037110128,-1.129934072,-0.340938747,-1.466476321,3,23,17,28,14,-9.519346237,2.692279816,0.752976418,0.268860638,-0.899310887,2.04962945,-60,-34,-30,24,158
1695162284998446200,-10.44829655,-1.175553083,-0.336385339,-1.761583447,-0.917297065,-1.143523693,6,22,18,27,14,-8.832210541,2.60010314,0.790086567,0.170669213,-0.675882041,2.058955669,-60,-33,-31,24,157
1695162284999446200,-10.41357994,-1.276109457,-0.329202741,-1.779702902,-0.915964782,-1.086767197,2,25,16,27,14,-8.781931877,2.590526342,0.792480767,0.152416542,-0.646437943,2.040036678,-60,-33,-25,22,160
1695162285000446200,-10.36090755,-1.386242747,-0.313640416,-1.794624805,-0.910102606,-1.026946425,0,22,16,28,14,-8.731653214,2.577358246,0.805648863,0.134030625,-0.615928054,2.020185232,-62,-33,-27,23,161
1695162285001446200,-10.29267311,-1.497573137,-0.29688102,-1.806349158,-0.899710536,-0.964460909,0,25,17,30,13,-8.692149162,2.574964046,0.815225661,0.114578865,-0.583952546,1.999268055,-60,-34,-29,24,154
1695162285002446200,-10.20169353,-1.610100627,-0.278924495,-1.814476252,-0.884788632,-0.899710536,4,26,17,26,14,-8.650250435,2.573766708,0.821211159,0.092995405,-0.550911188,1.976751924,-59,-34,-27,22,160
1695162285049414100,-7.371747017,-3.23336935,0.567425787,-1.087566614,0.147620216,0.14282389,1,22,20,28,13,-8.207323074,2.430114746,0.969651699,-0.472437978,0.065816231,1.425174475,-60,-35,-29,22,161
1695162285050414100,-7.264008045,-3.258508444,0.615309834,-1.005096555,0.223029092,0.167604893,4,23,19,30,14,-8.200140953,2.41335535,0.975637197,-0.507078111,0.089398161,1.395330787,-60,-32,-25,24,158
1695162285051414100,-7.201758862,-3.270479441,0.646434486,-0.948606431,0.272591114,0.182127118,2,25,13,28,13,-8.191761017,2.398990154,0.980425596,-0.541584969,0.111514546,1.366019845,-61,-34,-32,25,158
1695162285052414100,-7.119158745,-3.284844637,0.693121374,-0.861739695,0.346001506,0.200912714,4,27,17,28,14,-8.186972618,2.381033659,0.982819796,-0.57555896,0.132032156,1.336842299,-61,-34,-29,21,156
1695162285053414100,-7.044938564,-3.293224335,0.738611221,-0.773007691,0.41754669,0.21663399,0,19,13,26,14,-8.185775757,2.361880064,0.979228497,-0.608866811,0.151084229,1.308197618,-60,-32,-25,23,157
1695162285090389800,-7.378929615,-2.276885748,0.790086567,0.567831576,1.011491537,0.265796334,5,21,15,28,14,-8.44554615,1.796848416,0.858321309,-0.943010688,0.273656964,0.825900435,-60,-34,-29,22,157
1695162285091389800,-7.457938194,-2.188300371,0.770932972,0.599274099,0.997102618,0.269526809,6,23,16,25,14,-8.459911346,1.778891921,0.85353291,-0.943143904,0.271392047,0.810578883,-60,-31,-29,22,154
1695162285092389800,-7.541735172,-2.099714994,0.758961916,0.62538743,0.97805047,0.274189889,3,25,15,27,14,-8.485051155,1.754949808,0.848744512,-0.942344546,0.267528325,0.787796319,-60,-34,-24,20,160
1695162285093389800,-7.631517887,-2.014720678,0.741005421,0.646038294,0.954735041,0.279785603,6,23,16,27,14,-8.506598473,1.728613615,0.841561913,-0.939679921,0.263131708,0.76514703,-60,-34,-29,21,162
1695162285094389800,-7.721300602,-1.9333179,0.725443125,0.661493123,0.927555919,0.286447167,4,25,16,26,15,-8.531737328,1.705868721,0.831985116,-0.935549796,0.258202136,0.742497683,-60,-34,-29,22,158
1695162285133365400,-9.080010414,-1.045069098,0.385466486,0.337874413,0.06981317,0.496552825,3,29,19,26,14,-8.905233383,1.467645645,0.713472128,-0.588349164,0.120174579,0.292975485,-60,-34,-28,21,160
1695162285134365400,-9.114726067,-1.027112484,0.359130263,0.300036758,0.021983154,0.508676887,6,19,14,28,14,-8.918401718,1.472434044,0.711077929,-0.561702907,0.113912709,0.270059735,-61,-33,-31,24,162
1695162285135365400,-9.142259598,-1.013944387,0.33279404,0.260733545,-0.023981623,0.520401239,4,23,17,28,15,-8.931569099,1.483207941,0.709880829,-0.535056651,0.10805054,0.247143939,-61,-33,-32,22,161
1695162285136365400,-9.167398453,-1.007958889,0.306457818,0.220231235,-0.068214394,0.531992376,0,23,16,25,14,-8.938752174,1.490390539,0.70509243,-0.517470121,0.104320064,0.231955588,-59,-34,-25,22,161
1695162285137365400,-9.18894577,-1.00317049,0.278924495,0.17866309,-0.110182241,0.543183744,4,25,16,28,14,-8.950722694,1.503558636,0.701501071,-0.490823895,0.098990813,0.209439516,-60,-36,-28,22,157
1695162285186335000,-8.953117371,-1.550245643,0.087388359,-0.602604926,-0.335076571,0.756087303,1,23,13,26,14,-9.334992409,1.965639591,0.738611221,-0.076874427,0.035572741,-0.189987749,-61,-33,-29,22,160
1695162285187335000,-8.935160637,-1.583764434,0.086191259,-0.619392037,-0.322286367,0.763681471,-1,21,18,28,14,-9.3685112,2.002749681,0.750582218,-0.065549769,0.033174578,-0.210638598,-58,-34,-28,23,162
1695162285188335000,-8.902838707,-1.63643682,0.087388359,-0.641641676,-0.300836146,0.775006115,1,20,20,26,14,-9.402029991,2.039859772,0.758961916,-0.055424199,0.030376723,-0.231289431,-60,-34,-29,22,155
1695162285189335000,-8.874108315,-1.690306425,0.092176765,-0.660560489,-0.276454836,0.786330819,2,26,16,26,14,-9.437943459,2.081758261,0.768538773,-0.046764165,0.027445635,-0.25194028,-59,-31,-25,21,160
1695162285190335000,-8.847772598,-1.742978811,0.096965171,-0.676015317,-0.249675348,0.796989322,0,21,15,23,13,-9.472659111,2.120065689,0.772130072,-0.039303213,0.023981623,-0.272591114,-61,-34,-29,24,160
1695162285229310700,-8.713697433,-2.63721323,0.089782566,-0.27845329,0.437398165,0.974986196,5,25,16,28,14,-9.856928825,2.584540844,0.746990919,-0.059554365,-0.088865243,-0.583153129,-54,-33,-28,24,160
1695162285230310700,-8.72806263,-2.665943623,0.074220255,-0.2290245,0.467241943,0.986444116,3,23,16,30,14,-9.858125687,2.588132143,0.741005421,-0.061286367,-0.09352833,-0.588748872,-60,-32,-28,22,156
1695162285231310700,-8.743624687,-2.691082716,0.05865794,-0.178396642,0.494820833,0.998168409,0,23,13,25,13,-9.862914085,2.591723442,0.733822823,-0.062885143,-0.100722812,-0.596476257,-59,-32,-27,22,159
1695162285232310700,-8.757989883,-2.711433411,0.031124622,-0.126836136,0.519735038,1.009892821,1,23,13,24,14,-9.866505623,2.594117641,0.714669228,-0.063684531,-0.108183771,-0.603271008,-60,-33,-27,24,157
1695162285233310700,-8.777143478,-2.729389906,0.0,-0.07474272,0.541984677,1.021750331,4,25,15,27,11,-9.868899345,2.592920542,0.701501071,-0.063684531,-0.115378261,-0.609133244,-59,-33,-28,24,156
1695162285269287800,-9.380482674,-2.664746523,-0.432153404,0.789261878,0.557839215,1.18162787,4,18,13,25,14,-9.569623947,2.433706045,0.439336002,0.199580401,-0.221297085,-0.57555896,-60,-36,-25,22,158
1695162285270287800,-9.427168846,-2.63721323,-0.453701228,0.828698277,0.545581937,1.185891271,0,18,12,29,13,-9.539696693,2.430114746,0.432153404,0.225693718,-0.222229704,-0.569563508,-60,-31,-24,26,161
1695162285271287800,-9.481039047,-2.606088638,-0.476446152,0.866535962,0.532525241,1.188955665,4,21,14,25,11,-9.513360023,2.424129248,0.427365005,0.252473205,-0.222629398,-0.563168406,-60,-34,-29,25,154
1695162285272287800,-9.544485092,-2.570175409,-0.490811348,0.902641654,0.519202113,1.191087365,2,22,19,28,14,-9.488221169,2.422932148,0.418985307,0.279785603,-0.22236295,-0.556906581,-59,-33,-23,26,160
1695162285273287800,-9.613917351,-2.527079821,-0.512359142,0.936882079,0.505612552,1.191886663,-1,21,15,28,14,-9.470264435,2.421735048,0.420182407,0.298038274,-0.221963242,-0.55264318,-61,-34,-25,25,160
1695162285322257200,-11.63941193,-1.987187386,-0.696712673,1.160577416,0.290177643,1.087166905,-1,19,10,27,13,-9.173383713,2.71263051,0.563834488,0.661759555,-0.152283311,-0.488825411,-60,-34,-23,17,157
1695162285323257200,-11.64060879,-1.993172884,-0.685938776,1.158179164,0.288312376,1.082637072,2,17,17,27,14,-9.162610054,2.728192806,0.572214186,0.668021441,-0.148552835,-0.489624798,-60,-33,-30,19,157
1695162285324257200,-11.62504673,-2.006340981,-0.682347476,1.155248165,0.287646264,1.078373671,4,23,15,27,14,-9.155426979,2.743755102,0.581790984,0.672950983,-0.144822344,-0.490690649,-60,-35,-27,25,161
1695162285325257200,-11.58434486,-2.021903276,-0.682347476,1.151784062,0.288312376,1.073976994,0,19,12,27,14,-9.147047997,2.760514498,0.590170741,0.677081168,-0.141491577,-0.492022961,-60,-31,-29,19,158
1695162285326257200,-11.52568722,-2.038662672,-0.682347476,1.147787094,0.290444106,1.069180727,-1,21,16,28,14,-9.137471199,2.776076794,0.59495914,0.680012286,-0.138560489,-0.493754983,-59,-33,-29,24,158
1695162285362258000,-8.960299492,-1.996764183,-0.895431459,1.021750331,0.420611024,0.718249619,1,25,17,26,14,-8.953117371,3.021482468,0.687135875,0.600206733,-0.131632462,-0.542650819,-60,-36,-30,20,160
1695162285363258000,-8.877699852,-1.952471495,-0.919373453,1.015621662,0.426206738,0.677880526,-1,21,14,25,11,-8.943540573,3.031059265,0.685938776,0.59314549,-0.132831544,-0.544249594,-61,-34,-34,22,160
1695162285364258000,-8.811859131,-1.906981707,-0.940921247,1.00922668,0.430869848,0.634846866,0,22,16,28,13,-8.931569099,3.033453465,0.681150377,0.586350679,-0.133897394,-0.545715153,-60,-31,-25,21,160
1695162285365258000,-8.759186745,-1.850717902,-0.9660604,1.00243187,0.434467077,0.588615596,1,21,13,26,14,-8.919598579,3.035847664,0.675164878,0.579955578,-0.135229707,-0.54691422,-61,-34,-28,21,155
1695162285366258000,-8.723274231,-1.788468719,-0.986411095,0.995104134,0.436732024,0.539586544,4,26,13,28,12,-8.906430244,3.041833162,0.671573579,0.573693693,-0.136295557,-0.547580421,-60,-34,-28,24,159
1695162285399216300,-10.41357994,-0.459686726,-1.649604917,0.640975475,0.177730486,-0.433134764,-1,22,15,29,14,-8.656236649,3.096899986,0.603338838,0.568231225,-0.137894332,-0.497485459,-60,-32,-28,22,161
1695162285400216300,-10.53448772,-0.401028782,-1.695094824,0.605136335,0.152150065,-0.472571194,-1,21,12,29,14,-8.647856712,3.101688385,0.602141738,0.572228134,-0.136695251,-0.491623253,-57,-34,-29,26,158
1695162285401216300,-10.64940929,-0.347159237,-1.735796213,0.567831576,0.126303226,-0.509343028,1,23,13,27,14,-8.638279915,3.113659382,0.59615624,0.576358318,-0.135229707,-0.485494643,-60,-33,-29,21,159
1695162285402216300,-10.75235939,-0.29688102,-1.776497602,0.52932775,0.100989282,-0.543450236,1,25,16,25,14,-8.634688377,3.11964488,0.599747539,0.579022944,-0.134163857,-0.481231242,-61,-34,-29,20,157
1695162285403216300,-10.84214211,-0.253785372,-1.811213613,0.489891261,0.075941809,-0.57449311,3,25,14,29,13,-8.623914719,3.129221678,0.602141738,0.583019912,-0.132698312,-0.474702895,-60,-32,-29,31,160
1695162285441189400,-10.24957752,-0.14724341,-2.651578426,-0.234620214,-0.359857589,-0.616194487,0,22,21,26,14,-8.518569946,3.357867956,0.768538773,0.618859112,-0.084735066,-0.301635504,-60,-33,-28,22,157
1695162285442189400,-10.12388229,-0.116118781,-2.71263051,-0.27059263,-0.381707519,-0.612730443,4,19,23,29,11,-8.513781548,3.366247654,0.785298169,0.618459463,-0.080471672,-0.289911181,-60,-33,-27,21,160
1695162285443189400,-9.99100399,-0.074220255,-2.771288395,-0.306298614,-0.402891248,-0.611931086,8,25,25,30,14,-8.507795334,3.372233152,0.800860465,0.617926478,-0.076075032,-0.277920365,-60,-32,-24,27,160
1695162285444189400,-9.856928825,-0.035913024,-2.827552319,-0.341604888,-0.422609508,-0.61392951,4,21,24,18,13,-8.500613213,3.372233152,0.815225661,0.618059695,-0.071411945,-0.265663087,-59,-34,-31,20,160
1695162285445189400,-9.764751434,-0.005985504,-2.864662409,-0.364653885,-0.435133219,-0.616860628,4,19,25,29,14,-8.489839554,3.375824451,0.830788016,0.618192911,-0.066882081,-0.253139347,-60,-34,-29,20,157
1695162285492160800,-7.851784706,0.715866327,-3.034650564,-0.928754985,-0.258868307,-1.077973962,5,23,36,29,14,-8.409633636,3.276464939,0.896628559,0.714785576,-0.07794027,0.053692192,-60,-31,-25,26,160
1695162285493160800,-7.825448036,0.715866327,-3.01190567,-0.950871348,-0.220231235,-1.103421092,10,21,37,30,13,-8.4012537,3.27167654,0.901416957,0.726243496,-0.084468603,0.072477795,-62,-32,-25,24,158
1695162285494160800,-7.803900242,0.718260527,-2.977189779,-0.971522212,-0.180395097,-1.126869917,9,29,39,33,8,-8.391676903,3.268085241,0.906205356,0.737967849,-0.090996936,0.090863705,-60,-31,-25,26,157
1695162285495160800,-7.793126583,0.714669228,-2.943670988,-0.9905743,-0.139359877,-1.148053527,9,26,35,28,14,-8.384494781,3.266888142,0.903811157,0.749825478,-0.0976585,0.109649308,-61,-34,-28,21,158
1695162285496160800,-7.787140846,0.712275028,-2.913743496,-1.008427262,-0.097125575,-1.166439533,10,26,40,31,14,-8.377311707,3.268085241,0.909796655,0.761416554,-0.104186833,0.128301695,-60,-34,-28,25,158
1695162285533137800,-8.590395927,0.647631586,-2.814383984,-1.039203644,0.521200597,-1.065716743,16,26,39,34,15,-8.31865406,3.365050554,1.063025594,0.856943309,-0.165606424,0.413816214,-60,-34,-29,20,159
1695162285534137800,-8.646659851,0.642843127,-2.828749418,-1.026946425,0.53079325,-1.042934179,4,29,39,32,13,-8.323442459,3.368641853,1.065419793,0.8544119,-0.166938737,0.422875971,-62,-33,-25,18,160
1695162285535137800,-8.702922821,0.639251828,-2.850297213,-1.01388967,0.537321568,-1.019085765,16,24,40,32,14,-8.329427719,3.372233152,1.065419793,0.851614058,-0.16827105,0.431535989,-60,-33,-29,21,161
1695162285536137800,-8.753201485,0.63326633,-2.871845007,-1.000033736,0.540785611,-0.994571209,5,25,36,32,14,-8.328230858,3.374627352,1.069011092,0.848150074,-0.169203669,0.43939665,-61,-32,-27,25,160
1695162285537137800,-8.803479195,0.63206923,-2.893392801,-0.985511482,0.540918827,-0.969390512,9,22,38,31,15,-8.323442459,3.379415751,1.065419793,0.844153166,-0.169736609,0.446857601,-61,-33,-24,16,160
1695162285636452100,-9.532513618,-1.083376288,-2.173935175,0.104986221,-0.296306252,0.618859112,8,27,75,34,15,-7.829039574,4.04979229,0.009576807,0.998434901,0.019718224,0.390634,-59,-32,-25,22,158
1695162285637452100,-9.544485092,-1.097741485,-2.189497471,0.107917301,-0.309229732,0.61392951,5,26,75,32,14,-7.856573105,4.042609692,0.01316811,0.972454786,0.016520673,0.396496177,-60,-31,-26,24,161
1695162285638452100,-9.556455612,-1.109712481,-2.202665567,0.111248083,-0.322019905,0.608866811,0,30,75,31,16,-7.886500359,4.034229755,0.009576807,0.944875956,0.011724349,0.401159286,-60,-31,-28,22,161
1695162285639452100,-9.567230225,-1.121683478,-2.214636564,0.114978559,-0.334543616,0.603271008,7,31,77,32,14,-7.918822289,4.022258759,0.002394202,0.915831506,0.005462481,0.40462327,-59,-33,-31,26,161
1695162285640452100,-9.572018623,-1.121683478,-2.22900176,0.118575804,-0.346667677,0.597275674,4,30,79,34,14,-7.94994688,4.0114851,-0.001197101,0.885055125,-0.0021317,0.406488538,-60,-31,-27,20,161
1695162285712383500,-9.526528358,-1.253364563,-2.464830637,0.15841195,-0.442061275,0.386370599,5,49,74,34,23,-8.422801971,3.60327363,-0.40940848,0.226759583,-0.258868307,0.223162323,-60,-31,-28,25,160
1695162285713383500,-9.528923035,-1.259350061,-2.469619036,0.161609486,-0.442594171,0.374379784,4,46,75,32,14,-8.428787231,3.578134537,-0.448912829,0.19838132,-0.270192951,0.202777937,-58,-31,-25,25,162
1695162285714383500,-9.519346237,-1.272518158,-2.470816135,0.164407358,-0.442594171,0.362388968,8,50,73,32,15,-8.43357563,3.550601006,-0.48243165,0.172001526,-0.280584991,0.181460962,-60,-32,-28,29,161
1695162285715383500,-9.52173996,-1.284489155,-2.479195833,0.168670759,-0.442993879,0.350931078,4,47,72,35,14,-8.440757751,3.527856112,-0.518344641,0.147220522,-0.289777964,0.159211323,-60,-34,-25,26,161
1695162285716383500,-9.531316757,-1.292868972,-2.486378431,0.173600301,-0.443926483,0.33973965,8,47,73,30,14,-8.44554615,3.506308317,-0.547075093,0.124437973,-0.297771841,0.135895863,-60,-31,-25,24,165
1695162285799336300,-9.461885452,-1.315613866,-2.410961151,0.367451757,-0.436065853,0.120441042,4,37,59,32,14,-8.565256119,3.489548922,-0.956483603,0.036638591,-0.251140893,-0.333611012,-59,-34,-27,24,160
1695162285800336300,-9.447520256,-1.308431268,-2.398990154,0.379575789,-0.434200615,0.106451757,6,37,60,32,13,-8.588001251,3.517082214,-0.969651699,0.044232771,-0.240615621,-0.353462487,-58,-32,-34,26,160
1695162285801336300,-9.430760384,-1.30124867,-2.384624958,0.391300142,-0.431935668,0.092329249,8,34,58,30,15,-8.614337921,3.548206806,-0.987608194,0.051826954,-0.229424208,-0.37238133,-60,-34,-27,27,160
1695162285802336300,-9.41280365,-1.292868972,-2.372653961,0.402624816,-0.429271042,0.07794027,9,35,58,31,14,-8.641871452,3.582922935,-1.001973391,0.059421133,-0.218232766,-0.390767217,-59,-34,-29,25,154
1695162285803336300,-9.393650055,-1.288080573,-2.361880064,0.413682997,-0.426339954,0.062885143,5,34,58,29,14,-8.672995567,3.622427225,-1.012747288,0.066615619,-0.207174569,-0.408620209,-60,-31,-28,26,161
1695162285856302100,-9.270348549,-1.092953086,-2.248155355,0.468041331,-0.281784087,-0.228358343,1,38,57,30,17,-9.479841232,4.649539471,-1.021126986,0.034506891,-0.029710567,-0.591946423,-58,-34,-27,26,162
1695162285857302100,-9.271546364,-1.082179189,-2.244564056,0.461779475,-0.273390502,-0.243813157,9,32,57,34,14,-9.519346237,4.699818134,-1.012747288,0.021183766,-0.023981623,-0.590214431,-60,-32,-26,24,164
1695162285858302100,-9.271546364,-1.073799491,-2.243366957,0.454851478,-0.265130162,-0.259134769,4,33,58,34,14,-9.544485092,4.738125324,-1.012747288,0.011591119,-0.020117918,-0.58848238,-60,-31,-25,26,160
1695162285859302100,-9.273940086,-1.066616893,-2.244564056,0.447124034,-0.257402748,-0.274456352,5,33,58,32,14,-9.582792282,4.786009312,-1.016338587,-0.003597243,-0.014655436,-0.584751964,-61,-29,-28,24,160
1695162285860302100,-9.278728485,-1.058237195,-2.242169857,0.438863724,-0.249808565,-0.289644688,17,33,58,29,14,-9.616311073,4.83509016,-1.022324085,-0.019451762,-0.009192956,-0.579289377,-59,-33,-25,27,161
1695162285914267800,-9.45111084,-0.968454599,-2.209848166,0.282983154,-0.187189892,-0.576225102,5,35,58,30,14,-9.940725327,5.20020628,-0.782903969,-0.396629393,0.122972436,-0.115911178,-60,-33,-31,24,158
1695162285915267800,-9.461885452,-0.962469101,-2.212242365,0.277787149,-0.187323123,-0.591813207,8,33,54,33,15,-9.931148529,5.176264286,-0.760159016,-0.413150072,0.131632462,-0.073676877,-59,-28,-27,22,161
1695162285916267800,-9.470264435,-0.951695204,-2.213439465,0.27272436,-0.187856048,-0.607267976,5,33,55,31,14,-9.919178009,5.147533417,-0.738611221,-0.428071976,0.13975957,-0.029977029,-62,-34,-34,22,162
1695162285917267800,-9.481039047,-0.940921247,-2.212242365,0.267928004,-0.188522205,-0.622856021,6,33,54,32,15,-9.909601212,5.118803024,-0.719457626,-0.441395104,0.147220522,0.014921899,-60,-34,-31,20,164
1695162285918267800,-9.490615845,-0.92895025,-2.217030764,0.263264924,-0.18905513,-0.63831085,6,33,56,30,14,-9.902418137,5.098452568,-0.708683729,-0.449388951,0.151750386,0.045298621,-59,-29,-24,23,162
1695162285960241400,-9.543288231,-0.657208383,-2.274491549,0.156413481,-0.162675351,-0.893448651,0,32,56,27,14,-9.777919769,4.242525578,-0.081402861,-0.288445652,0.129500762,0.943543673,-60,-31,-27,22,162
1695162285961241400,-9.557653427,-0.641646028,-2.280477047,0.148419604,-0.158545166,-0.906105638,4,31,53,32,3,-9.775525093,4.205415249,-0.04309563,-0.271125585,0.120574266,0.982980072,-59,-31,-27,25,161
1695162285962241400,-9.569623947,-0.623689532,-2.285265446,0.140292495,-0.154148534,-0.918762624,4,30,52,31,14,-9.775525093,4.171896458,-0.002394202,-0.25447166,0.111248083,1.021617174,-55,-32,-25,27,164
1695162285963241400,-9.58638382,-0.611718535,-2.298433542,0.131632462,-0.149885148,-0.931286395,1,32,53,29,12,-9.777919769,4.150348663,0.022744916,-0.243813157,0.104719758,1.046797872,-59,-32,-27,26,163
1695162285964241400,-9.603142738,-0.598550439,-2.30681324,0.122839205,-0.145488501,-0.943676889,5,32,55,32,13,-9.779116631,4.121618271,0.05865794,-0.228358343,0.094061248,1.083702922,-60,-29,-28,25,162
1695162286005216000,-9.481039047,-0.486022949,-2.171540976,-0.047430322,-0.027045943,-1.120341539,1,29,55,29,14,-9.443928719,3.444059134,0.51954174,-0.055557426,-0.144289434,1.609033704,-60,-37,-29,25,160
1695162286006216000,-9.453505516,-0.487220049,-2.15597868,-0.054758042,-0.018918836,-1.126869917,2,31,55,28,12,-9.40681839,3.404554844,0.524330199,-0.052093416,-0.155214384,1.624355316,-60,-29,-27,25,162
1695162286007216000,-9.421183586,-0.486022949,-2.140416384,-0.062218986,-0.01079173,-1.133264899,-1,32,53,30,13,-9.369708061,3.365050554,0.527921498,-0.048762634,-0.165872887,1.638344646,-60,-33,-27,24,160
1695162286008216000,-9.386467934,-0.487220049,-2.124854088,-0.069679938,-0.002398162,-1.138993859,0,29,55,30,12,-9.33020401,3.327940464,0.532709897,-0.045565084,-0.176131696,1.650868297,-60,-34,-25,26,153
1695162286009216000,-9.350554466,-0.48482585,-2.114080191,-0.07714089,0.005862175,-1.144456267,-1,31,58,29,14,-9.293093681,3.290830135,0.537498295,-0.042633995,-0.185857579,1.662059665,-59,-30,-29,25,158
1695162286052192000,-8.834604263,-0.417788208,-1.714248419,-0.251140893,0.120041348,-1.18482542,1,30,55,32,14,-8.501810074,2.597708941,0.434547603,0.04623124,-0.285781026,1.595044374,-58,-32,-23,25,161
1695162286053192000,-8.821435928,-0.418985307,-1.681926727,-0.261133224,0.12337213,-1.182294011,2,32,55,30,14,-8.469488144,2.576161146,0.429759204,0.053958651,-0.285381317,1.577857494,-60,-36,-28,28,156
1695162286054192000,-8.803479195,-0.423773706,-1.648407817,-0.270725876,0.126569673,-1.178830028,1,31,55,29,12,-8.435969353,2.559401512,0.430956304,0.061686065,-0.284715146,1.559072018,-60,-30,-25,24,161
1695162286055192000,-8.790311813,-0.426167905,-1.629254222,-0.276854515,0.128701374,-1.176032066,2,30,55,29,11,-8.419210434,2.546233416,0.426167905,0.06674885,-0.283915788,1.545615554,-60,-34,-30,22,158
1695162286056192000,-8.771158218,-0.429759204,-1.594538331,-0.285914242,0.131765693,-1.170836091,0,32,53,30,13,-8.385691643,2.523488522,0.426167905,0.074476264,-0.282716691,1.524431825,-60,-33,-25,21,157
1695162286092165600,-9.339780807,-0.319625914,-1.069011092,-0.420477778,0.119375192,-0.850414991,1,27,52,28,11,-8.167819023,2.360682964,0.222660765,0.189854518,-0.304033697,0.885188341,-59,-30,-25,26,162
1695162286093165600,-9.416395187,-0.294486821,-1.061828494,-0.435000002,0.106584989,-0.822036743,6,31,54,28,13,-8.173804283,2.359485865,0.207098454,0.191719756,-0.312027574,0.843886673,-59,-33,-26,26,159
1695162286094165600,-9.491812706,-0.269347697,-1.057040095,-0.451254189,0.091929555,-0.792192936,-1,31,51,30,14,-8.185775757,2.363077164,0.18674773,0.192918837,-0.320687592,0.802052021,-60,-34,-27,22,160
1695162286095165600,-9.563638687,-0.246602774,-1.053448796,-0.469107211,0.076075032,-0.761016846,2,28,55,29,13,-8.196549416,2.369062662,0.16639702,0.193584993,-0.330280244,0.759817779,-59,-34,-25,28,160
1695162286096165600,-9.628282547,-0.229843363,-1.057040095,-0.488558948,0.058754977,-0.728108704,1,29,47,29,13,-8.204929352,2.37744236,0.141257897,0.193851456,-0.340405822,0.717316985,-60,-32,-25,25,161
1695162286131146400,-8.526948929,-1.454477549,-0.499191046,-0.730640113,-0.205842257,0.207441032,0,31,52,30,11,-8.469488144,2.689885616,-0.326808542,0.110981621,-0.542650819,-0.073410407,-59,-31,-24,27,158
1695162286132146400,-8.426392555,-1.587355733,-0.429759204,-0.706658483,-0.201045945,0.267928004,0,32,48,30,12,-8.481459618,2.709039211,-0.359130263,0.105652377,-0.548512995,-0.110848397,-60,-33,-23,26,162
1695162286133146400,-8.329427719,-1.719036818,-0.359130263,-0.677081168,-0.19425115,0.328415006,-1,31,52,29,13,-8.492233276,2.725798607,-0.395043284,0.100989282,-0.55370903,-0.147620216,-60,-34,-26,26,160
1695162286134146400,-8.245630264,-1.851915002,-0.284909993,-0.642041326,-0.185591117,0.388901979,2,32,48,30,12,-8.503006935,2.743755102,-0.430956304,0.097258806,-0.558238924,-0.18385911,-60,-33,-29,24,160
1695162286135146400,-8.173804283,-1.976413488,-0.219069451,-0.601672292,-0.174799383,0.449388951,5,30,47,29,14,-8.507795334,2.759317398,-0.459686726,0.094460949,-0.561836123,-0.219298616,-60,-32,-24,24,162
1695162286176142100,-8.986636162,-3.503914118,1.030703783,0.86586982,0.092862174,1.495387435,1,28,41,29,14,-8.188169479,3.368641853,-0.666785181,0.154947937,-0.430470139,-0.725577295,-59,-32,-24,27,161
1695162286177142100,-9.085995674,-3.56616354,1.092953086,0.968324661,0.100989282,1.549745798,-1,30,41,29,13,-8.161833763,3.412934542,-0.647631586,0.156546697,-0.411551297,-0.738767207,-60,-31,-27,26,162
1695162286178142100,-9.15063858,-3.60447073,1.132457376,1.037871361,0.105785601,1.586117864,1,30,40,26,11,-8.134300232,3.454833031,-0.627280831,0.157479316,-0.391300142,-0.750225127,-59,-32,-25,29,157
1695162286179142100,-9.24760437,-3.653551817,1.18872118,1.142457843,0.112180702,1.640875936,0,28,41,27,12,-8.111555099,3.49673152,-0.603338838,0.157212853,-0.36984992,-0.760084212,-59,-32,-24,24,162
1695162286180142100,-9.33618927,-3.695450306,1.246181965,1.246911168,0.117376715,1.695367575,0,31,41,28,13,-8.088809967,3.538630009,-0.574608386,0.155747324,-0.347333819,-0.768078089,-60,-34,-25,25,156
1695162286211101200,-8.110358238,-1.066616893,0.20470424,-0.832695246,-0.4784334,0.333611012,-7,19,24,25,12,-7.808688641,3.11964488,1.365892053,0.25087443,-0.20624195,0.689738154,-60,-31,-25,24,162
1695162286212101200,-8.098387718,-1.07739079,0.171185419,-0.862139344,-0.485494643,0.337208271,-11,17,25,20,14,-7.815871239,3.112462282,1.37427175,0.242480844,-0.192119434,0.678946435,-60,-33,-24,26,159
1695162286213101200,-8.087613106,-1.088164687,0.135272399,-0.890784025,-0.492289424,0.341738135,-12,19,23,26,10,-7.821856976,3.104082584,1.387439847,0.234353751,-0.178396642,0.667888165,-60,-33,-28,21,161
1695162286214101200,-8.080430984,-1.098938584,0.10055647,-0.918362916,-0.498684525,0.347067386,-11,19,24,22,11,-7.829039574,3.099294186,1.404199243,0.226626337,-0.16467382,0.656963229,-62,-32,-28,17,160
1695162286215101200,-8.085219383,-1.110909581,0.070628949,-0.945275664,-0.504813194,0.353062779,-6,21,25,23,13,-7.833827972,3.096899986,1.422155857,0.219431862,-0.151084229,0.645905018,-61,-31,-31,20,161
1695162286249099700,-8.372523308,-1.762132406,0.029927522,0.788062811,0.450188369,0.381441027,-9,18,19,19,12,-7.607575893,3.286041737,1.868674397,0.497485459,0.246344566,0.188788652,-60,-34,-25,25,166
1695162286250099700,-8.412027359,-1.798045516,0.057460841,0.792725861,0.438464016,0.424874425,-10,19,19,27,11,-7.635109425,3.317166567,1.895010591,0.479765713,0.252206743,0.160943344,-57,-30,-25,28,161
1695162286251099700,-8.458714485,-1.836352706,0.086191259,0.79778862,0.427006125,0.468707502,-11,19,19,26,12,-7.663839817,3.348291159,1.920149803,0.46018073,0.258202136,0.132165387,-60,-31,-24,24,161
1695162286252099700,-8.497021675,-1.880645394,0.116118781,0.803917289,0.41608116,0.512940288,-7,19,22,24,12,-7.69855547,3.378218651,1.944091797,0.438996941,0.264330775,0.102721281,-60,-31,-25,26,162
1695162286253099700,-8.541314125,-1.9321208,0.14724341,0.81031245,0.405422658,0.557173014,-12,21,17,23,11,-7.732074261,3.408146143,1.966836691,0.416347623,0.27059263,0.072477795,-60,-29,-25,28,161
1695162286286056200,-1.030703783,-9.591172218,-0.969651699,-0.174266458,-0.20824042,-0.086866774,-1,-7,121,67,14,-9.993397713,3.791218281,-0.280121595,-1.516837597,0.405022949,-0.502947927,-60,-31,-25,26,162
1695162286287056200,-1.00436759,-9.607931137,-0.973242998,-0.175199077,-0.200779468,-0.086600304,-1,-3,121,67,17,-10.04367638,3.781641483,-0.286107093,-1.508044362,0.395430326,-0.489891261,-59,-31,-34,26,164
1695162286288056200,-0.975637197,-9.622296333,-0.972045898,-0.175865233,-0.193318531,-0.085667685,-1,-4,118,63,15,-10.0855751,3.766079187,-0.29568392,-1.497385859,0.385571182,-0.475901991,-59,-33,-27,30,161
1695162286289056200,-0.948103845,-9.641449928,-0.970848799,-0.176264927,-0.185591117,-0.084735066,-1,-5,120,70,15,-10.12029076,3.750516891,-0.307654917,-1.484995365,0.375578851,-0.461113334,-57,-31,-28,26,162
1695162286290056200,-0.924161851,-9.652224541,-0.973242998,-0.176398173,-0.177863702,-0.083402753,-1,-4,119,63,15,-10.14662647,3.736151695,-0.314837515,-1.470872879,0.365986198,-0.445525289,-55,-28,-27,29,161
1695162286325032900,-7.939172745,-2.60010314,-1.039083481,-0.199580401,0.256070435,0.372781008,-5,0,1,27,10,-8.525752068,4.167108059,0.162805721,0.125237361,0.082869835,0.235153139,-72,-41,-37,10,151
1695162286326032900,-8.058882713,-2.621650934,-1.019929886,-0.148552835,0.277920365,0.386370599,-3,0,0,25,8,-8.524555206,4.163516521,0.173579618,0.121773355,0.08513476,0.236885145,-73,-43,-37,13,151
1695162286327032900,-8.183381081,-2.650381327,-1.011550188,-0.096859112,0.296705961,0.401425719,-17,-12,-8,14,-3,-8.526948929,4.161122322,0.180762231,0.117776416,0.08753293,0.238350689,-72,-41,-36,13,150
1695162286328032900,-8.312667847,-2.67432332,-1.000776291,-0.044499233,0.312427253,0.417679936,-15,-9,-6,16,-3,-8.528146744,4.158728123,0.189141929,0.113646246,0.089797854,0.239683002,-73,-44,-36,10,151
1695162286329032900,-8.438364029,-2.695871115,-1.001973391,0.008793262,0.324950993,0.435532928,-16,-6,-7,13,-1,-8.528146744,4.151545525,0.201112941,0.109249614,0.092062794,0.240615621,-71,-40,-36,10,151
1695162286360012900,-9.11233139,-1.922544003,-0.896628559,0.0021317,0.030909648,-0.035705972,-16,-7,-4,16,0,-8.55448246,4.074931145,0.48243165,0.061419602,-0.011058193,0.027712099,-75,-43,-36,11,151
1695162286361012900,-9.11233139,-1.917755604,-0.889445961,0.002264931,0.030909648,-0.034773353,-12,-7,-6,16,-1,-8.55448246,4.080916882,0.48482585,0.061552834,-0.011591119,0.027312404,-74,-41,-36,11,151
1695162286362012900,-9.113529205,-1.914164305,-0.89184016,0.002264931,0.030509954,-0.033973966,-15,-5,-6,15,1,-8.555679321,4.084507942,0.48243165,0.061686065,-0.012257273,0.026779478,-71,-45,-36,12,149
1695162286363012900,-9.11233139,-1.910573006,-0.895431459,0.002398162,0.030376723,-0.033307809,-14,-7,-5,15,-1,-8.555679321,4.08809948,0.48243165,0.061686065,-0.012523737,0.026379786,-73,-41,-37,10,150
1695162286364012900,-9.109937668,-1.909375906,-0.89064306,0.002531394,0.03011026,-0.032508422,-13,-2,-6,15,-1,-8.556877136,4.089296341,0.480037451,0.061819296,-0.01292343,0.025846859,-74,-43,-37,11,151
1695162286395993900,-8.914810181,-2.086546898,-0.836773515,-0.034107197,0.001998469,-0.200379789,-8,-5,4,25,7,0.213083953,8.214506149,-0.326808542,-0.308696777,1.713220596,4.365588188,-76,-36,-67,-1,166
1695162286396993900,-8.908824921,-2.072181463,-0.843956113,-0.033307809,0.000932619,-0.197981626,-6,0,4,23,5,0.280121595,7.965508938,-0.254982471,-0.296839207,1.7374686,4.365588188,-75,-34,-68,-1,164
1695162286397993900,-8.902838707,-2.066195965,-0.849941611,-0.032908116,-0.000266462,-0.195849925,-6,0,3,24,3,0.339976639,7.721300602,-0.196324542,-0.281650841,1.75971818,4.365588188,-73,-34,-72,1,165
1695162286398993900,-8.898050308,-2.061407566,-0.849941611,-0.032774884,-0.001332312,-0.193451747,-8,-1,7,20,3,0.393846184,7.481880188,-0.132878199,-0.264064312,1.780235767,4.365588188,-74,-32,-70,-1,167
1695162286399993900,-8.892065048,-2.060210466,-0.851138711,-0.032774884,-0.001998469,-0.191986218,-4,0,7,24,7,0.454898328,7.238868713,-0.075417355,-0.245012254,1.798888206,4.365588188,-76,-35,-66,-1,164
1695162286431974700,-8.683769226,-1.892616391,-0.943315446,-0.086067379,-0.010658499,-0.154947937,-6,-1,3,23,7,1.387439847,2.93529129,1.593341231,-0.095393561,1.99194026,4.365588188,-75,-35,-73,-10,166
1695162286432974700,-8.676587105,-1.886630893,-0.951695204,-0.093261868,-0.010658499,-0.154415011,-6,0,3,23,9,1.403002143,2.706645012,1.628057122,-0.11191424,1.99407196,4.365588188,-76,-34,-75,-10,167
1695162286433974700,-8.670601845,-1.884236693,-0.9648633,-0.100856051,-0.01079173,-0.154148534,-11,-1,1,22,8,1.406593442,2.475604534,1.661576033,-0.126436442,1.994604826,4.365588188,-74,-35,-75,-8,165
1695162286434974700,-8.66341877,-1.884236693,-0.978031397,-0.108716697,-0.01079173,-0.154015318,-7,0,5,23,8,1.400607944,2.185906172,1.728613615,-0.143756509,1.993672252,4.365588188,-77,-38,-79,-8,168
1695162286435974700,-8.659827232,-1.881842494,-0.984016895,-0.116577335,-0.010658499,-0.153748855,-7,-2,7,26,8,1.406593442,1.983596087,1.790862918,-0.157079637,1.992739677,4.365588188,-74,-33,-75,-7,166
1695162286467951000,-8.752004623,-1.869871497,-1.158793569,-0.241281778,0.006261868,-0.152816221,-5,0,4,26,5,1.37786305,-1.362300754,2.681505919,-0.017852986,1.831130147,3.609101057,-75,-33,-79,-15,165
1695162286468951000,-8.765172005,-1.871068597,-1.170764685,-0.247810096,0.007860643,-0.153082699,-5,0,5,24,7,1.408987641,-1.514332533,2.655169725,0.035039816,1.797955513,3.526098013,-76,-34,-77,-15,166
1695162286469951000,-8.775946617,-1.871068597,-1.185129881,-0.254338443,0.009592649,-0.153215915,-7,-1,8,24,7,1.456871748,-1.657984734,2.627636433,0.093395106,1.761450291,3.444293976,-78,-34,-72,-15,165
1695162286470951000,-8.786720276,-1.868674397,-1.198297977,-0.260866761,0.011457887,-0.153215915,-6,-1,7,27,4,1.501164436,-1.742978811,2.613271236,0.134963244,1.735603333,3.390735149,-76,-34,-82,-15,164
1695162286471951000,-8.795100212,-1.866280198,-1.207874775,-0.267528325,0.013589587,-0.153215915,-8,-1,10,25,8,1.625662923,-1.884236693,2.620453835,0.222895861,1.68231082,3.2864151,-76,-34,-80,-16,166
1695162286502929800,-8.943540573,-1.892616391,-1.350329757,-0.358924955,0.108849928,-0.132831544,-7,-1,4,22,5,4.173093796,-1.198297977,3.909731388,0.971522212,1.394931197,2.079606533,-76,-34,-82,-19,166
1695162286503929800,-8.953117371,-1.902193308,-1.33955586,-0.358525276,0.11924196,-0.127901986,-5,0,1,20,5,4.250905037,-1.169567585,4.013879299,0.969257295,1.403724313,2.016454697,-76,-33,-81,-19,166
1695162286504929800,-8.960299492,-1.906981707,-1.33716166,-0.357192963,0.127102599,-0.123905048,-8,-2,6,24,8,4.321534157,-1.138442874,4.120420933,0.96512711,1.411318541,1.952903509,-75,-33,-82,-18,154
1695162286505929800,-8.967482567,-1.911770105,-1.332373261,-0.355727404,0.132298619,-0.120840736,-9,-1,7,22,7,4.387374401,-1.109712481,4.242525578,0.959131658,1.417180657,1.888286352,-76,-33,-79,-18,167
1695162286506929800,-8.975862503,-1.918952703,-1.320402265,-0.352529854,0.142424196,-0.114312403,-11,-1,3,24,4,4.447229862,-1.086967587,4.370615005,0.948872924,1.423042774,1.823269606,-78,-34,-81,-23,162
1695162286545906600,-9.071630478,-2.012326479,-1.072602391,-0.230756521,0.213836133,0.028511487,-10,-2,5,29,3,5.104437828,-0.85473001,6.558915615,0.449388951,1.145388961,0.850148499,-76,-31,-83,-20,164
1695162286546906600,-9.070432663,-2.026691675,-1.046266198,-0.218099549,0.21450229,0.042367533,-8,-6,4,22,7,5.141548157,-0.851138711,6.655880928,0.415814698,1.116211295,0.817906559,-75,-34,-80,-22,165
1695162286547906600,-9.069235802,-2.041056871,-1.030703783,-0.208373666,0.214635521,0.053159267,-11,-3,4,20,3,5.181052685,-0.852335811,6.745663166,0.38383922,1.087166905,0.787796319,-75,-34,-80,-20,165
1695162286548906600,-9.06803894,-2.054224968,-1.009155989,-0.19838132,0.214768767,0.064217456,-6,-3,-1,23,4,5.225345135,-0.851138711,6.829460144,0.353595704,1.057856083,0.759551287,-75,-32,-81,-20,163
1695162286549906600,-9.064447403,-2.070984364,-0.990002394,-0.188255742,0.214635521,0.075542115,-7,0,6,22,3,5.266046524,-0.842759013,6.897695065,0.323885113,1.029078126,0.732771814,-76,-33,-81,-21,164
1695162286582910100,-8.989029884,-2.321178436,-0.70509243,0.017586524,0.190254211,0.259800911,-8,-1,1,22,7,5.023035049,-0.536301196,9.264363289,-0.11711026,0.237151608,0.279918849,-75,-34,-91,-26,162
1695162286583910100,-8.990227699,-2.325966835,-0.694318473,0.025180703,0.186656967,0.266196012,-7,0,7,20,7,5.112817764,-0.579396784,9.279925346,-0.145621747,0.191320062,0.268993855,-76,-33,-89,-23,164
1695162286584910100,-8.990227699,-2.329558372,-0.685938776,0.032241959,0.182660028,0.271924943,-7,-6,1,21,5,5.214571476,-0.623689532,9.266757965,-0.166272581,0.151883617,0.26126644,-76,-34,-88,-23,162
1695162286585910100,-8.993818283,-2.333149672,-0.677559078,0.038503829,0.178396642,0.27738744,-7,-2,3,26,3,5.319916248,-0.66917938,9.2212677,-0.178929552,0.119508423,0.255404294,-76,-31,-84,-20,160
1695162286586910100,-8.995016098,-2.33793807,-0.66798228,0.044099543,0.173866764,0.282450229,-7,-2,3,22,5,5.42765522,-0.720654726,9.137471199,-0.182793275,0.093661562,0.251540571,-76,-34,-89,-23,164
1695162286619888000,-9.148244858,-2.442085743,-0.609324336,0.060486984,0.071678407,0.314026028,-7,0,0,24,7,7.565677166,0.075417355,7.09761095,0.200113311,0.045964777,0.153882071,-76,-34,-88,-26,164
1695162286620888000,-9.156624794,-2.443282843,-0.611718535,0.059287902,0.0678147,0.313759565,-8,0,3,24,5,7.641094685,0.120907187,7.059303761,0.189588055,0.050094947,0.144822344,-74,-33,-88,-23,164
1695162286621888000,-9.167398453,-2.443282843,-0.617704034,0.057156201,0.062218986,0.31322667,-10,1,2,20,9,7.685387611,0.144849196,7.042544365,0.181594178,0.0528928,0.138826951,-71,-33,-88,-24,165
1695162286622888000,-9.18296051,-2.446874142,-0.627280831,0.05489127,0.056889739,0.31216079,-8,0,0,24,6,7.745242596,0.164002821,7.016208172,0.168137819,0.057156201,0.129633993,-76,-31,-88,-23,162
1695162286623888000,-9.194931984,-2.450465441,-0.63206923,0.052093416,0.05142726,0.310961694,-8,0,4,21,7,7.793126583,0.16639702,6.998251438,0.154015318,0.061819296,0.120441042,-76,-34,-89,-24,164
1695162286664840000,-9.279925346,-2.433706045,-0.778115571,-0.046897396,-0.016254211,0.263664633,-6,-1,3,23,7,7.541735172,-0.305260718,7.496245384,0.255404294,0.096992344,0.058222052,-75,-34,-93,-20,165
1695162286665840000,-9.282320023,-2.439691544,-0.791283667,-0.053425729,-0.017719755,0.259800911,-11,0,4,27,4,7.515398979,-0.293289721,7.526173115,0.274989277,0.0955268,0.059820827,-76,-34,-93,-23,162
1695162286666840000,-9.279925346,-2.444479942,-0.800860465,-0.059687596,-0.018785605,0.255803972,-11,0,0,24,7,7.486668587,-0.278924495,7.55131197,0.293375194,0.09352833,0.06115314,-73,-34,-94,-22,161
1695162286667840000,-9.276334763,-2.449268341,-0.811634362,-0.065683,-0.019718224,0.252073497,-6,-3,4,19,9,7.454347134,-0.263362199,7.575253963,0.310295552,0.090996936,0.062218986,-76,-35,-92,-23,162
1695162286668840000,-9.276334763,-2.45405674,-0.821211159,-0.071145482,-0.02051761,0.248076573,-9,-7,3,21,5,7.429207802,-0.241814375,7.593210697,0.32615009,0.088199086,0.063018374,-76,-34,-92,-24,164
1695162286702817100,-9.258378029,-2.604891539,-0.916979253,-0.056356817,-0.023981623,0.177464008,-8,-1,5,25,5,7.329848289,0.134075299,7.580042362,0.164007664,0.093395106,0.012523737,-73,-35,-93,-28,163
1695162286703817100,-9.255983353,-2.602497339,-0.920570552,-0.051027562,-0.024647778,0.172934145,-13,-2,2,22,3,7.32146883,0.116118781,7.563282967,0.145222053,0.09739203,0.008127105,-76,-34,-92,-26,163
1695162286704817100,-9.252392769,-2.604891539,-0.93134445,-0.045298621,-0.025313934,0.168670759,-6,0,6,21,5,7.315483093,0.099359371,7.54891777,0.128035218,0.101388969,0.003730475,-76,-34,-92,-31,161
1695162286705817100,-9.248801231,-2.602497339,-0.942118347,-0.039836142,-0.026246555,0.164274111,-10,0,4,27,7,7.305906296,0.076614454,7.536946774,0.112713635,0.104986221,-0.000666156,-76,-34,-95,-26,164
1695162286706817100,-9.248801231,-2.60130024,-0.945709646,-0.036238898,-0.027045943,0.161076576,-8,-1,3,24,8,7.292738438,0.046686932,7.520187378,0.099523738,0.10805054,-0.005062787,-76,-33,-96,-28,162
1695162286740796900,-9.179368973,-2.445677042,-1.048660398,0.004663093,-0.026113322,0.065016843,-8,-1,1,23,7,7.111976147,-0.089782566,7.39209795,0.125104129,0.035306279,-0.006528331,-76,-34,-93,-33,161
1695162286741796900,-9.17697525,-2.438494444,-1.047463298,0.003597243,-0.025047474,0.059820827,-11,-1,1,15,4,7.125144482,-0.077811554,7.371747017,0.129767224,0.030643184,-0.006261868,-76,-34,-96,-33,162
1695162286742796900,-9.17697525,-2.432508945,-1.051054597,0.002264931,-0.023981623,0.054491576,-11,-1,4,22,7,7.131129742,-0.059855044,7.352593422,0.133364469,0.026513018,-0.005995406,-76,-35,-98,-34,162
1695162286743796900,-9.174580574,-2.428917646,-1.059434295,0.000932619,-0.022915773,0.049295556,-6,0,3,20,8,7.133523941,-0.039504327,7.345410824,0.135629401,0.022649311,-0.006128637,-76,-35,-96,-33,163
1695162286744796900,-9.172186852,-2.426523447,-1.064222693,-0.000799387,-0.022249617,0.043833077,-5,0,1,22,9,7.13831234,-0.017956512,7.328651428,0.136295557,0.018918836,-0.006528331,-76,-35,-96,-33,162
1695162286783794100,-9.133879662,-2.309207439,-1.125274777,-0.02904441,-0.020784073,-0.04623124,-4,-4,3,22,7,7.031770229,-0.05865794,7.298723698,0.019718224,-0.043300152,-0.033707503,-76,-31,-95,-33,165
1695162286784794100,-9.131484985,-2.303221941,-1.127668977,-0.03011026,-0.020784073,-0.050627869,-5,0,4,27,9,7.019799232,-0.053869538,7.316680431,0.019718224,-0.045431852,-0.035705972,-75,-35,-96,-36,164
1695162286785794100,-9.127894402,-2.302024841,-1.125274777,-0.030776417,-0.020784073,-0.053558957,-11,-3,3,22,11,7.010222435,-0.046686932,7.343016624,0.020384381,-0.047563553,-0.037837673,-76,-35,-97,-35,161
1695162286786794100,-9.124302864,-2.294842243,-1.127668977,-0.031709034,-0.020784073,-0.057822358,-8,0,1,22,9,7.004237175,-0.04309563,7.364564419,0.021050537,-0.049029093,-0.039436448,-75,-36,-91,-33,161
1695162286787794100,-9.117119789,-2.290053844,-1.130063176,-0.03237519,-0.020650841,-0.061952524,-7,-1,3,27,8,6.993463039,-0.025139118,7.399280548,0.021716693,-0.050761104,-0.041834611,-74,-35,-98,-33,161
1695162286823749700,-9.044096947,-2.15597868,-1.198297977,-0.038237367,0.002931087,-0.118709028,-10,-1,-1,23,9,6.695384979,0.396240383,7.672219276,-0.237151608,-0.165073514,-0.110448696,-76,-34,-92,-31,160
1695162286824749700,-9.041702271,-2.152387381,-1.201889277,-0.038237367,0.004663093,-0.120307811,-10,-4,3,26,5,6.637924194,0.381875157,7.677007675,-0.255803972,-0.181061253,-0.117509954,-75,-37,-93,-30,162
1695162286825749700,-9.03571701,-2.149993181,-1.203086376,-0.037970904,0.006128637,-0.121906579,-7,0,5,25,7,6.574477673,0.365115762,7.675810814,-0.274722815,-0.198114842,-0.125503823,-75,-37,-92,-28,160
1695162286826749700,-9.026140213,-2.145204782,-1.203086376,-0.03757121,0.007860643,-0.123105668,-8,-1,-1,19,4,6.50384903,0.348356336,7.685387611,-0.293774903,-0.216500759,-0.134297088,-75,-36,-95,-31,157
1695162286827749700,-9.018958092,-2.144007683,-1.207874775,-0.037171517,0.009725881,-0.124437973,-7,0,3,27,8,6.454767704,0.337582439,7.685387611,-0.306964755,-0.229424208,-0.140825421,-75,-34,-93,-30,161
1695162286863724900,-8.862137794,-2.033874273,-1.219845772,-0.021316998,0.037704438,-0.14282389,-6,-2,5,20,8,4.005499363,-1.016338587,7.349001884,-0.714252651,-0.930087328,-0.648569643,-73,-39,-77,-10,151
1695162286864724900,-8.858546257,-2.027888775,-1.221042871,-0.021316998,0.038637057,-0.143623278,-7,-1,0,20,5,3.909731388,-1.119289279,7.297526836,-0.736102581,-0.979516089,-0.688672304,-71,-36,-73,-4,152
1695162286865724900,-8.860940933,-2.017114878,-1.22583127,-0.021716693,0.039303213,-0.144289434,-9,-6,3,22,7,3.816357613,-1.219845772,7.246051311,-0.759950995,-1.028411984,-0.729840755,-72,-39,-73,-6,153
1695162286866724900,-8.853757858,-2.011129379,-1.22583127,-0.022116385,0.03996937,-0.14495559,-6,0,4,23,7,3.724180698,-1.320402265,7.182605267,-0.786464036,-1.07730782,-0.772474706,-73,-37,-77,-4,151
1695162286867724900,-8.850166321,-2.002749681,-1.22583127,-0.022649311,0.040635526,-0.145621747,-8,-2,5,22,3,3.637989521,-1.422155857,7.116764545,-0.814842284,-1.125803947,-0.816307783,-71,-38,-76,-3,151
1695162286900726600,-8.767566681,-1.880645394,-1.284489155,-0.06981317,0.052359879,-0.143090352,-6,-2,4,18,5,2.353500366,-2.803610086,4.863820553,-1.328848362,-1.678447127,-2.028578758,-60,-38,-49,14,151
1695162286901726600,-8.753201485,-1.884236693,-1.284489155,-0.072611026,0.054758042,-0.141624808,-8,-3,4,19,4,2.264914751,-2.794033289,4.704606533,-1.366819382,-1.680578828,-2.137162209,-60,-34,-47,17,151
1695162286902726600,-8.743624687,-1.880645394,-1.283292055,-0.075408876,0.057555895,-0.139892802,-5,0,4,23,5,2.224213362,-2.709039211,4.604049683,-1.400926471,-1.675915837,-2.222830057,-59,-34,-44,22,151
1695162286903726600,-8.732851028,-1.877054095,-1.284489155,-0.07820674,0.060486984,-0.138294026,-8,-5,1,23,7,2.187103271,-2.632424831,4.499902248,-1.441428781,-1.665923357,-2.31555891,-59,-35,-41,21,151
1695162286904726600,-8.725667953,-1.872265697,-1.289277673,-0.080604896,0.063551299,-0.136428788,-8,0,0,22,6,2.138022184,-2.56778121,4.380191803,-1.487793326,-1.65220058,-2.411352158,-57,-35,-43,24,152
1695162286939680800,-8.590395927,-1.844732404,-1.288080573,-0.125370592,0.104320064,-0.121240422,-7,-1,4,20,5,1.156399369,-0.955286503,1.248576164,-2.547647715,-0.843087316,-4.365721226,-49,-35,-18,34,148
1695162286940680800,-8.589199066,-1.842338204,-1.291671872,-0.128967836,0.104453288,-0.122039817,-7,0,0,24,7,1.106121182,-0.878672004,1.064222693,-2.556840658,-0.788995445,-4.365721226,-51,-34,-16,36,163
1695162286941680800,-8.588001251,-1.838746905,-1.295263171,-0.132698312,0.104453288,-0.123105668,-6,0,1,23,7,1.057040095,-0.796072066,0.888248801,-2.556041241,-0.734770238,-4.365721226,-47,-34,-16,37,160
1695162286942680800,-8.584410667,-1.833958507,-1.30005157,-0.136828482,0.104453288,-0.124038287,-8,-5,0,26,7,1.007958889,-0.709880829,0.727837324,-2.545382738,-0.680678427,-4.365721226,-46,-34,-13,38,164
1695162286943680800,-8.579621315,-1.830367208,-1.29885447,-0.140825421,0.104320064,-0.125104129,-7,-1,4,22,7,0.954089403,-0.612915635,0.590170741,-2.523932695,-0.625920355,-4.365721226,-49,-34,-18,37,158
1695162286982658400,-8.942343712,-1.734599113,-1.406593442,-0.224228173,0.104453288,-0.120041348,-4,-3,3,24,7,0.507570744,2.777273893,1.176750183,-0.773673773,0.919428766,-4.365721226,-46,-35,-16,31,164
1695162286983658400,-8.972270966,-1.732204914,-1.414973259,-0.228758052,0.105785601,-0.116977029,-8,-2,5,24,7,0.468066424,3.029862165,1.331176162,-0.682277143,1.037738085,-4.365721226,-50,-33,-15,31,160
1695162286984658400,-9.002198219,-1.733402014,-1.422155857,-0.233154669,0.107117914,-0.113646246,-4,0,4,22,8,0.414196908,3.302801132,1.490390539,-0.599807084,1.159111857,-4.365721226,-47,-34,-13,32,162
1695162286985658400,-9.027337074,-1.735796213,-1.435323954,-0.237284839,0.108983152,-0.110049009,-12,0,3,23,3,0.359130263,3.574543238,1.646013618,-0.527062774,1.283683062,-4.365721226,-55,-35,-18,31,160
1695162286986658400,-9.056067467,-1.736993313,-1.443703651,-0.241281778,0.111114852,-0.106052071,-8,0,5,19,8,0.304063618,3.847482204,1.798045516,-0.461646259,1.411052108,-4.365721226,-50,-35,-18,31,156
1695162287022633600,-9.263166428,-1.808819413,-1.56101954,-0.262465537,0.170935676,-0.041701376,-11,-2,3,22,4,-2.024297476,9.576807022,4.879383087,-1.038937211,3.869967699,-4.365721226,-58,-34,-24,26,164
1695162287023633600,-9.260771751,-1.807622313,-1.567005038,-0.259934127,0.17453292,-0.039702907,-7,-2,1,20,11,-2.208651066,9.727641106,4.963180065,-1.154448628,3.971356869,-4.365721226,-56,-34,-23,26,162
1695162287024633600,-9.260771751,-1.808819413,-1.564610839,-0.257003069,0.177996933,-0.037704438,-6,-2,1,20,5,-2.391807556,9.831789017,5.040991783,-1.270493031,4.06994772,-4.365721226,-58,-33,-25,27,165
1695162287025633600,-9.258378029,-1.812410712,-1.564610839,-0.253672272,0.181594178,-0.035572741,-6,-6,7,23,5,-2.56658411,9.878476143,5.111620426,-1.38480556,4.166540623,-4.365721226,-55,-34,-24,27,162
1695162287026633600,-9.257181168,-1.817199111,-1.56221664,-0.249808565,0.185324654,-0.033307809,-9,-2,3,26,9,-2.744952202,9.880870819,5.191826344,-1.492856026,4.262600422,-4.365721226,-58,-33,-24,22,162
1695162287062609400,-9.135076523,-1.950077295,-1.363497853,-0.063018374,0.27632159,0.088732004,-7,-2,3,24,7,-8.311470985,5.604825974,5.705382824,-1.267295599,4.365588188,-4.365721226,-62,-34,-32,18,169
1695162287063609400,-9.126696587,-1.960851192,-1.344344258,-0.045032158,0.280718207,0.100323126,-4,1,10,26,8,-8.622717857,5.485116005,5.688623428,-1.162709117,4.365588188,-4.365721226,-63,-34,-34,17,169
1695162287064609400,-9.119514465,-1.97042799,-1.323993564,-0.026513018,0.284581929,0.112313934,-8,0,9,25,9,-9.093177795,5.363011837,5.697002888,-0.998301685,4.365588188,-4.365721226,-61,-33,-34,18,170
1695162287065609400,-9.107542992,-1.978807688,-1.30124867,-0.007327718,0.288045943,0.124304749,-4,1,4,26,9,-9.583989143,5.251681328,5.633556366,-0.834560513,4.365588188,-4.365721226,-63,-33,-34,18,170
1695162287066609400,-9.10036087,-1.985990286,-1.279700756,0.012390506,0.290843785,0.13656202,-6,0,5,24,9,-10.0855751,5.102043629,5.547365189,-0.65443182,4.365588188,-4.365721226,-60,-30,-34,10,169
1695162287103586600,-9.06803894,-2.079364061,-0.902614057,0.342004567,0.265796334,0.335209787,-3,0,3,26,12,-15.03798103,3.276464939,2.521094322,2.8563447,4.365588188,-4.365721226,-64,-33,-39,12,169
1695162287104586600,-9.069235802,-2.080561161,-0.883460402,0.353462487,0.261666149,0.343470156,-6,0,8,26,9,-15.14212894,3.251325846,2.276885748,2.999834776,4.365588188,-4.365721226,-62,-34,-37,14,167
1695162287105586600,-9.0740242,-2.080561161,-0.863109708,0.363987744,0.257136285,0.351197541,-3,-1,4,26,10,-15.24986744,3.230975151,2.030282974,3.139727354,4.365588188,-4.196250916,-60,-32,-37,13,172
1695162287106586600,-9.075222015,-2.079364061,-0.847547412,0.373313934,0.252339959,0.358258814,-3,0,7,24,8,-15.35760689,3.219004154,1.78128612,3.276555777,4.365588188,-4.00679636,-60,-31,-39,15,169
1695162287107586600,-9.077615738,-2.079364061,-0.834379315,0.381574243,0.247143939,0.364653885,-6,1,3,24,6,-15.46893692,3.214215755,1.528697729,3.410586596,4.365588188,-3.81720829,-61,-32,-37,15,168
1695162287159556900,-9.133879662,-2.032677174,-0.725443125,0.347200602,0.106718227,0.380774885,-1,2,7,22,9,-19.42774963,4.475960255,-1.721431017,4.365588188,0.823768795,-1.198814631,-63,-33,-35,15,168
1695162287160556900,-9.142259598,-2.029085875,-0.727837324,0.335742712,0.098990813,0.377444088,-4,0,4,25,9,-19.61330032,4.6842556,-1.74896431,4.365588188,0.692535996,-1.164307833,-63,-31,-34,14,165
1695162287161556900,-9.153033257,-2.025494576,-0.732625723,0.323485464,0.091263399,0.373980075,-6,0,8,23,9,-19.61330032,4.959589005,-1.745373011,4.365588188,0.572228134,-1.138860583,-62,-31,-34,17,168
1695162287162556900,-9.163806915,-2.024297476,-0.733822823,0.310828477,0.084068909,0.370382845,-5,0,5,22,9,-19.61330032,5.31512785,-1.70946002,4.365588188,0.463511467,-1.12926805,-61,-32,-34,17,168
1695162287163556900,-9.178172112,-2.026691675,-0.739808321,0.297505349,0.077274114,0.366652369,-1,0,7,27,9,-19.61330032,5.714959621,-1.648407817,4.365588188,0.368517607,-1.137128592,-61,-29,-34,14,167
1695162287200554700,-9.662998199,-2.323572636,-0.775721371,0.113779478,-0.015321592,0.318156213,-2,0,7,27,8,-17.88827705,14.96615505,-0.823605359,4.365588188,-0.696266472,-3.16277647,-66,-32,-33,17,168
1695162287201554700,-9.689333916,-2.348711967,-0.775721371,0.113646246,-0.020650841,0.316424191,-5,0,9,24,11,-17.45014,15.19839191,-0.715866327,4.365588188,-0.770875931,-3.242448568,-63,-32,-34,16,170
1695162287202554700,-9.712079048,-2.371456861,-0.774524271,0.114712104,-0.026379786,0.314425707,-6,0,7,26,9,-16.98566437,15.36838055,-0.586579442,4.365588188,-0.840955555,-3.307865143,-64,-33,-25,16,169
1695162287203554700,-9.732429504,-2.396595955,-0.776918471,0.116710559,-0.032108728,0.312560499,-8,0,4,22,9,-16.6648407,15.45337486,-0.486022949,4.365588188,-0.883589566,-3.342638731,-62,-31,-34,18,169
1695162287204554700,-9.750386238,-2.41574955,-0.775721371,0.119641654,-0.037970904,0.310295552,-4,0,3,24,11,-16.16445351,15.53717232,-0.311246216,4.365588188,-0.939280272,-3.38074255,-63,-31,-34,18,167
1695162287259569900,-9.428366661,-2.334346771,-1.016338587,0.132298619,-0.162009194,0.133098006,-4,0,5,26,9,-8.954314232,9.046490669,1.040280581,-0.338007659,-0.152549773,-0.824834585,-64,-33,-30,15,166
1695162287260569900,-9.386467934,-2.302024841,-1.034295082,0.122972436,-0.166139349,0.115245022,-4,-1,8,23,8,-8.939949036,8.628703117,0.970848799,-0.477101088,-0.093261868,-0.619525254,-60,-30,-34,16,167
1695162287261569900,-9.348160744,-2.274491549,-1.048660398,0.112180702,-0.169203669,0.097125575,-6,1,5,27,9,-8.945934296,8.364143372,0.92775315,-0.558105648,-0.056623276,-0.486027569,-61,-34,-34,16,167
1695162287262569900,-9.321824074,-2.256535053,-1.060631394,0.104320064,-0.170802444,0.084868304,-6,1,5,26,10,-8.965087891,7.976283073,0.864306808,-0.661093354,-0.006261868,-0.291110277,-61,-32,-34,18,167
1695162287263569900,-9.282320023,-2.23139596,-1.072602391,0.091396637,-0.172401235,0.066482387,-6,0,6,28,8,-8.992621422,7.584830761,0.806845963,-0.739433408,0.039836142,-0.10258805,-63,-34,-34,17,167
1695162287304565500,-8.779537201,-1.972822189,-1.229422569,-0.136695251,-0.111647777,-0.150018379,-7,0,9,23,13,-9.206902504,3.971980572,0.590170741,0.992439508,0.353995383,1.633281827,-65,-32,-33,22,167
1695162287305565500,-8.768763542,-1.96923089,-1.241393566,-0.138560489,-0.108583458,-0.150817752,-2,0,10,24,7,-9.179368973,4.000710964,0.608127236,1.144989252,0.343603373,1.618226647,-61,-33,-34,20,166
1695162287306565500,-8.761581421,-1.966836691,-1.255758762,-0.13869372,-0.105918832,-0.150284842,-4,0,6,28,9,-9.156624794,4.025850296,0.615309834,1.243047476,0.335076571,1.603837609,-61,-34,-34,18,166
1695162287307565500,-8.757989883,-1.968033791,-1.259350061,-0.136961713,-0.103920363,-0.148286372,-2,0,7,22,8,-9.120711327,4.050989151,0.626083732,1.38733685,0.320287883,1.577724338,-61,-34,-34,20,166
1695162287308565500,-8.756793022,-1.968033791,-1.256955862,-0.133364469,-0.102321595,-0.144689128,-2,3,0,23,9,-9.080010414,4.092887878,0.641646028,1.529361367,0.303367525,1.54788053,-63,-33,-34,19,166
1695162287348520600,-8.672995567,-2.144007683,-1.320402265,0.246078104,-0.121373661,0.140026033,-6,0,7,24,9,-7.965508938,5.984307289,1.019929886,2.171003103,-0.460846871,0.981381297,-65,-34,-34,24,166
1695162287349520600,-8.668207169,-2.160767078,-1.325190663,0.278586507,-0.123505361,0.160943344,-6,1,7,24,11,-7.936778545,6.065710068,1.027112484,2.090265036,-0.504546702,0.97232157,-62,-34,-34,21,166
1695162287350520600,-8.658630371,-2.171540976,-1.327584863,0.311361402,-0.125770286,0.181460962,-4,0,9,22,8,-7.923610687,6.142324448,1.024718285,2.001533031,-0.547180712,0.964460909,-62,-34,-29,19,165
1695162287351520600,-8.647856712,-2.179920673,-1.327584863,0.34440276,-0.128301695,0.201445624,-8,0,4,23,5,-7.91403389,6.191405773,1.021126986,1.938381195,-0.574892759,0.959931076,-61,-34,-34,20,166
1695162287352520600,-8.643068314,-2.184709072,-1.328781962,0.366385907,-0.130166918,0.21450229,-9,-1,3,24,8,-7.91163969,6.253654957,1.013944387,1.838591099,-0.615395069,0.953535974,-62,-34,-32,21,167
1695162287388494500,-8.911218643,-2.076969862,-1.462857246,0.766479313,-0.218366012,0.396629393,-6,0,1,22,11,-8.808267593,5.874173641,0.574608386,-0.085001536,-0.931286395,0.852813125,-61,-34,-33,20,162
1695162287389494500,-8.967482567,-2.062604666,-1.473631144,0.771542132,-0.226226643,0.396629393,-4,0,5,26,9,-8.839392662,5.817910194,0.568622887,-0.148552835,-0.919562042,0.847750366,-62,-30,-34,25,166
1695162287390494500,-9.02374649,-2.051830769,-1.484405041,0.775139332,-0.23422052,0.396096468,-3,0,5,27,9,-8.862137794,5.762843609,0.562637389,-0.207441032,-0.904640138,0.843087316,-62,-34,-29,24,164
1695162287391494500,-9.084798813,-2.038662672,-1.493981838,0.7770046,-0.242480844,0.395163864,-2,0,5,23,8,-8.872911453,5.710171223,0.55904609,-0.262199074,-0.887053609,0.838823915,-60,-34,-31,18,165
1695162287392494500,-9.148244858,-2.023100376,-1.501164436,0.777670741,-0.250607967,0.393964767,-4,0,7,23,11,-8.881291389,5.676652431,0.55904609,-0.296306252,-0.873863697,0.836159289,-63,-34,-32,20,164
1695162287426474000,-9.919178009,-2.04584527,-1.778891921,0.673350692,-0.350264937,0.353595704,-4,0,8,27,7,-8.495824814,4.333505154,0.700303972,-0.542117953,-0.156946406,0.999500751,-65,-34,-34,20,167
1695162287427474000,-9.919178009,-2.053027868,-1.795651317,0.665223539,-0.351064324,0.34906584,-3,0,9,26,11,-8.488641739,4.256890774,0.703895271,-0.520667672,-0.119774885,1.022016764,-61,-34,-30,22,164
1695162287428474000,-9.915586472,-2.056619167,-1.812410712,0.656696796,-0.351064324,0.344003052,-7,1,6,24,7,-8.480262756,4.185064793,0.711077929,-0.496552825,-0.084202148,1.045065761,-62,-34,-29,22,162
1695162287429474000,-9.907206535,-2.067393064,-1.832761407,0.647770226,-0.350664616,0.338140905,-2,-1,4,26,7,-8.475474358,4.113238335,0.724246025,-0.470306277,-0.050228179,1.068647742,-69,-34,-34,22,163
1695162287430474000,-9.896432877,-2.069787264,-1.849520802,0.638444126,-0.349732012,0.331745774,-1,0,4,24,11,-8.474276543,4.045003891,0.736217022,-0.442061275,-0.017852986,1.092496157,-61,-33,-33,21,164
1695162287467466300,-9.472659111,-2.142810583,-1.999158382,0.365320057,-0.247143939,0.049162328,-4,0,3,24,9,-8.408436775,3.42011714,1.297657371,0.131499231,0.325350702,1.344036818,-61,-34,-32,24,164
1695162287468466300,-9.454702377,-2.147598982,-1.994369984,0.347067386,-0.237551302,0.025447167,-2,0,7,24,9,-8.402450562,3.416525841,1.310825467,0.142157733,0.327748835,1.340839148,-61,-36,-33,24,165
1695162287469466300,-9.437943459,-2.152387381,-1.987187386,0.328814715,-0.227692187,0.001199081,-6,-1,4,27,11,-8.391676903,3.410540342,1.332373261,0.156679943,0.330280244,1.33431077,-62,-33,-33,24,164
1695162287470466300,-9.421183586,-2.159569979,-1.987187386,0.310695261,-0.217699856,-0.023182238,-3,1,8,24,9,-8.384494781,3.402160645,1.346738458,0.169470131,0.331346095,1.325517535,-62,-34,-31,28,161
1695162287471466300,-9.405621529,-2.166752577,-1.980004787,0.292709023,-0.207574263,-0.047963247,-4,0,9,27,8,-8.382100105,3.409343243,1.361103654,0.179862171,0.330946386,1.314725876,-60,-32,-33,24,165
1695162287505429500,-9.216479301,-2.11647439,-1.806425214,0.064350687,-0.080738127,-0.470972449,-7,1,10,24,9,-8.598775864,3.551798105,1.419761658,0.173067391,0.114445634,0.790594161,-63,-33,-30,26,163
1695162287506429500,-9.204508781,-2.096123695,-1.801636815,0.057156201,-0.077807046,-0.490557432,-6,0,8,24,11,-8.598775864,3.60207653,1.444900751,0.160810098,0.10778407,0.747560501,-61,-33,-32,25,167
1695162287507429500,-9.198522568,-2.076969862,-1.799242616,0.050361406,-0.075142421,-0.509742737,-8,0,7,26,8,-8.591592789,3.652354717,1.471236944,0.146554366,0.10258805,0.703061283,-62,-31,-33,26,164
1695162287508429500,-9.202114105,-2.051830769,-1.799242616,0.043833077,-0.072877489,-0.528661549,-4,0,6,24,11,-8.576030731,3.705027103,1.496376038,0.130166918,0.099790201,0.657496214,-61,-29,-29,17,161
1695162287509429500,-9.202114105,-2.032677174,-1.802833915,0.039436448,-0.071678407,-0.540918827,-4,1,7,25,11,-8.549694061,3.75769949,1.516726732,0.111647777,0.098457888,0.610998452,-61,-34,-34,24,165
1695162287797985200,-9.17697525,-1.478419542,-1.851915002,-0.195450217,-0.008926493,-0.74902606,-3,0,7,27,8,-7.98825407,4.250905037,1.48799634,-0.428871363,0.233954057,-0.08513476,-62,-32,-32,23,165
1695162287798985200,-9.13866806,-1.458068848,-1.848323703,-0.21197091,0.000399694,-0.750891268,-6,-2,6,23,9,-7.984662533,4.240131378,1.474828243,-0.454718202,0.238750383,-0.101388969,-60,-33,-33,24,165
1695162287799985200,-9.10036087,-1.443703651,-1.850717902,-0.228491575,0.009992342,-0.752356768,-6,-1,7,26,8,-7.983465672,4.226963043,1.465251446,-0.479366004,0.243013784,-0.115511484,-61,-34,-33,24,162
1695162287800985200,-9.060855865,-1.428141356,-1.850717902,-0.244745791,0.020251149,-0.753156185,-3,-1,10,24,9,-7.982268333,4.212597847,1.454477549,-0.502415001,0.246078104,-0.127635539,-60,-34,-33,20,164
1695162287801985200,-9.021351814,-1.41257906,-1.845929503,-0.260600299,0.030643184,-0.753822327,-5,-1,7,25,8,-7.989450932,4.20062685,1.441309452,-0.523732007,0.248742729,-0.13762787,-62,-33,-31,26,167
1695162287884229700,-8.537723541,-1.465251446,-1.677138329,-0.406088829,0.222762644,-0.714918852,-5,1,8,26,23,-8.595184326,3.816357613,1.143231273,-0.523465574,0.162542105,-0.141891271,-60,-32,-31,20,164
1695162287885229700,-8.532935143,-1.467645645,-1.657984734,-0.404090345,0.229157731,-0.709989309,-3,0,6,27,10,-8.634688377,3.807977915,1.130063176,-0.502015293,0.153349161,-0.141091883,-62,-33,-33,20,164
1695162287886229700,-8.532935143,-1.476025343,-1.646013618,-0.401425719,0.234886676,-0.704526782,-5,0,6,23,13,-8.66940403,3.799597979,1.113303781,-0.478966326,0.144022971,-0.140558958,-60,-34,-32,25,167
1695162287887229700,-8.532935143,-1.483207941,-1.63763392,-0.399294019,0.238350689,-0.70066309,-2,1,7,26,9,-8.699332237,3.790021181,1.101332784,-0.454718202,0.134963244,-0.140026033,-60,-34,-32,22,165
1695162287888229700,-8.534132004,-1.48799634,-1.623268723,-0.395030618,0.242747322,-0.694667637,-8,0,5,25,8,-8.725667953,3.785232782,1.090558887,-0.429271042,0.126036748,-0.13975957,-60,-34,-31,23,165
1695162288102972800,-8.839392662,-1.549048543,-1.333570361,-0.156413481,0.232488513,-0.470972449,-5,0,6,24,5,-8.735244751,4.079719543,0.973242998,0.030376723,0.036771823,-0.119774885,-61,-33,-33,22,164
1695162288103972800,-8.859743118,-1.540668845,-1.320402265,-0.138560489,0.228491575,-0.454052061,-4,0,7,24,8,-8.719682693,4.106055737,0.973242998,0.043566614,0.037704438,-0.118709028,-61,-34,-34,24,165
1695162288104972800,-8.881291389,-1.533486247,-1.315613866,-0.121240422,0.224361405,-0.436998457,-3,0,9,28,9,-8.700529099,4.134786129,0.980425596,0.055557426,0.039303213,-0.117243491,-61,-34,-31,18,166
1695162288105972800,-8.894459724,-1.520318031,-1.304839969,-0.104320064,0.220098019,-0.41967839,-3,-5,7,28,8,-8.680178642,4.163516521,0.987608194,0.065949462,0.041434918,-0.116044402,-60,-31,-33,21,166
1695162288106972800,-8.908824921,-1.504755735,-1.292868972,-0.08833231,0.215701386,-0.402358323,-2,0,6,28,10,-8.661025047,4.187458992,0.990002394,0.07500919,0.044232771,-0.114578865,-60,-34,-34,26,165
1695162288227891300,-8.878896713,-1.276109457,-1.150413871,-0.010392036,0.155614093,-0.122173049,-6,0,5,26,5,-8.384494781,4.45441246,1.136048675,0.040369064,0.119774885,-0.081803977,-65,-34,-31,26,167
1695162288228891300,-8.864531517,-1.272518158,-1.144428372,-0.017719755,0.154415011,-0.110715166,-6,0,8,23,11,-8.377311707,4.452018261,1.143231273,0.033041347,0.120574266,-0.079805516,-60,-34,-32,20,168
1695162288229891300,-8.851364136,-1.26413846,-1.133654475,-0.025980091,0.153215915,-0.099390499,-4,0,6,23,12,-8.373720169,4.450820923,1.140837073,0.028111791,0.120840736,-0.078473203,-60,-34,-32,22,164
1695162288230891300,-8.833407402,-1.261744261,-1.126471877,-0.03543951,0.152416542,-0.088732004,-3,2,8,22,10,-8.365341187,4.447229862,1.138442874,0.021050537,0.120441042,-0.076474734,-61,-33,-32,21,165
1695162288231891300,-8.81664753,-1.260547161,-1.113303781,-0.045431852,0.151750386,-0.078473203,-4,0,7,26,8,-8.360552788,4.437653065,1.137245774,0.01398928,0.119508423,-0.074609496,-62,-31,-33,22,164
1695162288272873600,-8.694543839,-1.468842745,-0.973242998,-0.261666149,0.134696782,0.081537522,-4,0,7,27,11,-8.33062458,4.282029629,0.950498104,0.050761104,0.044898927,-0.033041347,-61,-34,-33,25,167
1695162288273873600,-8.694543839,-1.495178938,-0.9648633,-0.266329229,0.131898925,0.091130167,-3,0,10,23,10,-8.331821442,4.283226967,0.939724147,0.062352221,0.042367533,-0.029577335,-60,-32,-31,20,164
1695162288274873600,-8.699332237,-1.520318031,-0.956483603,-0.269793272,0.128701374,0.101122513,-3,0,9,28,11,-8.334216118,4.283226967,0.93014735,0.07474272,0.040235836,-0.02571363,-61,-33,-29,24,165
1695162288275873600,-8.700529099,-1.543063045,-0.946906745,-0.271392047,0.125237361,0.111248083,-6,0,3,25,9,-8.336610794,4.285621166,0.910993755,0.087399691,0.038104136,-0.021849923,-62,-33,-33,22,165
1695162288276873600,-8.710105896,-1.574187636,-0.936132848,-0.271525264,0.121506892,0.121773355,-6,-1,9,27,9,-8.336610794,4.286818027,0.900219858,0.100456357,0.03650536,-0.017719755,-62,-34,-34,22,162
1695162288311843200,-9.009381294,-1.796848416,-0.859518409,-0.121906579,0.029577335,0.359058201,-6,-1,8,24,13,-8.392873764,4.466383457,0.752976418,0.314825416,0.029710567,0.024647778,-61,-34,-29,25,164
1695162288312843200,-9.02973175,-1.800439715,-0.85353291,-0.113379791,0.024514547,0.37344715,-3,0,9,27,12,-8.397662163,4.481945515,0.748188019,0.319488525,0.029977029,0.023715161,-60,-32,-31,25,167
1695162288313843200,-9.050082207,-1.802833915,-0.847547412,-0.105252676,0.019851454,0.387836158,-6,0,5,24,11,-8.406042099,4.497508049,0.749385118,0.322952509,0.03011026,0.022249617,-63,-33,-33,19,164
1695162288314843200,-9.071630478,-1.805228114,-0.843956113,-0.097924963,0.014921899,0.402091891,-2,0,9,26,9,-8.415618896,4.514267445,0.755370617,0.325217426,0.029977029,0.02051761,-60,-31,-33,22,162
1695162288315843200,-9.095572472,-1.802833915,-0.841561913,-0.091263399,0.010392036,0.416347623,-6,0,7,28,9,-8.420407295,4.535815239,0.760159016,0.326549739,0.030243492,0.01825268,-61,-32,-31,25,164
1695162288360815900,-9.448717117,-2.027888775,-0.774524271,-0.043033689,-0.068747319,0.614595711,-8,0,8,24,11,-8.56046772,4.874594688,0.77931267,0.145621747,0.041967839,-0.067681469,-62,-34,-31,22,165
1695162288361815900,-9.464279175,-2.042253971,-0.775721371,-0.042367533,-0.074476264,0.620191395,-6,0,3,26,7,-8.561665535,4.886565685,0.778115571,0.128834605,0.04276723,-0.072211333,-61,-32,-31,22,164
1695162288362815900,-9.479841232,-2.055422068,-0.774524271,-0.042234302,-0.08020521,0.625120997,-6,0,4,24,7,-8.561665535,4.894945145,0.776918471,0.112180702,0.043300152,-0.076474734,-60,-33,-31,24,162
1695162288363815900,-9.490615845,-2.063801765,-0.770932972,-0.042633995,-0.086200617,0.629251182,-2,0,4,24,8,-8.564059258,4.902127743,0.773327172,0.0955268,0.044232771,-0.08020521,-62,-33,-32,25,166
1695162288364815900,-9.503783226,-2.076969862,-0.768538773,-0.043699846,-0.092062794,0.632448673,-6,-1,5,23,9,-8.564059258,4.90571928,0.773327172,0.084468603,0.044632465,-0.082603365,-60,-34,-32,24,165
1695162288407789600,-9.533711433,-2.15358448,-0.866701007,-0.208107188,-0.175465539,0.560104132,-4,0,8,25,8,-8.530540466,4.772840977,0.694318473,-0.085401222,0.048362937,-0.041834611,-62,-33,-33,20,166
1695162288408789600,-9.52772522,-2.160767078,-0.877474904,-0.225160792,-0.176797852,0.550777912,-6,0,5,28,10,-8.534132004,4.762067318,0.699106872,-0.085401222,0.047563553,-0.033840735,-60,-34,-32,25,154
1695162288409789600,-9.519346237,-2.170343876,-0.878672004,-0.24261409,-0.17759724,0.54118526,-6,0,3,26,11,-8.534132004,4.746504784,0.701501071,-0.084601834,0.046497703,-0.025447167,-60,-34,-31,24,163
1695162288410789600,-9.512163162,-2.176329374,-0.888248801,-0.260333836,-0.177863702,0.531192958,-6,0,5,24,10,-8.538920403,4.734533787,0.700303972,-0.08313629,0.045298621,-0.016653905,-60,-34,-33,24,164
1695162288411789600,-9.497797966,-2.184709072,-0.900219858,-0.284182221,-0.177863702,0.517203629,-6,0,4,23,7,-8.54251194,4.721365929,0.693121374,-0.081137821,0.044232771,-0.007727412,-60,-32,-29,25,166
1695162288470752100,-9.317035675,-2.505532026,-1.022324085,-0.457915753,-0.147220522,0.341871351,-8,-2,2,23,4,-8.667010307,4.502296448,0.708683729,0.031176111,0.004529862,0.163341507,-61,-31,-31,22,166
1695162288471752100,-9.30386734,-2.518700123,-1.030703783,-0.455251127,-0.146021441,0.335076571,-7,0,1,23,8,-8.670601845,4.493916512,0.709880829,0.035572741,0.002264931,0.169070452,-60,-34,-31,21,165
1695162288472752100,-9.295488358,-2.531868219,-1.039083481,-0.451520681,-0.144822344,0.328681469,-5,-1,1,23,4,-8.671798706,4.490325451,0.711077929,0.03956968,0.000133231,0.17453292,-60,-33,-32,25,166
1695162288473752100,-9.284713745,-2.537853718,-1.047463298,-0.447124034,-0.143756509,0.322952509,-6,1,3,22,5,-8.676587105,4.484339714,0.713472128,0.04276723,-0.0021317,0.179595709,-62,-32,-29,22,165
1695162288474752100,-9.276334763,-2.548627615,-1.053448796,-0.441927999,-0.14282389,0.317356825,-6,0,4,24,9,-8.680178642,4.478354454,0.713472128,0.04516539,-0.004796324,0.184392035,-60,-33,-29,27,166
1695162288510730600,-9.226056099,-2.607285738,-1.148019671,-0.257003069,-0.145088822,0.282317013,-3,0,6,25,11,-8.735244751,4.296394825,0.651222885,0.015588055,-0.046764165,0.200513005,-63,-33,-34,22,164
1695162288511730600,-9.223662376,-2.609679937,-1.15280807,-0.243679941,-0.145754978,0.283249617,-4,0,5,28,11,-8.730456352,4.283226967,0.647631586,0.012523737,-0.046497703,0.19784838,-61,-34,-33,25,161
1695162288512730600,-9.223662376,-2.614468336,-1.161187768,-0.230090365,-0.146687597,0.284315467,-3,0,7,26,12,-8.724471092,4.267664433,0.647631586,0.009459418,-0.04623124,0.194650844,-63,-34,-34,19,165
1695162288513730600,-9.222464561,-2.615665436,-1.165976286,-0.216367543,-0.14748697,0.285514534,-7,0,8,22,10,-8.717288017,4.253299236,0.645237386,0.005462481,-0.045431852,0.189854518,-61,-33,-33,18,164
1695162288514730600,-9.220070839,-2.618059635,-1.169567585,-0.202511474,-0.148419604,0.28671363,-7,0,5,24,7,-8.710105896,4.243722439,0.640448928,0.002797856,-0.044232771,0.186124057,-60,-34,-33,24,164
1695162288547710300,-9.289502144,-2.586935043,-1.321599364,0.000532925,-0.147886679,0.289245039,-4,0,4,24,6,-8.495824814,4.037821293,0.571017087,-0.006794794,-0.030376723,0.106451757,-56,-34,-33,24,163
1695162288548710300,-9.29189682,-2.585737944,-1.328781962,0.006661562,-0.145754978,0.286846846,-1,0,3,26,7,-8.48385334,4.034229755,0.569819987,-0.004929556,-0.031042879,0.10285452,-62,-34,-34,22,165
1695162288549710300,-9.295488358,-2.589329243,-1.333570361,0.012124043,-0.143490046,0.284049004,-6,0,7,22,8,-8.47188282,4.033032894,0.574608386,-0.00319755,-0.031575806,0.099124044,-62,-34,-33,22,164
1695162288550710300,-9.299078941,-2.595314741,-1.340752959,0.017320061,-0.140825421,0.281117916,-4,0,5,22,7,-8.464699745,4.033032894,0.579396784,-0.001732006,-0.032108728,0.09659265,-61,-31,-32,22,165
1695162288551710300,-9.300276756,-2.595314741,-1.346738458,0.022249617,-0.138027564,0.27738744,-2,0,4,26,9,-8.452729225,4.037821293,0.585382342,0.000399694,-0.032241959,0.092595711,-62,-34,-33,19,163
1695162288585689300,-9.193734169,-2.723404408,-1.408987641,0.090064317,-0.054091886,0.131099537,-5,-1,4,23,11,-8.668207169,6.596025467,0.946906745,-0.163208261,0.071678407,-0.056223582,-61,-34,-33,24,164
1695162288586689300,-9.181763649,-2.728192806,-1.403002143,0.094860643,-0.047963247,0.117909648,-1,0,3,27,8,-8.678980827,6.756437302,0.93014735,-0.179196015,0.072211333,-0.050894335,-60,-32,-33,21,164
1695162288587689300,-9.167398453,-2.729389906,-1.398213744,0.099656969,-0.041568145,0.104186833,-2,1,4,23,8,-8.692149162,6.989871979,0.902614057,-0.202911183,0.069546707,-0.038503829,-63,-32,-31,22,163
1695162288588689300,-9.153033257,-2.729389906,-1.392228246,0.104586519,-0.035173047,0.090197548,-6,0,3,23,2,-8.702922821,7.211335659,0.872686505,-0.223695248,0.062885143,-0.020650841,-61,-33,-31,24,166
1695162288589689300,-9.141061783,-2.725798607,-1.386242747,0.109382853,-0.028777948,0.075675346,-5,0,6,26,8,-8.718485832,7.422025204,0.857124209,-0.240882084,0.052759573,0.003996937,-63,-33,-34,22,164
1695162288618668000,-8.966285706,-2.565387011,-1.240196466,0.159744263,0.071811639,-0.227425739,-4,-2,5,26,8,-8.878896713,11.48259163,2.537853718,0.145488501,-0.044632465,1.893349171,-62,-31,-32,24,165
1695162288619668000,-8.965087891,-2.553416014,-1.230619669,0.160010725,0.075542115,-0.243280247,-6,0,1,25,12,-8.924386978,11.6669445,2.608482838,0.186257273,-0.052093416,2.014456272,-61,-34,-34,26,162
1695162288620668000,-8.961497307,-2.537853718,-1.219845772,0.160410419,0.079139359,-0.259134769,-5,0,7,22,8,-8.972270966,11.84052467,2.667140722,0.227558956,-0.061419602,2.131566525,-61,-34,-33,21,163
1695162288621668000,-8.962694168,-2.525882721,-1.206677675,0.160810098,0.08233691,-0.274989277,-4,1,7,27,8,-9.02973175,12.01410389,2.717418909,0.269526809,-0.072877489,2.244013786,-62,-33,-33,24,164
1695162288622668000,-8.965087891,-2.516305923,-1.199495077,0.160943344,0.084335379,-0.285248101,-7,0,6,26,8,-9.088389397,12.18888092,2.743755102,0.311494648,-0.085934147,2.351931095,-62,-33,-34,20,164
1695162288651648600,-9.194931984,-2.165555477,-1.120486379,0.146154657,0.10178867,-0.520534456,-7,-5,1,19,2,-9.323021889,15.58266163,2.409764051,0.316024512,-0.87266463,3.912735224,-60,-34,-34,16,162
1695162288652648600,-9.204508781,-2.142810583,-1.124077678,0.142424196,0.101522207,-0.530926466,-10,-5,1,18,7,-9.317035675,15.67483807,2.349909067,0.279785603,-0.907837629,3.963629484,-58,-31,-32,24,166
1695162288653648600,-9.214085579,-2.120065689,-1.122880578,0.138294026,0.101255737,-0.540918827,-8,-2,4,22,0,-9.307458878,15.81849098,2.248155355,0.225027561,-0.960330784,4.038905144,-60,-33,-34,24,167
1695162288654648600,-9.217676163,-2.099714994,-1.131260276,0.133764163,0.101255737,-0.550777912,-8,-5,1,22,7,-9.300276756,15.95495987,2.138022184,0.170269519,-1.012557387,4.111782551,-61,-32,-31,17,162
1695162288655648600,-9.224859238,-2.081758261,-1.131260276,0.128967836,0.101522207,-0.560370564,-6,-2,2,19,7,-9.307458878,16.07227516,2.017114878,0.114978559,-1.062519073,4.184126854,-66,-32,-32,21,166
1695162288693627800,-9.156624794,-1.875856996,-1.161187768,0.069946401,0.166139349,-0.676681459,-11,-3,-1,20,3,-7.912836552,16.4290123,-0.469263524,-0.020384381,-1.030277133,4.365588188,-62,-33,-45,12,166
1695162288694627800,-9.153033257,-1.867477298,-1.157596469,0.071411945,0.171335369,-0.679745793,-11,-2,-2,22,1,-7.801506042,16.41704178,-0.566228688,0.011990812,-0.966459394,4.365588188,-59,-29,-41,15,167
1695162288695627800,-9.149441719,-1.8579005,-1.15400517,0.073676877,0.176664621,-0.682543635,-11,-3,1,22,9,-7.702147007,16.4098587,-0.679953277,0.046897396,-0.898245037,4.365588188,-61,-27,-45,5,169
1695162288696627800,-9.147047997,-1.855506301,-1.148019671,0.076741189,0.181860641,-0.684675336,-6,-5,-1,20,3,-7.607575893,16.41345024,-0.803254664,0.084468603,-0.826033652,4.365588188,-60,-31,-44,12,168
1695162288697627800,-9.142259598,-1.845929503,-1.138442874,0.080471672,0.186923429,-0.686407328,-12,-1,0,16,6,-7.546523571,16.4098587,-0.89184016,0.110581927,-0.775938749,4.365588188,-60,-33,-46,12,169
1695162288729628800,-9.210494041,-1.813607812,-0.998382092,0.277520686,0.253805518,-0.614462495,-11,-1,3,24,3,-5.865794182,16.27817726,-2.662352324,0.592479289,0.876661539,4.365588188,-61,-33,-66,6,169
1695162288730628800,-9.214085579,-1.818396211,-0.982819796,0.295107216,0.255670756,-0.604336917,-8,25,3,23,4,-5.780799866,16.25423622,-2.724601507,0.562369049,0.93395102,4.365588188,-61,-34,-64,4,172
1695162288731628800,-9.21528244,-1.82079041,-0.969651699,0.313493103,0.257535994,-0.594078064,-8,-2,5,21,7,-5.677849293,16.21113968,-2.785653591,0.525597215,0.988708973,4.365588188,-62,-34,-66,1,176
1695162288732628800,-9.216479301,-1.823184609,-0.952892303,0.332678407,0.258735061,-0.583153129,-7,0,3,23,7,-5.566518784,16.16924095,-2.85867691,0.482696772,1.041068912,4.365588188,-61,-34,-66,2,171
1695162288733628800,-9.216479301,-1.830367208,-0.932541549,0.352263391,0.259800911,-0.571961701,-6,-2,0,22,9,-5.445611954,16.1249485,-2.93529129,0.433534473,1.091030598,4.365588188,-61,-34,-66,2,172
1695162288766611600,-9.096769333,-1.600523829,-0.720654726,0.618992329,0.210238889,-0.401026011,-12,-3,-3,20,7,-2.864662409,12.65575027,-3.341108561,-0.480831534,2.049762726,4.365588188,-71,-34,-71,-2,169
1695162288767611600,-9.091980934,-1.582567334,-0.712275028,0.620990813,0.205042884,-0.395963252,-6,-1,3,23,5,-2.773682594,12.38400841,-3.359065056,-0.500816226,2.087067366,4.365588188,-63,-32,-72,-2,167
1695162288768611600,-9.087192535,-1.568202138,-0.70509243,0.621523738,0.199980095,-0.391166925,-11,-4,-1,20,5,-2.67552042,12.11585808,-3.365050554,-0.515871346,2.122906685,4.365588188,-63,-34,-70,-2,167
1695162288769611600,-9.080010414,-1.553836942,-0.693121374,0.620457888,0.194917306,-0.386637062,-12,-1,3,24,3,-2.577358246,11.86686039,-3.359065056,-0.52719599,2.156880617,4.365588188,-63,-34,-66,-3,166
1695162288770611600,-9.0740242,-1.537077546,-0.683544576,0.617926478,0.189721286,-0.382373661,-6,0,1,20,4,-2.474407434,11.62025833,-3.325546265,-0.535989285,2.189522028,4.365588188,-63,-31,-70,-3,166
1695162288803564600,-9.149441719,-1.382651448,-0.489614248,0.397428781,0.110448696,-0.320021451,-7,-2,5,18,3,-0.466869324,6.915651798,-1.401805043,-0.609532893,2.613730431,4.365588188,-60,-34,-75,-15,165
1695162288804564600,-9.153033257,-1.386242747,-0.48123455,0.380641639,0.106052071,-0.316557437,-6,-5,-1,22,3,-0.416591108,6.647500992,-1.343147159,-0.625520647,2.611998558,4.365588188,-61,-34,-73,-10,166
1695162288805564600,-9.155426979,-1.394622445,-0.477643251,0.363588065,0.101655439,-0.31322667,-10,-1,0,24,3,-0.381875157,6.467936039,-1.297657371,-0.63471365,2.608800888,4.365588188,-61,-34,-77,-8,166
1695162288806564600,-9.156624794,-1.398213744,-0.475249052,0.34693414,0.097125575,-0.310162336,-11,-1,4,20,5,-0.326808542,6.210559368,-1.213860273,-0.646571219,2.601606369,4.365588188,-62,-33,-71,-17,162
1695162288807564600,-9.155426979,-1.400607944,-0.468066424,0.330147028,0.092196018,-0.307098001,-7,-1,1,19,3,-0.266953498,5.956773758,-1.103726983,-0.658029079,2.593878984,4.365588188,-63,-34,-77,-11,165
1695162288842539500,-9.016563416,-1.41257906,-0.489614248,0.026513018,0.003330781,-0.288445652,-10,-6,3,22,3,0.611718535,1.679532528,0.804451764,-0.575692177,2.379642963,4.365588188,-66,-34,-77,-15,163
1695162288843539500,-9.005789757,-1.417367458,-0.490811348,0.011191424,0.000666156,-0.286980093,-8,-6,1,22,2,0.614112735,1.490390539,0.89184016,-0.563568175,2.360457897,4.365588188,-60,-34,-77,-14,167
1695162288844539500,-8.999804497,-1.423352957,-0.494402647,-0.003597243,-0.001732006,-0.285248101,-10,-2,3,22,6,0.608127236,1.304839969,0.969651699,-0.549578846,2.339940071,4.365588188,-59,-31,-77,-15,166
1695162288845539500,-8.990227699,-1.431732655,-0.497993946,-0.017586524,-0.003730475,-0.2831164,-10,-1,-1,18,4,0.603338838,1.181538582,1.025915384,-0.53971976,2.325684547,4.363323212,-69,-34,-80,-17,165
1695162288846539500,-8.978256226,-1.437718153,-0.497993946,-0.03130934,-0.005595712,-0.280584991,-10,-2,-3,24,3,0.59495914,0.995987892,1.110909581,-0.523732007,2.303967714,4.30030489,-63,-33,-78,-16,162
1695162288881517400,-8.808267593,-1.395819545,-0.626083732,-0.179595709,-0.05142726,-0.187589586,-10,0,3,26,5,0.861912608,-1.557428241,3.12084198,-0.14908576,1.923326135,2.907505274,-60,-31,-78,-17,164
1695162288882517400,-8.795100212,-1.383848548,-0.645237386,-0.188255742,-0.056223582,-0.176797852,-8,-3,5,18,3,0.897825658,-1.67115283,3.240551949,-0.142024502,1.903874397,2.840090275,-64,-34,-80,-16,164
1695162288883517400,-8.787917137,-1.37427175,-0.657208383,-0.19478406,-0.059421133,-0.168404296,-10,-7,4,20,4,0.939724147,-1.796848416,3.349488258,-0.134030625,1.885754943,2.774940252,-63,-29,-77,-22,165
1695162288884517400,-8.774748802,-1.367089152,-0.671573579,-0.201312408,-0.06261868,-0.159477785,-4,-3,-2,18,6,0.986411095,-1.916558504,3.452438831,-0.123771824,1.867768764,2.71192193,-62,-31,-79,-18,163
1695162288885517400,-8.763975143,-1.356315255,-0.679953277,-0.207973972,-0.065549769,-0.150018379,-9,-4,4,20,7,1.039083481,-2.037465572,3.560178041,-0.110848397,1.848849893,2.65103507,-62,-29,-77,-14,161
1695162288916521500,-8.723274231,-1.365892053,-0.778115571,-0.313359886,-0.086866774,0.132298619,-11,0,3,22,7,2.075772762,-3.022679567,6.104017258,0.081404284,1.395464063,1.384539127,-63,-32,-81,-15,162
1695162288917521500,-8.730456352,-1.373074651,-0.787692368,-0.316157728,-0.089531392,0.150950998,-8,0,3,22,7,2.15358448,-3.032256365,6.212953568,0.085267991,1.364154696,1.315791726,-61,-25,-78,-17,161
1695162288918521500,-8.741230011,-1.37666595,-0.798466265,-0.318689138,-0.09272895,0.169203669,-14,-2,2,25,2,2.240972757,-3.034650564,6.312312603,0.088199086,1.332045913,1.248376727,-60,-31,-78,-16,161
1695162288919521500,-8.754398346,-1.383848548,-0.808043063,-0.321220547,-0.096059717,0.187589586,-11,-2,5,24,5,2.331952572,-3.028665066,6.396110058,0.091130167,1.299404263,1.182560444,-60,-31,-70,-16,156
1695162288920521500,-8.765172005,-1.389834046,-0.822408259,-0.323485464,-0.099523738,0.205975503,-6,-2,7,24,4,2.428917646,-3.023876667,6.479907036,0.094594181,1.266229749,1.118209839,-62,-25,-75,-14,162
1695162288952500500,-8.85495472,-1.576581836,-0.901416957,-0.386237353,-0.136162326,0.513872921,-9,-3,3,20,3,4.141968727,-1.954865694,9.118317604,0.060353752,0.179062784,0.427272588,-63,-33,-87,-20,161
1695162288953500500,-8.853757858,-1.593341231,-0.903811157,-0.391433388,-0.135096475,0.527862132,-8,-2,0,18,5,4.321534157,-1.916558504,9.107542992,0.048629403,0.125770286,0.418745786,-60,-30,-86,-22,161
1695162288954500500,-8.859743118,-1.611297727,-0.909796655,-0.396895856,-0.134163857,0.541718245,-11,-3,0,22,8,4.440047264,-1.89620769,9.078812599,0.044366002,0.094327718,0.413150072,-62,-31,-91,-19,163
1695162288955500500,-8.860940933,-1.634042621,-0.913387954,-0.402225107,-0.133364469,0.554908097,-11,-2,3,20,7,4.614823818,-1.874659896,9.012971878,0.044499233,0.052359879,0.404889733,-62,-32,-88,-19,162
1695162288956500500,-8.862137794,-1.653196216,-0.916979253,-0.407287896,-0.132565081,0.567565084,-10,-3,2,22,7,4.789600372,-1.845929503,8.932766914,0.05249311,0.016920367,0.397295564,-60,-34,-87,-26,161
1695162288989459000,-9.015366554,-2.062604666,-0.926556051,-0.448056638,-0.135229707,0.688805521,-12,-1,-1,21,5,7.779958248,-0.724246025,7.082048416,0.283649325,-0.107650839,0.233954057,-62,-32,-89,-20,162
1695162288990459000,-9.034520149,-2.087743998,-0.93134445,-0.446990818,-0.135895863,0.690137804,-8,-5,3,19,7,7.862558365,-0.711077929,7.020996571,0.280451775,-0.101921894,0.227692187,-60,-32,-89,-24,160
1695162288991459000,-9.048885345,-2.105700493,-0.93134445,-0.446058184,-0.136162326,0.690804005,-7,-4,-1,22,5,7.936778545,-0.702698171,6.977900982,0.276721269,-0.096192956,0.221030638,-62,-33,-88,-20,160
1695162288992459000,-9.069235802,-2.120065689,-0.937329948,-0.44512558,-0.136428788,0.690937221,-12,-1,3,22,5,7.999027729,-0.697909772,6.947973251,0.27272436,-0.090730481,0.214369074,-61,-34,-91,-23,162
1695162288993459000,-9.084798813,-2.134430885,-0.932541549,-0.443793267,-0.136828482,0.690804005,-11,0,0,24,5,8.031349182,-0.699106872,6.933608055,0.270192951,-0.08726646,0.209972441,-61,-34,-88,-20,162
1695162289050625100,-9.320627213,-2.41574955,-0.912190855,-0.38490504,-0.141225114,0.661093354,-11,-5,0,19,7,7.700949669,-0.883460402,7.540538311,0.276055127,-0.100189894,0.176531389,-62,-34,-91,-31,159
1695162289051625100,-9.327810287,-2.426523447,-0.914585054,-0.379442573,-0.14175804,0.658961713,-10,-5,3,16,1,7.685387611,-0.870292306,7.566874504,0.280185282,-0.099790201,0.174666151,-63,-33,-93,-33,157
1695162289052625100,-9.337387085,-2.436100245,-0.913387954,-0.373846859,-0.142690659,0.656696796,-10,-3,2,22,4,7.672219276,-0.85473001,7.596801758,0.283249617,-0.0976585,0.172401235,-63,-34,-93,-33,160
1695162289053625100,-9.344569206,-2.439691544,-0.914585054,-0.368517607,-0.143356815,0.654298604,-8,-2,5,20,3,7.656657219,-0.837970614,7.626729488,0.285381317,-0.094194487,0.170003071,-60,-33,-92,-32,157
1695162289054625100,-9.349357605,-2.443282843,-0.919373453,-0.364920378,-0.14388974,0.652699828,-8,-6,-1,18,2,7.642292023,-0.821211159,7.643488884,0.286313951,-0.090064317,0.167471662,-61,-32,-87,-33,161
1695162289115449500,-9.502586365,-2.539050817,-0.999579191,-0.312693715,-0.167871356,0.581954002,-10,-4,3,23,5,7.120356083,-0.830788016,7.010222435,0.154947937,-0.030243492,0.079272583,-60,-34,-94,-33,156
1695162289116449500,-9.504981041,-2.548627615,-1.009155989,-0.312560499,-0.168670759,0.577290952,-11,-1,-1,18,4,7.086836815,-0.833182216,6.970718384,0.153748855,-0.03011026,0.075675346,-63,-34,-89,-33,155
1695162289117449500,-9.504981041,-2.555810213,-1.013944387,-0.312427253,-0.169070452,0.57236141,-10,-7,-2,19,2,7.053318024,-0.835576415,6.931213856,0.153748855,-0.03011026,0.072078094,-62,-34,-88,-33,158
1695162289118449500,-9.503783226,-2.565387011,-1.013944387,-0.312294006,-0.169336915,0.567298651,-8,0,1,22,3,7.02339077,-0.836773515,6.901286602,0.154415011,-0.030376723,0.068614088,-61,-34,-93,-35,160
1695162289119449500,-9.504981041,-2.576161146,-1.018732786,-0.312427253,-0.169603363,0.562235832,-10,-6,1,22,4,6.993463039,-0.835576415,6.87614727,0.155480847,-0.030776417,0.065283306,-60,-34,-88,-32,160
1695162289259573100,-9.312247276,-2.756923199,-1.179144382,-0.304566622,-0.165073514,0.415281773,-11,-1,1,16,5,6.212953568,-0.575805485,6.758831501,0.141624808,-0.110981621,-0.055290964,-66,-34,-92,-32,156
1695162289260573100,-9.293093681,-2.762908697,-1.191115379,-0.302967817,-0.163341507,0.403957129,-7,-2,4,20,5,6.163872242,-0.538695395,6.771999359,0.132165387,-0.121107198,-0.067015313,-60,-34,-95,-24,156
1695162289261573100,-9.269151688,-2.776076794,-1.200692177,-0.301235855,-0.161343038,0.392366022,-10,-5,5,23,4,6.114790916,-0.497993946,6.788758755,0.120973967,-0.132032156,-0.079405814,-61,-35,-91,-31,158
1695162289262573100,-9.249998093,-2.783259392,-1.206677675,-0.29923737,-0.158811629,0.380641639,-10,-7,3,23,5,6.069301128,-0.460883826,6.806715488,0.10805054,-0.14388974,-0.093128636,-63,-35,-91,-32,155
1695162289263573100,-9.236829758,-2.78924489,-1.210268974,-0.297505349,-0.157079637,0.372781008,-11,-1,1,22,5,6.02022028,-0.428562105,6.827065945,0.093661562,-0.156946406,-0.107650839,-63,-34,-93,-30,156
1695162289390497900,-8.948328972,-2.804807186,-1.267729759,-0.202511474,-0.075142421,0.118975498,-9,-4,3,22,7,4.508281708,-0.82001406,6.643909931,-0.338540584,-0.564900458,-0.793525279,-66,-37,-79,-19,154
1695162289391497900,-8.932766914,-2.78924489,-1.26653266,-0.197182223,-0.070212863,0.103653908,-7,-1,4,22,7,4.426878929,-0.9660604,6.606799603,-0.356526792,-0.597142458,-0.856410444,-62,-35,-83,-19,155
1695162289392497900,-8.921992302,-2.774879694,-1.26653266,-0.192519143,-0.065283306,0.088065848,-14,-5,-1,20,4,4.341884613,-1.113303781,6.576871872,-0.372647762,-0.629117966,-0.915964782,-62,-39,-81,-20,153
1695162289393497900,-8.913613319,-2.762908697,-1.267729759,-0.188388973,-0.060353752,0.072344564,-10,-1,0,22,5,4.246116638,-1.241393566,6.532579422,-0.38743645,-0.661759555,-0.973120987,-61,-40,-79,-18,151
1695162289394497900,-8.905233383,-2.7521348,-1.26533556,-0.184658498,-0.055290964,0.056623276,-12,-4,1,19,7,4.143166065,-1.355118155,6.483498096,-0.396895856,-0.696666181,-1.029477835,-62,-36,-81,-18,151
1695162289464459700,-9.172186852,-2.315192938,-1.102529883,-0.268860638,0.048762634,-0.294441044,-11,-3,-1,18,9,3.241749048,-2.919728994,4.993107796,-0.310961694,-1.499784112,-1.980349183,-60,-39,-66,-2,151
1695162289465459700,-9.220070839,-2.284068346,-1.101332784,-0.283782542,0.052226644,-0.317623258,-6,-3,3,20,2,3.240551949,-2.965218782,4.896142483,-0.281650841,-1.531892896,-2.029111862,-61,-35,-66,1,151
1695162289466459700,-9.270348549,-2.251746655,-1.092953086,-0.300036758,0.055424199,-0.341604888,-8,-3,3,19,5,3.241749048,-2.997540474,4.784811974,-0.250741184,-1.562669158,-2.079739809,-62,-39,-68,4,152
1695162289467459700,-9.326612473,-2.215833664,-1.088164687,-0.317090333,0.058355279,-0.365852982,-8,0,7,23,7,3.23576355,-3.031059265,4.67827034,-0.21610108,-1.592646241,-2.1316998,-60,-37,-66,6,152
1695162289468459700,-9.386467934,-2.187103271,-1.07858789,-0.335476279,0.061286367,-0.390234292,-8,0,3,23,6,3.236960649,-3.047818661,4.602852821,-0.189188361,-1.611964822,-2.16647315,-63,-36,-65,0,152
1695162289533440000,-10.30703831,-1.552639842,-0.790086567,-0.969523728,0.072344564,-0.841088772,-11,-2,-1,19,7,3.319560766,-1.00436759,2.351106167,0.764747322,-2.047897339,-3.674650908,-60,-36,-39,24,158
1695162289534440000,-10.32499504,-1.565807939,-0.77931267,-0.993238926,0.072877489,-0.853879035,-11,0,-2,24,7,3.327940464,-0.827196658,2.264914751,0.799387395,-2.059754848,-3.772709131,-65,-37,-39,22,152
1695162289535440000,-10.35133076,-1.587355733,-0.749385118,-1.025880575,0.074609496,-0.871465504,-7,0,5,24,3,3.336320162,-0.636857629,2.185906172,0.83109647,-2.068814516,-3.870900393,-60,-39,-34,24,151
1695162289536440000,-10.38006115,-1.604115129,-0.718260527,-1.054525256,0.07714089,-0.888252676,-10,-2,1,22,5,3.341108561,-0.448912829,2.099714994,0.859607935,-2.075342894,-3.969358206,-62,-34,-34,29,156
1695162289537440000,-10.40520096,-1.619677424,-0.687135875,-1.078906655,0.080071971,-0.903707504,-5,-2,3,26,4,3.341108561,-0.264559299,2.006340981,0.8845222,-2.080139399,-4.067816257,-60,-37,-36,28,156
1695162289605384200,-10.45667553,-1.604115129,0.156820208,-1.008027554,0.099124044,-0.911434889,-14,1,-11,22,5,2.827552319,4.803965569,0.703895271,0.384771824,-2.050029039,-4.365721226,-58,-35,-21,31,160
1695162289606384200,-10.41717148,-1.59812963,0.220266551,-0.991906583,0.096192956,-0.903174579,-11,-1,-11,19,3,2.771288395,5.139153957,0.624886632,0.282317013,-2.048696756,-4.365721226,-62,-34,-19,31,162
1695162289607384200,-10.37647057,-1.593341231,0.281318694,-0.976185262,0.093395106,-0.894381285,-8,-2,-16,20,5,2.718616009,5.483919144,0.554257691,0.172001526,-2.047897339,-4.365721226,-60,-35,-21,30,161
1695162289608384200,-10.32499504,-1.586158633,0.341173738,-0.960197508,0.090996936,-0.884788632,-8,-2,-16,22,4,2.686294317,5.71974802,0.512359142,0.094327718,-2.046831608,-4.365721226,-58,-35,-20,31,161
1695162289609384200,-10.27351952,-1.583764434,0.397437483,-0.944342971,0.089664623,-0.875329256,-10,0,-11,19,2,2.645592928,6.078877926,0.464475125,-0.028111791,-2.043767214,-4.365721226,-60,-35,-24,31,164
1695162289687331300,-9.210494041,-1.691503525,0.863109708,-0.732771814,-0.005196018,-0.575026035,-15,0,-19,23,9,2.286462545,9.736021042,0.351947635,-3.033275843,-1.090897441,-4.365721226,-58,-35,-24,31,161
1695162289688331300,-9.15063858,-1.701080322,0.876277804,-0.722646236,-0.019584993,-0.551843762,-4,-5,-21,23,4,2.233790159,9.727641106,0.366312861,-3.132799387,-0.972721338,-4.365721226,-60,-34,-17,28,162
1695162289689331300,-9.077615738,-1.707065821,0.89184016,-0.711987734,-0.033973966,-0.529061258,-6,-1,-21,26,4,2.160767078,9.721655846,0.378283858,-3.219133139,-0.849482417,-4.365721226,-58,-40,-20,28,164
1695162289690331300,-8.999804497,-1.728613615,0.894234359,-0.701329231,-0.049295556,-0.505612552,-10,-1,-17,26,7,2.072181463,9.716867447,0.390254885,-3.290678501,-0.721713662,-4.365721226,-58,-34,-20,29,162
1695162289691331300,-8.924386978,-1.740584612,0.897825658,-0.688539028,-0.065816231,-0.482163846,-6,-1,-21,23,4,1.972822189,9.722852707,0.418985307,-3.346901894,-0.589415014,-4.365721226,-57,-34,-19,29,158
1695162289761286300,-8.149862289,-1.97042799,1.128866076,-0.571428835,-0.401825428,-0.110715166,-8,-2,-12,20,8,0.026336219,9.809044838,3.416525841,-3.666523695,2.749359846,-4.365721226,-60,-39,-27,28,164
1695162289762286300,-8.137891769,-1.994369984,1.131260276,-0.564634025,-0.412750393,-0.084202148,-8,-3,-13,24,3,-0.132878199,9.631873131,3.468001127,-3.711955547,2.904840708,-4.365721226,-60,-34,-31,22,164
1695162289763286300,-8.121131897,-2.019509077,1.126471877,-0.556506872,-0.422076583,-0.055823889,-7,-1,-9,25,5,-0.312443316,9.452308655,3.518279314,-3.755522013,3.05352664,-4.365721226,-60,-34,-28,16,163
1695162289764286300,-8.100781441,-2.04704237,1.125274777,-0.547047496,-0.429537535,-0.02571363,-12,-2,-9,23,5,-0.525527298,9.290699959,3.568557739,-3.795225143,3.196883678,-4.365721226,-60,-33,-31,21,164
1695162289765286300,-8.088809967,-2.063801765,1.127668977,-0.540119469,-0.433800906,-0.004529862,-6,-4,-10,22,5,-0.767341673,9.141061783,3.611653328,-3.828000069,3.33557725,-4.365721226,-60,-34,-27,19,161
1695162289829251100,-8.359354973,-1.899798989,0.568622887,-0.378376722,-0.402225107,0.565300167,-6,0,-7,26,8,-7.09761095,5.245696068,4.333505154,-1.909470081,4.365588188,-4.365721226,-61,-40,-33,18,164
1695162289830251100,-8.414422035,-1.884236693,0.530315697,-0.388369083,-0.411817759,0.585018396,-11,-1,-9,19,7,-7.357381821,4.952406406,4.313154221,-1.680978656,4.365588188,-4.365721226,-61,-34,-34,17,167
1695162289831251100,-8.464699745,-1.872265697,0.488417149,-0.400093406,-0.423941821,0.603004575,-8,-3,-6,21,7,-7.520187378,4.757278919,4.291606426,-1.522166848,4.365588188,-4.365721226,-63,-32,-34,20,161
1695162289832251100,-8.518569946,-1.863885999,0.454898328,-0.414082706,-0.43833077,0.619525254,-7,-2,-5,19,5,-7.754819393,4.483142853,4.259284973,-1.275289416,4.365588188,-4.365721226,-63,-32,-34,18,167
1695162289833251100,-8.574832916,-1.8579005,0.420182407,-0.429803967,-0.455117911,0.63471365,-7,0,-6,22,5,-7.973888874,4.229357243,4.210203648,-1.021084309,4.365588188,-4.365721226,-61,-34,-34,17,166
1695162289906203200,-9.063250542,-2.079364061,-0.359130263,-0.851347625,-0.857476294,0.688139379,-11,-1,-6,23,8,-11.6813097,3.163937569,1.442506552,3.447091818,4.16520834,-2.93881464,-64,-34,-34,14,166
1695162289907203200,-9.051279068,-2.11767149,-0.418985307,-0.874263406,-0.866136253,0.685208261,-10,-1,-11,24,5,-11.98896503,3.277662039,1.278503656,3.604171515,4.015855789,-2.807714939,-63,-32,-35,17,166
1695162289908203200,-9.033323288,-2.159569979,-0.478840351,-0.89598006,-0.872264922,0.682277143,-8,-4,-8,23,7,-12.31218243,3.404554844,1.11689508,3.75379014,3.86343956,-2.681411982,-60,-34,-34,13,168
1695162289909203200,-9.015366554,-2.203862667,-0.531512797,-0.91676414,-0.875995398,0.679346085,-5,-1,-7,23,4,-12.63659668,3.579331636,0.981622696,3.898079395,3.709957123,-2.563102722,-60,-34,-34,16,165
1695162289910203200,-8.993818283,-2.246958256,-0.581790984,-0.937681437,-0.877194464,0.676681459,-6,-5,-6,23,8,-12.97298145,3.740940094,0.802057564,4.033175945,3.555808544,-2.45678401,-62,-34,-37,14,164
1695162289982159000,-8.792705536,-3.405751944,-1.098938584,-0.789128661,-0.466709018,0.548779488,-7,-2,-9,19,5,-19.12368584,6.871358871,-0.82001406,4.365588188,0.84042269,-1.794491649,-60,-34,-34,17,167
1695162289983159000,-8.808267593,-3.463212729,-1.096544385,-0.749292493,-0.431535989,0.534257293,-8,0,-9,25,8,-19.34395218,7.125144482,-0.829590917,4.365588188,0.745029092,-1.825534463,-63,-34,-34,16,167
1695162289984159000,-8.821435928,-3.513490915,-1.095347285,-0.70639205,-0.395963252,0.518669248,-6,-1,-10,23,7,-19.55344582,7.420828342,-0.824802458,4.365588188,0.655630887,-1.864171505,-63,-32,-34,15,168
1695162289985159000,-8.832210541,-3.561375141,-1.095347285,-0.660826921,-0.360390514,0.502015293,-8,-1,-7,23,3,-19.61330032,7.729680061,-0.806845963,4.365588188,0.573027551,-1.911068916,-68,-34,-34,15,167
1695162289986159000,-8.846575737,-3.60447073,-1.090558887,-0.612996936,-0.325217426,0.484295547,-7,-4,-8,22,5,-19.61330032,8.03494072,-0.772130072,4.365588188,0.496286362,-1.964361429,-61,-34,-33,16,168
1695162290053141500,-9.246406555,-3.177105665,-1.213860273,0.202777937,0.125503823,-0.011191424,-6,-1,-12,22,7,-17.27416611,14.23592377,-0.073023155,4.080606461,-0.399160802,-3.599108696,-60,-34,-34,24,171
1695162290054141500,-9.283516884,-3.108870983,-1.218648672,0.224761114,0.141225114,-0.043300152,-6,-3,-7,19,5,-16.88271332,14.30056667,-0.061052144,3.843321562,-0.445258796,-3.632016897,-60,-32,-33,18,168
1695162290055141500,-9.326612473,-3.045424461,-1.223437071,0.243679941,0.156546697,-0.075275652,-14,0,-9,22,3,-16.47450256,14.32450867,-0.032321721,3.59897542,-0.487359881,-3.651468754,-60,-36,-34,18,172
1695162290056141500,-9.370905876,-2.983175278,-1.223437071,0.260067374,0.171601832,-0.106851459,-8,-5,-7,22,4,-16.0555172,14.30774975,0.01316811,3.349566698,-0.524131715,-3.655865192,-62,-33,-33,20,169
1695162290057141500,-9.41280365,-2.923320293,-1.221042871,0.273923427,0.186790213,-0.137761101,-7,-3,-8,22,4,-15.62575722,14.25507736,0.079008654,3.095894337,-0.554508388,-3.645073652,-61,-29,-33,20,168
1695162290143566200,-9.617507935,-2.37863946,-0.916979253,0.309895873,0.531192958,-0.477900445,-4,-1,-6,23,5,-9.682151794,8.595184326,0.919373453,-0.990840733,0.050627869,-0.893581927,-60,-36,-34,18,167
1695162290144566200,-9.597157478,-2.37744236,-0.89303726,0.309895873,0.54798007,-0.484295547,-4,0,-9,19,5,-9.62469101,8.255207062,0.888248801,-1.067315459,0.100989282,-0.693335354,-60,-34,-32,17,167
1695162290145566200,-9.573215485,-2.384624958,-0.861912608,0.310428768,0.564500749,-0.489624798,-4,0,-6,23,8,-9.583989143,7.927201748,0.851138711,-1.127802491,0.14748697,-0.497352213,-59,-34,-34,17,169
1695162290146566200,-9.545681953,-2.391807556,-0.823605359,0.311627865,0.581154704,-0.494287878,-10,-5,-7,24,10,-9.546878815,7.605181694,0.822408259,-1.171235919,0.190787122,-0.305632442,-60,-32,-34,16,167
1695162290147566200,-9.516951561,-2.398990154,-0.78050977,0.313493103,0.598075032,-0.4981516,-8,-5,-7,22,7,-9.528923035,7.399280548,0.803254664,-1.191087365,0.218099549,-0.181061253,-60,-34,-32,18,168
1695162290224539000,-9.346963882,-2.087743998,-0.116118781,0.256736606,0.793258786,-0.631382823,-7,-1,-4,18,5,-9.101557732,4.42209053,0.652419984,0.418479323,0.419944882,1.814476252,-60,-34,-33,20,162
1695162290225539000,-9.350554466,-2.063801765,-0.106541976,0.243413478,0.788728893,-0.640975475,-5,-4,-7,24,5,-9.070432663,4.417302132,0.66798228,0.53652221,0.39996019,1.829398155,-60,-34,-29,22,167
1695162290226539000,-9.357737541,-2.025494576,-0.094570965,0.221030638,0.779669225,-0.655764103,-7,-3,-5,22,5,-9.036913872,4.430470467,0.683544576,0.650168419,0.378376722,1.838457823,-64,-34,-34,20,167
1695162290227539000,-9.367314339,-1.988384485,-0.088585466,0.195583463,0.768078089,-0.670686066,-7,0,-8,18,11,-9.010578156,4.45680666,0.702698171,0.757819235,0.354928017,1.841655374,-61,-32,-33,20,167
1695162290228539000,-9.375694275,-1.944091797,-0.08499416,0.167071983,0.75368911,-0.685874403,-4,0,-6,22,8,-8.991424561,4.497508049,0.718260527,0.859075069,0.329214364,1.839656949,-61,-34,-33,20,167
1695162290294479500,-9.26556015,-1.590947032,-0.344765037,-0.735303223,0.219698325,-0.915565073,-11,0,-4,24,7,-8.647856712,5.819107056,1.018732786,0.917563498,-0.441395104,1.424641609,-61,-34,-31,24,166
1695162290295479500,-9.224859238,-1.614889026,-0.361524463,-0.776871383,0.195983157,-0.920228124,-8,-1,-6,26,7,-8.638279915,5.850231647,1.013944387,0.827099502,-0.482696772,1.403324604,-59,-35,-31,19,167
1695162290296479500,-9.184157372,-1.63643682,-0.366312861,-0.8149755,0.174666151,-0.923825383,-8,0,-3,24,7,-8.63109684,5.876567841,1.000776291,0.730906546,-0.523199081,1.38267386,-60,-33,-32,24,167
1695162290297479500,-9.13866806,-1.665167332,-0.367509961,-0.849615633,0.156147003,-0.926223576,-10,-1,-5,24,7,-8.62511158,5.894524574,0.986411095,0.63005054,-0.562502325,1.362822294,-60,-35,-32,21,165
1695162290298479500,-9.087192535,-1.693897724,-0.37349546,-0.880658507,0.141091883,-0.927289426,-14,0,-6,25,9,-8.621520042,5.906495571,0.9660604,0.525197506,-0.600739658,1.343770266,-63,-34,-32,25,166
1695162290377427600,-8.382100105,-2.278082848,-0.524330199,-0.730906546,0.252206743,-0.677614093,-4,0,-1,23,9,-8.959102631,4.644751072,-0.10175357,-1.068647742,-1.089431763,1.091963172,-60,-34,-29,25,164
1695162290378427600,-8.36893177,-2.296039343,-0.533906996,-0.688006103,0.266062796,-0.648836136,-7,0,1,23,7,-8.977059364,4.558559895,-0.158017308,-1.095293999,-1.102222085,1.081837654,-60,-34,-29,25,162
1695162290379427600,-8.36294651,-2.312798738,-0.539892495,-0.64257431,0.279519141,-0.618459463,-8,0,1,26,6,-8.987833023,4.473566055,-0.207098454,-1.115411997,-1.11314702,1.071978569,-62,-34,-33,22,163
1695162290380427600,-8.360552788,-2.328361034,-0.550666392,-0.594744265,0.291909665,-0.587016821,-7,-1,3,25,7,-9.001001358,4.390965939,-0.258573771,-1.129001498,-1.123006105,1.062519073,-60,-34,-33,25,164
1695162290381427600,-8.359354973,-2.343923569,-0.55904609,-0.544915795,0.303234309,-0.554241955,-8,0,3,23,6,-9.009381294,4.340687752,-0.287304193,-1.134464025,-1.128468513,1.056257248,-60,-34,-28,28,167
1695162290424400900,-8.536525726,-2.387019157,-0.639251828,0.531459451,0.279519141,0.140292495,-8,0,-1,21,5,-8.774748802,3.45842433,-0.36990416,-0.431535989,-0.900776386,1.013490081,-59,-34,-24,28,160
1695162290425400900,-8.55448246,-2.373851061,-0.638054729,0.588082671,0.269393563,0.177730486,-7,0,1,22,9,-8.737639427,3.450044632,-0.330399841,-0.376244992,-0.865070403,1.021483898,-60,-34,-27,30,165
1695162290426400900,-8.570044518,-2.357091665,-0.641646028,0.642441094,0.259001523,0.214102611,-8,0,1,27,8,-8.705317497,3.446453333,-0.284909993,-0.321753442,-0.827499211,1.030676842,-59,-33,-26,26,167
1695162290427400900,-8.584410667,-2.33913517,-0.644040287,0.694667637,0.248609498,0.249675348,-7,0,3,22,8,-8.668207169,3.441664934,-0.245405674,-0.268194497,-0.788062811,1.04040277,-58,-34,-29,26,166
1695162290428400900,-8.602366447,-2.321178436,-0.641646028,0.744629443,0.238483921,0.284581929,-10,-1,6,19,7,-8.638279915,3.441664934,-0.195127442,-0.215834603,-0.746627867,1.051061273,-61,-34,-29,30,165
1695162290464380500,-8.920795441,-2.049436569,-0.651222885,1.202811599,0.069413476,0.745695233,-8,0,3,26,7,-8.269572258,3.570951939,0.732625723,0.405555874,0.089131698,1.234653831,-59,-33,-25,28,166
1695162290465380500,-8.949525833,-2.032677174,-0.664390981,1.202545166,0.060486984,0.75941807,-7,-1,4,22,9,-8.262390137,3.576937437,0.788889468,0.412084222,0.121773355,1.237584949,-58,-34,-29,26,165
1695162290466380500,-8.983044624,-2.018311977,-0.675164878,1.199347615,0.051027562,0.771941781,-4,0,4,23,11,-8.255207062,3.588908434,0.837970614,0.415548235,0.152816221,1.239450216,-58,-34,-29,26,165
1695162290467380500,-9.020154953,-2.001552582,-0.681150377,1.192952514,0.041701376,0.783266425,-4,-1,-1,25,8,-8.252813339,3.597288132,0.888248801,0.416614085,0.182660028,1.239983082,-59,-34,-31,24,164
1695162290468380500,-9.058462143,-1.987187386,-0.687135875,1.183226585,0.032508422,0.79312557,-8,0,1,19,5,-8.254010201,3.606864929,0.934935749,0.41501531,0.210905045,1.239716649,-59,-34,-29,31,163
1695162290517346900,-9.556455612,-2.111685991,-0.910993755,0.71784991,-0.12230628,0.765813112,-4,0,-1,22,8,-8.39526844,3.468001127,1.552639842,0.044898927,0.469640136,1.036139369,-50,-35,-28,28,161
1695162290518346900,-9.567230225,-2.141613483,-0.92775315,0.687473178,-0.128035218,0.75515461,-4,0,-1,26,5,-8.414422035,3.453635931,1.569399238,0.018652374,0.468307823,1.01602149,-61,-31,-29,28,162
1695162290519346900,-9.575610161,-2.176329374,-0.944512546,0.657895863,-0.133364469,0.743696809,-8,-2,0,23,4,-8.434772491,3.439270735,1.582567334,-0.007460949,0.465776414,0.994837642,-61,-33,-33,28,166
1695162290520346900,-9.582792282,-2.211045265,-0.960074902,0.629384398,-0.138027564,0.731572747,-7,0,-3,24,7,-8.452729225,3.428496838,1.59932673,-0.033441041,0.461912692,0.972987771,-59,-34,-26,28,162
1695162290521346900,-9.58638382,-2.251746655,-0.978031397,0.602471709,-0.142024502,0.718649268,-12,-1,-2,25,4,-8.47188282,3.416525841,1.612494826,-0.059421133,0.457249612,0.950205207,-60,-34,-31,20,164
1695162290556347300,-9.308655739,-2.796427488,-1.283292055,0.449255735,-0.133897394,0.357859105,-7,-1,0,24,7,-8.556877136,3.345896959,1.991975784,-0.514139354,0.305099547,0.391433388,-60,-34,-32,24,162
1695162290557347300,-9.295488358,-2.797624588,-1.289277673,0.453652382,-0.131232768,0.340805531,-14,0,-1,26,6,-8.540117264,3.339911461,2.00993228,-0.533857584,0.301502287,0.358525276,-58,-33,-31,27,165
1695162290558347300,-9.277531624,-2.795230389,-1.297657371,0.460447162,-0.126969382,0.315225124,-7,-2,-3,19,3,-8.519766808,3.327940464,2.027888775,-0.552776396,0.299104154,0.325617135,-60,-34,-31,26,163
1695162290559347300,-9.255983353,-2.792836189,-1.306037068,0.468041331,-0.122572735,0.289111793,-10,2,-1,16,5,-8.500613213,3.315969467,2.043451071,-0.570629418,0.29710567,0.293241978,-58,-34,-32,24,164
1695162290560347300,-9.238027573,-2.785653591,-1.321599364,0.475635529,-0.117909648,0.262998462,-8,-2,-6,22,5,-8.476671219,3.306392431,2.056619167,-0.587549806,0.29603982,0.261000007,-60,-36,-30,28,165
1695162290591327000,-9.148244858,-2.240972757,-1.496376038,0.496819288,-0.030243492,-0.140958652,-8,-5,-3,19,7,-8.269572258,3.070563793,2.19428587,-0.622323155,0.328681469,-0.277120978,-61,-35,-33,24,164
1695162290592327000,-9.15063858,-2.215833664,-1.503558636,0.490424216,-0.027445635,-0.155614093,-11,-2,3,24,7,-8.273163795,3.08133769,2.197877169,-0.609799385,0.329614073,-0.303234309,-62,-34,-33,28,162
1695162290593327000,-9.155426979,-2.188300371,-1.510741234,0.484162331,-0.024914242,-0.169470131,-12,-6,-1,22,7,-8.271966934,3.089717388,2.199074268,-0.601139367,0.330013782,-0.320687592,-62,-34,-32,26,166
1695162290594327000,-9.160215378,-2.165555477,-1.52390933,0.477500767,-0.022516079,-0.182393566,-4,-6,-4,20,7,-8.276755333,3.099294186,2.205059767,-0.587816238,0.330413461,-0.34693414,-60,-34,-32,24,162
1695162290595327000,-9.161413193,-2.138022184,-1.533486247,0.470705956,-0.020117918,-0.194517612,-10,-4,-1,24,3,-8.277952194,3.116053581,2.211045265,-0.574226677,0.330546677,-0.373047471,-60,-34,-31,22,164
1695162290626307300,-9.157821655,-1.924938202,-1.678335428,0.433134764,0.018519141,-0.252473205,-8,0,-1,22,8,-8.366538048,4.007893562,2.257732153,-0.437797844,0.316557437,-0.854012251,-60,-35,-29,24,165
1695162290627307300,-9.154230118,-1.923741102,-1.679532528,0.436998457,0.02051761,-0.249142408,-10,-3,-3,22,8,-8.36294651,4.040215492,2.250549555,-0.44046247,0.315491587,-0.871865213,-60,-34,-32,25,166
1695162290628307300,-9.14465332,-1.926135302,-1.678335428,0.443393588,0.02358193,-0.243946403,-8,-3,1,22,4,-8.364143372,4.074931145,2.239775658,-0.443526804,0.314026028,-0.888519168,-58,-35,-31,24,164
1695162290629307300,-9.135076523,-1.926135302,-1.679532528,0.450987756,0.02691271,-0.238217458,-8,-1,-5,22,5,-8.360552788,4.107253075,2.23139596,-0.446857601,0.312294006,-0.904107153,-59,-33,-31,19,166
1695162290630307300,-9.119514465,-1.924938202,-1.685518026,0.459781021,0.03011026,-0.231955588,-11,-5,-1,19,1,-8.35696125,4.134786129,2.212242365,-0.450321585,0.310428768,-0.918096483,-60,-35,-31,21,163
1695162290720505000,-8.859743118,-1.82079041,-1.756146908,0.687606394,0.075542115,-0.123905048,-10,-5,3,18,3,-8.331821442,4.254496574,1.731007814,-0.351464033,0.1672052,-0.954468608,-61,-33,-34,25,165
1695162290721505000,-8.85495472,-1.800439715,-1.758541107,0.695600271,0.075142421,-0.121373661,-10,-5,0,21,4,-8.333019257,4.254496574,1.707065821,-0.335076571,0.155081168,-0.946208298,-60,-33,-31,21,165
1695162290722505000,-8.851364136,-1.780089021,-1.760935307,0.702128649,0.074343033,-0.119108729,-6,-1,-1,23,5,-8.337807655,4.261679173,1.689109325,-0.317756504,0.142957121,-0.937148511,-61,-34,-32,22,162
1695162290723505000,-8.850166321,-1.758541107,-1.760935307,0.7074579,0.073543645,-0.117243491,-8,-2,-1,18,9,-8.341399193,4.265270233,1.675941229,-0.305898935,0.134830013,-0.93075341,-62,-35,-32,22,163
1695162290724505000,-8.851364136,-1.735796213,-1.759738207,0.711188376,0.07274425,-0.115644716,-10,-3,-1,19,7,-8.341399193,4.27125597,1.654393315,-0.287513018,0.122572735,-0.920761108,-61,-34,-33,26,164
1695162290791464000,-8.991424561,-1.397016644,-1.727416515,0.579689145,0.076208271,-0.101388969,-2,-3,0,22,8,-8.43956089,4.510675907,1.340752959,0.067415006,-0.053958651,-0.672418058,-61,-34,-29,22,165
1695162290792464000,-9.001001358,-1.385045648,-1.725022316,0.565566599,0.076874427,-0.099923424,-12,-5,3,20,7,-8.44554615,4.522646904,1.332373261,0.081670754,-0.057289433,-0.658828497,-60,-34,-33,24,167
1695162290793464000,-9.010578156,-1.373074651,-1.725022316,0.551044405,0.077407345,-0.098324656,-6,-3,5,19,5,-8.452729225,4.53342104,1.314416766,0.095127106,-0.060220521,-0.64510572,-60,-34,-32,24,164
1695162290794464000,-9.021351814,-1.361103654,-1.725022316,0.536122501,0.07794027,-0.096192956,-12,-1,-1,22,3,-8.461109161,4.542997837,1.307234168,0.108450226,-0.062485453,-0.631516039,-60,-34,-31,22,163
1695162290795464000,-9.032125473,-1.353921056,-1.727416515,0.520800948,0.078473203,-0.093661562,-11,-4,-5,17,1,-8.473079681,4.551377296,1.29885447,0.121373661,-0.06461715,-0.617926478,-60,-34,-28,25,163
1695162291032195400,-9.042900085,-1.203086376,-1.757344007,0.156679943,0.102721281,-0.035039816,-6,-1,-2,19,5,-8.591592789,4.677073002,1.046266198,0.320954055,-0.115245022,-0.359857589,-60,-35,-32,21,166
1695162291033195400,-9.034520149,-1.199495077,-1.763329506,0.132964775,0.105519146,-0.032641653,-10,-5,3,20,5,-8.589199066,4.686649799,1.036689281,0.328681469,-0.11924196,-0.345601827,-60,-34,-32,25,164
1695162291034195400,-9.028534889,-1.198297977,-1.763329506,0.108983152,0.108450226,-0.030376723,-6,-5,-3,20,4,-8.58680439,4.691438198,1.027112484,0.336009204,-0.12337213,-0.331346095,-60,-34,-32,21,162
1695162291035195400,-9.022548676,-1.198297977,-1.765723705,0.092862174,0.110715166,-0.02904441,-8,-1,1,24,8,-8.58081913,4.696226597,1.018732786,0.342803985,-0.12723583,-0.3168239,-60,-35,-28,22,165
1695162291036195400,-9.010578156,-1.198297977,-1.769315004,0.068614088,0.114445634,-0.026779478,-10,-1,-2,24,7,-8.573636055,4.702212334,1.011550188,0.34906584,-0.131099537,-0.302168459,-60,-34,-31,24,166
1695162291321644300,-8.783128738,-1.417367458,-1.733402014,-0.284848392,0.209839195,0.018119449,-10,0,-2,18,4,-8.419210434,4.685452938,0.837970614,0.390767217,-0.168670759,-0.000399694,-60,-34,-31,24,164
1695162291322644300,-8.773551941,-1.437718153,-1.727416515,-0.292709023,0.21556814,0.022915773,-10,0,2,20,8,-8.415618896,4.683058739,0.836773515,0.389168471,-0.16773814,0.014388974,-61,-34,-31,25,165
1695162291323644300,-8.767566681,-1.459265947,-1.723825216,-0.299104154,0.221696794,0.02797856,-10,-1,0,24,5,-8.415618896,4.681861401,0.834379315,0.388102591,-0.166805506,0.023981623,-55,-34,-30,31,165
1695162291324644300,-8.760383606,-1.480813742,-1.719036818,-0.304300129,0.227425739,0.033574272,-15,-1,4,24,7,-8.412027359,4.677073002,0.825999558,0.385970891,-0.16520673,0.038104136,-60,-34,-33,22,162
1695162291325644300,-8.753201485,-1.495178938,-1.715445518,-0.307764143,0.233287901,0.039303213,-8,-1,-1,23,7,-8.408436775,4.671087742,0.821211159,0.383439511,-0.163341507,0.051826954,-59,-35,-29,25,166
1695162291397251900,-8.918401718,-1.582567334,-1.455674648,-0.254738122,0.293774903,0.153482378,-8,-1,0,19,5,-8.343792915,4.509479046,0.785298169,0.242214397,-0.079139359,0.227825418,-58,-34,-32,22,162
1695162291398251900,-8.941145897,-1.575384736,-1.438915253,-0.253272593,0.290044397,0.155880541,-8,-2,-2,23,9,-8.341399193,4.497508049,0.784101069,0.231689125,-0.074076563,0.232488513,-60,-34,-29,26,164
1695162291399251900,-8.963891029,-1.568202138,-1.424550056,-0.252206743,0.284981638,0.157745793,-6,0,-2,22,7,-8.339004517,4.486733913,0.78170687,0.221030638,-0.068747319,0.236618683,-63,-38,-31,25,164
1695162291400251900,-8.991424561,-1.569399238,-1.417367458,-0.251540571,0.278586507,0.158545166,-12,-1,-2,20,4,-8.337807655,4.477157116,0.784101069,0.210238889,-0.063418068,0.240482375,-60,-34,-33,24,165
1695162291401251900,-9.021351814,-1.572990537,-1.419761658,-0.252073497,0.270459414,0.158278719,-6,-3,-6,20,4,-8.339004517,4.466383457,0.792480767,0.199047476,-0.05808882,0.243679941,-60,-34,-29,21,165
1695162291433210900,-9.428366661,-2.130839586,-0.981622696,-0.053159267,-0.257269531,0.138427258,-12,-3,-7,18,3,-8.423998833,4.27724123,0.830788016,-0.006794794,0.033840735,0.238350689,-57,-33,-29,20,165
1695162291434210900,-9.425971985,-2.152387381,-0.92895025,-0.035839204,-0.29497394,0.134696782,-10,-3,-9,20,8,-8.431180954,4.268861771,0.828393817,-0.015854517,0.036771823,0.236085743,-60,-34,-32,24,161
1695162291435210900,-9.417592049,-2.178723574,-0.859518409,-0.018652374,-0.330679953,0.130833074,-12,-2,-6,18,5,-8.431180954,4.260481834,0.831985116,-0.024381317,0.039303213,0.23422052,-61,-34,-29,25,162
1695162291436210900,-9.403226852,-2.206256866,-0.793677866,-0.002931087,-0.364254236,0.126702905,-4,0,-7,20,7,-8.434772491,4.247313976,0.833182216,-0.032641653,0.041701376,0.232088804,-61,-36,-31,24,166
1695162291437210900,-9.379284859,-2.233790159,-0.730231524,0.01185758,-0.395563543,0.12337213,-7,-1,-7,16,4,-8.43956089,4.23294878,0.828393817,-0.040235836,0.043699846,0.230356812,-63,-35,-32,20,164
1695162291469187300,-9.272743225,-2.145204782,-0.092176765,-0.104719758,-0.490690649,0.152949467,-4,-1,-13,19,8,-8.47188282,4.024652958,0.815225661,-0.094993874,0.06674885,0.220364481,-62,-35,-33,24,162
