timestamp,left_data_Ac_X,left_data_Ac_Y,left_data_Ac_Z,left_data_Gy_X,left_data_Gy_Y,left_data_Gy_Z,left_data_flex_1,left_data_flex_2,left_data_flex_3,left_data_flex_4,left_data_flex_5,right_data_Ac_X,right_data_Ac_Y,right_data_Ac_Z,right_data_Gy_X,right_data_Gy_Y,right_data_Gy_Z,right_data_flex_1,right_data_flex_2,right_data_flex_3,right_data_flex_4,right_data_flex_5
1695162021913743800,-9.84376049,-1.611297727,-1.570596337,-1.155914187,-0.678280234,-0.262465537,1,2,-16,18,9,-8.641871452,3.541024208,-0.095768064,-0.104719758,-0.043433387,0.220364481,-59,-45,-13,36,168
1695162021914743800,-9.798270226,-1.623268723,-1.593341231,-1.158312321,-0.683343053,-0.259667695,0,0,-13,18,7,-8.646659851,3.541024208,-0.087388359,-0.104986221,-0.040901989,0.220497698,-59,-44,-13,36,166
1695162021915743800,-9.745597839,-1.63643682,-1.617283225,-1.160044432,-0.687473178,-0.257136285,1,1,-11,18,9,-8.652645111,3.537432909,-0.079008654,-0.105385914,-0.037038282,0.220497698,-57,-43,-8,38,168
1695162021916743800,-9.691728592,-1.650802016,-1.63523972,-1.161376715,-0.690670729,-0.255004585,8,1,-16,19,9,-8.65144825,3.537432909,-0.077811554,-0.105652377,-0.033307809,0.220497698,-57,-43,-9,40,168
1695162021917743800,-9.634267807,-1.665167332,-1.653196216,-1.162042856,-0.692669213,-0.253139347,4,0,-16,20,10,-8.65144825,3.537432909,-0.067037649,-0.105652377,-0.029843798,0.220364481,-60,-45,-8,38,168
1695162021995992300,-8.748413086,-1.788468719,-1.620874524,-1.15937829,-0.509343028,-0.27059263,2,0,-11,21,9,-8.676587105,3.453635931,0.007182605,-0.091663092,0.010392036,0.235952526,-57,-47,-12,40,167
1695162021996992300,-8.749609947,-1.792060018,-1.611297727,-1.157912731,-0.490557432,-0.274189889,2,0,-11,18,11,-8.678980827,3.448847532,0.011971008,-0.088998467,0.010658499,0.237551302,-57,-45,-13,33,168
1695162021997992300,-8.753201485,-1.794454217,-1.600523829,-1.156447172,-0.472038269,-0.277653903,2,5,-12,19,9,-8.677783966,3.445256233,0.015562311,-0.086067379,0.010924961,0.239283308,-58,-47,-9,36,167
1695162021998992300,-8.763975143,-1.800439715,-1.590947032,-1.154448628,-0.453918815,-0.281117916,2,0,-11,19,9,-8.677783966,3.442862034,0.026336219,-0.083269522,0.011058193,0.240615621,-50,-45,-11,38,169
1695162021999992300,-8.7843256,-1.810016513,-1.578976035,-1.152183771,-0.436065853,-0.284448713,0,0,-8,19,9,-8.676587105,3.434482336,0.027533319,-0.08020521,0.011191424,0.242081165,-58,-39,-11,42,168
1695162022036968200,-9.572018623,-1.914164305,-1.535880446,-0.978450239,-0.319488525,-0.322019905,1,1,-11,16,10,-8.716091156,3.347094059,0.093373865,-0.01292343,0.015454824,0.250341505,-57,-46,-11,38,167
1695162022037968200,-9.58638382,-1.915361404,-1.534683347,-0.960863709,-0.323751897,-0.323885113,1,0,-13,21,9,-8.711302757,3.345896959,0.099359371,-0.010525269,0.015987748,0.248875946,-59,-45,-16,36,166
1695162022038968200,-9.594763756,-1.915361404,-1.533486247,-0.942744255,-0.328148544,-0.326283306,1,0,-11,17,9,-8.711302757,3.341108561,0.107739076,-0.008127105,0.016787136,0.247143939,-58,-41,-9,38,167
1695162022039968200,-9.599552155,-1.914164305,-1.532289028,-0.923958659,-0.332545161,-0.328415006,2,0,-9,19,9,-8.711302757,3.336320162,0.112527482,-0.005862175,0.017453292,0.245278716,-58,-44,-12,38,167
1695162022040968200,-9.595960617,-1.912967205,-1.534683347,-0.904773355,-0.336675346,-0.330813169,16,0,-13,18,10,-8.713697433,3.331531763,0.111330383,-0.003863706,0.01825268,0.242880553,-57,-41,-12,34,167
1695162022073926400,-8.844181061,-1.725022316,-1.41138196,-0.667621732,-0.231022969,-0.353462487,-1,1,-12,16,8,-8.706514359,3.276464939,0.227449164,0.021316998,0.033441041,0.170269519,-59,-40,-9,38,168
1695162022074926400,-8.793902397,-1.734599113,-1.391031146,-0.662026048,-0.213569671,-0.351863712,2,2,-13,15,4,-8.70771122,3.276464939,0.229843363,0.022649311,0.033707503,0.165339977,-59,-43,-11,38,168
1695162022075926400,-8.747216225,-1.745373011,-1.371877551,-0.656696796,-0.195183769,-0.349732012,7,1,-10,16,7,-8.705317497,3.277662039,0.232237563,0.024114855,0.034107197,0.160410419,-55,-56,-11,36,169
1695162022076926400,-8.699332237,-1.757344007,-1.344344258,-0.65083462,-0.176131696,-0.347200602,4,0,-12,15,8,-8.702922821,3.276464939,0.235828862,0.025447167,0.03437366,0.15534763,-57,-43,-5,35,168
1695162022077926400,-8.652645111,-1.766920805,-1.315613866,-0.644705951,-0.156147003,-0.34440276,4,0,-11,19,11,-8.700529099,3.27287364,0.238223076,0.027045943,0.034506891,0.150551304,-58,-45,-12,40,167
1695162022108925500,-8.73404789,-2.057816267,-0.538695395,-0.449522227,0.183459431,-0.290577352,4,1,-16,15,11,-8.730456352,3.293224335,0.320823014,0.061552834,0.02691271,0.042900458,-54,-39,-9,36,166
1695162022109925500,-8.774748802,-2.057816267,-0.518344641,-0.437264919,0.188388973,-0.290977001,3,1,-11,13,7,-8.737639427,3.296815634,0.324414343,0.062885143,0.026113322,0.036771823,-53,-45,-11,38,168
1695162022110925500,-8.820239067,-2.056619167,-0.507570744,-0.425540596,0.191320062,-0.291643173,1,1,-10,15,6,-8.741230011,3.301604033,0.331596941,0.063817769,0.025313934,0.030643184,-58,-43,-9,40,166
1695162022111925500,-8.864531517,-2.053027868,-0.492008448,-0.414615631,0.191719756,-0.293108732,8,0,-13,18,7,-8.744821548,3.305195332,0.33518824,0.06461715,0.024514547,0.024647778,-54,-43,-13,37,167
1695162022112925500,-8.912415504,-2.049436569,-0.474051923,-0.404356807,0.190254211,-0.295107216,4,4,-10,19,7,-8.748413086,3.309983969,0.339976639,0.065549769,0.02358193,0.018785605,-58,-45,-12,34,168
1695162022146906400,-9.52173996,-2.091335297,0.026336219,-0.356260329,-0.086067379,-0.40355742,3,1,-18,15,8,-8.771158218,3.388992548,0.302866518,0.08020521,-0.005595712,-0.073810108,-54,-41,-12,37,169
1695162022147906400,-9.522936821,-2.108094692,0.057460841,-0.356260329,-0.10258805,-0.410485446,2,0,-16,14,4,-8.774748802,3.392583847,0.292092621,0.081670754,-0.007327718,-0.077540584,-58,-42,-11,35,168
1695162022148906400,-9.519346237,-2.128445387,0.093373865,-0.356127113,-0.11817611,-0.41754669,4,-1,-19,16,7,-8.774748802,3.396175146,0.284909993,0.083402753,-0.009326187,-0.081271052,-55,-44,-13,40,167
1695162022149906400,-9.510966301,-2.146401882,0.130484,-0.355194479,-0.132964775,-0.424607962,8,0,-15,19,7,-8.773551941,3.400963545,0.280121595,0.085267991,-0.011058193,-0.085001536,-53,-41,-11,38,167
1695162022150906400,-9.496601105,-2.165555477,0.171185419,-0.353862166,-0.147087291,-0.431802452,4,2,-13,13,7,-8.77235508,3.405751944,0.276530296,0.087133229,-0.012390506,-0.08833231,-59,-45,-11,38,168
1695162022185862700,-8.884882927,-2.561795712,0.922964752,-0.187722817,-0.205309346,-0.541584969,6,0,-21,14,7,-8.668207169,3.536235809,0.20470424,0.090597242,0.006928025,-0.167338446,-58,-42,-16,34,169
1695162022186862700,-8.851364136,-2.574964046,0.9648633,-0.170535982,-0.197049007,-0.546514511,1,1,-19,16,9,-8.653841972,3.538630009,0.202310041,0.08726646,0.009725881,-0.171868294,-58,-40,-9,35,168
1695162022187862700,-8.82263279,-2.583343744,1.009155989,-0.152816221,-0.18798928,-0.550777912,6,0,-20,16,11,-8.639476776,3.547009706,0.197521642,0.083802447,0.012790199,-0.176398173,-55,-38,-9,40,168
1695162022188862700,-8.796297073,-2.584540844,1.042674899,-0.134430319,-0.178130165,-0.555041373,4,1,-17,14,8,-8.628703117,3.554192305,0.193930343,0.07993874,0.015721286,-0.180661559,-55,-47,-7,38,168
1695162022189862700,-8.783128738,-2.588132143,1.07739079,-0.114845328,-0.167471662,-0.559970915,6,2,-21,17,7,-8.61314106,3.558980942,0.18674773,0.076075032,0.018785605,-0.18492496,-56,-40,-8,40,168
1695162022223841300,-8.819042206,-2.312798738,1.473631144,0.22596018,-0.040502299,-0.571428835,1,0,-16,13,12,-8.55448246,3.557783842,0.079008654,0.008793262,0.040635526,-0.261133224,-59,-41,-13,37,168
1695162022224841300,-8.83699894,-2.26970315,1.474828243,0.236485451,-0.042367533,-0.56876421,1,1,-19,17,9,-8.556877136,3.556586742,0.073023155,0.0063951,0.041301683,-0.266196012,-57,-45,-14,37,167
1695162022225841300,-8.85495472,-2.224213362,1.476025343,0.245012254,-0.044898927,-0.565433383,6,1,-19,18,10,-8.555679321,3.562572241,0.074220255,0.003996937,0.042234302,-0.271525264,-58,-41,-9,39,167
1695162022226841300,-8.878896713,-2.176329374,1.470039845,0.251540571,-0.048229709,-0.561969399,1,0,-20,15,7,-8.559270859,3.570951939,0.073023155,0.001465544,0.042900458,-0.276987731,-57,-43,-12,38,168
1695162022227841300,-8.904036522,-2.129642487,1.464054346,0.255937219,-0.05249311,-0.557972431,3,1,-22,18,7,-8.555679321,3.574543238,0.071826048,-0.001598775,0.043966308,-0.282716691,-57,-44,-9,37,168
1695162022259820200,-9.046490669,-1.368286252,1.037886381,-0.08020521,-0.185324654,-0.407954067,2,0,-21,15,7,-8.371326447,3.726574898,-0.116118781,-0.115245022,0.098324656,-0.389301687,-60,-43,-13,37,168
1695162022260820200,-9.020154953,-1.351526856,1.016338587,-0.115777947,-0.190787122,-0.395163864,5,0,-19,16,9,-8.371326447,3.726574898,-0.125695586,-0.121640123,0.101388969,-0.392499238,-58,-43,-11,36,166
1695162022261820200,-8.995016098,-1.340752959,0.990002394,-0.151617154,-0.195317,-0.381840736,2,0,-21,13,10,-8.377311707,3.731363297,-0.135272399,-0.127901986,0.104586519,-0.395830035,-57,-44,-15,36,167
1695162022262820200,-8.969876289,-1.333570361,0.962469101,-0.187323123,-0.198780999,-0.367851466,2,1,-19,15,11,-8.384494781,3.734954596,-0.14724341,-0.133630931,0.107917301,-0.398494661,-58,-44,-15,36,167
1695162022263820200,-8.941145897,-1.332373261,0.92895025,-0.223162323,-0.20157887,-0.35372895,5,3,-17,13,8,-8.394071579,3.742137194,-0.155623108,-0.139226645,0.110981621,-0.401026011,-56,-61,-7,38,167
1695162022300796600,-8.129511833,-1.701080322,0.441730201,-0.65083462,-0.098191425,-0.025047474,2,1,-20,13,8,-8.61314106,3.960009575,-0.262165099,-0.243147001,0.157612562,-0.420078099,-56,-44,-9,37,167
1695162022301796600,-8.098387718,-1.728613615,0.417788208,-0.656430304,-0.087666154,-0.004663093,-1,-1,-19,16,8,-8.621520042,3.968389273,-0.276530296,-0.248875946,0.159078106,-0.417813152,-57,-39,-9,42,168
1695162022302796600,-8.068459511,-1.756146908,0.397437483,-0.659894347,-0.077274114,0.015721286,3,0,-19,15,7,-8.633491516,3.98036027,-0.284909993,-0.254338443,0.160410419,-0.415148526,-59,-46,-12,36,181
1695162022303796600,-8.038532257,-1.78368032,0.378283858,-0.66122669,-0.066615619,0.036372125,1,0,-19,13,9,-8.646659851,3.986345768,-0.294486821,-0.259667695,0.161343038,-0.411817759,-58,-47,-14,36,168
1695162022304796600,-8.013393402,-1.811213613,0.348356336,-0.660560489,-0.056090351,0.057289433,3,1,-13,16,7,-8.658630371,3.991134167,-0.304063618,-0.264597237,0.162408888,-0.407820851,-59,-47,-12,38,167
1695162022338772800,-8.291120529,-2.248155355,-0.08499416,-0.290577352,0.01718683,0.456183791,0,1,-8,16,8,-9.004592896,4.021061897,-0.476446152,-0.28777948,0.157745793,-0.268194497,-57,-48,-12,37,168
1695162022339772800,-8.373720169,-2.260126352,-0.112527482,-0.252872884,0.012523737,0.47736752,2,0,-11,15,5,-9.021351814,4.022258759,-0.478840351,-0.287912726,0.158145472,-0.26020062,-54,-39,-11,37,168
1695162022340772800,-8.469488144,-2.26730895,-0.134075299,-0.213836133,0.006794794,0.498551309,3,-1,-9,16,8,-9.036913872,4.024652958,-0.48482585,-0.288445652,0.158811629,-0.252606452,-57,-39,-9,40,169
1695162022341772800,-8.567650795,-2.281674147,-0.154426008,-0.173600301,0.000266462,0.519601822,4,0,-15,16,9,-9.045293808,4.029441357,-0.492008448,-0.289245039,0.159877479,-0.24514547,-53,-47,-4,38,172
1695162022342772800,-8.674192429,-2.299630642,-0.169988319,-0.132565081,-0.006794794,0.540652335,5,0,-16,16,11,-9.059659004,4.030638695,-0.493205547,-0.290710568,0.161076576,-0.237817764,-58,-45,-8,40,168
1695162022375775300,-9.562441826,-2.467224836,-0.183156431,0.590880513,-0.117509954,0.901042879,1,-1,-16,16,4,-9.1326828,3.969586372,-0.523133099,-0.381840736,0.218765706,-0.123238891,-59,-44,-9,40,168
1695162022376775300,-9.538499832,-2.445677042,-0.177170932,0.613796294,-0.118309341,0.911301672,1,-3,-15,15,6,-9.133879662,3.960009575,-0.521935999,-0.387169987,0.222096488,-0.118842266,-57,-44,-12,38,168
1695162022377775300,-9.510966301,-2.418143749,-0.175973818,0.633248091,-0.118975498,0.919695258,-1,0,-15,13,9,-9.130288124,3.949235678,-0.518344641,-0.392499238,0.225560486,-0.114445634,-57,-41,-14,37,168
1695162022378775300,-9.479841232,-2.385822058,-0.183156431,0.648702919,-0.120041348,0.925823927,1,-1,-12,14,8,-9.127894402,3.944447279,-0.506373644,-0.398094952,0.228758052,-0.110049009,-58,-41,-13,37,167
1695162022379775300,-9.442731857,-2.345120668,-0.191536129,0.660427272,-0.121240422,0.930087328,2,0,-12,13,5,-9.126696587,3.936067581,-0.499191046,-0.40355742,0.23222205,-0.105785601,-55,-39,-9,38,168
1695162022415745600,-8.908824921,-1.052251697,-0.549469292,-0.060886677,-0.329614073,0.47523582,4,0,-12,14,5,-9.178172112,3.846285105,-0.183156431,-0.52932775,0.288312376,-0.049428791,-54,-37,-16,40,169
1695162022416745600,-8.902838707,-1.011550188,-0.550666392,-0.141358346,-0.346134782,0.42540735,-1,-2,-18,13,4,-9.18296051,3.837905407,-0.16639702,-0.53652221,0.288978547,-0.04769678,-58,-44,-9,36,169
1695162022417745600,-8.898050308,-0.979228497,-0.548272192,-0.223562017,-0.361456335,0.374912739,6,0,-15,16,5,-9.184157372,3.833117008,-0.152031809,-0.543450236,0.289245039,-0.045831546,-56,-41,-9,38,166
1695162022418745600,-8.896853447,-0.954089403,-0.542286694,-0.307098001,-0.375312388,0.323885113,1,1,-12,14,8,-9.184157372,3.82593441,-0.134075299,-0.550111771,0.288978547,-0.043833077,-57,-41,-11,38,168
1695162022419745600,-8.896853447,-0.942118347,-0.536301196,-0.391166925,-0.387836158,0.272990793,0,0,-13,14,7,-9.184157372,3.818751812,-0.123301387,-0.556773365,0.288312376,-0.041967839,-55,-43,-12,36,168
1695162022462727400,-9.440337181,-1.70946002,-0.415394008,-1.546681523,-0.352263391,-0.33401072,-1,0,-16,14,8,-9.105149269,3.688267708,0.132878199,-0.646837711,0.195183769,0.028511487,-59,-41,-11,34,167
1695162022463727400,-9.476250648,-1.78128612,-0.404620081,-1.575992227,-0.343869835,-0.33973965,0,-1,-10,13,8,-9.103952408,3.68108511,0.146046311,-0.648702919,0.18798928,0.033574272,-56,-41,-3,40,168
1695162022464727400,-9.503783226,-1.855506301,-0.385466486,-1.600906491,-0.336142421,-0.342670739,-1,0,-11,13,7,-9.103952408,3.672705412,0.156820208,-0.650568187,0.180528328,0.038503829,-56,-44,-12,40,168
1695162022465727400,-9.526528358,-1.9309237,-0.365115762,-1.621290922,-0.32828176,-0.34227106,4,3,-13,16,7,-9.102754593,3.665522814,0.16759412,-0.652166963,0.173067391,0.043566614,-56,-39,-8,38,168
1695162022466727400,-9.549273491,-2.00753808,-0.349553436,-1.636879086,-0.321087271,-0.339073509,4,1,-17,15,7,-9.103952408,3.659537315,0.175973818,-0.653366029,0.165606424,0.048362937,-59,-40,-16,36,169
1695162022505676800,-9.333795547,-3.325546265,0.301669419,-1.022683024,-0.227425739,-0.030509954,-1,0,-19,13,9,-9.10634613,3.499125719,0.269347697,-0.634846866,0.010924961,0.13456355,-59,-43,-9,40,168
1695162022506676800,-9.294290543,-3.351882458,0.33279404,-0.9562006,-0.22183001,-0.011724349,0,0,-17,14,8,-9.107542992,3.489548922,0.270544797,-0.631516039,0.000666156,0.139226645,-54,-43,-12,40,169
1695162022507676800,-9.255983353,-3.368641853,0.367509961,-0.887453258,-0.215301678,0.005595712,0,-1,-20,14,11,-9.105149269,3.478775024,0.265756398,-0.627918839,-0.010392036,0.143756509,-55,-39,-11,37,168
1695162022508676800,-9.226056099,-3.38061285,0.396240383,-0.81857276,-0.208107188,0.022382848,1,-1,-20,13,9,-9.10036087,3.466804028,0.263362199,-0.624055147,-0.021450229,0.148286372,-57,-41,-12,34,167
1695162022509676800,-9.205705643,-3.386598349,0.417788208,-0.74902606,-0.201445624,0.037704438,-1,-2,-18,15,8,-9.101557732,3.453635931,0.257376671,-0.619924963,-0.033041347,0.152683005,-54,-41,-7,41,168
1695162022543678600,-8.960299492,-3.016694069,1.000776291,0.167604893,-0.080071971,0.1854579,2,0,-24,14,9,-9.123106003,3.232172251,0.089782566,-0.510275662,-0.27379021,0.205975503,-57,-44,-12,40,168
1695162022544678600,-8.971074104,-2.989160776,1.025915384,0.193052068,-0.07500919,0.186790213,3,-2,-17,13,10,-9.124302864,3.216609955,0.071826048,-0.502415001,-0.285248101,0.206641659,-55,-40,-7,40,170
1695162022545678600,-8.974664688,-2.960430384,1.057040095,0.216500759,-0.070346095,0.187323123,4,0,-20,13,7,-9.125499725,3.203441858,0.047884032,-0.494421154,-0.296705961,0.207041353,-58,-43,-9,38,169
1695162022546678600,-8.977059364,-2.930502892,1.082179189,0.237817764,-0.065016843,0.187189892,2,0,-20,13,9,-9.126696587,3.191470861,0.032321721,-0.486160785,-0.307764143,0.207441032,-55,-40,-8,40,167
1695162022547678600,-8.980650902,-2.905363798,1.098938584,0.250474721,-0.061686065,0.187189892,1,0,-23,13,8,-9.127894402,3.178302765,0.01436521,-0.477634013,-0.318555921,0.207574263,-55,-43,-14,40,167
1695162022580656700,-9.186552048,-2.266111851,1.170764685,0.14495559,0.003597243,0.119641654,7,0,-24,13,7,-9.168595314,3.080140591,-0.313640416,-0.316424191,-0.45911485,0.167471662,-57,-41,-7,40,169
1695162022581656700,-9.18296051,-2.244564056,1.159990668,0.117509954,0.010258805,0.115911178,4,0,-23,12,7,-9.17098999,3.08373189,-0.324414343,-0.310428768,-0.464577317,0.163741201,-54,-41,-5,36,169
1695162022582656700,-9.181763649,-2.223016262,1.150413871,0.088865243,0.017719755,0.112447165,2,0,-22,13,8,-9.166201591,3.088520288,-0.336385339,-0.305232793,-0.470306277,0.159744263,-57,-40,-9,38,168
1695162022583656700,-9.175778389,-2.207453966,1.139639974,0.059287902,0.02571363,0.109249614,0,0,-21,13,7,-9.165003777,3.089717388,-0.347159237,-0.3007029,-0.476035208,0.156013787,-57,-41,-9,40,168
1695162022584656700,-9.169792175,-2.196680069,1.128866076,0.02917764,0.034240428,0.106052071,3,0,-22,12,7,-9.163806915,3.093308687,-0.353144765,-0.298038274,-0.47989893,0.153349161,-56,-40,-8,40,167
1695162022646595800,-8.947132111,-2.384624958,0.749385118,-0.329480857,0.186257273,0.089931086,1,0,-25,16,0,-8.933963776,3.155557871,-0.511162043,-0.30856356,-0.55837214,0.061686065,-56,-38,-7,41,166
1695162022647595800,-8.933963776,-2.382230759,0.712275028,-0.334410399,0.197315469,0.092196018,-1,-1,-20,13,7,-8.921992302,3.153163671,-0.518344641,-0.309895873,-0.558638573,0.057422664,-58,-41,-12,36,166
1695162022648595800,-8.924386978,-2.382230759,0.673967779,-0.33867383,0.208773345,0.094194487,1,0,-24,13,8,-8.908824921,3.148375273,-0.525527298,-0.31109494,-0.558638573,0.053159267,-54,-41,-8,41,167
1695162022649595800,-8.914810181,-2.384624958,0.640448928,-0.342004567,0.220231235,0.096059717,2,1,-24,13,8,-8.890868187,3.143586874,-0.529118598,-0.312027574,-0.558105648,0.049029093,-58,-44,-9,40,168
1695162022650595800,-8.907627106,-2.381033659,0.599747539,-0.344802469,0.233021438,0.097791731,2,0,-25,13,7,-8.877699852,3.139995575,-0.538695395,-0.312960178,-0.557173014,0.04516539,-58,-41,3,39,168
1695162022686572500,-9.348160744,-2.379836559,-0.165199921,-0.296839207,0.400226623,0.082203679,5,0,-20,10,4,-9.11233139,3.12203908,-0.666785181,-0.250341505,-0.471771836,-0.039036751,-55,-40,-13,40,167
1695162022687572500,-9.387664795,-2.402581453,-0.18555063,-0.280851454,0.386637062,0.076874427,1,0,-24,12,8,-9.105149269,3.135207176,-0.665588081,-0.247010723,-0.462712079,-0.044632465,-51,-40,-9,42,170
1695162022688572500,-9.410409927,-2.41694665,-0.192733243,-0.268993855,0.375845343,0.073143952,4,0,-21,15,5,-9.097966194,3.150769472,-0.661996782,-0.243946403,-0.453119457,-0.050094947,-57,-40,-9,40,168
1695162022689572500,-9.443928719,-2.442085743,-0.202310041,-0.249808565,0.357192963,0.067548238,1,0,-23,13,8,-9.091980934,3.165134668,-0.652419984,-0.24154824,-0.443127096,-0.055424199,-55,-40,-8,40,169
1695162022690572500,-9.476250648,-2.468421936,-0.215478152,-0.228491575,0.336009204,0.061819296,0,0,-23,13,8,-9.083600998,3.181894064,-0.644040287,-0.239949465,-0.433134764,-0.060753446,-51,-39,-9,42,170
1695162022723553200,-9.508571625,-2.149993181,-0.216675252,0.156013787,-0.280052066,-0.116977029,-1,2,-19,14,11,-8.84896946,3.253720045,-0.378283858,-0.212104142,-0.242480844,-0.091529861,-58,-40,-10,40,168
1695162022724553200,-9.478644371,-2.106897593,-0.220266551,0.160277188,-0.306831539,-0.128834605,-1,1,-19,13,8,-8.847772598,3.245340347,-0.351947635,-0.207707509,-0.233687595,-0.088199086,-54,-44,-8,38,168
1695162022725553200,-9.446322441,-2.062604666,-0.220266551,0.161476254,-0.331479341,-0.140558958,0,0,-17,10,5,-8.850166321,3.238157749,-0.330399841,-0.202378258,-0.225560486,-0.084601834,-55,-44,-9,40,171
1695162022726553200,-9.417592049,-2.018311977,-0.217872351,0.159877479,-0.353862166,-0.152283311,0,0,-17,13,8,-8.859743118,3.229778051,-0.312443316,-0.196116373,-0.217699856,-0.080738127,-55,-43,-7,39,169
1695162022727553200,-9.382876396,-1.972822189,-0.210689753,0.155480847,-0.373980075,-0.163874418,0,0,-20,13,5,-8.870517731,3.226186752,-0.281318694,-0.188921899,-0.210505351,-0.076607957,-56,-41,-9,37,168
1695162022762552500,-8.847772598,-1.704671621,-0.04070143,-0.279785603,-0.26339817,-0.301502287,4,0,-19,13,7,-9.02973175,3.204638958,0.300472319,0.123105668,-0.184658498,0.060353752,-57,-43,-13,39,167
1695162022763552500,-8.839392662,-1.723825216,-0.034715924,-0.304833084,-0.237551302,-0.301635504,0,0,-18,13,9,-8.997409821,3.215412855,0.337582439,0.140292495,-0.185191423,0.070079632,-58,-41,-9,38,168
1695162022764552500,-8.834604263,-1.74657011,-0.022744916,-0.328548223,-0.210505351,-0.3007029,4,0,-17,13,8,-8.960299492,3.227383852,0.380678058,0.1573461,-0.185191423,0.079672284,-58,-40,-8,40,167
1695162022765552500,-8.829815865,-1.770512104,-0.017956512,-0.350664616,-0.183192953,-0.298837662,4,1,-13,14,7,-8.916007042,3.236960649,0.427365005,0.173999995,-0.185058191,0.089398161,-56,-41,-9,40,167
1695162022766552500,-8.827422142,-1.790862918,-0.007182605,-0.370649308,-0.155480847,-0.29603982,3,0,-18,13,7,-8.884882927,3.244143248,0.460883826,0.18492496,-0.184791744,0.095926493,-57,-43,-7,40,168
1695162022799526200,-8.992621422,-2.157175779,0.045489833,-0.39782849,0.274189889,-0.160943344,-1,-2,-23,11,3,-7.764396191,3.409343243,1.304839969,0.36878407,-0.102055125,0.332145482,-53,-40,-8,39,170
1695162022800526200,-9.005789757,-2.170343876,0.047884032,-0.383306265,0.288445652,-0.152549773,-2,-1,-23,13,2,-7.747636795,3.422511339,1.365892053,0.368384391,-0.090863705,0.344935685,-57,-40,-6,38,170
1695162022801526200,-9.015366554,-2.183511972,0.047884032,-0.367585003,0.301235855,-0.144156188,-1,-3,-21,12,4,-7.727285862,3.429693937,1.431732655,0.366785586,-0.078473203,0.357192963,-57,-45,-12,34,168
1695162022802526200,-9.026140213,-2.197877169,0.049081136,-0.351064324,0.312960178,-0.136162326,-1,-5,-21,12,4,-7.718906403,3.440467834,1.498770237,0.363721281,-0.065283306,0.368650824,-55,-40,-6,40,171
1695162022803526200,-9.034520149,-2.205059767,0.049081136,-0.333477795,0.323485464,-0.128434911,-1,-2,-22,14,4,-7.715314865,3.447650433,1.55862534,0.359191418,-0.051160797,0.379042894,-56,-41,-8,37,168
1695162023073464000,-9.3685112,-1.893813491,0.067037649,-0.15428178,-0.007727412,-0.21556814,0,-1,-23,13,5,-7.888894558,3.017891169,2.379836559,-0.459381312,0.224627867,0.303767234,-57,-41,-8,35,170
1695162023074464000,-9.355342865,-1.886630893,0.070628949,-0.152016848,-0.006928025,-0.219964772,0,-1,-21,11,4,-7.929595947,2.987963676,2.360682964,-0.461113334,0.211171508,0.302701384,-59,-45,-13,40,170
1695162023075464000,-9.340977669,-1.878251195,0.077811554,-0.150151595,-0.0063951,-0.224228173,-1,0,-20,12,1,-7.975085735,2.960430384,2.346317768,-0.461779475,0.198248088,0.301235855,-54,-45,-12,36,170
1695162023076464000,-9.327810287,-1.873462796,0.08259996,-0.148819283,-0.005728943,-0.228491575,2,-1,-23,12,2,-8.0229702,2.93529129,2.330755472,-0.461646259,0.18599081,0.299503833,-58,-41,-8,38,169
1695162023077464000,-9.315838814,-1.868674397,0.088585466,-0.14748697,-0.005196018,-0.232621744,0,0,-21,13,3,-8.075642586,2.914940596,2.315192938,-0.460580379,0.174399704,0.297238916,-54,-45,-12,40,168
1695162023148419500,-9.095572472,-1.769315004,0.246602774,-0.136961713,0.0042634,-0.267661542,1,0,-23,10,4,-8.886079788,3.186682463,2.127248287,-0.417946398,0.199047476,0.089131698,-57,-40,-9,37,170
1695162023149419500,-9.085995674,-1.759738207,0.251391172,-0.137094945,0.003730475,-0.267261863,0,-1,-23,12,5,-8.896853447,3.220201254,2.118868589,-0.423408896,0.210638598,0.074343033,-58,-37,-18,38,170
1695162023150419500,-9.071630478,-1.74776721,0.257376671,-0.137761101,0.002931087,-0.266728938,-1,0,-22,10,3,-8.902838707,3.252522945,2.110488892,-0.430203676,0.222229704,0.059820827,-57,-40,-9,38,172
1695162023151419500,-9.059659004,-1.740584612,0.25977087,-0.138826951,0.001865237,-0.265796334,-1,0,-23,12,2,-8.905233383,3.287238836,2.110488892,-0.438197553,0.234353751,0.046497703,-57,-43,-9,33,169
1695162023152419500,-9.051279068,-1.728613615,0.25977087,-0.140425727,0.000666156,-0.264996946,1,0,-22,13,2,-8.905233383,3.309983969,2.110488892,-0.444192976,0.242347628,0.037837673,-57,-40,-11,35,169
1695162023224375600,-8.853757858,-1.41257906,0.328005642,-0.547180712,-0.134830013,-0.129234299,0,-4,-24,13,8,-8.567650795,3.313575268,2.682703018,0.700796306,-0.460047454,-0.251274139,-56,-41,-9,36,172
1695162023225375600,-8.847772598,-1.41018486,0.329202741,-0.562901974,-0.143223584,-0.126969382,0,-1,-22,13,5,-8.572439194,3.325546265,2.698265314,0.705459356,-0.474303216,-0.254604906,-59,-41,-9,34,168
1695162023226375600,-8.841787338,-1.41138196,0.328005642,-0.573693693,-0.14908576,-0.125370592,-1,-1,-19,12,7,-8.58081913,3.34469986,2.71502471,0.709456325,-0.489891261,-0.25766921,-57,-41,-15,36,169
1695162023227375600,-8.833407402,-1.414973259,0.329202741,-0.589947879,-0.15841195,-0.12337213,4,-1,-23,13,4,-8.583212852,3.359065056,2.738966703,0.71212095,-0.50641191,-0.260600299,-56,-40,-11,25,168
1695162023228375600,-8.826224327,-1.416170359,0.33279404,-0.606202185,-0.168137819,-0.122039817,-1,-3,-20,11,3,-8.585607529,3.374627352,2.754528999,0.713853002,-0.523865223,-0.263131708,-55,-39,-12,35,168
1695162023274371200,-8.726864815,-1.629254222,0.338779539,-0.837091923,-0.345068902,-0.093794793,-1,-2,-21,13,4,-8.947132111,3.49673152,2.86107111,0.639643133,-0.953935683,-0.204776406,-58,-35,-9,40,172
1695162023275371200,-8.717288017,-1.644816518,0.33279404,-0.842820823,-0.354395092,-0.090464011,1,-2,-21,13,8,-8.963891029,3.482366323,2.852691412,0.639909685,-0.977384388,-0.200513005,-55,-39,-12,34,168
1695162023276371200,-8.710105896,-1.661576033,0.331596941,-0.847217441,-0.363588065,-0.086467072,-3,0,-18,13,4,-8.981847763,3.466804028,2.835932016,0.641108751,-1.000033736,-0.196516067,-57,-40,-9,40,170
1695162023277371200,-8.699332237,-1.679532528,0.331596941,-0.850947917,-0.37238133,-0.081937209,0,-1,-25,10,9,-8.999804497,3.448847532,2.825158119,0.643906593,-1.02215004,-0.192785591,-53,-41,-13,38,169
1695162023278371200,-8.688557625,-1.696291924,0.33399114,-0.853612542,-0.380908102,-0.07714089,-1,-1,-22,9,2,-9.02374649,3.435679436,2.804807186,0.648036778,-1.043333888,-0.18905513,-55,-39,-8,40,168
1695162023316322800,-8.487444878,-1.867477298,0.325611442,-0.828431845,-0.434600294,0.09659265,-1,-2,-25,11,3,-10.27112484,3.348291159,2.516305923,0.88092494,-1.314859033,-0.193984687,-56,-43,-11,38,170
1695162023317322800,-8.48385334,-1.872265697,0.324414343,-0.827232778,-0.43007046,0.109382853,-1,0,-22,11,1,-10.33217716,3.373430252,2.518700123,0.888785601,-1.319122553,-0.199980095,-57,-41,-13,37,170
1695162023318322800,-8.481459618,-1.875856996,0.33279404,-0.826699853,-0.424741209,0.122439511,0,-1,-23,13,4,-10.39203262,3.397372246,2.524685621,0.895313919,-1.322320104,-0.207041353,-58,-39,-9,36,168
1695162023319322800,-8.47786808,-1.879448295,0.33279404,-0.82643342,-0.418879032,0.135629401,-1,-2,-24,11,1,-10.42914295,3.410540342,2.523488522,0.899044454,-1.323652267,-0.21197091,-55,-41,-11,40,170
1695162023320322800,-8.474276543,-1.886630893,0.337582439,-0.826166868,-0.412750393,0.148419604,-1,-4,-23,13,4,-10.47942066,3.434482336,2.521094322,0.904107153,-1.324851394,-0.219964772,-54,-40,-8,37,174
1695162023358302000,-8.461109161,-2.157175779,0.535104096,-0.842820823,-0.283915788,0.373846859,-1,0,-24,13,3,-10.4782238,3.697844505,2.013523579,0.976851463,-1.168837667,-0.379309326,-51,-40,-7,44,173
1695162023359302000,-8.453926086,-2.173935175,0.548272192,-0.843353748,-0.278852999,0.383306265,-1,-1,-24,12,4,-10.44590187,3.701435804,1.976413488,0.985511482,-1.153382778,-0.381574243,-51,-39,-11,42,168
1695162023360302000,-8.449137688,-2.183511972,0.55665189,-0.843753397,-0.275388956,0.389434904,-1,-1,-21,9,3,-10.41118622,3.702632904,1.935712099,0.994970918,-1.137528419,-0.382906556,-54,-41,-12,45,168
1695162023361302000,-8.443152428,-2.196680069,0.566228688,-0.844419599,-0.269926488,0.398094952,0,-1,-24,13,5,-10.37647057,3.703830004,1.900996208,1.005496144,-1.12140727,-0.383306265,-53,-41,-6,41,167
1695162023362302000,-8.43956089,-2.207453966,0.575805485,-0.845485449,-0.264730483,0.406355262,1,0,-27,12,3,-10.34295177,3.705027103,1.865083098,1.016820788,-1.105019927,-0.382906556,-54,-41,-11,42,170
1695162023401277300,-8.482656479,-2.475604534,0.66917938,-0.876794755,-0.103520676,0.497885138,-1,-3,-24,13,3,-9.191340446,3.933673382,1.826775908,1.200813174,-0.6752159,-0.334543616,-56,-37,-8,36,170
1695162023402277300,-8.495824814,-2.487575531,0.67037648,-0.878660023,-0.090597242,0.498950988,-1,-2,-23,13,1,-9.09437561,3.957615376,1.848323703,1.194951057,-0.644972384,-0.333477795,-55,-44,-11,41,168
1695162023403277300,-8.512583733,-2.504334927,0.67037648,-0.880525291,-0.077540584,0.499483913,-1,-3,-23,10,8,-9.002198219,3.982754469,1.869871497,1.186557412,-0.614595711,-0.332545161,-55,-40,-9,44,171
1695162023404277300,-8.530540466,-2.517503023,0.66798228,-0.881857574,-0.06461715,0.499483913,-1,0,-22,13,5,-8.907627106,4.010287762,1.890222192,1.17589891,-0.58381933,-0.33187899,-54,-39,-12,40,169
1695162023405277300,-8.550890923,-2.535459518,0.664390981,-0.882923424,-0.051960181,0.499084204,0,-3,-26,10,3,-8.81066227,4.035427094,1.911770105,1.162575841,-0.552909672,-0.331212848,-55,-43,-12,40,169
1695162023444263900,-8.985439301,-2.835932016,0.660799682,-0.822836161,0.084068909,0.436332315,-1,0,-25,11,2,-7.295132637,4.313154221,2.158372879,0.563568175,-0.068880551,-0.31429249,-53,-40,-7,42,170
1695162023445263900,-9.003395081,-2.855085611,0.663193882,-0.813776374,0.085534461,0.430203676,-1,-4,-23,10,3,-7.271190643,4.325125217,2.161964178,0.518802464,-0.052759573,-0.312826961,-55,-38,-9,42,165
1695162023446263900,-9.022548676,-2.864662409,0.654814184,-0.803117871,0.087399691,0.4243415,-1,-3,-24,10,3,-7.255628109,4.335899353,2.165555477,0.473370582,-0.037837673,-0.311761081,-55,-41,-9,41,169
1695162023447263900,-9.044096947,-2.85867691,0.651222885,-0.795656979,0.088465542,0.41861257,-4,-3,-28,11,3,-7.25083971,4.345476151,2.166752577,0.427272588,-0.024248086,-0.310562044,-53,-41,-12,41,171
1695162023448263900,-9.054870605,-2.865859509,0.645237386,-0.787529886,0.089531392,0.411951005,-1,-3,-22,12,4,-7.249642849,4.355052948,2.167949677,0.380108714,-0.01185758,-0.309629381,-54,-39,-15,39,170
1695162023489231500,-9.10036087,-2.949656487,0.517147541,-0.649369061,0.20464319,0.295640111,0,-3,-19,9,4,-8.019378662,4.552574635,2.169146776,-0.586084247,0.105119444,-0.324284822,-53,-39,-8,37,169
1695162023490231500,-9.099164009,-2.949656487,0.501585245,-0.641108751,0.216500759,0.288978547,0,-2,-23,11,4,-8.078036308,4.554968834,2.157175779,-0.63005054,0.107251145,-0.32468453,-52,-38,-8,42,169
1695162023491231500,-9.099164009,-2.953247786,0.488417149,-0.632981598,0.228491575,0.282450229,0,-3,-21,12,2,-8.118738174,4.553771496,2.147598982,-0.658295512,0.108316995,-0.324817777,-53,-39,-10,38,168
1695162023492231500,-9.089587212,-2.954444885,0.476446152,-0.624721289,0.241015315,0.27632159,-1,-3,-22,11,3,-8.183381081,4.550180435,2.128445387,-0.699197531,0.109249614,-0.324284822,-50,-41,-9,38,170
1695162023493231500,-9.078812599,-2.960430384,0.466869324,-0.61606127,0.254604906,0.270459414,-1,-6,-19,13,1,-8.245630264,4.545392036,2.102109194,-0.738101065,0.109249614,-0.322952509,-53,-39,-11,40,168
1695162023534205700,-8.197746277,-1.41018486,-0.642843127,-1.1016891,-0.384505361,0.500816226,6,1,-5,15,8,-9.136273384,4.359841347,1.590947032,-1.0586555,0.021450229,-0.057422664,-55,-40,-11,38,167
1695162023535205700,-8.213309288,-1.41018486,-0.666785181,-1.123405814,-0.395563543,0.505212903,3,0,-6,20,7,-9.13866806,4.345476151,1.575384736,-1.052526832,0.019718224,-0.029444104,-50,-40,-9,40,170
1695162023536205700,-8.232462883,-1.406593442,-0.695515573,-1.145388961,-0.405955583,0.510275662,0,0,-6,13,7,-9.1326828,4.332307816,1.563413739,-1.044932604,0.019451762,0.0,-57,-39,-9,39,169
1695162023537205700,-8.257601738,-1.405396342,-0.729034424,-1.167372108,-0.415548235,0.515604913,4,3,-4,18,9,-9.121908188,4.317942619,1.551442742,-1.035606384,0.020251149,0.030509954,-55,-47,-11,41,171
1695162023538205700,-8.289923668,-1.401805043,-0.760159016,-1.189355254,-0.424741209,0.52146709,4,1,-6,15,7,-9.099164009,4.303577423,1.544260144,-1.024814725,0.022382848,0.062218986,-51,-39,-9,36,170
1695162023581172800,-8.35696125,-0.574608386,-1.528697729,-0.340539038,-0.122439511,-1.377477884,-1,0,-26,14,4,-8.265981674,3.831919909,1.612494826,-0.66122669,0.170669213,0.771675348,-57,-40,-11,38,171
1695162023582172800,-8.270770073,-0.574608386,-1.519120932,-0.350531399,-0.111114852,-1.356160879,0,0,-23,13,4,-8.227674484,3.805583715,1.626860023,-0.64150846,0.177863702,0.807381272,-55,-40,-7,37,170
1695162023583172800,-8.213309288,-0.574608386,-1.519120932,-0.356926501,-0.103520676,-1.341505289,1,0,-24,14,5,-8.191761017,3.782838583,1.642422318,-0.623122513,0.184791744,0.842021406,-50,-39,-6,34,169
1695162023584172800,-8.128314972,-0.573411286,-1.504755735,-0.366385907,-0.091529861,-1.318989277,-1,1,-21,15,7,-8.155848503,3.762487888,1.665167332,-0.605802417,0.190920368,0.875329256,-54,-41,-13,38,170
1695162023585172800,-8.049305916,-0.571017087,-1.489193439,-0.375445634,-0.079805516,-1.29594028,1,0,-23,15,7,-8.125920296,3.739742994,1.687912226,-0.589947879,0.196782529,0.907571197,-55,-41,-11,36,168
1695162023626148300,-10.09156036,0.344765037,-2.483984232,-2.552044392,-2.317157507,-0.134963244,5,0,-19,13,1,-7.661445618,3.282450438,1.675941229,-0.542784095,0.271924943,1.312460899,-55,-40,-8,40,169
1695162023627148300,-10.12268448,0.328005642,-2.472013235,-2.546315432,-2.330480814,-0.116843797,9,0,-21,14,1,-7.655459881,3.260902643,1.657984734,-0.549179137,0.275788665,1.320055127,-53,-40,-7,40,170
1695162023628148300,-10.15141487,0.312443316,-2.456450939,-2.539787292,-2.342604876,-0.0976585,6,-3,-20,13,3,-7.650671482,3.238157749,1.640028119,-0.556107163,0.280052066,1.325784087,-51,-37,-9,40,172
1695162023629148300,-10.18014526,0.294486821,-2.436100245,-2.532325983,-2.353396654,-0.076741189,6,-1,-19,13,2,-7.649474621,3.217807055,1.616086125,-0.562901974,0.284182221,1.329647779,-55,-40,-8,40,168
1695162023630148300,-10.2028904,0.281318694,-2.422932148,-2.526863575,-2.35965848,-0.062218986,8,0,-19,13,0,-7.653065681,3.193865061,1.592144132,-0.56983,0.288312376,1.331646204,-53,-41,-9,42,169
1695162023664125300,-8.662221909,2.219424963,2.628833532,-0.076341502,0.150151595,-0.1573461,-3,-6,-37,10,0,-7.965508938,2.913743496,1.248576164,-0.704793274,0.356926501,1.065316916,-55,-39,-11,38,167
1695162023665125300,-8.65743351,2.220622063,2.632424831,-0.076474734,0.151350692,-0.160010725,-2,-3,-38,12,-2,-7.99064827,2.914940596,1.237802267,-0.712387443,0.361056656,1.038937211,-55,-41,-12,41,168
1695162023666125300,-8.656236649,2.219424963,2.633621931,-0.076741189,0.152549773,-0.162808567,-1,-3,-38,11,3,-8.016983986,2.914940596,1.22822547,-0.719848394,0.365719765,1.011491537,-54,-36,-8,38,168
1695162023667125300,-8.655038834,2.220622063,2.633621931,-0.077007659,0.153482378,-0.166006133,-1,-3,-38,12,1,-8.039729118,2.914940596,1.221042871,-0.727575779,0.370516092,0.983646274,-47,-38,-9,39,169
1695162023668125300,-8.65743351,2.219424963,2.632424831,-0.077807046,0.15428178,-0.169603363,-1,-4,-37,12,0,-8.066065788,2.914940596,1.211466074,-0.735569656,0.375578851,0.955134749,-54,-43,-11,35,168
1695162023702104800,-8.123526573,-7.266402245,-2.262520552,-0.674283266,-0.806848407,1.994471669,-3,-7,-26,7,-1,-9.50976944,1.626860023,3.500322819,-0.306831539,0.441794783,-0.304833084,-56,-42,-19,32,173
1695162023703104800,-8.008605003,-7.354987621,-2.200271368,-0.381707519,-0.729174554,2.068281651,-1,-5,-25,10,-2,-9.533711433,1.595735431,3.493140221,-0.273124039,0.395963252,-0.329081148,-55,-41,-21,32,169
1695162023704104800,-7.915230751,-7.405265808,-2.139219284,-0.08726646,-0.646970928,2.13529706,-1,-6,-28,10,-4,-9.555258751,1.565807939,3.484760523,-0.237817764,0.349199086,-0.354128659,-56,-47,-21,34,170
1695162023705104800,-7.854178905,-7.414842606,-2.084152699,0.207307816,-0.560637057,2.194051981,-1,-7,-27,9,-3,-9.570821762,1.537077546,3.478775024,-0.200113311,0.30176878,-0.379575789,-57,-40,-19,31,170
1695162023706104800,-7.823053837,-7.39209795,-2.039859772,0.500549793,-0.470839173,2.243347645,-1,-8,-31,8,-1,-9.581595421,1.514332533,3.471592426,-0.161343038,0.253805518,-0.40568912,-58,-43,-21,31,168
1695162023740104800,-8.270770073,-1.787271619,-2.056619167,-0.313759565,-0.448856056,0.410885125,-2,-2,-23,13,3,-8.767566681,3.27407074,-0.283712894,-2.258935452,0.901309311,-0.768877506,-53,-40,-21,28,169
1695162023741104800,-8.267178535,-1.793257117,-2.035071373,-0.321087271,-0.439130157,0.404090345,-1,0,-25,10,0,-8.726864815,3.245340347,-0.293289721,-2.204044342,0.883589566,-0.699597239,-47,-41,-19,31,168
1695162023742104800,-8.264783859,-1.802833915,-2.019509077,-0.32828176,-0.428738147,0.397428781,-1,0,-21,13,0,-8.693346024,3.219004154,-0.29568392,-2.149952412,0.865470171,-0.629650831,-54,-37,-19,31,169
1695162023743104800,-8.270770073,-1.817199111,-2.006340981,-0.334943324,-0.417946398,0.390634,-1,-2,-27,12,1,-8.66341877,3.19745636,-0.294486821,-2.097193003,0.846817791,-0.560237348,-54,-40,-18,30,170
1695162023744104800,-8.282740593,-1.831564307,-1.997961283,-0.341071963,-0.407154679,0.384238869,-2,0,-26,11,-1,-8.633491516,3.177105665,-0.29807812,-2.045232773,0.827099502,-0.49135682,-51,-43,-21,29,170
1695162023779081900,-9.233239174,-2.281674147,-1.030703783,-0.066215925,0.021183766,-0.068747319,-1,0,-38,12,2,-8.676587105,1.539471745,-2.498349428,-0.023715161,0.200779468,0.061819296,-44,-40,-28,25,171
1695162023780081900,-9.224859238,-2.279279947,-1.030703783,-0.070212863,0.024514547,-0.082603365,0,0,-37,11,-2,-8.664615631,1.534683347,-2.510320425,-0.020917306,0.208107188,0.060753446,-44,-37,-31,25,173
1695162023781081900,-9.218873978,-2.274491549,-1.029506683,-0.07274425,0.026646247,-0.091663092,0,0,-37,11,-2,-8.658630371,1.52630353,-2.52827692,-0.018119449,0.215301678,0.059687596,-43,-39,-29,26,172
1695162023782081900,-9.208099365,-2.266111851,-1.029506683,-0.076341502,0.029710567,-0.104852989,-1,-1,-37,8,0,-8.661025047,1.517923832,-2.540247917,-0.01505513,0.222229704,0.059154671,-44,-41,-28,30,168
1695162023783081900,-9.197325706,-2.258929253,-1.025915384,-0.07993874,0.03237519,-0.117776416,-1,-1,-36,10,-1,-8.662221909,1.517923832,-2.541445017,-0.011724349,0.228491575,0.058355279,-43,-41,-31,25,172
1695162023814040700,-9.206902504,-2.104503393,-0.776918471,-0.360390514,0.048096478,0.125104129,8,0,-32,14,8,-6.238092422,5.548562527,3.125630379,-0.805382848,0.563967824,-0.23222205,-67,-56,-47,10,156
1695162023815040700,-9.208099365,-2.126051188,-0.766144514,-0.390101075,0.043699846,0.11817611,4,5,-28,16,4,-6.223727226,5.521028996,3.143586874,-0.801785588,0.56983,-0.230090365,-63,-53,-44,9,157
1695162023816040700,-9.200917244,-2.158372879,-0.760159016,-0.42074427,0.039836142,0.110981621,6,3,-27,15,8,-6.206967831,5.493495941,3.154360771,-0.798055112,0.57555896,-0.228491575,-63,-53,-44,14,156
1695162023817040700,-9.202114105,-2.196680069,-0.754173517,-0.451120973,0.036105666,0.103120975,8,3,-27,15,11,-6.191405773,5.463568211,3.166331768,-0.794724345,0.580754995,-0.227159262,-64,-56,-45,12,160
1695162023818040700,-9.212887764,-2.291250944,-0.74459672,-0.497618675,0.029310873,0.090996936,8,3,-29,14,4,-6.175843239,5.431246758,3.180696964,-0.791526794,0.586084247,-0.226359874,-66,-56,-44,12,157
1695162023867017300,-9.194931984,-2.913743496,-0.825999558,-0.347333819,0.0042634,0.111248083,4,2,-29,14,7,-9.192537308,2.814383984,1.231816769,-0.481897384,-0.130433381,0.142957121,-63,-53,-33,18,158
1695162023868017300,-9.191340446,-2.901772499,-0.836773515,-0.319754958,0.005995406,0.11711026,4,2,-29,14,3,-9.1326828,2.844311714,1.261744261,-0.495486975,-0.116177641,0.123905048,-63,-55,-34,22,158
1695162023869017300,-9.187748909,-2.885013103,-0.847547412,-0.292309314,0.007327718,0.123238891,2,3,-32,15,7,-9.065644264,2.873042107,1.290474772,-0.510408878,-0.101655439,0.105519146,-61,-53,-34,20,157
1695162023870017300,-9.187748909,-2.871845007,-0.863109708,-0.264996946,0.008393568,0.128701374,5,1,-29,15,7,-8.993818283,2.900575399,1.318008065,-0.526663125,-0.086733535,0.087799385,-62,-54,-33,20,156
1695162023871017300,-9.196128845,-2.86107111,-0.882263303,-0.239016846,0.009592649,0.134430319,4,0,-35,14,5,-8.917203903,2.919728994,1.351526856,-0.543983161,-0.07087902,0.070745789,-62,-51,-34,21,160
1695162023910986400,-9.290699959,-2.527079821,-1.012747288,0.071278714,-0.025047474,0.191852987,4,3,-33,16,8,-10.28908157,12.75989819,3.321954966,0.529860616,-0.788862169,2.087333918,-69,-52,-35,13,156
1695162023911986400,-9.293093681,-2.505532026,-1.024718285,0.083802447,-0.031709034,0.191453278,2,0,-30,15,7,-10.31900978,12.90714169,3.268085241,0.498684525,-0.849349201,2.162742615,-65,-53,-39,13,154
1695162023912986400,-9.29189682,-2.49116683,-1.030703783,0.092595711,-0.037038282,0.190920368,5,1,-35,13,4,-10.34774017,13.03403378,3.209427357,0.46697551,-0.909836173,2.240150213,-63,-53,-39,16,157
1695162023913986400,-9.290699959,-2.470816135,-1.031900883,0.100589581,-0.042500768,0.190254211,4,0,-33,14,7,-10.37527275,13.14536476,3.144783974,0.435266435,-0.970589578,2.319555759,-65,-51,-36,13,153
1695162023914986400,-9.289502144,-2.456450939,-1.035492182,0.10778407,-0.047830015,0.189721286,5,2,-33,14,7,-10.40400314,13.2423296,3.078943491,0.404223561,-1.031209826,2.400693655,-65,-53,-38,13,154
1695162023957956100,-9.039308548,-2.218227863,-1.146822572,0.064217456,-0.107650839,0.162009194,2,2,-31,13,5,6.580463409,0.937329948,7.201758862,0.113912709,0.612730443,0.108316995,-79,-43,-70,-20,162
1695162023958956100,-9.02973175,-2.214636564,-1.15280807,0.054225113,-0.106984682,0.158811629,6,0,-33,12,4,6.532579422,0.906205356,7.301117897,0.129500762,0.596476257,0.103120975,-78,-42,-76,-17,161
1695162023959956100,-9.021351814,-2.213439465,-1.161187768,0.044232771,-0.106052071,0.155480847,3,0,-32,14,4,6.479907036,0.876277804,7.402871609,0.145355284,0.578623295,0.097125575,-79,-43,-71,-19,165
1695162023960956100,-9.012971878,-2.214636564,-1.161187768,0.03437366,-0.104986221,0.152016848,4,3,-33,13,3,6.415263653,0.849941611,7.509413719,0.160277188,0.558771789,0.09033078,-78,-40,-73,-18,164
1695162023961956100,-9.005789757,-2.215833664,-1.162384868,0.024781011,-0.103653908,0.148286372,4,2,-32,13,-1,6.342240334,0.828393817,7.617152691,0.173999995,0.537321568,0.083003066,-79,-44,-67,-19,156
1695162024023918500,-9.03571701,-2.381033659,-1.258152962,-0.022516079,-0.078872897,0.102321595,3,0,-32,12,7,6.210559368,1.080982089,8.386888504,0.184791744,0.130566612,-0.002664625,-77,-52,-81,-18,162
1695162024024918500,-9.027337074,-2.382230759,-1.259350061,-0.017053599,-0.077673815,0.102188364,3,3,-27,13,7,6.253654957,1.080982089,8.33062458,0.189188361,0.119375192,-0.007194487,-77,-53,-83,-19,161
1695162024025918500,-9.021351814,-2.385822058,-1.261744261,-0.010924961,-0.076607957,0.102055125,4,3,-35,16,4,6.301538944,1.088164687,8.274360657,0.19478406,0.109382853,-0.010658499,-76,-55,-83,-19,161
1695162024026918500,-9.015366554,-2.390610456,-1.267729759,-0.004529862,-0.075408876,0.101655439,0,3,-33,13,4,6.353013992,1.112106681,8.221688271,0.202111781,0.100722812,-0.012257273,-78,-55,-85,-20,158
1695162024027918500,-9.005789757,-2.393004656,-1.274912357,0.002264931,-0.074343033,0.101122513,2,1,-32,12,4,6.415263653,1.15161097,8.169015884,0.209039822,0.091663092,-0.013323124,-76,-53,-81,-20,163
1695162024087881800,-8.752004623,-2.205059767,-1.391031146,0.047563553,-0.049961712,0.049029093,6,2,-29,14,3,7.357381821,1.70826292,7.480683327,0.211437985,-0.023448698,0.02904441,-76,-57,-87,-23,162
1695162024088881800,-8.736441612,-2.19428587,-1.395819545,0.043300152,-0.047830015,0.044099543,6,3,-29,13,3,7.360973358,1.692700624,7.473500729,0.214102611,-0.023049004,0.02797856,-77,-61,-85,-18,164
1695162024089881800,-8.724471092,-2.187103271,-1.400607944,0.038637057,-0.045431852,0.038903523,2,3,-31,13,7,7.363367558,1.678335428,7.472303391,0.21663399,-0.021716693,0.027045943,-76,-63,-81,-18,160
1695162024090881800,-8.713697433,-2.177526474,-1.41138196,0.033574272,-0.04276723,0.033707503,4,5,-26,13,4,7.362170219,1.661576033,7.483077526,0.219431862,-0.019318528,0.026379786,-78,-61,-87,-20,162
1695162024091881800,-8.699332237,-2.169146776,-1.414973259,0.028378254,-0.03996937,0.028644716,6,1,-29,14,7,7.362170219,1.655590534,7.496245384,0.221963242,-0.017053599,0.026379786,-80,-65,-89,-19,160
1695162024146847100,-8.700529099,-2.144007683,-1.458068848,-0.044099543,0.01825268,-0.040901989,2,3,-35,13,7,6.623558998,1.651999116,8.370129585,0.037038282,0.020784073,-0.008926493,-80,-66,-88,-23,159
1695162024147847100,-8.708909035,-2.144007683,-1.465251446,-0.045298621,0.02051761,-0.043166921,6,1,-29,13,5,6.590040207,1.634042621,8.38928318,0.01718683,0.013722817,-0.006528331,-76,-66,-90,-22,160
1695162024148847100,-8.720879555,-2.142810583,-1.465251446,-0.046364475,0.022516079,-0.045431852,5,2,-28,14,5,6.554127216,1.612494826,8.39526844,-0.002398162,0.005462481,-0.003464012,-79,-66,-89,-22,161
1695162024149847100,-8.729259491,-2.140416384,-1.470039845,-0.04729709,0.024647778,-0.047430322,4,1,-29,13,7,6.50983429,1.582567334,8.396465302,-0.028111791,-0.006528331,0.00106585,-76,-64,-89,-20,160
1695162024150847100,-8.737639427,-2.139219284,-1.473631144,-0.048229709,0.026513018,-0.049562022,4,1,-29,13,7,6.476315498,1.55982244,8.38928318,-0.046764165,-0.01612098,0.004130168,-77,-63,-89,-20,162
1695162024185825400,-9.010578156,-2.060210466,-1.555034041,-0.089797854,0.054624807,-0.104186833,4,2,-29,14,4,5.289988518,0.733822823,7.765593052,-0.126702905,-0.465243489,0.035173047,-76,-52,-75,-19,160
1695162024186825400,-9.021351814,-2.057816267,-1.550245643,-0.09272895,0.057422664,-0.10778407,3,1,-33,12,8,5.16549015,0.677559078,7.769184589,-0.116177641,-0.507877529,0.029577335,-76,-52,-75,-20,162
1695162024187825400,-9.033323288,-2.057816267,-1.546654344,-0.095393561,0.06008729,-0.111381322,4,6,-27,13,7,5.037400246,0.636857629,7.783549786,-0.105652377,-0.551710546,0.021183766,-76,-53,-71,-18,161
1695162024188825400,-9.041702271,-2.057816267,-1.547851443,-0.097791731,0.063418068,-0.114712104,3,0,-32,13,7,4.900930882,0.59615624,7.803900242,-0.095793262,-0.595277131,0.009326187,-76,-53,-72,-17,158
1695162024189825400,-9.044096947,-2.054224968,-1.550245643,-0.100056656,0.067148544,-0.11817611,4,0,-32,13,3,4.75488472,0.551863492,7.824251175,-0.084868304,-0.6393767,-0.005462481,-76,-56,-71,-16,162
1695162024221829300,-8.917203903,-1.950077295,-1.406593442,-0.176531389,0.130833074,-0.199313939,6,0,-28,14,3,1.302445769,-1.538274646,7.17422533,-0.166272581,-1.760650754,-0.903574288,-75,-49,-67,-6,158
1695162024222829300,-8.913613319,-1.964442492,-1.382651448,-0.185058191,0.136428788,-0.201845318,5,2,-32,13,7,1.177947283,-1.707065821,7.035361767,-0.184525266,-1.839656949,-0.964594126,-77,-57,-69,-8,157
1695162024223829300,-8.917203903,-1.980004787,-1.365892053,-0.192652375,0.142557427,-0.203444093,4,0,-29,14,7,1.070208192,-1.886630893,6.903680801,-0.194917306,-1.9166646,-1.023748875,-76,-53,-66,-8,158
1695162024224829300,-8.920795441,-1.996764183,-1.343147159,-0.198914245,0.148552835,-0.204509944,4,3,-27,15,4,0.958877802,-2.029085875,6.777985096,-0.204243496,-1.992339969,-1.083169937,-76,-56,-66,-8,160
1695162024225829300,-8.925583839,-2.019509077,-1.325190663,-0.20357734,0.154415011,-0.204909652,4,1,-25,13,8,0.834379315,-2.142810583,6.634333134,-0.214635521,-2.067215919,-1.144189835,-76,-53,-66,-4,158
1695162024255785600,-9.115922928,-2.163161278,-1.182735682,-0.019718224,0.135629401,-0.155880541,3,0,-27,13,5,-0.89303726,-2.670732021,3.828328609,-0.503614068,-3.077108622,-2.820505381,-75,-52,-61,2,161
1695162024256785600,-9.123106003,-2.148796082,-1.183932781,-0.005995406,0.129500762,-0.152016848,6,5,-32,15,7,-0.963666201,-2.630030632,3.693056107,-0.521067381,-3.09682703,-2.930287838,-71,-51,-63,0,161
1695162024257785600,-9.131484985,-2.130839586,-1.18991828,0.006928025,0.12337213,-0.148153126,16,1,-36,13,4,-1.031900883,-2.571372509,3.550601006,-0.539320052,-3.112548113,-3.041802406,-76,-52,-62,-1,165
1695162024258785600,-9.141061783,-2.114080191,-1.193509579,0.018785605,0.117243491,-0.144022971,16,5,-26,14,9,-1.100135684,-2.510320425,3.422511339,-0.558905005,-3.124672174,-3.154782534,-75,-52,-63,-1,160
1695162024259785600,-9.149441719,-2.098517895,-1.197100878,0.029710567,0.111514546,-0.139892802,4,2,-28,13,9,-1.169567585,-2.440888643,3.298012733,-0.579555929,-3.132932663,-3.268828392,-75,-54,-63,-1,156
1695162024294787500,-9.380482674,-1.848323703,-1.173158884,0.048096478,0.069546707,-0.052093416,5,1,-33,13,5,-2.167949677,1.588552833,0.689530075,-1.842588067,-2.731373787,-4.365721226,-63,-53,-60,1,161
1695162024295787500,-9.393650055,-1.843535304,-1.173158884,0.044099543,0.068880551,-0.048496172,4,1,-27,13,3,-2.148796082,1.855506301,0.486022949,-1.931986213,-2.692470312,-4.365721226,-63,-51,-57,0,160
1695162024296787500,-9.404424667,-1.838746905,-1.168370485,0.040235836,0.068081163,-0.045565084,2,0,-29,12,4,-2.126051188,2.114080191,0.290895492,-2.015388966,-2.652234316,-4.365721226,-76,-51,-57,-1,160
1695162024297787500,-9.411606789,-1.832761407,-1.174355984,0.036238898,0.066882081,-0.043166921,0,5,-29,18,7,-2.110488892,2.372653961,0.098162271,-2.09159708,-2.610399485,-4.365721226,-65,-52,-61,0,160
1695162024298787500,-9.418789864,-1.824381709,-1.185129881,0.031975497,0.065016843,-0.041168455,5,1,-24,14,4,-2.096123695,2.63841033,-0.08259996,-2.15861249,-2.56576705,-4.365721226,-65,-52,-60,1,168
1695162024334739800,-9.423578262,-1.660378933,-1.313219666,-0.113113321,-0.017053599,-0.079405814,3,3,-31,14,7,-2.366668463,9.502586365,2.225410461,-2.063885212,-0.260733545,-4.365721226,-56,-47,-63,-1,167
1695162024335739800,-9.428366661,-1.659181833,-1.318008065,-0.122439511,-0.02051761,-0.082470134,2,1,-29,13,4,-2.535459518,9.933543205,2.536656618,-2.106652498,-0.065016843,-4.365721226,-54,-47,-60,-1,168
1695162024336739800,-9.43315506,-1.663970232,-1.316810966,-0.130966306,-0.023715161,-0.08513476,4,0,-27,13,4,-2.71263051,10.37647057,2.837129116,-2.169004679,0.134430319,-4.365721226,-55,-46,-64,-1,168
1695162024337739800,-9.436745644,-1.667561531,-1.318008065,-0.139093414,-0.026379786,-0.087399691,4,1,-29,13,4,-2.932897091,10.96304989,3.186682463,-2.291044474,0.40462327,-4.365721226,-57,-48,-61,-1,168
1695162024338739800,-9.43914032,-1.67115283,-1.321599364,-0.146421134,-0.028644716,-0.088998467,6,0,-32,14,5,-3.089717388,11.37126064,3.394978046,-2.407488585,0.609666169,-4.365721226,-55,-47,-65,-5,178
1695162024373720600,-9.273940086,-1.626860023,-1.535880446,-0.23422052,-0.03650536,-0.033174578,1,0,-27,13,5,-6.10281992,8.647856712,3.731363297,-4.365721226,4.365588188,-4.365721226,-63,-44,-66,-6,170
1695162024374720600,-9.254786491,-1.617283225,-1.552639842,-0.242480844,-0.035572741,-0.02904441,1,0,-29,13,0,-6.536170483,8.182184219,3.60207653,-4.365721226,4.365588188,-4.365721226,-64,-44,-61,-3,172
1695162024375720600,-9.230844498,-1.604115129,-1.567005038,-0.251407355,-0.034107197,-0.024914242,0,2,-29,13,1,-7.011419773,7.767987251,3.476380825,-4.365721226,4.365588188,-4.365721226,-62,-46,-65,-3,172
1695162024376720600,-9.208099365,-1.595735431,-1.580173135,-0.261000007,-0.03237519,-0.020784073,-1,-1,-29,13,5,-7.720103264,7.20654726,3.305195332,-4.365721226,4.365588188,-4.365721226,-63,-44,-62,-2,171
1695162024377720600,-9.187748909,-1.586158633,-1.592144132,-0.271258801,-0.030509954,-0.016787136,-1,3,-31,12,0,-8.29231739,6.803123951,3.179499865,-4.328549862,4.365588188,-4.365721226,-66,-44,-64,-4,178
1695162024412719200,-8.795100212,-1.406593442,-1.818396211,-0.524131715,0.012790199,0.080871366,2,5,-24,13,3,-17.94693565,1.717839718,2.147598982,-0.413150072,4.365588188,-4.365721226,-62,-40,-59,-3,174
1695162024413719200,-8.777143478,-1.41018486,-1.830367208,-0.534923434,0.012523737,0.09033078,1,0,-27,13,3,-18.23543739,1.592144132,1.983596087,-0.118309341,4.365588188,-4.365721226,-62,-44,-57,-3,173
1695162024414719200,-8.762778282,-1.416170359,-1.839944005,-0.544249594,0.01185758,0.100589581,-1,1,-27,14,4,-18.52393913,1.508347034,1.82198751,0.180661559,4.365588188,-4.365721226,-64,-47,-57,-1,177
1695162024415719200,-8.747216225,-1.425747156,-1.848323703,-0.552243471,0.010258805,0.111514546,2,0,-24,14,3,-18.795681,1.453280449,1.690306425,0.484695256,4.365588188,-4.365721226,-64,-49,-57,-2,172
1695162024416719200,-8.729259491,-1.440112352,-1.856703401,-0.558905005,0.008526799,0.12337213,1,0,-27,13,3,-19.04707146,1.420958757,1.580173135,0.793258786,4.365588188,-4.365721226,-67,-48,-56,-1,173
1695162024450674000,-8.573636055,-2.112883091,-1.823184609,-0.294041336,-0.069946401,0.520934165,2,0,-22,14,4,-19.61330032,5.826289654,0.331596941,4.365588188,2.954269648,-3.073111773,-65,-43,-45,4,174
1695162024451674000,-8.582015991,-2.167949677,-1.812410712,-0.254738122,-0.074476264,0.550644696,1,0,-21,14,1,-19.61330032,6.306327343,0.276530296,4.365588188,2.899378061,-3.03340888,-63,-45,-45,5,176
1695162024452674000,-8.59278965,-2.218227863,-1.810016513,-0.212903515,-0.078872897,0.580754995,2,0,-20,14,2,-19.61330032,6.786364555,0.223857865,4.365588188,2.840889692,-3.000367641,-65,-52,-44,5,172
1695162024453674000,-8.604761124,-2.272097349,-1.800439715,-0.168404296,-0.083535992,0.611131668,-1,0,-24,14,1,-19.61330032,7.275979042,0.16639702,4.365588188,2.777604818,-2.97358799,-63,-45,-45,4,174
1695162024454674000,-8.61912632,-2.325966835,-1.794454217,-0.121107198,-0.088465542,0.641375184,1,-1,-19,15,3,-19.61330032,7.76679039,0.112527482,4.365588188,2.70939064,-2.952804089,-63,-45,-46,5,174
1695162024490680800,-8.981847763,-2.908955097,-1.808819413,0.972987771,-0.252473205,1.087966323,-1,0,-25,15,1,-15.50125885,13.26387787,1.331176162,4.350799084,1.237851501,-2.209506989,-66,-41,-44,6,176
1695162024491680800,-9.006986618,-2.918531895,-1.818396211,1.028545141,-0.264730483,1.101422668,6,0,-21,15,3,-15.10621548,13.16691208,1.408987641,4.056624889,1.192686081,-2.104254246,-65,-43,-43,9,176
1695162024492680800,-9.033323288,-2.925714493,-1.826775908,1.082903504,-0.27738744,1.113280177,6,1,-20,16,3,-14.71715832,13.01248646,1.468842745,3.759519339,1.151117921,-1.991673827,-65,-41,-41,8,174
1695162024493680800,-9.058462143,-2.931699991,-1.835155606,1.135529757,-0.290044397,1.123405814,1,-1,-23,15,14,-14.34126854,12.80419064,1.516726732,3.462813377,1.113546729,-1.870433331,-63,-43,-44,8,172
1695162024494680800,-9.090784073,-2.93529129,-1.848323703,1.203078032,-0.307098001,1.134730458,3,0,-25,13,5,-13.98932076,12.57793903,1.55982244,3.168372154,1.079705954,-1.741332412,-65,-41,-39,12,173
1695162024532627800,-9.642647743,-2.56778121,-2.112883091,1.697499275,-0.509343028,0.965393543,-1,0,-23,12,1,-11.14740276,6.472724438,1.388636947,0.123638593,0.649369061,0.670819342,-63,-45,-37,15,172
1695162024533627800,-9.667786598,-2.52947402,-2.123656988,1.694701314,-0.515604913,0.939946413,-1,0,-21,14,2,-11.07437992,6.223727226,1.392228246,0.129900455,0.633647799,0.753955603,-62,-44,-35,18,170
1695162024534627800,-9.690531731,-2.48996973,-2.133233786,1.688306332,-0.520934165,0.913300157,0,0,-22,14,3,-11.00135708,5.992686749,1.394622445,0.149485439,0.619125545,0.830297053,-62,-41,-34,16,171
1695162024535627800,-9.708487511,-2.450465441,-2.145204782,1.677914262,-0.525330782,0.885321558,0,1,-25,14,4,-10.9247427,5.780799866,1.399410844,0.181860641,0.605269551,0.899310887,-62,-45,-35,17,173
1695162024536627800,-9.725247383,-2.407369852,-2.158372879,1.663791776,-0.529194474,0.856277168,1,0,-23,15,0,-10.84812832,5.592854977,1.41257906,0.225027561,0.592612505,0.960863709,-65,-48,-36,16,171
1695162024575602600,-9.463082314,-1.580173135,-2.163161278,0.829497695,-0.407421142,0.162675351,-1,0,-21,13,4,-9.557653427,5.01465559,2.08295536,1.63927722,0.506278694,0.763681471,-63,-45,-37,19,169
1695162024576602600,-9.431957245,-1.550245643,-2.152387381,0.762082696,-0.388635516,0.118042871,-1,-1,-23,12,3,-9.534908295,5.084087372,2.123656988,1.678180695,0.493355274,0.719049037,-65,-44,-34,18,170
1695162024577602600,-9.396044731,-1.519120932,-2.139219284,0.693868279,-0.368917316,0.073410407,0,0,-25,16,3,-9.519346237,5.158307552,2.165555477,1.708557367,0.4784334,0.675482392,-62,-46,-34,18,172
1695162024578602600,-9.357737541,-1.491587639,-2.130839586,0.625254214,-0.347866774,0.02904441,0,2,-21,15,1,-9.503783226,5.23851347,2.212242365,1.729874372,0.462045938,0.633248091,-72,-45,-37,18,170
1695162024579602600,-9.32421875,-1.470039845,-2.122459888,0.556640089,-0.325750381,-0.01505513,0,1,-22,14,1,-9.482235909,5.32111311,2.260126352,1.741465569,0.444459409,0.592745841,-63,-45,-34,18,170
1695162024611606200,-8.962694168,-1.653196216,-1.814804912,-0.339339972,0.106185302,-0.628851414,0,-1,-17,16,5,-9.446322441,6.50983429,2.797624588,0.473770291,0.005862175,0.192918837,-65,-41,-35,20,170
1695162024612606200,-8.953117371,-1.66995573,-1.796848416,-0.359191418,0.123238891,-0.647770226,2,0,-20,14,7,-9.476250648,6.488286495,2.778470993,0.370516092,-0.020650841,0.186390504,-61,-43,-35,17,168
1695162024613606200,-8.947132111,-1.689109325,-1.780089021,-0.375978559,0.139359877,-0.665090322,4,1,-24,15,3,-9.506177902,6.455965042,2.755726099,0.268993855,-0.047563553,0.179995403,-65,-50,-36,17,169
1695162024614606200,-8.942343712,-1.701080322,-1.765723705,-0.390101075,0.15428178,-0.680811644,1,0,-28,14,3,-9.538499832,6.415263653,2.726995707,0.170003071,-0.074609496,0.174399704,-65,-52,-34,17,172
1695162024615606200,-8.938752174,-1.714248419,-1.752555609,-0.401425719,0.16773814,-0.695333838,0,3,-22,14,3,-9.572018623,6.361393929,2.694674015,0.074209802,-0.102321595,0.169470131,-65,-45,-34,17,170
1695162024650559700,-9.575610161,-1.499967337,-1.766920805,-0.287513018,0.122439511,-0.774739683,4,0,-20,13,1,-9.722852707,4.540603638,1.914164305,-0.901575804,-0.637511492,0.338007659,-65,-47,-37,17,167
1695162024651559700,-9.629479408,-1.470039845,-1.780089021,-0.276854515,0.105252676,-0.77127564,-1,0,-22,13,14,-9.712079048,4.447229862,1.878251195,-0.909969389,-0.656430304,0.36412096,-63,-47,-35,20,168
1695162024652559700,-9.683348656,-1.444900751,-1.793257117,-0.266595691,0.087666154,-0.76661253,1,-3,-21,15,3,-9.701305389,4.359841347,1.849520802,-0.914765656,-0.673617184,0.391433388,-62,-43,-34,16,170
1695162024653559700,-9.732429504,-1.420958757,-1.804031014,-0.257003069,0.069679938,-0.760617197,-1,0,-21,13,4,-9.689333916,4.282029629,1.81959331,-0.915964782,-0.689471722,0.419944882,-65,-45,-39,20,168
1695162024654559700,-9.774328232,-1.401805043,-1.811213613,-0.247943342,0.051294025,-0.75368911,1,0,-25,13,3,-9.680954933,4.220977783,1.792060018,-0.918629408,-0.704793274,0.448323131,-63,-45,-37,19,170
1695162024694534400,-8.977059364,-1.385045648,-1.829170108,-0.160143942,-0.072344564,-0.439929545,-1,1,-19,13,3,-8.939949036,3.104082584,1.26413846,-0.352396637,-0.730906546,1.039070487,-63,-47,-34,29,170
1695162024695534400,-8.894459724,-1.399410844,-1.823184609,-0.158678412,-0.061019909,-0.422476262,-1,-1,-24,16,4,-8.902838707,3.078943491,1.253364563,-0.311494648,-0.721713662,1.065716743,-63,-45,-34,23,168
1695162024696534400,-8.81066227,-1.414973259,-1.818396211,-0.157479316,-0.048496172,-0.405955583,4,0,-24,16,4,-8.860940933,3.068169594,1.241393566,-0.269660026,-0.711188376,1.093295574,-62,-50,-34,25,168
1695162024697534400,-8.724471092,-1.424550056,-1.811213613,-0.156280249,-0.034906585,-0.390234292,1,0,-21,14,3,-8.813055992,3.059789658,1.229422569,-0.230223581,-0.699730456,1.117810011,-60,-44,-34,20,167
1695162024698534400,-8.643068314,-1.435323954,-1.799242616,-0.15534763,-0.019851454,-0.375712097,0,0,-17,16,4,-8.77235508,3.043030262,1.218648672,-0.1931853,-0.688805521,1.141658545,-61,-44,-34,24,172
1695162024739509000,-8.309077263,-1.805228114,-1.380257249,-0.07274425,0.304566622,-0.29497394,-1,0,-23,13,3,-8.344989777,3.129221678,1.167173386,0.253938764,-0.372114837,1.407854557,-65,-44,-31,25,170
1695162024740509000,-8.35097599,-1.836352706,-1.350329757,-0.057555895,0.316157728,-0.292975485,-1,-6,-23,16,4,-8.337807655,3.135207176,1.15400517,0.263131708,-0.360523731,1.40812099,-61,-45,-33,25,170
1695162024741509000,-8.397662163,-1.871068597,-1.309628367,-0.040502299,0.326283306,-0.29031086,1,-1,-32,13,7,-8.336610794,3.135207176,1.139639974,0.27165848,-0.349732012,1.407321692,-61,-44,-32,21,167
1695162024742509000,-8.452729225,-1.905784607,-1.276109457,-0.02158346,0.335076571,-0.287379771,0,0,-23,13,3,-8.333019257,3.135207176,1.119289279,0.279785603,-0.340006143,1.405589461,-61,-48,-34,26,169
1695162024743509000,-8.514978409,-1.934514999,-1.246181965,-0.000799387,0.342537522,-0.284182221,4,0,-21,14,5,-8.334216118,3.138798475,1.100135684,0.28671363,-0.331212848,1.402525306,-61,-44,-31,25,169
1695162024786484800,-9.652224541,-1.978807688,-0.997184992,0.564634025,0.183725879,-0.204776406,1,0,-21,13,4,-9.111134529,3.347094059,0.912190855,0.278586507,-0.281117916,1.147387385,-62,-43,-33,30,168
1695162024787484800,-9.679757118,-1.946485996,-0.998382092,0.591813207,0.162408888,-0.203044415,1,0,-22,15,4,-9.148244858,3.386598349,0.93134445,0.266329229,-0.274722815,1.122206688,-63,-47,-31,26,167
1695162024788484800,-9.706093788,-1.909375906,-1.000776291,0.616993904,0.140558958,-0.201712102,0,0,-23,12,3,-9.172186852,3.433285236,0.950498104,0.252073497,-0.2669954,1.095560431,-61,-44,-33,28,169
1695162024789484800,-9.732429504,-1.871068597,-1.00317049,0.639909685,0.118575804,-0.200912714,4,0,-21,16,3,-9.186552048,3.477577925,0.973242998,0.235819295,-0.258335382,1.067182183,-65,-48,-31,26,167
1695162024790484800,-9.752780914,-1.829170108,-1.001973391,0.660560489,0.096326187,-0.200513005,4,0,-23,14,7,-9.190143585,3.526659012,0.997184992,0.217566609,-0.248609498,1.037338495,-63,-43,-34,24,170
1695162024827459500,-9.831789017,-0.902614057,-1.046266198,0.439529866,-0.181860641,-0.224494636,4,0,-22,16,1,-8.125920296,3.701435804,0.975637197,-0.231555894,0.010392036,0.49708578,-62,-45,-33,25,166
1695162024828459500,-9.828198433,-0.870292306,-1.046266198,0.393698305,-0.183992341,-0.224494636,-1,0,-24,14,2,-8.07324791,3.669114113,0.963666201,-0.248476252,0.019052068,0.488425732,-63,-51,-34,26,167
1695162024829459500,-9.821015358,-0.839167714,-1.047463298,0.345202148,-0.184658498,-0.223961711,-1,0,-23,15,5,-8.021772385,3.635595322,0.954089403,-0.263797849,0.026646247,0.482430339,-61,-44,-32,28,167
1695162024830459500,-9.816226959,-0.814028561,-1.040280581,0.294307798,-0.184125587,-0.223029092,2,1,-20,14,5,-7.977479935,3.598485231,0.938527048,-0.277520686,0.033307809,0.479099542,-62,-44,-33,26,167
1695162024831459500,-9.810241699,-0.794874966,-1.029506683,0.241281778,-0.181993872,-0.221563548,4,0,-19,14,1,-7.935581684,3.56496644,0.926556051,-0.289644688,0.038637057,0.4784334,-62,-47,-33,25,168
1695162024872432400,-9.117119789,-1.492784739,-0.769735873,-0.599007666,-0.019451762,-0.189188361,0,0,-23,16,3,-8.016983986,2.698265314,0.791283667,-0.109649308,-0.008393568,0.62432158,-65,-45,-29,26,168
1695162024873432400,-9.06803894,-1.545457244,-0.755370617,-0.616727412,-0.012124043,-0.191986218,-1,-2,-24,13,-2,-8.046912193,2.670732021,0.786495268,-0.07993874,-0.013722817,0.624454796,-63,-47,-33,25,166
1695162024874432400,-9.022548676,-1.595735431,-0.74459672,-0.63111639,-0.005728943,-0.195716694,3,-1,-25,13,7,-8.075642586,2.642001629,0.78170687,-0.049162328,-0.019052068,0.622856021,-64,-44,-33,24,166
1695162024875432400,-8.973467827,-1.644816518,-0.723048925,-0.642840743,-0.000133231,-0.200379789,-1,0,-21,14,4,-8.104372978,2.612074137,0.773327172,-0.017320061,-0.023981623,0.619525254,-61,-46,-33,26,168
1695162024876432400,-8.924386978,-1.690306425,-0.699106872,-0.652433395,0.004929556,-0.205842257,0,0,-27,13,1,-8.134300232,2.592920542,0.769735873,0.015188362,-0.028644716,0.614728928,-60,-46,-31,24,167
1695162024920406500,-8.51019001,-1.904587507,-0.201112941,-0.645505369,0.008926493,-0.394364446,-1,0,-25,13,1,-8.426392555,2.943670988,0.760159016,0.473770291,-0.036638591,0.242081165,-62,-46,-32,26,167
1695162024921406500,-8.52216053,-1.887827992,-0.18435353,-0.646304727,0.0042634,-0.404889733,-1,2,-22,14,3,-8.426392555,2.97359848,0.761356115,0.482430339,-0.030376723,0.212503821,-61,-49,-30,26,168
1695162024922406500,-8.536525726,-1.874659896,-0.16639702,-0.648436427,-0.001199081,-0.415281773,4,-1,-22,10,3,-8.422801971,3.003525972,0.762553215,0.489491582,-0.02358193,0.182260334,-61,-38,-33,25,171
1695162024923406500,-8.547300339,-1.8579005,-0.152031809,-0.651101053,-0.007194487,-0.425140887,-1,0,-24,15,4,-8.416815758,3.038241863,0.760159016,0.495087296,-0.015854517,0.151750386,-60,-44,-33,25,167
1695162024924406500,-8.561665535,-1.841141105,-0.138863698,-0.654964805,-0.013589587,-0.434600294,0,0,-21,14,4,-8.413225174,3.071760893,0.758961916,0.499350697,-0.007194487,0.121107198,-61,-45,-32,26,167
1695162024960381700,-9.004592896,-1.547851443,0.027533319,-0.831629395,-0.174666151,-0.47057274,6,0,-25,13,4,-8.328230858,3.821146011,0.910993755,0.355594188,0.308297068,-0.496952504,-56,-44,-32,26,167
1695162024961381700,-9.038111687,-1.515529633,0.007182605,-0.847750366,-0.189987749,-0.465376705,2,-1,-23,14,2,-8.309077263,3.870227098,0.938527048,0.335209787,0.331079632,-0.529594183,-62,-45,-32,28,168
1695162024962381700,-9.071630478,-1.48560214,-0.011971008,-0.865070403,-0.206641659,-0.459647775,-1,1,-21,13,1,-8.288725853,3.920505285,0.963666201,0.313359886,0.353995383,-0.562102616,-62,-41,-34,26,167
1695162024963381700,-9.102754593,-1.459265947,-0.035913024,-0.883722782,-0.224761114,-0.453652382,-1,0,-25,13,3,-8.270770073,3.975571871,0.994790792,0.289644688,0.377310872,-0.594344556,-60,-43,-31,28,167
1695162024964381700,-9.135076523,-1.435323954,-0.061052144,-0.903441012,-0.244212866,-0.447124034,2,0,-24,13,3,-8.245630264,4.027047157,1.016338587,0.264597237,0.400359869,-0.626053572,-61,-45,-33,30,168
1695162025004360100,-9.317035675,-1.9333179,-0.263362199,-1.136196017,-0.627119422,-0.214768767,-1,0,-24,15,3,-7.777564049,4.570530891,1.011550188,-0.350398153,0.662958682,-1.035206676,-60,-41,-32,26,167
1695162025005360100,-9.283516884,-1.997961283,-0.245405674,-1.125937223,-0.634980083,-0.192252681,2,0,-29,13,7,-7.778761387,4.572925091,0.988805294,-0.381840736,0.66122669,-1.040669203,-62,-45,-32,28,167
1695162025006360100,-9.258378029,-2.041056871,-0.226252064,-1.117543578,-0.638710558,-0.176664621,2,-3,-25,13,4,-7.784746647,4.56933403,0.962469101,-0.412217438,0.658029079,-1.044532895,-62,-47,-34,26,167
1695162025007360100,-9.21528244,-2.103306293,-0.20590134,-1.102888227,-0.641908109,-0.152683005,2,0,-25,15,5,-7.796717644,4.565742493,0.938527048,-0.442061275,0.653232813,-1.046398163,-61,-46,-32,26,167
1695162025008360100,-9.17098999,-2.160767078,-0.187944829,-1.085701346,-0.642307758,-0.127901986,4,0,-25,13,2,-7.815871239,4.564545631,0.908599555,-0.470972449,0.646571219,-1.046531439,-61,-42,-32,27,168
1695162025049333300,-8.543708801,-2.562992811,-0.035913024,-0.577557385,-0.423009187,0.225294024,4,0,-24,13,5,-8.985439301,4.449624062,0.37110126,-0.750757992,0.387702912,-0.848016858,-61,-47,-34,25,167
1695162025050333300,-8.532935143,-2.571372509,-0.017956512,-0.549978554,-0.406621754,0.235686064,6,3,-22,15,4,-9.041702271,4.448426723,0.341173738,-0.747826934,0.375445634,-0.836026073,-60,-45,-31,26,166
1695162025051333300,-8.523358345,-2.579752445,-0.003591303,-0.523199081,-0.389701396,0.24567841,-1,1,-23,14,7,-9.090784073,4.449624062,0.310049117,-0.743696809,0.363588065,-0.824035227,-61,-40,-33,24,169
1695162025052333300,-8.513781548,-2.590526342,0.011971008,-0.496952504,-0.372114837,0.255404294,1,2,-23,17,5,-9.141061783,4.448426723,0.282515794,-0.738234282,0.352396637,-0.812177658,-63,-44,-32,25,166
1695162025053333300,-8.50420475,-2.602497339,0.032321721,-0.471105665,-0.354261875,0.265396625,4,2,-24,15,5,-9.18296051,4.446032524,0.257376671,-0.73183918,0.341604888,-0.800586522,-63,-45,-32,24,167
1695162025085310200,-8.275558472,-2.782062292,0.286107093,-0.039436448,-0.006528331,0.498418063,4,0,-26,13,9,-9.861717224,4.599261284,0.073023155,-0.523732007,0.230889738,-0.525996923,-61,-44,-31,25,167
1695162025086310200,-8.254010201,-2.779668093,0.283712894,-0.018119449,0.005995406,0.510675371,4,3,-23,14,7,-9.87608242,4.610035419,0.080205753,-0.516271055,0.231955588,-0.508277178,-61,-46,-32,24,167
1695162025087310200,-8.233659744,-2.778470993,0.271741897,0.002531394,0.017453292,0.52253288,4,1,-25,13,8,-9.878476143,4.624400616,0.090979666,-0.509609461,0.233554363,-0.490424216,-60,-43,-32,25,168
1695162025088310200,-8.216899872,-2.771288395,0.257376671,0.022782542,0.028111791,0.533591092,8,1,-23,14,11,-9.878476143,4.638765812,0.10055647,-0.504013777,0.235686064,-0.472571194,-60,-46,-29,25,167
1695162025089310200,-8.201337814,-2.768894196,0.244208574,0.042101074,0.037704438,0.54438287,1,1,-21,14,9,-9.877279282,4.654327869,0.112527482,-0.499217451,0.238217458,-0.454584986,-60,-44,-28,28,168
1695162025129285100,-8.273163795,-2.595314741,-0.125695586,0.25300613,0.115777947,0.650967836,4,2,-24,18,8,-9.495404243,4.540603638,0.211886853,-0.489491582,0.193584993,-0.092196018,-62,-43,-33,26,170
1695162025130285100,-8.342596054,-2.579752445,-0.162805721,0.258735061,0.116977029,0.653232813,1,0,-26,14,7,-9.487024307,4.508281708,0.213083953,-0.488692194,0.180261865,-0.071278714,-62,-43,-24,25,167
1695162025131285100,-8.428787231,-2.564189911,-0.198718742,0.264197558,0.117776416,0.65549767,3,0,-23,13,7,-9.476250648,4.478354454,0.20350714,-0.487093419,0.165606424,-0.050228179,-63,-32,-34,22,168
1695162025132285100,-8.526948929,-2.549824715,-0.234631762,0.269660026,0.118442573,0.657895863,8,0,-21,14,7,-9.470264435,4.446032524,0.192733243,-0.484428793,0.149885148,-0.028911179,-64,-51,-33,27,170
1695162025133285100,-8.639476776,-2.535459518,-0.271741897,0.274989277,0.118975498,0.66016084,1,1,-23,13,7,-9.469067574,4.414907932,0.181959331,-0.481231242,0.133098006,-0.007727412,-63,-47,-33,25,166
1695162025165264900,-10.65300083,-3.256114244,-0.395043284,0.6393767,0.230090365,0.854145467,1,3,-25,14,5,-9.340977669,3.772064686,-0.106541976,-0.192918837,-0.274323106,0.309096456,-62,-45,-34,27,168
1695162025166264900,-10.62187576,-3.307589531,-0.393846184,0.682676852,0.241415009,0.872131705,1,1,-28,16,6,-9.302670479,3.758896589,-0.130484,-0.170136288,-0.290710568,0.319355279,-61,-44,-32,25,169
1695162025167264900,-10.57279491,-3.353079557,-0.398634583,0.727042913,0.253139347,0.88918525,4,0,-28,16,4,-9.26556015,3.744531393,-0.141257897,-0.14695406,-0.306032151,0.32934764,-59,-44,-32,25,168
1695162025168264900,-10.50934792,-3.384204149,-0.407014281,0.771941781,0.265130162,0.904773355,2,0,-27,18,5,-9.229647636,3.728969097,-0.159214407,-0.123505361,-0.320687592,0.339073509,-61,-45,-30,25,168
1695162025169264900,-10.43752193,-3.410540342,-0.422576606,0.817373693,0.276454836,0.918629408,2,2,-25,16,4,-9.190143585,3.7169981,-0.178368032,-0.100456357,-0.333877474,0.348399699,-60,-45,-34,26,167
1695162025211478100,-8.391676903,-2.680308819,-0.811634362,1.294341564,0.335742712,0.644572735,5,7,-32,13,6,-8.529343605,3.769670486,-0.177170932,0.240882084,-0.413682997,0.50281471,-60,-44,-31,31,169
1695162025212478100,-8.336610794,-2.60130024,-0.82001406,1.289545178,0.332678407,0.598474741,0,1,-28,14,3,-8.519766808,3.776853085,-0.173579618,0.247543648,-0.411551297,0.509343028,-64,-44,-30,28,167
1695162025213478100,-8.293514252,-2.525882721,-0.82001406,1.281284928,0.328947932,0.549845338,2,0,-28,13,3,-8.518569946,3.782838583,-0.172382519,0.253139347,-0.409686059,0.51573813,-63,-45,-29,28,169
1695162025214478100,-8.262390137,-2.446874142,-0.82001406,1.269960165,0.324284822,0.499350697,1,0,-32,16,5,-8.524555206,3.786429882,-0.174776718,0.257535994,-0.408620209,0.522000015,-60,-46,-31,27,168
1695162025215478100,-8.243236542,-2.367865562,-0.815225661,1.254905105,0.319088817,0.447124034,2,1,-25,13,7,-8.546102524,3.788824081,-0.177170932,0.261000007,-0.4082205,0.527995408,-62,-43,-33,29,168
1695162025280524600,-9.345766068,-1.468842745,-0.796072066,0.57449311,0.076474734,-0.427139342,-2,0,-31,13,1,-10.198102,3.549403906,-0.70509243,0.373713642,-0.671218991,0.597408891,-60,-45,-34,27,167
1695162025281524600,-9.434351921,-1.454477549,-0.802057564,0.531459451,0.056490045,-0.455784082,-1,0,-33,13,4,-10.24119759,3.597288132,-0.724246025,0.380508423,-0.691470146,0.594744265,-61,-46,-32,28,168
1695162025282524600,-9.52173996,-1.444900751,-0.809240162,0.489225119,0.036905054,-0.481897384,-1,0,-34,13,1,-10.23760605,3.596091032,-0.769735873,0.382906556,-0.713320017,0.588748872,-60,-41,-30,29,168
1695162025283524600,-9.606734276,-1.432929754,-0.822408259,0.447790205,0.01718683,-0.505479336,-1,0,-31,12,1,-10.19929886,3.558980942,-0.792480767,0.393831551,-0.733571172,0.585284829,-60,-45,-29,30,168
1695162025284524600,-9.686940193,-1.424550056,-0.836773515,0.407287896,-0.001998469,-0.526396632,0,0,-32,14,1,-10.14423275,3.554192305,-0.786495268,0.407287896,-0.75009191,0.583019912,-60,-45,-29,30,169
1695162025341623200,-9.836577415,-1.490390539,-1.018732786,-0.184392035,-0.155880541,-0.540252686,2,-1,-33,13,5,-7.447164536,3.754108191,-0.48243165,0.55943799,-0.563834608,0.53971976,-59,-43,-29,31,167
1695162025342623200,-9.770736694,-1.499967337,-1.023521185,-0.209705979,-0.148286372,-0.529594183,-1,0,-31,13,3,-7.317877293,3.750516891,-0.428562105,0.558505356,-0.526263416,0.544782579,-61,-49,-27,31,167
1695162025343623200,-9.704896927,-1.510741234,-1.027112484,-0.234353751,-0.139093414,-0.519068897,-1,0,-33,13,4,-7.199364662,3.743334293,-0.374692559,0.556373656,-0.486826956,0.551177621,-59,-44,-29,32,169
1695162025344623200,-9.639056206,-1.519120932,-1.024718285,-0.258468598,-0.128168449,-0.508810103,0,0,-29,13,7,-7.092822552,3.727771997,-0.322020143,0.553042889,-0.445658505,0.559171498,-60,-44,-25,31,167
1695162025345623200,-9.567230225,-1.529894829,-1.030703783,-0.28205052,-0.115511484,-0.498551309,-1,0,-31,13,4,-7.000645638,3.7169981,-0.264559299,0.548379779,-0.402491599,0.568231225,-59,-44,-28,30,168
1695162025390550400,-8.895656586,-1.842338204,-1.030703783,-0.539053619,0.231822357,-0.403157741,0,0,-28,13,5,-7.269993305,3.473986626,0.652419984,0.298837662,0.351996928,0.641641676,-60,-44,-24,31,167
1695162025391550400,-8.907627106,-1.872265697,-1.019929886,-0.536388993,0.245944872,-0.401425719,1,1,-37,13,4,-7.354987621,3.481169224,0.690727174,0.278186828,0.374912739,0.628185272,-61,-44,-29,30,168
1695162025392550400,-8.919598579,-1.89860189,-1.010353088,-0.531592667,0.258601815,-0.399294019,-1,0,-33,12,5,-7.439981937,3.488351822,0.721851826,0.256336898,0.395830035,0.612197518,-60,-46,-27,30,169
1695162025393550400,-8.935160637,-1.9321208,-0.998382092,-0.524531364,0.269793272,-0.396762639,0,0,-30,13,1,-7.526173115,3.502717018,0.752976418,0.233554363,0.414482385,0.59421134,-60,-43,-31,28,168
1695162025394550400,-8.950722694,-1.964442492,-0.988805294,-0.514672279,0.279785603,-0.393565059,-1,0,-36,12,-1,-7.614758492,3.514688015,0.786495268,0.209972441,0.430736601,0.574093461,-60,-44,-28,30,169
1695162025491454800,-9.093177795,-2.266111851,-0.831985116,0.070346095,0.224494636,-0.224094957,1,2,-35,13,1,-8.645462036,3.526659012,0.827196658,-0.290444106,0.296439528,-0.044898927,-60,-47,-31,27,168
1695162025492454800,-9.083600998,-2.254140854,-0.825999558,0.11191424,0.212237358,-0.211304754,0,0,-28,13,3,-8.644265175,3.518279314,0.811634362,-0.307231247,0.272857577,-0.07794027,-60,-45,-31,36,167
1695162025493454800,-9.065644264,-2.23259306,-0.821211159,0.152416542,0.199980095,-0.198647782,2,2,-32,12,7,-8.640673637,3.508702517,0.803254664,-0.322419584,0.249009192,-0.109516084,-60,-45,-31,29,170
1695162025494454800,-9.047688484,-2.207453966,-0.821211159,0.191320062,0.18798928,-0.18599081,-1,1,-30,13,5,-8.627506256,3.502717018,0.791283667,-0.335742712,0.225294024,-0.139892802,-60,-48,-12,30,167
1695162025495454800,-9.033323288,-2.172738075,-0.82001406,0.228491575,0.175865233,-0.173866764,1,0,-29,10,1,-8.616731644,3.499125719,0.78170687,-0.347200602,0.201978564,-0.168670759,-60,-44,-29,29,167
1695162025547820200,-8.831012726,-1.552639842,-0.821211159,0.412750393,0.041434918,-0.030643184,-1,0,-32,10,1,-8.570044518,3.500322819,0.614112735,-0.18385911,-0.024781011,-0.440329254,-60,-47,-29,28,167
1695162025548820200,-8.838195801,-1.532289028,-0.827196658,0.39782849,0.037970904,-0.027312404,0,0,-33,13,0,-8.595184326,3.509899616,0.611718535,-0.159211323,-0.024114855,-0.441395104,-59,-40,-27,30,167
1695162025549820200,-8.847772598,-1.517923832,-0.828393817,0.381307811,0.034640122,-0.024248086,0,0,-31,13,3,-8.621520042,3.525461912,0.611718535,-0.134163857,-0.022782542,-0.441661566,-62,-44,-29,30,168
1695162025550820200,-8.857349396,-1.508347034,-0.833182216,0.363321573,0.031042879,-0.021450229,0,0,-29,13,4,-8.649053574,3.544615507,0.614112735,-0.108983152,-0.02051761,-0.441261858,-60,-45,-28,29,168
1695162025551820200,-8.869319916,-1.497573137,-0.842759013,0.34440276,0.027712099,-0.019052068,0,0,-33,13,3,-8.681375504,3.56736064,0.612915635,-0.083669223,-0.017453292,-0.439929545,-60,-41,-29,27,168
1695162025597634000,-9.131484985,-1.564610839,-1.022324085,-0.032508422,-0.056223582,-0.030643184,-1,1,-33,12,3,-8.965087891,4.260481834,0.956483603,0.171468601,0.139359877,-0.377977014,-60,-44,-29,26,170
1695162025598634000,-9.142259598,-1.578976035,-1.042674899,-0.047830015,-0.06115314,-0.032108728,0,0,-29,13,3,-8.949525833,4.286818027,0.979228497,0.168670759,0.14748697,-0.373180717,-60,-44,-27,28,167
1695162025599634000,-9.145850182,-1.589749932,-1.065419793,-0.062352221,-0.065683,-0.033574272,-1,0,-33,11,5,-8.931569099,4.307168961,0.998382092,0.164407358,0.155214384,-0.368251175,-60,-44,-31,31,171
1695162025600634000,-9.145850182,-1.604115129,-1.080982089,-0.075941809,-0.06981317,-0.035039816,4,1,-32,14,2,-8.912415504,4.325125217,1.017535686,0.159078106,0.162808567,-0.362522215,-60,-44,-29,28,167
1695162025601634000,-9.148244858,-1.613691926,-1.096544385,-0.088732004,-0.073810108,-0.036238898,2,-1,-28,11,2,-8.890868187,4.340687752,1.040280581,0.153082699,0.170003071,-0.356127113,-60,-47,-31,26,167
1695162025760510400,-9.044096947,-1.837549806,-1.291671872,-0.194117904,-0.035972435,-0.036905054,-1,0,-36,13,4,-8.605957985,4.122815132,1.33955586,-0.0042634,0.213836133,-0.138160795,-59,-44,-27,22,167
1695162025761510400,-9.033323288,-1.853112102,-1.290474772,-0.191586524,-0.02797856,-0.035705972,-1,0,-29,13,1,-8.610746384,4.097676277,1.353921056,-0.007860643,0.210372135,-0.127502292,-58,-45,-2,28,170
1695162025762510400,-9.027337074,-1.868674397,-1.291671872,-0.188255742,-0.019052068,-0.034240428,-1,0,-31,12,0,-8.614337921,4.072536945,1.364694953,-0.010525269,0.206108719,-0.117776416,-60,-43,-32,27,168
1695162025763510400,-9.021351814,-1.885433793,-1.284489155,-0.18385911,-0.010392036,-0.032641653,-1,-1,-32,12,2,-8.617929459,4.050989151,1.37427175,-0.012390506,0.201312408,-0.109249614,-60,-43,-28,29,165
1695162025764510400,-9.015366554,-1.902193308,-1.282094955,-0.178529859,-0.001199081,-0.030909648,-1,3,-32,12,1,-8.628703117,4.021061897,1.379060149,-0.013189893,0.193984687,-0.099124044,-60,-43,-31,28,168
1695162025798488600,-8.967482567,-2.00873518,-1.192312479,0.018918836,0.104852989,0.00319755,0,0,-32,13,2,-8.775946617,4.371812344,1.48799634,0.14748697,0.060220521,-0.153615624,-59,-43,-28,21,167
1695162025799488600,-8.962694168,-2.003946781,-1.18752408,0.029310873,0.105385914,0.004396631,-1,0,-32,13,1,-8.775946617,4.443638325,1.492784739,0.163075045,0.057422664,-0.159611031,-60,-44,-31,27,167
1695162025800488600,-8.961497307,-2.001552582,-1.181538582,0.038903523,0.105785601,0.005728943,-1,1,-33,13,1,-8.773551941,4.517858505,1.495178938,0.17866309,0.05595712,-0.164807037,-60,-44,-25,24,168
1695162025801488600,-8.951920509,-1.994369984,-1.179144382,0.047963247,0.106052071,0.006794794,2,0,-34,13,0,-8.77235508,4.596867085,1.503558636,0.19478406,0.055424199,-0.168404296,-58,-44,-28,28,166
1695162025802488600,-8.943540573,-1.984793186,-1.169567585,0.056356817,0.105918832,0.007993874,-1,-2,-31,13,3,-8.76636982,4.683058739,1.519120932,0.211437985,0.055823889,-0.170402765,-59,-41,-32,29,169
1695162025843496900,-8.876502991,-1.892616391,-1.053448796,0.08753293,0.109915771,0.049562022,-1,1,-29,13,4,-8.947132111,8.373720169,2.681505919,0.263264924,0.282317013,0.158012256,-62,-46,-31,21,168
1695162025844496900,-8.881291389,-1.89620769,-1.046266198,0.085534461,0.109382853,0.053825419,-1,-6,-31,11,5,-8.979453087,8.629899979,2.760514498,0.23422052,0.295373648,0.193984687,-59,-35,-30,22,167
1695162025845496900,-8.888473511,-1.903390408,-1.04147768,0.083669223,0.109116383,0.05808882,0,0,-33,11,2,-9.016563416,8.876502991,2.840720415,0.202511474,0.306964755,0.232754961,-60,-47,-31,26,168
1695162025846496900,-8.893261909,-1.909375906,-1.04147768,0.082203679,0.108849928,0.062485453,0,0,-34,13,4,-9.06205368,9.124302864,2.911349297,0.167871356,0.3168239,0.274056673,-60,-45,-32,25,167
1695162025847496900,-8.901641846,-1.916558504,-1.033097982,0.080871366,0.107917301,0.066882081,1,-1,-32,13,3,-9.120711327,9.369708061,2.97479558,0.129633993,0.32468453,0.31788975,-60,-49,-34,22,170
1695162025881475400,-9.075222015,-2.080561161,-0.999579191,0.113646246,0.075808577,0.158278719,1,0,-28,9,-1,-10.78108978,12.67131233,3.610456228,-0.767012239,-0.199580401,1.651268005,-60,-45,-34,21,168
1695162025882475400,-9.088389397,-2.084152699,-1.001973391,0.116444103,0.073143952,0.162009194,-1,0,-33,13,-1,-10.88284397,12.77306652,3.596091032,-0.806581914,-0.269127101,1.750924945,-63,-43,-34,21,167
1695162025883475400,-9.09437561,-2.092532396,-1.007958889,0.119108729,0.070745789,0.165606424,-1,0,-28,13,3,-10.98579407,12.86643982,3.570951939,-0.842421114,-0.343070447,1.851914287,-61,-40,-33,21,167
1695162025884475400,-9.101557732,-2.098517895,-1.017535686,0.120973967,0.068214394,0.168803975,3,0,-29,11,1,-11.08635139,12.95382786,3.53503871,-0.873863697,-0.421010703,1.954235792,-60,-38,-33,21,168
1695162025885475400,-9.109937668,-2.098517895,-1.018732786,0.122705974,0.065683,0.171735078,-1,0,-32,13,1,-11.18570995,13.03882217,3.501519918,-0.900243521,-0.502415001,2.05749011,-61,-41,-34,21,173
1695162025932296700,-9.147047997,-2.202665567,-1.027112484,0.089664623,0.037970904,0.159344569,-1,0,-34,12,-3,-11.95424938,14.20240402,2.498349428,-0.512673795,-1.990474701,4.040903568,-59,-40,-34,18,170
1695162025933296700,-9.148244858,-2.205059767,-1.027112484,0.085267991,0.037304748,0.155081168,-1,1,-33,11,-1,-11.90516758,14.29577827,2.421735048,-0.454185307,-2.024581909,4.147621632,-63,-39,-33,19,170
1695162025934296700,-9.151836395,-2.207453966,-1.028309584,0.080871366,0.03650536,0.150551304,-1,-5,-32,13,1,-11.85129833,14.39753151,2.327163935,-0.395430326,-2.052560329,4.254339695,-59,-44,-35,17,170
1695162025935296700,-9.155426979,-2.207453966,-1.036689281,0.075941809,0.035705972,0.145222053,-2,0,-31,11,1,-11.79862595,14.49689102,2.219424963,-0.336408883,-2.074943304,4.360924721,-60,-43,-39,16,170
1695162025936296700,-9.156624794,-2.207453966,-1.040280581,0.071012251,0.034773353,0.139493108,0,-1,-29,13,3,-11.73637676,14.60582733,2.112883091,-0.278053582,-2.092529774,4.365588188,-59,-43,-35,16,169
1695162026042429500,-9.166201591,-2.209848166,-1.118092179,-0.06115314,0.027179174,-0.010125575,-1,-3,-35,10,1,-10.29626465,16.61815453,-0.1316811,0.391300142,-1.564800858,4.365588188,-61,-43,-43,9,172
1695162026043429500,-9.165003777,-2.214636564,-1.112106681,-0.0678147,0.028644716,-0.017719755,0,0,-35,11,1,-10.16458321,16.64448929,-0.208295554,0.400493115,-1.497519135,4.365588188,-61,-43,-44,12,170
1695162026044429500,-9.166201591,-2.220622063,-1.109712481,-0.074209802,0.030643184,-0.025047474,-2,0,-31,12,1,-10.03290176,16.65406609,-0.282515794,0.405822366,-1.42743957,4.365588188,-61,-44,-49,10,169
1695162026045429500,-9.172186852,-2.223016262,-1.113303781,-0.080071971,0.032641653,-0.03237519,-1,0,-35,10,0,-9.907206535,16.65765762,-0.356736064,0.407421142,-1.354961753,4.365588188,-59,-45,-41,9,172
1695162026046429500,-9.174580574,-2.225410461,-1.11569798,-0.085800916,0.034506891,-0.039303213,0,0,-32,10,2,-9.787496567,16.65885544,-0.434547603,0.405555874,-1.280751824,4.365588188,-59,-43,-43,10,170
1695162026086428200,-9.216479301,-2.103306293,-1.186326981,-0.184791744,0.027312404,-0.165073514,-1,0,-36,13,3,-7.299921036,14.23113537,-1.285686255,-0.203310877,0.146820813,4.365588188,-62,-44,-49,8,173
1695162026087428200,-9.212887764,-2.093729496,-1.192312479,-0.192119434,0.025580399,-0.171468601,1,0,-37,13,0,-7.157465935,14.01206589,-1.33835876,-0.23635222,0.205442563,4.365588188,-59,-44,-56,4,171
1695162026088428200,-9.208099365,-2.085349798,-1.195903778,-0.199447155,0.02384839,-0.177730486,0,0,-35,12,2,-7.016208172,13.77623653,-1.382651448,-0.266728938,0.261532933,4.365588188,-61,-46,-49,4,169
1695162026089428200,-9.205705643,-2.076969862,-1.199495077,-0.206908107,0.022782542,-0.183592647,-1,0,-29,11,0,-6.874950409,13.5272398,-1.424550056,-0.294041336,0.315225124,4.365588188,-60,-45,-55,4,170
1695162026090428200,-9.203310966,-2.073378563,-1.203086376,-0.21450229,0.021983154,-0.188921899,0,-1,-32,13,1,-6.733692169,13.27345467,-1.461660147,-0.31788975,0.36771822,4.365588188,-60,-45,-49,0,173
1695162026145369400,-9.139864922,-2.025494576,-1.22702837,-0.312693715,0.046897396,-0.21503523,2,1,-27,13,4,-3.912125587,9.610325813,-1.673547029,-0.348932624,1.379742742,4.365588188,-61,-49,-56,0,167
1695162026146369400,-9.141061783,-2.033874273,-1.224634171,-0.31322667,0.049295556,-0.21197091,0,1,-27,16,7,-3.762487888,9.495404243,-1.649604917,-0.345868289,1.436898947,4.365588188,-69,-45,-59,-1,171
1695162026147369400,-9.142259598,-2.04823947,-1.216254473,-0.313093394,0.05142726,-0.208773345,0,0,-31,13,8,-3.610456228,9.382876396,-1.632845521,-0.347333819,1.494321704,4.365588188,-62,-48,-61,0,170
1695162026148369400,-9.14465332,-2.051830769,-1.209071875,-0.312693715,0.053159267,-0.205442563,4,0,-30,15,1,-3.463212729,9.269151688,-1.626860023,-0.355860651,1.552143931,4.365588188,-62,-45,-64,-1,169
1695162026149369400,-9.145850182,-2.056619167,-1.209071875,-0.311761081,0.054758042,-0.201845318,4,1,-28,14,6,-3.319560766,9.133879662,-1.629254222,-0.369450212,1.609699726,4.365588188,-62,-50,-59,0,170
1695162026207335200,-9.081207275,-1.947683096,-1.280897856,-0.304699838,0.009326187,-0.171868294,1,3,-31,13,2,-1.22822547,5.027823448,-0.74220252,-0.703594148,2.553376675,4.365588188,-65,-49,-61,-2,167
1695162026208335200,-9.069235802,-1.946485996,-1.283292055,-0.307364464,0.008127105,-0.170935676,1,0,-29,13,7,-1.161187768,4.813542366,-0.679953277,-0.704660058,2.574959993,4.365588188,-69,-45,-64,-4,167
1695162026209335200,-9.057265282,-1.944091797,-1.280897856,-0.309895873,0.007327718,-0.169736609,-1,0,-28,12,0,-1.095347285,4.594472885,-0.620098233,-0.704526782,2.596276999,4.365588188,-66,-44,-66,-2,167
1695162026210335200,-9.044096947,-1.941697598,-1.274912357,-0.312693715,0.007594181,-0.168137819,2,-1,-29,15,5,-1.025915384,4.369418144,-0.565031588,-0.701995432,2.617860794,4.365588188,-69,-50,-62,-2,167
1695162026211335200,-9.038111687,-1.939303398,-1.272518158,-0.314425707,0.008260337,-0.166938737,4,0,-32,14,4,-0.933738649,4.05338335,-0.499191046,-0.694667637,2.646372318,4.365588188,-65,-45,-64,-6,168
1695162026274322800,-8.996212959,-1.988384485,-1.15400517,-0.326683015,0.086733535,-0.081137821,5,1,-29,13,7,0.355538964,0.867898107,1.787271619,-0.354661554,2.632249594,3.786698341,-71,-46,-66,-11,167
1695162026275322800,-8.993818283,-1.995567083,-1.143231273,-0.324551284,0.089131698,-0.075542115,5,2,-27,13,3,0.395043284,0.763750315,1.884236693,-0.346001506,2.598408937,3.717018366,-70,-47,-66,-13,168
1695162026276322800,-8.992621422,-2.005143881,-1.132457376,-0.322153151,0.091130167,-0.070079632,1,1,-25,14,2,0.440533102,0.660799682,1.975216389,-0.337874413,2.561370611,3.647738218,-72,-48,-66,-10,167
1695162026277322800,-8.989029884,-2.00873518,-1.122880578,-0.319621742,0.09246248,-0.064883612,0,2,-29,14,7,0.493205547,0.567425787,2.072181463,-0.331212848,2.521800995,3.578724384,-69,-47,-66,-10,167
1695162026278322800,-8.985439301,-2.018311977,-1.110909581,-0.316557437,0.093661562,-0.059687596,1,3,-29,15,7,0.553060591,0.471657723,2.175132275,-0.326816231,2.480499029,3.509577274,-67,-49,-67,-11,165
1695162026428392300,-9.009381294,-2.04464817,-0.942118347,-0.26806125,0.048762634,-0.001465544,1,1,-32,13,7,1.604115129,-1.303642869,4.934449673,-0.080871366,1.789961696,2.304367542,-76,-45,-66,-14,165
1695162026429392300,-9.012971878,-2.041056871,-0.934935749,-0.267395109,0.043966308,0.001465544,-1,0,-28,13,7,1.634042621,-1.33716166,5.064933777,-0.061819296,1.748526812,2.249876022,-69,-47,-67,-18,161
1695162026430392300,-9.015366554,-2.039859772,-0.93134445,-0.266728938,0.03956968,0.004663093,0,0,-32,13,7,1.668758631,-1.355118155,5.196614742,-0.044232771,1.705759645,2.194185257,-71,-47,-69,-15,163
1695162026431392300,-9.017760277,-2.035071373,-0.92895025,-0.266329229,0.035039816,0.008127105,2,2,-29,13,3,1.70946002,-1.363497853,5.323507309,-0.027712099,1.662326217,2.138761044,-69,-36,-66,-14,166
1695162026432392300,-9.021351814,-2.031480074,-0.93014735,-0.266196012,0.030643184,0.011591119,2,1,-28,13,5,1.760935307,-1.368286252,5.445611954,-0.011324655,1.618759632,2.084669113,-65,-47,-66,-12,166
1695162026585307800,-8.983044624,-2.102109194,-0.946906745,-0.263531387,-0.023182238,0.120973967,4,0,-27,14,5,3.466804028,-0.900219858,7.43040514,0.20824042,0.972987771,1.14219141,-74,-47,-66,-14,164
1695162026586307800,-8.980650902,-2.110488892,-0.954089403,-0.261932611,-0.024781011,0.127768755,-1,0,-27,16,4,3.555389643,-0.858321309,7.485471725,0.215168446,0.95047164,1.098891258,-73,-47,-67,-16,164
1695162026587307800,-8.983044624,-2.123656988,-0.960074902,-0.260333836,-0.026246555,0.134163857,0,2,-29,14,2,3.647566319,-0.814028561,7.54891777,0.221297085,0.928355217,1.056124091,-70,-47,-66,-15,162
1695162026588307800,-8.983044624,-2.132036686,-0.9648633,-0.258735061,-0.027845331,0.140425727,0,3,-29,13,4,3.738545895,-0.770932972,7.61356163,0.226359874,0.906905055,1.01388967,-71,-49,-69,-15,164
1695162026589307800,-8.983044624,-2.139219284,-0.9672575,-0.257003069,-0.029710567,0.146554366,1,3,-29,16,5,3.828328609,-0.719457626,7.669825077,0.230356812,0.88558805,0.972454786,-74,-48,-67,-17,165
1695162026668258700,-9.107542992,-2.297236443,-1.04147768,-0.222762644,-0.089931086,0.213969365,1,-1,-29,13,3,5.477933407,-0.056263741,7.896077156,0.142157733,0.47989893,0.392898917,-71,-48,-71,-16,164
1695162026669258700,-9.107542992,-2.30561614,-1.048660398,-0.220897391,-0.093794793,0.214901984,1,0,-27,14,5,5.547365189,-0.050278235,7.858967304,0.145222053,0.464444101,0.37704441,-72,-48,-66,-16,166
1695162026670258700,-9.107542992,-2.312798738,-1.054645896,-0.219032168,-0.09739203,0.215701386,0,1,-28,16,7,5.61679697,-0.04189853,7.814674377,0.151883617,0.44978866,0.362921923,-76,-49,-67,-17,165
1695162026671258700,-9.107542992,-2.321178436,-1.059434295,-0.217300147,-0.100856051,0.216367543,2,3,-27,13,3,5.680243492,-0.029927522,7.776367188,0.161875948,0.437131703,0.349998444,-71,-47,-66,-16,162
1695162026672258700,-9.109937668,-2.325966835,-1.066616893,-0.215434924,-0.104186833,0.21663399,1,1,-27,13,5,5.748478413,-0.010773907,7.742848396,0.175332308,0.4264732,0.338407338,-70,-47,-66,-16,162
1695162026744210700,-9.124302864,-2.402581453,-1.200692177,-0.192252681,-0.110715166,0.198780999,1,1,-27,14,3,6.860584736,1.306037068,7.515398979,0.50641191,0.513872921,0.214768767,-71,-47,-73,-15,161
1695162026745210700,-9.126696587,-2.410961151,-1.200692177,-0.190787122,-0.108450226,0.197448686,-1,1,-25,13,4,6.833051682,1.333570361,7.550115108,0.507877529,0.529594183,0.20570904,-70,-38,-75,-17,162
1695162026746210700,-9.125499725,-2.41455245,-1.210268974,-0.189188361,-0.106185302,0.195849925,1,0,-28,13,2,6.782773495,1.346738458,7.592013359,0.509875953,0.543983161,0.19478406,-72,-51,-73,-17,165
1695162026747210700,-9.129091263,-2.422932148,-1.218648672,-0.187323123,-0.103653908,0.194384381,1,0,-29,14,5,6.709750175,1.351526856,7.653065681,0.512940288,0.554908097,0.182793275,-73,-55,-77,-17,165
1695162026748210700,-9.130288124,-2.425326347,-1.224634171,-0.185191423,-0.101122513,0.192652375,0,2,-27,16,9,6.6163764,1.353921056,7.744045258,0.515871346,0.562102616,0.170003071,-71,-61,-78,-17,162
1695162026815174300,-9.160215378,-2.48996973,-1.26294136,-0.104719758,-0.069679938,0.148286372,-1,2,-33,13,5,5.227739334,1.37427175,9.476250648,0.111114852,0.100323126,0.128701374,-71,-69,-88,-19,161
1695162026816174300,-9.163806915,-2.48996973,-1.26533556,-0.099390499,-0.069280244,0.145088822,1,0,-27,14,1,5.255272865,1.326387763,9.416395187,0.102721281,0.073143952,0.132831544,-71,-69,-84,-22,162
1695162026817174300,-9.162610054,-2.487575531,-1.267729759,-0.094061248,-0.068614088,0.14175804,1,2,-28,13,3,5.294776917,1.282094955,9.340977669,0.099656969,0.047563553,0.136162326,-71,-68,-84,-20,162
1695162026818174300,-9.165003777,-2.480392933,-1.270123959,-0.088998467,-0.068214394,0.138560489,0,1,-29,16,5,5.341464043,1.238999367,9.254786491,0.101655439,0.023981623,0.13975957,-74,-69,-83,-21,164
1695162026819174300,-9.160215378,-2.479195833,-1.272518158,-0.084068909,-0.0678147,0.135096475,0,0,-31,12,4,5.395333767,1.200692177,9.160215378,0.108316995,0.001865237,0.142957121,-76,-67,-84,-18,164
1695162026888133400,-9.083600998,-2.385822058,-1.307234168,-0.01612098,-0.05249311,0.08020521,1,0,-27,13,2,6.378153324,1.604115129,7.787140846,0.233154669,-0.17759724,0.194117904,-74,-77,-85,-18,164
1695162026889133400,-9.083600998,-2.379836559,-1.310825467,-0.013056661,-0.051160797,0.078073502,1,0,-26,14,3,6.375759125,1.600523829,7.791929245,0.226493105,-0.172001526,0.186124057,-73,-73,-88,-18,162
1695162026890133400,-9.082404137,-2.37624526,-1.309628367,-0.009992342,-0.04969525,0.076341502,4,6,-29,13,7,6.370970726,1.592144132,7.803900242,0.219165385,-0.166006133,0.177730486,-73,-67,-88,-18,161
1695162026891133400,-9.078812599,-2.372653961,-1.310825467,-0.006794794,-0.047963247,0.074875958,1,0,-29,13,4,6.355408192,1.587355733,7.830236435,0.211171508,-0.160143942,0.169070452,-76,-73,-87,-23,160
1695162026892133400,-9.077615738,-2.37744236,-1.314416766,-0.003464012,-0.04623124,0.073676877,4,3,-28,13,2,6.332663536,1.584961534,7.869740963,0.202111781,-0.154415011,0.160543635,-76,-75,-85,-21,162
1695162026963089900,-8.860940933,-2.371456861,-1.297657371,0.090464011,-0.009725881,0.067281775,3,0,-34,14,4,5.582081318,1.195903778,8.555679321,-0.07794027,-0.266595691,0.017852986,-72,-71,-85,-19,162
1695162026964089900,-8.847772598,-2.366668463,-1.297657371,0.095660031,-0.008926493,0.065949462,-1,0,-28,14,7,5.527014732,1.140837073,8.558073997,-0.089531392,-0.293774903,0.010125575,-71,-69,-87,-17,162
1695162026965089900,-8.831012726,-2.361880064,-1.297657371,0.100456357,-0.008393568,0.064350687,6,0,-25,15,4,5.468356609,1.082179189,8.559270859,-0.100189894,-0.323751897,0.0021317,-73,-67,-83,-17,162
1695162026966089900,-8.817844391,-2.355894566,-1.302445769,0.104719758,-0.007993874,0.062485453,2,1,-27,13,4,5.406107426,1.023521185,8.555679321,-0.110049009,-0.356526792,-0.005995406,-71,-66,-82,-17,164
1695162026967089900,-8.803479195,-2.352303267,-1.302445769,0.108716697,-0.007727412,0.060753446,0,8,-28,13,4,5.333084106,0.9648633,8.550890923,-0.118709028,-0.391833097,-0.014388974,-72,-67,-83,-14,160
1695162027038042300,-8.750806808,-2.218227863,-1.345541358,0.100722812,0.002664625,0.013189893,8,0,-31,17,5,2.467224836,-1.134851575,7.965508938,-0.319488525,-1.390534401,-0.682810128,-66,-56,-71,-1,160
1695162027039042300,-8.755595207,-2.217030764,-1.347935557,0.097924963,0.003863706,0.010924961,8,5,-27,15,4,2.298433542,-1.280897856,7.861361504,-0.332411945,-1.455551386,-0.739966273,-69,-57,-68,-1,157
1695162027040042300,-8.765172005,-2.217030764,-1.352723956,0.095127106,0.005196018,0.008660031,0,1,-29,16,3,2.134430885,-1.423352957,7.741651058,-0.34333688,-1.521900415,-0.800053596,-70,-57,-67,-1,155
1695162027041042300,-8.774748802,-2.219424963,-1.361103654,0.092062794,0.006261868,0.006128637,3,0,-29,14,5,1.96923089,-1.564610839,7.612364292,-0.352529854,-1.589182258,-0.862672329,-66,-55,-68,-1,160
1695162027042042300,-8.786720276,-2.217030764,-1.367089152,0.089264929,0.007460949,0.003730475,0,2,-27,13,7,1.810016513,-1.707065821,7.475894928,-0.35945788,-1.656996965,-0.927689135,-67,-61,-66,2,160
1695162027121018400,-9.103952408,-2.211045265,-1.464054346,0.042500768,0.038770292,-0.070346095,4,3,-25,14,5,0.073023155,-3.026270866,4.220977783,-0.184125587,-2.7029953,-2.505413532,-65,-55,-63,16,155
1695162027122018400,-9.127894402,-2.201468468,-1.467645645,0.038237367,0.040502299,-0.076741189,2,2,-27,13,3,0.023942016,-2.970007181,4.097676277,-0.173600301,-2.725777864,-2.604137659,-66,-53,-59,24,160
1695162027123018400,-9.153033257,-2.19428587,-1.479616642,0.033973966,0.042234302,-0.08313629,2,6,-31,11,7,-0.025139118,-2.8981812,3.983951569,-0.164007664,-2.743231058,-2.704327583,-62,-53,-56,22,160
1695162027124018400,-9.180566788,-2.185906172,-1.48799634,0.02917764,0.043699846,-0.090064317,0,1,-28,13,7,-0.074220255,-2.808398485,3.884592295,-0.156413481,-2.755621672,-2.806249619,-65,-57,-56,20,160
1695162027125018400,-9.20929718,-2.176329374,-1.48799634,0.024248086,0.044765696,-0.097125575,0,3,-31,14,2,-0.117315881,-2.71263051,3.797203779,-0.151750386,-2.762416601,-2.910036564,-65,-51,-57,20,162
1695162027210943300,-9.351752281,-2.084152699,-1.522712231,-0.085001536,0.082470134,-0.236218989,1,1,-25,14,7,-1.520318031,0.069431849,1.836352706,-0.642441094,-2.20444417,-4.365721226,-63,-52,-43,30,160
1695162027211943300,-9.337387085,-2.081758261,-1.520318031,-0.088199086,0.086866774,-0.242480844,3,3,-29,14,7,-1.610100627,0.238223076,1.703474522,-0.672018409,-2.165807009,-4.365721226,-61,-53,-40,28,162
1695162027212943300,-9.327810287,-2.078166962,-1.514332533,-0.090597242,0.091529861,-0.248875946,0,0,-25,16,5,-1.698686123,0.399831682,1.576581836,-0.699730456,-2.127969503,-4.365721226,-60,-53,-40,27,164
1695162027213943300,-9.320627213,-2.069787264,-1.515529633,-0.092595711,0.096326187,-0.255004585,4,1,-25,13,3,-1.775300503,0.575805485,1.471236944,-0.72357887,-2.089598656,-4.365721226,-60,-56,-45,30,164
1695162027214943300,-9.319430351,-2.066195965,-1.515529633,-0.094061248,0.101255737,-0.261133224,1,2,-28,13,4,-1.845929503,0.78170687,1.382651448,-0.747560501,-2.049762726,-4.365721226,-60,-52,-40,28,164
1695162027285905400,-9.373299599,-1.952471495,-1.346738458,-0.02358193,0.186790213,-0.310428768,0,0,-29,13,5,-2.657563925,5.297171116,1.905784607,-1.562003136,-0.43939665,-4.365721226,-58,-49,-39,22,166
1695162027286905400,-9.376891136,-1.947683096,-1.332373261,-0.015188362,0.189454809,-0.308830023,6,1,-26,13,4,-2.749740601,5.559336185,1.987187386,-1.649536014,-0.294707507,-4.365721226,-60,-49,-37,22,164
1695162027287905400,-9.37449646,-1.940500498,-1.318008065,-0.006261868,0.191852987,-0.306831539,1,2,-25,13,3,-2.840720415,5.828683853,2.062604666,-1.739067316,-0.143090352,-4.365721226,-60,-48,-39,22,164
1695162027288905400,-9.3685112,-1.9333179,-1.30124867,0.002931087,0.193851456,-0.304433405,3,1,-28,13,4,-2.944868088,6.104017258,2.133233786,-1.830197573,0.015721286,-4.365721226,-57,-57,-39,28,166
1695162027289905400,-9.363722801,-1.928529501,-1.280897856,0.012257273,0.195450217,-0.301369071,1,1,-29,13,5,-3.093308687,6.488286495,2.234987259,-1.952370524,0.238084227,-4.365721226,-59,-48,-40,24,168
1695162027324900500,-9.125499725,-1.756146908,-1.012747288,0.171601832,0.163607955,-0.196516067,4,0,-34,14,3,-6.726509571,9.707290649,3.475183725,-3.663059711,4.302036762,-4.365721226,-65,-44,-48,13,172
1695162027325900500,-9.121908188,-1.740584612,-0.998382092,0.175465539,0.15841195,-0.190787122,1,-1,-29,13,4,-6.886921406,9.514557838,3.501519918,-3.753390551,4.365588188,-4.365721226,-63,-45,-45,13,170
1695162027326900500,-9.118317604,-1.726219416,-0.987608194,0.178529859,0.153082699,-0.184791744,4,0,-33,14,3,-7.049726963,9.282320023,3.517082214,-3.841722727,4.365588188,-4.365721226,-62,-44,-45,10,172
1695162027327900500,-9.113529205,-1.707065821,-0.975637197,0.180395097,0.147353753,-0.178529859,0,3,-28,14,3,-7.228095055,9.015366554,3.519476414,-3.927790165,4.365588188,-4.365721226,-66,-44,-47,13,170
1695162027328900500,-9.111134529,-1.687912226,-0.9648633,0.181460962,0.141624808,-0.172267988,-1,0,-26,13,3,-7.428010941,8.722076416,3.500322819,-4.011592865,4.365588188,-4.365721226,-64,-43,-54,13,169
1695162027364871000,-9.411606789,-1.610100627,-0.709880829,0.101921894,0.027179174,-0.001598775,2,1,-32,13,5,-15.41387081,0.123301387,-0.318428814,-2.664757967,4.365588188,-4.365721226,-63,-40,-45,9,170
1695162027365871000,-9.43914032,-1.619677424,-0.702698171,0.095926493,0.019052068,0.009192956,1,0,-27,13,8,-16.00882912,-0.248996973,-0.544680893,-2.356594324,4.365588188,-4.365721226,-64,-44,-48,8,172
1695162027366871000,-9.460687637,-1.631648421,-0.696712673,0.090064317,0.01079173,0.019984685,-1,0,-29,13,5,-16.59301567,-0.586579442,-0.778115571,-2.030044556,4.365588188,-4.365721226,-62,-43,-48,10,170
1695162027367871000,-9.48343277,-1.638831019,-0.685938776,0.084335379,0.001865237,0.030643184,-1,0,-32,13,3,-17.20712852,-0.903811157,-0.998382092,-1.686441064,4.365588188,-4.365721226,-63,-39,-56,8,172
1695162027368871000,-9.502586365,-1.644816518,-0.676361978,0.078606427,-0.007194487,0.040635526,6,0,-31,11,5,-18.02235413,-1.294066072,-1.235408068,-1.201346159,4.365588188,-4.365721226,-65,-41,-47,9,172
1695162027400833200,-9.123106003,-1.678335428,-0.792480767,-0.10178867,-0.204509944,0.066215925,0,1,-33,13,1,-19.61330032,3.847482204,-2.178723574,4.365588188,3.259502172,-2.447724342,-62,-39,-41,13,176
1695162027401833200,-9.071630478,-1.663970232,-0.808043063,-0.120707504,-0.212370604,0.057422664,2,1,-29,13,1,-19.61330032,4.616020679,-2.138022184,4.365588188,3.197683096,-2.450255632,-66,-43,-43,12,171
1695162027402833200,-9.017760277,-1.647210717,-0.829590917,-0.140558958,-0.219431862,0.04769678,-1,-1,-36,11,3,-19.61330032,5.391742229,-2.102109194,4.365588188,3.134264946,-2.470107079,-63,-41,-40,12,176
1695162027403833200,-8.963891029,-1.631648421,-0.857124209,-0.161476254,-0.225693718,0.03757121,2,0,-33,13,2,-19.61330032,6.167463779,-2.057816267,4.365588188,3.067649126,-2.505413532,-63,-41,-40,13,179
1695162027404833200,-8.916007042,-1.618480325,-0.876277804,-0.183192953,-0.230889738,0.026779478,0,0,-28,13,5,-19.61330032,6.947973251,-2.006340981,4.365588188,2.997169971,-2.554575682,-60,-40,-41,14,178
1695162027436815600,-8.4012537,-1.543063045,-1.182735682,-0.510275662,-0.156546697,-0.101122513,4,2,-29,13,2,-17.88348961,15.31331444,-0.196324542,4.365588188,0.812177658,-3.356494665,-63,-41,-41,10,172
1695162027437815600,-8.38928318,-1.551442742,-1.195903778,-0.51214087,-0.146687597,-0.09739203,2,1,-26,13,3,-17.23585892,15.15170574,0.019153614,4.365588188,0.744895875,-3.264431715,-63,-40,-37,11,172
1695162027438815600,-8.378508568,-1.56221664,-1.201889277,-0.511474729,-0.136828482,-0.091929555,-1,0,-33,13,3,-16.64329338,14.97094345,0.238223076,4.365588188,0.689871371,-3.153450012,-63,-40,-39,16,173
1695162027439815600,-8.371326447,-1.570596337,-1.209071875,-0.508410394,-0.126969382,-0.085001536,-1,0,-29,13,2,-16.05192566,14.74349403,0.417788208,4.365588188,0.64403981,-3.027546644,-66,-41,-37,14,172
1695162027440815600,-8.367734909,-1.578976035,-1.217451572,-0.503347635,-0.117376715,-0.076874427,0,3,-27,12,2,-15.45457172,14.40591145,0.551863492,4.365588188,0.608733535,-2.885522127,-63,-39,-37,15,171
1695162027471799700,-8.664615631,-1.854309201,-1.252167463,-0.121506892,-0.025846859,0.333611012,1,1,-31,13,3,-11.1653595,6.611588001,0.281318694,0.633781016,0.695333838,0.966725886,-63,-41,-34,21,173
1695162027472799700,-8.694543839,-1.887827992,-1.242590666,-0.086067379,-0.025846859,0.367052078,0,3,-35,13,3,-11.14860058,6.320692539,0.272938997,0.640309334,0.696666181,1.117010713,-63,-45,-34,21,171
1695162027473799700,-8.719682693,-1.922544003,-1.234210968,-0.048895866,-0.026246555,0.400759578,0,2,-35,13,1,-11.13543224,6.042964935,0.265756398,0.666289389,0.696666181,1.256637096,-63,-45,-34,24,170
1695162027474799700,-8.74601841,-1.954865694,-1.22702837,-0.010258805,-0.027045943,0.434866786,-1,0,-33,14,5,-11.11388397,5.793968201,0.260968,0.713053584,0.697332263,1.386404276,-61,-41,-35,19,172
1695162027475799700,-8.77235508,-1.993172884,-1.216254473,0.029843798,-0.028245023,0.468840718,1,0,-33,15,3,-11.081563,5.566518784,0.256179571,0.773540556,0.697465599,1.502715111,-66,-44,-34,24,173
1695162027667527300,-9.17098999,-2.324769735,-1.127668977,0.763947904,-0.092995405,0.957000017,0,0,-29,16,2,-9.838972092,5.262455463,0.863109708,2.931353569,0.809379816,1.506445646,-63,-46,-25,29,174
1695162027668527300,-9.184157372,-2.330755472,-1.130063176,0.789128661,-0.09739203,0.969257295,-1,0,-32,13,4,-9.756371498,5.371391296,0.914585054,2.999967813,0.801785588,1.431303263,-64,-44,-33,30,171
1695162027669527300,-9.190143585,-2.334346771,-1.136048675,0.812310874,-0.10178867,0.979516089,1,3,-28,13,5,-9.677363396,5.486313343,0.9672575,3.056591272,0.79166007,1.35509491,-66,-46,-33,28,170
1695162027670527300,-9.196128845,-2.341529369,-1.137245774,0.83362788,-0.105785601,0.987776399,1,1,-32,17,3,-9.604340553,5.595249176,1.030703783,3.101090193,0.779003024,1.279552937,-59,-47,-32,28,172
1695162027671527300,-9.203310966,-2.343923569,-1.137245774,0.852546692,-0.109516084,0.993905008,-1,0,-31,13,6,-9.542090416,5.701791286,1.095347285,3.134397984,0.762748837,1.207208276,-60,-45,-32,26,169
1695162027743482900,-9.338583946,-2.258929253,-1.07739079,0.815774918,-0.068214394,0.763814688,-1,0,-29,13,5,-8.535328865,7.51061058,1.729810715,1.517637134,0.176264927,0.327882051,-67,-43,-34,28,169
1695162027744482900,-9.345766068,-2.257732153,-1.066616893,0.794058144,-0.059287902,0.739433408,0,1,-29,14,4,-8.526948929,7.529764175,1.716642618,1.363754988,0.141891271,0.306565106,-61,-49,-34,29,170
1695162027745482900,-9.35654068,-2.258929253,-1.066616893,0.771009147,-0.049961712,0.714785576,-1,1,-29,13,2,-8.528146744,7.533355713,1.696291924,1.210006118,0.108183771,0.286846846,-63,-43,-34,24,169
1695162027746482900,-9.366117477,-2.26730895,-1.064222693,0.7468943,-0.040102605,0.689604938,-1,1,-28,13,2,-8.534132004,7.527369976,1.674744129,1.057456374,0.075275652,0.268594176,-63,-46,-34,25,168
1695162027747482900,-9.372102737,-2.273294449,-1.054645896,0.721980095,-0.029843798,0.664024532,-1,0,-31,13,7,-8.543708801,7.50462532,1.641225219,0.90743798,0.042900458,0.252339959,-62,-44,-35,25,170
1695162027809450700,-9.367314339,-2.497152328,-0.805648863,0.372248113,0.13975957,0.167604893,3,0,-26,12,3,-9.179368973,6.107608318,0.732625723,-0.995637059,-0.421277195,0.248076573,-64,-47,-34,25,168
1695162027810450700,-9.370905876,-2.507926226,-0.792480767,0.366652369,0.142957121,0.142157733,1,0,-29,12,5,-9.214085579,6.02381134,0.696712673,-1.042134762,-0.435399711,0.265130162,-63,-46,-33,29,172
1695162027811450700,-9.373299599,-2.513911724,-0.778115571,0.36305514,0.145222053,0.117509954,2,0,-29,13,5,-9.248801231,5.940014362,0.665588081,-1.084369063,-0.448456347,0.284182221,-63,-45,-34,28,173
1695162027812450700,-9.373299599,-2.519897223,-0.761356115,0.360923439,0.146820813,0.093395106,0,2,-28,13,4,-9.278728485,5.855020046,0.635660529,-1.122339964,-0.46018073,0.304966301,-61,-44,-34,26,168
1695162027813450700,-9.37449646,-2.522291422,-0.745793819,0.359990805,0.14748697,0.069946401,-1,4,-32,14,3,-9.307458878,5.767632008,0.615309834,-1.156180739,-0.470839173,0.327349156,-64,-48,-34,29,170
1695162027860415100,-9.35654068,-2.19189167,-0.609324336,0.401159286,0.045964777,-0.232088804,3,1,-29,13,7,-9.725247383,4.109647274,0.289698392,-1.032808542,-0.470039815,1.017220497,-62,-43,-31,30,167
1695162027861415100,-9.346963882,-2.161964178,-0.608127236,0.39782849,0.037837673,-0.242214397,0,0,-29,13,8,-9.739612579,4.035427094,0.276530296,-0.988842309,-0.465376705,1.057722807,-61,-45,-32,26,170
1695162027862415100,-9.334992409,-2.133233786,-0.609324336,0.393831551,0.029843798,-0.251807034,0,3,-29,13,4,-9.747992516,3.968389273,0.257376671,-0.942078114,-0.460713625,1.098091841,-60,-44,-33,30,172
1695162027863415100,-9.320627213,-2.103306293,-0.616506934,0.388635516,0.022116385,-0.261000007,-1,0,-28,13,5,-9.756371498,3.90374589,0.243011475,-0.892782509,-0.456317008,1.137794852,-63,-45,-33,29,168
1695162027864415100,-9.306262016,-2.075772762,-0.626083732,0.382373661,0.014655436,-0.269926488,0,1,-28,13,5,-9.763554573,3.845088005,0.228646263,-0.840955555,-0.452320069,1.177231193,-62,-41,-34,31,172
1695162027895419800,-9.17098999,-1.823184609,-0.761356115,0.172001526,-0.053159267,-0.369716704,3,0,-32,15,3,-9.518148422,3.485957623,0.217872351,0.090064317,-0.448056638,1.744663,-62,-45,-31,29,168
1695162027896419800,-9.173383713,-1.82079041,-0.769735873,0.160543635,-0.053159267,-0.372647762,1,1,-29,13,1,-9.479841232,3.488351822,0.228646263,0.121240422,-0.450321585,1.767845392,-61,-44,-28,32,167
1695162027897419800,-9.178172112,-1.818396211,-0.77931267,0.149485439,-0.053159267,-0.375312388,2,0,-29,14,3,-9.460687637,3.488351822,0.234631762,0.134963244,-0.451520681,1.778503895,-66,-47,-31,31,170
1695162027898419800,-9.179368973,-1.816002011,-0.786495268,0.138960183,-0.053026035,-0.377843797,4,0,-28,14,5,-9.427168846,3.485957623,0.246602774,0.158545166,-0.453519166,1.798355341,-60,-42,-29,31,169
1695162027899419800,-9.185355186,-1.814804912,-0.790086567,0.132165387,-0.052759573,-0.379442573,4,0,-31,13,4,-9.403226852,3.488351822,0.25977087,0.173067391,-0.45445177,1.81167841,-60,-43,-30,29,169
1695162027929378700,-9.306262016,-1.849520802,-0.976834297,0.048762634,-0.060486984,-0.437797844,2,0,-33,13,4,-9.018958092,3.438073635,0.417788208,0.018519141,-0.390234292,1.751591086,-63,-46,-24,32,168
1695162027930378700,-9.314641953,-1.853112102,-0.991199493,0.04969525,-0.061019909,-0.44152835,20,1,-28,16,4,-8.998606682,3.429693937,0.414196908,-0.003996937,-0.383039832,1.730007648,-60,-45,-25,33,169
1695162027931378700,-9.321824074,-1.849520802,-1.00317049,0.051027562,-0.061286367,-0.445258796,4,2,-25,13,6,-8.978256226,3.41892004,0.412999779,-0.02691271,-0.376111776,1.707091808,-60,-48,-25,36,166
1695162027932378700,-9.33020401,-1.843535304,-1.015141487,0.052626338,-0.061552834,-0.449122518,1,0,-27,13,3,-8.960299492,3.414131641,0.407014281,-0.04969525,-0.369050533,1.682577252,-60,-41,-24,34,169
1695162027933378700,-9.338583946,-1.837549806,-1.024718285,0.054624807,-0.061686065,-0.453252673,0,0,-27,13,5,-8.944737434,3.403357744,0.41060558,-0.07274425,-0.361189902,1.656330824,-60,-45,-23,34,169
1695162027962381900,-9.323021889,-1.628057122,-1.126471877,0.044765696,-0.028245023,-0.529860616,4,0,-27,13,4,-8.517372131,3.076549292,0.423773706,-0.419411957,-0.129767224,0.985777915,-60,-44,-23,31,169
1695162027963381900,-9.315838814,-1.611297727,-1.134851575,0.039702907,-0.024781011,-0.534390509,1,0,-27,15,4,-8.494627953,3.052607059,0.422576606,-0.426339954,-0.116444103,0.949938774,-60,-43,-20,36,168
1695162027964381900,-9.307458878,-1.595735431,-1.139639974,0.034107197,-0.021316998,-0.538920343,2,0,-22,13,3,-8.474276543,3.028665066,0.420182407,-0.431535989,-0.103787132,0.914765656,-61,-43,-22,38,169
1695162027965381900,-9.300276756,-1.582567334,-1.140837073,0.028378254,-0.017852986,-0.543450236,1,0,-28,13,7,-8.452729225,3.007117271,0.415394008,-0.435399711,-0.091529861,0.880525291,-57,-45,-17,37,170
1695162027966381900,-9.296685219,-1.571793437,-1.144428372,0.022116385,-0.014255743,-0.548113346,1,1,-29,13,2,-8.432378769,2.981978178,0.405817181,-0.437797844,-0.079805516,0.847084224,-60,-41,-21,36,169
1695162027996355800,-9.224859238,-1.430535555,-1.140837073,-0.106052071,0.052226644,-0.616993904,5,0,-25,16,3,-8.271966934,2.828749418,0.40821138,-0.293774903,0.05142726,0.333477795,-60,-45,-21,35,173
1695162027997355800,-9.220070839,-1.422155857,-1.138442874,-0.112580396,0.055290964,-0.619258761,2,0,-31,13,6,-8.270770073,2.833537817,0.403422982,-0.281251162,0.053558957,0.312693715,-60,-41,-23,36,168
1695162027998355800,-9.21528244,-1.41257906,-1.132457376,-0.118709028,0.058355279,-0.621390522,-1,1,-28,13,3,-8.269572258,2.837129116,0.405817181,-0.268594176,0.055024505,0.292309314,-60,-45,-23,34,162
1695162027999355800,-9.212887764,-1.401805043,-1.132457376,-0.125104129,0.06115314,-0.623122513,2,0,-25,15,4,-8.265981674,2.837129116,0.411802679,-0.255937219,0.056356817,0.272191435,-61,-44,-20,36,170
1695162028000355800,-9.204508781,-1.393425345,-1.127668977,-0.131499231,0.063950993,-0.624721289,0,0,-29,16,4,-8.269572258,2.841917515,0.415394008,-0.243147001,0.057555895,0.252339959,-58,-45,-24,36,167
1695162028030318100,-8.985439301,-1.250970364,-1.090558887,-0.249408886,0.098857582,-0.595410407,0,0,-27,13,3,-8.328230858,3.112462282,0.51954174,-0.067281775,0.080471672,-0.113246553,-59,-44,-19,34,168
1695162028031318100,-8.971074104,-1.252167463,-1.091755986,-0.254338443,0.100589581,-0.589681447,1,0,-31,13,2,-8.333019257,3.130418777,0.537498295,-0.063950993,0.083269522,-0.134163857,-61,-44,-23,34,164
1695162028032318100,-8.960299492,-1.250970364,-1.084573388,-0.258601815,0.102454826,-0.583286345,0,0,-27,13,4,-8.339004517,3.15914917,0.55665189,-0.060620211,0.086999997,-0.162808567,-60,-45,-24,37,170
1695162028033318100,-8.949525833,-1.250970364,-1.07858789,-0.262465537,0.104320064,-0.576758087,0,2,-28,13,4,-8.342596054,3.181894064,0.571017087,-0.059021436,0.089664623,-0.184791744,-60,-45,-22,31,169
1695162028034318100,-8.931569099,-1.250970364,-1.073799491,-0.26592955,0.106185302,-0.569430292,2,2,-24,13,3,-8.344989777,3.202244759,0.590170741,-0.05808882,0.092329249,-0.207174569,-60,-43,-20,33,168
1695162028071295300,-8.777143478,-1.273715258,-0.975637197,-0.237684533,0.11924196,-0.362388968,3,0,-28,14,8,-8.305485725,3.390189648,0.718260527,-0.105119444,0.100456357,-0.610732019,-60,-44,-23,36,167
1695162028072295300,-8.775946617,-1.271321058,-0.9672575,-0.232488513,0.118309341,-0.347866774,3,0,-29,14,3,-8.304288864,3.394978046,0.719457626,-0.107117914,0.101255737,-0.624721289,-60,-44,-25,31,167
1695162028073295300,-8.773551941,-1.268926859,-0.960074902,-0.227425739,0.11711026,-0.33294487,2,3,-28,13,5,-8.306682587,3.397372246,0.717063427,-0.108716697,0.102055125,-0.637777925,-61,-44,-25,32,168
1695162028074295300,-8.773551941,-1.26533556,-0.950498104,-0.222629398,0.115911178,-0.31788975,2,3,-29,13,5,-8.307879448,3.402160645,0.719457626,-0.109915771,0.103387438,-0.650301635,-63,-43,-24,33,168
1695162028075295300,-8.771158218,-1.259350061,-0.948103845,-0.217833072,0.114445634,-0.302568167,-1,3,-28,15,4,-8.307879448,3.410540342,0.713472128,-0.110715166,0.105252676,-0.662159264,-60,-43,-21,38,168
1695162028110274100,-8.755595207,-1.22702837,-0.811634362,-0.190787122,0.076075032,0.016653905,0,2,-27,15,7,-8.540117264,3.578134537,0.676361978,-0.014255743,0.183192953,-0.837225139,-60,-44,-25,32,162
1695162028111274100,-8.760383606,-1.236605167,-0.803254664,-0.192652375,0.073543645,0.035039816,1,3,-26,13,7,-8.556877136,3.597288132,0.66917938,-0.004796324,0.187456369,-0.844819248,-60,-43,-22,33,168
1695162028112274100,-8.763975143,-1.246181965,-0.794874966,-0.194384381,0.071012251,0.053692192,1,0,-32,15,2,-8.571242332,3.618835926,0.671573579,0.004929556,0.191320062,-0.852413476,-59,-44,-21,34,167
1695162028113274100,-8.767566681,-1.254561663,-0.787692368,-0.196116373,0.067947932,0.07194487,2,2,-29,16,3,-8.590395927,3.64038372,0.665588081,0.014388974,0.194917306,-0.859874368,-60,-43,-21,34,170
1695162028114274100,-8.77235508,-1.26653266,-0.78050977,-0.19784838,0.064883612,0.090197548,-1,3,-29,14,5,-8.610746384,3.664325714,0.67037648,0.023715161,0.198780999,-0.867202163,-60,-39,-21,32,168
1695162028165819700,-8.881291389,-1.52510643,-0.720654726,-0.2051761,0.004529862,0.379309326,1,0,-26,14,5,-8.868123055,4.242525578,0.736217022,0.104053594,0.247543648,-0.928355217,-62,-44,-24,33,168
1695162028166819700,-8.888473511,-1.533486247,-0.715866327,-0.205042884,0.000799387,0.392366022,4,2,-25,13,3,-8.876502991,4.267664433,0.739808321,0.101522207,0.248209804,-0.926490009,-63,-39,-25,33,168
1695162028167819700,-8.896853447,-1.541865945,-0.711077929,-0.2051761,-0.002664625,0.405156225,1,1,-32,13,8,-8.884882927,4.294000626,0.74339962,0.098457888,0.248875946,-0.923692167,-59,-41,-21,34,171
1695162028168819700,-8.910021782,-1.553836942,-0.707486629,-0.2051761,-0.005995406,0.417679936,-1,0,-27,13,4,-8.894459724,4.317942619,0.738611221,0.094993874,0.249275655,-0.920627892,-61,-47,-16,32,170
1695162028169819700,-8.920795441,-1.564610839,-0.70628953,-0.2051761,-0.009459418,0.429803967,0,2,-33,13,3,-8.901641846,4.341884613,0.741005421,0.091263399,0.249408886,-0.917030632,-60,-45,-27,34,170
1695162028211795900,-9.114726067,-1.777694821,-0.672770679,-0.215301678,-0.069546707,0.610998452,-1,2,-25,13,7,-8.960299492,4.648342609,0.709880829,-0.013456355,0.21556814,-0.745695233,-60,-41,-21,31,168
1695162028212795900,-9.124302864,-1.790862918,-0.671573579,-0.215834603,-0.072211333,0.618992329,0,0,-29,14,5,-8.954314232,4.654327869,0.709880829,-0.017852986,0.212903515,-0.732238889,-76,-41,-25,32,169
1695162028213795900,-9.133879662,-1.800439715,-0.671573579,-0.216234297,-0.075275652,0.626852989,-1,0,-31,13,7,-8.948328972,4.655525208,0.70628953,-0.021849923,0.209839195,-0.718249619,-60,-45,-24,32,168
1695162028214795900,-9.13866806,-1.808819413,-0.66917938,-0.216767237,-0.078073502,0.63471365,-1,2,-32,13,7,-8.945934296,4.657919407,0.707486629,-0.025580399,0.206908107,-0.704260349,-60,-45,-28,32,167
1695162028215795900,-9.147047997,-1.81959331,-0.67037648,-0.217166916,-0.081004597,0.642307758,2,5,-29,14,4,-8.944737434,4.659116745,0.703895271,-0.028911179,0.203843787,-0.689871371,-60,-46,-21,31,169
1695162028313735900,-9.325415611,-2.031480074,-0.673967779,-0.223562017,-0.121373661,0.732771814,4,0,-31,13,3,-8.908824921,4.669890404,0.656011283,-0.041434918,0.120174579,-0.360390514,-61,-45,-29,31,176
1695162028314735900,-9.332598686,-2.04584527,-0.672770679,-0.223695248,-0.123105668,0.735036731,-1,2,-33,13,1,-8.904036522,4.669890404,0.661996782,-0.041168455,0.115378261,-0.342137843,-60,-43,-23,31,170
1695162028315735900,-9.342175484,-2.060210466,-0.675164878,-0.22382848,-0.124571204,0.736635566,1,0,-32,13,4,-8.905233383,4.671087742,0.66917938,-0.040635526,0.110448696,-0.323885113,-63,-44,-22,31,170
1695162028316735900,-9.349357605,-2.075772762,-0.671573579,-0.22382848,-0.12616998,0.738234282,0,0,-27,15,5,-8.902838707,4.668693542,0.66917938,-0.040235836,0.105385914,-0.305765688,-60,-41,-25,32,167
1695162028317735900,-9.355342865,-2.087743998,-0.67037648,-0.22382848,-0.127635539,0.739433408,2,1,-31,14,4,-8.896853447,4.665102005,0.666785181,-0.03996937,0.100589581,-0.28777948,-60,-45,-24,33,172
1695162028366705400,-9.41280365,-2.293645144,-0.730231524,-0.230490044,-0.150950998,0.684275687,-1,0,-27,15,14,-8.791508675,4.53342104,0.639251828,-0.055157732,0.009059724,0.036372125,-62,-44,-24,31,168
1695162028367705400,-9.41280365,-2.304419041,-0.736217022,-0.231289431,-0.152016848,0.677081168,-1,5,-31,13,8,-8.792705536,4.523844242,0.641646028,-0.056223582,0.005728943,0.050627869,-59,-43,-28,31,167
1695162028368705400,-9.414001465,-2.316390038,-0.74459672,-0.232088804,-0.152949467,0.669620216,0,1,-32,13,5,-8.791508675,4.510675907,0.639251828,-0.057289433,0.002531394,0.06461715,-60,-44,-33,31,168
1695162028369705400,-9.411606789,-2.324769735,-0.752976418,-0.233154669,-0.153882071,0.661892772,-1,5,-29,13,4,-8.790311813,4.49870491,0.644040287,-0.058355279,-0.000666156,0.078073502,-60,-45,-28,33,167
1695162028370705400,-9.414001465,-2.335543871,-0.752976418,-0.234353751,-0.154415011,0.653898895,0,2,-28,13,7,-8.787917137,4.487931252,0.644040287,-0.059287902,-0.003730475,0.091529861,-59,-40,-27,31,174
1695162028438802800,-9.37449646,-2.458845139,-0.859518409,-0.271791726,-0.153615624,0.443127096,0,0,-29,13,3,-8.757989883,4.268861771,0.560243189,-0.074076563,-0.056756508,0.304966301,-60,-45,-24,31,168
