timestamp,left_data_Ac_X,left_data_Ac_Y,left_data_Ac_Z,left_data_Gy_X,left_data_Gy_Y,left_data_Gy_Z,left_data_flex_1,left_data_flex_2,left_data_flex_3,left_data_flex_4,left_data_flex_5,right_data_Ac_X,right_data_Ac_Y,right_data_Ac_Z,right_data_Gy_X,right_data_Gy_Y,right_data_Gy_Z,right_data_flex_1,right_data_flex_2,right_data_flex_3,right_data_flex_4,right_data_flex_5
1695162085963034300,-9.436745644,-1.563413739,-0.427365005,0.677614093,-0.150950998,0.012390506,-1,0,-17,18,7,-8.63109684,4.010287762,0.490811348,0.120307811,-0.067148544,0.007993874,-69,-48,-21,31,158
1695162085964034300,-9.43914032,-1.52510643,-0.430956304,0.637245059,-0.173999995,-0.007061256,1,-1,-13,12,3,-8.63109684,4.012681961,0.494402647,0.119375192,-0.066215925,0.008660031,-67,-45,-20,32,166
1695162085965034300,-9.437943459,-1.495178938,-0.435744703,0.593678415,-0.197182223,-0.027578866,-1,-1,-19,13,1,-8.628703117,4.01507616,0.501585245,0.118709028,-0.065416537,0.009326187,-66,-44,-19,30,158
1695162085966034300,-9.437943459,-1.472434044,-0.433350503,0.547580421,-0.221030638,-0.048629403,-2,0,-13,14,4,-8.621520042,4.016273499,0.499191046,0.117909648,-0.06461715,0.010392036,-75,-41,-21,31,165
1695162085967034300,-9.436745644,-1.461660147,-0.423773706,0.500150084,-0.245944872,-0.070212863,-2,0,-15,13,4,-8.61912632,4.0114851,0.496796846,0.11711026,-0.064084224,0.011457887,-71,-45,-21,31,162
1695162086034011800,-9.071630478,-2.251746655,0.250194073,-0.100056656,-0.826166868,-0.443260312,2,-2,-17,13,7,-8.611943245,3.968389273,0.538695395,0.117376715,-0.078739658,0.043033689,-64,-44,-21,30,164
1695162086035011800,-9.039308548,-2.290053844,0.286107093,-0.104053594,-0.848283291,-0.454718202,-1,-2,-15,13,3,-8.611943245,3.963600874,0.538695395,0.11817611,-0.08020521,0.044499233,-70,-45,-21,31,162
1695162086036011800,-9.006986618,-2.322375536,0.322020143,-0.106052071,-0.867068946,-0.464444101,1,0,-18,13,1,-8.61314106,3.960009575,0.541089594,0.119108729,-0.081670754,0.045831546,-62,-45,-21,31,161
1695162086037011800,-8.971074104,-2.351106167,0.363918662,-0.106451757,-0.882124007,-0.472038269,-1,0,-17,13,4,-8.61314106,3.954024076,0.537498295,0.120174579,-0.083003066,0.047030624,-71,-47,-19,31,164
1695162086038011800,-8.931569099,-2.370259762,0.396240383,-0.105385914,-0.893581927,-0.477900445,-1,0,-18,12,4,-8.616731644,3.948038578,0.535104096,0.121240422,-0.084068909,0.048362937,-65,-45,-21,31,164
1695162086075972200,-8.70172596,-2.583343744,0.887051702,-0.053692192,-0.636578858,-0.365719765,1,-2,-22,13,4,-8.579621315,3.938461781,0.526724398,0.120574266,-0.084068909,0.053159267,-67,-44,-23,32,165
1695162086076972200,-8.710105896,-2.592920542,0.912190855,-0.045565084,-0.612996936,-0.354261875,8,0,-25,13,3,-8.578424454,3.936067581,0.530315697,0.119108729,-0.083935678,0.053292494,-69,-43,-19,28,164
1695162086077972200,-8.717288017,-2.60010314,0.933738649,-0.037437979,-0.589015305,-0.343070447,2,-4,-21,13,4,-8.577227592,3.934870481,0.535104096,0.117643185,-0.083402753,0.053159267,-65,-49,-21,30,165
1695162086078972200,-8.72806263,-2.60130024,0.949300945,-0.02904441,-0.564367533,-0.332411945,4,1,-24,12,4,-8.582015991,3.934870481,0.536301196,0.116044402,-0.083269522,0.053026035,-66,-44,-19,31,164
1695162086079972200,-8.744821548,-2.591723442,0.956483603,-0.021849923,-0.539852977,-0.321886688,2,0,-24,12,5,-8.585607529,3.933673382,0.539892495,0.114578865,-0.083003066,0.052759573,-71,-45,-23,32,166
1695162086112951000,-9.726444244,-2.135627985,0.903811157,-0.125770286,-0.292975485,-0.215834603,4,0,-33,13,3,-8.597578049,3.912125587,0.51954174,0.105252676,-0.080338441,0.051560488,-69,-47,-24,31,166
1695162086113951000,-9.771934509,-2.148796082,0.876277804,-0.145222053,-0.285381317,-0.212104142,1,0,-28,18,7,-8.596381187,3.909731388,0.518344641,0.105385914,-0.080738127,0.051693719,-71,-48,-25,31,163
1695162086114951000,-9.834183693,-2.105700493,0.873883605,-0.167338446,-0.278186828,-0.206375197,5,0,-26,14,9,-8.597578049,3.909731388,0.517147541,0.105519146,-0.081004597,0.051960181,-69,-49,-21,31,166
1695162086115951000,-9.901221275,-2.063801765,0.873883605,-0.193451747,-0.269526809,-0.202111781,-1,0,-30,13,8,-8.597578049,3.912125587,0.514753342,0.105918832,-0.081271052,0.052226644,-67,-43,-21,31,164
1695162086116951000,-9.956287384,-2.043451071,0.85592711,-0.220098019,-0.260866761,-0.198514536,2,0,-27,12,4,-8.597578049,3.913322687,0.513556242,0.106185302,-0.081537522,0.05249311,-70,-45,-23,31,162
1695162086154926000,-9.734824181,-2.011129379,0.543483794,-0.767411947,-0.020784073,-0.112846859,-1,2,-31,13,4,-8.591592789,3.894169092,0.505176544,0.107384384,-0.074476264,0.049562022,-71,-45,-23,31,164
1695162086155926000,-9.677363396,-2.019509077,0.531512797,-0.790061235,0.000932619,-0.107117914,2,-1,-29,11,7,-8.590395927,3.892971992,0.507570744,0.106984682,-0.073810108,0.049162328,-70,-45,-21,31,165
1695162086156926000,-9.619902611,-2.029085875,0.52073884,-0.811511457,0.02384839,-0.101655439,2,-1,-24,13,4,-8.588001251,3.895366192,0.507570744,0.106451757,-0.07301072,0.048762634,-67,-45,-21,31,164
1695162086157926000,-9.558850288,-2.036268473,0.502782345,-0.830830038,0.047830015,-0.096459419,1,0,-31,12,3,-8.589199066,3.895366192,0.508767843,0.105785601,-0.072211333,0.048362937,-70,-48,-21,30,164
1695162086158926000,-9.502586365,-2.042253971,0.48123455,-0.848683,0.072877489,-0.090863705,-1,-5,-25,12,-1,-8.58680439,3.895366192,0.512359142,0.105252676,-0.071545176,0.047830015,-67,-44,-20,31,164
1695162086200901000,-8.671798706,-2.161964178,0.233434662,-0.878393531,0.582620203,-0.004130168,0,0,-15,13,3,-8.589199066,3.866635799,0.543483794,0.097525269,-0.064483918,0.045565084,-67,-48,-20,31,164
1695162086201901000,-8.645462036,-2.171540976,0.213083953,-0.863871336,0.6056692,0.000799387,0,0,-15,15,4,-8.588001251,3.8642416,0.541089594,0.098191425,-0.064483918,0.045431852,-65,-44,-19,26,164
1695162086202901000,-8.620323181,-2.185906172,0.198718742,-0.847750366,0.626986206,0.005462481,2,0,-16,13,5,-8.590395927,3.8630445,0.536301196,0.098990813,-0.064750381,0.045565084,-70,-43,-17,31,166
1695162086203901000,-8.598775864,-2.197877169,0.18555063,-0.829897404,0.646571219,0.010658499,1,0,-11,13,7,-8.591592789,3.8630445,0.541089594,0.099923424,-0.064750381,0.045698319,-67,-43,-19,31,164
1695162086204901000,-8.58081913,-2.212242365,0.181959331,-0.81031245,0.665090322,0.016387442,-1,0,-16,13,4,-8.591592789,3.859453201,0.536301196,0.100989282,-0.065016843,0.045698319,-69,-48,-20,31,165
1695162086238878800,-8.524555206,-2.37863946,0.187944829,-0.269526809,0.68773967,0.21556814,-1,0,-12,13,1,-8.598775864,3.8642416,0.537498295,0.109382853,-0.059687596,0.040635526,-65,-43,-21,31,163
1695162086239878800,-8.520963669,-2.371456861,0.192733243,-0.237018377,0.672551274,0.230490044,0,0,-12,14,5,-8.593987465,3.8654387,0.541089594,0.108983152,-0.058621746,0.040235836,-67,-44,-21,31,163
1695162086240878800,-8.519766808,-2.360682964,0.196324542,-0.205842257,0.655364454,0.24567841,-1,0,-11,13,3,-8.59278965,3.8654387,0.541089594,0.108450226,-0.05768913,0.03956968,-67,-44,-20,31,166
1695162086241878800,-8.519766808,-2.348711967,0.199915841,-0.17559877,0.637378275,0.260600299,0,0,-15,13,7,-8.59278965,3.8654387,0.541089594,0.10805054,-0.056756508,0.039169986,-71,-45,-16,32,164
1695162086242878800,-8.520963669,-2.329558372,0.201112941,-0.14695406,0.618059695,0.275388956,-1,-5,-11,13,3,-8.589199066,3.8630445,0.541089594,0.107650839,-0.055690661,0.038503829,-66,-45,-20,30,165
1695162086276855400,-8.457517624,-2.302024841,0.37110126,0.159078106,0.151350692,0.518003047,2,0,-9,14,-1,-8.561665535,3.858256102,0.562637389,0.0955268,-0.046098009,0.022382848,-70,-41,-22,31,165
1695162086277855400,-8.459911346,-2.313995838,0.379480958,0.168537512,0.129633993,0.53079325,-1,-3,-10,13,3,-8.561665535,3.858256102,0.562637389,0.094860643,-0.045431852,0.021316998,-70,-49,-28,31,165
1695162086278855400,-8.461109161,-2.318784237,0.381875157,0.174799383,0.115644716,0.539186835,2,0,-8,13,2,-8.56046772,3.860650301,0.561440289,0.093928024,-0.044632465,0.020117918,-69,-46,-23,31,162
1695162086279855400,-8.461109161,-2.323572636,0.393846184,0.183592647,0.095393561,0.55157733,0,0,-13,13,-1,-8.56046772,3.859453201,0.555454791,0.092862174,-0.043833077,0.019052068,-68,-45,-17,31,164
1695162086280855400,-8.462306023,-2.334346771,0.40821138,0.192252681,0.076341502,0.563967824,-1,0,-9,13,3,-8.556877136,3.857059002,0.550666392,0.092062794,-0.042900458,0.017986218,-68,-45,-17,31,165
1695162086313833600,-9.689333916,-2.353500366,0.354341865,0.289111793,-0.179329246,0.712387443,0,-1,-11,13,5,-8.576030731,3.894169092,0.55665189,0.075542115,-0.028511487,-0.009459418,-70,-45,-23,31,165
1695162086314833600,-9.816226959,-2.375048161,0.362721562,0.290444106,-0.190387443,0.719848394,-1,-1,-13,13,4,-8.577227592,3.898957491,0.55784899,0.074343033,-0.027845331,-0.010924961,-69,-47,-25,31,166
1695162086315833600,-9.938331604,-2.406172752,0.367509961,0.292176098,-0.200246558,0.727975488,-1,-1,-10,13,2,-8.577227592,3.906140089,0.561440289,0.073143952,-0.027179174,-0.012124043,-66,-45,-21,32,166
1695162086316833600,-10.04726696,-2.443282843,0.379480958,0.294307798,-0.209306285,0.736901999,-1,0,-12,14,2,-8.579621315,3.912125587,0.560243189,0.071811639,-0.026513018,-0.013323124,-67,-47,-23,31,165
1695162086317833600,-10.14303589,-2.481590033,0.397437483,0.296839207,-0.217566609,0.746228158,-1,-5,-16,13,-2,-8.579621315,3.918111086,0.566228688,0.070612557,-0.025846859,-0.014388974,-70,-45,-23,31,161
1695162086351812500,-9.40083313,-2.705447912,0.143652096,0.353862166,-0.270725876,0.791260302,-1,0,-13,13,3,-8.590395927,4.001908302,0.580593884,0.05489127,-0.024248086,-0.011724349,-67,-44,-20,32,166
1695162086352812500,-9.309853554,-2.669534922,0.093373865,0.344535977,-0.273257256,0.773007691,0,-3,-9,13,3,-8.588001251,4.003105164,0.581790984,0.055157732,-0.024914242,-0.009992342,-67,-41,-19,31,166
1695162086353812500,-9.21528244,-2.627636433,0.047884032,0.332012266,-0.276055127,0.75155741,0,-1,-15,13,2,-8.58680439,4.007893562,0.584185243,0.055557426,-0.025580399,-0.008260337,-69,-47,-19,31,167
1695162086354812500,-9.127894402,-2.583343744,0.008379706,0.317356825,-0.278719753,0.72717613,2,0,-11,13,2,-8.588001251,4.0114851,0.586579442,0.056090351,-0.026646247,-0.006528331,-67,-44,-21,31,164
1695162086355812500,-9.047688484,-2.535459518,-0.029927522,0.300836146,-0.281650841,0.699730456,-1,-1,-11,14,0,-8.589199066,4.01507616,0.588973641,0.056623276,-0.027312404,-0.004663093,-70,-48,-20,31,161
1695162086389790400,-8.823830605,-1.772906303,-0.324414343,-0.254071981,-0.272591114,-0.156013787,-1,0,-9,15,7,-8.571242332,4.003105164,0.55904609,0.07274425,-0.033041347,0.036638591,-68,-43,-20,31,163
1695162086390790400,-8.858546257,-1.754949808,-0.338779539,-0.290177643,-0.271258801,-0.203444093,-1,0,-12,13,3,-8.573636055,4.004302502,0.551863492,0.072611026,-0.032508422,0.038370594,-64,-45,-20,31,165
1695162086391790400,-8.896853447,-1.738190413,-0.350750536,-0.326016843,-0.270192951,-0.249009192,-1,-2,-12,16,0,-8.577227592,4.001908302,0.550666392,0.072344564,-0.031975497,0.039836142,-69,-47,-21,31,166
1695162086392790400,-8.938752174,-1.723825216,-0.363918662,-0.361323118,-0.269660026,-0.292975485,2,0,-11,13,1,-8.58081913,4.001908302,0.548272192,0.071678407,-0.031442571,0.041434918,-69,-45,-19,32,166
1695162086393790400,-8.983044624,-1.713051319,-0.380678058,-0.395430326,-0.269793272,-0.334676892,0,-3,-16,13,0,-8.578424454,4.005499363,0.544680893,0.07087902,-0.030909648,0.042900458,-67,-47,-21,31,167
1695162086426786400,-9.510966301,-1.784877419,-0.626083732,-0.848150074,-0.290843785,-0.688938737,-1,0,-9,13,3,-8.585607529,3.973177671,0.502782345,0.044765696,-0.026779478,0.058488514,-72,-48,-19,31,166
1695162086427786400,-9.494206429,-1.804031014,-0.614112735,-0.858675361,-0.284448713,-0.688938737,-1,-1,-11,13,0,-8.588001251,3.970783472,0.499191046,0.043966308,-0.02691271,0.059554365,-67,-47,-17,28,164
1695162086428786400,-9.467870712,-1.818396211,-0.609324336,-0.867601812,-0.276588053,-0.687339962,0,0,-9,13,2,-8.589199066,3.964797974,0.497993946,0.043300152,-0.027179174,0.060486984,-67,-37,-21,31,166
1695162086429786400,-9.436745644,-1.836352706,-0.600944638,-0.874796331,-0.267128646,-0.684941769,-1,-1,-8,13,1,-8.59278965,3.958812475,0.497993946,0.042900458,-0.027179174,0.061686065,-70,-48,-21,31,162
1695162086430786400,-9.397241592,-1.856703401,-0.591367841,-0.880392075,-0.256336898,-0.681477845,-1,-5,-9,14,3,-8.593987465,3.952826977,0.493205547,0.042633995,-0.027045943,0.062751912,-66,-41,-22,31,166
1695162086466745900,-8.54251194,-2.130839586,-0.397437483,-0.766879022,0.108983152,-0.535589576,-1,0,-13,13,-1,-8.599972725,3.877409697,0.509964943,0.059820827,-0.02904441,0.084468603,-66,-46,-20,31,164
1695162086467745900,-8.51617527,-2.142810583,-0.386663586,-0.75262332,0.127502292,-0.527462482,-2,-2,-7,13,0,-8.601169586,3.872621298,0.509964943,0.060886677,-0.029577335,0.085667685,-66,-41,-23,31,166
1695162086468745900,-8.495824814,-2.152387381,-0.374692559,-0.737967849,0.144689128,-0.519335389,-1,-2,-9,15,1,-8.602366447,3.869029999,0.507570744,0.062218986,-0.03011026,0.086733535,-62,-47,-22,30,165
1695162086469745900,-8.480262756,-2.159569979,-0.36990416,-0.727575779,0.155614093,-0.514272571,-2,-5,-11,13,5,-8.604761124,3.867832899,0.513556242,0.063284837,-0.030643184,0.087799385,-66,-43,-23,31,164
1695162086470745900,-8.463502884,-2.166752577,-0.349553436,-0.711721301,0.171068922,-0.506944835,-1,0,-9,14,3,-8.605957985,3.866635799,0.518344641,0.064350687,-0.031042879,0.088865243,-66,-43,-20,31,164
1695162086515742300,-8.54251194,-2.075772762,-0.034715924,-0.367851466,0.208373666,-0.375712097,-2,-1,-11,13,1,-8.61912632,3.787626982,0.537498295,0.067681469,-0.026779478,0.08833231,-70,-44,-23,31,166
1695162086516742300,-8.552088737,-2.061407566,-0.008379706,-0.351996928,0.197315469,-0.364787132,-1,-3,-9,14,1,-8.620323181,3.782838583,0.532709897,0.067148544,-0.026779478,0.087133229,-65,-45,-19,30,164
1695162086517742300,-8.558073997,-2.051830769,0.015562311,-0.336275637,0.185324654,-0.353595704,-4,-4,-10,13,3,-8.621520042,3.781641483,0.530315697,0.06674885,-0.02691271,0.085800916,-67,-41,-21,32,166
1695162086518742300,-8.562862396,-2.035071373,0.04070143,-0.321353763,0.172800913,-0.342137843,2,-2,-9,16,2,-8.62511158,3.778050184,0.529118598,0.066482387,-0.02691271,0.084468603,-67,-45,-23,31,165
1695162086519742300,-8.567650795,-2.017114878,0.059855044,-0.306831539,0.160010725,-0.330413461,-1,-1,-9,13,3,-8.62511158,3.773261786,0.532709897,0.065949462,-0.027045943,0.083003066,-66,-45,-20,31,166
1695162086560693200,-8.676587105,-1.964442492,0.322020143,-0.109649308,0.071278714,-0.076208271,0,-6,-11,14,3,-8.640673637,3.75769949,0.542286694,0.058222052,-0.019584993,0.043166921,-70,-47,-20,31,166
1695162086561693200,-8.6957407,-1.964442492,0.328005642,-0.100722812,0.078606427,-0.060486984,-1,-2,-11,13,4,-8.637083054,3.75650239,0.541089594,0.05768913,-0.018652374,0.041168455,-64,-43,-21,31,165
1695162086562693200,-8.716091156,-1.96923089,0.331596941,-0.092595711,0.086999997,-0.045298621,-1,-6,-13,13,0,-8.63109684,3.75769949,0.544680893,0.057156201,-0.018119449,0.039303213,-62,-45,-17,31,166
1695162086563693200,-8.730456352,-1.981201887,0.331596941,-0.084468603,0.096326187,-0.030509954,-1,0,-11,16,3,-8.626308441,3.75650239,0.547075093,0.056756508,-0.017320061,0.03757121,-66,-45,-23,31,164
1695162086564693200,-8.754398346,-1.989581585,0.341173738,-0.076607957,0.105918832,-0.015321592,-1,-6,-11,12,0,-8.617929459,3.758896589,0.543483794,0.056356817,-0.016653905,0.036105666,-67,-42,-20,30,166
1695162086603670300,-9.344569206,-2.292448044,0.426167905,0.056623276,0.301901996,0.212903515,-2,-1,-13,13,1,-8.517372131,3.706224203,0.465672225,0.064084224,-0.028111791,0.014788668,-67,-45,-20,31,164
1695162086604670300,-9.375694275,-2.313995838,0.429759204,0.065683,0.309496164,0.22183001,-1,-1,-13,13,2,-8.51617527,3.705027103,0.464475125,0.064883612,-0.028511487,0.012257273,-67,-47,-19,32,167
1695162086605670300,-9.404424667,-2.328361034,0.435744703,0.075275652,0.316290945,0.230490044,-2,-1,-16,16,3,-8.519766808,3.707421303,0.458489627,0.065416537,-0.028378254,0.009592649,-62,-45,-19,30,165
1695162086606670300,-9.434351921,-2.342726469,0.441730201,0.085267991,0.322286367,0.238750383,2,0,-9,14,3,-8.518569946,3.711012602,0.453701228,0.065816231,-0.027845331,0.0063951,-69,-45,-23,31,165
1695162086607670300,-9.466673851,-2.352303267,0.44532153,0.095393561,0.327748835,0.246477783,-1,-4,-13,13,0,-8.514978409,3.714603901,0.448912829,0.065816231,-0.027045943,0.002931087,-65,-40,-19,32,166
1695162086656638600,-9.731232643,-2.284068346,0.260968,0.228091896,0.300836146,0.260733545,-1,-1,-15,12,1,-8.58680439,3.925293684,0.383072257,-0.014122511,0.030243492,-0.086333841,-66,-45,-18,31,165
1695162086657638600,-9.728838921,-2.276885748,0.237025961,0.229424208,0.291643173,0.25553751,-1,0,-10,14,3,-8.591592789,3.934870481,0.385466486,-0.019318528,0.032774884,-0.089264929,-66,-48,-25,30,166
1695162086658638600,-9.722852707,-2.270900249,0.214281052,0.230623275,0.281517595,0.249808565,-1,0,-17,13,5,-8.596381187,3.946841478,0.385466486,-0.024114855,0.035173047,-0.091529861,-63,-45,-19,31,166
1695162086659638600,-9.712079048,-2.262520552,0.197521642,0.231555894,0.270725876,0.243813157,-1,-2,-11,13,0,-8.604761124,3.961206675,0.391451985,-0.028111791,0.037304748,-0.093661562,-65,-44,-19,31,164
1695162086660638600,-9.701305389,-2.258929253,0.18674773,0.232621744,0.259267986,0.237551302,-1,-3,-13,13,4,-8.605957985,3.970783472,0.393846184,-0.031709034,0.039303213,-0.095260337,-67,-44,-19,32,165
1695162086697614000,-9.186552048,-2.110488892,-0.074220255,0.270859122,0.043033689,0.114045948,-1,0,-8,16,2,-8.690952301,4.110844135,0.48123455,0.000266462,0.044898927,-0.041701376,-66,-43,-20,31,166
1695162086698614000,-9.149441719,-2.094926596,-0.090979666,0.271525264,0.036372125,0.108983152,-2,-3,-13,15,1,-8.694543839,4.119224072,0.490811348,0.0042634,0.043966308,-0.036372125,-67,-44,-20,31,165
1695162086699614000,-9.111134529,-2.074575663,-0.10175357,0.27165848,0.030243492,0.104186833,-1,-1,-11,15,3,-8.699332237,4.127603531,0.497993946,0.007993874,0.043166921,-0.030909648,-65,-41,-19,31,165
1695162086700614000,-9.075222015,-2.059013367,-0.112527482,0.271125585,0.025047474,0.099923424,-1,0,-8,16,4,-8.702922821,4.133589268,0.507570744,0.011591119,0.042500768,-0.025447167,-67,-44,-19,31,167
1695162086701614000,-9.039308548,-2.042253971,-0.125695586,0.269926488,0.020251149,0.095793262,-1,-1,-10,14,4,-8.702922821,4.139574528,0.52073884,0.014921899,0.041434918,-0.019851454,-66,-45,-20,32,165
1695162086737594200,-8.732851028,-1.794454217,-0.386663586,0.156280249,0.008260337,0.044898927,-8,0,-11,13,-2,-8.724471092,4.135983467,0.699106872,0.017053599,0.016653905,0.061552834,-65,-45,-20,31,165
1695162086738594200,-8.752004623,-1.78368032,-0.402225882,0.14695406,0.007727412,0.042367533,-1,-2,-11,12,3,-8.722076416,4.131195068,0.707486629,0.015321592,0.01505513,0.064084224,-67,-45,-20,31,159
1695162086739594200,-8.771158218,-1.775300503,-0.418985307,0.137361407,0.006794794,0.039836142,1,0,-12,14,3,-8.719682693,4.12401247,0.712275028,0.013456355,0.013189893,0.066349156,-65,-38,-21,31,168
1695162086740594200,-8.799888611,-1.764526606,-0.432153404,0.127502292,0.005728943,0.037038282,-3,-1,-6,13,-2,-8.718485832,4.120420933,0.715866327,0.011724349,0.011457887,0.068614088,-66,-44,-22,31,166
1695162086741594200,-8.826224327,-1.752555609,-0.448912829,0.117509954,0.004396631,0.034240428,2,0,-8,15,2,-8.719682693,4.115632534,0.724246025,0.009859112,0.010125575,0.070745789,-70,-43,-18,28,164
1695162086773594700,-9.878476143,-1.55862534,-0.761356115,-0.123105668,-0.072611026,-0.011058193,-1,0,-12,15,1,-8.693346024,3.969586372,0.720654726,-0.003064318,-0.037304748,0.104186833,-66,-44,-17,32,161
1695162086774594700,-9.911994934,-1.557428241,-0.772130072,-0.138427258,-0.075675346,-0.011591119,0,-1,-10,16,2,-8.698134422,3.964797974,0.718260527,-0.001332312,-0.03996937,0.105252676,-74,-44,-20,33,166
1695162086775594700,-9.940725327,-1.55982244,-0.784101069,-0.153615624,-0.07820674,-0.01185758,-2,0,-11,16,3,-8.70172596,3.960009575,0.714669228,0.000399694,-0.042500768,0.106052071,-67,-45,-20,31,165
1695162086776594700,-9.962273598,-1.56221664,-0.792480767,-0.168937206,-0.079805516,-0.01185758,-1,0,-12,13,3,-8.70172596,3.955221176,0.699106872,0.001865237,-0.045032158,0.106584989,-66,-41,-20,32,166
1695162086777594700,-9.971850395,-1.564610839,-0.797269166,-0.179062784,-0.080604896,-0.011724349,-1,-1,-11,14,1,-8.70172596,3.948038578,0.689530075,0.00319755,-0.04769678,0.106851459,-65,-41,-19,36,164
1695162086806574400,-9.369708061,-1.657984734,-0.949300945,-0.416480839,0.002931087,-0.036905054,-1,0,-9,18,5,-8.687360764,3.896563292,0.597353339,-0.000666156,-0.071678407,0.099923424,-70,-47,-22,31,161
1695162086807574400,-9.329007149,-1.659181833,-0.944512546,-0.425940275,0.011457887,-0.040502299,-1,1,-8,14,0,-8.687360764,3.892971992,0.588973641,-0.001998469,-0.072211333,0.099390499,-66,-43,-19,31,164
1695162086808574400,-9.295488358,-1.661576033,-0.939724147,-0.435133219,0.020251149,-0.044232771,-3,0,-8,13,0,-8.687360764,3.886986494,0.579396784,-0.003330781,-0.07274425,0.099124044,-66,-44,-18,31,165
1695162086809574400,-9.257181168,-1.662773132,-0.940921247,-0.44405973,0.02917764,-0.047830015,-1,0,-10,13,5,-8.68975544,3.881000996,0.572214186,-0.004396631,-0.073143952,0.098857582,-65,-44,-19,32,166
1695162086810574400,-9.222464561,-1.665167332,-0.934935749,-0.452453285,0.038370594,-0.05142726,-1,-4,-15,13,2,-8.683769226,3.872621298,0.568622887,-0.005196018,-0.073676877,0.098457888,-65,-45,-18,31,167
1695162086843554900,-8.617929459,-1.849520802,-0.717063427,-0.460313946,0.163341507,-0.033041347,-2,-1,-11,13,1,-8.645462036,3.772064686,0.453701228,0.012523737,-0.08233691,0.0955268,-66,-47,-23,31,161
1695162086844554900,-8.599972725,-1.862688899,-0.713472128,-0.449655443,0.163341507,-0.027045943,-1,0,-9,14,4,-8.644265175,3.772064686,0.44532153,0.013323124,-0.08233691,0.094860643,-64,-44,-17,31,166
1695162086845554900,-8.585607529,-1.874659896,-0.707486629,-0.437931061,0.162408888,-0.020917306,0,0,-10,13,4,-8.645462036,3.768473387,0.438138902,0.013722817,-0.08233691,0.094327718,-65,-41,-19,31,164
1695162086846554900,-8.574832916,-1.885433793,-0.702698171,-0.425140887,0.160543635,-0.014522205,-1,0,-8,13,2,-8.644265175,3.767276287,0.434547603,0.01398928,-0.08207044,0.09352833,-67,-44,-20,32,160
1695162086847554900,-8.565256119,-1.89620769,-0.700303972,-0.411284834,0.157745793,-0.007993874,-1,-2,-8,13,0,-8.641871452,3.764882088,0.429759204,0.01398928,-0.081937209,0.092862174,-67,-48,-21,32,164
1695162087199082100,-9.240421295,-1.335964561,-0.772130072,0.194517612,0.378509969,-0.189321592,-1,0,-8,13,2,-8.664615631,3.760093689,0.536301196,0.122972436,-0.102188364,0.09659265,-67,-44,-19,31,166
1695162087200082100,-9.241618156,-1.341950059,-0.757764816,0.191053599,0.37451303,-0.17866309,-1,-1,-9,16,2,-8.66341877,3.752911091,0.531512797,0.124038287,-0.102454826,0.097258806,-63,-45,-15,33,168
1695162087201082100,-9.238027573,-1.347935557,-0.745793819,0.187589586,0.370116383,-0.168404296,0,0,-6,13,0,-8.658630371,3.750516891,0.530315697,0.124837674,-0.102454826,0.0976585,-64,-39,-19,31,167
1695162087202082100,-9.232041359,-1.353921056,-0.733822823,0.183992341,0.365586549,-0.158545166,-1,-1,-8,13,1,-8.655038834,3.744531393,0.529118598,0.125903517,-0.102321595,0.098058186,-64,-39,-19,31,166
1695162087203082100,-9.229647636,-1.357512355,-0.725443125,0.180395097,0.360523731,-0.148819283,-1,0,-5,14,4,-8.646659851,3.736151695,0.526724398,0.126836136,-0.102321595,0.098457888,-67,-44,-25,32,168
1695162087248056500,-9.046490669,-1.44849205,-0.508767843,0.077807046,0.252206743,-0.026246555,-3,-1,-10,16,1,-8.573636055,3.64038372,0.415394008,0.142290965,-0.10805054,0.100989282,-62,-42,-20,33,166
1695162087249056500,-9.036913872,-1.455674648,-0.492008448,0.070745789,0.247543648,-0.02051761,-1,0,-6,13,1,-8.573636055,3.632004023,0.40940848,0.143090352,-0.108450226,0.100722812,-63,-40,-18,32,167
1695162087250056500,-9.026140213,-1.467645645,-0.476446152,0.063817769,0.243280247,-0.014655436,-1,-1,-6,13,1,-8.572439194,3.626018524,0.402225882,0.144022971,-0.108583458,0.100456357,-63,-44,-19,34,167
1695162087251056500,-9.021351814,-1.477222443,-0.460883826,0.057289433,0.23941654,-0.008793262,0,0,-8,13,3,-8.568847656,3.616441727,0.392649084,0.145222053,-0.109116383,0.100056656,-65,-41,-16,34,167
1695162087252056500,-9.016563416,-1.48679924,-0.450109929,0.050761104,0.235686064,-0.002664625,-1,0,-7,13,4,-8.568847656,3.611653328,0.379480958,0.146287903,-0.109516084,0.099390499,-65,-44,-21,31,168
1695162087289032400,-9.064447403,-1.751358509,-0.246602774,0.04276723,0.187589586,0.153082699,-1,0,-9,12,3,-8.555679321,3.574543238,0.272938997,0.170535982,-0.086333841,0.068214394,-63,-47,-21,31,166
1695162087290032400,-9.065644264,-1.764526606,-0.245405674,0.050094947,0.18385911,0.163607955,0,0,-11,13,3,-8.55448246,3.575740337,0.268150598,0.170269519,-0.083935678,0.065949462,-65,-41,-18,31,167
1695162087291032400,-9.06803894,-1.78248322,-0.240617275,0.05808882,0.17972894,0.174266458,-1,0,-6,14,4,-8.556877136,3.576937437,0.271741897,0.170003071,-0.081803977,0.063684531,-63,-40,-17,32,152
1695162087292032400,-9.066842079,-1.795651317,-0.237025961,0.06674885,0.175332308,0.185191423,-1,0,-7,14,1,-8.558073997,3.579331636,0.274136096,0.169603363,-0.079405814,0.061286367,-65,-40,-18,33,164
1695162087293032400,-9.066842079,-1.807622313,-0.237025961,0.076075032,0.170802444,0.196116373,-4,-1,-7,13,4,-8.555679321,3.579331636,0.270544797,0.168803975,-0.07714089,0.058888208,-65,-39,-15,33,167
1695162087329032500,-9.226056099,-1.911770105,-0.215478152,0.272457898,0.043833077,0.402758032,-1,0,-8,14,4,-8.58081913,3.628412724,0.278924495,0.144555897,-0.028777948,0.014655436,-64,-41,-15,34,167
1695162087330032500,-9.235632896,-1.915361404,-0.216675252,0.28205052,0.035572741,0.413682997,-1,-1,-7,14,3,-8.585607529,3.632004023,0.277727395,0.142957121,-0.02571363,0.012390506,-66,-43,-19,34,167
1695162087331032500,-9.245209694,-1.920149803,-0.214281052,0.291509956,0.027179174,0.424607962,-1,0,-8,14,3,-8.584410667,3.634398222,0.283712894,0.141225114,-0.022782542,0.010392036,-67,-43,-17,34,166
1695162087332032500,-9.249998093,-1.922544003,-0.216675252,0.300569683,0.018918836,0.435532928,-1,0,-7,16,3,-8.588001251,3.64277792,0.282515794,0.139493108,-0.019851454,0.008260337,-63,-41,-18,31,166
1695162087333032500,-9.255983353,-1.924938202,-0.216675252,0.309496164,0.01079173,0.446058184,-1,0,-9,13,3,-8.58680439,3.646369219,0.286107093,0.13762787,-0.017053599,0.006128637,-65,-43,-17,33,167
1695162087363991100,-9.284713745,-1.895010591,-0.304063618,0.38956812,-0.121240422,0.575692177,-2,-3,-7,15,-1,-8.626308441,3.706224203,0.392649084,0.116710559,0.018918836,-0.018519141,-60,-45,-24,32,172
1695162087364991100,-9.278728485,-1.893813491,-0.317231715,0.386903495,-0.127635539,0.578490078,-1,-1,-9,13,0,-8.633491516,3.709815502,0.401028782,0.116977029,0.019584993,-0.019185297,-63,-39,-19,33,167
1695162087365991100,-9.272743225,-1.887827992,-0.328005642,0.383306265,-0.133897394,0.580621719,-1,-2,-11,13,2,-8.635885239,3.711012602,0.405817181,0.117509954,0.020117918,-0.019718224,-66,-39,-18,31,167
1695162087366991100,-9.270348549,-1.881842494,-0.339976639,0.378909618,-0.140159264,0.582220554,-4,-1,-8,13,0,-8.637083054,3.713406801,0.415394008,0.118042871,0.020650841,-0.020251149,-66,-45,-15,33,166
1695162087367991100,-9.261969566,-1.874659896,-0.347159237,0.37344715,-0.146154657,0.583419621,-1,-1,-8,13,4,-8.641871452,3.715801001,0.424970806,0.118709028,0.020917306,-0.020917306,-63,-39,-21,32,165
1695162087401967000,-9.198522568,-1.795651317,-0.580593884,0.131765693,-0.241415009,0.520401239,1,-1,-8,13,1,-8.698134422,3.797203779,0.525527298,0.127768755,0.01292343,-0.020117918,-66,-44,-20,34,165
1695162087402967000,-9.203310966,-1.794454217,-0.59495914,0.114712104,-0.246211335,0.513606429,-3,-1,-7,13,0,-8.698134422,3.798400879,0.533906996,0.128434911,0.012124043,-0.019584993,-65,-43,-14,32,168
1695162087403967000,-9.210494041,-1.795651317,-0.614112735,0.0976585,-0.251274139,0.506278694,-3,-1,-8,13,-1,-8.6957407,3.799597979,0.543483794,0.128967836,0.011191424,-0.018918836,-63,-41,-19,31,167
1695162087404967000,-9.217676163,-1.799242616,-0.63326633,0.080471672,-0.256070435,0.498684525,-3,-5,-8,13,4,-8.693346024,3.800795317,0.541089594,0.129633993,0.010258805,-0.018519141,-62,-41,-19,42,166
1695162087405967000,-9.22725296,-1.802833915,-0.656011283,0.063418068,-0.260600299,0.490957111,-1,0,-10,13,1,-8.690952301,3.798400879,0.544680893,0.130166918,0.009192956,-0.017719755,-61,-47,-19,34,166
1695162087443945500,-9.203310966,-1.941697598,-0.954089403,-0.196649313,-0.342404276,0.335076571,-2,-4,-9,12,1,-8.684967041,3.845088005,0.620098233,0.138294026,-0.0042634,-0.021716693,-66,-37,-19,31,168
1695162087444945500,-9.190143585,-1.951274395,-0.973242998,-0.204909652,-0.346001506,0.328015327,-1,-3,-11,13,1,-8.680178642,3.849876404,0.621295333,0.136828482,-0.004396631,-0.023315467,-62,-42,-19,32,166
1695162087445945500,-9.17697525,-1.962048292,-0.992396593,-0.212637067,-0.349199086,0.321087271,-2,-1,-11,13,-1,-8.678980827,3.853467703,0.623689532,0.135096475,-0.004396631,-0.025047474,-63,-40,-17,32,167
1695162087446945500,-9.159018517,-1.97042799,-1.012747288,-0.219831541,-0.351863712,0.31429249,-1,-2,-8,12,4,-8.677783966,3.859453201,0.627280831,0.132698312,-0.004396631,-0.026779478,-65,-39,-15,31,167
1695162087447945500,-9.142259598,-1.976413488,-1.029506683,-0.226626337,-0.354261875,0.307630926,-1,-3,-6,14,1,-8.677783966,3.867832899,0.638054729,0.130300149,-0.0042634,-0.028644716,-61,-41,-18,33,167
1695162087487917900,-9.047688484,-2.085349798,-1.233013868,-0.262598753,-0.29710567,0.189588055,-2,-3,-8,12,1,-8.66940403,3.992331266,0.665588081,0.072078094,-0.013589587,-0.055823889,-63,-40,-21,31,164
1695162087488917900,-9.052476883,-2.099714994,-1.235408068,-0.257535994,-0.28777948,0.185591117,-1,-1,-8,13,0,-8.672995567,3.998316765,0.663193882,0.070745789,-0.015454824,-0.055557426,-62,-39,-16,32,166
1695162087489917900,-9.059659004,-2.114080191,-1.235408068,-0.251407355,-0.278186828,0.181993872,-2,-1,-11,15,1,-8.676587105,4.004302502,0.659602582,0.06981317,-0.017586524,-0.05489127,-64,-39,-17,32,168
1695162087490917900,-9.069235802,-2.130839586,-1.240196466,-0.244479313,-0.26806125,0.179062784,-1,0,-7,15,4,-8.672995567,4.010287762,0.653617084,0.069013782,-0.019584993,-0.054091886,-64,-48,-20,40,167
1695162087491917900,-9.077615738,-2.151190281,-1.240196466,-0.236618683,-0.25766921,0.176531389,-1,1,-6,14,5,-8.670601845,4.01507616,0.652419984,0.068747319,-0.021050537,-0.053292494,-65,-43,-17,33,165
1695162087529918300,-9.069235802,-1.780089021,-0.697909772,-0.120707504,-0.007327718,-0.029843798,-2,0,-6,13,4,-8.682572365,4.147954464,0.580593884,0.064217456,-0.055823889,-0.004663093,-65,-43,-18,33,166
1695162087530918300,-9.075222015,-1.780089021,-0.702698171,-0.122972436,-0.008660031,-0.02904441,-1,-1,-6,15,3,-8.682572365,4.151545525,0.577002585,0.062885143,-0.056490045,-0.001199081,-65,-48,-20,31,166
1695162087531918300,-9.077615738,-1.784877419,-0.703895271,-0.125104129,-0.009725881,-0.028111791,-1,0,-8,14,4,-8.683769226,4.155137062,0.565031588,0.061286367,-0.057289433,0.002264931,-62,-40,-17,32,167
1695162087532918300,-9.080010414,-1.784877419,-0.703895271,-0.127102599,-0.010924961,-0.027312404,-1,-1,-6,14,0,-8.682572365,4.161122322,0.55665189,0.059421133,-0.057955589,0.005862175,-66,-40,-19,34,167
1695162087533918300,-9.080010414,-1.784877419,-0.701501071,-0.129234299,-0.011990812,-0.026246555,-2,0,-7,13,3,-8.682572365,4.165910721,0.550666392,0.057822358,-0.058488514,0.009459418,-65,-37,-21,28,169
1695162087566896300,-9.091980934,-1.823184609,-0.878672004,-0.103387438,-0.053425729,0.088199086,-1,0,-6,13,1,-8.579621315,3.468001127,0.122104287,0.000133231,-0.003996937,0.206641659,-66,-41,-12,32,167
1695162087567896300,-9.091980934,-1.833958507,-0.889445961,-0.103254206,-0.052359879,0.088732004,-1,0,-8,13,1,-8.579621315,3.460818529,0.125695586,0.001199081,-0.002664625,0.20157887,-65,-41,-17,34,167
1695162087568896300,-9.096769333,-1.844732404,-0.895431459,-0.103120975,-0.051160797,0.088865243,-1,0,-7,13,-1,-8.58081913,3.454833031,0.128089786,0.001865237,-0.001598775,0.196116373,-62,-40,-17,37,166
1695162087569896300,-9.096769333,-1.855506301,-0.899022758,-0.102987751,-0.050094947,0.088732004,-1,0,-6,16,1,-8.583212852,3.448847532,0.137666598,0.002664625,0.0,0.190520674,-62,-47,-16,33,167
1695162087570896300,-9.101557732,-1.865083098,-0.907402456,-0.10258805,-0.048895866,0.08833231,-1,0,-6,13,1,-8.582015991,3.447650433,0.142454997,0.003064318,0.000932619,0.186656967,-64,-44,-16,31,168
1695162087610847000,-9.093177795,-1.831564307,-0.560243189,-0.176931083,0.026646247,0.115777947,-2,-1,-9,14,3,-8.591592789,3.584120035,0.386663586,0.07194487,-0.02051761,-0.11191424,-64,-41,-19,32,167
1695162087611847000,-9.097966194,-1.842338204,-0.551863492,-0.17453292,0.026513018,0.118442573,-1,-1,-8,13,3,-8.595184326,3.582922935,0.386663586,0.072611026,-0.020650841,-0.114578865,-63,-41,-19,36,167
1695162087612847000,-9.102754593,-1.853112102,-0.553060591,-0.171868294,0.026246555,0.120707504,-3,0,-8,13,1,-8.599972725,3.587711334,0.389057785,0.073943339,-0.020784073,-0.11711026,-68,-44,-20,40,168
1695162087613847000,-9.105149269,-1.8579005,-0.547075093,-0.169336915,0.025846859,0.123238891,-1,0,-7,13,1,-8.601169586,3.593696833,0.395043284,0.075808577,-0.021183766,-0.119508423,-65,-47,-18,34,167
1695162087614847000,-9.107542992,-1.867477298,-0.543483794,-0.166805506,0.025313934,0.125770286,-1,-3,-6,14,3,-8.604761124,3.597288132,0.395043284,0.07820674,-0.02158346,-0.121373661,-63,-40,-17,36,166
1695162087656844500,-9.097966194,-1.903390408,-0.81881696,0.011990812,0.019984685,0.011990812,-8,-7,-13,12,-3,-8.508993149,3.245340347,0.047884032,-0.851214409,-0.2290245,-0.089264929,-64,-36,-15,34,167
1695162087657844500,-9.096769333,-1.902193308,-0.810437262,0.016387442,0.021983154,0.013456355,-6,-6,-11,9,-3,-8.517372131,3.229778051,0.02873042,-0.841088772,-0.226626337,-0.096859112,-63,-43,-15,33,167
1695162087658844500,-9.091980934,-1.902193308,-0.800860465,0.02051761,0.023715161,0.014921899,-8,-8,-16,6,-5,-8.526948929,3.210624456,0.01316811,-0.828831494,-0.224094957,-0.103653908,-63,-40,-17,33,166
1695162087659844500,-9.087192535,-1.899798989,-0.796072066,0.024514547,0.025447167,0.016520673,-6,-9,-13,8,-2,-8.537723541,3.19625926,-0.001197101,-0.814842284,-0.220897391,-0.109915771,-67,-40,-15,34,167
1695162087660844500,-9.084798813,-1.89620769,-0.798466265,0.028378254,0.026779478,0.017852986,-8,-10,-12,7,-4,-8.546102524,3.184288263,-0.017956512,-0.799254179,-0.217566609,-0.115777947,-64,-41,-15,32,166
1695162087692823400,-9.789890289,0.402225882,0.769735873,1.038937211,0.276588053,-1.86790204,-3,-2,-21,8,1,-8.969876289,3.82473731,0.007182605,0.32934764,-0.176398173,0.110182241,-76,-53,-30,20,155
1695162087693823400,-9.806650162,0.451307029,0.748188019,0.865470171,0.289245039,-2.045099497,-6,-6,-20,10,-2,-8.996212959,3.828328609,-0.033518825,0.33973965,-0.181460962,0.112447165,-76,-53,-29,25,156
1695162087694823400,-9.827000618,0.48243165,0.727837324,0.694001555,0.298970878,-2.215901852,-7,-6,-22,13,-1,-9.022548676,3.831919909,-0.06584055,0.349598765,-0.186124057,0.114045948,-76,-53,-32,22,153
1695162087695823400,-9.848548889,0.500388145,0.70628953,0.524531364,0.306698322,-2.379509926,-6,-4,-21,12,-2,-9.046490669,3.835511208,-0.099359371,0.359324634,-0.190520674,0.115111791,-76,-55,-29,20,154
1695162087696823400,-9.866505623,0.502782345,0.679953277,0.357859105,0.313093394,-2.536189795,-1,-5,-20,8,0,-9.072827339,3.837905407,-0.129286885,0.368917316,-0.194517612,0.115777947,-76,-55,-32,22,153
1695162087729779400,-9.364919662,-2.054224968,-0.665588081,-0.87626189,0.127768755,-0.401958644,-1,0,-8,13,3,-8.710105896,3.8630445,0.396240383,0.009459418,-0.01825268,-0.110049009,-76,-54,-30,21,151
1695162087730779400,-9.340977669,-2.057816267,-0.646434486,-0.880791724,0.136295557,-0.411018372,3,6,-3,23,14,-8.710105896,3.861847401,0.393846184,0.012523737,-0.02158346,-0.107650839,-77,-56,-32,18,152
1695162087731779400,-9.317035675,-2.060210466,-0.626083732,-0.885854542,0.143756509,-0.420477778,8,6,-4,23,11,-8.714894295,3.861847401,0.393846184,0.015454824,-0.024781011,-0.105119444,-76,-56,-33,20,151
1695162087732779400,-9.295488358,-2.053027868,-0.610521436,-0.890784025,0.150418073,-0.430336893,1,2,-6,20,11,-8.714894295,3.8642416,0.391451985,0.018519141,-0.02797856,-0.102721281,-76,-53,-32,22,153
1695162087733779400,-9.278728485,-2.050633669,-0.588973641,-0.896246552,0.156147003,-0.440196037,2,5,-6,21,13,-8.713697433,3.8654387,0.386663586,0.021450229,-0.030909648,-0.100323126,-76,-59,-32,20,152
1695162087768761600,-9.102754593,-2.136825085,-0.745793819,-0.080071971,0.000133231,0.311894357,-6,-3,-15,13,4,-8.646659851,3.810372114,0.454898328,0.057955589,-0.053026035,0.033707503,-76,-56,-31,20,151
1695162087769761600,-9.107542992,-2.141613483,-0.74220252,-0.079672284,0.0,0.309762627,-3,-3,-15,11,-2,-8.646659851,3.815160513,0.448912829,0.058355279,-0.053425729,0.03437366,-77,-54,-33,20,151
1695162087770761600,-9.114726067,-2.151190281,-0.74220252,-0.079272583,-0.000266462,0.307364464,-3,-5,-11,10,-2,-8.644265175,3.813963413,0.441730201,0.058888208,-0.053825419,0.035039816,-76,-55,-33,17,151
1695162087771761600,-9.118317604,-2.15358448,-0.74459672,-0.079405814,-0.000399694,0.304833084,-6,-6,-16,13,-1,-8.645462036,3.813963413,0.435744703,0.059554365,-0.054225113,0.035705972,-76,-56,-34,18,153
1695162087772761600,-9.120711327,-2.15597868,-0.749385118,-0.079539053,-0.000932619,0.302035213,-7,-8,-15,12,-2,-8.641871452,3.816357613,0.423773706,0.06008729,-0.054758042,0.03650536,-76,-57,-32,22,151
1695162087807736900,-9.047688484,-1.885433793,-0.940921247,-0.071278714,0.001598775,0.002531394,-6,-3,-14,13,-2,2.481590033,0.009576807,2.334346771,0.109382853,1.953569651,3.14558959,-75,-51,-64,-2,155
1695162087808736900,-9.048885345,-1.885433793,-0.945709646,-0.071678407,0.001465544,0.003064318,-4,-4,-12,11,-1,2.536656618,-0.049081136,2.412158251,0.12936753,1.943177581,3.0879004,-75,-48,-63,-4,154
1695162087809736900,-9.052476883,-1.887827992,-0.949300945,-0.071811639,0.00106585,0.003464012,-3,-6,-16,11,-2,2.588132143,-0.104147777,2.481590033,0.149352223,1.932252645,3.031010628,-76,-51,-65,-7,156
1695162087810736900,-9.054870605,-1.885433793,-0.951695204,-0.071678407,0.000932619,0.003863706,-6,-1,-12,12,1,2.640804529,-0.160411507,2.548627615,0.168537512,1.919995427,2.975186825,-76,-51,-64,-3,152
1695162087811736900,-9.054870605,-1.885433793,-0.952892303,-0.071811639,0.000666156,0.004396631,-3,-5,-11,11,-1,2.694674015,-0.222660765,2.612074137,0.186790213,1.906539083,2.919895887,-77,-52,-66,-4,154
1695162087843714000,-9.047688484,-2.110488892,-0.900219858,0.024381317,0.007727412,-0.01385605,-1,0,-5,19,8,3.810372114,-0.956483603,4.554968834,0.502015293,1.701229692,2.022583485,-78,-50,-65,-4,157
1695162087844714000,-9.048885345,-2.114080191,-0.897825658,0.027179174,0.007594181,-0.01385605,0,1,-9,20,7,3.830722809,-0.976834297,4.703409195,0.513473213,1.692436457,1.976352215,-75,-49,-65,-6,156
1695162087845714000,-9.046490669,-2.118868589,-0.897825658,0.029843798,0.007460949,-0.01398928,-1,3,-6,16,9,3.843890905,-0.998382092,4.856637955,0.523332298,1.681911111,1.929987788,-76,-54,-66,-12,154
1695162087846714000,-9.047688484,-2.122459888,-0.89184016,0.032641653,0.007460949,-0.014788668,0,1,-6,18,9,3.855861902,-1.015141487,5.011064053,0.531592667,1.670186758,1.883756518,-76,-49,-61,-10,152
1695162087847714000,-9.047688484,-2.127248287,-0.887051702,0.034107197,0.007594181,-0.015321592,0,0,-6,15,11,3.8654387,-1.029506683,5.16549015,0.538254201,1.656730533,1.837392092,-75,-49,-64,-8,156
1695162087883691200,-9.119514465,-2.199074268,-0.92895025,-0.005862175,-0.009459418,-0.07474272,1,5,-6,19,2,4.402936935,-1.159990668,7.095216751,0.442993879,1.21027267,0.959931076,-76,-51,-68,-16,153
1695162087884691200,-9.121908188,-2.205059767,-0.932541549,-0.007594181,-0.010658499,-0.079006128,2,0,-7,16,11,4.452018261,-1.163581967,7.151480675,0.443393588,1.190287828,0.919162333,-76,-49,-67,-1,153
1695162087885691200,-9.141061783,-2.214636564,-0.934935749,-0.010525269,-0.01292343,-0.089264929,10,0,-6,16,10,4.49271965,-1.15280807,7.20654726,0.444192976,1.17016995,0.878926516,-76,-49,-66,-12,152
1695162087886691200,-9.15063858,-2.218227863,-0.939724147,-0.011324655,-0.013722817,-0.093794793,0,0,-6,23,8,4.535815239,-1.133654475,7.264008045,0.447656959,1.150851488,0.838557422,-76,-47,-68,-15,151
1695162087887691200,-9.157821655,-2.219424963,-0.936132848,-0.01185758,-0.014255743,-0.098058186,-1,0,-5,16,8,4.580107689,-1.107318282,7.317877293,0.451520681,1.132465601,0.798588037,-76,-50,-69,-14,158
1695162087915697700,-9.228450775,-2.178723574,-0.963666201,-0.028378254,-0.006128637,-0.170535982,0,1,-6,19,8,5.507861137,0.035913024,7.787140846,0.160810098,0.760617197,0.289777964,-78,-45,-73,-15,144
1695162087916697700,-9.220070839,-2.175132275,-0.958877802,-0.030909648,-0.005462481,-0.174932614,2,2,-7,21,5,5.45997715,0.04189853,7.830236435,0.131099537,0.733171523,0.274589568,-76,-45,-75,-15,154
1695162087917697700,-9.212887764,-2.172738075,-0.963666201,-0.033707503,-0.004929556,-0.179595709,0,5,-5,16,11,5.391742229,0.04070143,7.891288757,0.103254206,0.69813168,0.259934127,-78,-44,-73,-16,155
1695162087918697700,-9.206902504,-2.169146776,-0.960074902,-0.036638591,-0.004529862,-0.184258804,0,0,-6,18,9,5.327098846,0.04309563,7.966706276,0.075408876,0.656030655,0.24514547,-76,-44,-82,-15,153
1695162087919697700,-9.203310966,-2.159569979,-0.958877802,-0.039702907,-0.0042634,-0.188921899,1,3,-7,14,8,5.248090267,0.0,8.306682587,-0.036771823,0.452986211,0.198248088,-76,-57,-72,-15,152
1695162087952654900,-9.10634613,-2.04464817,-0.920570552,-0.099523738,-0.010658499,-0.260333836,5,3,-6,18,8,6.221333027,-0.287304193,7.894880295,0.24514547,-0.033174578,0.178929552,-76,-48,-81,-19,153
1695162087953654900,-9.097966194,-2.036268473,-0.920570552,-0.102188364,-0.011724349,-0.26233232,1,1,-6,22,11,6.311115742,-0.210689753,7.841010571,0.254205197,-0.050361406,0.17866309,-75,-44,-77,-14,152
1695162087954654900,-9.089587212,-2.027888775,-0.926556051,-0.105119444,-0.013056661,-0.264197558,-1,2,-6,20,11,6.380547523,-0.152031809,7.801506042,0.256470144,-0.063284837,0.178529859,-76,-49,-80,-16,151
1695162087955654900,-9.080010414,-2.017114878,-0.926556051,-0.10778407,-0.014255743,-0.265529871,0,0,-6,18,10,6.451176643,-0.094570965,7.758410454,0.254738122,-0.076075032,0.178263396,-76,-50,-77,-14,152
1695162087956654900,-9.069235802,-2.00753808,-0.920570552,-0.110581927,-0.015721286,-0.266862184,5,3,-6,18,6,6.517016888,-0.039504327,7.712920666,0.249542102,-0.088465542,0.17759724,-76,-49,-79,-13,154
1695162087987634600,-8.930372238,-1.869871497,-0.973242998,-0.172134757,-0.032774884,-0.259134769,1,0,-6,18,8,6.91445446,0.073023155,7.554903507,0.094594181,-0.118042871,0.038637057,-78,-51,-82,-18,151
1695162087988634600,-8.926780701,-1.851915002,-0.988805294,-0.180661559,-0.033574272,-0.255670756,0,1,-6,18,8,6.859387875,0.089782566,7.592013359,0.093128636,-0.116310872,0.026779478,-76,-49,-79,-31,151
1695162087989634600,-8.921992302,-1.843535304,-0.995987892,-0.18492496,-0.034107197,-0.253938764,1,5,-6,20,7,6.80192709,0.10175357,7.625532627,0.090197548,-0.115511484,0.01505513,-76,-47,-80,-16,153
1695162087990634600,-8.916007042,-1.839944005,-1.00556469,-0.189454809,-0.034506891,-0.252206743,1,0,-6,24,8,6.739677906,0.117315881,7.666234016,0.085800916,-0.116177641,0.00319755,-79,-51,-81,-18,151
1695162087991634600,-8.910021782,-1.831564307,-1.007958889,-0.193851456,-0.035039816,-0.250075042,2,6,-5,23,11,6.645106792,0.14963761,7.710526466,0.076607957,-0.119375192,-0.012523737,-76,-49,-80,-16,152
1695162088024611800,-8.85495472,-1.824381709,-1.131260276,-0.239949465,-0.033441041,-0.189987749,2,2,-6,19,9,3.924096584,-0.477643251,7.882909298,-0.339606434,-0.538254201,-0.378776401,-74,-49,-76,-12,153
1695162088025611800,-8.85495472,-1.824381709,-1.143231273,-0.240082696,-0.03237519,-0.185191423,2,0,-6,22,9,3.706224203,-0.59495914,7.857769966,-0.362788647,-0.589015305,-0.417946398,-76,-49,-71,-11,151
1695162088026611800,-8.858546257,-1.824381709,-1.150413871,-0.240082696,-0.031176111,-0.180528328,4,3,-5,19,11,3.485957623,-0.717063427,7.823053837,-0.383972436,-0.644572735,-0.458581924,-75,-49,-69,-14,153
1695162088027611800,-8.860940933,-1.827973008,-1.156399369,-0.240215927,-0.03011026,-0.175732017,2,5,-4,17,7,3.266888142,-0.85353291,7.776367188,-0.403157741,-0.705459356,-0.500549793,-76,-49,-72,-8,152
1695162088028611800,-8.859743118,-1.829170108,-1.163581967,-0.240082696,-0.028911179,-0.171335369,0,3,-6,22,8,3.044227362,-1.00436759,7.716512203,-0.419545174,-0.771675348,-0.543050528,-77,-48,-68,-14,151
1695162088066586800,-8.859743118,-1.811213613,-1.240196466,-0.282983154,-0.000532925,-0.105119444,0,0,-6,19,8,-0.105344877,-3.301604033,4.862623692,-0.252339959,-2.52806282,-1.578656912,-76,-52,-66,5,151
1695162088067586800,-8.858546257,-1.811213613,-1.240196466,-0.28671363,0.000799387,-0.103787132,0,0,-6,18,7,-0.177170932,-3.296815634,4.739322186,-0.237018377,-2.595611095,-1.65539813,-70,-48,-68,4,152
1695162088068586800,-8.858546257,-1.812410712,-1.246181965,-0.29244259,0.002797856,-0.102055125,1,4,-6,18,9,-0.238223076,-3.278859138,4.60764122,-0.223428801,-2.657163858,-1.735470057,-71,-47,-65,9,153
1695162088069586800,-8.862137794,-1.810016513,-1.246181965,-0.298571229,0.004929556,-0.100189894,1,2,-6,15,8,-0.292092621,-3.244143248,4.481945515,-0.211704448,-2.712721109,-1.819272518,-74,-49,-66,9,151
1695162088070586800,-8.862137794,-1.814804912,-1.250970364,-0.304699838,0.006928025,-0.098457888,0,1,-4,16,7,-0.341173738,-3.19865346,4.365826607,-0.202245027,-2.761883736,-1.906672359,-71,-46,-65,9,151
1695162088104588100,-8.901641846,-1.911770105,-1.246181965,-0.38490504,0.043699846,-0.044632465,-1,1,-5,18,8,-0.865503907,-0.806845963,2.421735048,-0.538120985,-2.660094976,-4.151352406,-66,-48,-59,16,151
1695162088105588100,-8.904036522,-1.914164305,-1.247379065,-0.386370599,0.045831546,-0.040235836,0,4,-5,20,9,-0.895431459,-0.635660529,2.300827742,-0.578490078,-2.627852917,-4.284583569,-70,-49,-59,17,154
1695162088106588100,-8.904036522,-1.917755604,-1.243787766,-0.387569666,0.047963247,-0.036105666,1,4,-6,18,11,-0.922964752,-0.462080926,2.188300371,-0.620324671,-2.595477819,-4.365721226,-64,-49,-65,16,156
1695162088107588100,-8.904036522,-1.924938202,-1.241393566,-0.388635516,0.049961712,-0.031975497,-1,1,-6,19,8,-0.948103845,-0.280121595,2.078166962,-0.663091898,-2.562303066,-4.365721226,-63,-50,-56,20,156
1695162088108588100,-8.907627106,-1.928529501,-1.240196466,-0.389834613,0.052093416,-0.027712099,0,3,-6,16,11,-0.970848799,-0.092176765,1.956062794,-0.707324684,-2.528995275,-4.365721226,-61,-49,-49,22,154
1695162088143567400,-8.942343712,-2.005143881,-1.164779186,-0.436332315,0.071278714,0.048629403,-1,4,-6,22,11,-1.37786305,4.637568474,0.20350714,-1.297805548,-1.752257347,-4.365721226,-60,-47,-39,29,160
1695162088144567400,-8.945934296,-2.018311977,-1.162384868,-0.437797844,0.07194487,0.053292494,0,2,-5,19,9,-1.428141356,4.948814869,0.18555063,-1.317257285,-1.697898865,-4.365721226,-57,-45,-40,28,163
1695162088145567400,-8.949525833,-2.029085875,-1.157596469,-0.438730478,0.07274425,0.057822358,0,1,-6,18,10,-1.480813742,5.256469727,0.16639702,-1.337108731,-1.643007636,-4.365721226,-59,-47,-39,28,159
1695162088146567400,-8.956708908,-2.039859772,-1.15161097,-0.439130157,0.073543645,0.062885143,-1,0,-6,18,8,-1.535880446,5.554547787,0.154426008,-1.356160879,-1.588782549,-4.365721226,-59,-47,-37,30,162
1695162088147567400,-8.960299492,-2.051830769,-1.15280807,-0.438730478,0.074343033,0.0678147,0,0,-7,14,9,-1.59932673,5.849034786,0.135272399,-1.375346184,-1.534690619,-4.365721226,-60,-45,-37,31,162
1695162088177547100,-9.050082207,-2.213439465,-1.080982089,-0.360656947,0.072877489,0.177464008,0,0,-5,16,9,-3.97676897,10.60751057,0.775721371,-1.345768809,-0.537987709,-4.365721226,-49,-44,-38,30,167
1695162088178547100,-9.050082207,-2.215833664,-1.07858789,-0.356260329,0.072211333,0.183459431,4,2,-6,16,4,-4.05338335,10.84453678,0.984016895,-1.349366069,-0.446058184,-4.365721226,-49,-44,-34,30,166
1695162088179547100,-9.051279068,-2.217030764,-1.070208192,-0.351863712,0.071811639,0.189321592,0,1,-8,23,8,-4.127603531,11.11029339,1.201889277,-1.360157728,-0.344535977,-4.365721226,-47,-45,-34,30,167
1695162088180547100,-9.051279068,-2.221819162,-1.066616893,-0.34799999,0.071278714,0.195050538,-1,0,-6,18,5,-4.201824188,11.38802052,1.418564558,-1.378810048,-0.232488513,-4.365721226,-50,-45,-35,26,166
1695162088181547100,-9.051279068,-2.226607561,-1.066616893,-0.34440276,0.070612557,0.200513005,3,1,-6,19,3,-4.283226967,11.68370438,1.638831019,-1.403591037,-0.110315464,-4.365721226,-49,-40,-34,30,167
1695162088211503900,-9.1326828,-2.389413357,-0.986411095,-0.287513018,0.049428791,0.280052066,0,0,-5,22,9,-6.35660553,12.49294472,4.230554581,-3.834661722,3.734338522,-4.365721226,-60,-37,-37,20,170
1695162088212503900,-9.141061783,-2.401384354,-0.978031397,-0.282583475,0.046897396,0.283649325,1,0,-6,19,8,-6.640318394,12.35288334,4.112041473,-4.012658596,3.93724966,-4.365721226,-60,-39,-40,18,172
1695162088213503900,-9.142259598,-2.41574955,-0.970848799,-0.277920365,0.044499233,0.287113339,1,0,-6,16,11,-6.924031258,12.18289566,3.969586372,-4.186258793,4.135364532,-4.365721226,-60,-40,-46,20,171
1695162088214503900,-9.149441719,-2.425326347,-0.9672575,-0.273124039,0.042234302,0.290444106,0,2,-6,19,9,-7.218518257,11.98417664,3.806780815,-4.349600315,4.327617168,-4.365721226,-59,-45,-39,17,169
1695162088215503900,-9.160215378,-2.433706045,-0.9648633,-0.267794788,0.039836142,0.293774903,0,2,-6,17,7,-7.529764175,11.76510715,3.630806923,-4.365721226,4.365588188,-4.365721226,-63,-41,-38,18,170
1695162088246483300,-9.186552048,-2.564189911,-0.918176353,-0.177996933,-0.014122511,0.323751897,-1,3,-6,16,9,-15.08706188,1.874659896,-0.858321309,-2.592813253,4.365588188,-4.365721226,-61,-40,-40,14,169
1695162088247483300,-9.187748909,-2.570175409,-0.910993755,-0.174266458,-0.017453292,0.322952509,2,1,-6,20,9,-15.56231117,1.398213744,-0.995987892,-2.180595636,4.365588188,-4.365721226,-64,-41,-40,14,169
1695162088248483300,-9.187748909,-2.576161146,-0.916979253,-0.170535982,-0.02051761,0.321886688,2,0,-6,18,9,-16.05910873,0.946906745,-1.18872118,-1.74826026,4.365588188,-4.365721226,-65,-41,-40,16,167
1695162088249483300,-9.187748909,-2.579752445,-0.920570552,-0.167071983,-0.023715161,0.320820838,3,0,-7,18,5,-16.57386208,0.511162043,-1.368286252,-1.284349084,4.365588188,-4.365721226,-61,-37,-40,15,170
1695162088250483300,-9.190143585,-2.582146645,-0.919373453,-0.164007664,-0.026513018,0.319355279,0,0,-6,20,7,-17.08262825,0.16879122,-1.52390933,-0.798454821,4.365588188,-4.365721226,-60,-44,-40,14,168
1695162088281486700,-9.258378029,-2.646790028,-1.006761789,-0.115111791,-0.074209802,0.264597237,4,3,-5,17,8,-19.61330032,6.101623058,-2.482787132,4.365588188,3.681712151,-1.948373675,-63,-41,-43,16,174
1695162088282486700,-9.25957489,-2.647987127,-1.013944387,-0.112180702,-0.076474734,0.260467082,-1,0,-6,21,9,-19.61330032,6.951564789,-2.499546528,4.365588188,3.631617308,-1.922393441,-63,-40,-41,16,177
1695162088283486700,-9.261969566,-2.649184227,-1.021126986,-0.109116383,-0.078606427,0.256470144,2,5,-6,19,11,-19.61330032,7.803900242,-2.516305923,4.365588188,3.573261738,-1.915998459,-62,-40,-39,15,178
1695162088284486700,-9.264363289,-2.652775526,-1.025915384,-0.105785601,-0.080738127,0.252339959,2,0,-4,22,12,-19.61330032,8.645462036,-2.524685621,4.365588188,3.505713701,-1.923859,-63,-43,-41,15,176
1695162088285486700,-9.26556015,-2.661155224,-1.034295082,-0.102454826,-0.082603365,0.248076573,-1,0,-8,15,5,-19.61330032,9.500192642,-2.521094322,4.365588188,3.427240372,-1.94464314,-62,-39,-39,16,178
1695162088316467900,-9.161413193,-2.695871115,-1.15161097,-0.021983154,-0.093128636,0.152283311,1,0,-5,17,7,-15.79454899,17.63090134,1.285686255,4.365588188,1.125004649,-2.289712191,-64,-39,-39,16,169
1695162088317467900,-9.147047997,-2.692279816,-1.156399369,-0.017053599,-0.092329249,0.146021441,5,1,-6,19,8,-15.17085934,17.32563972,1.391031146,3.96629405,1.051594138,-2.189122438,-67,-42,-41,15,168
1695162088318467900,-9.131484985,-2.689885616,-1.157596469,-0.012257273,-0.091396637,0.13975957,-1,0,-7,22,5,-14.61061573,16.95334244,1.426944256,3.432836294,0.983113289,-2.072678328,-67,-43,-43,14,168
1695162088319467900,-9.117119789,-2.689885616,-1.163581967,-0.007594181,-0.090197548,0.133098006,0,2,-5,22,9,-14.09586239,16.54991913,1.456871748,2.89897871,0.914366007,-1.939713597,-66,-41,-41,17,168
1695162088320467900,-9.097966194,-2.692279816,-1.163581967,-0.00319755,-0.088865243,0.126303226,0,0,-7,19,11,-13.60744572,16.11896324,1.458068848,2.368185282,0.8508147,-1.795690656,-66,-43,-39,15,170
1695162088350423600,-8.875306129,-2.510320425,-1.284489155,0.031042879,-0.065549769,-0.024114855,4,2,-6,17,9,-11.0480442,5.560533524,0.59376204,-2.549912691,-0.312560499,1.334177613,-65,-44,-36,24,168
1695162088351423600,-8.870517731,-2.497152328,-1.290474772,0.029843798,-0.064350687,-0.03237519,0,1,-6,14,7,-11.00494766,5.141548157,0.59615624,-2.505013704,-0.377843797,1.438764095,-66,-43,-35,25,168
1695162088352423600,-8.864531517,-2.483984232,-1.29885447,0.028378254,-0.063151613,-0.040635526,0,1,-6,19,7,-10.96903515,4.734533787,0.608127236,-2.437731981,-0.441794783,1.534024477,-65,-39,-35,22,168
1695162088353423600,-8.860940933,-2.470816135,-1.309628367,0.026513018,-0.061952524,-0.048496172,0,5,-5,17,7,-10.92713642,4.380191803,0.618901134,-2.345802546,-0.499883622,1.62315619,-67,-45,-36,24,169
1695162088354423600,-8.856152534,-2.457648039,-1.318008065,0.024514547,-0.060486984,-0.056356817,-2,3,-6,20,9,-10.87925243,4.062960148,0.636857629,-2.232555866,-0.553442538,1.6994977,-67,-40,-39,24,167
1695162088382429800,-8.929175377,-2.290053844,-1.424550056,-0.009725881,-0.018385911,-0.163741201,-1,0,-6,19,9,-9.448717117,3.7181952,1.30124867,1.115411997,-0.802185297,1.21027267,-64,-41,-34,28,168
1695162088383429800,-9.006986618,-2.260126352,-1.436521053,-0.015987748,-0.005062787,-0.181194484,-1,0,-7,20,7,-9.396044731,3.851073503,1.344344258,1.232522249,-0.785931051,1.141525269,-65,-41,-34,28,167
1695162088384429800,-9.033323288,-2.256535053,-1.435323954,-0.017586524,-0.001998469,-0.185591117,2,2,-6,22,7,-9.340977669,3.983951569,1.382651448,1.33537674,-0.769143939,1.075975418,-65,-45,-34,30,173
1695162088385429800,-9.059659004,-2.251746655,-1.434126854,-0.019584993,0.000932619,-0.190120965,4,0,-6,18,12,-9.288305283,4.118026733,1.419761658,1.423842311,-0.752356768,1.014289379,-63,-43,-34,30,166
1695162088386429800,-9.082404137,-2.243366957,-1.435323954,-0.02158346,0.003597243,-0.194650844,-1,0,-7,18,10,-9.232041359,4.250905037,1.456871748,1.497385859,-0.735969365,0.956600308,-64,-44,-32,30,167
1695162088417385100,-9.43914032,-2.078166962,-1.471236944,-0.100589581,0.007727412,-0.307231247,-1,0,-7,19,4,-8.532935143,5.668272495,1.120486379,0.805516064,-0.685741186,0.549578846,-65,-41,-33,29,167
1695162088418385100,-9.436745644,-2.068590164,-1.477222443,-0.106718227,0.007993874,-0.314425707,2,2,-5,20,5,-8.546102524,5.665878296,1.059434295,0.721180677,-0.697865248,0.548379779,-62,-45,-34,26,168
1695162088419385100,-9.430760384,-2.061407566,-1.483207941,-0.110715166,0.008260337,-0.319088817,-1,-1,-6,15,7,-8.564059258,5.637147903,0.985213995,0.637777925,-0.711588025,0.547313929,-65,-44,-34,29,166
1695162088420385100,-9.423578262,-2.051830769,-1.48560214,-0.116843797,0.008926493,-0.32615009,0,1,-6,18,9,-8.582015991,5.592854977,0.910993755,0.558771789,-0.726509929,0.547447205,-63,-41,-33,29,167
1695162088421385100,-9.415198326,-2.04704237,-1.48679924,-0.122572735,0.009859112,-0.333477795,-1,3,-6,19,5,-8.602366447,5.546168327,0.848744512,0.483362943,-0.742098033,0.548779488,-64,-43,-34,31,167
1695162088453364600,-9.13866806,-1.911770105,-1.490390539,-0.148819283,0.069147013,-0.414349139,0,1,-6,22,9,-8.945934296,4.45680666,-0.209492654,-0.146421134,-1.042267919,0.675349176,-63,-41,-29,31,168
1695162088454364600,-9.126696587,-1.906981707,-1.490390539,-0.144156188,0.07274425,-0.414349139,-1,3,-6,18,8,-8.949525833,4.41849947,-0.239420176,-0.143490046,-1.050528288,0.688539028,-65,-41,-33,30,166
1695162088455364600,-9.111134529,-1.900996208,-1.490390539,-0.138826951,0.076341502,-0.413549751,-1,1,-6,18,8,-8.951920509,4.376600742,-0.265756398,-0.138427258,-1.057856083,0.702661514,-62,-40,-32,31,167
1695162088456364600,-9.101557732,-1.889025092,-1.490390539,-0.132964775,0.07993874,-0.412350684,2,1,-6,18,4,-8.956708908,4.338293552,-0.288501292,-0.131765693,-1.063851476,0.717583418,-64,-45,-32,26,167
1695162088457364600,-9.088389397,-1.878251195,-1.482010841,-0.126702905,0.083402753,-0.410085768,0,0,-6,19,8,-8.955511093,4.298789024,-0.310049117,-0.123638593,-1.068647742,0.733571172,-63,-45,-34,31,167
1695162088490343200,-8.840589523,-1.717839718,-1.310825467,0.06008729,0.128701374,-0.240615621,0,0,-6,22,11,-8.72806263,3.459621429,-0.33518824,0.172134757,-0.888385952,1.187090278,-62,-43,-28,31,167
1695162088491343200,-8.831012726,-1.705868721,-1.303642869,0.071278714,0.128301695,-0.22702603,4,5,-6,19,11,-8.717288017,3.406949043,-0.329202741,0.193984687,-0.866269529,1.211471677,-61,-45,-32,31,167
1695162088492343200,-8.81664753,-1.693897724,-1.295263171,0.081937209,0.127502292,-0.213169977,2,0,-7,20,9,-8.702922821,3.355473757,-0.322020143,0.216767237,-0.843220532,1.234920263,-63,-44,-33,31,167
1695162088493343200,-8.808267593,-1.678335428,-1.290474772,0.09246248,0.12616998,-0.199447155,1,0,-6,18,8,-8.692149162,3.303998232,-0.313640416,0.240349159,-0.819372118,1.257569671,-60,-41,-31,32,167
1695162088494343200,-8.803479195,-1.666364431,-1.285686255,0.102454826,0.124171518,-0.185191423,2,2,-5,19,9,-8.686163902,3.254917145,-0.302866518,0.265130162,-0.794857562,1.2787534,-62,-41,-29,34,167
1695162088523324200,-8.875306129,-1.582567334,-1.143231273,0.181194484,0.083535992,0.070212863,-1,6,-5,19,8,-8.497021675,2.815581083,0.056263741,0.768078089,-0.267528325,1.344169974,-63,-43,-26,31,167
1695162088524324200,-8.881291389,-1.589749932,-1.140837073,0.180395097,0.082203679,0.083535992,1,0,-6,16,9,-8.494627953,2.827552319,0.070628949,0.784065843,-0.242747322,1.32751596,-67,-45,-25,31,165
1695162088525324200,-8.888473511,-1.59812963,-1.134851575,0.179595709,0.080871366,0.096326187,2,3,-6,18,5,-8.491036415,2.843114614,0.093373865,0.797655404,-0.218765706,1.308996916,-62,-41,-25,31,168
1695162088526324200,-8.893261909,-1.608903527,-1.133654475,0.178529859,0.079672284,0.108849928,-1,1,-6,18,7,-8.492233276,2.85987401,0.114921682,0.809113324,-0.195450217,1.288745761,-61,-41,-29,32,167
1695162088527324200,-8.896853447,-1.614889026,-1.133654475,0.177330777,0.078473203,0.120840736,2,-1,-4,18,7,-8.492233276,2.881421804,0.1316811,0.818172991,-0.172800913,1.266629338,-60,-46,-31,31,167
1695162088565303600,-9.240421295,-1.911770105,-1.07619369,0.171868294,0.056356817,0.257935673,1,2,-6,18,7,-8.495824814,3.539827108,0.627280831,0.409819305,0.099523738,0.637911141,-66,-44,-28,31,167
1695162088566303600,-9.271546364,-1.926135302,-1.070208192,0.172934145,0.055424199,0.260866761,-1,5,-6,16,9,-8.492233276,3.56496644,0.636857629,0.360390514,0.105785601,0.601539016,-60,-39,-29,34,167
1695162088567303600,-9.301473618,-1.935712099,-1.067813993,0.173999995,0.054624807,0.263131708,1,0,-6,18,3,-8.491036415,3.587711334,0.652419984,0.309629381,0.111381322,0.565699816,-62,-45,-28,33,167
1695162088568303600,-9.334992409,-1.950077295,-1.063025594,0.175199077,0.053692192,0.265130162,-1,1,-6,16,8,-8.493430138,3.608062029,0.664390981,0.257535994,0.116177641,0.530127108,-64,-43,-25,31,166
1695162088569303600,-9.369708061,-1.959654093,-1.059434295,0.176664621,0.0528928,0.266595691,-1,3,-7,15,7,-8.494627953,3.621230125,0.672770679,0.204909652,0.120574266,0.495353758,-63,-46,-28,31,165
1695162088600283500,-9.613917351,-2.207453966,-0.827196658,0.20157887,0.035705972,0.221563548,1,0,-6,18,9,-8.416815758,3.609259129,0.647631586,-0.591280222,0.169603363,-0.01292343,-63,-44,-25,31,168
1695162088601283500,-9.588777542,-2.207453966,-0.81642276,0.200246558,0.033574272,0.212770298,1,0,-6,20,7,-8.410830498,3.60207653,0.647631586,-0.615928054,0.174666151,-0.031442571,-61,-40,-25,32,167
1695162088602283500,-9.561244011,-2.201468468,-0.808043063,0.198114842,0.031176111,0.203177631,-1,1,-5,20,9,-8.4012537,3.597288132,0.650025785,-0.638577342,0.180128634,-0.049029093,-62,-44,-25,31,166
1695162088603283500,-9.532513618,-2.190694571,-0.797269166,0.194917306,0.028777948,0.192519143,2,1,-6,17,7,-8.392873764,3.591302633,0.641646028,-0.659494638,0.185857579,-0.065949462,-60,-43,-23,31,168
1695162088604283500,-9.510966301,-2.182314873,-0.788889468,0.191852987,0.026779478,0.18492496,-1,0,-6,16,9,-8.386888504,3.582922935,0.647631586,-0.678413451,0.192252681,-0.08207044,-63,-40,-27,31,166
1695162088636260000,-8.870517731,-1.806425214,-0.768538773,-0.110848397,-0.013722817,-0.094327718,0,0,-6,18,5,-8.412027359,3.45722723,0.718260527,-0.679346085,0.307764143,-0.27845329,-60,-46,-21,31,162
1695162088637260000,-8.833407402,-1.801636815,-0.768538773,-0.129900455,-0.011724349,-0.105652377,0,1,-6,22,8,-8.420407295,3.460818529,0.723048925,-0.664690673,0.311894357,-0.284581929,-60,-45,-29,31,165
1695162088638260000,-8.799888611,-1.795651317,-0.762553215,-0.14748697,-0.009192956,-0.115911178,3,0,-7,19,8,-8.422801971,3.462015629,0.730231524,-0.649235845,0.31575802,-0.290577352,-61,-45,-27,31,167
1695162088639260000,-8.771158218,-1.790862918,-0.760159016,-0.163874418,-0.006261868,-0.124704443,1,4,-6,16,8,-8.423998833,3.464409828,0.74220252,-0.632981598,0.319355279,-0.29603982,-63,-41,-29,31,167
1695162088640260000,-8.742427826,-1.790862918,-0.755370617,-0.178396642,-0.00319755,-0.131765693,1,2,-11,18,11,-8.42759037,3.468001127,0.750582218,-0.615794837,0.322286367,-0.301235855,-61,-44,-28,31,167
1695162088683233600,-8.649053574,-1.844732404,-0.745793819,-0.046497703,0.029577335,0.049029093,2,2,-6,20,7,-8.491036415,3.664325714,0.879869103,-0.233687595,0.303234309,-0.345202148,-62,-45,-29,31,167
1695162088684233600,-8.661025047,-1.843535304,-0.749385118,-0.019984685,0.025980091,0.073543645,-1,3,-5,18,11,-8.499416351,3.68108511,0.883460402,-0.214901984,0.298704445,-0.344935685,-62,-44,-29,31,166
1695162088685233600,-8.672995567,-1.847126603,-0.745793819,0.007594181,0.021849923,0.099124044,1,0,-4,18,7,-8.503006935,3.697844505,0.885854602,-0.196915776,0.293908119,-0.344535977,-61,-41,-27,31,165
1695162088686233600,-8.681375504,-1.850717902,-0.74459672,0.035839204,0.017320061,0.125903517,0,4,-6,18,8,-8.507795334,3.712209702,0.895431459,-0.179329246,0.288712084,-0.343736589,-59,-44,-27,32,165
1695162088687233600,-8.693346024,-1.850717902,-0.745793819,0.065016843,0.012523737,0.153615624,1,0,-5,18,8,-8.513781548,3.727771997,0.900219858,-0.162142411,0.283382833,-0.343070447,-60,-41,-31,31,167
1695162088764948200,-9.036913872,-2.069787264,-0.67037648,0.573294044,-0.088865243,0.683875918,1,3,-6,18,7,-8.595184326,4.076128483,0.956483603,0.036105666,0.16414088,-0.31575802,-63,-45,-29,30,165
1695162088765948200,-9.063250542,-2.090138197,-0.66798228,0.59314549,-0.095260337,0.705592692,4,3,-6,19,11,-8.599972725,4.095282078,0.961272001,0.03956968,0.158278719,-0.314425707,-61,-46,-20,29,163
1695162088766948200,-9.089587212,-2.108094692,-0.663193882,0.611664653,-0.102321595,0.725843847,-1,5,-6,18,9,-8.604761124,4.115632534,0.9648633,0.042500768,0.152549773,-0.312960178,-63,-41,-27,30,163
1695162088767948200,-9.118317604,-2.124854088,-0.661996782,0.628584981,-0.109649308,0.744629443,0,5,-5,18,8,-8.608352661,4.13239193,0.960074902,0.044898927,0.14695406,-0.311494648,-61,-41,-28,31,168
1695162088768948200,-9.143456459,-2.142810583,-0.661996782,0.644173086,-0.117376715,0.761816204,2,0,-6,22,8,-8.61314106,4.147954464,0.954089403,0.046630934,0.141624808,-0.310029089,-64,-48,-32,30,164
1695162088811997800,-9.382876396,-2.279279947,-0.900219858,0.585551262,-0.278852999,0.686540544,0,2,-5,18,8,-8.662221909,4.381389141,0.925358951,0.01612098,0.081137821,-0.26806125,-62,-43,-28,31,167
1695162088812997800,-9.380482674,-2.281674147,-0.918176353,0.560903549,-0.281650841,0.662692189,-1,0,-6,18,11,-8.66341877,4.388571739,0.922964752,0.013323124,0.079405814,-0.264330775,-60,-45,-25,31,167
1695162088813997800,-9.384073257,-2.287659645,-0.936132848,0.534523726,-0.282983154,0.637777925,-1,0,-6,15,5,-8.667010307,4.395754337,0.920570552,0.010658499,0.077540584,-0.26020062,-62,-43,-31,31,167
1695162088814997800,-9.385271072,-2.291250944,-0.955286503,0.506944835,-0.283249617,0.611531377,-2,0,-6,17,5,-8.668207169,4.395754337,0.913387954,0.007993874,0.075808577,-0.255937219,-62,-39,-28,30,166
1695162088815997800,-9.381679535,-2.299630642,-0.969651699,0.478300154,-0.28205052,0.584618628,-1,2,-7,19,7,-8.671798706,4.396951199,0.905008256,0.005862175,0.073810108,-0.251407355,-62,-41,-25,31,168
1695162088882433000,-9.388861656,-2.449268341,-1.224634171,0.001332312,-0.127901986,0.031709034,0,0,-7,14,8,-8.70172596,4.364629745,0.81761986,0.019984685,0.009859112,-0.124704443,-64,-41,-28,31,168
1695162088883433000,-9.387664795,-2.456450939,-1.238999367,-0.012390506,-0.118575804,0.002797856,-1,1,-6,19,8,-8.704120636,4.364629745,0.810437262,0.022915773,0.005862175,-0.116977029,-63,-44,-28,30,167
1695162088884433000,-9.386467934,-2.464830637,-1.241393566,-0.024248086,-0.109649308,-0.025313934,1,1,-6,18,11,-8.70172596,4.365826607,0.804451764,0.026246555,0.001865237,-0.109249614,-64,-45,-31,29,165
1695162088885433000,-9.386467934,-2.468421936,-1.244984865,-0.03437366,-0.100989282,-0.05249311,0,0,-6,20,4,-8.702922821,4.365826607,0.802057564,0.02904441,-0.0021317,-0.101655439,-63,-45,-28,30,165
1695162088886433000,-9.382876396,-2.468421936,-1.249773264,-0.04276723,-0.092595711,-0.078872897,-1,1,-7,18,9,-8.702922821,4.364629745,0.803254664,0.031842265,-0.005862175,-0.094061248,-61,-43,-29,31,167
1695162089009493400,-9.178172112,-2.157175779,-1.26533556,-0.029710567,0.009592649,-0.39423123,-1,1,-6,19,7,-8.635885239,4.323928356,0.741005421,0.050894335,-0.059687596,0.034506891,-60,-45,-28,28,166
1695162089010493400,-9.160215378,-2.135627985,-1.274912357,-0.025846859,0.013189893,-0.401958644,4,0,-5,18,9,-8.633491516,4.321534157,0.729034424,0.050627869,-0.062085759,0.040369064,-61,-47,-27,31,163
1695162089011493400,-9.143456459,-2.11527729,-1.272518158,-0.021983154,0.016387442,-0.408620209,-1,0,-6,18,7,-8.63109684,4.314351559,0.727837324,0.050361406,-0.064350687,0.045964777,-62,-44,-29,31,167
1695162089012493400,-9.131484985,-2.098517895,-1.272518158,-0.019451762,0.018385911,-0.412617147,4,2,-6,18,8,-8.628703117,4.308365822,0.720654726,0.050228179,-0.066482387,0.051294025,-62,-39,-27,31,166
1695162089013493400,-9.115922928,-2.074575663,-1.270123959,-0.015588055,0.021450229,-0.417813152,-1,3,-6,16,11,-8.62511158,4.299986362,0.717063427,0.049961712,-0.068747319,0.056756508,-60,-43,-31,30,167
1695162089135420500,-8.829815865,-1.704671621,-1.291671872,0.001998469,0.059554365,-0.412084222,-1,0,-6,17,9,-8.578424454,4.174290657,0.598550439,0.048096478,-0.085934147,0.128035218,-60,-44,-27,30,167
1695162089136420500,-8.82263279,-1.689109325,-1.292868972,-0.000133231,0.060486984,-0.408753455,1,0,-6,20,5,-8.577227592,4.168305397,0.591367841,0.04769678,-0.085534461,0.130433381,-60,-44,-27,31,165
1695162089137420500,-8.81664753,-1.677138329,-1.294066072,-0.002398162,0.061552834,-0.405022949,0,0,-6,16,7,-8.577227592,4.16231966,0.582988143,0.047163859,-0.084868304,0.132565081,-61,-49,-29,31,167
1695162089138420500,-8.814253807,-1.67234993,-1.289277673,-0.004130168,0.062085759,-0.402624816,0,0,-9,16,7,-8.570044518,4.156333923,0.575805485,0.046764165,-0.084068909,0.134830013,-61,-43,-28,31,167
1695162089139420500,-8.813055992,-1.659181833,-1.282094955,-0.006794794,0.063018374,-0.399027556,0,0,-6,19,7,-8.568847656,4.151545525,0.573411286,0.04623124,-0.083535992,0.136295557,-63,-45,-28,31,167
1695162089180395800,-8.938752174,-1.537077546,-1.332373261,-0.091796324,0.075275652,-0.330679953,0,2,-4,14,4,-8.486248016,4.048594952,0.508767843,0.019185297,-0.055557426,0.161209792,-64,-44,-29,30,168
1695162089181395800,-8.948328972,-1.538274646,-1.33716166,-0.097125575,0.076341502,-0.327482402,0,0,-6,18,8,-8.48385334,4.040215492,0.508767843,0.017719755,-0.053958651,0.161875948,-60,-38,-27,31,166
1695162089182395800,-8.960299492,-1.540668845,-1.33716166,-0.102321595,0.077407345,-0.324551284,0,0,-6,17,9,-8.482656479,4.034229755,0.507570744,0.016387442,-0.052359879,0.162275642,-60,-40,-25,31,166
1695162089183395800,-8.972270966,-1.543063045,-1.343147159,-0.107384384,0.079006128,-0.321886688,1,1,-6,14,7,-8.485051155,4.030638695,0.507570744,0.014788668,-0.050627869,0.162542105,-61,-43,-27,31,164
1695162089184395800,-8.983044624,-1.543063045,-1.346738458,-0.112047479,0.080604896,-0.319355279,0,5,-6,22,7,-8.486248016,4.025850296,0.505176544,0.013456355,-0.049029093,0.162542105,-63,-41,-29,31,167
1695162089217391100,-9.102754593,-1.602918029,-1.33955586,-0.143490046,0.142157733,-0.287646264,-1,1,-6,15,8,-8.531737328,3.946841478,0.511162043,-0.009725881,-0.015854517,0.136295557,-62,-44,-29,29,167
1695162089218391100,-9.107542992,-1.604115129,-1.332373261,-0.142024502,0.146820813,-0.286580414,-1,1,-6,18,9,-8.534132004,3.945644379,0.515950441,-0.010924961,-0.01398928,0.134030625,-64,-41,-29,31,165
1695162089219391100,-9.114726067,-1.602918029,-1.325190663,-0.140292495,0.151617154,-0.285781026,4,2,-7,16,9,-8.535328865,3.946841478,0.52073884,-0.012390506,-0.01185758,0.131898925,-60,-49,-28,30,167
1695162089220391100,-9.119514465,-1.604115129,-1.315613866,-0.138560489,0.156280249,-0.284981638,0,1,-6,20,8,-8.534132004,3.946841478,0.52073884,-0.013722817,-0.009992342,0.129633993,-64,-47,-28,30,166
1695162089221391100,-9.127894402,-1.602918029,-1.314416766,-0.136428788,0.161076576,-0.284182221,-1,0,-6,16,9,-8.532935143,3.943250179,0.524330199,-0.015188362,-0.008127105,0.127502292,-60,-44,-29,25,164
1695162089258544300,-9.181763649,-1.543063045,-1.100135684,-0.123771824,0.222762644,-0.278186828,0,1,-6,17,7,-8.55448246,3.920505285,0.577002585,-0.029977029,0.019451762,0.099923424,-61,-45,-29,31,167
1695162089259544300,-9.181763649,-1.541865945,-1.092953086,-0.124437973,0.224094957,-0.277254194,2,1,-7,18,8,-8.558073997,3.916913986,0.580593884,-0.029577335,0.020251149,0.098857582,-61,-45,-28,31,167
1695162089260544300,-9.17697525,-1.540668845,-1.080982089,-0.124970905,0.225294024,-0.276188374,-1,0,-6,14,8,-8.56046772,3.912125587,0.585382342,-0.02917764,0.020917306,0.098058186,-62,-45,-31,33,167
1695162089261544300,-9.173383713,-1.539471745,-1.064222693,-0.125503823,0.226359874,-0.274989277,0,0,-8,16,8,-8.562862396,3.910928488,0.591367841,-0.028378254,0.02158346,0.097258806,-60,-39,-28,31,166
1695162089262544300,-9.168595314,-1.537077546,-1.053448796,-0.126036748,0.227159262,-0.273523748,-1,0,-5,16,8,-8.567650795,3.910928488,0.598550439,-0.027845331,0.022249617,0.096459419,-63,-44,-30,30,168
1695162089331976700,-9.021351814,-1.508347034,-0.77931267,-0.114578865,0.215301678,-0.19784838,-1,0,-6,18,4,-8.609549522,3.914519787,0.694318473,-0.015454824,0.015454824,0.078739658,-61,-47,-29,31,167
1695162089332976700,-9.015366554,-1.503558636,-0.758961916,-0.114312403,0.213036761,-0.190920368,1,0,-6,16,7,-8.611943245,3.910928488,0.699106872,-0.014788668,0.01398928,0.077807046,-63,-47,-27,31,166
1695162089333976700,-9.011775017,-1.495178938,-0.74220252,-0.114312403,0.210372135,-0.183992341,-1,0,-6,16,9,-8.611943245,3.912125587,0.701501071,-0.01398928,0.012790199,0.077007659,-60,-45,-29,30,167
1695162089334976700,-9.009381294,-1.490390539,-0.724246025,-0.114845328,0.207574263,-0.176931083,-1,1,-8,19,7,-8.610746384,3.910928488,0.703895271,-0.013189893,0.011724349,0.076208271,-62,-41,-25,31,167
1695162089335976700,-9.006986618,-1.48560214,-0.709880829,-0.115511484,0.204509944,-0.169203669,-1,1,-6,20,8,-8.609549522,3.909731388,0.707486629,-0.012257273,0.010392036,0.075275652,-62,-44,-28,31,162
1695162089372951200,-8.966285706,-1.483207941,-0.551863492,-0.179462478,0.106052071,0.010258805,-1,0,-6,20,11,-8.617929459,3.921702385,0.752976418,0.001732006,-0.004529862,0.05768913,-61,-43,-27,31,167
1695162089373951200,-8.962694168,-1.493981838,-0.550666392,-0.183592647,0.099390499,0.021849923,-1,1,-6,19,5,-8.61912632,3.927687883,0.755370617,0.001998469,-0.004929556,0.056756508,-60,-44,-27,31,166
1695162089374951200,-8.961497307,-1.502361536,-0.544680893,-0.187589586,0.092995405,0.033441041,4,-1,-6,18,6,-8.620323181,3.931279182,0.761356115,0.002264931,-0.005462481,0.055424199,-61,-43,-28,31,167
1695162089375951200,-8.960299492,-1.511938334,-0.539892495,-0.191320062,0.086467072,0.04516539,-1,0,-6,24,8,-8.622717857,3.933673382,0.766144514,0.002398162,-0.005862175,0.054225113,-61,-44,-29,31,166
1695162089376951200,-8.960299492,-1.52510643,-0.538695395,-0.19478406,0.079805516,0.057156201,-1,1,-6,16,7,-8.62511158,3.934870481,0.767341673,0.002398162,-0.006528331,0.0528928,-60,-42,-25,31,168
1695162089465685000,-9.050082207,-1.705868721,-0.579396784,-0.229557425,-0.036238898,0.247143939,0,2,-7,18,5,-8.620323181,3.950432777,0.788889468,0.011990812,-0.031575806,0.035306279,-60,-45,-31,29,167
1695162089466685000,-9.060855865,-1.714248419,-0.581790984,-0.231022969,-0.041834611,0.255803972,1,1,-6,17,8,-8.620323181,3.948038578,0.793677866,0.013456355,-0.033707503,0.034773353,-62,-44,-28,29,166
1695162089467685000,-9.06803894,-1.722628117,-0.584185243,-0.232488513,-0.04729709,0.264597237,0,1,-5,15,9,-8.61912632,3.946841478,0.798466265,0.014921899,-0.035306279,0.034240428,-61,-44,-28,29,165
1695162089468685000,-9.075222015,-1.733402014,-0.585382342,-0.233554363,-0.0528928,0.272990793,2,0,-7,17,9,-8.620323181,3.945644379,0.796072066,0.016520673,-0.037171517,0.033707503,-62,-47,-31,31,167
1695162089469685000,-9.081207275,-1.741781712,-0.587776542,-0.23475343,-0.05768913,0.281251162,0,0,-7,19,9,-8.614337921,3.950432777,0.793677866,0.01825268,-0.039169986,0.033174578,-61,-43,-25,31,162
1695162089550229200,-9.200917244,-1.974019289,-0.684741676,-0.210905045,-0.120041348,0.402758032,0,0,-6,14,4,-8.591592789,5.080495834,1.231816769,0.096459419,0.015321592,0.045298621,-61,-42,-28,31,167
1695162089551229200,-9.206902504,-1.984793186,-0.687135875,-0.207840726,-0.123105668,0.407154679,1,0,-6,18,9,-8.58680439,5.250484467,1.294066072,0.097525269,0.025447167,0.059021436,-63,-45,-22,31,166
1695162089552229200,-9.216479301,-1.993172884,-0.689530075,-0.204909652,-0.126303226,0.411018372,-1,0,-6,17,7,-8.566453934,5.415684223,1.368286252,0.099390499,0.036105666,0.075675346,-61,-41,-29,30,165
1695162089553229200,-9.220070839,-1.999158382,-0.695515573,-0.201845318,-0.129500762,0.414615631,-1,2,-6,16,5,-8.546102524,5.588066578,1.441309452,0.103254206,0.047563553,0.098324656,-60,-40,-32,31,165
1695162089554229200,-9.223662376,-2.003946781,-0.703895271,-0.198780999,-0.132565081,0.41754669,0,1,-6,19,10,-8.529343605,5.792770863,1.528697729,0.109516084,0.060753446,0.126969382,-63,-41,-27,29,166
1695162089604345500,-9.271546364,-2.146401882,-0.876277804,-0.168670759,-0.181727409,0.417813152,2,2,-6,16,12,-9.283516884,12.96819305,4.633977413,0.492822349,0.319088817,1.506045938,-61,-45,-32,30,166
1695162089605345500,-9.272743225,-2.151190281,-0.884657502,-0.167871356,-0.182526797,0.41608116,0,0,-7,19,8,-9.422380447,13.34288597,4.67827034,0.499483913,0.296705961,1.607434869,-61,-41,-31,31,167
1695162089606345500,-9.273940086,-2.158372879,-0.889445961,-0.166805506,-0.18385911,0.413416535,-1,0,-4,19,9,-9.572018623,13.70800209,4.695029736,0.503614068,0.264996946,1.710689068,-59,-43,-25,31,167
1695162089607345500,-9.275136948,-2.167949677,-0.897825658,-0.165473193,-0.18492496,0.4103522,0,1,-7,16,7,-9.736021042,14.0575552,4.695029736,0.505879045,0.223695248,1.816075087,-59,-41,-29,29,164
1695162089608345500,-9.276334763,-2.173935175,-0.907402456,-0.16414088,-0.186124057,0.407287896,0,-1,-7,16,7,-9.901221275,14.38675785,4.672284603,0.506811619,0.172934145,1.923725843,-61,-43,-31,31,166
1695162089661311800,-9.278728485,-2.252943754,-1.082179189,-0.148686066,-0.18079479,0.315225124,-1,3,-7,14,7,-10.97741508,17.68836212,2.185906172,1.010425806,-1.368950963,4.365588188,-60,-40,-34,21,167
1695162089662311800,-9.275136948,-2.256535053,-1.092953086,-0.148686066,-0.178929552,0.308830023,-1,0,-6,19,8,-10.93910789,17.80687523,1.941697598,1.06478405,-1.415315509,4.365588188,-60,-43,-34,22,166
1695162089663311800,-9.269151688,-2.258929253,-1.103726983,-0.148819283,-0.177064329,0.302434921,-1,0,-6,22,8,-10.88882923,17.91700935,1.699883223,1.120741129,-1.453153133,4.365588188,-62,-39,-34,19,167
1695162089664311800,-9.269151688,-2.264914751,-1.109712481,-0.148686066,-0.174799383,0.295640111,-1,0,-7,22,8,-10.81820011,18.01157951,1.461660147,1.179229736,-1.480465531,4.365588188,-60,-41,-34,20,168
1695162089665311800,-9.266757965,-2.26850605,-1.120486379,-0.148552835,-0.172667682,0.288978547,-1,1,-6,17,7,-10.73799419,18.08819389,1.222239971,1.239716649,-1.498984694,4.365588188,-62,-48,-34,24,164
1695162089746286200,-9.151836395,-2.298433542,-1.238999367,-0.129234299,-0.129633993,0.148819283,-3,0,-8,17,3,-8.908824921,19.61270142,-3.782838583,1.970889807,-0.097525269,4.365588188,-60,-44,-44,13,181
1695162089747286200,-9.147047997,-2.296039343,-1.242590666,-0.127635539,-0.127369061,0.140958652,-1,0,-10,13,1,-8.886079788,19.61270142,-4.019864559,1.927722692,0.015588055,4.365588188,-62,-43,-49,12,180
1695162089748286200,-9.143456459,-2.293645144,-1.242590666,-0.126303226,-0.124970905,0.132964775,-1,-1,-9,14,8,-8.876502991,19.61270142,-4.173093796,1.89481473,0.089797854,4.365588188,-60,-47,-49,9,180
1695162089749286200,-9.139864922,-2.286462545,-1.249773264,-0.124837674,-0.12230628,0.125104129,-1,-4,-7,14,4,-8.860940933,19.61270142,-4.408922195,1.838457823,0.198248088,4.365588188,-60,-45,-56,10,178
1695162089750286200,-9.136273384,-2.285265446,-1.255758762,-0.123238891,-0.119774885,0.117376715,-1,-1,-9,13,2,-8.852560997,19.61270142,-4.641160011,1.774107218,0.303234309,4.365588188,-60,-44,-49,8,178
1695162089796237300,-9.070432663,-2.189497471,-1.323993564,-0.114179172,-0.061019909,-0.016920367,-1,0,-11,13,2,-7.669825077,16.64209557,-6.653486729,0.268194497,2.084002972,4.365588188,-60,-44,-56,-1,178
1695162089797237300,-9.06803894,-2.179920673,-1.323993564,-0.114578865,-0.057955589,-0.02358193,-1,-1,-9,13,5,-7.590816498,16.25902367,-6.764816761,0.228225112,2.169270992,4.365588188,-60,-43,-59,-1,177
1695162089798237300,-9.063250542,-2.171540976,-1.331176162,-0.114712104,-0.055024505,-0.029977029,-2,0,-10,14,5,-7.517793179,15.89390755,-6.871358871,0.195317,2.249209642,4.365588188,-59,-45,-61,-1,176
1695162089799237300,-9.058462143,-2.164358377,-1.334767461,-0.115111791,-0.051960181,-0.036105666,-6,0,-10,13,1,-7.453149796,15.55393124,-6.94677639,0.166139349,2.323019981,4.365588188,-60,-49,-58,-3,174
1695162089800237300,-9.056067467,-2.160767078,-1.334767461,-0.115511484,-0.048895866,-0.042234302,-2,-5,-7,14,8,-7.378929615,15.21994019,-6.999448776,0.132165387,2.390701294,4.365588188,-60,-46,-61,-3,178
1695162089915521300,-9.02374649,-2.061407566,-1.358709455,-0.116843797,0.010525269,-0.140825421,-1,-1,-12,16,5,-4.750096321,8.432378769,-5.791574001,0.464977026,3.53942132,4.365588188,-59,-45,-63,-4,172
1695162089916521300,-9.024943352,-2.057816267,-1.356315255,-0.115911178,0.014122511,-0.145088822,-1,-1,-9,13,4,-4.667496204,8.161833763,-5.631162167,0.489225119,3.577924967,4.365588188,-58,-45,-63,-6,176
1695162089917521300,-9.02374649,-2.051830769,-1.359906554,-0.114712104,0.017986218,-0.149218991,-1,0,-7,14,3,-4.583699226,7.909245491,-5.457582951,0.507611036,3.612831593,4.365588188,-57,-46,-64,-1,176
1695162089918521300,-9.018958092,-2.04704237,-1.362300754,-0.113379791,0.021716693,-0.153349161,-1,0,-9,14,3,-4.497508049,7.656657219,-5.278017521,0.51893568,3.644274235,4.365588188,-57,-47,-62,-6,172
1695162089919521300,-9.020154953,-2.042253971,-1.359906554,-0.112180702,0.025580399,-0.157612562,-1,-1,-8,15,3,-4.411316395,7.407660007,-5.081693172,0.524131715,3.673318624,4.365588188,-57,-48,-61,-4,173
1695162090031454800,-9.033323288,-1.948880196,-1.314416766,-0.080071971,0.089264929,-0.220231235,-1,1,-12,13,1,-2.354697466,3.029862165,-1.818396211,0.182127118,3.660928011,4.365588188,-60,-47,-66,-11,169
1695162090032454800,-9.034520149,-1.945288897,-1.310825467,-0.07794027,0.09246248,-0.222895861,-2,-1,-6,13,4,-2.272097349,2.916137695,-1.695094824,0.163208261,3.645872831,4.365588188,-56,-45,-67,-11,169
1695162090033454800,-9.03571701,-1.938106298,-1.307234168,-0.075941809,0.0955268,-0.225560486,1,-1,-11,19,4,-2.145204782,2.742558002,-1.514332533,0.133364469,3.621757984,4.365588188,-60,-45,-66,-11,169
1695162090034454800,-9.038111687,-1.934514999,-1.30005157,-0.073810108,0.098591112,-0.228091896,-1,0,-9,14,3,-2.024297476,2.56897831,-1.331176162,0.103387438,3.596310854,4.365588188,-60,-43,-66,-11,168
1695162090035454800,-9.039308548,-1.927332401,-1.294066072,-0.071678407,0.101655439,-0.230356812,-1,-2,-8,13,0,-1.906981707,2.402581453,-1.15280807,0.073810108,3.569797754,4.365588188,-57,-47,-65,-12,169
1695162090179370200,-9.044096947,-1.830367208,-1.173158884,-0.028245023,0.152016848,-0.25194028,-4,-1,-12,13,2,-0.068234749,-0.354341865,1.701080322,-0.018785605,2.910303116,2.921894312,-59,-48,-66,-16,168
1695162090180370200,-9.044096947,-1.825578809,-1.168370485,-0.026379786,0.153748855,-0.25194028,-1,0,-8,14,4,0.025139118,-0.411802679,1.844732404,-0.015321592,2.859275818,2.858742714,-60,-45,-66,-18,167
1695162090181370200,-9.044096947,-1.82079041,-1.163581967,-0.024381317,0.155614093,-0.251807034,-1,0,-8,14,3,0.123301387,-0.453701228,1.982398987,-0.014122511,2.809180498,2.797323227,-59,-47,-67,-17,168
1695162090182370200,-9.042900085,-1.817199111,-1.157596469,-0.022516079,0.1573461,-0.251673818,-1,-1,-11,18,7,0.234631762,-0.48482585,2.114080191,-0.015188362,2.760151625,2.73776865,-60,-48,-67,-17,169
1695162090183370200,-9.045293808,-1.812410712,-1.15280807,-0.020784073,0.158944875,-0.251407355,-1,0,-11,14,4,0.348356336,-0.511162043,2.250549555,-0.018385911,2.712854624,2.679946423,-58,-48,-68,-15,169
1695162090269319800,-9.070432663,-1.734599113,-1.021126986,-0.007860643,0.167604893,-0.227825418,0,0,-9,13,3,2.15597868,-1.043871999,4.207809448,0.18798928,2.206708908,1.539353728,-61,-47,-71,-16,167
1695162090270319800,-9.070432663,-1.732204914,-1.018732786,-0.007993874,0.166805506,-0.225693718,-4,-2,-8,13,3,2.217030764,-1.035492182,4.316745758,0.21197091,2.196716547,1.483529806,-61,-49,-69,-17,166
1695162090271319800,-9.070432663,-1.733402014,-1.012747288,-0.008127105,0.166006133,-0.223295555,-1,0,-8,14,4,2.278082848,-1.024718285,4.423287868,0.235686064,2.186591148,1.427706003,-62,-47,-69,-18,166
1695162090272319800,-9.071630478,-1.735796213,-1.009155989,-0.008260337,0.165339977,-0.220897391,-1,-3,-7,14,4,2.341529369,-1.009155989,4.5370121,0.259401232,2.176465511,1.37228179,-61,-44,-70,-20,168
1695162090273319800,-9.070432663,-1.733402014,-1.000776291,-0.008526799,0.164540574,-0.218232766,-1,0,-11,13,6,2.410961151,-0.988805294,4.649539471,0.282317013,2.166073561,1.316591024,-59,-47,-71,-14,168
1695162090336279800,-9.090784073,-1.699883223,-0.89303726,-0.007327718,0.138560489,-0.157612562,-1,-2,-6,13,4,2.776076794,0.010773907,7.490260124,0.374379784,1.716284752,0.267528325,-63,-39,-95,-36,173
1695162090337279800,-9.096769333,-1.697489023,-0.885854602,-0.007327718,0.13656202,-0.153882071,-1,0,-8,13,7,2.506729126,0.092176765,7.817068577,0.375045955,1.615028977,0.228358343,-61,-35,-92,-33,169
1695162090338279800,-9.103952408,-1.693897724,-0.879869103,-0.007460949,0.13456355,-0.150018379,-1,-1,-7,13,5,2.329558372,0.284909993,8.140285492,0.361189902,1.487393618,0.197581932,-62,-39,-93,-35,170
1695162090339279800,-9.113529205,-1.693897724,-0.877474904,-0.007594181,0.132298619,-0.146154657,-2,-1,-6,15,4,2.300827742,0.553060591,8.546102524,0.331612557,1.34430325,0.177730486,-64,-36,-92,-38,168
1695162090340279800,-9.118317604,-1.690306425,-0.876277804,-0.007727412,0.130833074,-0.143623278,-1,0,-11,14,8,2.388216257,0.806845963,9.034520149,0.291776419,1.200013757,0.164807037,-61,-37,-93,-38,173
1695162090402250200,-9.272743225,-1.731007814,-0.877474904,0.005196018,0.087799385,-0.05142726,-1,0,-11,18,4,6.291962147,0.841561913,7.661445618,0.432335377,0.120574266,0.304833084,-61,-49,-95,-52,168
1695162090403250200,-9.272743225,-1.735796213,-0.877474904,0.008926493,0.086600304,-0.045032158,0,0,-8,14,5,6.46554184,0.934935749,7.526173115,0.465643197,0.111248083,0.304166913,-68,-49,-93,-52,171
1695162090404250200,-9.271546364,-1.739387512,-0.879869103,0.01292343,0.085934147,-0.038637057,-1,0,-6,13,6,6.631938934,1.039083481,7.402871609,0.490823895,0.101921894,0.302168459,-63,-47,-97,-61,173
1695162090405250200,-9.271546364,-1.741781712,-0.879869103,0.017453292,0.085401222,-0.032241959,-1,1,-5,14,4,6.80192709,1.140837073,7.28555584,0.507611036,0.09246248,0.299503833,-63,-47,-98,-59,169
1695162090406250200,-9.273940086,-1.74896431,-0.882263303,0.022116385,0.08513476,-0.02571363,-1,0,-10,13,4,6.964732647,1.243787766,7.187393665,0.516937196,0.083669223,0.296306252,-61,-45,-96,-61,173
1695162090446218100,-9.18296051,-1.945288897,-0.77931267,0.193052068,0.106185302,0.124038287,-1,0,-14,13,3,7.645883083,1.909375906,7.957129478,0.103520676,0.048096478,0.175865233,-63,-53,-98,-86,172
1695162090447218100,-9.17098999,-1.963245392,-0.772130072,0.208373666,0.107384384,0.133764163,-1,-2,-8,13,1,7.618350029,1.889025092,8.042123795,0.081404284,0.043433387,0.170802444,-61,-56,-98,-84,168
1695162090448218100,-9.157821655,-1.977610588,-0.751779318,0.224361405,0.108183771,0.143623278,-2,0,-7,16,3,7.586028099,1.867477298,8.119935036,0.06115314,0.038770292,0.166405827,-65,-59,-98,-85,168
1695162090449218100,-9.143456459,-1.989581585,-0.732625723,0.240882084,0.108716697,0.153215915,-1,0,-11,13,3,7.562086105,1.844732404,8.183381081,0.043166921,0.033840735,0.162408888,-61,-56,-98,-82,171
1695162090450218100,-9.136273384,-1.999158382,-0.724246025,0.252206743,0.108849928,0.159611031,-2,0,-9,15,4,7.536946774,1.813607812,8.231265068,0.028245023,0.028911179,0.15841195,-63,-60,-97,-86,171
1695162090483219100,-9.0740242,-2.084152699,-0.501585245,0.523332298,0.030376723,0.293908119,-1,0,-11,13,2,7.754819393,1.437718153,7.314286232,0.077007659,-0.037437979,0.112580396,-65,-61,-98,-81,169
1695162090484219100,-9.080010414,-2.079364061,-0.494402647,0.529727399,0.023182238,0.298038274,-2,0,-8,13,5,7.778761387,1.453280449,7.248445511,0.077807046,-0.042633995,0.110848397,-67,-63,-98,-79,168
1695162090485219100,-9.085995674,-2.075772762,-0.487220049,0.534923434,0.015987748,0.301635504,-1,-3,-7,14,5,7.799111843,1.473631144,7.182605267,0.075542115,-0.047963247,0.109516084,-63,-66,-98,-78,171
1695162090486219100,-9.093177795,-2.072181463,-0.478840351,0.538787127,0.008660031,0.304699838,-1,0,-11,13,3,7.813477039,1.490390539,7.109581947,0.071012251,-0.053825419,0.10805054,-62,-61,-98,-82,169
1695162090487219100,-9.103952408,-2.072181463,-0.474051923,0.541318536,0.001465544,0.30749771,-2,0,-11,13,5,7.832630634,1.505952835,7.038952827,0.064350687,-0.059554365,0.106984682,-61,-63,-102,-84,178
1695162090520173600,-9.37449646,-2.106897593,-0.462080926,0.391166925,-0.141225114,0.265796334,-1,0,-13,13,3,7.659051418,1.165976286,6.57806921,-0.018385911,-0.071678407,0.070479326,-63,-64,-98,-80,169
1695162090521173600,-9.385271072,-2.108094692,-0.478840351,0.374113321,-0.151350692,0.256736606,-1,0,-11,13,3,7.632715225,1.15280807,6.592434406,-0.011990812,-0.071012251,0.068880551,-61,-65,-98,-80,168
1695162090522173600,-9.39484787,-2.112883091,-0.496796846,0.356260329,-0.162009194,0.246211335,-1,-1,-6,13,7,7.605181694,1.148019671,6.6163764,-0.005728943,-0.070479326,0.066882081,-61,-66,-99,-78,167
1695162090523173600,-9.404424667,-2.114080191,-0.508767843,0.337874413,-0.173067391,0.23475343,-1,0,-11,12,3,7.5836339,1.150413871,6.652289391,0.000799387,-0.06981317,0.064483918,-62,-63,-99,-81,168
1695162090524173600,-9.409213066,-2.111685991,-0.527921498,0.318555921,-0.184525266,0.222496167,-1,0,-11,13,4,7.564480305,1.158793569,6.691793919,0.0063951,-0.068880551,0.061552834,-60,-61,-98,-76,167
1695162090557152100,-9.234436035,-2.041056871,-1.021126986,-0.165073514,-0.289378256,-0.124171518,-1,0,-9,16,5,7.600393295,1.161187768,6.812700748,-0.101122513,-0.016254211,-0.016520673,-62,-65,-99,-82,168
1695162090558152100,-9.2212677,-2.049436569,-1.048660398,-0.190920368,-0.284981638,-0.143756509,-1,-1,-8,13,4,7.605181694,1.15280807,6.806715488,-0.099790201,-0.012523737,-0.018119449,-61,-64,-99,-84,169
1695162090559152100,-9.210494041,-2.056619167,-1.070208192,-0.215701386,-0.279519141,-0.163075045,-1,0,-7,17,7,7.611167431,1.15400517,6.80551815,-0.097791731,-0.009192956,-0.019718224,-61,-63,-98,-80,169
1695162090560152100,-9.200917244,-2.063801765,-1.091755986,-0.239016846,-0.273390502,-0.181727409,-1,0,-9,14,7,7.612364292,1.15400517,6.817489147,-0.095793262,-0.005995406,-0.021716693,-61,-65,-98,-80,170
1695162090561152100,-9.194931984,-2.072181463,-1.108515382,-0.260467082,-0.266728938,-0.199980095,-1,-1,-9,14,4,7.605181694,1.161187768,6.833051682,-0.094594181,-0.002931087,-0.023715161,-66,-66,-102,-78,166
1695162090610804100,-9.11233139,-2.081758261,-1.359906554,-0.366652369,-0.131366,-0.428871363,-2,0,-11,16,7,7.158663273,1.146822572,7.218518257,-0.28884533,0.01718683,-0.089931086,-62,-65,-98,-50,166
1695162090611804100,-9.111134529,-2.067393064,-1.365892053,-0.362255752,-0.127369061,-0.435133219,-1,0,-7,15,3,7.115567684,1.11689508,7.211335659,-0.309895873,0.007993874,-0.089664623,-61,-65,-98,-49,168
1695162090612804100,-9.10634613,-2.050633669,-1.37546885,-0.357192963,-0.123771824,-0.440862179,0,-1,-9,15,3,7.085639954,1.095347285,7.20654726,-0.323885113,0.000532925,-0.088998467,-61,-63,-98,-49,168
1695162090613804100,-9.101557732,-2.037465572,-1.37546885,-0.351464033,-0.120307811,-0.445924938,-1,-1,-16,16,3,7.038952827,1.060631394,7.194576263,-0.345335364,-0.012390506,-0.08753293,-61,-65,-95,-47,168
1695162090614804100,-9.096769333,-2.021903276,-1.381454349,-0.345202148,-0.116843797,-0.450588048,-1,0,-7,18,9,6.99106884,1.033097982,7.187393665,-0.368517607,-0.028511487,-0.085800916,-61,-61,-98,-48,167
1695162090648760400,-8.993818283,-1.678335428,-1.446097851,-0.21863246,-0.057822358,-0.43007046,-3,0,-6,16,7,5.16189909,0.067037649,7.024587631,-0.847084224,-0.81031245,-0.203177631,-62,-60,-81,-43,166
1695162090649760400,-8.992621422,-1.651999116,-1.45088625,-0.216367543,-0.055823889,-0.425274134,-2,0,-9,16,4,5.027823448,-0.010773907,7.089231014,-0.856676877,-0.855344534,-0.219698325,-62,-57,-76,-39,165
1695162090650760400,-8.986636162,-1.624465823,-1.462857246,-0.215434924,-0.054091886,-0.420477778,-1,0,-8,13,2,4.856637955,-0.090979666,7.165845871,-0.868800879,-0.905572772,-0.245278716,-61,-61,-78,-38,167
1695162090651760400,-8.980650902,-1.600523829,-1.472434044,-0.215434924,-0.052359879,-0.415415019,-4,-1,-7,15,5,4.636371613,-0.238223076,7.161057472,-0.892915785,-0.949805498,-0.282716691,-64,-57,-79,-36,166
1695162090652760400,-8.972270966,-1.576581836,-1.48560214,-0.216500759,-0.051027562,-0.4103522,-1,-5,-7,13,2,4.395754337,-0.450109929,7.077260017,-0.907038331,-0.98950839,-0.328548223,-60,-56,-87,-38,165
1695162090711820900,-8.743624687,-1.345541358,-1.507149935,-0.363588065,0.013323124,-0.298837662,-2,0,-7,13,3,1.15520227,-2.693476915,6.02620554,-0.665223539,-2.291577339,-1.281684518,-60,-51,-72,-19,156
1695162090712820900,-8.73404789,-1.349132657,-1.496376038,-0.371848404,0.019984685,-0.289644688,-1,1,-9,15,3,1.039083481,-2.67432332,5.884947777,-0.670153141,-2.375646114,-1.341771841,-60,-52,-69,-16,157
1695162090713820900,-8.730456352,-1.349132657,-1.489193439,-0.379442573,0.026779478,-0.280052066,-1,3,-8,13,5,0.934935749,-2.67671752,5.729324818,-0.677214384,-2.459715366,-1.405856133,-61,-51,-71,-18,158
1695162090714820900,-8.723274231,-1.357512355,-1.479616642,-0.386370599,0.033441041,-0.269926488,-3,0,-8,16,4,0.799663365,-2.597708941,5.585672379,-0.693202138,-2.545249701,-1.475535989,-62,-55,-71,-16,156
1695162090715820900,-8.714894295,-1.367089152,-1.467645645,-0.392765701,0.040102605,-0.259534448,-1,0,-9,15,1,0.74459672,-2.579752445,5.45997715,-0.709056675,-2.603604794,-1.526430368,-58,-55,-71,-12,156
1695162090799569900,-8.656236649,-1.63763392,-1.236605167,-0.379575789,0.099523738,-0.027712099,-3,-1,-7,13,4,0.656011283,-0.174776718,3.039438963,-1.336176038,-3.132932663,-3.591781139,-51,-51,-58,10,156
1695162090800569900,-8.656236649,-1.653196216,-1.223437071,-0.374379784,0.099790201,-0.016254211,-1,0,-8,13,3,0.689530075,0.015562311,2.916137695,-1.391200542,-3.090565205,-3.728209734,-51,-51,-49,12,157
1695162090801569900,-8.661025047,-1.667561531,-1.211466074,-0.369183779,0.099923424,-0.005196018,0,-2,-7,18,2,0.717063427,0.20470424,2.796427488,-1.447557449,-3.043800831,-3.867303133,-53,-48,-49,14,158
1695162090802569900,-8.667010307,-1.678335428,-1.201889277,-0.364387453,0.100323126,0.005462481,-2,-1,-11,16,1,0.746990919,0.398634583,2.67671752,-1.502848387,-2.991574287,-4.007862091,-47,-50,-49,15,160
1695162090803569900,-8.66940403,-1.687912226,-1.191115379,-0.359857589,0.100989282,0.015987748,-1,0,-8,14,3,0.776918471,0.603338838,2.554613113,-1.558272481,-2.934684515,-4.151218891,-69,-45,-48,15,160
1695162090875526400,-8.895656586,-1.853112102,-1.00436759,-0.369183779,0.104186833,0.140692189,-3,-1,-8,14,4,1.248576164,5.476736546,0.909796655,-2.492356777,-1.051860571,-4.365721226,-51,-43,-34,24,164
1695162090876526400,-8.911218643,-1.868674397,-0.994790792,-0.371715158,0.103787132,0.145355284,-2,0,-6,12,4,1.240196466,5.749675274,0.89303726,-2.530594349,-0.908770263,-4.365721226,-53,-43,-34,24,162
1695162090877526400,-8.924386978,-1.883039594,-0.981622696,-0.373846859,0.103387438,0.149885148,-1,0,-12,17,3,1.203086376,6.163872242,0.871489406,-2.591080904,-0.710522175,-4.365721226,-44,-44,-32,26,167
1695162090878526400,-8.937555313,-1.89860189,-0.975637197,-0.375312388,0.10285452,0.15428178,-1,0,-8,16,3,1.175553083,6.454767704,0.836773515,-2.636246681,-0.555707514,-4.365721226,-53,-41,-33,24,165
1695162090879526400,-8.951920509,-1.915361404,-0.968454599,-0.376244992,0.102321595,0.158545166,-1,0,-10,14,4,1.124077678,6.733692169,0.797269166,-2.674217463,-0.39996019,-4.365721226,-51,-43,-32,21,166
1695162090957955600,-9.096769333,-2.165555477,-0.847547412,-0.309229732,0.086999997,0.232088804,-1,-2,-11,14,4,-1.259350061,7.368155956,0.48243165,-1.415715098,2.094661474,-4.365721226,-60,-45,-34,22,167
1695162090958955600,-9.108740807,-2.175132275,-0.845153213,-0.303234309,0.086200617,0.236085743,-3,0,-9,13,4,-1.514332533,7.265204906,0.463278025,-1.228125572,2.129301786,-4.365721226,-60,-39,-34,21,166
1695162090959955600,-9.124302864,-2.182314873,-0.843956113,-0.296972424,0.085267991,0.239816234,-1,-1,-8,14,4,-1.754949808,7.144298077,0.439336002,-1.030810118,2.154482365,-4.365721226,-61,-43,-31,21,167
1695162090960955600,-9.136273384,-2.189497471,-0.841561913,-0.290710568,0.084068909,0.243679941,-1,-3,-9,13,4,-1.976413488,7.02937603,0.430956304,-0.821903527,2.172335386,-4.365721226,-59,-41,-35,24,168
1695162090961955600,-9.148244858,-2.19308877,-0.836773515,-0.284448713,0.082869835,0.247543648,-1,-2,-9,13,1,-2.190694571,6.964732647,0.442927301,-0.609399676,2.182327747,-4.365721226,-60,-39,-34,22,167
1695162091027917400,-9.315838814,-2.330755472,-0.764947414,-0.165872887,0.051294025,0.3168239,-3,-2,-8,14,5,-6.095637321,9.84974575,1.804031014,1.616228104,1.454485416,-3.883823872,-60,-41,-34,20,167
1695162091028917400,-9.317035675,-2.336740971,-0.764947414,-0.159078106,0.049828485,0.320421129,-1,-1,-8,14,2,-6.31590414,9.91438961,1.856703401,1.589715123,1.40452373,-3.722080946,-57,-39,-28,21,166
1695162091029917400,-9.323021889,-2.343923569,-0.762553215,-0.152283311,0.048229709,0.323885113,-2,-2,-6,18,4,-6.459556103,9.938331604,1.890222192,1.568131685,1.37121594,-3.623623133,-60,-40,-31,22,167
1695162091030917400,-9.319430351,-2.353500366,-0.757764816,-0.145621747,0.046897396,0.327082694,-1,0,-11,14,5,-6.673837185,9.944316864,1.935712099,1.532958627,1.320854545,-3.489326,-60,-43,-29,22,167
1695162091031917400,-9.314641953,-2.366668463,-0.751779318,-0.138826951,0.045298621,0.330147028,-1,0,-8,13,3,-6.886921406,9.934740067,1.985990286,1.492323041,1.270759583,-3.370750427,-62,-40,-27,26,167
1695162091104890100,-9.308655739,-2.498349428,-0.66798228,-0.038237367,0.002531394,0.348932624,-1,-2,-11,13,4,-11.74834728,10.48420906,1.798045516,0.505346119,0.524797857,-4.365721226,-60,-41,-28,29,171
1695162091105890100,-9.315838814,-2.504334927,-0.658405483,-0.033840735,-0.000932619,0.347733527,-2,-2,-6,14,5,-11.92910957,10.40041256,1.766920805,0.451254189,0.492022961,-4.365721226,-59,-40,-23,26,168
1695162091106890100,-9.323021889,-2.515108824,-0.648828685,-0.029444104,-0.004663093,0.346134782,-1,0,-6,15,-1,-12.09550667,10.31422138,1.722628117,0.400759578,0.462445647,-4.365721226,-60,-39,-25,25,166
1695162091107890100,-9.326612473,-2.519897223,-0.640448928,-0.025180703,-0.008393568,0.344269514,-2,0,-6,14,4,-12.25472164,10.22084713,1.660378933,0.351996928,0.43579939,-4.365721226,-59,-43,-32,26,168
1695162091108890100,-9.329007149,-2.523488522,-0.645237386,-0.021316998,-0.012390506,0.342137843,-1,0,-6,15,3,-12.4223156,10.12029076,1.595735431,0.309229732,0.411018372,-4.365721226,-59,-43,-27,26,167
1695162091175827200,-9.352949142,-2.561795712,-0.684741676,0.000932619,-0.090730481,0.261532933,-1,-2,-8,13,5,-17.1760025,7.58722496,0.509964943,1.0637182,0.556906581,-4.365721226,-56,-37,-27,21,176
1695162091176827200,-9.351752281,-2.560598612,-0.688332975,-0.000932619,-0.094460949,0.25553751,-3,1,-9,18,2,-17.58900261,7.51300478,0.48482585,1.199347615,0.597275674,-4.365721226,-57,-39,-27,20,174
1695162091177827200,-9.352949142,-2.560598612,-0.697909772,-0.003064318,-0.098058186,0.249542102,-1,-1,-7,14,3,-18.00200272,7.462726593,0.460883826,1.34430325,0.642041326,-4.365721226,-58,-36,-31,20,176
1695162091178827200,-9.352949142,-2.565387011,-0.707486629,-0.005329249,-0.10178867,0.243147001,-1,0,-10,15,1,-18.41500282,7.444770336,0.430956304,1.498584986,0.69027102,-4.365721226,-59,-36,-31,21,178
1695162091179827200,-9.352949142,-2.56897831,-0.712275028,-0.007594181,-0.105385914,0.236751899,-1,0,-9,13,3,-18.82441139,7.460332394,0.402225882,1.660460949,0.741032183,-4.365721226,-57,-36,-29,19,176
1695162091251783600,-9.284713745,-2.614468336,-0.85473001,-0.017453292,-0.139359877,0.115245022,-3,-2,-12,13,-1,-19.61330032,13.49970627,0.628477931,4.271793365,1.675116301,-4.365721226,-60,-36,-34,18,182
1695162091252783600,-9.278728485,-2.615665436,-0.867898107,-0.01505513,-0.139493108,0.108849928,-2,0,-6,13,1,-19.61330032,13.92108536,0.664390981,4.254739761,1.685641646,-4.365721226,-59,-35,-33,20,183
1695162091253783600,-9.276334763,-2.618059635,-0.878672004,-0.012656967,-0.13975957,0.102321595,-1,-1,-6,16,2,-19.61330032,14.32570553,0.714669228,4.209174633,1.690970898,-4.365721226,-59,-41,-32,18,183
1695162091254783600,-9.269151688,-2.618059635,-0.888248801,-0.009859112,-0.139626339,0.095926493,-1,0,-10,15,3,-19.61330032,14.67166805,0.77931267,4.132699966,1.692436457,-4.365721226,-55,-35,-32,20,181
1695162091255783600,-9.261969566,-2.618059635,-0.900219858,-0.006928025,-0.13975957,0.089664623,-1,-3,-9,13,4,-19.4840126,14.94580364,0.852335811,4.03011179,1.69123733,-4.365721226,-60,-35,-31,18,179
1695162091308751300,-9.127894402,-2.49116683,-1.059434295,0.042101074,-0.132698312,-0.050094947,-1,0,-9,14,-3,-10.35133076,10.48420906,1.198297977,-0.383439511,2.016587973,-1.746928096,-61,-41,-35,15,182
1695162091309751300,-9.123106003,-2.477998734,-1.064222693,0.042633995,-0.131898925,-0.058621746,-2,0,-6,13,1,-10.3261919,10.0855751,1.089361787,-0.57342726,2.022983074,-1.411052108,-60,-39,-34,15,172
1695162091310751300,-9.117119789,-2.468421936,-1.071405292,0.04276723,-0.130966306,-0.066882081,-4,0,-9,14,4,-10.35611916,9.695320129,0.974440098,-0.748359859,2.022450209,-1.082637072,-60,-41,-35,15,176
1695162091311751300,-9.109937668,-2.457648039,-1.07858789,0.042900458,-0.130166918,-0.07500919,-1,-3,-10,13,0,-10.42794514,9.306262016,0.871489406,-0.90637213,2.013523579,-0.764480829,-61,-39,-34,15,174
1695162091312751300,-9.10634613,-2.445677042,-1.086967587,0.042500768,-0.129234299,-0.083003066,-1,0,-13,14,1,-10.52850151,8.931569099,0.764947414,-1.045465589,1.996203661,-0.458182245,-60,-39,-33,14,176
1695162091443000100,-8.992621422,-2.260126352,-1.22583127,0.034506891,-0.088465542,-0.201845318,-2,0,-10,15,3,-10.94269848,4.045003891,0.658405483,-0.050761104,0.702661514,2.381375074,-59,-39,-34,24,172
1695162091444000100,-8.984241486,-2.245761156,-1.238999367,0.035173047,-0.085534461,-0.20624195,-4,-5,-7,13,4,-10.82538319,3.994725466,0.673967779,0.124704443,0.629784048,2.366186857,-60,-41,-34,21,172
1695162091445000100,-8.981847763,-2.233790159,-1.244984865,0.036238898,-0.082470134,-0.210638598,-4,0,-8,13,4,-10.71285534,3.973177671,0.684741676,0.297771841,0.557972431,2.337542295,-59,-34,-31,28,176
1695162091446000100,-8.974664688,-2.224213362,-1.248576164,0.037038282,-0.079672284,-0.214768767,-2,-3,-10,15,0,-10.60032845,3.957615376,0.691924274,0.469240427,0.486826956,2.29624033,-60,-40,-33,24,174
1695162091447000100,-8.966285706,-2.217030764,-1.250970364,0.037970904,-0.076874427,-0.21863246,2,0,-11,13,4,-10.49139214,3.952826977,0.688332975,0.637777925,0.417013764,2.2442801,-60,-37,-37,22,168
1695162091581921100,-8.807070732,-2.04464817,-1.33716166,0.057289433,-0.017453292,-0.272058189,-1,-1,-8,14,3,-8.544905663,5.849034786,1.37427175,1.931453347,-0.63218224,0.846817791,-59,-41,-29,28,173
1695162091582921100,-8.80467701,-2.036268473,-1.340752959,0.057156201,-0.01505513,-0.273523748,0,0,-8,13,4,-8.451532364,5.960365295,1.417367458,1.857509971,-0.665623307,0.806182206,-55,-37,-34,28,169
1695162091583921100,-8.801085472,-2.023100376,-1.346738458,0.056889739,-0.011324655,-0.275655419,-6,0,-8,13,4,-8.360552788,6.06451273,1.453280449,1.771709085,-0.696399689,0.769410431,-60,-40,-31,29,172
1695162091584921100,-8.801085472,-2.011129379,-1.350329757,0.056223582,-0.007727412,-0.277653903,-1,-3,-9,14,4,-8.277952194,6.159083843,1.484405041,1.675915837,-0.724378288,0.736235797,-59,-41,-29,27,171
1695162091585921100,-8.798690796,-1.996764183,-1.352723956,0.055557426,-0.004130168,-0.279385895,-5,-2,-8,14,2,-8.204929352,6.240486622,1.507149935,1.571062803,-0.749292493,0.70639205,-60,-34,-31,31,172
1695162091628892500,-8.950722694,-1.837549806,-1.343147159,0.007727412,0.057822358,-0.289911181,-1,0,-9,13,2,-8.36294651,5.84065485,0.665588081,-0.494154662,-0.826966286,0.437131703,-60,-35,-30,30,174
1695162091629892500,-8.963891029,-1.826775908,-1.340752959,0.002931087,0.059820827,-0.290444106,-1,-1,-9,14,3,-8.421604156,5.771223068,0.605733037,-0.554908097,-0.824035227,0.433800906,-60,-41,-25,28,170
1695162091630892500,-8.980650902,-1.817199111,-1.33955586,-0.0021317,0.061819296,-0.291509956,-1,-5,-11,15,1,-8.482656479,5.704185486,0.550666392,-0.609133244,-0.820837617,0.431802452,-61,-37,-31,25,168
1695162091631892500,-8.995016098,-1.810016513,-1.343147159,-0.007594181,0.063817769,-0.292709023,-3,-2,-9,13,4,-8.543708801,5.635950565,0.492008448,-0.657362938,-0.817906559,0.431269497,-60,-39,-31,28,170
1695162091632892500,-9.008183479,-1.806425214,-1.346738458,-0.013456355,0.065683,-0.294041336,-2,0,-9,14,2,-8.602366447,5.571307182,0.441730201,-0.699730456,-0.815108716,0.43220216,-60,-41,-33,29,171
1695162091665895600,-9.077615738,-1.705868721,-1.345541358,-0.169736609,0.114845328,-0.348399699,-1,0,-8,14,3,-9.392453194,4.582501888,-0.003591303,-0.724378288,-0.681078076,0.802585006,-60,-41,-31,24,169
1695162091666895600,-9.06803894,-1.70946002,-1.340752959,-0.177197546,0.119108729,-0.351464033,-1,-2,-11,14,3,-9.410409927,4.538209438,-0.019153614,-0.699064314,-0.669620216,0.839489996,-60,-37,-31,25,170
1695162091667895600,-9.06205368,-1.70946002,-1.335964561,-0.183992341,0.12337213,-0.354395092,-1,0,-7,17,5,-9.429563522,4.49271965,-0.029927522,-0.671885133,-0.65762943,0.877594173,-56,-37,-31,29,169
1695162091668895600,-9.059659004,-1.70946002,-1.334767461,-0.189987749,0.12723583,-0.357592642,-3,0,-12,14,4,-9.446322441,4.447229862,-0.039504327,-0.643373668,-0.645771801,0.916897416,-60,-40,-31,25,174
1695162091669895600,-9.057265282,-1.70946002,-1.329979062,-0.195183769,0.131366,-0.360390514,-1,-1,-9,14,3,-9.458293915,4.404133797,-0.04309563,-0.613263428,-0.633514524,0.957133234,-60,-36,-29,26,172
1695162091707871300,-8.963891029,-1.656787634,-1.277306557,-0.207707509,0.206908107,-0.34693414,-1,0,-8,13,1,-9.570821762,3.859453201,-0.01436521,0.045431852,-0.405822366,1.706958652,-60,-39,-32,24,167
1695162091708871300,-8.950722694,-1.650802016,-1.270123959,-0.20570904,0.213303223,-0.341738135,-1,0,-9,14,4,-9.569623947,3.851073503,-0.010773907,0.06981317,-0.397561997,1.735470057,-58,-40,-29,25,172
1695162091709871300,-8.937555313,-1.650802016,-1.26294136,-0.20357734,0.219698325,-0.335875928,-3,-3,-9,15,2,-9.576807022,3.866635799,-0.003591303,0.087932616,-0.391033709,1.761450291,-60,-40,-28,26,168
1695162091710871300,-8.919598579,-1.649604917,-1.254561663,-0.201445624,0.226493105,-0.329480857,-2,-1,-9,14,1,-9.562441826,3.839102507,-0.004788403,0.104586519,-0.385837674,1.785032153,-58,-41,-29,28,170
1695162091711871300,-8.907627106,-1.650802016,-1.237802267,-0.199047476,0.233554363,-0.322819293,-1,0,-6,16,5,-9.542090416,3.805583715,0.007182605,0.124837674,-0.38024193,1.809147,-59,-40,-31,26,171
1695162091751822500,-8.783128738,-1.67115283,-1.022324085,-0.102987751,0.25660339,-0.138960183,-1,0,-6,14,6,-9.066842079,3.587711334,0.277727395,0.176264927,-0.252872884,1.987543583,-60,-41,-28,30,169
1695162091752822500,-8.783128738,-1.663970232,-1.009155989,-0.096992344,0.249941811,-0.127102599,0,2,-8,18,7,-9.033323288,3.573346138,0.29807812,0.165872887,-0.244346097,1.981281757,-60,-40,-24,29,169
1695162091753822500,-8.783128738,-1.657984734,-1.000776291,-0.091130167,0.243013784,-0.115111791,-1,0,-6,19,7,-9.002198219,3.555389643,0.313640416,0.154681474,-0.235153139,1.973421097,-59,-44,-25,30,168
1695162091754822500,-8.783128738,-1.653196216,-0.992396593,-0.085800916,0.235552832,-0.10285452,-1,0,-7,15,7,-8.975862503,3.53503871,0.325611442,0.142424196,-0.225693718,1.964228153,-58,-41,-28,29,169
1695162091755822500,-8.777143478,-1.647210717,-0.985213995,-0.080738127,0.228091896,-0.090064317,-1,1,-6,18,8,-8.943540573,3.517082214,0.337582439,0.129767224,-0.21556814,1.953303218,-59,-44,-29,30,168
1695162091792800400,-8.864531517,-1.644816518,-0.922964752,-0.063284837,0.131632462,0.171335369,-1,0,-7,16,7,-8.299500465,3.193865061,0.636857629,-0.188255742,0.025047474,1.458482385,-57,-39,-24,32,169
1695162091793800400,-8.884882927,-1.657984734,-0.922964752,-0.064084224,0.129633993,0.186124057,-1,0,-7,16,4,-8.267178535,3.173514366,0.650025785,-0.20357734,0.038637057,1.421444058,-57,-39,-23,31,172
1695162091794800400,-8.904036522,-1.673547029,-0.924161851,-0.064483918,0.127901986,0.200646251,0,-1,-6,16,7,-8.243236542,3.15914917,0.656011283,-0.213303223,0.047830015,1.396396637,-58,-40,-27,26,168
1695162091795800400,-8.921992302,-1.687912226,-0.921767652,-0.06461715,0.126036748,0.214768767,4,0,-6,14,4,-8.207323074,3.137601376,0.663193882,-0.227425739,0.061019909,1.35829246,-58,-39,-28,30,170
1695162091796800400,-8.943540573,-1.707065821,-0.916979253,-0.064350687,0.124304749,0.228891268,1,1,-5,14,7,-8.172607422,3.117250681,0.66798228,-0.240748852,0.073810108,1.319655418,-58,-42,-22,30,170
1695162091828800600,-9.269151688,-2.037465572,-0.866701007,-0.009059724,0.0678147,0.404490054,0,1,-6,18,7,-7.759607792,2.82396102,0.769735873,-0.33401072,0.20157887,0.597542107,-60,-39,-28,30,169
1695162091829800600,-9.287108421,-2.051830769,-0.864306808,-0.004396631,0.063817769,0.409153163,-1,0,-8,15,7,-7.752425194,2.82396102,0.782903969,-0.333344579,0.202378258,0.565300167,-57,-39,-20,31,170
1695162091830800600,-9.307458878,-2.064998865,-0.858321309,0.000666156,0.059954058,0.41288361,-1,3,-6,18,7,-7.741651058,2.825158119,0.791283667,-0.332545161,0.203177631,0.533591092,-59,-41,-23,28,173
1695162091831800600,-9.33020401,-2.081758261,-0.848744512,0.005728943,0.05595712,0.41608116,0,0,-7,17,5,-7.739256859,2.82276392,0.805648863,-0.331346095,0.203310877,0.502548277,-55,-39,-25,31,168
1695162091832800600,-9.355342865,-2.096123695,-0.851138711,0.011191424,0.051826954,0.418879032,-1,0,-6,17,9,-7.740454197,2.82036972,0.824802458,-0.330147028,0.203177631,0.472171485,-58,-40,-27,31,169
1695162091879942700,-9.809044838,-2.30801034,-0.708683729,0.119375192,-0.02797856,0.386237353,0,0,-6,18,7,-8.151060104,2.839523315,0.827196658,-0.249275655,0.116044402,-0.038104136,-59,-39,-24,30,170
1695162091880942700,-9.818621635,-2.309207439,-0.702698171,0.122972436,-0.032241959,0.380641639,0,1,-6,20,3,-8.192957878,2.834734917,0.814028561,-0.238750383,0.104453288,-0.062485453,-60,-41,-28,30,171
1695162091881942700,-9.822212219,-2.311601639,-0.690727174,0.12616998,-0.036372125,0.374246567,-2,0,-11,14,3,-8.234856606,2.831143618,0.800860465,-0.22702603,0.092196018,-0.086866774,-60,-41,-24,27,167
1695162091882942700,-9.822212219,-2.315192938,-0.679953277,0.128301695,-0.040102605,0.367451757,-1,-1,-11,13,3,-8.277952194,2.825158119,0.782903969,-0.214369074,0.079405814,-0.111248083,-60,-41,-28,29,169
1695162091883942700,-9.824606895,-2.311601639,-0.673967779,0.12936753,-0.043833077,0.360124022,-2,0,-11,14,-1,-8.322244644,2.817975283,0.762553215,-0.200912714,0.065949462,-0.135762632,-60,-41,-28,29,170
1695162091994091500,-9.321824074,-1.938106298,-0.746990919,-0.101655439,-0.091796324,0.092196018,-1,0,-9,14,4,-8.927978516,3.026270866,0.41060558,0.130033687,-0.14282389,-0.644439518,-58,-42,-23,28,169
1695162091995091500,-9.283516884,-1.910573006,-0.758961916,-0.129101068,-0.093661562,0.073143952,-1,-5,-11,12,0,-8.949525833,3.057395458,0.399831682,0.142690659,-0.144689128,-0.675082684,-60,-46,-24,30,170
1695162091996091500,-9.245209694,-1.885433793,-0.772130072,-0.157212853,-0.095393561,0.053958651,-3,-3,-10,18,3,-8.969876289,3.092111588,0.383072257,0.154415011,-0.145222053,-0.70639205,-60,-43,-25,29,170
1695162091997091500,-9.208099365,-1.865083098,-0.782903969,-0.1854579,-0.097258806,0.035572741,-3,-1,-8,13,3,-8.991424561,3.124433279,0.36990416,0.164807037,-0.144555897,-0.738234282,-60,-40,-24,31,169
1695162091998091500,-9.168595314,-1.848323703,-0.793677866,-0.213436455,-0.098990813,0.017719755,-4,-2,-11,13,5,-9.015366554,3.15914917,0.355538964,0.174266458,-0.142557427,-0.770742714,-58,-42,-27,28,170
1695162092031071000,-8.705317497,-1.793257117,-0.980425596,-0.443526804,-0.070745789,-0.058222052,-1,-3,-8,14,2,-9.066842079,4.08809948,0.381875157,0.103387438,0.09352833,-1.474203706,-59,-43,-28,27,170
1695162092032071000,-8.70172596,-1.799242616,-0.986411095,-0.432868302,-0.067548238,-0.044232771,-2,0,-8,13,3,-9.048885345,4.149151325,0.390254885,0.082603365,0.113646246,-1.510842323,-60,-40,-21,30,172
1695162092033071000,-8.70172596,-1.805228114,-0.994790792,-0.419545174,-0.065016843,-0.028111791,-2,0,-8,15,1,-9.033323288,4.210203648,0.401028782,0.059687596,0.133897394,-1.547347546,-59,-41,-24,31,170
1695162092034071000,-8.702922821,-1.814804912,-1.009155989,-0.403290957,-0.062751912,-0.010392036,-1,-3,-8,13,2,-9.020154953,4.272452831,0.418985307,0.034906585,0.154548228,-1.583320141,-56,-40,-21,29,170
1695162092035071000,-8.704120636,-1.824381709,-1.016338587,-0.384238869,-0.060886677,0.009192956,-1,-1,-7,15,3,-9.003395081,4.334702015,0.429759204,0.007993874,0.175199077,-1.61849308,-60,-41,-23,28,168
1695162092088562700,-8.953117371,-2.132036686,-1.124077678,0.303234309,-0.139892802,0.565433383,-2,0,-9,13,5,-8.757989883,5.319916248,0.648828685,-0.798454821,0.533191383,-2.074410439,-59,-41,-25,29,173
1695162092089562700,-8.969876289,-2.139219284,-1.125274777,0.346800923,-0.14748697,0.595810115,-1,-1,-12,14,3,-8.756793022,5.349843502,0.647631586,-0.845485449,0.546781003,-2.083470106,-57,-40,-23,28,172
1695162092090562700,-8.984241486,-2.144007683,-1.126471877,0.389168471,-0.15481469,0.625520647,-2,0,-8,13,3,-8.760383606,5.376179695,0.651222885,-0.892649293,0.559837699,-2.091064215,-58,-39,-22,30,171
1695162092091562700,-9.003395081,-2.15358448,-1.128866076,0.429937184,-0.161742732,0.653632462,-1,-2,-9,22,3,-8.76636982,5.396530628,0.651222885,-0.938880503,0.571961701,-2.096926451,-58,-39,-21,30,172
1695162092092562700,-9.020154953,-2.159569979,-1.128866076,0.469240427,-0.168670759,0.680811644,-1,-1,-12,15,3,-8.775946617,5.414487362,0.650025785,-0.98377949,0.583153129,-2.101056576,-57,-40,-24,28,169
1695162092157477800,-9.301473618,-2.363077164,-1.253364563,0.852679908,-0.272058189,0.887586534,-2,0,-11,13,7,-8.995016098,5.102043629,0.280121595,-1.423309445,0.526396632,-1.817007661,-58,-44,-24,25,169
1695162092158477800,-9.309853554,-2.365471363,-1.267729759,0.853612542,-0.275921881,0.878926516,-2,-2,-7,13,3,-9.004592896,5.051765442,0.250194073,-1.413183808,0.507078111,-1.781701326,-59,-44,-28,28,170
1695162092159477800,-9.31823349,-2.366668463,-1.277306557,0.852280259,-0.279119462,0.868134797,-1,1,-12,15,3,-9.014169693,5.001487255,0.213083953,-1.399061322,0.486160785,-1.744396567,-60,-41,-27,24,169
1695162092160477800,-9.326612473,-2.370259762,-1.289277673,0.848816216,-0.281650841,0.855211318,-3,-1,-11,15,4,-9.026140213,4.950012207,0.179565132,-1.380675435,0.463644713,-1.705093384,-56,-38,-25,25,172
1695162092161477800,-9.338583946,-2.371456861,-1.303642869,0.84295404,-0.283782542,0.84042269,-2,-2,-9,15,3,-9.039308548,4.896142483,0.144849196,-1.358159304,0.439796329,-1.663791776,-60,-39,-28,25,169
1695162092285514500,-9.454702377,-2.428917646,-1.44849205,0.44978866,-0.200113311,0.35159725,-1,-1,-12,15,1,-9.30386734,4.031835556,-0.319625914,-0.207574263,-0.12337213,-0.593012273,-59,-40,-27,28,172
1695162092286514500,-9.458293915,-2.433706045,-1.459265947,0.4243415,-0.191453278,0.319222063,-4,0,-9,18,1,-9.311050415,4.019864559,-0.33399114,-0.124038287,-0.149485439,-0.5339908,-57,-43,-25,26,168
1695162092287514500,-9.461885452,-2.444479942,-1.467645645,0.39996019,-0.182926491,0.28671363,-3,0,-9,13,3,-9.314641953,4.013879299,-0.339976639,-0.040768761,-0.174799383,-0.475635529,-58,-41,-27,24,170
1695162092288514500,-9.461885452,-2.455253839,-1.474828243,0.376777947,-0.17453292,0.254071981,-5,0,-12,13,0,-9.321824074,4.012681961,-0.349553436,0.042234302,-0.198914245,-0.418745786,-59,-41,-28,22,170
1695162092289514500,-9.465476036,-2.468421936,-1.476025343,0.354928017,-0.166139349,0.221563548,0,-1,-9,14,4,-9.327810287,4.013879299,-0.356736064,0.124704443,-0.221563548,-0.362921923,-58,-40,-29,24,169
1695162092394671000,-9.333795547,-2.382230759,-1.456871748,0.192119434,-0.06008729,-0.270459414,-2,-1,-7,13,1,-9.093177795,4.546588898,-0.287304193,1.226660013,-0.397428781,0.435399711,-58,-41,-25,28,172
1695162092395671000,-9.319430351,-2.363077164,-1.459265947,0.190520674,-0.056223582,-0.289111793,-5,0,-7,13,4,-9.066842079,4.582501888,-0.281318694,1.245978594,-0.394630939,0.462712079,-57,-45,-28,26,169
1695162092396671000,-9.307458878,-2.341529369,-1.456871748,0.18905513,-0.052359879,-0.306964755,-1,-2,-9,13,3,-9.040505409,4.618414879,-0.268150598,1.261033654,-0.391033709,0.488692194,-60,-41,-11,24,170
1695162092397671000,-9.290699959,-2.321178436,-1.44968915,0.187722817,-0.048629403,-0.323885113,-3,-4,-11,13,4,-9.015366554,4.65193367,-0.257376671,1.27195859,-0.387036771,0.513606429,-59,-41,-21,26,169
1695162092398671000,-9.277531624,-2.299630642,-1.45088625,0.186257273,-0.045032158,-0.340139359,-2,0,-11,14,4,-8.993818283,4.6842556,-0.246602774,1.2787534,-0.382240415,0.537321568,-60,-41,-23,26,168
1695162092466631800,-9.032125473,-1.918952703,-1.460463047,0.149751917,-0.003597243,-0.516271055,-1,-2,-8,13,7,-9.344569206,4.90571928,-0.134075299,0.873464048,-0.29710567,0.794990778,-58,-41,-24,29,172
1695162092467631800,-9.017760277,-1.900996208,-1.460463047,0.146820813,-0.002664625,-0.521067381,-1,-1,-13,16,4,-9.333795547,4.916493416,-0.110133275,0.833094954,-0.288578868,0.796056688,-58,-40,-24,28,168
1695162092468631800,-9.008183479,-1.885433793,-1.465251446,0.14388974,-0.002264931,-0.525330782,-1,0,-9,19,5,-9.311050415,4.928464413,-0.087388359,0.791393518,-0.278852999,0.795923412,-56,-40,-25,28,168
1695162092469631800,-8.998606682,-1.869871497,-1.467645645,0.140558958,-0.001465544,-0.529594183,-1,0,-8,16,4,-9.279925346,4.941632271,-0.068234749,0.748226643,-0.267661542,0.793924928,-57,-41,-24,25,168
1695162092470631800,-8.990227699,-1.851915002,-1.474828243,0.137094945,-0.000799387,-0.533324659,-5,0,-9,15,5,-9.241618156,4.953603268,-0.039504327,0.703860641,-0.255137831,0.790460944,-60,-41,-25,26,170
1695162092543583600,-8.839392662,-1.631648421,-1.52630353,0.068081163,0.033441041,-0.573294044,1,1,-7,18,5,-8.045714378,4.724956989,0.172382519,-0.213436455,0.145355284,0.689604938,-60,-40,-24,30,170
1695162092544583600,-8.840589523,-1.622071624,-1.52630353,0.064084224,0.036771823,-0.574226677,-1,0,-9,18,8,-8.026560783,4.692635536,0.180762231,-0.253405809,0.165473193,0.695600271,-56,-42,-24,25,171
1695162092545583600,-8.8429842,-1.614889026,-1.52510643,0.060220521,0.040369064,-0.574892759,0,0,-6,18,7,-8.015787125,4.661510944,0.192733243,-0.292042881,0.184791744,0.702928066,-59,-38,-24,28,170
1695162092546583600,-8.846575737,-1.606509328,-1.52390933,0.056356817,0.044099543,-0.575692177,0,1,-6,15,4,-8.013393402,4.631583214,0.207098454,-0.329747319,0.203177631,0.711321592,-59,-43,-28,28,168
1695162092547583600,-8.846575737,-1.602918029,-1.522712231,0.052626338,0.047963247,-0.576491535,2,1,-8,18,7,-8.019378662,4.599261284,0.226252064,-0.366252691,0.220764175,0.720647812,-55,-40,-25,28,169
1695162092624561200,-8.875306129,-1.545457244,-1.41018486,-0.004929556,0.129500762,-0.611264884,-1,0,-6,18,5,-8.939949036,4.022258759,0.732625723,-0.866136253,0.428338438,0.908770263,-60,-40,-25,27,171
1695162092625561200,-8.877699852,-1.541865945,-1.399410844,-0.009192956,0.133231238,-0.615661561,-1,0,-6,14,8,-8.996212959,3.988739967,0.752976418,-0.880525291,0.431269497,0.912500799,-59,-39,-31,28,170
1695162092626561200,-8.881291389,-1.537077546,-1.383848548,-0.013722817,0.136961713,-0.62072432,-1,0,-6,16,4,-9.048885345,3.960009575,0.769735873,-0.893448651,0.433401227,0.915165424,-58,-40,-23,26,170
1695162092627561200,-8.886079788,-1.529894829,-1.363497853,-0.018785605,0.141091883,-0.625920355,-1,0,-6,14,5,-9.096769333,3.928884983,0.776918471,-0.905173004,0.434200615,0.917030632,-60,-43,-28,26,170
1695162092628561200,-8.892065048,-1.522712231,-1.344344258,-0.024114855,0.145888209,-0.631382823,-1,0,-11,15,4,-9.142259598,3.895366192,0.782903969,-0.91569829,0.433800906,0.91783005,-60,-41,-27,28,168
1695162092699519200,-9.245209694,-1.593341231,-0.208295554,-0.221297085,0.323885113,-0.826966286,1,1,-6,16,5,-9.217676163,3.363853455,0.81761986,-0.822836161,0.230223581,0.791926503,-58,-39,-24,28,170
1695162092700519200,-9.273940086,-1.600523829,-0.111330383,-0.24154824,0.333211303,-0.844952524,-1,0,-8,16,7,-9.198522568,3.359065056,0.835576415,-0.800320029,0.215434924,0.781934142,-58,-40,-23,25,168
1695162092701519200,-9.312247276,-1.605312228,-0.01436521,-0.264064312,0.340805531,-0.863471627,0,0,-8,20,5,-9.174580574,3.355473757,0.857124209,-0.776071966,0.201445624,0.772075057,-60,-41,-25,25,168
1695162092702519200,-9.351752281,-1.594538331,0.086191259,-0.289644688,0.346001506,-0.882790208,0,0,-7,13,4,-9.151836395,3.360262156,0.884657502,-0.75009191,0.188388973,0.762349188,-59,-41,-27,25,170
1695162092703519200,-9.393650055,-1.580173135,0.177170932,-0.319355279,0.348932624,-0.90277487,-1,0,-7,14,4,-9.126696587,3.374627352,0.913387954,-0.723045945,0.175865233,0.753022969,-60,-43,-27,28,170
1695162092784444400,-9.679757118,-0.278924495,0.266953498,-1.669520617,-0.15428178,-1.429571152,1,0,-13,14,9,-9.235632896,6.448782444,2.760514498,-0.281917304,0.338140905,0.790993869,-57,-44,-27,26,169
1695162092785444400,-9.655815125,-0.262165099,0.237025961,-1.779170036,-0.192385912,-1.458215952,-1,1,-6,13,3,-9.242815971,6.665457726,2.881421804,-0.276588053,0.366252691,0.819372118,-57,-39,-27,24,172
