timestamp,EMG_s0,EMG_s1,EMG_s2,EMG_s3,EMG_s4,EMG_s5,EMG_s6,EMG_s7
1.695162022130893e+18,0.0,-1.0,1.0,2.0,3.0,3.0,0.0,1.0
1.695162022130893e+18,1.0,0.0,0.0,0.0,-1.0,0.0,0.0,0.0
1.695162022130893e+18,2.0,2.0,2.0,-1.0,-1.0,1.0,-1.0,1.0
1.695162022131892e+18,2.0,2.0,1.0,-1.0,1.0,1.0,0.0,-1.0
1.6951620221328914e+18,0.0,0.0,-1.0,-1.0,0.0,-1.0,1.0,0.0
1.6951620221328914e+18,-1.0,-2.0,-1.0,-1.0,-1.0,0.0,-2.0,0.0
1.6951620221338913e+18,-1.0,-1.0,0.0,0.0,-1.0,-1.0,0.0,0.0
1.6951620221338913e+18,0.0,-1.0,0.0,-1.0,-1.0,0.0,0.0,1.0
1.6951620221579008e+18,1.0,-1.0,-2.0,0.0,-1.0,0.0,-1.0,0.0
1.6951620221579008e+18,0.0,0.0,-1.0,0.0,2.0,-1.0,0.0,0.0
1.6951620221608755e+18,0.0,0.0,0.0,0.0,2.0,-1.0,-2.0,-2.0
1.6951620221608755e+18,-1.0,0.0,-1.0,-3.0,-1.0,-2.0,1.0,-1.0
1.695162022162902e+18,-1.0,0.0,0.0,-2.0,0.0,-3.0,-2.0,-2.0
1.695162022162902e+18,0.0,0.0,1.0,0.0,0.0,1.0,1.0,1.0
1.6951620221728704e+18,-2.0,-1.0,-2.0,-3.0,-2.0,-1.0,0.0,1.0
1.6951620221728704e+18,-2.0,-3.0,0.0,-1.0,-1.0,-2.0,-4.0,-2.0
1.6951620221778696e+18,0.0,0.0,0.0,-1.0,-1.0,-3.0,1.0,0.0
1.6951620221788672e+18,0.0,0.0,1.0,-2.0,-1.0,0.0,1.0,0.0
1.6951620221938588e+18,-2.0,0.0,-4.0,1.0,1.0,0.0,1.0,-1.0
1.6951620221938588e+18,1.0,-1.0,0.0,-3.0,-4.0,0.0,-2.0,-1.0
1.6951620222108493e+18,-1.0,0.0,-1.0,-1.0,-5.0,-2.0,-1.0,0.0
1.6951620222108493e+18,-2.0,0.0,1.0,-2.0,-1.0,-1.0,-2.0,-2.0
1.6951620222168456e+18,3.0,4.0,6.0,2.0,6.0,4.0,0.0,1.0
1.6951620222168456e+18,-1.0,-6.0,-11.0,-5.0,-4.0,-1.0,-3.0,-2.0
1.6951620222178445e+18,1.0,0.0,4.0,9.0,5.0,1.0,1.0,-1.0
1.6951620222188452e+18,-3.0,-3.0,-10.0,-7.0,-3.0,-4.0,-1.0,0.0
1.6951620222398543e+18,0.0,-3.0,5.0,1.0,-2.0,2.0,0.0,0.0
1.6951620222398543e+18,0.0,2.0,4.0,-3.0,-4.0,-3.0,-2.0,0.0
1.6951620222798088e+18,-2.0,-1.0,-8.0,-5.0,0.0,0.0,0.0,0.0
1.6951620222798088e+18,-1.0,-2.0,-1.0,0.0,-4.0,-4.0,-2.0,-3.0
1.6951620222798088e+18,-1.0,-1.0,-1.0,-2.0,-3.0,-3.0,-3.0,-1.0
1.6951620222808125e+18,0.0,0.0,1.0,0.0,0.0,-2.0,-2.0,0.0
1.6951620222838067e+18,1.0,2.0,1.0,1.0,2.0,1.0,1.0,2.0
1.6951620222838067e+18,0.0,-1.0,0.0,0.0,1.0,-1.0,0.0,2.0
1.6951620222838067e+18,0.0,2.0,3.0,0.0,4.0,-1.0,-1.0,0.0
1.6951620222838067e+18,1.0,-1.0,-2.0,1.0,5.0,8.0,2.0,0.0
1.6951620222908006e+18,-1.0,0.0,3.0,-1.0,-5.0,-13.0,-3.0,-2.0
1.6951620222908006e+18,2.0,1.0,-1.0,-5.0,-11.0,-3.0,-1.0,-1.0
1.6951620223027945e+18,0.0,1.0,3.0,3.0,3.0,12.0,2.0,0.0
1.6951620223027945e+18,0.0,2.0,2.0,5.0,8.0,3.0,2.0,1.0
1.6951620223057938e+18,0.0,-3.0,1.0,1.0,-1.0,2.0,0.0,0.0
1.6951620223057938e+18,-2.0,-1.0,1.0,2.0,5.0,-4.0,-2.0,-2.0
1.6951620223217833e+18,-1.0,-2.0,-4.0,-8.0,-10.0,-8.0,-4.0,-1.0
1.6951620223217833e+18,0.0,-1.0,-3.0,-3.0,-4.0,-2.0,-1.0,1.0
1.6951620223407754e+18,-1.0,-2.0,-4.0,-8.0,0.0,-3.0,-2.0,0.0
1.6951620223407754e+18,-2.0,2.0,4.0,-3.0,-6.0,1.0,1.0,-2.0
1.6951620223517665e+18,-1.0,1.0,-1.0,4.0,11.0,4.0,3.0,1.0
1.6951620223517665e+18,-1.0,1.0,-4.0,-8.0,-3.0,-1.0,1.0,0.0
1.695162022352766e+18,0.0,2.0,6.0,8.0,1.0,1.0,0.0,-1.0
1.6951620223537682e+18,-1.0,-1.0,-1.0,-4.0,-2.0,-2.0,3.0,0.0
1.6951620223647583e+18,0.0,-1.0,4.0,9.0,1.0,0.0,0.0,-1.0
1.6951620223657605e+18,-1.0,-2.0,-7.0,-5.0,2.0,-1.0,-2.0,-3.0
1.695162022389747e+18,1.0,1.0,-5.0,-5.0,0.0,1.0,-12.0,0.0
1.695162022389747e+18,-1.0,-1.0,-1.0,-1.0,-3.0,-3.0,5.0,-1.0
1.6951620223907443e+18,-1.0,0.0,-1.0,-2.0,-1.0,6.0,0.0,0.0
1.6951620223907443e+18,-3.0,-1.0,3.0,-2.0,-9.0,-15.0,-10.0,-3.0
1.6951620223917486e+18,2.0,0.0,-3.0,0.0,0.0,3.0,12.0,0.0
1.6951620223927427e+18,-1.0,-1.0,-1.0,4.0,12.0,7.0,0.0,1.0
1.6951620224027366e+18,1.0,0.0,0.0,-3.0,-2.0,4.0,13.0,2.0
1.6951620224027366e+18,0.0,1.0,5.0,8.0,4.0,6.0,1.0,-1.0
1.6951620224187292e+18,-3.0,0.0,2.0,0.0,1.0,0.0,-9.0,0.0
1.6951620224187292e+18,0.0,-1.0,-4.0,-3.0,0.0,1.0,6.0,-1.0
1.6951620224257347e+18,-3.0,-3.0,-6.0,-8.0,-14.0,-13.0,-4.0,-2.0
1.6951620224257347e+18,-1.0,0.0,1.0,-4.0,5.0,-2.0,-3.0,-2.0
1.6951620224347205e+18,-1.0,0.0,5.0,23.0,-2.0,0.0,-1.0,-2.0
1.6951620224347205e+18,-3.0,-4.0,6.0,4.0,1.0,3.0,-11.0,0.0
1.6951620224497106e+18,-2.0,-2.0,-2.0,-6.0,-7.0,-6.0,-6.0,1.0
1.6951620224497106e+18,0.0,1.0,-5.0,-5.0,1.0,6.0,4.0,2.0
1.6951620224517112e+18,-2.0,-2.0,-6.0,-7.0,5.0,0.0,0.0,-2.0
1.6951620224527096e+18,0.0,1.0,-7.0,-6.0,-8.0,-14.0,-22.0,-2.0
1.695162022463726e+18,2.0,-3.0,-3.0,-6.0,-9.0,0.0,18.0,2.0
1.695162022464705e+18,-2.0,-1.0,2.0,2.0,2.0,0.0,-7.0,-1.0
1.6951620224717005e+18,3.0,4.0,3.0,2.0,11.0,21.0,39.0,1.0
1.6951620224726996e+18,0.0,-1.0,-5.0,-5.0,12.0,11.0,-4.0,5.0
1.6951620224856896e+18,-3.0,-3.0,2.0,5.0,3.0,-15.0,-15.0,-1.0
1.6951620224856896e+18,0.0,0.0,6.0,4.0,-13.0,-8.0,-6.0,-2.0
1.6951620225017044e+18,-3.0,-4.0,-11.0,-12.0,-15.0,-18.0,-26.0,-8.0
1.6951620225026798e+18,0.0,-1.0,3.0,3.0,1.0,8.0,20.0,1.0
1.6951620225096768e+18,2.0,2.0,-10.0,-10.0,-6.0,7.0,23.0,0.0
1.6951620225096768e+18,1.0,-2.0,0.0,2.0,1.0,9.0,1.0,-1.0
1.6951620225106755e+18,-1.0,-1.0,-5.0,-8.0,3.0,-2.0,-2.0,-2.0
1.6951620225106755e+18,-2.0,-3.0,7.0,21.0,3.0,3.0,2.0,-1.0
1.6951620225226918e+18,-4.0,-7.0,-13.0,-16.0,-17.0,-21.0,-13.0,-4.0
1.6951620225226918e+18,-1.0,-1.0,3.0,-1.0,10.0,-4.0,-18.0,-3.0
1.6951620225406664e+18,-2.0,-2.0,-3.0,-3.0,15.0,28.0,30.0,5.0
1.6951620225416573e+18,1.0,1.0,-1.0,-3.0,0.0,1.0,20.0,-2.0
1.6951620225456584e+18,0.0,2.0,-1.0,2.0,-8.0,-18.0,-66.0,-13.0
1.6951620225466785e+18,-1.0,-1.0,3.0,-1.0,-25.0,10.0,73.0,10.0
1.6951620225616466e+18,-1.0,-5.0,-1.0,-11.0,-5.0,-10.0,-13.0,-4.0
1.6951620225616466e+18,-1.0,-2.0,-1.0,4.0,-5.0,-4.0,18.0,1.0
1.6951620225826575e+18,-2.0,2.0,6.0,3.0,2.0,-2.0,-30.0,-8.0
1.6951620225836575e+18,0.0,1.0,-9.0,-15.0,-17.0,-15.0,-23.0,-9.0
1.6951620225836575e+18,-1.0,1.0,11.0,19.0,2.0,3.0,16.0,9.0
1.6951620225836575e+18,3.0,3.0,-4.0,-4.0,2.0,8.0,14.0,1.0
1.6951620225836575e+18,-8.0,-16.0,-13.0,-11.0,3.0,8.0,17.0,-1.0
1.6951620225836575e+18,0.0,-5.0,-20.0,-26.0,-1.0,-2.0,-14.0,-1.0
1.6951620226396024e+18,0.0,3.0,3.0,-5.0,-7.0,-5.0,13.0,-2.0
1.6951620226396024e+18,1.0,3.0,28.0,39.0,-4.0,-12.0,-30.0,-2.0
1.6951620226396024e+18,5.0,3.0,-23.0,-27.0,12.0,21.0,27.0,4.0
1.6951620226396024e+18,-4.0,1.0,2.0,5.0,13.0,-7.0,-32.0,-10.0
1.6951620226396024e+18,-4.0,-8.0,-3.0,-1.0,-12.0,-9.0,-6.0,0.0
1.6951620226396024e+18,-3.0,-4.0,-10.0,-10.0,-2.0,-15.0,-27.0,-8.0
1.6951620226396024e+18,3.0,8.0,26.0,26.0,10.0,14.0,18.0,6.0
1.695162022640603e+18,0.0,0.0,-2.0,5.0,3.0,-6.0,1.0,2.0
1.695162022640603e+18,-1.0,3.0,3.0,7.0,-2.0,-11.0,-36.0,-10.0
1.695162022640603e+18,2.0,-1.0,-22.0,-24.0,14.0,14.0,22.0,9.0
1.6951620226446003e+18,-2.0,-6.0,15.0,20.0,8.0,26.0,42.0,9.0
1.6951620226485978e+18,2.0,3.0,5.0,-13.0,-5.0,-3.0,-1.0,1.0
1.695162022651595e+18,-5.0,-1.0,7.0,18.0,1.0,-11.0,-11.0,-1.0
1.695162022651595e+18,3.0,8.0,-9.0,-5.0,4.0,5.0,7.0,-2.0
1.695162022674582e+18,-5.0,-13.0,-7.0,-10.0,-5.0,-24.0,-65.0,-20.0
1.695162022674582e+18,-4.0,-3.0,-2.0,7.0,5.0,5.0,26.0,16.0
1.6951620226755812e+18,2.0,3.0,7.0,-8.0,-7.0,14.0,8.0,11.0
1.6951620226755812e+18,-4.0,7.0,-3.0,-8.0,-5.0,-27.0,-69.0,-27.0
1.6951620227125599e+18,6.0,6.0,6.0,13.0,9.0,19.0,47.0,19.0
1.6951620227135619e+18,-5.0,-8.0,3.0,3.0,-9.0,-12.0,-14.0,-9.0
1.6951620227145587e+18,3.0,4.0,0.0,2.0,-5.0,10.0,18.0,4.0
1.6951620227145587e+18,1.0,-4.0,-12.0,-18.0,-1.0,5.0,11.0,3.0
1.6951620227155581e+18,-2.0,-2.0,9.0,6.0,-9.0,-19.0,-13.0,-10.0
1.6951620227155581e+18,2.0,-6.0,16.0,22.0,15.0,20.0,-17.0,1.0
1.6951620227275533e+18,2.0,13.0,-16.0,-10.0,7.0,9.0,23.0,6.0
1.6951620227285517e+18,-1.0,-15.0,3.0,-2.0,2.0,1.0,5.0,-3.0
1.6951620227285517e+18,-4.0,-3.0,4.0,14.0,2.0,8.0,-4.0,12.0
1.6951620227285517e+18,2.0,7.0,-18.0,-19.0,-11.0,-11.0,-14.0,-8.0
1.6951620227495626e+18,0.0,-21.0,13.0,8.0,8.0,11.0,35.0,3.0
1.6951620227495626e+18,-2.0,-3.0,-4.0,-10.0,-11.0,5.0,22.0,7.0
1.695162022750538e+18,2.0,6.0,-9.0,-4.0,3.0,-2.0,0.0,-1.0
1.695162022750538e+18,-5.0,23.0,-10.0,-6.0,-5.0,-7.0,12.0,-1.0
1.6951620227525366e+18,-3.0,-13.0,-8.0,-13.0,-5.0,-26.0,-51.0,-15.0
1.6951620227525366e+18,1.0,4.0,19.0,25.0,2.0,4.0,-7.0,1.0
1.6951620227965117e+18,2.0,-2.0,-10.0,-17.0,-7.0,-8.0,-3.0,-1.0
1.6951620227965117e+18,1.0,-9.0,8.0,12.0,1.0,8.0,16.0,7.0
1.6951620227975132e+18,-3.0,-3.0,0.0,-3.0,1.0,0.0,-3.0,-6.0
1.6951620227975132e+18,-1.0,5.0,-1.0,-6.0,-10.0,-3.0,3.0,3.0
1.6951620228015283e+18,0.0,18.0,3.0,11.0,-4.0,-9.0,-3.0,-3.0
1.6951620228015283e+18,-2.0,-3.0,-3.0,-10.0,-7.0,-10.0,-27.0,-11.0
1.695162022802509e+18,-2.0,0.0,-15.0,-3.0,-8.0,-4.0,-4.0,2.0
1.695162022802509e+18,-4.0,-12.0,-9.0,-5.0,6.0,-10.0,-2.0,-2.0
1.6951620228165012e+18,-2.0,-14.0,6.0,5.0,11.0,-8.0,7.0,-7.0
1.6951620228165012e+18,-1.0,-1.0,-1.0,1.0,2.0,11.0,-5.0,6.0
1.6951620228224998e+18,-1.0,-2.0,11.0,7.0,-8.0,-10.0,-12.0,-3.0
1.6951620228234967e+18,3.0,4.0,-13.0,-13.0,-13.0,3.0,3.0,8.0
1.6951620228314936e+18,-3.0,8.0,4.0,12.0,16.0,0.0,-5.0,-7.0
1.6951620228314936e+18,-2.0,-11.0,-3.0,1.0,-6.0,-5.0,18.0,1.0
1.695162022835491e+18,-2.0,-13.0,6.0,3.0,1.0,4.0,-17.0,-6.0
1.6951620228405097e+18,-4.0,4.0,9.0,-3.0,-7.0,0.0,1.0,-2.0
1.695162022854582e+18,-1.0,-9.0,-17.0,-6.0,-2.0,-5.0,-13.0,0.0
1.695162022854582e+18,-2.0,-4.0,1.0,10.0,5.0,-11.0,12.0,-10.0
1.6951620228558564e+18,-2.0,8.0,-8.0,-5.0,4.0,3.0,8.0,3.0
1.6951620228558564e+18,3.0,4.0,11.0,-2.0,1.0,-2.0,-11.0,-1.0
1.6951620228763471e+18,2.0,-3.0,2.0,-3.0,-4.0,11.0,23.0,6.0
1.6951620228763471e+18,-3.0,24.0,-16.0,-4.0,0.0,-2.0,-6.0,-7.0
1.695162022894531e+18,2.0,-7.0,-4.0,-12.0,-5.0,-1.0,7.0,-3.0
1.695162022894531e+18,-5.0,-16.0,-5.0,2.0,-4.0,-4.0,-22.0,-12.0
1.69516202289553e+18,2.0,-2.0,3.0,-4.0,-2.0,5.0,24.0,8.0
1.69516202289553e+18,4.0,22.0,-8.0,-1.0,5.0,20.0,7.0,5.0
1.6951620229155855e+18,0.0,-5.0,6.0,0.0,1.0,-3.0,-15.0,0.0
1.6951620229155855e+18,1.0,3.0,0.0,0.0,2.0,3.0,0.0,14.0
1.695162022916587e+18,-1.0,0.0,-2.0,-5.0,-10.0,0.0,-12.0,-7.0
1.695162022916587e+18,1.0,-6.0,-4.0,-2.0,0.0,-5.0,-14.0,-4.0
1.6951620229175926e+18,-2.0,0.0,-3.0,-2.0,9.0,3.0,5.0,-6.0
1.6951620229185915e+18,3.0,3.0,0.0,0.0,-1.0,13.0,11.0,5.0
1.6951620229375913e+18,-4.0,-11.0,7.0,0.0,1.0,2.0,0.0,-1.0
1.6951620229386007e+18,1.0,-3.0,4.0,-3.0,-1.0,6.0,-1.0,7.0
1.6951620229396058e+18,0.0,8.0,-11.0,-19.0,-17.0,-11.0,-11.0,-9.0
1.6951620229396058e+18,-8.0,-19.0,12.0,25.0,7.0,-12.0,-10.0,-8.0
1.6951620229526198e+18,-1.0,6.0,-20.0,-20.0,-9.0,-10.0,-13.0,-3.0
1.6951620229526198e+18,2.0,-8.0,10.0,4.0,13.0,31.0,33.0,6.0
1.6951620229535895e+18,-1.0,4.0,-4.0,2.0,2.0,0.0,0.0,5.0
1.6951620229545866e+18,-5.0,4.0,-3.0,-5.0,-7.0,-13.0,-7.0,-5.0
1.6951620229915136e+18,-1.0,1.0,-10.0,-5.0,-9.0,-11.0,-18.0,-7.0
1.6951620229925133e+18,-3.0,-8.0,5.0,4.0,-8.0,-21.0,-10.0,-4.0
1.6951620229935127e+18,0.0,0.0,-2.0,-3.0,4.0,-6.0,-26.0,0.0
1.6951620229935127e+18,-1.0,-1.0,-4.0,-12.0,-17.0,-16.0,17.0,-6.0
1.695162022994511e+18,-4.0,-8.0,4.0,4.0,11.0,1.0,6.0,-2.0
1.695162022994511e+18,-1.0,8.0,-3.0,-6.0,2.0,2.0,-13.0,-7.0
1.6951620230035082e+18,2.0,-7.0,10.0,12.0,5.0,3.0,-8.0,3.0
1.6951620230055076e+18,1.0,6.0,-3.0,6.0,-1.0,3.0,20.0,3.0
1.6951620230125005e+18,-5.0,-6.0,5.0,-1.0,-3.0,0.0,2.0,-1.0
1.6951620230135012e+18,-4.0,-7.0,4.0,1.0,-4.0,-13.0,-8.0,-10.0
1.695162023026493e+18,-5.0,9.0,-10.0,-7.0,-10.0,-10.0,10.0,-7.0
1.695162023027493e+18,3.0,2.0,-15.0,-12.0,0.0,1.0,-14.0,-4.0
1.695162023027493e+18,9.0,2.0,11.0,10.0,-2.0,0.0,16.0,-2.0
1.695162023027493e+18,-2.0,-6.0,-9.0,0.0,7.0,32.0,39.0,16.0
1.6951620230594734e+18,1.0,8.0,6.0,8.0,-2.0,6.0,4.0,1.0
1.6951620230594734e+18,-1.0,-2.0,-9.0,-11.0,8.0,-2.0,-16.0,2.0
1.6951620230604723e+18,-3.0,-1.0,2.0,1.0,2.0,6.0,-10.0,-2.0
1.6951620230604723e+18,1.0,-8.0,18.0,7.0,-7.0,-30.0,-22.0,-18.0
1.695162023068468e+18,3.0,-2.0,-12.0,-2.0,-4.0,18.0,1.0,13.0
1.695162023068468e+18,-10.0,11.0,9.0,-5.0,4.0,6.0,22.0,2.0
1.6951620231094477e+18,2.0,3.0,-9.0,-4.0,-2.0,4.0,-17.0,0.0
1.6951620231094477e+18,-3.0,-5.0,-1.0,4.0,13.0,14.0,30.0,7.0
1.6951620231564173e+18,-8.0,30.0,-12.0,-3.0,-9.0,-25.0,-52.0,-21.0
1.6951620231564173e+18,5.0,-14.0,4.0,7.0,6.0,3.0,6.0,5.0
1.6951620231574164e+18,0.0,5.0,4.0,-3.0,-5.0,1.0,-7.0,8.0
1.6951620231574164e+18,4.0,7.0,11.0,7.0,-4.0,-16.0,-24.0,-6.0
1.6951620231704084e+18,-2.0,3.0,-49.0,-32.0,-10.0,-5.0,7.0,9.0
1.6951620231704084e+18,-1.0,-12.0,11.0,6.0,1.0,8.0,5.0,3.0
1.6951620231714145e+18,1.0,-4.0,-4.0,-4.0,0.0,6.0,13.0,10.0
1.6951620231724083e+18,1.0,0.0,-6.0,-12.0,-9.0,-20.0,-12.0,-3.0
1.6951620231724083e+18,0.0,8.0,3.0,1.0,-5.0,-5.0,6.0,-8.0
1.6951620231724083e+18,1.0,0.0,-3.0,-2.0,0.0,3.0,0.0,2.0
1.6951620231724083e+18,-2.0,-5.0,0.0,1.0,-2.0,-3.0,-1.0,-2.0
1.69516202317341e+18,1.0,-6.0,1.0,1.0,10.0,0.0,-2.0,-1.0
1.6951620232303757e+18,-6.0,-17.0,3.0,1.0,3.0,-2.0,2.0,-2.0
1.6951620232303757e+18,-4.0,-8.0,0.0,-2.0,3.0,6.0,8.0,3.0
1.6951620232313761e+18,6.0,6.0,3.0,1.0,0.0,2.0,1.0,6.0
1.6951620232313761e+18,-2.0,0.0,1.0,3.0,3.0,5.0,-9.0,0.0
1.695162023232374e+18,1.0,6.0,12.0,13.0,0.0,-2.0,5.0,-3.0
1.695162023232374e+18,-1.0,3.0,-8.0,-8.0,-3.0,0.0,-2.0,1.0
1.6951620232433661e+18,5.0,-4.0,-1.0,-5.0,-3.0,-6.0,3.0,1.0
1.6951620232433661e+18,-5.0,1.0,-5.0,-3.0,-1.0,3.0,9.0,-2.0
1.695162023266357e+18,0.0,7.0,-12.0,-7.0,1.0,-5.0,-10.0,-5.0
1.695162023267356e+18,-3.0,-14.0,21.0,30.0,2.0,2.0,3.0,1.0
1.6951620232683548e+18,0.0,3.0,-11.0,-17.0,-9.0,-2.0,5.0,2.0
1.6951620232683548e+18,3.0,6.0,-1.0,2.0,-1.0,4.0,8.0,0.0
1.6951620232823468e+18,-2.0,8.0,-7.0,3.0,11.0,2.0,-1.0,-3.0
1.6951620232823468e+18,-2.0,4.0,-6.0,-14.0,-7.0,-7.0,-6.0,-3.0
1.6951620232833467e+18,1.0,-1.0,13.0,24.0,6.0,4.0,9.0,6.0
1.6951620232833467e+18,1.0,1.0,-10.0,-14.0,-3.0,-2.0,-4.0,0.0
1.695162023295361e+18,-5.0,-6.0,-10.0,-3.0,0.0,-3.0,-4.0,-4.0
1.695162023296337e+18,3.0,-2.0,-3.0,-8.0,-7.0,0.0,-2.0,2.0
1.6951620233043328e+18,1.0,2.0,-6.0,-8.0,2.0,2.0,3.0,-2.0
1.6951620233053348e+18,-3.0,-7.0,5.0,10.0,5.0,5.0,5.0,1.0
1.6951620233183242e+18,-2.0,-8.0,2.0,-1.0,-2.0,-4.0,1.0,0.0
1.6951620233183242e+18,1.0,-11.0,-3.0,2.0,3.0,3.0,5.0,1.0
1.695162023343311e+18,-3.0,3.0,-6.0,-13.0,-3.0,-3.0,0.0,-4.0
1.6951620233443123e+18,0.0,3.0,10.0,8.0,0.0,-1.0,-2.0,4.0
1.6951620233443123e+18,2.0,-13.0,4.0,5.0,6.0,2.0,1.0,-1.0
1.695162023345316e+18,-6.0,0.0,-14.0,-8.0,-5.0,-3.0,-4.0,-2.0
1.6951620233712942e+18,3.0,4.0,-4.0,-8.0,-2.0,-3.0,-1.0,0.0
1.6951620233722936e+18,-3.0,-5.0,0.0,6.0,1.0,1.0,2.0,-2.0
1.6951620233722936e+18,-3.0,-6.0,0.0,0.0,-1.0,0.0,-3.0,-3.0
1.6951620233722936e+18,0.0,-2.0,-3.0,-3.0,-2.0,1.0,0.0,0.0
1.69516202338129e+18,1.0,0.0,0.0,-4.0,-1.0,0.0,0.0,0.0
1.69516202338129e+18,-1.0,-4.0,2.0,3.0,0.0,1.0,1.0,-3.0
1.695162023382287e+18,-2.0,-3.0,0.0,0.0,1.0,0.0,-3.0,-1.0
1.695162023382287e+18,1.0,-1.0,-1.0,-1.0,0.0,0.0,-1.0,-1.0
1.6951620233853092e+18,-1.0,-3.0,-1.0,-1.0,1.0,1.0,1.0,1.0
1.6951620233853092e+18,2.0,1.0,2.0,4.0,-1.0,-1.0,-2.0,-1.0
1.6951620233952806e+18,-2.0,0.0,-1.0,-2.0,1.0,-2.0,0.0,1.0
1.6951620233982781e+18,-3.0,-3.0,1.0,0.0,-2.0,0.0,0.0,0.0
1.6951620233982781e+18,0.0,0.0,-2.0,-2.0,-1.0,0.0,-4.0,-2.0
1.6951620234022758e+18,0.0,-2.0,1.0,-1.0,-2.0,-1.0,1.0,-2.0
1.6951620234252628e+18,-3.0,-4.0,-1.0,-1.0,2.0,1.0,-1.0,0.0
1.6951620234252628e+18,-2.0,-4.0,1.0,1.0,-1.0,0.0,1.0,-1.0
1.6951620234312614e+18,2.0,0.0,-1.0,-3.0,-1.0,-1.0,-1.0,0.0
1.6951620234312614e+18,1.0,1.0,-1.0,1.0,0.0,-4.0,-1.0,-1.0
1.6951620234312614e+18,-3.0,-4.0,-2.0,1.0,3.0,-1.0,-2.0,0.0
1.6951620234322616e+18,1.0,0.0,0.0,1.0,1.0,-1.0,-1.0,-1.0
1.6951620234472525e+18,0.0,0.0,-1.0,-2.0,-1.0,0.0,0.0,-1.0
1.6951620234472525e+18,5.0,-3.0,0.0,0.0,-1.0,-2.0,-1.0,0.0
1.6951620234922248e+18,-6.0,-1.0,0.0,0.0,0.0,0.0,-2.0,-1.0
1.6951620234922248e+18,1.0,0.0,-1.0,-2.0,-4.0,-3.0,-3.0,-2.0
1.6951620235002194e+18,0.0,1.0,0.0,0.0,1.0,0.0,4.0,0.0
1.6951620235012193e+18,-4.0,-4.0,1.0,2.0,1.0,1.0,-3.0,-1.0
1.6951620235012193e+18,-2.0,-2.0,-4.0,-3.0,-2.0,-1.0,0.0,-1.0
1.6951620235012193e+18,1.0,1.0,-2.0,0.0,-1.0,-1.0,-2.0,-1.0
1.6951620235032182e+18,-1.0,-2.0,3.0,2.0,-2.0,-2.0,0.0,-2.0
1.6951620235032182e+18,-1.0,0.0,1.0,2.0,-4.0,-2.0,0.0,-1.0
1.6951620235072172e+18,1.0,-3.0,-7.0,-8.0,-2.0,-1.0,-3.0,-1.0
1.6951620235072172e+18,-1.0,2.0,5.0,5.0,0.0,-2.0,0.0,-1.0
1.6951620235362232e+18,-1.0,1.0,3.0,0.0,0.0,-1.0,-1.0,0.0
1.6951620235362232e+18,0.0,-3.0,-5.0,-5.0,-3.0,-2.0,0.0,0.0
1.6951620235451948e+18,-1.0,0.0,0.0,1.0,-1.0,-2.0,0.0,-1.0
1.6951620235451948e+18,-2.0,1.0,2.0,-4.0,-3.0,-3.0,-4.0,0.0
1.6951620235461942e+18,0.0,-1.0,-15.0,-4.0,1.0,3.0,1.0,0.0
1.6951620235461942e+18,-2.0,-2.0,8.0,-1.0,-1.0,1.0,-2.0,-3.0
1.6951620235471936e+18,-1.0,-3.0,5.0,12.0,3.0,1.0,-1.0,-1.0
1.695162023548196e+18,-2.0,-1.0,-3.0,-5.0,-2.0,1.0,1.0,-1.0
1.6951620235501942e+18,-2.0,-5.0,2.0,-1.0,-4.0,-6.0,-4.0,1.0
1.6951620235501942e+18,0.0,1.0,-4.0,-4.0,-4.0,-2.0,-1.0,0.0
1.6951620235591882e+18,2.0,2.0,-2.0,-4.0,0.0,2.0,0.0,2.0
1.6951620235591882e+18,0.0,0.0,-5.0,-2.0,-2.0,-1.0,-2.0,-2.0
1.69516202357518e+18,1.0,-1.0,-10.0,6.0,7.0,6.0,1.0,-1.0
1.695162023583174e+18,0.0,-5.0,18.0,3.0,-1.0,0.0,0.0,-2.0
1.6951620236001638e+18,0.0,4.0,-7.0,-5.0,-4.0,1.0,0.0,-1.0
1.6951620236001638e+18,-2.0,-3.0,-7.0,-1.0,-2.0,-3.0,0.0,-1.0
1.6951620236001638e+18,0.0,3.0,7.0,-1.0,-4.0,-3.0,-1.0,-1.0
1.6951620236001638e+18,-2.0,-6.0,-7.0,0.0,-3.0,-6.0,-4.0,-3.0
1.6951620236031616e+18,-2.0,-7.0,-8.0,-1.0,-1.0,-6.0,-2.0,-2.0
1.6951620236031616e+18,0.0,3.0,0.0,-6.0,-2.0,1.0,0.0,0.0
1.6951620236101806e+18,0.0,-2.0,14.0,3.0,0.0,1.0,0.0,-2.0
1.6951620236111565e+18,1.0,3.0,-10.0,1.0,-2.0,-2.0,-1.0,0.0
1.695162023619152e+18,-1.0,-9.0,14.0,0.0,5.0,2.0,-1.0,-1.0
1.695162023619152e+18,1.0,0.0,-6.0,4.0,3.0,0.0,-2.0,-1.0
1.6951620236341427e+18,-2.0,-7.0,2.0,-4.0,-3.0,-3.0,-1.0,0.0
1.6951620236341427e+18,1.0,7.0,1.0,3.0,2.0,2.0,-1.0,0.0
1.695162023635143e+18,-2.0,2.0,-7.0,-8.0,-2.0,-3.0,-3.0,-2.0
1.695162023636142e+18,-2.0,-6.0,-7.0,-4.0,1.0,-1.0,1.0,-1.0
1.6951620236571313e+18,1.0,5.0,12.0,3.0,-1.0,-1.0,-1.0,-2.0
1.6951620236571313e+18,1.0,0.0,-3.0,-1.0,1.0,0.0,1.0,0.0
1.6951620236581307e+18,-3.0,2.0,12.0,4.0,-1.0,-1.0,-2.0,1.0
1.6951620236581307e+18,-1.0,-5.0,-17.0,0.0,1.0,-1.0,-1.0,-1.0
1.6951620236701225e+18,-1.0,-4.0,-9.0,-3.0,-4.0,-2.0,-3.0,-2.0
1.6951620236711306e+18,0.0,1.0,2.0,-2.0,-3.0,-5.0,-1.0,1.0
1.6951620236791178e+18,0.0,0.0,-5.0,-1.0,2.0,2.0,0.0,1.0
1.6951620236791178e+18,1.0,2.0,9.0,2.0,3.0,8.0,2.0,0.0
1.6951620236941082e+18,-1.0,2.0,-1.0,-1.0,1.0,0.0,0.0,-2.0
1.6951620236941082e+18,-3.0,-4.0,-4.0,-4.0,2.0,0.0,0.0,-3.0
1.6951620236951094e+18,1.0,1.0,-2.0,-1.0,-5.0,-5.0,1.0,0.0
1.6951620236961075e+18,-3.0,-2.0,3.0,0.0,-5.0,-4.0,-2.0,-2.0
1.6951620237170954e+18,-1.0,-1.0,-2.0,0.0,-2.0,-3.0,-1.0,-1.0
1.6951620237170954e+18,0.0,0.0,-4.0,-1.0,2.0,-1.0,0.0,-1.0
1.695162023718095e+18,0.0,-1.0,-5.0,-3.0,-2.0,0.0,1.0,0.0
1.695162023718095e+18,-1.0,0.0,4.0,1.0,0.0,0.0,0.0,-1.0
1.6951620237300884e+18,-1.0,-1.0,-5.0,0.0,0.0,1.0,-1.0,1.0
1.6951620237310902e+18,-1.0,-1.0,-1.0,-1.0,-1.0,0.0,-1.0,0.0
1.6951620237430958e+18,0.0,1.0,-1.0,-2.0,-1.0,-1.0,0.0,0.0
1.6951620237430958e+18,0.0,-1.0,1.0,-2.0,0.0,-1.0,-1.0,0.0
1.6951620237610724e+18,0.0,0.0,-2.0,2.0,-3.0,0.0,-1.0,1.0
1.6951620237610724e+18,1.0,-2.0,-1.0,-1.0,-1.0,0.0,-1.0,0.0
1.6951620237690688e+18,-1.0,-2.0,0.0,0.0,-2.0,-1.0,-2.0,-2.0
1.6951620237690688e+18,-1.0,1.0,2.0,-1.0,-3.0,-2.0,-2.0,-1.0
1.6951620237780849e+18,0.0,1.0,0.0,-2.0,-2.0,-1.0,0.0,-2.0
1.6951620237810624e+18,0.0,0.0,-1.0,0.0,1.0,0.0,-1.0,0.0
1.6951620237810624e+18,-1.0,-2.0,0.0,0.0,-1.0,0.0,0.0,0.0
1.6951620237820593e+18,-2.0,-1.0,0.0,0.0,-2.0,-2.0,-2.0,-1.0
1.6951620237900536e+18,-1.0,0.0,0.0,-2.0,-1.0,0.0,-3.0,-1.0
1.6951620237910564e+18,-2.0,-1.0,-1.0,-1.0,0.0,-3.0,-2.0,-1.0
1.6951620237990546e+18,0.0,0.0,0.0,0.0,-3.0,-2.0,-1.0,-1.0
1.6951620237990546e+18,-1.0,-1.0,-1.0,-3.0,-1.0,-2.0,0.0,0.0
1.695162023822036e+18,-2.0,-2.0,-1.0,-1.0,-1.0,0.0,-2.0,-1.0
1.695162023822036e+18,-1.0,0.0,-1.0,-2.0,-1.0,1.0,0.0,-1.0
1.6951620238230354e+18,-1.0,1.0,-2.0,-2.0,0.0,-1.0,-2.0,-1.0
1.6951620238240358e+18,2.0,0.0,1.0,1.0,-2.0,-2.0,0.0,-2.0
1.6951620238370276e+18,0.0,-2.0,-4.0,-1.0,-1.0,-2.0,-2.0,-1.0
1.6951620238370276e+18,0.0,-2.0,-2.0,-1.0,-1.0,-1.0,0.0,-2.0
1.6951620238380316e+18,-1.0,0.0,-1.0,-1.0,-1.0,-3.0,-1.0,0.0
1.6951620238380316e+18,-2.0,-1.0,-1.0,0.0,-2.0,-2.0,-2.0,0.0
1.695162023850023e+18,1.0,-1.0,1.0,-1.0,-2.0,0.0,0.0,-1.0
1.6951620238510195e+18,-2.0,-2.0,-1.0,0.0,-2.0,0.0,-1.0,-2.0
1.6951620238590182e+18,-1.0,-1.0,0.0,0.0,-1.0,0.0,-1.0,-2.0
1.6951620238590182e+18,0.0,0.0,0.0,0.0,-2.0,-2.0,-1.0,0.0
1.69516202387401e+18,1.0,-1.0,-1.0,-2.0,1.0,-1.0,0.0,-1.0
1.69516202387401e+18,-2.0,-1.0,-1.0,-1.0,0.0,-1.0,0.0,-2.0
1.695162023880002e+18,0.0,0.0,-1.0,-2.0,-1.0,0.0,-1.0,0.0
1.6951620238810043e+18,-1.0,0.0,-1.0,-3.0,0.0,1.0,1.0,1.0
1.695162023896993e+18,0.0,1.0,0.0,-1.0,-1.0,-1.0,-2.0,0.0
1.695162023896993e+18,1.0,0.0,0.0,-1.0,0.0,-1.0,-2.0,0.0
1.6951620238979917e+18,-1.0,0.0,1.0,0.0,2.0,0.0,0.0,-1.0
1.6951620238989919e+18,-2.0,-1.0,2.0,0.0,0.0,-1.0,-2.0,-2.0
1.695162023911985e+18,0.0,-2.0,-2.0,-2.0,-2.0,-1.0,1.0,0.0
1.6951620239129846e+18,-1.0,1.0,0.0,1.0,-1.0,0.0,-1.0,1.0
1.6951620239269757e+18,-2.0,-3.0,-3.0,-1.0,-1.0,0.0,0.0,-1.0
1.6951620239269757e+18,-2.0,-3.0,-2.0,0.0,-1.0,1.0,-1.0,-1.0
1.6951620239329715e+18,-2.0,-1.0,-1.0,0.0,0.0,-1.0,-1.0,0.0
1.6951620239339712e+18,0.0,1.0,0.0,-1.0,-1.0,1.0,0.0,0.0
1.6951620239489633e+18,-1.0,0.0,0.0,0.0,-2.0,-2.0,-1.0,-2.0
1.6951620239489633e+18,-2.0,0.0,3.0,-1.0,0.0,-1.0,-1.0,1.0
1.6951620239639565e+18,-1.0,-1.0,-14.0,-4.0,-1.0,0.0,-1.0,-1.0
1.6951620239649564e+18,-2.0,0.0,-1.0,0.0,0.0,-2.0,0.0,-3.0
1.6951620239659533e+18,-1.0,-1.0,-4.0,1.0,-1.0,0.0,-2.0,-1.0
1.6951620239659533e+18,0.0,-2.0,3.0,-1.0,-1.0,-1.0,0.0,-1.0
1.695162023970951e+18,0.0,0.0,7.0,1.0,-1.0,-1.0,0.0,0.0
1.695162023970951e+18,-3.0,-6.0,-17.0,-3.0,-2.0,-1.0,-1.0,-1.0
1.6951620239869412e+18,-1.0,2.0,9.0,1.0,0.0,-1.0,-1.0,2.0
1.6951620239869412e+18,0.0,1.0,0.0,-1.0,0.0,-1.0,-3.0,0.0
1.6951620240019338e+18,-1.0,0.0,2.0,0.0,-1.0,0.0,0.0,-2.0
1.6951620240019338e+18,1.0,-1.0,-2.0,0.0,-1.0,0.0,0.0,0.0
1.6951620240049316e+18,-1.0,-4.0,2.0,-2.0,-2.0,-1.0,-1.0,-1.0
1.6951620240059336e+18,0.0,2.0,-7.0,-1.0,-2.0,0.0,-2.0,-2.0
1.6951620240249208e+18,-2.0,-8.0,1.0,-2.0,-3.0,-1.0,0.0,-1.0
1.6951620240259197e+18,-2.0,1.0,-11.0,-4.0,-2.0,1.0,-2.0,-1.0
1.6951620240259197e+18,0.0,-3.0,-4.0,3.0,-1.0,-1.0,-3.0,-1.0
1.6951620240259197e+18,-2.0,0.0,3.0,-1.0,-3.0,-1.0,-1.0,-1.0
1.695162024039912e+18,-1.0,2.0,2.0,-1.0,0.0,-2.0,-1.0,-2.0
1.695162024039912e+18,-1.0,-3.0,5.0,1.0,0.0,-1.0,0.0,0.0
1.695162024040911e+18,0.0,-1.0,-8.0,0.0,0.0,-2.0,1.0,0.0
1.695162024040911e+18,0.0,2.0,19.0,2.0,2.0,0.0,0.0,-2.0
1.695162024053904e+18,-2.0,-7.0,-41.0,-3.0,-1.0,-1.0,-1.0,-2.0
1.6951620240549033e+18,-3.0,-6.0,5.0,-2.0,-2.0,-2.0,0.0,-3.0
1.6951620240609021e+18,0.0,1.0,-3.0,-1.0,-1.0,0.0,0.0,0.0
1.6951620240609021e+18,1.0,5.0,9.0,3.0,0.0,2.0,1.0,1.0
1.6951620240778895e+18,0.0,-10.0,8.0,2.0,3.0,2.0,-1.0,0.0
1.6951620240878843e+18,2.0,2.0,-14.0,-6.0,-2.0,-1.0,0.0,2.0
1.6951620240898844e+18,-1.0,0.0,4.0,-1.0,-2.0,0.0,0.0,-2.0
1.6951620240898844e+18,0.0,-7.0,-32.0,-6.0,-3.0,-2.0,-1.0,-2.0
1.6951620240928812e+18,0.0,11.0,25.0,4.0,-1.0,-1.0,0.0,0.0
1.695162024093883e+18,0.0,-7.0,12.0,5.0,1.0,1.0,-2.0,0.0
1.6951620241028751e+18,-2.0,-1.0,-2.0,0.0,0.0,0.0,-1.0,-1.0
1.695162024103875e+18,-1.0,3.0,0.0,-1.0,-1.0,0.0,0.0,-1.0
1.6951620241138693e+18,0.0,2.0,-6.0,-4.0,0.0,0.0,0.0,0.0
1.6951620241138693e+18,0.0,2.0,6.0,-1.0,-1.0,-1.0,-3.0,-1.0
1.6951620241208648e+18,0.0,0.0,0.0,-3.0,-1.0,1.0,-1.0,0.0
1.6951620241208648e+18,-1.0,-7.0,-5.0,2.0,0.0,-2.0,-1.0,0.0
1.6951620241368548e+18,-2.0,1.0,0.0,0.0,-1.0,-3.0,-1.0,0.0
1.6951620241368548e+18,0.0,1.0,4.0,1.0,-1.0,-1.0,-2.0,-2.0
1.6951620241388544e+18,2.0,1.0,-2.0,-1.0,0.0,-1.0,-1.0,0.0
1.6951620241388544e+18,-2.0,-2.0,-6.0,-2.0,-1.0,-1.0,-1.0,-1.0
1.6951620241588436e+18,-2.0,0.0,4.0,-2.0,-1.0,0.0,-2.0,1.0
1.6951620241598426e+18,-1.0,4.0,0.0,1.0,-1.0,0.0,-1.0,-1.0
1.6951620241608417e+18,-1.0,-2.0,-5.0,-1.0,0.0,0.0,-1.0,0.0
1.6951620241608417e+18,-1.0,-1.0,1.0,-2.0,0.0,-1.0,-1.0,-1.0
1.695162024173835e+18,0.0,1.0,0.0,-1.0,0.0,0.0,-1.0,-1.0
1.695162024173835e+18,-3.0,-2.0,-3.0,0.0,-2.0,-1.0,0.0,-2.0
1.6951620241798318e+18,-2.0,1.0,-1.0,-2.0,-1.0,-1.0,0.0,0.0
1.6951620241808307e+18,2.0,-1.0,2.0,-1.0,-2.0,-1.0,0.0,0.0
1.6951620241968215e+18,0.0,0.0,0.0,0.0,1.0,-1.0,-2.0,-1.0
1.6951620241968215e+18,0.0,0.0,-1.0,-2.0,0.0,-2.0,-1.0,-1.0
1.695162024202818e+18,-1.0,-4.0,1.0,-2.0,0.0,-1.0,0.0,-1.0
1.695162024202818e+18,-2.0,-1.0,0.0,1.0,-1.0,0.0,1.0,-1.0
1.695162024220808e+18,-1.0,0.0,-1.0,-2.0,-2.0,-1.0,-2.0,0.0
1.695162024224825e+18,1.0,0.0,1.0,1.0,-1.0,-1.0,-1.0,0.0
1.695162024224825e+18,-1.0,0.0,-5.0,-3.0,0.0,0.0,-1.0,-2.0
1.695162024224825e+18,-1.0,-1.0,1.0,1.0,0.0,-1.0,-2.0,-1.0
1.6951620242417948e+18,-1.0,-1.0,-2.0,-1.0,-3.0,-1.0,-1.0,0.0
1.6951620242417948e+18,0.0,0.0,1.0,0.0,-1.0,1.0,-1.0,-2.0
1.6951620242427973e+18,0.0,0.0,3.0,0.0,-1.0,0.0,-2.0,-1.0
1.6951620242437988e+18,-1.0,-3.0,-11.0,-3.0,-2.0,-2.0,-1.0,0.0
1.6951620242647872e+18,0.0,-2.0,1.0,0.0,0.0,-1.0,0.0,0.0
1.6951620242647872e+18,-1.0,1.0,0.0,-2.0,0.0,-2.0,0.0,-2.0
1.695162024265787e+18,1.0,-2.0,-1.0,0.0,-2.0,-2.0,1.0,0.0
1.695162024265787e+18,0.0,-1.0,3.0,-1.0,0.0,1.0,-1.0,-1.0
1.6951620242787996e+18,-1.0,-2.0,0.0,-2.0,0.0,-2.0,0.0,-2.0
1.6951620242797765e+18,0.0,-2.0,-2.0,-1.0,-1.0,0.0,-1.0,-1.0
1.6951620242807964e+18,-1.0,1.0,0.0,0.0,0.0,-2.0,-1.0,1.0
1.6951620242807964e+18,0.0,-2.0,-1.0,-1.0,-2.0,-1.0,-1.0,-1.0
1.6951620242977874e+18,-1.0,0.0,-2.0,-1.0,-1.0,0.0,0.0,0.0
1.6951620242977874e+18,0.0,-1.0,-3.0,1.0,-2.0,0.0,0.0,1.0
1.695162024301764e+18,-2.0,-1.0,0.0,-1.0,-1.0,-1.0,-1.0,-1.0
1.695162024301764e+18,-1.0,-1.0,-1.0,0.0,0.0,0.0,-1.0,1.0
1.6951620243237476e+18,0.0,-1.0,-1.0,-2.0,-1.0,-2.0,-1.0,-3.0
1.6951620243247493e+18,-1.0,0.0,0.0,-2.0,-1.0,0.0,0.0,-3.0
1.6951620243257495e+18,1.0,1.0,-1.0,0.0,-2.0,2.0,0.0,-2.0
1.6951620243257495e+18,-1.0,-2.0,0.0,0.0,-1.0,1.0,0.0,1.0
1.6951620243397402e+18,-1.0,-2.0,2.0,1.0,-1.0,0.0,-2.0,-1.0
1.6951620243397402e+18,-1.0,-2.0,-1.0,0.0,0.0,-1.0,-2.0,0.0
1.6951620243407624e+18,-1.0,0.0,-3.0,-2.0,-1.0,-2.0,0.0,-1.0
1.6951620243407624e+18,0.0,1.0,0.0,-1.0,0.0,-1.0,0.0,-2.0
1.6951620243527332e+18,-1.0,-1.0,-2.0,0.0,-1.0,-2.0,1.0,0.0
1.6951620243527332e+18,-1.0,-1.0,-1.0,-2.0,0.0,0.0,0.0,-2.0
1.695162024378718e+18,-1.0,-1.0,0.0,0.0,0.0,0.0,-1.0,-1.0
1.6951620243797176e+18,0.0,1.0,-1.0,-2.0,-1.0,-1.0,-1.0,-1.0
1.6951620243797176e+18,-1.0,-1.0,-1.0,1.0,-1.0,-1.0,0.0,-1.0
1.6951620243797176e+18,0.0,-1.0,0.0,0.0,0.0,-2.0,1.0,0.0
1.6951620243827139e+18,0.0,-1.0,-1.0,0.0,1.0,-2.0,-1.0,-1.0
1.6951620243827139e+18,0.0,0.0,-1.0,-1.0,0.0,-3.0,-3.0,-1.0
1.695162024399705e+18,1.0,0.0,-1.0,-1.0,-2.0,0.0,0.0,0.0
1.695162024399705e+18,-1.0,0.0,-1.0,-2.0,-1.0,-1.0,-1.0,-1.0
1.695162024400704e+18,-2.0,-3.0,-1.0,0.0,0.0,1.0,0.0,0.0
1.695162024400704e+18,-2.0,-2.0,0.0,0.0,0.0,-1.0,-1.0,-1.0
1.6951620244156992e+18,0.0,0.0,-3.0,-1.0,0.0,-1.0,-2.0,-2.0
1.6951620244156992e+18,0.0,-1.0,-1.0,0.0,-1.0,0.0,0.0,0.0
1.6951620244296888e+18,-1.0,-1.0,0.0,-1.0,0.0,1.0,0.0,0.0
1.6951620244296888e+18,-1.0,-2.0,-1.0,-2.0,-1.0,0.0,-2.0,0.0
1.695162024436696e+18,-1.0,0.0,-1.0,-1.0,0.0,0.0,-1.0,-1.0
1.695162024436696e+18,1.0,0.0,-1.0,0.0,-1.0,2.0,-1.0,-1.0
1.695162024438683e+18,-1.0,1.0,-1.0,1.0,-1.0,0.0,-4.0,0.0
1.695162024438683e+18,-2.0,-1.0,-1.0,-1.0,-1.0,-1.0,-2.0,-1.0
1.6951620244666688e+18,-1.0,-2.0,-2.0,-1.0,-1.0,-1.0,0.0,0.0
1.6951620244666688e+18,-2.0,-1.0,2.0,-1.0,-1.0,-1.0,-1.0,2.0
1.695162024468665e+18,0.0,-1.0,-2.0,-2.0,-1.0,-2.0,-1.0,-1.0
1.695162024468665e+18,0.0,0.0,-1.0,-2.0,0.0,0.0,1.0,-2.0
1.6951620244906772e+18,-2.0,-2.0,1.0,-1.0,-1.0,0.0,-2.0,-3.0
1.6951620244906772e+18,-2.0,-2.0,-2.0,0.0,-2.0,-2.0,0.0,-1.0
1.6951620244906772e+18,-1.0,0.0,0.0,0.0,-1.0,-3.0,1.0,0.0
1.6951620244906772e+18,0.0,-1.0,0.0,0.0,-2.0,-1.0,-2.0,-1.0
1.6951620244966733e+18,1.0,-1.0,-1.0,-2.0,-1.0,-2.0,-1.0,-1.0
1.6951620244966733e+18,0.0,-1.0,0.0,-2.0,-1.0,0.0,-2.0,-2.0
1.6951620244986486e+18,0.0,0.0,0.0,-1.0,-1.0,0.0,-1.0,0.0
1.6951620244986486e+18,0.0,0.0,0.0,-1.0,0.0,-1.0,1.0,0.0
1.695162024519638e+18,-1.0,0.0,0.0,0.0,-1.0,-1.0,-1.0,-1.0
1.695162024519638e+18,0.0,-2.0,1.0,-1.0,0.0,-2.0,-1.0,1.0
1.6951620245216353e+18,-1.0,-2.0,0.0,1.0,-1.0,-1.0,0.0,-2.0
1.6951620245216353e+18,-1.0,2.0,1.0,-2.0,1.0,-1.0,-1.0,0.0
1.6951620245416259e+18,0.0,-1.0,1.0,-2.0,-1.0,0.0,-1.0,0.0
1.6951620245416259e+18,-2.0,0.0,-3.0,0.0,0.0,0.0,-1.0,1.0
1.6951620245436252e+18,-1.0,-2.0,0.0,0.0,0.0,-1.0,-1.0,-2.0
1.6951620245436252e+18,-2.0,-1.0,1.0,-1.0,0.0,-1.0,-1.0,-1.0
1.6951620245566387e+18,-1.0,-2.0,0.0,-1.0,-2.0,0.0,1.0,1.0
1.6951620245566387e+18,-1.0,-1.0,-1.0,-1.0,1.0,1.0,-2.0,0.0
1.695162024558614e+18,-2.0,-1.0,-2.0,-1.0,0.0,-1.0,-1.0,1.0
1.695162024558614e+18,-2.0,-1.0,0.0,1.0,0.0,-2.0,0.0,-2.0
1.6951620245796027e+18,-2.0,-1.0,-1.0,0.0,-1.0,-1.0,0.0,-1.0
1.6951620245796027e+18,0.0,-1.0,-1.0,1.0,-2.0,-2.0,-2.0,-1.0
1.6951620246025892e+18,0.0,0.0,-1.0,-2.0,-1.0,1.0,-1.0,-1.0
1.6951620246025892e+18,-1.0,-1.0,-1.0,-2.0,-2.0,0.0,1.0,1.0
1.6951620246035884e+18,-1.0,1.0,0.0,-1.0,0.0,0.0,-1.0,0.0
1.6951620246035884e+18,0.0,0.0,-1.0,0.0,0.0,-1.0,-1.0,-1.0
1.695162024604588e+18,-1.0,-1.0,1.0,0.0,-1.0,-1.0,-1.0,-2.0
1.6951620246055903e+18,-1.0,-1.0,0.0,-1.0,-4.0,-2.0,0.0,-1.0
1.6951620246166042e+18,-1.0,-1.0,-2.0,-2.0,1.0,-2.0,-2.0,-1.0
1.6951620246166042e+18,-1.0,0.0,0.0,-1.0,0.0,0.0,0.0,-1.0
1.69516202461858e+18,1.0,-1.0,-1.0,-2.0,0.0,1.0,0.0,0.0
1.69516202461858e+18,0.0,-2.0,-3.0,-1.0,1.0,-1.0,-1.0,0.0
1.695162024639567e+18,-2.0,-1.0,-2.0,1.0,-1.0,-2.0,-1.0,-1.0
1.695162024639567e+18,-1.0,-1.0,-1.0,-1.0,-1.0,-1.0,-1.0,0.0
1.6951620246405693e+18,0.0,-1.0,-1.0,-3.0,1.0,0.0,-2.0,0.0
1.6951620246405693e+18,0.0,0.0,-1.0,-1.0,-2.0,1.0,-4.0,-1.0
1.6951620246535624e+18,-1.0,0.0,-2.0,-1.0,-3.0,0.0,0.0,-2.0
1.6951620246545597e+18,-1.0,0.0,-2.0,0.0,0.0,-2.0,-3.0,-2.0
1.6951620246695524e+18,-1.0,0.0,-1.0,-1.0,-1.0,0.0,-1.0,-1.0
1.6951620246695524e+18,-1.0,-1.0,-1.0,-1.0,-1.0,1.0,-1.0,-1.0
1.695162024685542e+18,0.0,-2.0,-1.0,0.0,0.0,-1.0,-2.0,-1.0
1.695162024685542e+18,-2.0,-1.0,1.0,0.0,-2.0,-1.0,-1.0,-2.0
1.695162024692538e+18,0.0,-2.0,-2.0,0.0,-2.0,0.0,-1.0,-1.0
1.695162024695537e+18,-1.0,-1.0,0.0,-2.0,-2.0,-1.0,0.0,0.0
1.695162024706529e+18,0.0,0.0,-1.0,0.0,-1.0,-1.0,0.0,0.0
1.695162024706529e+18,-1.0,0.0,-2.0,-2.0,-2.0,0.0,1.0,-2.0
1.6951620247135252e+18,-1.0,0.0,-1.0,1.0,1.0,-3.0,0.0,1.0
1.6951620247135252e+18,-1.0,-1.0,-2.0,0.0,-1.0,1.0,0.0,0.0
1.6951620247145247e+18,-2.0,-1.0,0.0,-1.0,-2.0,-1.0,-2.0,-3.0
1.6951620247145247e+18,-3.0,-1.0,-1.0,-2.0,-1.0,-3.0,-1.0,0.0
1.6951620247215212e+18,1.0,0.0,0.0,0.0,-2.0,-2.0,-1.0,-2.0
1.6951620247225206e+18,1.0,0.0,-1.0,0.0,-2.0,-1.0,-1.0,-1.0
1.695162024744508e+18,0.0,0.0,0.0,1.0,1.0,0.0,-1.0,0.0
1.695162024744508e+18,-1.0,-1.0,-3.0,-1.0,-2.0,0.0,-2.0,0.0
1.6951620247455073e+18,-3.0,-1.0,-3.0,-2.0,-3.0,-2.0,-2.0,0.0
1.6951620247465147e+18,-2.0,-1.0,1.0,0.0,-1.0,1.0,-2.0,-1.0
1.6951620247664942e+18,-1.0,-1.0,-1.0,-1.0,-1.0,-2.0,-2.0,-1.0
1.6951620247664942e+18,-1.0,-3.0,1.0,-2.0,-1.0,-1.0,-3.0,-2.0
1.6951620247684936e+18,-1.0,-1.0,-1.0,-1.0,-1.0,-2.0,0.0,0.0
1.6951620247684936e+18,-1.0,1.0,-3.0,1.0,2.0,-1.0,1.0,-2.0
1.6951620247834854e+18,0.0,-1.0,-1.0,1.0,0.0,-1.0,0.0,-1.0
1.6951620247834854e+18,-1.0,1.0,0.0,-2.0,-1.0,0.0,-1.0,0.0
1.695162024787489e+18,0.0,0.0,1.0,-3.0,-1.0,-2.0,-1.0,1.0
1.6951620247884828e+18,-1.0,-2.0,-1.0,-2.0,1.0,-1.0,-1.0,-1.0
1.695162024797477e+18,0.0,0.0,0.0,1.0,-1.0,0.0,0.0,-2.0
1.695162024797477e+18,-1.0,0.0,-2.0,0.0,0.0,-1.0,0.0,-1.0
1.6951620247984778e+18,-1.0,-2.0,0.0,-2.0,-1.0,0.0,-1.0,-2.0
1.6951620247984778e+18,-2.0,-1.0,-1.0,-1.0,-2.0,-3.0,1.0,1.0
1.6951620248194644e+18,-2.0,-1.0,-2.0,-1.0,-1.0,0.0,-1.0,-1.0
1.69516202482947e+18,0.0,-2.0,-1.0,0.0,0.0,-1.0,-1.0,0.0
1.6951620248304604e+18,-1.0,-1.0,-1.0,-1.0,-1.0,-1.0,0.0,0.0
1.6951620248304604e+18,0.0,-1.0,-2.0,0.0,-2.0,-1.0,-2.0,-2.0
1.6951620248324577e+18,0.0,-1.0,-1.0,-1.0,-2.0,1.0,-2.0,0.0
1.6951620248334582e+18,0.0,-2.0,-1.0,2.0,1.0,-1.0,0.0,-1.0
1.6951620248564426e+18,0.0,0.0,-3.0,1.0,0.0,0.0,-1.0,-1.0
1.6951620248564426e+18,-1.0,0.0,0.0,-2.0,0.0,-2.0,1.0,0.0
1.6951620248574456e+18,0.0,-1.0,-3.0,0.0,-1.0,-2.0,-1.0,0.0
1.6951620248574456e+18,0.0,-1.0,-1.0,-1.0,-2.0,-1.0,0.0,-2.0
1.6951620248744335e+18,-1.0,-1.0,1.0,-1.0,0.0,1.0,0.0,-2.0
1.6951620248754332e+18,0.0,-1.0,0.0,-2.0,-1.0,-2.0,-2.0,-1.0
1.6951620248794301e+18,0.0,0.0,0.0,-1.0,-1.0,-1.0,-1.0,0.0
1.6951620248794301e+18,-2.0,-1.0,0.0,-1.0,-1.0,-2.0,0.0,-1.0
1.695162024880431e+18,-1.0,-2.0,-2.0,0.0,-1.0,-1.0,1.0,-2.0
1.695162024880431e+18,-1.0,-1.0,-1.0,0.0,-2.0,0.0,0.0,-2.0
1.6951620248924237e+18,-1.0,-1.0,-1.0,-3.0,-1.0,0.0,1.0,0.0
1.6951620248934244e+18,0.0,-1.0,-1.0,0.0,0.0,-1.0,-2.0,-1.0
1.6951620249014177e+18,0.0,0.0,0.0,-1.0,1.0,0.0,0.0,-1.0
1.695162024902417e+18,0.0,-2.0,-3.0,1.0,-1.0,-1.0,-2.0,-1.0
1.6951620249174085e+18,-1.0,-1.0,-1.0,0.0,1.0,-1.0,0.0,0.0
1.6951620249224072e+18,-1.0,1.0,0.0,-1.0,0.0,1.0,0.0,-2.0
1.695162024930401e+18,-1.0,-1.0,0.0,0.0,-1.0,-2.0,-1.0,-2.0
1.695162024930401e+18,1.0,1.0,0.0,-2.0,-2.0,-2.0,0.0,0.0
1.6951620249393953e+18,0.0,-2.0,0.0,-2.0,0.0,-1.0,0.0,-1.0
1.6951620249393953e+18,0.0,-2.0,-1.0,-2.0,0.0,1.0,-2.0,0.0
1.6951620249403955e+18,-2.0,-1.0,-1.0,-3.0,0.0,-1.0,-1.0,0.0
1.6951620249413947e+18,1.0,0.0,-2.0,0.0,0.0,0.0,-1.0,1.0
1.6951620249523876e+18,-2.0,-1.0,-2.0,0.0,0.0,-2.0,1.0,-1.0
1.6951620249533916e+18,1.0,-1.0,-1.0,-1.0,-1.0,-1.0,0.0,-1.0
1.6951620249783754e+18,-2.0,0.0,0.0,0.0,-3.0,1.0,-1.0,0.0
1.6951620249783754e+18,-2.0,-2.0,0.0,0.0,-2.0,0.0,0.0,-2.0
1.6951620249783754e+18,0.0,1.0,0.0,-3.0,-2.0,-2.0,-1.0,0.0
1.6951620249793733e+18,-2.0,-2.0,-1.0,-1.0,-1.0,1.0,0.0,0.0
1.695162024984373e+18,-2.0,-1.0,0.0,-1.0,1.0,0.0,-2.0,-1.0
1.695162024984373e+18,0.0,-1.0,-1.0,0.0,-1.0,-1.0,-1.0,-3.0
1.6951620250053606e+18,-1.0,0.0,1.0,-1.0,-1.0,0.0,-3.0,-2.0
1.6951620250053606e+18,-2.0,0.0,-3.0,-1.0,0.0,-1.0,0.0,0.0
1.6951620250053606e+18,0.0,1.0,-1.0,-2.0,-2.0,-2.0,0.0,-1.0
1.6951620250053606e+18,-2.0,-2.0,-1.0,-1.0,1.0,0.0,-1.0,0.0
1.6951620250133594e+18,-1.0,-2.0,-2.0,0.0,-1.0,-1.0,-1.0,-1.0
1.6951620250133594e+18,0.0,1.0,0.0,0.0,-1.0,-2.0,-1.0,-1.0
1.6951620250223496e+18,-1.0,-1.0,0.0,0.0,-1.0,1.0,1.0,-1.0
1.6951620250223496e+18,-1.0,1.0,-1.0,-1.0,0.0,-1.0,0.0,1.0
1.6951620250443356e+18,-3.0,-1.0,-1.0,-1.0,-1.0,1.0,-3.0,-1.0
1.6951620250503347e+18,-1.0,-1.0,-1.0,1.0,-1.0,-1.0,-1.0,-1.0
1.695162025051332e+18,0.0,-1.0,-2.0,0.0,-1.0,0.0,-1.0,-1.0
1.695162025051332e+18,-1.0,-1.0,1.0,-1.0,0.0,-1.0,-1.0,-3.0
1.6951620250593265e+18,-2.0,0.0,-2.0,0.0,0.0,0.0,0.0,-3.0
1.6951620250593265e+18,-3.0,-1.0,1.0,0.0,0.0,-2.0,0.0,-2.0
1.6951620250603284e+18,1.0,0.0,-1.0,-1.0,0.0,-2.0,-2.0,-1.0
1.6951620250613322e+18,-2.0,0.0,-2.0,1.0,0.0,-2.0,-1.0,0.0
1.6951620250823212e+18,0.0,-1.0,-1.0,-3.0,-2.0,-1.0,0.0,-1.0
1.6951620250873226e+18,-1.0,-1.0,0.0,-2.0,1.0,-1.0,-1.0,0.0
1.6951620250883113e+18,-1.0,0.0,1.0,-1.0,-2.0,-3.0,1.0,-2.0
1.6951620250883113e+18,0.0,-1.0,-2.0,-2.0,-1.0,-1.0,1.0,0.0
1.6951620250973064e+18,1.0,-1.0,-2.0,0.0,0.0,0.0,-3.0,0.0
1.6951620250973064e+18,1.0,0.0,0.0,0.0,-1.0,-1.0,0.0,-2.0
1.6951620251033021e+18,-1.0,-2.0,0.0,-1.0,0.0,-2.0,0.0,0.0
1.6951620251033021e+18,0.0,-2.0,-2.0,-1.0,-2.0,-2.0,0.0,-1.0
1.6951620251282908e+18,1.0,-2.0,0.0,-1.0,-1.0,-3.0,-1.0,0.0
1.6951620251282908e+18,0.0,1.0,-2.0,0.0,-2.0,1.0,-2.0,0.0
1.6951620251323092e+18,0.0,-1.0,-1.0,-2.0,-1.0,-1.0,-1.0,-1.0
1.695162025133285e+18,-3.0,-1.0,0.0,-2.0,0.0,0.0,-1.0,-2.0
1.6951620251492746e+18,0.0,0.0,-1.0,0.0,1.0,0.0,-1.0,0.0
1.6951620251492746e+18,0.0,-1.0,1.0,-1.0,-2.0,-3.0,1.0,-1.0
1.6951620251502774e+18,0.0,-2.0,-2.0,-2.0,-1.0,-1.0,0.0,0.0
1.6951620251512783e+18,0.0,-2.0,0.0,1.0,0.0,0.0,-1.0,0.0
1.6951620251562714e+18,0.0,0.0,-1.0,-1.0,2.0,-1.0,-1.0,-1.0
1.6951620251562714e+18,-1.0,-1.0,-2.0,-2.0,-1.0,1.0,1.0,-2.0
1.695162025163272e+18,-1.0,-1.0,-1.0,1.0,-1.0,1.0,-1.0,1.0
1.695162025163272e+18,0.0,0.0,0.0,0.0,-3.0,-2.0,-2.0,-1.0
1.6951620251794967e+18,-1.0,-2.0,-2.0,-1.0,-3.0,-1.0,0.0,-1.0
1.6951620251794967e+18,-1.0,-1.0,0.0,-1.0,-3.0,-1.0,-1.0,0.0
1.6951620251804954e+18,-2.0,-2.0,0.0,-2.0,-1.0,-2.0,0.0,-3.0
1.6951620251815048e+18,1.0,0.0,-2.0,-2.0,0.0,-1.0,-1.0,0.0
1.6951620252114783e+18,-3.0,0.0,-2.0,0.0,-1.0,-1.0,0.0,0.0
1.69516202521348e+18,0.0,-2.0,-3.0,-1.0,1.0,-1.0,-1.0,-1.0
1.6951620252144778e+18,0.0,-1.0,-1.0,1.0,-1.0,0.0,-2.0,0.0
1.6951620252144778e+18,-1.0,-1.0,2.0,-1.0,0.0,-1.0,-1.0,-1.0
1.695162025224449e+18,0.0,-2.0,2.0,-2.0,-3.0,0.0,0.0,-3.0
1.695162025224449e+18,0.0,-2.0,0.0,0.0,-1.0,-1.0,-3.0,0.0
1.6951620252264054e+18,0.0,-1.0,-1.0,0.0,-1.0,0.0,0.0,0.0
1.6951620252264054e+18,-1.0,-2.0,-2.0,0.0,-1.0,-1.0,-1.0,0.0
1.695162025239218e+18,-1.0,-1.0,0.0,1.0,-2.0,-1.0,0.0,-1.0
1.695162025239218e+18,-2.0,-4.0,0.0,-1.0,-3.0,-1.0,0.0,-2.0
1.6951620252412193e+18,-1.0,0.0,0.0,0.0,-1.0,0.0,0.0,0.0
1.6951620252412193e+18,-2.0,-1.0,0.0,-1.0,-1.0,0.0,-1.0,-1.0
1.69516202526154e+18,-1.0,-1.0,-1.0,-1.0,-2.0,-1.0,-1.0,-1.0
1.69516202526154e+18,0.0,1.0,-1.0,0.0,-1.0,-1.0,-1.0,-1.0
1.6951620252635364e+18,-2.0,0.0,-3.0,-2.0,-1.0,0.0,-1.0,0.0
1.6951620252635364e+18,-2.0,0.0,-2.0,1.0,-1.0,0.0,-1.0,0.0
1.6951620252785518e+18,-1.0,-1.0,-1.0,-2.0,0.0,-2.0,-2.0,-1.0
1.6951620252785518e+18,0.0,1.0,-1.0,0.0,0.0,-1.0,-2.0,0.0
1.6951620252845245e+18,-1.0,-1.0,-1.0,-1.0,0.0,1.0,2.0,1.0
1.6951620252845245e+18,-1.0,-1.0,1.0,-1.0,2.0,1.0,0.0,1.0
1.6951620252995223e+18,0.0,1.0,2.0,0.0,2.0,1.0,1.0,1.0
1.6951620252995223e+18,2.0,1.0,2.0,1.0,1.0,1.0,0.0,0.0
1.69516202530056e+18,1.0,2.0,1.0,0.0,1.0,0.0,0.0,-2.0
1.69516202530056e+18,0.0,1.0,-1.0,-2.0,1.0,0.0,1.0,-3.0
1.695162025321638e+18,-3.0,1.0,-2.0,-1.0,-1.0,-1.0,-1.0,1.0
1.695162025321638e+18,-1.0,1.0,-1.0,0.0,-1.0,-2.0,1.0,-1.0
1.695162025323635e+18,0.0,-1.0,-2.0,0.0,-1.0,-1.0,-1.0,-1.0
1.695162025323635e+18,-1.0,0.0,1.0,0.0,0.0,0.0,1.0,0.0
1.6951620253356283e+18,1.0,-1.0,0.0,1.0,0.0,0.0,-1.0,2.0
1.6951620253356283e+18,-1.0,0.0,-1.0,-3.0,1.0,-2.0,0.0,-1.0
1.695162025344623e+18,0.0,-1.0,0.0,-1.0,-1.0,-1.0,-3.0,-1.0
1.695162025344623e+18,1.0,0.0,-2.0,-1.0,-1.0,-1.0,0.0,-1.0
1.6951620253745618e+18,-1.0,-2.0,-1.0,-1.0,-1.0,-1.0,0.0,-1.0
1.6951620253745618e+18,-1.0,0.0,-1.0,-2.0,0.0,-1.0,-1.0,-1.0
1.695162025375578e+18,0.0,-1.0,0.0,-1.0,-1.0,-2.0,0.0,0.0
1.695162025375578e+18,-1.0,-2.0,0.0,-3.0,0.0,-2.0,0.0,-2.0
1.6951620253895534e+18,-1.0,1.0,-1.0,-2.0,-1.0,0.0,0.0,1.0
1.6951620253895534e+18,-2.0,0.0,-1.0,0.0,-2.0,0.0,-1.0,0.0
1.6951620253925747e+18,-2.0,0.0,-1.0,0.0,0.0,0.0,0.0,0.0
1.6951620253925747e+18,0.0,0.0,-1.0,0.0,-1.0,1.0,-2.0,1.0
1.6951620253955538e+18,0.0,-2.0,0.0,2.0,-1.0,-1.0,1.0,1.0
1.6951620253955538e+18,-2.0,1.0,0.0,-1.0,-2.0,1.0,0.0,-1.0
1.6951620254043484e+18,-1.0,-1.0,0.0,0.0,-1.0,0.0,0.0,-2.0
1.6951620254043484e+18,-1.0,0.0,-3.0,-1.0,-1.0,1.0,-1.0,1.0
1.6951620254194941e+18,-1.0,-1.0,1.0,-2.0,0.0,0.0,-2.0,-1.0
1.6951620254194941e+18,1.0,-2.0,-1.0,1.0,1.0,0.0,1.0,-1.0
1.6951620254204966e+18,0.0,-1.0,-1.0,-1.0,0.0,0.0,-1.0,2.0
1.6951620254214935e+18,1.0,1.0,-1.0,-1.0,-1.0,-1.0,-1.0,-1.0
1.6951620254415734e+18,0.0,0.0,-2.0,0.0,0.0,-1.0,-1.0,0.0
1.6951620254415734e+18,-1.0,-2.0,0.0,-1.0,0.0,-2.0,0.0,0.0
1.695162025443577e+18,0.0,0.0,-1.0,-1.0,-1.0,-1.0,-1.0,0.0
1.695162025443577e+18,0.0,-1.0,0.0,0.0,-2.0,-1.0,-2.0,-1.0
1.6951620254555402e+18,-1.0,-2.0,-1.0,-1.0,0.0,0.0,0.0,1.0
1.6951620254555402e+18,0.0,0.0,0.0,-2.0,0.0,0.0,2.0,0.0
1.6951620254644718e+18,-1.0,-2.0,-1.0,0.0,-1.0,-1.0,-1.0,0.0
1.6951620254644718e+18,-2.0,0.0,0.0,-2.0,-2.0,-2.0,-1.0,-2.0
1.6951620254794637e+18,-1.0,-1.0,-1.0,-1.0,-2.0,-1.0,0.0,-2.0
1.6951620254794637e+18,0.0,-1.0,0.0,-2.0,-2.0,0.0,0.0,-1.0
1.6951620254804641e+18,-2.0,0.0,1.0,0.0,0.0,0.0,0.0,0.0
1.6951620254814618e+18,0.0,-1.0,-1.0,0.0,-2.0,-1.0,-1.0,1.0
1.6951620255014502e+18,1.0,-1.0,-2.0,-1.0,0.0,-2.0,-2.0,-1.0
1.6951620255014502e+18,-1.0,-1.0,-1.0,2.0,-2.0,-1.0,-1.0,-1.0
1.69516202550345e+18,-2.0,-2.0,-3.0,-1.0,-1.0,0.0,-1.0,-1.0
1.69516202550345e+18,-2.0,0.0,-1.0,0.0,0.0,-1.0,-1.0,-2.0
1.695162025515312e+18,0.0,0.0,-1.0,-2.0,0.0,0.0,-1.0,-2.0
1.695162025515312e+18,-1.0,-1.0,-2.0,-1.0,-1.0,-1.0,-2.0,0.0
1.6951620255248108e+18,-2.0,-1.0,-1.0,0.0,-2.0,0.0,-2.0,-1.0
1.6951620255248108e+18,0.0,-3.0,-2.0,-1.0,-1.0,0.0,0.0,-2.0
1.6951620255398044e+18,1.0,-1.0,-1.0,-1.0,-1.0,-1.0,0.0,-1.0
1.6951620255398044e+18,-1.0,0.0,-2.0,0.0,0.0,-2.0,-3.0,-2.0
1.6951620255408266e+18,-2.0,0.0,-1.0,0.0,1.0,-2.0,1.0,-1.0
1.6951620255408266e+18,0.0,1.0,-1.0,0.0,-1.0,-2.0,0.0,0.0
1.6951620255616543e+18,-2.0,-2.0,1.0,-1.0,0.0,-1.0,0.0,-1.0
1.695162025562656e+18,-1.0,-2.0,0.0,-2.0,-2.0,-1.0,1.0,-2.0
1.695162025563653e+18,-1.0,-1.0,-1.0,-1.0,0.0,-2.0,-1.0,0.0
1.695162025563653e+18,-1.0,-1.0,0.0,0.0,0.0,-2.0,1.0,0.0
1.6951620255756462e+18,0.0,0.0,-2.0,0.0,-3.0,-1.0,-1.0,-2.0
1.6951620255756462e+18,-1.0,0.0,-2.0,-2.0,-3.0,-2.0,-1.0,-2.0
1.6951620255916367e+18,-1.0,0.0,-1.0,-2.0,0.0,1.0,-1.0,-2.0
1.6951620255916367e+18,0.0,-1.0,0.0,0.0,2.0,1.0,1.0,0.0
1.695162025600634e+18,-1.0,-2.0,-2.0,-1.0,1.0,0.0,0.0,-2.0
1.695162025600634e+18,-2.0,-2.0,0.0,-4.0,-4.0,-3.0,-1.0,0.0
1.695162025600634e+18,1.0,0.0,-1.0,6.0,8.0,3.0,-2.0,-1.0
1.695162025600634e+18,-2.0,-2.0,1.0,-2.0,-3.0,1.0,0.0,-1.0
1.6951620256217705e+18,-2.0,-1.0,3.0,-1.0,0.0,2.0,0.0,-1.0
1.6951620256217705e+18,-1.0,0.0,-2.0,1.0,0.0,1.0,1.0,-1.0
1.6951620256227604e+18,-2.0,-3.0,-3.0,-3.0,-6.0,-4.0,-4.0,-2.0
1.6951620256237578e+18,1.0,1.0,-2.0,-6.0,-11.0,-4.0,-5.0,-2.0
1.6951620256355466e+18,1.0,0.0,4.0,8.0,12.0,6.0,2.0,1.0
1.6951620256355466e+18,0.0,-2.0,-2.0,-3.0,2.0,0.0,1.0,1.0
1.6951620256445778e+18,-2.0,2.0,-3.0,-3.0,0.0,1.0,1.0,-2.0
1.6951620256445778e+18,-1.0,-1.0,3.0,3.0,-3.0,-4.0,-4.0,-4.0
1.6951620256925514e+18,-1.0,-1.0,-2.0,-6.0,-6.0,-4.0,-2.0,0.0
1.6951620256935516e+18,-1.0,0.0,2.0,-7.0,-6.0,1.0,0.0,1.0
1.6951620256935516e+18,1.0,-2.0,1.0,9.0,6.0,4.0,3.0,1.0
1.6951620256935516e+18,0.0,-1.0,-3.0,1.0,1.0,0.0,-1.0,-1.0
1.6951620256935516e+18,-1.0,-2.0,-3.0,-3.0,-2.0,-1.0,-1.0,-1.0
1.6951620256935516e+18,-1.0,-4.0,-3.0,1.0,4.0,-1.0,0.0,-1.0
1.6951620256935516e+18,-1.0,0.0,7.0,-14.0,-14.0,-2.0,0.0,0.0
1.6951620256935516e+18,-1.0,-1.0,-15.0,9.0,8.0,2.0,-2.0,-2.0
1.6951620257235333e+18,-1.0,2.0,3.0,0.0,-3.0,-2.0,-1.0,0.0
1.6951620257235333e+18,0.0,3.0,-1.0,0.0,6.0,0.0,0.0,0.0
1.6951620257235333e+18,-2.0,-6.0,-6.0,-10.0,-10.0,-5.0,-1.0,-2.0
1.6951620257235333e+18,-1.0,0.0,8.0,3.0,4.0,-2.0,-3.0,0.0
1.6951620257235333e+18,-1.0,0.0,-5.0,1.0,0.0,7.0,-1.0,-1.0
1.6951620257235333e+18,-1.0,0.0,4.0,6.0,-4.0,-2.0,1.0,2.0
1.6951620257235333e+18,0.0,1.0,-1.0,-1.0,3.0,-2.0,-1.0,0.0
1.6951620257235333e+18,-1.0,-1.0,-4.0,-23.0,-17.0,-6.0,-1.0,-2.0
1.6951620257615114e+18,-2.0,-2.0,-3.0,5.0,-3.0,-5.0,-2.0,-2.0
1.6951620257615114e+18,0.0,-1.0,-1.0,-6.0,3.0,-4.0,-6.0,-3.0
1.695162025762511e+18,0.0,0.0,1.0,5.0,4.0,12.0,4.0,1.0
1.695162025762511e+18,-3.0,-4.0,1.0,-2.0,-6.0,0.0,3.0,1.0
1.695162025762511e+18,0.0,0.0,2.0,-1.0,-10.0,-6.0,-4.0,-1.0
1.695162025762511e+18,0.0,0.0,-6.0,-6.0,-8.0,-14.0,-3.0,-1.0
1.6951620257645105e+18,-1.0,0.0,-2.0,0.0,1.0,-1.0,-2.0,-2.0
1.6951620257645105e+18,1.0,-1.0,6.0,8.0,9.0,10.0,2.0,0.0
1.6951620257785027e+18,-2.0,-3.0,-6.0,-15.0,0.0,4.0,0.0,-3.0
1.6951620257795044e+18,0.0,0.0,0.0,7.0,5.0,1.0,-1.0,0.0
1.6951620257934935e+18,-1.0,-2.0,4.0,8.0,0.0,2.0,-2.0,-2.0
1.6951620257934935e+18,-1.0,1.0,4.0,2.0,7.0,2.0,-1.0,1.0
1.6951620258024886e+18,0.0,0.0,6.0,12.0,-4.0,-4.0,0.0,0.0
1.6951620258024886e+18,2.0,0.0,-2.0,-3.0,-6.0,-8.0,5.0,0.0
1.695162025803489e+18,-3.0,-4.0,-10.0,-16.0,-17.0,-12.0,-7.0,-3.0
1.695162025803489e+18,-1.0,-2.0,2.0,12.0,11.0,7.0,-8.0,-1.0
1.6951620258154918e+18,0.0,3.0,0.0,-6.0,3.0,5.0,4.0,1.0
1.6951620258154918e+18,2.0,1.0,4.0,7.0,2.0,4.0,11.0,4.0
1.6951620258244867e+18,1.0,-1.0,1.0,10.0,3.0,3.0,1.0,-1.0
1.6951620258244867e+18,-1.0,1.0,-1.0,-1.0,10.0,-1.0,3.0,-1.0
1.6951620258454784e+18,1.0,0.0,-5.0,-10.0,-6.0,8.0,3.0,4.0
1.6951620258464763e+18,-4.0,-4.0,0.0,2.0,3.0,-7.0,-16.0,-6.0
1.695162025852494e+18,3.0,5.0,2.0,0.0,-3.0,-14.0,-1.0,1.0
1.69516202585347e+18,0.0,-2.0,-5.0,-8.0,-9.0,8.0,15.0,-2.0
1.695162025881477e+18,0.0,0.0,1.0,8.0,9.0,6.0,-8.0,0.0
1.695162025883454e+18,-6.0,-9.0,7.0,6.0,8.0,16.0,12.0,-1.0
1.695162025884454e+18,2.0,4.0,-2.0,-7.0,-1.0,-18.0,-32.0,-7.0
1.695162025884454e+18,-4.0,-5.0,-9.0,-3.0,-12.0,-9.0,-9.0,1.0
1.695162025884454e+18,1.0,-4.0,-1.0,-4.0,-9.0,6.0,16.0,3.0
1.695162025884454e+18,-2.0,-2.0,-11.0,-9.0,-7.0,-4.0,0.0,0.0
1.6951620258854753e+18,-4.0,-3.0,1.0,8.0,8.0,4.0,-2.0,-5.0
1.6951620258854753e+18,0.0,0.0,3.0,-12.0,-7.0,-10.0,-20.0,-5.0
1.69516202589846e+18,0.0,1.0,-2.0,-9.0,-7.0,-10.0,-3.0,-1.0
1.69516202589846e+18,1.0,0.0,2.0,14.0,18.0,17.0,2.0,2.0
1.6951620259073162e+18,0.0,-2.0,0.0,-6.0,1.0,2.0,10.0,1.0
1.6951620259073162e+18,2.0,2.0,-1.0,3.0,-4.0,-6.0,-15.0,-5.0
1.6951620259293028e+18,-4.0,-4.0,1.0,-3.0,-6.0,-21.0,7.0,-1.0
1.6951620259293028e+18,3.0,4.0,5.0,-4.0,-6.0,6.0,-32.0,-9.0
1.6951620259343212e+18,0.0,-2.0,-4.0,-4.0,2.0,9.0,32.0,9.0
1.6951620259343212e+18,0.0,0.0,1.0,1.0,4.0,0.0,13.0,0.0
1.6951620259353216e+18,0.0,-1.0,-4.0,1.0,1.0,0.0,-7.0,-3.0
1.6951620259353216e+18,1.0,-4.0,0.0,-9.0,-13.0,-13.0,-6.0,0.0
1.6951620259445522e+18,-4.0,-1.0,0.0,3.0,-12.0,-6.0,-6.0,-3.0
1.6951620259445522e+18,1.0,0.0,0.0,6.0,18.0,11.0,9.0,3.0
1.6951620259585236e+18,1.0,0.0,-1.0,-3.0,-12.0,-8.0,-8.0,-1.0
1.6951620259585236e+18,1.0,2.0,-3.0,-7.0,-3.0,1.0,6.0,0.0
1.6951620259651284e+18,0.0,0.0,-3.0,-7.0,-11.0,-2.0,-8.0,-2.0
1.6951620259651284e+18,-6.0,-9.0,5.0,10.0,4.0,-8.0,0.0,-1.0
1.6951620259974564e+18,-1.0,1.0,1.0,4.0,1.0,-17.0,-33.0,-10.0
1.6951620259974564e+18,-2.0,1.0,-6.0,-11.0,-2.0,5.0,19.0,1.0
1.695162026005452e+18,5.0,4.0,2.0,-1.0,-8.0,21.0,44.0,10.0
1.695162026005452e+18,0.0,-1.0,-12.0,-10.0,5.0,2.0,-5.0,-6.0
1.695162026005452e+18,-3.0,-2.0,-9.0,-17.0,-5.0,-7.0,-3.0,-1.0
1.695162026006452e+18,1.0,-2.0,0.0,15.0,14.0,23.0,39.0,12.0
1.6951620260074506e+18,-2.0,0.0,1.0,-2.0,1.0,-20.0,-23.0,-6.0
1.6951620260074506e+18,-2.0,-5.0,-1.0,-7.0,-18.0,0.0,7.0,-1.0
1.695162026019445e+18,2.0,0.0,6.0,2.0,-10.0,0.0,7.0,2.0
1.6951620260204436e+18,-5.0,-1.0,-2.0,13.0,8.0,-21.0,-34.0,-14.0
1.6951620260434304e+18,-1.0,-3.0,-2.0,0.0,11.0,12.0,16.0,7.0
1.6951620260434304e+18,-2.0,3.0,6.0,6.0,-6.0,-12.0,-27.0,-11.0
1.6951620260434304e+18,-2.0,-4.0,-7.0,-14.0,-3.0,10.0,9.0,5.0
1.6951620260444332e+18,0.0,2.0,3.0,15.0,10.0,-4.0,-5.0,-6.0
1.6951620260484278e+18,1.0,-4.0,2.0,-6.0,12.0,21.0,40.0,16.0
1.6951620260484278e+18,-5.0,-6.0,-8.0,2.0,-2.0,-11.0,-37.0,-7.0
1.6951620260714173e+18,1.0,4.0,-4.0,-3.0,7.0,9.0,8.0,-3.0
1.6951620260724193e+18,1.0,5.0,1.0,-9.0,-13.0,-7.0,10.0,0.0
1.695162026073413e+18,-3.0,1.0,-1.0,7.0,3.0,-9.0,-44.0,-12.0
1.695162026073413e+18,4.0,1.0,-1.0,0.0,0.0,12.0,46.0,10.0
1.6951620260784335e+18,0.0,2.0,5.0,10.0,5.0,-1.0,26.0,-2.0
1.6951620260784335e+18,2.0,-7.0,4.0,-6.0,2.0,0.0,-21.0,1.0
1.6951620260934057e+18,-4.0,-4.0,-5.0,4.0,-7.0,-6.0,-6.0,-3.0
1.6951620260934057e+18,-4.0,-3.0,-12.0,-30.0,-20.0,-19.0,-41.0,-13.0
1.695162026124384e+18,-2.0,-1.0,11.0,23.0,10.0,-23.0,2.0,-15.0
1.695162026124384e+18,3.0,12.0,-4.0,1.0,-2.0,23.0,20.0,20.0
1.6951620261333783e+18,-1.0,-6.0,-7.0,-13.0,3.0,5.0,-12.0,-1.0
1.6951620261333783e+18,18.0,3.0,3.0,7.0,-2.0,-22.0,-13.0,-10.0
1.6951620261333783e+18,-22.0,0.0,-6.0,-2.0,-6.0,14.0,28.0,8.0
1.6951620261333783e+18,-6.0,9.0,-15.0,-39.0,-28.0,-5.0,15.0,2.0
1.6951620261354002e+18,-10.0,-11.0,4.0,35.0,37.0,-13.0,-42.0,-16.0
1.6951620261354002e+18,7.0,14.0,8.0,6.0,-6.0,-2.0,-13.0,4.0
1.6951620261483937e+18,3.0,19.0,-11.0,-14.0,-3.0,-18.0,-56.0,-7.0
1.6951620261483937e+18,-1.0,-16.0,0.0,-1.0,-11.0,-12.0,26.0,-14.0
1.6951620261703578e+18,0.0,4.0,-9.0,-5.0,-15.0,6.0,22.0,7.0
1.6951620261703578e+18,-8.0,-33.0,14.0,8.0,4.0,7.0,21.0,13.0
1.6951620261713567e+18,2.0,-19.0,10.0,6.0,-5.0,-13.0,5.0,11.0
1.6951620261713567e+18,-4.0,3.0,-1.0,-2.0,24.0,-5.0,-38.0,-11.0
1.695162026172365e+18,12.0,-11.0,5.0,0.0,11.0,38.0,29.0,15.0
1.695162026172365e+18,-6.0,-2.0,-5.0,1.0,16.0,-4.0,24.0,-4.0
1.695162026223327e+18,4.0,-4.0,-5.0,-11.0,-12.0,20.0,3.0,10.0
1.695162026223327e+18,3.0,-5.0,-3.0,2.0,14.0,2.0,28.0,5.0
1.695162026224327e+18,-4.0,2.0,14.0,27.0,-3.0,-20.0,-35.0,-9.0
1.695162026224327e+18,-2.0,16.0,-6.0,-13.0,-10.0,10.0,11.0,5.0
1.6951620262253632e+18,1.0,-1.0,-4.0,-2.0,2.0,7.0,23.0,7.0
1.6951620262253632e+18,-1.0,12.0,-1.0,-10.0,-19.0,-21.0,-19.0,-10.0
1.6951620262363195e+18,2.0,-6.0,6.0,4.0,-2.0,-1.0,22.0,-1.0
1.6951620262363195e+18,-9.0,-11.0,0.0,-7.0,-5.0,3.0,-6.0,3.0
1.6951620262363195e+18,1.0,9.0,-1.0,-4.0,-8.0,1.0,14.0,-14.0
1.6951620262373248e+18,-3.0,-20.0,20.0,23.0,1.0,-18.0,-54.0,-9.0
1.6951620262443162e+18,2.0,-1.0,7.0,25.0,17.0,4.0,-22.0,-13.0
1.6951620262443162e+18,-2.0,2.0,3.0,11.0,-2.0,1.0,0.0,-2.0
1.695162026245317e+18,-4.0,2.0,3.0,-6.0,-4.0,-7.0,-2.0,-13.0
1.695162026246316e+18,-1.0,10.0,-5.0,-6.0,-2.0,-6.0,-7.0,1.0
1.6951620262833144e+18,1.0,-6.0,-23.0,-23.0,5.0,7.0,19.0,2.0
1.6951620262833144e+18,2.0,8.0,-2.0,-8.0,-8.0,16.0,11.0,3.0
1.6951620262842941e+18,0.0,5.0,-5.0,-1.0,-3.0,-14.0,-24.0,-8.0
1.6951620262842941e+18,-2.0,3.0,6.0,11.0,-10.0,-10.0,0.0,-6.0
1.6951620262852938e+18,-4.0,-2.0,3.0,-1.0,0.0,1.0,-23.0,0.0
1.6951620262852938e+18,-1.0,-7.0,-8.0,1.0,10.0,17.0,2.0,12.0
1.6951620262963254e+18,9.0,15.0,4.0,-6.0,-1.0,15.0,24.0,17.0
1.6951620262963254e+18,-6.0,-18.0,5.0,5.0,0.0,-7.0,13.0,-14.0
1.6951620263414446e+18,3.0,5.0,-4.0,0.0,3.0,27.0,18.0,23.0
1.6951620263424438e+18,0.0,-24.0,-1.0,4.0,13.0,6.0,10.0,4.0
1.6951620263594337e+18,-6.0,0.0,-2.0,-9.0,-3.0,-3.0,-7.0,-6.0
1.6951620263604334e+18,2.0,8.0,-1.0,7.0,0.0,-4.0,-9.0,7.0
1.695162026361446e+18,-6.0,2.0,-6.0,-11.0,0.0,-23.0,-37.0,-30.0
1.695162026361446e+18,-6.0,8.0,9.0,15.0,-7.0,-4.0,-1.0,0.0
1.6951620263744243e+18,-4.0,-10.0,-9.0,-15.0,-8.0,-1.0,-9.0,2.0
1.6951620263754317e+18,2.0,-1.0,3.0,13.0,15.0,10.0,23.0,11.0
1.6951620263764237e+18,5.0,-25.0,17.0,13.0,9.0,6.0,4.0,3.0
1.695162026377424e+18,-3.0,5.0,-5.0,-8.0,-6.0,-11.0,4.0,-12.0
1.6951620264144028e+18,-3.0,-19.0,4.0,4.0,-1.0,-4.0,11.0,1.0
1.6951620264253957e+18,4.0,13.0,-9.0,-6.0,-1.0,10.0,3.0,3.0
1.6951620264273956e+18,-8.0,-22.0,5.0,3.0,2.0,5.0,23.0,1.0
1.6951620264283937e+18,1.0,-7.0,5.0,3.0,-3.0,-1.0,-4.0,0.0
1.6951620264283937e+18,-6.0,-1.0,-9.0,-11.0,-8.0,-16.0,-33.0,-13.0
1.6951620264333908e+18,-4.0,-4.0,-9.0,-8.0,-4.0,-14.0,-34.0,-15.0
1.6951620264343956e+18,3.0,14.0,4.0,6.0,10.0,29.0,29.0,18.0
1.6951620264343956e+18,5.0,6.0,-2.0,0.0,-8.0,-3.0,35.0,16.0
1.6951620264354035e+18,-4.0,-2.0,-5.0,-3.0,-1.0,-13.0,-34.0,-2.0
1.6951620264354035e+18,-8.0,9.0,0.0,7.0,1.0,-2.0,-6.0,-11.0
1.695162026469372e+18,15.0,6.0,7.0,0.0,-2.0,3.0,6.0,10.0
1.6951620264703782e+18,-5.0,-25.0,-4.0,-2.0,-10.0,-11.0,13.0,5.0
1.6951620264783652e+18,2.0,6.0,1.0,0.0,2.0,-17.0,-12.0,-4.0
1.6951620264793649e+18,-4.0,5.0,-15.0,-18.0,-5.0,-1.0,-3.0,-11.0
1.6951620264803638e+18,1.0,13.0,-2.0,2.0,1.0,-2.0,8.0,1.0
1.6951620264803638e+18,-3.0,6.0,-1.0,2.0,2.0,-2.0,9.0,-6.0
1.6951620265213425e+18,-2.0,-25.0,6.0,0.0,-10.0,2.0,12.0,10.0
1.6951620265223427e+18,-4.0,-10.0,3.0,6.0,16.0,9.0,1.0,-4.0
1.6951620265433313e+18,-2.0,12.0,-6.0,-8.0,1.0,-3.0,-31.0,-17.0
1.695162026545328e+18,6.0,12.0,1.0,-5.0,-9.0,-9.0,12.0,-2.0
1.695162026545328e+18,-3.0,-3.0,-9.0,-9.0,-13.0,0.0,23.0,12.0
1.6951620265463352e+18,-3.0,10.0,-1.0,8.0,12.0,8.0,15.0,8.0
1.6951620265463352e+18,3.0,-7.0,6.0,21.0,1.0,7.0,-3.0,-7.0
1.6951620265463352e+18,4.0,3.0,1.0,-13.0,-2.0,-21.0,-46.0,-6.0
1.6951620265783078e+18,-1.0,21.0,-17.0,-11.0,-2.0,13.0,35.0,2.0
1.6951620265783078e+18,0.0,-12.0,4.0,-11.0,-17.0,0.0,47.0,14.0
1.6951620265793277e+18,-7.0,-8.0,-5.0,-1.0,5.0,-2.0,7.0,3.0
1.695162026585304e+18,-7.0,-5.0,6.0,4.0,-1.0,1.0,2.0,-7.0
1.695162026585304e+18,-3.0,3.0,-3.0,-4.0,0.0,-13.0,-19.0,-9.0
1.6951620265863035e+18,5.0,6.0,8.0,14.0,7.0,19.0,30.0,8.0
1.6951620266362744e+18,-2.0,-5.0,-8.0,-8.0,-1.0,-8.0,0.0,-8.0
1.6951620266372736e+18,2.0,0.0,-6.0,-2.0,-4.0,12.0,2.0,4.0
1.6951620266402724e+18,2.0,11.0,17.0,21.0,12.0,-3.0,-16.0,-1.0
1.6951620266402724e+18,-4.0,2.0,4.0,1.0,-2.0,5.0,-14.0,2.0
1.6951620266402724e+18,-5.0,3.0,-12.0,-16.0,-19.0,-17.0,-31.0,5.0
1.6951620266412723e+18,-1.0,8.0,-4.0,-1.0,-5.0,-12.0,-2.0,-11.0
1.6951620266502702e+18,3.0,-2.0,12.0,14.0,6.0,13.0,8.0,11.0
1.695162026651269e+18,1.0,32.0,-10.0,-13.0,1.0,8.0,-10.0,1.0
1.695162026651269e+18,-8.0,-5.0,2.0,7.0,1.0,-6.0,12.0,-6.0
1.695162026651269e+18,-3.0,-19.0,-1.0,-1.0,0.0,-5.0,-5.0,-5.0
1.695162026653265e+18,-1.0,-12.0,-21.0,-24.0,-5.0,1.0,14.0,1.0
1.695162026653265e+18,-3.0,2.0,-23.0,-4.0,4.0,0.0,-7.0,-3.0
1.6951620266732541e+18,-2.0,0.0,29.0,20.0,1.0,-9.0,-16.0,-8.0
1.6951620266742556e+18,-1.0,5.0,-17.0,-17.0,-2.0,-5.0,-1.0,-3.0
1.6951620266742556e+18,0.0,-4.0,1.0,4.0,0.0,3.0,13.0,4.0
1.6951620266752594e+18,1.0,-10.0,2.0,-1.0,-5.0,-6.0,-5.0,-3.0
1.695162026688244e+18,-4.0,10.0,-2.0,-3.0,2.0,-3.0,-8.0,-3.0
1.695162026689244e+18,1.0,-16.0,5.0,5.0,1.0,2.0,4.0,4.0
1.695162026689244e+18,2.0,24.0,-4.0,-10.0,-5.0,-1.0,6.0,0.0
1.695162026689244e+18,-4.0,-13.0,-7.0,-5.0,-2.0,0.0,-3.0,0.0
1.6951620266902428e+18,-2.0,-7.0,7.0,10.0,2.0,-1.0,-2.0,-1.0
1.6951620266902428e+18,0.0,-12.0,8.0,3.0,-1.0,0.0,-3.0,2.0
1.6951620267172308e+18,2.0,2.0,-9.0,-9.0,-2.0,-1.0,2.0,-3.0
1.6951620267182264e+18,-3.0,-14.0,8.0,3.0,-1.0,-1.0,0.0,0.0
1.6951620267192264e+18,1.0,-6.0,2.0,2.0,-2.0,-1.0,-3.0,1.0
1.6951620267192264e+18,-4.0,12.0,-8.0,-7.0,-3.0,-2.0,-3.0,-3.0
1.695162026724223e+18,0.0,-8.0,-1.0,1.0,1.0,0.0,4.0,2.0
1.695162026724223e+18,0.0,-5.0,3.0,3.0,0.0,-1.0,-2.0,-1.0
1.6951620267262223e+18,0.0,1.0,-1.0,-2.0,-1.0,-2.0,-1.0,1.0
1.6951620267262223e+18,-2.0,3.0,-4.0,-1.0,0.0,-4.0,-2.0,-2.0
1.6951620267442125e+18,0.0,-3.0,3.0,2.0,0.0,-1.0,2.0,1.0
1.6951620267452173e+18,-1.0,-1.0,1.0,0.0,0.0,-2.0,-3.0,-1.0
1.6951620267632064e+18,-1.0,-2.0,-5.0,-4.0,-1.0,-1.0,-3.0,2.0
1.695162026764204e+18,0.0,2.0,2.0,4.0,0.0,-1.0,2.0,-3.0
1.695162026764204e+18,-1.0,-4.0,1.0,-2.0,-1.0,0.0,3.0,0.0
1.695162026764204e+18,2.0,-1.0,0.0,-7.0,-4.0,-3.0,-2.0,-3.0
1.6951620267771927e+18,-3.0,-6.0,0.0,-1.0,2.0,1.0,-1.0,0.0
1.6951620267771927e+18,-1.0,4.0,-1.0,1.0,2.0,3.0,0.0,-1.0
1.6951620268031836e+18,-2.0,-1.0,-4.0,-2.0,-2.0,-2.0,0.0,0.0
1.695162026815172e+18,1.0,-4.0,0.0,-2.0,-2.0,0.0,-2.0,0.0
1.6951620268161723e+18,1.0,-2.0,-1.0,2.0,0.0,-1.0,-3.0,-1.0
1.6951620268161723e+18,-3.0,1.0,-1.0,0.0,-1.0,-2.0,0.0,0.0
1.6951620268171756e+18,0.0,-1.0,-1.0,-1.0,0.0,0.0,2.0,0.0
1.6951620268171756e+18,-4.0,-3.0,0.0,1.0,-2.0,-1.0,0.0,-1.0
1.6951620268171756e+18,1.0,-1.0,1.0,0.0,-1.0,-3.0,0.0,-1.0
1.6951620268171756e+18,0.0,2.0,-2.0,-1.0,-1.0,-2.0,-1.0,-1.0
1.695162026821168e+18,1.0,-1.0,-1.0,-3.0,0.0,-1.0,0.0,0.0
1.6951620268221676e+18,0.0,-2.0,1.0,-1.0,-1.0,-1.0,0.0,0.0
1.695162026838158e+18,-1.0,1.0,-1.0,0.0,-1.0,-1.0,-1.0,-2.0
1.695162026838158e+18,0.0,-1.0,-1.0,-3.0,0.0,-1.0,-2.0,0.0
1.6951620268431585e+18,1.0,-1.0,0.0,0.0,0.0,-1.0,0.0,-2.0
1.6951620268441595e+18,-3.0,-3.0,-1.0,0.0,0.0,0.0,0.0,-2.0
1.6951620268521508e+18,2.0,0.0,-2.0,-2.0,1.0,2.0,-1.0,0.0
1.6951620268521508e+18,-3.0,0.0,0.0,-2.0,-2.0,-2.0,-1.0,-2.0
1.695162026889135e+18,-1.0,-1.0,0.0,-1.0,1.0,1.0,2.0,1.0
1.695162026889135e+18,-3.0,-2.0,-1.0,-2.0,0.0,-2.0,-2.0,-1.0
1.695162026906122e+18,0.0,-1.0,0.0,0.0,-2.0,-2.0,1.0,-1.0
1.695162026906122e+18,-1.0,-1.0,-2.0,-1.0,0.0,-1.0,0.0,0.0
1.695162026906122e+18,-1.0,-1.0,0.0,-2.0,-2.0,-1.0,-1.0,-2.0
1.6951620269071273e+18,-1.0,-1.0,-2.0,-3.0,-3.0,-1.0,-1.0,1.0
1.6951620269081172e+18,0.0,-1.0,-2.0,-1.0,0.0,1.0,0.0,-1.0
1.6951620269081172e+18,-1.0,1.0,0.0,-1.0,0.0,0.0,-2.0,-1.0
1.695162026911119e+18,1.0,-1.0,-3.0,-2.0,-1.0,-2.0,-3.0,-1.0
1.695162026911119e+18,-2.0,-1.0,-1.0,0.0,-1.0,-2.0,-1.0,-2.0
1.6951620269271068e+18,-1.0,-1.0,-1.0,1.0,-1.0,0.0,-1.0,1.0
1.6951620269271068e+18,-1.0,-1.0,1.0,-2.0,-2.0,-1.0,-3.0,-1.0
1.6951620269281116e+18,0.0,1.0,0.0,-1.0,-2.0,-3.0,-3.0,-1.0
1.6951620269291123e+18,-2.0,-1.0,0.0,3.0,3.0,0.0,0.0,0.0
1.6951620269410985e+18,-1.0,0.0,0.0,-1.0,2.0,2.0,2.0,-1.0
1.6951620269420984e+18,0.0,-1.0,-2.0,-2.0,-4.0,-4.0,-3.0,-2.0
1.6951620269560906e+18,1.0,-1.0,1.0,0.0,-5.0,-6.0,-3.0,-2.0
1.6951620269640855e+18,0.0,1.0,5.0,0.0,3.0,7.0,3.0,1.0
1.6951620269650893e+18,-1.0,0.0,-8.0,0.0,4.0,5.0,3.0,1.0
1.6951620269650893e+18,-1.0,-2.0,2.0,4.0,1.0,4.0,1.0,0.0
1.69516202696709e+18,-1.0,-1.0,0.0,-1.0,0.0,-7.0,-5.0,-2.0
1.69516202696709e+18,-2.0,-2.0,-11.0,-1.0,-3.0,-5.0,-5.0,-1.0
1.695162026987073e+18,-1.0,2.0,7.0,-1.0,1.0,4.0,1.0,1.0
1.6951620269880724e+18,-1.0,-8.0,-9.0,-3.0,-3.0,-7.0,0.0,-1.0
1.6951620269890721e+18,-2.0,-2.0,-4.0,-5.0,-5.0,0.0,-1.0,0.0
1.6951620269890721e+18,1.0,0.0,4.0,3.0,2.0,-3.0,-1.0,-1.0
1.695162027001069e+18,1.0,2.0,1.0,-1.0,3.0,-1.0,-1.0,-1.0
1.695162027002073e+18,-1.0,-6.0,-9.0,-3.0,1.0,3.0,-2.0,-2.0
1.695162027016056e+18,0.0,-2.0,1.0,-1.0,-2.0,-1.0,-2.0,-2.0
1.695162027016056e+18,-1.0,6.0,14.0,3.0,-1.0,-3.0,0.0,-1.0
1.695162027040044e+18,1.0,0.0,-4.0,-1.0,-6.0,-4.0,-2.0,-3.0
1.6951620270410435e+18,0.0,2.0,4.0,-1.0,1.0,1.0,-1.0,0.0
1.6951620270420424e+18,0.0,1.0,-1.0,-3.0,1.0,1.0,1.0,-1.0
1.6951620270430423e+18,-2.0,-3.0,-5.0,-4.0,-4.0,-2.0,-1.0,1.0
1.69516202704704e+18,-1.0,-3.0,0.0,2.0,0.0,-2.0,-3.0,-1.0
1.695162027048039e+18,0.0,2.0,-6.0,-3.0,-1.0,-1.0,1.0,-1.0
1.6951620270490383e+18,0.0,-3.0,-1.0,0.0,1.0,4.0,1.0,-1.0
1.6951620270490383e+18,0.0,1.0,-2.0,-2.0,0.0,-1.0,0.0,-2.0
1.6951620270610304e+18,0.0,-1.0,4.0,0.0,-3.0,-4.0,-2.0,0.0
1.6951620270610304e+18,-1.0,1.0,0.0,-1.0,0.0,1.0,1.0,0.0
1.6951620270770207e+18,-2.0,-6.0,-6.0,0.0,1.0,-1.0,2.0,0.0
1.6951620270770207e+18,-1.0,-2.0,0.0,-2.0,-2.0,0.0,-1.0,-1.0
1.6951620270920218e+18,-1.0,-3.0,-5.0,-3.0,-3.0,-4.0,-1.0,-1.0
1.6951620270920218e+18,1.0,4.0,5.0,2.0,-3.0,2.0,1.0,-1.0
1.695162027094012e+18,1.0,1.0,5.0,0.0,-3.0,1.0,1.0,1.0
1.695162027094012e+18,-1.0,-2.0,-5.0,1.0,4.0,-1.0,-1.0,-2.0
1.6951620271070034e+18,-1.0,1.0,-1.0,-1.0,2.0,0.0,-1.0,-1.0
1.6951620271070034e+18,-1.0,1.0,2.0,1.0,2.0,0.0,1.0,0.0
1.6951620271080028e+18,1.0,-1.0,1.0,-1.0,0.0,0.0,-1.0,0.0
1.695162027109003e+18,-1.0,-3.0,-5.0,-3.0,-3.0,0.0,0.0,2.0
1.6951620271219958e+18,-2.0,0.0,-2.0,-1.0,-2.0,-4.0,-2.0,0.0
1.6951620271230198e+18,-1.0,-2.0,3.0,-1.0,0.0,-2.0,-2.0,-1.0
1.6951620271299937e+18,-1.0,0.0,-3.0,-1.0,1.0,-1.0,-1.0,0.0
1.6951620271299937e+18,0.0,-1.0,-1.0,-1.0,-2.0,0.0,-1.0,-2.0
1.6951620271519793e+18,0.0,-2.0,2.0,-1.0,-1.0,1.0,0.0,0.0
1.6951620271519793e+18,-1.0,1.0,0.0,2.0,-1.0,-2.0,0.0,0.0
1.695162027154977e+18,-3.0,0.0,-1.0,0.0,-1.0,0.0,1.0,-1.0
1.695162027154977e+18,0.0,-1.0,-1.0,-1.0,-3.0,-2.0,-1.0,-1.0
1.6951620271669745e+18,-1.0,-3.0,0.0,0.0,-2.0,0.0,0.0,-1.0
1.6951620271669745e+18,0.0,-1.0,-1.0,0.0,-1.0,-1.0,0.0,-1.0
1.6951620271679736e+18,-1.0,0.0,0.0,-2.0,1.0,-2.0,-2.0,-1.0
1.6951620271689684e+18,-2.0,-1.0,-1.0,-2.0,-1.0,-1.0,0.0,-2.0
1.6951620271899581e+18,-1.0,-2.0,-1.0,-2.0,-1.0,-1.0,-2.0,-1.0
1.6951620271909604e+18,-2.0,0.0,0.0,-2.0,3.0,0.0,-1.0,0.0
1.6951620271909604e+18,-1.0,-1.0,-1.0,-1.0,1.0,-2.0,0.0,-3.0
1.695162027191957e+18,1.0,-2.0,-4.0,0.0,-2.0,0.0,-1.0,1.0
1.6951620272049487e+18,-1.0,0.0,-1.0,0.0,-1.0,0.0,0.0,-2.0
1.6951620272099507e+18,1.0,1.0,0.0,0.0,0.0,-3.0,-1.0,-2.0
1.6951620272119508e+18,-2.0,0.0,0.0,-1.0,-1.0,-1.0,-2.0,0.0
1.6951620272119508e+18,-2.0,-2.0,-3.0,-2.0,-1.0,-2.0,0.0,1.0
1.6951620272269601e+18,0.0,-3.0,1.0,-2.0,-2.0,1.0,-2.0,0.0
1.6951620272269601e+18,-2.0,0.0,-1.0,-3.0,-3.0,1.0,-1.0,0.0
1.6951620272279347e+18,0.0,-1.0,-2.0,-1.0,0.0,-1.0,-1.0,-2.0
1.6951620272289344e+18,-1.0,1.0,0.0,0.0,-1.0,-1.0,-2.0,-1.0
1.6951620272409272e+18,-1.0,0.0,1.0,0.0,0.0,-2.0,-1.0,0.0
1.6951620272409272e+18,0.0,0.0,-1.0,-3.0,-2.0,-3.0,-1.0,-1.0
1.6951620272819087e+18,0.0,-1.0,0.0,-1.0,-1.0,-1.0,2.0,-1.0
1.6951620272849098e+18,0.0,0.0,-1.0,-2.0,-1.0,-2.0,-1.0,-1.0
1.6951620272859072e+18,-1.0,0.0,-1.0,0.0,-1.0,-1.0,-1.0,0.0
1.6951620272869015e+18,0.0,0.0,0.0,-1.0,-1.0,-1.0,-1.0,-1.0
1.6951620272869015e+18,0.0,1.0,-1.0,0.0,2.0,0.0,-1.0,0.0
1.6951620272869015e+18,-1.0,0.0,-1.0,-1.0,-2.0,-2.0,1.0,0.0
1.6951620272948997e+18,-1.0,-1.0,-1.0,0.0,-2.0,1.0,-1.0,-1.0
1.6951620272948997e+18,-1.0,0.0,1.0,-1.0,-1.0,-2.0,0.0,0.0
1.6951620272958958e+18,-2.0,1.0,0.0,-1.0,-2.0,1.0,-1.0,0.0
1.6951620272958958e+18,1.0,-1.0,-1.0,-2.0,-1.0,-1.0,-1.0,1.0
1.6951620273008978e+18,-1.0,0.0,-2.0,0.0,0.0,-1.0,-1.0,-2.0
1.6951620273008978e+18,1.0,-1.0,0.0,1.0,0.0,-1.0,-1.0,-1.0
1.6951620273168827e+18,-2.0,0.0,0.0,1.0,-1.0,-2.0,0.0,-1.0
1.6951620273168827e+18,-1.0,-1.0,-1.0,1.0,-2.0,0.0,0.0,-1.0
1.6951620273318738e+18,-1.0,0.0,-1.0,-1.0,-2.0,-1.0,1.0,-3.0
1.6951620273318738e+18,-1.0,-1.0,-1.0,-1.0,-2.0,0.0,-2.0,0.0
1.695162027332884e+18,-1.0,-1.0,-1.0,0.0,-1.0,0.0,0.0,0.0
1.695162027332884e+18,-1.0,0.0,0.0,0.0,-1.0,0.0,-1.0,-1.0
1.6951620273468657e+18,0.0,-1.0,-1.0,-2.0,0.0,-1.0,0.0,-1.0
1.6951620273468657e+18,-2.0,-1.0,1.0,1.0,-1.0,-2.0,0.0,-1.0
1.695162027354862e+18,-1.0,0.0,-1.0,-1.0,1.0,-1.0,-3.0,-1.0
1.695162027354862e+18,-1.0,1.0,1.0,0.0,1.0,0.0,0.0,-1.0
1.6951620273628603e+18,-2.0,-2.0,-2.0,-1.0,-1.0,-2.0,-2.0,0.0
1.6951620273628603e+18,-1.0,-2.0,-1.0,0.0,-1.0,-1.0,0.0,0.0
1.6951620273828685e+18,0.0,-1.0,0.0,0.0,-1.0,0.0,-1.0,-2.0
1.6951620273838446e+18,0.0,0.0,-3.0,-1.0,-1.0,-1.0,0.0,0.0
1.6951620273918395e+18,-1.0,-1.0,0.0,-1.0,0.0,0.0,-1.0,0.0
1.6951620273918395e+18,0.0,1.0,-1.0,-2.0,0.0,2.0,1.0,-2.0
1.6951620273928417e+18,-2.0,-2.0,-1.0,0.0,0.0,-2.0,-1.0,-3.0
1.695162027393839e+18,-1.0,-1.0,-1.0,0.0,0.0,-2.0,-2.0,-1.0
1.6951620274068308e+18,1.0,-1.0,-1.0,0.0,0.0,-1.0,-1.0,0.0
1.6951620274068308e+18,-1.0,-1.0,-1.0,-2.0,-1.0,0.0,-2.0,-1.0
1.6951620274078336e+18,0.0,0.0,0.0,-1.0,-1.0,-1.0,-1.0,1.0
1.6951620274078336e+18,0.0,0.0,0.0,-1.0,-1.0,0.0,0.0,-2.0
1.6951620274288184e+18,-2.0,-1.0,-1.0,0.0,0.0,-1.0,-2.0,0.0
1.695162027429823e+18,0.0,-1.0,0.0,-2.0,0.0,-2.0,-1.0,0.0
1.6951620274338156e+18,0.0,-1.0,-1.0,-1.0,-2.0,-1.0,-1.0,-1.0
1.6951620274388157e+18,-1.0,-1.0,-3.0,-2.0,-1.0,-1.0,-1.0,0.0
1.6951620274438118e+18,0.0,-1.0,0.0,0.0,-2.0,-1.0,0.0,0.0
1.6951620274448102e+18,0.0,-1.0,0.0,-1.0,-2.0,0.0,0.0,-1.0
1.6951620274458094e+18,0.0,-2.0,0.0,-3.0,-1.0,-1.0,2.0,1.0
1.6951620274458094e+18,-1.0,-1.0,0.0,-3.0,0.0,-1.0,-2.0,-2.0
1.6951620274737925e+18,0.0,0.0,1.0,-1.0,0.0,-4.0,0.0,1.0
1.6951620274737925e+18,-1.0,-1.0,-2.0,1.0,0.0,-3.0,-2.0,0.0
1.6951620274748083e+18,-1.0,-1.0,-2.0,0.0,0.0,-1.0,0.0,0.0
1.6951620274748083e+18,0.0,-2.0,1.0,0.0,-1.0,0.0,-1.0,-1.0
1.695162027480814e+18,0.0,-1.0,0.0,-2.0,0.0,0.0,-3.0,-2.0
1.695162027480814e+18,-2.0,-1.0,-2.0,1.0,0.0,1.0,-1.0,-1.0
1.6951620274969262e+18,-1.0,-1.0,0.0,0.0,-1.0,0.0,-1.0,-1.0
1.6951620274969262e+18,0.0,-1.0,0.0,-1.0,-2.0,0.0,0.0,0.0
1.6951620275041526e+18,1.0,0.0,-2.0,0.0,-3.0,0.0,0.0,0.0
1.69516202750516e+18,0.0,-2.0,-1.0,-1.0,0.0,-1.0,-1.0,0.0
1.6951620275061542e+18,0.0,-1.0,-1.0,-1.0,-1.0,-1.0,-2.0,-3.0
1.6951620275061542e+18,-1.0,-1.0,2.0,2.0,0.0,0.0,-1.0,-2.0
1.695162027527049e+18,-1.0,-2.0,0.0,-1.0,1.0,1.0,-1.0,-1.0
1.695162027527049e+18,0.0,0.0,1.0,0.0,-1.0,-2.0,1.0,-1.0
1.6951620275283238e+18,-5.0,5.0,-6.0,-2.0,-2.0,-2.0,-1.0,-2.0
1.6951620275283238e+18,-1.0,-3.0,1.0,1.0,1.0,0.0,-1.0,-1.0
1.6951620275403328e+18,1.0,-1.0,0.0,0.0,0.0,0.0,1.0,-1.0
1.6951620275403328e+18,-1.0,1.0,-2.0,-1.0,-2.0,-2.0,-2.0,1.0
1.6951620275574577e+18,1.0,0.0,-2.0,-3.0,-2.0,-2.0,1.0,-1.0
1.6951620275584596e+18,-4.0,-7.0,2.0,3.0,3.0,-1.0,0.0,0.0
1.695162027564453e+18,-5.0,-5.0,-2.0,-1.0,-1.0,-1.0,-2.0,-1.0
1.6951620275664566e+18,-1.0,-4.0,1.0,0.0,2.0,-1.0,0.0,-1.0
1.695162027571314e+18,1.0,-2.0,1.0,0.0,-1.0,0.0,-1.0,1.0
1.6951620275723062e+18,1.0,4.0,-5.0,-4.0,-3.0,-2.0,-2.0,-1.0
1.6951620275895744e+18,-2.0,5.0,-4.0,-3.0,0.0,-2.0,-1.0,-3.0
1.6951620275905774e+18,-1.0,7.0,-8.0,-4.0,-3.0,-2.0,-3.0,-2.0
1.6951620275955725e+18,2.0,4.0,-1.0,-1.0,1.0,-3.0,-3.0,-2.0
1.6951620275955725e+18,-2.0,-2.0,-2.0,-2.0,-1.0,-2.0,1.0,-2.0
1.6951620276035684e+18,-2.0,0.0,1.0,0.0,-2.0,0.0,-1.0,-1.0
1.6951620276045665e+18,-1.0,-2.0,-1.0,-1.0,-3.0,-1.0,0.0,0.0
1.6951620276125627e+18,-2.0,-3.0,0.0,1.0,0.0,0.0,-1.0,0.0
1.6951620276125627e+18,2.0,2.0,-3.0,-1.0,0.0,-1.0,0.0,1.0
1.6951620276295524e+18,1.0,2.0,-1.0,-3.0,-2.0,-3.0,-1.0,-1.0
1.6951620276305523e+18,-1.0,-4.0,0.0,-1.0,2.0,-1.0,-1.0,-1.0
1.6951620276315535e+18,-1.0,-11.0,7.0,3.0,1.0,3.0,2.0,1.0
1.6951620276315535e+18,1.0,-2.0,1.0,-2.0,-1.0,1.0,0.0,0.0
1.6951620276465408e+18,-1.0,-2.0,-1.0,1.0,0.0,1.0,-1.0,0.0
1.695162027647542e+18,-3.0,-5.0,4.0,1.0,0.0,0.0,-1.0,1.0
1.695162027648541e+18,1.0,1.0,-3.0,-2.0,-1.0,0.0,-1.0,0.0
1.695162027648541e+18,-2.0,0.0,-3.0,-1.0,-2.0,0.0,-1.0,1.0
1.695162027666535e+18,1.0,-2.0,0.0,-1.0,0.0,0.0,-1.0,-1.0
1.695162027667532e+18,-1.0,1.0,-2.0,-1.0,-1.0,1.0,0.0,-2.0
1.6951620276705283e+18,-2.0,0.0,-2.0,-1.0,-2.0,0.0,-3.0,-2.0
1.6951620276715274e+18,-3.0,-2.0,1.0,0.0,-1.0,0.0,1.0,-1.0
1.695162027683522e+18,-1.0,0.0,0.0,-1.0,-1.0,-1.0,-1.0,0.0
1.6951620276845197e+18,0.0,-1.0,1.0,-1.0,-1.0,-2.0,1.0,-1.0
1.6951620276905175e+18,-1.0,-3.0,0.0,0.0,1.0,-1.0,0.0,0.0
1.6951620276905175e+18,0.0,1.0,-2.0,-3.0,0.0,-3.0,-2.0,-2.0
1.695162027706506e+18,-1.0,-1.0,0.0,-1.0,-1.0,0.0,-1.0,-1.0
1.695162027707506e+18,0.0,1.0,-2.0,-2.0,-1.0,-2.0,-2.0,0.0
1.6951620277085056e+18,1.0,-2.0,-1.0,-3.0,0.0,0.0,-1.0,-1.0
1.6951620277085056e+18,1.0,0.0,-1.0,0.0,-2.0,0.0,-2.0,1.0
1.6951620277204984e+18,-1.0,-1.0,-1.0,-2.0,-1.0,-2.0,1.0,-1.0
1.695162027721498e+18,0.0,-2.0,1.0,1.0,0.0,-1.0,-1.0,-1.0
1.695162027729494e+18,-2.0,2.0,-1.0,-2.0,-1.0,0.0,0.0,-1.0
1.695162027730496e+18,-1.0,-2.0,-1.0,1.0,0.0,0.0,0.0,-1.0
1.695162027744486e+18,0.0,-1.0,-1.0,-1.0,0.0,0.0,0.0,-1.0
1.6951620277454853e+18,-1.0,1.0,-1.0,-1.0,0.0,-2.0,-1.0,-1.0
1.695162027757501e+18,-1.0,0.0,-1.0,-1.0,0.0,-1.0,-1.0,-1.0
1.6951620277584794e+18,1.0,-1.0,0.0,-1.0,-1.0,0.0,-1.0,-1.0
1.6951620277744704e+18,0.0,0.0,-1.0,0.0,-2.0,-1.0,-1.0,0.0
1.6951620277744704e+18,0.0,-1.0,0.0,-1.0,-2.0,0.0,-1.0,1.0
1.695162027775467e+18,-1.0,1.0,0.0,-1.0,-1.0,-4.0,-1.0,-1.0
1.6951620277764703e+18,-2.0,-1.0,-1.0,0.0,1.0,-2.0,0.0,0.0
1.6951620277804687e+18,-2.0,-1.0,-1.0,1.0,-1.0,-2.0,0.0,0.0
1.6951620277804687e+18,0.0,-1.0,1.0,0.0,0.0,0.0,-1.0,-1.0
1.6951620277894643e+18,-1.0,-1.0,-2.0,-1.0,-1.0,-1.0,0.0,-1.0
1.6951620277894643e+18,-1.0,0.0,1.0,0.0,-1.0,-1.0,0.0,-1.0
1.695162027820442e+18,1.0,0.0,1.0,-1.0,-1.0,-1.0,-3.0,-2.0
1.695162027820442e+18,-2.0,0.0,-2.0,0.0,0.0,1.0,0.0,-2.0
1.695162027821441e+18,0.0,-1.0,-1.0,0.0,0.0,-1.0,0.0,0.0
1.6951620278224456e+18,0.0,-2.0,0.0,-1.0,-1.0,-1.0,-2.0,-1.0
1.6951620278264412e+18,-1.0,-2.0,-1.0,0.0,1.0,-1.0,0.0,0.0
1.6951620278274378e+18,-1.0,-1.0,0.0,-1.0,0.0,0.0,0.0,-2.0
1.695162027828438e+18,-1.0,-1.0,-1.0,0.0,0.0,1.0,0.0,-1.0
1.6951620278294374e+18,-1.0,-1.0,-1.0,-1.0,-1.0,0.0,-1.0,0.0
1.6951620278404303e+18,-2.0,0.0,-2.0,-3.0,-1.0,-2.0,0.0,-1.0
1.695162027841439e+18,-1.0,-1.0,-2.0,0.0,-1.0,0.0,-2.0,-1.0
1.695162027849427e+18,-2.0,-1.0,1.0,-1.0,-1.0,-2.0,-1.0,0.0
1.695162027849427e+18,-1.0,-1.0,-1.0,0.0,-2.0,-1.0,-1.0,1.0
1.695162027871435e+18,-1.0,-1.0,0.0,2.0,0.0,0.0,-1.0,-1.0
1.695162027871435e+18,-2.0,0.0,-2.0,1.0,1.0,-2.0,1.0,0.0
1.6951620278734124e+18,0.0,-1.0,-2.0,0.0,-1.0,1.0,1.0,1.0
1.6951620278734124e+18,-1.0,-1.0,-1.0,-1.0,-2.0,0.0,-3.0,-1.0
1.6951620278864028e+18,-1.0,0.0,-1.0,-1.0,-2.0,0.0,-1.0,-3.0
1.6951620278874353e+18,-2.0,-1.0,0.0,-1.0,-3.0,-3.0,-1.0,-2.0
1.6951620278884017e+18,0.0,-2.0,-4.0,-1.0,-3.0,-2.0,-1.0,-2.0
1.6951620278884017e+18,0.0,1.0,3.0,-1.0,0.0,-1.0,-1.0,-2.0
1.6951620279093893e+18,0.0,-1.0,2.0,-1.0,0.0,0.0,-1.0,-1.0
1.6951620279093893e+18,-2.0,0.0,1.0,1.0,-1.0,0.0,-2.0,0.0
1.69516202791039e+18,-1.0,-2.0,3.0,-1.0,1.0,0.0,-1.0,-1.0
1.6951620279113935e+18,1.0,5.0,-8.0,0.0,0.0,-1.0,-1.0,-1.0
1.6951620279314007e+18,-3.0,-6.0,12.0,-2.0,-3.0,-2.0,-2.0,-2.0
1.6951620279323791e+18,-1.0,1.0,4.0,-3.0,-2.0,-2.0,-2.0,-2.0
1.6951620279333788e+18,-1.0,-1.0,-1.0,-1.0,-2.0,-3.0,-2.0,0.0
1.6951620279333788e+18,-2.0,0.0,-1.0,-1.0,-2.0,0.0,0.0,-1.0
1.6951620279463918e+18,0.0,2.0,-7.0,-1.0,-1.0,2.0,-1.0,0.0
1.6951620279463918e+18,0.0,-1.0,-5.0,-1.0,0.0,0.0,0.0,-2.0
1.6951620279483697e+18,0.0,0.0,7.0,0.0,-1.0,-1.0,0.0,-2.0
1.6951620279483697e+18,0.0,-2.0,-1.0,-1.0,0.0,1.0,0.0,-3.0
1.6951620279843464e+18,1.0,0.0,-4.0,1.0,-1.0,0.0,0.0,-1.0
1.6951620279843464e+18,0.0,-3.0,-4.0,-2.0,0.0,-2.0,0.0,-1.0
1.6951620279983626e+18,1.0,0.0,-3.0,-2.0,0.0,0.0,-2.0,0.0
1.6951620279993618e+18,0.0,-3.0,1.0,-1.0,0.0,-1.0,-1.0,-1.0
1.6951620279993618e+18,-1.0,-2.0,-2.0,-3.0,-1.0,-2.0,-1.0,-1.0
1.6951620279993618e+18,0.0,0.0,1.0,-1.0,0.0,0.0,-1.0,-1.0
1.6951620279993618e+18,-2.0,-2.0,-2.0,1.0,-2.0,0.0,-1.0,-2.0
1.6951620279993618e+18,-1.0,-1.0,-1.0,0.0,0.0,0.0,-2.0,-2.0
1.695162028014329e+18,-1.0,-1.0,-3.0,0.0,-1.0,0.0,-1.0,1.0
1.695162028014329e+18,-1.0,0.0,-3.0,0.0,0.0,0.0,1.0,-2.0
1.6951620280153313e+18,-2.0,0.0,-2.0,-1.0,1.0,0.0,-1.0,-2.0
1.6951620280153313e+18,-3.0,-1.0,-2.0,0.0,-1.0,0.0,2.0,0.0
1.6951620280333184e+18,1.0,0.0,-3.0,-1.0,-1.0,-2.0,-1.0,-1.0
1.6951620280333184e+18,1.0,-1.0,-2.0,-2.0,-1.0,-1.0,-1.0,0.0
1.695162028037317e+18,-1.0,1.0,-1.0,-2.0,1.0,-2.0,-1.0,0.0
1.695162028037317e+18,1.0,-1.0,-1.0,-2.0,-1.0,0.0,-2.0,-1.0
1.6951620280513075e+18,0.0,-1.0,-2.0,-2.0,0.0,-2.0,0.0,1.0
1.6951620280523108e+18,-1.0,-2.0,-1.0,-1.0,-3.0,-1.0,-1.0,0.0
1.6951620280533076e+18,2.0,-2.0,-1.0,0.0,-1.0,1.0,-1.0,-1.0
1.6951620280543096e+18,0.0,-1.0,0.0,0.0,-1.0,-1.0,-2.0,-1.0
1.6951620280732977e+18,-2.0,-1.0,0.0,-2.0,0.0,-2.0,-1.0,-1.0
1.6951620280732977e+18,-1.0,1.0,-1.0,-1.0,-3.0,-2.0,-1.0,1.0
1.6951620280732977e+18,-2.0,-2.0,-2.0,-1.0,-4.0,1.0,1.0,0.0
1.6951620280742994e+18,-2.0,-1.0,-2.0,-2.0,0.0,-2.0,0.0,-2.0
1.6951620280882944e+18,0.0,-2.0,-1.0,0.0,0.0,-2.0,0.0,-1.0
1.6951620280882944e+18,-3.0,0.0,0.0,0.0,1.0,-1.0,1.0,0.0
1.6951620280962826e+18,1.0,-1.0,-1.0,2.0,0.0,0.0,-2.0,-1.0
1.6951620280972854e+18,0.0,-2.0,0.0,-2.0,-1.0,-1.0,1.0,0.0
1.6951620281122975e+18,0.0,1.0,-1.0,0.0,-1.0,0.0,-2.0,0.0
1.6951620281122975e+18,-1.0,-2.0,0.0,0.0,0.0,0.0,-1.0,0.0
1.6951620281132736e+18,-2.0,0.0,-1.0,1.0,0.0,-2.0,1.0,0.0
1.6951620281132736e+18,0.0,-2.0,0.0,-1.0,1.0,0.0,-1.0,0.0
1.6951620281338378e+18,0.0,0.0,-2.0,-2.0,0.0,-1.0,-2.0,-1.0
1.6951620281348393e+18,2.0,0.0,-1.0,-2.0,-1.0,-1.0,-1.0,1.0
1.695162028135837e+18,0.0,-1.0,1.0,-2.0,-1.0,0.0,-2.0,1.0
1.695162028135837e+18,-1.0,0.0,0.0,-1.0,0.0,-3.0,1.0,-1.0
1.6951620281488315e+18,-1.0,-1.0,1.0,-2.0,-1.0,-1.0,0.0,-2.0
1.6951620281498363e+18,-1.0,-2.0,0.0,-1.0,0.0,-2.0,-1.0,-2.0
1.6951620281508332e+18,0.0,-1.0,-1.0,-1.0,-1.0,-2.0,0.0,-2.0
1.6951620281508332e+18,-2.0,-2.0,0.0,0.0,-2.0,-1.0,0.0,0.0
1.69516202816682e+18,-1.0,0.0,-1.0,0.0,-2.0,-1.0,0.0,-1.0
1.69516202816682e+18,-1.0,-2.0,-2.0,0.0,0.0,-2.0,-1.0,-1.0
1.6951620281808123e+18,-2.0,-2.0,-1.0,-3.0,0.0,-2.0,-1.0,-1.0
1.6951620281808123e+18,0.0,-1.0,-1.0,-2.0,0.0,0.0,-3.0,0.0
1.6951620281868127e+18,0.0,-1.0,0.0,1.0,0.0,0.0,-2.0,-2.0
1.695162028187808e+18,0.0,1.0,-1.0,0.0,-1.0,0.0,-1.0,1.0
1.6951620281888077e+18,-1.0,-1.0,-1.0,-2.0,-2.0,-1.0,0.0,-1.0
1.6951620281888077e+18,0.0,0.0,-2.0,-1.0,-2.0,-1.0,-1.0,-1.0
1.6951620282167913e+18,-2.0,-1.0,-1.0,-1.0,0.0,-1.0,0.0,0.0
1.6951620282167913e+18,-1.0,-1.0,0.0,0.0,-1.0,1.0,-2.0,0.0
1.6951620282177923e+18,-1.0,1.0,0.0,0.0,-2.0,-1.0,1.0,-1.0
1.6951620282187935e+18,-1.0,-1.0,0.0,0.0,-1.0,-2.0,0.0,0.0
1.6951620282228111e+18,-1.0,0.0,-1.0,0.0,0.0,-1.0,0.0,-1.0
1.6951620282228111e+18,-3.0,-1.0,-1.0,-1.0,-2.0,0.0,0.0,-1.0
1.6951620282387784e+18,0.0,-1.0,-2.0,-1.0,-1.0,-1.0,-1.0,0.0
1.6951620282387784e+18,0.0,-2.0,0.0,-1.0,1.0,0.0,0.0,-2.0
1.6951620282477734e+18,-1.0,-2.0,-2.0,0.0,-1.0,-1.0,-1.0,0.0
1.6951620282477734e+18,1.0,1.0,0.0,-2.0,1.0,0.0,-2.0,0.0
1.6951620282487726e+18,-3.0,-1.0,0.0,-2.0,-2.0,-1.0,-1.0,-1.0
1.6951620282487726e+18,-1.0,-1.0,-3.0,0.0,-1.0,0.0,-1.0,-1.0
1.695162028276757e+18,-1.0,0.0,0.0,-2.0,-2.0,-2.0,0.0,-1.0
1.695162028276757e+18,1.0,-2.0,-2.0,-1.0,-1.0,-1.0,0.0,0.0
1.695162028277757e+18,-1.0,-2.0,-1.0,0.0,-2.0,1.0,1.0,-1.0
1.6951620282787581e+18,-1.0,0.0,0.0,1.0,-1.0,-1.0,1.0,-1.0
1.6951620282827543e+18,0.0,-1.0,-1.0,0.0,-1.0,1.0,-1.0,-1.0
1.6951620282827543e+18,0.0,-1.0,0.0,1.0,-1.0,-1.0,-1.0,0.0
1.695162028291751e+18,-2.0,0.0,-1.0,-1.0,-1.0,0.0,-1.0,-1.0
1.695162028291751e+18,-1.0,-1.0,0.0,-1.0,-1.0,-1.0,0.0,1.0
1.6951620283157345e+18,-1.0,0.0,-1.0,-2.0,-2.0,0.0,-1.0,-1.0
1.6951620283157345e+18,0.0,-1.0,0.0,0.0,-1.0,-1.0,0.0,-3.0
1.6951620283167342e+18,0.0,-1.0,-2.0,-1.0,0.0,-1.0,0.0,0.0
1.6951620283167342e+18,-2.0,-1.0,-2.0,-1.0,-1.0,-1.0,-1.0,0.0
1.6951620283307256e+18,-1.0,-2.0,-1.0,1.0,-1.0,-1.0,0.0,-1.0
1.6951620283307256e+18,-3.0,0.0,0.0,-2.0,-1.0,-1.0,0.0,-2.0
1.6951620283317253e+18,-1.0,0.0,0.0,0.0,0.0,-2.0,0.0,1.0
1.6951620283317253e+18,-1.0,0.0,-1.0,-2.0,1.0,-1.0,-3.0,0.0
1.6951620283437197e+18,-1.0,-1.0,-2.0,-1.0,-1.0,0.0,-2.0,1.0
1.6951620283447186e+18,0.0,-1.0,-1.0,1.0,-1.0,0.0,-1.0,-1.0
1.6951620283507146e+18,-2.0,0.0,-3.0,-1.0,-1.0,1.0,-1.0,1.0
1.6951620283507146e+18,-1.0,0.0,-2.0,0.0,-1.0,0.0,0.0,-1.0
1.6951620283677046e+18,-1.0,0.0,1.0,-2.0,0.0,0.0,2.0,-2.0
1.6951620283677046e+18,0.0,-1.0,-2.0,-2.0,1.0,-3.0,0.0,-2.0
1.6951620283687063e+18,-1.0,1.0,-1.0,0.0,-2.0,0.0,0.0,-1.0
1.6951620283687063e+18,-2.0,0.0,0.0,-1.0,0.0,-1.0,-2.0,0.0
1.6951620283895895e+18,-2.0,-1.0,1.0,-2.0,-1.0,0.0,-1.0,-1.0
1.6951620283895895e+18,-1.0,-2.0,-1.0,0.0,0.0,2.0,0.0,-1.0
1.6951620283906125e+18,0.0,-2.0,-1.0,-1.0,-1.0,-1.0,0.0,-1.0
1.6951620283906125e+18,-1.0,0.0,-2.0,-1.0,1.0,-1.0,1.0,0.0
1.6951620284025866e+18,0.0,-1.0,1.0,0.0,-2.0,-1.0,0.0,0.0
1.6951620284035853e+18,-2.0,-1.0,0.0,0.0,-1.0,0.0,-2.0,0.0
1.695162028411601e+18,-1.0,-1.0,-1.0,-1.0,-2.0,-2.0,-1.0,-1.0
1.695162028411601e+18,-1.0,0.0,-1.0,-1.0,-2.0,0.0,-1.0,-1.0
1.6951620284268114e+18,-1.0,0.0,-3.0,0.0,0.0,0.0,0.0,0.0
1.6951620284268114e+18,2.0,1.0,-1.0,-1.0,-1.0,-2.0,-1.0,-1.0
1.6951620284288146e+18,0.0,-2.0,-1.0,0.0,-1.0,0.0,-2.0,-2.0
1.6951620284288146e+18,0.0,-1.0,1.0,0.0,-2.0,1.0,0.0,-2.0
1.6951620284494702e+18,0.0,0.0,-1.0,-2.0,-3.0,0.0,0.0,-2.0
1.6951620284494702e+18,-1.0,-1.0,-1.0,0.0,-2.0,-1.0,0.0,0.0
1.6951620284504484e+18,0.0,-1.0,0.0,-2.0,-1.0,0.0,1.0,-2.0
1.6951620284504484e+18,-1.0,0.0,0.0,-2.0,-2.0,0.0,0.0,-1.0
1.6951620284624381e+18,1.0,-1.0,0.0,-2.0,0.0,0.0,-1.0,0.0
1.6951620284634414e+18,-1.0,-2.0,0.0,0.0,-2.0,1.0,-2.0,0.0
1.6951620284794301e+18,-1.0,0.0,-1.0,0.0,1.0,-1.0,-1.0,-1.0
1.6951620284794301e+18,-1.0,-3.0,0.0,0.0,-1.0,-2.0,0.0,-1.0
1.6951620284864287e+18,-2.0,-1.0,-2.0,-1.0,0.0,-1.0,-2.0,0.0
1.6951620284874447e+18,-1.0,0.0,-1.0,-1.0,-3.0,-2.0,0.0,-1.0
1.6951620284884273e+18,0.0,-2.0,-2.0,-1.0,-2.0,0.0,-1.0,-1.0
1.6951620284884273e+18,-1.0,-1.0,-1.0,-2.0,1.0,0.0,0.0,-2.0
1.6951620285098614e+18,0.0,-2.0,-1.0,0.0,1.0,-1.0,-1.0,-1.0
1.695162028510867e+18,-1.0,0.0,0.0,0.0,-2.0,1.0,2.0,-2.0
1.6951620285118725e+18,1.0,0.0,1.0,-1.0,-1.0,-2.0,-2.0,-2.0
1.6951620285118725e+18,0.0,0.0,-2.0,-1.0,-2.0,-2.0,-2.0,-3.0
1.6951620285398518e+18,0.0,0.0,5.0,-4.0,-5.0,-4.0,-1.0,-2.0
1.6951620285398518e+18,-1.0,-2.0,-4.0,-4.0,-7.0,-1.0,-3.0,-3.0
1.6951620285408502e+18,-2.0,-2.0,-1.0,-1.0,4.0,1.0,-3.0,-3.0
1.695162028541857e+18,-1.0,-5.0,-4.0,0.0,-6.0,-7.0,-2.0,0.0
1.6951620285468467e+18,-5.0,-4.0,-2.0,6.0,-2.0,-6.0,-3.0,-3.0
1.6951620285478456e+18,-3.0,2.0,8.0,2.0,-1.0,1.0,-2.0,-1.0
1.6951620285538422e+18,0.0,-2.0,-5.0,-7.0,-9.0,-8.0,-1.0,-1.0
1.695162028554847e+18,1.0,1.0,0.0,3.0,7.0,21.0,7.0,4.0
1.6951620285778314e+18,-1.0,-1.0,-3.0,-2.0,9.0,3.0,1.0,0.0
1.695162028578829e+18,-1.0,0.0,3.0,-6.0,-19.0,-10.0,-2.0,-2.0
1.695162028578829e+18,-4.0,2.0,14.0,1.0,-3.0,-8.0,-5.0,-1.0
1.6951620285798303e+18,-1.0,-1.0,-10.0,5.0,-11.0,-8.0,-3.0,0.0
1.6951620285828247e+18,-2.0,-1.0,1.0,-17.0,-4.0,-1.0,-2.0,-2.0
1.6951620285838244e+18,-1.0,-7.0,-15.0,-3.0,-1.0,-11.0,-4.0,-1.0
1.695162028592819e+18,1.0,-2.0,-4.0,7.0,13.0,13.0,3.0,1.0
1.695162028592819e+18,0.0,-1.0,3.0,-3.0,-5.0,-14.0,0.0,0.0
1.6951620286068111e+18,1.0,0.0,-1.0,-3.0,-27.0,4.0,1.0,0.0
1.6951620286068111e+18,0.0,0.0,0.0,3.0,32.0,22.0,1.0,0.0
1.6951620286088095e+18,-1.0,0.0,-1.0,9.0,17.0,7.0,3.0,0.0
1.6951620286088095e+18,0.0,-1.0,3.0,7.0,19.0,0.0,-2.0,-2.0
1.6951620286287972e+18,0.0,-2.0,-7.0,-4.0,-9.0,-13.0,-4.0,-2.0
1.6951620286297994e+18,1.0,1.0,0.0,-14.0,-29.0,-3.0,1.0,0.0
1.6951620286307965e+18,0.0,-3.0,-6.0,-4.0,-5.0,0.0,0.0,0.0
1.6951620286307965e+18,-1.0,1.0,1.0,-2.0,0.0,1.0,-4.0,-2.0
1.6951620286515558e+18,-2.0,-3.0,-2.0,0.0,6.0,-2.0,2.0,0.0
1.6951620286515558e+18,1.0,-1.0,0.0,9.0,2.0,-3.0,-3.0,-2.0
1.695162028653564e+18,-2.0,1.0,7.0,9.0,-12.0,-13.0,-11.0,-4.0
1.695162028653564e+18,-2.0,-1.0,-1.0,-7.0,-4.0,8.0,-2.0,-4.0
1.6951620286657124e+18,-1.0,-2.0,-2.0,2.0,1.0,-9.0,-6.0,-1.0
1.6951620286667133e+18,1.0,1.0,0.0,5.0,13.0,-1.0,4.0,1.0
1.6951620286803502e+18,1.0,-1.0,-9.0,-8.0,5.0,17.0,9.0,-2.0
1.6951620286803502e+18,1.0,1.0,4.0,-1.0,-5.0,-4.0,-4.0,2.0
1.695162028689588e+18,1.0,5.0,2.0,2.0,5.0,-4.0,-26.0,-7.0
1.695162028689588e+18,1.0,-3.0,-3.0,-2.0,5.0,20.0,45.0,18.0
1.695162028690601e+18,0.0,0.0,0.0,-4.0,-24.0,-30.0,1.0,-1.0
1.695162028690601e+18,-2.0,-5.0,-2.0,-1.0,3.0,21.0,-5.0,-7.0
1.6951620287035628e+18,-3.0,-8.0,-7.0,1.0,3.0,10.0,9.0,3.0
1.6951620287035628e+18,-1.0,0.0,-2.0,-3.0,-4.0,-23.0,-12.0,-8.0
1.6951620287113165e+18,-1.0,3.0,1.0,0.0,0.0,-5.0,-21.0,1.0
1.6951620287113165e+18,1.0,1.0,-3.0,-10.0,3.0,4.0,4.0,1.0
1.6951620287283075e+18,-3.0,-4.0,0.0,-1.0,-4.0,-6.0,-8.0,-3.0
1.6951620287283075e+18,0.0,4.0,5.0,9.0,2.0,4.0,-4.0,-2.0
1.6951620287343035e+18,-1.0,-2.0,-3.0,2.0,-7.0,-21.0,-18.0,-5.0
1.6951620287343035e+18,-2.0,-5.0,-9.0,-8.0,-9.0,4.0,1.0,0.0
1.6951620287492943e+18,2.0,3.0,9.0,5.0,3.0,1.0,-1.0,-4.0
1.6951620287492943e+18,-3.0,-3.0,-4.0,2.0,-7.0,-16.0,-27.0,-3.0
1.6951620287552899e+18,3.0,3.0,1.0,-1.0,12.0,23.0,16.0,1.0
1.6951620287562908e+18,-1.0,-2.0,4.0,-4.0,-9.0,-4.0,-6.0,-3.0
1.6951620287643095e+18,0.0,1.0,-8.0,-8.0,12.0,5.0,16.0,-3.0
1.6951620287732815e+18,1.0,-2.0,4.0,1.0,-4.0,4.0,2.0,7.0
1.6951620287732815e+18,-2.0,-4.0,-3.0,1.0,-5.0,-1.0,8.0,0.0
1.6951620287732815e+18,-4.0,-1.0,-10.0,0.0,-5.0,-14.0,-16.0,-2.0
1.6951620287862715e+18,-1.0,-3.0,8.0,7.0,-2.0,6.0,25.0,3.0
1.6951620287862715e+18,-4.0,-2.0,-10.0,-10.0,2.0,-2.0,-18.0,-4.0
1.6951620287942707e+18,2.0,-4.0,0.0,-2.0,4.0,5.0,-14.0,3.0
1.6951620287942707e+18,1.0,1.0,4.0,8.0,4.0,-1.0,4.0,-4.0
1.6951620288162778e+18,0.0,4.0,6.0,5.0,8.0,6.0,-3.0,0.0
1.6951620288172618e+18,-4.0,-6.0,4.0,-4.0,-10.0,-17.0,-16.0,-13.0
1.6951620288182758e+18,-1.0,3.0,4.0,-11.0,-7.0,4.0,3.0,5.0
1.6951620288182758e+18,-2.0,-1.0,-4.0,1.0,7.0,-7.0,3.0,0.0
1.6951620288312443e+18,0.0,2.0,1.0,11.0,5.0,-7.0,-16.0,0.0
1.6951620288322627e+18,0.0,0.0,-3.0,-16.0,-12.0,-3.0,-18.0,-1.0
1.6951620288332467e+18,1.0,1.0,3.0,16.0,9.0,9.0,19.0,-2.0
1.6951620288332467e+18,-1.0,-2.0,-2.0,-10.0,-6.0,-9.0,-19.0,0.0
1.6951620288462607e+18,0.0,-2.0,-6.0,8.0,7.0,-8.0,4.0,2.0
1.695162028847238e+18,-3.0,-4.0,-4.0,-1.0,6.0,26.0,23.0,-1.0
1.6951620288542328e+18,-4.0,-5.0,2.0,1.0,-2.0,-3.0,-12.0,1.0
1.6951620288542328e+18,2.0,9.0,11.0,4.0,-3.0,-13.0,-2.0,-2.0
1.6951620288932096e+18,-1.0,-2.0,-5.0,4.0,3.0,5.0,-14.0,-3.0
1.6951620288932096e+18,2.0,-2.0,-3.0,-4.0,-8.0,5.0,19.0,5.0
1.6951620288942328e+18,-6.0,-7.0,-17.0,-19.0,-11.0,-17.0,-19.0,-11.0
1.6951620288942328e+18,0.0,-2.0,5.0,7.0,6.0,0.0,-10.0,-1.0
1.6951620288952335e+18,3.0,4.0,5.0,-9.0,-3.0,-1.0,3.0,-2.0
1.6951620288952335e+18,-1.0,2.0,4.0,8.0,2.0,-6.0,7.0,-6.0
1.6951620288992356e+18,1.0,-1.0,-7.0,-12.0,1.0,18.0,18.0,12.0
1.6951620288992356e+18,1.0,3.0,1.0,5.0,-2.0,2.0,21.0,11.0
1.6951620289062016e+18,-3.0,-5.0,-3.0,-12.0,-12.0,-2.0,-3.0,-9.0
1.6951620289062016e+18,0.0,-1.0,2.0,-1.0,15.0,7.0,1.0,-1.0
1.6951620289357192e+18,0.0,3.0,-5.0,-1.0,-2.0,0.0,19.0,5.0
1.6951620289357192e+18,-2.0,-4.0,-4.0,-21.0,-30.0,-27.0,-9.0,-8.0
1.6951620289585718e+18,3.0,1.0,-13.0,11.0,25.0,21.0,-1.0,7.0
1.6951620289585718e+18,0.0,2.0,7.0,8.0,3.0,16.0,36.0,5.0
1.6951620289905567e+18,-3.0,-6.0,-11.0,-23.0,-26.0,-14.0,-22.0,-9.0
1.695162028991561e+18,-3.0,-2.0,6.0,6.0,9.0,-5.0,-6.0,-6.0
1.695162028991561e+18,2.0,1.0,8.0,14.0,-5.0,3.0,-4.0,-3.0
1.695162028991561e+18,0.0,0.0,1.0,10.0,21.0,3.0,-16.0,-2.0
1.6951620289980224e+18,5.0,5.0,-21.0,-15.0,12.0,36.0,49.0,14.0
1.6951620289980224e+18,-1.0,-5.0,11.0,4.0,-12.0,-6.0,2.0,-2.0
1.6951620289990254e+18,-3.0,-3.0,-6.0,-18.0,-14.0,-20.0,-20.0,-8.0
1.6951620289990254e+18,1.0,-3.0,3.0,7.0,0.0,3.0,11.0,5.0
1.695162028999698e+18,-1.0,0.0,-2.0,-10.0,-13.0,-10.0,1.0,-2.0
1.695162028999698e+18,0.0,3.0,-1.0,-8.0,-1.0,-6.0,-16.0,4.0
1.695162029002703e+18,-3.0,-9.0,1.0,11.0,14.0,-8.0,-20.0,-5.0
1.6951620290037002e+18,1.0,-5.0,8.0,4.0,0.0,8.0,27.0,5.0
1.695162029011696e+18,-1.0,-4.0,-9.0,-12.0,-9.0,2.0,-2.0,2.0
1.695162029011696e+18,1.0,-3.0,1.0,3.0,-14.0,-9.0,-6.0,-6.0
1.6951620290136934e+18,-4.0,4.0,15.0,25.0,16.0,-5.0,-14.0,-11.0
1.6951620290136934e+18,-6.0,-5.0,-10.0,-9.0,8.0,-6.0,-21.0,-19.0
1.695162029033685e+18,0.0,-12.0,2.0,-15.0,-12.0,2.0,20.0,18.0
1.695162029034681e+18,2.0,18.0,-18.0,-11.0,-9.0,3.0,6.0,5.0
1.6951620290376799e+18,1.0,-1.0,13.0,-3.0,-23.0,-19.0,-35.0,-13.0
1.6951620290376799e+18,-4.0,-7.0,-2.0,17.0,18.0,8.0,23.0,2.0
1.6951620290606671e+18,-6.0,-13.0,5.0,5.0,3.0,-11.0,-15.0,-3.0
1.6951620290606671e+18,-1.0,-3.0,-4.0,0.0,-1.0,2.0,-17.0,-10.0
1.695162029061666e+18,0.0,3.0,-9.0,-12.0,1.0,6.0,17.0,6.0
1.695162029061666e+18,0.0,-10.0,11.0,7.0,0.0,15.0,-1.0,13.0
1.6951620290736591e+18,2.0,22.0,-13.0,-16.0,-11.0,-5.0,0.0,-1.0
1.69516202907466e+18,1.0,-5.0,10.0,25.0,19.0,2.0,-14.0,1.0
1.69516202907466e+18,-2.0,-14.0,-3.0,3.0,-4.0,-13.0,-9.0,1.0
1.69516202907466e+18,-7.0,-19.0,12.0,2.0,-8.0,4.0,14.0,1.0
1.6951620291106373e+18,-4.0,7.0,-3.0,10.0,20.0,8.0,15.0,2.0
1.6951620291106373e+18,-5.0,-11.0,-2.0,-17.0,-24.0,-19.0,-8.0,-8.0
1.6951620291126367e+18,-1.0,13.0,0.0,4.0,16.0,5.0,-2.0,0.0
1.6951620291126367e+18,4.0,10.0,-11.0,-12.0,-4.0,-6.0,-11.0,5.0
1.6951620291136366e+18,1.0,-11.0,6.0,7.0,-8.0,8.0,24.0,7.0
1.6951620291136366e+18,-3.0,13.0,-6.0,-3.0,-4.0,-12.0,-24.0,-7.0
1.695162029153613e+18,-1.0,-3.0,5.0,1.0,6.0,6.0,-5.0,0.0
1.695162029153613e+18,4.0,8.0,-6.0,-7.0,-12.0,2.0,17.0,3.0
1.6951620291616108e+18,-2.0,-6.0,3.0,-3.0,0.0,0.0,-14.0,1.0
1.6951620291616108e+18,-2.0,6.0,-7.0,-1.0,0.0,17.0,1.0,-1.0
1.6951620291716032e+18,1.0,3.0,8.0,17.0,12.0,1.0,21.0,3.0
1.6951620291716032e+18,-1.0,-4.0,-13.0,-25.0,-5.0,-9.0,-17.0,-8.0
1.6951620291726034e+18,-1.0,-6.0,3.0,11.0,-10.0,-9.0,11.0,-1.0
1.6951620291726034e+18,-3.0,-10.0,2.0,-1.0,6.0,-3.0,0.0,2.0
1.6951620292225738e+18,0.0,-21.0,0.0,-3.0,-18.0,-2.0,7.0,4.0
1.6951620292235738e+18,-5.0,-9.0,-4.0,8.0,23.0,11.0,-12.0,-3.0
1.6951620292235738e+18,4.0,32.0,-11.0,-6.0,20.0,2.0,-7.0,-10.0
1.6951620292235738e+18,-7.0,-28.0,21.0,15.0,-8.0,-10.0,-13.0,-3.0
1.6951620292245722e+18,1.0,-6.0,6.0,2.0,-11.0,1.0,8.0,4.0
1.6951620292245722e+18,0.0,3.0,-22.0,-31.0,18.0,1.0,6.0,-7.0
1.6951620292435622e+18,1.0,23.0,4.0,1.0,-8.0,-12.0,-12.0,-6.0
1.6951620292455606e+18,-4.0,-15.0,-1.0,9.0,2.0,6.0,-10.0,4.0
1.6951620292455606e+18,-1.0,-1.0,-1.0,2.0,2.0,-5.0,-44.0,0.0
1.6951620292455606e+18,3.0,17.0,-1.0,-6.0,-12.0,-9.0,3.0,-6.0
1.6951620292455606e+18,-5.0,-11.0,-2.0,-5.0,0.0,9.0,-3.0,-4.0
1.6951620292465603e+18,3.0,11.0,-2.0,4.0,-3.0,-1.0,-8.0,-5.0
1.695162029290534e+18,0.0,8.0,-5.0,-3.0,11.0,20.0,17.0,8.0
1.695162029290534e+18,1.0,3.0,-3.0,-6.0,-8.0,-13.0,-29.0,-11.0
1.6951620292915338e+18,-1.0,-6.0,-1.0,-2.0,-5.0,-4.0,15.0,-4.0
1.6951620292915338e+18,0.0,-17.0,3.0,3.0,5.0,0.0,-6.0,3.0
1.695162029292535e+18,2.0,4.0,4.0,-4.0,-9.0,-9.0,-10.0,-1.0
1.695162029292535e+18,0.0,7.0,-8.0,-3.0,-3.0,-11.0,-34.0,-10.0
1.6951620292965315e+18,-2.0,-12.0,5.0,-2.0,-2.0,13.0,58.0,10.0
1.6951620292975314e+18,-4.0,2.0,4.0,3.0,-13.0,-17.0,16.0,-3.0
1.695162029298531e+18,-5.0,-2.0,-13.0,-8.0,12.0,-3.0,-7.0,-7.0
1.695162029298531e+18,0.0,5.0,2.0,-3.0,-1.0,5.0,6.0,-1.0
1.6951620293355323e+18,-5.0,-3.0,14.0,22.0,-2.0,-5.0,-12.0,-7.0
1.6951620293355323e+18,1.0,9.0,-4.0,-5.0,8.0,12.0,24.0,9.0
1.6951620293375155e+18,1.0,12.0,-5.0,-3.0,-6.0,-6.0,-1.0,-6.0
1.6951620293375155e+18,3.0,7.0,-3.0,2.0,-4.0,-1.0,-7.0,2.0
1.6951620293385098e+18,-1.0,-9.0,7.0,2.0,1.0,0.0,1.0,0.0
1.6951620293385098e+18,1.0,2.0,-5.0,-5.0,-3.0,0.0,-3.0,1.0
1.6951620293514995e+18,-3.0,13.0,-12.0,-17.0,-5.0,2.0,4.0,1.0
1.6951620293514995e+18,-6.0,-19.0,8.0,6.0,-4.0,0.0,6.0,0.0
1.6951620293524992e+18,-1.0,11.0,-16.0,-14.0,-3.0,-22.0,-34.0,-11.0
1.6951620293524992e+18,0.0,-6.0,4.0,3.0,-4.0,2.0,4.0,-1.0
1.6951620294034706e+18,-4.0,-7.0,10.0,12.0,-2.0,-8.0,-26.0,-11.0
1.6951620294034706e+18,-4.0,-5.0,-7.0,-10.0,-7.0,-8.0,-13.0,-6.0
1.6951620294044703e+18,1.0,13.0,-7.0,-8.0,-4.0,4.0,-1.0,0.0
1.6951620294044703e+18,1.0,2.0,-5.0,-2.0,-2.0,0.0,-3.0,1.0
1.695162029405469e+18,-3.0,3.0,12.0,17.0,2.0,0.0,3.0,1.0
1.695162029405469e+18,-1.0,3.0,-2.0,-5.0,0.0,2.0,-14.0,1.0
1.6951620294104658e+18,-5.0,-1.0,-4.0,-2.0,-2.0,-8.0,4.0,0.0
1.6951620294114693e+18,2.0,-13.0,4.0,-9.0,-3.0,-5.0,-7.0,0.0
1.6951620294124654e+18,1.0,-17.0,3.0,-1.0,3.0,8.0,7.0,6.0
1.6951620294124654e+18,-7.0,-9.0,-3.0,9.0,-1.0,-5.0,23.0,-4.0
1.6951620294124654e+18,-1.0,0.0,-6.0,-4.0,5.0,1.0,13.0,-4.0
1.6951620294134643e+18,0.0,-2.0,-3.0,4.0,-1.0,6.0,-14.0,-4.0
1.6951620294404503e+18,0.0,-8.0,4.0,6.0,-2.0,4.0,-2.0,7.0
1.6951620294414505e+18,1.0,-7.0,0.0,1.0,5.0,12.0,16.0,5.0
1.6951620294414505e+18,3.0,-2.0,-3.0,-8.0,-1.0,-1.0,4.0,-1.0
1.6951620294424484e+18,-3.0,2.0,1.0,14.0,9.0,4.0,8.0,-2.0
1.6951620294454461e+18,1.0,5.0,-5.0,-4.0,3.0,6.0,8.0,-13.0
1.6951620294464458e+18,-5.0,-21.0,7.0,0.0,-10.0,-29.0,-5.0,-11.0
1.6951620294464458e+18,1.0,5.0,-3.0,-5.0,2.0,16.0,1.0,9.0
1.6951620294464458e+18,-5.0,16.0,-10.0,-7.0,-7.0,-9.0,-2.0,-6.0
1.6951620294614377e+18,-2.0,6.0,-7.0,-8.0,-7.0,-18.0,-7.0,-4.0
1.6951620294624364e+18,6.0,6.0,3.0,6.0,2.0,3.0,6.0,3.0
1.6951620294904192e+18,-2.0,10.0,-1.0,3.0,3.0,3.0,-18.0,-6.0
1.6951620294914196e+18,2.0,-5.0,5.0,-7.0,-13.0,-7.0,-5.0,4.0
1.695162029500414e+18,1.0,8.0,-13.0,-10.0,-6.0,0.0,-4.0,-2.0
1.695162029500414e+18,-8.0,-6.0,3.0,2.0,-2.0,-3.0,-14.0,-3.0
1.6951620295014134e+18,4.0,7.0,1.0,0.0,5.0,13.0,9.0,6.0
1.6951620295014134e+18,0.0,-4.0,6.0,12.0,12.0,-3.0,-4.0,-7.0
1.695162029516406e+18,-1.0,-4.0,-3.0,-10.0,-13.0,-13.0,-26.0,-15.0
1.695162029516406e+18,0.0,12.0,-6.0,-3.0,-1.0,10.0,14.0,12.0
1.6951620295174287e+18,-3.0,-21.0,0.0,-5.0,-5.0,-14.0,-10.0,-5.0
1.6951620295174287e+18,-3.0,-7.0,-11.0,-11.0,-4.0,11.0,-13.0,-9.0
1.69516202955041e+18,-1.0,-28.0,15.0,16.0,17.0,15.0,16.0,10.0
1.69516202955041e+18,0.0,9.0,-9.0,-7.0,-10.0,-25.0,-27.0,-13.0
1.695162029558381e+18,0.0,-13.0,3.0,-1.0,-5.0,-14.0,-14.0,-1.0
1.695162029558381e+18,0.0,-5.0,0.0,6.0,8.0,6.0,11.0,6.0
1.6951620295833905e+18,-2.0,18.0,-6.0,-3.0,-5.0,2.0,-12.0,-1.0
1.6951620295833905e+18,-1.0,-12.0,2.0,-2.0,9.0,6.0,3.0,-3.0
1.6951620295833905e+18,2.0,7.0,13.0,20.0,-5.0,-5.0,-9.0,-1.0
1.6951620295843666e+18,-2.0,5.0,-10.0,-11.0,-7.0,-11.0,-4.0,-1.0
1.6951620295883656e+18,3.0,3.0,-2.0,-3.0,3.0,-2.0,1.0,3.0
1.6951620295883656e+18,-2.0,10.0,10.0,9.0,-1.0,5.0,0.0,3.0
1.6951620296133504e+18,-1.0,-8.0,0.0,-4.0,4.0,5.0,9.0,-3.0
1.6951620296133504e+18,-1.0,8.0,0.0,6.0,-4.0,0.0,9.0,3.0
1.6951620296133504e+18,-4.0,2.0,-14.0,-18.0,0.0,2.0,4.0,-1.0
1.695162029614352e+18,-2.0,0.0,-4.0,1.0,-2.0,-3.0,-4.0,-2.0
1.6951620296153487e+18,0.0,10.0,1.0,-7.0,3.0,-5.0,-2.0,-1.0
1.6951620296153487e+18,2.0,13.0,-5.0,1.0,4.0,3.0,-2.0,2.0
1.6951620296183468e+18,-4.0,-2.0,-1.0,2.0,0.0,1.0,-1.0,-3.0
1.6951620296183468e+18,-1.0,-1.0,3.0,0.0,-5.0,0.0,2.0,2.0
1.6951620296273418e+18,1.0,6.0,-5.0,-10.0,-6.0,-3.0,4.0,-2.0
1.6951620296273418e+18,-2.0,-3.0,1.0,4.0,2.0,5.0,3.0,-1.0
1.6951620296643205e+18,3.0,23.0,-8.0,-1.0,-1.0,2.0,2.0,-2.0
1.6951620296643205e+18,-5.0,-9.0,3.0,3.0,4.0,3.0,6.0,0.0
1.6951620296703212e+18,0.0,-20.0,10.0,9.0,1.0,2.0,3.0,1.0
1.6951620296713188e+18,1.0,2.0,-5.0,-1.0,-1.0,0.0,-2.0,-3.0
1.69516202968047e+18,-2.0,-7.0,0.0,-1.0,-4.0,-3.0,2.0,-1.0
1.69516202968047e+18,1.0,-1.0,2.0,-1.0,3.0,-2.0,-1.0,-2.0
1.695162029681495e+18,-2.0,-3.0,-2.0,0.0,1.0,1.0,2.0,1.0
1.6951620296824763e+18,-2.0,-8.0,-3.0,-5.0,-4.0,0.0,-1.0,0.0
1.6951620296824763e+18,0.0,-4.0,4.0,0.0,-1.0,0.0,1.0,-1.0
1.6951620296824763e+18,4.0,-3.0,-1.0,-3.0,0.0,1.0,1.0,0.0
1.6951620296864748e+18,0.0,0.0,-2.0,3.0,-2.0,-4.0,-3.0,2.0
1.6951620296874719e+18,0.0,-5.0,-3.0,-3.0,-1.0,-2.0,0.0,1.0
1.695162029726524e+18,1.0,2.0,-3.0,-2.0,-4.0,-4.0,-3.0,0.0
1.695162029726524e+18,-2.0,-3.0,1.0,2.0,2.0,-1.0,-2.0,1.0
1.6951620297275236e+18,-2.0,-2.0,0.0,0.0,1.0,-1.0,-1.0,-2.0
1.6951620297275236e+18,-2.0,-9.0,-1.0,-3.0,-2.0,-1.0,-1.0,0.0
1.6951620297532813e+18,2.0,11.0,-2.0,0.0,-3.0,-2.0,0.0,0.0
1.6951620297532813e+18,-2.0,-8.0,0.0,-2.0,2.0,3.0,3.0,-1.0
1.6951620297632778e+18,2.0,-3.0,1.0,-1.0,-1.0,2.0,-1.0,-1.0
1.6951620297632778e+18,-1.0,2.0,-2.0,-2.0,-1.0,0.0,-1.0,-1.0
1.6951620297642762e+18,0.0,1.0,0.0,-1.0,-1.0,-2.0,-1.0,-1.0
1.6951620297642762e+18,-2.0,-5.0,0.0,0.0,0.0,-1.0,1.0,0.0
1.6951620297783913e+18,-1.0,-1.0,-2.0,-1.0,-2.0,-2.0,-1.0,-2.0
1.6951620297783913e+18,-1.0,-1.0,1.0,-2.0,0.0,-1.0,-1.0,0.0
1.6951620297795976e+18,0.0,0.0,0.0,-2.0,-1.0,-1.0,-1.0,-1.0
1.6951620297795976e+18,-2.0,-5.0,-1.0,0.0,-1.0,-1.0,-1.0,1.0
1.6951620297806024e+18,-1.0,3.0,-2.0,-2.0,-2.0,-2.0,-1.0,-2.0
1.6951620297806024e+18,-1.0,-3.0,-1.0,-2.0,-4.0,-2.0,2.0,0.0
1.695162029792576e+18,1.0,-1.0,0.0,2.0,0.0,-1.0,-2.0,0.0
1.695162029792576e+18,0.0,-1.0,-2.0,-2.0,0.0,-1.0,-1.0,0.0
1.695162029793576e+18,-4.0,-1.0,1.0,-1.0,-2.0,1.0,-1.0,-3.0
1.695162029793576e+18,5.0,-1.0,1.0,4.0,1.0,0.0,2.0,0.0
1.695162029794578e+18,-1.0,2.0,-3.0,-5.0,-2.0,0.0,0.0,-1.0
1.695162029794578e+18,0.0,-3.0,-3.0,1.0,0.0,1.0,-1.0,-1.0
1.695162029813572e+18,-1.0,1.0,4.0,-1.0,0.0,0.0,-2.0,-1.0
1.695162029813572e+18,-2.0,-4.0,-1.0,-3.0,-1.0,-1.0,-2.0,0.0
1.695162029814569e+18,1.0,1.0,-3.0,-1.0,-2.0,-3.0,0.0,-3.0
1.695162029814569e+18,0.0,-2.0,-4.0,-3.0,2.0,1.0,-1.0,-1.0
1.6951620298295598e+18,1.0,-1.0,-3.0,3.0,-1.0,-2.0,0.0,-1.0
1.6951620298295598e+18,-1.0,0.0,5.0,2.0,-2.0,-1.0,-3.0,-1.0
1.695162029853547e+18,0.0,-1.0,-2.0,0.0,0.0,1.0,2.0,0.0
1.6951620298545505e+18,-1.0,-3.0,0.0,1.0,0.0,-2.0,0.0,0.0
1.6951620298595448e+18,-3.0,-1.0,-2.0,-1.0,0.0,-2.0,-1.0,2.0
1.6951620298605458e+18,-2.0,-1.0,-3.0,-5.0,-2.0,-3.0,0.0,-1.0
1.6951620298605458e+18,0.0,2.0,1.0,-3.0,-3.0,0.0,-2.0,0.0
1.6951620298605458e+18,-1.0,-2.0,2.0,0.0,-1.0,-2.0,0.0,-1.0
1.6951620298750597e+18,-1.0,0.0,3.0,1.0,0.0,1.0,-2.0,-2.0
1.6951620298750597e+18,-2.0,-2.0,2.0,0.0,-2.0,-2.0,-2.0,-2.0
1.6951620298760584e+18,-1.0,-2.0,-2.0,0.0,1.0,3.0,1.0,1.0
1.6951620298760584e+18,1.0,3.0,-1.0,0.0,3.0,2.0,1.0,1.0
1.6951620298880394e+18,0.0,0.0,-1.0,-2.0,-1.0,-1.0,0.0,-2.0
1.6951620298880394e+18,-3.0,-2.0,-5.0,-4.0,-3.0,-5.0,-2.0,-2.0
1.695162029903579e+18,-1.0,0.0,0.0,2.0,-2.0,3.0,-3.0,-2.0
1.695162029904579e+18,-2.0,0.0,0.0,-2.0,-7.0,-9.0,-3.0,-2.0
1.6951620299113254e+18,1.0,1.0,-2.0,-3.0,-7.0,1.0,-1.0,1.0
1.6951620299113254e+18,1.0,0.0,1.0,0.0,5.0,-2.0,5.0,4.0
1.6951620299113254e+18,-2.0,-1.0,-2.0,2.0,2.0,12.0,1.0,-1.0
1.6951620299113254e+18,-1.0,0.0,0.0,-1.0,-1.0,-27.0,-8.0,-3.0
1.695162029933508e+18,-1.0,-2.0,0.0,0.0,-3.0,15.0,2.0,-3.0
1.695162029933508e+18,1.0,0.0,-2.0,0.0,1.0,10.0,6.0,1.0
1.695162029941498e+18,1.0,2.0,2.0,1.0,6.0,5.0,4.0,1.0
1.695162029941498e+18,1.0,-3.0,-2.0,-1.0,5.0,10.0,-1.0,1.0
1.6951620299478006e+18,-2.0,-2.0,-4.0,-4.0,-3.0,-16.0,-6.0,-1.0
1.6951620299478006e+18,-1.0,-1.0,-3.0,-1.0,-6.0,-6.0,-6.0,-4.0
1.6951620299689697e+18,-3.0,-2.0,-1.0,-1.0,-7.0,-8.0,-3.0,1.0
1.6951620299699702e+18,-1.0,-1.0,0.0,-1.0,-5.0,2.0,-2.0,-3.0
1.6951620299790505e+18,0.0,1.0,-1.0,0.0,1.0,-2.0,0.0,2.0
1.6951620299790505e+18,-1.0,-1.0,1.0,0.0,2.0,6.0,1.0,-1.0
1.6951620299800676e+18,-1.0,0.0,0.0,-4.0,-2.0,-7.0,-2.0,-1.0
1.6951620299800676e+18,0.0,1.0,0.0,-1.0,-2.0,1.0,-1.0,0.0
1.6951620299933632e+18,1.0,-1.0,-3.0,0.0,4.0,4.0,1.0,1.0
1.6951620299943626e+18,-1.0,1.0,-3.0,-3.0,-1.0,-2.0,-2.0,-2.0
1.6951620299943626e+18,0.0,0.0,-1.0,-1.0,-2.0,-6.0,-2.0,0.0
1.6951620299953626e+18,0.0,-2.0,1.0,0.0,0.0,5.0,1.0,-1.0
1.695162030017351e+18,-1.0,0.0,1.0,0.0,1.0,1.0,1.0,-1.0
1.6951620300183606e+18,0.0,0.0,-2.0,-1.0,-1.0,-4.0,-4.0,1.0
1.6951620300183606e+18,0.0,-2.0,-1.0,-1.0,-4.0,-3.0,-2.0,-3.0
1.6951620300193498e+18,-1.0,0.0,-2.0,1.0,0.0,5.0,1.0,0.0
1.695162030039338e+18,1.0,0.0,-2.0,1.0,0.0,-2.0,0.0,-1.0
1.6951620300403366e+18,-1.0,-2.0,-3.0,-2.0,-3.0,-2.0,0.0,-2.0
1.6951620300413414e+18,0.0,-1.0,0.0,-1.0,-1.0,-1.0,0.0,0.0
1.6951620300413414e+18,-2.0,1.0,1.0,-1.0,-1.0,0.0,1.0,0.0
1.69516203005433e+18,-2.0,-2.0,-1.0,-3.0,0.0,-3.0,-1.0,-1.0
1.6951620300553295e+18,-1.0,-2.0,0.0,1.0,-2.0,0.0,-1.0,-1.0
1.6951620300553295e+18,-1.0,-1.0,-3.0,0.0,0.0,-3.0,-2.0,1.0
1.6951620300563302e+18,1.0,-1.0,0.0,-1.0,-1.0,0.0,-1.0,1.0
1.6951620300743183e+18,0.0,1.0,-1.0,1.0,0.0,-2.0,0.0,0.0
1.695162030075341e+18,-1.0,0.0,0.0,-2.0,0.0,0.0,1.0,-1.0
1.695162030075341e+18,-1.0,-2.0,-2.0,-1.0,0.0,0.0,-2.0,-2.0
1.6951620300763182e+18,-2.0,-1.0,0.0,-3.0,-2.0,0.0,2.0,-1.0
1.6951620300933074e+18,-1.0,0.0,1.0,-1.0,1.0,0.0,1.0,1.0
1.6951620300933074e+18,-1.0,-1.0,-1.0,1.0,0.0,-1.0,-1.0,-1.0
1.6951620300943073e+18,-1.0,-1.0,0.0,0.0,-1.0,-2.0,-3.0,-1.0
1.695162030095307e+18,-1.0,-1.0,-2.0,0.0,-1.0,1.0,-2.0,-2.0
1.6951620301222902e+18,-1.0,-1.0,-1.0,-1.0,-1.0,0.0,1.0,-3.0
1.6951620301222902e+18,-1.0,-1.0,-1.0,0.0,0.0,-1.0,-1.0,0.0
1.6951620301282867e+18,0.0,-1.0,0.0,-1.0,-2.0,-3.0,0.0,-1.0
1.695162030129285e+18,0.0,0.0,-1.0,0.0,-1.0,0.0,0.0,0.0
1.6951620301432768e+18,-1.0,-2.0,-1.0,-3.0,-1.0,-2.0,-2.0,-1.0
1.6951620301432768e+18,1.0,-1.0,-1.0,-2.0,0.0,-1.0,0.0,-2.0
1.6951620301682624e+18,-2.0,-1.0,-2.0,0.0,0.0,-1.0,0.0,-3.0
1.6951620301682624e+18,-1.0,-3.0,-2.0,-2.0,1.0,0.0,-1.0,0.0
1.6951620301702618e+18,1.0,-1.0,-1.0,-1.0,-1.0,-1.0,-1.0,-2.0
1.6951620301702618e+18,-2.0,-2.0,-2.0,-2.0,1.0,0.0,0.0,-1.0
1.6951620301702618e+18,0.0,1.0,-2.0,-2.0,-2.0,-1.0,0.0,-1.0
1.6951620301702618e+18,0.0,-1.0,-1.0,0.0,-1.0,-1.0,1.0,-1.0
1.695162030175259e+18,0.0,-1.0,-3.0,-2.0,0.0,-1.0,0.0,-1.0
1.695162030175259e+18,-1.0,-2.0,-2.0,0.0,-3.0,-1.0,-1.0,0.0
1.6951620301762583e+18,-2.0,-2.0,0.0,0.0,-1.0,-2.0,-1.0,-1.0
1.6951620301762583e+18,-1.0,0.0,-1.0,0.0,-1.0,-2.0,0.0,0.0
1.6951620302042424e+18,-2.0,-1.0,-4.0,2.0,1.0,-2.0,-2.0,1.0
1.6951620302052416e+18,0.0,-1.0,-1.0,-1.0,-2.0,-1.0,-2.0,0.0
1.6951620302052416e+18,-1.0,-2.0,-1.0,-1.0,-2.0,-1.0,-1.0,2.0
1.6951620302052416e+18,-2.0,0.0,-1.0,-2.0,1.0,-1.0,-2.0,-2.0
1.6951620302112412e+18,-1.0,-1.0,1.0,0.0,-2.0,-1.0,-1.0,-1.0
1.6951620302112412e+18,-1.0,0.0,0.0,1.0,1.0,-2.0,-1.0,-2.0
1.6951620302112412e+18,-1.0,-1.0,0.0,-2.0,1.0,0.0,0.0,-1.0
1.6951620302122378e+18,-1.0,-2.0,1.0,0.0,-3.0,1.0,-1.0,0.0
1.6951620302412232e+18,0.0,0.0,0.0,-1.0,-3.0,-2.0,-2.0,1.0
1.6951620302422205e+18,-1.0,0.0,-2.0,0.0,0.0,-1.0,0.0,-1.0
1.6951620302422205e+18,1.0,0.0,0.0,-2.0,0.0,1.0,0.0,-2.0
1.6951620302422205e+18,-2.0,0.0,-3.0,2.0,-1.0,-1.0,0.0,-3.0
1.6951620302562117e+18,-2.0,-1.0,-1.0,1.0,-1.0,0.0,1.0,-1.0
1.6951620302562117e+18,-1.0,-1.0,0.0,-1.0,0.0,1.0,-1.0,-2.0
1.6951620302562117e+18,1.0,0.0,-1.0,0.0,-2.0,-1.0,-2.0,0.0
1.6951620302572137e+18,1.0,0.0,0.0,-2.0,-1.0,-1.0,0.0,0.0
1.6951620302721874e+18,-1.0,0.0,1.0,-1.0,1.0,1.0,-1.0,-1.0
1.6951620302721874e+18,-1.0,0.0,0.0,-1.0,0.0,0.0,0.0,0.0
1.695162030273208e+18,-2.0,0.0,-1.0,-2.0,-2.0,0.0,-1.0,-2.0
1.695162030273208e+18,-1.0,-1.0,-1.0,-2.0,-1.0,-1.0,-1.0,0.0
1.6951620302935754e+18,0.0,-2.0,-1.0,-1.0,0.0,-1.0,-1.0,-2.0
1.6951620302935754e+18,-3.0,0.0,-1.0,-2.0,-1.0,-1.0,-1.0,0.0
1.695162030294578e+18,0.0,1.0,-1.0,1.0,0.0,-1.0,-1.0,-2.0
1.695162030294578e+18,-3.0,-2.0,-1.0,0.0,0.0,1.0,-1.0,0.0
1.695162030315974e+18,0.0,-2.0,-1.0,-2.0,-1.0,0.0,-1.0,1.0
1.695162030315974e+18,0.0,-3.0,-2.0,-1.0,-2.0,-1.0,-1.0,-2.0
1.6951620303169797e+18,-1.0,-1.0,0.0,0.0,1.0,1.0,0.0,1.0
1.6951620303169797e+18,-2.0,-1.0,0.0,-1.0,-3.0,1.0,-1.0,0.0
1.695162030331971e+18,-1.0,1.0,-1.0,0.0,-1.0,-1.0,1.0,-1.0
1.6951620303329713e+18,-1.0,0.0,1.0,0.0,1.0,-1.0,-1.0,-3.0
1.6951620303339676e+18,0.0,-1.0,-2.0,-1.0,-1.0,-1.0,0.0,0.0
1.6951620303339676e+18,0.0,-1.0,0.0,-1.0,-1.0,-2.0,-1.0,-1.0
1.6951620303539569e+18,-2.0,-1.0,0.0,-2.0,0.0,-1.0,0.0,0.0
1.6951620303539569e+18,-1.0,-1.0,0.0,-1.0,0.0,-1.0,-1.0,0.0
1.6951620303539569e+18,0.0,0.0,0.0,-1.0,1.0,-1.0,-1.0,-1.0
1.6951620303539569e+18,1.0,-1.0,-1.0,1.0,0.0,-1.0,0.0,0.0
1.6951620303845576e+18,-1.0,-1.0,-1.0,0.0,0.0,0.0,-2.0,-2.0
1.6951620303845576e+18,-1.0,1.0,0.0,-1.0,0.0,-1.0,0.0,-1.0
1.6951620303845576e+18,-1.0,-1.0,-1.0,-1.0,-1.0,-1.0,0.0,-1.0
1.6951620303845576e+18,-3.0,-1.0,2.0,0.0,0.0,-1.0,-1.0,-3.0
1.695162030399157e+18,1.0,-1.0,1.0,1.0,0.0,-2.0,-2.0,1.0
1.695162030399157e+18,1.0,-1.0,-1.0,-2.0,-1.0,-1.0,0.0,1.0
1.6951620304001787e+18,0.0,-1.0,1.0,-2.0,-1.0,1.0,-1.0,-3.0
1.6951620304001787e+18,-1.0,-2.0,-2.0,0.0,-2.0,-2.0,0.0,-1.0
1.6951620304133325e+18,0.0,-2.0,-3.0,0.0,-2.0,-2.0,2.0,-2.0
1.6951620304143027e+18,-1.0,-1.0,-2.0,-1.0,0.0,-1.0,-1.0,-1.0
1.6951620304143027e+18,-1.0,0.0,-1.0,-2.0,0.0,-1.0,-1.0,-1.0
1.6951620304143027e+18,0.0,1.0,-1.0,-1.0,-1.0,0.0,-2.0,-1.0
1.6951620304365304e+18,-2.0,-2.0,-1.0,0.0,-1.0,1.0,-1.0,-2.0
1.6951620304385298e+18,0.0,-1.0,1.0,2.0,-1.0,-1.0,-1.0,-1.0
1.6951620304385298e+18,-1.0,-1.0,0.0,1.0,0.0,-1.0,0.0,1.0
1.6951620304395282e+18,-1.0,-1.0,-1.0,-1.0,-2.0,-2.0,-1.0,-2.0
1.6951620304515418e+18,-1.0,0.0,-2.0,-2.0,-1.0,-1.0,0.0,-1.0
1.6951620304525494e+18,-3.0,-1.0,-1.0,-1.0,-1.0,-1.0,-1.0,0.0
1.6951620304535483e+18,0.0,0.0,-1.0,-2.0,-2.0,0.0,-2.0,0.0
1.6951620304535483e+18,0.0,0.0,-1.0,-1.0,2.0,-2.0,-1.0,-1.0
1.6951620304735373e+18,-1.0,-1.0,0.0,-1.0,0.0,-1.0,-1.0,-2.0
1.6951620304745364e+18,0.0,0.0,-1.0,-1.0,-2.0,-1.0,-1.0,0.0
1.695162030475536e+18,-1.0,-1.0,1.0,0.0,-1.0,-1.0,1.0,0.0
1.6951620304765353e+18,0.0,0.0,-1.0,-2.0,-1.0,0.0,0.0,0.0
1.6951620304975227e+18,-1.0,-2.0,-1.0,-1.0,0.0,0.0,0.0,-2.0
1.6951620304975227e+18,-2.0,1.0,-3.0,-2.0,0.0,0.0,-2.0,-2.0
1.6951620304985226e+18,-1.0,-2.0,-1.0,-1.0,0.0,-3.0,0.0,-1.0
1.6951620304995228e+18,2.0,-3.0,-2.0,0.0,0.0,0.0,-1.0,1.0
1.695162030528506e+18,-1.0,-1.0,-2.0,-2.0,-2.0,-2.0,-1.0,2.0
1.6951620305405064e+18,0.0,-13.0,9.0,6.0,4.0,3.0,1.0,3.0
1.6951620305415068e+18,-1.0,0.0,0.0,0.0,-3.0,0.0,0.0,-3.0
1.6951620305415068e+18,0.0,2.0,-5.0,-5.0,-2.0,-3.0,1.0,-1.0
1.6951620305425055e+18,-2.0,-2.0,1.0,1.0,2.0,-1.0,-1.0,-1.0
1.6951620305425055e+18,-1.0,1.0,-4.0,-2.0,-2.0,-1.0,1.0,1.0
1.6951620305425055e+18,-2.0,-1.0,-1.0,0.0,1.0,-1.0,-1.0,2.0
1.6951620305425055e+18,3.0,10.0,-3.0,-2.0,-4.0,-2.0,-1.0,-1.0
1.6951620305574886e+18,1.0,-11.0,6.0,-1.0,-2.0,0.0,-1.0,0.0
1.6951620305574886e+18,1.0,4.0,-2.0,-2.0,-2.0,-3.0,-2.0,-2.0
1.695162030558487e+18,-2.0,-3.0,1.0,1.0,-1.0,1.0,-1.0,-2.0
1.695162030558487e+18,0.0,-5.0,3.0,1.0,1.0,0.0,0.0,0.0
1.69516203057248e+18,-1.0,3.0,-5.0,-1.0,0.0,0.0,-2.0,-1.0
1.6951620305734792e+18,-1.0,4.0,-3.0,-1.0,-3.0,-2.0,-1.0,-2.0
1.6951620305734792e+18,-1.0,-2.0,-4.0,-1.0,0.0,-1.0,-2.0,-2.0
1.6951620305755082e+18,0.0,7.0,-6.0,-4.0,-2.0,-1.0,-3.0,-1.0
1.695162030594467e+18,2.0,3.0,-2.0,-3.0,-1.0,-2.0,2.0,-1.0
1.695162030594467e+18,-1.0,-4.0,-1.0,-1.0,0.0,-1.0,-1.0,-1.0
1.695162030596467e+18,0.0,1.0,-1.0,-1.0,1.0,0.0,-1.0,-1.0
1.6951620305974753e+18,-2.0,-1.0,-1.0,-1.0,0.0,1.0,0.0,-1.0
1.6951620306164544e+18,2.0,5.0,-2.0,-2.0,-2.0,1.0,-4.0,1.0
1.6951620306174587e+18,-2.0,1.0,-4.0,-2.0,-2.0,-1.0,-2.0,-2.0
1.6951620306194547e+18,-2.0,-1.0,0.0,-2.0,-1.0,0.0,0.0,1.0
1.6951620306214525e+18,-4.0,-9.0,6.0,4.0,3.0,2.0,0.0,-1.0
1.6951620306324457e+18,0.0,1.0,-2.0,0.0,0.0,-1.0,1.0,-2.0
1.6951620306324457e+18,-2.0,-4.0,0.0,1.0,-1.0,-1.0,1.0,1.0
1.695162030633444e+18,0.0,-2.0,-1.0,0.0,-1.0,-1.0,-1.0,0.0
1.695162030633444e+18,0.0,5.0,-4.0,-4.0,-3.0,-3.0,-2.0,1.0
1.6951620306544323e+18,-3.0,7.0,-5.0,-1.0,0.0,-1.0,-1.0,-3.0
1.6951620306544323e+18,0.0,1.0,-1.0,1.0,-2.0,-1.0,-1.0,-1.0
1.6951620306554317e+18,0.0,7.0,-9.0,-2.0,-2.0,-3.0,-1.0,-2.0
1.6951620306554317e+18,-4.0,-3.0,0.0,1.0,-2.0,-1.0,-1.0,-1.0
1.695162030678419e+18,-4.0,-4.0,0.0,1.0,1.0,0.0,-1.0,-2.0
1.6951620306804178e+18,-4.0,-1.0,-3.0,-4.0,-2.0,0.0,-1.0,-3.0
1.6951620306814172e+18,2.0,3.0,-4.0,-2.0,-2.0,-1.0,-3.0,-1.0
1.6951620306814172e+18,-2.0,-3.0,-3.0,0.0,-1.0,0.0,-2.0,-1.0
1.695162030691411e+18,1.0,-3.0,1.0,0.0,-1.0,0.0,-1.0,1.0
1.69516203069241e+18,0.0,0.0,-2.0,-2.0,0.0,0.0,-1.0,-1.0
1.6951620306934157e+18,-1.0,-5.0,3.0,0.0,-1.0,-1.0,-1.0,-1.0
1.6951620306934157e+18,0.0,0.0,-2.0,-1.0,-1.0,-2.0,0.0,0.0
1.6951620307143987e+18,1.0,-4.0,1.0,1.0,-1.0,1.0,-2.0,0.0
1.6951620307143987e+18,0.0,2.0,-1.0,-1.0,0.0,-3.0,0.0,0.0
1.6951620307143987e+18,-1.0,-1.0,1.0,-1.0,-1.0,0.0,0.0,1.0
1.6951620307153974e+18,-2.0,-2.0,1.0,1.0,-1.0,0.0,-1.0,-1.0
1.6951620307363845e+18,0.0,0.0,-1.0,-1.0,-2.0,-1.0,1.0,1.0
1.6951620307363845e+18,-1.0,-2.0,1.0,0.0,0.0,1.0,0.0,0.0
1.6951620307373842e+18,-1.0,-3.0,0.0,0.0,-2.0,0.0,0.0,-1.0
1.6951620307373842e+18,0.0,-3.0,0.0,1.0,1.0,0.0,0.0,-2.0
1.695162030760371e+18,0.0,-1.0,-1.0,1.0,0.0,-3.0,-1.0,0.0
1.69516203076137e+18,0.0,0.0,0.0,-1.0,-1.0,0.0,-2.0,0.0
1.69516203076137e+18,-1.0,-3.0,0.0,1.0,1.0,0.0,-1.0,-2.0
1.69516203076237e+18,-1.0,-1.0,1.0,-2.0,-1.0,0.0,0.0,-1.0
1.6951620307733627e+18,-3.0,0.0,-1.0,-1.0,0.0,0.0,1.0,-2.0
1.6951620307733627e+18,1.0,-2.0,2.0,-1.0,-1.0,-1.0,-2.0,-2.0
1.6951620307743624e+18,0.0,0.0,-1.0,-1.0,1.0,0.0,-2.0,-2.0
1.6951620307743624e+18,-1.0,-2.0,1.0,0.0,-1.0,1.0,-2.0,-1.0
1.695162030796355e+18,-3.0,-2.0,0.0,0.0,1.0,0.0,-1.0,0.0
1.695162030796355e+18,-2.0,-2.0,-1.0,0.0,-1.0,-1.0,0.0,-1.0
1.695162030796355e+18,1.0,0.0,0.0,0.0,-1.0,-1.0,0.0,-1.0
1.695162030796355e+18,0.0,-1.0,0.0,-2.0,-1.0,-2.0,0.0,-1.0
1.6951620308123645e+18,0.0,-1.0,1.0,-1.0,0.0,1.0,0.0,-2.0
1.6951620308123645e+18,-1.0,0.0,-1.0,0.0,-1.0,-3.0,-2.0,-2.0
1.6951620308133463e+18,0.0,-2.0,-1.0,-1.0,-3.0,-1.0,-1.0,-2.0
1.6951620308133463e+18,0.0,-4.0,4.0,2.0,-1.0,-1.0,0.0,-1.0
1.6951620308333302e+18,-1.0,-1.0,-2.0,-1.0,0.0,1.0,-1.0,-1.0
1.6951620308333302e+18,0.0,-2.0,0.0,-1.0,0.0,0.0,0.0,0.0
1.6951620308343278e+18,-3.0,-2.0,-1.0,-1.0,0.0,0.0,0.0,-1.0
1.6951620308343278e+18,-1.0,0.0,-2.0,-2.0,-2.0,0.0,-1.0,-1.0
1.695162030873306e+18,0.0,0.0,0.0,-1.0,-2.0,0.0,0.0,-1.0
1.695162030873306e+18,1.0,-2.0,1.0,1.0,-1.0,-1.0,0.0,-1.0
1.695162030873306e+18,-2.0,0.0,0.0,-1.0,-1.0,-1.0,0.0,1.0
1.695162030873306e+18,0.0,1.0,-1.0,-1.0,0.0,0.0,0.0,-2.0
1.6951620308753042e+18,0.0,0.0,-2.0,-1.0,-1.0,-2.0,-3.0,0.0
1.6951620308753042e+18,-2.0,1.0,-2.0,0.0,0.0,-2.0,-1.0,0.0
1.6951620308783045e+18,1.0,-3.0,0.0,-2.0,-1.0,0.0,-2.0,-1.0
1.6951620308783045e+18,-1.0,-1.0,-1.0,0.0,2.0,-2.0,-1.0,1.0
1.6951620308932956e+18,0.0,0.0,-1.0,0.0,1.0,0.0,0.0,0.0
1.6951620308942943e+18,0.0,0.0,-1.0,-2.0,0.0,1.0,0.0,0.0
1.6951620308942943e+18,-3.0,-1.0,-1.0,0.0,-2.0,-1.0,-1.0,-2.0
1.695162030895296e+18,-1.0,-1.0,-2.0,1.0,0.0,-1.0,-2.0,-1.0
1.695162030924278e+18,-1.0,0.0,1.0,-1.0,-1.0,-1.0,0.0,0.0
1.695162030924278e+18,0.0,0.0,0.0,-2.0,-1.0,2.0,1.0,1.0
1.695162030925276e+18,-1.0,-1.0,-2.0,-1.0,1.0,-2.0,0.0,-1.0
1.695162030925276e+18,-2.0,-2.0,-1.0,-2.0,-1.0,-1.0,0.0,-1.0
1.6951620309394332e+18,-3.0,-1.0,1.0,-1.0,-1.0,-2.0,-3.0,-1.0
1.6951620309394332e+18,0.0,-1.0,-2.0,0.0,-2.0,-1.0,-2.0,-1.0
1.6951620309394332e+18,-1.0,-1.0,1.0,-2.0,-1.0,0.0,0.0,-1.0
1.6951620309394332e+18,-2.0,-2.0,-1.0,0.0,-3.0,-1.0,-1.0,0.0
1.6951620309545733e+18,-1.0,-3.0,-2.0,-1.0,-1.0,1.0,0.0,-2.0
1.6951620309545733e+18,1.0,-1.0,1.0,-1.0,-1.0,-1.0,0.0,-1.0
1.695162030961521e+18,1.0,-1.0,-1.0,0.0,0.0,-1.0,-2.0,-2.0
1.695162030961521e+18,0.0,-1.0,-2.0,-1.0,-1.0,0.0,0.0,-1.0
1.695162030984526e+18,-1.0,-2.0,0.0,0.0,-1.0,-2.0,0.0,-1.0
1.695162030984526e+18,-2.0,0.0,-2.0,0.0,-1.0,-3.0,-3.0,-2.0
1.695162030984526e+18,-2.0,0.0,1.0,0.0,0.0,0.0,0.0,-2.0
1.6951620309855263e+18,1.0,-1.0,-1.0,-2.0,0.0,0.0,0.0,-1.0
1.6951620309925215e+18,0.0,-1.0,-1.0,1.0,-2.0,-1.0,0.0,-1.0
1.695162030993522e+18,-1.0,-2.0,-1.0,-1.0,-1.0,0.0,0.0,0.0
1.695162030993522e+18,-1.0,2.0,0.0,-2.0,0.0,-1.0,-2.0,-1.0
1.6951620309945216e+18,0.0,-1.0,0.0,0.0,-1.0,-1.0,-1.0,-3.0
1.6951620310145098e+18,-1.0,-1.0,-1.0,-1.0,-1.0,-2.0,-1.0,0.0
1.6951620310145098e+18,0.0,-1.0,0.0,0.0,0.0,-1.0,0.0,-1.0
1.6951620310145098e+18,0.0,-3.0,-1.0,1.0,2.0,-1.0,-1.0,0.0
1.6951620310155108e+18,-1.0,-1.0,1.0,-1.0,-1.0,-1.0,1.0,-1.0
1.6951620310364974e+18,-2.0,0.0,-1.0,-3.0,-1.0,-1.0,-3.0,-1.0
1.6951620310375e+18,-2.0,-2.0,-2.0,0.0,-1.0,-2.0,-1.0,-1.0
1.6951620310375e+18,0.0,-2.0,-1.0,0.0,-1.0,1.0,-1.0,-1.0
1.6951620310384973e+18,-1.0,0.0,-3.0,1.0,-1.0,1.0,0.0,-2.0
1.6951620310524887e+18,-2.0,-2.0,-1.0,1.0,-2.0,0.0,0.0,-1.0
1.6951620310534876e+18,-2.0,0.0,-1.0,1.0,-1.0,1.0,0.0,-1.0
1.695162031055491e+18,0.0,0.0,-1.0,-2.0,0.0,-1.0,-3.0,0.0
1.695162031055491e+18,-1.0,-1.0,0.0,-1.0,1.0,-1.0,-1.0,-1.0
1.6951620310734764e+18,0.0,-1.0,-3.0,-1.0,-3.0,0.0,1.0,-1.0
1.695162031074478e+18,0.0,-2.0,0.0,0.0,-1.0,-2.0,0.0,1.0
1.695162031074478e+18,0.0,-1.0,0.0,0.0,-1.0,2.0,1.0,0.0
1.695162031074478e+18,-1.0,-1.0,-1.0,-2.0,-1.0,-1.0,-1.0,1.0
1.6951620311044626e+18,-1.0,-1.0,-1.0,-2.0,0.0,-2.0,-1.0,1.0
1.6951620311054574e+18,-2.0,-3.0,-1.0,-1.0,1.0,0.0,-1.0,-2.0
1.695162031106457e+18,0.0,0.0,-1.0,0.0,-1.0,-1.0,-1.0,-1.0
1.695162031106457e+18,0.0,-2.0,-2.0,-1.0,1.0,-1.0,-2.0,1.0
1.6951620311114555e+18,0.0,-2.0,-1.0,-2.0,0.0,-1.0,-1.0,1.0
1.6951620311114555e+18,1.0,1.0,0.0,1.0,-1.0,1.0,0.0,1.0
1.6951620311124541e+18,0.0,0.0,-1.0,0.0,-2.0,-2.0,0.0,-1.0
1.6951620311124541e+18,-1.0,-1.0,0.0,0.0,-1.0,-2.0,0.0,-1.0
1.695162031142442e+18,1.0,0.0,-1.0,-1.0,1.0,0.0,-1.0,-1.0
1.6951620311434376e+18,1.0,-2.0,0.0,-2.0,0.0,0.0,-1.0,-1.0
1.6951620311434376e+18,-1.0,-1.0,-1.0,-1.0,-2.0,-1.0,-1.0,0.0
1.6951620311434376e+18,-2.0,0.0,-1.0,-1.0,-2.0,-1.0,-4.0,-1.0
1.6951620311644257e+18,0.0,-2.0,0.0,-2.0,0.0,1.0,-2.0,-1.0
1.6951620311654236e+18,-2.0,1.0,-2.0,-2.0,-4.0,-1.0,-2.0,-2.0
1.6951620311654236e+18,-2.0,-1.0,-2.0,-1.0,-1.0,-2.0,1.0,0.0
1.6951620311664233e+18,-1.0,-1.0,-1.0,1.0,-1.0,-1.0,-1.0,-1.0
1.6951620311864123e+18,0.0,0.0,-2.0,1.0,-1.0,0.0,0.0,-2.0
1.6951620311864123e+18,0.0,-1.0,0.0,-3.0,1.0,-1.0,-2.0,-1.0
1.695162031187411e+18,0.0,0.0,2.0,0.0,-1.0,1.0,-3.0,-1.0
1.695162031187411e+18,0.0,-1.0,-1.0,-2.0,0.0,-1.0,-1.0,-1.0
1.695162031199405e+18,0.0,1.0,-2.0,-1.0,-1.0,-1.0,-1.0,-1.0
1.6951620312004052e+18,-2.0,-1.0,-2.0,1.0,1.0,-1.0,-2.0,-2.0
1.6951620312004052e+18,-1.0,-2.0,0.0,-3.0,0.0,0.0,-1.0,0.0
1.6951620312004052e+18,-1.0,-1.0,-1.0,-1.0,0.0,-2.0,-1.0,-1.0
1.6951620312163937e+18,-2.0,-1.0,1.0,-1.0,-1.0,-2.0,-1.0,-2.0
1.6951620312163937e+18,-1.0,0.0,0.0,0.0,-2.0,-1.0,-1.0,0.0
1.6951620312173978e+18,1.0,-2.0,0.0,-2.0,-3.0,-2.0,1.0,-2.0
1.6951620312173978e+18,0.0,-1.0,0.0,-1.0,1.0,-1.0,0.0,0.0
1.6951620312303857e+18,-1.0,-1.0,0.0,0.0,0.0,-2.0,0.0,-1.0
1.6951620312303857e+18,1.0,0.0,-1.0,-1.0,-1.0,0.0,-2.0,-1.0
1.6951620312393812e+18,-1.0,0.0,0.0,-1.0,-1.0,0.0,-1.0,1.0
1.6951620312393812e+18,0.0,-1.0,0.0,0.0,-1.0,-1.0,-1.0,0.0
1.695162031253377e+18,0.0,-1.0,-1.0,0.0,-1.0,0.0,-3.0,0.0
1.695162031254374e+18,-1.0,0.0,0.0,-2.0,0.0,-1.0,-1.0,-2.0
1.6951620312553736e+18,-1.0,0.0,-1.0,-1.0,-2.0,0.0,0.0,-1.0
1.6951620312553736e+18,-1.0,0.0,-1.0,1.0,0.0,0.0,0.0,-1.0
1.6951620312763597e+18,-1.0,0.0,0.0,-1.0,-1.0,-1.0,1.0,-3.0
1.6951620312813565e+18,1.0,-2.0,1.0,-2.0,0.0,-1.0,0.0,1.0
1.695162031282356e+18,-1.0,-1.0,-1.0,-2.0,-1.0,-3.0,-1.0,-1.0
1.695162031282356e+18,-2.0,-1.0,1.0,-1.0,-1.0,0.0,-1.0,-1.0
1.695162031290374e+18,-1.0,1.0,-1.0,-1.0,0.0,0.0,-1.0,1.0
1.6951620312913513e+18,1.0,1.0,0.0,0.0,-2.0,-2.0,1.0,-2.0
1.6951620312993475e+18,0.0,0.0,-2.0,0.0,2.0,-1.0,-1.0,-2.0
1.6951620312993475e+18,0.0,0.0,-1.0,0.0,-2.0,-2.0,-3.0,-1.0
1.6951620313143383e+18,0.0,-1.0,-1.0,-1.0,0.0,-1.0,0.0,-2.0
1.6951620313153457e+18,-1.0,-2.0,-1.0,-1.0,0.0,1.0,-1.0,-1.0
1.6951620313163372e+18,-2.0,-1.0,-2.0,-1.0,0.0,0.0,-1.0,0.0
1.6951620313163372e+18,1.0,-1.0,-2.0,0.0,-2.0,0.0,0.0,-1.0
1.6951620313363256e+18,-1.0,-1.0,-1.0,-1.0,-2.0,-1.0,-2.0,-2.0
1.6951620313373243e+18,-1.0,-1.0,-1.0,-1.0,0.0,-3.0,1.0,-2.0
1.6951620313383237e+18,-2.0,0.0,-1.0,0.0,0.0,-1.0,-1.0,-1.0
1.6951620313383237e+18,-1.0,-2.0,-1.0,0.0,-1.0,-1.0,0.0,-2.0
1.6951620313583127e+18,0.0,0.0,0.0,0.0,-1.0,-1.0,0.0,0.0
1.695162031365313e+18,-2.0,0.0,-1.0,-1.0,-3.0,0.0,-2.0,-1.0
1.6951620313663127e+18,-1.0,-1.0,0.0,1.0,-1.0,-2.0,-1.0,-1.0
1.6951620313663127e+18,-1.0,1.0,-1.0,-3.0,-1.0,0.0,0.0,-1.0
1.695162031373304e+18,0.0,-1.0,0.0,-2.0,-2.0,0.0,-2.0,0.0
1.695162031374303e+18,-3.0,-1.0,-1.0,-1.0,0.0,-2.0,0.0,0.0
1.6951620313753052e+18,0.0,-2.0,-2.0,0.0,-2.0,-1.0,0.0,0.0
1.6951620313753052e+18,-1.0,0.0,-3.0,0.0,-1.0,-1.0,-1.0,-2.0
1.6951620313962913e+18,0.0,-2.0,-1.0,-2.0,-1.0,-1.0,-1.0,0.0
1.6951620313962913e+18,-1.0,0.0,0.0,-2.0,0.0,0.0,1.0,-1.0
1.6951620313982925e+18,-1.0,-2.0,-1.0,-1.0,-2.0,-1.0,0.0,1.0
1.6951620313982925e+18,-2.0,-2.0,-2.0,1.0,0.0,-1.0,0.0,-1.0
1.695162031421277e+18,-1.0,-1.0,-1.0,1.0,-2.0,-1.0,-1.0,-1.0
1.695162031421277e+18,-1.0,-1.0,0.0,-1.0,-1.0,-1.0,-2.0,-1.0
1.695162031422277e+18,0.0,-2.0,0.0,1.0,0.0,-2.0,0.0,-1.0
1.695162031422277e+18,-1.0,-1.0,0.0,-1.0,-2.0,-1.0,-1.0,-1.0
1.6951620314332685e+18,-1.0,1.0,-2.0,1.0,1.0,0.0,-1.0,-1.0
1.6951620314342697e+18,-1.0,-1.0,-1.0,-1.0,-1.0,0.0,0.0,-2.0
1.6951620314352689e+18,-1.0,-1.0,0.0,-2.0,-1.0,0.0,-1.0,-1.0
1.6951620314352689e+18,0.0,-2.0,-1.0,-2.0,-1.0,-2.0,0.0,-1.0
1.6951620314562565e+18,0.0,0.0,-1.0,-1.0,-1.0,-1.0,-1.0,0.0
1.695162031457256e+18,0.0,-1.0,-1.0,-2.0,-1.0,0.0,-1.0,-2.0
1.695162031457256e+18,-1.0,-1.0,-3.0,0.0,1.0,-2.0,-1.0,-1.0
1.695162031457256e+18,0.0,0.0,0.0,0.0,-1.0,0.0,-1.0,1.0
1.695162031479244e+18,-1.0,-1.0,-1.0,-1.0,0.0,-2.0,-1.0,-1.0
1.6951620314802468e+18,-1.0,0.0,-1.0,0.0,-1.0,-1.0,0.0,0.0
1.6951620314802468e+18,0.0,2.0,0.0,0.0,-1.0,0.0,0.0,0.0
1.6951620314812426e+18,-2.0,0.0,-1.0,-1.0,0.0,-2.0,-1.0,-1.0
1.6951620314932388e+18,-1.0,-2.0,-1.0,0.0,0.0,0.0,0.0,1.0
1.695162031494235e+18,-1.0,-1.0,-1.0,0.0,-2.0,0.0,-1.0,1.0
1.695162031494235e+18,-1.0,-1.0,-1.0,-1.0,-1.0,1.0,0.0,-1.0
1.6951620314952433e+18,0.0,-2.0,0.0,0.0,-1.0,0.0,-1.0,0.0
1.695162031516223e+18,-2.0,0.0,-1.0,-1.0,-2.0,-1.0,0.0,-2.0
1.6951620315172224e+18,0.0,-1.0,-3.0,0.0,1.0,-1.0,-1.0,0.0
1.6951620315172224e+18,-2.0,-1.0,-1.0,-3.0,-1.0,0.0,-1.0,0.0
1.6951620315172224e+18,-1.0,-1.0,-2.0,-2.0,0.0,-1.0,-2.0,-3.0
1.6951620315402097e+18,0.0,0.0,-1.0,-1.0,-2.0,-2.0,-2.0,-2.0
1.6951620315402097e+18,1.0,0.0,-2.0,-2.0,-1.0,-1.0,-2.0,-2.0
1.6951620315412111e+18,0.0,-2.0,-3.0,-1.0,-2.0,-2.0,-1.0,-1.0
1.6951620315412111e+18,-1.0,-1.0,1.0,-4.0,-4.0,-2.0,0.0,-2.0
1.695162031554203e+18,-4.0,-3.0,-1.0,1.0,2.0,-1.0,0.0,-2.0
1.6951620315552e+18,-3.0,-2.0,-2.0,-2.0,-9.0,-2.0,-1.0,-1.0
1.6951620315552e+18,-1.0,1.0,1.0,-11.0,-15.0,-7.0,-3.0,-3.0
1.6951620315552e+18,-2.0,-5.0,-1.0,10.0,16.0,-6.0,0.0,-1.0
1.6951620315922033e+18,1.0,-7.0,-9.0,1.0,-2.0,11.0,2.0,0.0
1.695162031593178e+18,-2.0,2.0,11.0,-4.0,-3.0,-1.0,-3.0,-1.0
1.6951620315941783e+18,-1.0,-1.0,-8.0,-11.0,-15.0,-15.0,-2.0,-3.0
1.6951620315951772e+18,-3.0,1.0,0.0,3.0,-2.0,4.0,-1.0,-1.0
1.6951620315961797e+18,1.0,-1.0,3.0,-1.0,-9.0,-3.0,-1.0,-2.0
1.6951620315971768e+18,-2.0,6.0,2.0,-3.0,-2.0,-3.0,1.0,-1.0
1.6951620315991754e+18,0.0,-5.0,-1.0,8.0,3.0,2.0,-1.0,0.0
1.6951620315991754e+18,-2.0,-6.0,-14.0,-9.0,4.0,8.0,3.0,1.0
1.6951620316231624e+18,-3.0,-1.0,-2.0,-2.0,7.0,-2.0,0.0,-2.0
1.6951620316241615e+18,-3.0,-6.0,1.0,8.0,8.0,4.0,-1.0,-1.0
1.6951620316251615e+18,-2.0,8.0,5.0,-4.0,-24.0,-15.0,-2.0,1.0
1.6951620316251615e+18,2.0,0.0,0.0,-4.0,5.0,4.0,0.0,-1.0
1.6951620316451502e+18,-2.0,-3.0,-3.0,-6.0,1.0,5.0,-1.0,-2.0
1.6951620316451502e+18,0.0,2.0,-1.0,3.0,9.0,-13.0,0.0,-2.0
1.695162031646148e+18,0.0,-4.0,-4.0,4.0,13.0,14.0,-3.0,-1.0
1.695162031647151e+18,-1.0,-2.0,3.0,-2.0,-20.0,-13.0,-1.0,-1.0
1.695162031650155e+18,0.0,1.0,2.0,-4.0,-15.0,-3.0,-4.0,-1.0
1.6951620316511483e+18,-1.0,-4.0,-8.0,-5.0,1.0,-16.0,-5.0,-3.0
1.6951620316581417e+18,-1.0,1.0,4.0,4.0,5.0,24.0,2.0,-2.0
1.6951620316591406e+18,-2.0,-1.0,2.0,0.0,15.0,-1.0,-36.0,-8.0
1.6951620316821276e+18,6.0,8.0,7.0,4.0,-17.0,14.0,86.0,15.0
1.6951620316821276e+18,-1.0,-2.0,-4.0,0.0,6.0,-43.0,-37.0,-5.0
1.695162031683129e+18,-1.0,-3.0,-5.0,-1.0,-10.0,40.0,43.0,4.0
1.6951620316841272e+18,-1.0,1.0,4.0,4.0,24.0,11.0,10.0,5.0
1.6951620317091126e+18,-4.0,-2.0,-2.0,5.0,-2.0,-27.0,-57.0,-14.0
1.6951620317131092e+18,2.0,2.0,1.0,7.0,10.0,26.0,14.0,6.0
1.6951620317131092e+18,5.0,4.0,5.0,7.0,20.0,16.0,23.0,9.0
1.6951620317131092e+18,-1.0,-2.0,-3.0,-6.0,-27.0,-22.0,-10.0,-5.0
1.695162031718107e+18,-1.0,-3.0,-5.0,-2.0,12.0,11.0,34.0,8.0
1.695162031719106e+18,-1.0,-3.0,-1.0,1.0,-7.0,5.0,7.0,1.0
1.6951620317201052e+18,-6.0,-5.0,-6.0,-6.0,-1.0,-12.0,-9.0,-8.0
1.6951620317201052e+18,2.0,4.0,-1.0,-1.0,-3.0,6.0,15.0,1.0
1.6951620317350958e+18,-3.0,-4.0,0.0,-5.0,-11.0,-26.0,-17.0,-4.0
1.6951620317350958e+18,-3.0,-2.0,-5.0,-11.0,-16.0,1.0,-34.0,-6.0
1.695162031736096e+18,-1.0,-2.0,2.0,6.0,14.0,12.0,16.0,4.0
1.695162031736096e+18,1.0,5.0,-2.0,-4.0,-7.0,-4.0,9.0,2.0
1.6951620317600824e+18,-1.0,5.0,5.0,1.0,11.0,-1.0,-16.0,-9.0
1.6951620317640817e+18,-3.0,-1.0,2.0,-2.0,1.0,2.0,-12.0,-7.0
1.6951620317640817e+18,-3.0,-5.0,0.0,2.0,1.0,-20.0,-5.0,-9.0
1.6951620317640817e+18,1.0,-5.0,0.0,3.0,-5.0,15.0,-4.0,6.0
1.6951620317780716e+18,2.0,7.0,2.0,3.0,10.0,0.0,-7.0,0.0
1.6951620317790738e+18,-2.0,-5.0,-3.0,-8.0,-8.0,6.0,23.0,-6.0
1.695162031795062e+18,0.0,2.0,-7.0,-12.0,-17.0,-58.0,-73.0,-9.0
1.695162031795062e+18,-3.0,-2.0,4.0,6.0,11.0,25.0,-5.0,-9.0
1.6951620318050557e+18,-1.0,-6.0,-1.0,9.0,14.0,34.0,35.0,12.0
1.6951620318060557e+18,2.0,1.0,1.0,12.0,3.0,13.0,21.0,5.0
1.6951620318060557e+18,0.0,-2.0,5.0,2.0,5.0,-11.0,4.0,3.0
1.6951620318060557e+18,-3.0,-6.0,-23.0,-34.0,-28.0,-34.0,-34.0,-13.0
1.6951620318160497e+18,-2.0,-2.0,0.0,5.0,12.0,-5.0,-30.0,1.0
1.6951620318160497e+18,-2.0,-1.0,2.0,8.0,-5.0,-2.0,2.0,-2.0
1.695162031817049e+18,3.0,4.0,8.0,13.0,9.0,6.0,-4.0,1.0
1.695162031817049e+18,2.0,3.0,3.0,5.0,0.0,-4.0,19.0,8.0
1.6951620318500303e+18,-3.0,-6.0,-6.0,-16.0,-8.0,-3.0,-1.0,-7.0
1.6951620318500303e+18,1.0,5.0,1.0,7.0,12.0,13.0,-2.0,2.0
1.6951620318500303e+18,-3.0,-4.0,4.0,6.0,-6.0,0.0,-25.0,-12.0
1.6951620318510303e+18,-1.0,0.0,-1.0,-3.0,-3.0,-8.0,32.0,-5.0
1.6951620318540285e+18,-3.0,-5.0,1.0,5.0,-6.0,1.0,-7.0,0.0
1.6951620318540285e+18,6.0,3.0,-6.0,-3.0,8.0,23.0,42.0,16.0
1.6951620318540285e+18,-4.0,-4.0,-7.0,-12.0,-2.0,-9.0,-35.0,-9.0
1.6951620318550292e+18,3.0,6.0,7.0,13.0,5.0,6.0,6.0,6.0
1.6951620318830103e+18,3.0,6.0,2.0,-4.0,-2.0,9.0,17.0,16.0
1.6951620318840102e+18,-5.0,-11.0,-3.0,-2.0,-10.0,-14.0,-18.0,-13.0
1.6951620318990016e+18,1.0,-1.0,-17.0,-24.0,4.0,7.0,12.0,6.0
1.6951620318990016e+18,-3.0,-2.0,7.0,8.0,-18.0,-20.0,-18.0,-4.0
1.695162031908997e+18,1.0,3.0,-3.0,3.0,9.0,5.0,11.0,-8.0
1.695162031908997e+18,-3.0,-6.0,-1.0,-10.0,-19.0,-11.0,-21.0,-6.0
1.695162031908997e+18,1.0,4.0,11.0,16.0,2.0,11.0,37.0,7.0
1.695162031908997e+18,-3.0,0.0,-3.0,-8.0,-10.0,-8.0,-26.0,-5.0
1.695162031921989e+18,0.0,-1.0,-5.0,-4.0,0.0,3.0,-3.0,-1.0
1.695162031921989e+18,0.0,3.0,0.0,2.0,4.0,-5.0,0.0,-4.0
1.695162031921989e+18,-4.0,-3.0,8.0,0.0,-4.0,-20.0,-22.0,-12.0
1.6951620319229898e+18,1.0,1.0,16.0,26.0,11.0,22.0,44.0,18.0
1.695162031943981e+18,0.0,-1.0,10.0,1.0,-6.0,3.0,5.0,-1.0
1.6951620319449764e+18,-5.0,0.0,-17.0,-19.0,-11.0,-9.0,6.0,-7.0
1.6951620319449764e+18,3.0,4.0,0.0,1.0,2.0,4.0,5.0,13.0
1.6951620319449764e+18,-4.0,0.0,-2.0,0.0,2.0,-11.0,-32.0,-18.0
1.6951620319579674e+18,-2.0,-2.0,-1.0,0.0,-2.0,-4.0,2.0,0.0
1.6951620319589724e+18,2.0,-4.0,4.0,0.0,3.0,9.0,14.0,5.0
1.695162031965963e+18,-8.0,-5.0,-3.0,3.0,-10.0,-10.0,-23.0,-11.0
1.695162031965963e+18,0.0,8.0,-13.0,-8.0,1.0,8.0,19.0,-3.0
1.6951620320179336e+18,-3.0,-26.0,9.0,3.0,-2.0,-1.0,-4.0,-2.0
1.6951620320179336e+18,1.0,2.0,-8.0,-2.0,9.0,14.0,13.0,4.0
1.6951620320179336e+18,-2.0,-19.0,2.0,-4.0,-6.0,1.0,-21.0,-8.0
1.6951620320179336e+18,3.0,-1.0,-5.0,-7.0,3.0,9.0,35.0,13.0
1.6951620320179336e+18,-1.0,19.0,-10.0,-1.0,-3.0,-17.0,-14.0,-10.0
1.6951620320179336e+18,-2.0,-12.0,7.0,6.0,-7.0,6.0,7.0,15.0
1.695162032053914e+18,1.0,2.0,1.0,4.0,22.0,10.0,6.0,0.0
1.695162032053914e+18,-3.0,-5.0,-1.0,0.0,3.0,1.0,9.0,-5.0
1.695162032053914e+18,-2.0,0.0,-5.0,-11.0,-2.0,-13.0,-37.0,-2.0
1.6951620320549138e+18,4.0,16.0,5.0,3.0,-8.0,2.0,21.0,4.0
1.6951620320549138e+18,-5.0,-10.0,-5.0,4.0,-9.0,-2.0,17.0,2.0
1.6951620320549138e+18,2.0,3.0,2.0,1.0,30.0,9.0,-15.0,4.0
1.6951620320549138e+18,-2.0,16.0,0.0,15.0,14.0,-1.0,-4.0,-4.0
1.6951620320549138e+18,-4.0,-27.0,9.0,9.0,14.0,-4.0,-28.0,-8.0
1.6951620320549138e+18,2.0,-1.0,-7.0,-6.0,-17.0,9.0,30.0,9.0
1.6951620320559127e+18,-2.0,-6.0,-2.0,-7.0,-3.0,-12.0,-34.0,-11.0
1.6951620320878932e+18,3.0,4.0,6.0,6.0,-2.0,3.0,34.0,4.0
1.6951620320878932e+18,-3.0,9.0,-9.0,-2.0,0.0,0.0,-19.0,1.0
1.6951620320888955e+18,4.0,13.0,1.0,-10.0,8.0,15.0,12.0,7.0
1.6951620320888955e+18,-3.0,-17.0,5.0,4.0,-8.0,1.0,-2.0,-2.0
1.6951620320898936e+18,-4.0,-6.0,-12.0,-15.0,-10.0,-4.0,-16.0,-3.0
1.6951620320898936e+18,-3.0,-4.0,-4.0,1.0,3.0,-11.0,-23.0,-10.0
1.695162032110881e+18,3.0,4.0,1.0,-1.0,-3.0,6.0,10.0,4.0
1.695162032110881e+18,-2.0,7.0,-9.0,-9.0,-9.0,-3.0,-2.0,-5.0
1.695162032111903e+18,-2.0,15.0,0.0,11.0,0.0,-1.0,2.0,-2.0
1.695162032111903e+18,-1.0,-18.0,2.0,-21.0,-7.0,-3.0,-6.0,0.0
1.6951620321129037e+18,-5.0,-1.0,-9.0,3.0,11.0,-10.0,-14.0,-9.0
1.6951620321129037e+18,-3.0,-1.0,8.0,4.0,-7.0,-8.0,-20.0,-3.0
1.6951620321258954e+18,1.0,3.0,-8.0,-12.0,-13.0,-5.0,-4.0,-4.0
1.6951620321278945e+18,3.0,30.0,-4.0,-1.0,-8.0,-3.0,1.0,1.0
1.6951620321288722e+18,-6.0,-14.0,-10.0,-2.0,3.0,3.0,9.0,4.0
1.6951620321288722e+18,-1.0,-3.0,0.0,-2.0,-8.0,-20.0,-22.0,-3.0
1.6951620321468603e+18,0.0,-17.0,0.0,-5.0,-7.0,-4.0,12.0,-6.0
1.6951620321468603e+18,1.0,11.0,2.0,9.0,7.0,8.0,-19.0,5.0
1.6951620321478602e+18,2.0,2.0,6.0,1.0,2.0,10.0,19.0,5.0
1.6951620321478602e+18,2.0,2.0,1.0,2.0,11.0,14.0,3.0,6.0
1.6951620321539325e+18,2.0,1.0,0.0,-2.0,0.0,-3.0,-7.0,-3.0
1.6951620321539325e+18,-2.0,-22.0,9.0,5.0,-2.0,2.0,30.0,2.0
1.6951620321539325e+18,0.0,7.0,-3.0,2.0,-1.0,-6.0,-1.0,1.0
1.6951620321539325e+18,-1.0,-5.0,-3.0,0.0,-1.0,5.0,7.0,-2.0
1.6951620321779894e+18,1.0,6.0,-1.0,-8.0,-1.0,10.0,5.0,11.0
1.6951620321779894e+18,-5.0,-18.0,1.0,0.0,-1.0,-4.0,-4.0,-9.0
1.6951620321789883e+18,-1.0,3.0,-9.0,-7.0,-12.0,-20.0,-20.0,-2.0
1.6951620321789883e+18,5.0,14.0,0.0,2.0,6.0,27.0,23.0,3.0
1.6951620321980012e+18,1.0,0.0,-2.0,-8.0,-2.0,-4.0,-6.0,4.0
1.6951620321989768e+18,0.0,12.0,-1.0,-2.0,-6.0,-4.0,-6.0,-3.0
1.6951620321989768e+18,-6.0,-14.0,-6.0,4.0,9.0,-2.0,-2.0,-8.0
1.6951620321989768e+18,-3.0,-5.0,0.0,-5.0,-9.0,-11.0,-11.0,-3.0
1.695162032237581e+18,-6.0,-11.0,1.0,3.0,-2.0,-4.0,-22.0,-5.0
1.6951620322385802e+18,5.0,8.0,0.0,-13.0,-6.0,0.0,2.0,-1.0
1.6951620322385802e+18,0.0,2.0,6.0,12.0,4.0,-3.0,3.0,-3.0
1.6951620322385802e+18,2.0,3.0,0.0,-8.0,-7.0,-4.0,-5.0,4.0
1.6951620322405786e+18,-2.0,-4.0,-3.0,4.0,9.0,13.0,17.0,4.0
1.6951620322405786e+18,-3.0,-10.0,2.0,-4.0,-2.0,-8.0,2.0,1.0
1.6951620322505966e+18,-1.0,12.0,-15.0,-21.0,-14.0,-2.0,-9.0,-4.0
1.6951620322505966e+18,-3.0,-14.0,0.0,11.0,0.0,-11.0,7.0,-5.0
1.69516203226159e+18,-2.0,12.0,-2.0,-5.0,-3.0,-26.0,-27.0,-13.0
1.6951620322625682e+18,6.0,12.0,-3.0,5.0,10.0,25.0,18.0,18.0
1.6951620322625682e+18,1.0,-14.0,12.0,11.0,1.0,4.0,-15.0,-8.0
1.6951620322625682e+18,3.0,18.0,-8.0,-9.0,1.0,3.0,12.0,0.0
1.6951620322889206e+18,-1.0,-18.0,5.0,3.0,2.0,-2.0,-3.0,4.0
1.6951620322889206e+18,0.0,8.0,-6.0,-4.0,-4.0,-13.0,-16.0,-12.0
1.6951620322899274e+18,1.0,2.0,2.0,-8.0,-7.0,-8.0,-4.0,-4.0
1.6951620322899274e+18,-1.0,-3.0,3.0,-2.0,6.0,9.0,2.0,6.0
1.6951620323135027e+18,0.0,-2.0,4.0,8.0,2.0,6.0,3.0,-2.0
1.6951620323135027e+18,-2.0,-2.0,1.0,-1.0,-2.0,-13.0,-16.0,-5.0
1.6951620323145037e+18,-3.0,-8.0,4.0,1.0,6.0,5.0,3.0,2.0
1.6951620323145037e+18,-2.0,2.0,-1.0,-4.0,-6.0,-13.0,2.0,-11.0
1.6951620323191985e+18,3.0,5.0,-3.0,-4.0,6.0,14.0,21.0,7.0
1.6951620323191985e+18,-4.0,-17.0,9.0,9.0,-6.0,-5.0,1.0,-3.0
1.6951620323201984e+18,-2.0,3.0,-3.0,-7.0,-2.0,2.0,10.0,-1.0
1.6951620323212045e+18,-1.0,-10.0,6.0,16.0,1.0,-10.0,-5.0,-5.0
1.6951620323512545e+18,-5.0,-10.0,-3.0,3.0,2.0,-4.0,6.0,3.0
1.695162032353254e+18,4.0,10.0,-5.0,-2.0,7.0,23.0,48.0,11.0
1.6951620323542518e+18,6.0,-28.0,11.0,4.0,-1.0,6.0,12.0,4.0
1.6951620323552515e+18,-1.0,5.0,-8.0,-13.0,1.0,-7.0,-15.0,1.0
1.695162032381236e+18,-7.0,-40.0,7.0,0.0,-5.0,-8.0,-20.0,-3.0
1.6951620323822364e+18,-2.0,-2.0,-3.0,2.0,-4.0,-16.0,-8.0,-11.0
1.6951620323832364e+18,-4.0,14.0,-6.0,-7.0,-5.0,-2.0,0.0,2.0
1.6951620323832364e+18,-1.0,7.0,-8.0,-9.0,-2.0,2.0,0.0,5.0
1.6951620323842435e+18,0.0,-3.0,4.0,14.0,0.0,-4.0,-15.0,-7.0
1.6951620323842435e+18,1.0,-1.0,0.0,-8.0,3.0,15.0,21.0,7.0
1.6951620324072356e+18,-1.0,1.0,5.0,4.0,2.0,-3.0,-10.0,-2.0
1.6951620324112215e+18,1.0,-10.0,-2.0,-4.0,-3.0,2.0,-4.0,0.0
1.6951620324132273e+18,-3.0,16.0,-19.0,-13.0,0.0,8.0,7.0,-1.0
1.6951620324132273e+18,-7.0,-4.0,-1.0,6.0,-11.0,-13.0,-17.0,-4.0
1.6951620324142264e+18,3.0,16.0,-2.0,4.0,11.0,5.0,-1.0,0.0
1.6951620324162245e+18,-2.0,-9.0,11.0,6.0,0.0,5.0,23.0,1.0
