timestamp,EMG_s0,EMG_s1,EMG_s2,EMG_s3,EMG_s4,EMG_s5,EMG_s6,EMG_s7
1.6951622274264435e+18,-1.0,0.0,-1.0,0.0,0.0,0.0,0.0,1.0
1.6951622274264435e+18,-2.0,-2.0,-3.0,-2.0,-2.0,-1.0,-2.0,0.0
1.6951622274274363e+18,-1.0,-3.0,-3.0,-2.0,1.0,-1.0,-1.0,-2.0
1.6951622274274363e+18,-1.0,-1.0,0.0,1.0,1.0,-1.0,0.0,-2.0
1.695162227431434e+18,0.0,0.0,0.0,-2.0,0.0,0.0,0.0,-1.0
1.695162227431434e+18,1.0,-2.0,-1.0,0.0,-1.0,-2.0,1.0,-1.0
1.695162227431434e+18,-1.0,-1.0,-2.0,-1.0,0.0,-3.0,-1.0,1.0
1.6951622274324365e+18,-1.0,-1.0,-1.0,-3.0,-1.0,-1.0,0.0,-1.0
1.6951622274454254e+18,-1.0,-2.0,-1.0,-2.0,-2.0,0.0,-2.0,-1.0
1.6951622274454254e+18,-2.0,-1.0,-1.0,-1.0,-2.0,-1.0,0.0,-1.0
1.6951622274454254e+18,-1.0,0.0,0.0,0.0,-1.0,1.0,-2.0,-1.0
1.6951622274454254e+18,0.0,-2.0,0.0,-1.0,-1.0,-1.0,-1.0,0.0
1.6951622274614395e+18,0.0,-2.0,-1.0,0.0,-1.0,-2.0,0.0,-2.0
1.6951622274614395e+18,-1.0,-1.0,-1.0,-1.0,-1.0,0.0,-1.0,2.0
1.6951622274684137e+18,-1.0,0.0,-2.0,1.0,-1.0,2.0,2.0,0.0
1.6951622274684137e+18,0.0,1.0,-2.0,-2.0,1.0,2.0,1.0,0.0
1.6951622274754081e+18,-1.0,1.0,2.0,-2.0,2.0,1.0,1.0,-1.0
1.6951622274764216e+18,2.0,0.0,1.0,0.0,1.0,0.0,0.0,-1.0
1.6951622274903995e+18,2.0,1.0,2.0,-1.0,0.0,0.0,-2.0,0.0
1.6951622274903995e+18,1.0,0.0,-3.0,0.0,-1.0,0.0,0.0,0.0
1.6951622274993943e+18,-1.0,2.0,5.0,-2.0,-1.0,-4.0,-1.0,1.0
1.6951622274993943e+18,0.0,0.0,-8.0,-4.0,-10.0,-2.0,-1.0,-1.0
1.6951622275133883e+18,-3.0,-3.0,-3.0,-4.0,-3.0,-2.0,0.0,-1.0
1.6951622275133883e+18,0.0,-1.0,2.0,2.0,4.0,-1.0,-1.0,0.0
1.6951622275513882e+18,-3.0,-4.0,-13.0,-11.0,-12.0,2.0,-1.0,-1.0
1.6951622275513882e+18,0.0,-2.0,0.0,-1.0,-6.0,1.0,-1.0,-1.0
1.6951622275583636e+18,-3.0,1.0,15.0,19.0,38.0,13.0,3.0,0.0
1.6951622275593702e+18,-3.0,-4.0,-6.0,4.0,-9.0,-5.0,-3.0,-1.0
1.6951622275593702e+18,0.0,-2.0,4.0,-3.0,0.0,-4.0,-1.0,0.0
1.6951622275593702e+18,0.0,-2.0,-5.0,6.0,-5.0,-2.0,-1.0,-1.0
1.6951622275613586e+18,0.0,1.0,-3.0,-10.0,-15.0,-2.0,-1.0,-3.0
1.6951622275613586e+18,-1.0,1.0,0.0,-2.0,3.0,-2.0,-2.0,-2.0
1.6951622275643594e+18,-1.0,-6.0,-15.0,-1.0,1.0,-2.0,0.0,-2.0
1.6951622275643594e+18,-3.0,5.0,23.0,-3.0,-8.0,-2.0,-2.0,-2.0
1.6951622275743542e+18,-1.0,-6.0,-38.0,-9.0,0.0,-5.0,-5.0,-1.0
1.6951622275743542e+18,0.0,2.0,7.0,0.0,-4.0,0.0,-1.0,-1.0
1.6951622275793485e+18,-2.0,0.0,-1.0,2.0,2.0,-2.0,-2.0,-1.0
1.6951622275793485e+18,0.0,1.0,5.0,-9.0,-4.0,-1.0,0.0,-1.0
1.6951622275953403e+18,-2.0,-3.0,2.0,21.0,8.0,-3.0,-3.0,-4.0
1.6951622275963633e+18,0.0,-1.0,-6.0,-7.0,0.0,1.0,0.0,-1.0
1.6951622276103311e+18,0.0,0.0,2.0,5.0,2.0,4.0,2.0,0.0
1.6951622276103311e+18,-1.0,-3.0,-2.0,-4.0,3.0,2.0,1.0,-1.0
1.6951622276243277e+18,-1.0,-1.0,6.0,-4.0,-13.0,-7.0,-1.0,-1.0
1.6951622276243277e+18,-3.0,-3.0,-9.0,-4.0,-11.0,-1.0,0.0,-4.0
1.6951622276253253e+18,2.0,1.0,9.0,2.0,20.0,11.0,2.0,1.0
1.6951622276253253e+18,-1.0,-1.0,-9.0,2.0,1.0,-3.0,-3.0,-1.0
1.6951622276403136e+18,-1.0,-1.0,0.0,-9.0,-13.0,-6.0,-2.0,-1.0
1.6951622276403136e+18,-1.0,1.0,5.0,4.0,3.0,0.0,1.0,-1.0
1.6951622276413156e+18,-1.0,-1.0,-1.0,-6.0,-11.0,-5.0,-3.0,-1.0
1.6951622276413156e+18,0.0,-1.0,-9.0,-5.0,-5.0,-3.0,-2.0,-1.0
1.6951622276722957e+18,-1.0,-1.0,0.0,3.0,10.0,4.0,0.0,0.0
1.6951622276722957e+18,-2.0,-3.0,1.0,-1.0,1.0,0.0,-2.0,1.0
1.6951622276722957e+18,-4.0,1.0,2.0,1.0,-9.0,1.0,3.0,-1.0
1.6951622276732956e+18,0.0,-3.0,-8.0,2.0,13.0,-4.0,1.0,2.0
1.695162227676293e+18,-2.0,0.0,9.0,4.0,5.0,7.0,3.0,1.0
1.6951622276772954e+18,4.0,3.0,1.0,-12.0,-1.0,8.0,-1.0,0.0
1.6951622276842903e+18,1.0,1.0,-1.0,0.0,-7.0,-2.0,-3.0,-1.0
1.6951622276842903e+18,1.0,-2.0,-4.0,-9.0,-16.0,-7.0,-2.0,-2.0
1.6951622277082757e+18,0.0,-1.0,1.0,6.0,14.0,-1.0,-1.0,0.0
1.6951622277082757e+18,-2.0,-1.0,-3.0,-1.0,10.0,-5.0,-2.0,-3.0
1.6951622277082757e+18,-1.0,0.0,6.0,2.0,-9.0,-2.0,3.0,-1.0
1.6951622277082757e+18,0.0,-1.0,-1.0,-2.0,6.0,8.0,4.0,1.0
1.695162227724274e+18,3.0,4.0,-4.0,-6.0,-6.0,-1.0,0.0,2.0
1.6951622277252662e+18,0.0,-2.0,6.0,11.0,-4.0,-3.0,-1.0,-1.0
1.6951622277252662e+18,-1.0,-2.0,-10.0,-11.0,4.0,7.0,-2.0,-2.0
1.6951622277252662e+18,0.0,0.0,5.0,8.0,11.0,-3.0,-1.0,-1.0
1.6951622277372588e+18,-1.0,-1.0,-1.0,-7.0,-10.0,-5.0,-2.0,-2.0
1.6951622277372588e+18,-2.0,-1.0,-2.0,4.0,0.0,-5.0,1.0,2.0
1.6951622277442573e+18,1.0,0.0,2.0,2.0,-2.0,-8.0,-4.0,0.0
1.6951622277442573e+18,-3.0,-1.0,-1.0,0.0,-5.0,-7.0,-5.0,-4.0
1.6951622277602455e+18,1.0,3.0,-1.0,-7.0,-10.0,-3.0,3.0,2.0
1.6951622277602455e+18,-3.0,-3.0,5.0,1.0,-6.0,13.0,4.0,-1.0
1.6951622277602455e+18,1.0,1.0,-3.0,2.0,40.0,10.0,3.0,3.0
1.6951622277612462e+18,-1.0,0.0,-4.0,-8.0,-10.0,0.0,-5.0,-1.0
1.6951622277842317e+18,-1.0,-1.0,2.0,-6.0,-22.0,-17.0,-7.0,-4.0
1.6951622277842317e+18,2.0,4.0,5.0,20.0,30.0,5.0,2.0,3.0
1.6951622277842317e+18,-1.0,0.0,-4.0,-12.0,-12.0,4.0,3.0,2.0
1.695162227785231e+18,-4.0,-3.0,-6.0,1.0,-1.0,-2.0,-3.0,-4.0
1.6951622278052193e+18,4.0,2.0,-3.0,-10.0,-4.0,7.0,3.0,-1.0
1.6951622278052193e+18,-1.0,-3.0,-11.0,-15.0,-20.0,-12.0,-2.0,-2.0
1.6951622278052193e+18,-2.0,-1.0,4.0,2.0,3.0,0.0,-7.0,-3.0
1.6951622278052193e+18,-1.0,-1.0,6.0,19.0,1.0,4.0,-3.0,1.0
1.6951622278252086e+18,-1.0,0.0,4.0,-6.0,-4.0,-2.0,0.0,-1.0
1.69516222782621e+18,-2.0,-2.0,-7.0,-17.0,8.0,7.0,8.0,3.0
1.69516222782621e+18,0.0,-2.0,-2.0,6.0,4.0,-10.0,-1.0,-2.0
1.69516222782621e+18,-1.0,-2.0,-9.0,-11.0,-13.0,-10.0,-5.0,-1.0
1.6951622278421983e+18,-2.0,-6.0,10.0,9.0,-5.0,7.0,3.0,-1.0
1.6951622278421983e+18,0.0,1.0,7.0,8.0,-3.0,0.0,-6.0,-8.0
1.6951622278431977e+18,-1.0,1.0,-3.0,-7.0,-5.0,4.0,18.0,9.0
1.6951622278431977e+18,1.0,-1.0,-9.0,-11.0,1.0,5.0,1.0,1.0
1.6951622278751803e+18,-3.0,-5.0,0.0,6.0,4.0,7.0,-7.0,0.0
1.6951622278751803e+18,3.0,2.0,-9.0,-6.0,4.0,-14.0,2.0,-1.0
1.6951622278751803e+18,-1.0,-3.0,-2.0,-7.0,-9.0,-4.0,-8.0,-5.0
1.6951622278751803e+18,0.0,4.0,10.0,20.0,11.0,-4.0,4.0,2.0
1.6951622278801772e+18,-1.0,1.0,-8.0,-5.0,1.0,-1.0,-5.0,0.0
1.6951622278801772e+18,-3.0,-5.0,-1.0,-8.0,-5.0,6.0,6.0,0.0
1.6951622278811768e+18,-2.0,1.0,2.0,2.0,-13.0,-12.0,-5.0,-9.0
1.6951622278811768e+18,-1.0,-8.0,-2.0,-1.0,5.0,8.0,-9.0,4.0
1.6951622279131587e+18,-1.0,0.0,1.0,-12.0,-5.0,4.0,4.0,-5.0
1.6951622279141617e+18,2.0,-1.0,2.0,8.0,-3.0,-8.0,-10.0,4.0
1.6951622279471634e+18,0.0,-3.0,-4.0,-1.0,-1.0,-4.0,16.0,-1.0
1.695162227948138e+18,1.0,2.0,2.0,-4.0,3.0,20.0,39.0,1.0
1.695162227965131e+18,-3.0,-4.0,-2.0,-14.0,-6.0,-11.0,-6.0,-3.0
1.695162227965131e+18,-6.0,-2.0,-3.0,17.0,0.0,2.0,-4.0,1.0
1.695162227966141e+18,-2.0,0.0,-2.0,-6.0,-6.0,3.0,-19.0,1.0
1.695162227966141e+18,-4.0,-5.0,1.0,20.0,19.0,-1.0,0.0,-9.0
1.695162227987115e+18,-1.0,-3.0,-11.0,-3.0,-19.0,-7.0,7.0,7.0
1.695162227987115e+18,3.0,0.0,5.0,5.0,24.0,-8.0,-19.0,-14.0
1.695162227987115e+18,-2.0,-3.0,-4.0,-21.0,-3.0,9.0,6.0,3.0
1.6951622279881142e+18,-1.0,-1.0,-10.0,-13.0,-6.0,2.0,-11.0,-2.0
1.6951622279891144e+18,4.0,3.0,4.0,28.0,21.0,11.0,42.0,10.0
1.6951622279891144e+18,-1.0,2.0,-1.0,-10.0,-14.0,0.0,4.0,-2.0
1.6951622280011116e+18,-1.0,-2.0,-2.0,-1.0,0.0,-1.0,-7.0,-6.0
1.695162228002109e+18,-6.0,-7.0,7.0,2.0,-16.0,-10.0,-1.0,0.0
1.6951622280031068e+18,-2.0,-1.0,-2.0,0.0,16.0,-8.0,-35.0,-5.0
1.6951622280031068e+18,2.0,3.0,7.0,21.0,1.0,7.0,16.0,2.0
1.6951622280041065e+18,-3.0,-9.0,-3.0,0.0,0.0,1.0,7.0,0.0
1.6951622280041065e+18,7.0,18.0,-6.0,-2.0,-1.0,-2.0,-2.0,-1.0
1.695162228027096e+18,-4.0,3.0,-1.0,-6.0,0.0,-4.0,-30.0,-10.0
1.695162228027096e+18,-4.0,-20.0,-13.0,-25.0,-11.0,7.0,32.0,9.0
1.6951622280370883e+18,-4.0,-15.0,12.0,11.0,-9.0,-21.0,-21.0,-6.0
1.6951622280380908e+18,2.0,-1.0,8.0,2.0,16.0,11.0,25.0,2.0
1.695162228045082e+18,-2.0,-2.0,-13.0,-6.0,-14.0,-5.0,-25.0,-5.0
1.695162228045082e+18,6.0,34.0,-14.0,-21.0,1.0,2.0,19.0,7.0
1.6951622280630728e+18,-9.0,-12.0,-7.0,-2.0,-8.0,-8.0,-17.0,-16.0
1.6951622280630728e+18,0.0,-3.0,5.0,6.0,-4.0,-2.0,2.0,6.0
1.6951622280630728e+18,2.0,11.0,1.0,1.0,10.0,9.0,3.0,4.0
1.6951622280630728e+18,-5.0,-16.0,2.0,-6.0,-12.0,-14.0,-6.0,-6.0
1.695162228064073e+18,2.0,10.0,-5.0,-3.0,3.0,5.0,-2.0,0.0
1.695162228065071e+18,2.0,22.0,-6.0,0.0,-5.0,-7.0,-8.0,-6.0
1.6951622281010516e+18,-6.0,-11.0,4.0,-1.0,-9.0,-2.0,9.0,3.0
1.6951622281010516e+18,-2.0,-3.0,8.0,14.0,-4.0,-8.0,-15.0,-8.0
1.6951622281010516e+18,0.0,21.0,-10.0,-14.0,-4.0,-2.0,0.0,-2.0
1.6951622281010516e+18,-2.0,-14.0,0.0,4.0,2.0,-2.0,-7.0,-2.0
1.695162228120039e+18,-2.0,-1.0,-8.0,-13.0,-11.0,-9.0,-8.0,-9.0
1.695162228120039e+18,-5.0,-12.0,-10.0,-6.0,1.0,5.0,17.0,-2.0
1.6951622281270587e+18,1.0,3.0,-4.0,-1.0,8.0,14.0,-38.0,9.0
1.6951622281270587e+18,1.0,6.0,0.0,-4.0,-13.0,-8.0,0.0,-4.0
1.6951622281530207e+18,1.0,3.0,2.0,5.0,2.0,-8.0,-21.0,-7.0
1.6951622281530207e+18,-6.0,-37.0,13.0,4.0,6.0,4.0,-2.0,6.0
1.6951622281530207e+18,-1.0,3.0,5.0,11.0,1.0,9.0,34.0,11.0
1.6951622281540214e+18,5.0,-4.0,2.0,-1.0,2.0,2.0,2.0,6.0
1.6951622281570194e+18,3.0,0.0,5.0,6.0,11.0,14.0,2.0,6.0
1.6951622281580196e+18,2.0,15.0,-4.0,-6.0,-5.0,-2.0,-14.0,-3.0
1.6951622281580196e+18,-2.0,2.0,-10.0,0.0,-3.0,-16.0,-21.0,-11.0
1.6951622281580196e+18,-5.0,-18.0,1.0,1.0,2.0,10.0,11.0,8.0
1.6951622281880018e+18,-1.0,-15.0,6.0,5.0,6.0,3.0,11.0,1.0
1.6951622281890012e+18,2.0,12.0,-10.0,-20.0,-23.0,0.0,8.0,-2.0
1.6951622282119882e+18,-2.0,-14.0,18.0,26.0,35.0,12.0,12.0,4.0
1.6951622282119882e+18,-1.0,35.0,-8.0,-7.0,1.0,-13.0,-15.0,-8.0
1.695162228212986e+18,-4.0,-8.0,-6.0,2.0,1.0,-2.0,-3.0,-4.0
1.6951622282139853e+18,-4.0,-9.0,13.0,11.0,-1.0,-6.0,1.0,-3.0
1.6951622282159854e+18,0.0,-7.0,-5.0,-14.0,-19.0,-9.0,6.0,-4.0
1.6951622282169866e+18,5.0,4.0,0.0,3.0,11.0,6.0,5.0,1.0
1.6951622282279795e+18,0.0,-16.0,14.0,13.0,8.0,6.0,10.0,0.0
1.6951622282279795e+18,0.0,21.0,-13.0,-8.0,-1.0,-5.0,-10.0,-1.0
1.6951622282289782e+18,1.0,7.0,-6.0,-13.0,-10.0,-5.0,-6.0,-2.0
1.6951622282289782e+18,-7.0,-3.0,-5.0,1.0,-4.0,-3.0,-12.0,-3.0
1.6951622282299796e+18,-1.0,-14.0,16.0,11.0,5.0,1.0,2.0,2.0
1.6951622282299796e+18,-1.0,-4.0,-2.0,-3.0,0.0,-1.0,11.0,0.0
1.6951622282479667e+18,-1.0,5.0,-8.0,-15.0,-5.0,-13.0,-12.0,-8.0
1.6951622282479667e+18,3.0,5.0,5.0,12.0,2.0,2.0,6.0,-1.0
1.695162228271952e+18,2.0,7.0,-3.0,-2.0,-3.0,-2.0,-28.0,1.0
1.695162228271952e+18,-5.0,-1.0,-3.0,-3.0,-7.0,-8.0,-5.0,-5.0
1.695162228273952e+18,-5.0,-26.0,6.0,2.0,2.0,6.0,6.0,7.0
1.695162228273952e+18,4.0,5.0,4.0,6.0,10.0,3.0,15.0,1.0
1.6951622282919414e+18,0.0,-2.0,-14.0,-10.0,-5.0,8.0,16.0,1.0
1.6951622282919414e+18,-4.0,-29.0,13.0,3.0,3.0,-2.0,0.0,3.0
1.6951622282929408e+18,3.0,14.0,-2.0,2.0,-3.0,0.0,-11.0,1.0
1.6951622282929408e+18,0.0,2.0,-8.0,-5.0,-1.0,11.0,18.0,2.0
1.6951622282929408e+18,-5.0,-6.0,4.0,5.0,12.0,-10.0,-9.0,-14.0
1.6951622282929408e+18,-4.0,1.0,-2.0,-2.0,-6.0,-1.0,-10.0,-14.0
1.695162228299936e+18,1.0,-6.0,-8.0,-6.0,-3.0,1.0,53.0,-14.0
1.695162228299936e+18,5.0,-5.0,21.0,22.0,14.0,20.0,-15.0,13.0
1.695162228306937e+18,1.0,33.0,19.0,12.0,-3.0,2.0,-19.0,26.0
1.6951622283079324e+18,6.0,-9.0,-48.0,-31.0,9.0,4.0,-13.0,19.0
1.6951622283409134e+18,-6.0,3.0,-10.0,-13.0,2.0,-5.0,-11.0,-7.0
1.6951622283419133e+18,-10.0,-7.0,7.0,7.0,-9.0,-23.0,-34.0,-30.0
1.6951622283419133e+18,-2.0,-11.0,-31.0,-50.0,-23.0,-2.0,8.0,-14.0
1.6951622283419133e+18,-2.0,8.0,-9.0,-4.0,0.0,-10.0,-30.0,-16.0
1.695162228352907e+18,-1.0,4.0,4.0,2.0,-5.0,4.0,16.0,13.0
1.695162228352907e+18,8.0,3.0,-4.0,-5.0,1.0,13.0,47.0,11.0
1.6951622283539057e+18,5.0,7.0,5.0,10.0,2.0,0.0,16.0,5.0
1.6951622283539057e+18,-4.0,15.0,9.0,5.0,-4.0,4.0,3.0,4.0
1.6951622283918838e+18,0.0,-12.0,-1.0,4.0,5.0,8.0,10.0,5.0
1.6951622283918838e+18,-4.0,-1.0,-9.0,-9.0,-7.0,-16.0,-9.0,-5.0
1.6951622283928832e+18,3.0,-3.0,15.0,18.0,7.0,10.0,20.0,9.0
1.6951622283928832e+18,2.0,1.0,3.0,-1.0,-2.0,9.0,32.0,-3.0
1.6951622283938824e+18,3.0,11.0,3.0,4.0,-2.0,-6.0,-19.0,6.0
1.6951622283938824e+18,5.0,5.0,-8.0,-3.0,-1.0,17.0,28.0,12.0
1.695162228421866e+18,-2.0,-15.0,-5.0,-2.0,6.0,4.0,12.0,-2.0
1.695162228421866e+18,-5.0,-3.0,6.0,3.0,-1.0,13.0,5.0,-4.0
1.6951622284228667e+18,-3.0,5.0,2.0,6.0,8.0,2.0,-2.0,-13.0
1.695162228423866e+18,0.0,-3.0,2.0,-7.0,-2.0,-10.0,-12.0,0.0
1.695162228423866e+18,-1.0,12.0,-12.0,-4.0,-5.0,-12.0,1.0,-3.0
1.695162228423866e+18,-2.0,-15.0,2.0,-5.0,-6.0,-11.0,-21.0,-2.0
1.6951622284668424e+18,-1.0,15.0,6.0,15.0,-3.0,-3.0,-17.0,-9.0
1.6951622284668424e+18,-5.0,-18.0,-8.0,-16.0,-8.0,-12.0,0.0,-4.0
1.69516222846784e+18,4.0,31.0,-8.0,1.0,0.0,0.0,-4.0,-8.0
1.69516222846784e+18,0.0,-6.0,16.0,9.0,3.0,3.0,12.0,7.0
1.6951622284688394e+18,4.0,-3.0,-16.0,-23.0,-7.0,-5.0,-15.0,2.0
1.6951622284698386e+18,-1.0,6.0,-7.0,2.0,3.0,-5.0,-13.0,-3.0
1.6951622284728607e+18,-11.0,-18.0,4.0,-1.0,-3.0,-2.0,-6.0,-4.0
1.6951622284728607e+18,4.0,-2.0,-5.0,-14.0,-4.0,-2.0,2.0,1.0
1.6951622284738365e+18,-3.0,1.0,-4.0,5.0,-7.0,-8.0,-5.0,2.0
1.6951622284738365e+18,-3.0,-3.0,13.0,14.0,1.0,0.0,-14.0,-4.0
1.6951622284888292e+18,5.0,34.0,-15.0,-8.0,1.0,-2.0,0.0,-2.0
1.6951622284948485e+18,4.0,2.0,-3.0,1.0,-4.0,-2.0,7.0,0.0
1.695162228504819e+18,-5.0,3.0,4.0,1.0,-13.0,-7.0,-8.0,-4.0
1.695162228504819e+18,0.0,9.0,-4.0,-16.0,5.0,0.0,-10.0,-2.0
1.695162228504819e+18,-6.0,-48.0,21.0,25.0,2.0,0.0,0.0,2.0
1.69516222850582e+18,-3.0,21.0,-12.0,-11.0,-1.0,-4.0,-1.0,-5.0
1.6951622285068183e+18,1.0,0.0,1.0,-3.0,-3.0,0.0,1.0,5.0
1.6951622285068183e+18,6.0,-19.0,2.0,-3.0,-2.0,-1.0,-5.0,4.0
1.6951622285098394e+18,-8.0,13.0,10.0,17.0,1.0,-5.0,-6.0,-11.0
1.6951622285098394e+18,-9.0,-43.0,14.0,14.0,13.0,12.0,14.0,6.0
1.69516222855479e+18,0.0,-12.0,7.0,-5.0,0.0,-1.0,-1.0,1.0
1.69516222855479e+18,2.0,8.0,-16.0,-6.0,-1.0,-2.0,-7.0,0.0
1.6951622285797768e+18,2.0,2.0,-12.0,-19.0,-3.0,-1.0,-3.0,0.0
1.6951622285797768e+18,-1.0,-1.0,15.0,6.0,-9.0,-5.0,-5.0,-2.0
1.6951622285807785e+18,-1.0,1.0,-14.0,-8.0,3.0,2.0,2.0,1.0
1.6951622285817754e+18,-2.0,1.0,27.0,22.0,7.0,1.0,0.0,-1.0
1.6951622285817754e+18,0.0,-8.0,-16.0,-12.0,-7.0,-3.0,4.0,1.0
1.6951622285817754e+18,-1.0,6.0,-9.0,-6.0,-4.0,-2.0,-1.0,-2.0
1.695162228586772e+18,-1.0,-6.0,10.0,2.0,6.0,-1.0,-1.0,0.0
1.695162228586772e+18,-2.0,7.0,-15.0,-11.0,-2.0,0.0,-3.0,0.0
1.6951622285877742e+18,2.0,8.0,-1.0,4.0,1.0,0.0,-1.0,-1.0
1.6951622285877742e+18,-3.0,-9.0,-3.0,-1.0,-4.0,-1.0,-2.0,-1.0
1.6951622285927685e+18,-2.0,0.0,1.0,-3.0,-1.0,0.0,0.0,0.0
1.6951622285927685e+18,1.0,1.0,-2.0,2.0,2.0,-1.0,2.0,-1.0
1.6951622286347625e+18,0.0,0.0,-5.0,-1.0,-1.0,-1.0,-2.0,1.0
1.6951622286347625e+18,-3.0,-1.0,0.0,-1.0,-1.0,-3.0,-4.0,-2.0
1.6951622286347625e+18,0.0,-3.0,-1.0,-4.0,-3.0,-1.0,-1.0,-2.0
1.6951622286347625e+18,1.0,6.0,1.0,-1.0,-2.0,-1.0,0.0,-1.0
1.6951622286357453e+18,-2.0,-7.0,4.0,4.0,0.0,-2.0,0.0,0.0
1.6951622286357453e+18,-1.0,-2.0,-3.0,-7.0,-3.0,-1.0,-3.0,-2.0
1.6951622286367677e+18,0.0,2.0,1.0,1.0,3.0,-1.0,1.0,0.0
1.6951622286377454e+18,-1.0,-1.0,1.0,1.0,-3.0,-3.0,1.0,0.0
1.6951622286537352e+18,-2.0,-1.0,-4.0,-1.0,2.0,0.0,-3.0,-2.0
1.6951622286547428e+18,-1.0,-2.0,-1.0,-5.0,-2.0,0.0,-1.0,-1.0
1.6951622286547428e+18,-1.0,-3.0,-2.0,-1.0,-4.0,-2.0,0.0,-1.0
1.6951622286547428e+18,-1.0,0.0,-2.0,0.0,-3.0,-3.0,-2.0,-1.0
1.695162228669748e+18,-2.0,-3.0,-4.0,-1.0,0.0,0.0,0.0,3.0
1.695162228669748e+18,1.0,2.0,-4.0,0.0,-2.0,-1.0,-2.0,-1.0
1.695162228669748e+18,0.0,-4.0,2.0,1.0,-1.0,-1.0,-1.0,0.0
1.695162228669748e+18,0.0,-1.0,0.0,-2.0,-2.0,0.0,-2.0,-3.0
1.695162228721718e+18,-2.0,0.0,0.0,-1.0,-2.0,-1.0,-1.0,-2.0
1.695162228721718e+18,-1.0,-2.0,-3.0,-4.0,-2.0,-1.0,0.0,-1.0
1.6951622287226936e+18,0.0,0.0,2.0,2.0,1.0,-1.0,0.0,0.0
1.6951622287226936e+18,1.0,0.0,-3.0,-2.0,0.0,-2.0,0.0,1.0
1.695162228724693e+18,0.0,2.0,-1.0,-3.0,0.0,1.0,0.0,-2.0
1.695162228724693e+18,-3.0,-1.0,1.0,-5.0,-2.0,-2.0,-1.0,-2.0
1.695162228759673e+18,-1.0,-3.0,2.0,2.0,-1.0,0.0,0.0,-1.0
1.695162228759673e+18,-2.0,1.0,1.0,7.0,-1.0,-1.0,0.0,0.0
1.6951622287606725e+18,0.0,-1.0,-2.0,-5.0,-1.0,-3.0,-1.0,-2.0
1.6951622287606725e+18,0.0,-4.0,1.0,12.0,4.0,1.0,-1.0,0.0
1.695162228761681e+18,-2.0,-1.0,0.0,-9.0,-5.0,-2.0,-1.0,-3.0
1.695162228761681e+18,0.0,-1.0,-5.0,-5.0,-2.0,-2.0,-6.0,-2.0
1.6951622287826609e+18,0.0,-1.0,1.0,5.0,3.0,3.0,6.0,0.0
1.6951622287836626e+18,-3.0,-2.0,-2.0,-4.0,-5.0,-3.0,-1.0,0.0
1.6951622287836626e+18,0.0,-2.0,-2.0,5.0,0.0,-3.0,-6.0,-1.0
1.6951622287836626e+18,0.0,1.0,-4.0,-3.0,2.0,5.0,4.0,0.0
1.6951622287846592e+18,0.0,-1.0,4.0,8.0,-5.0,-2.0,-1.0,-1.0
1.6951622287846592e+18,-1.0,-3.0,-8.0,-4.0,0.0,1.0,2.0,2.0
1.6951622287956518e+18,-1.0,-2.0,-5.0,-6.0,-1.0,-3.0,-5.0,0.0
1.6951622287956518e+18,1.0,0.0,1.0,-1.0,-4.0,-5.0,-2.0,-1.0
1.6951622288096678e+18,1.0,1.0,-10.0,-2.0,3.0,3.0,-2.0,0.0
1.6951622288096678e+18,-1.0,1.0,-7.0,-1.0,1.0,1.0,1.0,-1.0
1.6951622288196393e+18,0.0,-1.0,3.0,-2.0,-6.0,-2.0,-2.0,1.0
1.6951622288196393e+18,-2.0,1.0,0.0,0.0,2.0,-3.0,-1.0,-1.0
1.6951622288206403e+18,-1.0,-2.0,-3.0,0.0,2.0,4.0,-3.0,1.0
1.695162228821638e+18,-1.0,-1.0,2.0,-5.0,-4.0,-4.0,-3.0,0.0
1.695162228821638e+18,0.0,0.0,-7.0,3.0,2.0,2.0,1.0,1.0
1.695162228822637e+18,0.0,0.0,4.0,0.0,-5.0,-6.0,-3.0,-3.0
1.695162228857617e+18,-2.0,-7.0,-13.0,-2.0,0.0,-3.0,-1.0,0.0
1.695162228858616e+18,-2.0,-3.0,1.0,4.0,8.0,6.0,0.0,-2.0
1.695162228858616e+18,1.0,3.0,4.0,2.0,-4.0,-1.0,1.0,-1.0
1.695162228858616e+18,-3.0,-5.0,-3.0,6.0,3.0,1.0,3.0,0.0
1.6951622288716086e+18,-1.0,-4.0,2.0,-5.0,2.0,8.0,0.0,-1.0
1.6951622288726093e+18,0.0,2.0,-7.0,-18.0,-10.0,-7.0,-3.0,-1.0
1.6951622288726093e+18,-1.0,2.0,15.0,18.0,-3.0,-3.0,0.0,0.0
1.6951622288736113e+18,0.0,0.0,-22.0,-4.0,4.0,-1.0,-2.0,-1.0
1.69516222887461e+18,0.0,-1.0,27.0,1.0,-2.0,-3.0,-2.0,1.0
1.6951622288756073e+18,-2.0,-2.0,-31.0,0.0,-1.0,-1.0,-2.0,-3.0
1.6951622288866235e+18,-1.0,0.0,16.0,-5.0,2.0,1.0,1.0,1.0
1.6951622288866235e+18,-1.0,3.0,-13.0,-5.0,-5.0,-1.0,-2.0,-2.0
1.695162228888599e+18,-3.0,-2.0,-1.0,-2.0,1.0,-2.0,-1.0,-3.0
1.695162228888599e+18,1.0,4.0,21.0,-2.0,1.0,0.0,0.0,0.0
1.6951622288946191e+18,-3.0,-12.0,-13.0,0.0,1.0,0.0,-2.0,-2.0
1.695162228895595e+18,0.0,6.0,5.0,-1.0,-6.0,2.0,0.0,1.0
1.6951622289075884e+18,0.0,-2.0,-1.0,-3.0,-3.0,-5.0,-4.0,-3.0
1.6951622289075884e+18,0.0,0.0,9.0,7.0,2.0,-5.0,0.0,0.0
1.6951622289085875e+18,1.0,1.0,-8.0,-3.0,-1.0,3.0,3.0,0.0
1.6951622289085875e+18,-1.0,-1.0,18.0,2.0,8.0,7.0,1.0,1.0
1.6951622289325942e+18,-1.0,3.0,-11.0,0.0,-1.0,-4.0,-1.0,-1.0
1.6951622289325942e+18,0.0,3.0,9.0,4.0,1.0,-2.0,-3.0,-2.0
1.6951622289375885e+18,-3.0,0.0,-10.0,-6.0,1.0,2.0,1.0,-1.0
1.6951622289375885e+18,-1.0,-4.0,-5.0,-1.0,-1.0,-1.0,-2.0,0.0
1.6951622289445686e+18,0.0,3.0,9.0,1.0,-7.0,-5.0,-2.0,-2.0
1.695162228945585e+18,-1.0,-4.0,-9.0,2.0,-4.0,-2.0,-3.0,0.0
1.695162228945585e+18,-1.0,0.0,-3.0,-4.0,-1.0,-1.0,-2.0,-1.0
1.6951622289465664e+18,-1.0,0.0,7.0,1.0,-1.0,-1.0,-1.0,-1.0
1.6951622289725514e+18,-1.0,0.0,-8.0,-1.0,0.0,-2.0,-1.0,-2.0
1.6951622289745736e+18,0.0,2.0,8.0,1.0,1.0,1.0,0.0,0.0
1.6951622289745736e+18,-1.0,-5.0,-12.0,-3.0,1.0,1.0,0.0,-1.0
1.6951622289745736e+18,0.0,-1.0,4.0,-1.0,-3.0,-1.0,-1.0,0.0
1.6951622289985362e+18,-1.0,0.0,-3.0,-1.0,1.0,-1.0,0.0,0.0
1.6951622289985362e+18,-1.0,-1.0,-1.0,0.0,-3.0,1.0,1.0,1.0
1.6951622289985362e+18,0.0,3.0,5.0,-1.0,0.0,0.0,1.0,-1.0
1.6951622289985362e+18,-1.0,-3.0,-4.0,0.0,0.0,-1.0,1.0,-2.0
1.695162229005532e+18,-2.0,0.0,-3.0,-1.0,-1.0,-1.0,0.0,-3.0
1.695162229005532e+18,-1.0,0.0,2.0,1.0,-3.0,-1.0,0.0,0.0
1.6951622290105306e+18,-1.0,1.0,-3.0,-2.0,0.0,0.0,0.0,-1.0
1.6951622290105306e+18,-2.0,-3.0,0.0,-1.0,0.0,0.0,-1.0,-1.0
1.695162229027519e+18,-1.0,-1.0,2.0,-1.0,-1.0,0.0,-1.0,0.0
1.695162229027519e+18,-1.0,-1.0,-1.0,0.0,-1.0,0.0,-1.0,-2.0
1.6951622290285187e+18,1.0,0.0,-3.0,-4.0,-1.0,-1.0,0.0,1.0
1.6951622290285187e+18,-1.0,1.0,-3.0,-1.0,-3.0,-1.0,-2.0,0.0
1.6951622290555062e+18,0.0,14.0,-10.0,-4.0,-4.0,-1.0,-3.0,-2.0
1.695162229056515e+18,1.0,-13.0,7.0,5.0,3.0,0.0,1.0,0.0
1.695162229057503e+18,-1.0,3.0,-10.0,-3.0,-2.0,-3.0,-3.0,-3.0
1.695162229057503e+18,-3.0,-14.0,12.0,7.0,3.0,1.0,1.0,0.0
1.695162229064498e+18,-7.0,-17.0,5.0,7.0,3.0,1.0,1.0,1.0
1.695162229065498e+18,2.0,27.0,-20.0,-9.0,-8.0,-6.0,-3.0,1.0
1.695162229065498e+18,1.0,31.0,-35.0,-15.0,-10.0,-8.0,-6.0,-5.0
1.6951622290664998e+18,-11.0,-28.0,33.0,18.0,13.0,8.0,6.0,1.0
1.6951622290944812e+18,7.0,56.0,-22.0,-23.0,-12.0,-8.0,-9.0,-5.0
1.695162229095481e+18,-4.0,-16.0,-13.0,-9.0,-4.0,-2.0,-1.0,-4.0
1.695162229095481e+18,6.0,-19.0,42.0,12.0,6.0,4.0,4.0,5.0
1.695162229095481e+18,6.0,19.0,-61.0,-16.0,-10.0,-9.0,-7.0,-4.0
1.6951622291104755e+18,2.0,3.0,0.0,2.0,1.0,-1.0,-1.0,0.0
1.6951622291104755e+18,-6.0,-10.0,9.0,5.0,5.0,2.0,-1.0,-4.0
1.6951622291104755e+18,1.0,3.0,-5.0,-3.0,-3.0,-2.0,-2.0,3.0
1.6951622291104755e+18,-5.0,14.0,-18.0,-11.0,-6.0,-4.0,-3.0,-3.0
1.6951622291334592e+18,-3.0,-22.0,16.0,8.0,4.0,3.0,0.0,0.0
1.6951622291334592e+18,7.0,16.0,-15.0,-11.0,-6.0,-3.0,-4.0,0.0
1.6951622291334592e+18,-6.0,-9.0,5.0,3.0,5.0,2.0,-1.0,-1.0
1.6951622291334592e+18,6.0,8.0,2.0,-5.0,-4.0,-2.0,-1.0,3.0
1.6951622291474516e+18,-4.0,4.0,-18.0,0.0,1.0,0.0,-2.0,-3.0
1.6951622291474516e+18,0.0,-2.0,20.0,4.0,3.0,0.0,1.0,1.0
1.695162229148454e+18,1.0,6.0,-8.0,-3.0,0.0,-2.0,0.0,-1.0
1.695162229148454e+18,-1.0,-7.0,18.0,4.0,-1.0,-1.0,-1.0,-1.0
1.695162229172437e+18,-1.0,-12.0,-8.0,0.0,-1.0,0.0,-1.0,2.0
1.695162229172437e+18,-2.0,0.0,-12.0,0.0,2.0,1.0,-2.0,-3.0
1.6951622291734372e+18,-3.0,-11.0,11.0,3.0,2.0,3.0,2.0,1.0
1.6951622291734372e+18,1.0,-3.0,1.0,-3.0,-3.0,-2.0,0.0,0.0
1.6951622291864297e+18,-1.0,-14.0,12.0,4.0,2.0,2.0,3.0,0.0
1.6951622291864297e+18,0.0,-2.0,-5.0,-2.0,-1.0,-1.0,-1.0,-1.0
1.6951622291874388e+18,-3.0,8.0,-19.0,-4.0,-4.0,-3.0,-2.0,-2.0
1.6951622291874388e+18,-1.0,-15.0,2.0,0.0,-1.0,1.0,0.0,2.0
1.6951622292144118e+18,3.0,-3.0,10.0,-2.0,-2.0,-4.0,0.0,1.0
1.6951622292144118e+18,-1.0,-3.0,3.0,2.0,-2.0,1.0,1.0,1.0
1.6951622292144118e+18,-2.0,-2.0,4.0,0.0,-2.0,0.0,-1.0,0.0
1.6951622292144118e+18,-1.0,-2.0,8.0,4.0,4.0,2.0,1.0,-1.0
1.695162229230408e+18,0.0,-2.0,-3.0,-2.0,-3.0,-2.0,1.0,1.0
1.695162229230408e+18,2.0,0.0,6.0,2.0,-1.0,-1.0,-1.0,-1.0
1.695162229230408e+18,-1.0,-2.0,-6.0,-1.0,2.0,0.0,-1.0,-3.0
1.695162229230408e+18,2.0,6.0,-3.0,-6.0,-3.0,-3.0,-1.0,0.0
1.69516222925639e+18,-7.0,-16.0,13.0,11.0,9.0,6.0,2.0,-4.0
1.695162229261386e+18,0.0,4.0,-4.0,-4.0,-3.0,-2.0,-2.0,1.0
1.6951622292623854e+18,-1.0,-2.0,-4.0,-1.0,-2.0,-1.0,0.0,-1.0
1.6951622292623854e+18,0.0,12.0,-9.0,-4.0,-2.0,-2.0,-3.0,-2.0
1.6951622292754025e+18,3.0,1.0,-4.0,-3.0,-3.0,0.0,-1.0,0.0
1.6951622292754025e+18,-2.0,-8.0,10.0,1.0,1.0,-3.0,0.0,0.0
1.695162229276377e+18,-4.0,-5.0,2.0,4.0,2.0,1.0,0.0,0.0
1.695162229276377e+18,2.0,5.0,-3.0,-1.0,-3.0,-2.0,0.0,-1.0
1.6951622292903693e+18,3.0,6.0,-6.0,-4.0,-3.0,-3.0,0.0,0.0
1.6951622292903693e+18,-4.0,-5.0,-14.0,-2.0,-1.0,1.0,-1.0,-4.0
1.6951622292913692e+18,1.0,0.0,3.0,-1.0,-1.0,-1.0,-1.0,-1.0
1.6951622292913692e+18,3.0,5.0,1.0,-1.0,0.0,0.0,-2.0,-1.0
1.6951622293133563e+18,3.0,8.0,-6.0,-6.0,-4.0,-2.0,-2.0,0.0
1.6951622293133563e+18,-1.0,0.0,-5.0,-1.0,-1.0,1.0,0.0,0.0
1.695162229314358e+18,4.0,4.0,-2.0,-3.0,-4.0,-2.0,-1.0,-2.0
1.695162229314358e+18,-2.0,-17.0,8.0,4.0,1.0,3.0,0.0,2.0
1.6951622293363663e+18,4.0,-3.0,5.0,1.0,0.0,-2.0,-2.0,1.0
1.695162229337343e+18,-1.0,2.0,7.0,2.0,2.0,-1.0,2.0,1.0
1.695162229337343e+18,-4.0,-6.0,2.0,2.0,3.0,1.0,0.0,0.0
1.695162229337343e+18,-3.0,11.0,-6.0,-5.0,-3.0,-3.0,-1.0,-2.0
1.6951622293503347e+18,-4.0,-4.0,5.0,5.0,3.0,5.0,-1.0,-1.0
1.6951622293503347e+18,-1.0,0.0,2.0,1.0,-1.0,0.0,-1.0,-2.0
1.6951622293503347e+18,0.0,8.0,-8.0,-4.0,-2.0,-1.0,-2.0,-1.0
1.6951622293503347e+18,2.0,19.0,-16.0,-9.0,-8.0,-5.0,-3.0,-1.0
1.6951622293753208e+18,3.0,43.0,-52.0,-27.0,-17.0,-11.0,-10.0,-9.0
1.6951622293753208e+18,3.0,-3.0,4.0,0.0,0.0,-1.0,-1.0,1.0
1.6951622293763215e+18,-4.0,1.0,16.0,4.0,2.0,1.0,0.0,0.0
1.6951622293763215e+18,-4.0,-9.0,1.0,2.0,1.0,1.0,1.0,-1.0
1.6951622293873126e+18,1.0,-5.0,-1.0,-4.0,-4.0,-2.0,0.0,2.0
1.6951622293873126e+18,2.0,0.0,-6.0,-4.0,-3.0,-2.0,-1.0,0.0
1.6951622293883218e+18,-1.0,-18.0,8.0,3.0,1.0,-1.0,1.0,-2.0
1.6951622293883218e+18,9.0,4.0,-2.0,-9.0,-11.0,-7.0,-3.0,1.0
1.6951622294103007e+18,-6.0,-26.0,25.0,16.0,11.0,6.0,5.0,2.0
1.6951622294103007e+18,-2.0,-3.0,-5.0,0.0,1.0,0.0,0.0,-2.0
1.6951622294113062e+18,-2.0,-5.0,2.0,0.0,1.0,2.0,0.0,-1.0
1.6951622294113062e+18,-5.0,-23.0,17.0,9.0,8.0,4.0,3.0,1.0
1.6951622294242924e+18,1.0,-5.0,17.0,1.0,0.0,1.0,2.0,1.0
1.6951622294242924e+18,-3.0,5.0,-5.0,1.0,2.0,0.0,-1.0,-3.0
1.6951622294322888e+18,3.0,4.0,1.0,-4.0,-4.0,-3.0,-3.0,0.0
1.6951622294332895e+18,-1.0,-7.0,0.0,3.0,3.0,1.0,0.0,-3.0
1.6951622294482788e+18,-4.0,-6.0,7.0,3.0,-1.0,-3.0,-1.0,-1.0
1.6951622294482788e+18,1.0,-3.0,-1.0,-4.0,-3.0,-1.0,-1.0,-1.0
1.6951622294482788e+18,-2.0,1.0,-12.0,-3.0,1.0,-1.0,0.0,0.0
1.6951622294482788e+18,0.0,-8.0,8.0,0.0,-2.0,-1.0,0.0,1.0
1.6951622294702659e+18,-10.0,-17.0,7.0,10.0,7.0,4.0,2.0,-3.0
1.6951622294702659e+18,1.0,4.0,1.0,-6.0,-6.0,-2.0,0.0,1.0
1.6951622294702659e+18,-4.0,2.0,-8.0,-1.0,0.0,-2.0,-1.0,-3.0
1.6951622294712668e+18,1.0,-1.0,0.0,-1.0,-1.0,-1.0,-1.0,-1.0
1.6951622294852603e+18,1.0,-2.0,-11.0,-3.0,-2.0,-2.0,0.0,1.0
1.6951622294852603e+18,0.0,-2.0,2.0,1.0,3.0,1.0,-1.0,0.0
1.6951622295002486e+18,0.0,-9.0,-1.0,0.0,1.0,-1.0,0.0,-1.0
1.6951622295002486e+18,1.0,6.0,5.0,0.0,0.0,-2.0,-1.0,-2.0
1.6951622295182387e+18,-3.0,-23.0,16.0,5.0,2.0,2.0,0.0,1.0
1.6951622295192381e+18,0.0,2.0,1.0,0.0,-1.0,-2.0,-2.0,-3.0
1.6951622295192381e+18,2.0,2.0,-4.0,-3.0,-3.0,-2.0,-2.0,-1.0
1.6951622295192381e+18,1.0,-2.0,2.0,0.0,1.0,2.0,-1.0,-1.0
1.6951622295382295e+18,-3.0,1.0,-3.0,0.0,0.0,1.0,1.0,-1.0
1.6951622295382295e+18,-3.0,3.0,3.0,0.0,1.0,3.0,-1.0,2.0
1.6951622295392266e+18,0.0,2.0,-1.0,-3.0,-3.0,-3.0,-1.0,-1.0
1.6951622295392266e+18,-3.0,-3.0,-7.0,-2.0,-2.0,-1.0,-1.0,-1.0
1.6951622295442345e+18,1.0,-4.0,5.0,-1.0,-1.0,-1.0,1.0,0.0
1.6951622295442345e+18,-2.0,1.0,1.0,5.0,3.0,-1.0,1.0,-2.0
1.695162229554241e+18,-3.0,-18.0,9.0,2.0,0.0,1.0,1.0,1.0
1.695162229554241e+18,-1.0,3.0,-4.0,-1.0,-1.0,1.0,-1.0,-1.0
1.6951622295752105e+18,2.0,8.0,-12.0,-5.0,-2.0,-2.0,-1.0,-2.0
1.6951622295752105e+18,0.0,-6.0,0.0,-2.0,-3.0,-3.0,0.0,-1.0
1.695162229583202e+18,0.0,4.0,-1.0,0.0,1.0,1.0,-1.0,1.0
1.695162229583202e+18,0.0,-1.0,-5.0,-1.0,0.0,-2.0,0.0,-1.0
1.6951622295901975e+18,-5.0,-8.0,3.0,5.0,3.0,1.0,0.0,-1.0
1.6951622295901975e+18,-1.0,-6.0,0.0,0.0,0.0,-3.0,0.0,1.0
1.695162229591197e+18,-2.0,-2.0,-1.0,-1.0,-2.0,-1.0,-1.0,-4.0
1.695162229591197e+18,-2.0,-7.0,3.0,-1.0,1.0,1.0,1.0,1.0
1.695162229613184e+18,2.0,1.0,-3.0,-3.0,-3.0,-1.0,-2.0,1.0
1.695162229613184e+18,-7.0,0.0,-2.0,1.0,1.0,0.0,0.0,0.0
1.6951622296141837e+18,1.0,0.0,1.0,-2.0,0.0,1.0,-1.0,0.0
1.6951622296141837e+18,-1.0,0.0,0.0,0.0,0.0,1.0,-1.0,-2.0
1.695162229629302e+18,2.0,4.0,-4.0,-5.0,-5.0,-4.0,-3.0,0.0
1.6951622296303232e+18,-1.0,-8.0,0.0,-2.0,-3.0,0.0,-2.0,-1.0
1.6951622296312996e+18,1.0,-3.0,2.0,0.0,-2.0,-3.0,0.0,1.0
1.6951622296312996e+18,-1.0,-1.0,4.0,0.0,-1.0,0.0,0.0,-1.0
1.6951622296498796e+18,2.0,2.0,-5.0,-2.0,-2.0,0.0,-2.0,1.0
1.6951622296508767e+18,1.0,1.0,-1.0,0.0,-2.0,-1.0,-2.0,-2.0
1.6951622296508767e+18,-1.0,1.0,-2.0,1.0,0.0,0.0,-1.0,-1.0
1.6951622296508767e+18,-4.0,-2.0,2.0,0.0,1.0,-1.0,1.0,1.0
1.6951622296731348e+18,1.0,2.0,-3.0,-4.0,-3.0,-2.0,-2.0,-2.0
1.6951622296731348e+18,2.0,-2.0,-1.0,1.0,0.0,1.0,1.0,0.0
1.6951622296741302e+18,0.0,0.0,-3.0,-1.0,0.0,-1.0,0.0,1.0
1.6951622296741302e+18,-1.0,-1.0,-2.0,1.0,0.0,-1.0,-1.0,-1.0
1.6951622296875643e+18,-6.0,-8.0,7.0,3.0,3.0,2.0,0.0,-2.0
1.6951622296875643e+18,1.0,-1.0,1.0,-3.0,-2.0,-1.0,0.0,1.0
1.6951622296881027e+18,1.0,1.0,-3.0,-1.0,-3.0,0.0,0.0,0.0
1.6951622296881027e+18,0.0,2.0,-2.0,-3.0,-1.0,-1.0,-3.0,0.0
1.695162229718229e+18,1.0,6.0,-6.0,-4.0,-3.0,-2.0,-1.0,-2.0
1.695162229718229e+18,-2.0,0.0,3.0,-1.0,0.0,0.0,0.0,-2.0
1.6951622297192264e+18,0.0,0.0,0.0,-1.0,-1.0,1.0,0.0,-1.0
1.6951622297192264e+18,0.0,1.0,-1.0,0.0,-1.0,0.0,-2.0,-2.0
1.695162229733336e+18,1.0,1.0,-1.0,-1.0,-1.0,-1.0,0.0,0.0
1.695162229733336e+18,-1.0,2.0,-3.0,-2.0,0.0,0.0,0.0,0.0
1.6951622297343388e+18,-2.0,-1.0,-1.0,1.0,0.0,-1.0,0.0,-1.0
1.6951622297343388e+18,0.0,-1.0,-2.0,-1.0,0.0,-2.0,0.0,-1.0
1.695162229761323e+18,1.0,4.0,-4.0,-3.0,-1.0,-2.0,0.0,-2.0
1.6951622297623252e+18,-1.0,-1.0,-3.0,-1.0,-1.0,-2.0,1.0,-1.0
1.6951622297633213e+18,-3.0,6.0,-4.0,-4.0,0.0,-1.0,-1.0,-1.0
1.6951622297633213e+18,0.0,1.0,-3.0,-1.0,-1.0,0.0,-1.0,-1.0
1.695162229770318e+18,1.0,1.0,-2.0,0.0,0.0,0.0,-1.0,1.0
1.6951622297713162e+18,0.0,-5.0,-2.0,0.0,-2.0,-1.0,1.0,0.0
1.6951622297713162e+18,0.0,-3.0,3.0,0.0,-1.0,-1.0,-2.0,1.0
1.6951622297723154e+18,1.0,3.0,-5.0,-5.0,-3.0,-2.0,1.0,0.0
1.6951622297933033e+18,-11.0,-8.0,5.0,6.0,5.0,4.0,0.0,-3.0
1.6951622297943014e+18,-1.0,4.0,-1.0,-3.0,-2.0,-1.0,-2.0,0.0
1.695162229795306e+18,1.0,0.0,0.0,-1.0,-2.0,-1.0,-1.0,-1.0
1.695162229795306e+18,0.0,1.0,-4.0,-1.0,0.0,-2.0,-1.0,-2.0
1.695162229811292e+18,1.0,0.0,-3.0,-1.0,-3.0,-3.0,0.0,0.0
1.6951622298213107e+18,-1.0,-1.0,0.0,0.0,0.0,-1.0,-1.0,-2.0
1.6951622298222866e+18,-2.0,1.0,1.0,-2.0,0.0,0.0,1.0,-1.0
1.6951622298222866e+18,-1.0,-1.0,0.0,0.0,0.0,-4.0,-2.0,-1.0
1.6951622298382758e+18,1.0,1.0,-2.0,-3.0,-3.0,-1.0,0.0,0.0
1.6951622298382758e+18,-3.0,-3.0,1.0,1.0,1.0,2.0,0.0,0.0
1.6951622298392758e+18,2.0,-1.0,-4.0,-3.0,-1.0,0.0,-1.0,1.0
1.6951622298402752e+18,-2.0,-3.0,2.0,2.0,-1.0,1.0,0.0,-1.0
1.6951622298532713e+18,1.0,0.0,-1.0,-3.0,-2.0,-1.0,-1.0,1.0
1.6951622298532713e+18,-1.0,-3.0,4.0,2.0,2.0,1.0,-1.0,-1.0
1.695162229854268e+18,1.0,1.0,-1.0,-2.0,-2.0,0.0,-1.0,-1.0
1.695162229854268e+18,-1.0,-1.0,0.0,1.0,0.0,-1.0,1.0,-3.0
1.6951622298672607e+18,-1.0,-1.0,1.0,-1.0,1.0,0.0,-1.0,-1.0
1.6951622298682609e+18,1.0,-3.0,-3.0,-2.0,-4.0,-1.0,1.0,-1.0
1.6951622298682609e+18,-1.0,-1.0,-1.0,-2.0,-1.0,-2.0,-1.0,0.0
1.6951622298682609e+18,-2.0,-3.0,0.0,-1.0,1.0,1.0,1.0,0.0
1.6951622298915023e+18,0.0,-4.0,-3.0,-2.0,0.0,0.0,0.0,0.0
1.6951622298925025e+18,0.0,2.0,0.0,-1.0,0.0,-2.0,0.0,0.0
1.6951622298925025e+18,-3.0,-1.0,2.0,1.0,1.0,1.0,1.0,-2.0
1.6951622298925025e+18,0.0,-2.0,1.0,-3.0,-1.0,-1.0,1.0,0.0
1.6951622299204575e+18,1.0,0.0,-3.0,-1.0,-4.0,-4.0,-1.0,-1.0
1.6951622299214702e+18,-1.0,-4.0,0.0,2.0,0.0,-1.0,0.0,0.0
1.6951622299214702e+18,0.0,-2.0,0.0,1.0,0.0,-1.0,-2.0,0.0
1.6951622299214702e+18,0.0,0.0,-5.0,-2.0,-2.0,-1.0,0.0,0.0
1.6951622299275085e+18,-2.0,2.0,-1.0,-1.0,2.0,0.0,-1.0,-1.0
1.6951622299285082e+18,1.0,2.0,-3.0,-2.0,-2.0,0.0,-1.0,-2.0
1.6951622299285082e+18,0.0,0.0,0.0,-2.0,0.0,-3.0,0.0,-1.0
1.6951622299285082e+18,-2.0,-2.0,0.0,1.0,0.0,0.0,-1.0,-1.0
1.6951622299554924e+18,-1.0,-1.0,-2.0,0.0,-3.0,0.0,-1.0,1.0
1.6951622299574925e+18,-1.0,-5.0,1.0,1.0,0.0,-1.0,-1.0,1.0
1.6951622299574925e+18,1.0,-5.0,1.0,1.0,1.0,0.0,0.0,0.0
1.695162229958498e+18,-1.0,-1.0,-2.0,-1.0,-1.0,0.0,-2.0,1.0
1.6951622299805033e+18,0.0,1.0,-3.0,-4.0,-3.0,-3.0,0.0,-1.0
1.695162229981483e+18,-1.0,-1.0,0.0,0.0,0.0,-1.0,-1.0,-2.0
1.695162229981483e+18,-1.0,-3.0,-1.0,0.0,-1.0,0.0,-1.0,0.0
1.695162229981483e+18,-2.0,-3.0,1.0,3.0,0.0,1.0,-3.0,-1.0
1.6951622299954944e+18,2.0,3.0,-3.0,-3.0,-4.0,-3.0,-4.0,0.0
1.6951622299964692e+18,-5.0,-8.0,5.0,2.0,2.0,3.0,1.0,0.0
1.6951622299964692e+18,1.0,4.0,-3.0,-4.0,-2.0,-1.0,0.0,-1.0
1.6951622299964692e+18,0.0,0.0,-1.0,-1.0,-1.0,-1.0,-1.0,-2.0
1.6951622300104617e+18,1.0,2.0,1.0,-2.0,-1.0,-2.0,-2.0,1.0
1.6951622300104617e+18,0.0,3.0,-3.0,-4.0,-2.0,0.0,-2.0,0.0
1.6951622300104617e+18,-1.0,-1.0,-3.0,0.0,2.0,0.0,-1.0,-1.0
1.6951622300114609e+18,-5.0,-11.0,6.0,2.0,1.0,3.0,1.0,-2.0
1.6951622300334492e+18,0.0,1.0,-2.0,-2.0,-2.0,0.0,0.0,0.0
1.6951622300354514e+18,1.0,1.0,-2.0,0.0,-1.0,-1.0,0.0,-1.0
1.6951622300354514e+18,-2.0,-2.0,1.0,1.0,0.0,-1.0,2.0,-1.0
1.6951622300364475e+18,1.0,4.0,-4.0,-4.0,-2.0,-2.0,-1.0,0.0
1.6951622300564342e+18,0.0,-5.0,2.0,1.0,1.0,1.0,0.0,-2.0
1.695162230057435e+18,-3.0,-7.0,2.0,5.0,0.0,0.0,0.0,-2.0
1.695162230057435e+18,0.0,1.0,0.0,-2.0,-3.0,-1.0,0.0,-1.0
1.695162230057435e+18,0.0,6.0,-1.0,-1.0,-1.0,-2.0,-1.0,-1.0
1.695162230070427e+18,-2.0,-1.0,-1.0,-2.0,1.0,0.0,0.0,-2.0
1.695162230070427e+18,-2.0,0.0,-3.0,0.0,1.0,1.0,-1.0,-1.0
1.695162230070427e+18,-4.0,-5.0,0.0,1.0,2.0,1.0,1.0,-2.0
1.6951622300714273e+18,0.0,0.0,0.0,0.0,0.0,0.0,-2.0,-1.0
1.6951622300934144e+18,-2.0,-2.0,1.0,1.0,-1.0,0.0,0.0,0.0
1.6951622300944133e+18,1.0,4.0,-4.0,-4.0,-3.0,-5.0,-2.0,0.0
1.695162230095413e+18,0.0,2.0,-4.0,-5.0,-3.0,-1.0,-2.0,-1.0
1.695162230095413e+18,-1.0,2.0,-3.0,-3.0,0.0,-2.0,-2.0,-1.0
1.695162230115406e+18,1.0,1.0,-2.0,0.0,-1.0,0.0,1.0,-1.0
1.695162230116401e+18,2.0,0.0,-2.0,-2.0,-2.0,0.0,-3.0,1.0
1.6951622301173998e+18,-2.0,-1.0,-1.0,1.0,0.0,0.0,-1.0,0.0
1.6951622301173998e+18,-1.0,-1.0,0.0,-2.0,-2.0,-1.0,0.0,-1.0
1.6951622301373865e+18,-2.0,-3.0,1.0,2.0,1.0,-1.0,-1.0,-2.0
1.695162230138398e+18,-3.0,-1.0,-1.0,-1.0,-1.0,-2.0,-1.0,-1.0
1.695162230138398e+18,0.0,-5.0,3.0,1.0,1.0,0.0,0.0,2.0
1.695162230138398e+18,-1.0,-4.0,1.0,0.0,1.0,0.0,-1.0,-1.0
1.695162230153378e+18,-1.0,-3.0,0.0,0.0,0.0,-1.0,0.0,0.0
1.695162230153378e+18,1.0,0.0,0.0,-2.0,-1.0,-1.0,0.0,-2.0
1.695162230153378e+18,-1.0,1.0,-1.0,-1.0,-2.0,-1.0,-2.0,-2.0
1.6951622301543793e+18,0.0,0.0,-1.0,1.0,-1.0,-1.0,0.0,-2.0
1.6951622301674127e+18,0.0,0.0,-1.0,-3.0,0.0,0.0,-2.0,-1.0
1.6951622301674127e+18,1.0,-2.0,-2.0,-2.0,-1.0,-1.0,1.0,-1.0
1.6951622301684165e+18,1.0,1.0,-3.0,-3.0,-2.0,-1.0,-2.0,-2.0
1.6951622301684165e+18,-1.0,-5.0,4.0,1.0,0.0,1.0,1.0,2.0
1.695162230189756e+18,-3.0,-2.0,-1.0,-1.0,-2.0,-2.0,-2.0,-1.0
1.695162230190755e+18,-1.0,2.0,-2.0,-1.0,-3.0,0.0,2.0,-1.0
1.695162230190755e+18,1.0,-1.0,-1.0,-1.0,-1.0,-1.0,0.0,-1.0
1.695162230190755e+18,-4.0,-5.0,0.0,3.0,3.0,1.0,-1.0,-1.0
1.6951622302205458e+18,-4.0,-3.0,3.0,1.0,1.0,0.0,-1.0,-1.0
1.6951622302205458e+18,0.0,2.0,-1.0,-2.0,-2.0,0.0,-2.0,0.0
1.6951622302215421e+18,-1.0,3.0,-2.0,-2.0,-2.0,-2.0,0.0,0.0
1.6951622302215421e+18,1.0,3.0,-5.0,-3.0,-5.0,-2.0,-2.0,-2.0
1.6951622302265626e+18,0.0,-2.0,-2.0,-3.0,-1.0,-2.0,0.0,-2.0
1.6951622302265626e+18,0.0,1.0,-3.0,-3.0,-2.0,-1.0,-2.0,-1.0
1.6951622302345574e+18,0.0,0.0,0.0,0.0,0.0,-2.0,0.0,0.0
1.6951622302355574e+18,1.0,2.0,-3.0,-2.0,-1.0,-2.0,-1.0,0.0
1.6951622302582707e+18,-1.0,4.0,-2.0,0.0,0.0,-1.0,-1.0,-1.0
1.6951622302582707e+18,-2.0,0.0,-1.0,-1.0,-1.0,0.0,-1.0,0.0
1.6951622302592686e+18,-1.0,1.0,-4.0,-2.0,-3.0,-1.0,-1.0,-2.0
1.6951622302592686e+18,-6.0,-5.0,3.0,2.0,2.0,3.0,0.0,-2.0
1.6951622302755548e+18,0.0,-3.0,-1.0,-2.0,-2.0,-1.0,3.0,-3.0
1.6951622302755548e+18,-1.0,-2.0,1.0,1.0,0.0,1.0,-1.0,1.0
1.695162230276584e+18,-1.0,-2.0,-1.0,0.0,0.0,1.0,-2.0,-1.0
1.695162230276584e+18,2.0,3.0,-3.0,-2.0,-3.0,-2.0,0.0,0.0
1.695162230295579e+18,1.0,1.0,0.0,-2.0,-2.0,-2.0,-3.0,1.0
1.695162230295579e+18,-3.0,2.0,-4.0,-1.0,4.0,1.0,0.0,-4.0
1.6951622302965875e+18,-1.0,0.0,0.0,0.0,0.0,-1.0,-1.0,-1.0
1.6951622302965875e+18,-1.0,2.0,-2.0,-1.0,-3.0,-1.0,-2.0,0.0
1.6951622303185416e+18,-2.0,-2.0,0.0,1.0,1.0,2.0,1.0,-1.0
1.6951622303185416e+18,2.0,1.0,0.0,-3.0,-2.0,-2.0,-1.0,-1.0
1.6951622303195474e+18,1.0,0.0,-1.0,-2.0,-3.0,-1.0,-1.0,0.0
1.6951622303195474e+18,-3.0,-2.0,-4.0,-1.0,0.0,-1.0,-3.0,-1.0
1.6951622303335158e+18,2.0,-2.0,4.0,-2.0,0.0,-1.0,-1.0,2.0
1.6951622303345167e+18,-1.0,-3.0,0.0,0.0,-1.0,0.0,0.0,0.0
1.6951622303345167e+18,0.0,-1.0,-3.0,-3.0,-4.0,-1.0,1.0,0.0
1.6951622303345167e+18,-2.0,-1.0,-3.0,-2.0,0.0,-1.0,0.0,-1.0
1.695162230347466e+18,-2.0,-3.0,-2.0,1.0,-3.0,0.0,0.0,-1.0
1.695162230347466e+18,0.0,0.0,1.0,-2.0,-1.0,-2.0,-1.0,-1.0
1.6951622303754463e+18,-2.0,-6.0,3.0,-1.0,2.0,0.0,-2.0,0.0
1.6951622303754463e+18,3.0,2.0,0.0,-2.0,-2.0,-1.0,-1.0,0.0
1.695162230376445e+18,1.0,5.0,-5.0,-1.0,-1.0,-2.0,-2.0,0.0
1.695162230376445e+18,1.0,-1.0,-2.0,-1.0,-3.0,-1.0,-2.0,2.0
1.695162230376445e+18,-1.0,0.0,-2.0,-1.0,1.0,-1.0,1.0,-2.0
1.695162230377448e+18,1.0,-2.0,-1.0,-3.0,-2.0,0.0,-2.0,0.0
1.6951622303964342e+18,-5.0,-3.0,-1.0,1.0,3.0,3.0,0.0,-3.0
1.6951622303974395e+18,0.0,-1.0,-1.0,-1.0,-2.0,-1.0,-1.0,-2.0
1.6951622303974395e+18,-2.0,-1.0,0.0,0.0,-1.0,-1.0,-2.0,-2.0
1.6951622303984356e+18,-2.0,9.0,-7.0,-2.0,-1.0,-1.0,0.0,0.0
1.6951622304074263e+18,2.0,-1.0,0.0,-1.0,-1.0,0.0,-3.0,1.0
1.6951622304084262e+18,-1.0,-1.0,1.0,0.0,-1.0,-3.0,0.0,-1.0
1.6951622304284155e+18,-3.0,-1.0,0.0,1.0,-1.0,2.0,-1.0,-1.0
1.6951622304344113e+18,0.0,1.0,1.0,-1.0,0.0,-1.0,1.0,1.0
1.6951622304354104e+18,-2.0,-2.0,-3.0,-1.0,-4.0,-2.0,-1.0,0.0
1.6951622304354104e+18,-2.0,-3.0,-1.0,0.0,1.0,-1.0,0.0,-1.0
1.6951622304364104e+18,1.0,1.0,0.0,-1.0,0.0,-1.0,-2.0,1.0
1.6951622304364104e+18,5.0,6.0,-3.0,-4.0,-5.0,-5.0,-2.0,-1.0
1.6951622304534e+18,-1.0,-1.0,1.0,-1.0,-1.0,-3.0,-1.0,1.0
1.6951622304534e+18,-1.0,-3.0,2.0,-1.0,-1.0,0.0,0.0,0.0
1.6951622304534e+18,-2.0,1.0,-2.0,0.0,-1.0,-2.0,-2.0,0.0
1.6951622304534e+18,2.0,2.0,-2.0,-1.0,-2.0,-1.0,-2.0,-2.0
1.695162230476898e+18,1.0,1.0,0.0,0.0,-2.0,0.0,0.0,-1.0
1.695162230476898e+18,0.0,0.0,-2.0,-1.0,-1.0,0.0,-1.0,0.0
1.695162230477915e+18,-2.0,-4.0,2.0,0.0,-1.0,1.0,0.0,1.0
1.695162230477915e+18,-1.0,-5.0,4.0,0.0,0.0,0.0,0.0,-1.0
1.6951622304986383e+18,0.0,0.0,-3.0,-3.0,2.0,-1.0,0.0,-1.0
1.6951622304986383e+18,-1.0,-2.0,0.0,1.0,-1.0,0.0,1.0,-1.0
1.6951622304986383e+18,-3.0,0.0,-1.0,2.0,2.0,0.0,-2.0,-2.0
1.6951622304986383e+18,-2.0,-6.0,1.0,-1.0,1.0,0.0,-2.0,-2.0
1.6951622305135634e+18,-1.0,-1.0,0.0,-1.0,-1.0,-1.0,-1.0,-1.0
1.6951622305135634e+18,0.0,0.0,0.0,-2.0,0.0,-1.0,-2.0,-1.0
1.6951622305135634e+18,0.0,-5.0,-1.0,-1.0,0.0,-1.0,1.0,0.0
1.6951622305135634e+18,-1.0,-5.0,2.0,-1.0,-1.0,0.0,0.0,-2.0
1.6951622305360622e+18,-1.0,-2.0,-1.0,0.0,0.0,0.0,-3.0,-3.0
1.6951622305360622e+18,0.0,-2.0,1.0,-1.0,-2.0,-2.0,-2.0,-1.0
1.6951622305360622e+18,0.0,0.0,-4.0,-1.0,-3.0,-3.0,-1.0,-3.0
1.6951622305360622e+18,-3.0,-5.0,-2.0,0.0,-1.0,-1.0,-2.0,1.0
1.695162230558052e+18,0.0,0.0,-3.0,-3.0,-2.0,0.0,0.0,-2.0
1.695162230558052e+18,-2.0,3.0,-4.0,-2.0,-2.0,-2.0,-4.0,-3.0
1.6951622305590487e+18,-1.0,-3.0,-1.0,0.0,0.0,-1.0,-1.0,-2.0
1.6951622305590487e+18,-2.0,-3.0,-2.0,-1.0,2.0,0.0,0.0,-2.0
1.6951622305730417e+18,-3.0,5.0,-6.0,1.0,-1.0,-1.0,-2.0,0.0
1.6951622305730417e+18,0.0,4.0,-5.0,-3.0,-4.0,-1.0,-2.0,-1.0
1.6951622305740431e+18,0.0,1.0,-1.0,-1.0,0.0,0.0,-1.0,-1.0
1.6951622305740431e+18,-3.0,-2.0,-2.0,0.0,-2.0,-1.0,-2.0,-2.0
1.6951622305960287e+18,-2.0,-3.0,-1.0,-2.0,-4.0,1.0,0.0,0.0
1.6951622305960287e+18,-1.0,-3.0,0.0,0.0,-2.0,-2.0,0.0,1.0
1.6951622305960287e+18,0.0,0.0,-2.0,0.0,-2.0,-1.0,-1.0,-1.0
1.6951622305960287e+18,0.0,-1.0,-2.0,0.0,-1.0,-1.0,-1.0,-2.0
1.6951622306100216e+18,0.0,-3.0,1.0,1.0,1.0,-2.0,-3.0,-1.0
1.6951622306100216e+18,-2.0,-4.0,-1.0,-1.0,0.0,1.0,-1.0,-2.0
1.6951622306110193e+18,0.0,-1.0,-1.0,-2.0,-1.0,-2.0,-2.0,0.0
1.6951622306110193e+18,-1.0,-2.0,1.0,-1.0,0.0,-1.0,-3.0,-1.0
1.6951622306330086e+18,0.0,-2.0,0.0,-1.0,1.0,0.0,-1.0,-1.0
1.6951622306330086e+18,-2.0,-3.0,0.0,0.0,1.0,-1.0,-1.0,-2.0
1.695162230634008e+18,-1.0,-2.0,-3.0,-2.0,0.0,0.0,0.0,-1.0
1.695162230634008e+18,-2.0,-1.0,1.0,1.0,1.0,0.0,-1.0,-1.0
1.6951622306719844e+18,-1.0,-3.0,-1.0,0.0,-1.0,-2.0,0.0,-1.0
1.6951622306719844e+18,-1.0,-2.0,-1.0,-1.0,-3.0,-4.0,-1.0,-1.0
1.6951622306729892e+18,0.0,-1.0,-1.0,-2.0,-5.0,0.0,-1.0,1.0
1.6951622306729892e+18,-1.0,-1.0,-1.0,-1.0,2.0,3.0,2.0,0.0
1.6951622306749865e+18,-2.0,-3.0,0.0,0.0,2.0,1.0,0.0,-2.0
1.6951622306749865e+18,-3.0,-3.0,-1.0,-1.0,-1.0,-4.0,-1.0,0.0
1.6951622306769812e+18,-2.0,-1.0,-2.0,3.0,4.0,2.0,3.0,0.0
1.6951622306779843e+18,0.0,0.0,3.0,1.0,1.0,2.0,3.0,2.0
1.695162230692974e+18,1.0,-3.0,-7.0,-2.0,2.0,1.0,1.0,2.0
1.695162230692974e+18,0.0,-1.0,1.0,-2.0,-1.0,0.0,-1.0,-2.0
1.695162230693972e+18,-1.0,-1.0,-1.0,-3.0,-5.0,-4.0,-2.0,-2.0
1.695162230693972e+18,-1.0,1.0,3.0,0.0,-1.0,0.0,0.0,0.0
1.695162230722956e+18,0.0,1.0,2.0,6.0,7.0,-7.0,-1.0,-1.0
1.6951622307239547e+18,1.0,1.0,-1.0,3.0,4.0,10.0,4.0,4.0
1.6951622307239547e+18,-1.0,-1.0,-3.0,-5.0,5.0,0.0,0.0,-2.0
1.6951622307249554e+18,-1.0,-4.0,-2.0,-4.0,-23.0,-13.0,-6.0,-2.0
1.6951622307299502e+18,-1.0,1.0,-1.0,-12.0,-5.0,6.0,0.0,-2.0
1.6951622307299502e+18,0.0,0.0,-2.0,4.0,-7.0,-1.0,-2.0,0.0
1.6951622307309522e+18,-1.0,-2.0,4.0,14.0,17.0,1.0,-1.0,1.0
1.6951622307309522e+18,0.0,0.0,2.0,-1.0,-5.0,0.0,-2.0,-2.0
1.6951622307525435e+18,-3.0,-1.0,-7.0,-14.0,-9.0,-6.0,-4.0,-1.0
1.6951622307525435e+18,-1.0,0.0,6.0,-2.0,-7.0,-3.0,-2.0,-2.0
1.6951622307599293e+18,0.0,0.0,-3.0,-3.0,2.0,2.0,1.0,0.0
1.6951622307599293e+18,0.0,-2.0,-2.0,-1.0,1.0,-5.0,0.0,0.0
1.6951622307760092e+18,-1.0,-2.0,-2.0,-2.0,-2.0,-2.0,-2.0,0.0
1.6951622307760092e+18,-1.0,0.0,-4.0,-1.0,5.0,2.0,1.0,1.0
1.6951622307770094e+18,-1.0,0.0,-3.0,-5.0,-9.0,-6.0,-7.0,-2.0
1.6951622307770094e+18,-2.0,0.0,-1.0,5.0,8.0,3.0,3.0,-1.0
1.6951622307925788e+18,3.0,0.0,3.0,5.0,3.0,3.0,2.0,0.0
1.6951622307925788e+18,-1.0,-3.0,-5.0,-9.0,-2.0,-13.0,-4.0,-3.0
1.6951622307925788e+18,0.0,1.0,-2.0,-4.0,-8.0,-4.0,-3.0,-2.0
1.6951622307955692e+18,-1.0,-2.0,1.0,1.0,-5.0,-3.0,-1.0,0.0
1.695162230812555e+18,0.0,0.0,2.0,6.0,11.0,17.0,3.0,0.0
1.695162230812555e+18,0.0,1.0,4.0,6.0,-1.0,1.0,2.0,1.0
1.695162230812555e+18,0.0,0.0,-4.0,-6.0,-6.0,-2.0,13.0,2.0
1.6951622308135524e+18,-1.0,-2.0,-8.0,-6.0,15.0,12.0,-1.0,-2.0
1.6951622308355638e+18,-4.0,-4.0,0.0,1.0,-7.0,-16.0,-18.0,-7.0
1.6951622308355638e+18,2.0,2.0,6.0,9.0,1.0,3.0,6.0,-3.0
1.695162230836539e+18,-3.0,-3.0,-1.0,1.0,6.0,-2.0,1.0,2.0
1.695162230836539e+18,-2.0,-4.0,-6.0,-12.0,-10.0,-5.0,-5.0,2.0
1.695162230850535e+18,1.0,-4.0,-5.0,-9.0,-9.0,-10.0,7.0,-2.0
1.695162230850535e+18,-2.0,-1.0,-7.0,-9.0,-4.0,2.0,-17.0,0.0
1.695162230850535e+18,-1.0,0.0,4.0,6.0,-13.0,-10.0,10.0,0.0
1.695162230850535e+18,-2.0,-4.0,-3.0,-3.0,-2.0,-4.0,-12.0,-1.0
1.6951622308735186e+18,-1.0,1.0,4.0,7.0,25.0,27.0,0.0,2.0
1.695162230874523e+18,1.0,0.0,3.0,9.0,17.0,5.0,9.0,3.0
1.695162230879538e+18,-3.0,-5.0,-11.0,-18.0,-9.0,-3.0,-6.0,-3.0
1.695162230880514e+18,0.0,1.0,-1.0,-1.0,-14.0,-12.0,-5.0,-3.0
1.6951622308945295e+18,0.0,2.0,8.0,14.0,-12.0,-4.0,-7.0,-7.0
1.6951622308945295e+18,-4.0,-7.0,-11.0,-13.0,-2.0,-10.0,1.0,-3.0
1.6951622309055e+18,0.0,-1.0,-8.0,-4.0,10.0,1.0,-18.0,-2.0
1.6951622309064996e+18,1.0,2.0,-2.0,7.0,-7.0,6.0,28.0,7.0
1.6951622309114993e+18,-2.0,0.0,4.0,-15.0,-13.0,-13.0,-8.0,-4.0
1.6951622309114993e+18,-2.0,-1.0,5.0,11.0,5.0,2.0,-25.0,-7.0
1.695162230912496e+18,2.0,3.0,-2.0,-6.0,-3.0,-2.0,4.0,3.0
1.695162230912496e+18,-1.0,-7.0,-7.0,-4.0,-1.0,-8.0,-5.0,-5.0
1.695162230932484e+18,2.0,-1.0,-4.0,1.0,6.0,6.0,0.0,3.0
1.695162230932484e+18,-2.0,1.0,4.0,1.0,-1.0,-2.0,2.0,-2.0
1.695162230933486e+18,-1.0,0.0,8.0,12.0,3.0,0.0,35.0,6.0
1.695162230933486e+18,2.0,2.0,0.0,2.0,25.0,48.0,21.0,10.0
1.6951622309634685e+18,-3.0,-6.0,-1.0,-5.0,-5.0,4.0,0.0,-2.0
1.6951622309634685e+18,-2.0,-5.0,-13.0,-12.0,-14.0,-21.0,-5.0,-5.0
1.6951622309644667e+18,0.0,-1.0,8.0,5.0,1.0,-1.0,-28.0,-4.0
1.6951622309644667e+18,-1.0,3.0,2.0,19.0,0.0,-24.0,-6.0,-2.0
1.695162230969463e+18,1.0,3.0,-3.0,-8.0,-8.0,5.0,13.0,4.0
1.695162230969463e+18,1.0,-1.0,-7.0,-11.0,-15.0,1.0,-6.0,-2.0
1.6951622309784579e+18,-2.0,-2.0,-2.0,-4.0,5.0,-6.0,-26.0,-8.0
1.6951622309784579e+18,3.0,2.0,8.0,-1.0,-1.0,-1.0,-7.0,-1.0
1.6951622310004447e+18,-1.0,-2.0,-2.0,11.0,15.0,6.0,5.0,0.0
1.6951622310014446e+18,-1.0,3.0,3.0,4.0,-11.0,1.0,6.0,1.0
1.6951622310014446e+18,-1.0,-5.0,-6.0,-19.0,-3.0,-15.0,-13.0,-6.0
1.6951622310014446e+18,-1.0,-1.0,0.0,12.0,17.0,14.0,-1.0,1.0
1.6951622310154378e+18,1.0,3.0,4.0,-5.0,-14.0,-14.0,9.0,0.0
1.6951622310154378e+18,0.0,-4.0,-6.0,-2.0,5.0,5.0,9.0,2.0
1.6951622310164362e+18,0.0,4.0,5.0,6.0,-8.0,7.0,3.0,-2.0
1.6951622310164362e+18,-2.0,-3.0,-18.0,-30.0,-9.0,-10.0,-6.0,-3.0
1.6951622310384233e+18,-1.0,2.0,7.0,10.0,21.0,-1.0,-9.0,0.0
1.6951622310384233e+18,-3.0,-3.0,-2.0,-6.0,-13.0,-3.0,0.0,3.0
1.6951622310384233e+18,0.0,1.0,-5.0,-1.0,22.0,9.0,9.0,2.0
1.695162231039424e+18,2.0,5.0,16.0,21.0,7.0,0.0,-14.0,-4.0
1.6951622310524152e+18,-2.0,0.0,0.0,0.0,-15.0,-8.0,6.0,4.0
1.6951622310524152e+18,0.0,2.0,0.0,1.0,6.0,19.0,24.0,7.0
1.6951622310534162e+18,-2.0,-5.0,3.0,14.0,8.0,-2.0,-23.0,-6.0
1.6951622310534162e+18,3.0,1.0,-4.0,-8.0,-5.0,30.0,67.0,15.0
1.6951622311343713e+18,-2.0,-3.0,-5.0,0.0,-4.0,-6.0,16.0,-1.0
1.6951622311343713e+18,0.0,1.0,3.0,-1.0,7.0,4.0,4.0,-6.0
1.695162231135371e+18,0.0,4.0,3.0,-1.0,-5.0,4.0,9.0,8.0
1.695162231135371e+18,-2.0,-2.0,-2.0,-9.0,-11.0,-18.0,-23.0,-8.0
1.695162231135371e+18,1.0,-1.0,5.0,7.0,-3.0,1.0,-8.0,1.0
1.695162231135371e+18,1.0,-1.0,-16.0,-15.0,-1.0,-3.0,-4.0,-1.0
1.6951622311523584e+18,0.0,11.0,5.0,1.0,-29.0,-7.0,-1.0,-5.0
1.6951622311523584e+18,-4.0,-6.0,-1.0,-8.0,25.0,-12.0,-17.0,-7.0
1.695162231153358e+18,4.0,5.0,1.0,-9.0,-11.0,5.0,27.0,8.0
1.695162231153358e+18,-1.0,5.0,0.0,6.0,19.0,-4.0,-27.0,-10.0
1.695162231154357e+18,2.0,-9.0,7.0,2.0,12.0,34.0,51.0,18.0
1.695162231154357e+18,-2.0,-2.0,-3.0,3.0,-12.0,-10.0,26.0,2.0
1.6951622311583575e+18,-1.0,-9.0,-3.0,-3.0,4.0,-8.0,-19.0,-7.0
1.6951622311583575e+18,5.0,10.0,-2.0,-12.0,-5.0,5.0,2.0,6.0
1.695162231172347e+18,-4.0,-5.0,-3.0,17.0,0.0,0.0,-1.0,-1.0
1.695162231173352e+18,-2.0,7.0,-13.0,-24.0,-10.0,-4.0,-15.0,-7.0
1.695162231173352e+18,0.0,-3.0,-11.0,-4.0,9.0,-12.0,-9.0,-2.0
1.695162231173352e+18,-3.0,3.0,18.0,21.0,-10.0,-11.0,-2.0,-7.0
1.695162231173352e+18,-1.0,0.0,-12.0,-18.0,2.0,-3.0,-9.0,-1.0
1.695162231173352e+18,-3.0,13.0,2.0,4.0,-16.0,-1.0,3.0,-3.0
1.6951622312113242e+18,1.0,7.0,-12.0,-3.0,3.0,-3.0,-11.0,-4.0
1.6951622312113242e+18,-2.0,-7.0,-5.0,-24.0,-12.0,0.0,3.0,2.0
1.6951622312113242e+18,-6.0,-11.0,-2.0,18.0,12.0,3.0,-3.0,-3.0
1.695162231212324e+18,1.0,3.0,4.0,-3.0,-10.0,-17.0,-6.0,-4.0
1.6951622312183206e+18,-3.0,-1.0,5.0,5.0,2.0,2.0,-9.0,0.0
1.6951622312183206e+18,-1.0,-18.0,-12.0,-24.0,3.0,11.0,15.0,9.0
1.6951622312183206e+18,3.0,4.0,-8.0,-11.0,-1.0,-4.0,-2.0,-3.0
1.6951622312183206e+18,-1.0,-6.0,4.0,-2.0,-4.0,-2.0,-12.0,-5.0
1.6951622312323123e+18,-3.0,0.0,8.0,12.0,8.0,8.0,10.0,0.0
1.6951622312323123e+18,0.0,1.0,1.0,-4.0,-6.0,-9.0,-20.0,-10.0
1.6951622312433298e+18,3.0,-20.0,1.0,-6.0,-4.0,15.0,8.0,16.0
1.6951622312433298e+18,-3.0,-1.0,-2.0,2.0,8.0,5.0,-10.0,-2.0
1.6951622312562995e+18,-2.0,-5.0,-5.0,-12.0,-13.0,-12.0,-4.0,-4.0
1.6951622312562995e+18,-1.0,3.0,2.0,9.0,1.0,0.0,22.0,2.0
1.6951622312562995e+18,-2.0,15.0,3.0,-7.0,-5.0,-4.0,-27.0,-8.0
1.6951622312572982e+18,3.0,-2.0,7.0,10.0,12.0,11.0,23.0,3.0
1.695162231282285e+18,-3.0,-2.0,1.0,0.0,-8.0,-15.0,-49.0,-10.0
1.6951622312832855e+18,-3.0,10.0,-13.0,-11.0,-8.0,-7.0,-22.0,0.0
1.6951622312832855e+18,0.0,-5.0,9.0,8.0,2.0,2.0,28.0,-3.0
1.6951622312832855e+18,-2.0,-2.0,2.0,2.0,1.0,2.0,-11.0,0.0
1.695162231292302e+18,2.0,2.0,-5.0,-5.0,-7.0,20.0,34.0,13.0
1.695162231292302e+18,1.0,1.0,3.0,12.0,8.0,-12.0,-8.0,-5.0
1.6951622312932774e+18,-2.0,0.0,1.0,-5.0,-5.0,2.0,-2.0,3.0
1.6951622312932774e+18,-2.0,-10.0,0.0,2.0,3.0,-2.0,-13.0,-10.0
1.695162231321265e+18,1.0,4.0,4.0,9.0,4.0,4.0,32.0,0.0
1.695162231322267e+18,-1.0,-2.0,-4.0,-7.0,-7.0,0.0,1.0,0.0
1.695162231322267e+18,3.0,5.0,-1.0,-4.0,-8.0,-9.0,-11.0,-4.0
1.695162231323264e+18,-3.0,2.0,-12.0,-9.0,-3.0,-1.0,8.0,-2.0
1.6951622313462497e+18,-4.0,-8.0,1.0,8.0,4.0,-3.0,-12.0,-3.0
1.6951622313472502e+18,-4.0,1.0,-3.0,2.0,4.0,-1.0,4.0,-3.0
1.6951622313472502e+18,-2.0,-20.0,5.0,1.0,-3.0,0.0,14.0,1.0
1.6951622313472502e+18,3.0,-21.0,8.0,5.0,-1.0,-2.0,-2.0,0.0
1.6951622313572416e+18,0.0,5.0,2.0,-5.0,-4.0,-35.0,-31.0,-29.0
1.6951622313572416e+18,3.0,-6.0,0.0,-1.0,3.0,31.0,50.0,8.0
1.6951622313572416e+18,3.0,10.0,1.0,3.0,9.0,27.0,45.0,17.0
1.6951622313582403e+18,0.0,7.0,5.0,12.0,10.0,9.0,10.0,7.0
1.6951622314072123e+18,-3.0,-7.0,-1.0,-8.0,-3.0,-2.0,7.0,-5.0
1.6951622314072123e+18,-3.0,-4.0,-2.0,-3.0,-8.0,-17.0,-20.0,-10.0
1.6951622314072123e+18,-2.0,3.0,2.0,-2.0,-8.0,-13.0,-21.0,-10.0
1.6951622314082176e+18,2.0,28.0,-12.0,-13.0,-8.0,3.0,18.0,2.0
1.6951622314092344e+18,-2.0,-4.0,10.0,18.0,11.0,14.0,2.0,8.0
1.6951622314092344e+18,-2.0,0.0,2.0,-5.0,-13.0,-14.0,-28.0,-6.0
1.695162231413227e+18,1.0,6.0,0.0,10.0,-1.0,-2.0,-6.0,-3.0
1.6951622314142088e+18,-3.0,0.0,-1.0,-2.0,7.0,-3.0,-12.0,-7.0
1.6951622314152074e+18,-1.0,8.0,-8.0,-7.0,-7.0,-27.0,-10.0,-14.0
1.6951622314152074e+18,1.0,-16.0,8.0,2.0,4.0,17.0,4.0,9.0
1.6951622314322007e+18,-2.0,5.0,0.0,5.0,-9.0,-8.0,-1.0,-6.0
1.6951622314322007e+18,-2.0,-17.0,0.0,-1.0,4.0,-7.0,-6.0,-4.0
1.6951622314422036e+18,2.0,5.0,12.0,15.0,-1.0,15.0,19.0,5.0
1.6951622314422036e+18,-4.0,-5.0,-14.0,-16.0,-7.0,-21.0,-41.0,-8.0
1.6951622314671803e+18,0.0,-3.0,-2.0,1.0,6.0,3.0,35.0,12.0
1.6951622314671803e+18,-1.0,-1.0,4.0,1.0,-3.0,1.0,3.0,-3.0
1.6951622314681784e+18,-3.0,-5.0,-21.0,-22.0,1.0,4.0,-12.0,1.0
1.695162231469179e+18,4.0,7.0,13.0,15.0,-3.0,-16.0,-36.0,-5.0
1.695162231469179e+18,-1.0,4.0,7.0,4.0,-2.0,-18.0,-21.0,-1.0
1.695162231469179e+18,-3.0,-4.0,5.0,-1.0,6.0,18.0,31.0,19.0
1.6951622315194038e+18,4.0,6.0,10.0,14.0,8.0,20.0,8.0,6.0
1.6951622315194038e+18,-8.0,-12.0,-68.0,-55.0,-11.0,-3.0,27.0,-18.0
1.695162231520422e+18,-2.0,-5.0,-12.0,-14.0,1.0,-5.0,-4.0,-2.0
1.695162231520422e+18,-2.0,0.0,5.0,8.0,-8.0,-8.0,-1.0,-8.0
1.6951622315214193e+18,-3.0,-1.0,12.0,5.0,-6.0,-3.0,-17.0,4.0
1.6951622315224174e+18,2.0,8.0,7.0,8.0,12.0,13.0,28.0,6.0
1.6951622315414513e+18,-2.0,-3.0,-3.0,-3.0,2.0,1.0,-3.0,-6.0
1.6951622315424517e+18,1.0,-6.0,9.0,11.0,2.0,5.0,8.0,10.0
1.6951622315514452e+18,-2.0,0.0,-9.0,-8.0,-5.0,-4.0,-22.0,-2.0
1.6951622315514452e+18,2.0,4.0,11.0,14.0,11.0,5.0,22.0,4.0
1.6951622315514452e+18,1.0,6.0,-5.0,-8.0,-3.0,-11.0,-23.0,-8.0
1.695162231552444e+18,4.0,1.0,10.0,11.0,7.0,36.0,64.0,27.0
1.695162231569654e+18,-6.0,-8.0,1.0,-3.0,-7.0,-28.0,-45.0,-32.0
1.695162231569654e+18,3.0,-3.0,-5.0,-2.0,-7.0,-5.0,12.0,20.0
1.6951622316010117e+18,2.0,7.0,-7.0,1.0,14.0,27.0,36.0,-1.0
1.6951622316010117e+18,-2.0,-6.0,1.0,-14.0,-7.0,-16.0,-43.0,-7.0
1.6951622316299945e+18,-2.0,2.0,-1.0,9.0,3.0,-15.0,-33.0,8.0
1.6951622316299945e+18,6.0,1.0,5.0,0.0,-2.0,-1.0,-8.0,4.0
1.6951622316845678e+18,-6.0,-6.0,-1.0,-10.0,-15.0,-26.0,-49.0,-2.0
1.6951622316845678e+18,1.0,1.0,8.0,19.0,10.0,6.0,-1.0,-1.0
1.6951622317205445e+18,-7.0,0.0,4.0,7.0,-1.0,3.0,0.0,-6.0
1.6951622317215485e+18,-2.0,-9.0,-18.0,-27.0,0.0,-9.0,-35.0,-9.0
1.6951622318171784e+18,-4.0,-17.0,-13.0,-2.0,-2.0,2.0,15.0,4.0
1.6951622318171784e+18,5.0,11.0,11.0,6.0,1.0,14.0,22.0,6.0
1.6951622318340242e+18,1.0,-6.0,0.0,-3.0,8.0,5.0,23.0,2.0
1.695162231834992e+18,1.0,6.0,-4.0,-4.0,-7.0,-11.0,-21.0,-5.0
1.695162231834992e+18,-2.0,-5.0,-2.0,1.0,0.0,-2.0,2.0,0.0
1.695162231834992e+18,-1.0,17.0,-11.0,-3.0,1.0,13.0,13.0,-9.0
1.6951622318359936e+18,-2.0,-18.0,0.0,3.0,-9.0,-1.0,1.0,1.0
1.6951622318359936e+18,-1.0,0.0,-12.0,-10.0,9.0,5.0,4.0,-1.0
1.6951622318368591e+18,-2.0,-15.0,4.0,-3.0,-4.0,3.0,5.0,6.0
1.6951622318368591e+18,2.0,6.0,-15.0,-17.0,-7.0,-8.0,1.0,-3.0
1.6951622318488663e+18,1.0,7.0,-4.0,0.0,1.0,-1.0,3.0,1.0
1.69516223184986e+18,-2.0,-19.0,-3.0,-4.0,3.0,1.0,5.0,4.0
1.69516223184986e+18,0.0,-3.0,-7.0,-14.0,-1.0,5.0,-5.0,2.0
1.6951622318508626e+18,-2.0,6.0,10.0,8.0,-3.0,-5.0,-6.0,-4.0
1.6951622318548598e+18,-1.0,-1.0,2.0,0.0,-2.0,-1.0,0.0,1.0
1.6951622318558623e+18,5.0,1.0,0.0,-1.0,-4.0,-4.0,-5.0,-5.0
1.6951622318908352e+18,-5.0,-1.0,-1.0,1.0,1.0,0.0,-1.0,0.0
1.6951622318998308e+18,2.0,0.0,-1.0,0.0,0.0,2.0,0.0,2.0
1.695162231925814e+18,3.0,3.0,-1.0,-2.0,-3.0,-2.0,-1.0,1.0
1.6951622319268142e+18,3.0,-1.0,1.0,-1.0,-1.0,-2.0,-2.0,-2.0
1.6951622319278195e+18,-7.0,-3.0,-3.0,-2.0,1.0,1.0,1.0,2.0
1.695162231928815e+18,3.0,-1.0,-1.0,-2.0,-3.0,-1.0,-3.0,0.0
1.695162231928815e+18,-1.0,0.0,2.0,5.0,4.0,2.0,2.0,0.0
1.695162231928815e+18,-1.0,-2.0,-1.0,-1.0,0.0,2.0,1.0,-2.0
1.6951622319388065e+18,-2.0,-1.0,-1.0,-2.0,0.0,1.0,-1.0,1.0
1.6951622319388065e+18,1.0,0.0,0.0,-1.0,0.0,-1.0,-1.0,-1.0
1.695162231939808e+18,1.0,1.0,1.0,0.0,-2.0,-3.0,-1.0,-2.0
1.6951622319408125e+18,-1.0,-1.0,0.0,-1.0,-2.0,-3.0,0.0,-2.0
1.6951622319637921e+18,0.0,-1.0,-1.0,0.0,-2.0,-1.0,-2.0,1.0
1.6951622319637921e+18,-1.0,-1.0,-1.0,-1.0,0.0,0.0,1.0,-2.0
1.6951622319647923e+18,-1.0,1.0,-2.0,-2.0,-3.0,-3.0,-3.0,0.0
1.69516223196879e+18,-1.0,-1.0,0.0,0.0,-1.0,0.0,1.0,0.0
1.695162231969789e+18,-2.0,-1.0,0.0,-1.0,-3.0,1.0,0.0,0.0
1.6951622319707901e+18,1.0,0.0,-2.0,1.0,0.0,-1.0,-1.0,0.0
1.6951622319707901e+18,0.0,0.0,-1.0,-3.0,-4.0,-2.0,0.0,-1.0
1.6951622319717883e+18,0.0,-1.0,-1.0,-2.0,-1.0,-1.0,-1.0,0.0
1.6951622319837814e+18,1.0,1.0,0.0,-1.0,1.0,-2.0,-1.0,-2.0
1.6951622319857795e+18,0.0,0.0,-2.0,-1.0,-1.0,-1.0,-2.0,-1.0
1.6951622319867817e+18,-1.0,-2.0,-2.0,-3.0,-1.0,-1.0,-1.0,0.0
1.6951622319867817e+18,-1.0,0.0,0.0,1.0,0.0,-2.0,-1.0,-2.0
1.6951622319987743e+18,-1.0,-2.0,-1.0,-1.0,5.0,3.0,1.0,1.0
1.6951622319987743e+18,0.0,0.0,0.0,-1.0,0.0,-1.0,1.0,0.0
1.6951622319987743e+18,-2.0,-1.0,0.0,-2.0,-1.0,1.0,1.0,0.0
1.695162231999771e+18,-1.0,-1.0,-2.0,-2.0,-5.0,-5.0,-3.0,-2.0
1.6951622320127636e+18,0.0,0.0,1.0,1.0,-1.0,1.0,-1.0,-1.0
1.6951622320127636e+18,-2.0,-1.0,-1.0,-1.0,2.0,-1.0,-2.0,0.0
1.6951622320337516e+18,-2.0,-1.0,0.0,1.0,3.0,-1.0,-2.0,-1.0
1.6951622320367493e+18,-2.0,-1.0,-1.0,1.0,-2.0,-1.0,-3.0,-1.0
1.6951622320387482e+18,-1.0,-1.0,0.0,1.0,2.0,-5.0,-3.0,-3.0
1.6951622320387482e+18,-1.0,-1.0,-1.0,-2.0,-2.0,-11.0,-4.0,-2.0
1.6951622320387482e+18,0.0,-1.0,-2.0,-2.0,2.0,6.0,1.0,0.0
1.695162232039755e+18,1.0,2.0,3.0,-2.0,1.0,13.0,6.0,2.0
1.6951622320587412e+18,-1.0,-7.0,-18.0,-2.0,-2.0,-2.0,-1.0,-1.0
1.6951622320587412e+18,-2.0,-3.0,4.0,0.0,-4.0,-2.0,-2.0,0.0
1.6951622320587412e+18,3.0,-2.0,-4.0,-1.0,-4.0,-8.0,-5.0,-4.0
1.6951622320597353e+18,-9.0,-2.0,2.0,1.0,1.0,-9.0,-2.0,-1.0
1.6951622320727293e+18,-3.0,2.0,3.0,0.0,4.0,14.0,5.0,2.0
1.6951622320727293e+18,12.0,2.0,-1.0,2.0,6.0,7.0,2.0,6.0
1.6951622320807242e+18,-17.0,-5.0,-2.0,-2.0,-4.0,-4.0,0.0,-2.0
1.6951622320807242e+18,7.0,2.0,-2.0,-3.0,-4.0,1.0,-1.0,-2.0
1.695162232094716e+18,-4.0,1.0,4.0,-2.0,-5.0,-11.0,-4.0,-3.0
1.695162232094716e+18,-4.0,-1.0,-4.0,-2.0,-5.0,-3.0,-1.0,-3.0
1.6951622321107123e+18,2.0,0.0,2.0,0.0,0.0,2.0,1.0,2.0
1.695162232116729e+18,0.0,-1.0,0.0,1.0,0.0,-1.0,-2.0,-1.0
1.6951622321257024e+18,-1.0,1.0,0.0,-1.0,0.0,-3.0,-2.0,-2.0
1.6951622321257024e+18,-2.0,0.0,1.0,-1.0,-1.0,3.0,1.0,-1.0
1.6951622321266977e+18,4.0,2.0,-1.0,-2.0,0.0,-2.0,1.0,2.0
1.6951622321266977e+18,-3.0,-1.0,-3.0,-1.0,2.0,-2.0,0.0,0.0
1.695162232131722e+18,3.0,1.0,2.0,0.0,2.0,0.0,1.0,0.0
1.6951622321327035e+18,-2.0,-1.0,-2.0,0.0,0.0,0.0,1.0,-1.0
1.6951622321406945e+18,-1.0,0.0,-1.0,1.0,-2.0,-1.0,-2.0,0.0
1.6951622321406945e+18,0.0,-1.0,-2.0,-1.0,-1.0,-1.0,-4.0,2.0
1.6951622321636772e+18,1.0,-1.0,2.0,-1.0,-3.0,0.0,-2.0,-1.0
1.695162232164684e+18,-1.0,-2.0,-2.0,-1.0,-1.0,-9.0,-1.0,-1.0
1.695162232164684e+18,-1.0,0.0,0.0,1.0,0.0,9.0,-1.0,-2.0
1.695162232165684e+18,2.0,-1.0,-1.0,0.0,2.0,3.0,2.0,0.0
1.6951622321926848e+18,1.0,-1.0,0.0,0.0,-5.0,-1.0,0.0,0.0
1.6951622321926848e+18,-3.0,-2.0,-3.0,1.0,2.0,1.0,-2.0,-3.0
1.6951622321936653e+18,1.0,1.0,0.0,-1.0,1.0,-2.0,0.0,-1.0
1.6951622321936653e+18,0.0,-2.0,0.0,-2.0,-3.0,-2.0,0.0,1.0
1.6951622321936653e+18,-2.0,0.0,-1.0,-1.0,-2.0,-2.0,0.0,-1.0
1.6951622321936653e+18,0.0,0.0,0.0,0.0,-5.0,-2.0,0.0,-1.0
1.695162232200657e+18,0.0,-1.0,0.0,-1.0,0.0,-2.0,1.0,1.0
1.695162232200657e+18,0.0,-1.0,-3.0,0.0,2.0,0.0,0.0,-1.0
1.6951622322146742e+18,-1.0,1.0,0.0,-2.0,-1.0,-1.0,-1.0,-1.0
1.695162232215647e+18,-1.0,0.0,0.0,-1.0,1.0,1.0,0.0,0.0
1.6951622322226483e+18,-2.0,-2.0,-1.0,-1.0,0.0,2.0,0.0,0.0
1.6951622322236462e+18,-2.0,-2.0,-1.0,-2.0,-2.0,-3.0,-1.0,-2.0
1.6951622322456292e+18,-1.0,-1.0,2.0,-1.0,-3.0,-3.0,-2.0,-1.0
1.6951622322466294e+18,-3.0,1.0,-1.0,-1.0,1.0,2.0,-1.0,-3.0
1.6951622322466294e+18,-1.0,-1.0,0.0,-2.0,0.0,-2.0,-1.0,0.0
1.695162232247629e+18,0.0,0.0,-3.0,-3.0,-3.0,-2.0,0.0,-1.0
1.695162232257629e+18,-1.0,-2.0,0.0,1.0,0.0,-1.0,-1.0,-2.0
1.6951622322676165e+18,1.0,1.0,0.0,0.0,-2.0,2.0,-1.0,0.0
1.6951622322676165e+18,-2.0,0.0,-2.0,0.0,-4.0,-5.0,0.0,-1.0
1.6951622322686177e+18,-2.0,-1.0,1.0,-1.0,1.0,-1.0,-1.0,-1.0
1.695162232277613e+18,0.0,0.0,1.0,2.0,1.0,-1.0,-2.0,1.0
1.6951622322786117e+18,-2.0,0.0,0.0,-2.0,-2.0,1.0,0.0,-1.0
1.6951622322916035e+18,0.0,0.0,-2.0,-1.0,0.0,-2.0,-1.0,-1.0
1.6951622322926031e+18,-1.0,-1.0,-1.0,1.0,-1.0,-1.0,-1.0,-2.0
1.6951622322985997e+18,0.0,0.0,0.0,-1.0,-1.0,1.0,-2.0,0.0
1.6951622322985997e+18,-1.0,-1.0,-1.0,-1.0,-1.0,-1.0,-1.0,-2.0
1.695162232299604e+18,-1.0,0.0,-1.0,0.0,-1.0,0.0,-1.0,-2.0
1.695162232299604e+18,-1.0,0.0,-1.0,0.0,-1.0,-4.0,-2.0,-1.0
1.695162232311596e+18,-2.0,-1.0,-2.0,0.0,-1.0,-1.0,-1.0,-1.0
1.6951622323126016e+18,-1.0,-1.0,-1.0,-1.0,1.0,1.0,-1.0,-1.0
1.6951622323205914e+18,0.0,-1.0,-1.0,-2.0,-1.0,0.0,0.0,-1.0
1.6951622323205914e+18,-1.0,1.0,0.0,-2.0,-1.0,0.0,-2.0,-3.0
1.6951622323345787e+18,-1.0,-1.0,-1.0,-2.0,-2.0,-2.0,-1.0,0.0
1.6951622323345787e+18,0.0,-1.0,1.0,-3.0,0.0,-1.0,0.0,-2.0
1.6951622323505736e+18,0.0,-1.0,0.0,-2.0,0.0,0.0,0.0,0.0
1.6951622323515942e+18,-1.0,-1.0,0.0,1.0,0.0,0.0,0.0,-1.0
1.6951622323655606e+18,1.0,0.0,-2.0,0.0,0.0,1.0,-2.0,-1.0
1.6951622323665603e+18,-1.0,-2.0,0.0,0.0,-1.0,0.0,-1.0,0.0
1.6951622323675594e+18,0.0,-1.0,-1.0,0.0,0.0,-2.0,-1.0,-1.0
1.6951622323675594e+18,-2.0,0.0,-1.0,1.0,-1.0,-1.0,0.0,0.0
1.6951622323715656e+18,-2.0,0.0,-1.0,-1.0,-2.0,0.0,-1.0,0.0
1.6951622323725576e+18,0.0,0.0,-3.0,-2.0,-2.0,-2.0,-2.0,-2.0
1.6951622323815565e+18,-2.0,0.0,1.0,-1.0,-1.0,-1.0,0.0,0.0
1.6951622323815565e+18,1.0,-1.0,-1.0,-1.0,0.0,0.0,-1.0,0.0
1.6951622324035425e+18,-2.0,0.0,-2.0,0.0,0.0,-1.0,-1.0,-2.0
1.6951622324035425e+18,-1.0,-1.0,-1.0,0.0,0.0,0.0,-1.0,0.0
1.6951622324045466e+18,-1.0,-2.0,-1.0,-1.0,0.0,-2.0,-1.0,-2.0
1.6951622324055388e+18,0.0,-1.0,-1.0,0.0,-1.0,0.0,-3.0,-3.0
1.6951622324225313e+18,0.0,0.0,0.0,-2.0,-1.0,-2.0,0.0,0.0
1.695162232428525e+18,-1.0,0.0,1.0,-1.0,-2.0,2.0,-2.0,0.0
1.695162232428525e+18,-1.0,0.0,0.0,0.0,-1.0,-1.0,-2.0,-2.0
1.6951622324345234e+18,-1.0,-1.0,-1.0,-2.0,-1.0,-1.0,-1.0,0.0
1.6951622324415196e+18,1.0,-1.0,-1.0,-1.0,0.0,1.0,-1.0,-1.0
1.6951622324415196e+18,-1.0,0.0,0.0,0.0,-1.0,-1.0,0.0,2.0
1.6951622324425165e+18,-1.0,1.0,-1.0,-1.0,0.0,-1.0,-2.0,-1.0
1.6951622324425165e+18,-1.0,0.0,0.0,-1.0,-4.0,-2.0,0.0,-1.0
1.6951622324635057e+18,0.0,0.0,0.0,1.0,1.0,0.0,1.0,-1.0
1.6951622324635057e+18,-1.0,-1.0,0.0,0.0,-1.0,0.0,0.0,-1.0
1.6951622324645046e+18,-1.0,-1.0,0.0,-1.0,-1.0,0.0,0.0,-2.0
1.6951622324655035e+18,0.0,-1.0,-1.0,0.0,0.0,-1.0,-1.0,1.0
1.6951622324784968e+18,1.0,-2.0,-2.0,-1.0,-2.0,-2.0,-1.0,-2.0
1.6951622324784968e+18,0.0,-1.0,-2.0,0.0,-2.0,-1.0,-1.0,-2.0
1.6951622324794967e+18,-1.0,0.0,-2.0,-1.0,0.0,-2.0,-1.0,-1.0
1.695162232480496e+18,-1.0,-2.0,-2.0,0.0,0.0,-2.0,0.0,-2.0
1.6951622325014833e+18,-1.0,-1.0,-1.0,-1.0,0.0,-3.0,-1.0,-1.0
1.6951622325014833e+18,1.0,-1.0,-3.0,0.0,0.0,1.0,-1.0,-2.0
1.695162232502502e+18,0.0,-1.0,0.0,1.0,-2.0,1.0,-1.0,1.0
1.695162232502502e+18,1.0,-1.0,-1.0,-1.0,-1.0,0.0,0.0,1.0
1.695162232522472e+18,-2.0,-1.0,0.0,-1.0,0.0,-1.0,0.0,0.0
1.6951622325234714e+18,-3.0,-1.0,-1.0,1.0,0.0,-1.0,-2.0,-1.0
1.69516223252447e+18,-1.0,-1.0,-3.0,0.0,0.0,1.0,1.0,0.0
1.69516223252447e+18,0.0,0.0,-1.0,-1.0,1.0,0.0,-1.0,0.0
1.6951622325384635e+18,0.0,-1.0,-1.0,0.0,0.0,0.0,-2.0,0.0
1.6951622325394627e+18,0.0,0.0,-2.0,-1.0,-1.0,1.0,1.0,0.0
1.6951622325404616e+18,-1.0,-1.0,1.0,1.0,-1.0,1.0,0.0,0.0
1.6951622325414607e+18,0.0,0.0,-1.0,-2.0,-2.0,1.0,-1.0,0.0
1.6951622325614482e+18,-1.0,0.0,-1.0,-2.0,-1.0,-1.0,-1.0,1.0
1.6951622325614482e+18,0.0,0.0,0.0,-1.0,0.0,-2.0,0.0,-1.0
1.6951622325624481e+18,-1.0,-1.0,-1.0,-1.0,-1.0,-2.0,-2.0,-2.0
1.695162232563448e+18,0.0,-2.0,0.0,0.0,0.0,0.0,0.0,0.0
1.6951622325744458e+18,1.0,0.0,0.0,0.0,0.0,0.0,1.0,-2.0
1.6951622325744458e+18,0.0,-2.0,0.0,-1.0,0.0,-2.0,-1.0,0.0
1.6951622325834365e+18,-1.0,-1.0,-1.0,-2.0,0.0,-1.0,-2.0,-1.0
1.695162232584437e+18,-1.0,0.0,-2.0,-1.0,-2.0,-2.0,-1.0,-1.0
1.6951622326034245e+18,-1.0,-3.0,-2.0,0.0,0.0,1.0,-1.0,0.0
1.6951622326034245e+18,-2.0,0.0,1.0,0.0,-1.0,-1.0,1.0,-2.0
1.6951622326034245e+18,0.0,0.0,-2.0,0.0,-1.0,-1.0,-1.0,-1.0
1.69516223260443e+18,-1.0,-2.0,1.0,-2.0,-2.0,-1.0,-1.0,-1.0
1.6951622326204137e+18,-1.0,0.0,-2.0,0.0,0.0,1.0,1.0,-1.0
1.6951622326214162e+18,0.0,0.0,-1.0,-1.0,-2.0,-1.0,0.0,0.0
1.6951622326274107e+18,0.0,-1.0,-1.0,-2.0,0.0,-1.0,0.0,-2.0
1.6951622326274107e+18,-1.0,1.0,-1.0,-2.0,1.0,-2.0,0.0,-1.0
1.695162232643402e+18,1.0,1.0,-1.0,-2.0,0.0,-1.0,0.0,-2.0
1.6951622326444037e+18,-2.0,-1.0,1.0,-2.0,-2.0,0.0,0.0,0.0
1.6951622326444037e+18,-1.0,-1.0,-1.0,-1.0,-1.0,-1.0,0.0,0.0
1.695162232645405e+18,0.0,0.0,-1.0,0.0,-1.0,-1.0,-1.0,0.0
1.6951622326703918e+18,-2.0,-1.0,-1.0,-2.0,0.0,-1.0,-3.0,0.0
1.6951622326763884e+18,0.0,-1.0,-2.0,-1.0,0.0,-1.0,-1.0,-2.0
1.695162232677388e+18,0.0,-1.0,0.0,0.0,-1.0,0.0,-1.0,1.0
1.695162232677388e+18,-1.0,0.0,-1.0,0.0,0.0,0.0,-1.0,-1.0
1.69516223268138e+18,-2.0,0.0,0.0,-1.0,-2.0,0.0,1.0,-1.0
1.6951622326823798e+18,0.0,0.0,0.0,-1.0,0.0,-1.0,-2.0,0.0
1.6951622326823798e+18,0.0,-2.0,0.0,0.0,-2.0,-3.0,0.0,-1.0
1.6951622326823798e+18,-1.0,-1.0,1.0,0.0,-1.0,0.0,0.0,0.0
1.6951622326943713e+18,1.0,1.0,-1.0,-1.0,-3.0,-3.0,-1.0,0.0
1.6951622326943713e+18,-1.0,-1.0,-1.0,0.0,-3.0,-2.0,0.0,-2.0
1.6951622327033677e+18,-1.0,2.0,-2.0,-1.0,0.0,-1.0,-1.0,0.0
1.6951622327033677e+18,-1.0,1.0,-3.0,0.0,-1.0,0.0,-2.0,0.0
1.6951622327183613e+18,0.0,-2.0,0.0,-1.0,-1.0,-1.0,0.0,-2.0
1.6951622327183613e+18,-1.0,-1.0,-1.0,-2.0,-2.0,-1.0,-1.0,-2.0
1.6951622327193603e+18,0.0,-2.0,-1.0,1.0,-1.0,-2.0,-1.0,-3.0
1.6951622327193603e+18,1.0,-2.0,0.0,0.0,-1.0,0.0,0.0,-1.0
1.6951622327403692e+18,-1.0,-1.0,-1.0,-2.0,0.0,0.0,-1.0,-1.0
1.6951622327403692e+18,-1.0,-1.0,-1.0,-2.0,0.0,-2.0,-2.0,0.0
1.6951622327423444e+18,-1.0,-3.0,0.0,-1.0,-1.0,0.0,-1.0,0.0
1.6951622327423444e+18,-1.0,0.0,-1.0,0.0,0.0,-1.0,-1.0,-2.0
1.695162232754337e+18,1.0,-2.0,-1.0,1.0,0.0,-2.0,0.0,-1.0
1.695162232754337e+18,-1.0,-2.0,-2.0,-2.0,0.0,1.0,-1.0,-1.0
1.6951622327873198e+18,1.0,1.0,-3.0,-3.0,0.0,2.0,1.0,-1.0
1.695162232788319e+18,-2.0,-1.0,-2.0,0.0,0.0,0.0,0.0,0.0
1.695162232788319e+18,1.0,-1.0,1.0,-1.0,-2.0,-1.0,0.0,-1.0
1.695162232788319e+18,0.0,0.0,-2.0,1.0,1.0,-2.0,0.0,1.0
1.695162232788319e+18,-2.0,1.0,-1.0,-1.0,-2.0,-1.0,-1.0,-1.0
1.695162232788319e+18,0.0,-3.0,-1.0,-1.0,0.0,-2.0,-1.0,0.0
1.69516223280833e+18,-2.0,-1.0,-1.0,-1.0,-1.0,-1.0,-1.0,-1.0
1.6951622328093087e+18,0.0,-2.0,0.0,0.0,0.0,-1.0,-1.0,-1.0
1.6951622328103078e+18,1.0,0.0,0.0,0.0,-1.0,-1.0,-1.0,1.0
1.6951622328103078e+18,-2.0,-2.0,0.0,-1.0,1.0,-1.0,0.0,-3.0
1.6951622328143053e+18,0.0,-2.0,0.0,1.0,0.0,0.0,-2.0,0.0
1.6951622328143053e+18,1.0,-1.0,-1.0,1.0,-1.0,0.0,0.0,-1.0
1.6951622328302943e+18,-1.0,-1.0,-2.0,0.0,-1.0,-1.0,-1.0,0.0
1.6951622328313175e+18,0.0,0.0,0.0,-3.0,-2.0,0.0,-1.0,-1.0
1.6951622328382892e+18,-1.0,-2.0,0.0,-1.0,-2.0,0.0,-3.0,-1.0
1.6951622328382892e+18,-2.0,-1.0,1.0,-1.0,0.0,-1.0,0.0,-1.0
1.6951622328402885e+18,0.0,0.0,-2.0,-2.0,-1.0,-1.0,0.0,0.0
1.6951622328402885e+18,-1.0,0.0,-2.0,-1.0,0.0,-1.0,0.0,0.0
1.6951622328681324e+18,0.0,-1.0,-1.0,-1.0,0.0,0.0,0.0,-1.0
1.695162232869137e+18,-2.0,-1.0,-1.0,0.0,1.0,-1.0,0.0,0.0
1.6951622328701407e+18,0.0,-2.0,-1.0,-1.0,-1.0,-1.0,-1.0,-2.0
1.6951622328701407e+18,-2.0,-1.0,1.0,-1.0,-1.0,-1.0,-1.0,-2.0
1.6951622328945595e+18,-1.0,-1.0,-2.0,-1.0,-2.0,-1.0,1.0,-1.0
1.6951622329015365e+18,1.0,-2.0,1.0,-2.0,0.0,1.0,-1.0,-1.0
1.6951622329015365e+18,-2.0,-1.0,0.0,-2.0,-1.0,1.0,-1.0,-1.0
1.695162232902536e+18,0.0,-1.0,0.0,-1.0,-1.0,-1.0,-1.0,-2.0
1.695162232902536e+18,-1.0,1.0,-1.0,1.0,0.0,0.0,0.0,0.0
1.695162232902536e+18,0.0,0.0,-2.0,-1.0,0.0,-1.0,-2.0,-1.0
1.695162232902536e+18,-1.0,-2.0,-1.0,-1.0,0.0,-2.0,-1.0,-1.0
1.6951622329035387e+18,0.0,-1.0,1.0,-1.0,-1.0,-1.0,0.0,-1.0
1.69516223292052e+18,-1.0,-1.0,1.0,-2.0,0.0,-1.0,0.0,-1.0
1.695162232921521e+18,-2.0,-1.0,-3.0,-2.0,-1.0,-1.0,-1.0,0.0
1.6951622329235195e+18,-2.0,-2.0,-1.0,0.0,-1.0,0.0,-1.0,0.0
1.6951622329235195e+18,-1.0,0.0,0.0,1.0,-1.0,0.0,0.0,-1.0
1.6951622329435072e+18,1.0,-1.0,0.0,1.0,1.0,0.0,-1.0,-1.0
1.6951622329435072e+18,1.0,0.0,0.0,0.0,0.0,-2.0,-1.0,-1.0
1.6951622329445076e+18,1.0,-1.0,2.0,-2.0,0.0,-1.0,-2.0,-1.0
1.6951622329455135e+18,1.0,-1.0,-1.0,-1.0,-2.0,0.0,-1.0,-2.0
1.6951622329575677e+18,-2.0,0.0,0.0,0.0,-1.0,-2.0,0.0,-2.0
1.6951622329575677e+18,-1.0,-1.0,-1.0,-1.0,-1.0,0.0,-1.0,0.0
1.695162232965565e+18,-1.0,-1.0,-2.0,1.0,-1.0,-1.0,-1.0,-1.0
1.695162232965565e+18,-2.0,0.0,0.0,-1.0,0.0,-1.0,-1.0,0.0
1.6951622329825544e+18,1.0,0.0,0.0,-1.0,0.0,0.0,0.0,0.0
1.695162232983553e+18,-1.0,-1.0,-1.0,-1.0,-1.0,0.0,-2.0,0.0
1.695162232983553e+18,0.0,-1.0,0.0,-1.0,0.0,0.0,-1.0,0.0
1.695162232984552e+18,-2.0,-1.0,-2.0,-4.0,0.0,0.0,-1.0,0.0
1.695162233003545e+18,0.0,-1.0,-3.0,-1.0,-2.0,0.0,0.0,-2.0
1.695162233003545e+18,0.0,-1.0,-1.0,1.0,-1.0,-1.0,0.0,0.0
1.6951622330105375e+18,0.0,-1.0,0.0,1.0,-2.0,0.0,0.0,-2.0
1.6951622330125396e+18,-1.0,-1.0,-1.0,1.0,-1.0,-1.0,-1.0,0.0
1.6951622330185329e+18,-2.0,0.0,0.0,-3.0,-1.0,-2.0,-1.0,1.0
1.6951622330185329e+18,0.0,0.0,-1.0,-3.0,0.0,-1.0,0.0,-1.0
1.695162233019537e+18,-1.0,2.0,-1.0,-1.0,-1.0,-1.0,-1.0,0.0
1.695162233019537e+18,0.0,1.0,-2.0,-2.0,0.0,-3.0,0.0,-1.0
1.695162233056511e+18,-1.0,-2.0,0.0,-2.0,0.0,-1.0,-2.0,-1.0
1.6951622330575112e+18,0.0,-1.0,-2.0,-1.0,-4.0,0.0,0.0,0.0
1.69516223305851e+18,1.0,-1.0,1.0,-1.0,-1.0,-1.0,0.0,-1.0
1.69516223305851e+18,-1.0,-1.0,-1.0,0.0,-2.0,0.0,-1.0,0.0
1.6951622330595103e+18,-2.0,-2.0,-1.0,-1.0,-1.0,-1.0,0.0,-1.0
1.6951622330595103e+18,0.0,0.0,0.0,-1.0,-1.0,-2.0,-1.0,-2.0
1.695162233079498e+18,-1.0,-1.0,-1.0,0.0,-1.0,0.0,-2.0,0.0
1.6951622330814991e+18,-1.0,-1.0,-1.0,-1.0,1.0,0.0,1.0,-1.0
1.695162233085494e+18,-2.0,1.0,0.0,-1.0,-3.0,-1.0,-2.0,-1.0
1.6951622330864988e+18,-1.0,0.0,0.0,0.0,-1.0,-1.0,-1.0,1.0
1.6951622330875177e+18,-2.0,-1.0,-1.0,-1.0,-1.0,-1.0,-1.0,-1.0
1.6951622330875177e+18,-3.0,0.0,-1.0,1.0,1.0,-1.0,-1.0,0.0
1.695162233108481e+18,-1.0,-1.0,0.0,-1.0,-1.0,-2.0,1.0,0.0
1.695162233108481e+18,0.0,-2.0,-1.0,-1.0,-1.0,-2.0,-1.0,-2.0
1.6951622331104845e+18,-1.0,0.0,-1.0,-1.0,0.0,-1.0,0.0,0.0
1.6951622331104845e+18,1.0,-1.0,0.0,0.0,-2.0,-1.0,-2.0,-1.0
1.695162233123472e+18,1.0,0.0,0.0,1.0,2.0,0.0,-1.0,-1.0
1.6951622331244728e+18,-1.0,0.0,-1.0,-2.0,-1.0,0.0,-3.0,0.0
1.6951622331244728e+18,-1.0,-1.0,-1.0,-1.0,-1.0,0.0,-1.0,-1.0
1.6951622331254758e+18,0.0,-2.0,1.0,-1.0,-3.0,0.0,-1.0,0.0
1.695162233146464e+18,-2.0,0.0,0.0,-1.0,-2.0,0.0,0.0,0.0
1.6951622331544594e+18,0.0,-1.0,2.0,0.0,0.0,-1.0,1.0,-2.0
1.6951622331584522e+18,-1.0,-1.0,0.0,-1.0,0.0,-1.0,-1.0,-1.0
1.6951622331584522e+18,-1.0,1.0,0.0,1.0,1.0,1.0,0.0,1.0
1.6951622331604524e+18,1.0,-2.0,-1.0,-1.0,0.0,-1.0,-1.0,-3.0
1.695162233161451e+18,-1.0,-2.0,-1.0,1.0,-1.0,1.0,-1.0,-1.0
1.6951622331624507e+18,-2.0,0.0,-1.0,0.0,-2.0,-4.0,0.0,-1.0
1.6951622331624507e+18,1.0,0.0,-1.0,-2.0,-2.0,-1.0,-1.0,-2.0
1.6951622331834412e+18,-1.0,-2.0,-3.0,-1.0,-2.0,-1.0,-2.0,-1.0
1.6951622331834412e+18,-2.0,0.0,0.0,0.0,-1.0,0.0,-2.0,0.0
1.6951622331854377e+18,0.0,0.0,-1.0,-1.0,0.0,0.0,-2.0,-2.0
1.6951622331854377e+18,0.0,-1.0,-2.0,-1.0,0.0,-3.0,-1.0,0.0
1.6951622332054318e+18,1.0,-1.0,-3.0,-1.0,-3.0,-1.0,-2.0,1.0
1.6951622332064256e+18,1.0,0.0,-1.0,-1.0,0.0,0.0,-1.0,-2.0
1.695162233207425e+18,2.0,0.0,0.0,-2.0,-1.0,1.0,-1.0,-1.0
1.695162233207425e+18,-2.0,-1.0,-2.0,-1.0,-2.0,0.0,-1.0,1.0
1.6951622332314112e+18,0.0,-1.0,-1.0,0.0,1.0,-1.0,0.0,-2.0
1.695162233235411e+18,-1.0,-2.0,-1.0,-2.0,-1.0,-2.0,1.0,0.0
1.6951622332444037e+18,0.0,-1.0,-1.0,-1.0,0.0,0.0,0.0,1.0
1.6951622332454042e+18,1.0,-1.0,0.0,-2.0,0.0,-1.0,0.0,-1.0
1.6951622332454042e+18,-2.0,0.0,1.0,-1.0,-1.0,-2.0,-1.0,-2.0
1.695162233248402e+18,-2.0,-1.0,-1.0,-1.0,-1.0,-2.0,0.0,-1.0
1.695162233248402e+18,1.0,0.0,-2.0,0.0,-1.0,0.0,0.0,-1.0
1.6951622332494016e+18,-1.0,-3.0,0.0,1.0,-2.0,2.0,-1.0,-1.0
1.6951622332573947e+18,-1.0,-2.0,-1.0,-2.0,-1.0,-1.0,1.0,0.0
1.6951622332573947e+18,-1.0,0.0,2.0,1.0,-2.0,0.0,-1.0,-1.0
1.6951622332723866e+18,0.0,-1.0,0.0,1.0,-2.0,-2.0,0.0,1.0
1.6951622332723866e+18,-2.0,0.0,0.0,0.0,-1.0,-2.0,-1.0,-1.0
1.6951622332803817e+18,-1.0,0.0,-1.0,1.0,-2.0,0.0,-2.0,-1.0
1.6951622332813824e+18,0.0,-1.0,-3.0,0.0,2.0,-1.0,0.0,1.0
1.6951622332823836e+18,-4.0,-1.0,-1.0,-1.0,0.0,-1.0,-2.0,-1.0
1.6951622332833807e+18,-1.0,-1.0,-2.0,0.0,-2.0,-1.0,-2.0,-1.0
1.6951622332953736e+18,-1.0,0.0,-2.0,-2.0,0.0,-2.0,-1.0,0.0
1.695162233302369e+18,-1.0,1.0,-1.0,-2.0,1.0,0.0,0.0,-1.0
1.695162233303369e+18,0.0,1.0,1.0,-1.0,-1.0,0.0,-1.0,-1.0
1.6951622333043694e+18,1.0,0.0,0.0,0.0,-1.0,-2.0,0.0,-2.0
1.6951622333173596e+18,-1.0,-1.0,-1.0,-1.0,-1.0,0.0,-2.0,0.0
1.6951622333173596e+18,0.0,0.0,-2.0,0.0,-1.0,-1.0,-1.0,0.0
1.6951622333243558e+18,-1.0,-2.0,-3.0,-1.0,-2.0,-2.0,0.0,-1.0
1.6951622333243558e+18,-1.0,1.0,1.0,0.0,-1.0,-2.0,-1.0,-2.0
1.6951622333483438e+18,1.0,-1.0,-1.0,2.0,0.0,0.0,0.0,-1.0
1.6951622333483438e+18,1.0,-1.0,-1.0,1.0,1.0,0.0,-2.0,-2.0
1.6951622333493432e+18,-2.0,-2.0,0.0,1.0,-3.0,0.0,0.0,0.0
1.6951622333493432e+18,0.0,-1.0,-3.0,-2.0,0.0,-1.0,-1.0,0.0
1.6951622333543393e+18,-2.0,-2.0,0.0,-2.0,0.0,-1.0,-1.0,1.0
1.6951622333543393e+18,-3.0,-1.0,-2.0,-2.0,-2.0,0.0,-1.0,-1.0
1.695162233363335e+18,-1.0,0.0,1.0,-2.0,-2.0,-1.0,-1.0,-1.0
1.695162233363335e+18,-1.0,0.0,-1.0,-1.0,0.0,-2.0,-1.0,-1.0
1.6951622333853225e+18,-2.0,-1.0,-1.0,-1.0,-1.0,-2.0,-1.0,0.0
1.6951622333853225e+18,0.0,-1.0,0.0,-1.0,-1.0,-1.0,0.0,1.0
1.69516223338732e+18,0.0,-2.0,-2.0,-2.0,-1.0,-1.0,-1.0,-1.0
1.69516223338732e+18,0.0,-1.0,-2.0,-1.0,-2.0,1.0,-1.0,-1.0
1.695162233400312e+18,-1.0,-1.0,1.0,-2.0,-2.0,-1.0,-1.0,-1.0
1.6951622334013123e+18,0.0,-1.0,-1.0,-3.0,-1.0,-1.0,0.0,-2.0
1.6951622334023132e+18,-1.0,0.0,-2.0,0.0,0.0,0.0,0.0,-2.0
1.6951622334023132e+18,0.0,-1.0,-1.0,-1.0,0.0,0.0,0.0,1.0
1.6951622334253018e+18,0.0,0.0,-1.0,1.0,-3.0,-1.0,-2.0,-1.0
1.6951622334253018e+18,-1.0,-1.0,2.0,-1.0,0.0,-1.0,-2.0,1.0
1.6951622334263004e+18,-1.0,-2.0,-1.0,0.0,-1.0,-3.0,-2.0,-2.0
1.6951622334263004e+18,0.0,-1.0,-1.0,-2.0,-1.0,-1.0,-1.0,0.0
1.6951622334382912e+18,0.0,-1.0,-1.0,1.0,0.0,0.0,1.0,0.0
1.6951622334392914e+18,-2.0,-1.0,-1.0,0.0,-2.0,-1.0,-1.0,-1.0
1.6951622334402916e+18,-1.0,-1.0,-1.0,-2.0,-1.0,0.0,0.0,-1.0
1.6951622334402916e+18,1.0,-1.0,1.0,-1.0,-2.0,-1.0,0.0,-1.0
1.69516223346028e+18,0.0,0.0,0.0,1.0,-1.0,1.0,0.0,0.0
1.69516223346028e+18,0.0,-1.0,0.0,1.0,0.0,-2.0,-2.0,0.0
1.695162233462282e+18,0.0,0.0,0.0,-1.0,1.0,-1.0,-1.0,1.0
1.695162233462282e+18,-2.0,-2.0,-1.0,0.0,-2.0,0.0,-1.0,-1.0
1.695162233492261e+18,0.0,-1.0,-1.0,-1.0,0.0,-2.0,-1.0,-1.0
1.695162233492261e+18,-1.0,-2.0,-2.0,-1.0,0.0,-1.0,0.0,-1.0
1.6951622334932613e+18,-1.0,0.0,0.0,-1.0,1.0,-1.0,0.0,-1.0
1.6951622334932613e+18,-1.0,-1.0,-1.0,-1.0,-1.0,-2.0,-2.0,-1.0
1.6951622334982577e+18,-1.0,-1.0,-1.0,0.0,-1.0,-2.0,-2.0,-1.0
1.6951622334982577e+18,-1.0,1.0,-2.0,0.0,-1.0,0.0,-1.0,-2.0
1.6951622334992573e+18,-1.0,-2.0,0.0,-1.0,-1.0,0.0,0.0,0.0
1.6951622335002583e+18,-2.0,-2.0,-1.0,0.0,0.0,1.0,-1.0,-1.0
1.6951622335202445e+18,0.0,0.0,1.0,-2.0,-1.0,0.0,-1.0,-1.0
1.6951622335212442e+18,0.0,-2.0,0.0,-1.0,-2.0,-2.0,-1.0,-1.0
1.6951622335232453e+18,-1.0,-1.0,-2.0,0.0,-1.0,0.0,-1.0,0.0
1.6951622335232453e+18,0.0,1.0,-2.0,0.0,-2.0,-1.0,-1.0,0.0
1.695162233550228e+18,0.0,1.0,-1.0,-2.0,-1.0,-1.0,-2.0,-3.0
1.6951622335512271e+18,0.0,-1.0,-1.0,-2.0,-2.0,-3.0,-1.0,-1.0
1.6951622335522263e+18,-1.0,-1.0,-1.0,-1.0,-1.0,-2.0,0.0,0.0
1.6951622335522263e+18,-1.0,-2.0,1.0,0.0,1.0,-1.0,0.0,-1.0
1.6951622335572232e+18,-3.0,-1.0,-2.0,-2.0,0.0,0.0,-1.0,0.0
1.695162233558225e+18,-1.0,-1.0,0.0,-1.0,1.0,0.0,0.0,-1.0
1.695162233568218e+18,0.0,0.0,-2.0,-2.0,-1.0,0.0,0.0,0.0
1.695162233568218e+18,0.0,1.0,-1.0,-1.0,1.0,0.0,-2.0,-1.0
1.695162233588205e+18,0.0,-2.0,-2.0,0.0,0.0,-1.0,-1.0,0.0
1.695162233589205e+18,-1.0,-1.0,-2.0,-1.0,0.0,0.0,-1.0,-2.0
1.6951622335902044e+18,0.0,0.0,-2.0,1.0,-1.0,0.0,0.0,0.0
1.6951622335902044e+18,0.0,-2.0,-1.0,0.0,-1.0,-1.0,-1.0,-1.0
1.695162233610192e+18,1.0,-2.0,0.0,-2.0,-3.0,0.0,-1.0,-1.0
1.695162233611193e+18,-1.0,-1.0,0.0,0.0,0.0,-1.0,1.0,-1.0
1.6951622336121915e+18,-1.0,0.0,0.0,0.0,0.0,-1.0,-1.0,-2.0
1.6951622336121915e+18,-2.0,1.0,-1.0,0.0,0.0,-2.0,0.0,-1.0
1.695162233617188e+18,-2.0,0.0,0.0,0.0,-3.0,-1.0,1.0,0.0
1.695162233617188e+18,-1.0,0.0,-1.0,-2.0,-4.0,2.0,-1.0,0.0
1.6951622336241843e+18,-2.0,-1.0,-2.0,0.0,-1.0,-1.0,0.0,0.0
1.6951622336241843e+18,-2.0,0.0,0.0,0.0,-1.0,-1.0,1.0,-2.0
1.6951622336481725e+18,-1.0,0.0,-2.0,-2.0,-1.0,0.0,-2.0,0.0
1.6951622336481725e+18,1.0,0.0,-1.0,0.0,1.0,0.0,-1.0,-2.0
1.6951622336491702e+18,-1.0,-1.0,0.0,-1.0,-1.0,-1.0,-2.0,-2.0
1.6951622336501704e+18,-1.0,0.0,-1.0,-1.0,-1.0,0.0,0.0,-2.0
1.695162233667163e+18,0.0,-1.0,-1.0,0.0,2.0,-1.0,-1.0,-1.0
1.695162233667163e+18,-2.0,-1.0,0.0,-1.0,-1.0,-1.0,-2.0,0.0
1.695162233667163e+18,-1.0,-1.0,-1.0,0.0,-1.0,0.0,-1.0,-2.0
1.695162233668167e+18,0.0,-2.0,0.0,2.0,-1.0,0.0,0.0,0.0
1.6951622336771553e+18,1.0,0.0,-3.0,0.0,-1.0,0.0,1.0,-4.0
1.6951622336771553e+18,-1.0,-1.0,-2.0,1.0,0.0,-1.0,-1.0,0.0
1.695162233685544e+18,0.0,-3.0,0.0,0.0,-2.0,-2.0,-1.0,-1.0
1.695162233685544e+18,0.0,-1.0,-1.0,-3.0,-4.0,0.0,-1.0,-1.0
1.6951622337016133e+18,0.0,-6.0,2.0,-1.0,-1.0,-1.0,0.0,0.0
1.6951622337016133e+18,-1.0,-1.0,0.0,1.0,1.0,-1.0,0.0,-1.0
1.695162233702613e+18,-2.0,1.0,0.0,0.0,-3.0,-2.0,-1.0,-1.0
1.695162233702613e+18,0.0,-2.0,-1.0,-2.0,0.0,0.0,1.0,0.0
1.695162233732597e+18,-1.0,0.0,-1.0,-1.0,0.0,-1.0,-2.0,-1.0
1.695162233732597e+18,-2.0,-2.0,0.0,-2.0,-1.0,1.0,-1.0,-1.0
1.6951622337335939e+18,-1.0,-1.0,-2.0,0.0,0.0,-1.0,-1.0,-1.0
1.6951622337345948e+18,-1.0,-2.0,-1.0,-2.0,-1.0,-1.0,-1.0,0.0
1.6951622337365934e+18,-2.0,-1.0,-1.0,-1.0,0.0,-2.0,-1.0,0.0
1.6951622337375967e+18,0.0,0.0,1.0,-1.0,1.0,0.0,0.0,0.0
1.6951622337455918e+18,1.0,2.0,0.0,-3.0,0.0,0.0,-1.0,-1.0
1.6951622337466068e+18,0.0,1.0,-2.0,-1.0,-1.0,1.0,0.0,1.0
1.6951622337611028e+18,-2.0,1.0,1.0,0.0,0.0,-1.0,0.0,-2.0
1.6951622337611028e+18,0.0,0.0,-2.0,-1.0,0.0,-3.0,-1.0,-1.0
1.69516223376213e+18,2.0,0.0,0.0,-1.0,-1.0,0.0,-2.0,0.0
1.6951622337631084e+18,0.0,-1.0,0.0,0.0,-1.0,-2.0,-2.0,1.0
1.695162233790565e+18,-1.0,1.0,1.0,-1.0,-1.0,0.0,0.0,1.0
1.6951622337915602e+18,-1.0,-1.0,0.0,-1.0,-2.0,-1.0,-1.0,-1.0
1.695162233792559e+18,-1.0,-2.0,-1.0,-1.0,-1.0,-1.0,0.0,0.0
1.695162233792559e+18,0.0,0.0,-2.0,-1.0,-1.0,0.0,-1.0,-2.0
1.695162233798556e+18,-2.0,0.0,-2.0,0.0,-1.0,0.0,-2.0,0.0
1.695162233802553e+18,-1.0,0.0,-2.0,-1.0,-2.0,0.0,-2.0,1.0
1.695162233811549e+18,-1.0,-1.0,0.0,-2.0,-1.0,0.0,1.0,0.0
1.695162233811549e+18,-3.0,-1.0,-1.0,-1.0,-2.0,0.0,-1.0,-1.0
1.6951622338205788e+18,-1.0,0.0,-2.0,-2.0,-2.0,0.0,1.0,-1.0
1.695162233821541e+18,-1.0,0.0,-2.0,0.0,1.0,-2.0,-1.0,-1.0
1.6951622338225472e+18,0.0,-1.0,-1.0,0.0,-1.0,-2.0,-2.0,-1.0
1.6951622338225472e+18,-1.0,0.0,0.0,-1.0,-1.0,0.0,0.0,-3.0
1.695162233843589e+18,2.0,-1.0,0.0,-1.0,1.0,0.0,0.0,-1.0
1.695162233843589e+18,-2.0,-1.0,-1.0,-1.0,-1.0,0.0,0.0,-2.0
1.695162233851587e+18,1.0,0.0,-2.0,0.0,-1.0,-2.0,0.0,1.0
1.695162233851587e+18,-1.0,0.0,1.0,0.0,0.0,-1.0,-1.0,0.0
1.6951622338565947e+18,-1.0,0.0,0.0,-2.0,-1.0,-2.0,0.0,-1.0
1.6951622338565947e+18,0.0,-1.0,-1.0,-2.0,-1.0,-1.0,0.0,0.0
1.695162233865567e+18,-1.0,-1.0,1.0,0.0,0.0,1.0,-1.0,-2.0
1.695162233865567e+18,-2.0,-1.0,-1.0,-1.0,-1.0,-1.0,-1.0,1.0
1.695162233880551e+18,-1.0,-3.0,-1.0,0.0,-1.0,-2.0,-2.0,1.0
1.695162233880551e+18,-2.0,0.0,0.0,0.0,-1.0,1.0,1.0,-1.0
1.6951622338825462e+18,-1.0,0.0,-1.0,-1.0,-2.0,-2.0,0.0,-1.0
1.6951622338825462e+18,0.0,-2.0,-2.0,-2.0,-2.0,-1.0,-1.0,-1.0
1.6951622339031416e+18,0.0,0.0,-1.0,-2.0,-2.0,0.0,-2.0,0.0
1.6951622339031416e+18,0.0,-1.0,-1.0,-1.0,-1.0,-2.0,0.0,0.0
1.695162233904155e+18,0.0,-2.0,-1.0,0.0,0.0,1.0,-1.0,-2.0
1.695162233905131e+18,0.0,-2.0,-1.0,1.0,0.0,0.0,-1.0,-3.0
1.6951622339171584e+18,-1.0,-3.0,0.0,-1.0,-4.0,0.0,-1.0,0.0
1.6951622339171584e+18,-1.0,-3.0,-2.0,-4.0,-2.0,-2.0,-2.0,-3.0
1.6951622339291205e+18,-2.0,-1.0,-2.0,-6.0,-9.0,-5.0,-2.0,-3.0
1.6951622339301194e+18,-1.0,-3.0,-3.0,-3.0,-6.0,-13.0,-4.0,0.0
1.695162233946142e+18,-3.0,0.0,4.0,-5.0,-17.0,-1.0,-1.0,-3.0
1.695162233946142e+18,1.0,-2.0,-11.0,15.0,40.0,6.0,2.0,1.0
1.6951622339471163e+18,-1.0,1.0,15.0,-5.0,-16.0,7.0,-3.0,-2.0
1.6951622339481152e+18,-1.0,-5.0,-8.0,-4.0,4.0,-23.0,-1.0,2.0
1.695162233966099e+18,-1.0,-1.0,0.0,-2.0,-19.0,19.0,-4.0,-2.0
1.695162233967098e+18,0.0,2.0,0.0,-25.0,-10.0,-36.0,4.0,0.0
1.695162233967098e+18,2.0,4.0,-4.0,9.0,-3.0,30.0,4.0,2.0
1.695162233969098e+18,0.0,-3.0,3.0,-5.0,16.0,43.0,7.0,-1.0
1.6951622339770926e+18,-1.0,-1.0,-2.0,-3.0,16.0,-7.0,-5.0,-1.0
1.6951622339790902e+18,-4.0,-4.0,-2.0,-8.0,-59.0,-63.0,-14.0,-5.0
1.6951622339860872e+18,0.0,0.0,-2.0,9.0,-27.0,-29.0,-2.0,-2.0
1.6951622339870956e+18,0.0,2.0,4.0,6.0,78.0,82.0,9.0,0.0
1.69516223400108e+18,3.0,2.0,-7.0,13.0,28.0,21.0,8.0,2.0
1.6951622340020785e+18,-1.0,-3.0,11.0,6.0,-1.0,-3.0,-4.0,-2.0
1.6951622340030825e+18,-2.0,-4.0,-6.0,-17.0,-32.0,-37.0,-6.0,-2.0
1.6951622340030825e+18,-2.0,1.0,0.0,-4.0,-28.0,-21.0,-5.0,-2.0
1.6951622340240648e+18,-1.0,-2.0,-3.0,2.0,6.0,-5.0,-2.0,-1.0
1.6951622340250642e+18,2.0,1.0,-3.0,3.0,4.0,16.0,1.0,1.0
1.6951622340260641e+18,-1.0,-1.0,0.0,-3.0,0.0,-10.0,0.0,0.0
1.6951622340270636e+18,0.0,0.0,5.0,4.0,-14.0,-9.0,0.0,-1.0
1.6951622340410563e+18,-1.0,-2.0,-9.0,-1.0,16.0,11.0,0.0,1.0
1.6951622340410563e+18,0.0,-1.0,2.0,-2.0,-2.0,5.0,0.0,1.0
1.6951622340460534e+18,0.0,-1.0,-4.0,-6.0,12.0,15.0,1.0,0.0
1.6951622340470533e+18,-1.0,0.0,-3.0,9.0,2.0,-12.0,-7.0,-4.0
1.6951622340620434e+18,-2.0,0.0,7.0,7.0,-13.0,-28.0,-4.0,-1.0
1.6951622340770335e+18,0.0,2.0,3.0,-3.0,-4.0,21.0,-4.0,-1.0
1.6951622340780324e+18,-1.0,-5.0,-7.0,-6.0,25.0,-1.0,-6.0,-1.0
1.6951622340780324e+18,0.0,0.0,-2.0,-3.0,-29.0,-13.0,5.0,0.0
1.695162234091026e+18,0.0,-4.0,-3.0,-7.0,-7.0,-6.0,-7.0,-4.0
1.695162234091026e+18,0.0,1.0,1.0,-1.0,6.0,10.0,-8.0,-1.0
1.6951622340920253e+18,3.0,2.0,2.0,-3.0,14.0,29.0,13.0,1.0
1.6951622340930263e+18,-1.0,-3.0,-1.0,-1.0,4.0,-35.0,13.0,-3.0
1.6951622340970214e+18,3.0,5.0,8.0,15.0,0.0,18.0,9.0,12.0
1.6951622340980214e+18,-3.0,-7.0,-3.0,4.0,12.0,29.0,16.0,-1.0
1.6951622341060168e+18,-1.0,2.0,2.0,4.0,-12.0,-32.0,-23.0,-4.0
1.6951622341070162e+18,-3.0,-2.0,-5.0,-11.0,-20.0,-17.0,-10.0,-2.0
1.6951622341200087e+18,0.0,0.0,-4.0,-11.0,-2.0,4.0,14.0,-1.0
1.6951622341210086e+18,0.0,3.0,2.0,6.0,3.0,-15.0,1.0,-1.0
1.695162234127005e+18,-2.0,1.0,0.0,-2.0,9.0,30.0,-6.0,-2.0
1.6951622341280082e+18,1.0,0.0,2.0,6.0,17.0,3.0,17.0,8.0
1.6951622341429972e+18,-2.0,-3.0,-6.0,-9.0,-7.0,-30.0,-21.0,-5.0
1.6951622341439951e+18,-1.0,2.0,3.0,4.0,-1.0,20.0,1.0,-2.0
1.695162234144997e+18,0.0,-1.0,1.0,2.0,-18.0,-30.0,-7.0,-2.0
1.695162234144997e+18,-1.0,0.0,-4.0,-13.0,-5.0,27.0,15.0,6.0
1.6951622341669824e+18,2.0,1.0,0.0,7.0,24.0,19.0,7.0,-1.0
1.6951622341669824e+18,-1.0,0.0,-1.0,3.0,-4.0,-23.0,-32.0,-9.0
1.695162234167984e+18,-3.0,-2.0,-4.0,-4.0,3.0,8.0,39.0,7.0
1.695162234167984e+18,-1.0,2.0,9.0,9.0,-16.0,-29.0,-42.0,-3.0
1.695162234180974e+18,0.0,-1.0,-6.0,-7.0,-7.0,6.0,25.0,3.0
1.6951622341819794e+18,-2.0,-4.0,-12.0,-14.0,1.0,18.0,6.0,-1.0
1.69516223418697e+18,0.0,1.0,4.0,19.0,18.0,-1.0,-12.0,-5.0
1.69516223418697e+18,-3.0,-7.0,-9.0,-13.0,-16.0,-24.0,-10.0,-4.0
1.6951622342029622e+18,-1.0,-1.0,2.0,8.0,5.0,0.0,-1.0,0.0
1.69516223420396e+18,-2.0,-1.0,3.0,-1.0,8.0,18.0,-6.0,0.0
1.6951622342049605e+18,-2.0,-3.0,-3.0,-9.0,-6.0,-13.0,2.0,-2.0
1.6951622342059658e+18,2.0,2.0,7.0,23.0,31.0,12.0,2.0,4.0
1.6951622342169551e+18,-2.0,-1.0,0.0,-9.0,-12.0,-8.0,-10.0,-7.0
1.6951622342169551e+18,3.0,0.0,-4.0,-4.0,-6.0,-1.0,12.0,4.0
1.6951622342319452e+18,-1.0,-3.0,-3.0,-6.0,-7.0,-4.0,-6.0,-1.0
1.6951622342329446e+18,-2.0,0.0,-1.0,5.0,12.0,11.0,3.0,-6.0
1.695162234242939e+18,-1.0,-3.0,-1.0,-7.0,-8.0,3.0,6.0,2.0
1.695162234253932e+18,-2.0,-1.0,-2.0,-3.0,-22.0,-21.0,-9.0,-3.0
1.6951622342549322e+18,1.0,0.0,-3.0,-19.0,-11.0,-15.0,-5.0,-2.0
1.6951622342559316e+18,0.0,-2.0,-1.0,9.0,10.0,18.0,2.0,0.0
1.6951622342789176e+18,-2.0,-3.0,2.0,-1.0,6.0,4.0,-16.0,-5.0
1.6951622342799176e+18,4.0,4.0,-3.0,-13.0,-4.0,9.0,31.0,6.0
1.6951622342809172e+18,-1.0,-1.0,1.0,10.0,10.0,4.0,-8.0,2.0
1.6951622342819195e+18,-1.0,1.0,-2.0,-25.0,-36.0,-17.0,-5.0,-3.0
1.6951622342819195e+18,-3.0,-2.0,2.0,24.0,29.0,-3.0,-5.0,0.0
1.6951622342829169e+18,0.0,-2.0,1.0,1.0,-3.0,3.0,-1.0,-2.0
1.6951622342919107e+18,-1.0,1.0,-2.0,3.0,8.0,4.0,5.0,-1.0
1.6951622342919107e+18,1.0,-3.0,-2.0,-9.0,-3.0,1.0,12.0,3.0
1.6951622343009065e+18,1.0,1.0,2.0,9.0,-9.0,-9.0,-6.0,-1.0
1.6951622343009065e+18,-3.0,-2.0,-17.0,-10.0,2.0,-2.0,-5.0,-2.0
1.695162234309906e+18,-2.0,0.0,6.0,16.0,7.0,0.0,3.0,1.0
1.6951622343109033e+18,-1.0,0.0,1.0,-5.0,-12.0,5.0,-7.0,-1.0
1.6951622343378842e+18,-2.0,0.0,0.0,-5.0,0.0,-5.0,-5.0,-5.0
1.695162234341884e+18,-1.0,-3.0,-3.0,1.0,13.0,2.0,9.0,1.0
1.6951622343458793e+18,-1.0,-3.0,-7.0,-9.0,-11.0,-3.0,-5.0,-4.0
1.6951622343468805e+18,2.0,1.0,-1.0,1.0,8.0,-1.0,-2.0,-1.0
1.6951622343468805e+18,-2.0,-1.0,14.0,10.0,-13.0,-2.0,-1.0,-1.0
1.6951622343468805e+18,1.0,3.0,-6.0,-14.0,1.0,2.0,-8.0,0.0
1.6951622343948503e+18,-4.0,-9.0,-11.0,-13.0,-5.0,0.0,7.0,2.0
1.6951622343948503e+18,1.0,3.0,10.0,16.0,9.0,6.0,6.0,-1.0
1.695162234405845e+18,-1.0,3.0,3.0,11.0,0.0,-3.0,10.0,4.0
1.695162234405845e+18,-3.0,-6.0,-3.0,-6.0,-5.0,-9.0,-17.0,-6.0
1.6951622344078428e+18,-2.0,2.0,-2.0,-3.0,-8.0,-11.0,-10.0,-9.0
1.6951622344078428e+18,4.0,-2.0,-4.0,-2.0,5.0,19.0,13.0,12.0
1.6951622344218363e+18,1.0,1.0,-7.0,-19.0,-13.0,-2.0,8.0,3.0
1.6951622344228352e+18,1.0,4.0,10.0,31.0,24.0,3.0,-3.0,2.0
1.695162234423834e+18,2.0,1.0,1.0,7.0,-3.0,3.0,5.0,1.0
1.695162234423834e+18,-4.0,-4.0,1.0,12.0,-3.0,4.0,11.0,-1.0
1.6951622344298324e+18,-2.0,5.0,-7.0,-11.0,-2.0,-5.0,-2.0,-4.0
1.6951622344298324e+18,-3.0,-8.0,3.0,-4.0,-11.0,-25.0,-16.0,-6.0
1.6951622344448218e+18,3.0,3.0,3.0,3.0,10.0,14.0,32.0,15.0
1.6951622344458243e+18,0.0,5.0,-8.0,-8.0,0.0,11.0,3.0,-4.0
1.6951622344458243e+18,-1.0,-18.0,-3.0,-13.0,-5.0,4.0,21.0,5.0
1.6951622344458243e+18,-2.0,3.0,-1.0,10.0,2.0,-2.0,-3.0,-1.0
1.695162234449822e+18,-3.0,-34.0,22.0,8.0,2.0,-11.0,-39.0,-7.0
1.695162234449822e+18,-1.0,10.0,-20.0,-1.0,-15.0,-33.0,-42.0,-14.0
1.69516223446481e+18,-2.0,-24.0,13.0,4.0,-4.0,12.0,14.0,7.0
1.69516223446481e+18,4.0,27.0,-5.0,-5.0,6.0,-12.0,-31.0,-18.0
1.6951622344818028e+18,-9.0,-38.0,4.0,-2.0,3.0,25.0,27.0,12.0
1.6951622344818028e+18,4.0,11.0,-5.0,-4.0,-11.0,9.0,20.0,12.0
1.6951622344818028e+18,-16.0,-25.0,2.0,7.0,8.0,-33.0,-90.0,-26.0
1.695162234482802e+18,3.0,0.0,-1.0,-5.0,-4.0,28.0,50.0,16.0
1.6951622345343675e+18,-1.0,17.0,2.0,-8.0,-11.0,-7.0,-18.0,-15.0
1.6951622345343675e+18,0.0,-8.0,8.0,36.0,14.0,-5.0,-21.0,3.0
1.6951622345353674e+18,12.0,42.0,-22.0,-23.0,-14.0,1.0,1.0,1.0
1.6951622345353674e+18,-3.0,-15.0,-5.0,-17.0,-9.0,3.0,4.0,2.0
1.695162234536366e+18,-3.0,14.0,5.0,10.0,4.0,-14.0,-16.0,-17.0
1.6951622345373678e+18,2.0,-8.0,-11.0,-21.0,1.0,15.0,1.0,4.0
1.6951622345623557e+18,1.0,4.0,2.0,4.0,-6.0,-5.0,13.0,-8.0
1.6951622345623557e+18,-1.0,-1.0,-6.0,-3.0,-3.0,-13.0,-16.0,-2.0
1.6951622345714652e+18,3.0,28.0,-11.0,1.0,5.0,-2.0,-18.0,-7.0
1.6951622345714652e+18,-2.0,-24.0,12.0,7.0,-6.0,41.0,97.0,38.0
1.6951622345879718e+18,5.0,12.0,-10.0,-7.0,15.0,1.0,10.0,0.0
1.6951622345879718e+18,-2.0,15.0,-8.0,-18.0,-13.0,-33.0,-4.0,-11.0
1.6951622345889687e+18,-4.0,6.0,-3.0,-6.0,-11.0,-35.0,-60.0,-23.0
1.6951622345889687e+18,4.0,4.0,10.0,14.0,19.0,32.0,37.0,11.0
1.6951622346245678e+18,-2.0,-8.0,1.0,-5.0,-5.0,-6.0,-3.0,4.0
1.6951622346255634e+18,-5.0,5.0,-4.0,0.0,-4.0,-36.0,-63.0,-28.0
1.6951622346265626e+18,4.0,-9.0,0.0,-9.0,19.0,10.0,34.0,7.0
1.6951622346265626e+18,0.0,-10.0,14.0,14.0,4.0,3.0,-9.0,-1.0
1.6951622346475512e+18,2.0,12.0,-4.0,-3.0,-20.0,-1.0,4.0,-1.0
1.6951622346485532e+18,-1.0,-8.0,11.0,15.0,30.0,-2.0,-1.0,-3.0
1.6951622346495588e+18,-8.0,-13.0,-36.0,-39.0,-18.0,-9.0,-15.0,-11.0
1.6951622346495588e+18,6.0,10.0,1.0,0.0,-4.0,-20.0,-20.0,-5.0
1.6951622346495588e+18,0.0,-14.0,11.0,9.0,1.0,22.0,39.0,3.0
1.6951622346495588e+18,-4.0,-25.0,1.0,-9.0,4.0,-10.0,-24.0,-14.0
1.695162234685529e+18,-1.0,14.0,-8.0,-7.0,-12.0,-14.0,-26.0,-4.0
1.695162234685529e+18,3.0,-2.0,11.0,6.0,12.0,8.0,1.0,6.0
1.6951622346865357e+18,0.0,-5.0,2.0,8.0,-3.0,1.0,-5.0,2.0
1.6951622346865357e+18,-2.0,7.0,-9.0,-13.0,-12.0,-22.0,-38.0,-7.0
1.6951622346905303e+18,-2.0,-27.0,11.0,17.0,14.0,8.0,15.0,1.0
1.6951622346905303e+18,-4.0,-6.0,0.0,-8.0,-5.0,3.0,16.0,-1.0
1.6951622346975255e+18,0.0,0.0,3.0,5.0,-2.0,-7.0,-31.0,-8.0
1.6951622346985231e+18,-2.0,21.0,-2.0,9.0,4.0,-3.0,12.0,-8.0
1.6951622347374991e+18,-3.0,-10.0,-1.0,-3.0,-10.0,-12.0,-25.0,5.0
1.6951622347374991e+18,-3.0,-1.0,-6.0,-7.0,-2.0,5.0,-6.0,-1.0
1.6951622347394982e+18,1.0,-4.0,7.0,9.0,9.0,7.0,6.0,4.0
1.6951622347404977e+18,-2.0,4.0,-3.0,-6.0,-17.0,-14.0,-13.0,-3.0
1.6951622347404977e+18,-1.0,0.0,4.0,8.0,5.0,-7.0,3.0,5.0
1.6951622347404977e+18,1.0,-12.0,11.0,5.0,3.0,1.0,-5.0,-9.0
1.6951622347434964e+18,-2.0,34.0,-2.0,6.0,12.0,10.0,6.0,-6.0
1.6951622347434964e+18,-4.0,-20.0,-27.0,-29.0,3.0,-4.0,-33.0,3.0
1.6951622347504947e+18,2.0,6.0,6.0,2.0,2.0,5.0,50.0,14.0
1.6951622347514962e+18,-4.0,-14.0,-7.0,-5.0,-9.0,-1.0,-7.0,13.0
1.6951622347525143e+18,0.0,24.0,-7.0,11.0,7.0,15.0,32.0,-1.0
1.6951622347525143e+18,-1.0,-19.0,11.0,9.0,0.0,-6.0,9.0,-4.0
1.6951622347655063e+18,-2.0,-13.0,-1.0,-5.0,3.0,10.0,17.0,11.0
1.6951622347664893e+18,-5.0,-3.0,-3.0,-3.0,-5.0,-3.0,3.0,-4.0
1.695162234767499e+18,2.0,11.0,-12.0,-15.0,-14.0,-23.0,-35.0,1.0
1.695162234767499e+18,-3.0,1.0,1.0,3.0,3.0,-5.0,13.0,-1.0
1.6951622347954668e+18,1.0,0.0,-9.0,-13.0,-13.0,2.0,-5.0,-2.0
1.6951622347954668e+18,-3.0,1.0,7.0,-2.0,1.0,1.0,7.0,-6.0
1.6951622348124603e+18,-3.0,-7.0,0.0,0.0,-5.0,-7.0,-9.0,-10.0
1.6951622348134687e+18,-3.0,-11.0,6.0,8.0,9.0,10.0,0.0,3.0
1.6951622348134687e+18,5.0,23.0,3.0,6.0,-1.0,4.0,8.0,3.0
1.6951622348144586e+18,3.0,10.0,-7.0,-8.0,1.0,6.0,1.0,5.0
1.6951622348254477e+18,-1.0,-27.0,13.0,5.0,-4.0,4.0,-3.0,-1.0
1.6951622348264527e+18,-7.0,2.0,-3.0,-9.0,-11.0,-15.0,-23.0,-16.0
1.6951622348514342e+18,3.0,14.0,6.0,23.0,12.0,1.0,7.0,-3.0
1.6951622348644265e+18,-2.0,-1.0,-9.0,-11.0,1.0,6.0,-14.0,7.0
1.6951622348654272e+18,0.0,1.0,-23.0,-27.0,-6.0,-11.0,-10.0,-7.0
1.6951622348654272e+18,1.0,-3.0,7.0,2.0,-12.0,-1.0,3.0,1.0
1.6951622348664264e+18,-3.0,7.0,6.0,12.0,16.0,8.0,1.0,-1.0
1.6951622348664264e+18,0.0,-7.0,-6.0,-9.0,-5.0,-1.0,4.0,0.0
1.6951622348664264e+18,-2.0,-11.0,8.0,10.0,1.0,0.0,-2.0,2.0
1.6951622348664264e+18,0.0,10.0,-4.0,-4.0,-5.0,-1.0,-11.0,-3.0
1.6951622348674248e+18,-4.0,1.0,-13.0,-17.0,-4.0,-3.0,-6.0,-3.0
1.6951622348674248e+18,0.0,3.0,5.0,10.0,-9.0,-9.0,-2.0,-4.0
1.69516223486843e+18,-1.0,-4.0,-11.0,-14.0,2.0,-2.0,3.0,0.0
1.695162234869427e+18,-3.0,-6.0,3.0,7.0,3.0,4.0,5.0,-1.0
1.6951622349014052e+18,0.0,-6.0,3.0,-3.0,-8.0,-6.0,-3.0,-3.0
1.6951622349024046e+18,2.0,4.0,-2.0,9.0,7.0,4.0,9.0,2.0
1.6951622349034045e+18,-1.0,-6.0,6.0,-2.0,1.0,1.0,0.0,1.0
1.6951622349034045e+18,1.0,9.0,-3.0,4.0,0.0,-2.0,-7.0,2.0
1.6951622349034045e+18,-4.0,-7.0,4.0,-3.0,-1.0,0.0,-8.0,-1.0
1.695162234904404e+18,0.0,1.0,-1.0,-2.0,0.0,0.0,2.0,-1.0
1.6951622349553746e+18,0.0,0.0,0.0,4.0,1.0,0.0,2.0,-2.0
1.6951622349563738e+18,-2.0,-1.0,0.0,-1.0,-2.0,-4.0,2.0,-4.0
1.6951622349563738e+18,-2.0,-3.0,-2.0,-3.0,-2.0,1.0,6.0,-1.0
1.6951622349573734e+18,-2.0,-2.0,3.0,-1.0,0.0,1.0,4.0,-2.0
1.6951622349693898e+18,-1.0,-3.0,3.0,2.0,-4.0,-2.0,-2.0,-3.0
1.6951622349703683e+18,0.0,2.0,-4.0,-1.0,1.0,2.0,-1.0,-1.0
1.6951622349703683e+18,-1.0,-6.0,-3.0,-2.0,-2.0,-1.0,0.0,-1.0
1.6951622349703683e+18,1.0,5.0,1.0,3.0,1.0,-3.0,-1.0,1.0
1.6951622349723663e+18,0.0,0.0,-3.0,0.0,0.0,2.0,-1.0,0.0
1.6951622349723663e+18,-2.0,-3.0,0.0,-1.0,-1.0,-2.0,0.0,-1.0
1.695162234975363e+18,-1.0,1.0,-2.0,-2.0,-3.0,-4.0,0.0,-2.0
1.6951622349763658e+18,-2.0,-2.0,-1.0,-3.0,0.0,-1.0,0.0,-2.0
1.6951622350073446e+18,-1.0,-1.0,-2.0,-2.0,-4.0,-4.0,-1.0,0.0
1.6951622350073446e+18,-1.0,2.0,-1.0,0.0,0.0,0.0,1.0,2.0
1.6951622350083517e+18,-1.0,-2.0,-1.0,2.0,-1.0,1.0,3.0,0.0
1.6951622350093427e+18,0.0,3.0,-1.0,0.0,-2.0,-2.0,0.0,-2.0
1.6951622350093427e+18,-2.0,-3.0,-1.0,-1.0,-1.0,-3.0,-2.0,-2.0
1.6951622350093427e+18,-2.0,-1.0,-2.0,-1.0,1.0,1.0,0.0,0.0
1.6951622350133412e+18,-2.0,-1.0,-1.0,-1.0,1.0,-5.0,-11.0,-1.0
1.6951622350143409e+18,-1.0,-1.0,-2.0,-1.0,-4.0,-4.0,-3.0,-2.0
1.695162235019341e+18,0.0,-1.0,1.0,4.0,11.0,12.0,9.0,2.0
1.695162235020337e+18,-1.0,-1.0,0.0,2.0,-1.0,-1.0,1.0,-1.0
1.6951622350403264e+18,-1.0,0.0,0.0,-2.0,-4.0,-3.0,-6.0,-3.0
1.6951622350413266e+18,-1.0,-1.0,-2.0,0.0,2.0,-1.0,4.0,-1.0
1.6951622350513196e+18,-1.0,-2.0,-1.0,-3.0,-3.0,-1.0,1.0,1.0
1.6951622350513196e+18,-2.0,1.0,1.0,0.0,-4.0,1.0,1.0,-3.0
1.6951622350523185e+18,0.0,-2.0,0.0,1.0,0.0,0.0,2.0,-1.0
1.6951622350523185e+18,0.0,0.0,-2.0,-3.0,2.0,1.0,-4.0,-1.0
1.695162235074308e+18,-1.0,0.0,-1.0,-1.0,-3.0,-2.0,-1.0,-1.0
1.6951622350753057e+18,0.0,1.0,0.0,0.0,1.0,0.0,-1.0,-1.0
1.6951622350753057e+18,-1.0,-3.0,-2.0,-1.0,0.0,-3.0,0.0,0.0
1.6951622350753057e+18,-1.0,-1.0,-2.0,-1.0,-1.0,0.0,-1.0,-2.0
1.6951622350882985e+18,0.0,-3.0,-3.0,1.0,-2.0,-4.0,-2.0,-3.0
1.6951622350892977e+18,-2.0,-2.0,0.0,0.0,-3.0,-2.0,-3.0,-3.0
1.6951622350892977e+18,0.0,-2.0,-1.0,0.0,1.0,1.0,0.0,1.0
1.6951622350902973e+18,-2.0,-1.0,-1.0,1.0,0.0,1.0,-2.0,-1.0
1.6951622351022894e+18,-2.0,0.0,-1.0,-2.0,-3.0,-3.0,-1.0,-2.0
1.6951622351022894e+18,0.0,-1.0,-1.0,-3.0,-3.0,-1.0,-2.0,-1.0
1.6951622351112842e+18,-2.0,-1.0,0.0,1.0,2.0,1.0,2.0,0.0
1.6951622351112842e+18,-2.0,-1.0,-1.0,-2.0,0.0,-1.0,-3.0,-1.0
1.695162235126275e+18,-1.0,-1.0,1.0,-3.0,-3.0,-3.0,-4.0,-2.0
1.695162235126275e+18,0.0,-1.0,1.0,-1.0,2.0,1.0,5.0,0.0
1.6951622351642537e+18,-2.0,-1.0,-2.0,0.0,-2.0,-1.0,0.0,-2.0
1.6951622351652536e+18,2.0,0.0,2.0,0.0,-3.0,-3.0,-2.0,-1.0
1.6951622351652536e+18,-1.0,-3.0,1.0,-2.0,0.0,-2.0,-2.0,-2.0
1.6951622351652536e+18,0.0,-1.0,0.0,0.0,1.0,-3.0,-2.0,1.0
1.6951622351662536e+18,-3.0,0.0,1.0,0.0,1.0,11.0,4.0,1.0
1.6951622351672517e+18,1.0,-2.0,-1.0,-1.0,-1.0,-5.0,1.0,-1.0
1.69516223517025e+18,0.0,-1.0,0.0,1.0,-2.0,-6.0,-3.0,-1.0
1.69516223517025e+18,-2.0,-1.0,0.0,1.0,0.0,-1.0,-3.0,-1.0
1.6951622351782454e+18,1.0,1.0,0.0,-1.0,4.0,7.0,1.0,-1.0
1.6951622351782454e+18,-1.0,-1.0,0.0,-1.0,-2.0,-2.0,-2.0,2.0
1.6951622351852434e+18,-1.0,0.0,-1.0,-2.0,-1.0,1.0,-1.0,-2.0
1.6951622351862428e+18,-1.0,-2.0,0.0,-2.0,-3.0,-7.0,-3.0,-3.0
1.6951622351872415e+18,0.0,0.0,0.0,-2.0,-4.0,-7.0,-4.0,-2.0
1.6951622351872415e+18,-2.0,0.0,-1.0,1.0,1.0,1.0,0.0,-2.0
1.6951622351992333e+18,-2.0,0.0,-1.0,-1.0,0.0,1.0,1.0,0.0
1.6951622351992333e+18,-1.0,-1.0,0.0,2.0,-1.0,1.0,-2.0,-1.0
1.6951622352154785e+18,0.0,-1.0,-1.0,-2.0,-2.0,-3.0,-2.0,-1.0
1.6951622352164785e+18,-1.0,-2.0,0.0,-2.0,-2.0,0.0,-1.0,-2.0
1.6951622352384668e+18,-1.0,0.0,0.0,2.0,1.0,-1.0,-2.0,-2.0
1.6951622352384668e+18,-1.0,-2.0,-3.0,-1.0,2.0,4.0,0.0,0.0
1.6951622352394657e+18,0.0,0.0,-2.0,0.0,0.0,-3.0,-2.0,-1.0
1.695162235240465e+18,-1.0,-1.0,-1.0,-2.0,-1.0,0.0,-1.0,-1.0
1.695162235245485e+18,-1.0,0.0,-1.0,-1.0,-1.0,2.0,1.0,0.0
1.695162235245485e+18,-1.0,0.0,-1.0,0.0,-1.0,1.0,0.0,-1.0
1.6951622352474604e+18,-1.0,-2.0,0.0,2.0,0.0,-5.0,0.0,0.0
1.6951622352474604e+18,-1.0,-1.0,-1.0,-3.0,-5.0,2.0,-1.0,0.0
1.6951622352594342e+18,0.0,0.0,-1.0,-1.0,-5.0,-15.0,-6.0,-2.0
1.6951622352594342e+18,1.0,2.0,1.0,-1.0,3.0,15.0,1.0,1.0
1.695162235268522e+18,0.0,1.0,1.0,1.0,2.0,8.0,3.0,1.0
1.695162235268522e+18,2.0,3.0,2.0,1.0,1.0,0.0,2.0,-1.0
1.695162235291178e+18,-1.0,1.0,-5.0,-2.0,7.0,9.0,-1.0,-2.0
1.695162235291178e+18,-3.0,-3.0,-2.0,-1.0,-8.0,-18.0,-6.0,-4.0
1.6951622352922012e+18,0.0,-2.0,-2.0,-3.0,-9.0,-16.0,-6.0,-3.0
1.6951622352922012e+18,1.0,2.0,0.0,-4.0,0.0,9.0,2.0,3.0
1.6951622353062126e+18,-1.0,-5.0,-1.0,4.0,-2.0,9.0,2.0,1.0
1.6951622353062126e+18,0.0,0.0,0.0,2.0,15.0,5.0,3.0,1.0
1.695162235307213e+18,0.0,-3.0,-1.0,-1.0,2.0,2.0,-3.0,-3.0
1.695162235307213e+18,-2.0,-1.0,-3.0,-2.0,-4.0,-13.0,-5.0,-2.0
1.6951622353282007e+18,1.0,-1.0,1.0,-2.0,-5.0,-4.0,-1.0,-1.0
1.6951622353291958e+18,0.0,-2.0,-1.0,-2.0,-3.0,3.0,0.0,0.0
1.695162235330195e+18,-3.0,-2.0,0.0,0.0,-1.0,0.0,-1.0,1.0
1.695162235330195e+18,0.0,-2.0,-2.0,1.0,-2.0,-3.0,1.0,-2.0
1.6951622353422116e+18,1.0,0.0,1.0,0.0,2.0,3.0,0.0,0.0
1.6951622353431944e+18,1.0,-1.0,-1.0,0.0,-4.0,-2.0,0.0,0.0
1.695162235349189e+18,-1.0,1.0,0.0,-1.0,0.0,-5.0,-1.0,-2.0
1.695162235350184e+18,-1.0,-1.0,0.0,-1.0,1.0,1.0,1.0,-1.0
1.695162235366177e+18,-1.0,-1.0,0.0,-1.0,1.0,-1.0,1.0,1.0
1.695162235366177e+18,0.0,1.0,-1.0,-2.0,-3.0,-5.0,-3.0,-1.0
1.695162235368178e+18,0.0,0.0,-1.0,-1.0,0.0,1.0,0.0,-1.0
1.695162235368178e+18,-1.0,-2.0,1.0,-1.0,0.0,3.0,1.0,-2.0
1.6951622353891617e+18,-3.0,-1.0,1.0,0.0,0.0,-3.0,1.0,-2.0
1.6951622353891617e+18,-2.0,-1.0,1.0,-2.0,-2.0,-3.0,0.0,-2.0
1.6951622353901612e+18,0.0,1.0,1.0,0.0,2.0,1.0,-1.0,-2.0
1.6951622353901612e+18,-1.0,-1.0,-3.0,2.0,0.0,0.0,-2.0,-1.0
1.6951622354021537e+18,-1.0,-1.0,-1.0,-2.0,-2.0,-2.0,-2.0,0.0
1.6951622354021537e+18,-2.0,-2.0,-2.0,-1.0,-1.0,-2.0,-2.0,-3.0
1.6951622354191434e+18,-1.0,-1.0,-3.0,-2.0,-4.0,-1.0,-2.0,0.0
1.6951622354191434e+18,-1.0,-2.0,0.0,-2.0,0.0,-3.0,-1.0,-1.0
1.6951622354251407e+18,-2.0,0.0,-2.0,-2.0,-1.0,-1.0,-2.0,-1.0
1.69516223542614e+18,-1.0,-1.0,0.0,-1.0,-1.0,0.0,-2.0,-1.0
1.6951622354271414e+18,-1.0,-4.0,-1.0,-2.0,-1.0,-1.0,-1.0,0.0
1.6951622354271414e+18,-2.0,-2.0,-2.0,2.0,0.0,-1.0,-2.0,-1.0
1.695162235456122e+18,0.0,0.0,-2.0,1.0,-2.0,-2.0,-1.0,0.0
1.695162235456122e+18,-2.0,-1.0,-1.0,-2.0,-1.0,0.0,0.0,1.0
1.6951622354581212e+18,-2.0,0.0,1.0,-2.0,0.0,-1.0,0.0,0.0
1.6951622354581212e+18,-1.0,-2.0,1.0,0.0,0.0,0.0,0.0,-2.0
1.6951622354791114e+18,0.0,-1.0,0.0,-1.0,-1.0,0.0,0.0,-1.0
1.6951622354811315e+18,-1.0,0.0,-1.0,0.0,-1.0,1.0,-1.0,-1.0
1.6951622354811315e+18,0.0,0.0,-2.0,0.0,-2.0,0.0,-1.0,0.0
1.695162235482112e+18,-1.0,-1.0,-2.0,-1.0,-1.0,-1.0,1.0,1.0
1.6951622354931026e+18,-2.0,-2.0,0.0,-3.0,-2.0,-1.0,-1.0,0.0
1.6951622354931026e+18,0.0,0.0,-1.0,0.0,-2.0,-1.0,1.0,-2.0
1.6951622354951004e+18,-1.0,-1.0,0.0,0.0,0.0,-1.0,-1.0,-1.0
1.6951622354951004e+18,0.0,-1.0,0.0,-2.0,-2.0,-2.0,-3.0,0.0
1.6951622355084557e+18,-1.0,-1.0,0.0,0.0,1.0,-1.0,-2.0,-1.0
1.6951622355084557e+18,0.0,0.0,0.0,-1.0,-1.0,0.0,0.0,0.0
1.695162235509453e+18,-1.0,0.0,-1.0,-1.0,0.0,-1.0,-1.0,0.0
1.695162235509453e+18,-2.0,0.0,0.0,0.0,-1.0,1.0,0.0,-1.0
1.6951622355234483e+18,0.0,0.0,-1.0,-1.0,0.0,0.0,-1.0,-1.0
1.6951622355284424e+18,0.0,-1.0,1.0,-3.0,-1.0,-1.0,-2.0,-1.0
1.6951622355304443e+18,0.0,-3.0,-1.0,-2.0,-1.0,-1.0,0.0,-1.0
1.6951622355314427e+18,0.0,-1.0,0.0,-2.0,-1.0,-1.0,0.0,0.0
1.6951622355534282e+18,-1.0,1.0,0.0,-1.0,-2.0,-1.0,0.0,0.0
1.6951622355534282e+18,-1.0,0.0,-1.0,1.0,0.0,1.0,-1.0,-2.0
1.6951622355544284e+18,0.0,0.0,-2.0,0.0,0.0,-1.0,0.0,0.0
1.6951622355554273e+18,-2.0,0.0,-1.0,1.0,0.0,-1.0,0.0,-1.0
1.6951622355681275e+18,-1.0,0.0,-1.0,-1.0,0.0,-1.0,2.0,-1.0
1.6951622355681275e+18,-1.0,-1.0,-2.0,0.0,-1.0,-2.0,-1.0,-1.0
1.695162235569727e+18,-2.0,1.0,-1.0,0.0,-2.0,-1.0,1.0,0.0
1.695162235569727e+18,-1.0,0.0,0.0,0.0,-1.0,0.0,-2.0,0.0
1.6951622355815404e+18,-1.0,-2.0,-1.0,-1.0,1.0,-3.0,0.0,-1.0
1.6951622355815404e+18,-1.0,-1.0,-1.0,-2.0,-1.0,1.0,-1.0,0.0
1.6951622355904182e+18,0.0,-4.0,0.0,-2.0,-1.0,0.0,0.0,0.0
1.6951622355904182e+18,0.0,-1.0,-1.0,0.0,-3.0,-1.0,0.0,-1.0
1.6951622356064215e+18,0.0,0.0,-2.0,-1.0,-2.0,0.0,-2.0,1.0
1.6951622356064215e+18,-1.0,-1.0,-2.0,-1.0,-1.0,-1.0,-1.0,-1.0
1.6951622356074094e+18,0.0,0.0,0.0,0.0,-1.0,0.0,-1.0,0.0
1.6951622356074094e+18,-1.0,-1.0,1.0,-2.0,-1.0,-1.0,-1.0,-1.0
1.6951622356281736e+18,-2.0,-1.0,0.0,-2.0,-1.0,-1.0,0.0,0.0
1.6951622356281736e+18,-2.0,-1.0,-1.0,0.0,0.0,-2.0,0.0,1.0
1.6951622356297708e+18,-1.0,0.0,-1.0,0.0,0.0,0.0,-2.0,-2.0
1.6951622356297708e+18,1.0,0.0,-1.0,0.0,-1.0,0.0,-1.0,-2.0
1.6951622356420605e+18,1.0,-1.0,0.0,0.0,-1.0,-2.0,0.0,-2.0
1.6951622356420605e+18,0.0,-1.0,1.0,-1.0,-1.0,-1.0,-1.0,-1.0
1.6951622356675727e+18,-1.0,0.0,-1.0,-2.0,0.0,0.0,0.0,-1.0
1.6951622356675727e+18,0.0,-1.0,-1.0,-1.0,0.0,0.0,0.0,0.0
1.69516223566857e+18,0.0,-1.0,-2.0,0.0,0.0,0.0,-1.0,0.0
1.69516223566857e+18,-1.0,0.0,0.0,0.0,-2.0,0.0,-1.0,1.0
1.6951622356805645e+18,-1.0,-1.0,-1.0,-1.0,-1.0,-1.0,0.0,-1.0
1.6951622356815631e+18,-2.0,0.0,-1.0,-1.0,2.0,1.0,-2.0,-1.0
1.6951622356955584e+18,-1.0,-1.0,0.0,-1.0,-1.0,0.0,-1.0,-1.0
1.6951622356965548e+18,0.0,0.0,0.0,0.0,0.0,-1.0,-2.0,-1.0
1.6951622356975547e+18,0.0,-3.0,-1.0,0.0,-1.0,1.0,-2.0,0.0
1.6951622356975547e+18,-1.0,-2.0,0.0,-1.0,0.0,-1.0,1.0,0.0
1.6951622357181268e+18,-1.0,0.0,-1.0,-1.0,0.0,0.0,0.0,0.0
1.6951622357181268e+18,-1.0,-2.0,-1.0,0.0,-2.0,-1.0,-2.0,-1.0
1.6951622357201403e+18,-1.0,-1.0,0.0,-1.0,1.0,-2.0,-2.0,1.0
1.6951622357201403e+18,1.0,1.0,-3.0,-1.0,0.0,-3.0,0.0,1.0
1.695162235725571e+18,0.0,-1.0,-1.0,0.0,0.0,-3.0,-1.0,-1.0
1.695162235725571e+18,1.0,-1.0,-2.0,-1.0,-1.0,0.0,-1.0,-1.0
1.6951622357270497e+18,0.0,0.0,-1.0,0.0,-1.0,0.0,-1.0,-1.0
1.6951622357270497e+18,-2.0,-1.0,-1.0,0.0,-1.0,-1.0,-2.0,-2.0
1.695162235747542e+18,-2.0,-2.0,0.0,-1.0,-1.0,-2.0,0.0,0.0
1.6951622357485394e+18,-1.0,0.0,1.0,0.0,0.0,-1.0,0.0,-2.0
1.6951622357545364e+18,-1.0,-2.0,-2.0,-1.0,-1.0,-1.0,0.0,-1.0
1.6951622357545364e+18,-2.0,-1.0,0.0,-2.0,-1.0,0.0,-2.0,-1.0
1.695162235762543e+18,0.0,-1.0,-1.0,-1.0,-1.0,-1.0,-2.0,-3.0
1.695162235762543e+18,-2.0,-1.0,-1.0,-1.0,0.0,-2.0,-1.0,0.0
1.6951622357705408e+18,0.0,-1.0,0.0,-3.0,-1.0,0.0,0.0,-1.0
1.6951622357715405e+18,-2.0,-2.0,0.0,1.0,-1.0,0.0,-2.0,-2.0
1.6951622357855286e+18,1.0,2.0,-2.0,-2.0,-3.0,-1.0,-3.0,0.0
1.6951622357855286e+18,-1.0,-1.0,-1.0,-2.0,0.0,-2.0,0.0,0.0
1.695162235787528e+18,0.0,0.0,-1.0,-1.0,0.0,-1.0,-3.0,-1.0
1.695162235787528e+18,-1.0,-1.0,-1.0,-1.0,-2.0,0.0,1.0,0.0
1.6951622358080993e+18,-2.0,-1.0,0.0,-1.0,1.0,0.0,-2.0,-1.0
1.6951622358080993e+18,-1.0,1.0,-2.0,-2.0,-3.0,0.0,0.0,0.0
1.6951622358091062e+18,-2.0,0.0,-2.0,0.0,-2.0,-1.0,0.0,0.0
1.695162235810105e+18,0.0,-1.0,-1.0,-1.0,-1.0,-1.0,1.0,0.0
1.6951622358215398e+18,-1.0,0.0,-1.0,-1.0,-1.0,-2.0,-1.0,-1.0
1.6951622358225457e+18,-2.0,-2.0,0.0,-1.0,0.0,-1.0,-1.0,-1.0
1.6951622358305933e+18,-1.0,-2.0,1.0,-1.0,-1.0,-1.0,-1.0,-2.0
1.6951622358305933e+18,-1.0,-2.0,-2.0,-1.0,-2.0,-1.0,-2.0,0.0
1.695162235845583e+18,-2.0,-1.0,-1.0,-1.0,1.0,0.0,0.0,-2.0
1.6951622358465815e+18,-1.0,-1.0,-2.0,2.0,0.0,-1.0,0.0,-1.0
1.6951622358475804e+18,-1.0,0.0,0.0,-1.0,-1.0,-2.0,0.0,-1.0
1.6951622358475804e+18,0.0,1.0,-2.0,-1.0,-1.0,0.0,0.0,0.0
1.695162235868568e+18,-3.0,-3.0,-1.0,-1.0,-2.0,-1.0,-1.0,1.0
1.695162235868568e+18,-1.0,-1.0,0.0,-1.0,1.0,-2.0,1.0,-1.0
1.6951622358695923e+18,0.0,-1.0,-1.0,-2.0,1.0,-1.0,1.0,-1.0
1.6951622358695923e+18,-2.0,-2.0,0.0,1.0,0.0,-1.0,-1.0,-1.0
1.69516223588356e+18,0.0,2.0,0.0,-1.0,0.0,-1.0,0.0,-1.0
1.69516223588356e+18,-1.0,-2.0,-1.0,1.0,-2.0,0.0,-1.0,0.0
1.6951622358985516e+18,-1.0,-1.0,-2.0,-2.0,-2.0,-1.0,0.0,-1.0
1.6951622358985516e+18,0.0,0.0,-1.0,-2.0,1.0,-1.0,-2.0,-2.0
1.695162235906085e+18,1.0,0.0,-2.0,-1.0,0.0,0.0,0.0,-1.0
1.695162235906085e+18,-1.0,-1.0,-2.0,0.0,0.0,0.0,-2.0,-1.0
1.6951622359072714e+18,-2.0,-1.0,-1.0,-1.0,1.0,-2.0,-1.0,-1.0
1.6951622359072714e+18,0.0,-1.0,0.0,-2.0,-1.0,1.0,-1.0,0.0
1.6951622359283366e+18,0.0,-2.0,1.0,0.0,-1.0,1.0,-1.0,0.0
1.6951622359283366e+18,0.0,0.0,0.0,-2.0,-3.0,0.0,0.0,1.0
1.6951622359303357e+18,-1.0,-2.0,0.0,1.0,-1.0,0.0,0.0,0.0
1.6951622359303357e+18,-1.0,0.0,-2.0,0.0,-1.0,0.0,1.0,-2.0
1.6951622359413276e+18,-3.0,0.0,-1.0,-3.0,-1.0,0.0,-1.0,-1.0
1.6951622359423276e+18,0.0,0.0,0.0,-1.0,-1.0,-4.0,0.0,-2.0
1.695162235958318e+18,-1.0,0.0,0.0,-1.0,-1.0,-2.0,-1.0,-1.0
1.695162235958318e+18,-2.0,-2.0,0.0,-1.0,-1.0,-2.0,0.0,-1.0
1.6951622359803205e+18,0.0,1.0,-2.0,-1.0,1.0,-2.0,0.0,1.0
1.6951622359803205e+18,-1.0,-1.0,-2.0,-3.0,-1.0,1.0,-1.0,0.0
1.6951622359883041e+18,-3.0,0.0,-1.0,0.0,0.0,-1.0,-2.0,0.0
1.69516223598931e+18,0.0,0.0,-3.0,0.0,0.0,-2.0,0.0,-2.0
1.69516223598931e+18,0.0,-1.0,1.0,-1.0,-2.0,0.0,1.0,0.0
1.6951622359903027e+18,-1.0,-1.0,-2.0,-1.0,2.0,-1.0,0.0,-2.0
1.6951622359913e+18,0.0,-1.0,0.0,0.0,-2.0,-2.0,0.0,-1.0
1.6951622359913e+18,0.0,0.0,-1.0,0.0,-1.0,0.0,0.0,0.0
1.6951622360022935e+18,1.0,-2.0,-1.0,-1.0,1.0,-2.0,-2.0,-3.0
1.6951622360022935e+18,0.0,-1.0,-3.0,-1.0,0.0,-2.0,0.0,-1.0
1.695162236010289e+18,-2.0,-2.0,-1.0,-2.0,0.0,-1.0,0.0,-1.0
1.695162236011291e+18,-1.0,-1.0,-1.0,-1.0,-1.0,-1.0,0.0,-1.0
1.695162236033275e+18,-1.0,0.0,-1.0,0.0,-1.0,-2.0,-1.0,0.0
1.695162236033275e+18,0.0,0.0,0.0,-1.0,-1.0,1.0,0.0,-1.0
1.6951622360352755e+18,0.0,2.0,0.0,0.0,0.0,1.0,0.0,0.0
1.6951622360352755e+18,-1.0,-2.0,0.0,-1.0,0.0,-2.0,-2.0,-1.0
1.6951622360482685e+18,0.0,-1.0,-2.0,0.0,-2.0,0.0,0.0,-2.0
1.6951622360482685e+18,-2.0,0.0,0.0,-1.0,-1.0,-1.0,-2.0,-3.0
1.6951622360492874e+18,0.0,1.0,-1.0,-1.0,0.0,-1.0,-3.0,-1.0
1.695162236050267e+18,0.0,0.0,0.0,-2.0,-1.0,-1.0,0.0,0.0
1.6951622360612585e+18,-2.0,-1.0,0.0,-2.0,-1.0,-2.0,0.0,0.0
1.6951622360622615e+18,-2.0,-1.0,1.0,-1.0,-2.0,-2.0,-1.0,-1.0
1.6951622360712566e+18,-1.0,-1.0,-1.0,0.0,-2.0,1.0,-1.0,0.0
1.6951622360712566e+18,0.0,0.0,0.0,-1.0,-1.0,-1.0,-1.0,-2.0
1.695162236085246e+18,-1.0,-1.0,-1.0,0.0,-2.0,0.0,-1.0,-2.0
1.695162236085246e+18,-1.0,-1.0,-1.0,-2.0,-1.0,0.0,0.0,-1.0
1.6951622360912438e+18,-1.0,-2.0,-1.0,0.0,-2.0,0.0,-1.0,-2.0
1.6951622360922445e+18,0.0,-2.0,0.0,0.0,1.0,0.0,0.0,1.0
1.6951622361082324e+18,-1.0,-1.0,-1.0,0.0,-1.0,0.0,-2.0,1.0
1.6951622361082324e+18,1.0,-1.0,1.0,1.0,-2.0,-1.0,0.0,1.0
1.695162236109234e+18,0.0,1.0,-1.0,-1.0,-2.0,-1.0,0.0,-2.0
1.695162236109234e+18,-1.0,-1.0,-2.0,0.0,-1.0,0.0,-1.0,0.0
1.695162236122226e+18,-1.0,0.0,1.0,-1.0,0.0,0.0,-2.0,0.0
1.695162236122226e+18,-1.0,-3.0,-1.0,-2.0,0.0,-1.0,0.0,0.0
1.695162236138226e+18,-1.0,-2.0,-1.0,-1.0,0.0,-1.0,0.0,0.0
1.695162236138226e+18,-1.0,-2.0,-2.0,-2.0,-1.0,-1.0,-2.0,0.0
1.695162236145211e+18,-1.0,1.0,-1.0,-1.0,-1.0,-1.0,-1.0,-1.0
1.695162236145211e+18,-1.0,-1.0,-1.0,1.0,0.0,-1.0,-1.0,0.0
1.6951622361522074e+18,0.0,0.0,0.0,-2.0,1.0,0.0,1.0,-1.0
1.6951622361522074e+18,-1.0,1.0,1.0,-2.0,-1.0,-1.0,-1.0,1.0
1.6951622361711974e+18,0.0,-1.0,-1.0,0.0,-1.0,0.0,-1.0,0.0
1.6951622361721964e+18,0.0,0.0,-2.0,-1.0,-1.0,-2.0,-3.0,0.0
1.6951622361721964e+18,-1.0,-1.0,-2.0,-2.0,-2.0,0.0,-1.0,-3.0
1.6951622361731978e+18,0.0,0.0,0.0,0.0,-2.0,-1.0,-1.0,-2.0
1.695162236182191e+18,-1.0,-1.0,1.0,0.0,-2.0,-1.0,-1.0,-1.0
1.695162236182191e+18,0.0,0.0,-1.0,-1.0,0.0,0.0,0.0,0.0
1.6951622362161708e+18,0.0,-1.0,0.0,-1.0,-1.0,0.0,-3.0,-1.0
1.6951622362171712e+18,-1.0,0.0,-1.0,-1.0,-1.0,-3.0,0.0,0.0
1.6951622362171712e+18,-1.0,-2.0,0.0,-1.0,-2.0,-1.0,-1.0,-1.0
1.6951622362171712e+18,-1.0,-1.0,-2.0,-2.0,0.0,-2.0,-1.0,-2.0
1.6951622362181696e+18,0.0,-1.0,0.0,-1.0,2.0,-2.0,1.0,0.0
1.6951622362181696e+18,-1.0,1.0,-3.0,0.0,-1.0,-1.0,-1.0,-1.0
1.6951622362281636e+18,0.0,0.0,-1.0,-1.0,-1.0,-1.0,0.0,0.0
1.6951622362281636e+18,-3.0,-1.0,-1.0,-1.0,0.0,-1.0,0.0,-2.0
1.6951622362301655e+18,-2.0,0.0,-1.0,-1.0,-2.0,-1.0,-2.0,0.0
1.6951622362301655e+18,-2.0,-1.0,0.0,0.0,-1.0,-1.0,-1.0,-1.0
1.6951622362501504e+18,-1.0,-2.0,-1.0,-2.0,0.0,-1.0,-1.0,-1.0
1.6951622362511537e+18,-2.0,0.0,0.0,-1.0,0.0,0.0,0.0,-1.0
1.6951622362521503e+18,-1.0,-3.0,-1.0,-2.0,0.0,1.0,0.0,-1.0
1.6951622362521503e+18,-1.0,-1.0,0.0,-1.0,-1.0,0.0,-1.0,0.0
1.6951622362731374e+18,-1.0,-2.0,0.0,-1.0,0.0,-3.0,-1.0,-2.0
1.6951622362731374e+18,0.0,-2.0,0.0,0.0,-1.0,0.0,2.0,0.0
1.6951622362741376e+18,0.0,0.0,-1.0,1.0,0.0,-2.0,0.0,-1.0
1.6951622362751386e+18,1.0,1.0,-1.0,-2.0,0.0,-1.0,1.0,-1.0
1.6951622362881293e+18,-1.0,-1.0,0.0,-1.0,-1.0,0.0,-1.0,0.0
1.6951622362881293e+18,-1.0,0.0,-2.0,0.0,0.0,-1.0,-1.0,0.0
1.695162236290129e+18,-2.0,-1.0,-1.0,0.0,-1.0,-1.0,-2.0,-1.0
1.695162236290129e+18,0.0,-1.0,-1.0,0.0,-1.0,0.0,0.0,-2.0
1.6951622363111173e+18,0.0,0.0,-1.0,0.0,-2.0,-1.0,1.0,-1.0
1.6951622363111173e+18,1.0,-2.0,-2.0,-2.0,0.0,-1.0,-2.0,-1.0
1.695162236312118e+18,-1.0,1.0,-1.0,0.0,0.0,-1.0,-1.0,0.0
1.6951622363131187e+18,0.0,-1.0,0.0,1.0,-1.0,-1.0,0.0,-1.0
1.6951622363331044e+18,-1.0,-2.0,0.0,0.0,-1.0,-2.0,0.0,0.0
1.6951622363331044e+18,0.0,1.0,-3.0,1.0,-3.0,0.0,-2.0,0.0
1.6951622363341028e+18,-1.0,-1.0,0.0,-2.0,-2.0,-2.0,0.0,-1.0
1.6951622363351032e+18,-1.0,0.0,-1.0,-2.0,-1.0,0.0,-1.0,1.0
1.6951622363480955e+18,0.0,1.0,0.0,-2.0,0.0,0.0,0.0,0.0
1.6951622363480955e+18,-1.0,-1.0,1.0,0.0,0.0,-1.0,-2.0,-1.0
1.6951622363490962e+18,0.0,0.0,-1.0,0.0,0.0,0.0,-2.0,-2.0
1.6951622363500938e+18,-1.0,-1.0,-2.0,-1.0,-1.0,-1.0,-1.0,0.0
1.6951622363860754e+18,0.0,0.0,0.0,1.0,0.0,0.0,-1.0,0.0
1.6951622363870748e+18,-2.0,-1.0,-2.0,-1.0,0.0,-3.0,-1.0,0.0
1.695162236388073e+18,-1.0,0.0,-2.0,-1.0,-2.0,-2.0,0.0,-1.0
1.695162236388073e+18,-1.0,-2.0,-1.0,-3.0,-2.0,-3.0,0.0,-1.0
1.6951622363890724e+18,-1.0,0.0,-2.0,-1.0,-1.0,0.0,-2.0,-2.0
1.6951622363890724e+18,-1.0,-1.0,0.0,-1.0,-1.0,1.0,0.0,0.0
1.695162236393072e+18,-1.0,-1.0,-1.0,-2.0,-2.0,0.0,0.0,-1.0
1.695162236393072e+18,-1.0,-2.0,0.0,-2.0,0.0,-1.0,-1.0,0.0
1.6951622364240548e+18,-1.0,0.0,-1.0,-2.0,0.0,0.0,-1.0,0.0
1.6951622364240548e+18,-1.0,-1.0,0.0,-2.0,-1.0,-2.0,-1.0,-1.0
1.6951622364250542e+18,-1.0,-1.0,0.0,1.0,-2.0,0.0,-1.0,-3.0
1.6951622364250542e+18,-1.0,-1.0,0.0,-1.0,0.0,0.0,-2.0,0.0
1.6951622364380434e+18,0.0,-1.0,-3.0,-3.0,-1.0,0.0,-2.0,-2.0
1.6951622364390438e+18,0.0,1.0,-1.0,0.0,1.0,-2.0,0.0,0.0
1.695162236440043e+18,0.0,-1.0,-1.0,-1.0,1.0,-1.0,2.0,1.0
1.695162236440043e+18,-1.0,0.0,-1.0,0.0,-1.0,-2.0,-2.0,-1.0
1.6951622364530342e+18,0.0,-1.0,-2.0,0.0,0.0,-1.0,0.0,-1.0
1.6951622364530342e+18,0.0,-1.0,-1.0,-1.0,-1.0,-1.0,0.0,0.0
1.6951622364550351e+18,-1.0,-2.0,-1.0,-2.0,0.0,0.0,-1.0,0.0
1.6951622364550351e+18,-1.0,0.0,0.0,1.0,-1.0,0.0,-2.0,-2.0
1.6951622364810217e+18,-1.0,-1.0,0.0,0.0,0.0,0.0,0.0,0.0
1.6951622364810217e+18,0.0,-1.0,1.0,-3.0,-2.0,1.0,-3.0,-3.0
1.695162236483025e+18,0.0,0.0,0.0,-2.0,0.0,-1.0,-1.0,0.0
1.695162236483025e+18,-1.0,0.0,-1.0,0.0,-2.0,0.0,0.0,-1.0
1.6951622365150031e+18,-2.0,0.0,-1.0,-2.0,0.0,-1.0,-1.0,-1.0
1.6951622365150031e+18,-2.0,2.0,-1.0,0.0,1.0,0.0,-2.0,-1.0
1.6951622365160023e+18,-2.0,-2.0,-2.0,0.0,-2.0,-1.0,-2.0,1.0
1.6951622365160023e+18,1.0,-1.0,-1.0,-2.0,-1.0,0.0,-2.0,-2.0
1.6951622365170186e+18,-1.0,-1.0,-2.0,0.0,0.0,0.0,1.0,-1.0
1.6951622365170186e+18,-2.0,-2.0,-2.0,-1.0,0.0,0.0,1.0,-1.0
1.6951622365289915e+18,0.0,-1.0,-1.0,-2.0,0.0,1.0,0.0,0.0
1.6951622365289915e+18,-1.0,0.0,-1.0,1.0,-1.0,0.0,1.0,1.0
1.6951622365299922e+18,0.0,-2.0,0.0,-1.0,-2.0,-2.0,-1.0,0.0
1.6951622365299922e+18,-1.0,-2.0,-2.0,-2.0,-3.0,-1.0,-2.0,-1.0
1.6951622365309914e+18,-1.0,0.0,-1.0,1.0,1.0,1.0,0.0,-1.0
1.6951622365319936e+18,1.0,-2.0,-1.0,-2.0,0.0,-1.0,-1.0,-2.0
1.6951622365505132e+18,0.0,-1.0,0.0,-1.0,-2.0,-3.0,-3.0,0.0
1.6951622365505132e+18,-2.0,0.0,0.0,-2.0,0.0,-2.0,1.0,0.0
1.6951622365524884e+18,1.0,0.0,-3.0,-2.0,-1.0,-1.0,0.0,-1.0
1.6951622365524884e+18,-1.0,-2.0,-2.0,2.0,0.0,-1.0,0.0,-2.0
1.6951622365645468e+18,-1.0,-1.0,-1.0,-2.0,-1.0,2.0,-2.0,-1.0
1.6951622365645468e+18,0.0,-1.0,-1.0,0.0,-1.0,-1.0,-1.0,-1.0
1.695162236572755e+18,0.0,-1.0,0.0,-1.0,1.0,-1.0,-2.0,-1.0
1.6951622365737574e+18,-2.0,-1.0,-1.0,-2.0,-1.0,1.0,1.0,-1.0
1.6951622365877494e+18,0.0,0.0,-1.0,1.0,0.0,-1.0,0.0,-1.0
1.695162236588748e+18,-1.0,-1.0,0.0,0.0,-2.0,-1.0,0.0,-1.0
1.6951622365897457e+18,0.0,-3.0,-1.0,1.0,0.0,-1.0,-1.0,-1.0
1.6951622365897457e+18,-1.0,0.0,-1.0,-1.0,0.0,-1.0,0.0,-2.0
1.6951622366295e+18,-1.0,-1.0,-1.0,-1.0,-3.0,-2.0,-2.0,0.0
1.6951622366325e+18,0.0,-1.0,-1.0,1.0,0.0,0.0,0.0,-1.0
1.6951622366334984e+18,0.0,-2.0,-1.0,-2.0,-3.0,-2.0,-1.0,-1.0
1.6951622366334984e+18,-1.0,-1.0,1.0,-1.0,0.0,1.0,-2.0,0.0
1.6951622366334984e+18,-2.0,-1.0,-2.0,0.0,1.0,0.0,1.0,0.0
1.6951622366334984e+18,0.0,-1.0,0.0,-1.0,-2.0,-1.0,-1.0,-1.0
1.6951622366394941e+18,-1.0,0.0,0.0,-2.0,0.0,-2.0,-2.0,0.0
1.6951622366394941e+18,0.0,-1.0,0.0,-1.0,0.0,0.0,-1.0,0.0
1.6951622366484905e+18,-1.0,0.0,0.0,-2.0,0.0,0.0,-1.0,-2.0
1.6951622366484905e+18,-1.0,-2.0,0.0,2.0,2.0,-2.0,-1.0,0.0
1.6951622366494892e+18,-1.0,-1.0,-3.0,1.0,-1.0,0.0,-1.0,-2.0
1.6951622366494892e+18,-2.0,0.0,-1.0,1.0,-1.0,-2.0,0.0,0.0
1.6951622366785475e+18,-1.0,-1.0,-1.0,0.0,1.0,-2.0,-1.0,-1.0
1.6951622366785475e+18,0.0,1.0,1.0,-3.0,-1.0,0.0,0.0,-1.0
1.6951622366795668e+18,-1.0,-1.0,-2.0,-1.0,-1.0,-1.0,-2.0,-1.0
1.6951622366795668e+18,-1.0,0.0,0.0,-1.0,1.0,-2.0,-1.0,1.0
1.6951622366935347e+18,1.0,-1.0,-1.0,0.0,-1.0,0.0,0.0,-1.0
1.6951622366935347e+18,-1.0,-1.0,-1.0,-1.0,-1.0,0.0,-1.0,-2.0
1.6951622366945577e+18,0.0,0.0,1.0,0.0,-2.0,-1.0,0.0,0.0
1.6951622366945577e+18,-2.0,-2.0,-2.0,-2.0,0.0,0.0,-2.0,0.0
1.6951622367085263e+18,1.0,-1.0,0.0,-2.0,-1.0,0.0,-2.0,0.0
1.6951622367085263e+18,-1.0,-2.0,-1.0,-1.0,-2.0,-1.0,-1.0,-2.0
1.6951622367095283e+18,-1.0,0.0,1.0,-1.0,-2.0,-1.0,-1.0,-1.0
1.6951622367095283e+18,0.0,-1.0,-2.0,-1.0,-2.0,-2.0,-2.0,-3.0
1.6951622367382244e+18,-1.0,-1.0,-1.0,-1.0,0.0,-1.0,0.0,-2.0
1.6951622367382244e+18,-1.0,-1.0,-1.0,-2.0,-1.0,-2.0,-1.0,1.0
1.695162236739673e+18,-1.0,0.0,0.0,0.0,-1.0,-1.0,1.0,-1.0
1.695162236739673e+18,0.0,-1.0,0.0,-2.0,-3.0,-1.0,0.0,-2.0
1.6951622367442002e+18,0.0,0.0,2.0,-2.0,0.0,-2.0,0.0,-2.0
1.6951622367442002e+18,0.0,0.0,-1.0,0.0,0.0,0.0,0.0,0.0
1.6951622367535777e+18,0.0,0.0,1.0,0.0,0.0,0.0,-4.0,-2.0
1.6951622367535777e+18,0.0,0.0,-1.0,-2.0,0.0,0.0,0.0,-1.0
1.6951622367762545e+18,-1.0,-2.0,-2.0,0.0,-2.0,0.0,1.0,1.0
1.6951622367762545e+18,0.0,-2.0,-1.0,-1.0,0.0,-1.0,-1.0,-1.0
1.6951622367772529e+18,-2.0,0.0,-2.0,0.0,-2.0,-1.0,-1.0,0.0
1.6951622367772529e+18,1.0,0.0,-2.0,0.0,-2.0,-1.0,-2.0,0.0
1.695162236791253e+18,-1.0,-1.0,-1.0,-1.0,0.0,1.0,-2.0,-1.0
1.695162236791253e+18,0.0,0.0,-1.0,0.0,-1.0,-1.0,-2.0,1.0
1.6951622367922473e+18,0.0,-3.0,-1.0,0.0,0.0,-1.0,0.0,1.0
1.6951622367922473e+18,-1.0,-2.0,1.0,-1.0,-1.0,-1.0,-1.0,0.0
1.6951622368042373e+18,1.0,0.0,-3.0,1.0,-2.0,-2.0,0.0,0.0
1.6951622368042373e+18,-1.0,0.0,0.0,1.0,-1.0,-1.0,-1.0,-2.0
1.6951622368132959e+18,-1.0,0.0,0.0,-1.0,-1.0,0.0,0.0,-1.0
1.6951622368132959e+18,-2.0,-1.0,0.0,-2.0,1.0,-1.0,1.0,1.0
1.6951622368283018e+18,0.0,0.0,-3.0,-2.0,0.0,0.0,-1.0,0.0
1.695162236829303e+18,-1.0,-1.0,-3.0,-2.0,-2.0,0.0,-1.0,-1.0
1.695162236829303e+18,1.0,-1.0,0.0,-1.0,-1.0,-2.0,0.0,0.0
1.6951622368302986e+18,-1.0,0.0,1.0,-1.0,-1.0,0.0,0.0,0.0
1.695162236857282e+18,-1.0,-1.0,0.0,0.0,-2.0,0.0,-1.0,1.0
1.695162236857282e+18,0.0,-1.0,0.0,0.0,-1.0,0.0,-1.0,-2.0
1.6951622368662781e+18,-1.0,-2.0,0.0,0.0,1.0,0.0,-1.0,-1.0
1.6951622368662781e+18,2.0,-1.0,-2.0,1.0,0.0,-1.0,-2.0,0.0
1.6951622368672773e+18,-1.0,0.0,0.0,-1.0,0.0,-3.0,-1.0,-1.0
1.6951622368672773e+18,0.0,0.0,-2.0,-2.0,1.0,-1.0,1.0,2.0
1.695162236879232e+18,0.0,-1.0,-2.0,-2.0,-1.0,0.0,0.0,-1.0
1.695162236879232e+18,-1.0,0.0,-1.0,0.0,0.0,-1.0,-1.0,0.0
1.6951622368884457e+18,0.0,-3.0,0.0,-3.0,-3.0,0.0,-1.0,-1.0
1.6951622368884457e+18,-2.0,-1.0,0.0,-1.0,-1.0,-2.0,0.0,-1.0
1.695162236889445e+18,-2.0,-1.0,-1.0,-1.0,1.0,0.0,-1.0,-1.0
1.695162236889445e+18,-1.0,0.0,-2.0,-1.0,-2.0,-1.0,-1.0,-2.0
1.6951622369129966e+18,0.0,0.0,-1.0,-1.0,0.0,-1.0,0.0,0.0
1.6951622369139968e+18,1.0,-1.0,-1.0,-2.0,-1.0,1.0,0.0,0.0
1.6951622369139968e+18,-1.0,1.0,-1.0,-1.0,-2.0,0.0,0.0,0.0
1.6951622369139968e+18,-1.0,-1.0,-1.0,1.0,0.0,-1.0,-1.0,-4.0
1.6951622369239974e+18,-2.0,-2.0,-2.0,1.0,-3.0,-2.0,-2.0,-2.0
1.6951622369249892e+18,0.0,-3.0,-2.0,-1.0,-3.0,-2.0,-2.0,-3.0
1.6951622369409713e+18,-2.0,-2.0,-1.0,-1.0,-4.0,-1.0,-2.0,-3.0
1.6951622369409713e+18,-2.0,-3.0,-3.0,-2.0,-3.0,-1.0,-2.0,-2.0
1.6951622369474012e+18,0.0,-1.0,-3.0,-1.0,-2.0,0.0,-1.0,-2.0
1.6951622369474012e+18,-2.0,-1.0,0.0,-1.0,0.0,-2.0,-2.0,-1.0
1.6951622369545754e+18,-3.0,-1.0,-2.0,0.0,-1.0,-2.0,-2.0,-1.0
1.6951622369545754e+18,-1.0,-1.0,-2.0,-1.0,-1.0,-3.0,-1.0,-1.0
1.6951622369710065e+18,-2.0,-1.0,0.0,-1.0,-2.0,-1.0,-1.0,-1.0
1.6951622369710065e+18,-2.0,-1.0,-1.0,-1.0,2.0,0.0,-2.0,-3.0
1.6951622369720054e+18,0.0,-1.0,-1.0,-11.0,-12.0,-5.0,-1.0,-2.0
1.6951622369730084e+18,0.0,0.0,-5.0,5.0,11.0,3.0,1.0,-1.0
1.6951622369935754e+18,-1.0,-6.0,-2.0,-4.0,-10.0,-5.0,0.0,-1.0
1.6951622369935754e+18,-2.0,-7.0,-17.0,-1.0,4.0,2.0,-2.0,-3.0
1.6951622369945774e+18,-4.0,1.0,5.0,-4.0,-2.0,-12.0,-4.0,-2.0
1.6951622369955745e+18,0.0,6.0,16.0,-2.0,-6.0,-4.0,0.0,1.0
1.6951622370095885e+18,1.0,1.0,2.0,-5.0,-2.0,16.0,2.0,-1.0
1.6951622370095885e+18,-1.0,2.0,6.0,-1.0,0.0,3.0,2.0,1.0
1.6951622370145628e+18,0.0,11.0,2.0,1.0,8.0,3.0,0.0,-3.0
1.6951622370145628e+18,-4.0,-21.0,-22.0,-6.0,7.0,1.0,-2.0,-1.0
1.6951622370302057e+18,-4.0,1.0,2.0,8.0,4.0,-6.0,-3.0,-2.0
1.6951622370302057e+18,1.0,1.0,1.0,3.0,-5.0,-4.0,-1.0,1.0
1.6951622370322235e+18,-2.0,-6.0,-1.0,-2.0,0.0,-1.0,-3.0,-1.0
1.6951622370322235e+18,-1.0,5.0,4.0,1.0,-14.0,-13.0,-4.0,-2.0
1.695162237053529e+18,-1.0,-2.0,-5.0,-19.0,-20.0,-7.0,-5.0,-1.0
1.695162237053529e+18,-2.0,-4.0,-10.0,-8.0,8.0,-6.0,-2.0,-1.0
1.6951622370545293e+18,1.0,-1.0,4.0,12.0,-17.0,-17.0,0.0,-3.0
1.6951622370545293e+18,0.0,1.0,0.0,7.0,21.0,33.0,7.0,3.0
1.6951622370680092e+18,-1.0,-2.0,-2.0,5.0,22.0,11.0,6.0,1.0
1.695162237069015e+18,3.0,6.0,12.0,-6.0,-17.0,0.0,3.0,2.0
1.695162237075007e+18,1.0,-2.0,-7.0,-16.0,-8.0,21.0,-1.0,1.0
1.6951622370760123e+18,1.0,0.0,3.0,19.0,28.0,-14.0,-1.0,-1.0
1.695162237097994e+18,0.0,-1.0,-2.0,-1.0,-2.0,15.0,1.0,-2.0
1.6951622370989934e+18,-4.0,-5.0,0.0,-1.0,-6.0,-24.0,-5.0,-2.0
1.695162237108988e+18,-4.0,-5.0,-1.0,4.0,-20.0,-23.0,-9.0,-4.0
1.695162237108988e+18,-2.0,1.0,0.0,-18.0,-31.0,-14.0,-1.0,-4.0
1.695162237109985e+18,0.0,-1.0,-2.0,8.0,28.0,29.0,5.0,2.0
1.695162237109985e+18,0.0,-3.0,-4.0,2.0,2.0,2.0,-5.0,-3.0
1.6951622371149832e+18,-3.0,-8.0,-10.0,-16.0,-16.0,-25.0,-19.0,-3.0
1.6951622371159908e+18,2.0,4.0,2.0,0.0,-13.0,-52.0,15.0,3.0
1.6951622371399926e+18,4.0,7.0,5.0,7.0,24.0,67.0,17.0,3.0
1.695162237145964e+18,-4.0,-1.0,3.0,0.0,-5.0,-11.0,-46.0,-14.0
1.6951622371469668e+18,2.0,3.0,1.0,3.0,1.0,14.0,60.0,23.0
1.6951622371469668e+18,-1.0,3.0,2.0,9.0,37.0,48.0,7.0,-4.0
1.695162237157956e+18,-6.0,-10.0,-9.0,1.0,-21.0,-41.0,-26.0,-4.0
1.6951622371589617e+18,1.0,1.0,-3.0,-5.0,-2.0,1.0,31.0,5.0
1.695162237159956e+18,1.0,4.0,3.0,8.0,-3.0,-5.0,-23.0,-8.0
1.695162237159956e+18,-2.0,1.0,-2.0,-9.0,-19.0,-22.0,13.0,5.0
1.6951622371729536e+18,-2.0,-5.0,-4.0,-12.0,-27.0,-19.0,-23.0,-3.0
1.6951622371739474e+18,-2.0,-1.0,2.0,3.0,29.0,53.0,1.0,-1.0
1.695162237174948e+18,5.0,7.0,1.0,11.0,18.0,-23.0,-7.0,2.0
1.695162237174948e+18,-2.0,-6.0,-2.0,-17.0,-9.0,33.0,-12.0,-2.0
1.695162237187941e+18,-1.0,9.0,6.0,10.0,2.0,-28.0,-21.0,-9.0
1.6951622371889446e+18,-2.0,-9.0,-4.0,9.0,19.0,-16.0,23.0,11.0
1.6951622371949425e+18,-2.0,1.0,-3.0,-6.0,-11.0,20.0,44.0,-5.0
1.6951622371949425e+18,0.0,-1.0,-5.0,-13.0,-18.0,-33.0,-45.0,-10.0
1.6951622372209219e+18,2.0,-2.0,-2.0,-5.0,15.0,9.0,53.0,8.0
1.6951622372209219e+18,2.0,4.0,3.0,5.0,-1.0,20.0,13.0,3.0
1.6951622372219238e+18,1.0,-1.0,2.0,12.0,26.0,32.0,26.0,-3.0
1.6951622372229204e+18,-3.0,-2.0,-3.0,-13.0,-25.0,-15.0,-20.0,0.0
1.695162237233913e+18,-1.0,-1.0,-2.0,4.0,-12.0,-36.0,-11.0,-4.0
1.6951622372349138e+18,0.0,-1.0,-1.0,-1.0,-8.0,1.0,-4.0,2.0
1.6951622372359224e+18,-6.0,-9.0,-8.0,-5.0,14.0,-1.0,-25.0,-10.0
1.6951622372359224e+18,2.0,0.0,-1.0,2.0,-10.0,4.0,3.0,1.0
1.6951622372559007e+18,-2.0,0.0,6.0,6.0,2.0,-8.0,-4.0,0.0
1.6951622372569006e+18,-1.0,0.0,-19.0,-29.0,-16.0,-16.0,-14.0,-2.0
1.6951622372569006e+18,-3.0,-2.0,7.0,18.0,-8.0,-24.0,-46.0,-7.0
1.6951622372579008e+18,1.0,0.0,11.0,15.0,19.0,19.0,30.0,10.0
1.6951622372708925e+18,0.0,4.0,0.0,10.0,27.0,40.0,3.0,3.0
1.695162237271899e+18,-1.0,-6.0,0.0,-2.0,-5.0,1.0,9.0,4.0
1.6951622372728922e+18,-7.0,-4.0,-6.0,-9.0,-6.0,-27.0,-75.0,-10.0
1.6951622372728922e+18,0.0,-3.0,-3.0,0.0,-2.0,13.0,61.0,7.0
1.6951622373068813e+18,1.0,-1.0,-3.0,-5.0,-16.0,-31.0,-18.0,0.0
1.695162237307876e+18,1.0,5.0,15.0,19.0,1.0,29.0,1.0,-6.0
1.6951622373298588e+18,1.0,2.0,-3.0,-23.0,10.0,15.0,-10.0,-2.0
1.6951622373308585e+18,-4.0,-6.0,-10.0,13.0,11.0,-14.0,-27.0,-5.0
1.695162237348849e+18,-2.0,-2.0,6.0,-7.0,2.0,-4.0,24.0,-6.0
1.6951622373498476e+18,-1.0,0.0,-9.0,-8.0,-19.0,-26.0,-29.0,-1.0
1.6951622373508475e+18,-2.0,-5.0,6.0,5.0,5.0,5.0,10.0,-6.0
1.6951622373508475e+18,-1.0,-1.0,-13.0,-12.0,-17.0,-5.0,-14.0,4.0
1.6951622373508475e+18,0.0,-2.0,-2.0,-7.0,4.0,10.0,3.0,0.0
1.6951622373508475e+18,-1.0,1.0,1.0,8.0,1.0,-17.0,-42.0,-8.0
1.695162237361841e+18,-4.0,-6.0,-7.0,-14.0,-4.0,-22.0,-73.0,-7.0
1.6951622373628447e+18,3.0,-3.0,1.0,0.0,-1.0,9.0,53.0,10.0
1.6951622373638397e+18,-2.0,-1.0,1.0,7.0,-3.0,11.0,19.0,7.0
1.6951622373648497e+18,2.0,3.0,0.0,-2.0,11.0,5.0,-6.0,-1.0
1.6951622373688614e+18,-7.0,-4.0,-7.0,-10.0,-7.0,-10.0,-2.0,-12.0
1.6951622373818322e+18,-2.0,1.0,2.0,11.0,-4.0,1.0,1.0,6.0
1.6951622374238047e+18,4.0,14.0,-15.0,-11.0,0.0,-4.0,-11.0,-4.0
1.6951622374238047e+18,-2.0,-4.0,2.0,4.0,-2.0,-5.0,-5.0,-7.0
1.6951622374248046e+18,2.0,-2.0,-4.0,-15.0,-30.0,-10.0,5.0,6.0
1.6951622374248046e+18,-8.0,-17.0,13.0,16.0,15.0,3.0,12.0,-6.0
1.6951622374577894e+18,1.0,-18.0,2.0,-6.0,9.0,26.0,30.0,10.0
1.6951622374577894e+18,-2.0,-5.0,-1.0,-1.0,-6.0,-11.0,-41.0,-10.0
1.6951622374747758e+18,6.0,21.0,-8.0,-10.0,-3.0,3.0,-14.0,13.0
1.6951622374747758e+18,0.0,-10.0,0.0,-6.0,-6.0,3.0,28.0,-2.0
1.695162237475776e+18,6.0,3.0,-3.0,-2.0,-13.0,-21.0,-28.0,-5.0
1.695162237475776e+18,4.0,4.0,8.0,11.0,10.0,18.0,20.0,-3.0
1.6951622374767795e+18,2.0,24.0,-8.0,0.0,2.0,-7.0,-21.0,-5.0
1.6951622374777792e+18,-7.0,-27.0,-1.0,-7.0,-2.0,8.0,15.0,8.0
1.6951622374957637e+18,-4.0,3.0,2.0,16.0,3.0,6.0,16.0,4.0
1.6951622374957637e+18,-2.0,-6.0,-1.0,-4.0,0.0,-26.0,-40.0,-12.0
1.695162237525749e+18,-6.0,-12.0,1.0,-2.0,15.0,2.0,21.0,-5.0
1.695162237527746e+18,0.0,22.0,-25.0,-30.0,-27.0,-14.0,-17.0,-8.0
1.6951622375357412e+18,-11.0,-45.0,2.0,-5.0,-11.0,-18.0,-7.0,2.0
1.6951622375357412e+18,4.0,14.0,10.0,20.0,11.0,14.0,-9.0,-7.0
1.6951622375367406e+18,-4.0,-16.0,-1.0,1.0,2.0,-3.0,5.0,-9.0
1.6951622375367406e+18,4.0,24.0,-1.0,-12.0,-18.0,5.0,21.0,6.0
1.695162237547752e+18,-10.0,-40.0,9.0,5.0,-8.0,-13.0,-22.0,-8.0
1.6951622375487327e+18,-3.0,-4.0,-4.0,-1.0,16.0,-3.0,-7.0,-5.0
1.695162237549734e+18,3.0,3.0,-6.0,-1.0,11.0,14.0,24.0,5.0
1.695162237549734e+18,-1.0,-4.0,0.0,1.0,-4.0,-19.0,-12.0,-5.0
1.6951622375557281e+18,2.0,3.0,-5.0,-2.0,1.0,11.0,15.0,11.0
1.6951622375557281e+18,-2.0,-1.0,1.0,2.0,14.0,11.0,5.0,2.0
1.6951622376007022e+18,0.0,10.0,13.0,21.0,1.0,-5.0,-21.0,-7.0
1.6951622376007022e+18,-6.0,-11.0,-19.0,-20.0,-1.0,11.0,49.0,10.0
1.695162237612696e+18,4.0,16.0,-3.0,-8.0,-6.0,2.0,9.0,2.0
1.6951622376166935e+18,2.0,-3.0,-5.0,-1.0,-11.0,-1.0,3.0,6.0
1.6951622376166935e+18,1.0,-11.0,7.0,7.0,17.0,23.0,39.0,10.0
1.6951622376166935e+18,0.0,6.0,3.0,2.0,-4.0,-37.0,-46.0,-18.0
1.6951622376536722e+18,-6.0,-11.0,2.0,3.0,-4.0,7.0,17.0,-6.0
1.6951622376566705e+18,-2.0,15.0,-9.0,-12.0,-3.0,0.0,2.0,-4.0
1.695162237660669e+18,3.0,10.0,-3.0,-5.0,-2.0,1.0,5.0,-1.0
1.695162237661672e+18,0.0,-10.0,12.0,17.0,2.0,-5.0,-41.0,-10.0
1.6951622376626673e+18,2.0,-6.0,-2.0,-9.0,-4.0,2.0,15.0,15.0
1.6951622376626673e+18,-5.0,-6.0,-4.0,5.0,12.0,10.0,18.0,-6.0
1.695162237668665e+18,-4.0,-3.0,1.0,-2.0,-6.0,-16.0,-25.0,-15.0
1.695162237668665e+18,-1.0,-4.0,1.0,0.0,-10.0,-10.0,-8.0,6.0
1.6951622376706632e+18,2.0,-1.0,7.0,-1.0,-3.0,7.0,29.0,-10.0
1.6951622376706632e+18,1.0,3.0,2.0,4.0,8.0,3.0,15.0,-3.0
1.6951622377155748e+18,-11.0,1.0,-4.0,-2.0,4.0,5.0,-38.0,1.0
1.6951622377155748e+18,9.0,-5.0,12.0,10.0,-6.0,-9.0,1.0,9.0
1.6951622377155748e+18,3.0,6.0,-20.0,-13.0,-4.0,15.0,39.0,20.0
1.6951622377165763e+18,-5.0,-12.0,11.0,10.0,9.0,-8.0,-81.0,-12.0
1.6951622377205686e+18,1.0,12.0,19.0,9.0,-7.0,-6.0,-9.0,-9.0
1.6951622377205686e+18,-5.0,-1.0,-16.0,-11.0,8.0,-7.0,3.0,-11.0
1.6951622377215698e+18,-2.0,-12.0,-15.0,-17.0,-13.0,2.0,33.0,25.0
1.6951622377215698e+18,-4.0,1.0,11.0,14.0,2.0,9.0,26.0,-6.0
1.6951622377744712e+18,-4.0,-13.0,12.0,9.0,3.0,-24.0,-51.0,-24.0
1.6951622377744712e+18,0.0,-24.0,-1.0,-6.0,5.0,17.0,9.0,15.0
1.6951622377764608e+18,3.0,13.0,-7.0,-3.0,-2.0,-10.0,-9.0,-5.0
1.6951622377764608e+18,-4.0,-4.0,-4.0,-11.0,-8.0,1.0,24.0,-2.0
1.6951622377764608e+18,-3.0,8.0,8.0,11.0,7.0,0.0,-29.0,-15.0
1.6951622377764608e+18,0.0,3.0,-9.0,-7.0,2.0,11.0,-7.0,11.0
1.6951622377985193e+18,6.0,-6.0,4.0,1.0,1.0,7.0,20.0,23.0
1.6951622377985193e+18,-6.0,-13.0,-6.0,-6.0,-5.0,3.0,6.0,-11.0
1.6951622377995185e+18,3.0,9.0,7.0,10.0,5.0,15.0,23.0,22.0
1.6951622378005225e+18,-1.0,10.0,-13.0,-12.0,-12.0,-14.0,8.0,-17.0
1.695162237802517e+18,-2.0,-28.0,-7.0,-11.0,2.0,33.0,23.0,22.0
1.695162237802517e+18,2.0,6.0,9.0,8.0,-5.0,5.0,5.0,-2.0
1.6951622378115105e+18,1.0,-6.0,-11.0,-16.0,0.0,-2.0,-5.0,5.0
1.6951622378115105e+18,-1.0,5.0,9.0,9.0,2.0,0.0,3.0,-1.0
1.695162237848493e+18,-4.0,-4.0,1.0,-1.0,-3.0,-4.0,11.0,-3.0
1.69516223784949e+18,-3.0,15.0,-3.0,8.0,-10.0,-7.0,3.0,-3.0
1.69516223784949e+18,2.0,-4.0,13.0,-5.0,10.0,10.0,6.0,4.0
1.69516223784949e+18,2.0,8.0,0.0,6.0,0.0,17.0,19.0,8.0
1.695162237887471e+18,-4.0,-6.0,-3.0,1.0,-4.0,-10.0,-13.0,-11.0
1.695162237887471e+18,-2.0,-3.0,-11.0,-19.0,-7.0,-3.0,4.0,-1.0
1.6951622378884685e+18,-1.0,0.0,6.0,11.0,19.0,9.0,-2.0,-1.0
1.6951622378894666e+18,0.0,0.0,-3.0,-11.0,-5.0,5.0,2.0,4.0
1.6951622378904676e+18,3.0,13.0,3.0,18.0,11.0,-1.0,1.0,2.0
1.6951622378904676e+18,1.0,4.0,-5.0,-10.0,-9.0,-3.0,-2.0,-4.0
1.695162237940438e+18,3.0,14.0,-8.0,5.0,-11.0,-3.0,0.0,1.0
1.695162237940438e+18,-2.0,-4.0,6.0,5.0,8.0,-1.0,4.0,-1.0
1.695162237941437e+18,0.0,2.0,0.0,-11.0,-6.0,-3.0,-4.0,-4.0
1.695162237941437e+18,0.0,2.0,0.0,13.0,4.0,3.0,6.0,1.0
1.6951622380144284e+18,-2.0,-1.0,-2.0,-10.0,-5.0,-3.0,-2.0,0.0
1.6951622380154573e+18,-3.0,-7.0,5.0,4.0,1.0,0.0,-2.0,-4.0
1.6951622380154573e+18,-1.0,7.0,0.0,8.0,1.0,-2.0,-7.0,0.0
1.6951622380154573e+18,-1.0,-6.0,-8.0,-13.0,-4.0,-2.0,-7.0,1.0
1.69516223801688e+18,-1.0,1.0,2.0,5.0,-3.0,-5.0,-6.0,-2.0
1.69516223801688e+18,3.0,0.0,-4.0,-10.0,-11.0,-9.0,-8.0,-1.0
