timestamp,left_data_Ac_X,left_data_Ac_Y,left_data_Ac_Z,left_data_Gy_X,left_data_Gy_Y,left_data_Gy_Z,left_data_flex_1,left_data_flex_2,left_data_flex_3,left_data_flex_4,left_data_flex_5,right_data_Ac_X,right_data_Ac_Y,right_data_Ac_Z,right_data_Gy_X,right_data_Gy_Y,right_data_Gy_Z,right_data_flex_1,right_data_flex_2,right_data_flex_3,right_data_flex_4,right_data_flex_5
1695162227200564900,-9.065644264,-1.978807688,-0.791283667,-0.03543951,0.046897396,0.10285452,1,18,3,22,9,-8.633491516,3.963600874,0.659602582,0.038637057,-0.045964777,-0.006794794,-69,-43,-28,16,155
1695162227201564900,-9.06803894,-1.988384485,-0.791283667,-0.03996937,0.047430322,0.098724343,-1,19,8,19,8,-8.63109684,3.964797974,0.661996782,0.039169986,-0.046364475,-0.005196018,-61,-43,-28,16,153
1695162227202564900,-9.070432663,-1.995567083,-0.790086567,-0.043033689,0.047963247,0.095926493,-1,17,0,19,8,-8.633491516,3.967192173,0.661996782,0.039836142,-0.047030624,-0.003597243,-61,-49,-27,15,152
1695162227203564900,-9.076418877,-2.003946781,-0.787692368,-0.045831546,0.049029093,0.092995405,-1,22,5,18,9,-8.632294655,3.969586372,0.661996782,0.040369064,-0.047563553,-0.001865237,-63,-44,-24,17,154
1695162227204564900,-9.080010414,-2.013523579,-0.785298169,-0.048762634,0.050361406,0.089931086,-1,21,4,20,10,-8.629899979,3.971980572,0.659602582,0.04103522,-0.048229709,-0.000133231,-50,-46,-29,12,156
1695162227267526900,-9.18894577,-2.15597868,-0.776918471,-0.028644716,0.095793262,0.033174578,-1,18,0,13,8,-8.602366447,3.965995073,0.586579442,0.057289433,-0.063817769,0.041701376,-62,-49,-25,15,154
1695162227268526900,-9.18894577,-2.15597868,-0.772130072,-0.025313934,0.095926493,0.028911179,-1,21,4,13,8,-8.603564262,3.963600874,0.581790984,0.057822358,-0.064483918,0.043566614,-65,-48,-29,15,153
1695162227269526900,-9.191340446,-2.15358448,-0.768538773,-0.022116385,0.095393561,0.024514547,0,19,4,19,7,-8.601169586,3.961206675,0.581790984,0.058222052,-0.065016843,0.044765696,-62,-47,-27,11,154
1695162227270526900,-9.198522568,-2.149993181,-0.760159016,-0.019318528,0.094727404,0.019984685,1,19,-3,22,9,-8.604761124,3.960009575,0.578199685,0.058754977,-0.065683,0.046497703,-63,-41,-29,15,156
1695162227271526900,-9.205705643,-2.141613483,-0.751779318,-0.01718683,0.094061248,0.015321592,-1,19,1,18,7,-8.609549522,3.952826977,0.569819987,0.059687596,-0.066482387,0.048629403,-63,-45,-25,16,157
1695162227308525200,-9.217676163,-1.952471495,-0.689530075,-0.049295556,0.067281775,-0.06115314,-1,19,0,19,3,-8.596381187,3.928884983,0.539892495,0.046630934,-0.047030624,0.055424199,-62,-47,-26,16,153
1695162227309525200,-9.217676163,-1.945288897,-0.685938776,-0.052093416,0.066482387,-0.062751912,-1,18,-1,15,7,-8.59278965,3.925293684,0.539892495,0.045032158,-0.045565084,0.055290964,-61,-45,-27,16,153
1695162227310525200,-9.214085579,-1.934514999,-0.683544576,-0.056490045,0.065416537,-0.065150075,-1,18,1,13,9,-8.590395927,3.921702385,0.538695395,0.043300152,-0.044099543,0.055290964,-62,-45,-23,14,157
1695162227311525200,-9.21528244,-1.924938202,-0.681150377,-0.060753446,0.064217456,-0.067281775,-1,17,4,18,8,-8.585607529,3.916913986,0.535104096,0.041834611,-0.043166921,0.055290964,-63,-48,-24,15,156
1695162227312525200,-9.214085579,-1.918952703,-0.681150377,-0.065283306,0.063018374,-0.068880551,-1,22,0,20,7,-8.58081913,3.912125587,0.535104096,0.040369064,-0.041967839,0.055424199,-60,-45,-28,15,156
1695162227345480800,-9.165003777,-1.939303398,-0.663193882,-0.100456357,0.037704438,-0.050094947,-1,18,3,16,9,-8.570044518,3.854664803,0.533906996,0.042234302,-0.040502299,0.067548238,-62,-48,-29,14,154
1695162227346480800,-9.161413193,-1.941697598,-0.664390981,-0.098724343,0.036771823,-0.048096478,0,17,0,16,8,-8.573636055,3.852270603,0.529118598,0.042900458,-0.040635526,0.068081163,-60,-44,-29,13,154
1695162227347480800,-9.157821655,-1.947683096,-0.67037648,-0.096725874,0.035705972,-0.045964777,-1,18,-1,15,11,-8.577227592,3.849876404,0.529118598,0.043566614,-0.040635526,0.068480857,-66,-47,-27,13,155
1695162227348480800,-9.156624794,-1.947683096,-0.671573579,-0.094460949,0.034773353,-0.044099543,-2,19,4,19,8,-8.576030731,3.848679304,0.530315697,0.044099543,-0.040369064,0.069013782,-63,-46,-28,17,153
1695162227349480800,-9.151836395,-1.950077295,-0.671573579,-0.092196018,0.033840735,-0.042500768,-2,17,1,17,7,-8.579621315,3.849876404,0.532709897,0.044499233,-0.040369064,0.069280244,-61,-45,-23,15,153
1695162227382459800,-9.162610054,-1.908178806,-0.739808321,-0.08513476,0.0042634,-0.047830015,-1,19,0,18,8,-8.576030731,3.82593441,0.535104096,0.046630934,-0.020251149,0.071411945,-60,-44,-27,15,156
1695162227383459800,-9.160215378,-1.908178806,-0.738611221,-0.086067379,0.003730475,-0.048629403,0,20,-1,20,9,-8.578424454,3.828328609,0.538695395,0.046630934,-0.018918836,0.071278714,-62,-48,-27,16,156
1695162227384459800,-9.160215378,-1.909375906,-0.735019922,-0.086999997,0.003464012,-0.049562022,-1,17,4,16,7,-8.578424454,3.82713151,0.541089594,0.046364475,-0.017852986,0.071278714,-60,-47,-28,16,156
1695162227385459800,-9.159018517,-1.908178806,-0.738611221,-0.08753293,0.003464012,-0.050228179,-1,22,3,19,3,-8.578424454,3.821146011,0.541089594,0.046364475,-0.016653905,0.071012251,-63,-44,-29,16,156
1695162227386459800,-9.159018517,-1.910573006,-0.741005421,-0.087932616,0.003597243,-0.050761104,-1,23,1,18,8,-8.577227592,3.818751812,0.541089594,0.04623124,-0.015588055,0.07087902,-60,-45,-25,15,154
1695162227417463400,-9.194931984,-1.895010591,-0.758961916,-0.062352221,0.010392036,-0.044366002,-1,19,1,19,8,-8.591592789,3.79600668,0.569819987,0.032508422,-0.007194487,0.055290964,-61,-44,-23,16,156
1695162227418463400,-9.194931984,-1.886630893,-0.756567717,-0.060886677,0.009725881,-0.043833077,0,20,0,16,7,-8.591592789,3.79241538,0.572214186,0.031442571,-0.007061256,0.053692192,-65,-47,-32,14,152
1695162227419463400,-9.194931984,-1.879448295,-0.752976418,-0.059687596,0.009059724,-0.043433387,-1,20,5,22,10,-8.593987465,3.787626982,0.575805485,0.030376723,-0.006661562,0.051960181,-63,-47,-24,16,160
1695162227420463400,-9.194931984,-1.875856996,-0.750582218,-0.058621746,0.008260337,-0.042900458,-1,20,5,22,8,-8.595184326,3.785232782,0.573411286,0.029310873,-0.005995406,0.050228179,-60,-39,-28,15,157
1695162227421463400,-9.192537308,-1.871068597,-0.750582218,-0.057822358,0.007194487,-0.042500768,-1,23,7,20,5,-8.598775864,3.787626982,0.568622887,0.028378254,-0.005462481,0.048496172,-62,-48,-23,14,153
1695162227459415800,-9.1326828,-1.82198751,-0.773327172,-0.059554365,-0.005995406,-0.035173047,2,22,1,17,9,-8.616731644,3.82473731,0.591367841,0.030243492,0.001332312,0.023448698,-62,-43,-29,16,152
1695162227460415800,-9.1326828,-1.818396211,-0.773327172,-0.059554365,-0.006128637,-0.034640122,1,21,4,18,8,-8.614337921,3.82713151,0.59256494,0.030776417,0.00106585,0.022915773,-66,-49,-30,16,156
1695162227461415800,-9.131484985,-1.818396211,-0.774524271,-0.059687596,-0.006528331,-0.034107197,-1,19,0,20,8,-8.616731644,3.829525709,0.59495914,0.03130934,0.000799387,0.022649311,-63,-45,-33,17,154
1695162227462415800,-9.135076523,-1.814804912,-0.78050977,-0.059820827,-0.007194487,-0.033441041,-1,20,4,20,8,-8.616731644,3.834314108,0.591367841,0.031709034,0.000666156,0.022249617,-60,-45,-25,16,154
1695162227463415800,-9.13866806,-1.811213613,-0.78170687,-0.059954058,-0.007727412,-0.032641653,-1,17,5,20,9,-8.622717857,3.839102507,0.59256494,0.031975497,0.000266462,0.022116385,-60,-37,-25,17,156
1695162227497417500,-9.133879662,-1.82079041,-0.81642276,-0.062352221,-0.012656967,-0.007993874,-1,21,-1,20,7,-8.633491516,3.8642416,0.55904609,0.037704438,-0.008393568,0.031176111,-62,-39,-28,15,154
1695162227498417500,-9.1326828,-1.823184609,-0.815225661,-0.062218986,-0.013056661,-0.006794794,-1,21,6,19,7,-8.635885239,3.867832899,0.55784899,0.038370594,-0.008526799,0.031709034,-62,-47,-29,16,152
1695162227499417500,-9.135076523,-1.823184609,-0.821211159,-0.062352221,-0.013589587,-0.005862175,0,22,3,19,8,-8.639476776,3.871424198,0.55784899,0.039169986,-0.008793262,0.03237519,-63,-43,-28,17,155
1695162227500417500,-9.136273384,-1.825578809,-0.825999558,-0.062352221,-0.014122511,-0.004529862,-4,17,1,20,4,-8.640673637,3.873818398,0.565031588,0.03956968,-0.008926493,0.032641653,-61,-44,-21,17,153
1695162227501417500,-9.13866806,-1.826775908,-0.827196658,-0.062352221,-0.014388974,-0.003863706,-2,19,3,17,9,-8.639476776,3.873818398,0.571017087,0.040235836,-0.008926493,0.033307809,-63,-45,-29,16,155
1695162227535374200,-9.135076523,-1.848323703,-0.840364814,-0.074476264,-0.013323124,0.011457887,-3,17,4,20,7,-8.63109684,3.898957491,0.574608386,0.045431852,-0.011990812,0.039836142,-60,-46,-27,15,156
1695162227536374200,-9.131484985,-1.848323703,-0.839167714,-0.07500919,-0.012656967,0.012790199,-1,19,2,16,7,-8.632294655,3.900154591,0.575805485,0.04516539,-0.01185758,0.039836142,-64,-44,-20,18,156
1695162227537374200,-9.126696587,-1.849520802,-0.840364814,-0.075542115,-0.011724349,0.014255743,-2,18,5,16,7,-8.628703117,3.90135169,0.577002585,0.044765696,-0.01185758,0.040102605,-62,-45,-31,16,155
1695162227538374200,-9.121908188,-1.855506301,-0.835576415,-0.075941809,-0.011058193,0.015588055,-1,19,4,18,4,-8.632294655,3.90254879,0.575805485,0.044232771,-0.01185758,0.040235836,-62,-47,-29,17,154
1695162227539374200,-9.117119789,-1.8590976,-0.831985116,-0.075941809,-0.010392036,0.017320061,-1,19,3,16,5,-8.629899979,3.906140089,0.568622887,0.043433387,-0.011591119,0.040502299,-61,-43,-23,16,156
1695162227573350400,-9.059659004,-1.946485996,-0.825999558,-0.042900458,-0.001865237,0.049162328,-1,17,0,15,5,-8.645462036,3.885789394,0.536301196,0.038370594,-0.013722817,0.048762634,-63,-45,-29,15,154
1695162227574350400,-9.060855865,-1.947683096,-0.82001406,-0.04103522,-0.0021317,0.050627869,-1,18,1,24,7,-8.645462036,3.886986494,0.539892495,0.038770292,-0.01385605,0.049428791,-61,-43,-25,15,154
1695162227575350400,-9.06205368,-1.947683096,-0.81642276,-0.039036751,-0.002398162,0.052359879,-1,17,1,16,7,-8.643068314,3.886986494,0.541089594,0.039036751,-0.01398928,0.049961712,-61,-47,-28,14,153
1695162227576350400,-9.064447403,-1.951274395,-0.811634362,-0.037437979,-0.002531394,0.053825419,-1,18,7,18,7,-8.641871452,3.885789394,0.533906996,0.039436448,-0.014122511,0.050894335,-61,-44,-25,15,153
1695162227577350400,-9.06803894,-1.954865694,-0.810437262,-0.036105666,-0.003064318,0.055024505,-2,22,3,18,7,-8.640673637,3.885789394,0.532709897,0.03956968,-0.014255743,0.051294025,-61,-47,-25,15,154
1695162227622325500,-9.095572472,-2.012326479,-0.821211159,-0.037304748,-0.01185758,0.067947932,-2,21,4,20,9,-8.662221909,3.859453201,0.567425787,0.047563553,-0.018519141,0.06261868,-61,-47,-33,16,156
1695162227623325500,-9.09437561,-2.019509077,-0.821211159,-0.03757121,-0.012124043,0.067548238,-1,7,-1,17,8,-8.665813446,3.855861902,0.567425787,0.048096478,-0.018519141,0.062885143,-62,-48,-25,15,155
1695162227624325500,-9.095572472,-2.024297476,-0.823605359,-0.037837673,-0.012257273,0.067148544,-1,19,2,18,11,-8.664615631,3.854664803,0.561440289,0.048362937,-0.018385911,0.062751912,-60,-43,-23,17,156
1695162227625325500,-9.095572472,-2.026691675,-0.829590917,-0.037704438,-0.012523737,0.066615619,-1,19,0,19,9,-8.66341877,3.851073503,0.561440289,0.048762634,-0.018519141,0.062751912,-60,-40,-24,16,157
1695162227626325500,-9.099164009,-2.035071373,-0.836773515,-0.037704438,-0.012790199,0.065949462,-1,18,5,22,11,-8.664615631,3.845088005,0.562637389,0.049029093,-0.018519141,0.062751912,-61,-47,-28,15,154
1695162227666299800,-9.109937668,-2.106897593,-0.869095206,-0.023981623,-0.0021317,0.045298621,-1,19,5,20,11,-8.675390244,3.859453201,0.59495914,0.041168455,-0.019052068,0.055690661,-65,-48,-28,16,158
1695162227667299800,-9.107542992,-2.109291792,-0.870292306,-0.023448698,-0.000799387,0.042633995,-3,19,1,18,3,-8.677783966,3.857059002,0.598550439,0.040235836,-0.019052068,0.055157732,-61,-47,-27,16,156
1695162227668299800,-9.105149269,-2.109291792,-0.873883605,-0.023182238,0.0,0.040635526,-1,18,3,19,9,-8.676587105,3.858256102,0.605733037,0.039436448,-0.019451762,0.054624807,-63,-50,-35,15,155
1695162227669299800,-9.103952408,-2.110488892,-0.872686505,-0.023049004,0.000666156,0.039169986,-1,19,3,18,5,-8.680178642,3.854664803,0.610521436,0.038503829,-0.019451762,0.054091886,-62,-43,-25,15,156
1695162227670299800,-9.102754593,-2.114080191,-0.871489406,-0.022782542,0.001598775,0.036905054,-1,22,1,18,12,-8.678980827,3.857059002,0.616506934,0.037837673,-0.019451762,0.053425729,-61,-45,-28,15,155
1695162227715269500,-9.090784073,-2.070984364,-0.876277804,-0.028378254,0.017586524,-0.01292343,-1,20,3,22,8,-8.678980827,3.819948912,0.63087213,0.033840735,-0.029577335,0.045698319,-61,-43,-31,16,156
1695162227716269500,-9.085995674,-2.067393064,-0.873883605,-0.028911179,0.017852986,-0.015721286,-1,22,5,20,9,-8.677783966,3.817554712,0.626083732,0.034640122,-0.030509954,0.045565084,-61,-45,-29,15,158
1695162227717269500,-9.088389397,-2.062604666,-0.870292306,-0.029577335,0.018119449,-0.018385911,-1,18,0,15,8,-8.676587105,3.813963413,0.616506934,0.035972435,-0.031975497,0.045431852,-62,-44,-22,17,156
1695162227718269500,-9.088389397,-2.059013367,-0.865503907,-0.030376723,0.018519141,-0.021050537,-1,20,1,20,9,-8.674192429,3.811569214,0.614112735,0.03757121,-0.033441041,0.045298621,-59,-44,-25,16,157
1695162227719269500,-9.088389397,-2.053027868,-0.863109708,-0.03130934,0.018652374,-0.02358193,-1,19,1,18,7,-8.668207169,3.807977915,0.614112735,0.039169986,-0.034906585,0.04516539,-61,-45,-28,15,153
1695162227773235800,-9.078812599,-1.965639591,-0.876277804,-0.04969525,0.020251149,-0.053026035,0,18,3,20,7,-8.640673637,3.837905407,0.577002585,0.051560488,-0.042234302,0.039702907,-61,-43,-29,15,167
1695162227774235800,-9.075222015,-1.965639591,-0.872686505,-0.049961712,0.020650841,-0.054091886,-1,18,4,22,8,-8.641871452,3.839102507,0.581790984,0.050494641,-0.041434918,0.038903523,-62,-43,-28,15,157
1695162227775235800,-9.072827339,-1.962048292,-0.871489406,-0.050094947,0.020917306,-0.05489127,1,19,5,22,3,-8.641871452,3.842693806,0.579396784,0.04969525,-0.040768761,0.037970904,-62,-41,-25,16,158
1695162227776235800,-9.070432663,-1.959654093,-0.872686505,-0.050361406,0.021450229,-0.055690661,-2,20,1,22,9,-8.638279915,3.846285105,0.580593884,0.048762634,-0.039836142,0.037304748,-62,-44,-28,16,154
1695162227777235800,-9.06803894,-1.960851192,-0.872686505,-0.050361406,0.021983154,-0.056223582,-1,19,1,19,8,-8.639476776,3.846285105,0.580593884,0.047830015,-0.038903523,0.036638591,-61,-37,-25,18,154
1695162227824209000,-9.083600998,-1.911770105,-0.884657502,-0.04103522,0.03130934,-0.059154671,-1,21,5,22,9,-8.670601845,3.815160513,0.537498295,0.05808882,-0.047563553,0.03956968,-60,-47,-28,22,160
1695162227825209000,-9.084798813,-1.909375906,-0.889445961,-0.040635526,0.031975497,-0.059021436,3,18,6,28,8,-8.670601845,3.816357613,0.531512797,0.059687596,-0.048362937,0.03996937,-61,-40,-25,21,156
1695162227826209000,-9.087192535,-1.903390408,-0.883460402,-0.040235836,0.032774884,-0.058488514,-1,19,3,23,8,-8.677783966,3.815160513,0.527921498,0.061819296,-0.049295556,0.040369064,-63,-41,-27,16,154
1695162227827209000,-9.087192535,-1.904587507,-0.881066203,-0.039836142,0.033441041,-0.057955589,-1,21,5,20,8,-8.681375504,3.812766314,0.532709897,0.064350687,-0.049961712,0.040635526,-61,-42,-21,18,157
1695162227828209000,-9.090784073,-1.905784607,-0.878672004,-0.039436448,0.034107197,-0.057289433,-1,17,3,19,11,-8.683769226,3.815160513,0.533906996,0.06674885,-0.050494641,0.040901989,-60,-45,-24,16,154
1695162227869181400,-9.101557732,-1.881842494,-0.846350312,-0.033307809,0.047163859,-0.044632465,-1,21,6,22,10,-8.634688377,3.892971992,0.572214186,0.061952524,-0.038503829,0.037837673,-60,-43,-23,17,157
1695162227870181400,-9.101557732,-1.878251195,-0.847547412,-0.033307809,0.047163859,-0.044099543,4,21,0,23,8,-8.626308441,3.895366192,0.577002585,0.060353752,-0.038637057,0.038503829,-63,-46,-24,18,157
1695162227871181400,-9.103952408,-1.874659896,-0.843956113,-0.033441041,0.04729709,-0.043566614,-1,19,0,17,5,-8.622717857,3.890577793,0.577002585,0.058888208,-0.038903523,0.039169986,-61,-41,-25,19,156
1695162227872181400,-9.102754593,-1.873462796,-0.837970614,-0.033707503,0.047430322,-0.043166921,-1,20,9,19,8,-8.617929459,3.885789394,0.572214186,0.05768913,-0.039303213,0.040102605,-60,-41,-25,16,155
1695162227873181400,-9.101557732,-1.873462796,-0.834379315,-0.034107197,0.047163859,-0.042900458,0,25,7,20,8,-8.61314106,3.883395195,0.572214186,0.056889739,-0.03996937,0.04103522,-62,-41,-25,16,156
1695162227911159900,-9.115922928,-1.886630893,-0.785298169,-0.034906585,0.050228179,-0.023049004,-2,18,3,18,13,-8.608352661,3.836708307,0.547075093,0.076874427,-0.058222052,0.051693719,-61,-49,-25,18,161
1695162227912159900,-9.113529205,-1.886630893,-0.78170687,-0.033574272,0.050894335,-0.021050537,-1,17,4,22,9,-8.607154846,3.839102507,0.539892495,0.077007659,-0.05768913,0.051294025,-60,-44,-23,17,151
1695162227913159900,-9.113529205,-1.889025092,-0.77931267,-0.032108728,0.051294025,-0.019185297,-1,18,1,19,9,-8.603564262,3.845088005,0.535104096,0.076741189,-0.056889739,0.050494641,-63,-45,-21,15,156
1695162227914159900,-9.115922928,-1.886630893,-0.78050977,-0.030776417,0.051826954,-0.017320061,0,19,4,19,7,-8.601169586,3.845088005,0.533906996,0.075808577,-0.05595712,0.04969525,-61,-43,-28,17,156
1695162227915159900,-9.118317604,-1.886630893,-0.776918471,-0.029310873,0.052093416,-0.015721286,-1,18,5,18,8,-8.598775864,3.847482204,0.532709897,0.07474272,-0.054758042,0.048762634,-61,-45,-25,16,157
1695162227945139300,-9.135076523,-1.892616391,-0.696712673,-0.028644716,0.034640122,0.00106585,0,22,3,16,8,-8.603564262,3.847482204,0.472854823,0.035039816,-0.021849923,0.035705972,-60,-42,-21,16,156
1695162227946139300,-9.136273384,-1.89740479,-0.693121374,-0.029710567,0.033441041,0.001465544,-1,21,0,19,9,-8.601169586,3.843890905,0.477643251,0.034506891,-0.020917306,0.035572741,-62,-44,-25,15,154
1695162227947139300,-9.13866806,-1.895010591,-0.689530075,-0.030776417,0.032508422,0.001998469,-1,19,2,18,8,-8.602366447,3.846285105,0.478840351,0.034240428,-0.019984685,0.035572741,-65,-41,-23,12,156
1695162227948139300,-9.141061783,-1.89860189,-0.685938776,-0.031575806,0.031575806,0.002264931,-2,19,-1,20,5,-8.603564262,3.842693806,0.474051923,0.034240428,-0.019451762,0.035572741,-60,-46,-27,17,154
1695162227949139300,-9.143456459,-1.899798989,-0.683544576,-0.032641653,0.030643184,0.002664625,-2,17,7,18,11,-8.602366447,3.842693806,0.477643251,0.034506891,-0.018918836,0.035972435,-61,-43,-40,20,158
1695162227979117700,-9.184157372,-1.916558504,-0.70509243,-0.049961712,0.007327718,0.002797856,-1,17,4,24,8,-8.597578049,3.806780815,0.525527298,0.054624807,-0.02384839,0.040635526,-61,-44,-25,20,156
1695162227980117700,-9.181763649,-1.918952703,-0.703895271,-0.051294025,0.006128637,0.002531394,-1,17,3,22,9,-8.597578049,3.804386616,0.533906996,0.055157732,-0.02384839,0.040102605,-60,-39,-21,20,157
1695162227981117700,-9.179368973,-1.917755604,-0.708683729,-0.0528928,0.005196018,0.002398162,-1,21,4,19,11,-8.596381187,3.803189516,0.526724398,0.055690661,-0.023715161,0.03956968,-59,-43,-25,17,156
1695162227982117700,-9.181763649,-1.921346903,-0.709880829,-0.054225113,0.004130168,0.002264931,2,19,3,18,9,-8.596381187,3.803189516,0.530315697,0.056090351,-0.02358193,0.038903523,-60,-43,-23,15,158
1695162227983117700,-9.185355186,-1.926135302,-0.712275028,-0.055823889,0.003064318,0.0021317,-2,19,3,26,8,-8.599972725,3.799597979,0.530315697,0.056223582,-0.023715161,0.038237367,-60,-40,-25,17,160
1695162228025096500,-9.18296051,-1.966836691,-0.730231524,-0.057555895,-0.005862175,0.0042634,-1,18,3,19,8,-8.597578049,3.786429882,0.554257691,0.05595712,-0.023182238,0.028111791,-60,-45,-28,18,154
1695162228026096500,-9.184157372,-1.966836691,-0.729034424,-0.057022974,-0.006928025,0.004396631,-1,19,4,19,8,-8.598775864,3.787626982,0.55665189,0.056889739,-0.02358193,0.028111791,-62,-44,-27,18,157
1695162228027096500,-9.181763649,-1.96923089,-0.727837324,-0.056623276,-0.007727412,0.004529862,-1,18,3,18,7,-8.597578049,3.784035683,0.560243189,0.057955589,-0.02384839,0.028111791,-61,-38,-24,16,158
1695162228028096500,-9.17697525,-1.968033791,-0.730231524,-0.056223582,-0.008526799,0.004396631,-1,21,4,17,8,-8.598775864,3.779247284,0.553060591,0.059287902,-0.024114855,0.028245023,-61,-40,-23,18,157
1695162228029096500,-9.17697525,-1.966836691,-0.731428623,-0.05595712,-0.008926493,0.004396631,-1,17,4,19,8,-8.598775864,3.778050184,0.553060591,0.060886677,-0.024514547,0.028378254,-61,-41,-24,17,157
1695162228063074900,-9.15063858,-1.963245392,-0.761356115,-0.066349156,-0.015588055,0.002664625,0,18,4,20,11,-8.578424454,3.801992416,0.549469292,0.07301072,-0.026246555,0.023981623,-60,-40,-25,17,157
1695162228064074900,-9.153033257,-1.963245392,-0.764947414,-0.067148544,-0.015854517,0.002531394,0,13,5,19,8,-8.577227592,3.803189516,0.550666392,0.071811639,-0.025447167,0.023315467,-61,-43,-28,17,156
1695162228065074900,-9.156624794,-1.962048292,-0.766144514,-0.067548238,-0.016254211,0.002531394,-1,23,4,20,7,-8.576030731,3.806780815,0.553060591,0.070479326,-0.024647778,0.022516079,-67,-45,-24,19,155
1695162228066074900,-9.154230118,-1.963245392,-0.769735873,-0.068081163,-0.016653905,0.002531394,-1,22,3,19,7,-8.572439194,3.805583715,0.550666392,0.069013782,-0.023715161,0.021716693,-61,-45,-23,17,151
1695162228067074900,-9.156624794,-1.959654093,-0.770932972,-0.068480857,-0.016920367,0.002264931,-1,18,3,17,9,-8.570044518,3.806780815,0.549469292,0.067415006,-0.022915773,0.020917306,-65,-44,-24,19,156
1695162228099073300,-9.137471199,-1.983596087,-0.800860465,-0.069413476,-0.020117918,0.0,-1,21,-1,22,8,-8.543708801,3.805583715,0.514753342,0.064350687,-0.014655436,0.013589587,-60,-45,-24,16,156
1695162228100073300,-9.136273384,-1.983596087,-0.800860465,-0.069679938,-0.019851454,0.0,2,21,4,20,11,-8.541314125,3.805583715,0.507570744,0.065416537,-0.014655436,0.013589587,-63,-45,-25,18,154
1695162228101073300,-9.136273384,-1.980004787,-0.796072066,-0.069946401,-0.019451762,-0.000133231,-1,18,-1,20,11,-8.541314125,3.806780815,0.501585245,0.066615619,-0.014522205,0.013722817,-62,-41,-25,18,160
1695162228102073300,-9.135076523,-1.982398987,-0.798466265,-0.070212863,-0.019052068,-0.000133231,-1,19,7,18,6,-8.54251194,3.813963413,0.502782345,0.067681469,-0.014522205,0.01398928,-60,-43,-25,16,155
1695162228103073300,-9.135076523,-1.983596087,-0.800860465,-0.070212863,-0.018918836,-0.000266462,-1,17,3,20,7,-8.538920403,3.817554712,0.499191046,0.068880551,-0.014655436,0.014122511,-60,-41,-23,16,158
1695162228192019300,-9.113529205,-1.990778685,-0.74339962,-0.043966308,0.020117918,-0.003863706,-1,19,5,18,7,-8.61314106,3.699041605,0.33518824,0.009859112,-0.046364475,0.102987751,-61,-43,-25,18,156
1695162228193019300,-9.117119789,-1.989581585,-0.741005421,-0.043699846,0.019185297,-0.005329249,-1,21,3,19,8,-8.610746384,3.694253206,0.337582439,0.009859112,-0.045431852,0.101655439,-61,-45,-24,20,161
1695162228194019300,-9.120711327,-1.984793186,-0.738611221,-0.043300152,0.01825268,-0.006928025,-1,19,-3,19,8,-8.611943245,3.691859007,0.338779539,0.009859112,-0.044499233,0.100456357,-62,-45,-23,18,155
1695162228195019300,-9.121908188,-1.978807688,-0.732625723,-0.043300152,0.017852986,-0.008526799,-1,21,0,22,8,-8.609549522,3.693056107,0.33399114,0.009725881,-0.043833077,0.098857582,-61,-41,-25,18,156
1695162228196019300,-9.120711327,-1.975216389,-0.733822823,-0.043300152,0.017586524,-0.010525269,-1,19,0,19,8,-8.611943245,3.691859007,0.336385339,0.009459418,-0.04276723,0.09739203,-60,-43,-24,17,158
1695162228246964500,-9.087192535,-1.902193308,-0.750582218,-0.069280244,0.008127105,-0.029977029,-1,19,6,22,9,-8.601169586,3.635595322,0.33279404,0.010125575,-0.028644716,0.063018374,-60,-40,-24,17,153
1695162228247964500,-9.088389397,-1.89740479,-0.750582218,-0.071811639,0.008393568,-0.030509954,-1,21,5,15,7,-8.603564262,3.636792421,0.33518824,0.011591119,-0.02797856,0.06115314,-60,-40,-23,16,157
1695162228248964500,-9.088389397,-1.89740479,-0.752976418,-0.074209802,0.008660031,-0.031042879,-1,22,7,23,8,-8.602366447,3.635595322,0.33518824,0.01292343,-0.027312404,0.059287902,-60,-41,-22,18,158
1695162228249964500,-9.088389397,-1.89860189,-0.755370617,-0.076607957,0.009192956,-0.03130934,-1,21,5,22,9,-8.602366447,3.633201122,0.339976639,0.014388974,-0.026513018,0.057289433,-58,-40,-29,20,160
1695162228250964500,-9.088389397,-1.89860189,-0.758961916,-0.078473203,0.009459418,-0.031575806,0,22,7,20,9,-8.604761124,3.633201122,0.342370838,0.015721286,-0.025846859,0.055557426,-60,-44,-25,16,157
1695162228289939700,-9.075222015,-1.899798989,-0.799663365,-0.065283306,0.013589587,-0.014122511,-1,21,1,22,12,-8.638279915,3.708618402,0.40821138,0.029577335,-0.013722817,0.022516079,-61,-41,-23,17,161
1695162228290939700,-9.0740242,-1.895010591,-0.805648863,-0.062485453,0.013323124,-0.012656967,-1,19,4,16,8,-8.640673637,3.711012602,0.411802679,0.029577335,-0.013323124,0.020917306,-60,-44,-24,15,158
1695162228291939700,-9.072827339,-1.891419291,-0.803254664,-0.059820827,0.013323124,-0.011191424,-1,23,5,18,11,-8.644265175,3.715801001,0.420182407,0.029710567,-0.013189893,0.019718224,-60,-41,-23,15,157
1695162228292939700,-9.072827339,-1.886630893,-0.797269166,-0.057156201,0.013189893,-0.009592649,-1,22,0,14,7,-8.645462036,3.7193923,0.424970806,0.029977029,-0.013056661,0.018652374,-61,-44,-29,17,157
1695162228293939700,-9.0740242,-1.885433793,-0.797269166,-0.054491576,0.013056661,-0.007860643,-3,18,5,16,7,-8.645462036,3.725377798,0.429759204,0.03011026,-0.01292343,0.017453292,-60,-43,-24,20,158
1695162228340910900,-9.069235802,-1.868674397,-0.81881696,-0.039169986,0.016787136,0.022249617,-1,18,5,19,11,-8.676587105,3.799597979,0.501585245,0.036105666,-0.026646247,0.011191424,-61,-41,-22,16,156
1695162228341910900,-9.071630478,-1.871068597,-0.81881696,-0.038903523,0.017320061,0.023715161,-1,20,5,21,8,-8.678980827,3.803189516,0.506373644,0.036905054,-0.028245023,0.010924961,-60,-41,-23,18,157
1695162228342910900,-9.070432663,-1.873462796,-0.81642276,-0.038903523,0.018119449,0.025047474,2,19,4,20,11,-8.678980827,3.806780815,0.513556242,0.037171517,-0.02917764,0.01079173,-61,-41,-24,17,155
1695162228343910900,-9.071630478,-1.879448295,-0.82001406,-0.038637057,0.018652374,0.026379786,0,23,4,15,9,-8.680178642,3.807977915,0.518344641,0.037970904,-0.031042879,0.010525269,-60,-45,-21,17,157
1695162228344910900,-9.076418877,-1.881842494,-0.825999558,-0.038503829,0.019185297,0.027578866,-1,19,1,18,9,-8.677783966,3.811569214,0.526724398,0.038503829,-0.032641653,0.010525269,-60,-44,-25,17,158
1695162228378890900,-9.120711327,-1.9309237,-0.835576415,-0.03650536,0.02571363,0.033174578,-1,19,3,22,7,-8.639476776,3.8630445,0.550666392,0.067681469,-0.030243492,0.021050537,-62,-43,-23,17,157
1695162228379890900,-9.123106003,-1.9333179,-0.834379315,-0.036905054,0.025846859,0.032774884,-2,17,0,20,6,-8.641871452,3.869029999,0.549469292,0.069280244,-0.029577335,0.02158346,-63,-45,-23,16,157
1695162228380890900,-9.125499725,-1.936909199,-0.836773515,-0.037304748,0.025980091,0.032241959,0,19,3,19,5,-8.641871452,3.876212597,0.545877993,0.07087902,-0.02904441,0.021983154,-59,-43,-24,16,158
1695162228381890900,-9.127894402,-1.938106298,-0.840364814,-0.037704438,0.026379786,0.031575806,0,19,6,18,8,-8.640673637,3.881000996,0.548272192,0.072078094,-0.02904441,0.022116385,-60,-40,-23,19,160
1695162228382890900,-9.131484985,-1.941697598,-0.836773515,-0.037970904,0.026779478,0.030909648,-1,17,5,17,9,-8.640673637,3.886986494,0.551863492,0.073543645,-0.028911179,0.022382848,-64,-41,-24,24,157
1695162228414870600,-9.161413193,-1.952471495,-0.812831461,-0.042500768,0.032774884,0.016520673,-1,19,5,20,8,-8.639476776,3.915716887,0.577002585,0.074343033,-0.050361406,0.019718224,-60,-43,-25,18,157
1695162228415870600,-9.157821655,-1.952471495,-0.809240162,-0.042633995,0.033174578,0.015987748,-1,17,1,19,5,-8.640673637,3.916913986,0.577002585,0.074609496,-0.052359879,0.019984685,-62,-47,-21,17,161
1695162228416870600,-9.159018517,-1.952471495,-0.800860465,-0.042633995,0.033441041,0.015721286,1,11,6,20,8,-8.640673637,3.914519787,0.579396784,0.075408876,-0.054091886,0.020251149,-61,-43,-25,19,157
1695162228417870600,-9.160215378,-1.948880196,-0.794874966,-0.042500768,0.033707503,0.015321592,-1,20,5,23,7,-8.639476776,3.915716887,0.574608386,0.076341502,-0.055823889,0.020650841,-62,-41,-27,18,156
1695162228418870600,-9.161413193,-1.942894697,-0.786495268,-0.042500768,0.034107197,0.014921899,-1,21,3,19,7,-8.637083054,3.916913986,0.568622887,0.077407345,-0.057555895,0.021050537,-60,-44,-27,15,158
1695162228454846800,-9.198522568,-1.947683096,-0.737414122,-0.024114855,0.027445635,0.02051761,0,20,1,18,5,-8.607154846,3.943250179,0.52073884,0.102454826,-0.07087902,0.030243492,-60,-40,-22,17,156
1695162228455846800,-9.204508781,-1.946485996,-0.733822823,-0.022516079,0.026646247,0.021183766,-1,19,3,18,5,-8.605957985,3.944447279,0.517147541,0.102321595,-0.070346095,0.030243492,-62,-41,-25,20,160
1695162228456846800,-9.204508781,-1.948880196,-0.731428623,-0.021050537,0.025980091,0.021983154,0,18,5,17,7,-8.602366447,3.948038578,0.514753342,0.101921894,-0.06981317,0.030376723,-60,-43,-18,19,167
1695162228457846800,-9.205705643,-1.950077295,-0.729034424,-0.019318528,0.025047474,0.022915773,-2,21,-1,15,4,-8.601169586,3.948038578,0.514753342,0.101388969,-0.069147013,0.030376723,-61,-40,-25,17,161
1695162228458846800,-9.20929718,-1.951274395,-0.727837324,-0.017719755,0.024381317,0.023981623,-1,17,3,18,7,-8.599972725,3.948038578,0.514753342,0.101122513,-0.068747319,0.030509954,-60,-41,-24,15,160
1695162228492827400,-9.212887764,-2.020706177,-0.688332975,0.023981623,0.014788668,0.043966308,-1,19,0,18,21,-8.577227592,3.938461781,0.490811348,0.082603365,-0.062218986,0.032774884,-60,-39,-25,17,156
1695162228493827400,-9.217676163,-2.020706177,-0.685938776,0.026379786,0.013589587,0.044632465,-2,17,1,19,7,-8.574832916,3.938461781,0.489614248,0.081937209,-0.061819296,0.032641653,-61,-40,-23,15,154
1695162228494827400,-9.217676163,-2.024297476,-0.685938776,0.028777948,0.012523737,0.045298621,-1,21,1,18,4,-8.577227592,3.937264681,0.492008448,0.081137821,-0.061419602,0.032508422,-60,-41,-23,16,160
1695162228495827400,-9.222464561,-2.029085875,-0.677559078,0.031042879,0.011324655,0.045831546,-1,21,0,16,7,-8.576030731,3.934870481,0.494402647,0.080338441,-0.061019909,0.03237519,-60,-42,-23,18,157
1695162228496827400,-9.224859238,-2.032677174,-0.675164878,0.033174578,0.009992342,0.046364475,-1,19,4,19,5,-8.572439194,3.931279182,0.494402647,0.079539053,-0.060486984,0.032241959,-62,-41,-23,15,158
1695162228529805700,-9.233239174,-2.074575663,-0.659602582,0.044898927,-0.018519141,0.026379786,-1,18,3,18,7,-8.56046772,3.956418276,0.497993946,0.060886677,-0.043033689,0.02571363,-61,-43,-23,20,161
1695162228530805700,-9.233239174,-2.078166962,-0.659602582,0.043033689,-0.020251149,0.023182238,-2,19,-3,16,10,-8.562862396,3.956418276,0.500388145,0.060486984,-0.042367533,0.02571363,-60,-43,-20,16,158
1695162228531805700,-9.230844498,-2.079364061,-0.657208383,0.040901989,-0.021983154,0.019984685,0,19,6,18,7,-8.564059258,3.954024076,0.495599747,0.059820827,-0.041834611,0.025980091,-61,-41,-24,15,157
1695162228532805700,-9.229647636,-2.080561161,-0.654814184,0.038503829,-0.02358193,0.016387442,-1,19,3,20,11,-8.565256119,3.954024076,0.495599747,0.059287902,-0.041168455,0.026113322,-60,-43,-23,18,157
1695162228533805700,-9.229647636,-2.078166962,-0.656011283,0.035705972,-0.025047474,0.012656967,-1,18,0,16,8,-8.562862396,3.954024076,0.496796846,0.058888208,-0.040502299,0.026379786,-61,-47,-23,17,156
1695162228562786900,-9.232041359,-1.968033791,-0.694318473,-0.059421133,-0.040102605,-0.075275652,-1,18,5,22,11,-8.627506256,3.79241538,0.654814184,-0.003863706,-0.035839204,0.071811639,-60,-40,-23,15,156
1695162228563786900,-9.22725296,-1.964442492,-0.701501071,-0.065283306,-0.040102605,-0.079405814,1,18,4,18,4,-8.629899979,3.784035683,0.658405483,-0.000666156,-0.038370594,0.07087902,-60,-41,-23,20,160
1695162228564786900,-9.2212677,-1.963245392,-0.70628953,-0.071012251,-0.03996937,-0.08313629,-1,26,1,18,5,-8.634688377,3.778050184,0.656011283,0.002264931,-0.040635526,0.070079632,-62,-44,-23,16,158
1695162228565786900,-9.214085579,-1.960851192,-0.711077929,-0.076341502,-0.039836142,-0.086733535,-1,17,4,20,9,-8.634688377,3.774458885,0.651222885,0.005329249,-0.04276723,0.068880551,-59,-41,-23,18,157
1695162228566786900,-9.206902504,-1.957259893,-0.713472128,-0.081004597,-0.039436448,-0.090064317,-1,21,3,20,8,-8.632294655,3.770867586,0.644040287,0.008260337,-0.044898927,0.0678147,-60,-40,-21,17,158
1695162228598787300,-9.126696587,-1.964442492,-0.709880829,-0.018385911,0.005728943,0.007727412,-1,19,-1,16,7,-8.652645111,3.878606796,0.626083732,0.074343033,-0.039836142,-0.062352221,-60,-44,-25,20,165
1695162228599787300,-9.127894402,-1.966836691,-0.714669228,-0.01825268,0.005728943,0.008260337,-2,18,1,17,1,-8.65743351,3.881000996,0.621295333,0.074343033,-0.041967839,-0.06261868,-61,-41,-22,21,157
1695162228600787300,-9.130288124,-1.966836691,-0.719457626,-0.01825268,0.005329249,0.008793262,-1,21,3,16,11,-8.661025047,3.884592295,0.614112735,0.074343033,-0.043966308,-0.062485453,-61,-40,-23,17,160
1695162228601787300,-9.131484985,-1.96923089,-0.721851826,-0.01825268,0.005196018,0.009192956,-1,21,5,18,5,-8.662221909,3.888183594,0.614112735,0.074343033,-0.046098009,-0.062485453,-60,-45,-20,18,161
1695162228602787300,-9.131484985,-1.97042799,-0.723048925,-0.018519141,0.005062787,0.009725881,-1,17,-1,16,4,-8.665813446,3.892971992,0.610521436,0.074343033,-0.04729709,-0.062352221,-61,-39,-23,16,156
1695162228632767700,-9.032125473,-1.837549806,-0.793677866,-0.053825419,0.02797856,-0.177197546,-3,19,4,19,7,-8.511386871,4.04979229,-0.047884032,-0.048362937,0.14388974,0.24674426,-62,-43,-20,20,158
1695162228633767700,-9.026140213,-1.826775908,-0.794874966,-0.049828485,0.031975497,-0.173600301,1,19,-1,20,9,-8.507795334,4.05577755,-0.051475335,-0.046897396,0.138294026,0.245012254,-61,-39,-24,20,160
1695162228634767700,-9.017760277,-1.814804912,-0.792480767,-0.045565084,0.035839204,-0.169736609,0,19,3,15,4,-8.503006935,4.064157486,-0.056263741,-0.045431852,0.129767224,0.243413478,-61,-40,-21,20,156
1695162228635767700,-9.014169693,-1.807622313,-0.787692368,-0.04103522,0.039169986,-0.165872887,-1,21,4,19,8,-8.500613213,4.071340084,-0.062249243,-0.044232771,0.121107198,0.242880553,-61,-39,-21,21,161
1695162228636767700,-9.016563416,-1.805228114,-0.788889468,-0.036372125,0.042367533,-0.161875948,-2,21,3,18,7,-8.492233276,4.074931145,-0.073023155,-0.043699846,0.112713635,0.243413478,-60,-42,-25,18,162
1695162228667723700,-9.263166428,-2.209848166,-0.749385118,0.028245023,0.057955589,0.176664621,-1,19,3,19,9,-8.665813446,3.527856112,0.313640416,0.042101074,0.02384839,0.07194487,-75,-53,-34,9,151
1695162228668723700,-9.273940086,-2.22900176,-0.741005421,0.033574272,0.06008729,0.177197546,2,19,5,22,9,-8.661025047,3.526659012,0.324414343,0.040635526,0.025447167,0.068081163,-71,-53,-34,11,150
1695162228669723700,-9.282320023,-2.249352455,-0.74339962,0.039436448,0.061952524,0.177730486,2,21,0,22,8,-8.653841972,3.527856112,0.331596941,0.03956968,0.026379786,0.064217456,-73,-50,-34,9,150
1695162228670723700,-9.293093681,-2.266111851,-0.738611221,0.046098009,0.063551299,0.178396642,2,18,3,18,10,-8.649053574,3.529053211,0.33399114,0.038637057,0.02691271,0.061686065,-73,-52,-34,6,148
1695162228671723700,-9.301473618,-2.284068346,-0.731428623,0.053692192,0.064883612,0.179196015,-1,22,0,18,11,-8.640673637,3.529053211,0.342370838,0.037437979,0.027445635,0.05808882,-73,-53,-34,12,149
1695162228699729100,-9.016563416,-1.690306425,-0.719457626,-0.100323126,0.016254211,-0.063284837,-8,17,-4,13,1,-8.62511158,3.960009575,0.325611442,-0.006928025,0.045298621,0.011724349,-74,-52,-34,9,151
1695162228700729100,-9.016563416,-1.695094824,-0.725443125,-0.102321595,0.016254211,-0.060886677,-6,9,-6,13,1,-8.626308441,3.952826977,0.323217243,-0.010392036,0.046764165,0.01292343,-75,-54,-34,8,149
1695162228701729100,-9.015366554,-1.701080322,-0.731428623,-0.104586519,0.016653905,-0.058355279,-8,6,-3,14,0,-8.626308441,3.949235678,0.318428814,-0.013456355,0.047830015,0.014388974,-74,-53,-34,8,148
1695162228702729100,-9.012971878,-1.704671621,-0.730231524,-0.106451757,0.016920367,-0.056090351,-4,10,-5,13,1,-8.628703117,3.948038578,0.316034615,-0.015454824,0.048496172,0.015321592,-74,-52,-34,10,149
1695162228703729100,-9.009381294,-1.702277422,-0.733822823,-0.108450226,0.017320061,-0.053825419,-4,9,-5,13,-2,-8.632294655,3.945644379,0.318428814,-0.018119449,0.049295556,0.016520673,-75,-55,-34,8,149
1695162228741705300,-9.059659004,-2.013523579,-0.921767652,0.00319755,-0.013189893,0.014255743,-2,17,-4,15,4,-8.719682693,3.655946016,0.396240383,0.070346095,-0.055823889,0.046764165,-76,-56,-35,5,150
1695162228742705300,-9.060855865,-2.011129379,-0.926556051,0.003863706,-0.013189893,0.011058193,-4,11,2,14,4,-8.718485832,3.660734415,0.396240383,0.070212863,-0.055823889,0.046364475,-76,-56,-36,5,147
1695162228743705300,-9.060855865,-2.013523579,-0.925358951,0.004130168,-0.013323124,0.007460949,-4,18,1,18,4,-8.718485832,3.663128614,0.395043284,0.070212863,-0.055557426,0.045964777,-73,-56,-37,4,149
1695162228744705300,-9.06205368,-2.015917778,-0.93014735,0.0042634,-0.013722817,0.003464012,-2,17,-2,16,3,-8.722076416,3.665522814,0.402225882,0.069946401,-0.055557426,0.045698319,-73,-56,-39,4,148
1695162228745705300,-9.06803894,-2.017114878,-0.933738649,0.003863706,-0.01398928,-0.000666156,-2,11,-1,16,1,-8.724471092,3.665522814,0.401028782,0.069679938,-0.055290964,0.045431852,-74,-56,-34,5,149
1695162228776664700,-9.139864922,-1.96923089,-0.735019922,-0.04276723,0.005196018,-0.036638591,-6,9,-6,13,3,0.836773515,4.003105164,1.550245643,0.079006128,2.512474537,4.365588188,-86,-45,-77,-8,172
1695162228777664700,-9.139864922,-1.964442492,-0.738611221,-0.042367533,0.005462481,-0.03650536,-5,9,-5,13,2,0.828393817,3.725377798,1.66995573,0.02904441,2.511408806,4.365588188,-90,-48,-78,-11,174
1695162228778664700,-9.136273384,-1.959654093,-0.737414122,-0.041834611,0.005462481,-0.03650536,-4,9,-3,13,-1,0.811634362,3.446453333,1.776497602,-0.013323124,2.506346226,4.365588188,-91,-44,-76,-7,176
1695162228779664700,-9.135076523,-1.954865694,-0.739808321,-0.041568145,0.005728943,-0.036372125,-8,7,-3,13,0,0.792480767,3.174711466,1.892616391,-0.050361406,2.498085737,4.365588188,-91,-41,-78,-9,173
1695162228780664700,-9.1326828,-1.951274395,-0.74220252,-0.041168455,0.005995406,-0.036372125,-7,7,-4,13,-1,0.785298169,2.917334795,2.015917778,-0.080604896,2.487960339,4.365588188,-95,-44,-76,-6,173
1695162228817638000,-9.064447403,-1.96923089,-0.767341673,-0.07820674,0.015321592,-0.005196018,-7,7,-6,13,3,1.033097982,-0.234631762,3.733757496,0.150418073,1.844719768,3.525298595,-94,-40,-82,-14,169
1695162228818638000,-9.066842079,-1.968033791,-0.768538773,-0.078473203,0.015188362,-0.005595712,-7,9,-4,14,3,1.052251697,-0.299275219,3.797203779,0.165872887,1.793692231,3.462280035,-87,-37,-81,-11,174
1695162228819638000,-9.065644264,-1.964442492,-0.769735873,-0.078606427,0.014788668,-0.005595712,-3,11,-6,17,-1,1.07739079,-0.365115762,3.853467703,0.179196015,1.742398143,3.398862362,-88,-41,-81,-15,176
1695162228820638000,-9.065644264,-1.962048292,-0.769735873,-0.078739658,0.014655436,-0.005728943,-7,6,-5,13,-1,1.11689508,-0.427365005,3.913322687,0.190653905,1.690704465,3.334111691,-90,-41,-83,-14,172
1695162228821638000,-9.06803894,-1.964442492,-0.77931267,-0.078739658,0.014255743,-0.005595712,-8,17,-5,15,1,1.168370485,-0.495599747,3.981557369,0.201845318,1.640609503,3.268428802,-92,-37,-81,-10,176
1695162228850643000,-8.77834034,-1.735796213,-1.051054597,-0.067415006,0.015987748,-0.225160792,-1,17,3,18,7,2.680308819,-0.915782154,4.692635536,0.404889733,1.246644735,1.959431767,-91,-36,-81,-16,171
1695162228851643000,-8.777143478,-1.725022316,-1.048660398,-0.072477795,0.01718683,-0.223961711,-1,19,3,18,5,2.764105797,-0.910993755,4.742913723,0.406222045,1.25330627,1.890684605,-92,-36,-82,-18,170
1695162228852643000,-8.779537201,-1.719036818,-1.051054597,-0.078339972,0.018918836,-0.222762644,-1,21,3,19,3,2.845508814,-0.913387954,4.79678297,0.407954067,1.261433363,1.823935628,-88,-38,-82,-16,172
1695162228853643000,-8.786720276,-1.713051319,-1.054645896,-0.084202148,0.020917306,-0.221430331,4,21,5,19,5,2.948459387,-0.915782154,4.87579155,0.410885125,1.273290992,1.737601757,-91,-40,-81,-14,172
1695162228854643000,-8.793902397,-1.704671621,-1.054645896,-0.09033078,0.02358193,-0.219964772,-1,21,5,19,9,3.021482468,-0.916979253,4.93804121,0.414082706,1.282350659,1.674983144,-91,-39,-81,-15,172
1695162228898591800,-8.971074104,-1.616086125,-1.071405292,-0.207441032,0.086067379,-0.179595709,-1,17,1,19,7,4.27724123,-0.418985307,6.384139061,0.368384391,1.112614155,0.815241933,-90,-38,-82,-16,169
1695162228899591800,-8.979453087,-1.614889026,-1.072602391,-0.213436455,0.087932616,-0.17759724,-1,21,3,20,5,4.352658749,-0.392649084,6.459556103,0.36198926,1.092229724,0.783932626,-91,-37,-84,-14,172
1695162228900591800,-8.984241486,-1.616086125,-1.071405292,-0.219165385,0.089664623,-0.175732017,-1,19,4,17,11,4.413711071,-0.368707061,6.551733017,0.356393576,1.072245002,0.754621744,-92,-34,-84,-16,172
1695162228901591800,-8.986636162,-1.614889026,-1.065419793,-0.22489433,0.091396637,-0.173600301,0,19,0,18,15,4.426878929,-0.328005642,6.679822922,0.3547948,1.053326249,0.727442563,-91,-41,-84,-17,169
1695162228902591800,-8.987833023,-1.613691926,-1.061828494,-0.230490044,0.092995405,-0.171868294,2,22,4,20,7,4.340687752,-0.301669419,6.829460144,0.353862166,1.033474684,0.69706583,-93,-41,-88,-17,170
1695162228935571400,-8.935160637,-1.590947032,-0.949300945,-0.297771841,0.147753447,-0.102721281,-1,19,-1,19,7,5.177461147,-0.245405674,8.603564262,0.041168455,0.212237358,0.158678412,-89,-40,-89,-23,172
1695162228936571400,-8.935160637,-1.592144132,-0.933738649,-0.297905058,0.150418073,-0.095393561,-1,17,1,15,5,5.287594318,-0.231040463,8.480262756,0.064483918,0.198248088,0.151350692,-91,-50,-91,-22,169
1695162228937571400,-8.937555313,-1.593341231,-0.921767652,-0.297638565,0.153215915,-0.08753293,-1,21,7,18,7,5.401319027,-0.210689753,8.359354973,0.091396637,0.184125587,0.144555897,-89,-40,-92,-19,170
1695162228938571400,-8.942343712,-1.59693253,-0.905008256,-0.29710567,0.15534763,-0.079539053,-1,18,4,19,8,5.518634796,-0.180762231,8.254010201,0.121506892,0.170535982,0.138826951,-91,-44,-91,-26,168
1695162228939571400,-8.948328972,-1.59693253,-0.89303726,-0.296173036,0.157212853,-0.071145482,0,21,5,16,5,5.638344765,-0.137666598,8.172607422,0.153482378,0.157212853,0.135229707,-92,-44,-93,-19,172
1695162228972550000,-9.097966194,-1.772906303,-0.665588081,-0.249941811,0.130433381,0.120707504,-1,21,3,24,7,7.28316164,0.871489406,7.491456985,0.279785603,-0.065549769,0.2051761,-91,-52,-95,-20,169
1695162228973550000,-9.10634613,-1.784877419,-0.658405483,-0.246611029,0.127502292,0.130433381,1,18,4,17,5,7.284358501,0.852335811,7.485471725,0.278053582,-0.067415006,0.199980095,-85,-49,-91,-20,168
1695162228974550000,-9.113529205,-1.796848416,-0.646434486,-0.243147001,0.124437973,0.139892802,-1,17,5,18,7,7.279570103,0.839167714,7.489062786,0.277254194,-0.068081163,0.194517612,-90,-50,-95,-31,168
1695162228975550000,-9.117119789,-1.811213613,-0.638054729,-0.239816234,0.121506892,0.148819283,2,22,7,21,9,7.275979042,0.833182216,7.493851185,0.276987731,-0.068214394,0.190387443,-90,-53,-93,-19,172
1695162228976550000,-9.124302864,-1.831564307,-0.63326633,-0.236751899,0.118575804,0.15787901,1,19,0,18,7,7.264008045,0.823605359,7.502231121,0.276854515,-0.067947932,0.183992341,-92,-49,-96,-20,170
1695162229008530000,-9.197325706,-2.185906172,-0.505176544,-0.18905513,0.056623276,0.275522202,-1,21,5,22,4,6.690596581,0.889445961,7.963114738,0.170269519,-0.007594181,0.07301072,-90,-57,-95,-27,169
1695162229009530000,-9.200917244,-2.201468468,-0.500388145,-0.185324654,0.053425729,0.279652387,-1,17,4,15,5,6.669048786,0.867898107,7.940370083,0.159477785,-0.007993874,0.068747319,-92,-59,-97,-33,168
1695162229010530000,-9.205705643,-2.223016262,-0.496796846,-0.181460962,0.050228179,0.283516079,-1,18,4,18,8,6.649895191,0.843956113,7.91163969,0.150284842,-0.008660031,0.064883612,-91,-57,-97,-30,168
1695162229011530000,-9.20929718,-2.249352455,-0.495599747,-0.177330777,0.046897396,0.287113339,-1,17,-1,17,5,6.635529995,0.821211159,7.872135162,0.142957121,-0.009859112,0.06115314,-91,-56,-97,-27,167
1695162229012530000,-9.208099365,-2.270900249,-0.496796846,-0.172934145,0.043833077,0.290577352,-1,20,4,15,7,6.624756336,0.805648863,7.846996307,0.139226645,-0.011058193,0.058888208,-92,-61,-97,-28,169
1695162229054504700,-9.299078941,-2.499546528,-0.499191046,-0.117776416,-0.02158346,0.290044397,-3,21,3,20,8,5.98550415,0.40821138,7.194576263,0.228091896,-0.35266307,0.089131698,-91,-51,-98,-26,168
1695162229055504700,-9.308655739,-2.503137827,-0.505176544,-0.117509954,-0.026113322,0.286846846,-3,17,4,16,4,5.922058105,0.411802679,7.189787865,0.223428801,-0.389701396,0.087932616,-88,-54,-95,-24,168
1695162229056504700,-9.314641953,-2.510320425,-0.508767843,-0.117509954,-0.030643184,0.283649325,-1,19,4,18,7,5.856217384,0.40940848,7.198167324,0.215967834,-0.428471655,0.085401222,-90,-53,-95,-27,167
1695162229057504700,-9.323021889,-2.511517525,-0.514753342,-0.117776416,-0.035306279,0.280052066,-1,18,3,19,5,5.786785603,0.40821138,7.211335659,0.205442563,-0.468973964,0.081537522,-85,-52,-86,-30,166
1695162229058504700,-9.33020401,-2.517503023,-0.529118598,-0.11817611,-0.041568145,0.275388956,-1,19,3,16,4,5.708973885,0.407014281,7.218518257,0.192119434,-0.510542154,0.076075032,-87,-53,-91,-28,167
1695162229093481000,-9.315838814,-2.570175409,-0.683544576,-0.125104129,-0.103653908,0.216500759,0,25,4,18,7,3.039438963,-0.830788016,7.671022415,-0.26126644,-1.544416547,-0.496552825,-86,-54,-85,-23,165
1695162229094481000,-9.311050415,-2.570175409,-0.697909772,-0.123638593,-0.106052071,0.213036761,-1,20,0,18,7,2.926911592,-0.990002394,7.626729488,-0.279519141,-1.61063242,-0.541584969,-83,-53,-87,-26,163
1695162229095481000,-9.30386734,-2.56778121,-0.709880829,-0.12230628,-0.107917301,0.210505351,-1,20,3,18,9,2.811989784,-1.15520227,7.564480305,-0.294441044,-1.677647829,-0.586217463,-87,-56,-87,-24,162
1695162229096481000,-9.29788208,-2.570175409,-0.718260527,-0.120840736,-0.109516084,0.207840726,-1,17,3,20,8,2.703053713,-1.328781962,7.491456985,-0.306165397,-1.744796395,-0.630316973,-86,-53,-85,-28,162
1695162229097481000,-9.293093681,-2.56897831,-0.718260527,-0.119375192,-0.110981621,0.2051761,-1,18,-1,23,9,2.602497339,-1.501164436,7.411251545,-0.314159274,-1.812211275,-0.673883617,-82,-49,-85,-27,164
1695162229130459400,-9.233239174,-2.553416014,-0.910993755,-0.099923424,-0.126702905,0.143490046,0,21,-1,19,4,1.434126854,-2.234987259,5.390544891,-0.496286362,-2.805716515,-1.809013844,-76,-51,-83,-20,154
1695162229131459400,-9.235632896,-2.547430515,-0.924161851,-0.099656969,-0.126436442,0.138960183,2,18,5,20,7,1.41018486,-2.11647439,5.31273365,-0.540519118,-2.822104216,-1.899211287,-76,-49,-81,-19,156
1695162229132459400,-9.233239174,-2.545036316,-0.933738649,-0.098990813,-0.126303226,0.134163857,1,19,3,22,5,1.385045648,-1.989581585,5.230133533,-0.591280222,-2.83302927,-1.992872834,-72,-48,-82,-19,157
1695162229133459400,-9.238027573,-2.545036316,-0.939724147,-0.098591112,-0.125903517,0.129234299,-1,10,3,22,4,1.367089152,-1.844732404,5.152322292,-0.648969352,-2.838491678,-2.089465618,-73,-47,-81,-19,156
1695162229134459400,-9.241618156,-2.543839216,-0.948103845,-0.098191425,-0.125503823,0.124304749,-1,18,0,23,7,1.351526856,-1.691503525,5.072116375,-0.713586569,-2.838891268,-2.189655542,-69,-49,-81,-17,156
1695162229171435600,-9.129091263,-2.48996973,-1.057040095,-0.062751912,-0.09659265,0.042234302,-3,12,4,20,5,0.811634362,0.353144765,2.892195702,-2.567632437,-2.056957245,-4.365721226,-58,-46,-79,-11,151
1695162229172435600,-9.119514465,-2.486378431,-1.061828494,-0.058888208,-0.093794793,0.038503829,-1,21,-3,20,7,0.724246025,0.393846184,2.747346401,-2.644640207,-1.992473245,-4.365721226,-59,-46,-77,-11,151
1695162229173435600,-9.107542992,-2.477998734,-1.065419793,-0.055024505,-0.090863705,0.034640122,-1,17,2,18,8,0.629675031,0.436941803,2.609679937,-2.71805048,-1.928255796,-4.365721226,-55,-47,-80,-18,151
1695162229174435600,-9.097966194,-2.468421936,-1.073799491,-0.051560488,-0.087932616,0.030509954,-1,17,3,23,5,0.521935999,0.48123455,2.480392933,-2.787730455,-1.865104079,-4.365721226,-60,-48,-80,-11,153
1695162229175435600,-9.084798813,-2.463633537,-1.07619369,-0.048096478,-0.085267991,0.026513018,-3,17,0,16,8,0.44532153,0.509964943,2.389413357,-2.831963062,-1.823669195,-4.365721226,-58,-48,-79,-11,152
1695162229211414700,-9.003395081,-2.282871246,-1.089361787,-0.042367533,-0.041434918,-0.067281775,-1,19,0,19,9,-2.261323452,4.115632534,-0.338779539,-3.111615658,-1.160843849,-4.365721226,-44,-46,-77,-4,158
1695162229212414700,-9.003395081,-2.276885748,-1.086967587,-0.044898927,-0.03757121,-0.072477795,-1,19,2,18,5,-2.33793807,4.410119534,-0.347159237,-3.043267965,-1.128068924,-4.365721226,-44,-46,-77,-5,162
1695162229213414700,-9.003395081,-2.270900249,-1.085770488,-0.047563553,-0.033574272,-0.077540584,-1,18,4,21,4,-2.402581453,4.702212334,-0.328005642,-2.966127157,-1.088632464,-4.365721226,-45,-47,-71,-7,158
1695162229214414700,-8.998606682,-2.262520552,-1.084573388,-0.050228179,-0.029710567,-0.082736596,-1,21,0,18,4,-2.448071241,4.990713596,-0.281318694,-2.880326033,-1.040669203,-4.365721226,-44,-44,-74,-8,162
1695162229215414700,-9.001001358,-2.255337954,-1.07858789,-0.053159267,-0.025580399,-0.087932616,0,17,5,19,7,-2.468421936,5.179855347,-0.227449164,-2.818640232,-1.003764153,-4.365721226,-44,-45,-79,-2,161
1695162229259385400,-9.02374649,-2.091335297,-1.048660398,-0.12723583,0.030643184,-0.201445624,-1,17,-4,16,3,-3.875015497,12.6485672,4.186261654,-1.921460986,1.814209819,-4.365721226,-45,-43,-77,-3,168
1695162229260385400,-9.020154953,-2.084152699,-1.046266198,-0.13243185,0.033441041,-0.208373666,-6,17,-1,19,2,-3.943250179,12.8005991,4.370615005,-1.990607977,2.011392117,-4.365721226,-44,-40,-73,-4,168
1695162229261385400,-9.012971878,-2.073378563,-1.048660398,-0.137761101,0.03650536,-0.215168446,-6,18,3,14,7,-3.993528366,12.86165142,4.487931252,-2.040036678,2.14462328,-4.365721226,-44,-37,-73,-4,168
1695162229262385400,-9.005789757,-2.064998865,-1.042674899,-0.143223584,0.03956968,-0.22183001,-1,18,5,15,5,-4.066551685,12.89756489,4.636371613,-2.116777897,2.346202135,-4.365721226,-46,-40,-75,-3,166
1695162229263385400,-8.995016098,-2.055422068,-1.040280581,-0.148686066,0.043166921,-0.228624806,-3,17,4,17,7,-4.120420933,12.85805988,4.762067318,-2.194051981,2.548713684,-4.365721226,-44,-43,-76,-2,167
1695162229297386800,-8.884882927,-1.847126603,-1.011550188,-0.214102611,0.107517615,-0.316024512,-3,21,5,24,11,-9.393650055,10.86847878,5.597643375,-3.437632561,4.365588188,-4.365721226,-59,-41,-73,-1,169
1695162229298386800,-8.887276649,-1.829170108,-1.010353088,-0.21610108,0.109116383,-0.318022966,-1,26,6,28,8,-9.770736694,10.6446209,5.46596241,-3.452154875,4.365588188,-4.365721226,-60,-39,-72,-2,167
1695162229299386800,-8.884882927,-1.811213613,-1.009155989,-0.218099549,0.110581927,-0.319488525,0,24,8,23,9,-10.12029076,10.37048435,5.313930511,-3.45268774,4.365588188,-4.365721226,-60,-45,-75,-1,168
1695162229300386800,-8.887276649,-1.793257117,-1.010353088,-0.220098019,0.112047479,-0.320554376,-1,22,4,24,13,-10.44949341,10.03529644,5.148730755,-3.437898874,4.365588188,-4.365721226,-60,-43,-76,-1,168
1695162229301386800,-8.889671326,-1.771709204,-1.006761789,-0.221963242,0.113246553,-0.321087271,-1,19,5,20,8,-10.74876881,9.672574997,4.994304657,-3.405790091,4.365588188,-4.365721226,-59,-41,-69,0,170
1695162229334344100,-8.886079788,-1.55982244,-0.939724147,-0.228624806,0.157479316,-0.230490044,-1,17,3,24,10,-16.81328201,2.255337954,1.514332533,1.099823833,4.365588188,-4.083404541,-63,-44,-68,4,168
1695162229335344100,-8.900444984,-1.553836942,-0.934935749,-0.22596018,0.160277188,-0.221163854,-1,20,2,18,4,-17.10896492,2.179920673,1.37666595,1.446758032,4.365588188,-3.940447092,-61,-45,-67,5,166
1695162229336344100,-8.916007042,-1.546654344,-0.926556051,-0.223029092,0.162808567,-0.211571202,-1,25,4,20,5,-17.4022541,2.141613483,1.255758762,1.78942883,4.365588188,-3.798688889,-61,-43,-66,5,166
1695162229337344100,-8.936357498,-1.543063045,-0.915782154,-0.219964772,0.164807037,-0.201978564,-1,17,1,15,4,-17.69075584,2.130839586,1.142034173,2.128102541,4.365588188,-3.658263445,-61,-44,-68,3,168
1695162229338344100,-8.962694168,-1.537077546,-0.906205356,-0.216767237,0.166805506,-0.191986218,-1,22,-1,18,7,-17.87870026,2.142810583,1.071405292,2.351131916,4.365588188,-3.565001488,-60,-41,-66,4,162
1695162229372321500,-9.245209694,-1.575384736,-0.745793819,-0.161875948,0.131366,0.008127105,-1,18,0,18,3,-19.61330032,8.693346024,0.281318694,4.365588188,2.796790123,-2.088799477,-63,-41,-59,13,168
1695162229373321500,-9.244012833,-1.588552833,-0.732625723,-0.157612562,0.128967836,0.018519141,-2,19,3,16,4,-19.61330032,9.246406555,0.300472319,4.365588188,2.671952486,-2.096526861,-60,-39,-65,15,167
1695162229374321500,-9.242815971,-1.604115129,-0.719457626,-0.153215915,0.126702905,0.028777948,-1,22,0,18,7,-19.61330032,9.792284966,0.349553436,4.365588188,2.54564929,-2.110782623,-62,-40,-61,14,167
1695162229375321500,-9.235632896,-1.622071624,-0.70509243,-0.148552835,0.124970905,0.038770292,-5,18,0,17,3,-19.61330032,10.33337498,0.411802679,4.365588188,2.41947937,-2.127969503,-61,-39,-63,17,168
1695162229376321500,-9.230844498,-1.638831019,-0.694318473,-0.143623278,0.123505361,0.048629403,-1,17,5,20,4,-19.61330032,10.87685871,0.505176544,4.365588188,2.292510033,-2.148886681,-61,-37,-59,17,168
1695162229407306300,-9.198522568,-1.784877419,-0.525527298,-0.096725874,0.095393561,0.148819283,-1,19,-1,16,5,-13.6301899,13.82890892,2.41694665,0.631516039,0.545581937,-2.136096478,-63,-43,-59,15,167
1695162229408306300,-9.192537308,-1.794454217,-0.518344641,-0.098990813,0.091130167,0.150418073,-4,17,1,19,4,-13.24831486,13.39675522,2.41694665,0.278986216,0.520267963,-2.053359985,-60,-40,-55,17,165
1695162229409306300,-9.187748909,-1.805228114,-0.502782345,-0.101388969,0.086866774,0.151883617,-1,17,0,18,3,-12.89517021,12.92509747,2.396595955,-0.05489127,0.500816226,-1.962362885,-64,-41,-49,12,166
1695162229410306300,-9.179368973,-1.811213613,-0.492008448,-0.103787132,0.082203679,0.153082699,-1,17,4,16,4,-12.59350109,12.42470932,2.345120668,-0.367052078,0.48562786,-1.862306356,-61,-43,-60,14,167
1695162229411306300,-9.17098999,-1.823184609,-0.489614248,-0.106318533,0.077540584,0.15428178,-1,19,-1,16,5,-12.34330654,11.91953278,2.266111851,-0.654565096,0.472304761,-1.754122496,-62,-40,-57,15,167
1695162229445279300,-9.224859238,-1.940500498,-0.428562105,-0.098324656,-0.019451762,0.178130165,-1,17,-1,11,1,-10.60990524,3.396175146,0.978031397,-1.114612579,-0.116843797,0.419811636,-60,-41,-47,22,169
1695162229446279300,-9.236829758,-1.934514999,-0.432153404,-0.097258806,-0.025180703,0.180528328,-6,9,-5,15,8,-10.50336266,3.202244759,0.994790792,-0.943810105,-0.147353753,0.496552825,-62,-43,-48,21,167
1695162229447279300,-9.252392769,-1.926135302,-0.435744703,-0.096725874,-0.030909648,0.183192953,-3,17,-6,19,5,-10.39801788,3.062183857,0.997184992,-0.763548255,-0.174266458,0.567431867,-60,-43,-47,22,168
1695162229448279300,-9.269151688,-1.917755604,-0.439336002,-0.096459419,-0.03650536,0.185591117,-2,17,-1,16,5,-10.29147625,2.954444885,0.993593693,-0.580488503,-0.201312408,0.629517615,-61,-44,-40,22,167
1695162229449279300,-9.287108421,-1.910573006,-0.452504128,-0.096859112,-0.042367533,0.188388973,-1,17,0,16,4,-10.1933136,2.874239206,1.00436759,-0.397295564,-0.227692187,0.684275687,-61,-43,-46,20,169
1695162229481260300,-9.351752281,-1.911770105,-0.707486629,-0.189454809,-0.126036748,0.194384381,-2,19,2,16,2,-8.708909035,3.736151695,1.453280449,2.003664732,-0.345202148,0.981248081,-61,-44,-40,24,165
1695162229482260300,-9.339780807,-1.914164305,-0.732625723,-0.19638285,-0.128035218,0.190920368,-6,18,-3,14,3,-8.671798706,3.822343111,1.462857246,2.032975435,-0.342670739,0.97911638,-60,-43,-40,25,167
1695162229483260300,-9.329007149,-1.916558504,-0.748188019,-0.203177631,-0.129767224,0.187323123,-2,10,-1,16,3,-8.639476776,3.904942989,1.468842745,2.053759575,-0.340139359,0.975785613,-61,-45,-39,25,167
1695162229484260300,-9.319430351,-1.922544003,-0.770932972,-0.209705979,-0.131499231,0.183459431,-3,19,1,17,4,-8.617929459,3.961206675,1.471236944,2.062952518,-0.338407338,0.972854555,-61,-41,-39,27,166
1695162229485260300,-9.302670479,-1.928529501,-0.793677866,-0.21610108,-0.132698312,0.179196015,-2,9,0,16,3,-8.593987465,4.045003891,1.472434044,2.070413351,-0.336275637,0.967525303,-63,-45,-38,29,166
1695162229516237700,-8.908824921,-2.005143881,-1.039083481,-0.18599081,-0.097924963,0.144822344,-1,17,-1,18,3,-8.662221909,5.001487255,1.048660398,1.251041293,-0.416214377,0.691070437,-63,-44,-34,28,166
1695162229517237700,-8.888473511,-2.00873518,-1.035492182,-0.173200607,-0.092995405,0.149352223,-4,17,0,19,3,-8.668207169,5.000290394,1.00556469,1.186157703,-0.428871363,0.677081168,-60,-41,-36,28,167
1695162229518237700,-8.871714592,-2.017114878,-1.034295082,-0.159211323,-0.088065848,0.154681474,-1,17,-3,17,8,-8.672995567,4.990713596,0.963666201,1.12140727,-0.442327708,0.664557397,-62,-44,-36,29,166
1695162229519237700,-8.856152534,-2.026691675,-1.035492182,-0.14388974,-0.082869835,0.161076576,-4,17,-1,16,2,-8.676587105,4.973954201,0.919373453,1.057189822,-0.456183791,0.652966261,-61,-44,-37,26,164
1695162229520237700,-8.8429842,-2.030282974,-1.04147768,-0.127369061,-0.077807046,0.167871356,-4,19,0,17,4,-8.680178642,4.94642067,0.872686505,0.994038224,-0.47057274,0.642973959,-60,-39,-35,31,167
1695162229553219000,-8.821435928,-2.11767149,-1.018732786,0.266862184,-0.036638591,0.368917316,-1,23,3,22,8,-9.052476883,4.284423828,0.227449164,0.165339977,-0.678946435,0.646704435,-60,-44,-34,30,164
1695162229554219000,-8.832210541,-2.121262789,-1.007958889,0.285381317,-0.037837673,0.379309326,-1,18,3,23,8,-9.077615738,4.255693436,0.208295554,0.14175804,-0.680678427,0.652433395,-66,-44,-34,31,165
1695162229555219000,-8.844181061,-2.126051188,-1.00556469,0.3028346,-0.039036751,0.389168471,1,22,5,16,8,-9.101557732,4.224568844,0.197521642,0.120041348,-0.681344509,0.658162296,-61,-45,-36,31,168
1695162229556219000,-8.859743118,-2.126051188,-1.007958889,0.319222063,-0.040635526,0.398494661,1,19,5,19,10,-9.121908188,4.193444252,0.18674773,0.100323126,-0.68094486,0.664024532,-61,-41,-33,31,165
1695162229557219000,-8.871714592,-2.127248287,-1.007958889,0.334277183,-0.042234302,0.407421142,0,21,8,23,8,-9.143456459,4.16231966,0.177170932,0.082203679,-0.679346085,0.669886649,-61,-44,-33,31,164
1695162229588199600,-9.218873978,-2.333149672,-0.999579191,0.418212861,-0.052759573,0.451653898,-1,18,5,22,5,-9.200917244,3.345896959,0.123301387,0.046497703,-0.495486975,0.821104169,-60,-41,-32,31,166
1695162229589199600,-9.246406555,-2.343923569,-0.998382092,0.414082706,-0.053026035,0.445791721,0,19,4,22,3,-9.193734169,3.308786631,0.128089786,0.059154671,-0.47989893,0.830830038,-69,-43,-32,31,164
1695162229590199600,-9.271546364,-2.359485865,-1.001973391,0.409552813,-0.053159267,0.439263374,4,21,3,18,7,-9.186552048,3.27287364,0.134075299,0.072344564,-0.464177608,0.840156198,-59,-44,-33,31,165
1695162229591199600,-9.293093681,-2.37863946,-1.001973391,0.404490054,-0.053558957,0.431535989,-1,17,7,22,8,-9.181763649,3.240551949,0.144849196,0.085934147,-0.448189914,0.848949432,-60,-41,-34,31,165
1695162229592199600,-9.317035675,-2.395398855,-1.009155989,0.398761094,-0.053825419,0.422875971,-2,21,-5,18,8,-9.17697525,3.209427357,0.155623108,0.099923424,-0.432468593,0.857076526,-60,-45,-31,32,165
1695162229628322700,-9.391256332,-2.60010314,-1.107318282,0.243813157,-0.021316998,0.124837674,-1,17,9,20,9,-9.038111687,2.682703018,0.444124401,0.302701384,-0.170269519,0.911168456,-59,-44,-31,32,165
1695162229629322700,-9.380482674,-2.602497339,-1.110909581,0.237551302,-0.016254211,0.102987751,-2,19,3,18,8,-9.033323288,2.664746523,0.44651863,0.304699838,-0.161609486,0.907571197,-60,-43,-31,32,164
1695162229630322700,-9.367314339,-2.602497339,-1.113303781,0.232355282,-0.01079173,0.081004597,-1,19,3,22,7,-9.02973175,2.652775526,0.452504128,0.305632442,-0.156546697,0.904773355,-60,-45,-32,32,165
1695162229631322700,-9.35654068,-2.603694439,-1.109712481,0.227825418,-0.005329249,0.058754977,-1,18,4,17,7,-9.022548676,2.63601613,0.460883826,0.306298614,-0.149751917,0.899843752,-60,-43,-29,31,164
1695162229632322700,-9.343372345,-2.602497339,-1.106121182,0.224361405,0.000399694,0.036771823,-1,21,7,17,11,-9.016563416,2.621650934,0.468066424,0.306032151,-0.143090352,0.893848419,-59,-43,-32,32,165
1695162229822288700,-9.260771751,-2.448071241,-0.986411095,0.296972424,0.079006128,-0.241148531,-1,22,5,15,9,-8.918401718,2.667140722,0.538695395,0.148952529,-0.104186833,0.616594136,-60,-41,-31,31,166
1695162229823288700,-9.254786491,-2.431311846,-0.978031397,0.306298614,0.080871366,-0.248875946,-1,18,1,16,10,-8.920795441,2.679111719,0.544680893,0.133098006,-0.101522207,0.595410407,-60,-41,-31,32,166
1695162229824288700,-9.251194954,-2.407369852,-0.960074902,0.315491587,0.082603365,-0.256070435,-2,19,4,22,5,-8.919598579,2.693476915,0.547075093,0.116977029,-0.098724343,0.573960185,-60,-43,-29,32,167
1695162229825288700,-9.24760437,-2.381033659,-0.951695204,0.324418068,0.084068909,-0.262598753,-1,21,8,24,8,-8.917203903,2.705447912,0.539892495,0.100589581,-0.0955268,0.552243471,-60,-41,-31,31,162
1695162229826288700,-9.244012833,-2.355894566,-0.944512546,0.333078086,0.085267991,-0.268860638,0,21,3,18,9,-8.918401718,2.71263051,0.538695395,0.089664623,-0.09352833,0.537454844,-60,-40,-31,31,162
1695162229956494200,-9.091980934,-1.900996208,-0.913387954,0.343470156,0.076874427,-0.339473218,1,21,5,22,5,-8.757989883,2.800018787,0.391451985,-0.081271052,-0.018119449,0.146687597,-60,-41,-29,32,165
1695162229957494200,-9.087192535,-1.883039594,-0.912190855,0.3365421,0.075808577,-0.342404276,-1,19,1,23,9,-8.743624687,2.814383984,0.395043284,-0.081404284,-0.013056661,0.13243185,-61,-43,-33,31,164
1695162229958494200,-9.082404137,-1.871068597,-0.914585054,0.329480857,0.07500919,-0.344935685,0,21,7,23,7,-8.732851028,2.829946518,0.395043284,-0.081404284,-0.007460949,0.118709028,-61,-41,-31,32,162
1695162229959494200,-9.077615738,-1.861491799,-0.910993755,0.322419584,0.074209802,-0.347467095,-1,19,0,18,8,-8.722076416,2.845508814,0.407014281,-0.081404284,-0.001598775,0.105385914,-60,-45,-29,31,164
1695162229960494200,-9.071630478,-1.851915002,-0.915782154,0.315358341,0.073410407,-0.349865228,-1,20,1,20,8,-8.713697433,2.862268209,0.415394008,-0.081137821,0.004529862,0.09272895,-59,-41,-29,32,166
1695162230033446200,-9.111134529,-1.70946002,-0.987608194,0.239150077,0.06981317,-0.366252691,-1,17,4,18,5,-8.62511158,3.362656355,0.605733037,-0.122173049,0.098857582,-0.102721281,-60,-37,-32,38,162
1695162230034446200,-9.115922928,-1.699883223,-0.993593693,0.23635222,0.069679938,-0.366385907,-1,17,3,22,9,-8.622717857,3.387795448,0.612915635,-0.126702905,0.100189894,-0.110848397,-62,-43,-30,34,165
1695162230035446200,-9.118317604,-1.691503525,-0.997184992,0.233421117,0.069679938,-0.366385907,-1,19,1,20,8,-8.614337921,3.409343243,0.621295333,-0.130966306,0.101122513,-0.118575804,-60,-40,-30,30,160
1695162230036446200,-9.120711327,-1.683123827,-0.998382092,0.230490044,0.069546707,-0.366385907,-1,21,3,19,7,-8.607154846,3.427299738,0.629675031,-0.135362938,0.101921894,-0.125903517,-62,-44,-31,30,165
1695162230037446200,-9.125499725,-1.674744129,-1.00556469,0.227692187,0.069679938,-0.366252691,-1,19,3,18,7,-8.597578049,3.440467834,0.635660529,-0.13975957,0.102055125,-0.132698312,-60,-45,-30,31,162
1695162230113399800,-9.18296051,-1.513135433,-1.048660398,0.160810098,0.08753293,-0.377444088,-1,18,0,16,8,-8.584410667,3.766079187,0.701501071,-0.164540574,0.091529861,-0.20824042,-60,-41,-29,32,164
1695162230114399800,-9.18894577,-1.504755735,-1.049857497,0.156413481,0.088598773,-0.378776401,0,18,-2,18,7,-8.582015991,3.784035683,0.701501071,-0.163741201,0.09033078,-0.210105672,-54,-44,-31,31,167
1695162230115399800,-9.194931984,-1.491587639,-1.052251697,0.152150065,0.089664623,-0.379842281,-1,21,4,19,7,-8.582015991,3.801992416,0.697909772,-0.162542105,0.089264929,-0.211571202,-60,-49,-29,32,163
1695162230116399800,-9.200917244,-1.483207941,-1.054645896,0.147886679,0.090597242,-0.380774885,6,18,2,21,13,-8.584410667,3.818751812,0.700303972,-0.161209792,0.088199086,-0.212770298,-63,-44,-31,32,164
1695162230117399800,-9.205705643,-1.477222443,-1.063025594,0.143490046,0.091396637,-0.381973952,-1,20,4,18,5,-8.585607529,3.836708307,0.707486629,-0.160010725,0.087133229,-0.213969365,-60,-43,-33,32,162
1695162230150379200,-9.228450775,-1.365892053,-1.018732786,0.07274425,0.111647777,-0.374779463,-2,22,0,18,9,-8.596381187,4.029441357,0.720654726,-0.099523738,0.077007659,-0.180395097,-59,-41,-29,31,166
1695162230151379200,-9.226056099,-1.361103654,-1.013944387,0.069147013,0.112846859,-0.373047471,-1,19,5,18,10,-8.597578049,4.033032894,0.714669228,-0.09272895,0.075275652,-0.17559877,-60,-38,-31,32,165
1695162230152379200,-9.222464561,-1.357512355,-1.013944387,0.065283306,0.113912709,-0.371182233,-1,17,1,19,7,-8.601169586,4.035427094,0.707486629,-0.085667685,0.073277183,-0.170802444,-61,-44,-32,31,166
1695162230153379200,-9.220070839,-1.349132657,-1.007958889,0.061286367,0.114978559,-0.369450212,-1,20,-1,15,7,-8.601169586,4.040215492,0.700303972,-0.078339972,0.071278714,-0.165872887,-61,-41,-32,31,166
1695162230154379200,-9.216479301,-1.341950059,-1.00317049,0.057156201,0.115777947,-0.367318511,-3,17,1,22,9,-8.603564262,4.045003891,0.695515573,-0.070612557,0.069147013,-0.160676882,-60,-45,-29,31,165
1695162230216545700,-9.058462143,-1.241393566,-0.909796655,-0.044632465,0.107517615,-0.311894357,-1,22,5,21,4,-8.649053574,4.197035789,0.714669228,0.06261868,0.016787136,-0.033441041,-60,-44,-31,31,166
1695162230217545700,-9.051279068,-1.235408068,-0.903811157,-0.050361406,0.106584989,-0.307231247,-1,21,2,23,9,-8.652645111,4.203021049,0.713472128,0.065549769,0.013456355,-0.026379786,-60,-40,-29,31,165
1695162230218545700,-9.041702271,-1.233013868,-0.896628559,-0.055823889,0.105785601,-0.302168459,-2,21,1,16,9,-8.65743351,4.204218388,0.707486629,0.067148544,0.011324655,-0.02158346,-62,-40,-32,31,165
1695162230219545700,-9.036913872,-1.22822547,-0.89303726,-0.061019909,0.105252676,-0.296572745,0,18,7,19,8,-8.659827232,4.205415249,0.703895271,0.069147013,0.007860643,-0.014655436,-63,-41,-29,31,166
1695162230220545700,-9.027337074,-1.22702837,-0.887051702,-0.066215925,0.104320064,-0.290843785,-1,20,3,20,9,-8.661025047,4.206612587,0.702698171,0.070612557,0.004796324,-0.007727412,-65,-45,-33,31,164
1695162230433409300,-8.923190117,-1.229422569,-0.775721371,-0.125637069,0.078339972,-0.129234299,-1,17,0,17,5,-8.682572365,4.143166065,0.711077929,0.05768913,-0.02691271,0.081803977,-60,-44,-32,31,166
1695162230434409300,-8.918401718,-1.231816769,-0.767341673,-0.127768755,0.075808577,-0.117643185,-1,17,5,19,7,-8.681375504,4.138377666,0.707486629,0.057422664,-0.02691271,0.084868304,-60,-44,-32,31,168
1695162230435409300,-8.911218643,-1.230619669,-0.757764816,-0.129900455,0.073676877,-0.105918832,-2,18,7,22,9,-8.680178642,4.12999773,0.708683729,0.057555895,-0.027179174,0.087932616,-59,-37,-33,31,166
1695162230436409300,-8.905233383,-1.235408068,-0.751779318,-0.132165387,0.071278714,-0.093794793,-1,19,3,18,7,-8.680178642,4.12401247,0.709880829,0.05768913,-0.027445635,0.090996936,-60,-45,-33,30,164
1695162230437409300,-8.898050308,-1.242590666,-0.749385118,-0.134430319,0.069013782,-0.081404284,-1,17,3,17,7,-8.681375504,4.116829872,0.707486629,0.05808882,-0.02797856,0.094061248,-60,-44,-33,31,163
1695162230670986500,-8.877699852,-1.386242747,-0.681150377,-0.17559877,0.004663093,0.150418073,-1,20,0,16,3,-8.672995567,4.027047157,0.660799682,0.089664623,-0.069946401,0.157479316,-66,-44,-34,31,163
1695162230671986500,-8.880094528,-1.398213744,-0.678756177,-0.177863702,0.000799387,0.161476254,-1,22,3,22,5,-8.670601845,4.025850296,0.658405483,0.090197548,-0.071411945,0.159344569,-60,-44,-32,33,164
1695162230672986500,-8.883685112,-1.408987641,-0.677559078,-0.180261865,-0.002931087,0.172534451,-2,21,3,16,8,-8.670601845,4.024652958,0.658405483,0.090863705,-0.073277183,0.162275642,-59,-43,-31,31,164
1695162230673986500,-8.883685112,-1.422155857,-0.682347476,-0.183059722,-0.0063951,0.183459431,-1,17,3,22,5,-8.665813446,4.019864559,0.654814184,0.091263399,-0.07500919,0.164940268,-61,-41,-34,31,166
1695162230674986500,-8.886079788,-1.434126854,-0.683544576,-0.185724348,-0.009859112,0.194384381,-1,19,-1,18,9,-8.662221909,4.016273499,0.646434486,0.091396637,-0.076607957,0.167471662,-60,-43,-29,31,158
1695162230793566600,-9.022548676,-1.659181833,-0.696712673,-0.229690656,-0.06674885,0.36198926,0,18,3,22,9,-8.633491516,3.906140089,0.579396784,0.044499233,-0.061419602,0.165872887,-59,-40,-32,30,166
1695162230794566600,-9.030928612,-1.67115283,-0.695515573,-0.231422648,-0.070079632,0.368917316,-2,19,-3,20,7,-8.63109684,3.90254879,0.575805485,0.040235836,-0.059154671,0.163474724,-63,-40,-32,26,162
1695162230795566600,-9.041702271,-1.684320927,-0.700303972,-0.233021438,-0.073410407,0.375978559,-1,25,5,22,5,-8.632294655,3.897760391,0.569819987,0.035705972,-0.056889739,0.160810098,-59,-39,-29,31,167
1695162230796566600,-9.048885345,-1.696291924,-0.703895271,-0.234486982,-0.076607957,0.38277334,-1,22,3,19,6,-8.632294655,3.894169092,0.561440289,0.031176111,-0.05489127,0.158278719,-61,-40,-32,31,163
1695162230797566600,-9.057265282,-1.713051319,-0.711077929,-0.235819295,-0.079805516,0.389301687,-1,21,3,18,8,-8.63109684,3.888183594,0.555454791,0.026646247,-0.052626338,0.155614093,-60,-44,-34,31,164
1695162230829541200,-9.217676163,-1.960851192,-0.796072066,-0.251407355,-0.11924196,0.470039815,-1,22,3,20,7,-8.62511158,3.79361248,0.506373644,-0.042234302,-0.012257273,0.094860643,-58,-43,-31,31,165
1695162230830541200,-9.220070839,-1.980004787,-0.802057564,-0.251274139,-0.119908117,0.472171485,-1,19,1,22,7,-8.621520042,3.79241538,0.506373644,-0.045565084,-0.009992342,0.091529861,-60,-40,-31,31,167
1695162230831541200,-9.230844498,-1.997961283,-0.804451764,-0.251140893,-0.120441042,0.474036753,-3,20,8,18,7,-8.61912632,3.791218281,0.503979445,-0.049029093,-0.007993874,0.08833231,-60,-40,-30,32,163
1695162230832541200,-9.240421295,-2.014720678,-0.812831461,-0.250607967,-0.120840736,0.475768775,-1,19,2,19,5,-8.617929459,3.79241538,0.507570744,-0.05249311,-0.006128637,0.085267991,-60,-44,-31,31,165
1695162230833541200,-9.248801231,-2.029085875,-0.823605359,-0.249941811,-0.121107198,0.477101088,-1,17,1,16,6,-8.616731644,3.791218281,0.508767843,-0.056090351,-0.004130168,0.08233691,-61,-41,-31,31,165
1695162230867518900,-9.314641953,-2.30561614,-0.924161851,-0.202644721,-0.119908117,0.432735085,-2,20,4,17,4,-8.605957985,3.748122692,0.480037451,-0.109249614,0.027445635,0.04516539,-60,-45,-34,29,164
1695162230868518900,-9.311050415,-2.317587137,-0.92775315,-0.200646251,-0.119375192,0.427006125,-1,22,0,20,7,-8.610746384,3.744531393,0.48123455,-0.109915771,0.028644716,0.044099543,-60,-45,-19,31,164
1695162230869518900,-9.309853554,-2.322375536,-0.939724147,-0.198647782,-0.118709028,0.421010703,-1,21,-1,17,9,-8.610746384,3.738545895,0.488417149,-0.110049009,0.029577335,0.043166921,-59,-39,-32,31,162
1695162230870518900,-9.309853554,-2.325966835,-0.951695204,-0.196915776,-0.117909648,0.41501531,-2,17,3,18,7,-8.61314106,3.737348795,0.492008448,-0.109915771,0.030376723,0.042234302,-61,-43,-32,31,164
1695162230871518900,-9.309853554,-2.328361034,-0.955286503,-0.195849925,-0.117243491,0.410751909,-1,20,3,16,4,-8.614337921,3.731363297,0.494402647,-0.109649308,0.03130934,0.041301683,-63,-46,-34,30,166
1695162230904498500,-9.260771751,-2.412158251,-1.00556469,-0.191852987,-0.079405814,0.269926488,-3,23,3,22,8,-8.645462036,3.727771997,0.507570744,-0.06674885,0.025047474,0.031442571,-60,-41,-32,31,165
1695162230905498500,-9.257181168,-2.418143749,-1.001973391,-0.192119434,-0.07714089,0.261932611,-1,21,3,19,9,-8.644265175,3.731363297,0.509964943,-0.065283306,0.024647778,0.03130934,-63,-39,-31,27,162
1695162230906498500,-9.254786491,-2.421735048,-1.00436759,-0.192385912,-0.074875958,0.253938764,-1,21,3,22,7,-8.646659851,3.734954596,0.508767843,-0.063817769,0.024248086,0.031176111,-60,-42,-31,31,165
1695162230907498500,-9.254786491,-2.427720547,-1.00556469,-0.192652375,-0.07274425,0.246344566,-1,17,7,18,7,-8.650250435,3.738545895,0.507570744,-0.06261868,0.023715161,0.031042879,-60,-41,-29,31,164
1695162230908498500,-9.252392769,-2.432508945,-1.011550188,-0.192652375,-0.070745789,0.238483921,-2,21,1,22,7,-8.650250435,3.743334293,0.507570744,-0.061419602,0.02358193,0.030909648,-58,-45,-34,32,165
1695162230944478200,-9.184157372,-2.455253839,-1.063025594,-0.175332308,-0.04729709,0.09739203,-2,18,1,22,11,-8.640673637,3.75769949,0.525527298,-0.050627869,0.027179174,0.031709034,-60,-40,-31,31,162
1695162230945478200,-9.181763649,-2.45285964,-1.069011092,-0.174266458,-0.046098009,0.089931086,-2,19,0,22,9,-8.643068314,3.75650239,0.532709897,-0.04969525,0.027445635,0.031442571,-61,-43,-30,31,165
1695162230946478200,-9.178172112,-2.448071241,-1.071405292,-0.173200607,-0.044765696,0.08233691,-1,19,3,15,3,-8.644265175,3.75530529,0.537498295,-0.049029093,0.027712099,0.031042879,-60,-41,-31,31,164
1695162230947478200,-9.175778389,-2.444479942,-1.070208192,-0.172267988,-0.043433387,0.07500919,-1,19,1,18,5,-8.647856712,3.754108191,0.541089594,-0.048096478,0.028111791,0.030509954,-61,-40,-34,31,163
1695162230948478200,-9.172186852,-2.437297344,-1.07619369,-0.171601832,-0.041834611,0.067681469,-2,17,0,18,7,-8.649053574,3.75650239,0.543483794,-0.047163859,0.028245023,0.030243492,-61,-43,-31,31,164
1695162230988449700,-9.123106003,-2.342726469,-1.11689508,-0.161609486,-0.007194487,-0.065816231,-1,17,3,22,9,-8.672995567,3.761290789,0.575805485,-0.039169986,0.017719755,0.022915773,-60,-40,-33,31,165
1695162230989449700,-9.124302864,-2.334346771,-1.119289279,-0.160943344,-0.005196018,-0.072611026,1,23,-1,22,8,-8.674192429,3.762487888,0.579396784,-0.038370594,0.016653905,0.022782542,-58,-40,-29,31,162
1695162230990449700,-9.125499725,-2.327163935,-1.125274777,-0.160010725,-0.002931087,-0.079405814,-1,25,3,22,8,-8.671798706,3.762487888,0.580593884,-0.037970904,0.015721286,0.022782542,-62,-40,-32,31,170
1695162230991449700,-9.125499725,-2.321178436,-1.124077678,-0.159211323,-0.000799387,-0.086200617,-1,22,4,17,7,-8.670601845,3.766079187,0.575805485,-0.036905054,0.014522205,0.022782542,-59,-41,-32,32,166
1695162230992449700,-9.120711327,-2.315192938,-1.125274777,-0.158278719,0.001465544,-0.092995405,-2,19,6,15,9,-8.672995567,3.760093689,0.569819987,-0.035972435,0.013323124,0.022782542,-57,-37,-33,31,167
1695162231029450700,-9.125499725,-2.190694571,-1.143231273,-0.115644716,0.043300152,-0.198647782,-2,17,6,13,5,-8.722076416,3.79361248,0.603338838,-0.006261868,0.004929556,0.018918836,-60,-41,-31,31,166
1695162231030450700,-9.125499725,-2.176329374,-1.140837073,-0.112713635,0.045565084,-0.203444093,-3,21,1,20,7,-8.723274231,3.797203779,0.610521436,-0.005462481,0.004796324,0.017852986,-64,-37,-31,31,165
1695162231031450700,-9.124302864,-2.166752577,-1.143231273,-0.109915771,0.047963247,-0.20824042,0,20,5,20,8,-8.722076416,3.803189516,0.612915635,-0.004663093,0.004396631,0.017053599,-60,-40,-33,31,165
1695162231032450700,-9.121908188,-2.158372879,-1.142034173,-0.106718227,0.050228179,-0.212903515,-1,17,5,20,8,-8.719682693,3.807977915,0.614112735,-0.0042634,0.003996937,0.016254211,-60,-48,-31,31,162
1695162231033450700,-9.123106003,-2.149993181,-1.143231273,-0.103920363,0.052759573,-0.217300147,-1,19,5,18,9,-8.714894295,3.813963413,0.615309834,-0.003863706,0.003330781,0.015454824,-64,-40,-30,32,165
1695162231066429200,-9.118317604,-1.965639591,-1.098938584,-0.069546707,0.099257268,-0.274056673,0,23,7,19,3,-8.73404789,4.203021049,0.608127236,0.039036751,-0.01079173,0.008526799,-61,-40,-28,31,166
1695162231067429200,-9.115922928,-1.960851192,-1.097741485,-0.0678147,0.101522207,-0.275655419,-1,20,3,24,9,-8.737639427,4.283226967,0.623689532,0.048496172,-0.005728943,0.006661562,-60,-43,-33,31,165
1695162231068429200,-9.113529205,-1.957259893,-1.097741485,-0.066082694,0.103787132,-0.277254194,-1,17,3,19,5,-8.74003315,4.370615005,0.641646028,0.058754977,0.00106585,0.004529862,-60,-45,-28,32,164
1695162231069429200,-9.114726067,-1.946485996,-1.091755986,-0.063950993,0.106185302,-0.278852999,-1,19,0,26,8,-8.738836288,4.465186119,0.666785181,0.069546707,0.009859112,0.002398162,-60,-41,-33,31,166
1695162231070429200,-9.114726067,-1.938106298,-1.089361787,-0.061952524,0.108583458,-0.280185282,-1,21,-1,19,7,-8.731653214,4.560954094,0.693121374,0.081537522,0.020917306,0.000133231,-63,-41,-32,31,165
1695162231098389900,-9.097966194,-1.789665818,-0.990002394,-0.036905054,0.129767224,-0.288712084,-1,21,4,18,7,-9.167398453,9.342175484,2.627636433,0.666022956,0.897712111,0.346134782,-60,-39,-34,26,165
1695162231099389900,-9.099164009,-1.776497602,-0.985213995,-0.036771823,0.130033687,-0.288045943,-1,17,-1,17,8,-9.252392769,9.779116631,2.703053713,0.661626339,0.941944897,0.423542112,-61,-39,-34,28,165
1695162231100389900,-9.099164009,-1.771709204,-0.981622696,-0.03650536,0.130566612,-0.287379771,-2,19,1,22,9,-9.331400871,10.15141487,2.780865192,0.646970928,0.973254204,0.509076536,-59,-41,-34,28,166
1695162231101389900,-9.09437561,-1.765723705,-0.979228497,-0.036372125,0.130699843,-0.286313951,-1,22,4,18,7,-9.404424667,10.4830122,2.868253708,0.621523738,0.992306292,0.604203641,-59,-39,-34,30,166
1695162231102389900,-9.091980934,-1.758541107,-0.976834297,-0.036238898,0.130833074,-0.285114855,-1,19,-1,22,3,-9.475052834,10.77031612,2.950853586,0.587816238,1.001499176,0.707724333,-59,-38,-34,26,164
1695162231132367500,-9.082404137,-1.675941229,-0.849941611,-0.020917306,0.134963244,-0.225560486,-1,18,7,20,5,-11.5975132,13.76546288,2.333149672,-0.196915776,-0.431003064,2.973721266,-60,-41,-35,24,164
1695162231133367500,-9.082404137,-1.668758631,-0.85473001,-0.020251149,0.134030625,-0.221430331,-1,19,3,18,4,-11.63701725,13.83250046,2.282871246,-0.22183001,-0.57236141,3.083370686,-60,-36,-35,25,168
1695162231134367500,-9.080010414,-1.665167332,-0.848744512,-0.019718224,0.132831544,-0.217166916,-1,17,3,22,8,-11.65736771,13.87918758,2.236184359,-0.237551302,-0.674549758,3.161577225,-61,-39,-39,24,167
1695162231135367500,-9.078812599,-1.662773132,-0.841561913,-0.019185297,0.131632462,-0.213169977,-1,21,1,18,4,-11.66574764,13.92707157,2.190694571,-0.251274139,-0.769277155,3.237385988,-60,-39,-34,26,166
1695162231136367500,-9.075222015,-1.656787634,-0.834379315,-0.019185297,0.130033687,-0.209173039,0,8,-1,24,7,-11.66574764,13.97974396,2.148796082,-0.263931066,-0.859474719,3.311329126,-59,-39,-35,26,156
1695162231170346000,-9.063250542,-1.622071624,-0.74220252,-0.028378254,0.094194487,-0.133098006,-1,18,3,18,8,-10.80383492,15.92263794,0.258573771,-0.813110292,-1.489658475,4.365588188,-60,-38,-38,24,168
1695162231171346000,-9.070432663,-1.617283225,-0.741005421,-0.028644716,0.092062794,-0.128434911,-2,18,0,16,14,-10.76073933,16.00763321,0.08259996,-0.852413476,-1.481664538,4.365588188,-61,-41,-37,25,166
1695162231172346000,-9.078812599,-1.616086125,-0.735019922,-0.028911179,0.089797854,-0.123638593,-1,10,4,18,8,-10.73440361,16.05312157,-0.053869538,-0.877860665,-1.473937154,4.365588188,-60,-39,-40,20,167
1695162231173346000,-9.090784073,-1.617283225,-0.735019922,-0.02917764,0.087666154,-0.118975498,-1,20,4,20,8,-10.71285534,16.07347298,-0.18435353,-0.898511469,-1.465143919,4.365588188,-60,-39,-37,24,166
1695162231174346000,-9.097966194,-1.618480325,-0.735019922,-0.029444104,0.085267991,-0.114045948,-1,19,6,16,8,-10.70327854,16.08065605,-0.263362199,-0.909169972,-1.458748817,4.365588188,-58,-36,-36,25,170
1695162231203326800,-9.238027573,-1.678335428,-0.729034424,-0.037038282,0.044632465,-0.014255743,-2,17,3,19,9,-9.236829758,15.9824934,-1.195903778,-0.535856009,-0.899710536,4.365588188,-61,-44,-48,18,174
1695162231204326800,-9.235632896,-1.687912226,-0.731428623,-0.036105666,0.043300152,-0.008926493,-1,20,3,18,7,-9.083600998,15.89510536,-1.230619669,-0.508410394,-0.848549783,4.365588188,-60,-44,-45,16,173
1695162231205326800,-9.230844498,-1.696291924,-0.732625723,-0.034773353,0.041967839,-0.003597243,-1,21,5,23,7,-8.918401718,15.79933739,-1.253364563,-0.480698317,-0.795523763,4.365588188,-61,-38,-48,16,177
1695162231206326800,-9.22725296,-1.70826292,-0.736217022,-0.033041347,0.040901989,0.001598775,-1,19,0,20,7,-8.741230011,15.69159794,-1.258152962,-0.452320069,-0.740232766,4.365588188,-60,-40,-49,15,170
1695162231207326800,-9.222464561,-1.717839718,-0.74339962,-0.031042879,0.040102605,0.006794794,-1,18,4,18,8,-8.614337921,15.61618042,-1.255758762,-0.43366769,-0.702528298,4.365588188,-53,-40,-49,16,173
1695162231241306100,-9.125499725,-1.839944005,-0.675164878,0.042234302,0.044099543,0.088732004,-2,22,0,20,5,-5.172672749,12.84130096,-1.221042871,-0.492022961,0.385837674,4.365588188,-63,-43,-57,8,170
1695162231242306100,-9.115922928,-1.847126603,-0.66798228,0.048629403,0.044765696,0.093928024,-2,17,4,17,9,-5.001487255,12.58751583,-1.249773264,-0.492289424,0.436998457,4.365588188,-63,-41,-57,10,169
1695162231243306100,-9.103952408,-1.8579005,-0.656011283,0.055690661,0.044898927,0.099390499,-1,22,8,19,7,-4.8314991,12.33253288,-1.267729759,-0.485894322,0.487626314,4.365588188,-62,-40,-57,8,172
1695162231244306100,-9.095572472,-1.862688899,-0.648828685,0.063284837,0.045032158,0.104852989,-3,18,4,15,4,-4.661510944,12.07515621,-1.272518158,-0.473903507,0.538520634,4.365588188,-65,-43,-57,6,172
1695162231245306100,-9.089587212,-1.869871497,-0.647631586,0.068614088,0.045032158,0.108583458,-1,21,1,26,8,-4.489128113,11.81658268,-1.26653266,-0.457516104,0.589814663,4.365588188,-65,-41,-59,5,171
1695162231282282300,-9.010578156,-1.982398987,-0.545877993,0.253805518,-0.006928025,0.235686064,-1,21,0,19,8,-1.498770237,7.970297337,-0.36990416,-0.467108727,1.608633995,4.365588188,-76,-44,-63,-1,168
1695162231283282300,-9.011775017,-1.983596087,-0.544680893,0.261666149,-0.012790199,0.242347628,-1,19,1,18,3,-1.362300754,7.718906403,-0.347159237,-0.483629376,1.652067304,4.365588188,-75,-43,-64,-1,167
1695162231284282300,-9.021351814,-1.978807688,-0.539892495,0.269127101,-0.018918836,0.249009192,0,19,0,15,7,-1.242590666,7.465120792,-0.326808542,-0.496686071,1.691503882,4.365588188,-76,-40,-63,-1,168
1695162231285282300,-9.026140213,-1.972822189,-0.541089594,0.275655419,-0.025047474,0.255803972,-1,18,4,22,9,-1.136048675,7.216124058,-0.313640416,-0.507211328,1.726277113,4.365588188,-71,-44,-66,-1,168
1695162231286282300,-9.034520149,-1.962048292,-0.538695395,0.2809847,-0.031176111,0.26233232,0,18,3,26,7,-1.037886381,6.959944248,-0.314837515,-0.51320678,1.756254196,4.365588188,-76,-43,-66,-1,168
1695162231320284200,-9.269151688,-1.988384485,-0.610521436,0.210238889,-0.132964775,0.327615619,0,18,3,17,9,1.272518158,3.846285105,0.16639702,-0.299770296,1.846185327,4.365588188,-83,-45,-68,-11,163
1695162231321284200,-9.287108421,-2.000355482,-0.624886632,0.198647782,-0.138160795,0.32615009,-3,17,1,15,7,1.44729495,3.7169981,0.258573771,-0.300169975,1.863771915,4.365588188,-85,-47,-66,-13,162
1695162231322284200,-9.30386734,-2.00993228,-0.636857629,0.186790213,-0.143490046,0.323885113,-3,21,7,18,7,1.532289028,3.651157618,0.300472319,-0.300969362,1.873098016,4.365588188,-81,-43,-67,-12,167
1695162231323284200,-9.320627213,-2.020706177,-0.644040287,0.174399704,-0.148952529,0.321087271,0,18,0,22,9,1.656787634,3.551798105,0.359130263,-0.301635504,1.887486935,4.365588188,-85,-42,-66,-11,164
1695162231324284200,-9.33618927,-2.031480074,-0.661996782,0.161476254,-0.154415011,0.317356825,-1,18,0,20,5,1.764526606,3.450044632,0.415394008,-0.302967817,1.90200913,4.358793259,-85,-41,-67,-12,164
1695162231355264300,-9.331400871,-2.355894566,-0.991199493,-0.043433387,-0.201445624,0.130833074,-1,19,1,19,8,2.711433411,1.364694953,1.837549806,-0.148819283,1.775705934,3.518104315,-87,-41,-68,-17,164
1695162231356264300,-9.321824074,-2.372653961,-1.007958889,-0.049029093,-0.199447155,0.115378261,-1,19,3,22,7,2.737769604,1.238999367,1.945288897,-0.127635539,1.756653905,3.485329151,-86,-39,-69,-18,162
1695162231357264300,-9.313444138,-2.389413357,-1.025915384,-0.054091886,-0.196915776,0.099656969,-2,19,0,18,8,2.7521348,1.15280807,2.013523579,-0.112180702,1.744396567,3.462813377,-89,-41,-69,-16,161
1695162231358264300,-9.302670479,-2.403778553,-1.039083481,-0.058355279,-0.193718225,0.083669223,-2,18,1,21,4,2.770091295,1.033097982,2.130839586,-0.087133229,1.726943254,3.427773237,-89,-42,-68,-16,164
1695162231359264300,-9.289502144,-2.41335535,-1.054645896,-0.061819296,-0.190254211,0.067281775,-1,23,3,18,9,2.78924489,0.920570552,2.258929253,-0.06261868,1.71202147,3.391001463,-90,-45,-69,-15,162
1695162231388221900,-9.085995674,-2.239775658,-1.219845772,-0.081404284,-0.084068909,-0.205575794,-2,17,-3,16,4,2.961627483,-0.568622887,4.236539841,0.367451757,1.685241938,2.295707464,-89,-45,-73,-23,165
1695162231389221900,-9.072827339,-2.227804661,-1.218648672,-0.082470134,-0.077807046,-0.21610108,-6,19,0,13,6,2.977189779,-0.639251828,4.302380562,0.391833097,1.681378245,2.23242259,-88,-48,-72,-17,165
1695162231390221900,-9.060855865,-2.211045265,-1.224634171,-0.083402753,-0.071678407,-0.226226643,-1,20,4,15,2,2.989160776,-0.711077929,4.365826607,0.41861257,1.676448703,2.169004679,-76,-39,-76,-22,162
1695162231391221900,-9.054870605,-2.195482969,-1.22702837,-0.083802447,-0.065949462,-0.235419586,-2,17,0,15,5,3.003525972,-0.788889468,4.42448473,0.449122518,1.67045331,2.106785536,-86,-44,-73,-20,160
1695162231392221900,-9.045293808,-2.179920673,-1.22702837,-0.084335379,-0.060220521,-0.244079635,-6,19,-5,14,0,3.021482468,-0.843956113,4.490325451,0.482297063,1.663125634,2.045232773,-88,-44,-73,-20,160
1695162231430197300,-8.896853447,-1.8579005,-1.207874775,-0.092062794,-0.007727412,-0.323751897,-3,18,-1,14,0,3.803189516,-0.452504128,6.31590414,0.639110267,1.499784112,0.966459394,-86,-43,-73,-18,164
1695162231431197300,-8.896853447,-1.842338204,-1.210268974,-0.094460949,-0.006928025,-0.324817777,-2,17,-1,18,0,3.870227098,-0.418985307,6.36259079,0.600606382,1.476335287,0.928621769,-87,-45,-76,-22,162
1695162231432197300,-8.898050308,-1.823184609,-1.211466074,-0.097258806,-0.006128637,-0.325483918,-2,17,-2,19,5,3.93965888,-0.393846184,6.410475254,0.559837699,1.45115459,0.893581927,-89,-44,-79,-19,161
1695162231433197300,-8.905233383,-1.810016513,-1.211466074,-0.100589581,-0.005062787,-0.325750381,-5,11,1,19,5,4.016273499,-0.380678058,6.453570843,0.517603338,1.4242419,0.861473203,-87,-43,-75,-20,164
1695162231434197300,-8.907627106,-1.799242616,-1.210268974,-0.10285452,-0.004529862,-0.325883597,-1,17,-2,13,3,4.068945885,-0.375889659,6.482301235,0.489358336,1.405456305,0.84148854,-87,-43,-76,-21,162
1695162231465178800,-9.012971878,-1.578976035,-1.289277673,-0.212637067,0.025846859,-0.281384379,-4,17,0,14,3,4.147954464,-0.782903969,8.831012726,0.027312404,0.489491582,0.285514534,-85,-59,-84,-18,162
1695162231466178800,-9.012971878,-1.572990537,-1.289277673,-0.216767237,0.027445635,-0.279252678,-3,18,-6,18,0,4.234145641,-0.825999558,8.847772598,0.008127105,0.454851478,0.270059735,-91,-61,-87,-19,160
1695162231467178800,-9.010578156,-1.570596337,-1.296460271,-0.222895861,0.029977029,-0.275788665,-1,17,-2,14,6,4.285621166,-0.851138711,8.833407402,-0.000932619,0.433401227,0.260600299,-86,-63,-88,-18,162
1695162231468178800,-9.009381294,-1.567005038,-1.303642869,-0.228624806,0.032641653,-0.272324651,-3,17,-1,16,-2,4.363432407,-0.877474904,8.775946617,-0.008127105,0.402491599,0.247277185,-87,-60,-89,-18,161
1695162231469178800,-9.005789757,-1.565807939,-1.308431268,-0.234620214,0.035705972,-0.268860638,-6,17,1,18,-1,4.45441246,-0.89184016,8.706514359,-0.008926493,0.371848404,0.235019907,-86,-63,-91,-19,161
1695162231499157900,-8.930372238,-1.59932673,-1.233013868,-0.264330775,0.109382853,-0.17453292,-4,18,-1,14,4,7.157465935,0.269347697,7.326257229,0.516137838,-0.037837673,0.295240432,-86,-67,-92,-18,162
1695162231500157900,-8.931569099,-1.602918029,-1.218648672,-0.26126644,0.112713635,-0.16773814,-1,18,4,18,5,7.24485445,0.384269387,7.316680431,0.529460967,-0.044898927,0.293375194,-89,-69,-97,-17,162
1695162231501157900,-8.927978516,-1.607706428,-1.209071875,-0.257802457,0.115911178,-0.160676882,-2,17,1,16,1,7.331045628,0.496796846,7.319074631,0.540519118,-0.051294025,0.289644688,-86,-69,-97,-21,166
1695162231502157900,-8.925583839,-1.611297727,-1.193509579,-0.254205197,0.118842266,-0.153482378,-1,19,1,17,9,7.414842606,0.606930137,7.328651428,0.548779488,-0.056889739,0.284315467,-87,-71,-93,-17,162
1695162231503157900,-8.921992302,-1.617283225,-1.183932781,-0.250607967,0.121640123,-0.146287903,-1,19,1,19,5,7.489062786,0.711077929,7.341819286,0.554641664,-0.061552834,0.278586507,-83,-71,-95,-19,162
1695162231549460500,-8.917203903,-1.647210717,-0.906205356,-0.220897391,0.136295557,-0.011457887,-1,17,1,17,8,7.372944355,1.640028119,8.265981674,0.336408883,-0.053825419,0.22236295,-87,-68,-96,-20,154
1695162231550460500,-8.921992302,-1.649604917,-0.89184016,-0.223295555,0.134830013,-0.005595712,-2,18,1,19,7,7.341819286,1.647210717,8.294712067,0.322686076,-0.053958651,0.221297085,-85,-69,-96,-20,162
1695162231551460500,-8.929175377,-1.655590534,-0.878672004,-0.22596018,0.133098006,0.0,-2,17,3,16,7,7.296329498,1.654393315,8.33062458,0.300569683,-0.054358348,0.220364481,-83,-68,-91,-19,160
1695162231552460500,-8.935160637,-1.660378933,-0.870292306,-0.228891268,0.130966306,0.005462481,-1,7,1,16,0,7.254431248,1.654393315,8.355764389,0.276854515,-0.055424199,0.219964772,-87,-69,-96,-19,156
1695162231553460500,-8.937555313,-1.661576033,-0.866701007,-0.2311562,0.129234299,0.008793262,-4,17,1,20,4,7.217320919,1.643619418,8.371326447,0.252339959,-0.056490045,0.219964772,-89,-74,-97,-20,162
1695162231619000700,-9.066842079,-1.816002011,-0.792480767,-0.30856356,0.076208271,0.068614088,-1,18,3,16,4,7.003039837,0.876277804,7.560888767,0.134696782,-0.054491576,0.2311562,-86,-70,-96,-19,160
1695162231620000700,-9.072827339,-1.826775908,-0.791283667,-0.310695261,0.075275652,0.072344564,-1,19,-1,15,4,7.000645638,0.879869103,7.544129372,0.13762787,-0.053825419,0.231422648,-85,-71,-95,-20,160
1695162231621000700,-9.078812599,-1.838746905,-0.787692368,-0.31216079,0.074209802,0.076474734,-3,18,-1,16,5,6.994660378,0.89064306,7.536946774,0.138960183,-0.053425729,0.2311562,-88,-71,-97,-22,156
1695162231622000700,-9.081207275,-1.851915002,-0.782903969,-0.31322667,0.073543645,0.080338441,0,20,3,20,4,6.988674641,0.908599555,7.529764175,0.13869372,-0.052626338,0.230490044,-86,-69,-96,-17,160
1695162231623000700,-9.087192535,-1.867477298,-0.78050977,-0.313493103,0.073143952,0.084468603,-2,18,-1,19,5,6.975506783,0.934935749,7.530961514,0.13656202,-0.051826954,0.229690656,-83,-71,-97,-20,161
1695162231715549700,-9.186552048,-2.090138197,-0.665588081,-0.223295555,0.055290964,0.163741201,-2,17,-1,18,7,6.384139061,1.312022567,7.833827972,-0.205575794,-0.076474734,0.149618685,-87,-71,-95,-22,157
1695162231716549700,-9.185355186,-2.093729496,-0.657208383,-0.216767237,0.051560488,0.166272581,-3,17,0,19,5,6.329071999,1.296460271,7.839813232,-0.230490044,-0.086733535,0.143490046,-84,-67,-94,-20,160
1695162231717549700,-9.185355186,-2.098517895,-0.646434486,-0.210771829,0.04769678,0.168537512,0,22,1,17,3,6.287173748,1.284489155,7.845798969,-0.247543648,-0.094727404,0.138960183,-83,-70,-96,-19,160
1695162231718549700,-9.187748909,-2.104503393,-0.644040287,-0.204909652,0.043566614,0.170535982,-1,17,1,14,4,6.221333027,1.26653266,7.857769966,-0.273257256,-0.108983152,0.132032156,-86,-66,-93,-18,159
1695162231719549700,-9.192537308,-2.106897593,-0.641646028,-0.199713632,0.039169986,0.172534451,-1,17,1,16,7,6.155492783,1.244984865,7.869740963,-0.299637049,-0.125903517,0.124970905,-86,-66,-93,-22,158
1695162231797492800,-9.321824074,-2.145204782,-0.612915635,-0.161609486,-0.037970904,0.188388973,-3,18,1,20,7,3.60207653,0.020350715,7.69257021,-0.881857574,-0.758085787,-0.466842234,-85,-57,-80,-18,157
1695162231798492800,-9.337387085,-2.147598982,-0.615309834,-0.161609486,-0.041834611,0.18905513,-1,17,5,14,5,3.450044632,-0.095768064,7.681796074,-0.912234247,-0.800453246,-0.531992376,-83,-56,-79,-16,158
1695162231799492800,-9.349357605,-2.144007683,-0.615309834,-0.161343038,-0.045565084,0.189721286,-1,20,1,14,5,3.305195332,-0.20350714,7.661445618,-0.941944897,-0.843220532,-0.59780854,-85,-59,-81,-14,156
1695162231800492800,-9.364919662,-2.147598982,-0.622492433,-0.161609486,-0.04969525,0.190387443,-1,22,0,18,4,3.16034627,-0.320823014,7.633912086,-0.971522212,-0.8866539,-0.664690673,-85,-57,-81,-16,156
1695162231801492800,-9.378087997,-2.149993181,-0.63206923,-0.162009194,-0.053825419,0.191053599,-2,17,-3,13,3,3.028665066,-0.453701228,7.600393295,-1.000833035,-0.930486977,-0.731705964,-87,-56,-81,-18,157
1695162231914817300,-9.421183586,-2.249352455,-0.731428623,-0.187589586,-0.138294026,0.189454809,-3,19,0,19,4,1.279700756,-2.97599268,5.202600479,-1.153915763,-1.830064416,-2.058022976,-81,-54,-80,-4,154
1695162231915817300,-9.41280365,-2.261323452,-0.74220252,-0.187856048,-0.142290965,0.18798928,-1,21,0,15,8,1.224634171,-3.078943491,5.039794445,-1.127402782,-1.880159259,-2.121973991,-81,-55,-76,-4,154
1695162231916817300,-9.404424667,-2.26970315,-0.749385118,-0.187856048,-0.146287903,0.186124057,-1,18,5,18,2,1.181538582,-3.174711466,4.878185749,-1.097958684,-1.93065393,-2.184992313,-83,-54,-72,-1,154
1695162231917817300,-9.398438454,-2.275688648,-0.757764816,-0.187722817,-0.148952529,0.18492496,-1,17,3,16,4,1.139639974,-3.260902643,4.720168591,-1.065316916,-1.980882049,-2.247611046,-81,-53,-73,-1,155
1695162231918817300,-9.390059471,-2.287659645,-0.762553215,-0.187056661,-0.152683005,0.183059722,-1,21,0,17,4,1.109712481,-3.34350276,4.562151432,-1.030410409,-2.030577421,-2.309696674,-83,-53,-72,-1,154
1695162232037748200,-9.263166428,-2.347514868,-0.945709646,-0.144289434,-0.207174569,0.119908117,-1,19,3,18,7,0.808043063,-1.367089152,2.206256866,-0.499084204,-2.485029221,-3.889552832,-76,-50,-45,16,153
1695162232038748200,-9.25957489,-2.347514868,-0.952892303,-0.142957121,-0.207973972,0.117376715,-1,19,3,20,7,0.805648863,-1.137245774,2.129642487,-0.508143961,-2.468374968,-4.003332138,-75,-50,-46,18,154
1695162232039748200,-9.255983353,-2.346317768,-0.956483603,-0.140825421,-0.209039822,0.113646246,-3,18,-1,18,5,0.802057564,-0.903811157,2.04823947,-0.521067381,-2.447724342,-4.119909763,-71,-49,-40,20,152
1695162232040748200,-9.248801231,-2.341529369,-0.962469101,-0.139093414,-0.209972441,0.109649308,-1,17,-1,16,5,0.800860465,-0.672770679,1.97162509,-0.538254201,-2.42307663,-4.238884926,-70,-49,-37,17,156
1695162232041748200,-9.241618156,-2.33913517,-0.968454599,-0.137494639,-0.210771829,0.105785601,-1,17,1,15,7,0.793677866,-0.439336002,1.89740479,-0.559837699,-2.39403224,-4.360658646,-74,-50,-39,22,153
1695162232115702100,-9.133879662,-2.270900249,-1.144428372,-0.132964775,-0.225294024,0.015721286,-1,18,4,17,8,0.775721371,3.708618402,1.303642869,-1.341238856,-1.013623238,-4.365721226,-70,-45,-25,31,160
1695162232116702100,-9.129091263,-2.266111851,-1.158793569,-0.134163857,-0.226093426,0.010392036,-3,17,-3,20,4,0.802057564,3.800795317,1.310825467,-1.362689018,-0.892782509,-4.365721226,-68,-48,-25,31,161
1695162232117702100,-9.121908188,-2.262520552,-1.173158884,-0.135229707,-0.226493105,0.005062787,-5,17,-1,22,3,0.78050977,3.963600874,1.344344258,-1.380009174,-0.766745806,-4.365721226,-62,-45,-29,31,164
1695162232118702100,-9.118317604,-2.251746655,-1.18872118,-0.13656202,-0.226892799,0.0,-1,18,-1,19,7,0.738611221,4.151545525,1.364694953,-1.40345788,-0.638843775,-4.365721226,-67,-45,-29,49,164
1695162232119702100,-9.114726067,-2.242169857,-1.201889277,-0.138027564,-0.227292493,-0.005329249,-2,9,3,15,5,0.689530075,4.307168961,1.352723956,-1.427706003,-0.509476244,-4.365721226,-66,-44,-25,31,160
1695162232191663300,-8.963891029,-2.112883091,-1.417367458,-0.178796321,-0.210905045,-0.08233691,-1,17,1,20,7,-1.677138329,5.594052315,0.585382342,0.615661561,1.552676797,-4.365721226,-68,-41,-25,31,166
1695162232192663300,-8.956708908,-2.105700493,-1.430535555,-0.180928022,-0.208773345,-0.085401222,-1,18,0,14,4,-1.958456993,5.752069473,0.561440289,0.877194464,1.558805585,-4.365721226,-57,-39,-25,31,164
1695162232193663300,-8.949525833,-2.100912094,-1.440112352,-0.183059722,-0.206508413,-0.08833231,-1,18,-1,18,4,-2.257732153,5.973533154,0.502782345,1.139660001,1.550278664,-4.365721226,-72,-42,-27,33,166
1695162232194663300,-8.941145897,-2.092532396,-1.44849205,-0.185191423,-0.204243496,-0.091263399,-1,18,3,19,4,-2.586935043,6.149507046,0.417788208,1.396263361,1.528695226,-4.365721226,-69,-40,-25,30,164
1695162232195663300,-8.938752174,-2.084152699,-1.456871748,-0.186923429,-0.201712102,-0.094061248,-2,17,-3,18,3,-2.93529129,6.311115742,0.286107093,1.656463981,1.497785568,-4.365721226,-69,-40,-27,32,165
1695162232268616000,-8.888473511,-2.036268473,-1.571793437,-0.187189892,-0.126303226,-0.109116383,-3,9,3,18,5,-6.57806921,12.10149288,-0.16639702,4.365588188,0.328947932,-3.037272692,-74,-41,-14,31,164
1695162232269616000,-8.888473511,-2.033874273,-1.572990537,-0.185324654,-0.120574266,-0.108450226,-4,19,0,18,5,-6.83784008,12.40435886,-0.202310041,4.365588188,0.261799395,-2.996903658,-60,-43,-12,32,167
1695162232270616000,-8.888473511,-2.035071373,-1.574187636,-0.183192953,-0.114712104,-0.107917301,-3,19,-1,18,4,-7.078457355,12.67490387,-0.248996973,4.365588188,0.189188361,-2.981315374,-70,-41,-12,33,166
1695162232271616000,-8.889671326,-2.031480074,-1.577778935,-0.181460962,-0.108716697,-0.107117914,-4,17,-3,18,2,-7.302315235,12.90355015,-0.299275219,4.365588188,0.110581927,-2.987177372,-65,-39,-11,32,165
1695162232272616000,-8.889671326,-2.029085875,-1.578976035,-0.179595709,-0.10285452,-0.106718227,-1,11,-1,19,4,-7.522581577,13.09388924,-0.351947635,4.365588188,0.025180703,-3.011958838,-61,-45,-15,34,166
1695162232349574100,-9.089587212,-1.927332401,-1.531091928,-0.229424208,-0.014122511,-0.15787901,-1,18,-1,19,5,-10.994174,15.13973427,-1.446097851,2.583220482,-2.366320133,-4.365721226,-65,-41,-11,33,168
1695162232350574100,-9.111134529,-1.915361404,-1.519120932,-0.241814688,-0.008926493,-0.167071983,-3,11,0,16,7,-11.03966427,15.12417221,-1.419761658,2.346468687,-2.472771645,-4.365721226,-60,-48,-10,33,168
1695162232351574100,-9.127894402,-1.903390408,-1.503558636,-0.251807034,-0.005062787,-0.174399704,-2,17,-1,16,3,-11.08515358,15.10382175,-1.381454349,2.109050512,-2.570563555,-4.365721226,-65,-43,-8,33,167
1695162232352574100,-9.142259598,-1.893813491,-1.493981838,-0.262465537,-0.00106585,-0.181860641,-1,19,3,16,3,-11.13064384,15.07987976,-1.345541358,1.866303205,-2.66036129,-4.365721226,-62,-41,-9,33,168
1695162232353574100,-9.156624794,-1.879448295,-1.48799634,-0.273923427,0.002931087,-0.189454809,-3,17,3,17,0,-11.18690777,15.0343895,-1.314416766,1.617960215,-2.740833044,-4.365721226,-61,-45,-12,36,167
1695162232433520300,-9.25358963,-1.787271619,-1.236605167,-0.540785611,0.086733535,-0.356393576,-2,17,3,22,4,-14.2143755,12.06557941,-1.431732655,-1.649402738,-2.504880667,-4.365721226,-54,-37,-7,32,172
1695162232434520300,-9.242815971,-1.792060018,-1.222239971,-0.553309321,0.091263399,-0.365453273,-4,17,-3,19,7,-14.43943024,11.93988419,-1.352723956,-1.667788625,-2.403491735,-4.365721226,-55,-38,-11,31,167
1695162232435520300,-9.235632896,-1.790862918,-1.207874775,-0.561303198,0.094061248,-0.371315449,-1,9,0,16,3,-14.66089439,11.81538582,-1.271321058,-1.669254184,-2.292776346,-4.365721226,-47,-39,-11,31,174
1695162232436520300,-9.2212677,-1.788468719,-1.186326981,-0.572761118,0.098457888,-0.379842281,-1,21,0,15,1,-14.80694008,11.72919369,-1.210268974,-1.661926508,-2.214702845,-4.365721226,-51,-43,-7,31,174
1695162232437520300,-9.205705643,-1.786074519,-1.168370485,-0.583686054,0.102721281,-0.388102591,-3,10,1,13,7,-15.01643276,11.62504673,-1.098938584,-1.638078094,-2.090931177,-4.365721226,-53,-36,-17,30,173
1695162232522493900,-9.036913872,-1.644816518,-0.840364814,-0.7131868,0.156147003,-0.480165392,-2,17,1,19,4,-16.25662994,13.69722748,0.81881696,-0.179329246,0.988176107,-4.365721226,-55,-36,-18,28,180
1695162232523493900,-9.02374649,-1.641225219,-0.81881696,-0.716917276,0.156280249,-0.478566617,-2,10,0,20,4,-16.08783913,13.87439919,0.871489406,-0.171868294,1.120874405,-4.365721226,-56,-36,-19,29,176
1695162232524493900,-9.008183479,-1.63763392,-0.793677866,-0.719981611,0.156413481,-0.476168454,-2,10,0,16,4,-15.88074017,14.01565647,0.924161851,-0.178130165,1.248243451,-4.365721226,-57,-36,-18,30,180
1695162232525493900,-8.998606682,-1.63643682,-0.774524271,-0.721713662,0.156280249,-0.473903507,-1,17,3,16,8,-15.64491081,14.11501598,0.993593693,-0.197981626,1.372947931,-4.365721226,-60,-37,-18,31,176
1695162232526493900,-8.983044624,-1.63523972,-0.741005421,-0.723712087,0.156147003,-0.469906569,-1,17,-1,15,4,-15.4030962,14.17726517,1.042674899,-0.238483921,1.491790175,-4.365721226,-59,-40,-21,30,177
1695162232603423000,-8.620323181,-1.701080322,-0.430956304,-0.606202185,0.097525269,-0.23475343,-1,18,-1,17,3,-10.90798283,9.944316864,-0.190339029,-3.093363047,2.370050669,-2.321820736,-59,-39,-23,28,173
1695162232604423000,-8.608352661,-1.71065712,-0.420182407,-0.591413498,0.091796324,-0.215168446,-2,10,7,16,5,-10.97023201,9.606734276,-0.323217243,-3.203145504,2.335676908,-2.048163891,-61,-37,-23,27,173
1695162232605423000,-8.597578049,-1.723825216,-0.407014281,-0.575958669,0.086200617,-0.195183769,-2,18,-1,17,5,-11.0528326,9.278728485,-0.451307029,-3.299604893,2.290511608,-1.784232736,-61,-37,-23,25,174
1695162232606423000,-8.584410667,-1.734599113,-0.390254885,-0.559837699,0.080471672,-0.174399704,-1,17,3,20,3,-11.11627865,9.056067467,-0.527921498,-3.355961561,2.254938602,-1.614362955,-60,-35,-24,29,169
1695162232607423000,-8.576030731,-1.741781712,-0.37229836,-0.543183744,0.074609496,-0.153215915,-3,19,1,16,7,-11.20246983,8.706514359,-0.617704034,-3.425374985,2.194185257,-1.369084239,-59,-37,-23,28,170
1695162232675387100,-8.80467701,-1.869871497,-0.160411507,-0.253272593,-0.055290964,0.245811626,-3,9,3,16,3,-10.40759468,3.931279182,0.051475335,-1.558539033,0.652166963,1.00456357,-62,-37,-25,30,172
1695162232676387100,-8.832210541,-1.867477298,-0.154426008,-0.245811626,-0.065949462,0.260733545,-3,19,-3,18,2,-10.28189945,3.870227098,0.089782566,-1.375745773,0.58954823,1.010159254,-60,-43,-21,29,172
1695162232677387100,-8.864531517,-1.867477298,-0.154426008,-0.240082696,-0.077274114,0.274456352,-5,17,0,18,2,-10.16578007,3.818751812,0.134075299,-1.196150064,0.52826184,1.008693695,-61,-39,-21,31,172
1695162232678387100,-8.886079788,-1.867477298,-0.153228909,-0.237151608,-0.085267991,0.282983154,-1,17,-1,14,1,-10.0508585,3.778050184,0.18555063,-1.017753482,0.470039815,1.002165318,-61,-39,-20,29,169
1695162232679387100,-8.911218643,-1.865083098,-0.152031809,-0.233954057,-0.097525269,0.294174582,-6,17,-6,13,4,-9.931148529,3.773261786,0.243011475,-0.841888189,0.416214377,0.991373599,-55,-37,-23,34,172
1695162232713361900,-9.229647636,-1.904587507,-0.442927301,-0.426339954,-0.331745774,0.286980093,-2,9,4,14,3,-8.218097687,4.75249052,1.22702837,0.790594161,-0.188388973,0.741964817,-63,-43,-22,31,168
1695162232714361900,-9.236829758,-1.914164305,-0.475249052,-0.443526804,-0.334277183,0.280318528,-6,17,-1,17,1,-8.177395821,4.818330765,1.254561663,0.781134784,-0.200912714,0.743696809,-61,-37,-21,31,172
1695162232715361900,-9.246406555,-1.922544003,-0.500388145,-0.460580379,-0.335209787,0.27379021,-4,18,1,17,5,-8.142680168,4.878185749,1.273715258,0.765413463,-0.212104142,0.745162308,-61,-41,-21,31,170
1695162232716361900,-9.266757965,-1.928529501,-0.525527298,-0.477500767,-0.334810108,0.267128646,-1,17,-1,15,7,-8.118738174,4.932055473,1.292868972,0.744096458,-0.222096488,0.746627867,-63,-41,-21,29,171
1695162232717361900,-9.284713745,-1.934514999,-0.551863492,-0.494021446,-0.33294487,0.260333836,-3,11,-3,15,3,-8.098387718,4.981136799,1.302445769,0.71784991,-0.231289431,0.74796015,-60,-39,-20,30,173
1695162232748339400,-9.786299706,-2.272097349,-0.796072066,-0.600473166,-0.186523736,0.147220522,-4,17,-1,15,3,-8.561665535,4.732139587,0.508767843,0.132165387,-0.528528333,0.707990766,-62,-41,-24,29,168
1695162232749339400,-9.8054533,-2.284068346,-0.793677866,-0.592612505,-0.178529859,0.141624808,-3,21,3,18,4,-8.61314106,4.702212334,0.44651863,0.123105668,-0.554241955,0.710388958,-61,-40,-23,31,168
1695162232750339400,-9.819818497,-2.293645144,-0.793677866,-0.583952546,-0.170935676,0.135762632,-2,19,-1,15,5,-8.66341877,4.669890404,0.386663586,0.116710559,-0.580754995,0.713986218,-65,-40,-25,31,170
1695162232751339400,-9.832986832,-2.296039343,-0.800860465,-0.575159252,-0.163874418,0.12936753,-6,17,-1,18,1,-8.714894295,4.641160011,0.329202741,0.112713635,-0.607401192,0.718516052,-61,-41,-25,28,167
1695162232752339400,-9.847352028,-2.296039343,-0.800860465,-0.565966308,-0.157079637,0.122439511,-5,10,-1,14,3,-8.762778282,4.614823818,0.274136096,0.110848397,-0.634447217,0.723978519,-60,-41,-21,31,167
1695162232788316400,-9.634267807,-2.04464817,-0.763750315,-0.542650819,-0.074609496,-0.051826954,-5,17,-3,14,3,-9.429563522,4.38378334,-0.41060558,0.34333688,-1.036938667,0.981114864,-61,-40,-27,31,171
1695162232789316400,-9.599552155,-2.043451071,-0.760159016,-0.545182228,-0.070346095,-0.057422664,-4,7,1,14,4,-9.435548782,4.388571739,-0.423773706,0.360257268,-1.04719758,0.999367476,-60,-43,-20,31,169
1695162232790316400,-9.556455612,-2.039859772,-0.749385118,-0.546781003,-0.065549769,-0.062218986,-2,19,-3,17,4,-9.440337181,4.393360138,-0.436941803,0.376511484,-1.055990815,1.017886639,-61,-43,-19,31,173
1695162232791316400,-9.508571625,-2.039859772,-0.745793819,-0.547313929,-0.060486984,-0.065816231,-4,17,-1,16,1,-9.442731857,4.400542736,-0.44532153,0.391699851,-1.063052058,1.036272645,-61,-39,-23,31,169
1695162232792316400,-9.459490776,-2.041056871,-0.736217022,-0.546514511,-0.055690661,-0.068614088,-2,11,0,15,3,-9.441534042,4.408922195,-0.448912829,0.406088829,-1.068514585,1.054791689,-60,-39,-18,31,168
1695162232824295600,-8.714894295,-2.212242365,-0.525527298,-0.217433393,0.023049004,0.078073502,-4,7,2,16,7,-9.022548676,4.465186119,-0.313640416,0.409686059,-0.845219016,1.369084239,-60,-40,-19,34,170
1695162232825295600,-8.706514359,-2.223016262,-0.501585245,-0.188388973,0.023182238,0.094993874,-3,7,1,15,7,-8.995016098,4.46039772,-0.29688102,0.396362931,-0.817373693,1.380941868,-60,-39,-19,34,171
1695162232826295600,-8.702922821,-2.23019886,-0.48482585,-0.168803975,0.023049004,0.106584989,-4,3,-2,12,4,-8.962694168,4.452018261,-0.283712894,0.381707519,-0.788595676,1.39199996,-61,-40,-19,31,153
1695162232827295600,-8.704120636,-2.239775658,-0.462080926,-0.139626339,0.022516079,0.124038287,-1,6,1,15,4,-8.944737434,4.447229862,-0.270544797,0.371448696,-0.76874429,1.398928046,-58,-41,-19,32,165
1695162232828295600,-8.706514359,-2.245761156,-0.436941803,-0.110848397,0.021716693,0.141358346,-4,2,1,14,5,-8.920795441,4.441244125,-0.250194073,0.355194479,-0.737967849,1.408787131,-60,-39,-20,31,170
1695162232900553800,-9.269151688,-1.921346903,-0.098162271,0.017719755,-0.035173047,0.309496164,-2,-1,-1,16,4,-8.725667953,4.197035789,-0.035913024,-0.126969382,-0.106318533,1.380142331,-60,-38,-19,30,170
1695162232901553800,-9.25957489,-1.892616391,-0.089782566,-0.008660031,-0.039702907,0.304433405,-2,-3,-1,14,4,-8.722076416,4.175487995,-0.029927522,-0.1573461,-0.08020521,1.367885113,-60,-41,-21,31,176
1695162232902553800,-9.239224434,-1.869871497,-0.08499416,-0.037038282,-0.044765696,0.29817152,-1,-2,1,18,5,-8.717288017,4.152742863,-0.033518825,-0.187856048,-0.055290964,1.354828477,-59,-43,-19,32,168
1695162232903553800,-9.220070839,-1.841141105,-0.08259996,-0.068480857,-0.049961712,0.290977001,-4,0,3,15,4,-8.712499619,4.121618271,-0.031124622,-0.228225112,-0.024114855,1.336309433,-60,-45,-19,31,167
1695162232904553800,-9.206902504,-1.810016513,-0.079008654,-0.104053594,-0.054758042,0.282450229,-2,-1,0,14,-2,-8.70771122,4.096478939,-0.027533319,-0.258335382,-0.0021317,1.321653843,-60,-39,-20,31,169
1695162232992550100,-8.856152534,-2.517503023,-0.118512981,-0.553575814,-0.060753446,0.168137819,-3,0,-3,14,5,-8.729259491,3.576937437,0.037110128,-0.728108704,0.236218989,0.93648243,-59,-38,-17,32,170
1695162232993550100,-8.862137794,-2.582146645,-0.123301387,-0.534257293,-0.056223582,0.172001526,-4,0,0,16,4,-8.726864815,3.543418407,0.038307227,-0.740232766,0.241681471,0.912900448,-60,-42,-20,33,168
1695162232994550100,-8.872911453,-2.642001629,-0.125695586,-0.509476244,-0.051960181,0.176398173,-4,0,-1,16,3,-8.726864815,3.524264812,0.037110128,-0.747427285,0.244879022,0.897179127,-59,-47,-19,32,168
1695162232995550100,-8.892065048,-2.694674015,-0.125695586,-0.479632467,-0.048362937,0.181194484,-4,0,0,19,4,-8.724471092,3.49673152,0.039504327,-0.756753445,0.249275655,0.873464048,-59,-41,-17,31,167
1695162232996550100,-8.914810181,-2.741360903,-0.1316811,-0.445525289,-0.045298621,0.186124057,-3,0,0,16,9,-8.722076416,3.469198227,0.039504327,-0.764614105,0.253405809,0.849482417,-60,-38,-17,32,168
1695162233079495300,-9.388861656,-2.557007313,-0.281318694,0.318289429,-0.114712104,0.287646264,-5,1,0,15,2,-8.506598473,3.284844637,0.160411507,-0.743563533,0.264197558,0.398494661,-60,-38,-19,32,168
1695162233080495300,-9.397241592,-2.519897223,-0.290895492,0.33760795,-0.118842266,0.290710568,-4,-3,-5,13,1,-8.491036415,3.283647537,0.161608621,-0.738101065,0.262199074,0.378909618,-59,-39,-19,33,167
1695162233081495300,-9.402029991,-2.483984232,-0.302866518,0.353462487,-0.12230628,0.29350841,-3,1,-1,14,3,-8.47188282,3.282450438,0.161608621,-0.732638597,0.259934127,0.359857589,-60,-41,-34,31,170
1695162233082495300,-9.405621529,-2.446874142,-0.316034615,0.366119444,-0.125237361,0.295506895,-2,0,-1,16,4,-8.451532364,3.281253338,0.160411507,-0.726509929,0.257003069,0.341738135,-60,-39,-20,31,170
1695162233083495300,-9.410409927,-2.41574955,-0.325611442,0.375445634,-0.127635539,0.296839207,-3,0,-1,16,7,-8.43956089,3.278859138,0.16639702,-0.720114827,0.254071981,0.324284822,-60,-39,-16,31,170
1695162233157451000,-9.381679535,-2.430114746,-0.48123455,0.30749771,-0.112846859,0.177064329,-4,1,3,15,1,-8.265981674,3.209427357,0.14963761,-0.509742737,0.171601832,0.096992344,-59,-39,-15,34,171
1695162233158451000,-9.37449646,-2.438494444,-0.497993946,0.301369071,-0.112313934,0.162675351,-1,0,-2,15,2,-8.265981674,3.204638958,0.14724341,-0.493754983,0.167604893,0.087133229,-57,-41,-16,32,170
1695162233159451000,-9.367314339,-2.448071241,-0.515950441,0.295373648,-0.112313934,0.147220522,-2,2,0,18,4,-8.269572258,3.205836058,0.146046311,-0.477900445,0.163741201,0.077540584,-58,-41,-17,32,172
1695162233160451000,-9.355342865,-2.45405674,-0.532709897,0.289378256,-0.112447165,0.131099537,-4,4,-5,14,9,-8.270770073,3.203441858,0.14724341,-0.461379766,0.160010725,0.067681469,-60,-40,-20,31,169
1695162233161451000,-9.348160744,-2.456450939,-0.544680893,0.283382833,-0.112846859,0.113912709,-1,1,1,18,5,-8.271966934,3.205836058,0.14963761,-0.444859117,0.156679943,0.057555895,-59,-41,-19,31,170
1695162233245401500,-9.058462143,-2.276885748,-0.803254664,0.166405827,-0.098990813,-0.263131708,-2,1,0,15,3,-8.288725853,3.434482336,0.165199921,-0.200246558,0.140026033,-0.188921899,-60,-44,-18,32,172
1695162233246401500,-9.050082207,-2.257732153,-0.811634362,0.159078106,-0.094460949,-0.282983154,-3,5,3,14,3,-8.287528992,3.45603013,0.16879122,-0.195183769,0.14175804,-0.20411025,-60,-42,-21,32,169
1695162233247401500,-9.038111687,-2.236184359,-0.821211159,0.151883617,-0.089531392,-0.302168459,-2,2,0,16,3,-8.28633213,3.477577925,0.173579618,-0.190653905,0.14388974,-0.219565079,-59,-39,-21,33,167
1695162233248401500,-9.033323288,-2.214636564,-0.835576415,0.14495559,-0.084202148,-0.320954055,-1,2,4,16,4,-8.288725853,3.497928619,0.172382519,-0.187056661,0.146554366,-0.235019907,-60,-41,-19,31,170
1695162233249401500,-9.032125473,-2.19189167,-0.846350312,0.138294026,-0.07820674,-0.338940263,-2,1,-3,16,1,-8.291120529,3.521870613,0.173579618,-0.184392035,0.149751917,-0.250474721,-57,-39,-19,32,170
1695162233300369500,-9.174580574,-1.759738207,-1.00436759,0.026379786,0.035705972,-0.602205217,-2,1,0,15,1,-8.344989777,3.928884983,0.351947635,-0.224094957,0.270725876,-0.529860616,-59,-40,-19,31,169
1695162233301369500,-9.191340446,-1.735796213,-1.007958889,0.01825268,0.041967839,-0.613796294,-2,0,-3,18,7,-8.344989777,3.954024076,0.37229836,-0.229823887,0.277920365,-0.54225117,-60,-40,-21,33,170
1695162233302369500,-9.20929718,-1.70946002,-1.012747288,0.009859112,0.048362937,-0.62538743,-1,0,-1,16,2,-8.348581314,3.97796607,0.386663586,-0.236085743,0.284715146,-0.554108739,-60,-41,-24,31,169
1695162233303369500,-9.228450775,-1.681926727,-1.016338587,0.000799387,0.05489127,-0.636845291,-2,0,0,17,4,-8.355764389,3.999513865,0.403422982,-0.24261409,0.29137671,-0.565699816,-60,-37,-19,32,168
1695162233304369500,-9.245209694,-1.655590534,-1.017535686,-0.008926493,0.061686065,-0.648436427,-2,3,-1,14,7,-8.355764389,4.025850296,0.420182407,-0.249808565,0.297771841,-0.576891303,-58,-41,-19,32,169
1695162233339346700,-9.679757118,-1.243787766,-0.870292306,-0.33867383,0.200779468,-0.881058156,-1,0,1,16,7,-8.349778175,4.373009205,0.639251828,-0.425274134,0.365586549,-0.676947892,-60,-39,-20,32,169
1695162233340346700,-9.679757118,-1.229422569,-0.85473001,-0.366519153,0.208107188,-0.896513045,-2,0,-1,16,3,-8.35097599,4.376600742,0.644040287,-0.431935668,0.366252691,-0.675082684,-60,-41,-19,31,169
1695162233341346700,-9.676166534,-1.212663174,-0.843956113,-0.395163864,0.215434924,-0.911967814,-2,0,-1,14,4,-8.354566574,4.380191803,0.647631586,-0.437931061,0.366519153,-0.672551274,-60,-39,-21,33,169
1695162233342346700,-9.670180321,-1.201889277,-0.833182216,-0.424208283,0.222096488,-0.927689135,-1,0,-3,16,-1,-8.360552788,4.378994942,0.652419984,-0.443127096,0.366519153,-0.669087231,-58,-40,-20,31,167
1695162233343346700,-9.658209801,-1.18991828,-0.823605359,-0.453918815,0.228624806,-0.94327718,-2,0,1,13,2,-8.365341187,4.378994942,0.651222885,-0.44619143,0.366252691,-0.666422606,-59,-35,-19,32,170
1695162233380324000,-9.257181168,-1.385045648,-0.454898328,-0.803917289,0.298704445,-1.09596014,-2,2,2,19,5,-8.743624687,4.180276394,0.569819987,-0.299770296,0.240615621,-0.472171485,-60,-45,-24,30,178
1695162233381324000,-9.235632896,-1.397016644,-0.429759204,-0.802718222,0.300436467,-1.09129715,-1,0,-2,15,3,-8.763975143,4.167108059,0.562637389,-0.278586507,0.229424208,-0.459381312,-60,-41,-19,31,170
1695162233382324000,-9.21528244,-1.407790542,-0.402225882,-0.799520671,0.302035213,-1.084901929,-6,-3,3,16,1,-8.781931877,4.157531261,0.562637389,-0.25660339,0.217966303,-0.446324646,-60,-40,-21,31,167
1695162233383324000,-9.194931984,-1.417367458,-0.375889659,-0.794724345,0.303367525,-1.076908112,-3,0,3,13,3,-8.796297073,4.151545525,0.55904609,-0.233554363,0.20624195,-0.433401227,-59,-41,-21,31,168
1695162233384324000,-9.174580574,-1.423352957,-0.343567938,-0.78846246,0.304166913,-1.067315459,-4,3,0,15,1,-8.811859131,4.144362926,0.55784899,-0.209705979,0.194517612,-0.42074427,-60,-37,-21,31,167
1695162233423300100,-8.744821548,-1.26533556,0.034715924,-0.624188364,0.223029092,-0.679745793,-2,1,1,20,3,-8.985439301,4.340687752,0.51954174,0.20411025,-0.013722817,-0.215168446,-60,-40,-23,31,168
1695162233424300100,-8.723274231,-1.249773264,0.046686932,-0.619392037,0.210638598,-0.653099477,-3,5,3,17,4,-8.981847763,4.356249809,0.511162043,0.215168446,-0.021849923,-0.207041353,-59,-45,-20,31,167
1695162233425300100,-8.704120636,-1.235408068,0.051475335,-0.615395069,0.197315469,-0.626320064,-2,3,4,18,4,-8.978256226,4.374206543,0.501585245,0.225160792,-0.029977029,-0.199047476,-57,-41,-20,28,173
1695162233426300100,-8.681375504,-1.221042871,0.05865794,-0.612464011,0.183592647,-0.599140882,-2,0,5,18,4,-8.971074104,4.387374401,0.495599747,0.234087273,-0.037437979,-0.19118683,-60,-45,-25,31,166
1695162233427300100,-8.659827232,-1.206677675,0.064643443,-0.61033231,0.169070452,-0.571695268,-3,1,1,19,7,-8.961497307,4.398148537,0.486022949,0.241814688,-0.044366002,-0.183725879,-60,-39,-19,30,168
1695162233492258900,-8.310274124,-1.30005157,0.06584055,-0.606735051,-0.114712104,-0.002531394,-1,0,5,15,1,-8.61314106,4.515464306,0.384269387,0.253139347,-0.057955589,-0.068081163,-59,-42,-20,32,170
1695162233493258900,-8.304288864,-1.321599364,0.063446343,-0.602205217,-0.127901986,0.032774884,-4,0,3,19,5,-8.590395927,4.516661644,0.385466486,0.247543648,-0.05249311,-0.062885143,-60,-41,-19,31,169
1695162233494258900,-8.301894188,-1.340752959,0.057460841,-0.597142458,-0.140558958,0.067947932,-3,3,0,17,4,-8.574832916,4.519055843,0.386663586,0.243679941,-0.048362937,-0.059554365,-60,-36,-19,31,168
1695162233495258900,-8.295908928,-1.356315255,0.052672438,-0.591280222,-0.152683005,0.103387438,-2,2,1,13,4,-8.547300339,4.521450043,0.392649084,0.237151608,-0.041967839,-0.054491576,-61,-37,-21,31,169
1695162233496258900,-8.293514252,-1.37666595,0.044292733,-0.584751964,-0.164940268,0.13869372,-3,3,0,18,5,-8.525752068,4.522646904,0.401028782,0.230223581,-0.03543951,-0.049428791,-60,-42,-23,31,168
1695162233541230600,-8.536525726,-1.772906303,-0.213083953,-0.398228168,-0.396362931,0.748759568,-3,3,-1,15,7,-8.384494781,4.466383457,0.614112735,0.002797856,0.080338441,0.016920367,-61,-44,-21,31,165
1695162233542230600,-8.540117264,-1.789665818,-0.228646263,-0.385038286,-0.409019887,0.777537525,-3,3,1,16,4,-8.38928318,4.453215122,0.627280831,-0.010258805,0.08233691,0.019718224,-60,-41,-19,29,168
1695162233543230600,-8.54251194,-1.807622313,-0.251391172,-0.371848404,-0.421143949,0.806048989,-5,2,-1,16,3,-8.39526844,4.443638325,0.640448928,-0.023049004,0.083802447,0.022516079,-60,-37,-19,31,168
1695162233544230600,-8.546102524,-1.824381709,-0.272938997,-0.358791709,-0.432868302,0.834027529,-1,0,-1,23,1,-8.402450562,4.430470467,0.648828685,-0.035173047,0.084468603,0.025180703,-61,-39,-19,32,167
1695162233545230600,-8.547300339,-1.839944005,-0.299275219,-0.346001506,-0.44405973,0.861473203,-1,5,1,20,7,-8.408436775,4.414907932,0.657208383,-0.046630934,0.084601834,0.02797856,-61,-45,-20,31,170
1695162233596198400,-8.880094528,-2.160767078,-0.811634362,-0.118842266,-0.496952504,1.274223685,-1,1,3,15,4,-8.645462036,4.143166065,0.718260527,-0.086200617,-0.008526799,0.102188364,-59,-40,-20,32,167
1695162233597198400,-8.948328972,-2.195482969,-0.822408259,-0.103787132,-0.487359881,1.294208288,-1,3,0,17,5,-8.652645111,4.131195068,0.714669228,-0.078473203,-0.017586524,0.107650839,-59,-40,-20,28,168
1695162233598198400,-9.022548676,-2.23259306,-0.825999558,-0.088199086,-0.4763017,1.313660026,-2,2,3,14,5,-8.659827232,4.118026733,0.708683729,-0.070079632,-0.027179174,0.113246553,-60,-40,-21,31,170
1695162233599198400,-9.103952408,-2.264914751,-0.828393817,-0.072211333,-0.463777959,1.333111763,-1,6,3,20,6,-8.665813446,4.104858875,0.696712673,-0.061019909,-0.036905054,0.119108729,-61,-40,-24,31,169
1695162233600198400,-9.18894577,-2.298433542,-0.835576415,-0.055823889,-0.450188369,1.352163792,-2,2,1,18,3,-8.676587105,4.09169054,0.689530075,-0.051027562,-0.046764165,0.125237361,-60,-44,-20,30,168
1695162233666158800,-10.32858658,-2.792836189,-1.26294136,0.124171518,-0.276854515,1.373614192,-2,2,0,20,7,-8.80467701,3.952826977,0.507570744,0.249408886,-0.222629398,0.282849908,-59,-38,-27,31,172
1695162233667158800,-10.35252857,-2.801215887,-1.283292055,0.120041348,-0.272191435,1.347101092,0,3,-1,18,7,-8.807070732,3.948038578,0.495599747,0.267928004,-0.229424208,0.291776419,-60,-41,-18,31,170
