timestamp,EMG_s0,EMG_s1,EMG_s2,EMG_s3,EMG_s4,EMG_s5,EMG_s6,EMG_s7
1.6951613228841372e+18,0.0,0.0,1.0,-1.0,-1.0,-1.0,0.0,1.0
1.6951613228841372e+18,-1.0,1.0,0.0,-1.0,1.0,-2.0,0.0,0.0
1.6951613228851377e+18,-2.0,-2.0,-1.0,-1.0,0.0,-1.0,-1.0,0.0
1.6951613228851377e+18,-2.0,-1.0,0.0,0.0,0.0,-1.0,-1.0,-1.0
1.6951613228861358e+18,1.0,0.0,0.0,-1.0,0.0,0.0,1.0,-1.0
1.6951613228861358e+18,0.0,0.0,0.0,-2.0,0.0,1.0,-2.0,0.0
1.6951613228951514e+18,-2.0,-1.0,-1.0,-1.0,0.0,-1.0,-1.0,-1.0
1.6951613228951514e+18,-1.0,0.0,0.0,0.0,-1.0,0.0,1.0,-1.0
1.6951613228961313e+18,-1.0,-2.0,-2.0,1.0,0.0,-1.0,1.0,-2.0
1.6951613228961313e+18,-1.0,-1.0,-1.0,1.0,0.0,0.0,0.0,-1.0
1.695161322920137e+18,0.0,0.0,-1.0,-2.0,0.0,-1.0,-1.0,1.0
1.695161322920137e+18,-2.0,1.0,-1.0,-2.0,-1.0,1.0,-1.0,0.0
1.6951613229211164e+18,-2.0,-1.0,0.0,-1.0,-2.0,-1.0,-2.0,-1.0
1.6951613229211164e+18,0.0,0.0,0.0,-1.0,-1.0,-2.0,0.0,-1.0
1.69516132293211e+18,0.0,-2.0,-1.0,0.0,0.0,-1.0,0.0,-3.0
1.6951613229331092e+18,1.0,-2.0,-1.0,-1.0,-3.0,0.0,-3.0,1.0
1.6951613229331092e+18,-1.0,-1.0,-2.0,0.0,0.0,-1.0,-1.0,-1.0
1.695161322934107e+18,-2.0,-1.0,-1.0,0.0,0.0,-1.0,-1.0,0.0
1.6951613229471012e+18,0.0,0.0,-1.0,-1.0,0.0,-1.0,0.0,-2.0
1.6951613229481006e+18,0.0,-2.0,-1.0,0.0,-2.0,-1.0,-1.0,-2.0
1.695161322956096e+18,-2.0,0.0,-1.0,-2.0,-1.0,-1.0,-1.0,0.0
1.695161322956096e+18,0.0,0.0,-1.0,0.0,-2.0,-2.0,0.0,1.0
1.6951613229760858e+18,0.0,0.0,0.0,-2.0,-1.0,0.0,-1.0,0.0
1.6951613229770852e+18,0.0,0.0,0.0,-3.0,0.0,-2.0,-1.0,-2.0
1.6951613229770852e+18,0.0,1.0,-2.0,1.0,-2.0,-2.0,-1.0,-2.0
1.6951613229770852e+18,-1.0,-2.0,-1.0,-2.0,-1.0,2.0,1.0,-1.0
1.6951613229930752e+18,1.0,-1.0,-1.0,0.0,-1.0,-2.0,0.0,0.0
1.6951613229930752e+18,-1.0,0.0,0.0,0.0,0.0,-1.0,-1.0,-1.0
1.6951613230110633e+18,-1.0,-1.0,-1.0,-1.0,-1.0,-2.0,-1.0,-1.0
1.6951613230110633e+18,1.0,-1.0,0.0,-2.0,-1.0,-1.0,-2.0,-1.0
1.6951613230120622e+18,-1.0,0.0,-2.0,-1.0,-2.0,0.0,0.0,-2.0
1.6951613230130742e+18,-1.0,-2.0,0.0,0.0,1.0,-1.0,-2.0,-1.0
1.6951613230220562e+18,-1.0,0.0,0.0,-2.0,0.0,1.0,0.0,0.0
1.6951613230220562e+18,-2.0,-1.0,-1.0,-1.0,-2.0,-3.0,-1.0,-1.0
1.6951613230480425e+18,-2.0,0.0,-1.0,-2.0,0.0,0.0,-4.0,1.0
1.6951613230480425e+18,0.0,-2.0,0.0,0.0,0.0,-2.0,-1.0,-1.0
1.6951613230480425e+18,-1.0,-2.0,-2.0,-2.0,-1.0,-2.0,1.0,-1.0
1.6951613230490455e+18,-1.0,-2.0,-1.0,0.0,-1.0,-1.0,0.0,0.0
1.6951613230670305e+18,0.0,-1.0,0.0,-2.0,-1.0,-2.0,0.0,0.0
1.6951613230670305e+18,-1.0,-1.0,-2.0,-2.0,-1.0,-1.0,-2.0,1.0
1.6951613230840218e+18,-1.0,-1.0,-1.0,0.0,-1.0,0.0,0.0,-2.0
1.6951613230850207e+18,-1.0,-1.0,-2.0,0.0,-1.0,0.0,0.0,-1.0
1.6951613230853737e+18,-1.0,0.0,0.0,1.0,-1.0,-1.0,-2.0,-2.0
1.6951613230853737e+18,0.0,-1.0,-2.0,1.0,0.0,-1.0,-1.0,-1.0
1.6951613230890186e+18,0.0,-1.0,0.0,-1.0,-1.0,0.0,-2.0,1.0
1.6951613230890186e+18,-2.0,-1.0,-1.0,-2.0,-1.0,-1.0,-1.0,-1.0
1.6951613231229988e+18,-2.0,-1.0,-1.0,0.0,-2.0,-2.0,0.0,0.0
1.6951613231229988e+18,0.0,0.0,-1.0,2.0,-2.0,-1.0,-1.0,0.0
1.6951613231229988e+18,-2.0,0.0,-3.0,-1.0,-2.0,-1.0,-2.0,0.0
1.6951613231240003e+18,1.0,-1.0,0.0,-2.0,-1.0,-1.0,1.0,0.0
1.6951613231240003e+18,-1.0,0.0,0.0,-2.0,1.0,1.0,0.0,-1.0
1.6951613231240003e+18,-1.0,-1.0,-1.0,-2.0,-1.0,-2.0,-2.0,0.0
1.6951613231370135e+18,1.0,-2.0,0.0,-1.0,-2.0,-2.0,-2.0,-2.0
1.6951613231370135e+18,-3.0,0.0,0.0,0.0,0.0,-1.0,-1.0,1.0
1.69516132313801e+18,0.0,-1.0,0.0,-1.0,-2.0,-1.0,0.0,-1.0
1.69516132313801e+18,0.0,-1.0,-3.0,-1.0,-2.0,-1.0,-1.0,-2.0
1.6951613231409902e+18,0.0,-1.0,-1.0,-1.0,0.0,-2.0,-1.0,-4.0
1.6951613231419924e+18,1.0,-1.0,-2.0,-1.0,-3.0,-3.0,-3.0,-5.0
1.6951613231579796e+18,0.0,-3.0,-4.0,-2.0,-3.0,-3.0,-2.0,-2.0
1.695161323158981e+18,-3.0,-1.0,-1.0,-1.0,-1.0,0.0,-1.0,-1.0
1.695161323159979e+18,-2.0,-2.0,-2.0,0.0,-1.0,-1.0,-1.0,-1.0
1.695161323159979e+18,-1.0,-2.0,-2.0,0.0,-1.0,0.0,-1.0,-1.0
1.6951613231719777e+18,-3.0,-2.0,-1.0,0.0,-2.0,-1.0,0.0,-1.0
1.6951613231719777e+18,-1.0,-2.0,0.0,-1.0,-2.0,0.0,-2.0,0.0
1.695161323194958e+18,-2.0,-1.0,-2.0,0.0,-1.0,2.0,-1.0,0.0
1.6951613231959575e+18,-2.0,1.0,-1.0,-3.0,-1.0,-2.0,-2.0,-2.0
1.6951613231959575e+18,-2.0,0.0,-1.0,1.0,1.0,1.0,-1.0,-1.0
1.6951613231959575e+18,-1.0,0.0,0.0,0.0,-1.0,-2.0,-1.0,0.0
1.6951613232019533e+18,-3.0,-3.0,-1.0,0.0,-2.0,-1.0,0.0,-1.0
1.6951613232019533e+18,-1.0,-2.0,-1.0,1.0,-2.0,-1.0,-3.0,-2.0
1.6951613232029532e+18,0.0,-2.0,-2.0,-1.0,-2.0,-2.0,-1.0,0.0
1.6951613232029532e+18,-1.0,-3.0,-3.0,-2.0,-1.0,-1.0,0.0,-1.0
1.6951613232499264e+18,0.0,-1.0,0.0,-1.0,-2.0,-2.0,-2.0,-2.0
1.6951613232499264e+18,-1.0,-1.0,-3.0,0.0,-2.0,-1.0,-1.0,0.0
1.6951613232499264e+18,-3.0,-1.0,-1.0,0.0,-1.0,-1.0,-1.0,-3.0
1.6951613232509315e+18,-1.0,0.0,1.0,-1.0,-1.0,0.0,-2.0,-1.0
1.695161323263918e+18,-1.0,0.0,-1.0,-1.0,0.0,0.0,0.0,-1.0
1.695161323263918e+18,-3.0,-2.0,0.0,-1.0,-1.0,1.0,0.0,-1.0
1.6951613232649178e+18,1.0,0.0,1.0,-1.0,0.0,1.0,-1.0,0.0
1.6951613232649178e+18,0.0,-2.0,-2.0,0.0,-1.0,-1.0,1.0,-2.0
1.6951613232659177e+18,-1.0,0.0,-2.0,0.0,-1.0,0.0,-1.0,-1.0
1.6951613232659177e+18,-1.0,0.0,-2.0,-1.0,-2.0,-2.0,-1.0,0.0
1.6951613232689152e+18,-1.0,-1.0,0.0,2.0,0.0,-1.0,-2.0,0.0
1.6951613232689152e+18,-1.0,-1.0,-2.0,-1.0,0.0,0.0,-2.0,-3.0
1.6951613233068943e+18,0.0,-1.0,1.0,0.0,-1.0,-2.0,0.0,-2.0
1.6951613233068943e+18,-3.0,-3.0,0.0,-2.0,-2.0,0.0,0.0,1.0
1.695161323307894e+18,0.0,-1.0,-2.0,-1.0,-1.0,0.0,1.0,1.0
1.695161323307894e+18,0.0,-1.0,-1.0,-2.0,2.0,1.0,2.0,2.0
1.6951613233098934e+18,-1.0,1.0,1.0,-1.0,0.0,0.0,-1.0,2.0
1.6951613233098934e+18,3.0,1.0,1.0,0.0,2.0,-1.0,0.0,-3.0
1.695161323310892e+18,1.0,1.0,-1.0,-2.0,-1.0,-1.0,-1.0,0.0
1.695161323310892e+18,2.0,0.0,0.0,-2.0,0.0,0.0,-1.0,-2.0
1.695161323322884e+18,0.0,-1.0,-2.0,-4.0,-1.0,0.0,0.0,0.0
1.695161323322884e+18,1.0,-1.0,-1.0,1.0,1.0,-1.0,-1.0,0.0
1.695161323323887e+18,-1.0,-1.0,-1.0,1.0,-1.0,1.0,-1.0,-1.0
1.695161323323887e+18,0.0,0.0,-1.0,1.0,2.0,1.0,0.0,0.0
1.6951613233598625e+18,0.0,0.0,-1.0,-3.0,-2.0,-1.0,0.0,-1.0
1.6951613233598625e+18,0.0,1.0,-2.0,-3.0,-1.0,0.0,0.0,1.0
1.695161323360866e+18,-1.0,1.0,1.0,-3.0,-2.0,-2.0,-1.0,-1.0
1.695161323360866e+18,0.0,1.0,-3.0,-1.0,-3.0,-1.0,-3.0,-2.0
1.6951613233758566e+18,2.0,-4.0,2.0,4.0,7.0,2.0,-1.0,-2.0
1.6951613233758566e+18,1.0,-1.0,0.0,-4.0,-3.0,-1.0,0.0,3.0
1.6951613233758566e+18,-2.0,-1.0,-5.0,-3.0,0.0,-1.0,-1.0,-1.0
1.6951613233758566e+18,-2.0,0.0,1.0,-6.0,-4.0,-1.0,0.0,-1.0
1.695161323380873e+18,-1.0,1.0,-1.0,0.0,-7.0,-6.0,-4.0,-1.0
1.695161323380873e+18,0.0,-1.0,0.0,12.0,2.0,2.0,2.0,1.0
1.6951613233888463e+18,-1.0,-1.0,-1.0,-12.0,1.0,4.0,3.0,3.0
1.6951613233888463e+18,-2.0,-2.0,1.0,12.0,1.0,0.0,-2.0,-2.0
1.6951613234158323e+18,-1.0,-3.0,-5.0,-28.0,-10.0,-3.0,-2.0,0.0
1.6951613234158323e+18,-3.0,-3.0,-2.0,5.0,0.0,-3.0,-3.0,-2.0
1.6951613234158323e+18,0.0,0.0,-1.0,-8.0,-13.0,-6.0,-4.0,-3.0
1.6951613234158323e+18,-1.0,0.0,0.0,-7.0,0.0,-1.0,0.0,1.0
1.69516132343501e+18,-1.0,1.0,1.0,8.0,6.0,0.0,0.0,-3.0
1.69516132343501e+18,0.0,-1.0,-1.0,-4.0,-2.0,1.0,0.0,0.0
1.6951613234360187e+18,0.0,1.0,2.0,6.0,5.0,-1.0,0.0,0.0
1.6951613234360187e+18,-1.0,-1.0,-1.0,0.0,-1.0,0.0,-1.0,-2.0
1.695161323449334e+18,1.0,1.0,-2.0,2.0,1.0,1.0,0.0,1.0
1.695161323449334e+18,0.0,-1.0,-3.0,-3.0,-2.0,-2.0,-1.0,-2.0
1.6951613234503421e+18,0.0,-2.0,-2.0,2.0,-1.0,0.0,-2.0,0.0
1.6951613234503421e+18,-2.0,-1.0,2.0,-3.0,-8.0,-3.0,-4.0,0.0
1.6951613234980088e+18,-2.0,0.0,0.0,-1.0,0.0,-1.0,2.0,-1.0
1.6951613234980088e+18,-1.0,-1.0,-2.0,-3.0,0.0,2.0,0.0,-3.0
1.6951613234980088e+18,1.0,0.0,-1.0,3.0,-1.0,-2.0,-2.0,-1.0
1.6951613234990093e+18,-1.0,0.0,-1.0,2.0,-3.0,-5.0,-2.0,-2.0
1.6951613235030067e+18,0.0,0.0,0.0,5.0,2.0,-5.0,-1.0,-1.0
1.6951613235030067e+18,0.0,-1.0,2.0,-6.0,3.0,15.0,4.0,1.0
1.6951613235040061e+18,2.0,5.0,-2.0,2.0,5.0,-1.0,-2.0,-2.0
1.6951613235040061e+18,-6.0,-2.0,0.0,-12.0,-9.0,-9.0,1.0,-1.0
1.6951613235040061e+18,0.0,-13.0,1.0,17.0,-1.0,-1.0,1.0,0.0
1.695161323505043e+18,5.0,-12.0,-4.0,-3.0,5.0,3.0,-1.0,0.0
1.6951613235169984e+18,-1.0,1.0,-2.0,-6.0,-8.0,-2.0,-5.0,-4.0
1.6951613235179988e+18,3.0,8.0,0.0,1.0,-3.0,-1.0,-1.0,0.0
1.6951613235411087e+18,0.0,5.0,-3.0,-8.0,-7.0,-10.0,-5.0,-2.0
1.6951613235421082e+18,-3.0,-8.0,-3.0,1.0,1.0,-5.0,-14.0,-5.0
1.6951613235421082e+18,-1.0,-1.0,3.0,9.0,6.0,12.0,30.0,6.0
1.695161323543112e+18,-1.0,-1.0,0.0,2.0,0.0,-7.0,-11.0,-3.0
1.695161323547105e+18,-5.0,0.0,-4.0,-1.0,3.0,10.0,-1.0,-1.0
1.6951613235481042e+18,2.0,3.0,-3.0,-2.0,-8.0,-4.0,3.0,1.0
1.6951613235481042e+18,-3.0,-5.0,-3.0,-1.0,-5.0,-9.0,-10.0,-5.0
1.6951613235491023e+18,-1.0,-1.0,1.0,11.0,11.0,3.0,0.0,0.0
1.6951613235630958e+18,1.0,-3.0,-1.0,-4.0,-5.0,-2.0,-4.0,2.0
1.6951613235630958e+18,-8.0,4.0,0.0,1.0,1.0,-1.0,-1.0,4.0
1.6951613235690998e+18,-1.0,2.0,0.0,-2.0,0.0,-3.0,-3.0,-10.0
1.6951613235690998e+18,-6.0,-17.0,-3.0,4.0,-1.0,-3.0,-5.0,-8.0
1.6951613236030723e+18,2.0,8.0,-1.0,-10.0,-5.0,0.0,-9.0,-2.0
1.6951613236070733e+18,1.0,-2.0,-1.0,4.0,-2.0,-1.0,3.0,3.0
1.695161323608069e+18,0.0,-2.0,1.0,2.0,2.0,-8.0,-4.0,5.0
1.6951613236090732e+18,2.0,1.0,-3.0,-9.0,0.0,7.0,5.0,3.0
1.695161323615066e+18,-6.0,-3.0,0.0,-3.0,-6.0,3.0,14.0,-17.0
1.695161323616064e+18,-3.0,2.0,0.0,-1.0,-9.0,-5.0,-5.0,-4.0
1.695161323616064e+18,0.0,-6.0,-8.0,1.0,-1.0,-5.0,2.0,12.0
1.695161323616064e+18,-1.0,4.0,3.0,-3.0,-11.0,0.0,3.0,23.0
1.69516132362106e+18,4.0,7.0,6.0,11.0,12.0,1.0,-9.0,-26.0
1.69516132362106e+18,-2.0,2.0,-3.0,2.0,7.0,4.0,-24.0,19.0
1.6951613236290565e+18,7.0,-7.0,1.0,0.0,3.0,-3.0,16.0,-11.0
1.6951613236290565e+18,-9.0,-13.0,-7.0,-5.0,4.0,-4.0,-14.0,-14.0
1.6951613236530455e+18,4.0,7.0,-1.0,-5.0,-11.0,2.0,40.0,26.0
1.6951613236530455e+18,-13.0,-5.0,2.0,-6.0,-1.0,-3.0,-7.0,-41.0
1.6951613236540447e+18,2.0,-8.0,2.0,7.0,3.0,2.0,1.0,15.0
1.6951613236540447e+18,-6.0,-8.0,0.0,-19.0,-9.0,-8.0,-22.0,16.0
1.6951613236750316e+18,10.0,12.0,-11.0,7.0,0.0,-4.0,-7.0,1.0
1.6951613236760307e+18,0.0,5.0,7.0,-1.0,-2.0,-2.0,-6.0,-5.0
1.6951613236760307e+18,-8.0,0.0,-5.0,-7.0,-5.0,4.0,9.0,-4.0
1.6951613236770317e+18,-1.0,-2.0,9.0,10.0,14.0,7.0,12.0,-21.0
1.6951613236810268e+18,-1.0,-5.0,-2.0,-4.0,-2.0,-5.0,-16.0,1.0
1.695161323682029e+18,5.0,6.0,9.0,1.0,-1.0,-6.0,10.0,8.0
1.6951613236890227e+18,-2.0,2.0,0.0,-4.0,-4.0,3.0,0.0,-7.0
1.6951613236890227e+18,5.0,6.0,2.0,-7.0,-8.0,2.0,4.0,20.0
1.6951613237200044e+18,4.0,9.0,-3.0,2.0,5.0,-6.0,-14.0,-13.0
1.6951613237230026e+18,-6.0,-24.0,-13.0,-4.0,-2.0,0.0,11.0,-21.0
1.6951613237230026e+18,-3.0,-17.0,2.0,-2.0,-11.0,-6.0,-7.0,7.0
1.695161323725003e+18,2.0,-6.0,-14.0,0.0,11.0,6.0,-1.0,-4.0
1.6951613237309988e+18,-2.0,0.0,11.0,-4.0,-3.0,5.0,-18.0,37.0
1.6951613237309988e+18,4.0,2.0,-20.0,-4.0,-4.0,-3.0,18.0,28.0
1.6951613237309988e+18,4.0,26.0,7.0,-7.0,-8.0,-1.0,-7.0,-10.0
1.6951613237309988e+18,-1.0,-34.0,-7.0,-3.0,-13.0,-8.0,11.0,6.0
1.6951613237419935e+18,-2.0,-1.0,3.0,3.0,13.0,-1.0,-1.0,-44.0
1.6951613237419935e+18,-3.0,11.0,3.0,-4.0,-6.0,0.0,5.0,18.0
1.6951613237489871e+18,-12.0,-17.0,5.0,6.0,9.0,2.0,-21.0,-6.0
1.6951613237489871e+18,1.0,29.0,-10.0,1.0,-2.0,0.0,10.0,-12.0
1.6951613237659776e+18,18.0,-12.0,-1.0,0.0,0.0,-1.0,2.0,1.0
1.6951613237659776e+18,-22.0,-7.0,22.0,-7.0,-7.0,-3.0,2.0,-16.0
1.6951613237669768e+18,0.0,1.0,-5.0,12.0,19.0,5.0,-7.0,16.0
1.6951613237669768e+18,2.0,24.0,3.0,-1.0,4.0,5.0,13.0,-10.0
1.6951613238019576e+18,-12.0,-15.0,10.0,-2.0,0.0,-2.0,-19.0,4.0
1.695161323802956e+18,15.0,8.0,-2.0,3.0,-5.0,-2.0,1.0,17.0
1.695161323802956e+18,-1.0,-8.0,-1.0,-2.0,1.0,2.0,-1.0,12.0
1.695161323802956e+18,5.0,1.0,8.0,11.0,2.0,1.0,0.0,16.0
1.6951613238189463e+18,-7.0,6.0,-1.0,-2.0,0.0,8.0,29.0,-11.0
1.6951613238189463e+18,4.0,6.0,14.0,-7.0,-9.0,-7.0,-5.0,-17.0
1.695161323819946e+18,-2.0,-15.0,-23.0,-9.0,-10.0,-10.0,-15.0,-10.0
1.695161323819946e+18,3.0,1.0,7.0,7.0,12.0,10.0,-4.0,1.0
1.695161323839935e+18,14.0,6.0,15.0,5.0,-4.0,2.0,6.0,14.0
1.695161323839935e+18,-8.0,3.0,-13.0,0.0,3.0,-1.0,-2.0,-4.0
1.6951613238409347e+18,8.0,7.0,4.0,-6.0,-6.0,0.0,9.0,16.0
1.6951613238409347e+18,5.0,2.0,-4.0,1.0,0.0,-11.0,-19.0,-10.0
1.6951613238549294e+18,-30.0,-9.0,-40.0,7.0,7.0,0.0,-9.0,-9.0
1.6951613238549294e+18,7.0,-4.0,53.0,-6.0,-5.0,3.0,-3.0,13.0
1.6951613238559255e+18,10.0,8.0,-19.0,2.0,5.0,4.0,3.0,9.0
1.6951613238559255e+18,6.0,-1.0,2.0,-4.0,-9.0,-11.0,1.0,0.0
1.6951613238609444e+18,-6.0,-14.0,-18.0,-18.0,-10.0,-1.0,2.0,2.0
1.6951613238609444e+18,1.0,8.0,-3.0,8.0,12.0,-1.0,-9.0,1.0
1.6951613238919055e+18,-19.0,-4.0,-12.0,-1.0,-4.0,1.0,18.0,-44.0
1.6951613238919055e+18,10.0,-12.0,1.0,4.0,1.0,2.0,-8.0,25.0
1.6951613239008998e+18,9.0,2.0,40.0,3.0,-1.0,-6.0,-11.0,-17.0
1.6951613239008998e+18,8.0,-3.0,8.0,-9.0,-8.0,0.0,10.0,-10.0
1.6951613239178944e+18,-14.0,15.0,11.0,2.0,-9.0,-2.0,-3.0,-20.0
1.6951613239188905e+18,10.0,-24.0,-32.0,2.0,14.0,10.0,10.0,0.0
1.6951613239248883e+18,-14.0,4.0,27.0,2.0,-9.0,-7.0,-12.0,15.0
1.6951613239258885e+18,6.0,4.0,27.0,20.0,7.0,-1.0,-9.0,18.0
1.6951613239258885e+18,6.0,24.0,14.0,-8.0,-1.0,3.0,3.0,-31.0
1.6951613239258885e+18,-30.0,-24.0,-32.0,-23.0,-7.0,-6.0,7.0,-18.0
1.6951613239258885e+18,1.0,-1.0,-46.0,1.0,-3.0,-1.0,-7.0,-4.0
1.6951613239258885e+18,-4.0,-3.0,-29.0,-8.0,1.0,0.0,-2.0,-26.0
1.6951613239288842e+18,-4.0,3.0,3.0,-2.0,-7.0,-13.0,-22.0,27.0
1.6951613239288842e+18,-10.0,11.0,3.0,13.0,13.0,17.0,6.0,-2.0
1.6951613239528701e+18,0.0,-19.0,-5.0,-2.0,4.0,1.0,10.0,5.0
1.6951613239528701e+18,4.0,-2.0,-21.0,-3.0,0.0,-1.0,-8.0,-3.0
1.6951613239528701e+18,6.0,-8.0,1.0,-9.0,-5.0,4.0,9.0,-5.0
1.6951613239528701e+18,-4.0,5.0,18.0,-5.0,-14.0,-12.0,-15.0,-9.0
1.6951613239718812e+18,4.0,-3.0,-3.0,2.0,0.0,-6.0,-9.0,27.0
1.6951613239718812e+18,10.0,3.0,0.0,12.0,15.0,13.0,11.0,16.0
1.6951613239718812e+18,-9.0,-10.0,6.0,-22.0,-6.0,-2.0,11.0,-39.0
1.6951613239718812e+18,-13.0,12.0,11.0,-5.0,-11.0,-12.0,-38.0,9.0
1.6951613239828526e+18,-15.0,12.0,-6.0,0.0,0.0,-1.0,-1.0,-8.0
1.6951613239828526e+18,-6.0,-32.0,-16.0,-6.0,-7.0,-7.0,6.0,-2.0
1.6951613239888492e+18,-2.0,1.0,-25.0,6.0,9.0,-5.0,-30.0,8.0
1.6951613239888492e+18,1.0,-2.0,8.0,4.0,-8.0,-3.0,15.0,-19.0
1.69516132400384e+18,-3.0,8.0,-14.0,-7.0,4.0,6.0,10.0,-2.0
1.6951613240048458e+18,-1.0,-3.0,-4.0,-5.0,-3.0,-6.0,-8.0,-7.0
1.6951613240048458e+18,5.0,4.0,6.0,7.0,4.0,6.0,10.0,23.0
1.6951613240118374e+18,6.0,1.0,27.0,8.0,2.0,-4.0,-6.0,-12.0
1.6951613240278292e+18,-2.0,8.0,-30.0,-17.0,-8.0,-8.0,-3.0,6.0
1.6951613240288266e+18,-1.0,-11.0,3.0,2.0,4.0,0.0,-1.0,-7.0
1.6951613240288266e+18,-1.0,1.0,4.0,11.0,9.0,8.0,5.0,2.0
1.6951613240288266e+18,0.0,1.0,-6.0,-7.0,-9.0,-2.0,2.0,-7.0
1.695161324046817e+18,4.0,3.0,17.0,5.0,3.0,2.0,4.0,18.0
1.695161324046817e+18,0.0,4.0,-13.0,1.0,3.0,1.0,0.0,-18.0
1.6951613240797965e+18,8.0,5.0,16.0,-9.0,-10.0,-8.0,0.0,17.0
1.6951613240797965e+18,6.0,-5.0,-16.0,-4.0,4.0,3.0,3.0,-2.0
1.6951613240957873e+18,-7.0,-8.0,12.0,7.0,1.0,-8.0,-17.0,-9.0
1.6951613240967885e+18,0.0,12.0,-4.0,0.0,1.0,9.0,11.0,7.0
1.6951613240967885e+18,-3.0,-5.0,-4.0,-7.0,-7.0,-4.0,-5.0,5.0
1.6951613240967885e+18,-6.0,-8.0,28.0,7.0,5.0,7.0,14.0,2.0
1.695161324098786e+18,26.0,-3.0,-17.0,13.0,5.0,-3.0,1.0,-8.0
1.695161324098786e+18,1.0,11.0,15.0,4.0,11.0,6.0,7.0,-6.0
1.6951613241017838e+18,5.0,-27.0,-9.0,10.0,0.0,8.0,12.0,24.0
1.6951613241017838e+18,-13.0,10.0,-4.0,-8.0,2.0,-17.0,-15.0,-20.0
1.6951613241237714e+18,11.0,-14.0,5.0,-1.0,-2.0,15.0,19.0,30.0
1.6951613241247744e+18,-8.0,3.0,-11.0,-8.0,-11.0,-4.0,-9.0,-6.0
1.6951613241337664e+18,-3.0,3.0,5.0,6.0,9.0,9.0,9.0,-14.0
1.6951613241337664e+18,-7.0,-28.0,-8.0,6.0,-4.0,2.0,8.0,-6.0
1.6951613241357652e+18,-6.0,-16.0,21.0,0.0,1.0,2.0,5.0,-4.0
1.6951613241357652e+18,-10.0,14.0,-24.0,-3.0,0.0,-6.0,-6.0,-22.0
1.6951613241357652e+18,-25.0,-17.0,-8.0,-12.0,-5.0,-13.0,-23.0,37.0
1.6951613241357652e+18,-14.0,2.0,-7.0,2.0,-3.0,-1.0,-6.0,-4.0
1.695161324155754e+18,-9.0,10.0,-4.0,-4.0,3.0,3.0,-3.0,-14.0
1.6951613241567534e+18,3.0,9.0,4.0,-12.0,-14.0,-10.0,-7.0,-5.0
1.6951613241567534e+18,5.0,10.0,-16.0,3.0,4.0,-4.0,-14.0,-25.0
1.695161324157753e+18,11.0,3.0,28.0,2.0,0.0,2.0,6.0,3.0
1.6951613241817403e+18,-4.0,0.0,-6.0,-2.0,-6.0,-7.0,-9.0,-25.0
1.6951613241817403e+18,-4.0,0.0,-3.0,-15.0,-11.0,-1.0,17.0,22.0
1.6951613241847406e+18,4.0,9.0,3.0,-3.0,-10.0,-16.0,-14.0,-2.0
1.6951613241847406e+18,20.0,1.0,-8.0,1.0,10.0,3.0,-34.0,-2.0
1.6951613241927324e+18,-2.0,-1.0,7.0,-3.0,-3.0,3.0,21.0,-6.0
1.6951613241927324e+18,-1.0,-5.0,2.0,-1.0,-3.0,-5.0,-23.0,-2.0
1.6951613241927324e+18,2.0,-13.0,-3.0,5.0,0.0,0.0,0.0,-30.0
1.6951613241927324e+18,5.0,-2.0,-11.0,-2.0,-5.0,-4.0,2.0,45.0
1.6951613242067466e+18,11.0,11.0,10.0,-1.0,-1.0,-5.0,8.0,12.0
1.6951613242067466e+18,13.0,-18.0,-8.0,6.0,11.0,9.0,-3.0,19.0
1.6951613242077235e+18,14.0,11.0,17.0,2.0,1.0,4.0,10.0,-7.0
1.6951613242077235e+18,-14.0,4.0,-36.0,-3.0,-4.0,-6.0,-26.0,-26.0
1.6951613242297116e+18,6.0,5.0,2.0,4.0,8.0,3.0,3.0,7.0
1.6951613242297116e+18,-10.0,-4.0,3.0,4.0,-5.0,-4.0,14.0,-6.0
1.6951613242297116e+18,0.0,13.0,-16.0,-13.0,1.0,4.0,4.0,11.0
1.6951613242297116e+18,6.0,-8.0,14.0,6.0,-7.0,-2.0,12.0,2.0
1.6951613242686886e+18,-12.0,-8.0,6.0,-4.0,-5.0,-5.0,-17.0,-11.0
1.6951613242686886e+18,10.0,-14.0,-2.0,8.0,-2.0,-6.0,-7.0,-6.0
1.6951613242696886e+18,-5.0,3.0,9.0,-2.0,4.0,2.0,11.0,-14.0
1.6951613242696886e+18,-2.0,15.0,1.0,-12.0,-11.0,1.0,11.0,-2.0
1.6951613242706885e+18,-7.0,4.0,-15.0,-11.0,-1.0,9.0,5.0,8.0
1.6951613242706885e+18,7.0,-18.0,9.0,19.0,16.0,2.0,-6.0,17.0
1.695161324273708e+18,11.0,-13.0,3.0,2.0,-6.0,-2.0,4.0,0.0
1.695161324273708e+18,-8.0,28.0,8.0,-1.0,1.0,2.0,4.0,-11.0
1.6951613242886784e+18,2.0,2.0,7.0,8.0,6.0,3.0,6.0,-2.0
1.6951613242886784e+18,3.0,-8.0,-55.0,-18.0,-9.0,-1.0,-3.0,-9.0
1.6951613242966725e+18,1.0,11.0,32.0,4.0,-1.0,1.0,1.0,16.0
1.6951613242966725e+18,2.0,-9.0,8.0,8.0,3.0,1.0,10.0,6.0
1.6951613243206638e+18,-7.0,9.0,-35.0,5.0,-3.0,-5.0,-11.0,-13.0
1.6951613243206638e+18,-11.0,8.0,61.0,-6.0,-2.0,-4.0,0.0,-7.0
1.6951613243276554e+18,-5.0,-20.0,-41.0,-7.0,-14.0,-6.0,-7.0,4.0
1.6951613243276554e+18,3.0,17.0,-20.0,16.0,5.0,2.0,3.0,2.0
1.6951613243286574e+18,-3.0,-15.0,18.0,-23.0,-6.0,-3.0,0.0,0.0
1.6951613243296548e+18,-7.0,-1.0,-7.0,27.0,19.0,9.0,6.0,7.0
1.6951613243426486e+18,-1.0,3.0,-5.0,-11.0,-15.0,-11.0,-10.0,3.0
1.6951613243426486e+18,7.0,14.0,49.0,-7.0,6.0,2.0,5.0,0.0
1.6951613243636375e+18,-4.0,-10.0,-26.0,2.0,-11.0,-3.0,11.0,-4.0
1.6951613243636375e+18,1.0,-8.0,-16.0,-4.0,11.0,-2.0,-6.0,29.0
1.6951613243636375e+18,-7.0,12.0,30.0,2.0,-21.0,-9.0,-10.0,-17.0
1.6951613243636375e+18,-5.0,-3.0,2.0,2.0,2.0,-10.0,1.0,0.0
1.6951613243716298e+18,2.0,-2.0,21.0,-7.0,-2.0,9.0,-3.0,0.0
1.6951613243716298e+18,-1.0,15.0,-6.0,2.0,-3.0,-1.0,2.0,-11.0
1.6951613243726298e+18,-2.0,-7.0,-7.0,18.0,40.0,17.0,6.0,8.0
1.6951613243726298e+18,1.0,-2.0,2.0,3.0,9.0,1.0,2.0,7.0
1.6951613243976156e+18,2.0,14.0,33.0,11.0,10.0,0.0,-3.0,-4.0
1.6951613244036124e+18,-6.0,-14.0,-8.0,-43.0,-61.0,-10.0,-6.0,-6.0
1.6951613244036124e+18,1.0,1.0,-11.0,33.0,72.0,15.0,3.0,8.0
1.695161324404615e+18,4.0,-12.0,-13.0,-6.0,-14.0,9.0,4.0,-8.0
1.6951613244246216e+18,-3.0,9.0,8.0,3.0,13.0,-1.0,1.0,5.0
1.6951613244246216e+18,-1.0,8.0,0.0,-6.0,-22.0,-7.0,-3.0,-1.0
1.6951613244255992e+18,6.0,1.0,11.0,2.0,-6.0,-4.0,4.0,4.0
1.6951613244255992e+18,-4.0,-1.0,-10.0,-12.0,-4.0,6.0,3.0,-4.0
1.6951613244355935e+18,3.0,-6.0,-16.0,7.0,-5.0,-12.0,-11.0,7.0
1.6951613244355935e+18,-2.0,4.0,4.0,4.0,13.0,4.0,0.0,0.0
1.6951613244355935e+18,3.0,-1.0,-3.0,-12.0,-12.0,-3.0,0.0,-8.0
1.6951613244365942e+18,1.0,0.0,-8.0,-9.0,2.0,1.0,0.0,3.0
1.6951613244675758e+18,0.0,-7.0,-6.0,10.0,0.0,3.0,-1.0,3.0
1.6951613244675758e+18,-3.0,2.0,4.0,4.0,8.0,-3.0,-2.0,-4.0
1.695161324468575e+18,-4.0,4.0,8.0,0.0,-2.0,1.0,0.0,-2.0
1.695161324468575e+18,2.0,-5.0,-8.0,-4.0,-7.0,-1.0,-1.0,2.0
1.6951613244705738e+18,-1.0,-4.0,4.0,-7.0,-4.0,-4.0,-3.0,0.0
1.6951613244705738e+18,0.0,6.0,2.0,5.0,10.0,2.0,2.0,-1.0
1.6951613244715814e+18,-2.0,-6.0,-4.0,0.0,-10.0,2.0,1.0,0.0
1.6951613244715814e+18,0.0,-2.0,-8.0,-8.0,-4.0,-3.0,0.0,0.0
1.6951613245085524e+18,-2.0,-6.0,-6.0,-3.0,-5.0,-6.0,-4.0,-4.0
1.6951613245085524e+18,0.0,2.0,0.0,8.0,9.0,5.0,4.0,1.0
1.6951613245085524e+18,-2.0,-1.0,-7.0,-9.0,-13.0,0.0,-1.0,-1.0
1.6951613245085524e+18,-2.0,-3.0,-3.0,1.0,4.0,-3.0,-1.0,0.0
1.6951613245105728e+18,1.0,2.0,3.0,-1.0,0.0,1.0,0.0,0.0
1.6951613245105728e+18,0.0,-1.0,-2.0,2.0,-1.0,-2.0,0.0,-2.0
1.6951613245135708e+18,-1.0,1.0,5.0,-3.0,-3.0,-3.0,-1.0,-1.0
1.6951613245145498e+18,-4.0,-2.0,-2.0,-1.0,0.0,-3.0,-2.0,-1.0
1.6951613245295404e+18,2.0,-2.0,-2.0,1.0,-2.0,1.0,-1.0,-2.0
1.695161324535536e+18,0.0,1.0,-2.0,-14.0,-1.0,1.0,1.0,0.0
1.695161324535536e+18,-4.0,-4.0,-7.0,1.0,-6.0,-1.0,-3.0,-3.0
1.6951613245365394e+18,0.0,2.0,2.0,11.0,5.0,-1.0,-1.0,2.0
1.695161324559522e+18,0.0,-6.0,-6.0,-8.0,-7.0,1.0,0.0,-2.0
1.6951613245605222e+18,-2.0,-2.0,2.0,8.0,2.0,-1.0,0.0,0.0
1.6951613245605222e+18,-2.0,-2.0,-3.0,-6.0,-1.0,0.0,-1.0,-4.0
1.6951613245605222e+18,2.0,-2.0,-5.0,-8.0,-4.0,-2.0,1.0,1.0
1.6951613245765158e+18,-2.0,0.0,4.0,3.0,0.0,2.0,-1.0,-1.0
1.6951613245765158e+18,0.0,2.0,-5.0,1.0,0.0,-2.0,-3.0,-2.0
1.6951613245765158e+18,0.0,-4.0,-3.0,-1.0,-2.0,-1.0,-1.0,1.0
1.6951613245765158e+18,-1.0,-2.0,-10.0,-20.0,-5.0,-5.0,-3.0,-1.0
1.6951613245895055e+18,-1.0,-3.0,-1.0,6.0,-5.0,-4.0,-2.0,0.0
1.6951613245895055e+18,1.0,1.0,5.0,9.0,-2.0,-4.0,-4.0,-1.0
1.6951613245895055e+18,-1.0,-1.0,7.0,7.0,-7.0,-24.0,0.0,2.0
1.695161324590506e+18,2.0,3.0,-5.0,2.0,8.0,38.0,6.0,-1.0
1.6951613246244846e+18,0.0,-13.0,2.0,-15.0,3.0,-3.0,3.0,1.0
1.6951613246244846e+18,-3.0,0.0,10.0,15.0,1.0,-3.0,-3.0,-2.0
1.6951613246254863e+18,3.0,-2.0,-6.0,-7.0,-1.0,-2.0,-7.0,-4.0
1.6951613246254863e+18,-8.0,-4.0,-1.0,-1.0,-26.0,-42.0,-7.0,0.0
1.695161324634481e+18,-6.0,1.0,-11.0,-26.0,-3.0,17.0,3.0,-1.0
1.6951613246354793e+18,17.0,6.0,-1.0,6.0,14.0,6.0,5.0,-1.0
1.6951613246354793e+18,1.0,0.0,7.0,-1.0,17.0,53.0,18.0,4.0
1.6951613246354793e+18,1.0,-1.0,-1.0,20.0,19.0,7.0,6.0,10.0
1.6951613246494712e+18,-7.0,1.0,0.0,-1.0,-13.0,-10.0,-7.0,-12.0
1.6951613246494712e+18,-2.0,-3.0,-2.0,-13.0,-14.0,-24.0,-8.0,-2.0
1.6951613246504707e+18,-5.0,-1.0,-1.0,-1.0,-13.0,-19.0,-8.0,-6.0
1.6951613246504707e+18,0.0,0.0,-2.0,-4.0,-10.0,-1.0,-2.0,-1.0
1.6951613246724585e+18,-6.0,-1.0,4.0,9.0,-1.0,-11.0,-4.0,-2.0
1.6951613246724585e+18,-3.0,-3.0,-1.0,-3.0,2.0,4.0,2.0,1.0
1.6951613246724585e+18,3.0,-1.0,2.0,1.0,-1.0,-2.0,-1.0,1.0
1.6951613246724585e+18,-2.0,-1.0,-7.0,-9.0,1.0,2.0,1.0,-1.0
1.6951613247114358e+18,6.0,1.0,3.0,12.0,6.0,0.0,-1.0,2.0
1.6951613247114358e+18,-4.0,1.0,-5.0,-3.0,-1.0,7.0,2.0,-1.0
1.6951613247114358e+18,-1.0,-1.0,-1.0,-1.0,-4.0,1.0,1.0,0.0
1.69516132471244e+18,-1.0,-1.0,7.0,2.0,5.0,-5.0,-2.0,-4.0
1.6951613247134354e+18,3.0,4.0,-3.0,-6.0,2.0,2.0,0.0,0.0
1.6951613247134354e+18,-1.0,0.0,-3.0,3.0,-2.0,6.0,0.0,0.0
1.6951613247174323e+18,-6.0,-2.0,-1.0,0.0,-2.0,-9.0,-1.0,-2.0
1.6951613247174323e+18,0.0,-1.0,1.0,-2.0,2.0,0.0,0.0,-2.0
1.695161324740419e+18,1.0,1.0,0.0,-3.0,-5.0,0.0,0.0,2.0
1.695161324740419e+18,-2.0,-1.0,1.0,-1.0,-3.0,-1.0,-1.0,0.0
1.6951613247454162e+18,-3.0,-2.0,2.0,-2.0,2.0,-8.0,-4.0,-1.0
1.695161324746415e+18,0.0,-1.0,-3.0,1.0,1.0,8.0,1.0,-2.0
1.6951613247624064e+18,2.0,2.0,-5.0,-2.0,4.0,2.0,3.0,2.0
1.6951613247624064e+18,-3.0,-2.0,2.0,0.0,1.0,3.0,0.0,0.0
1.6951613247634058e+18,-2.0,0.0,-3.0,-2.0,-5.0,-14.0,0.0,-2.0
1.6951613247634058e+18,-1.0,-2.0,-4.0,-13.0,-5.0,11.0,-1.0,-1.0
1.695161324769402e+18,-1.0,0.0,6.0,16.0,1.0,-8.0,0.0,-1.0
1.695161324769402e+18,-3.0,-3.0,-5.0,-9.0,-5.0,-6.0,-2.0,-3.0
1.695161324770402e+18,0.0,0.0,-1.0,-4.0,10.0,17.0,0.0,-1.0
1.695161324770402e+18,0.0,-1.0,4.0,6.0,0.0,-9.0,0.0,-3.0
1.695161324800385e+18,2.0,-2.0,-5.0,-8.0,5.0,5.0,0.0,-2.0
1.695161324800385e+18,-1.0,-1.0,1.0,1.0,-3.0,-3.0,-1.0,-2.0
1.695161324800385e+18,0.0,0.0,-2.0,1.0,-7.0,-7.0,-5.0,-1.0
1.695161324800385e+18,0.0,0.0,0.0,-4.0,-3.0,-4.0,-2.0,-3.0
1.6951613248153761e+18,0.0,-2.0,-2.0,1.0,-4.0,0.0,-2.0,0.0
1.6951613248153761e+18,-1.0,-1.0,0.0,1.0,0.0,-1.0,1.0,0.0
1.6951613248153761e+18,0.0,-1.0,-4.0,-3.0,1.0,3.0,3.0,-1.0
1.6951613248163758e+18,-1.0,-1.0,1.0,2.0,-1.0,-3.0,-3.0,-1.0
1.6951613248293678e+18,0.0,3.0,1.0,3.0,-1.0,-2.0,0.0,2.0
1.6951613248293678e+18,-1.0,-1.0,-2.0,-4.0,2.0,2.0,5.0,-2.0
1.695161324830368e+18,0.0,-2.0,-5.0,-4.0,-3.0,0.0,0.0,0.0
1.695161324830368e+18,0.0,0.0,4.0,3.0,0.0,-4.0,-3.0,-3.0
1.695161324851378e+18,0.0,0.0,-1.0,0.0,-3.0,-6.0,-3.0,-1.0
1.695161324852356e+18,1.0,0.0,-3.0,-4.0,3.0,2.0,-1.0,-2.0
1.695161324852356e+18,-1.0,0.0,-3.0,-1.0,0.0,5.0,1.0,-1.0
1.695161324852356e+18,-1.0,0.0,0.0,3.0,-1.0,-1.0,2.0,0.0
1.695161324876341e+18,-2.0,-1.0,-3.0,-3.0,-3.0,-2.0,-3.0,-2.0
1.695161324876341e+18,-2.0,-1.0,2.0,1.0,1.0,-7.0,-1.0,-1.0
1.695161324877341e+18,1.0,0.0,0.0,0.0,1.0,11.0,-1.0,-1.0
1.695161324877341e+18,0.0,-1.0,-1.0,1.0,6.0,0.0,-1.0,0.0
1.6951613248893332e+18,-1.0,-1.0,-1.0,-3.0,-1.0,0.0,-1.0,-2.0
1.6951613248893332e+18,-2.0,-2.0,-2.0,1.0,-4.0,-3.0,-3.0,-1.0
1.6951613248903327e+18,-1.0,-2.0,-1.0,-1.0,-5.0,-8.0,-2.0,-2.0
1.6951613248903327e+18,0.0,-1.0,0.0,-1.0,-1.0,-1.0,-1.0,-1.0
1.6951613249113203e+18,0.0,0.0,1.0,1.0,-1.0,-1.0,0.0,-1.0
1.6951613249113203e+18,2.0,-1.0,-1.0,0.0,1.0,0.0,0.0,1.0
1.695161324912323e+18,0.0,-1.0,-5.0,-4.0,-1.0,-2.0,-1.0,0.0
1.695161324912323e+18,-3.0,1.0,-1.0,-2.0,0.0,-1.0,0.0,0.0
1.6951613249383063e+18,0.0,-3.0,-1.0,0.0,1.0,-2.0,-1.0,0.0
1.6951613249383063e+18,0.0,-1.0,0.0,-2.0,-2.0,4.0,0.0,0.0
1.695161324939306e+18,-2.0,0.0,-2.0,-1.0,-2.0,-2.0,0.0,0.0
1.695161324939306e+18,-1.0,0.0,-2.0,-1.0,2.0,-1.0,-3.0,0.0
1.6951613249492984e+18,-1.0,-2.0,1.0,-1.0,-3.0,0.0,1.0,-1.0
1.6951613249492984e+18,1.0,0.0,-2.0,-2.0,-7.0,0.0,-1.0,-2.0
1.695161324950299e+18,-1.0,-1.0,1.0,2.0,6.0,2.0,0.0,-1.0
1.695161324950299e+18,1.0,-1.0,0.0,0.0,-3.0,-1.0,0.0,-1.0
1.695161324987277e+18,-3.0,-1.0,0.0,1.0,5.0,3.0,-1.0,-1.0
1.695161324987277e+18,-1.0,-1.0,-1.0,-4.0,0.0,-2.0,-1.0,-1.0
1.6951613249882765e+18,1.0,-1.0,0.0,-2.0,-6.0,-6.0,-2.0,-3.0
1.6951613249882765e+18,-1.0,0.0,-1.0,0.0,-4.0,-2.0,-1.0,-3.0
1.695161324994273e+18,-1.0,-1.0,-2.0,-3.0,-2.0,0.0,0.0,0.0
1.695161324995273e+18,-1.0,0.0,0.0,0.0,1.0,2.0,-2.0,-1.0
1.695161324995273e+18,-2.0,-1.0,-1.0,0.0,-1.0,-1.0,-1.0,0.0
1.6951613249962726e+18,-2.0,-2.0,-1.0,0.0,1.0,1.0,0.0,-1.0
1.6951613250092667e+18,1.0,0.0,-2.0,0.0,-3.0,-1.0,-1.0,-1.0
1.6951613250092667e+18,-1.0,-1.0,-2.0,0.0,2.0,1.0,1.0,0.0
1.695161325010264e+18,0.0,0.0,-1.0,-1.0,-1.0,-1.0,-1.0,0.0
1.695161325010264e+18,1.0,2.0,0.0,-2.0,-3.0,-1.0,0.0,0.0
1.69516132504025e+18,-2.0,5.0,-2.0,-1.0,-2.0,-3.0,-3.0,-2.0
1.69516132504025e+18,-2.0,-16.0,10.0,3.0,4.0,3.0,2.0,2.0
1.6951613250412488e+18,1.0,0.0,-1.0,0.0,1.0,-2.0,-2.0,-1.0
1.6951613250412488e+18,6.0,9.0,-4.0,-7.0,-6.0,-5.0,-2.0,1.0
1.695161325055239e+18,-2.0,-3.0,0.0,3.0,0.0,2.0,1.0,-1.0
1.695161325055239e+18,1.0,4.0,-4.0,-4.0,-1.0,-1.0,0.0,-1.0
1.695161325055239e+18,-3.0,1.0,-3.0,-2.0,-5.0,-2.0,-3.0,-1.0
1.6951613250562378e+18,-1.0,-9.0,4.0,2.0,-1.0,-1.0,-1.0,0.0
1.6951613250702323e+18,2.0,-3.0,-3.0,-5.0,0.0,-3.0,-2.0,0.0
1.6951613250712517e+18,-1.0,-1.0,1.0,1.0,1.0,1.0,-1.0,-1.0
1.6951613250712517e+18,1.0,6.0,0.0,-1.0,-3.0,-2.0,-1.0,-3.0
1.6951613250712517e+18,-1.0,3.0,-6.0,-1.0,-2.0,-2.0,-3.0,-1.0
1.6951613250912174e+18,-1.0,-4.0,3.0,0.0,0.0,2.0,0.0,-3.0
1.6951613250922358e+18,0.0,-1.0,-3.0,-1.0,-1.0,0.0,1.0,0.0
1.6951613251082084e+18,-1.0,-4.0,0.0,2.0,-1.0,-2.0,0.0,-1.0
1.6951613251082084e+18,-4.0,-4.0,2.0,1.0,1.0,2.0,-1.0,-1.0
1.6951613251152046e+18,1.0,3.0,-3.0,-1.0,-1.0,-1.0,0.0,0.0
1.6951613251152046e+18,-1.0,2.0,-3.0,-2.0,-2.0,-4.0,-3.0,1.0
1.6951613251162043e+18,-1.0,-1.0,0.0,-3.0,0.0,0.0,-1.0,0.0
1.6951613251162043e+18,-1.0,-2.0,1.0,2.0,1.0,1.0,2.0,0.0
1.6951613251291978e+18,2.0,5.0,-2.0,-1.0,-4.0,-2.0,-2.0,0.0
1.6951613251291978e+18,-3.0,-1.0,0.0,0.0,0.0,0.0,-1.0,0.0
1.6951613251301957e+18,0.0,-2.0,-1.0,0.0,1.0,-1.0,0.0,0.0
1.6951613251301957e+18,-1.0,-3.0,2.0,-1.0,2.0,-1.0,-1.0,-1.0
1.6951613251521843e+18,-1.0,-3.0,0.0,0.0,0.0,-2.0,1.0,1.0
1.6951613251521843e+18,2.0,4.0,-3.0,-3.0,-4.0,-2.0,-1.0,-2.0
1.6951613251521843e+18,1.0,-1.0,1.0,-3.0,-3.0,-2.0,0.0,-1.0
1.6951613251521843e+18,2.0,0.0,-2.0,-3.0,-2.0,0.0,-1.0,-2.0
1.6951613251771914e+18,-1.0,-3.0,-1.0,1.0,-2.0,-1.0,0.0,-1.0
1.695161325180171e+18,1.0,1.0,-3.0,-2.0,-2.0,-2.0,-1.0,-1.0
1.695161325180171e+18,0.0,0.0,-2.0,-2.0,0.0,1.0,1.0,-1.0
1.695161325180171e+18,-2.0,-4.0,5.0,2.0,2.0,2.0,1.0,0.0
1.6951613251891638e+18,-1.0,-1.0,-1.0,-2.0,0.0,0.0,-1.0,0.0
1.6951613251901614e+18,-2.0,1.0,-2.0,-1.0,0.0,1.0,0.0,-2.0
1.6951613251901614e+18,-4.0,-4.0,-3.0,1.0,0.0,0.0,-2.0,-3.0
1.6951613251901614e+18,-2.0,0.0,1.0,-1.0,0.0,-2.0,0.0,-1.0
1.695161325213151e+18,0.0,1.0,-3.0,-2.0,-1.0,-1.0,-2.0,-1.0
1.6951613252151488e+18,-2.0,-7.0,1.0,1.0,0.0,1.0,0.0,0.0
1.6951613252151488e+18,-2.0,-2.0,-1.0,-2.0,-1.0,-2.0,0.0,0.0
1.6951613252151488e+18,4.0,4.0,-7.0,-5.0,-1.0,-2.0,-1.0,1.0
1.6951613252426194e+18,-4.0,-18.0,13.0,7.0,3.0,2.0,2.0,0.0
1.6951613252426194e+18,-1.0,3.0,-2.0,-4.0,-4.0,-1.0,-1.0,-2.0
1.6951613252436193e+18,1.0,1.0,-4.0,-1.0,-3.0,-1.0,-2.0,0.0
1.6951613252436193e+18,-2.0,-4.0,1.0,2.0,1.0,0.0,1.0,-2.0
1.6951613252578263e+18,3.0,4.0,-6.0,-5.0,-4.0,-2.0,-3.0,1.0
1.6951613252578263e+18,-1.0,-1.0,4.0,4.0,3.0,3.0,-1.0,0.0
1.6951613252578263e+18,1.0,0.0,0.0,-2.0,-2.0,-1.0,0.0,0.0
1.6951613252578263e+18,0.0,2.0,-10.0,-6.0,-5.0,-4.0,-2.0,-2.0
1.695161325287569e+18,0.0,-1.0,0.0,1.0,-1.0,-1.0,-2.0,-2.0
1.695161325287569e+18,-2.0,-6.0,2.0,0.0,-1.0,-1.0,0.0,-1.0
1.6951613252955743e+18,-4.0,6.0,-4.0,1.0,3.0,1.0,-1.0,-3.0
1.6951613252955743e+18,0.0,-1.0,-2.0,1.0,-2.0,-1.0,-1.0,-1.0
1.6951613252975672e+18,-4.0,-10.0,3.0,-2.0,-1.0,-1.0,2.0,-1.0
1.6951613252975672e+18,2.0,2.0,-1.0,-1.0,-1.0,-2.0,-1.0,0.0
1.695161325302565e+18,2.0,-1.0,1.0,-1.0,-1.0,-3.0,0.0,0.0
1.695161325302565e+18,-3.0,3.0,-2.0,1.0,-1.0,1.0,1.0,-1.0
1.6951613253085906e+18,0.0,7.0,-5.0,-3.0,-2.0,-3.0,-1.0,-2.0
1.6951613253085906e+18,0.0,1.0,-4.0,-3.0,-3.0,0.0,0.0,1.0
1.6951613253165898e+18,0.0,-11.0,7.0,2.0,1.0,1.0,0.0,0.0
1.6951613253165898e+18,1.0,6.0,-2.0,-3.0,-4.0,-3.0,-2.0,-2.0
1.6951613253395986e+18,0.0,1.0,-2.0,0.0,0.0,0.0,0.0,0.0
1.6951613253405763e+18,-1.0,3.0,-5.0,-3.0,-1.0,-1.0,-1.0,-1.0
1.6951613253405763e+18,-2.0,6.0,-5.0,-3.0,0.0,-4.0,0.0,-1.0
1.6951613253405763e+18,-3.0,-4.0,1.0,-1.0,-2.0,1.0,-1.0,0.0
1.6951613253545674e+18,-2.0,-4.0,-4.0,0.0,0.0,0.0,0.0,-2.0
1.6951613253555676e+18,-1.0,-1.0,-1.0,0.0,-2.0,-2.0,-2.0,-2.0
1.6951613253555676e+18,1.0,-4.0,3.0,0.0,-1.0,0.0,0.0,0.0
1.6951613253555676e+18,-2.0,-3.0,1.0,2.0,2.0,0.0,-2.0,-1.0
1.6951613253685924e+18,0.0,-1.0,0.0,-1.0,-2.0,-1.0,-1.0,0.0
1.6951613253685924e+18,0.0,3.0,-4.0,-2.0,2.0,-1.0,-2.0,-2.0
1.695161325377567e+18,-1.0,-3.0,0.0,0.0,1.0,1.0,-1.0,-1.0
1.695161325378565e+18,0.0,-5.0,2.0,2.0,3.0,1.0,0.0,0.0
1.695161325391579e+18,-2.0,3.0,-5.0,-2.0,-1.0,-4.0,-2.0,-2.0
1.695161325391579e+18,-1.0,0.0,0.0,-2.0,-1.0,-3.0,-1.0,0.0
1.6951613253925565e+18,-1.0,-2.0,1.0,-2.0,-1.0,-2.0,-1.0,-1.0
1.6951613253925565e+18,-1.0,-2.0,0.0,-2.0,0.0,-2.0,-3.0,1.0
1.6951613254224955e+18,-1.0,-2.0,1.0,-1.0,-1.0,1.0,1.0,0.0
1.6951613254224955e+18,-3.0,-6.0,0.0,3.0,2.0,0.0,0.0,-1.0
1.6951613254234952e+18,0.0,-2.0,0.0,-1.0,-3.0,-2.0,-1.0,-1.0
1.6951613254234952e+18,2.0,0.0,-3.0,0.0,-2.0,-1.0,-1.0,-1.0
1.6951613254284073e+18,1.0,2.0,-2.0,-2.0,-3.0,0.0,-2.0,0.0
1.6951613254284073e+18,0.0,-1.0,-4.0,-2.0,-4.0,-3.0,-2.0,-2.0
1.695161325436549e+18,-2.0,0.0,-2.0,3.0,1.0,-1.0,-2.0,0.0
1.6951613254375514e+18,-2.0,0.0,-3.0,-3.0,-1.0,-1.0,-2.0,-2.0
1.6951613254515264e+18,-1.0,7.0,-3.0,1.0,0.0,-2.0,-1.0,-3.0
1.6951613254515264e+18,0.0,-2.0,-1.0,-1.0,-2.0,1.0,-2.0,-1.0
1.6951613254525266e+18,-2.0,-1.0,0.0,-1.0,-2.0,0.0,1.0,1.0
1.6951613254525266e+18,-2.0,-3.0,-1.0,-1.0,0.0,-1.0,1.0,-1.0
1.6951613254826186e+18,-2.0,0.0,0.0,0.0,1.0,0.0,-2.0,1.0
1.695161325483589e+18,-1.0,0.0,1.0,0.0,0.0,-1.0,1.0,-1.0
1.695161325483589e+18,-1.0,-12.0,6.0,2.0,0.0,3.0,0.0,0.0
1.695161325483589e+18,-3.0,-2.0,-1.0,-2.0,0.0,0.0,-1.0,-1.0
1.6951613254886147e+18,0.0,-4.0,0.0,-1.0,2.0,-1.0,-1.0,-2.0
1.6951613254886147e+18,0.0,-1.0,-1.0,0.0,-1.0,-1.0,1.0,-1.0
1.6951613254976174e+18,2.0,2.0,-3.0,-4.0,0.0,0.0,0.0,-3.0
1.695161325498614e+18,-1.0,-1.0,0.0,1.0,0.0,-1.0,0.0,-1.0
1.6951613255196004e+18,0.0,2.0,2.0,0.0,-1.0,-1.0,-1.0,0.0
1.6951613255196004e+18,1.0,2.0,-3.0,-3.0,-1.0,-2.0,-2.0,0.0
1.6951613255206034e+18,-1.0,1.0,-1.0,0.0,-1.0,-1.0,-2.0,-2.0
1.6951613255206034e+18,-1.0,-1.0,1.0,2.0,1.0,1.0,1.0,0.0
1.6951613255345994e+18,-3.0,-5.0,0.0,-1.0,-1.0,2.0,1.0,1.0
1.6951613255355945e+18,-1.0,-1.0,0.0,2.0,0.0,0.0,-2.0,-2.0
1.69516132554159e+18,-3.0,1.0,-1.0,-1.0,-1.0,-2.0,-1.0,-1.0
1.69516132554159e+18,1.0,-4.0,2.0,0.0,-1.0,-2.0,0.0,0.0
1.6951613255578232e+18,1.0,-1.0,-3.0,-2.0,0.0,1.0,-1.0,1.0
1.6951613255578232e+18,0.0,0.0,-1.0,-2.0,-1.0,1.0,1.0,1.0
1.6951613255578232e+18,0.0,1.0,-4.0,-3.0,-3.0,-3.0,-1.0,0.0
1.6951613255578232e+18,-1.0,1.0,1.0,-2.0,-2.0,-1.0,0.0,-3.0
1.6951613255716552e+18,-1.0,0.0,-2.0,-2.0,-3.0,-3.0,0.0,-1.0
1.6951613255716552e+18,0.0,-1.0,0.0,-2.0,-1.0,0.0,-1.0,0.0
1.6951613255726377e+18,-2.0,5.0,-8.0,-4.0,-1.0,-1.0,-1.0,-2.0
1.6951613255726377e+18,0.0,-6.0,3.0,2.0,2.0,2.0,-1.0,-1.0
1.6951613255946063e+18,1.0,1.0,-2.0,0.0,-2.0,-1.0,0.0,-1.0
1.6951613255946063e+18,0.0,0.0,-1.0,-1.0,0.0,-1.0,-2.0,0.0
1.6951613255956099e+18,0.0,-3.0,0.0,-2.0,0.0,0.0,-1.0,1.0
1.6951613255956099e+18,0.0,1.0,-2.0,-2.0,-3.0,-1.0,-2.0,1.0
1.6951613256175887e+18,0.0,-1.0,0.0,2.0,0.0,-2.0,-2.0,-3.0
1.6951613256185892e+18,-1.0,0.0,-4.0,-1.0,-1.0,-1.0,-1.0,0.0
1.695161325619598e+18,1.0,1.0,-1.0,-2.0,-1.0,0.0,0.0,-1.0
1.6951613256205878e+18,-1.0,1.0,-2.0,-3.0,0.0,-1.0,-1.0,0.0
1.69516132563158e+18,0.0,0.0,-2.0,0.0,-2.0,-2.0,0.0,1.0
1.6951613256325875e+18,0.0,1.0,-3.0,-1.0,-2.0,-1.0,0.0,-1.0
1.695161325647568e+18,-1.0,-3.0,0.0,1.0,0.0,-1.0,-1.0,-1.0
1.695161325647568e+18,0.0,1.0,-1.0,-1.0,0.0,-1.0,-3.0,-1.0
1.6951613256565624e+18,-1.0,-1.0,-2.0,0.0,0.0,-2.0,-2.0,-1.0
1.6951613256575636e+18,-1.0,0.0,-1.0,-1.0,-2.0,1.0,-1.0,-1.0
1.6951613256585628e+18,0.0,1.0,-1.0,0.0,-2.0,-2.0,1.0,1.0
1.6951613256585628e+18,-1.0,-1.0,-1.0,1.0,0.0,-1.0,-1.0,2.0
1.695161325684548e+18,-1.0,-2.0,-1.0,-2.0,0.0,-1.0,0.0,-2.0
1.695161325684548e+18,-1.0,-1.0,0.0,1.0,-1.0,-3.0,1.0,-2.0
1.695161325688546e+18,-1.0,0.0,1.0,-1.0,0.0,1.0,-1.0,-1.0
1.6951613256905452e+18,1.0,1.0,-4.0,-2.0,-2.0,-1.0,-2.0,0.0
1.6951613256945505e+18,0.0,0.0,0.0,-1.0,0.0,-1.0,-1.0,0.0
1.6951613256945505e+18,-1.0,-3.0,1.0,-2.0,0.0,0.0,-1.0,1.0
1.695161325695542e+18,1.0,-1.0,0.0,-2.0,-1.0,-2.0,-1.0,0.0
1.695161325695542e+18,-1.0,-1.0,3.0,2.0,0.0,0.0,1.0,-1.0
1.6951613257225313e+18,-1.0,0.0,-2.0,0.0,-1.0,1.0,0.0,1.0
1.6951613257235267e+18,1.0,-3.0,-2.0,-1.0,-1.0,-2.0,-2.0,-2.0
1.6951613257245274e+18,1.0,-2.0,-1.0,1.0,0.0,0.0,-1.0,0.0
1.6951613257245274e+18,1.0,0.0,-2.0,-3.0,-2.0,-2.0,0.0,-3.0
1.6951613257385175e+18,0.0,1.0,-3.0,-1.0,-1.0,-1.0,0.0,0.0
1.6951613257395164e+18,1.0,2.0,-1.0,-1.0,0.0,-2.0,0.0,1.0
1.695161325740517e+18,-1.0,0.0,1.0,0.0,-3.0,-1.0,0.0,-1.0
1.695161325740517e+18,0.0,-2.0,-1.0,0.0,0.0,1.0,-2.0,0.0
1.6951613257615045e+18,-2.0,-3.0,0.0,-1.0,-1.0,1.0,-1.0,0.0
1.6951613257615045e+18,-2.0,-1.0,-2.0,-1.0,0.0,0.0,-1.0,-1.0
1.6951613257625034e+18,0.0,-1.0,0.0,-1.0,1.0,-1.0,1.0,-1.0
1.6951613257625034e+18,-2.0,0.0,0.0,0.0,-1.0,-2.0,-1.0,-1.0
1.695161325775495e+18,0.0,-1.0,0.0,-2.0,0.0,-2.0,-2.0,-1.0
1.6951613257764946e+18,-3.0,-3.0,-1.0,-1.0,0.0,-3.0,-1.0,-1.0
1.6951613257764946e+18,0.0,0.0,-3.0,-1.0,-1.0,0.0,1.0,-1.0
1.6951613257774938e+18,0.0,2.0,-3.0,0.0,-2.0,-1.0,1.0,-3.0
1.6951613258064783e+18,-1.0,-1.0,0.0,-1.0,-2.0,-1.0,0.0,0.0
1.6951613258064783e+18,-2.0,-1.0,2.0,0.0,0.0,0.0,1.0,0.0
1.6951613258074778e+18,-1.0,1.0,-1.0,-1.0,-1.0,-1.0,-2.0,0.0
1.6951613258084762e+18,0.0,-3.0,-1.0,-1.0,-1.0,-1.0,-1.0,0.0
1.695161325831465e+18,0.0,-1.0,1.0,0.0,-1.0,-1.0,-1.0,-1.0
1.6951613258324636e+18,1.0,-1.0,-1.0,-1.0,-1.0,-1.0,-2.0,-1.0
1.695161325833463e+18,-1.0,-1.0,-2.0,-1.0,-2.0,0.0,-2.0,-1.0
1.695161325833463e+18,-2.0,-1.0,-1.0,-2.0,0.0,-1.0,0.0,1.0
1.6951613258354624e+18,0.0,1.0,-2.0,-3.0,-2.0,-1.0,-2.0,-2.0
1.6951613258364613e+18,0.0,1.0,0.0,0.0,0.0,0.0,0.0,-1.0
1.6951613258364613e+18,0.0,-2.0,-2.0,-1.0,0.0,0.0,-1.0,0.0
1.6951613258374615e+18,-1.0,2.0,-3.0,-1.0,-2.0,1.0,-2.0,0.0
1.6951613258744397e+18,-1.0,0.0,-2.0,1.0,0.0,1.0,-2.0,-1.0
1.6951613258744397e+18,0.0,-2.0,-2.0,1.0,-2.0,-2.0,2.0,0.0
1.6951613258744397e+18,-1.0,0.0,-1.0,-1.0,-3.0,-3.0,-1.0,-1.0
1.6951613258744397e+18,-2.0,-2.0,-2.0,-1.0,-1.0,0.0,-1.0,-2.0
1.6951613258764365e+18,-1.0,-8.0,5.0,1.0,0.0,1.0,0.0,0.0
1.6951613258764365e+18,-1.0,1.0,0.0,-1.0,-1.0,0.0,0.0,0.0
1.6951613258934275e+18,-2.0,1.0,0.0,-2.0,0.0,0.0,0.0,-1.0
1.6951613258934275e+18,-1.0,-2.0,0.0,-2.0,-2.0,-2.0,0.0,-1.0
1.6951613258964257e+18,1.0,2.0,-4.0,1.0,-3.0,-1.0,0.0,0.0
1.6951613258964257e+18,-2.0,-3.0,3.0,1.0,1.0,1.0,-2.0,-3.0
1.695161325897425e+18,0.0,-2.0,-1.0,1.0,-2.0,1.0,0.0,0.0
1.695161325897425e+18,0.0,0.0,-1.0,-2.0,-1.0,-2.0,-1.0,-3.0
1.695161325916425e+18,0.0,-1.0,-2.0,-4.0,1.0,-1.0,-2.0,-1.0
1.6951613259174144e+18,0.0,-1.0,-2.0,-2.0,-1.0,0.0,-2.0,0.0
1.6951613259244086e+18,-2.0,0.0,-2.0,0.0,1.0,-2.0,0.0,1.0
1.6951613259244086e+18,0.0,-2.0,-2.0,-1.0,0.0,1.0,3.0,1.0
1.6951613259334036e+18,-1.0,2.0,-1.0,1.0,1.0,0.0,2.0,1.0
1.6951613259334036e+18,1.0,1.0,3.0,1.0,1.0,1.0,0.0,0.0
1.6951613259344067e+18,2.0,0.0,3.0,0.0,0.0,0.0,0.0,-1.0
1.6951613259344067e+18,1.0,2.0,1.0,2.0,-1.0,-1.0,0.0,1.0
1.6951613259614103e+18,-1.0,-2.0,0.0,1.0,1.0,1.0,1.0,0.0
1.6951613259623895e+18,-1.0,0.0,0.0,-1.0,-1.0,-1.0,0.0,-2.0
1.6951613259693834e+18,-1.0,1.0,0.0,-1.0,-1.0,0.0,0.0,-1.0
1.6951613259703834e+18,-1.0,0.0,0.0,1.0,-1.0,-1.0,0.0,-1.0
1.6951613259853737e+18,0.0,1.0,-1.0,-1.0,-2.0,-2.0,-1.0,-1.0
1.6951613259853737e+18,0.0,1.0,-2.0,-2.0,-1.0,0.0,0.0,1.0
1.6951613259853737e+18,-1.0,-3.0,0.0,0.0,0.0,0.0,-1.0,0.0
1.6951613259863764e+18,-1.0,-1.0,1.0,-1.0,0.0,1.0,0.0,0.0
1.6951613260083612e+18,-2.0,0.0,0.0,-1.0,0.0,0.0,-1.0,0.0
1.6951613260083612e+18,0.0,-1.0,-1.0,-1.0,-1.0,-1.0,-1.0,0.0
1.6951613260093606e+18,0.0,-1.0,1.0,-1.0,-1.0,-1.0,-1.0,-1.0
1.6951613260093606e+18,0.0,2.0,-1.0,1.0,0.0,-1.0,-1.0,-2.0
1.6951613260153567e+18,-1.0,-1.0,-1.0,-2.0,-2.0,0.0,-1.0,-1.0
1.6951613260153567e+18,0.0,1.0,-1.0,-1.0,-2.0,1.0,0.0,0.0
1.6951613260163566e+18,-2.0,-1.0,-2.0,-1.0,-1.0,0.0,-1.0,0.0
1.6951613260163566e+18,-2.0,-1.0,-1.0,-1.0,1.0,0.0,-1.0,1.0
1.6951613260373473e+18,0.0,-1.0,1.0,-1.0,-1.0,-1.0,-1.0,2.0
1.6951613260383447e+18,-3.0,-2.0,-1.0,1.0,0.0,-3.0,0.0,-1.0
1.6951613260383447e+18,1.0,-1.0,0.0,-1.0,-2.0,-1.0,-1.0,0.0
1.6951613260383447e+18,-1.0,0.0,0.0,-2.0,1.0,0.0,-1.0,-2.0
1.6951613260603323e+18,0.0,-1.0,-2.0,-2.0,-1.0,0.0,0.0,-1.0
1.695161326065333e+18,0.0,0.0,0.0,-1.0,-1.0,-1.0,0.0,0.0
1.695161326065333e+18,-1.0,1.0,-1.0,1.0,-2.0,-1.0,-1.0,-1.0
1.6951613260663355e+18,-1.0,-1.0,-2.0,0.0,-2.0,-1.0,-1.0,0.0
1.6951613260753219e+18,-2.0,-3.0,0.0,-1.0,1.0,-1.0,-3.0,-1.0
1.6951613260753219e+18,1.0,-1.0,-2.0,-3.0,-2.0,0.0,-1.0,-1.0
1.6951613260763246e+18,2.0,0.0,-1.0,-2.0,0.0,0.0,0.0,-1.0
1.6951613260763246e+18,1.0,0.0,1.0,7.0,-2.0,-1.0,-1.0,1.0
1.6951613260973125e+18,0.0,0.0,-1.0,-2.0,0.0,-1.0,1.0,-2.0
1.6951613260973125e+18,-2.0,-1.0,-3.0,2.0,-2.0,0.0,-1.0,-1.0
1.695161326098309e+18,-1.0,-2.0,-2.0,-1.0,-1.0,0.0,-1.0,1.0
1.695161326098309e+18,-1.0,-3.0,-2.0,-3.0,0.0,0.0,1.0,0.0
1.695161326121297e+18,-2.0,-1.0,0.0,0.0,-1.0,-3.0,-2.0,1.0
1.695161326121297e+18,0.0,1.0,-1.0,-2.0,-1.0,-1.0,-1.0,-2.0
1.6951613261223186e+18,-1.0,-1.0,-1.0,-3.0,-1.0,1.0,1.0,-1.0
1.6951613261223186e+18,1.0,-1.0,-1.0,-4.0,-4.0,-3.0,-2.0,-2.0
1.6951613261352878e+18,0.0,1.0,-1.0,4.0,2.0,1.0,1.0,0.0
1.6951613261352878e+18,-2.0,-1.0,-2.0,1.0,3.0,2.0,3.0,2.0
1.695161326136295e+18,-1.0,-1.0,-4.0,-1.0,-1.0,-2.0,-4.0,-3.0
1.695161326136295e+18,-1.0,-1.0,3.0,-4.0,-6.0,-5.0,-3.0,-3.0
1.6951613261572785e+18,0.0,0.0,1.0,-6.0,-5.0,-2.0,1.0,0.0
1.6951613261582822e+18,-2.0,-1.0,-2.0,-1.0,-1.0,-2.0,-1.0,-2.0
1.6951613261582822e+18,1.0,-2.0,-6.0,0.0,-1.0,1.0,4.0,2.0
1.6951613261592748e+18,2.0,3.0,1.0,2.0,-4.0,-1.0,-4.0,-1.0
1.695161326184262e+18,-4.0,-4.0,1.0,-7.0,0.0,1.0,-1.0,-4.0
1.695161326184262e+18,-1.0,0.0,-2.0,8.0,5.0,5.0,1.0,0.0
1.695161326184262e+18,2.0,5.0,0.0,-3.0,-12.0,-2.0,0.0,-1.0
1.69516132618526e+18,-2.0,-1.0,-2.0,-8.0,0.0,-2.0,-2.0,-1.0
1.6951613262022723e+18,0.0,-7.0,-3.0,-4.0,-13.0,-5.0,-1.0,0.0
1.695161326203249e+18,1.0,2.0,1.0,-4.0,2.0,-2.0,0.0,-1.0
1.695161326203249e+18,-5.0,-4.0,2.0,5.0,6.0,0.0,-4.0,-2.0
1.695161326203249e+18,1.0,12.0,3.0,0.0,-2.0,5.0,4.0,9.0
1.6951613262172424e+18,0.0,-1.0,-2.0,-1.0,-2.0,0.0,0.0,-7.0
1.6951613262182405e+18,-5.0,-20.0,-4.0,-4.0,-3.0,-2.0,-2.0,2.0
1.6951613262182405e+18,-2.0,-9.0,4.0,-2.0,-4.0,-3.0,-8.0,-1.0
1.6951613262182405e+18,-1.0,-5.0,-12.0,1.0,7.0,-1.0,7.0,9.0
1.6951613262402268e+18,2.0,9.0,3.0,3.0,5.0,1.0,-12.0,-13.0
1.6951613262402268e+18,5.0,12.0,3.0,-2.0,-11.0,-5.0,3.0,11.0
1.6951613262402268e+18,-10.0,-14.0,-4.0,1.0,6.0,1.0,-3.0,-26.0
1.6951613262412265e+18,2.0,1.0,1.0,-15.0,-10.0,-1.0,4.0,35.0
1.6951613262622172e+18,6.0,-4.0,1.0,13.0,-1.0,1.0,23.0,10.0
1.6951613262622172e+18,-9.0,2.0,4.0,-1.0,8.0,0.0,-32.0,-29.0
1.695161326263214e+18,-2.0,11.0,2.0,9.0,15.0,3.0,10.0,17.0
1.695161326263214e+18,-4.0,-7.0,-3.0,-5.0,-7.0,-6.0,-41.0,-47.0
1.6951613262772055e+18,1.0,-3.0,-5.0,4.0,-4.0,-1.0,18.0,39.0
1.6951613262782057e+18,5.0,7.0,6.0,-18.0,-9.0,-2.0,12.0,-16.0
1.6951613262782057e+18,4.0,-2.0,-2.0,2.0,1.0,-1.0,-4.0,19.0
1.6951613262782057e+18,-1.0,-2.0,-6.0,-1.0,2.0,2.0,12.0,-2.0
1.6951613263001938e+18,-11.0,-5.0,-2.0,-4.0,-3.0,-1.0,-13.0,-33.0
1.6951613263001938e+18,1.0,1.0,3.0,1.0,0.0,1.0,6.0,9.0
1.6951613263011927e+18,-1.0,0.0,-7.0,2.0,0.0,2.0,8.0,-3.0
1.6951613263011927e+18,-1.0,-4.0,4.0,14.0,5.0,1.0,9.0,5.0
1.695161326318183e+18,-1.0,3.0,-1.0,-17.0,-7.0,-4.0,-21.0,-9.0
1.695161326318183e+18,-4.0,-4.0,0.0,6.0,2.0,-2.0,-5.0,6.0
1.695161326318183e+18,5.0,5.0,2.0,-4.0,0.0,1.0,6.0,4.0
1.695161326318183e+18,0.0,-1.0,-4.0,0.0,3.0,-2.0,-13.0,-7.0
1.6951613263651566e+18,-1.0,3.0,0.0,0.0,-1.0,-4.0,0.0,-8.0
1.6951613263651566e+18,-2.0,-7.0,-4.0,8.0,-1.0,-2.0,10.0,41.0
1.6951613263661563e+18,-3.0,-6.0,-2.0,-17.0,-10.0,-6.0,-20.0,-43.0
1.6951613263661563e+18,0.0,0.0,0.0,6.0,0.0,3.0,8.0,-3.0
1.6951613263661563e+18,-5.0,4.0,-1.0,7.0,13.0,2.0,1.0,0.0
1.6951613263661563e+18,3.0,7.0,0.0,6.0,5.0,4.0,-1.0,7.0
1.6951613264041344e+18,1.0,-10.0,-1.0,1.0,-1.0,-6.0,4.0,7.0
1.6951613264041344e+18,-4.0,-2.0,-1.0,-9.0,-4.0,3.0,13.0,12.0
1.6951613264041344e+18,-5.0,0.0,2.0,2.0,-4.0,-1.0,-6.0,-14.0
1.6951613264041344e+18,8.0,-2.0,-10.0,1.0,-1.0,0.0,8.0,1.0
1.6951613264041344e+18,-3.0,-6.0,13.0,0.0,-14.0,-9.0,-10.0,1.0
1.6951613264051338e+18,10.0,7.0,-15.0,-11.0,8.0,-1.0,-13.0,-11.0
1.6951613264051338e+18,-8.0,1.0,-3.0,-1.0,-1.0,1.0,2.0,12.0
1.6951613264051338e+18,-3.0,1.0,-2.0,-2.0,-3.0,-1.0,-5.0,-17.0
1.6951613264051338e+18,-3.0,8.0,4.0,8.0,6.0,4.0,-2.0,0.0
1.6951613264061325e+18,-6.0,-13.0,1.0,-8.0,-5.0,-3.0,5.0,2.0
1.69516132641113e+18,2.0,-4.0,1.0,7.0,1.0,-2.0,0.0,-2.0
1.6951613264121298e+18,0.0,2.0,-8.0,-8.0,-5.0,-7.0,-12.0,-7.0
1.6951613264361157e+18,-5.0,-5.0,-1.0,-4.0,-11.0,3.0,25.0,-11.0
1.6951613264361157e+18,-2.0,16.0,7.0,0.0,-3.0,-3.0,-1.0,-14.0
1.6951613264501076e+18,-3.0,-11.0,-2.0,-5.0,2.0,-1.0,-1.0,19.0
1.6951613264501076e+18,-1.0,-10.0,-3.0,9.0,10.0,1.0,4.0,-2.0
1.6951613264511063e+18,0.0,1.0,-7.0,-2.0,-1.0,3.0,-6.0,1.0
1.6951613264511063e+18,1.0,-4.0,2.0,4.0,-2.0,-3.0,-5.0,14.0
1.6951613264571023e+18,3.0,2.0,0.0,-5.0,1.0,2.0,12.0,-4.0
1.6951613264581025e+18,-12.0,3.0,6.0,-2.0,-3.0,3.0,-1.0,-11.0
1.6951613264581025e+18,2.0,-9.0,-5.0,0.0,-2.0,-9.0,0.0,-15.0
1.6951613264581025e+18,-6.0,-8.0,2.0,-6.0,-1.0,4.0,-7.0,4.0
1.695161326487088e+18,0.0,13.0,-7.0,0.0,-1.0,0.0,-10.0,-6.0
1.695161326487088e+18,6.0,-8.0,3.0,-3.0,-5.0,-4.0,3.0,10.0
1.6951613264880876e+18,-5.0,7.0,-4.0,-2.0,3.0,-2.0,-2.0,1.0
1.6951613264890854e+18,2.0,-9.0,1.0,9.0,1.0,-1.0,0.0,-7.0
1.6951613265020785e+18,5.0,6.0,1.0,-17.0,-12.0,1.0,2.0,5.0
1.6951613265020785e+18,-10.0,-16.0,-6.0,-5.0,-3.0,-4.0,14.0,-39.0
1.6951613265030797e+18,5.0,22.0,8.0,1.0,5.0,-1.0,-19.0,20.0
1.6951613265030797e+18,2.0,-17.0,16.0,12.0,0.0,-6.0,-13.0,41.0
1.6951613265210683e+18,9.0,-13.0,-1.0,6.0,0.0,-1.0,6.0,8.0
1.6951613265210683e+18,-9.0,9.0,2.0,-1.0,1.0,5.0,-1.0,-10.0
1.6951613265220672e+18,-4.0,-20.0,-13.0,-15.0,-14.0,-6.0,1.0,-15.0
1.6951613265220672e+18,1.0,13.0,-1.0,3.0,6.0,3.0,10.0,-12.0
1.6951613265400553e+18,-3.0,4.0,-2.0,-5.0,0.0,-2.0,-9.0,4.0
1.6951613265400553e+18,-1.0,-13.0,-4.0,6.0,-2.0,-2.0,-4.0,-2.0
1.695161326541055e+18,9.0,12.0,28.0,-3.0,-3.0,-3.0,-8.0,-3.0
1.695161326541055e+18,-21.0,-3.0,-36.0,1.0,4.0,4.0,7.0,-13.0
1.6951613265536425e+18,-4.0,-13.0,22.0,-6.0,0.0,5.0,10.0,2.0
1.6951613265536425e+18,7.0,9.0,-34.0,-6.0,-6.0,-11.0,-19.0,15.0
1.695161326578586e+18,4.0,-2.0,-12.0,8.0,7.0,3.0,-7.0,6.0
1.695161326578586e+18,12.0,0.0,16.0,-12.0,-8.0,-3.0,5.0,4.0
1.695161326578586e+18,3.0,15.0,7.0,6.0,1.0,-2.0,0.0,-33.0
1.695161326578586e+18,1.0,-14.0,19.0,-3.0,-1.0,1.0,3.0,4.0
1.6951613265805847e+18,-14.0,-6.0,-6.0,5.0,3.0,4.0,4.0,-7.0
1.6951613265805847e+18,14.0,-1.0,-15.0,-1.0,1.0,4.0,11.0,9.0
1.6951613266156567e+18,1.0,-5.0,15.0,14.0,13.0,6.0,-8.0,-13.0
1.6951613266156567e+18,-13.0,12.0,0.0,-7.0,-6.0,-4.0,4.0,13.0
1.6951613266175555e+18,10.0,1.0,-13.0,-1.0,1.0,-4.0,-14.0,5.0
1.6951613266175555e+18,11.0,4.0,20.0,6.0,0.0,0.0,3.0,-11.0
1.6951613266175555e+18,-11.0,-8.0,-32.0,-7.0,-9.0,-8.0,15.0,-2.0
1.6951613266185572e+18,2.0,3.0,12.0,-4.0,0.0,-1.0,-24.0,11.0
1.6951613266296159e+18,-6.0,-6.0,2.0,-5.0,-5.0,0.0,9.0,8.0
1.6951613266306156e+18,-3.0,9.0,-18.0,9.0,19.0,6.0,2.0,-11.0
1.6951613266376113e+18,7.0,0.0,17.0,5.0,1.0,-3.0,-3.0,5.0
1.6951613266386122e+18,5.0,-1.0,-11.0,-2.0,-1.0,2.0,3.0,-5.0
1.695161326639611e+18,-14.0,5.0,10.0,-1.0,-4.0,-3.0,-10.0,-11.0
1.6951613266406103e+18,3.0,-6.0,3.0,-5.0,-8.0,-5.0,-5.0,8.0
1.6951613266676024e+18,-3.0,-1.0,-13.0,3.0,5.0,2.0,-1.0,-3.0
1.6951613266676024e+18,10.0,0.0,16.0,6.0,4.0,3.0,11.0,-10.0
1.6951613266765903e+18,1.0,6.0,-6.0,-7.0,-7.0,-5.0,-7.0,5.0
1.6951613266775898e+18,-8.0,-8.0,-1.0,0.0,7.0,-1.0,-1.0,1.0
1.695161326678592e+18,-10.0,-6.0,-13.0,-4.0,-8.0,-5.0,-12.0,3.0
1.695161326678592e+18,0.0,3.0,-4.0,-9.0,-7.0,-2.0,5.0,-3.0
1.6951613266905833e+18,3.0,4.0,2.0,12.0,0.0,-2.0,3.0,-3.0
1.695161326691581e+18,-9.0,0.0,-1.0,-3.0,-6.0,1.0,-1.0,-17.0
1.6951613266975764e+18,10.0,-5.0,-9.0,-9.0,-3.0,1.0,-2.0,35.0
1.695161326698584e+18,-4.0,8.0,12.0,31.0,5.0,5.0,7.0,-18.0
1.6951613267025743e+18,8.0,-1.0,-2.0,-10.0,6.0,0.0,5.0,24.0
1.6951613267035738e+18,-1.0,-2.0,5.0,2.0,-5.0,-10.0,-12.0,-7.0
1.6951613267355564e+18,-8.0,0.0,3.0,5.0,2.0,5.0,0.0,-2.0
1.6951613267415537e+18,7.0,-6.0,2.0,-5.0,-1.0,0.0,5.0,1.0
1.6951613267415537e+18,4.0,-7.0,-11.0,-2.0,-1.0,0.0,5.0,24.0
1.6951613267415537e+18,-5.0,5.0,-3.0,-7.0,-3.0,2.0,-2.0,-16.0
1.6951613267425523e+18,11.0,-4.0,-7.0,-11.0,-5.0,-4.0,-5.0,6.0
1.6951613267425523e+18,-7.0,3.0,0.0,-8.0,0.0,-4.0,-11.0,3.0
1.6951613267445537e+18,6.0,2.0,21.0,11.0,6.0,4.0,5.0,5.0
1.6951613267455596e+18,17.0,15.0,-16.0,-5.0,-4.0,10.0,25.0,25.0
1.6951613267585423e+18,0.0,-9.0,10.0,0.0,-2.0,-4.0,-5.0,-22.0
1.695161326759542e+18,5.0,-2.0,-22.0,8.0,6.0,-2.0,-5.0,26.0
1.6951613267645402e+18,-12.0,-12.0,1.0,-22.0,-7.0,4.0,3.0,-27.0
1.6951613267645402e+18,-10.0,12.0,15.0,10.0,-5.0,-6.0,-7.0,-9.0
1.695161326780531e+18,0.0,-5.0,11.0,17.0,9.0,7.0,9.0,5.0
1.695161326781533e+18,4.0,-2.0,-8.0,-9.0,-9.0,-6.0,-8.0,-11.0
1.695161326782529e+18,-3.0,3.0,21.0,-2.0,2.0,-1.0,2.0,-4.0
1.695161326782529e+18,-14.0,-13.0,-58.0,-10.0,-5.0,-5.0,-2.0,-6.0
1.6951613267945219e+18,0.0,7.0,-11.0,-5.0,-5.0,-4.0,-2.0,10.0
1.6951613267945219e+18,4.0,-10.0,-12.0,3.0,18.0,10.0,-1.0,20.0
1.695161326818514e+18,-10.0,12.0,45.0,7.0,-9.0,-8.0,-12.0,-41.0
1.6951613268195077e+18,6.0,-7.0,15.0,3.0,0.0,-2.0,-4.0,-4.0
1.6951613268195077e+18,-18.0,18.0,3.0,-10.0,-12.0,-8.0,-13.0,-1.0
1.695161326820507e+18,-11.0,-9.0,-39.0,-11.0,-5.0,-1.0,-5.0,-16.0
1.6951613268215076e+18,3.0,-4.0,-8.0,1.0,3.0,3.0,5.0,7.0
1.695161326822514e+18,-15.0,-13.0,14.0,14.0,2.0,-5.0,-2.0,-18.0
1.6951613268464906e+18,7.0,3.0,9.0,-14.0,-2.0,-2.0,-2.0,-2.0
1.6951613268474908e+18,-5.0,13.0,8.0,-1.0,-4.0,-2.0,0.0,4.0
1.6951613268624858e+18,-11.0,-9.0,-23.0,-6.0,1.0,6.0,11.0,6.0
1.6951613268635072e+18,16.0,17.0,4.0,-7.0,-4.0,-1.0,11.0,2.0
1.6951613268635072e+18,11.0,-3.0,37.0,11.0,9.0,9.0,-8.0,38.0
1.6951613268635072e+18,-18.0,8.0,-23.0,-5.0,-6.0,-4.0,2.0,-45.0
1.6951613268635072e+18,13.0,-16.0,11.0,0.0,0.0,-1.0,-4.0,10.0
1.6951613268644884e+18,-13.0,-4.0,6.0,-2.0,0.0,0.0,-4.0,3.0
1.695161326877499e+18,1.0,-3.0,7.0,7.0,8.0,3.0,-2.0,-17.0
1.6951613268784755e+18,17.0,8.0,-5.0,-10.0,-7.0,-3.0,-1.0,-10.0
1.6951613268794726e+18,-29.0,9.0,10.0,8.0,6.0,-1.0,-7.0,6.0
1.6951613268794726e+18,-5.0,-15.0,-72.0,-28.0,-12.0,-8.0,-2.0,8.0
1.6951613269084562e+18,-4.0,21.0,13.0,22.0,10.0,7.0,14.0,-3.0
1.6951613269084562e+18,2.0,-17.0,21.0,-10.0,-8.0,-6.0,-4.0,-1.0
1.6951613269094546e+18,5.0,0.0,-50.0,2.0,1.0,-1.0,-3.0,-17.0
1.6951613269094546e+18,12.0,3.0,25.0,3.0,-1.0,-9.0,-7.0,4.0
1.6951613269314424e+18,-13.0,-21.0,-6.0,-11.0,4.0,6.0,-1.0,-7.0
1.6951613269314424e+18,14.0,27.0,-14.0,-5.0,1.0,-1.0,5.0,24.0
1.695161326932443e+18,-7.0,-34.0,44.0,3.0,1.0,-2.0,-2.0,-7.0
1.695161326932443e+18,-20.0,-7.0,8.0,-5.0,-3.0,5.0,5.0,-14.0
1.6951613269374423e+18,28.0,16.0,-57.0,-16.0,-12.0,-16.0,-2.0,-1.0
1.6951613269374423e+18,-5.0,5.0,19.0,12.0,6.0,7.0,-5.0,-10.0
1.6951613269514304e+18,17.0,-7.0,-13.0,-4.0,-3.0,1.0,-13.0,28.0
1.6951613269514304e+18,-15.0,-7.0,20.0,5.0,0.0,0.0,1.0,7.0
1.695161326959426e+18,-22.0,-16.0,2.0,6.0,1.0,3.0,23.0,-13.0
1.695161326959426e+18,8.0,19.0,4.0,-8.0,-5.0,-1.0,4.0,-16.0
1.6951613269674258e+18,-6.0,-16.0,-14.0,3.0,3.0,-2.0,6.0,35.0
1.695161326968426e+18,7.0,-2.0,-1.0,6.0,4.0,-1.0,-17.0,-25.0
1.6951613269824374e+18,0.0,9.0,-10.0,-8.0,-3.0,-4.0,-9.0,-11.0
1.6951613269834135e+18,-4.0,-22.0,-6.0,2.0,0.0,1.0,16.0,18.0
1.6951613269844124e+18,-1.0,15.0,11.0,-7.0,0.0,5.0,5.0,-24.0
1.6951613269844124e+18,9.0,-3.0,1.0,19.0,3.0,-3.0,-8.0,9.0
1.6951613270054e+18,-4.0,12.0,-6.0,-12.0,-8.0,-4.0,-6.0,-3.0
1.6951613270054e+18,-6.0,-10.0,19.0,18.0,9.0,-2.0,-8.0,-8.0
1.6951613270063997e+18,6.0,20.0,-9.0,6.0,4.0,2.0,5.0,5.0
1.6951613270073987e+18,2.0,-4.0,-17.0,-10.0,4.0,3.0,-2.0,5.0
1.6951613270203912e+18,4.0,-16.0,5.0,12.0,1.0,1.0,0.0,-5.0
1.6951613270203912e+18,-12.0,-9.0,-3.0,-18.0,-12.0,-2.0,0.0,2.0
1.695161327021391e+18,9.0,1.0,-21.0,-6.0,-4.0,-5.0,8.0,1.0
1.6951613270223903e+18,0.0,17.0,28.0,-3.0,-2.0,-4.0,-21.0,8.0
1.695161327033387e+18,-4.0,-1.0,-1.0,11.0,5.0,0.0,-6.0,-16.0
1.6951613270343862e+18,2.0,-4.0,-1.0,-6.0,0.0,1.0,-1.0,-10.0
1.695161327042379e+18,9.0,-7.0,8.0,-2.0,-8.0,-4.0,8.0,15.0
1.6951613270433859e+18,7.0,-3.0,-25.0,-4.0,0.0,1.0,3.0,-24.0
1.6951613270643686e+18,-18.0,-12.0,21.0,2.0,-5.0,-5.0,-12.0,12.0
1.6951613270643686e+18,2.0,-11.0,64.0,14.0,7.0,4.0,6.0,12.0
1.6951613270653906e+18,-4.0,6.0,-20.0,5.0,4.0,-1.0,-3.0,-25.0
1.6951613270653906e+18,5.0,3.0,26.0,-9.0,-3.0,-2.0,-4.0,5.0
1.6951613270793628e+18,9.0,-10.0,-24.0,-1.0,2.0,1.0,8.0,1.0
1.6951613270793628e+18,-8.0,1.0,-10.0,0.0,-6.0,-6.0,-5.0,7.0
1.695161327096348e+18,2.0,7.0,-24.0,-7.0,-1.0,4.0,-6.0,-7.0
1.695161327096348e+18,-1.0,-4.0,46.0,2.0,0.0,0.0,3.0,19.0
1.695161327096348e+18,3.0,8.0,-12.0,-1.0,17.0,9.0,19.0,-9.0
1.695161327097348e+18,-3.0,3.0,-4.0,7.0,-3.0,0.0,-8.0,12.0
1.6951613271023447e+18,3.0,-8.0,-7.0,7.0,11.0,-3.0,-9.0,-6.0
1.6951613271033687e+18,-7.0,-2.0,-19.0,-16.0,-13.0,2.0,3.0,-10.0
1.6951613271163415e+18,-4.0,4.0,16.0,13.0,2.0,-4.0,-2.0,-6.0
1.6951613271173386e+18,7.0,-17.0,-60.0,-24.0,0.0,-4.0,-4.0,12.0
1.6951613271333276e+18,-2.0,11.0,-38.0,-4.0,-28.0,-13.0,-2.0,-3.0
1.6951613271333276e+18,-2.0,8.0,59.0,27.0,38.0,26.0,12.0,5.0
1.6951613271473226e+18,-3.0,-13.0,-31.0,-9.0,-26.0,-17.0,-12.0,-2.0
1.6951613271483177e+18,-1.0,6.0,47.0,27.0,43.0,14.0,4.0,-13.0
1.695161327149317e+18,-2.0,-9.0,-30.0,-32.0,-6.0,3.0,-1.0,12.0
1.695161327149317e+18,-2.0,2.0,-10.0,-18.0,-36.0,-16.0,0.0,-5.0
1.695161327153314e+18,5.0,3.0,4.0,13.0,27.0,17.0,5.0,0.0
1.6951613271543396e+18,-6.0,2.0,-3.0,1.0,-6.0,12.0,1.0,-3.0
1.6951613271703055e+18,1.0,5.0,18.0,15.0,10.0,-15.0,-5.0,-3.0
1.6951613271703055e+18,-4.0,-6.0,14.0,1.0,-14.0,1.0,1.0,-3.0
1.695161327184297e+18,-1.0,5.0,0.0,-19.0,-29.0,-22.0,-9.0,6.0
1.695161327184297e+18,1.0,-3.0,1.0,12.0,22.0,6.0,4.0,-3.0
1.6951613272103078e+18,1.0,8.0,9.0,-6.0,-6.0,3.0,2.0,0.0
1.6951613272103078e+18,-2.0,-8.0,-22.0,13.0,10.0,0.0,2.0,1.0
1.6951613272112817e+18,2.0,-4.0,0.0,-9.0,-12.0,-3.0,-3.0,-4.0
1.6951613272112817e+18,3.0,9.0,2.0,-9.0,-9.0,-5.0,1.0,3.0
1.6951613272142794e+18,-3.0,-6.0,11.0,0.0,2.0,4.0,0.0,-7.0
1.6951613272142794e+18,-1.0,-2.0,-17.0,-5.0,-5.0,-8.0,-2.0,-2.0
1.6951613272152796e+18,-4.0,-3.0,6.0,-5.0,-6.0,-1.0,-5.0,-2.0
1.6951613272152796e+18,4.0,10.0,-5.0,-7.0,-7.0,-1.0,2.0,4.0
1.6951613272302717e+18,-4.0,-2.0,11.0,13.0,5.0,4.0,0.0,-5.0
1.6951613272302717e+18,2.0,3.0,-7.0,0.0,3.0,-2.0,1.0,-2.0
1.695161327237292e+18,0.0,-2.0,0.0,-2.0,7.0,5.0,1.0,4.0
1.695161327238267e+18,-4.0,-4.0,-4.0,-3.0,-15.0,-8.0,-5.0,-2.0
1.6951613272392658e+18,3.0,3.0,1.0,1.0,4.0,3.0,6.0,0.0
1.6951613272392658e+18,-3.0,1.0,-8.0,2.0,5.0,2.0,0.0,-1.0
1.6951613272602542e+18,-2.0,2.0,2.0,-4.0,-1.0,-1.0,-3.0,0.0
1.6951613272602542e+18,-3.0,-5.0,-1.0,1.0,-7.0,-6.0,-2.0,-1.0
1.6951613272612585e+18,0.0,-1.0,5.0,-1.0,-1.0,1.0,-1.0,-2.0
1.6951613272622556e+18,0.0,-1.0,-6.0,-3.0,6.0,1.0,1.0,1.0
1.6951613272772503e+18,0.0,-1.0,-4.0,-1.0,3.0,0.0,-1.0,0.0
1.6951613272782487e+18,-1.0,0.0,-2.0,-4.0,-7.0,-4.0,-1.0,-2.0
1.695161327283245e+18,-5.0,-3.0,3.0,-2.0,0.0,0.0,0.0,-3.0
1.695161327283245e+18,2.0,1.0,-7.0,-2.0,-2.0,-2.0,-2.0,2.0
1.6951613272972332e+18,-1.0,-4.0,-2.0,5.0,2.0,2.0,0.0,-2.0
1.6951613272972332e+18,-4.0,-8.0,0.0,-1.0,-5.0,-3.0,-4.0,-2.0
1.69516132732122e+18,1.0,0.0,3.0,0.0,-1.0,0.0,1.0,0.0
1.69516132732122e+18,2.0,0.0,-1.0,2.0,1.0,0.0,0.0,0.0
1.69516132732122e+18,1.0,2.0,0.0,-3.0,-1.0,0.0,0.0,2.0
1.6951613273222213e+18,0.0,-1.0,3.0,-2.0,-2.0,-1.0,1.0,1.0
1.695161327323218e+18,-2.0,0.0,4.0,10.0,-2.0,-1.0,-2.0,-2.0
1.695161327323218e+18,-1.0,-3.0,-16.0,-22.0,-4.0,-3.0,-1.0,-2.0
1.6951613273342116e+18,-1.0,1.0,-3.0,-6.0,1.0,0.0,1.0,1.0
1.6951613273342116e+18,-5.0,-2.0,1.0,11.0,-3.0,-4.0,-1.0,-1.0
1.6951613273532224e+18,2.0,5.0,1.0,-2.0,-5.0,-2.0,-2.0,0.0
1.6951613273532224e+18,-4.0,-6.0,3.0,2.0,-2.0,-3.0,-2.0,-2.0
1.6951613273571988e+18,1.0,-1.0,-5.0,-13.0,-1.0,-2.0,-2.0,0.0
1.6951613273571988e+18,-2.0,-4.0,-5.0,-7.0,-4.0,-1.0,-2.0,-1.0
1.6951613273711898e+18,1.0,3.0,1.0,11.0,6.0,5.0,2.0,0.0
1.6951613273711898e+18,-1.0,-4.0,3.0,2.0,4.0,1.0,-1.0,-1.0
1.6951613273881828e+18,-1.0,0.0,-5.0,-18.0,-3.0,-1.0,-4.0,-1.0
1.6951613273881828e+18,1.0,1.0,11.0,13.0,-3.0,-2.0,-1.0,-1.0
1.6951613273891832e+18,-2.0,0.0,3.0,3.0,-2.0,-2.0,-5.0,-2.0
1.6951613273891832e+18,3.0,5.0,0.0,2.0,1.0,-14.0,1.0,2.0
1.6951613273941778e+18,0.0,2.0,-5.0,-12.0,-1.0,22.0,1.0,1.0
1.6951613273941778e+18,-7.0,-16.0,-16.0,-10.0,-16.0,-15.0,-12.0,-6.0
1.695161327403173e+18,4.0,4.0,8.0,-17.0,4.0,-3.0,-26.0,-6.0
1.695161327403173e+18,-1.0,-1.0,-1.0,11.0,5.0,17.0,32.0,2.0
1.6951613274491512e+18,3.0,0.0,15.0,21.0,-3.0,-12.0,-9.0,7.0
1.695161327450146e+18,0.0,7.0,6.0,3.0,0.0,5.0,5.0,-12.0
1.695161327450146e+18,-7.0,-6.0,-24.0,-11.0,-1.0,-4.0,13.0,-2.0
1.695161327451145e+18,6.0,1.0,2.0,-6.0,-4.0,-8.0,-8.0,4.0
1.695161327451145e+18,-5.0,-3.0,0.0,3.0,1.0,0.0,5.0,-4.0
1.6951613274521439e+18,-1.0,1.0,0.0,0.0,-3.0,-5.0,-13.0,-1.0
1.6951613274551416e+18,-1.0,-3.0,-2.0,-3.0,-3.0,-6.0,0.0,1.0
1.6951613274551416e+18,-3.0,-1.0,-1.0,-3.0,2.0,2.0,-4.0,0.0
1.695161327463138e+18,-2.0,0.0,-1.0,8.0,2.0,-1.0,0.0,-4.0
1.695161327463138e+18,3.0,1.0,-2.0,-4.0,0.0,-1.0,0.0,4.0
1.6951613274641367e+18,-2.0,-2.0,-2.0,-1.0,1.0,6.0,5.0,0.0
1.6951613274641367e+18,-1.0,-1.0,-2.0,1.0,-2.0,2.0,-2.0,-1.0
1.695161327488128e+18,-2.0,-3.0,3.0,3.0,0.0,-5.0,-7.0,-5.0
1.6951613274891233e+18,-1.0,-3.0,-5.0,-9.0,2.0,0.0,5.0,1.0
1.6951613274891233e+18,2.0,1.0,0.0,-3.0,-1.0,7.0,6.0,5.0
1.6951613274891233e+18,-2.0,-1.0,0.0,6.0,-7.0,-7.0,-12.0,-6.0
1.6951613275081126e+18,0.0,0.0,-4.0,-3.0,2.0,2.0,1.0,-2.0
1.6951613275081126e+18,3.0,1.0,-2.0,-4.0,5.0,6.0,3.0,3.0
1.695161327509111e+18,-1.0,-1.0,2.0,0.0,-3.0,-3.0,1.0,-2.0
1.6951613275101153e+18,-1.0,-2.0,-2.0,-2.0,-5.0,-1.0,-6.0,-2.0
1.6951613275231037e+18,-3.0,-1.0,-1.0,1.0,2.0,3.0,2.0,-2.0
1.6951613275231037e+18,-1.0,0.0,-3.0,-1.0,1.0,0.0,2.0,1.0
1.6951613275241024e+18,-1.0,-2.0,1.0,-2.0,-2.0,-2.0,-4.0,-1.0
1.6951613275241024e+18,-3.0,-2.0,-2.0,-2.0,-1.0,-3.0,-5.0,-3.0
1.6951613275370954e+18,0.0,-3.0,-1.0,0.0,-11.0,-14.0,-1.0,1.0
1.6951613275370954e+18,0.0,1.0,0.0,3.0,-6.0,1.0,-1.0,-1.0
1.6951613275620823e+18,1.0,-2.0,1.0,7.0,21.0,20.0,5.0,1.0
1.6951613275620823e+18,0.0,-1.0,1.0,1.0,5.0,-6.0,1.0,0.0
1.6951613275630812e+18,-1.0,-1.0,-4.0,-1.0,-4.0,5.0,0.0,-2.0
1.6951613275630812e+18,-1.0,0.0,-1.0,-3.0,-5.0,-7.0,-2.0,1.0
1.6951613275630812e+18,0.0,0.0,0.0,4.0,2.0,-4.0,3.0,0.0
1.6951613275640847e+18,-2.0,-3.0,-3.0,0.0,6.0,8.0,1.0,-1.0
1.695161327583076e+18,-2.0,-1.0,0.0,2.0,0.0,-5.0,-4.0,-1.0
1.695161327583076e+18,-1.0,-2.0,-3.0,-4.0,-4.0,-3.0,1.0,-2.0
1.6951613275840712e+18,0.0,-1.0,-1.0,-7.0,-6.0,-2.0,-3.0,-1.0
1.6951613275840712e+18,0.0,-1.0,-1.0,-4.0,-1.0,1.0,-3.0,-3.0
1.6951613275970614e+18,-1.0,-1.0,0.0,-1.0,0.0,-4.0,-1.0,-2.0
1.6951613275970614e+18,-1.0,0.0,0.0,0.0,3.0,3.0,0.0,2.0
1.695161327611052e+18,-1.0,-1.0,-1.0,-1.0,-3.0,-1.0,-1.0,-1.0
1.6951613276120527e+18,-1.0,-2.0,0.0,-2.0,-3.0,-1.0,1.0,0.0
1.6951613276280563e+18,-1.0,0.0,1.0,-2.0,1.0,3.0,0.0,-1.0
1.6951613276280563e+18,0.0,0.0,1.0,2.0,4.0,4.0,0.0,1.0
1.6951613276290493e+18,0.0,0.0,-3.0,-2.0,-3.0,-5.0,-2.0,1.0
1.6951613276290493e+18,-1.0,-1.0,-3.0,-5.0,-5.0,-1.0,0.0,-1.0
1.695161327642034e+18,-1.0,-1.0,4.0,2.0,-1.0,0.0,0.0,0.0
1.6951613276430336e+18,-1.0,-1.0,-1.0,-1.0,0.0,-1.0,-1.0,-2.0
1.695161327644033e+18,-2.0,-1.0,1.0,-1.0,-6.0,-5.0,-2.0,-1.0
1.695161327644033e+18,-1.0,-1.0,-3.0,-1.0,-2.0,1.0,-2.0,0.0
1.6951613276610235e+18,-1.0,-1.0,-3.0,-3.0,0.0,-1.0,-2.0,1.0
1.6951613276620237e+18,0.0,0.0,1.0,0.0,-1.0,-4.0,-2.0,1.0
1.6951613276710175e+18,-1.0,-1.0,-2.0,0.0,-2.0,-1.0,-1.0,-2.0
1.6951613276710175e+18,-2.0,-1.0,0.0,1.0,0.0,-4.0,-3.0,-1.0
1.6951613276870083e+18,1.0,-2.0,-1.0,-1.0,2.0,6.0,-1.0,-1.0
1.6951613276880082e+18,0.0,-1.0,0.0,-2.0,2.0,-1.0,-2.0,1.0
1.6951613276890076e+18,-1.0,-2.0,-3.0,-2.0,-2.0,-3.0,0.0,1.0
1.6951613276890076e+18,0.0,1.0,0.0,2.0,0.0,-2.0,-1.0,0.0
1.6951613277030003e+18,0.0,0.0,0.0,-1.0,-1.0,-4.0,1.0,0.0
1.695161327703999e+18,-1.0,-1.0,-1.0,-1.0,-2.0,2.0,1.0,-2.0
1.695161327704999e+18,-2.0,0.0,0.0,0.0,-1.0,-2.0,-1.0,0.0
1.695161327704999e+18,0.0,0.0,0.0,1.0,-1.0,0.0,0.0,0.0
1.6951613277159913e+18,-1.0,0.0,-1.0,2.0,-1.0,-2.0,0.0,0.0
1.6951613277169935e+18,-1.0,-1.0,-1.0,2.0,3.0,2.0,1.0,1.0
1.695161327725009e+18,0.0,-2.0,-2.0,-4.0,-6.0,-3.0,-1.0,0.0
1.695161327725009e+18,0.0,-1.0,0.0,1.0,-1.0,0.0,0.0,-2.0
1.695161327740051e+18,-1.0,0.0,-2.0,-1.0,1.0,1.0,-1.0,0.0
1.695161327740051e+18,-2.0,-2.0,-1.0,1.0,2.0,0.0,-2.0,-1.0
1.6951613277420498e+18,0.0,-1.0,-1.0,-1.0,-3.0,-2.0,0.0,0.0
1.6951613277420498e+18,1.0,0.0,0.0,-1.0,-4.0,1.0,0.0,1.0
1.695161327762119e+18,1.0,-1.0,-1.0,-4.0,2.0,2.0,0.0,-2.0
1.695161327762119e+18,0.0,1.0,0.0,-2.0,2.0,-1.0,0.0,0.0
1.6951613277641183e+18,-1.0,2.0,1.0,1.0,0.0,0.0,0.0,-1.0
1.6951613277641183e+18,0.0,-2.0,-1.0,-2.0,0.0,1.0,-1.0,-1.0
1.6951613277773468e+18,-1.0,-2.0,0.0,2.0,-1.0,-5.0,-1.0,0.0
1.6951613277783444e+18,1.0,-2.0,-2.0,-5.0,-5.0,-3.0,1.0,-1.0
1.6951613277853425e+18,0.0,-1.0,1.0,2.0,-2.0,-2.0,-2.0,0.0
1.6951613277853425e+18,-1.0,0.0,1.0,-1.0,4.0,-1.0,0.0,0.0
1.695161327800386e+18,1.0,-1.0,-1.0,0.0,-2.0,-1.0,-1.0,0.0
1.695161327800386e+18,-1.0,0.0,-1.0,-1.0,-1.0,0.0,-2.0,-1.0
1.6951613278013852e+18,0.0,-2.0,-1.0,-1.0,-1.0,-1.0,0.0,-1.0
1.6951613278013852e+18,0.0,-1.0,-2.0,1.0,-2.0,-1.0,-2.0,-1.0
1.6951613278225917e+18,-1.0,-1.0,0.0,-1.0,-1.0,0.0,0.0,-2.0
1.6951613278225917e+18,-1.0,0.0,0.0,-2.0,-1.0,0.0,0.0,1.0
1.695161327824111e+18,0.0,0.0,0.0,2.0,1.0,0.0,0.0,-2.0
1.695161327824111e+18,-2.0,-2.0,0.0,0.0,-1.0,0.0,-2.0,0.0
1.695161327836129e+18,0.0,0.0,-2.0,1.0,-1.0,1.0,1.0,-1.0
1.6951613278371305e+18,-1.0,-1.0,0.0,-4.0,0.0,0.0,-1.0,-1.0
1.695161327846125e+18,-1.0,0.0,1.0,-4.0,-6.0,0.0,-1.0,0.0
1.695161327846125e+18,-1.0,-2.0,-1.0,1.0,0.0,0.0,0.0,0.0
1.6951613278591007e+18,-3.0,0.0,1.0,-1.0,-1.0,-2.0,-1.0,-1.0
1.6951613278601357e+18,-2.0,-2.0,-2.0,-1.0,-2.0,-1.0,-1.0,0.0
1.6951613278676175e+18,1.0,0.0,-1.0,-1.0,0.0,0.0,-2.0,-3.0
1.6951613278676175e+18,-1.0,0.0,-1.0,-2.0,-2.0,-2.0,0.0,-1.0
1.6951613278837453e+18,-1.0,0.0,-1.0,-1.0,1.0,-1.0,1.0,1.0
1.6951613278837453e+18,0.0,0.0,-2.0,4.0,-1.0,-1.0,-1.0,-3.0
1.6951613278837453e+18,-1.0,-1.0,-3.0,-1.0,0.0,0.0,-1.0,-2.0
1.6951613278847457e+18,-1.0,-1.0,1.0,0.0,1.0,0.0,-3.0,-1.0
1.695161327896814e+18,0.0,-1.0,-2.0,-2.0,0.0,-1.0,-1.0,0.0
1.695161327896814e+18,-1.0,0.0,-1.0,-2.0,-1.0,-3.0,-1.0,0.0
1.6951613279052936e+18,-1.0,2.0,-3.0,-2.0,-1.0,-1.0,-1.0,0.0
1.695161327906293e+18,-3.0,-1.0,-4.0,1.0,1.0,-2.0,-2.0,-4.0
1.6951613279282742e+18,2.0,-2.0,1.0,0.0,-1.0,1.0,-2.0,-1.0
1.695161327929277e+18,0.0,-1.0,0.0,1.0,0.0,1.0,0.0,0.0
1.695161327929277e+18,-1.0,-2.0,-2.0,-1.0,1.0,-2.0,0.0,0.0
1.6951613279302753e+18,-1.0,1.0,-1.0,-3.0,-2.0,-1.0,1.0,0.0
1.6951613279432648e+18,-1.0,1.0,-3.0,-3.0,-1.0,-3.0,-2.0,-1.0
1.6951613279432648e+18,-1.0,-2.0,-1.0,0.0,-2.0,2.0,0.0,-1.0
1.6951613279442642e+18,0.0,0.0,0.0,-1.0,0.0,0.0,0.0,-1.0
1.6951613279452708e+18,-2.0,-1.0,0.0,0.0,-1.0,-1.0,-1.0,0.0
1.695161327956263e+18,-2.0,-1.0,1.0,0.0,0.0,-1.0,-2.0,-2.0
1.6951613279572575e+18,1.0,-2.0,0.0,-2.0,-1.0,-1.0,0.0,-1.0
1.695161327965252e+18,-2.0,-2.0,-2.0,-1.0,0.0,-1.0,-2.0,0.0
1.6951613279662533e+18,3.0,0.0,2.0,-2.0,-1.0,-1.0,0.0,-1.0
1.6951613279882468e+18,0.0,-1.0,-2.0,1.0,1.0,0.0,0.0,-2.0
1.6951613279882468e+18,1.0,1.0,-2.0,-5.0,-2.0,-1.0,-2.0,0.0
1.6951613279882468e+18,-2.0,-3.0,1.0,-1.0,-1.0,-1.0,-1.0,-2.0
1.6951613279892472e+18,0.0,-3.0,-1.0,0.0,-2.0,-1.0,-1.0,-1.0
1.6951613280032364e+18,-2.0,-2.0,-5.0,-2.0,0.0,-2.0,0.0,-2.0
1.6951613280042301e+18,-1.0,-3.0,2.0,3.0,2.0,1.0,0.0,0.0
1.6951613280052288e+18,-2.0,-1.0,2.0,-1.0,-1.0,-1.0,-2.0,0.0
1.6951613280052288e+18,-1.0,0.0,-1.0,-1.0,-1.0,-1.0,0.0,0.0
1.6951613280172347e+18,-1.0,-2.0,-1.0,-3.0,-2.0,-1.0,0.0,-1.0
1.6951613280172347e+18,1.0,-1.0,-1.0,-1.0,-3.0,-1.0,0.0,-2.0
1.6951613280422075e+18,0.0,0.0,2.0,1.0,1.0,-1.0,-2.0,0.0
1.6951613280432082e+18,-1.0,0.0,-1.0,0.0,-1.0,-1.0,0.0,-1.0
1.6951613280442135e+18,1.0,-3.0,-1.0,0.0,-3.0,-3.0,-2.0,2.0
1.695161328045206e+18,-1.0,-1.0,-2.0,-2.0,-1.0,-1.0,-1.0,-2.0
1.6951613280462129e+18,-1.0,-2.0,-1.0,2.0,-1.0,-2.0,0.0,-1.0
1.695161328047205e+18,0.0,0.0,-1.0,-1.0,-2.0,0.0,-1.0,0.0
1.6951613280631962e+18,0.0,-1.0,2.0,-2.0,1.0,1.0,-1.0,0.0
1.6951613280641958e+18,-2.0,-1.0,1.0,10.0,1.0,-2.0,-1.0,0.0
1.6951613280641958e+18,1.0,-1.0,-2.0,-10.0,-5.0,-1.0,0.0,0.0
1.6951613280652e+18,-2.0,0.0,-3.0,-1.0,0.0,-1.0,0.0,0.0
1.6951613280761876e+18,0.0,0.0,1.0,1.0,-1.0,0.0,1.0,-1.0
1.6951613280772012e+18,-3.0,-3.0,-2.0,1.0,1.0,0.0,-1.0,1.0
1.695161328097211e+18,-1.0,-1.0,1.0,10.0,1.0,1.0,0.0,-2.0
1.695161328098208e+18,-1.0,1.0,1.0,-2.0,1.0,-1.0,-1.0,1.0
1.6951613281081715e+18,-1.0,0.0,-3.0,-6.0,-3.0,-2.0,-2.0,-2.0
1.6951613281091707e+18,-1.0,-2.0,-2.0,-3.0,-3.0,-1.0,-1.0,1.0
1.6951613281101804e+18,-1.0,0.0,-1.0,-3.0,-1.0,1.0,-1.0,0.0
1.6951613281101804e+18,0.0,0.0,0.0,2.0,-1.0,-1.0,0.0,0.0
1.6951613281231624e+18,-1.0,-1.0,-2.0,4.0,1.0,1.0,-1.0,0.0
1.6951613281231624e+18,0.0,-1.0,-3.0,-2.0,-2.0,-2.0,0.0,-2.0
1.6951613281241603e+18,1.0,-1.0,-3.0,-4.0,1.0,-1.0,0.0,1.0
1.6951613281251658e+18,-1.0,0.0,1.0,2.0,0.0,0.0,0.0,0.0
1.695161328153145e+18,1.0,1.0,0.0,-1.0,-2.0,-1.0,0.0,-1.0
1.695161328153145e+18,0.0,1.0,0.0,-6.0,-3.0,0.0,-2.0,-1.0
1.695161328154143e+18,-1.0,-1.0,1.0,1.0,-1.0,2.0,0.0,-2.0
1.6951613281551508e+18,1.0,-1.0,1.0,-2.0,0.0,0.0,0.0,-3.0
1.6951613281681367e+18,-2.0,-2.0,-3.0,1.0,-1.0,-1.0,-1.0,1.0
1.6951613281681367e+18,-1.0,-1.0,1.0,-2.0,0.0,-1.0,-1.0,-2.0
1.695161328170135e+18,0.0,-2.0,0.0,2.0,1.0,-2.0,-2.0,-2.0
1.695161328170135e+18,1.0,-1.0,-3.0,0.0,-2.0,-1.0,-1.0,-2.0
1.695161328187158e+18,0.0,-1.0,-2.0,-5.0,-1.0,-1.0,-1.0,-2.0
1.6951613281981514e+18,-1.0,-1.0,1.0,2.0,-1.0,-1.0,0.0,-1.0
1.695161328205115e+18,-1.0,-1.0,-1.0,-1.0,0.0,0.0,1.0,0.0
1.6951613282061192e+18,-2.0,-1.0,-2.0,-2.0,-3.0,-1.0,-3.0,-1.0
1.6951613282061192e+18,-1.0,0.0,-1.0,-1.0,-1.0,0.0,0.0,1.0
1.6951613282071214e+18,-2.0,0.0,-1.0,-1.0,0.0,-1.0,0.0,-1.0
1.6951613282101181e+18,1.0,-1.0,0.0,-1.0,-3.0,-1.0,0.0,-2.0
1.6951613282101181e+18,1.0,-2.0,0.0,-3.0,-1.0,0.0,-2.0,-1.0
1.695161328228102e+18,-1.0,-2.0,-1.0,-2.0,-1.0,-1.0,-1.0,-1.0
1.6951613282291008e+18,0.0,0.0,-3.0,-2.0,0.0,0.0,-3.0,0.0
1.6951613282291008e+18,-1.0,0.0,-3.0,-1.0,0.0,-1.0,-2.0,0.0
1.6951613282301064e+18,-2.0,0.0,-2.0,-1.0,-1.0,0.0,0.0,-1.0
1.6951613282430935e+18,-1.0,0.0,1.0,0.0,0.0,-2.0,-1.0,-1.0
1.6951613282440911e+18,-2.0,-2.0,-2.0,-2.0,-1.0,0.0,-1.0,1.0
1.695161328245091e+18,-1.0,0.0,-1.0,0.0,0.0,-1.0,-2.0,-1.0
1.695161328245091e+18,-1.0,-2.0,0.0,1.0,-1.0,0.0,-1.0,0.0
1.6951613282570885e+18,-2.0,-1.0,0.0,0.0,0.0,0.0,2.0,-1.0
1.6951613282570885e+18,-1.0,0.0,-2.0,-6.0,-2.0,-1.0,0.0,-2.0
1.6951613282660808e+18,-1.0,-1.0,-1.0,1.0,-2.0,0.0,-2.0,-2.0
1.6951613282670804e+18,0.0,-1.0,0.0,-1.0,-1.0,0.0,0.0,0.0
1.6951613282800773e+18,-1.0,0.0,0.0,1.0,1.0,1.0,-1.0,-1.0
1.695161328281104e+18,-1.0,-1.0,-1.0,-1.0,0.0,-1.0,0.0,-1.0
1.6951613282870687e+18,-1.0,0.0,-1.0,0.0,-3.0,0.0,0.0,0.0
1.6951613282870687e+18,0.0,-2.0,-1.0,-1.0,-2.0,-1.0,-2.0,-1.0
1.695161328323079e+18,0.0,-3.0,-1.0,1.0,-1.0,1.0,-1.0,-1.0
1.695161328323079e+18,0.0,0.0,-1.0,1.0,-1.0,-1.0,0.0,-1.0
1.695161328324079e+18,0.0,0.0,0.0,-1.0,0.0,-1.0,-1.0,-1.0
1.695161328324079e+18,-1.0,0.0,-1.0,-1.0,-1.0,-3.0,0.0,-1.0
1.695161328350032e+18,-1.0,0.0,0.0,-3.0,-1.0,-1.0,-1.0,-2.0
1.695161328351031e+18,0.0,0.0,0.0,0.0,0.0,-2.0,-1.0,-1.0
1.695161328351031e+18,0.0,0.0,0.0,-4.0,0.0,-3.0,-2.0,0.0
1.695161328351031e+18,-2.0,-2.0,-1.0,-3.0,-1.0,0.0,-1.0,-2.0
1.6951613283520364e+18,-1.0,-1.0,1.0,-1.0,-3.0,-2.0,-1.0,-1.0
1.6951613283520364e+18,0.0,-1.0,-1.0,0.0,-1.0,2.0,0.0,0.0
1.6951613283550295e+18,1.0,0.0,0.0,1.0,0.0,0.0,-1.0,-2.0
1.6951613283560353e+18,0.0,0.0,-1.0,1.0,1.0,0.0,-1.0,0.0
1.6951613283710198e+18,-1.0,0.0,-2.0,-2.0,-2.0,-1.0,-1.0,2.0
1.6951613283720187e+18,-1.0,0.0,2.0,3.0,1.0,-2.0,-2.0,0.0
1.6951613283730186e+18,0.0,-2.0,-1.0,-4.0,0.0,0.0,-1.0,0.0
1.6951613283730186e+18,-1.0,-1.0,-2.0,1.0,-3.0,-3.0,-1.0,-3.0
1.695161328378017e+18,-1.0,-1.0,-6.0,-16.0,-6.0,-4.0,-2.0,-1.0
1.6951613283790152e+18,0.0,-1.0,-1.0,1.0,3.0,-1.0,-2.0,0.0
1.6951613283930068e+18,-1.0,1.0,3.0,5.0,-1.0,-2.0,0.0,1.0
1.6951613283940147e+18,0.0,-2.0,-2.0,-1.0,1.0,1.0,0.0,0.0
1.6951613284079985e+18,-1.0,-2.0,-1.0,5.0,1.0,0.0,-1.0,-1.0
1.6951613284089994e+18,0.0,0.0,-3.0,-3.0,-1.0,0.0,-1.0,-1.0
1.6951613284089994e+18,0.0,-1.0,-1.0,-2.0,-1.0,-1.0,-1.0,-3.0
1.695161328409998e+18,-1.0,-1.0,0.0,5.0,2.0,0.0,-2.0,1.0
1.695161328429019e+18,0.0,-1.0,-2.0,-13.0,-4.0,-5.0,0.0,-1.0
1.6951613284370145e+18,-1.0,-1.0,1.0,-4.0,-4.0,-2.0,0.0,-1.0
1.6951613284379825e+18,-2.0,-1.0,-1.0,0.0,-3.0,3.0,-2.0,-2.0
1.6951613284379825e+18,-1.0,0.0,0.0,2.0,5.0,-2.0,1.0,-1.0
1.6951613284459779e+18,0.0,-1.0,1.0,7.0,3.0,2.0,-2.0,-1.0
1.6951613284459779e+18,-1.0,-2.0,-1.0,-1.0,1.0,-2.0,0.0,-1.0
1.6951613284469765e+18,-1.0,-1.0,0.0,-5.0,-4.0,-2.0,1.0,1.0
1.6951613284469765e+18,0.0,0.0,-1.0,-1.0,-4.0,0.0,-2.0,0.0
1.695161328459969e+18,0.0,1.0,0.0,4.0,1.0,0.0,-1.0,0.0
1.695161328459969e+18,0.0,-3.0,-1.0,-3.0,-1.0,0.0,-2.0,-1.0
1.6951613284669647e+18,-1.0,-1.0,-1.0,0.0,-2.0,-2.0,-1.0,-2.0
1.6951613284669647e+18,0.0,-3.0,0.0,-3.0,-2.0,-1.0,-1.0,-2.0
1.6951613284839555e+18,0.0,-1.0,-3.0,-2.0,0.0,0.0,1.0,0.0
1.6951613284849544e+18,-2.0,-1.0,-1.0,1.0,-1.0,0.0,0.0,0.0
1.6951613284859597e+18,-1.0,-1.0,-3.0,-1.0,0.0,-1.0,-1.0,1.0
1.695161328486954e+18,1.0,-2.0,-1.0,-5.0,-2.0,-1.0,-1.0,-1.0
1.6951613285059436e+18,-1.0,-2.0,0.0,2.0,0.0,-1.0,-1.0,0.0
1.6951613285059436e+18,0.0,-1.0,0.0,0.0,1.0,0.0,-1.0,-1.0
1.695161328506942e+18,-2.0,-1.0,-1.0,-2.0,1.0,-1.0,-1.0,1.0
1.6951613285079496e+18,-2.0,-1.0,-1.0,-1.0,-1.0,0.0,-1.0,-1.0
1.695161328519962e+18,-1.0,-1.0,-1.0,2.0,-2.0,1.0,-1.0,-1.0
1.6951613285209354e+18,0.0,0.0,0.0,-2.0,-1.0,1.0,1.0,-1.0
1.6951613285219328e+18,0.0,0.0,-2.0,-1.0,1.0,-1.0,0.0,0.0
1.6951613285229325e+18,-2.0,-1.0,-1.0,-1.0,0.0,-2.0,-2.0,0.0
1.695161328542921e+18,-2.0,0.0,2.0,8.0,2.0,-1.0,-1.0,-2.0
1.6951613285459272e+18,0.0,-1.0,-3.0,-10.0,-4.0,-4.0,-1.0,-1.0
1.6951613285469279e+18,-1.0,-2.0,-1.0,1.0,-1.0,-3.0,-2.0,-2.0
1.6951613285469279e+18,-2.0,-1.0,-1.0,-1.0,-1.0,1.0,-1.0,0.0
1.6951613285649096e+18,0.0,0.0,-2.0,-1.0,2.0,-1.0,-1.0,-1.0
1.6951613285659203e+18,-1.0,0.0,-1.0,4.0,-1.0,0.0,-3.0,2.0
1.6951613285729037e+18,0.0,-1.0,2.0,-7.0,-4.0,0.0,-1.0,-2.0
1.6951613285739113e+18,1.0,0.0,-1.0,0.0,-1.0,-1.0,1.0,-2.0
1.6951613285878963e+18,0.0,-3.0,0.0,0.0,1.0,0.0,0.0,-1.0
1.6951613285888975e+18,0.0,0.0,1.0,7.0,0.0,1.0,0.0,1.0
1.6951613285899016e+18,-1.0,-1.0,-3.0,-2.0,-1.0,-1.0,0.0,1.0
1.6951613285899016e+18,0.0,-1.0,-1.0,-3.0,-1.0,0.0,-2.0,0.0
1.6951613286028872e+18,-1.0,0.0,0.0,-3.0,-1.0,-1.0,-1.0,-1.0
1.6951613286038874e+18,-2.0,-2.0,-3.0,0.0,-2.0,-3.0,-2.0,-1.0
1.6951613286048855e+18,0.0,-2.0,-1.0,0.0,1.0,0.0,0.0,-1.0
1.6951613286048855e+18,-1.0,-2.0,0.0,-1.0,-3.0,-2.0,0.0,-1.0
1.6951613286258747e+18,0.0,0.0,-1.0,-1.0,-3.0,-1.0,0.0,-2.0
1.6951613286258747e+18,-1.0,-1.0,-1.0,0.0,0.0,-1.0,1.0,-1.0
1.695161328626873e+18,-1.0,-2.0,0.0,2.0,0.0,-1.0,1.0,-1.0
1.6951613286278822e+18,-1.0,-1.0,-3.0,0.0,0.0,-2.0,0.0,1.0
1.6951613286508925e+18,-1.0,-2.0,-1.0,-4.0,-1.0,-1.0,-3.0,0.0
1.6951613286518666e+18,0.0,0.0,2.0,0.0,-3.0,-3.0,0.0,0.0
1.695161328652862e+18,-3.0,-1.0,-2.0,-2.0,2.0,0.0,0.0,-2.0
1.695161328652862e+18,0.0,0.0,0.0,1.0,-1.0,1.0,1.0,-1.0
1.6951613286638518e+18,0.0,0.0,-2.0,-2.0,-1.0,0.0,1.0,0.0
1.6951613286638518e+18,-1.0,0.0,0.0,3.0,0.0,1.0,-1.0,-1.0
1.6951613286648517e+18,0.0,0.0,-1.0,-8.0,-1.0,0.0,-1.0,1.0
1.6951613286658568e+18,-1.0,-1.0,-2.0,-5.0,0.0,1.0,-3.0,0.0
1.6951613286858388e+18,-2.0,2.0,0.0,4.0,-1.0,-3.0,-2.0,-1.0
1.6951613286868385e+18,-1.0,-1.0,-2.0,-4.0,0.0,0.0,-1.0,-1.0
1.6951613286878392e+18,1.0,-1.0,-2.0,2.0,-2.0,0.0,-3.0,-1.0
1.6951613286878392e+18,0.0,-2.0,0.0,-3.0,0.0,-1.0,1.0,-3.0
1.6951613287078262e+18,-1.0,-2.0,-3.0,-2.0,0.0,0.0,0.0,0.0
1.6951613287078262e+18,0.0,-1.0,1.0,-2.0,0.0,-2.0,-1.0,-3.0
1.6951613287098268e+18,1.0,1.0,-2.0,0.0,-2.0,0.0,-1.0,-1.0
1.6951613287098268e+18,-1.0,1.0,-2.0,1.0,-3.0,0.0,0.0,1.0
1.6951613287228178e+18,0.0,-1.0,-1.0,0.0,-2.0,0.0,-1.0,0.0
1.6951613287228178e+18,0.0,-1.0,-3.0,-1.0,1.0,1.0,-2.0,-1.0
1.6951613287238164e+18,-2.0,-1.0,-1.0,1.0,0.0,-1.0,-2.0,-1.0
1.6951613287248164e+18,0.0,0.0,-1.0,-1.0,-2.0,-1.0,-1.0,-2.0
1.6951613287617946e+18,-2.0,-1.0,-1.0,-2.0,-2.0,-2.0,-1.0,-1.0
1.6951613287617946e+18,0.0,-1.0,-2.0,1.0,0.0,-1.0,-1.0,0.0
1.695161328762799e+18,-1.0,-2.0,-1.0,-1.0,-1.0,0.0,0.0,-2.0
1.6951613287637975e+18,1.0,-1.0,0.0,-1.0,-1.0,0.0,-2.0,0.0
1.6951613287637975e+18,0.0,0.0,0.0,1.0,0.0,-2.0,-1.0,-1.0
1.6951613287637975e+18,0.0,-1.0,1.0,-3.0,-1.0,-1.0,-1.0,-3.0
1.695161328774787e+18,-2.0,0.0,0.0,2.0,1.0,-3.0,-1.0,0.0
1.6951613287757944e+18,-1.0,-2.0,-1.0,-2.0,-2.0,-2.0,-1.0,0.0
1.6951613287827825e+18,-1.0,-1.0,0.0,-1.0,1.0,0.0,-1.0,-2.0
1.6951613287827825e+18,1.0,-1.0,-2.0,-6.0,-1.0,-1.0,-1.0,1.0
1.6951613287837868e+18,-1.0,0.0,2.0,0.0,-2.0,-3.0,0.0,-2.0
1.695161328784782e+18,-1.0,-1.0,1.0,-1.0,-2.0,-1.0,-1.0,1.0
1.6951613288127657e+18,-2.0,-1.0,-2.0,-2.0,-1.0,-1.0,0.0,-1.0
1.6951613288127657e+18,-3.0,1.0,-1.0,2.0,1.0,0.0,1.0,1.0
1.6951613288147653e+18,-2.0,-1.0,0.0,1.0,0.0,0.0,-3.0,0.0
1.6951613288147653e+18,-2.0,-1.0,-2.0,-2.0,-1.0,0.0,-3.0,1.0
1.695161328819765e+18,0.0,-1.0,-1.0,0.0,0.0,1.0,1.0,-3.0
1.695161328819765e+18,-1.0,-3.0,-2.0,-3.0,0.0,-2.0,0.0,-3.0
1.6951613288257818e+18,0.0,-2.0,-2.0,0.0,0.0,-2.0,1.0,0.0
1.6951613288267648e+18,0.0,0.0,1.0,0.0,-1.0,-1.0,-1.0,-2.0
1.695161328850745e+18,0.0,0.0,-1.0,0.0,-2.0,-1.0,-2.0,0.0
1.695161328850745e+18,-2.0,-2.0,0.0,0.0,-2.0,-2.0,-1.0,-1.0
1.6951613288517435e+18,0.0,0.0,-3.0,-1.0,-2.0,1.0,0.0,0.0
1.6951613288517435e+18,-1.0,-1.0,-1.0,-1.0,1.0,-1.0,1.0,1.0
1.6951613288757304e+18,0.0,0.0,0.0,0.0,0.0,0.0,1.0,0.0
1.695161328876754e+18,-1.0,-1.0,-1.0,-1.0,-2.0,-2.0,-2.0,-2.0
1.695161328876754e+18,1.0,-2.0,-2.0,1.0,-1.0,-2.0,0.0,2.0
1.695161328876754e+18,-1.0,-1.0,-1.0,-1.0,-3.0,0.0,-1.0,-2.0
1.6951613288877248e+18,0.0,0.0,0.0,-2.0,0.0,-1.0,0.0,-2.0
1.6951613288877248e+18,-2.0,1.0,0.0,0.0,-1.0,-1.0,-2.0,0.0
1.695161328888721e+18,1.0,0.0,-1.0,-1.0,2.0,-1.0,-1.0,-1.0
1.6951613288897208e+18,0.0,0.0,-2.0,0.0,1.0,-2.0,0.0,0.0
1.6951613289027128e+18,0.0,0.0,-1.0,-2.0,-2.0,-2.0,-1.0,-2.0
1.6951613289027128e+18,0.0,-1.0,-1.0,-1.0,-3.0,-1.0,-1.0,-1.0
1.6951613289037133e+18,1.0,-1.0,-1.0,0.0,0.0,-1.0,1.0,0.0
1.6951613289037133e+18,-1.0,0.0,-2.0,0.0,0.0,0.0,-1.0,-2.0
1.6951613289247224e+18,0.0,-2.0,-2.0,-2.0,-2.0,1.0,-1.0,-2.0
1.6951613289247224e+18,1.0,0.0,1.0,-2.0,1.0,2.0,1.0,0.0
1.6951613289267016e+18,-3.0,-1.0,0.0,0.0,0.0,2.0,0.0,2.0
1.6951613289267016e+18,-1.0,-1.0,0.0,-1.0,1.0,3.0,1.0,1.0
1.6951613289476872e+18,-1.0,-1.0,1.0,0.0,3.0,3.0,1.0,1.0
1.6951613289476872e+18,0.0,3.0,1.0,2.0,2.0,1.0,0.0,1.0
1.695161328948688e+18,3.0,1.0,2.0,3.0,1.0,0.0,-1.0,-1.0
1.695161328948688e+18,1.0,1.0,0.0,-5.0,0.0,-2.0,-1.0,-1.0
1.6951613289626785e+18,1.0,0.0,0.0,0.0,-1.0,0.0,-1.0,0.0
1.6951613289626785e+18,0.0,-1.0,1.0,-1.0,-1.0,0.0,1.0,-1.0
1.6951613289636805e+18,0.0,0.0,0.0,0.0,1.0,0.0,-1.0,-2.0
1.6951613289646825e+18,1.0,0.0,-1.0,0.0,-2.0,-1.0,0.0,0.0
1.6951613289846687e+18,-1.0,-2.0,0.0,-2.0,-2.0,0.0,-1.0,0.0
1.6951613289846687e+18,-2.0,-1.0,-1.0,-1.0,-1.0,0.0,0.0,1.0
1.6951613289866673e+18,-2.0,-1.0,0.0,-3.0,-2.0,0.0,-1.0,-1.0
1.6951613289866673e+18,0.0,0.0,-1.0,2.0,0.0,1.0,0.0,-1.0
1.6951613289986609e+18,-1.0,0.0,-1.0,0.0,-2.0,0.0,1.0,1.0
1.6951613289996616e+18,0.0,-1.0,1.0,2.0,-1.0,0.0,-1.0,0.0
1.6951613290106516e+18,0.0,-1.0,-1.0,-6.0,-2.0,-1.0,1.0,0.0
1.6951613290136525e+18,0.0,-1.0,1.0,2.0,-1.0,-1.0,-3.0,2.0
1.6951613290216476e+18,1.0,0.0,0.0,1.0,1.0,-1.0,0.0,-1.0
1.6951613290216476e+18,0.0,-1.0,-2.0,-6.0,-1.0,-2.0,-2.0,1.0
1.6951613290296433e+18,-3.0,-1.0,-1.0,1.0,2.0,-1.0,0.0,1.0
1.695161329030643e+18,-1.0,0.0,2.0,0.0,-1.0,-3.0,-1.0,-1.0
1.695161329060644e+18,-1.0,-2.0,0.0,-1.0,-1.0,-1.0,-2.0,0.0
1.695161329060644e+18,1.0,-1.0,-1.0,2.0,-2.0,-2.0,1.0,-1.0
1.6951613290616246e+18,1.0,-1.0,0.0,-1.0,-2.0,-1.0,-2.0,-2.0
1.695161329062623e+18,-1.0,-1.0,0.0,-2.0,1.0,0.0,-1.0,0.0
1.695161329062623e+18,0.0,0.0,0.0,1.0,-1.0,0.0,-1.0,0.0
1.695161329063621e+18,0.0,0.0,-2.0,-3.0,-2.0,-2.0,-1.0,-1.0
1.695161329074617e+18,-1.0,0.0,0.0,0.0,0.0,-1.0,-1.0,1.0
1.695161329074617e+18,-1.0,-1.0,-2.0,-1.0,0.0,-2.0,-1.0,-1.0
1.6951613290906268e+18,-2.0,-2.0,-2.0,2.0,1.0,-2.0,-1.0,-1.0
1.6951613290906268e+18,-1.0,-1.0,0.0,-3.0,-1.0,-1.0,-1.0,-3.0
1.6951613290926044e+18,-1.0,0.0,0.0,-2.0,-1.0,-1.0,1.0,0.0
1.6951613290926044e+18,-1.0,-1.0,-1.0,5.0,2.0,2.0,-1.0,0.0
1.695161329112593e+18,0.0,-1.0,0.0,-2.0,-1.0,-2.0,0.0,0.0
1.695161329112593e+18,1.0,-1.0,-1.0,-2.0,0.0,-1.0,0.0,0.0
1.695161329113595e+18,1.0,-1.0,-2.0,0.0,0.0,0.0,1.0,-2.0
1.6951613291145935e+18,1.0,-1.0,-2.0,0.0,-2.0,1.0,0.0,-2.0
1.6951613291275843e+18,0.0,-1.0,-2.0,1.0,-1.0,1.0,-1.0,0.0
1.6951613291275843e+18,-2.0,-1.0,0.0,-7.0,-5.0,-1.0,-2.0,0.0
1.6951613291285842e+18,-2.0,1.0,-1.0,-3.0,1.0,-1.0,-1.0,0.0
1.6951613291295857e+18,-2.0,0.0,2.0,3.0,4.0,2.0,3.0,1.0
1.6951613291445752e+18,-1.0,-2.0,-1.0,-7.0,-5.0,-2.0,-1.0,1.0
1.69516132915357e+18,-2.0,-2.0,0.0,2.0,2.0,-1.0,0.0,0.0
1.69516132915457e+18,-2.0,-1.0,-5.0,4.0,-1.0,-1.0,0.0,-2.0
1.69516132915457e+18,1.0,-1.0,-2.0,-1.0,-1.0,-1.0,-3.0,-3.0
1.6951613291645852e+18,1.0,0.0,2.0,-8.0,-6.0,-3.0,-1.0,0.0
1.6951613291655654e+18,-2.0,0.0,-2.0,0.0,-1.0,-2.0,-2.0,-3.0
1.6951613291665661e+18,2.0,0.0,-1.0,3.0,2.0,3.0,2.0,3.0
1.6951613291665661e+18,0.0,0.0,0.0,-1.0,0.0,-2.0,-1.0,0.0
1.6951613291785772e+18,-2.0,0.0,0.0,0.0,-4.0,-3.0,0.0,-1.0
1.6951613291785772e+18,1.0,-1.0,-2.0,5.0,18.0,7.0,-1.0,0.0
1.6951613291905567e+18,-1.0,0.0,0.0,-3.0,-9.0,-4.0,-3.0,-3.0
1.695161329193563e+18,0.0,0.0,1.0,10.0,13.0,7.0,1.0,0.0
1.695161329201544e+18,0.0,-2.0,1.0,20.0,7.0,6.0,1.0,1.0
1.6951613292025436e+18,-3.0,-3.0,-3.0,-8.0,-6.0,-3.0,-2.0,-2.0
1.6951613292085402e+18,0.0,-1.0,-1.0,-8.0,-3.0,-4.0,-2.0,0.0
1.6951613292085402e+18,-1.0,-1.0,-4.0,-8.0,-8.0,-6.0,-4.0,-1.0
1.6951613292255306e+18,-1.0,-1.0,-2.0,-4.0,1.0,-3.0,-4.0,-3.0
1.6951613292255306e+18,-1.0,-2.0,-1.0,1.0,-2.0,0.0,1.0,0.0
1.6951613292265695e+18,0.0,-2.0,-2.0,1.0,-1.0,-1.0,-1.0,0.0
1.6951613292265695e+18,-1.0,1.0,0.0,-15.0,-10.0,-7.0,-2.0,0.0
1.6951613292385815e+18,0.0,-2.0,-3.0,-1.0,2.0,-1.0,-1.0,0.0
1.6951613292385815e+18,0.0,1.0,0.0,7.0,-2.0,0.0,-1.0,-2.0
1.6951613292645076e+18,-3.0,-5.0,2.0,1.0,0.0,1.0,-1.0,-1.0
1.695161329265509e+18,-1.0,2.0,0.0,-4.0,-3.0,-7.0,-4.0,-3.0
1.6951613292665075e+18,-2.0,0.0,0.0,2.0,-1.0,5.0,3.0,-2.0
1.6951613292675082e+18,-1.0,0.0,0.0,0.0,4.0,3.0,4.0,1.0
1.6951613292695122e+18,-2.0,-2.0,0.0,-6.0,1.0,1.0,-3.0,-3.0
1.6951613292695122e+18,0.0,4.0,-2.0,4.0,-1.0,-9.0,-3.0,-1.0
1.6951613292895263e+18,-1.0,-6.0,-3.0,-3.0,0.0,-5.0,-3.0,1.0
1.6951613292924997e+18,-4.0,-1.0,-2.0,-13.0,-8.0,12.0,1.0,-1.0
1.6951613292934994e+18,2.0,9.0,1.0,8.0,4.0,-5.0,0.0,0.0
1.6951613292934994e+18,5.0,-1.0,-2.0,3.0,0.0,4.0,1.0,2.0
1.6951613293164797e+18,-2.0,-13.0,-2.0,-10.0,-6.0,-8.0,-4.0,-4.0
1.69516132931748e+18,0.0,6.0,2.0,3.0,-8.0,-11.0,-1.0,3.0
1.695161329318477e+18,-2.0,-4.0,-3.0,1.0,5.0,7.0,-3.0,-4.0
1.695161329319477e+18,-3.0,-6.0,1.0,-3.0,1.0,5.0,10.0,-2.0
1.6951613293224758e+18,-4.0,-4.0,-5.0,-5.0,1.0,3.0,-3.0,6.0
1.6951613293234747e+18,-1.0,2.0,-1.0,7.0,-3.0,-5.0,-5.0,-6.0
1.69516132933347e+18,9.0,-3.0,2.0,-4.0,-6.0,0.0,21.0,27.0
1.6951613293344832e+18,-10.0,11.0,0.0,-1.0,-3.0,-8.0,-34.0,-41.0
1.695161329344461e+18,4.0,-2.0,-4.0,-11.0,-12.0,4.0,13.0,31.0
1.695161329344461e+18,-8.0,-8.0,-4.0,3.0,4.0,14.0,53.0,-4.0
1.6951613293764442e+18,-3.0,5.0,7.0,2.0,2.0,-6.0,-7.0,13.0
1.6951613293764442e+18,21.0,14.0,3.0,14.0,-1.0,-5.0,-20.0,-17.0
1.6951613293834414e+18,-8.0,-16.0,2.0,-9.0,5.0,-2.0,-8.0,-6.0
1.6951613293844396e+18,1.0,-3.0,-12.0,-3.0,-7.0,-8.0,-8.0,3.0
1.6951613293844396e+18,-5.0,-3.0,0.0,0.0,-8.0,-2.0,-8.0,-1.0
1.6951613293844396e+18,-3.0,-17.0,0.0,-2.0,4.0,6.0,12.0,23.0
1.6951613293914345e+18,0.0,17.0,1.0,2.0,-2.0,-6.0,-17.0,-29.0
1.6951613293914345e+18,8.0,3.0,4.0,-4.0,-4.0,-2.0,-2.0,15.0
1.695161329395433e+18,-7.0,0.0,0.0,12.0,18.0,10.0,5.0,-36.0
1.695161329395433e+18,-9.0,-4.0,0.0,-13.0,-6.0,-1.0,0.0,34.0
1.695161329405426e+18,5.0,12.0,4.0,12.0,11.0,2.0,4.0,-1.0
1.695161329405426e+18,-2.0,-11.0,-4.0,3.0,1.0,-2.0,-12.0,-9.0
1.6951613294064284e+18,3.0,-5.0,-8.0,-18.0,-15.0,-6.0,-3.0,8.0
1.6951613294064284e+18,3.0,7.0,0.0,4.0,-3.0,-5.0,2.0,-11.0
1.6951613294274125e+18,-10.0,-1.0,2.0,3.0,0.0,11.0,6.0,-15.0
1.695161329428413e+18,-4.0,6.0,3.0,-3.0,-7.0,-7.0,-15.0,3.0
1.6951613294354092e+18,2.0,2.0,5.0,5.0,-1.0,-5.0,-4.0,-7.0
1.6951613294364083e+18,-1.0,-9.0,-14.0,-11.0,4.0,-1.0,2.0,6.0
1.695161329451399e+18,4.0,-2.0,-5.0,5.0,2.0,7.0,5.0,26.0
1.695161329451399e+18,-2.0,1.0,2.0,-2.0,3.0,2.0,-9.0,-24.0
1.6951613294563963e+18,1.0,5.0,-4.0,10.0,10.0,1.0,-10.0,-5.0
1.6951613294563963e+18,1.0,-15.0,7.0,-1.0,3.0,2.0,23.0,15.0
1.6951613294663916e+18,-13.0,1.0,-8.0,-27.0,-17.0,-11.0,-9.0,-12.0
1.6951613294663916e+18,4.0,-3.0,5.0,-4.0,-1.0,-3.0,-11.0,21.0
1.6951613294663916e+18,-9.0,5.0,-3.0,-3.0,0.0,-1.0,10.0,-27.0
1.695161329467391e+18,-3.0,-2.0,-3.0,6.0,-5.0,-7.0,-25.0,4.0
1.6951613294873787e+18,11.0,1.0,-3.0,8.0,8.0,-2.0,-13.0,2.0
1.6951613294873787e+18,7.0,-3.0,5.0,4.0,10.0,5.0,15.0,16.0
1.6951613294883779e+18,-2.0,-3.0,-1.0,-1.0,-3.0,6.0,5.0,-6.0
1.6951613294893775e+18,-6.0,2.0,11.0,4.0,7.0,7.0,5.0,-13.0
1.6951613295013699e+18,-3.0,0.0,-7.0,-1.0,-12.0,-8.0,3.0,-2.0
1.6951613295013699e+18,-1.0,3.0,8.0,-2.0,-4.0,-6.0,-6.0,-10.0
1.6951613295133652e+18,5.0,6.0,1.0,5.0,1.0,2.0,-2.0,2.0
1.695161329515365e+18,-8.0,-28.0,-18.0,-13.0,-9.0,-2.0,-3.0,2.0
1.6951613295393485e+18,11.0,16.0,10.0,-3.0,13.0,4.0,-2.0,6.0
1.6951613295393485e+18,-8.0,1.0,2.0,5.0,1.0,1.0,11.0,20.0
1.6951613295573379e+18,7.0,-7.0,-3.0,-2.0,-4.0,-7.0,-18.0,-8.0
1.6951613295573379e+18,11.0,6.0,-13.0,-11.0,-12.0,0.0,14.0,1.0
1.6951613295573379e+18,-11.0,-3.0,-13.0,5.0,2.0,-1.0,11.0,3.0
1.6951613295583373e+18,-5.0,-1.0,-11.0,-4.0,-4.0,-12.0,-33.0,-14.0
1.6951613295613373e+18,-14.0,-2.0,11.0,-12.0,-14.0,-3.0,2.0,6.0
1.6951613295613373e+18,-7.0,10.0,1.0,-2.0,-3.0,-3.0,1.0,-18.0
1.6951613295705254e+18,-11.0,-15.0,15.0,16.0,9.0,4.0,5.0,-16.0
1.6951613295705254e+18,11.0,-5.0,-11.0,-1.0,-2.0,3.0,6.0,21.0
1.69516132957159e+18,4.0,-9.0,-4.0,-22.0,-10.0,-7.0,-3.0,4.0
1.69516132957159e+18,-3.0,9.0,1.0,7.0,0.0,1.0,-1.0,-10.0
1.695161329592373e+18,-6.0,9.0,5.0,0.0,-9.0,-4.0,0.0,0.0
1.6951613295933724e+18,-6.0,-8.0,0.0,0.0,4.0,2.0,-5.0,-22.0
1.6951613295943724e+18,7.0,5.0,6.0,7.0,2.0,-1.0,2.0,9.0
1.6951613295943724e+18,-8.0,-5.0,-4.0,0.0,-10.0,-4.0,3.0,1.0
1.6951613296235948e+18,8.0,-3.0,-42.0,-11.0,6.0,5.0,13.0,-8.0
1.6951613296235948e+18,6.0,5.0,-13.0,14.0,3.0,-3.0,-14.0,5.0
1.6951613296247672e+18,2.0,-6.0,20.0,1.0,3.0,4.0,5.0,-2.0
1.6951613296247672e+18,-2.0,4.0,2.0,-11.0,-5.0,-2.0,-6.0,-2.0
1.6951613296257812e+18,8.0,11.0,14.0,-4.0,-14.0,-8.0,-3.0,16.0
1.6951613296257812e+18,-3.0,-17.0,17.0,17.0,12.0,2.0,9.0,-11.0
1.6951613296303926e+18,-16.0,8.0,-18.0,-8.0,2.0,1.0,1.0,-4.0
1.6951613296303926e+18,5.0,9.0,-6.0,4.0,-8.0,-2.0,5.0,-3.0
1.6951613296450304e+18,8.0,2.0,8.0,-5.0,-4.0,-4.0,-17.0,-2.0
1.6951613296450304e+18,-23.0,-6.0,-4.0,-11.0,5.0,7.0,17.0,-32.0
1.6951613296470385e+18,10.0,-6.0,6.0,1.0,-11.0,-10.0,-12.0,18.0
1.6951613296470385e+18,8.0,7.0,-7.0,0.0,9.0,7.0,11.0,25.0
1.6951613296683822e+18,-2.0,1.0,4.0,1.0,4.0,-3.0,-15.0,-3.0
1.6951613296693814e+18,5.0,-3.0,1.0,-9.0,-10.0,-1.0,1.0,8.0
1.6951613296703816e+18,-11.0,-20.0,-44.0,22.0,14.0,3.0,-8.0,-13.0
1.6951613296703816e+18,-9.0,14.0,18.0,-13.0,-4.0,-11.0,-16.0,8.0
1.6951613297143557e+18,4.0,-5.0,20.0,18.0,9.0,7.0,9.0,9.0
1.6951613297143557e+18,-1.0,13.0,14.0,-27.0,-19.0,-8.0,-8.0,-16.0
1.6951613297143557e+18,0.0,0.0,28.0,7.0,11.0,3.0,7.0,2.0
1.6951613297143557e+18,-1.0,-15.0,-51.0,10.0,17.0,3.0,-8.0,-5.0
1.6951613297153539e+18,-1.0,0.0,18.0,18.0,5.0,10.0,9.0,12.0
1.6951613297153539e+18,3.0,9.0,-14.0,-13.0,-14.0,-8.0,-3.0,1.0
1.695161329759329e+18,-21.0,-6.0,5.0,1.0,1.0,2.0,2.0,-20.0
1.695161329760329e+18,8.0,2.0,12.0,-1.0,-1.0,1.0,13.0,16.0
1.695161329760329e+18,-2.0,-3.0,-10.0,-1.0,-8.0,-4.0,19.0,-4.0
1.6951613297613302e+18,16.0,-2.0,-19.0,7.0,7.0,4.0,-4.0,-1.0
1.6951613297833162e+18,5.0,10.0,22.0,-22.0,-20.0,-14.0,-14.0,-1.0
1.695161329784319e+18,-4.0,-4.0,1.0,3.0,10.0,10.0,12.0,-17.0
1.6951613297893128e+18,-5.0,-14.0,7.0,-4.0,-13.0,-2.0,-1.0,2.0
1.6951613297893128e+18,1.0,8.0,1.0,0.0,11.0,3.0,-5.0,7.0
1.6951613297903155e+18,7.0,-10.0,-16.0,-4.0,3.0,4.0,-1.0,18.0
1.6951613297903155e+18,-2.0,-4.0,-7.0,-5.0,-11.0,-11.0,-6.0,-27.0
1.695161329797308e+18,-7.0,-3.0,-16.0,1.0,12.0,7.0,4.0,1.0
1.695161329797308e+18,-6.0,-21.0,12.0,-20.0,-15.0,-3.0,-3.0,6.0
1.695161329798307e+18,-2.0,-17.0,6.0,18.0,17.0,2.0,7.0,-4.0
1.695161329798307e+18,-11.0,8.0,6.0,-9.0,-10.0,-6.0,3.0,-4.0
1.6951613298182958e+18,-9.0,7.0,-5.0,-9.0,-1.0,0.0,2.0,-1.0
1.695161329819295e+18,22.0,1.0,-16.0,8.0,1.0,4.0,11.0,-13.0
1.695161329819295e+18,1.0,6.0,19.0,-11.0,-13.0,-10.0,-23.0,-2.0
1.695161329819295e+18,-8.0,-14.0,-7.0,3.0,7.0,7.0,5.0,-2.0
1.6951613298212943e+18,11.0,9.0,11.0,-9.0,-11.0,-7.0,0.0,3.0
1.6951613298212943e+18,10.0,-5.0,-7.0,10.0,11.0,8.0,10.0,31.0
1.6951613298382848e+18,-2.0,-7.0,-17.0,-14.0,-14.0,-13.0,-15.0,-17.0
1.6951613298382848e+18,-2.0,1.0,-36.0,-8.0,3.0,5.0,7.0,3.0
1.6951613298392845e+18,16.0,4.0,-3.0,14.0,2.0,3.0,1.0,7.0
1.695161329840284e+18,-17.0,0.0,41.0,11.0,6.0,1.0,2.0,-5.0
1.695161329847278e+18,-11.0,4.0,-20.0,-23.0,-9.0,-1.0,3.0,-14.0
1.695161329847278e+18,3.0,-18.0,14.0,0.0,4.0,-6.0,-3.0,2.0
1.6951613298492774e+18,-1.0,9.0,-9.0,21.0,19.0,17.0,2.0,9.0
1.6951613298492774e+18,3.0,7.0,-16.0,-7.0,-15.0,-2.0,8.0,-14.0
1.6951613298702659e+18,-5.0,-4.0,7.0,3.0,6.0,-5.0,-12.0,6.0
1.6951613298702659e+18,-6.0,-1.0,-2.0,-7.0,-20.0,-8.0,-5.0,2.0
1.695161329872265e+18,-5.0,4.0,2.0,1.0,-3.0,-10.0,-9.0,-15.0
1.695161329872265e+18,1.0,1.0,0.0,1.0,3.0,4.0,5.0,2.0
1.6951613299062446e+18,-10.0,4.0,-11.0,-6.0,-6.0,-8.0,4.0,-27.0
1.6951613299072445e+18,16.0,0.0,3.0,4.0,-1.0,2.0,5.0,26.0
1.6951613299472205e+18,-22.0,-16.0,4.0,-15.0,-7.0,-2.0,-1.0,-3.0
1.6951613299472205e+18,8.0,-4.0,-1.0,7.0,-3.0,-8.0,-32.0,-12.0
1.695161329948221e+18,3.0,22.0,-12.0,-18.0,-1.0,15.0,51.0,4.0
1.695161329948221e+18,-7.0,-8.0,12.0,25.0,19.0,9.0,-4.0,0.0
1.6951613299522191e+18,18.0,1.0,43.0,7.0,-4.0,-4.0,-6.0,14.0
1.6951613299592146e+18,-10.0,-21.0,-53.0,-15.0,-5.0,-7.0,0.0,6.0
1.6951613299592146e+18,7.0,3.0,10.0,-3.0,-4.0,-6.0,-31.0,-6.0
1.6951613299602158e+18,-13.0,21.0,7.0,8.0,6.0,2.0,5.0,-50.0
1.6951613299832e+18,-6.0,-8.0,-16.0,-4.0,-1.0,0.0,4.0,10.0
1.6951613299832e+18,3.0,10.0,26.0,3.0,-3.0,-3.0,-4.0,-3.0
1.6951613299842017e+18,-1.0,-5.0,-9.0,-1.0,4.0,0.0,-8.0,-7.0
1.695161329985199e+18,-12.0,7.0,11.0,0.0,4.0,-5.0,-20.0,-15.0
1.695161329985199e+18,20.0,6.0,-9.0,10.0,-4.0,-3.0,-10.0,1.0
1.695161329985199e+18,-2.0,-20.0,21.0,-12.0,-5.0,-6.0,7.0,8.0
1.6951613300051884e+18,-5.0,3.0,-26.0,13.0,15.0,3.0,-9.0,11.0
1.6951613300061878e+18,-8.0,-19.0,16.0,-11.0,-15.0,-7.0,-11.0,-8.0
1.6951613300061878e+18,-9.0,11.0,-8.0,4.0,4.0,-4.0,-13.0,7.0
1.6951613300061878e+18,24.0,-10.0,28.0,1.0,-3.0,-1.0,-7.0,16.0
1.6951613300081859e+18,0.0,-8.0,-37.0,-11.0,-12.0,-1.0,13.0,3.0
1.6951613300081859e+18,-6.0,19.0,-1.0,2.0,11.0,7.0,-1.0,-18.0
1.695161330034966e+18,-1.0,-8.0,21.0,11.0,2.0,-1.0,-4.0,3.0
1.695161330034966e+18,9.0,-8.0,-20.0,-17.0,-10.0,-3.0,5.0,21.0
1.6951613300359826e+18,-11.0,4.0,4.0,3.0,1.0,0.0,-1.0,-16.0
1.695161330036981e+18,9.0,22.0,-9.0,-5.0,-3.0,-1.0,7.0,3.0
1.6951613300405404e+18,-8.0,-24.0,9.0,8.0,5.0,1.0,0.0,1.0
1.6951613300405404e+18,-1.0,8.0,-17.0,-7.0,-3.0,0.0,2.0,5.0
1.6951613300495383e+18,3.0,3.0,12.0,-4.0,-5.0,-3.0,-3.0,-14.0
1.69516133005054e+18,-5.0,1.0,-8.0,0.0,-6.0,-4.0,7.0,-17.0
1.6951613300655322e+18,9.0,15.0,17.0,-1.0,8.0,4.0,1.0,28.0
1.695161330066532e+18,-15.0,-7.0,-58.0,-7.0,-6.0,-5.0,-13.0,-2.0
1.695161330066532e+18,2.0,-4.0,-32.0,6.0,2.0,4.0,3.0,8.0
1.695161330066532e+18,-7.0,1.0,14.0,-1.0,14.0,2.0,2.0,-5.0
1.6951613300949814e+18,-1.0,-7.0,-32.0,-7.0,-15.0,-10.0,5.0,-10.0
1.6951613300949814e+18,-7.0,3.0,26.0,7.0,16.0,8.0,10.0,-5.0
1.6951613300969897e+18,2.0,-4.0,14.0,0.0,-9.0,10.0,-4.0,5.0
1.6951613300969897e+18,-1.0,8.0,7.0,3.0,-6.0,-5.0,-3.0,-6.0
1.6951613301097864e+18,2.0,-14.0,9.0,-4.0,9.0,8.0,6.0,-10.0
1.6951613301097864e+18,-11.0,7.0,-7.0,12.0,-1.0,-6.0,-5.0,-19.0
1.695161330111764e+18,3.0,9.0,3.0,-6.0,15.0,10.0,4.0,12.0
1.695161330111764e+18,1.0,-3.0,8.0,3.0,-18.0,-18.0,-4.0,3.0
1.6951613301287537e+18,-4.0,0.0,5.0,-4.0,-9.0,12.0,-1.0,-4.0
1.6951613301287537e+18,-3.0,-1.0,5.0,-17.0,-8.0,7.0,3.0,0.0
1.6951613301307904e+18,-5.0,4.0,15.0,2.0,13.0,0.0,2.0,-7.0
1.6951613301307904e+18,2.0,-13.0,-8.0,8.0,2.0,6.0,1.0,0.0
1.695161330147556e+18,-1.0,4.0,-15.0,4.0,-6.0,-16.0,-6.0,-6.0
1.695161330147556e+18,-6.0,-1.0,6.0,12.0,13.0,7.0,4.0,0.0
1.6951613301485568e+18,1.0,-4.0,-13.0,-10.0,-8.0,-7.0,-1.0,-3.0
1.6951613301495565e+18,1.0,4.0,1.0,-16.0,8.0,0.0,0.0,7.0
1.69516133017038e+18,-4.0,4.0,15.0,4.0,-1.0,0.0,5.0,-2.0
1.69516133017038e+18,-4.0,-6.0,-15.0,-5.0,10.0,6.0,0.0,10.0
1.6951613301713974e+18,-3.0,0.0,3.0,-3.0,-29.0,-15.0,-2.0,-52.0
1.6951613301713974e+18,3.0,-1.0,8.0,8.0,10.0,1.0,-10.0,40.0
1.6951613301843712e+18,2.0,2.0,-8.0,-8.0,-4.0,-1.0,2.0,-1.0
1.6951613301843712e+18,-4.0,-1.0,-5.0,-8.0,-9.0,-6.0,-3.0,7.0
1.6951613302085184e+18,4.0,6.0,-2.0,0.0,5.0,-3.0,0.0,-22.0
1.6951613302085184e+18,-4.0,-13.0,-16.0,-10.0,-11.0,-2.0,-2.0,-23.0
1.6951613302085184e+18,-6.0,-5.0,-13.0,9.0,12.0,5.0,0.0,-1.0
1.6951613302085184e+18,-1.0,-1.0,6.0,1.0,-11.0,-8.0,-4.0,9.0
1.6951613302105275e+18,-1.0,5.0,6.0,4.0,0.0,-5.0,-2.0,6.0
1.6951613302105275e+18,5.0,3.0,15.0,1.0,1.0,6.0,5.0,-5.0
1.6951613302215173e+18,-1.0,1.0,2.0,9.0,14.0,3.0,-2.0,4.0
1.6951613302215173e+18,-2.0,-4.0,-10.0,-3.0,-7.0,-4.0,-2.0,-9.0
1.6951613302303424e+18,-3.0,-2.0,-6.0,-4.0,-5.0,-1.0,-2.0,14.0
1.6951613302303424e+18,0.0,4.0,17.0,11.0,10.0,5.0,2.0,-2.0
1.6951613302605263e+18,0.0,2.0,-7.0,-8.0,-8.0,-4.0,2.0,1.0
1.6951613302605263e+18,-2.0,2.0,8.0,10.0,9.0,3.0,-2.0,-7.0
1.6951613302615608e+18,0.0,-6.0,-9.0,-1.0,6.0,-2.0,-1.0,13.0
1.6951613302615608e+18,-2.0,-2.0,-7.0,-1.0,-5.0,-1.0,0.0,-1.0
1.6951613302825213e+18,-1.0,4.0,-1.0,-9.0,-6.0,-1.0,-2.0,-11.0
1.6951613302835215e+18,0.0,1.0,5.0,6.0,3.0,-1.0,-1.0,2.0
1.6951613303145032e+18,-1.0,-6.0,2.0,-5.0,0.0,-2.0,0.0,12.0
1.6951613303145032e+18,0.0,2.0,-1.0,-4.0,-5.0,1.0,-1.0,-9.0
1.6951613303155013e+18,-2.0,1.0,2.0,1.0,0.0,1.0,-2.0,-2.0
1.6951613303165007e+18,1.0,0.0,3.0,4.0,0.0,0.0,-2.0,0.0
1.695161330326519e+18,0.0,-5.0,-8.0,-10.0,-4.0,0.0,0.0,8.0
1.6951613303274947e+18,-2.0,2.0,-3.0,-3.0,-5.0,-2.0,-2.0,-5.0
1.6951613303355133e+18,-2.0,-3.0,-7.0,-4.0,0.0,-1.0,-1.0,1.0
1.6951613303364897e+18,2.0,0.0,3.0,-2.0,-2.0,-2.0,-1.0,3.0
1.6951613303364897e+18,1.0,1.0,-2.0,-2.0,-1.0,-1.0,-3.0,0.0
1.6951613303364897e+18,-3.0,-2.0,9.0,16.0,4.0,-2.0,-2.0,-4.0
1.6951613303384883e+18,-3.0,-3.0,4.0,-7.0,-3.0,-1.0,-2.0,3.0
1.6951613303384883e+18,-1.0,1.0,-6.0,0.0,-4.0,-2.0,-1.0,-3.0
1.6951613303634747e+18,-1.0,1.0,-4.0,-2.0,-1.0,-3.0,1.0,-1.0
1.695161330364473e+18,-2.0,-3.0,-5.0,-15.0,-2.0,-1.0,0.0,0.0
1.695161330365473e+18,-1.0,-3.0,-10.0,-2.0,0.0,0.0,0.0,2.0
1.695161330365473e+18,0.0,-1.0,3.0,-5.0,-5.0,-2.0,-1.0,-2.0
1.6951613303724928e+18,-2.0,-2.0,-10.0,2.0,-3.0,-2.0,-3.0,-2.0
1.6951613303724928e+18,1.0,-1.0,-3.0,1.0,2.0,0.0,1.0,0.0
1.6951613303744678e+18,0.0,-1.0,10.0,10.0,3.0,0.0,0.0,3.0
1.6951613303754688e+18,-3.0,-1.0,-3.0,-5.0,-4.0,-1.0,-1.0,-3.0
1.6951613303874724e+18,0.0,-2.0,-2.0,-7.0,-1.0,-6.0,0.0,-4.0
1.6951613303874724e+18,-1.0,1.0,0.0,-4.0,0.0,4.0,0.0,-1.0
1.695161330389459e+18,0.0,-1.0,-2.0,0.0,0.0,0.0,0.0,1.0
1.695161330389459e+18,0.0,-1.0,-4.0,3.0,-3.0,-3.0,-1.0,-1.0
1.6951613304104474e+18,-2.0,0.0,8.0,6.0,-2.0,-1.0,-1.0,-1.0
1.6951613304104474e+18,0.0,-2.0,-6.0,-6.0,-2.0,-1.0,-2.0,0.0
1.6951613304114511e+18,0.0,0.0,-1.0,-4.0,1.0,2.0,1.0,0.0
1.6951613304124508e+18,-1.0,-3.0,-4.0,1.0,0.0,-1.0,0.0,-2.0
1.6951613304254418e+18,-1.0,0.0,-1.0,-3.0,-1.0,0.0,1.0,-1.0
1.6951613304324582e+18,-1.0,0.0,-4.0,-3.0,-1.0,-2.0,2.0,-1.0
1.6951613304544458e+18,-3.0,-3.0,6.0,11.0,0.0,-3.0,-2.0,-1.0
1.6951613304554212e+18,0.0,-3.0,0.0,1.0,-3.0,-4.0,-2.0,-2.0
1.6951613304554212e+18,-2.0,0.0,4.0,1.0,4.0,2.0,-3.0,-2.0
1.6951613304554212e+18,1.0,1.0,0.0,-2.0,-2.0,-1.0,0.0,-1.0
1.6951613304724116e+18,-2.0,-1.0,-3.0,-3.0,1.0,1.0,0.0,-1.0
1.6951613304724116e+18,-1.0,0.0,-2.0,-1.0,-2.0,-3.0,-1.0,-1.0
1.6951613304734134e+18,-1.0,1.0,-1.0,-9.0,-3.0,-1.0,0.0,1.0
1.6951613304734134e+18,-1.0,1.0,3.0,4.0,-1.0,1.0,-1.0,0.0
1.6951613304764093e+18,-1.0,-1.0,0.0,0.0,-2.0,-2.0,-2.0,-1.0
1.6951613304764093e+18,-1.0,0.0,-3.0,-3.0,1.0,0.0,0.0,0.0
1.6951613304934141e+18,0.0,-1.0,3.0,3.0,1.0,1.0,2.0,1.0
1.6951613304934141e+18,-1.0,-2.0,0.0,-1.0,-2.0,-2.0,1.0,1.0
1.6951613305005117e+18,-1.0,-1.0,-3.0,-2.0,-4.0,-3.0,-2.0,1.0
1.6951613305005117e+18,-1.0,-1.0,0.0,0.0,3.0,1.0,0.0,-1.0
1.6951613305155356e+18,-1.0,0.0,-2.0,-2.0,0.0,2.0,-2.0,-2.0
1.6951613305155356e+18,-1.0,-1.0,-1.0,0.0,1.0,1.0,0.0,0.0
1.695161330516587e+18,1.0,1.0,1.0,-4.0,-1.0,-3.0,-2.0,-1.0
1.6951613305175608e+18,0.0,3.0,-2.0,-1.0,0.0,1.0,1.0,1.0
1.6951613305305388e+18,1.0,-7.0,-2.0,-1.0,-2.0,3.0,1.0,1.0
1.6951613305305388e+18,0.0,0.0,0.0,-1.0,-2.0,-10.0,-4.0,-2.0
1.695161330531534e+18,-1.0,-1.0,-1.0,0.0,1.0,2.0,1.0,1.0
1.6951613305325335e+18,-2.0,-2.0,-4.0,0.0,2.0,4.0,0.0,1.0
1.6951613305686917e+18,-2.0,-1.0,0.0,-1.0,-2.0,-1.0,1.0,0.0
1.6951613305686917e+18,-2.0,-1.0,0.0,1.0,-3.0,-1.0,-1.0,-2.0
1.6951613305706947e+18,2.0,-1.0,-3.0,-3.0,1.0,-4.0,-2.0,0.0
1.6951613305706947e+18,-2.0,0.0,-2.0,0.0,-1.0,-1.0,-2.0,-3.0
1.6951613305706947e+18,0.0,2.0,-1.0,-4.0,-1.0,1.0,1.0,0.0
1.6951613305716938e+18,-1.0,-1.0,-1.0,2.0,0.0,1.0,0.0,-1.0
1.695161330575341e+18,-1.0,1.0,-1.0,0.0,-1.0,-1.0,0.0,0.0
1.695161330575341e+18,0.0,-5.0,-6.0,-5.0,-2.0,-2.0,1.0,0.0
1.695161330590527e+18,-1.0,1.0,3.0,3.0,3.0,0.0,-1.0,-1.0
1.695161330590527e+18,-1.0,-1.0,-2.0,-3.0,-4.0,-10.0,-1.0,0.0
1.6951613305915735e+18,-2.0,0.0,4.0,0.0,1.0,8.0,1.0,0.0
1.6951613305915735e+18,-1.0,-1.0,-7.0,-7.0,2.0,8.0,-1.0,0.0
1.6951613306036214e+18,1.0,0.0,-1.0,1.0,-2.0,-4.0,-2.0,-1.0
1.6951613306036214e+18,-1.0,-3.0,-12.0,-7.0,1.0,2.0,-1.0,-1.0
1.69516133061259e+18,-2.0,1.0,3.0,1.0,-3.0,-6.0,-1.0,0.0
1.69516133061259e+18,1.0,-1.0,1.0,-2.0,-5.0,-4.0,0.0,-1.0
1.6951613306275057e+18,-2.0,-1.0,-1.0,-1.0,-2.0,-2.0,-2.0,-2.0
1.6951613306275057e+18,-1.0,0.0,5.0,4.0,0.0,1.0,-1.0,-1.0
1.69516133062917e+18,0.0,-3.0,-4.0,-1.0,-3.0,-2.0,0.0,-1.0
1.69516133062917e+18,-1.0,-1.0,1.0,3.0,2.0,-1.0,-1.0,-1.0
1.6951613306501617e+18,0.0,0.0,-5.0,-3.0,0.0,-3.0,1.0,0.0
1.6951613306501617e+18,-1.0,1.0,7.0,6.0,0.0,1.0,-1.0,0.0
1.6951613306511729e+18,-1.0,-3.0,-2.0,3.0,-6.0,-1.0,-2.0,-2.0
1.6951613306511729e+18,0.0,-1.0,-3.0,-4.0,-5.0,-4.0,-2.0,-3.0
1.6951613306651692e+18,-1.0,-1.0,9.0,8.0,6.0,0.0,0.0,-1.0
1.6951613306651692e+18,0.0,-1.0,-9.0,-7.0,-2.0,2.0,-1.0,2.0
1.695161330680147e+18,-3.0,-2.0,-2.0,-2.0,-1.0,-1.0,0.0,0.0
1.695161330680147e+18,-1.0,1.0,4.0,3.0,2.0,-1.0,-1.0,1.0
1.6951613306871631e+18,-1.0,-2.0,-5.0,-8.0,-4.0,-3.0,-4.0,1.0
1.6951613306881426e+18,-1.0,1.0,8.0,3.0,-3.0,-7.0,1.0,0.0
1.6951613306891423e+18,0.0,0.0,-4.0,-4.0,-1.0,9.0,-1.0,-1.0
1.6951613306891423e+18,-1.0,-2.0,0.0,3.0,1.0,-1.0,0.0,-3.0
1.695161330710127e+18,-1.0,0.0,0.0,0.0,1.0,-3.0,0.0,-2.0
1.695161330710127e+18,0.0,1.0,1.0,0.0,0.0,0.0,-2.0,0.0
1.6951613307111276e+18,0.0,0.0,-2.0,-2.0,-1.0,-4.0,-1.0,0.0
1.6951613307111276e+18,-1.0,0.0,2.0,-1.0,-2.0,-2.0,-1.0,0.0
1.695161330723131e+18,1.0,-1.0,-3.0,-2.0,-4.0,1.0,-1.0,-1.0
1.6951613307241285e+18,0.0,-1.0,-1.0,-1.0,-1.0,-1.0,-1.0,-1.0
1.6951613307391222e+18,0.0,0.0,3.0,0.0,0.0,-4.0,-1.0,-2.0
1.6951613307391222e+18,0.0,-1.0,-2.0,-2.0,0.0,0.0,-1.0,0.0
1.695161330755535e+18,-1.0,-3.0,-3.0,0.0,-1.0,-1.0,1.0,0.0
1.695161330755535e+18,-1.0,-2.0,-1.0,-3.0,-1.0,1.0,-1.0,-2.0
1.6951613307565345e+18,0.0,-1.0,0.0,-1.0,-1.0,-1.0,-1.0,0.0
1.6951613307575388e+18,-1.0,-2.0,-1.0,0.0,-2.0,-2.0,0.0,-2.0
1.6951613307695647e+18,-1.0,0.0,-2.0,-3.0,-2.0,-1.0,-1.0,-1.0
1.695161330770546e+18,0.0,0.0,1.0,0.0,3.0,2.0,0.0,-2.0
1.6951613307715635e+18,0.0,-1.0,-2.0,0.0,0.0,-3.0,0.0,0.0
1.6951613307715635e+18,0.0,0.0,-1.0,1.0,-3.0,-2.0,-2.0,-1.0
1.6951613307855547e+18,0.0,0.0,-3.0,-4.0,-3.0,-1.0,-2.0,-1.0
1.6951613307865544e+18,-1.0,-1.0,2.0,4.0,1.0,0.0,-1.0,1.0
1.6951613307926323e+18,-2.0,-1.0,0.0,-3.0,-1.0,-2.0,-2.0,0.0
1.6951613307926323e+18,-2.0,-1.0,-2.0,-1.0,1.0,0.0,-1.0,0.0
1.6951613308075123e+18,-1.0,0.0,0.0,0.0,0.0,1.0,1.0,-2.0
1.695161330808515e+18,-2.0,-2.0,-2.0,-2.0,-1.0,2.0,-1.0,-2.0
1.6951613308095214e+18,-2.0,0.0,-1.0,-1.0,0.0,-1.0,-1.0,1.0
1.6951613308095214e+18,1.0,-1.0,1.0,-1.0,-1.0,0.0,1.0,3.0
1.6951613308306273e+18,-1.0,-1.0,-1.0,-3.0,-1.0,-1.0,-1.0,-1.0
1.6951613308316265e+18,-1.0,-1.0,-1.0,0.0,-1.0,-2.0,0.0,-1.0
1.6951613308326267e+18,-1.0,0.0,-4.0,-1.0,-1.0,-3.0,-3.0,0.0
1.6951613308326267e+18,-1.0,-7.0,3.0,0.0,1.0,0.0,-2.0,-1.0
1.6951613308436298e+18,0.0,0.0,-2.0,1.0,1.0,-1.0,-1.0,-1.0
1.6951613308446428e+18,1.0,0.0,-2.0,-3.0,-1.0,-2.0,-1.0,0.0
1.6951613308526144e+18,0.0,-1.0,-3.0,-4.0,-3.0,1.0,1.0,-1.0
1.695161330853614e+18,1.0,4.0,2.0,2.0,-1.0,-1.0,-1.0,-2.0
1.6951613308676063e+18,-1.0,-2.0,-1.0,0.0,-3.0,1.0,-2.0,0.0
1.695161330868606e+18,0.0,-2.0,6.0,2.0,1.0,2.0,2.0,0.0
1.6951613308696056e+18,-2.0,5.0,-5.0,-2.0,0.0,-2.0,-1.0,0.0
1.6951613308696056e+18,0.0,-2.0,0.0,-1.0,-1.0,0.0,-2.0,-1.0
1.6951613308905933e+18,0.0,4.0,-4.0,-5.0,-3.0,-4.0,-2.0,-2.0
1.6951613308905933e+18,-3.0,-3.0,3.0,-1.0,1.0,1.0,-3.0,-3.0
1.6951613308915917e+18,1.0,-4.0,-6.0,-3.0,-4.0,-2.0,-1.0,-1.0
1.6951613308925919e+18,-2.0,2.0,-6.0,-2.0,0.0,-1.0,-1.0,0.0
1.695161330907584e+18,0.0,2.0,-4.0,-1.0,-4.0,-1.0,-4.0,-3.0
1.695161330907584e+18,-5.0,-15.0,9.0,6.0,5.0,5.0,2.0,1.0
1.6951613309295724e+18,6.0,4.0,-2.0,-3.0,-2.0,-2.0,0.0,0.0
1.6951613309305702e+18,1.0,-13.0,10.0,5.0,0.0,0.0,1.0,1.0
1.6951613309315707e+18,-6.0,-6.0,9.0,6.0,5.0,3.0,1.0,-4.0
1.6951613309325696e+18,1.0,6.0,-19.0,-6.0,-6.0,-3.0,-3.0,0.0
1.695161330933576e+18,-2.0,-9.0,5.0,3.0,2.0,1.0,1.0,-2.0
1.6951613309345697e+18,-3.0,-10.0,11.0,3.0,0.0,1.0,0.0,0.0
1.6951613309505592e+18,2.0,10.0,-6.0,-6.0,-8.0,-2.0,-1.0,3.0
1.6951613309505592e+18,1.0,-27.0,23.0,9.0,6.0,4.0,4.0,2.0
1.695161330952558e+18,-2.0,3.0,-4.0,-2.0,1.0,-1.0,-2.0,-3.0
1.695161330952558e+18,0.0,22.0,-19.0,-10.0,-4.0,-5.0,-2.0,-3.0
1.695161330963626e+18,4.0,9.0,-1.0,-2.0,0.0,-1.0,-1.0,0.0
1.6951613309646195e+18,0.0,13.0,-21.0,-12.0,-12.0,-7.0,-5.0,-3.0
1.6951613309802404e+18,-4.0,-9.0,9.0,5.0,5.0,3.0,2.0,0.0
1.6951613309802404e+18,-4.0,-10.0,7.0,4.0,1.0,1.0,2.0,1.0
1.6951613309872637e+18,1.0,-2.0,6.0,0.0,0.0,0.0,0.0,-1.0
1.695161330988245e+18,5.0,25.0,-13.0,-12.0,-11.0,-9.0,-4.0,-1.0
1.6951613309892406e+18,-5.0,-1.0,1.0,3.0,5.0,2.0,-1.0,-3.0
1.6951613309892406e+18,-1.0,4.0,-3.0,-3.0,-2.0,-1.0,-1.0,-1.0
1.6951613310138317e+18,-1.0,-4.0,-4.0,-3.0,-2.0,-3.0,-1.0,-1.0
1.6951613310198228e+18,-2.0,-3.0,-3.0,2.0,3.0,2.0,0.0,-1.0
1.6951613310208205e+18,0.0,-6.0,3.0,-3.0,-2.0,0.0,-2.0,0.0
1.6951613310218217e+18,-2.0,2.0,-4.0,-3.0,0.0,-2.0,-2.0,-1.0
1.6951613310328146e+18,1.0,2.0,-12.0,-5.0,-3.0,-2.0,-2.0,1.0
1.695161331033814e+18,-4.0,-2.0,6.0,4.0,3.0,3.0,1.0,-3.0
1.6951613310348137e+18,0.0,9.0,-8.0,-5.0,-3.0,-3.0,0.0,0.0
1.6951613310348137e+18,-5.0,-11.0,4.0,5.0,3.0,2.0,0.0,-3.0
1.6951613310478057e+18,-1.0,-2.0,-2.0,1.0,1.0,-1.0,-1.0,0.0
1.6951613310488054e+18,0.0,5.0,-2.0,-3.0,-1.0,-2.0,-3.0,-2.0
1.6951613310498048e+18,0.0,26.0,-18.0,-6.0,-5.0,-5.0,-5.0,-4.0
1.6951613310498048e+18,0.0,-2.0,-7.0,-2.0,0.0,1.0,0.0,1.0
1.6951613310967777e+18,-5.0,-11.0,16.0,1.0,1.0,1.0,2.0,0.0
1.6951613310967777e+18,1.0,0.0,0.0,-1.0,0.0,-2.0,-3.0,-1.0
1.695161331099776e+18,1.0,0.0,1.0,-2.0,-2.0,-1.0,0.0,1.0
1.6951613311007762e+18,1.0,4.0,-4.0,0.0,-2.0,-4.0,1.0,0.0
1.6951613311017764e+18,0.0,-3.0,-2.0,2.0,1.0,-1.0,0.0,-2.0
1.6951613311017764e+18,0.0,1.0,2.0,-1.0,0.0,-1.0,-1.0,0.0
1.6951613311097702e+18,1.0,-8.0,6.0,1.0,-2.0,-3.0,-1.0,1.0
1.6951613311107743e+18,-1.0,1.0,-3.0,-1.0,0.0,-2.0,0.0,-1.0
1.6951613311117693e+18,-1.0,-3.0,2.0,1.0,0.0,0.0,0.0,-2.0
1.6951613311117693e+18,-1.0,-3.0,-1.0,0.0,-3.0,-1.0,0.0,-2.0
1.695161331113768e+18,-1.0,-7.0,1.0,1.0,-1.0,1.0,0.0,1.0
1.695161331113768e+18,0.0,-4.0,2.0,-3.0,-3.0,1.0,-1.0,0.0
1.6951613311307584e+18,1.0,1.0,-4.0,-2.0,-4.0,2.0,-2.0,1.0
1.6951613311307584e+18,2.0,0.0,-1.0,1.0,-1.0,-2.0,0.0,0.0
1.6951613311327572e+18,1.0,1.0,-7.0,-5.0,-2.0,-1.0,-1.0,-1.0
1.6951613311327572e+18,0.0,2.0,-1.0,0.0,0.0,-2.0,-1.0,-4.0
1.6951613311437507e+18,0.0,-1.0,-1.0,-2.0,1.0,-3.0,-1.0,-2.0
1.6951613311447503e+18,-3.0,1.0,-1.0,-2.0,0.0,-2.0,1.0,0.0
1.6951613311777375e+18,-1.0,-5.0,3.0,2.0,2.0,0.0,0.0,1.0
1.6951613311847334e+18,0.0,1.0,-3.0,-5.0,-2.0,-1.0,-1.0,-1.0
1.6951613311847334e+18,-1.0,-4.0,-1.0,10.0,1.0,0.0,1.0,-2.0
1.6951613311857285e+18,-3.0,-2.0,1.0,-1.0,1.0,-1.0,-1.0,0.0
1.6951613311857285e+18,1.0,-1.0,7.0,-1.0,0.0,-1.0,-1.0,-2.0
1.6951613311857285e+18,-3.0,-7.0,-6.0,-1.0,1.0,0.0,-1.0,-1.0
1.6951613311907308e+18,-2.0,2.0,-2.0,-3.0,0.0,-1.0,-1.0,0.0
1.6951613311907308e+18,0.0,-2.0,-2.0,0.0,-1.0,1.0,-1.0,0.0
1.6951613311917233e+18,-2.0,-3.0,1.0,2.0,-1.0,2.0,-1.0,-1.0
1.6951613311917233e+18,-1.0,-3.0,0.0,-1.0,-2.0,0.0,0.0,1.0
1.6951613312037158e+18,-3.0,-13.0,3.0,2.0,2.0,1.0,0.0,-2.0
1.6951613312047217e+18,-3.0,-5.0,7.0,1.0,1.0,0.0,-1.0,0.0
1.695161331220707e+18,0.0,-3.0,-4.0,-1.0,2.0,-2.0,-1.0,1.0
1.695161331220707e+18,1.0,6.0,1.0,-3.0,-4.0,-3.0,-3.0,-2.0
1.695161331235698e+18,-1.0,2.0,-1.0,-2.0,0.0,-2.0,-1.0,-1.0
1.695161331235698e+18,-1.0,-2.0,-3.0,-1.0,-1.0,0.0,0.0,-1.0
1.6951613312367043e+18,1.0,-2.0,-2.0,0.0,-1.0,0.0,-1.0,1.0
1.6951613312367043e+18,1.0,2.0,-2.0,-2.0,-3.0,-1.0,-3.0,1.0
1.6951613312506893e+18,-2.0,-2.0,1.0,-1.0,-1.0,0.0,0.0,-1.0
1.6951613312506893e+18,2.0,0.0,1.0,-1.0,-1.0,-1.0,-2.0,-3.0
1.6951613312596849e+18,-2.0,-2.0,-3.0,-3.0,1.0,-1.0,-1.0,-3.0
1.69516133126769e+18,-2.0,1.0,0.0,1.0,0.0,-2.0,-1.0,-2.0
1.695161331273683e+18,0.0,1.0,-1.0,-4.0,-3.0,-1.0,-2.0,2.0
1.6951613312746772e+18,-3.0,-3.0,0.0,1.0,2.0,4.0,1.0,0.0
1.6951613312786747e+18,-2.0,-2.0,7.0,2.0,-1.0,0.0,0.0,-1.0
1.6951613312796736e+18,0.0,-4.0,-5.0,-1.0,-1.0,0.0,-1.0,-1.0
1.695161331287669e+18,1.0,-10.0,3.0,5.0,-3.0,-2.0,-1.0,-2.0
1.695161331287669e+18,-8.0,-10.0,4.0,4.0,4.0,2.0,2.0,-3.0
1.695161331295665e+18,0.0,0.0,-1.0,-3.0,-2.0,-1.0,-2.0,-1.0
1.695161331295665e+18,-2.0,0.0,3.0,-3.0,1.0,-1.0,-1.0,-1.0
1.6951613313106552e+18,1.0,5.0,-1.0,-5.0,-3.0,-1.0,-2.0,2.0
1.6951613313116557e+18,3.0,3.0,-5.0,-2.0,-4.0,-2.0,-2.0,1.0
1.6951613313116557e+18,-1.0,-1.0,0.0,0.0,-2.0,-3.0,-3.0,1.0
1.6951613313126538e+18,1.0,3.0,-3.0,-2.0,-2.0,-1.0,-1.0,0.0
1.695161331332649e+18,-3.0,1.0,-4.0,-1.0,0.0,-1.0,-2.0,-2.0
1.6951613313336463e+18,1.0,6.0,-1.0,-1.0,0.0,-2.0,-1.0,0.0
1.695161331334642e+18,-3.0,-2.0,-3.0,2.0,1.0,1.0,0.0,-1.0
1.695161331334642e+18,-1.0,1.0,-11.0,-3.0,-3.0,0.0,0.0,-1.0
1.695161331352659e+18,-1.0,4.0,3.0,-1.0,1.0,-1.0,-1.0,0.0
1.6951613313576294e+18,-2.0,-3.0,-2.0,-2.0,-2.0,-1.0,-2.0,-1.0
1.695161331358628e+18,1.0,2.0,-5.0,-2.0,-2.0,0.0,-2.0,-1.0
1.695161331358628e+18,-1.0,-2.0,-1.0,1.0,1.0,2.0,-1.0,-1.0
1.695161331370632e+18,0.0,2.0,-3.0,-4.0,-4.0,1.0,0.0,0.0
1.695161331370632e+18,2.0,4.0,-6.0,-3.0,-4.0,-4.0,-2.0,1.0
1.6951613313716196e+18,-3.0,-3.0,3.0,1.0,-1.0,-1.0,1.0,-2.0
1.69516133137262e+18,-3.0,-3.0,9.0,1.0,4.0,0.0,0.0,0.0
1.6951613314006042e+18,0.0,3.0,-13.0,-3.0,-1.0,-1.0,0.0,-1.0
1.6951613314006042e+18,1.0,-2.0,3.0,1.0,-1.0,-3.0,-3.0,1.0
1.6951613314016028e+18,1.0,0.0,-3.0,-2.0,-3.0,-3.0,-1.0,-1.0
1.6951613314016028e+18,-2.0,-1.0,2.0,1.0,-2.0,-1.0,1.0,-1.0
1.695161331407599e+18,-1.0,1.0,1.0,0.0,-1.0,-1.0,-1.0,-1.0
1.695161331408599e+18,-2.0,-1.0,-4.0,-1.0,-1.0,0.0,-2.0,0.0
1.6951613314095995e+18,1.0,-3.0,-1.0,-1.0,-1.0,-1.0,-1.0,-1.0
1.6951613314095995e+18,-3.0,-7.0,7.0,4.0,3.0,1.0,-1.0,-2.0
1.6951613314375828e+18,-3.0,-6.0,-2.0,-1.0,2.0,-2.0,-1.0,-3.0
1.6951613314385876e+18,-1.0,-3.0,-1.0,-2.0,0.0,0.0,1.0,-2.0
1.6951613314405878e+18,-4.0,-6.0,5.0,1.0,2.0,1.0,-2.0,1.0
1.6951613314415803e+18,0.0,0.0,-1.0,-4.0,-3.0,-4.0,-4.0,-1.0
1.6951613314605706e+18,0.0,1.0,-4.0,-2.0,-1.0,-2.0,-1.0,0.0
1.6951613314605706e+18,-2.0,-6.0,5.0,-1.0,1.0,0.0,0.0,0.0
1.6951613314615685e+18,-2.0,-2.0,-1.0,1.0,-1.0,0.0,-1.0,-1.0
1.6951613314625702e+18,1.0,2.0,-7.0,-3.0,-1.0,-1.0,-1.0,1.0
1.6951613314755612e+18,0.0,-2.0,1.0,-3.0,-1.0,0.0,-1.0,1.0
1.6951613314755612e+18,-1.0,3.0,-6.0,-5.0,-3.0,-3.0,0.0,-2.0
1.6951613314765632e+18,-3.0,-1.0,-1.0,1.0,2.0,-2.0,-1.0,-1.0
1.69516133147756e+18,-1.0,3.0,3.0,0.0,-1.0,-1.0,0.0,1.0
1.695161331499547e+18,0.0,0.0,-5.0,1.0,0.0,0.0,0.0,-3.0
1.695161331500548e+18,1.0,-3.0,0.0,0.0,-2.0,0.0,0.0,-1.0
1.6951613315015462e+18,0.0,3.0,4.0,0.0,-1.0,0.0,0.0,-2.0
1.6951613315015462e+18,2.0,-1.0,-6.0,-2.0,-3.0,-2.0,-1.0,0.0
1.6951613315215375e+18,-2.0,-2.0,4.0,1.0,0.0,-1.0,1.0,0.0
1.6951613315215375e+18,0.0,5.0,-5.0,-4.0,-2.0,-2.0,0.0,-3.0
1.6951613315265334e+18,0.0,2.0,-5.0,-1.0,-1.0,-1.0,-2.0,0.0
1.6951613315265334e+18,1.0,-1.0,2.0,-4.0,-4.0,0.0,-2.0,-1.0
1.695161331534525e+18,-2.0,9.0,-10.0,-6.0,-4.0,-2.0,-3.0,-3.0
1.6951613315355264e+18,-1.0,1.0,-2.0,2.0,1.0,1.0,0.0,-1.0
1.6951613315365243e+18,0.0,0.0,-1.0,-2.0,-1.0,0.0,0.0,0.0
1.6951613315365243e+18,-1.0,1.0,-1.0,0.0,-1.0,-3.0,0.0,1.0
1.69516133154952e+18,-2.0,-4.0,3.0,1.0,2.0,0.0,1.0,-1.0
1.6951613315505354e+18,1.0,2.0,-3.0,-1.0,-2.0,-1.0,-3.0,0.0
1.6951613315515162e+18,-3.0,-3.0,0.0,-1.0,-1.0,-1.0,-1.0,-2.0
1.6951613315515162e+18,-1.0,-1.0,-3.0,0.0,1.0,-1.0,-1.0,-1.0
1.6951613315725059e+18,1.0,-7.0,3.0,0.0,-1.0,0.0,-1.0,3.0
1.6951613315725059e+18,0.0,-2.0,-1.0,1.0,0.0,0.0,1.0,-1.0
1.6951613315735035e+18,-1.0,-1.0,2.0,0.0,-1.0,1.0,1.0,-1.0
1.6951613315745037e+18,-1.0,0.0,-1.0,-1.0,1.0,-2.0,0.0,-3.0
1.6951613315865178e+18,0.0,1.0,1.0,-1.0,-2.0,-1.0,-2.0,0.0
1.6951613315874954e+18,1.0,0.0,1.0,-2.0,-2.0,-1.0,-1.0,0.0
1.695161331610504e+18,1.0,0.0,-7.0,-1.0,-4.0,-1.0,-1.0,0.0
1.695161331610504e+18,-2.0,-2.0,-1.0,0.0,-2.0,0.0,-2.0,-2.0
1.6951613316114819e+18,-2.0,-3.0,3.0,-2.0,-1.0,-2.0,-1.0,1.0
1.6951613316114819e+18,-2.0,0.0,-1.0,2.0,-2.0,-2.0,-3.0,-1.0
1.6951613316124808e+18,0.0,0.0,2.0,0.0,0.0,-3.0,-1.0,1.0
1.6951613316134804e+18,0.0,3.0,-2.0,-2.0,-2.0,-1.0,0.0,0.0
1.6951613316495442e+18,-1.0,-4.0,3.0,1.0,0.0,2.0,0.0,-2.0
1.695161331650552e+18,-1.0,-1.0,2.0,-5.0,1.0,0.0,-1.0,1.0
1.695161331650552e+18,-3.0,-2.0,0.0,-1.0,1.0,0.0,0.0,0.0
1.6951613316515476e+18,0.0,4.0,-2.0,1.0,-1.0,-1.0,-1.0,-1.0
1.6951613316515476e+18,0.0,-1.0,-1.0,-1.0,-1.0,-1.0,1.0,-2.0
1.6951613316515476e+18,-3.0,-3.0,0.0,1.0,-1.0,-1.0,2.0,0.0
1.695161331662604e+18,2.0,0.0,-3.0,-1.0,-3.0,-2.0,0.0,1.0
1.6951613316636068e+18,-1.0,-1.0,-3.0,1.0,1.0,0.0,0.0,0.0
1.6951613316705994e+18,-1.0,0.0,0.0,1.0,-1.0,-1.0,1.0,-1.0
1.695161331671598e+18,0.0,-2.0,0.0,0.0,-1.0,0.0,-1.0,1.0
1.6951613316725978e+18,0.0,-1.0,-3.0,-3.0,-1.0,-2.0,-1.0,1.0
1.6951613316725978e+18,0.0,-3.0,3.0,-1.0,-2.0,1.0,0.0,-1.0
1.6951613317005814e+18,-2.0,4.0,-4.0,0.0,1.0,-2.0,-1.0,0.0
1.6951613317015818e+18,0.0,7.0,-7.0,-1.0,-2.0,-1.0,-1.0,-1.0
1.6951613317025818e+18,-3.0,-1.0,-2.0,-2.0,0.0,-1.0,-1.0,-1.0
1.6951613317035804e+18,0.0,0.0,4.0,1.0,1.0,0.0,1.0,0.0
1.6951613317225764e+18,-1.0,-5.0,-7.0,-2.0,-2.0,1.0,-1.0,-1.0
1.6951613317235684e+18,0.0,-2.0,-2.0,-5.0,0.0,-1.0,-1.0,0.0
1.6951613317245686e+18,-3.0,-6.0,5.0,5.0,2.0,1.0,0.0,-1.0
1.6951613317245686e+18,-3.0,-4.0,5.0,6.0,2.0,0.0,0.0,-2.0
1.695161331730565e+18,2.0,4.0,1.0,-3.0,0.0,-3.0,0.0,-2.0
1.6951613317315638e+18,-2.0,-5.0,-1.0,0.0,-1.0,0.0,1.0,0.0
1.6951613317325637e+18,1.0,-3.0,-4.0,-5.0,-3.0,-2.0,0.0,-4.0
1.6951613317325637e+18,0.0,-1.0,-2.0,-2.0,-3.0,-2.0,-2.0,0.0
1.6951613317605476e+18,-2.0,-3.0,2.0,2.0,-2.0,0.0,-1.0,0.0
1.6951613317605476e+18,-2.0,-3.0,0.0,0.0,0.0,-1.0,-1.0,-1.0
1.6951613317615473e+18,-1.0,4.0,-2.0,-2.0,-1.0,-2.0,-2.0,-1.0
1.695161331762546e+18,0.0,0.0,-6.0,-2.0,-1.0,-1.0,0.0,-1.0
1.6951613317675433e+18,0.0,0.0,4.0,0.0,-2.0,1.0,-4.0,-1.0
1.6951613317675433e+18,0.0,-2.0,0.0,0.0,-1.0,-2.0,0.0,-3.0
1.695161331775538e+18,-1.0,0.0,3.0,0.0,-2.0,-1.0,0.0,0.0
1.695161331775538e+18,-1.0,-2.0,-2.0,-3.0,-2.0,-1.0,-2.0,-1.0
1.695161331813539e+18,-2.0,-2.0,-1.0,-1.0,0.0,0.0,-1.0,-1.0
1.695161331814518e+18,0.0,-1.0,0.0,1.0,-2.0,0.0,-3.0,0.0
1.6951613318155151e+18,-1.0,3.0,-2.0,-1.0,1.0,-1.0,-1.0,-1.0
1.695161331816518e+18,-1.0,-8.0,-5.0,-4.0,-1.0,-1.0,-1.0,2.0
1.695161331816518e+18,-2.0,-1.0,-5.0,-5.0,-1.0,0.0,0.0,0.0
1.695161331816518e+18,-3.0,-1.0,5.0,2.0,1.0,0.0,-1.0,-1.0
1.6951613318285071e+18,1.0,1.0,-9.0,-2.0,0.0,-1.0,-1.0,-1.0
1.6951613318285071e+18,0.0,2.0,-1.0,-3.0,-2.0,-1.0,0.0,-1.0
1.6951613318295068e+18,-1.0,-1.0,-6.0,-1.0,-1.0,-1.0,0.0,0.0
1.6951613318295068e+18,0.0,-1.0,9.0,-4.0,-1.0,-1.0,-1.0,-2.0
1.6951613318355036e+18,0.0,-4.0,1.0,-2.0,-3.0,-1.0,-1.0,-1.0
1.6951613318355036e+18,0.0,0.0,1.0,1.0,1.0,2.0,0.0,1.0
1.695161331856511e+18,0.0,-3.0,1.0,5.0,0.0,-1.0,-1.0,-1.0
1.695161331856511e+18,-2.0,-5.0,0.0,1.0,2.0,1.0,-1.0,-1.0
1.695161331856511e+18,0.0,2.0,-1.0,1.0,-2.0,0.0,0.0,1.0
1.695161331856511e+18,-1.0,1.0,-2.0,-2.0,-1.0,-1.0,0.0,-3.0
1.6951613318724805e+18,-1.0,-2.0,3.0,-1.0,-2.0,-2.0,-1.0,-2.0
1.6951613318724805e+18,-2.0,-4.0,-2.0,1.0,2.0,-1.0,-1.0,0.0
1.695161331873482e+18,0.0,-1.0,0.0,-1.0,-1.0,-1.0,-2.0,0.0
1.69516133187448e+18,1.0,1.0,-2.0,-4.0,-3.0,-2.0,-2.0,-1.0
1.6951613318874747e+18,-1.0,2.0,1.0,-1.0,1.0,-3.0,0.0,-3.0
1.6951613318874747e+18,-2.0,2.0,-5.0,-4.0,-1.0,-3.0,1.0,0.0
1.695161331902486e+18,-2.0,-5.0,0.0,0.0,1.0,-1.0,1.0,0.0
1.695161331902486e+18,-1.0,1.0,-2.0,1.0,-1.0,2.0,-1.0,0.0
1.6951613319244513e+18,0.0,0.0,0.0,0.0,0.0,-1.0,0.0,1.0
1.6951613319254523e+18,1.0,1.0,-2.0,-3.0,-1.0,-2.0,-1.0,0.0
1.6951613319264504e+18,-2.0,-2.0,0.0,0.0,-1.0,-1.0,0.0,-1.0
1.6951613319264504e+18,-1.0,0.0,5.0,1.0,-1.0,-1.0,0.0,-2.0
1.6951613319544353e+18,-1.0,-3.0,-8.0,-2.0,0.0,0.0,0.0,0.0
1.6951613319544353e+18,-2.0,-2.0,-3.0,-2.0,0.0,-1.0,-1.0,0.0
1.6951613319644314e+18,-1.0,1.0,1.0,1.0,0.0,0.0,0.0,1.0
1.6951613319654292e+18,0.0,-3.0,2.0,-1.0,0.0,-3.0,-1.0,-1.0
1.6951613319654292e+18,-2.0,-1.0,3.0,0.0,0.0,0.0,0.0,-1.0
1.6951613319654292e+18,1.0,0.0,-3.0,2.0,0.0,-1.0,-1.0,0.0
1.69516133197942e+18,-1.0,3.0,-3.0,-1.0,0.0,-1.0,-2.0,-2.0
1.69516133197942e+18,-2.0,-2.0,4.0,-3.0,-1.0,-1.0,-2.0,0.0
1.6951613319814188e+18,-3.0,-3.0,-1.0,-1.0,0.0,-1.0,0.0,-1.0
1.6951613319814188e+18,0.0,0.0,-1.0,-1.0,-2.0,-3.0,1.0,-1.0
1.69516133198342e+18,1.0,-1.0,1.0,-2.0,-1.0,-1.0,0.0,-2.0
1.69516133198342e+18,-2.0,-3.0,-5.0,1.0,0.0,0.0,0.0,-2.0
1.6951613319924216e+18,3.0,-1.0,-2.0,-2.0,-3.0,-2.0,-2.0,1.0
1.6951613319924216e+18,-3.0,-2.0,1.0,0.0,-1.0,-1.0,-1.0,-2.0
1.6951613319984087e+18,0.0,0.0,0.0,-1.0,-2.0,-2.0,0.0,-1.0
1.6951613319984087e+18,0.0,1.0,-2.0,-2.0,-1.0,-3.0,0.0,-2.0
1.6951613320149809e+18,-1.0,-3.0,4.0,-1.0,2.0,1.0,-1.0,0.0
1.6951613320157914e+18,0.0,2.0,-3.0,0.0,-1.0,0.0,-1.0,-1.0
1.695161332016796e+18,1.0,-2.0,4.0,-2.0,-1.0,-1.0,0.0,0.0
1.695161332016796e+18,0.0,1.0,-4.0,-3.0,-2.0,-2.0,0.0,-2.0
1.6951613320305252e+18,0.0,1.0,3.0,1.0,-1.0,-1.0,0.0,-2.0
1.6951613320305252e+18,1.0,-1.0,-2.0,-2.0,-2.0,-1.0,0.0,-1.0
1.6951613320315538e+18,-3.0,-3.0,0.0,-1.0,2.0,1.0,-1.0,0.0
1.6951613320315538e+18,0.0,1.0,1.0,0.0,0.0,0.0,-2.0,-1.0
1.695161332052524e+18,-2.0,0.0,-11.0,-3.0,-1.0,-1.0,0.0,-1.0
1.6951613320535196e+18,0.0,0.0,1.0,0.0,1.0,1.0,-2.0,0.0
1.695161332054519e+18,-2.0,-2.0,-2.0,-1.0,0.0,1.0,-1.0,0.0
1.695161332054519e+18,-2.0,-2.0,1.0,1.0,0.0,0.0,-3.0,0.0
1.6951613320735089e+18,0.0,0.0,2.0,-2.0,-3.0,-1.0,0.0,-2.0
1.6951613320735089e+18,0.0,0.0,0.0,-1.0,-1.0,-1.0,1.0,-1.0
1.6951613320755075e+18,-2.0,0.0,-3.0,0.0,-2.0,0.0,-1.0,0.0
1.6951613320755075e+18,-1.0,-3.0,-1.0,2.0,2.0,0.0,-1.0,-1.0
1.6951613320904983e+18,0.0,1.0,-1.0,1.0,-1.0,0.0,-2.0,0.0
1.6951613320904983e+18,0.0,0.0,-1.0,-3.0,-2.0,-2.0,0.0,0.0
1.6951613320915036e+18,-1.0,-2.0,4.0,-5.0,-2.0,-2.0,0.0,0.0
1.6951613320925038e+18,0.0,-2.0,-3.0,-1.0,-2.0,-1.0,0.0,1.0
1.6951613321124884e+18,1.0,0.0,4.0,1.0,-2.0,-1.0,-2.0,-2.0
1.695161332113488e+18,-2.0,-2.0,-2.0,1.0,-3.0,0.0,0.0,-1.0
1.6951613321144845e+18,-1.0,-2.0,-2.0,4.0,-2.0,-1.0,-1.0,-1.0
1.6951613321144845e+18,-1.0,-1.0,1.0,-3.0,1.0,0.0,-1.0,-1.0
1.6951613321264778e+18,-1.0,-1.0,-11.0,-4.0,0.0,0.0,0.0,-2.0
1.695161332127478e+18,-2.0,-1.0,0.0,-2.0,0.0,-2.0,-1.0,-1.0
1.6951613321494648e+18,0.0,0.0,-3.0,-3.0,-2.0,-2.0,-1.0,-2.0
1.695161332154465e+18,0.0,-2.0,-2.0,-1.0,-3.0,0.0,-1.0,-1.0
1.6951613321654556e+18,-1.0,0.0,6.0,1.0,-5.0,-1.0,-3.0,0.0
1.6951613321664573e+18,-1.0,-1.0,-2.0,2.0,6.0,3.0,1.0,2.0
1.6951613321664573e+18,1.0,0.0,-5.0,12.0,0.0,-1.0,-2.0,0.0
1.6951613321674588e+18,-2.0,-2.0,-1.0,-16.0,-4.0,-4.0,-3.0,-2.0
1.6951613321724508e+18,-1.0,1.0,0.0,0.0,1.0,1.0,-4.0,-1.0
1.6951613321724508e+18,0.0,-1.0,-4.0,-4.0,-5.0,-3.0,-4.0,-4.0
1.695161332203434e+18,0.0,-2.0,2.0,2.0,3.0,0.0,5.0,0.0
1.6951613322044388e+18,0.0,-2.0,-5.0,1.0,-2.0,-1.0,0.0,0.0
1.6951613322044388e+18,-4.0,-5.0,-3.0,2.0,2.0,-3.0,-2.0,-1.0
1.6951613322044388e+18,0.0,0.0,-5.0,-13.0,-8.0,-3.0,-4.0,-4.0
1.6951613322054326e+18,-1.0,0.0,0.0,8.0,13.0,5.0,1.0,0.0
1.6951613322064353e+18,-1.0,1.0,3.0,1.0,-11.0,-3.0,0.0,-3.0
1.6951613322174246e+18,0.0,-1.0,1.0,4.0,11.0,-1.0,1.0,1.0
1.6951613322184256e+18,1.0,-1.0,-5.0,1.0,1.0,-2.0,1.0,7.0
1.695161332219425e+18,-2.0,-3.0,7.0,-28.0,-16.0,3.0,2.0,-20.0
1.695161332219425e+18,3.0,4.0,-5.0,13.0,6.0,4.0,0.0,7.0
1.695161332236416e+18,-2.0,-3.0,1.0,-7.0,1.0,-2.0,-5.0,-3.0
1.695161332236416e+18,2.0,5.0,2.0,8.0,-4.0,-5.0,-2.0,3.0
1.695161332237415e+18,-10.0,-18.0,-1.0,1.0,-8.0,-8.0,-3.0,-14.0
1.695161332237415e+18,-2.0,-5.0,-3.0,-3.0,6.0,3.0,-2.0,6.0
1.6951613322554038e+18,3.0,4.0,1.0,0.0,-10.0,-1.0,2.0,1.0
1.6951613322564045e+18,0.0,4.0,-1.0,1.0,2.0,-2.0,-4.0,-4.0
1.6951613322564045e+18,2.0,-1.0,-5.0,-3.0,1.0,0.0,0.0,6.0
1.6951613322574083e+18,-2.0,-1.0,0.0,3.0,-4.0,-2.0,1.0,-5.0
1.6951613322783913e+18,-1.0,-1.0,0.0,-4.0,1.0,-2.0,-3.0,-4.0
1.6951613322783913e+18,-1.0,-3.0,-3.0,-11.0,1.0,4.0,3.0,0.0
1.695161332279391e+18,-2.0,4.0,2.0,10.0,0.0,-5.0,-4.0,0.0
1.6951613322804186e+18,-2.0,-5.0,-3.0,-11.0,-2.0,-5.0,0.0,3.0
1.6951613322924106e+18,2.0,3.0,2.0,3.0,-4.0,0.0,1.0,3.0
1.695161332293386e+18,-1.0,-1.0,4.0,4.0,-2.0,-2.0,-3.0,-4.0
1.6951613322943818e+18,-1.0,-1.0,-12.0,-9.0,-4.0,0.0,-4.0,4.0
1.6951613322943818e+18,0.0,2.0,5.0,14.0,15.0,1.0,-1.0,-3.0
1.6951613323253924e+18,-3.0,-7.0,-12.0,-7.0,-5.0,-3.0,-2.0,-4.0
1.6951613323253924e+18,-2.0,-4.0,0.0,5.0,-7.0,2.0,1.0,-1.0
1.695161332326364e+18,0.0,3.0,1.0,-1.0,10.0,-1.0,-2.0,2.0
1.695161332326364e+18,-1.0,-1.0,6.0,12.0,11.0,8.0,3.0,0.0
1.6951613323293673e+18,0.0,7.0,2.0,-4.0,-6.0,1.0,-5.0,-2.0
1.6951613323303608e+18,-2.0,-9.0,-4.0,-6.0,2.0,-2.0,-2.0,-2.0
1.6951613323363566e+18,4.0,6.0,-1.0,9.0,11.0,-2.0,2.0,3.0
1.695161332337357e+18,1.0,4.0,-7.0,-16.0,-18.0,-13.0,-8.0,-7.0
1.695161332352347e+18,-7.0,-12.0,5.0,20.0,19.0,10.0,15.0,1.0
1.6951613323533476e+18,2.0,10.0,0.0,-12.0,-13.0,-1.0,-1.0,9.0
1.6951613323543473e+18,3.0,-4.0,-1.0,-8.0,-10.0,-5.0,-16.0,-12.0
1.6951613323543473e+18,-4.0,-4.0,-2.0,-2.0,8.0,6.0,8.0,2.0
1.695161332392326e+18,3.0,3.0,0.0,1.0,-6.0,0.0,7.0,0.0
1.6951613324033472e+18,-11.0,-4.0,0.0,-6.0,-6.0,-1.0,-4.0,-8.0
1.6951613324043195e+18,2.0,-5.0,1.0,6.0,-9.0,-8.0,-11.0,17.0
1.6951613324053176e+18,10.0,-3.0,-7.0,8.0,6.0,-15.0,-5.0,0.0
1.6951613324053176e+18,-1.0,1.0,1.0,-8.0,-2.0,11.0,-8.0,-9.0
1.6951613324053176e+18,7.0,3.0,2.0,8.0,11.0,7.0,28.0,27.0
1.695161332407345e+18,-8.0,9.0,1.0,-13.0,-16.0,0.0,9.0,-18.0
1.695161332407345e+18,-7.0,-6.0,-4.0,-10.0,-5.0,-9.0,-32.0,-25.0
1.6951613324203098e+18,3.0,-2.0,2.0,5.0,3.0,-6.0,3.0,26.0
1.695161332421309e+18,4.0,1.0,2.0,17.0,17.0,1.0,-15.0,0.0
1.695161332422308e+18,-5.0,-8.0,-2.0,-10.0,0.0,14.0,19.0,16.0
1.6951613324233085e+18,7.0,7.0,6.0,6.0,-6.0,6.0,12.0,-1.0
1.6951613324433e+18,-5.0,11.0,-4.0,-11.0,-12.0,-5.0,3.0,-6.0
1.6951613324433e+18,4.0,-18.0,3.0,-1.0,-5.0,2.0,1.0,-21.0
1.6951613324443008e+18,0.0,9.0,0.0,8.0,6.0,-1.0,9.0,14.0
1.695161332445295e+18,-7.0,-9.0,-12.0,-3.0,-3.0,-7.0,-8.0,-18.0
1.6951613324492936e+18,-2.0,11.0,16.0,4.0,6.0,4.0,-9.0,-19.0
1.6951613324492936e+18,-1.0,-12.0,-19.0,-19.0,-12.0,-10.0,1.0,34.0
1.695161332458299e+18,4.0,-3.0,-4.0,13.0,7.0,-2.0,-16.0,-38.0
1.695161332458299e+18,-18.0,4.0,3.0,-6.0,0.0,1.0,-6.0,18.0
1.6951613325192545e+18,21.0,-2.0,-8.0,4.0,5.0,7.0,28.0,8.0
1.6951613325202542e+18,-7.0,9.0,6.0,-8.0,-7.0,-1.0,-12.0,-23.0
1.6951613325202542e+18,0.0,-14.0,0.0,-2.0,-4.0,-9.0,9.0,24.0
1.6951613325202542e+18,4.0,9.0,-9.0,-3.0,-9.0,-11.0,3.0,-19.0
1.6951613325212506e+18,-15.0,-2.0,-1.0,2.0,0.0,11.0,-16.0,-7.0
1.6951613325212506e+18,1.0,-1.0,15.0,5.0,11.0,-1.0,-20.0,-10.0
1.6951613325342446e+18,-2.0,7.0,-9.0,-5.0,-4.0,-2.0,13.0,10.0
1.6951613325342446e+18,11.0,-4.0,7.0,1.0,0.0,10.0,27.0,-3.0
1.6951613325352448e+18,-1.0,-4.0,-11.0,-9.0,-10.0,-11.0,-10.0,24.0
1.6951613325352448e+18,-6.0,8.0,0.0,9.0,5.0,-3.0,-5.0,-10.0
1.6951613325362417e+18,17.0,-2.0,-5.0,-13.0,-16.0,-9.0,-3.0,0.0
1.6951613325362417e+18,14.0,5.0,-13.0,6.0,1.0,3.0,9.0,2.0
1.6951613325722212e+18,7.0,2.0,8.0,-2.0,3.0,-1.0,-6.0,7.0
1.6951613325722212e+18,-3.0,11.0,20.0,1.0,-1.0,0.0,3.0,9.0
1.6951613325732209e+18,-19.0,-37.0,-11.0,-4.0,-1.0,-3.0,-21.0,-2.0
1.6951613325732209e+18,6.0,10.0,-22.0,-6.0,-8.0,-4.0,9.0,12.0
1.6951613325762196e+18,4.0,2.0,-31.0,-4.0,2.0,-3.0,-8.0,-16.0
1.6951613325762196e+18,5.0,-9.0,7.0,19.0,6.0,0.0,-4.0,14.0
1.695161332593789e+18,12.0,6.0,19.0,-23.0,-10.0,0.0,7.0,3.0
1.695161332593789e+18,-21.0,-9.0,13.0,3.0,4.0,-1.0,-10.0,6.0
1.6951613325947912e+18,13.0,13.0,4.0,5.0,1.0,0.0,-6.0,-26.0
1.6951613325957908e+18,-2.0,-1.0,-16.0,-2.0,1.0,9.0,0.0,-13.0
1.6951613325957908e+18,-9.0,-1.0,8.0,4.0,0.0,-1.0,14.0,16.0
1.6951613325957908e+18,3.0,-9.0,21.0,19.0,13.0,-2.0,-8.0,-2.0
1.6951613326245655e+18,-2.0,-2.0,-32.0,-21.0,-18.0,-7.0,-15.0,-7.0
1.6951613326245655e+18,0.0,13.0,27.0,0.0,-2.0,-3.0,-8.0,-16.0
1.6951613326255647e+18,-3.0,3.0,-30.0,-5.0,12.0,6.0,13.0,-3.0
1.6951613326255647e+18,-17.0,8.0,0.0,-11.0,-12.0,-7.0,-8.0,-40.0
1.695161332629279e+18,2.0,0.0,-18.0,10.0,-3.0,0.0,8.0,37.0
1.695161332629279e+18,-1.0,-26.0,32.0,5.0,-3.0,-4.0,-9.0,11.0
1.695161332630283e+18,6.0,14.0,-12.0,12.0,18.0,5.0,6.0,-50.0
1.695161332630283e+18,-11.0,-5.0,15.0,0.0,-13.0,1.0,3.0,26.0
1.6951613326445898e+18,-7.0,-9.0,1.0,-13.0,-8.0,-5.0,-18.0,-3.0
1.6951613326455928e+18,5.0,15.0,-15.0,-9.0,-6.0,1.0,5.0,5.0
1.6951613326525842e+18,7.0,-17.0,-7.0,2.0,-12.0,-14.0,-19.0,6.0
1.6951613326525842e+18,-17.0,-7.0,17.0,10.0,16.0,10.0,17.0,2.0
1.6951613326535892e+18,12.0,-5.0,-22.0,-14.0,-10.0,1.0,14.0,6.0
1.6951613326545853e+18,-6.0,-4.0,-19.0,-7.0,0.0,0.0,-5.0,3.0
1.695161332674755e+18,-7.0,3.0,16.0,-8.0,-12.0,-14.0,-23.0,-13.0
1.695161332674755e+18,9.0,-7.0,-41.0,-11.0,5.0,9.0,5.0,4.0
1.695161332681592e+18,-9.0,6.0,39.0,15.0,19.0,7.0,6.0,0.0
1.695161332681592e+18,14.0,-5.0,-22.0,-8.0,-5.0,-3.0,-14.0,11.0
1.6951613326885885e+18,-3.0,3.0,17.0,-3.0,-8.0,-7.0,4.0,6.0
1.6951613326885885e+18,0.0,-5.0,2.0,-3.0,-5.0,0.0,6.0,-40.0
1.6951613326986176e+18,0.0,7.0,17.0,-4.0,1.0,1.0,-1.0,27.0
1.6951613326986176e+18,-10.0,-10.0,-38.0,2.0,2.0,-5.0,-16.0,-21.0
1.6951613327136074e+18,11.0,8.0,3.0,9.0,-5.0,-3.0,2.0,26.0
1.6951613327146076e+18,6.0,9.0,12.0,3.0,5.0,0.0,10.0,0.0
1.6951613327196042e+18,-27.0,6.0,-4.0,6.0,14.0,9.0,8.0,-28.0
1.6951613327196042e+18,1.0,-6.0,12.0,10.0,-7.0,-12.0,-19.0,-5.0
1.6951613327615795e+18,-22.0,-7.0,19.0,-14.0,-5.0,9.0,14.0,19.0
1.6951613327615795e+18,18.0,-1.0,-40.0,18.0,15.0,11.0,3.0,-1.0
1.695161332762588e+18,11.0,21.0,14.0,-3.0,2.0,-4.0,-11.0,-18.0
1.695161332762588e+18,2.0,-16.0,-8.0,-16.0,-4.0,3.0,16.0,-7.0
1.695161332763585e+18,-15.0,13.0,26.0,22.0,14.0,-3.0,2.0,-15.0
1.6951613327645852e+18,10.0,-3.0,-46.0,-6.0,-6.0,-3.0,-11.0,19.0
1.6951613327655834e+18,-18.0,-31.0,36.0,-6.0,-14.0,-15.0,-14.0,2.0
1.6951613327675835e+18,13.0,3.0,6.0,-11.0,-4.0,11.0,9.0,22.0
1.6951613327735744e+18,-10.0,-4.0,-4.0,0.0,-1.0,-5.0,-19.0,-35.0
1.6951613327745733e+18,3.0,-11.0,-7.0,-9.0,-7.0,4.0,13.0,3.0
1.6951613327755725e+18,-1.0,10.0,0.0,-1.0,-1.0,-1.0,-4.0,15.0
1.695161332776573e+18,-8.0,1.0,9.0,-11.0,-8.0,-1.0,13.0,2.0
1.6951613327955604e+18,4.0,-5.0,-6.0,20.0,17.0,5.0,1.0,4.0
1.695161332796566e+18,-24.0,-2.0,24.0,-6.0,0.0,-6.0,-17.0,-5.0
1.6951613327975652e+18,11.0,-5.0,-35.0,-6.0,-4.0,-5.0,-2.0,-5.0
1.6951613327975652e+18,-2.0,2.0,18.0,2.0,9.0,11.0,0.0,1.0
1.695161332809553e+18,8.0,16.0,-13.0,8.0,-3.0,-3.0,7.0,-11.0
1.695161332809553e+18,-10.0,-14.0,24.0,-1.0,-10.0,-6.0,-2.0,-16.0
1.6951613328345393e+18,11.0,-21.0,0.0,1.0,2.0,1.0,3.0,4.0
1.6951613328355433e+18,-2.0,19.0,-6.0,9.0,14.0,-1.0,-5.0,-7.0
1.6951613328355433e+18,-2.0,-6.0,-5.0,-10.0,-18.0,-8.0,-13.0,7.0
1.6951613328355433e+18,-3.0,2.0,10.0,-1.0,9.0,-2.0,-6.0,3.0
1.6951613328485307e+18,5.0,13.0,-5.0,-3.0,-15.0,-3.0,1.0,-9.0
1.6951613328485307e+18,27.0,-17.0,0.0,-4.0,-11.0,-7.0,3.0,44.0
1.6951613328715236e+18,-13.0,-5.0,-3.0,-3.0,16.0,17.0,8.0,-4.0
1.6951613328775145e+18,0.0,10.0,15.0,3.0,-6.0,-8.0,-8.0,-1.0
1.6951613328785137e+18,4.0,-10.0,-9.0,-4.0,-1.0,2.0,8.0,-10.0
1.6951613328785137e+18,-30.0,27.0,-14.0,-6.0,7.0,-7.0,-5.0,-12.0
1.695161332879521e+18,0.0,-24.0,-30.0,4.0,-3.0,-4.0,-16.0,-17.0
1.695161332879521e+18,16.0,11.0,30.0,4.0,-5.0,0.0,16.0,25.0
1.695161332879521e+18,-9.0,15.0,-6.0,13.0,2.0,-6.0,-25.0,-11.0
1.695161332879521e+18,-8.0,-7.0,-25.0,-28.0,-15.0,0.0,-2.0,3.0
1.695161332892517e+18,-6.0,5.0,-10.0,-5.0,-9.0,-8.0,6.0,20.0
1.695161332892517e+18,15.0,0.0,-21.0,-13.0,1.0,4.0,16.0,-5.0
1.6951613329224888e+18,-23.0,16.0,17.0,6.0,-2.0,-4.0,-3.0,2.0
1.6951613329235013e+18,-1.0,-12.0,0.0,-2.0,-5.0,1.0,-4.0,-7.0
1.6951613329464748e+18,1.0,6.0,9.0,26.0,32.0,10.0,2.0,-4.0
1.6951613329474744e+18,7.0,11.0,-36.0,-14.0,-9.0,-2.0,13.0,14.0
1.6951613329484736e+18,-2.0,-34.0,21.0,-2.0,-2.0,-4.0,-9.0,-6.0
1.6951613329494781e+18,4.0,8.0,10.0,-2.0,-5.0,-6.0,-6.0,0.0
1.6951613329664957e+18,15.0,-6.0,1.0,-8.0,-12.0,4.0,31.0,35.0
1.695161332985454e+18,-5.0,11.0,-5.0,0.0,6.0,0.0,-18.0,-19.0
1.695161332989457e+18,-16.0,-33.0,-19.0,11.0,8.0,10.0,16.0,1.0
