timestamp,EMG_s0,EMG_s1,EMG_s2,EMG_s3,EMG_s4,EMG_s5,EMG_s6,EMG_s7
1.6951610101931034e+18,0.0,0.0,-1.0,0.0,0.0,1.0,-1.0,0.0
1.695161010194095e+18,-1.0,-2.0,-3.0,-2.0,-3.0,-1.0,0.0,-2.0
1.695161010194095e+18,-1.0,-2.0,-1.0,-3.0,-1.0,0.0,-1.0,-1.0
1.695161010194095e+18,-1.0,1.0,-2.0,0.0,0.0,0.0,0.0,-1.0
1.6951610101950802e+18,-1.0,-3.0,6.0,-1.0,-3.0,-2.0,-1.0,-1.0
1.6951610101950802e+18,-1.0,-3.0,-1.0,0.0,1.0,1.0,0.0,0.0
1.6951610101981005e+18,-1.0,-1.0,-3.0,1.0,0.0,0.0,-1.0,1.0
1.6951610101981005e+18,-1.0,0.0,2.0,1.0,-1.0,0.0,-1.0,-1.0
1.6951610102160696e+18,-2.0,1.0,-8.0,-3.0,-1.0,-1.0,-2.0,-1.0
1.6951610102160696e+18,-2.0,3.0,12.0,-1.0,0.0,0.0,-1.0,1.0
1.6951610102180695e+18,-1.0,-2.0,-18.0,0.0,0.0,0.0,-2.0,-2.0
1.6951610102180695e+18,-2.0,-1.0,10.0,0.0,0.0,-2.0,0.0,0.0
1.6951610102210872e+18,1.0,0.0,-3.0,0.0,2.0,0.0,1.0,0.0
1.6951610102210872e+18,-1.0,1.0,-3.0,-2.0,-3.0,-2.0,0.0,1.0
1.6951610102240632e+18,-1.0,-3.0,3.0,-4.0,0.0,0.0,0.0,-2.0
1.6951610102240632e+18,-2.0,-1.0,-4.0,-1.0,-1.0,-1.0,-1.0,-1.0
1.6951610102550456e+18,-1.0,-1.0,1.0,-1.0,-2.0,-2.0,-1.0,-2.0
1.6951610102550456e+18,0.0,-1.0,-3.0,0.0,1.0,-2.0,-1.0,-1.0
1.6951610102560456e+18,0.0,2.0,0.0,-1.0,-2.0,-3.0,0.0,-1.0
1.6951610102560456e+18,2.0,-4.0,-2.0,2.0,0.0,0.0,1.0,-1.0
1.695161010258044e+18,-2.0,-2.0,1.0,-2.0,0.0,-1.0,-1.0,-2.0
1.695161010258044e+18,-1.0,-2.0,-4.0,2.0,0.0,-1.0,-1.0,-1.0
1.6951610102850304e+18,-1.0,0.0,1.0,-2.0,-2.0,-2.0,-1.0,1.0
1.6951610102850304e+18,1.0,1.0,-1.0,-2.0,-1.0,-2.0,-1.0,-2.0
1.6951610102860278e+18,-1.0,0.0,2.0,2.0,-1.0,0.0,0.0,0.0
1.6951610102860278e+18,1.0,-1.0,-11.0,-1.0,1.0,1.0,-1.0,-2.0
1.695161010298021e+18,-1.0,-1.0,12.0,0.0,2.0,1.0,-1.0,0.0
1.695161010298021e+18,-2.0,-1.0,-1.0,0.0,-2.0,0.0,-2.0,-1.0
1.6951610103010191e+18,0.0,-3.0,-11.0,-3.0,-2.0,-2.0,0.0,-1.0
1.6951610103010191e+18,-1.0,6.0,15.0,0.0,-1.0,-4.0,-1.0,-1.0
1.6951610103200087e+18,-2.0,-7.0,-6.0,-3.0,-1.0,-1.0,0.0,-1.0
1.6951610103200087e+18,0.0,-2.0,-7.0,-2.0,-1.0,-2.0,-1.0,-2.0
1.6951610103609856e+18,0.0,0.0,-1.0,0.0,-1.0,1.0,-2.0,-1.0
1.6951610103609856e+18,-3.0,-4.0,-5.0,1.0,-2.0,0.0,-1.0,-1.0
1.695161010361985e+18,0.0,1.0,6.0,-2.0,-3.0,1.0,-2.0,-1.0
1.695161010361985e+18,0.0,0.0,-5.0,-1.0,0.0,-1.0,0.0,-1.0
1.695161010361985e+18,-1.0,1.0,6.0,0.0,-1.0,-2.0,1.0,-3.0
1.695161010361985e+18,0.0,-1.0,-3.0,-2.0,0.0,0.0,-2.0,1.0
1.6951610103649825e+18,-1.0,2.0,-1.0,5.0,1.0,0.0,-1.0,-1.0
1.6951610103649825e+18,-3.0,-5.0,-9.0,-4.0,-5.0,-2.0,0.0,-2.0
1.6951610103659825e+18,-2.0,2.0,4.0,-2.0,-2.0,-1.0,0.0,-3.0
1.6951610103659825e+18,0.0,-1.0,0.0,0.0,0.0,-2.0,0.0,0.0
1.695161010379974e+18,-2.0,-2.0,-3.0,-2.0,0.0,-2.0,-1.0,-1.0
1.695161010379974e+18,1.0,-1.0,1.0,2.0,-1.0,1.0,-1.0,-1.0
1.6951610103809736e+18,-1.0,-4.0,-6.0,0.0,0.0,-1.0,-1.0,1.0
1.6951610103809736e+18,-1.0,0.0,-1.0,-3.0,-3.0,-2.0,0.0,-1.0
1.6951610103979863e+18,-1.0,-2.0,-4.0,-2.0,-1.0,-1.0,-2.0,-1.0
1.6951610103979863e+18,-1.0,-2.0,-3.0,-1.0,-1.0,-3.0,-1.0,-1.0
1.6951610104089582e+18,-2.0,-2.0,2.0,1.0,1.0,-1.0,-1.0,0.0
1.6951610104089582e+18,-1.0,0.0,-11.0,1.0,0.0,-1.0,-1.0,-2.0
1.6951610104149535e+18,-1.0,-3.0,0.0,1.0,2.0,0.0,-1.0,-1.0
1.6951610104149535e+18,-1.0,0.0,1.0,-4.0,-1.0,2.0,-1.0,0.0
1.6951610104229494e+18,0.0,-2.0,-2.0,2.0,-1.0,-1.0,-2.0,0.0
1.6951610104229494e+18,0.0,5.0,-3.0,-1.0,-1.0,1.0,0.0,-2.0
1.695161010445936e+18,-3.0,-13.0,-3.0,-1.0,0.0,0.0,-1.0,-2.0
1.695161010445936e+18,-1.0,1.0,-9.0,1.0,1.0,-3.0,-2.0,0.0
1.6951610104469358e+18,-1.0,1.0,5.0,-3.0,-2.0,-1.0,-1.0,-1.0
1.6951610104469358e+18,-1.0,-1.0,2.0,0.0,0.0,-1.0,0.0,-2.0
1.6951610104609277e+18,0.0,2.0,1.0,0.0,0.0,-2.0,1.0,-1.0
1.6951610104609277e+18,-1.0,0.0,4.0,-1.0,0.0,-1.0,-1.0,0.0
1.6951610104619277e+18,-1.0,-2.0,-5.0,-3.0,-1.0,-1.0,-1.0,0.0
1.6951610104619277e+18,-1.0,-1.0,0.0,0.0,-1.0,-1.0,0.0,0.0
1.6951610104859139e+18,-1.0,1.0,-3.0,-1.0,0.0,1.0,-1.0,-2.0
1.6951610104859139e+18,-1.0,-3.0,-3.0,1.0,0.0,0.0,-1.0,0.0
1.6951610104859139e+18,-1.0,3.0,4.0,1.0,-1.0,-2.0,-1.0,1.0
1.6951610104859139e+18,-2.0,-4.0,4.0,-1.0,2.0,2.0,0.0,1.0
1.6951610104979284e+18,-1.0,-1.0,-3.0,-1.0,1.0,2.0,1.0,2.0
1.6951610104979284e+18,-1.0,2.0,5.0,1.0,1.0,0.0,0.0,-2.0
1.695161010504925e+18,2.0,-1.0,-3.0,0.0,0.0,-1.0,0.0,0.0
1.695161010504925e+18,-1.0,0.0,4.0,-2.0,-1.0,-4.0,-1.0,-1.0
1.6951610105229156e+18,0.0,1.0,1.0,0.0,-1.0,-2.0,-1.0,2.0
1.6951610105229156e+18,0.0,1.0,1.0,0.0,0.0,1.0,-2.0,-1.0
1.6951610105229156e+18,-1.0,-3.0,-3.0,-2.0,0.0,-2.0,0.0,0.0
1.695161010523892e+18,1.0,-2.0,1.0,-1.0,-2.0,0.0,-1.0,0.0
1.6951610105349084e+18,-1.0,4.0,0.0,0.0,-2.0,0.0,-2.0,0.0
1.6951610105349084e+18,-1.0,-4.0,-5.0,-3.0,-1.0,-1.0,0.0,1.0
1.6951610105428805e+18,2.0,4.0,9.0,-2.0,0.0,0.0,-1.0,-1.0
1.6951610105428805e+18,1.0,5.0,-2.0,-1.0,1.0,0.0,0.0,-1.0
1.695161010559872e+18,0.0,-7.0,5.0,1.0,-1.0,-1.0,0.0,-1.0
1.695161010559872e+18,0.0,2.0,1.0,0.0,0.0,0.0,1.0,-1.0
1.6951610105608712e+18,0.0,0.0,-1.0,-3.0,0.0,1.0,0.0,0.0
1.6951610105608712e+18,-1.0,-2.0,3.0,0.0,-1.0,-2.0,-1.0,-1.0
1.6951610105808814e+18,-1.0,1.0,-15.0,-3.0,-3.0,0.0,-1.0,-2.0
1.6951610105808814e+18,-1.0,0.0,4.0,-1.0,-2.0,0.0,1.0,0.0
1.6951610105818593e+18,-1.0,-2.0,-13.0,-2.0,-1.0,-1.0,1.0,1.0
1.6951610105818593e+18,0.0,2.0,18.0,1.0,-1.0,-1.0,0.0,1.0
1.695161010595873e+18,0.0,0.0,0.0,-1.0,2.0,-1.0,1.0,1.0
1.695161010595873e+18,-1.0,-2.0,5.0,-4.0,-5.0,-4.0,-2.0,-2.0
1.6951610106108644e+18,-2.0,-2.0,-8.0,-2.0,1.0,-2.0,-1.0,-1.0
1.6951610106108644e+18,1.0,-2.0,-1.0,7.0,14.0,8.0,3.0,2.0
1.6951610106178373e+18,0.0,0.0,0.0,5.0,2.0,0.0,1.0,0.0
1.695161010618838e+18,-1.0,2.0,1.0,-2.0,-2.0,0.0,0.0,-1.0
1.695161010618838e+18,0.0,-4.0,7.0,-3.0,2.0,-2.0,-2.0,-2.0
1.695161010618838e+18,-3.0,-2.0,-19.0,0.0,-9.0,-3.0,-1.0,-2.0
1.6951610106478226e+18,0.0,0.0,-1.0,1.0,-3.0,0.0,-2.0,-3.0
1.6951610106478226e+18,-1.0,0.0,-2.0,0.0,0.0,1.0,-1.0,0.0
1.6951610106558382e+18,-1.0,-2.0,-1.0,-2.0,-5.0,-1.0,0.0,-1.0
1.6951610106558382e+18,0.0,-1.0,-2.0,-3.0,0.0,-1.0,1.0,1.0
1.6951610106718075e+18,0.0,2.0,0.0,-3.0,-2.0,-2.0,-1.0,-1.0
1.6951610106718075e+18,1.0,0.0,-1.0,6.0,2.0,1.0,1.0,0.0
1.6951610106728074e+18,-2.0,-1.0,-3.0,0.0,-3.0,1.0,-2.0,-2.0
1.6951610106728074e+18,1.0,-4.0,-2.0,3.0,10.0,5.0,3.0,2.0
1.6951610106917962e+18,-1.0,13.0,9.0,-4.0,-17.0,-9.0,-4.0,-1.0
1.6951610106927967e+18,-3.0,-9.0,5.0,-1.0,16.0,6.0,1.0,-3.0
1.6951610106927967e+18,0.0,-1.0,-1.0,1.0,-1.0,0.0,1.0,-1.0
1.6951610106927967e+18,0.0,2.0,1.0,-6.0,-10.0,-7.0,-4.0,0.0
1.695161010714784e+18,-1.0,-4.0,-7.0,-2.0,-1.0,1.0,1.0,1.0
1.695161010714784e+18,-1.0,0.0,6.0,-4.0,-13.0,-7.0,-4.0,-1.0
1.695161010717782e+18,-1.0,0.0,-14.0,0.0,-3.0,-2.0,-3.0,-1.0
1.695161010717782e+18,-4.0,-4.0,0.0,-3.0,-3.0,-3.0,-1.0,-3.0
1.6951610107297772e+18,-2.0,-3.0,2.0,1.0,3.0,0.0,-1.0,-2.0
1.6951610107307743e+18,-2.0,0.0,-5.0,-3.0,2.0,0.0,-3.0,-3.0
1.6951610107307743e+18,-1.0,-5.0,-1.0,2.0,-1.0,0.0,0.0,1.0
1.6951610107307743e+18,-2.0,0.0,-1.0,-1.0,-4.0,-2.0,-3.0,-1.0
1.695161010745764e+18,1.0,-3.0,0.0,-2.0,-1.0,-2.0,0.0,-1.0
1.695161010745764e+18,-1.0,-2.0,-6.0,4.0,0.0,1.0,1.0,-2.0
1.695161010746764e+18,-1.0,-1.0,1.0,-4.0,-2.0,-3.0,-2.0,-2.0
1.695161010746764e+18,1.0,-1.0,1.0,0.0,-6.0,-8.0,-2.0,-3.0
1.6951610107707507e+18,-2.0,-4.0,1.0,13.0,10.0,7.0,2.0,-1.0
1.6951610107707507e+18,0.0,-1.0,-4.0,-8.0,-8.0,-6.0,-3.0,1.0
1.6951610107707507e+18,-1.0,0.0,1.0,-1.0,-7.0,-3.0,1.0,0.0
1.6951610107707507e+18,-2.0,-1.0,-3.0,-4.0,-4.0,1.0,-1.0,-1.0
1.695161010783744e+18,-1.0,-1.0,-3.0,-3.0,-1.0,2.0,0.0,0.0
1.695161010783744e+18,-2.0,-6.0,-1.0,4.0,3.0,-1.0,-2.0,-1.0
1.695161010783744e+18,0.0,1.0,0.0,1.0,0.0,-1.0,0.0,-2.0
1.695161010783744e+18,-5.0,-5.0,-3.0,0.0,2.0,-4.0,-3.0,-3.0
1.6951610107997558e+18,1.0,10.0,-1.0,2.0,8.0,4.0,-2.0,-1.0
1.6951610107997558e+18,0.0,-4.0,0.0,-8.0,-10.0,-13.0,-3.0,1.0
1.695161010800733e+18,-4.0,-8.0,-3.0,-4.0,-11.0,-2.0,-2.0,-2.0
1.695161010800733e+18,0.0,-9.0,-1.0,-1.0,2.0,9.0,4.0,-1.0
1.6951610108227208e+18,3.0,3.0,-2.0,-5.0,-1.0,-1.0,-3.0,-1.0
1.6951610108227208e+18,0.0,6.0,0.0,0.0,7.0,5.0,4.0,1.0
1.6951610108227208e+18,-1.0,-6.0,-3.0,14.0,6.0,-5.0,-2.0,-1.0
1.6951610108237225e+18,3.0,9.0,0.0,-18.0,-12.0,-5.0,0.0,6.0
1.6951610108517056e+18,-5.0,-7.0,-3.0,-13.0,-11.0,-5.0,-6.0,-12.0
1.6951610108517056e+18,1.0,3.0,-2.0,-2.0,1.0,-1.0,0.0,-3.0
1.6951610108517056e+18,0.0,1.0,2.0,6.0,5.0,0.0,-3.0,-10.0
1.6951610108527104e+18,-6.0,-9.0,-1.0,8.0,1.0,2.0,-2.0,10.0
1.6951610108587e+18,-1.0,-5.0,-2.0,-2.0,6.0,4.0,3.0,0.0
1.6951610108587e+18,2.0,3.0,-1.0,-3.0,-14.0,-2.0,0.0,-2.0
1.6951610108587e+18,2.0,8.0,4.0,0.0,5.0,1.0,5.0,15.0
1.6951610108596995e+18,-1.0,-11.0,-8.0,6.0,11.0,8.0,-5.0,-27.0
1.6951610108805865e+18,-2.0,11.0,2.0,-1.0,-5.0,-6.0,2.0,18.0
1.6951610108805865e+18,3.0,-8.0,0.0,9.0,8.0,4.0,14.0,9.0
1.6951610108815903e+18,-15.0,-16.0,1.0,-11.0,-9.0,2.0,-24.0,-16.0
1.6951610108815903e+18,18.0,25.0,0.0,-6.0,-7.0,-5.0,-9.0,7.0
1.695161010911569e+18,-5.0,-6.0,-3.0,-1.0,4.0,-1.0,0.0,-3.0
1.695161010911569e+18,7.0,15.0,0.0,-9.0,-9.0,-3.0,-11.0,8.0
1.6951610109125115e+18,0.0,-3.0,1.0,-1.0,6.0,0.0,9.0,-9.0
1.6951610109125115e+18,-8.0,-5.0,3.0,-3.0,-6.0,-3.0,1.0,-5.0
1.6951610109185203e+18,2.0,-10.0,-1.0,5.0,4.0,-1.0,0.0,-8.0
1.6951610109185203e+18,-12.0,-1.0,0.0,4.0,-3.0,1.0,9.0,-22.0
1.6951610109195244e+18,-1.0,-7.0,1.0,-9.0,4.0,-3.0,-2.0,-3.0
1.6951610109195244e+18,10.0,0.0,-10.0,-6.0,-12.0,-7.0,-15.0,21.0
1.6951610109405658e+18,0.0,-2.0,-3.0,3.0,11.0,6.0,21.0,-19.0
1.69516101094159e+18,-5.0,8.0,7.0,-10.0,-11.0,-8.0,-15.0,4.0
1.69516101094159e+18,9.0,6.0,-9.0,17.0,6.0,2.0,-42.0,-10.0
1.69516101094159e+18,-11.0,-26.0,0.0,3.0,1.0,-3.0,12.0,56.0
1.6951610109730668e+18,0.0,4.0,3.0,4.0,-1.0,6.0,-9.0,-20.0
1.6951610109740639e+18,-6.0,2.0,-8.0,-16.0,-3.0,-1.0,50.0,-29.0
1.6951610109740639e+18,-1.0,-7.0,0.0,-15.0,-9.0,-5.0,-28.0,22.0
1.695161010975066e+18,14.0,18.0,3.0,3.0,7.0,-3.0,-8.0,19.0
1.6951610109790643e+18,5.0,-3.0,11.0,8.0,-1.0,-1.0,5.0,14.0
1.6951610109790643e+18,-7.0,-3.0,-16.0,6.0,1.0,0.0,4.0,-14.0
1.6951610109790643e+18,-2.0,11.0,0.0,-4.0,-6.0,-1.0,12.0,-38.0
1.6951610109790643e+18,-7.0,-21.0,-9.0,-2.0,8.0,0.0,3.0,6.0
1.695161011001069e+18,-3.0,-5.0,6.0,-10.0,-5.0,-4.0,-4.0,-4.0
1.695161011001069e+18,0.0,1.0,10.0,12.0,10.0,7.0,-10.0,-3.0
1.695161011007617e+18,5.0,2.0,-13.0,-13.0,-6.0,2.0,16.0,4.0
1.695161011007617e+18,-4.0,4.0,-7.0,10.0,5.0,1.0,3.0,-20.0
1.6951610110249306e+18,5.0,-3.0,12.0,-8.0,-8.0,-5.0,-2.0,46.0
1.6951610110249306e+18,-1.0,-1.0,14.0,5.0,4.0,2.0,-11.0,5.0
1.6951610110259364e+18,-1.0,3.0,1.0,8.0,4.0,1.0,22.0,16.0
1.6951610110259364e+18,0.0,-2.0,-3.0,-18.0,-10.0,-6.0,-14.0,-18.0
1.6951610110395292e+18,-2.0,0.0,0.0,10.0,-1.0,-7.0,-15.0,-17.0
1.6951610110395292e+18,6.0,-9.0,0.0,3.0,3.0,-4.0,-19.0,-12.0
1.695161011045525e+18,-9.0,-15.0,-16.0,-7.0,-5.0,0.0,21.0,12.0
1.695161011045525e+18,9.0,20.0,4.0,6.0,2.0,8.0,9.0,-29.0
1.6951610110615168e+18,-7.0,-8.0,-8.0,1.0,3.0,-1.0,-9.0,25.0
1.6951610110615168e+18,-3.0,-5.0,2.0,-2.0,1.0,2.0,-1.0,10.0
1.6951610110615168e+18,6.0,2.0,-2.0,8.0,-1.0,3.0,7.0,-4.0
1.6951610110625188e+18,0.0,0.0,12.0,-3.0,-4.0,-2.0,2.0,-19.0
1.6951610110835036e+18,-2.0,6.0,3.0,0.0,-1.0,0.0,0.0,-8.0
1.6951610110845036e+18,2.0,-7.0,-15.0,2.0,-2.0,-1.0,-13.0,12.0
1.6951610110845036e+18,2.0,-1.0,16.0,0.0,4.0,0.0,6.0,2.0
1.6951610110845036e+18,-8.0,5.0,8.0,-1.0,0.0,-3.0,-8.0,11.0
1.695161011097496e+18,-9.0,-2.0,4.0,-6.0,-4.0,-1.0,5.0,-5.0
1.6951610110984957e+18,-2.0,2.0,-6.0,-8.0,-17.0,-4.0,1.0,16.0
1.6951610111154854e+18,2.0,-10.0,-13.0,3.0,14.0,4.0,-6.0,-36.0
1.6951610111154854e+18,-15.0,2.0,8.0,2.0,3.0,0.0,7.0,-2.0
1.6951610111494666e+18,18.0,5.0,-20.0,-1.0,-5.0,-4.0,-3.0,-4.0
1.6951610111494666e+18,1.0,8.0,23.0,-4.0,-10.0,-4.0,-1.0,7.0
1.6951610111494666e+18,-3.0,6.0,12.0,-6.0,13.0,8.0,8.0,5.0
1.6951610111494666e+18,5.0,6.0,-2.0,15.0,12.0,8.0,3.0,11.0
1.6951610111494666e+18,2.0,9.0,62.0,-4.0,-15.0,-6.0,-9.0,-26.0
1.6951610111504658e+18,3.0,-5.0,-42.0,14.0,13.0,7.0,4.0,-10.0
1.6951610111504658e+18,-1.0,10.0,2.0,-5.0,-13.0,-6.0,17.0,0.0
1.6951610111504658e+18,5.0,-22.0,1.0,-4.0,3.0,0.0,-9.0,8.0
1.695161011158463e+18,-6.0,-2.0,-21.0,0.0,0.0,5.0,1.0,-6.0
1.695161011158463e+18,5.0,8.0,44.0,0.0,0.0,-2.0,-5.0,-3.0
1.6951610111704545e+18,-10.0,15.0,-5.0,-5.0,-4.0,2.0,2.0,-20.0
1.6951610111704545e+18,-2.0,-21.0,-26.0,-3.0,1.0,-4.0,-12.0,23.0
1.695161011190443e+18,5.0,9.0,-12.0,7.0,5.0,-2.0,7.0,55.0
1.695161011190443e+18,8.0,-1.0,29.0,-10.0,1.0,5.0,11.0,1.0
1.695161011190443e+18,1.0,-2.0,-25.0,1.0,1.0,-2.0,3.0,8.0
1.6951610111914435e+18,-35.0,0.0,14.0,-2.0,-10.0,-4.0,-2.0,-37.0
1.695161011204434e+18,-2.0,9.0,-30.0,-16.0,-9.0,-1.0,0.0,-4.0
1.6951610112054336e+18,-4.0,-29.0,0.0,-2.0,1.0,-3.0,-6.0,-4.0
1.6951610112054336e+18,11.0,6.0,0.0,3.0,-3.0,-4.0,-13.0,11.0
1.6951610112054336e+18,-6.0,14.0,1.0,0.0,2.0,2.0,8.0,4.0
1.695161011227421e+18,-3.0,-25.0,32.0,6.0,9.0,3.0,4.0,5.0
1.6951610112294198e+18,-16.0,11.0,-66.0,-4.0,4.0,-2.0,1.0,-16.0
1.6951610112414129e+18,2.0,-4.0,-2.0,-4.0,-18.0,-12.0,-26.0,1.0
1.6951610112414129e+18,8.0,15.0,21.0,-2.0,-3.0,3.0,9.0,-25.0
1.6951610112693983e+18,-3.0,-5.0,-71.0,-14.0,-9.0,-11.0,-12.0,0.0
1.6951610112693983e+18,-10.0,-14.0,28.0,7.0,3.0,5.0,10.0,23.0
1.6951610112693983e+18,4.0,24.0,74.0,3.0,1.0,-3.0,-2.0,-8.0
1.695161011270397e+18,14.0,16.0,-31.0,6.0,2.0,-1.0,-4.0,-9.0
1.695161011270397e+18,-7.0,-24.0,25.0,-3.0,-5.0,1.0,12.0,-14.0
1.695161011270397e+18,14.0,-4.0,-27.0,-7.0,-10.0,-12.0,-26.0,26.0
1.695161011300379e+18,8.0,-2.0,-1.0,11.0,8.0,8.0,15.0,44.0
1.695161011300379e+18,-3.0,6.0,-5.0,-11.0,-11.0,-7.0,-13.0,-46.0
1.6951610113193684e+18,-10.0,-8.0,10.0,-10.0,-4.0,0.0,1.0,-17.0
1.6951610113193684e+18,-1.0,-2.0,35.0,13.0,2.0,4.0,3.0,-3.0
1.695161011320369e+18,8.0,-8.0,-29.0,-3.0,-10.0,-2.0,1.0,13.0
1.695161011320369e+18,7.0,-26.0,-19.0,6.0,2.0,-6.0,4.0,12.0
1.6951610113243653e+18,-9.0,5.0,-9.0,-3.0,3.0,0.0,-1.0,-12.0
1.695161011325365e+18,5.0,-2.0,-61.0,-11.0,1.0,0.0,-1.0,-2.0
1.695161011325365e+18,-3.0,26.0,54.0,5.0,-2.0,1.0,9.0,-21.0
1.695161011325365e+18,-4.0,-12.0,-3.0,-4.0,-6.0,-5.0,-17.0,16.0
1.6951610113263644e+18,2.0,-1.0,30.0,-2.0,-3.0,-1.0,-1.0,2.0
1.6951610113263644e+18,1.0,3.0,-14.0,6.0,11.0,7.0,1.0,-6.0
1.6951610113273656e+18,-3.0,3.0,-1.0,-3.0,-1.0,2.0,14.0,2.0
1.6951610113273656e+18,-9.0,-11.0,23.0,-3.0,-1.0,-5.0,7.0,-1.0
1.6951610113773578e+18,12.0,-19.0,14.0,6.0,5.0,3.0,-6.0,17.0
1.695161011378336e+18,-5.0,-2.0,-9.0,-6.0,-5.0,-5.0,-9.0,-7.0
1.695161011378336e+18,-13.0,-50.0,-48.0,1.0,6.0,0.0,-5.0,-9.0
1.695161011378336e+18,1.0,20.0,18.0,-7.0,-4.0,9.0,19.0,32.0
1.6951610113803333e+18,-20.0,16.0,-14.0,0.0,-1.0,-3.0,-5.0,-13.0
1.6951610113803333e+18,-16.0,-12.0,6.0,5.0,6.0,4.0,6.0,-4.0
1.6951610114303058e+18,8.0,14.0,24.0,4.0,1.0,-4.0,-17.0,45.0
1.695161011438301e+18,-9.0,-62.0,-2.0,-1.0,0.0,5.0,11.0,0.0
1.695161011438301e+18,10.0,23.0,6.0,0.0,-4.0,3.0,14.0,-14.0
1.695161011438301e+18,-3.0,-15.0,-28.0,0.0,2.0,4.0,4.0,22.0
1.6951610114393021e+18,11.0,7.0,-11.0,-6.0,-3.0,-4.0,-11.0,6.0
1.6951610114393021e+18,6.0,12.0,18.0,1.0,-3.0,1.0,2.0,-10.0
1.6951610114393021e+18,2.0,8.0,-26.0,2.0,17.0,10.0,-2.0,-10.0
1.6951610114393021e+18,-14.0,-29.0,37.0,14.0,2.0,-1.0,6.0,-8.0
1.6951610114402993e+18,-11.0,18.0,-38.0,-14.0,-1.0,-2.0,-6.0,-15.0
1.6951610114402993e+18,20.0,-1.0,41.0,4.0,-4.0,-1.0,-2.0,13.0
1.6951610114912727e+18,-10.0,14.0,-36.0,0.0,7.0,-7.0,-8.0,0.0
1.6951610114922726e+18,13.0,-11.0,-2.0,-5.0,-5.0,-3.0,-2.0,4.0
1.6951610114932703e+18,-4.0,8.0,23.0,1.0,-1.0,1.0,7.0,-14.0
1.6951610114932703e+18,2.0,1.0,-42.0,0.0,5.0,0.0,-3.0,-18.0
1.6951610114932703e+18,5.0,32.0,9.0,-2.0,4.0,0.0,-3.0,2.0
1.6951610114932703e+18,-1.0,0.0,10.0,-5.0,-5.0,-4.0,-3.0,11.0
1.6951610114962683e+18,-3.0,-1.0,-30.0,-4.0,-2.0,-2.0,-1.0,-9.0
1.6951610114962683e+18,-13.0,-13.0,-29.0,4.0,-2.0,-5.0,-18.0,0.0
1.6951610115032622e+18,25.0,2.0,-7.0,7.0,1.0,1.0,6.0,-21.0
1.6951610115032622e+18,1.0,-10.0,30.0,2.0,10.0,-1.0,-14.0,6.0
1.695161011504265e+18,-7.0,-15.0,1.0,-3.0,2.0,5.0,17.0,4.0
1.695161011504265e+18,0.0,26.0,-19.0,-4.0,-7.0,-6.0,-9.0,-14.0
1.6951610115432402e+18,-1.0,-6.0,-4.0,2.0,1.0,-1.0,1.0,10.0
1.6951610115432402e+18,13.0,40.0,-27.0,-18.0,-15.0,-6.0,-6.0,-25.0
1.6951610115432402e+18,-24.0,-5.0,18.0,1.0,-4.0,-4.0,-3.0,-20.0
1.6951610115442424e+18,-19.0,-33.0,-9.0,0.0,4.0,-1.0,-5.0,-14.0
1.6951610115522363e+18,-13.0,10.0,12.0,-11.0,-13.0,-4.0,-4.0,7.0
1.6951610115522363e+18,1.0,9.0,-6.0,6.0,4.0,0.0,-3.0,-10.0
1.6951610115522363e+18,8.0,-2.0,2.0,4.0,2.0,1.0,3.0,26.0
1.6951610115522363e+18,-11.0,-1.0,-8.0,0.0,2.0,1.0,11.0,-15.0
1.6951610116032082e+18,1.0,2.0,0.0,-9.0,-7.0,-4.0,0.0,6.0
1.6951610116032082e+18,0.0,-13.0,-8.0,-4.0,-4.0,-4.0,-30.0,-31.0
1.6951610116032082e+18,14.0,15.0,8.0,-5.0,-5.0,2.0,11.0,18.0
1.695161011604205e+18,17.0,-3.0,-35.0,9.0,3.0,1.0,-3.0,35.0
1.695161011605227e+18,3.0,-5.0,-8.0,4.0,4.0,3.0,-2.0,1.0
1.695161011605227e+18,-5.0,28.0,1.0,2.0,0.0,2.0,5.0,-17.0
1.695161011609224e+18,-2.0,-31.0,-24.0,3.0,2.0,-1.0,2.0,-17.0
1.695161011609224e+18,0.0,18.0,-10.0,-18.0,-17.0,-5.0,4.0,-11.0
1.695161011611201e+18,-8.0,-19.0,-10.0,23.0,39.0,15.0,0.0,10.0
1.695161011611201e+18,0.0,2.0,-7.0,-2.0,-2.0,2.0,6.0,-7.0
1.695161011616199e+18,3.0,-1.0,2.0,1.0,-2.0,-3.0,-8.0,12.0
1.695161011624194e+18,-7.0,12.0,6.0,-7.0,-6.0,-1.0,4.0,-18.0
1.6951610116391854e+18,3.0,3.0,7.0,-2.0,-11.0,-10.0,-10.0,-1.0
1.6951610116391854e+18,-4.0,-17.0,-29.0,-14.0,-6.0,0.0,4.0,-2.0
1.695161011640185e+18,-3.0,-4.0,19.0,0.0,1.0,-4.0,-7.0,-6.0
1.695161011640185e+18,8.0,4.0,48.0,0.0,-3.0,-2.0,4.0,-1.0
1.6951610116551767e+18,-2.0,5.0,-7.0,-10.0,-18.0,-10.0,-2.0,0.0
1.6951610116561756e+18,-4.0,-11.0,-16.0,12.0,23.0,7.0,-1.0,-4.0
1.695161011659176e+18,-2.0,-17.0,-15.0,1.0,-2.0,-2.0,-5.0,2.0
1.695161011659176e+18,8.0,10.0,20.0,1.0,7.0,4.0,10.0,-1.0
1.6951610116681905e+18,-4.0,-12.0,-5.0,-5.0,-6.0,-6.0,-8.0,-1.0
1.6951610116691725e+18,-3.0,3.0,20.0,0.0,-22.0,-7.0,-1.0,6.0
1.6951610116691725e+18,-4.0,8.0,-14.0,-7.0,-2.0,-6.0,-5.0,7.0
1.6951610116691725e+18,3.0,-4.0,1.0,19.0,26.0,15.0,6.0,-3.0
1.695161011715141e+18,0.0,8.0,26.0,-27.0,-27.0,-12.0,-3.0,-1.0
1.695161011715141e+18,0.0,-15.0,-12.0,26.0,18.0,3.0,2.0,4.0
1.6951610117161413e+18,-1.0,5.0,15.0,-10.0,-15.0,-4.0,2.0,-8.0
1.6951610117171412e+18,-2.0,-4.0,-36.0,2.0,-5.0,-6.0,-6.0,-2.0
1.6951610117181407e+18,-2.0,-6.0,-15.0,-12.0,-11.0,-6.0,-4.0,-4.0
1.6951610117181407e+18,5.0,-9.0,2.0,-16.0,-13.0,-5.0,7.0,18.0
1.6951610117601157e+18,-4.0,-3.0,15.0,-7.0,-7.0,-9.0,-8.0,-11.0
1.6951610117601157e+18,4.0,8.0,15.0,20.0,23.0,2.0,4.0,4.0
1.6951610117621166e+18,1.0,-1.0,-6.0,17.0,14.0,31.0,2.0,-2.0
1.6951610117621166e+18,-4.0,-5.0,-6.0,-14.0,-20.0,-9.0,-2.0,-8.0
1.6951610117631155e+18,0.0,4.0,-11.0,4.0,15.0,11.0,3.0,-4.0
1.6951610117631155e+18,2.0,-4.0,-9.0,-9.0,-4.0,-10.0,-5.0,3.0
1.6951610117701107e+18,0.0,3.0,1.0,4.0,10.0,-7.0,2.0,5.0
1.6951610117701107e+18,-2.0,-3.0,-1.0,1.0,-1.0,-1.0,-1.0,-8.0
1.6951610117701107e+18,4.0,3.0,5.0,-5.0,-12.0,0.0,0.0,15.0
1.6951610117701107e+18,-4.0,0.0,9.0,-5.0,-12.0,0.0,1.0,-14.0
1.6951610117701107e+18,0.0,0.0,-2.0,-2.0,2.0,-3.0,-8.0,4.0
1.6951610117701107e+18,-2.0,-3.0,-6.0,3.0,4.0,-4.0,4.0,-2.0
1.6951610118201034e+18,-1.0,0.0,-2.0,4.0,-5.0,-9.0,1.0,-4.0
1.6951610118201034e+18,0.0,4.0,-1.0,-7.0,-10.0,6.0,-5.0,-2.0
1.6951610118220805e+18,-3.0,-3.0,-8.0,-1.0,7.0,0.0,3.0,-1.0
1.6951610118220805e+18,-3.0,-6.0,1.0,-3.0,-14.0,-2.0,-4.0,-3.0
1.6951610118230804e+18,0.0,1.0,14.0,1.0,12.0,-3.0,-5.0,-8.0
1.6951610118230804e+18,-3.0,-2.0,3.0,-2.0,-9.0,-4.0,2.0,-2.0
1.6951610118400735e+18,-1.0,1.0,-1.0,1.0,0.0,0.0,-2.0,3.0
1.6951610118400735e+18,3.0,5.0,8.0,1.0,6.0,5.0,0.0,-1.0
1.69516101184107e+18,-3.0,-7.0,-11.0,3.0,-2.0,3.0,-2.0,-3.0
1.69516101184107e+18,1.0,2.0,26.0,-4.0,-5.0,-5.0,-1.0,1.0
1.695161011858062e+18,0.0,-1.0,-4.0,-1.0,0.0,-4.0,-1.0,-2.0
1.695161011858062e+18,0.0,-1.0,-3.0,-2.0,-5.0,1.0,-1.0,2.0
1.6951610118590597e+18,-1.0,1.0,-19.0,5.0,12.0,4.0,2.0,-1.0
1.6951610118590597e+18,-2.0,-1.0,-8.0,-5.0,-2.0,3.0,0.0,0.0
1.6951610118600806e+18,-1.0,-5.0,-5.0,-5.0,-9.0,-8.0,-5.0,-3.0
1.6951610118600806e+18,0.0,0.0,18.0,3.0,9.0,4.0,1.0,0.0
1.6951610118750717e+18,1.0,3.0,-4.0,-3.0,3.0,4.0,0.0,-1.0
1.6951610118750717e+18,-3.0,-4.0,-24.0,-2.0,2.0,-3.0,-1.0,-2.0
1.6951610118750717e+18,1.0,-1.0,1.0,-1.0,-1.0,1.0,1.0,0.0
1.6951610118750717e+18,0.0,-3.0,-10.0,-4.0,0.0,-5.0,-2.0,0.0
1.695161011876055e+18,2.0,2.0,10.0,0.0,-4.0,-1.0,0.0,-1.0
1.695161011876055e+18,-4.0,-6.0,-19.0,0.0,3.0,-1.0,0.0,1.0
1.6951610119190252e+18,1.0,5.0,5.0,-2.0,-7.0,-2.0,-1.0,1.0
1.6951610119190252e+18,-2.0,-2.0,3.0,0.0,3.0,2.0,-1.0,-2.0
1.6951610119190252e+18,0.0,-1.0,1.0,-1.0,-6.0,-2.0,-2.0,-1.0
1.6951610119190252e+18,2.0,1.0,-2.0,1.0,3.0,2.0,0.0,1.0
1.6951610119330166e+18,0.0,0.0,4.0,1.0,0.0,-1.0,-1.0,-2.0
1.6951610119330166e+18,1.0,-3.0,0.0,-1.0,0.0,-3.0,-1.0,-1.0
1.6951610119340163e+18,0.0,1.0,-2.0,-1.0,-2.0,2.0,0.0,-2.0
1.6951610119340163e+18,0.0,-2.0,-7.0,1.0,2.0,2.0,0.0,1.0
1.6951610119350157e+18,-1.0,0.0,0.0,-1.0,-4.0,-2.0,-2.0,-2.0
1.6951610119350157e+18,-1.0,-2.0,-9.0,-1.0,3.0,-6.0,1.0,-1.0
1.6951610119420252e+18,-2.0,0.0,1.0,-1.0,-6.0,2.0,0.0,-3.0
1.6951610119430129e+18,1.0,0.0,3.0,-1.0,2.0,-3.0,-1.0,-2.0
1.6951610119470088e+18,0.0,0.0,0.0,-1.0,-1.0,-1.0,-1.0,-2.0
1.6951610119470088e+18,0.0,2.0,3.0,-4.0,0.0,1.0,-1.0,1.0
1.6951610119480092e+18,-2.0,4.0,-4.0,-8.0,-1.0,-2.0,-1.0,0.0
1.6951610119480092e+18,-3.0,-9.0,2.0,5.0,-7.0,-3.0,-4.0,-4.0
1.6951610119680184e+18,1.0,-1.0,2.0,7.0,3.0,-1.0,1.0,0.0
1.6951610119680184e+18,-2.0,1.0,9.0,9.0,5.0,4.0,0.0,0.0
1.6951610119689966e+18,-4.0,-4.0,-26.0,-16.0,0.0,-2.0,-2.0,-1.0
1.6951610119689966e+18,-6.0,1.0,1.0,9.0,1.0,0.0,-2.0,-4.0
1.695161011983989e+18,-3.0,-1.0,-8.0,-23.0,-14.0,-8.0,-1.0,-4.0
1.695161011983989e+18,-9.0,-5.0,-3.0,10.0,2.0,1.0,-1.0,-1.0
1.6951610119909852e+18,5.0,3.0,4.0,-8.0,3.0,2.0,2.0,9.0
1.6951610119909852e+18,-2.0,5.0,12.0,13.0,-2.0,-2.0,-2.0,-1.0
1.6951610120069755e+18,8.0,-2.0,-2.0,1.0,5.0,0.0,-1.0,1.0
1.6951610120069755e+18,-5.0,1.0,-11.0,-7.0,-1.0,1.0,2.0,-3.0
1.695161012010974e+18,-2.0,0.0,2.0,7.0,0.0,1.0,0.0,-1.0
1.695161012010974e+18,-7.0,-6.0,-15.0,-23.0,-7.0,-4.0,-2.0,1.0
1.6951610120279846e+18,3.0,0.0,4.0,3.0,-7.0,-5.0,-3.0,-3.0
1.6951610120279846e+18,1.0,-2.0,-6.0,-6.0,-4.0,0.0,0.0,1.0
1.695161012043955e+18,-1.0,-2.0,2.0,9.0,3.0,4.0,1.0,-5.0
1.695161012043955e+18,5.0,1.0,4.0,-8.0,2.0,4.0,2.0,4.0
1.695161012045952e+18,-10.0,-5.0,-11.0,2.0,-2.0,-2.0,-2.0,-3.0
1.695161012045952e+18,4.0,1.0,3.0,-8.0,-3.0,-6.0,-4.0,0.0
1.6951610120599442e+18,-1.0,-2.0,5.0,19.0,3.0,3.0,0.0,1.0
1.6951610120599442e+18,1.0,-2.0,-11.0,-22.0,-7.0,-7.0,-1.0,-3.0
1.6951610120819315e+18,-5.0,1.0,7.0,3.0,3.0,3.0,-1.0,0.0
1.6951610120819315e+18,2.0,-3.0,1.0,1.0,-4.0,-11.0,-2.0,-3.0
1.6951610120819315e+18,0.0,1.0,8.0,4.0,0.0,-2.0,-1.0,-2.0
1.6951610120829353e+18,3.0,1.0,1.0,3.0,7.0,20.0,6.0,2.0
1.695161012096923e+18,0.0,2.0,0.0,0.0,3.0,-3.0,0.0,0.0
1.695161012096923e+18,-3.0,-2.0,-2.0,6.0,-1.0,3.0,-3.0,0.0
1.695161012096923e+18,-1.0,0.0,8.0,-5.0,-5.0,-7.0,-4.0,-2.0
1.695161012096923e+18,-2.0,-2.0,-2.0,2.0,2.0,-5.0,-2.0,-2.0
1.6951610121119153e+18,-1.0,0.0,1.0,4.0,1.0,3.0,0.0,2.0
1.6951610121119153e+18,1.0,3.0,4.0,3.0,0.0,4.0,0.0,-1.0
1.6951610121119153e+18,-4.0,-1.0,-5.0,-10.0,-3.0,-6.0,-2.0,-1.0
1.6951610121119153e+18,1.0,-2.0,0.0,4.0,-2.0,-4.0,-1.0,0.0
1.6951610121339044e+18,-1.0,0.0,4.0,5.0,0.0,2.0,0.0,-1.0
1.6951610121349023e+18,1.0,1.0,1.0,-1.0,6.0,2.0,2.0,0.0
1.6951610121349023e+18,-1.0,-3.0,-7.0,-6.0,-2.0,0.0,-1.0,-3.0
1.6951610121349023e+18,0.0,1.0,5.0,3.0,1.0,-6.0,-3.0,-2.0
1.6951610121479163e+18,-1.0,-2.0,-8.0,-3.0,-2.0,3.0,1.0,0.0
1.695161012148895e+18,-1.0,0.0,-1.0,-2.0,-1.0,8.0,0.0,0.0
1.695161012148895e+18,-3.0,-2.0,1.0,-3.0,-3.0,-5.0,-1.0,0.0
1.695161012148895e+18,1.0,1.0,3.0,5.0,1.0,-3.0,0.0,0.0
1.6951610121659052e+18,0.0,0.0,4.0,2.0,2.0,-2.0,1.0,-2.0
1.6951610121659052e+18,0.0,-3.0,-4.0,-3.0,-2.0,0.0,-1.0,-1.0
1.6951610121709033e+18,-1.0,-1.0,2.0,1.0,-5.0,1.0,2.0,-1.0
1.6951610121709033e+18,0.0,0.0,-1.0,0.0,8.0,1.0,-1.0,-1.0
1.6951610121858721e+18,-2.0,-1.0,-2.0,-2.0,-5.0,-1.0,-4.0,0.0
1.6951610121858721e+18,-1.0,-1.0,-5.0,-5.0,0.0,0.0,0.0,-1.0
1.6951610121868718e+18,2.0,2.0,6.0,4.0,1.0,-3.0,-2.0,-1.0
1.6951610121868718e+18,-2.0,-1.0,-2.0,-2.0,-3.0,-2.0,0.0,-1.0
1.6951610122088625e+18,0.0,-1.0,0.0,-3.0,2.0,0.0,1.0,0.0
1.6951610122088625e+18,-1.0,-1.0,0.0,2.0,0.0,-1.0,-2.0,-2.0
1.6951610122088625e+18,-1.0,-1.0,1.0,-1.0,0.0,0.0,0.0,-2.0
1.6951610122098614e+18,1.0,-1.0,0.0,0.0,-3.0,3.0,-1.0,0.0
1.6951610122228508e+18,1.0,3.0,1.0,0.0,0.0,-1.0,0.0,0.0
1.6951610122228508e+18,-1.0,-3.0,-4.0,-4.0,-4.0,-2.0,-1.0,0.0
1.695161012230853e+18,-1.0,0.0,-1.0,-1.0,0.0,0.0,-1.0,-2.0
1.695161012230853e+18,0.0,-2.0,-3.0,-3.0,-1.0,1.0,0.0,-1.0
1.6951610122458396e+18,0.0,-1.0,2.0,0.0,-1.0,-1.0,-1.0,2.0
1.6951610122458396e+18,-1.0,-1.0,-1.0,-1.0,-5.0,-9.0,-3.0,-3.0
1.6951610122468393e+18,1.0,-3.0,-1.0,2.0,3.0,9.0,1.0,0.0
1.6951610122468393e+18,-1.0,0.0,1.0,0.0,1.0,2.0,2.0,-1.0
1.6951610122678246e+18,-1.0,0.0,-2.0,-2.0,-2.0,-5.0,-1.0,-1.0
1.695161012268827e+18,-1.0,1.0,1.0,0.0,2.0,1.0,0.0,-1.0
1.695161012268827e+18,-1.0,0.0,-2.0,0.0,-2.0,-4.0,-2.0,0.0
1.695161012268827e+18,0.0,-2.0,-2.0,-2.0,-4.0,-1.0,-1.0,-1.0
1.6951610122988293e+18,-1.0,-2.0,-4.0,-1.0,-3.0,0.0,1.0,-1.0
1.6951610122988293e+18,1.0,-1.0,0.0,1.0,3.0,1.0,-1.0,0.0
1.6951610122998067e+18,-1.0,1.0,0.0,1.0,-1.0,-1.0,-1.0,-1.0
1.6951610122998067e+18,-1.0,-1.0,-2.0,-1.0,-2.0,1.0,-2.0,0.0
1.6951610123058033e+18,-1.0,-1.0,-1.0,-3.0,-1.0,-4.0,0.0,-1.0
1.6951610123058033e+18,-2.0,0.0,0.0,-1.0,-2.0,1.0,0.0,-1.0
1.6951610123207944e+18,0.0,-1.0,0.0,1.0,2.0,1.0,0.0,-1.0
1.6951610123217953e+18,-2.0,0.0,-2.0,0.0,0.0,-3.0,-1.0,1.0
1.6951610123287908e+18,-2.0,-2.0,-1.0,-1.0,0.0,1.0,-2.0,-1.0
1.6951610123287908e+18,0.0,-2.0,-2.0,-1.0,-1.0,0.0,0.0,-1.0
1.6951610123287908e+18,-1.0,-1.0,0.0,-2.0,-1.0,-2.0,-3.0,0.0
1.6951610123297897e+18,0.0,-1.0,-2.0,-1.0,0.0,-2.0,-2.0,-1.0
1.6951610123607718e+18,0.0,0.0,0.0,0.0,0.0,0.0,-1.0,0.0
1.6951610123607718e+18,-2.0,-2.0,0.0,-1.0,0.0,1.0,0.0,-1.0
1.6951610123607718e+18,0.0,-2.0,-2.0,0.0,-2.0,-2.0,0.0,0.0
1.6951610123607718e+18,-1.0,0.0,1.0,0.0,-1.0,-1.0,0.0,-1.0
1.695161012373766e+18,0.0,0.0,-1.0,0.0,-1.0,2.0,-1.0,-2.0
1.6951610123747697e+18,0.0,-1.0,0.0,-1.0,-1.0,0.0,-1.0,1.0
1.6951610123747697e+18,0.0,0.0,1.0,-1.0,0.0,-4.0,0.0,-2.0
1.6951610123747697e+18,-1.0,1.0,0.0,1.0,-1.0,-1.0,-1.0,-1.0
1.6951610123887572e+18,0.0,-3.0,-1.0,-1.0,1.0,0.0,0.0,-1.0
1.6951610123887572e+18,0.0,0.0,-3.0,-1.0,-2.0,0.0,-1.0,-1.0
1.6951610123887572e+18,0.0,-1.0,0.0,-3.0,-2.0,0.0,0.0,-1.0
1.6951610123897562e+18,-2.0,-2.0,-1.0,-1.0,-2.0,-1.0,0.0,-1.0
1.6951610124127424e+18,-2.0,-1.0,-2.0,-2.0,-1.0,-1.0,-1.0,0.0
1.6951610124127424e+18,0.0,0.0,-1.0,0.0,-2.0,-3.0,-1.0,0.0
1.6951610124127424e+18,-1.0,-1.0,0.0,0.0,1.0,0.0,-1.0,0.0
1.6951610124127424e+18,-1.0,-2.0,-1.0,-2.0,2.0,-1.0,1.0,0.0
1.695161012425737e+18,-2.0,-1.0,0.0,1.0,-1.0,-1.0,-1.0,1.0
1.695161012425737e+18,1.0,-1.0,0.0,-2.0,-1.0,1.0,-1.0,-1.0
1.6951610124367288e+18,-1.0,-1.0,-1.0,-1.0,-1.0,-1.0,-1.0,0.0
1.6951610124367288e+18,1.0,0.0,0.0,0.0,-1.0,-3.0,0.0,-1.0
1.6951610124487217e+18,0.0,1.0,1.0,-1.0,0.0,-2.0,0.0,-1.0
1.6951610124487217e+18,0.0,-1.0,-3.0,0.0,0.0,-1.0,-1.0,-2.0
1.6951610124487217e+18,-2.0,1.0,-1.0,-2.0,0.0,-1.0,0.0,0.0
1.6951610124487217e+18,0.0,-1.0,-1.0,-3.0,-1.0,-1.0,-1.0,0.0
1.695161012471712e+18,-3.0,-2.0,3.0,2.0,-2.0,-3.0,-1.0,-2.0
1.6951610124727089e+18,-3.0,1.0,-3.0,-2.0,0.0,-1.0,-1.0,-2.0
1.6951610124727089e+18,1.0,-5.0,-8.0,1.0,1.0,1.0,-1.0,0.0
1.6951610124727089e+18,1.0,1.0,17.0,0.0,-2.0,-1.0,1.0,1.0
1.6951610124876995e+18,0.0,0.0,1.0,0.0,3.0,0.0,-1.0,0.0
1.6951610124876995e+18,0.0,-1.0,4.0,4.0,0.0,-1.0,-1.0,1.0
1.6951610124876995e+18,-7.0,-6.0,-7.0,-4.0,-1.0,-1.0,-1.0,-4.0
1.6951610124886996e+18,1.0,8.0,-4.0,-6.0,-4.0,-2.0,-3.0,-2.0
1.6951610125082998e+18,-2.0,-8.0,-4.0,0.0,0.0,-1.0,1.0,0.0
1.6951610125082998e+18,-2.0,1.0,6.0,7.0,4.0,0.0,0.0,-1.0
1.695161012509296e+18,-6.0,-5.0,-2.0,-1.0,3.0,3.0,3.0,-1.0
1.695161012509296e+18,0.0,-7.0,-4.0,1.0,0.0,0.0,0.0,2.0
1.695161012530588e+18,-2.0,8.0,5.0,-5.0,-5.0,-3.0,-2.0,-3.0
1.6951610125315932e+18,-1.0,-6.0,-3.0,-2.0,-2.0,0.0,1.0,1.0
1.6951610125315932e+18,4.0,9.0,13.0,-1.0,-4.0,-3.0,-2.0,-2.0
1.6951610125315932e+18,-3.0,-7.0,0.0,2.0,3.0,2.0,0.0,-1.0
1.6951610125464515e+18,-1.0,4.0,-3.0,0.0,-2.0,-2.0,-1.0,0.0
1.6951610125474514e+18,-2.0,-5.0,9.0,6.0,4.0,3.0,1.0,1.0
1.6951610125524513e+18,0.0,13.0,-8.0,-4.0,-4.0,-2.0,-3.0,0.0
1.6951610125524513e+18,0.0,15.0,-9.0,1.0,0.0,0.0,-2.0,-3.0
1.6951610125684406e+18,1.0,-16.0,12.0,4.0,1.0,3.0,2.0,1.0
1.6951610125684406e+18,1.0,26.0,-24.0,-14.0,-9.0,-6.0,-5.0,-4.0
1.6951610125694377e+18,-4.0,3.0,4.0,4.0,1.0,1.0,0.0,-2.0
1.6951610125694377e+18,0.0,7.0,-6.0,0.0,-2.0,-1.0,-2.0,0.0
1.6951610125904266e+18,-1.0,1.0,-12.0,0.0,0.0,0.0,-1.0,-2.0
1.6951610125914253e+18,0.0,6.0,-10.0,-7.0,-3.0,-4.0,-1.0,0.0
1.695161012600422e+18,3.0,-10.0,13.0,-1.0,0.0,-3.0,0.0,2.0
1.6951610126084173e+18,-1.0,-7.0,-2.0,-3.0,1.0,0.0,-2.0,-2.0
1.6951610126084173e+18,1.0,3.0,1.0,11.0,-1.0,0.0,0.0,-1.0
1.6951610126094167e+18,-4.0,-13.0,5.0,5.0,3.0,3.0,1.0,0.0
1.6951610126134152e+18,2.0,4.0,-5.0,-2.0,-4.0,-3.0,-2.0,-1.0
1.6951610126134152e+18,2.0,-4.0,-1.0,-4.0,-5.0,0.0,0.0,-1.0
1.6951610126284058e+18,-3.0,-8.0,7.0,-2.0,4.0,1.0,0.0,-1.0
1.6951610126284058e+18,0.0,-9.0,3.0,-1.0,-1.0,0.0,1.0,1.0
1.6951610126294042e+18,-2.0,-11.0,3.0,5.0,3.0,1.0,-1.0,-1.0
1.6951610126294042e+18,-3.0,-8.0,6.0,3.0,2.0,0.0,2.0,-1.0
1.6951610126503916e+18,-1.0,-6.0,-1.0,-3.0,-1.0,0.0,0.0,-1.0
1.6951610126513933e+18,-1.0,-4.0,5.0,0.0,0.0,-1.0,1.0,1.0
1.6951610126513933e+18,1.0,-1.0,-6.0,-1.0,-1.0,0.0,0.0,0.0
1.6951610126523927e+18,-2.0,-9.0,3.0,0.0,-1.0,-2.0,-1.0,0.0
1.6951610126673812e+18,2.0,15.0,-14.0,-7.0,-5.0,-2.0,-3.0,-2.0
1.6951610126673812e+18,-3.0,-3.0,3.0,-1.0,2.0,2.0,0.0,-1.0
1.6951610126683817e+18,0.0,-4.0,3.0,1.0,1.0,0.0,0.0,-2.0
1.6951610126683817e+18,-1.0,5.0,-8.0,-3.0,-2.0,-2.0,-1.0,-1.0
1.6951610126883717e+18,2.0,4.0,-4.0,-5.0,-2.0,-2.0,-1.0,0.0
1.6951610126883717e+18,1.0,2.0,-1.0,-3.0,-3.0,0.0,-3.0,-1.0
1.6951610126903703e+18,1.0,-3.0,-1.0,0.0,-1.0,-1.0,0.0,0.0
1.6951610126903703e+18,-1.0,0.0,-2.0,1.0,0.0,1.0,-1.0,0.0
1.695161012710358e+18,-2.0,-12.0,1.0,-3.0,0.0,0.0,0.0,-1.0
1.6951610127113564e+18,1.0,2.0,-6.0,-1.0,-2.0,0.0,0.0,0.0
1.6951610127113564e+18,0.0,1.0,2.0,-2.0,-1.0,-1.0,-3.0,1.0
1.6951610127113564e+18,0.0,0.0,-1.0,0.0,-2.0,0.0,-1.0,-1.0
1.6951610127273467e+18,-2.0,4.0,-8.0,-4.0,-1.0,-2.0,-1.0,0.0
1.6951610127273467e+18,0.0,-2.0,-6.0,-3.0,1.0,-1.0,-1.0,1.0
1.6951610127283466e+18,-1.0,0.0,-4.0,-1.0,-1.0,-2.0,-1.0,0.0
1.6951610127283466e+18,0.0,-1.0,1.0,4.0,-1.0,-1.0,-1.0,-2.0
1.695161012748357e+18,-1.0,1.0,-3.0,-1.0,2.0,-1.0,-2.0,-1.0
1.695161012748357e+18,-2.0,-16.0,11.0,4.0,1.0,-1.0,2.0,1.0
1.6951610127493345e+18,-1.0,1.0,1.0,-2.0,1.0,-3.0,-1.0,-1.0
1.6951610127493345e+18,0.0,0.0,4.0,-2.0,-2.0,-2.0,0.0,-2.0
1.6951610127793172e+18,0.0,-2.0,-11.0,0.0,-1.0,-2.0,-1.0,0.0
1.6951610127793172e+18,1.0,0.0,-8.0,-3.0,-2.0,-4.0,-1.0,-3.0
1.6951610127793172e+18,-1.0,0.0,-2.0,0.0,-1.0,-2.0,-2.0,-1.0
1.6951610127793172e+18,-2.0,-1.0,-2.0,1.0,2.0,-1.0,0.0,1.0
1.6951610128013268e+18,0.0,-1.0,13.0,1.0,-1.0,0.0,0.0,-3.0
1.6951610128013268e+18,-1.0,0.0,-11.0,-2.0,-2.0,-1.0,-3.0,-1.0
1.695161012802311e+18,-1.0,1.0,3.0,-2.0,-3.0,-1.0,0.0,-1.0
1.695161012802311e+18,-2.0,-7.0,-4.0,1.0,0.0,-1.0,0.0,1.0
1.6951610128083226e+18,1.0,3.0,3.0,-1.0,0.0,1.0,0.0,2.0
1.6951610128093002e+18,-2.0,2.0,0.0,-3.0,-2.0,-1.0,-1.0,-2.0
1.6951610128093002e+18,-1.0,-2.0,-7.0,-2.0,0.0,0.0,1.0,-2.0
1.6951610128093002e+18,0.0,-1.0,-3.0,-1.0,-2.0,0.0,-2.0,1.0
1.6951610128312942e+18,-1.0,0.0,1.0,-2.0,-2.0,0.0,-1.0,-2.0
1.6951610128312942e+18,-4.0,-4.0,1.0,1.0,0.0,2.0,0.0,-3.0
1.6951610128312942e+18,0.0,-2.0,-7.0,-1.0,-1.0,0.0,0.0,1.0
1.6951610128312942e+18,-1.0,-2.0,-1.0,-1.0,-1.0,-1.0,1.0,-1.0
1.6951610128552745e+18,-2.0,0.0,-2.0,-1.0,-1.0,-1.0,-2.0,-1.0
1.6951610128552745e+18,-1.0,3.0,3.0,-1.0,-1.0,-1.0,1.0,-1.0
1.6951610128562737e+18,0.0,0.0,-1.0,-2.0,0.0,-2.0,-2.0,-1.0
1.6951610128562737e+18,-2.0,0.0,-3.0,0.0,0.0,-1.0,-1.0,0.0
1.6951610128765486e+18,0.0,1.0,-5.0,0.0,-1.0,-2.0,0.0,-1.0
1.6951610128765486e+18,0.0,0.0,0.0,-1.0,0.0,-2.0,0.0,-1.0
1.695161012877552e+18,0.0,-1.0,-1.0,-1.0,0.0,0.0,0.0,0.0
1.695161012877552e+18,1.0,1.0,4.0,-4.0,1.0,0.0,0.0,-2.0
1.695161012891545e+18,-2.0,-4.0,-2.0,2.0,0.0,1.0,0.0,-1.0
1.6951610128925435e+18,2.0,0.0,7.0,-1.0,0.0,-1.0,0.0,0.0
1.6951610128925435e+18,-1.0,-2.0,-5.0,-2.0,0.0,-1.0,0.0,-2.0
1.6951610128925435e+18,0.0,0.0,0.0,0.0,1.0,-3.0,-2.0,-2.0
1.6951610129067215e+18,-1.0,-2.0,-2.0,-1.0,-1.0,0.0,1.0,1.0
1.6951610129067215e+18,-2.0,0.0,10.0,0.0,0.0,-1.0,-1.0,0.0
1.6951610129135716e+18,0.0,-2.0,5.0,1.0,-1.0,0.0,-1.0,-2.0
1.6951610129135716e+18,0.0,2.0,-8.0,-1.0,-2.0,1.0,-1.0,-2.0
1.6951610129285128e+18,-3.0,-6.0,-3.0,-1.0,1.0,-1.0,-2.0,-2.0
1.6951610129285128e+18,-2.0,-2.0,5.0,-1.0,0.0,-1.0,-1.0,-1.0
1.695161012929518e+18,-2.0,-3.0,-5.0,-1.0,-2.0,-1.0,0.0,1.0
1.695161012929518e+18,-1.0,2.0,3.0,-1.0,0.0,-1.0,-1.0,-2.0
1.6951610129675244e+18,-1.0,1.0,-2.0,-2.0,-2.0,-1.0,-1.0,0.0
1.6951610129675244e+18,-1.0,2.0,-2.0,5.0,-3.0,0.0,-1.0,-2.0
1.6951610129675244e+18,0.0,-1.0,-3.0,1.0,0.0,1.0,-1.0,1.0
1.695161012968524e+18,0.0,-3.0,-2.0,-2.0,0.0,0.0,-1.0,0.0
1.6951610129695237e+18,0.0,1.0,-2.0,-3.0,-1.0,-3.0,0.0,1.0
1.6951610129695237e+18,0.0,0.0,-1.0,-3.0,-1.0,0.0,-2.0,-3.0
1.6951610129895142e+18,0.0,0.0,1.0,0.0,-2.0,-1.0,-2.0,-2.0
1.6951610129905114e+18,-2.0,-1.0,-5.0,0.0,-2.0,-1.0,0.0,-2.0
1.6951610129915123e+18,-1.0,0.0,1.0,-1.0,-2.0,0.0,-1.0,-2.0
1.6951610129915123e+18,1.0,1.0,-3.0,-2.0,-2.0,-3.0,0.0,1.0
1.6951610129925107e+18,1.0,0.0,-3.0,0.0,0.0,-2.0,-1.0,-1.0
1.6951610129925107e+18,0.0,-2.0,-2.0,-2.0,-1.0,0.0,0.0,-1.0
1.6951610130195569e+18,1.0,5.0,7.0,-2.0,0.0,1.0,-1.0,0.0
1.6951610130195569e+18,-1.0,-9.0,-7.0,-1.0,0.0,0.0,-1.0,-1.0
1.695161013020495e+18,-2.0,2.0,-5.0,-2.0,-4.0,0.0,1.0,0.0
1.695161013020495e+18,-2.0,-4.0,-3.0,-1.0,-1.0,-2.0,-1.0,-1.0
1.6951610130254927e+18,-1.0,2.0,-1.0,3.0,-1.0,0.0,-1.0,-1.0
1.6951610130254927e+18,-2.0,0.0,-4.0,0.0,-2.0,0.0,-2.0,0.0
1.6951610130404833e+18,0.0,-5.0,1.0,-2.0,1.0,0.0,0.0,0.0
1.6951610130415017e+18,0.0,1.0,3.0,1.0,0.0,0.0,0.0,0.0
1.6951610130485366e+18,0.0,0.0,1.0,0.0,0.0,-1.0,0.0,-1.0
1.6951610130495416e+18,-2.0,-2.0,-1.0,-3.0,-1.0,0.0,0.0,0.0
1.6951610130495416e+18,1.0,-6.0,3.0,1.0,1.0,-1.0,0.0,-1.0
1.6951610130495416e+18,-1.0,1.0,4.0,1.0,1.0,0.0,0.0,-1.0
1.6951610130790316e+18,1.0,-4.0,0.0,-1.0,-1.0,1.0,0.0,0.0
1.6951610130790316e+18,-1.0,1.0,-2.0,3.0,-1.0,-1.0,-1.0,1.0
1.6951610130800364e+18,0.0,3.0,7.0,1.0,-1.0,-1.0,0.0,0.0
1.6951610130800364e+18,-1.0,-1.0,-6.0,-1.0,-2.0,-4.0,0.0,-3.0
1.6951610130945157e+18,-1.0,-2.0,-3.0,-1.0,0.0,-1.0,0.0,-2.0
1.6951610130945157e+18,0.0,2.0,-3.0,-2.0,-2.0,-1.0,0.0,0.0
1.695161013095513e+18,0.0,-1.0,-2.0,-5.0,-1.0,1.0,-1.0,0.0
1.695161013095513e+18,0.0,0.0,-2.0,0.0,1.0,-1.0,-1.0,-2.0
1.6951610131105065e+18,0.0,-1.0,0.0,6.0,0.0,-1.0,-2.0,-1.0
1.6951610131115052e+18,0.0,2.0,1.0,0.0,-1.0,1.0,-1.0,-1.0
1.6951610131125046e+18,-1.0,2.0,-3.0,1.0,0.0,-1.0,-1.0,-1.0
1.6951610131125046e+18,-2.0,0.0,3.0,-5.0,-1.0,1.0,-2.0,-1.0
1.6951610131303972e+18,-1.0,1.0,-6.0,-3.0,-1.0,0.0,0.0,0.0
1.6951610131303972e+18,-1.0,-4.0,-4.0,-2.0,1.0,-2.0,0.0,-1.0
1.6951610131385595e+18,-3.0,-5.0,9.0,1.0,1.0,-2.0,0.0,0.0
1.6951610131385595e+18,-1.0,-1.0,-4.0,0.0,0.0,-3.0,1.0,0.0
1.6951610131452332e+18,-1.0,0.0,-2.0,-1.0,-2.0,-2.0,-2.0,-1.0
1.6951610131462415e+18,-1.0,0.0,1.0,2.0,-1.0,1.0,1.0,0.0
1.6951610131534697e+18,1.0,2.0,-7.0,-3.0,-1.0,-1.0,0.0,-1.0
1.6951610131534697e+18,0.0,1.0,-1.0,0.0,-3.0,-3.0,-2.0,-1.0
1.6951610131684534e+18,-2.0,-2.0,3.0,1.0,3.0,-2.0,0.0,0.0
1.6951610131684534e+18,0.0,-1.0,-3.0,-4.0,0.0,0.0,-2.0,-1.0
1.695161013169456e+18,1.0,2.0,1.0,-1.0,-1.0,1.0,-2.0,-1.0
1.695161013169456e+18,-3.0,-5.0,2.0,1.0,0.0,2.0,0.0,0.0
1.6951610131944435e+18,1.0,1.0,-2.0,-2.0,-2.0,0.0,0.0,0.0
1.6951610131944435e+18,1.0,-2.0,0.0,0.0,0.0,-1.0,0.0,-1.0
1.6951610131954396e+18,-2.0,4.0,-7.0,-3.0,-2.0,-2.0,0.0,-1.0
1.6951610131954396e+18,-1.0,2.0,2.0,3.0,0.0,-2.0,-2.0,-1.0
1.6951610132054825e+18,-1.0,0.0,-4.0,-2.0,-1.0,-2.0,-1.0,0.0
1.6951610132054825e+18,-1.0,0.0,3.0,1.0,-1.0,-2.0,-1.0,1.0
1.695161013213481e+18,-2.0,-3.0,2.0,0.0,-1.0,-1.0,-1.0,-1.0
1.695161013213481e+18,1.0,4.0,0.0,-2.0,-2.0,1.0,0.0,0.0
1.6951610132285143e+18,0.0,-11.0,-1.0,-2.0,-1.0,1.0,1.0,0.0
1.6951610132285143e+18,1.0,2.0,-4.0,1.0,-2.0,2.0,-1.0,-2.0
1.695161013236515e+18,-1.0,0.0,4.0,-2.0,-1.0,-1.0,-2.0,0.0
1.695161013236515e+18,-1.0,-1.0,-7.0,-3.0,-2.0,-2.0,0.0,-2.0
1.6951610132505075e+18,-2.0,0.0,2.0,-3.0,-1.0,-3.0,-1.0,-1.0
1.6951610132515082e+18,0.0,0.0,-3.0,-2.0,-1.0,-2.0,-2.0,0.0
1.6951610132515082e+18,0.0,-1.0,-1.0,1.0,-1.0,-1.0,-1.0,-1.0
1.6951610132515082e+18,-1.0,-1.0,4.0,0.0,0.0,0.0,0.0,1.0
1.6951610132740196e+18,-1.0,-2.0,-5.0,-1.0,0.0,1.0,0.0,1.0
1.6951610132740196e+18,-1.0,1.0,3.0,0.0,-2.0,-3.0,0.0,0.0
1.6951610132750236e+18,-1.0,0.0,-4.0,1.0,-1.0,-1.0,-1.0,0.0
1.6951610132750236e+18,-1.0,-1.0,-3.0,-1.0,-1.0,1.0,0.0,-2.0
1.6951610132880174e+18,1.0,4.0,2.0,1.0,1.0,-1.0,-3.0,-1.0
1.6951610132880174e+18,-2.0,0.0,-2.0,-2.0,-1.0,0.0,-1.0,0.0
1.6951610132962867e+18,-1.0,-1.0,-1.0,-2.0,0.0,-1.0,0.0,-2.0
1.6951610132962867e+18,0.0,-1.0,-4.0,-1.0,-1.0,-3.0,0.0,-2.0
1.6951610133112845e+18,0.0,0.0,0.0,0.0,-4.0,-2.0,-1.0,-1.0
1.6951610133112845e+18,0.0,5.0,0.0,-1.0,-1.0,-3.0,0.0,-1.0
1.695161013312283e+18,0.0,-2.0,-5.0,1.0,-2.0,-1.0,-1.0,-1.0
1.695161013312283e+18,0.0,-2.0,6.0,-3.0,0.0,0.0,-1.0,1.0
1.6951610133336282e+18,1.0,1.0,-4.0,-3.0,-1.0,-1.0,0.0,-2.0
1.6951610133346276e+18,0.0,2.0,4.0,4.0,1.0,-1.0,-2.0,1.0
1.6951610133346276e+18,-1.0,0.0,-6.0,2.0,1.0,-1.0,0.0,-2.0
1.6951610133346276e+18,0.0,-1.0,-4.0,0.0,0.0,-1.0,-2.0,0.0
1.6951610133486213e+18,0.0,-1.0,3.0,-1.0,-2.0,2.0,-1.0,-2.0
1.6951610133486213e+18,-1.0,-3.0,-6.0,-2.0,-1.0,-2.0,-1.0,-4.0
1.6951610133486213e+18,-1.0,0.0,2.0,-1.0,-1.0,-1.0,-3.0,-2.0
1.6951610133496197e+18,0.0,-5.0,-8.0,-1.0,-3.0,-2.0,-1.0,-2.0
1.6951610133706476e+18,-3.0,-1.0,-1.0,-1.0,-4.0,-2.0,-2.0,-1.0
1.6951610133706476e+18,-3.0,-4.0,-5.0,-1.0,-1.0,-1.0,-1.0,-1.0
1.6951610133716388e+18,-1.0,-2.0,4.0,1.0,-3.0,-2.0,-3.0,1.0
1.6951610133716388e+18,-4.0,-5.0,-13.0,1.0,-1.0,-1.0,-2.0,0.0
1.695161013394126e+18,-2.0,-2.0,4.0,0.0,-1.0,-2.0,1.0,-1.0
1.695161013394126e+18,-1.0,-2.0,2.0,0.0,-1.0,0.0,-2.0,-1.0
1.6951610133951299e+18,-1.0,3.0,-6.0,-2.0,-1.0,0.0,-1.0,-1.0
1.6951610133951299e+18,-1.0,-2.0,3.0,1.0,1.0,0.0,-1.0,-1.0
1.6951610134093514e+18,-1.0,-3.0,-4.0,-1.0,-2.0,-1.0,-2.0,-2.0
1.6951610134093514e+18,-1.0,-2.0,-2.0,-2.0,0.0,0.0,-1.0,0.0
1.6951610134093514e+18,0.0,-1.0,1.0,-3.0,-1.0,0.0,1.0,-2.0
1.6951610134093514e+18,-2.0,-1.0,0.0,-1.0,-2.0,-2.0,-1.0,-2.0
1.695161013431534e+18,-2.0,-2.0,-9.0,-1.0,-1.0,-1.0,-1.0,-2.0
1.695161013431534e+18,-1.0,-1.0,6.0,-2.0,-1.0,-1.0,-2.0,-1.0
1.6951610134325353e+18,0.0,-1.0,-3.0,-4.0,-2.0,-2.0,-1.0,-1.0
1.6951610134325353e+18,-2.0,-3.0,-4.0,-1.0,-2.0,-1.0,0.0,-1.0
1.6951610134622994e+18,-2.0,-5.0,2.0,4.0,-1.0,-3.0,0.0,-1.0
1.6951610134622994e+18,-2.0,0.0,-3.0,-2.0,1.0,-1.0,0.0,-2.0
1.6951610134632914e+18,-1.0,-4.0,-2.0,-2.0,-1.0,-2.0,-2.0,-1.0
1.6951610134632914e+18,-1.0,6.0,10.0,0.0,3.0,-1.0,-1.0,0.0
1.695161013468527e+18,-1.0,1.0,-1.0,-2.0,-4.0,-2.0,-3.0,-1.0
1.695161013469535e+18,-2.0,-3.0,-4.0,-4.0,-10.0,-6.0,-5.0,-3.0
1.695161013469535e+18,0.0,-1.0,-1.0,-2.0,0.0,3.0,0.0,2.0
1.695161013469535e+18,0.0,-1.0,1.0,5.0,9.0,5.0,1.0,1.0
1.695161013499518e+18,1.0,5.0,2.0,-4.0,1.0,2.0,-1.0,-1.0
1.695161013500519e+18,-2.0,-11.0,-5.0,1.0,-6.0,0.0,0.0,-2.0
1.695161013500519e+18,-1.0,-2.0,-4.0,-5.0,-8.0,-7.0,-1.0,-1.0
1.6951610135015176e+18,-1.0,-2.0,-2.0,-2.0,0.0,-1.0,-2.0,-2.0
1.695161013515515e+18,-1.0,1.0,1.0,2.0,4.0,1.0,-1.0,-1.0
1.69516101351651e+18,2.0,1.0,-6.0,-6.0,-7.0,-3.0,-1.0,-1.0
1.69516101351651e+18,1.0,-3.0,3.0,9.0,17.0,4.0,2.0,0.0
1.69516101351651e+18,0.0,3.0,9.0,-9.0,-23.0,-9.0,-2.0,-1.0
1.695161013530501e+18,-3.0,-4.0,-9.0,-1.0,11.0,1.0,-3.0,-3.0
1.6951610135315028e+18,1.0,0.0,-1.0,3.0,-3.0,2.0,1.0,1.0
1.6951610135325348e+18,-2.0,1.0,12.0,2.0,-1.0,1.0,-3.0,-3.0
1.6951610135325348e+18,0.0,-4.0,-6.0,-7.0,-1.0,0.0,-3.0,-1.0
1.6951610135594834e+18,-2.0,-1.0,0.0,-6.0,-16.0,-5.0,-3.0,-2.0
1.6951610135604828e+18,1.0,0.0,-3.0,-5.0,3.0,0.0,1.0,2.0
1.6951610135614833e+18,1.0,4.0,-5.0,-1.0,-1.0,-3.0,-5.0,-1.0
1.6951610135614833e+18,-4.0,-12.0,0.0,0.0,-3.0,-4.0,0.0,-3.0
1.6951610135754752e+18,-1.0,3.0,1.0,0.0,1.0,4.0,1.0,0.0
1.6951610135884677e+18,2.0,7.0,1.0,2.0,8.0,3.0,0.0,1.0
1.695161013589467e+18,0.0,4.0,-1.0,0.0,-1.0,-2.0,-1.0,-1.0
1.695161013591467e+18,1.0,-9.0,-3.0,-3.0,-1.0,-2.0,0.0,0.0
1.695161013591467e+18,-11.0,-12.0,-4.0,-3.0,-2.0,-3.0,-3.0,-4.0
1.6951610135924644e+18,2.0,3.0,3.0,2.0,7.0,2.0,2.0,0.0
1.6951610135924644e+18,1.0,7.0,-3.0,-2.0,-11.0,-3.0,-3.0,-2.0
1.6951610135924644e+18,2.0,6.0,0.0,4.0,9.0,1.0,-1.0,1.0
1.695161013611454e+18,1.0,-5.0,-2.0,-1.0,3.0,-2.0,1.0,1.0
1.6951610136124526e+18,-4.0,0.0,2.0,4.0,8.0,7.0,-1.0,-1.0
1.6951610136134674e+18,2.0,2.0,-3.0,-17.0,-5.0,-2.0,0.0,0.0
1.6951610136144515e+18,-6.0,-6.0,-6.0,6.0,2.0,0.0,-1.0,-2.0
1.6951610136354473e+18,3.0,2.0,0.0,-4.0,-6.0,-5.0,0.0,1.0
1.6951610136364398e+18,0.0,5.0,1.0,6.0,0.0,-1.0,-1.0,-1.0
1.695161013637452e+18,0.0,-11.0,-2.0,-3.0,-5.0,1.0,2.0,1.0
1.695161013637452e+18,-2.0,1.0,0.0,-3.0,7.0,1.0,1.0,-2.0
1.6951610136574282e+18,2.0,3.0,1.0,6.0,3.0,1.0,0.0,3.0
1.6951610136584282e+18,-1.0,-4.0,0.0,-4.0,-9.0,-7.0,1.0,0.0
1.6951610136594266e+18,0.0,7.0,-1.0,6.0,2.0,7.0,4.0,19.0
1.6951610136594266e+18,4.0,-5.0,3.0,-5.0,-1.0,-4.0,0.0,-29.0
1.6951610136714176e+18,-11.0,-16.0,-4.0,7.0,9.0,9.0,0.0,14.0
1.6951610136714176e+18,4.0,7.0,1.0,3.0,-9.0,-6.0,-1.0,-9.0
1.6951610136724183e+18,-5.0,-8.0,-2.0,-1.0,1.0,-5.0,7.0,22.0
1.6951610136724183e+18,-8.0,-17.0,-5.0,-3.0,-8.0,-2.0,-1.0,-15.0
1.6951610137103954e+18,14.0,12.0,2.0,4.0,14.0,7.0,-4.0,10.0
1.6951610137103954e+18,-4.0,18.0,1.0,-14.0,-3.0,-2.0,8.0,-9.0
1.6951610137113956e+18,1.0,-17.0,7.0,0.0,-4.0,-6.0,-16.0,-5.0
1.6951610137113956e+18,-4.0,24.0,-1.0,9.0,2.0,3.0,-9.0,-15.0
1.6951610137123945e+18,-5.0,-17.0,-6.0,-4.0,-4.0,-5.0,-6.0,27.0
1.6951610137133942e+18,4.0,-8.0,-3.0,4.0,0.0,6.0,5.0,-3.0
1.6951610137163927e+18,2.0,7.0,3.0,5.0,13.0,6.0,4.0,-36.0
1.6951610137163927e+18,1.0,4.0,-1.0,-3.0,-7.0,0.0,-5.0,78.0
1.6951610137323837e+18,-5.0,-11.0,-3.0,0.0,-3.0,-9.0,5.0,-28.0
1.6951610137323837e+18,18.0,8.0,3.0,3.0,-1.0,-4.0,-19.0,10.0
1.6951610137333832e+18,-10.0,-8.0,-12.0,-5.0,-1.0,0.0,-16.0,-30.0
1.6951610137333832e+18,5.0,-2.0,7.0,5.0,1.0,0.0,2.0,-33.0
1.6951610137693637e+18,-3.0,12.0,-8.0,-6.0,-8.0,-5.0,-2.0,16.0
1.6951610137693637e+18,-23.0,-19.0,-4.0,4.0,3.0,5.0,22.0,3.0
1.6951610137693637e+18,-3.0,-13.0,-5.0,-9.0,-9.0,-1.0,5.0,-13.0
1.6951610137753585e+18,-3.0,29.0,8.0,13.0,4.0,4.0,-4.0,-21.0
1.6951610137763584e+18,9.0,-14.0,0.0,-10.0,-8.0,-8.0,21.0,40.0
1.6951610137763584e+18,3.0,14.0,8.0,12.0,23.0,11.0,-19.0,-81.0
1.6951610137763584e+18,-4.0,-17.0,-2.0,9.0,-1.0,-3.0,-45.0,96.0
1.6951610137773573e+18,14.0,-8.0,-19.0,-11.0,-4.0,-8.0,2.0,38.0
1.6951610137993495e+18,-9.0,5.0,8.0,-8.0,-13.0,-6.0,-6.0,-35.0
1.6951610138003456e+18,-1.0,-18.0,-3.0,9.0,6.0,-2.0,21.0,27.0
1.695161013801348e+18,-7.0,6.0,-6.0,-8.0,0.0,3.0,14.0,-66.0
1.695161013801348e+18,-3.0,-1.0,10.0,-4.0,-11.0,-8.0,-19.0,-9.0
1.6951610138133396e+18,1.0,-6.0,-15.0,10.0,9.0,7.0,4.0,11.0
1.6951610138133396e+18,12.0,11.0,12.0,-10.0,13.0,4.0,-9.0,-13.0
1.6951610138213325e+18,2.0,8.0,-4.0,-3.0,-4.0,1.0,15.0,8.0
1.6951610138213325e+18,6.0,-6.0,-1.0,-5.0,-2.0,-1.0,10.0,7.0
1.6951610138283323e+18,-14.0,15.0,5.0,2.0,-5.0,0.0,-5.0,-38.0
1.6951610138283323e+18,-12.0,-18.0,-11.0,-10.0,-10.0,-9.0,-6.0,20.0
1.6951610138363236e+18,13.0,11.0,-7.0,6.0,8.0,7.0,44.0,45.0
1.6951610138363236e+18,-6.0,-1.0,3.0,2.0,4.0,-7.0,-47.0,-17.0
1.6951610138523146e+18,-2.0,-5.0,6.0,-9.0,-4.0,-1.0,-4.0,-10.0
1.6951610138523146e+18,-13.0,-10.0,0.0,-11.0,-18.0,-10.0,-17.0,-28.0
1.6951610138583107e+18,7.0,1.0,7.0,0.0,3.0,2.0,17.0,11.0
1.6951610138583107e+18,-17.0,-21.0,-20.0,2.0,2.0,3.0,33.0,-18.0
1.6951610138743025e+18,-7.0,13.0,12.0,-9.0,-4.0,-4.0,-30.0,32.0
1.6951610138753021e+18,-3.0,-12.0,-17.0,-20.0,-14.0,-8.0,-8.0,-1.0
1.6951610138753021e+18,-10.0,-3.0,14.0,17.0,16.0,5.0,-13.0,-2.0
1.6951610138763016e+18,9.0,15.0,-21.0,-7.0,-3.0,-2.0,16.0,-9.0
1.6951610138882934e+18,-13.0,-29.0,-1.0,9.0,-8.0,-8.0,-14.0,-6.0
1.6951610138882934e+18,3.0,18.0,14.0,-6.0,-8.0,3.0,14.0,-31.0
1.695161013903289e+18,-6.0,0.0,9.0,-6.0,-13.0,-11.0,-20.0,20.0
1.6951610139042852e+18,-1.0,-35.0,-36.0,16.0,23.0,8.0,6.0,12.0
1.6951610139122796e+18,8.0,7.0,-7.0,-5.0,3.0,4.0,9.0,-7.0
1.6951610139122796e+18,0.0,-2.0,4.0,-3.0,-8.0,-2.0,1.0,15.0
1.6951610139122796e+18,3.0,13.0,-1.0,-5.0,-7.0,-4.0,3.0,-32.0
1.6951610139132787e+18,-5.0,8.0,-7.0,-2.0,-9.0,-3.0,-4.0,-12.0
1.695161013941262e+18,20.0,9.0,-11.0,2.0,15.0,9.0,10.0,52.0
1.695161013941262e+18,-5.0,-17.0,12.0,-1.0,-5.0,-2.0,12.0,-37.0
1.695161013942271e+18,-3.0,-5.0,-5.0,5.0,4.0,-9.0,-26.0,17.0
1.695161013942271e+18,7.0,14.0,23.0,-16.0,-10.0,4.0,5.0,35.0
1.6951610139472586e+18,3.0,6.0,-30.0,14.0,8.0,3.0,5.0,-35.0
1.6951610139482588e+18,8.0,-2.0,-4.0,3.0,8.0,6.0,-3.0,29.0
1.6951610139632512e+18,-16.0,-16.0,5.0,-3.0,-12.0,-6.0,3.0,-20.0
1.6951610139642506e+18,-2.0,7.0,19.0,0.0,-6.0,1.0,8.0,11.0
1.695161013986237e+18,11.0,10.0,6.0,-5.0,-3.0,-1.0,-4.0,4.0
1.695161013986237e+18,-7.0,-18.0,-23.0,8.0,4.0,2.0,2.0,2.0
1.6951610139872364e+18,0.0,-1.0,4.0,-9.0,-1.0,1.0,8.0,-15.0
1.6951610139872364e+18,11.0,3.0,18.0,-1.0,-1.0,6.0,-3.0,1.0
1.6951610139952343e+18,-5.0,8.0,6.0,15.0,11.0,2.0,6.0,-24.0
1.695161013998232e+18,0.0,-3.0,-7.0,-23.0,-12.0,-10.0,-12.0,29.0
1.695161013998232e+18,-2.0,21.0,59.0,19.0,4.0,0.0,-1.0,-18.0
1.695161013999234e+18,-8.0,-27.0,-73.0,-16.0,0.0,9.0,14.0,-11.0
1.6951610140252173e+18,-1.0,-8.0,14.0,-4.0,-14.0,-13.0,-19.0,4.0
1.6951610140252173e+18,0.0,26.0,26.0,8.0,2.0,-6.0,-11.0,14.0
1.6951610140252173e+18,-12.0,-8.0,-46.0,-13.0,-5.0,-2.0,-2.0,-31.0
1.6951610140262154e+18,-20.0,2.0,0.0,-10.0,-3.0,-6.0,0.0,-3.0
1.6951610140382075e+18,27.0,7.0,36.0,13.0,3.0,6.0,1.0,-3.0
1.6951610140382075e+18,-9.0,-39.0,-9.0,10.0,1.0,6.0,18.0,-5.0
1.6951610140552195e+18,4.0,12.0,-20.0,-13.0,2.0,-3.0,2.0,25.0
1.6951610140561987e+18,10.0,4.0,12.0,17.0,9.0,-4.0,-21.0,23.0
1.6951610140571996e+18,-3.0,3.0,-9.0,-36.0,-20.0,-1.0,9.0,-34.0
1.6951610140571996e+18,-1.0,-3.0,21.0,15.0,18.0,2.0,-18.0,6.0
1.6951610140581962e+18,26.0,-18.0,-76.0,7.0,3.0,9.0,29.0,39.0
1.6951610140581962e+18,-10.0,-2.0,26.0,-14.0,-8.0,-8.0,-7.0,-28.0
1.6951610140781875e+18,8.0,8.0,28.0,-5.0,-7.0,-6.0,-15.0,10.0
1.6951610140781875e+18,3.0,22.0,-9.0,5.0,-5.0,4.0,10.0,-11.0
1.695161014079184e+18,8.0,3.0,24.0,-6.0,2.0,-5.0,-9.0,-30.0
1.695161014079184e+18,3.0,-16.0,-6.0,8.0,5.0,-2.0,3.0,43.0
1.6951610140901988e+18,3.0,-19.0,-3.0,16.0,9.0,6.0,7.0,-1.0
1.6951610140911767e+18,-17.0,15.0,4.0,-23.0,-5.0,-2.0,-4.0,-17.0
1.695161014115164e+18,4.0,-8.0,-16.0,9.0,5.0,3.0,7.0,10.0
1.695161014115164e+18,17.0,-2.0,41.0,-5.0,-9.0,-6.0,-6.0,-10.0
1.6951610141171615e+18,-8.0,16.0,-30.0,6.0,4.0,-1.0,7.0,-14.0
1.6951610141171615e+18,-6.0,4.0,-35.0,-7.0,-3.0,-2.0,4.0,4.0
1.6951610141171615e+18,-1.0,-14.0,32.0,-4.0,2.0,-5.0,-16.0,10.0
1.6951610141181645e+18,24.0,16.0,-35.0,1.0,-4.0,1.0,6.0,-2.0
1.695161014144147e+18,-16.0,-27.0,18.0,11.0,1.0,-2.0,-5.0,4.0
1.695161014144147e+18,16.0,-7.0,3.0,-2.0,4.0,2.0,12.0,-46.0
1.695161014144147e+18,-5.0,0.0,12.0,-4.0,-22.0,-11.0,-8.0,11.0
1.6951610141451459e+18,1.0,-20.0,-8.0,9.0,17.0,3.0,0.0,14.0
1.6951610141521418e+18,-2.0,9.0,-6.0,-22.0,-11.0,-4.0,5.0,17.0
1.6951610141521418e+18,-8.0,-28.0,-31.0,16.0,10.0,5.0,-6.0,-17.0
1.6951610141531546e+18,20.0,25.0,46.0,7.0,0.0,-8.0,-26.0,1.0
1.6951610141531546e+18,-37.0,-2.0,6.0,-1.0,-5.0,0.0,2.0,-18.0
1.6951610141815268e+18,-10.0,-1.0,-33.0,-5.0,0.0,-3.0,13.0,9.0
1.695161014182527e+18,6.0,28.0,48.0,4.0,-6.0,-4.0,-18.0,2.0
1.695161014187759e+18,-15.0,-28.0,-19.0,3.0,7.0,4.0,-11.0,-7.0
1.695161014188739e+18,7.0,26.0,15.0,3.0,0.0,4.0,12.0,0.0
1.6951610141965489e+18,5.0,-10.0,16.0,1.0,-1.0,-3.0,-13.0,22.0
1.6951610141965489e+18,0.0,22.0,-37.0,-15.0,-1.0,6.0,22.0,-3.0
1.6951610141975524e+18,-5.0,-19.0,-19.0,3.0,-7.0,-2.0,1.0,10.0
1.6951610141975524e+18,13.0,10.0,27.0,25.0,32.0,9.0,-4.0,11.0
1.695161014227537e+18,-29.0,-14.0,7.0,-15.0,-10.0,-1.0,6.0,-72.0
1.695161014227537e+18,21.0,14.0,12.0,1.0,-7.0,-5.0,-19.0,95.0
1.695161014227537e+18,0.0,-9.0,-2.0,-6.0,-3.0,0.0,8.0,-8.0
1.695161014227537e+18,-21.0,-17.0,-3.0,-2.0,-12.0,-9.0,-7.0,-8.0
1.6951610142577142e+18,34.0,-7.0,-41.0,-6.0,1.0,2.0,-7.0,1.0
1.6951610142577142e+18,0.0,-35.0,27.0,20.0,9.0,3.0,14.0,2.0
1.695161014258713e+18,-10.0,20.0,-18.0,-14.0,-7.0,-5.0,-5.0,-16.0
1.695161014258713e+18,-1.0,3.0,16.0,-6.0,-15.0,3.0,20.0,1.0
1.6951610142606892e+18,-18.0,22.0,-3.0,5.0,5.0,-3.0,-17.0,-13.0
1.6951610142606892e+18,11.0,-11.0,-25.0,-9.0,-11.0,-14.0,-13.0,1.0
1.6951610142636877e+18,8.0,27.0,16.0,-1.0,-4.0,10.0,28.0,-11.0
1.6951610142636877e+18,23.0,-20.0,0.0,9.0,7.0,-7.0,-18.0,61.0
1.695161014319543e+18,-2.0,9.0,-9.0,3.0,7.0,6.0,7.0,11.0
1.695161014319543e+18,-2.0,0.0,11.0,7.0,7.0,5.0,19.0,21.0
1.6951610143205417e+18,-20.0,30.0,-2.0,-6.0,-3.0,-15.0,-25.0,-85.0
1.6951610143205417e+18,10.0,-4.0,0.0,-6.0,-5.0,15.0,48.0,8.0
1.695161014321541e+18,21.0,0.0,-18.0,-7.0,-3.0,0.0,-1.0,19.0
1.695161014321541e+18,0.0,4.0,6.0,1.0,4.0,4.0,-14.0,1.0
1.6951610143705252e+18,-27.0,-15.0,-27.0,-3.0,0.0,2.0,22.0,-26.0
1.6951610143705252e+18,-9.0,28.0,-4.0,-9.0,1.0,-4.0,-31.0,-18.0
1.695161014372532e+18,-2.0,-10.0,26.0,6.0,-5.0,-3.0,-3.0,-4.0
1.695161014372532e+18,-14.0,-24.0,-21.0,-6.0,-4.0,-4.0,4.0,-12.0
1.695161014372532e+18,-4.0,12.0,-9.0,5.0,6.0,9.0,28.0,5.0
1.6951610143735373e+18,-2.0,-3.0,21.0,3.0,-3.0,2.0,2.0,-6.0
1.6951610143775414e+18,28.0,-3.0,-21.0,4.0,5.0,-8.0,-42.0,19.0
1.6951610143775414e+18,-25.0,-19.0,-5.0,-23.0,-21.0,-2.0,19.0,-1.0
1.6951610143795405e+18,0.0,-32.0,14.0,9.0,9.0,4.0,-6.0,9.0
1.6951610143795405e+18,-4.0,4.0,21.0,22.0,23.0,8.0,7.0,13.0
1.695161014380538e+18,1.0,14.0,-10.0,-10.0,-10.0,-5.0,-9.0,2.0
1.695161014380538e+18,-9.0,15.0,-4.0,1.0,-7.0,-5.0,-7.0,-18.0
1.6951610144065106e+18,-18.0,-10.0,-32.0,-12.0,2.0,4.0,10.0,-8.0
1.695161014407514e+18,-21.0,-7.0,0.0,17.0,8.0,4.0,-2.0,-34.0
1.6951610144155044e+18,-6.0,-8.0,41.0,-12.0,-25.0,-15.0,-16.0,-2.0
1.6951610144155044e+18,2.0,-11.0,-25.0,3.0,9.0,8.0,4.0,15.0
1.6951610144304968e+18,-10.0,-15.0,-14.0,-6.0,5.0,2.0,13.0,-4.0
1.6951610144304968e+18,6.0,2.0,30.0,16.0,-9.0,-9.0,-14.0,-3.0
1.6951610144314957e+18,0.0,1.0,-11.0,-11.0,1.0,0.0,7.0,3.0
1.6951610144324956e+18,1.0,4.0,1.0,14.0,1.0,-7.0,-9.0,1.0
1.6951610144334945e+18,4.0,4.0,54.0,8.0,0.0,10.0,14.0,19.0
1.6951610144334945e+18,13.0,-12.0,-39.0,-24.0,-7.0,-4.0,-2.0,4.0
1.6951610144364928e+18,-5.0,5.0,-3.0,-3.0,9.0,4.0,11.0,-13.0
1.6951610144374922e+18,21.0,12.0,1.0,-9.0,-9.0,-9.0,-32.0,6.0
1.6951610144684736e+18,-6.0,6.0,-13.0,-17.0,-8.0,-2.0,-6.0,-15.0
1.6951610144684736e+18,-3.0,19.0,38.0,16.0,8.0,4.0,22.0,11.0
1.6951610144694746e+18,4.0,36.0,-31.0,9.0,-8.0,-11.0,-20.0,27.0
1.695161014470473e+18,-12.0,-28.0,-1.0,2.0,8.0,0.0,4.0,-9.0
1.695161014470473e+18,-17.0,-8.0,9.0,7.0,1.0,2.0,-2.0,-52.0
1.695161014470473e+18,9.0,24.0,14.0,-3.0,0.0,-3.0,-3.0,-6.0
1.6951610145074516e+18,-4.0,-10.0,-17.0,-22.0,-9.0,7.0,9.0,-8.0
1.6951610145084513e+18,1.0,6.0,-18.0,11.0,20.0,2.0,2.0,1.0
1.6951610145084513e+18,6.0,6.0,27.0,13.0,-2.0,-1.0,1.0,21.0
1.6951610145094508e+18,-13.0,-4.0,-49.0,-43.0,-25.0,-19.0,-17.0,-23.0
1.6951610145104507e+18,-4.0,-22.0,13.0,24.0,27.0,10.0,9.0,-13.0
1.6951610145114606e+18,3.0,19.0,10.0,-17.0,-21.0,-2.0,-11.0,15.0
1.6951610145254428e+18,1.0,-22.0,-16.0,-5.0,10.0,10.0,11.0,12.0
1.6951610145254428e+18,5.0,-2.0,-5.0,24.0,7.0,-2.0,-8.0,1.0
1.6951610145264412e+18,3.0,0.0,11.0,0.0,-11.0,-2.0,2.0,3.0
1.695161014527441e+18,-15.0,-13.0,-12.0,-24.0,-16.0,-11.0,3.0,-15.0
1.695161014527441e+18,-3.0,0.0,1.0,9.0,-7.0,-4.0,7.0,24.0
1.6951610145284396e+18,9.0,16.0,24.0,-19.0,-18.0,-3.0,-5.0,2.0
1.6951610145454308e+18,-2.0,-15.0,-17.0,2.0,-5.0,-15.0,1.0,-6.0
1.6951610145454308e+18,-11.0,-2.0,0.0,9.0,9.0,12.0,-15.0,0.0
1.6951610145464307e+18,5.0,-3.0,8.0,-5.0,7.0,13.0,4.0,14.0
1.6951610145484275e+18,-1.0,-7.0,4.0,12.0,20.0,5.0,5.0,-4.0
1.69516101458141e+18,-9.0,-6.0,11.0,4.0,-16.0,-1.0,-1.0,-13.0
1.6951610145824095e+18,0.0,2.0,0.0,1.0,1.0,-4.0,6.0,1.0
1.69516101458341e+18,6.0,7.0,5.0,7.0,5.0,-12.0,-3.0,16.0
1.69516101458341e+18,-1.0,-8.0,3.0,9.0,2.0,4.0,-9.0,-11.0
1.695161014584408e+18,-1.0,8.0,-8.0,-6.0,23.0,-2.0,1.0,-6.0
1.695161014585412e+18,-2.0,4.0,25.0,-6.0,-15.0,5.0,5.0,0.0
1.6951610145864074e+18,2.0,12.0,13.0,0.0,2.0,2.0,0.0,7.0
1.6951610145864074e+18,1.0,-23.0,-5.0,-2.0,2.0,-4.0,-1.0,4.0
1.6951610146194235e+18,-3.0,2.0,-7.0,5.0,-3.0,3.0,-2.0,-6.0
1.6951610146213862e+18,0.0,-3.0,-7.0,-11.0,-3.0,3.0,7.0,5.0
1.6951610146213862e+18,-1.0,2.0,0.0,7.0,-5.0,-7.0,-3.0,-7.0
1.6951610146213862e+18,-1.0,-2.0,-6.0,-6.0,3.0,-1.0,-5.0,-4.0
1.6951610146333783e+18,-4.0,-1.0,7.0,1.0,4.0,4.0,-1.0,-3.0
1.6951610146333783e+18,0.0,0.0,-3.0,-8.0,-7.0,-7.0,-3.0,3.0
1.6951610146343793e+18,0.0,2.0,1.0,1.0,-2.0,5.0,3.0,5.0
1.6951610146343793e+18,0.0,-4.0,-13.0,6.0,7.0,0.0,1.0,0.0
1.695161014635378e+18,-5.0,-2.0,5.0,2.0,0.0,0.0,-6.0,-15.0
1.695161014635378e+18,9.0,0.0,3.0,4.0,4.0,1.0,6.0,27.0
1.6951610146453706e+18,-1.0,-3.0,-7.0,-11.0,-9.0,-6.0,-5.0,-2.0
1.6951610146463744e+18,0.0,0.0,8.0,8.0,9.0,3.0,0.0,8.0
1.6951610146553664e+18,-2.0,0.0,-12.0,-1.0,3.0,4.0,2.0,-10.0
1.6951610146563704e+18,-1.0,-4.0,-24.0,-7.0,-9.0,-7.0,0.0,-8.0
1.6951610146563704e+18,2.0,2.0,5.0,4.0,3.0,-1.0,-2.0,7.0
1.6951610146563704e+18,-2.0,-9.0,2.0,-4.0,-7.0,0.0,0.0,-7.0
1.6951610147093343e+18,-4.0,-1.0,10.0,-2.0,-2.0,-2.0,-1.0,6.0
1.69516101471733e+18,1.0,3.0,-27.0,-1.0,0.0,-5.0,1.0,-2.0
1.6951610147183304e+18,2.0,-10.0,9.0,-1.0,0.0,-1.0,1.0,2.0
1.6951610147183304e+18,-3.0,3.0,-20.0,-2.0,-5.0,-1.0,-5.0,-6.0
1.6951610147183304e+18,4.0,-3.0,9.0,0.0,-1.0,0.0,-1.0,8.0
1.6951610147193295e+18,-4.0,-2.0,-2.0,-2.0,-1.0,-1.0,-3.0,-4.0
1.6951610147193295e+18,-1.0,1.0,-7.0,0.0,0.0,0.0,0.0,-5.0
1.6951610147193295e+18,0.0,1.0,9.0,-1.0,-4.0,1.0,-2.0,1.0
1.6951610147203282e+18,0.0,-3.0,-5.0,-1.0,2.0,-1.0,-2.0,7.0
1.6951610147203282e+18,-3.0,1.0,11.0,0.0,-1.0,-5.0,1.0,-7.0
1.6951610147213279e+18,-2.0,-2.0,2.0,7.0,0.0,-3.0,1.0,2.0
1.6951610147213279e+18,0.0,0.0,-7.0,-10.0,-4.0,-3.0,-3.0,0.0
1.6951610147443139e+18,-2.0,-1.0,-9.0,-2.0,-2.0,-3.0,-2.0,0.0
1.6951610147443139e+18,-3.0,-1.0,2.0,-4.0,0.0,1.0,0.0,-6.0
1.6951610147443139e+18,-2.0,1.0,-2.0,1.0,0.0,-3.0,-3.0,1.0
1.6951610147453156e+18,-1.0,3.0,18.0,7.0,0.0,1.0,-1.0,0.0
1.6951610147583063e+18,3.0,3.0,9.0,12.0,1.0,1.0,1.0,0.0
1.6951610147583063e+18,-3.0,-5.0,-3.0,-17.0,-8.0,-4.0,-2.0,-4.0
1.6951610147663025e+18,-1.0,-4.0,-6.0,-8.0,-1.0,-1.0,-1.0,2.0
1.6951610147663025e+18,1.0,4.0,-8.0,-1.0,-3.0,-1.0,0.0,-2.0
1.6951610147732982e+18,-1.0,-2.0,6.0,-4.0,-1.0,1.0,1.0,1.0
1.6951610147732982e+18,3.0,3.0,-2.0,-5.0,0.0,2.0,0.0,-1.0
1.6951610147742976e+18,-4.0,-3.0,-9.0,-12.0,0.0,0.0,0.0,-2.0
1.6951610147742976e+18,-4.0,-1.0,9.0,11.0,-4.0,-6.0,-3.0,-5.0
1.6951610147962836e+18,1.0,2.0,3.0,3.0,0.0,0.0,-1.0,2.0
1.6951610147972838e+18,-1.0,-1.0,0.0,2.0,-4.0,-8.0,-2.0,-4.0
1.6951610147972838e+18,-1.0,0.0,8.0,-11.0,-2.0,5.0,-2.0,-1.0
1.6951610147972838e+18,-1.0,-1.0,-10.0,-1.0,0.0,1.0,0.0,1.0
1.6951610148192714e+18,-1.0,-2.0,1.0,6.0,0.0,-2.0,-2.0,2.0
1.6951610148192714e+18,-1.0,0.0,3.0,0.0,1.0,1.0,-1.0,-2.0
1.6951610148262697e+18,0.0,-1.0,-4.0,3.0,0.0,4.0,1.0,1.0
1.6951610148262697e+18,0.0,0.0,-2.0,-17.0,0.0,0.0,0.0,1.0
1.6951610148332823e+18,1.0,-1.0,9.0,16.0,-1.0,-1.0,1.0,1.0
1.6951610148332823e+18,-2.0,1.0,-3.0,-11.0,2.0,-1.0,-1.0,-2.0
1.6951610148342625e+18,0.0,0.0,1.0,-1.0,1.0,0.0,-2.0,-1.0
1.6951610148342625e+18,-1.0,-4.0,-8.0,-6.0,-2.0,-2.0,0.0,1.0
1.695161014858249e+18,-1.0,1.0,-3.0,-24.0,-3.0,-2.0,0.0,0.0
1.695161014863268e+18,1.0,-2.0,4.0,16.0,-4.0,1.0,-1.0,0.0
1.695161014863268e+18,-3.0,-2.0,1.0,18.0,6.0,-1.0,-1.0,-3.0
1.695161014863268e+18,0.0,-3.0,0.0,1.0,1.0,1.0,0.0,-3.0
1.6951610148865915e+18,1.0,-1.0,-5.0,-2.0,-1.0,0.0,-1.0,0.0
1.6951610148865915e+18,-1.0,0.0,-1.0,-9.0,-2.0,0.0,-1.0,0.0
1.6951610148875338e+18,1.0,-2.0,-1.0,-3.0,-3.0,-2.0,-1.0,0.0
1.6951610148875338e+18,-2.0,0.0,-5.0,-1.0,-3.0,-2.0,-3.0,-3.0
1.6951610148935314e+18,-1.0,0.0,3.0,4.0,-2.0,-1.0,0.0,-1.0
1.6951610148935314e+18,-2.0,-4.0,5.0,5.0,0.0,-1.0,-1.0,-1.0
1.6951610148935314e+18,3.0,-5.0,-13.0,-7.0,-7.0,-6.0,-1.0,-1.0
1.6951610148945306e+18,0.0,0.0,2.0,5.0,3.0,1.0,0.0,0.0
1.695161014925191e+18,0.0,-1.0,-6.0,-13.0,-1.0,-2.0,0.0,-1.0
1.695161014925191e+18,0.0,0.0,6.0,5.0,3.0,6.0,1.0,-1.0
1.695161014925191e+18,-2.0,2.0,4.0,1.0,1.0,-2.0,-1.0,-1.0
1.6951610149262213e+18,-1.0,-3.0,-8.0,-1.0,-3.0,2.0,-1.0,-1.0
1.695161014930506e+18,-1.0,-1.0,5.0,9.0,0.0,0.0,-4.0,-2.0
1.6951610149314793e+18,-1.0,-1.0,0.0,2.0,-5.0,-5.0,-1.0,0.0
1.6951610149395384e+18,-1.0,0.0,-10.0,-16.0,-1.0,-1.0,0.0,0.0
1.6951610149395384e+18,0.0,0.0,-4.0,6.0,-4.0,-3.0,0.0,-1.0
1.6951610149693524e+18,-1.0,0.0,1.0,-4.0,1.0,0.0,-1.0,-1.0
1.695161014970345e+18,0.0,0.0,-4.0,-6.0,-3.0,-7.0,-3.0,0.0
1.695161014971345e+18,-1.0,1.0,10.0,13.0,-1.0,0.0,-1.0,-1.0
1.6951610149723436e+18,-1.0,-2.0,-6.0,-17.0,-1.0,6.0,1.0,2.0
1.6951610149763428e+18,-1.0,-1.0,-5.0,0.0,6.0,0.0,2.0,1.0
1.695161014977342e+18,1.0,1.0,10.0,5.0,4.0,2.0,-1.0,0.0
1.6951610149843374e+18,-1.0,-2.0,-9.0,-4.0,-5.0,-7.0,-2.0,0.0
1.6951610149843374e+18,-1.0,0.0,-1.0,2.0,-6.0,-6.0,-4.0,-2.0
1.6951610149913341e+18,-2.0,0.0,3.0,-5.0,-5.0,-9.0,-1.0,-1.0
1.6951610149923328e+18,-2.0,-1.0,6.0,13.0,0.0,15.0,2.0,-2.0
1.6951610149993295e+18,0.0,-1.0,3.0,7.0,9.0,0.0,1.0,-1.0
1.695161015000328e+18,1.0,-1.0,5.0,4.0,0.0,0.0,-1.0,0.0
1.6951610150373076e+18,-2.0,-3.0,-11.0,-14.0,-6.0,-2.0,-3.0,-3.0
1.6951610150373076e+18,2.0,-2.0,1.0,3.0,1.0,-6.0,-1.0,-1.0
1.6951610150383068e+18,1.0,1.0,0.0,-4.0,-1.0,3.0,0.0,-1.0
1.6951610150473347e+18,-1.0,-1.0,2.0,5.0,2.0,2.0,0.0,1.0
1.6951610150473347e+18,-2.0,-1.0,-1.0,-1.0,-1.0,-1.0,1.0,1.0
1.6951610150473347e+18,0.0,-1.0,-8.0,-8.0,-4.0,-2.0,-2.0,1.0
1.6951610150493002e+18,-1.0,0.0,4.0,9.0,2.0,5.0,-1.0,-1.0
1.6951610150493002e+18,-1.0,1.0,3.0,-7.0,1.0,-4.0,-1.0,-3.0
1.6951610150612933e+18,-1.0,-3.0,-6.0,-1.0,-3.0,-2.0,0.0,-2.0
1.6951610150622935e+18,-1.0,-1.0,-7.0,-4.0,1.0,0.0,-2.0,-1.0
1.6951610150622935e+18,0.0,-1.0,-1.0,-3.0,-5.0,-3.0,-3.0,2.0
1.6951610150622935e+18,2.0,2.0,5.0,4.0,0.0,-3.0,1.0,-1.0
1.695161015074286e+18,1.0,-1.0,-4.0,-2.0,1.0,9.0,0.0,1.0
1.695161015074286e+18,-2.0,0.0,2.0,0.0,6.0,2.0,1.0,0.0
1.695161015075287e+18,-1.0,0.0,1.0,-3.0,-1.0,-2.0,0.0,-1.0
1.695161015075287e+18,-2.0,0.0,1.0,0.0,-1.0,1.0,-1.0,-1.0
1.6951610150982728e+18,-1.0,0.0,0.0,0.0,-5.0,-1.0,-2.0,-2.0
1.6951610150992714e+18,0.0,-1.0,-5.0,-12.0,-5.0,-4.0,-1.0,0.0
1.6951610151002765e+18,0.0,-2.0,-4.0,5.0,-1.0,-2.0,-1.0,-3.0
1.6951610151002765e+18,-3.0,-1.0,1.0,4.0,-1.0,0.0,-2.0,-1.0
1.6951610151272558e+18,0.0,1.0,1.0,-2.0,1.0,1.0,0.0,0.0
1.6951610151282552e+18,1.0,-2.0,-8.0,-4.0,0.0,-3.0,-1.0,-2.0
1.6951610151282552e+18,-1.0,1.0,1.0,-4.0,-2.0,-1.0,-1.0,1.0
1.695161015129265e+18,0.0,-1.0,-5.0,-6.0,-1.0,-3.0,0.0,0.0
1.6951610151342518e+18,-1.0,-2.0,-1.0,1.0,0.0,1.0,0.0,0.0
1.6951610151342518e+18,-1.0,0.0,5.0,5.0,0.0,0.0,0.0,-1.0
1.6951610151352525e+18,-2.0,-2.0,-3.0,-4.0,-1.0,1.0,0.0,-1.0
1.6951610151352525e+18,-1.0,0.0,-3.0,-2.0,2.0,1.0,1.0,-1.0
1.6951610151572385e+18,-1.0,1.0,0.0,-1.0,0.0,0.0,-1.0,-2.0
1.6951610151582377e+18,-1.0,0.0,0.0,-1.0,-3.0,-3.0,-2.0,0.0
1.6951610151612365e+18,0.0,-2.0,3.0,1.0,-1.0,-1.0,-1.0,2.0
1.695161015163235e+18,0.0,1.0,0.0,-2.0,-1.0,-2.0,-2.0,0.0
1.6951610152112077e+18,-1.0,-2.0,-2.0,0.0,1.0,-1.0,-2.0,-2.0
1.6951610152112077e+18,-1.0,-1.0,1.0,2.0,0.0,0.0,-1.0,-1.0
1.6951610152122115e+18,-1.0,-1.0,0.0,-2.0,0.0,-1.0,0.0,0.0
1.6951610152132065e+18,-1.0,-1.0,-1.0,-1.0,1.0,0.0,-1.0,0.0
1.695161015214208e+18,1.0,-2.0,-1.0,1.0,-1.0,-2.0,-2.0,-2.0
1.695161015214208e+18,-1.0,0.0,-1.0,0.0,-1.0,-1.0,-1.0,0.0
1.6951610152182075e+18,0.0,0.0,-2.0,-3.0,-2.0,-1.0,0.0,-1.0
1.6951610152192038e+18,-2.0,-1.0,-2.0,-3.0,-4.0,1.0,0.0,-1.0
1.6951610152202025e+18,-1.0,-1.0,3.0,5.0,1.0,-1.0,0.0,-1.0
1.6951610152202025e+18,-1.0,-1.0,-11.0,-3.0,0.0,-1.0,0.0,1.0
1.6951610152212017e+18,-1.0,-2.0,-4.0,-5.0,-2.0,0.0,0.0,-1.0
1.6951610152212017e+18,1.0,1.0,-1.0,-2.0,-2.0,-1.0,-1.0,-1.0
1.6951610152421898e+18,0.0,0.0,0.0,1.0,0.0,-2.0,-1.0,-1.0
1.6951610152431898e+18,-1.0,0.0,4.0,2.0,-2.0,0.0,-1.0,0.0
1.695161015244189e+18,-1.0,-3.0,-5.0,-2.0,-1.0,-1.0,-1.0,-1.0
1.695161015244189e+18,0.0,-1.0,-1.0,-3.0,0.0,-2.0,1.0,-1.0
1.6951610152661755e+18,0.0,7.0,-5.0,-4.0,-4.0,-3.0,-2.0,-3.0
1.695161015272171e+18,-1.0,0.0,2.0,2.0,0.0,-1.0,0.0,-1.0
1.6951610152731722e+18,-2.0,1.0,0.0,-1.0,1.0,0.0,-2.0,-3.0
1.6951610152741714e+18,1.0,-2.0,5.0,2.0,0.0,0.0,1.0,0.0
1.695161015277169e+18,0.0,22.0,-18.0,-11.0,-7.0,-5.0,-2.0,-1.0
1.695161015277169e+18,-2.0,-1.0,1.0,4.0,0.0,-1.0,-1.0,0.0
1.695161015277169e+18,-1.0,-3.0,5.0,1.0,0.0,0.0,0.0,-1.0
1.6951610152781686e+18,-2.0,5.0,-5.0,-1.0,-2.0,-2.0,-2.0,0.0
1.695161015299156e+18,1.0,-7.0,-3.0,-1.0,-2.0,-3.0,-2.0,0.0
1.695161015299156e+18,2.0,6.0,21.0,-4.0,-6.0,-3.0,0.0,1.0
1.6951610153001556e+18,-2.0,5.0,-1.0,1.0,1.0,0.0,-2.0,-3.0
1.6951610153001556e+18,-4.0,-13.0,-3.0,2.0,2.0,1.0,-1.0,1.0
1.695161015322143e+18,0.0,-1.0,-1.0,3.0,1.0,3.0,1.0,0.0
1.6951610153241426e+18,-3.0,-4.0,10.0,-3.0,-3.0,-2.0,-3.0,-1.0
1.6951610153321446e+18,1.0,2.0,-7.0,-1.0,-4.0,-3.0,-1.0,0.0
1.6951610153331364e+18,1.0,12.0,-15.0,-4.0,-3.0,-2.0,-1.0,-1.0
1.6951610153381335e+18,-3.0,-2.0,7.0,0.0,0.0,3.0,-1.0,0.0
1.6951610153381335e+18,-1.0,-10.0,-5.0,2.0,4.0,1.0,-1.0,-1.0
1.6951610153381335e+18,-1.0,1.0,3.0,-1.0,1.0,-1.0,1.0,1.0
1.6951610153391342e+18,-2.0,4.0,-13.0,-5.0,-2.0,-2.0,-3.0,-1.0
1.6951610153751142e+18,-1.0,-18.0,8.0,6.0,1.0,2.0,1.0,1.0
1.695161015376111e+18,3.0,15.0,-10.0,-7.0,-4.0,-3.0,-2.0,-4.0
1.695161015376111e+18,-1.0,23.0,-19.0,-9.0,-5.0,-4.0,-3.0,-4.0
1.695161015376111e+18,7.0,4.0,9.0,5.0,1.0,0.0,0.0,-1.0
1.6951610153781102e+18,-6.0,-8.0,4.0,4.0,2.0,1.0,0.0,-2.0
1.6951610153781102e+18,2.0,-2.0,7.0,1.0,-1.0,-1.0,0.0,2.0
1.6951610153871053e+18,-1.0,-5.0,-6.0,-2.0,-3.0,-1.0,-2.0,0.0
1.6951610153871053e+18,0.0,-6.0,9.0,-1.0,-1.0,3.0,-1.0,-1.0
1.695161015404095e+18,-1.0,0.0,-6.0,-7.0,-5.0,-2.0,0.0,-1.0
1.695161015404095e+18,-4.0,0.0,-11.0,7.0,5.0,4.0,1.0,-1.0
1.6951610154050947e+18,-1.0,-1.0,-2.0,-1.0,-1.0,0.0,3.0,3.0
1.6951610154050947e+18,-2.0,-14.0,8.0,4.0,0.0,-1.0,0.0,0.0
1.6951610154190884e+18,0.0,-3.0,1.0,-2.0,-1.0,-3.0,0.0,0.0
1.6951610154240832e+18,1.0,2.0,-13.0,-6.0,-5.0,-2.0,-2.0,0.0
1.695161015435078e+18,-4.0,-8.0,3.0,5.0,5.0,0.0,0.0,-3.0
1.695161015435078e+18,-2.0,5.0,-1.0,-8.0,-3.0,0.0,1.0,-1.0
1.6951610154360794e+18,0.0,-9.0,2.0,7.0,3.0,1.0,1.0,-1.0
1.6951610154360794e+18,2.0,6.0,-3.0,-3.0,-1.0,-3.0,-1.0,0.0
1.6951610154370788e+18,-2.0,-12.0,18.0,0.0,-1.0,0.0,0.0,0.0
1.6951610154370788e+18,-2.0,-7.0,-1.0,3.0,0.0,0.0,0.0,-1.0
1.6951610154710587e+18,2.0,1.0,0.0,-5.0,-4.0,-3.0,-2.0,1.0
1.6951610154710587e+18,-2.0,-3.0,-6.0,-2.0,-4.0,-3.0,-1.0,-2.0
1.695161015472056e+18,1.0,-3.0,-5.0,0.0,0.0,0.0,-2.0,0.0
1.695161015472056e+18,-1.0,-3.0,4.0,-1.0,0.0,-2.0,-1.0,0.0
1.695161015480054e+18,-5.0,-2.0,-2.0,3.0,3.0,2.0,2.0,-2.0
1.695161015480054e+18,-1.0,-12.0,11.0,3.0,-1.0,0.0,1.0,0.0
1.6951610154810627e+18,-1.0,1.0,-1.0,0.0,-2.0,-1.0,0.0,0.0
1.6951610154810627e+18,4.0,-3.0,6.0,1.0,-2.0,-1.0,-1.0,-1.0
1.695161015493541e+18,1.0,11.0,-6.0,-3.0,-4.0,-2.0,-2.0,-3.0
1.695161015493541e+18,1.0,6.0,-7.0,-6.0,-1.0,0.0,1.0,-1.0
1.6951610154945452e+18,-3.0,-12.0,-4.0,2.0,2.0,0.0,0.0,0.0
1.6951610154945452e+18,-1.0,6.0,7.0,4.0,-1.0,-2.0,-1.0,0.0
1.6951610155165722e+18,-1.0,0.0,-18.0,-8.0,-3.0,-1.0,0.0,-2.0
1.6951610155165722e+18,0.0,-2.0,5.0,4.0,2.0,-2.0,1.0,-1.0
1.6951610155175703e+18,2.0,-7.0,7.0,0.0,-1.0,-1.0,1.0,0.0
1.6951610155175703e+18,0.0,8.0,-14.0,-4.0,-1.0,-1.0,-3.0,-2.0
1.6951610155396137e+18,-4.0,-10.0,8.0,2.0,0.0,0.0,1.0,-2.0
1.6951610155396137e+18,-2.0,0.0,6.0,1.0,0.0,-1.0,-2.0,2.0
1.6951610155396137e+18,-1.0,-22.0,5.0,1.0,2.0,2.0,1.0,1.0
1.6951610155396137e+18,-2.0,1.0,-2.0,3.0,1.0,1.0,1.0,0.0
1.695161015558393e+18,0.0,-1.0,0.0,-2.0,1.0,0.0,1.0,-1.0
1.695161015558393e+18,-3.0,-4.0,1.0,-2.0,-1.0,0.0,-2.0,0.0
1.695161015559392e+18,0.0,4.0,2.0,-1.0,-3.0,-1.0,-2.0,-2.0
1.695161015559392e+18,-3.0,3.0,-9.0,-3.0,-2.0,-1.0,-1.0,-2.0
1.6951610155783826e+18,2.0,-9.0,2.0,-1.0,0.0,0.0,-1.0,-1.0
1.6951610155783826e+18,-7.0,-10.0,4.0,5.0,3.0,2.0,2.0,-3.0
1.6951610155783826e+18,0.0,8.0,0.0,0.0,-2.0,-2.0,0.0,0.0
1.6951610155783826e+18,-1.0,-4.0,2.0,-1.0,-2.0,-3.0,1.0,-1.0
1.6951610156073134e+18,-2.0,0.0,1.0,0.0,-4.0,-3.0,-2.0,1.0
1.6951610156073134e+18,2.0,3.0,0.0,-1.0,1.0,2.0,0.0,0.0
1.6951610156073134e+18,0.0,-3.0,-2.0,-3.0,-2.0,1.0,-2.0,-2.0
1.6951610156073134e+18,-1.0,1.0,2.0,0.0,1.0,1.0,-1.0,0.0
1.695161015613522e+18,0.0,-9.0,-5.0,-2.0,-2.0,-2.0,-2.0,0.0
1.695161015613522e+18,1.0,-1.0,3.0,0.0,-2.0,-2.0,-1.0,-2.0
1.6951610156295634e+18,-1.0,3.0,-3.0,-1.0,1.0,-2.0,-2.0,0.0
1.6951610156295634e+18,-5.0,-14.0,3.0,0.0,2.0,1.0,0.0,-2.0
1.6951610156535142e+18,2.0,5.0,-5.0,-4.0,-2.0,-2.0,0.0,0.0
1.6951610156535142e+18,-1.0,-2.0,-8.0,-2.0,-1.0,0.0,0.0,-2.0
1.695161015654525e+18,-1.0,2.0,1.0,1.0,-1.0,-2.0,-2.0,-1.0
1.6951610156555116e+18,1.0,1.0,-6.0,-4.0,-4.0,-1.0,-1.0,1.0
1.695161015658543e+18,-1.0,3.0,6.0,0.0,1.0,1.0,0.0,1.0
1.695161015659518e+18,-1.0,-4.0,-6.0,-2.0,-2.0,0.0,0.0,2.0
1.6951610156666995e+18,-1.0,2.0,-5.0,-2.0,0.0,1.0,0.0,0.0
1.6951610156666995e+18,1.0,-4.0,8.0,-2.0,-3.0,-2.0,-1.0,0.0
1.6951610156893276e+18,2.0,10.0,-8.0,-4.0,-1.0,0.0,-1.0,-1.0
1.6951610156903265e+18,1.0,2.0,2.0,1.0,0.0,0.0,-1.0,0.0
1.695161015691326e+18,1.0,1.0,-11.0,-1.0,-1.0,-1.0,-1.0,0.0
1.695161015691326e+18,1.0,-5.0,-3.0,-4.0,0.0,-1.0,0.0,-1.0
1.6951610156973222e+18,1.0,6.0,-2.0,-2.0,0.0,-2.0,-3.0,0.0
1.6951610156983222e+18,1.0,-5.0,4.0,0.0,0.0,0.0,1.0,0.0
1.695161015699321e+18,-3.0,-1.0,7.0,4.0,0.0,-1.0,-2.0,-1.0
1.6951610157003205e+18,-1.0,2.0,-8.0,-1.0,-2.0,-2.0,-1.0,-2.0
1.6951610157293036e+18,-1.0,0.0,2.0,-1.0,1.0,3.0,0.0,-1.0
1.6951610157383304e+18,-2.0,-1.0,-10.0,-4.0,-2.0,-2.0,-2.0,-1.0
1.6951610157402972e+18,1.0,1.0,-1.0,-1.0,-1.0,-1.0,0.0,1.0
1.6951610157402972e+18,0.0,0.0,-2.0,-1.0,0.0,0.0,1.0,-1.0
1.6951610157433285e+18,-3.0,-9.0,10.0,4.0,3.0,-1.0,-1.0,-1.0
1.6951610157442954e+18,-1.0,1.0,2.0,0.0,1.0,0.0,0.0,0.0
1.6951610157442954e+18,0.0,-10.0,-4.0,-1.0,0.0,-2.0,0.0,-1.0
1.6951610157452964e+18,-3.0,-2.0,4.0,3.0,0.0,0.0,-1.0,-2.0
1.6951610157572882e+18,-3.0,0.0,-4.0,-3.0,0.0,-1.0,0.0,0.0
1.6951610157582876e+18,0.0,4.0,1.0,0.0,-1.0,-2.0,-1.0,-2.0
1.695161015759291e+18,0.0,-8.0,-5.0,0.0,-2.0,-1.0,1.0,1.0
1.695161015759291e+18,-7.0,-13.0,12.0,4.0,3.0,1.0,0.0,-1.0
1.6951610157802744e+18,-1.0,10.0,-11.0,-5.0,-1.0,-2.0,-2.0,-1.0
1.6951610157802744e+18,-3.0,-4.0,0.0,-1.0,-2.0,-2.0,-1.0,0.0
1.6951610157812746e+18,1.0,7.0,5.0,-1.0,-1.0,-3.0,0.0,0.0
1.695161015782279e+18,1.0,3.0,3.0,-1.0,-1.0,-2.0,-2.0,-2.0
1.6951610157942682e+18,1.0,-1.0,-11.0,0.0,-2.0,0.0,0.0,0.0
1.6951610157952673e+18,0.0,0.0,-7.0,-3.0,-1.0,2.0,-1.0,-2.0
1.695161015819254e+18,1.0,1.0,-1.0,-3.0,-1.0,0.0,-2.0,-2.0
1.6951610158202522e+18,1.0,6.0,-15.0,-3.0,-2.0,-1.0,0.0,-1.0
1.6951610158212547e+18,-1.0,-2.0,14.0,-2.0,-1.0,1.0,-2.0,-1.0
1.6951610158212547e+18,2.0,1.0,-7.0,-2.0,-2.0,-3.0,-3.0,-2.0
1.6951610158312456e+18,1.0,0.0,2.0,0.0,1.0,-1.0,-1.0,1.0
1.6951610158322455e+18,0.0,-2.0,3.0,0.0,-2.0,-2.0,-1.0,1.0
1.6951610158412396e+18,0.0,-6.0,0.0,4.0,0.0,0.0,0.0,2.0
1.6951610158412396e+18,-2.0,2.0,-5.0,0.0,-1.0,-1.0,0.0,0.0
1.695161015842239e+18,0.0,9.0,-6.0,-5.0,-5.0,-4.0,-3.0,-1.0
1.695161015842239e+18,0.0,1.0,2.0,-1.0,0.0,0.0,-3.0,0.0
1.6951610158672236e+18,-5.0,-4.0,-1.0,3.0,2.0,1.0,-1.0,-1.0
1.695161015868226e+18,0.0,-5.0,-4.0,-3.0,-1.0,-3.0,-2.0,-2.0
1.695161015879219e+18,0.0,-13.0,15.0,2.0,2.0,0.0,2.0,1.0
1.6951610158802179e+18,2.0,2.0,-18.0,0.0,-2.0,-2.0,-1.0,1.0
1.6951610158812168e+18,2.0,1.0,4.0,5.0,-3.0,-3.0,-4.0,-2.0
1.6951610158812168e+18,-3.0,-11.0,13.0,5.0,2.0,0.0,0.0,-1.0
1.695161015883216e+18,-4.0,-2.0,-2.0,-5.0,0.0,2.0,-1.0,1.0
1.695161015883216e+18,-1.0,-3.0,-1.0,-3.0,0.0,-1.0,-1.0,-1.0
1.6951610159072028e+18,2.0,-3.0,4.0,1.0,1.0,1.0,-1.0,-1.0
1.6951610159082035e+18,-4.0,4.0,4.0,2.0,0.0,0.0,0.0,-1.0
1.695161015909202e+18,0.0,-1.0,2.0,2.0,-1.0,-1.0,0.0,0.0
1.695161015909202e+18,-1.0,-3.0,-3.0,-1.0,0.0,0.0,1.0,0.0
1.6951610159291884e+18,1.0,4.0,-3.0,-4.0,-4.0,-3.0,-1.0,-2.0
1.6951610159301885e+18,-1.0,0.0,-6.0,-1.0,-3.0,0.0,-1.0,0.0
1.6951610159311885e+18,0.0,3.0,-11.0,-1.0,-1.0,0.0,-1.0,-1.0
1.6951610159311885e+18,0.0,-1.0,3.0,-1.0,0.0,-1.0,0.0,-3.0
1.6951610159371855e+18,-4.0,-5.0,2.0,-4.0,-2.0,-2.0,-1.0,-2.0
1.6951610159371855e+18,-2.0,2.0,2.0,3.0,-2.0,0.0,1.0,0.0
1.6951610159381837e+18,-3.0,-4.0,1.0,1.0,-1.0,-1.0,-1.0,-2.0
1.695161015939185e+18,0.0,-1.0,-10.0,-2.0,-2.0,0.0,-2.0,-1.0
1.6951610159731643e+18,1.0,1.0,1.0,-1.0,0.0,1.0,1.0,1.0
1.6951610159841577e+18,-1.0,-3.0,0.0,-2.0,-1.0,0.0,-3.0,-2.0
1.6951610159841577e+18,0.0,4.0,-2.0,0.0,-2.0,-2.0,0.0,0.0
1.6951610159841577e+18,-2.0,-3.0,4.0,-4.0,0.0,-1.0,2.0,1.0
1.6951610159861563e+18,-2.0,-2.0,-4.0,-1.0,-3.0,-3.0,1.0,1.0
1.6951610159871555e+18,-1.0,2.0,-4.0,4.0,-1.0,-1.0,-2.0,-2.0
1.6951610159871555e+18,-3.0,-11.0,10.0,4.0,3.0,2.0,1.0,-2.0
1.6951610159871555e+18,0.0,0.0,-3.0,-4.0,-3.0,-1.0,-3.0,-2.0
1.69516101599815e+18,1.0,3.0,0.0,-5.0,-2.0,-2.0,-1.0,0.0
1.69516101599815e+18,0.0,-4.0,-3.0,-3.0,-1.0,0.0,0.0,1.0
1.6951610159991506e+18,-2.0,2.0,0.0,2.0,0.0,0.0,-1.0,-2.0
1.6951610159991506e+18,-1.0,0.0,1.0,-1.0,-1.0,-1.0,-1.0,1.0
1.695161016020137e+18,2.0,0.0,-5.0,1.0,-1.0,-1.0,-1.0,-1.0
1.6951610160211384e+18,1.0,1.0,9.0,1.0,1.0,0.0,1.0,-1.0
1.6951610160211384e+18,0.0,0.0,-19.0,-3.0,-1.0,-2.0,0.0,1.0
1.695161016022136e+18,-1.0,7.0,15.0,1.0,-1.0,0.0,-1.0,-2.0
1.6951610160421317e+18,-1.0,1.0,-3.0,-4.0,-3.0,-2.0,-1.0,-2.0
1.6951610160431242e+18,-1.0,-1.0,-5.0,-6.0,-1.0,-2.0,-1.0,-1.0
1.6951610160441242e+18,-1.0,1.0,3.0,4.0,-1.0,1.0,-3.0,-2.0
1.6951610160451244e+18,-1.0,5.0,-6.0,0.0,0.0,1.0,-2.0,-2.0
1.695161016058116e+18,-2.0,-25.0,-2.0,4.0,3.0,3.0,0.0,1.0
1.6951610160591155e+18,-1.0,2.0,8.0,-4.0,0.0,0.0,0.0,-1.0
1.6951610160601162e+18,-1.0,3.0,7.0,-4.0,-1.0,0.0,0.0,-1.0
1.6951610160611182e+18,0.0,-2.0,-2.0,1.0,-1.0,-4.0,-3.0,-2.0
1.6951610160791158e+18,-1.0,5.0,-1.0,-1.0,1.0,-1.0,0.0,-1.0
1.695161016080109e+18,0.0,-2.0,-11.0,-2.0,0.0,-1.0,-1.0,1.0
1.6951610160811028e+18,1.0,2.0,1.0,-1.0,-1.0,-1.0,0.0,0.0
1.695161016082102e+18,-1.0,-1.0,-1.0,-2.0,-2.0,-3.0,-1.0,1.0
1.695161016109087e+18,-3.0,2.0,-8.0,-3.0,-3.0,-3.0,-2.0,0.0
1.695161016109087e+18,-2.0,-6.0,-9.0,1.0,-1.0,-2.0,0.0,-1.0
1.695161016109087e+18,0.0,3.0,6.0,-2.0,-1.0,0.0,0.0,-1.0
1.6951610161100849e+18,0.0,-2.0,1.0,1.0,1.0,2.0,-1.0,-1.0
1.6951610161320732e+18,0.0,1.0,2.0,0.0,0.0,1.0,0.0,-1.0
1.6951610161330724e+18,-2.0,2.0,-5.0,-3.0,-4.0,-2.0,0.0,-1.0
1.6951610161340733e+18,0.0,0.0,-4.0,-2.0,-1.0,-1.0,-2.0,1.0
1.6951610161340733e+18,0.0,-2.0,-3.0,0.0,-2.0,-3.0,1.0,0.0
1.6951610161400689e+18,-1.0,-5.0,7.0,3.0,2.0,3.0,-1.0,-1.0
1.6951610161400689e+18,1.0,1.0,-11.0,-3.0,-2.0,0.0,0.0,-2.0
1.695161016142068e+18,0.0,-3.0,-5.0,-1.0,-2.0,0.0,0.0,-1.0
1.695161016142068e+18,1.0,2.0,1.0,-2.0,0.0,-1.0,-2.0,-1.0
1.6951610161710508e+18,0.0,5.0,-2.0,5.0,-1.0,0.0,-1.0,-1.0
1.6951610161710508e+18,0.0,-1.0,4.0,-1.0,0.0,1.0,-1.0,0.0
1.6951610161720535e+18,-1.0,-1.0,-5.0,-2.0,-1.0,-2.0,-1.0,0.0
1.695161016173051e+18,0.0,-1.0,-4.0,0.0,0.0,-1.0,1.0,0.0
1.695161016185043e+18,-3.0,-2.0,2.0,0.0,1.0,0.0,0.0,1.0
1.695161016185043e+18,0.0,-2.0,1.0,-1.0,-3.0,0.0,-2.0,-1.0
1.695161016186042e+18,0.0,2.0,0.0,3.0,-1.0,-2.0,-2.0,-1.0
1.6951610161870418e+18,1.0,0.0,-5.0,0.0,-2.0,-1.0,-2.0,-1.0
1.6951610162000333e+18,0.0,2.0,7.0,-3.0,0.0,-1.0,1.0,-1.0
1.6951610162090276e+18,0.0,0.0,2.0,2.0,1.0,0.0,-3.0,0.0
1.6951610162100314e+18,1.0,2.0,0.0,0.0,-1.0,-2.0,-2.0,-1.0
1.6951610162100314e+18,-1.0,0.0,0.0,1.0,-1.0,0.0,0.0,0.0
1.6951610162220204e+18,-1.0,0.0,-4.0,-1.0,0.0,-1.0,0.0,-3.0
1.6951610162220204e+18,1.0,-2.0,-1.0,-3.0,0.0,0.0,-1.0,0.0
1.6951610162230205e+18,1.0,4.0,-7.0,-1.0,-2.0,1.0,-1.0,-3.0
1.6951610162230205e+18,-2.0,-8.0,6.0,-1.0,1.0,3.0,0.0,0.0
1.6951610162360125e+18,2.0,1.0,-2.0,-1.0,-3.0,-2.0,-2.0,0.0
1.6951610162370135e+18,-3.0,-2.0,7.0,3.0,2.0,0.0,0.0,-1.0
1.695161016243008e+18,-2.0,2.0,-4.0,-1.0,0.0,-2.0,0.0,-1.0
1.695161016244008e+18,-1.0,0.0,-1.0,0.0,-3.0,-1.0,-1.0,-2.0
1.6951610162590213e+18,-2.0,-2.0,6.0,0.0,2.0,1.0,0.0,-1.0
1.6951610162590213e+18,1.0,-1.0,-13.0,-2.0,-1.0,0.0,-1.0,0.0
1.695161016260998e+18,0.0,-2.0,7.0,-4.0,0.0,-2.0,-1.0,-1.0
1.695161016260998e+18,0.0,1.0,0.0,3.0,0.0,0.0,1.0,-2.0
1.695161016281008e+18,-1.0,5.0,-3.0,-4.0,-3.0,-2.0,0.0,-2.0
1.6951610162819858e+18,0.0,1.0,-1.0,0.0,-2.0,-4.0,-1.0,-1.0
1.695161016296993e+18,-3.0,-2.0,-1.0,-1.0,0.0,1.0,1.0,0.0
1.695161016296993e+18,1.0,-1.0,0.0,-3.0,-1.0,-2.0,0.0,0.0
1.695161016296993e+18,-1.0,-3.0,-14.0,0.0,-1.0,0.0,-1.0,-1.0
1.695161016296993e+18,-1.0,2.0,10.0,6.0,-1.0,-1.0,-3.0,-1.0
1.6951610163029742e+18,-2.0,-7.0,-8.0,-3.0,-1.0,0.0,0.0,-2.0
1.6951610163029742e+18,-1.0,-1.0,-4.0,-1.0,0.0,0.0,-1.0,0.0
1.6951610163189865e+18,-2.0,-3.0,9.0,0.0,-3.0,0.0,-2.0,-1.0
1.6951610163189865e+18,-2.0,-3.0,-6.0,-5.0,-3.0,0.0,-2.0,-1.0
1.695161016320963e+18,-1.0,4.0,1.0,-1.0,-2.0,-2.0,0.0,1.0
1.695161016320963e+18,-1.0,0.0,-3.0,-2.0,0.0,1.0,0.0,0.0
1.6951610163449523e+18,-2.0,-5.0,-2.0,1.0,1.0,-2.0,0.0,-1.0
1.6951610163449523e+18,0.0,-1.0,1.0,-1.0,-1.0,-1.0,2.0,-1.0
1.6951610163449523e+18,0.0,-1.0,2.0,0.0,-4.0,-1.0,0.0,-1.0
1.695161016345951e+18,-3.0,0.0,-1.0,0.0,0.0,0.0,1.0,0.0
1.6951610163559427e+18,-2.0,-10.0,-7.0,-4.0,-2.0,-2.0,-2.0,-3.0
1.6951610163559427e+18,0.0,0.0,1.0,-1.0,-2.0,-3.0,-1.0,-2.0
1.695161016362939e+18,2.0,1.0,-4.0,-2.0,-3.0,-3.0,-3.0,-3.0
1.695161016362939e+18,0.0,2.0,-2.0,-2.0,-2.0,-1.0,-3.0,-3.0
1.6951610163869274e+18,-3.0,3.0,0.0,0.0,-2.0,-4.0,-2.0,-2.0
1.6951610163869274e+18,-4.0,-6.0,-3.0,-1.0,-2.0,-2.0,-2.0,0.0
1.695161016387947e+18,-3.0,-3.0,-4.0,-1.0,2.0,-1.0,-1.0,-1.0
1.695161016387947e+18,0.0,-2.0,1.0,-3.0,-3.0,0.0,-1.0,-1.0
1.6951610164089147e+18,1.0,3.0,1.0,2.0,-1.0,-2.0,-1.0,0.0
1.6951610164089147e+18,-2.0,-1.0,-3.0,-2.0,-1.0,-3.0,0.0,-3.0
1.6951610164109133e+18,1.0,-1.0,3.0,-2.0,0.0,0.0,-2.0,1.0
1.6951610164109133e+18,-2.0,-1.0,-3.0,-2.0,0.0,-1.0,-2.0,0.0
1.695161016415908e+18,0.0,-1.0,-1.0,0.0,-1.0,1.0,-1.0,-1.0
1.6951610164169085e+18,0.0,-2.0,-5.0,-2.0,0.0,1.0,-1.0,0.0
1.6951610164229053e+18,-1.0,2.0,5.0,1.0,-1.0,-1.0,0.0,-2.0
1.6951610164229053e+18,-1.0,-4.0,0.0,2.0,-2.0,-1.0,-1.0,-2.0
1.6951610164379185e+18,0.0,0.0,-2.0,0.0,-1.0,1.0,-1.0,0.0
1.6951610164379185e+18,-1.0,0.0,0.0,0.0,1.0,1.0,-1.0,-2.0
1.6951610164468908e+18,-1.0,0.0,2.0,0.0,1.0,-1.0,-1.0,-2.0
1.6951610164468908e+18,-2.0,-4.0,-7.0,-2.0,-2.0,-2.0,-1.0,-2.0
1.6951610164618824e+18,0.0,0.0,6.0,2.0,1.0,-4.0,0.0,0.0
1.6951610164618824e+18,1.0,6.0,5.0,-2.0,0.0,-2.0,0.0,-1.0
1.6951610164629038e+18,-2.0,-13.0,-4.0,0.0,-1.0,1.0,1.0,-1.0
1.6951610164629038e+18,-1.0,1.0,-3.0,0.0,-2.0,-3.0,-1.0,-3.0
1.695161016475874e+18,0.0,0.0,5.0,-3.0,0.0,1.0,-1.0,-1.0
1.695161016475874e+18,0.0,0.0,-1.0,-2.0,-3.0,-3.0,-4.0,-4.0
1.695161016482873e+18,0.0,1.0,-8.0,-2.0,-4.0,0.0,2.0,1.0
1.695161016482873e+18,-1.0,-3.0,7.0,-3.0,-5.0,-2.0,0.0,0.0
1.695161016498883e+18,1.0,0.0,-8.0,1.0,-1.0,2.0,1.0,-2.0
1.695161016498883e+18,0.0,-1.0,5.0,1.0,6.0,2.0,1.0,-1.0
1.6951610165008604e+18,-1.0,0.0,2.0,8.0,9.0,0.0,-2.0,-1.0
1.6951610165008604e+18,-1.0,0.0,-3.0,-2.0,-5.0,0.0,2.0,1.0
1.6951610165268613e+18,-1.0,-2.0,-4.0,-1.0,-7.0,-3.0,-1.0,-1.0
1.695161016527846e+18,0.0,2.0,-4.0,-10.0,-13.0,-4.0,1.0,-1.0
1.6951610165288448e+18,0.0,0.0,-4.0,1.0,8.0,4.0,-1.0,0.0
1.6951610165288448e+18,-2.0,-4.0,6.0,2.0,0.0,-4.0,-3.0,-2.0
1.6951610165348577e+18,-1.0,-3.0,-4.0,-15.0,-10.0,-3.0,-1.0,-1.0
1.6951610165358423e+18,-1.0,-3.0,0.0,10.0,2.0,2.0,-4.0,1.0
1.6951610165518318e+18,1.0,3.0,1.0,-3.0,-4.0,-9.0,-1.0,0.0
1.6951610165518318e+18,-3.0,-3.0,-3.0,-2.0,-2.0,11.0,3.0,0.0
1.695161016558828e+18,2.0,0.0,-2.0,12.0,21.0,9.0,4.0,5.0
1.6951610165598275e+18,-7.0,-4.0,3.0,-2.0,-13.0,-6.0,3.0,-1.0
1.6951610165608282e+18,1.0,4.0,-3.0,-6.0,4.0,2.0,-5.0,-19.0
1.6951610165608282e+18,0.0,3.0,-5.0,-8.0,-3.0,-8.0,-11.0,3.0
1.6951610166028022e+18,1.0,-6.0,-2.0,-8.0,-5.0,-4.0,0.0,7.0
1.6951610166038016e+18,0.0,0.0,-4.0,8.0,11.0,6.0,0.0,2.0
1.6951610166038016e+18,-2.0,-5.0,3.0,1.0,-16.0,-7.0,1.0,6.0
1.6951610166038016e+18,-3.0,4.0,-3.0,6.0,17.0,3.0,-2.0,-13.0
1.6951610166038016e+18,1.0,-4.0,2.0,-1.0,-2.0,-1.0,-4.0,-5.0
1.6951610166048013e+18,-1.0,2.0,-5.0,-3.0,-1.0,-5.0,-1.0,-2.0
1.695161016611799e+18,3.0,11.0,5.0,2.0,6.0,3.0,4.0,24.0
1.695161016611799e+18,-1.0,-16.0,-5.0,-7.0,-7.0,-5.0,0.0,-25.0
1.695161016626788e+18,-9.0,4.0,-2.0,-5.0,-8.0,1.0,-1.0,5.0
1.695161016626788e+18,0.0,-6.0,2.0,8.0,16.0,5.0,13.0,18.0
1.6951610166277875e+18,-2.0,-2.0,-8.0,-12.0,-16.0,-21.0,-14.0,-24.0
1.6951610166287872e+18,1.0,1.0,3.0,-3.0,1.0,10.0,-19.0,0.0
1.6951610166487974e+18,13.0,3.0,0.0,-6.0,-9.0,-3.0,0.0,16.0
1.6951610166497748e+18,-2.0,4.0,-2.0,1.0,9.0,10.0,19.0,-2.0
1.6951610166507748e+18,-4.0,-5.0,-5.0,-2.0,-3.0,-6.0,-16.0,3.0
1.6951610166507748e+18,-14.0,-10.0,-4.0,2.0,2.0,-9.0,-1.0,-3.0
1.6951610166547715e+18,-2.0,5.0,7.0,12.0,3.0,1.0,-15.0,-7.0
1.6951610166557734e+18,5.0,5.0,0.0,-10.0,-18.0,-12.0,-12.0,-1.0
1.6951610166637668e+18,-3.0,-18.0,-5.0,-12.0,20.0,21.0,44.0,-3.0
1.6951610166647716e+18,2.0,-5.0,2.0,6.0,-3.0,-3.0,-4.0,12.0
1.6951610166867538e+18,-1.0,10.0,-1.0,-1.0,0.0,-2.0,6.0,-2.0
1.6951610166867538e+18,-1.0,-7.0,-7.0,-5.0,-7.0,-5.0,-13.0,13.0
1.6951610166877537e+18,-4.0,14.0,14.0,13.0,7.0,-3.0,-27.0,-47.0
1.6951610166887555e+18,-9.0,-5.0,-7.0,-7.0,-11.0,1.0,-1.0,33.0
1.6951610167007455e+18,4.0,-7.0,1.0,3.0,3.0,-10.0,-2.0,-36.0
1.6951610167007455e+18,-15.0,-2.0,-12.0,-10.0,-9.0,-3.0,8.0,36.0
1.6951610167097416e+18,1.0,-4.0,0.0,2.0,-5.0,8.0,-2.0,-7.0
1.6951610167097416e+18,5.0,1.0,7.0,3.0,10.0,5.0,-5.0,3.0
1.6951610167147597e+18,-1.0,13.0,-1.0,-3.0,-5.0,-6.0,1.0,6.0
1.695161016715737e+18,6.0,4.0,-4.0,-4.0,-2.0,-6.0,-1.0,-22.0
1.6951610167247327e+18,-1.0,-9.0,-3.0,1.0,-2.0,8.0,-3.0,7.0
1.6951610167247327e+18,12.0,20.0,2.0,14.0,14.0,2.0,14.0,-7.0
1.6951610167393846e+18,1.0,-15.0,0.0,-9.0,-1.0,-2.0,-18.0,5.0
1.6951610167393846e+18,-1.0,-2.0,-2.0,-1.0,-11.0,-14.0,-17.0,-4.0
1.6951610167413796e+18,-9.0,-5.0,-5.0,-4.0,0.0,3.0,15.0,2.0
1.6951610167413796e+18,-5.0,-8.0,-5.0,-13.0,-10.0,-8.0,-7.0,-1.0
1.695161016761388e+18,4.0,-12.0,4.0,-1.0,-1.0,6.0,24.0,32.0
1.6951610167623672e+18,5.0,7.0,1.0,21.0,9.0,3.0,-16.0,-35.0
1.695161016763365e+18,5.0,-16.0,1.0,-5.0,-6.0,-2.0,-12.0,-4.0
1.695161016763365e+18,2.0,18.0,-8.0,-18.0,-14.0,-6.0,8.0,-10.0
1.695161016776221e+18,-10.0,-4.0,-5.0,15.0,3.0,-3.0,-12.0,13.0
1.695161016776221e+18,2.0,2.0,7.0,-11.0,11.0,14.0,17.0,1.0
1.695161016801403e+18,-10.0,-2.0,-3.0,2.0,-4.0,-5.0,-3.0,17.0
1.695161016801403e+18,0.0,-3.0,-1.0,8.0,5.0,3.0,9.0,-20.0
1.6951610168024018e+18,0.0,14.0,7.0,-21.0,-19.0,-12.0,-8.0,-15.0
1.6951610168034012e+18,14.0,-5.0,-17.0,13.0,13.0,1.0,4.0,1.0
1.695161016814396e+18,16.0,18.0,-7.0,6.0,2.0,5.0,4.0,3.0
1.695161016814396e+18,5.0,-7.0,24.0,-8.0,-4.0,7.0,-14.0,8.0
1.6951610168233892e+18,-33.0,-6.0,-17.0,5.0,3.0,4.0,11.0,-5.0
1.69516101682439e+18,6.0,-1.0,-6.0,4.0,5.0,5.0,17.0,-22.0
1.69516101682439e+18,-10.0,9.0,25.0,-6.0,-9.0,-13.0,-13.0,-2.0
1.69516101682439e+18,0.0,-2.0,-21.0,-4.0,-8.0,-7.0,-14.0,30.0
1.6951610168383834e+18,32.0,-7.0,25.0,2.0,4.0,1.0,-4.0,-3.0
1.6951610168393797e+18,-15.0,10.0,-14.0,-8.0,-4.0,-1.0,-7.0,-25.0
1.695161016852372e+18,-20.0,-17.0,22.0,-6.0,-14.0,-8.0,11.0,13.0
1.695161016852372e+18,11.0,22.0,0.0,11.0,9.0,5.0,13.0,-25.0
1.6951610168583675e+18,-29.0,-7.0,6.0,-3.0,5.0,-6.0,-28.0,-12.0
1.695161016859368e+18,17.0,-32.0,-48.0,-14.0,-7.0,-7.0,-3.0,21.0
1.695161016865368e+18,-11.0,8.0,23.0,24.0,9.0,14.0,17.0,17.0
1.695161016865368e+18,-3.0,-1.0,3.0,3.0,-2.0,-5.0,0.0,-1.0
1.6951610168813786e+18,7.0,-2.0,-6.0,-7.0,17.0,12.0,14.0,-9.0
1.6951610168823555e+18,-16.0,2.0,18.0,-13.0,-19.0,-5.0,-16.0,6.0
1.6951610168833582e+18,13.0,5.0,-7.0,1.0,4.0,-7.0,-13.0,-12.0
1.6951610168833582e+18,7.0,3.0,-4.0,10.0,-1.0,-4.0,3.0,19.0
1.6951610169043436e+18,-17.0,-2.0,14.0,-2.0,-5.0,2.0,2.0,-20.0
1.6951610169043436e+18,-12.0,-21.0,-8.0,-14.0,-9.0,-2.0,6.0,-1.0
1.6951610169153393e+18,8.0,13.0,-27.0,-1.0,-3.0,-5.0,-7.0,18.0
1.6951610169163405e+18,3.0,-17.0,1.0,-6.0,-4.0,-8.0,-2.0,-10.0
1.6951610169183342e+18,14.0,3.0,-7.0,8.0,-1.0,-2.0,3.0,20.0
1.6951610169183342e+18,13.0,15.0,18.0,-4.0,4.0,0.0,-7.0,8.0
1.695161016927329e+18,-26.0,-26.0,-9.0,1.0,-3.0,0.0,-10.0,-41.0
1.695161016927329e+18,-12.0,8.0,-5.0,-13.0,-5.0,-4.0,-6.0,14.0
1.6951610169423199e+18,3.0,-10.0,-19.0,0.0,-2.0,-3.0,8.0,-7.0
1.6951610169423199e+18,-6.0,1.0,19.0,3.0,1.0,6.0,9.0,-12.0
1.6951610169433193e+18,10.0,1.0,-2.0,1.0,4.0,7.0,6.0,3.0
1.6951610169433193e+18,2.0,-1.0,-41.0,-4.0,4.0,2.0,-1.0,1.0
1.6951610169553147e+18,4.0,-16.0,8.0,7.0,12.0,15.0,5.0,0.0
1.6951610169553147e+18,-10.0,-2.0,39.0,3.0,7.0,-3.0,-1.0,-1.0
1.695161016964312e+18,-1.0,2.0,26.0,-12.0,-21.0,-13.0,3.0,6.0
1.695161016964312e+18,10.0,-2.0,2.0,4.0,12.0,1.0,-2.0,-19.0
1.6951610169812982e+18,-13.0,5.0,-4.0,-5.0,-10.0,-5.0,1.0,6.0
1.6951610169812982e+18,15.0,6.0,0.0,10.0,-7.0,-5.0,-17.0,18.0
1.6951610169852956e+18,12.0,13.0,3.0,-8.0,-3.0,-1.0,5.0,10.0
1.6951610169852956e+18,6.0,-25.0,-1.0,7.0,-2.0,-4.0,8.0,-4.0
1.695161017017277e+18,-7.0,23.0,5.0,-1.0,2.0,1.0,5.0,-4.0
1.695161017017277e+18,-2.0,26.0,-17.0,2.0,1.0,2.0,-1.0,-22.0
1.6951610170182766e+18,1.0,-13.0,6.0,5.0,-1.0,-11.0,-21.0,2.0
1.6951610170182766e+18,17.0,7.0,20.0,-5.0,0.0,7.0,15.0,26.0
1.695161017024273e+18,-10.0,-3.0,-45.0,-16.0,-4.0,-6.0,-6.0,-10.0
1.695161017024273e+18,0.0,-7.0,12.0,17.0,3.0,5.0,5.0,-8.0
1.6951610170262723e+18,0.0,8.0,2.0,-4.0,7.0,1.0,-9.0,-10.0
1.6951610170262723e+18,3.0,15.0,20.0,10.0,2.0,15.0,5.0,29.0
1.695161017041287e+18,2.0,-9.0,-20.0,-7.0,-4.0,-6.0,-1.0,10.0
1.695161017050263e+18,-8.0,-1.0,-25.0,-12.0,0.0,2.0,10.0,0.0
1.695161017050263e+18,-19.0,1.0,51.0,2.0,-3.0,-7.0,-10.0,0.0
1.695161017050263e+18,-2.0,0.0,12.0,9.0,4.0,5.0,10.0,-26.0
1.6951610170762435e+18,3.0,-25.0,-16.0,4.0,-5.0,-6.0,-20.0,0.0
1.6951610170772434e+18,-1.0,-1.0,-8.0,-1.0,1.0,-7.0,-18.0,6.0
1.6951610170782415e+18,14.0,-13.0,-1.0,-3.0,2.0,2.0,5.0,32.0
1.6951610170782415e+18,3.0,-3.0,-49.0,-6.0,-11.0,-8.0,8.0,-10.0
1.6951610170842396e+18,16.0,11.0,17.0,11.0,18.0,19.0,10.0,-2.0
1.6951610170842396e+18,-6.0,-22.0,2.0,-4.0,-5.0,-7.0,-7.0,-16.0
1.6951610170852372e+18,12.0,9.0,-8.0,-3.0,1.0,5.0,1.0,5.0
1.6951610170852372e+18,-5.0,-15.0,11.0,1.0,-12.0,-9.0,6.0,5.0
1.6951610171062264e+18,-8.0,-3.0,10.0,6.0,-1.0,1.0,-1.0,-1.0
1.6951610171062264e+18,8.0,6.0,49.0,7.0,5.0,6.0,-6.0,-15.0
1.6951610171082245e+18,6.0,19.0,-6.0,-14.0,-7.0,-6.0,-2.0,-1.0
1.6951610171082245e+18,-12.0,-12.0,-9.0,-8.0,-7.0,-17.0,-35.0,37.0
1.695161017134832e+18,3.0,-9.0,8.0,-5.0,-19.0,-12.0,6.0,-15.0
1.695161017134832e+18,-11.0,15.0,1.0,20.0,16.0,2.0,-18.0,-5.0
1.695161017134832e+18,-2.0,0.0,-24.0,-13.0,0.0,0.0,7.0,6.0
1.695161017134832e+18,-26.0,8.0,13.0,-5.0,2.0,6.0,8.0,-70.0
1.6951610171441157e+18,14.0,0.0,21.0,5.0,-1.0,2.0,0.0,40.0
1.6951610171441157e+18,-10.0,-18.0,-18.0,-8.0,-6.0,0.0,13.0,-6.0
1.695161017146119e+18,13.0,7.0,-29.0,0.0,-2.0,-4.0,-8.0,-20.0
1.695161017146119e+18,-22.0,3.0,-5.0,-9.0,-4.0,-1.0,0.0,18.0
1.6951610171663918e+18,63.0,3.0,-3.0,-3.0,-1.0,-2.0,-9.0,-12.0
1.6951610171663918e+18,2.0,12.0,0.0,-6.0,-5.0,4.0,19.0,9.0
1.6951610171683692e+18,-1.0,-15.0,1.0,4.0,6.0,1.0,-5.0,3.0
1.6951610171683692e+18,30.0,-1.0,49.0,2.0,-2.0,-2.0,-1.0,-18.0
1.695161017188559e+18,-33.0,21.0,5.0,-1.0,0.0,4.0,9.0,-49.0
1.6951610171895596e+18,10.0,5.0,-9.0,-9.0,-12.0,-8.0,-24.0,39.0
1.6951610171975596e+18,-13.0,21.0,38.0,14.0,23.0,8.0,6.0,-10.0
1.6951610171975596e+18,-13.0,5.0,-27.0,-13.0,-8.0,-4.0,-3.0,-4.0
1.695161017204556e+18,-24.0,-23.0,-4.0,5.0,7.0,3.0,6.0,-17.0
1.6951610172055498e+18,-4.0,-14.0,-13.0,-6.0,-16.0,-4.0,4.0,-6.0
1.6951610172065485e+18,-28.0,-5.0,6.0,-1.0,3.0,9.0,11.0,-3.0
1.6951610172065485e+18,22.0,22.0,10.0,8.0,1.0,-6.0,-5.0,-10.0
1.6951610172345336e+18,6.0,11.0,-38.0,-12.0,-1.0,-3.0,5.0,6.0
1.6951610172345336e+18,-9.0,-4.0,13.0,1.0,1.0,-1.0,-17.0,-3.0
1.6951610172435272e+18,7.0,-10.0,-35.0,-6.0,-2.0,1.0,1.0,-1.0
1.695161017244527e+18,19.0,-2.0,12.0,6.0,1.0,2.0,-19.0,0.0
1.6951610172455278e+18,-23.0,5.0,2.0,-1.0,-2.0,-6.0,1.0,13.0
1.6951610172455278e+18,-4.0,-10.0,60.0,11.0,6.0,3.0,17.0,-9.0
1.6951610172555218e+18,23.0,-10.0,-77.0,-6.0,-3.0,3.0,18.0,-12.0
1.6951610172565202e+18,-16.0,-1.0,39.0,-2.0,-4.0,-10.0,-10.0,27.0
1.6951610172645158e+18,-17.0,2.0,13.0,1.0,-1.0,1.0,-3.0,-34.0
1.695161017265515e+18,13.0,8.0,14.0,-7.0,-1.0,-5.0,-2.0,59.0
1.6951610172665144e+18,-25.0,6.0,-4.0,6.0,-2.0,1.0,13.0,-16.0
1.6951610172665144e+18,-27.0,-53.0,-12.0,-2.0,1.0,0.0,-6.0,4.0
1.6951610172785213e+18,-3.0,-1.0,0.0,2.0,-4.0,-1.0,-1.0,6.0
1.6951610172785213e+18,13.0,17.0,16.0,6.0,5.0,2.0,-1.0,-6.0
1.6951610173145198e+18,-6.0,-28.0,4.0,-15.0,-13.0,-4.0,-3.0,-2.0
1.6951610173285053e+18,10.0,28.0,-37.0,4.0,12.0,13.0,17.0,8.0
1.6951610173285053e+18,19.0,6.0,23.0,-6.0,-2.0,-9.0,-22.0,25.0
1.6951610173285053e+18,-5.0,-14.0,-47.0,-3.0,2.0,7.0,8.0,-25.0
1.6951610173285053e+18,-12.0,-16.0,-13.0,1.0,-4.0,-2.0,-3.0,-10.0
1.6951610173285053e+18,-8.0,4.0,16.0,0.0,12.0,7.0,21.0,14.0
1.6951610173554888e+18,11.0,13.0,-54.0,0.0,-8.0,-3.0,3.0,28.0
1.695161017356488e+18,0.0,-31.0,-13.0,-4.0,-5.0,-5.0,0.0,-12.0
1.695161017357487e+18,17.0,18.0,17.0,4.0,2.0,4.0,-7.0,21.0
1.695161017357487e+18,-29.0,-7.0,-18.0,-14.0,-4.0,-6.0,-5.0,-38.0
1.695161017357487e+18,-5.0,-4.0,-18.0,15.0,8.0,4.0,9.0,17.0
1.6951610173584863e+18,8.0,-9.0,12.0,-10.0,10.0,7.0,4.0,21.0
1.6951610173714788e+18,-12.0,-1.0,-2.0,4.0,0.0,-1.0,1.0,14.0
1.6951610173714788e+18,8.0,-24.0,30.0,12.0,-3.0,0.0,1.0,-15.0
1.6951610173714788e+18,5.0,26.0,-9.0,-13.0,1.0,-4.0,3.0,7.0
1.6951610173724846e+18,-13.0,-17.0,-55.0,8.0,3.0,4.0,10.0,-10.0
1.6951610173774764e+18,11.0,15.0,5.0,2.0,1.0,-6.0,-10.0,-5.0
1.695161017380489e+18,4.0,16.0,-65.0,-21.0,-6.0,-8.0,-9.0,7.0
1.6951610173834719e+18,-4.0,-4.0,88.0,19.0,-5.0,0.0,-6.0,-4.0
1.6951610173834719e+18,1.0,13.0,-23.0,-9.0,-5.0,1.0,17.0,6.0
1.6951610174086886e+18,-6.0,-10.0,1.0,1.0,4.0,-6.0,-20.0,-6.0
1.6951610174086886e+18,-1.0,-4.0,5.0,5.0,-8.0,1.0,8.0,-7.0
1.6951610174096916e+18,-13.0,-6.0,10.0,-11.0,0.0,-3.0,-11.0,-3.0
1.6951610174096916e+18,6.0,5.0,-6.0,-1.0,1.0,3.0,-2.0,15.0
1.6951610174305577e+18,7.0,-15.0,-12.0,-3.0,3.0,3.0,6.0,12.0
1.6951610174305577e+18,-1.0,4.0,7.0,5.0,-2.0,-7.0,2.0,-2.0
1.6951610174315594e+18,-7.0,-13.0,-16.0,-3.0,-2.0,4.0,-2.0,-4.0
1.6951610174315594e+18,-7.0,10.0,21.0,5.0,-6.0,-12.0,-5.0,-20.0
1.6951610174325573e+18,-4.0,-10.0,-34.0,-20.0,-10.0,-9.0,-4.0,-5.0
1.6951610174325573e+18,2.0,-3.0,-5.0,8.0,11.0,14.0,0.0,9.0
1.6951610174445496e+18,1.0,0.0,-7.0,-11.0,-7.0,-1.0,-2.0,-17.0
1.6951610174445496e+18,-7.0,8.0,-48.0,-28.0,-34.0,-16.0,-15.0,-10.0
1.6951610174695355e+18,8.0,-4.0,34.0,3.0,24.0,5.0,13.0,1.0
1.6951610174695355e+18,-4.0,9.0,9.0,21.0,11.0,0.0,3.0,1.0
1.6951610174795295e+18,1.0,-7.0,-1.0,14.0,7.0,-3.0,-15.0,-2.0
1.6951610174825285e+18,-4.0,0.0,9.0,-4.0,-2.0,2.0,2.0,-3.0
1.6951610174835318e+18,-4.0,-7.0,-8.0,-13.0,-29.0,-20.0,-1.0,1.0
1.695161017490524e+18,-1.0,3.0,5.0,-3.0,-2.0,9.0,-1.0,-3.0
1.6951610174915236e+18,2.0,3.0,36.0,1.0,7.0,7.0,5.0,0.0
1.6951610174925222e+18,-1.0,3.0,8.0,10.0,-6.0,-14.0,-8.0,-5.0
1.6951610174925222e+18,-2.0,2.0,2.0,-3.0,20.0,17.0,7.0,-3.0
1.6951610174925222e+18,8.0,4.0,13.0,-18.0,-21.0,-14.0,-6.0,-1.0
1.6951610175115123e+18,-1.0,-7.0,-9.0,1.0,9.0,2.0,-1.0,-1.0
1.6951610175115123e+18,-12.0,-10.0,12.0,4.0,-7.0,2.0,-4.0,-3.0
1.695161017520507e+18,2.0,11.0,11.0,17.0,9.0,0.0,2.0,-1.0
1.695161017520507e+18,-4.0,-1.0,-8.0,8.0,12.0,2.0,1.0,0.0
1.6951610175215055e+18,1.0,1.0,-25.0,-17.0,-11.0,-1.0,-4.0,-5.0
1.6951610175225088e+18,6.0,7.0,31.0,1.0,5.0,-6.0,-3.0,-4.0
1.6951610175444923e+18,5.0,-5.0,-3.0,-1.0,-21.0,-8.0,-3.0,4.0
1.6951610175444923e+18,2.0,-4.0,-4.0,-8.0,5.0,7.0,-1.0,3.0
1.6951610175454945e+18,-6.0,1.0,-9.0,2.0,3.0,9.0,7.0,-4.0
1.6951610175464916e+18,4.0,2.0,-4.0,2.0,13.0,5.0,0.0,-1.0
1.6951610175484905e+18,5.0,10.0,4.0,-1.0,-11.0,-6.0,-3.0,-1.0
1.6951610175484905e+18,-5.0,-5.0,-12.0,-2.0,-5.0,-7.0,-4.0,-2.0
1.6951610175734746e+18,-1.0,-1.0,-3.0,0.0,-7.0,-7.0,-1.0,-1.0
1.6951610175744755e+18,-5.0,14.0,7.0,-5.0,4.0,4.0,1.0,-1.0
1.695161017575474e+18,11.0,-1.0,11.0,2.0,0.0,-1.0,-4.0,3.0
1.695161017575474e+18,2.0,8.0,-21.0,-11.0,-2.0,1.0,-1.0,0.0
1.6951610175864673e+18,-18.0,-7.0,0.0,3.0,-4.0,-5.0,-1.0,-3.0
1.6951610176024586e+18,4.0,-1.0,1.0,-4.0,3.0,0.0,0.0,-1.0
1.6951610176024586e+18,-6.0,-2.0,-4.0,9.0,-4.0,0.0,2.0,-1.0
1.6951610176024586e+18,-2.0,3.0,1.0,0.0,-1.0,-2.0,-2.0,-1.0
1.695161017616453e+18,6.0,-2.0,-10.0,-3.0,-1.0,-3.0,-2.0,-1.0
1.6951610176174487e+18,-2.0,-2.0,20.0,6.0,3.0,1.0,0.0,-2.0
1.6951610176194483e+18,-6.0,-1.0,-7.0,1.0,3.0,5.0,0.0,-1.0
1.6951610176194483e+18,-3.0,-4.0,-1.0,-3.0,-2.0,2.0,-1.0,1.0
1.6951610176254446e+18,4.0,2.0,-2.0,-9.0,-3.0,-4.0,-1.0,0.0
1.695161017626446e+18,-1.0,-7.0,-13.0,3.0,2.0,3.0,1.0,1.0
1.695161017626446e+18,-5.0,3.0,-8.0,-8.0,-3.0,1.0,-1.0,-2.0
1.695161017626446e+18,0.0,-5.0,3.0,-2.0,-4.0,-3.0,-2.0,-2.0
1.6951610176464543e+18,2.0,-1.0,2.0,-6.0,0.0,-1.0,0.0,-1.0
1.6951610176464543e+18,-3.0,1.0,-4.0,9.0,3.0,2.0,0.0,-1.0
1.6951610176484314e+18,-2.0,-1.0,-7.0,-12.0,-3.0,1.0,-2.0,-3.0
1.6951610176484314e+18,-1.0,-4.0,-3.0,2.0,1.0,0.0,1.0,-2.0
1.695161017661425e+18,-1.0,-2.0,-6.0,-2.0,0.0,-2.0,1.0,0.0
1.6951610176624256e+18,-1.0,0.0,8.0,6.0,1.0,-1.0,-2.0,-2.0
1.6951610176694208e+18,0.0,1.0,0.0,1.0,-3.0,-3.0,-3.0,1.0
1.6951610176694208e+18,-3.0,-3.0,10.0,-5.0,-2.0,-3.0,-1.0,1.0
1.69516101768441e+18,0.0,-1.0,-10.0,-6.0,-5.0,0.0,0.0,0.0
1.69516101768441e+18,0.0,-1.0,4.0,2.0,2.0,-1.0,-1.0,-1.0
1.6951610176854098e+18,-2.0,0.0,1.0,8.0,2.0,0.0,0.0,-1.0
1.6951610176854098e+18,-1.0,-1.0,4.0,12.0,-2.0,0.0,-4.0,0.0
1.6951610176984243e+18,1.0,-2.0,-11.0,-26.0,-3.0,-9.0,-1.0,-1.0
1.6951610177024e+18,-1.0,-7.0,-21.0,-4.0,-2.0,6.0,1.0,-1.0
1.6951610177063987e+18,-5.0,-1.0,8.0,-3.0,-1.0,-3.0,-1.0,-1.0
1.6951610177063987e+18,1.0,2.0,4.0,8.0,6.0,1.0,1.0,0.0
1.695161017721388e+18,-2.0,-5.0,2.0,6.0,-5.0,-8.0,-4.0,-3.0
1.695161017721388e+18,2.0,3.0,17.0,8.0,2.0,2.0,-2.0,-2.0
1.695161017723388e+18,-2.0,0.0,-11.0,-16.0,-3.0,0.0,1.0,-2.0
1.695161017723388e+18,0.0,-3.0,-4.0,15.0,-4.0,-5.0,-1.0,1.0
1.6951610177443763e+18,-3.0,-6.0,-9.0,-20.0,-10.0,-7.0,-3.0,-1.0
1.6951610177443763e+18,1.0,5.0,-2.0,0.0,7.0,8.0,0.0,1.0
1.6951610177453972e+18,1.0,0.0,10.0,15.0,5.0,4.0,0.0,0.0
1.6951610177453972e+18,-1.0,0.0,-8.0,-20.0,0.0,-2.0,-3.0,-3.0
1.6951610177573699e+18,1.0,-2.0,-6.0,-4.0,-1.0,-1.0,0.0,1.0
1.695161017758368e+18,-1.0,-4.0,-5.0,10.0,-6.0,-11.0,-4.0,-2.0
1.695161017766363e+18,-1.0,1.0,-6.0,-8.0,-3.0,-2.0,-1.0,0.0
1.695161017766363e+18,-1.0,-2.0,6.0,0.0,4.0,2.0,2.0,0.0
1.6951610177803779e+18,1.0,0.0,8.0,9.0,2.0,3.0,1.0,-1.0
1.695161017781355e+18,-1.0,-1.0,4.0,0.0,0.0,-5.0,-1.0,1.0
1.6951610177951652e+18,1.0,0.0,-4.0,-7.0,0.0,-2.0,0.0,0.0
1.6951610177951652e+18,-3.0,-2.0,4.0,3.0,-2.0,-5.0,-2.0,-3.0
1.6951610178115858e+18,1.0,2.0,2.0,8.0,2.0,2.0,1.0,-1.0
1.6951610178115858e+18,-1.0,-3.0,-2.0,-8.0,-3.0,-2.0,-1.0,0.0
1.6951610178135519e+18,-3.0,0.0,2.0,7.0,-1.0,-7.0,0.0,-4.0
1.6951610178135519e+18,-3.0,-1.0,-4.0,-8.0,-1.0,8.0,1.0,-2.0
1.6951610178265902e+18,1.0,-1.0,-5.0,-5.0,-1.0,0.0,-2.0,1.0
1.6951610178265902e+18,2.0,-2.0,-2.0,-8.0,-2.0,-9.0,0.0,-3.0
1.6951610178285896e+18,-5.0,-1.0,9.0,12.0,0.0,8.0,0.0,1.0
1.6951610178285896e+18,2.0,-2.0,-10.0,-3.0,0.0,-1.0,-1.0,6.0
1.6951610178416238e+18,-2.0,2.0,16.0,8.0,1.0,4.0,1.0,-2.0
1.6951610178416238e+18,-10.0,-4.0,-6.0,1.0,-3.0,-10.0,-1.0,-4.0
1.6951610178495224e+18,10.0,-2.0,-13.0,-34.0,-2.0,3.0,-1.0,2.0
1.6951610178495224e+18,-7.0,1.0,9.0,27.0,0.0,-2.0,1.0,6.0
1.695161017865046e+18,-4.0,-4.0,-15.0,-21.0,-5.0,-3.0,-2.0,-2.0
1.695161017865046e+18,1.0,1.0,0.0,8.0,-4.0,-1.0,-3.0,-2.0
1.6951610178660457e+18,-5.0,-3.0,16.0,19.0,2.0,-1.0,-1.0,-4.0
1.6951610178670546e+18,-2.0,-1.0,12.0,15.0,1.0,-3.0,0.0,-1.0
1.6951610178790385e+18,2.0,4.0,8.0,7.0,1.0,-6.0,0.0,1.0
1.6951610178800448e+18,-5.0,-5.0,-11.0,-30.0,1.0,5.0,0.0,-4.0
1.69516101791102e+18,-1.0,2.0,-6.0,15.0,6.0,4.0,1.0,5.0
1.6951610179200143e+18,6.0,1.0,-5.0,-13.0,-5.0,3.0,-2.0,-4.0
1.695161017922049e+18,-1.0,-1.0,-5.0,2.0,6.0,2.0,1.0,-1.0
1.6951610179230141e+18,4.0,1.0,1.0,1.0,-1.0,-3.0,-2.0,0.0
1.695161017926017e+18,0.0,0.0,6.0,5.0,-4.0,-3.0,-3.0,-3.0
1.69516101792701e+18,-3.0,-7.0,-23.0,-39.0,-7.0,-10.0,-3.0,-5.0
1.69516101792701e+18,6.0,3.0,2.0,12.0,-2.0,2.0,-1.0,-2.0
1.6951610179280164e+18,-5.0,0.0,1.0,5.0,7.0,5.0,1.0,1.0
1.6951610179280164e+18,0.0,-1.0,-4.0,-1.0,1.0,0.0,0.0,-2.0
1.6951610179290092e+18,-6.0,-2.0,6.0,1.0,-4.0,-4.0,-3.0,-4.0
1.6951610179380037e+18,6.0,0.0,6.0,-2.0,-2.0,-3.0,-3.0,1.0
1.6951610179390075e+18,2.0,3.0,2.0,1.0,0.0,1.0,1.0,1.0
1.6951610179629885e+18,-4.0,-1.0,-9.0,-12.0,-6.0,-2.0,-1.0,-3.0
1.6951610179639933e+18,2.0,-1.0,2.0,0.0,-1.0,-4.0,-3.0,-1.0
1.6951610179639933e+18,-5.0,-2.0,9.0,9.0,1.0,0.0,-2.0,-1.0
1.6951610179649882e+18,3.0,0.0,-7.0,-6.0,0.0,-5.0,-1.0,-1.0
1.6951610179759818e+18,0.0,1.0,7.0,7.0,6.0,9.0,1.0,0.0
1.6951610179759818e+18,0.0,1.0,-5.0,-1.0,-1.0,2.0,2.0,0.0
1.6951610179849792e+18,-3.0,-2.0,-1.0,3.0,2.0,0.0,0.0,-3.0
1.6951610179849792e+18,0.0,0.0,4.0,1.0,-2.0,-2.0,-1.0,-1.0
1.695161017991972e+18,0.0,-2.0,-4.0,-5.0,-9.0,-4.0,-2.0,0.0
1.695161017991972e+18,1.0,1.0,1.0,0.0,8.0,0.0,-2.0,0.0
1.6951610180129654e+18,-3.0,-3.0,-4.0,-1.0,-2.0,-2.0,-3.0,-1.0
1.6951610180139602e+18,1.0,-1.0,1.0,0.0,0.0,2.0,0.0,0.0
1.695161018014959e+18,0.0,0.0,-5.0,-2.0,-2.0,-4.0,0.0,0.0
1.695161018014959e+18,-1.0,0.0,3.0,1.0,-1.0,1.0,-1.0,-1.0
1.695161018020955e+18,-2.0,-2.0,-5.0,-1.0,-1.0,-1.0,-1.0,-1.0
1.6951610180219556e+18,-2.0,-3.0,-3.0,-8.0,-1.0,2.0,-1.0,-1.0
1.695161018035947e+18,0.0,-2.0,0.0,-1.0,1.0,-3.0,-1.0,0.0
1.695161018035947e+18,0.0,0.0,2.0,3.0,-2.0,0.0,1.0,-2.0
1.695161018051938e+18,-2.0,0.0,3.0,5.0,1.0,1.0,3.0,1.0
1.695161018052937e+18,-1.0,0.0,-3.0,-5.0,-3.0,1.0,-3.0,0.0
1.6951610180539372e+18,-1.0,0.0,-2.0,-2.0,-1.0,-3.0,-2.0,-2.0
1.6951610180539372e+18,-1.0,0.0,-1.0,-2.0,-2.0,1.0,-1.0,-2.0
1.6951610180739244e+18,0.0,1.0,1.0,1.0,0.0,1.0,1.0,1.0
1.6951610180749253e+18,0.0,0.0,0.0,-1.0,-2.0,-1.0,-1.0,-2.0
1.6951610180779246e+18,-1.0,-1.0,1.0,-2.0,1.0,0.0,1.0,-1.0
1.6951610180789225e+18,0.0,-2.0,-2.0,-1.0,-1.0,-1.0,0.0,1.0
1.6951610180929152e+18,-2.0,0.0,-2.0,1.0,0.0,1.0,0.0,-1.0
1.6951610181049093e+18,0.0,-2.0,-1.0,-1.0,-2.0,-2.0,0.0,0.0
1.6951610181049093e+18,-1.0,1.0,-1.0,-2.0,-2.0,-3.0,-2.0,-1.0
1.6951610181079063e+18,0.0,0.0,2.0,0.0,-1.0,-2.0,1.0,-1.0
1.6951610181119043e+18,-2.0,-3.0,-7.0,-1.0,-2.0,-2.0,-2.0,0.0
1.695161018112903e+18,1.0,-1.0,2.0,3.0,0.0,-1.0,0.0,1.0
1.6951610181139036e+18,0.0,-1.0,-5.0,-6.0,-1.0,-3.0,-2.0,-2.0
1.6951610181139036e+18,0.0,-1.0,2.0,-3.0,1.0,-2.0,-2.0,-1.0
1.6951610181268946e+18,1.0,0.0,2.0,-5.0,-1.0,0.0,-1.0,-2.0
1.6951610181268946e+18,0.0,-2.0,-1.0,5.0,0.0,0.0,-1.0,1.0
1.6951610181278956e+18,-1.0,0.0,5.0,9.0,0.0,0.0,0.0,-1.0
1.6951610181288934e+18,1.0,-1.0,-3.0,-2.0,-1.0,1.0,1.0,-1.0
1.695161018148883e+18,-2.0,-1.0,-9.0,-2.0,-1.0,-3.0,-1.0,-2.0
1.6951610181498813e+18,-3.0,-4.0,-2.0,-6.0,-1.0,1.0,0.0,-2.0
1.6951610181508815e+18,-2.0,0.0,7.0,1.0,0.0,-1.0,0.0,1.0
1.6951610181508815e+18,0.0,-6.0,-17.0,-1.0,-2.0,-4.0,0.0,-1.0
1.6951610181638728e+18,2.0,4.0,3.0,-4.0,0.0,-2.0,-2.0,0.0
1.6951610181648732e+18,1.0,-4.0,11.0,9.0,2.0,0.0,0.0,-1.0
1.6951610181658742e+18,0.0,-2.0,-7.0,-2.0,-1.0,-2.0,0.0,0.0
1.6951610181658742e+18,-1.0,-2.0,7.0,3.0,1.0,3.0,0.0,0.0
1.695161018195855e+18,1.0,-1.0,-7.0,-7.0,-1.0,1.0,1.0,-1.0
1.6951610181968548e+18,-2.0,1.0,-2.0,-2.0,0.0,2.0,-1.0,-1.0
1.6951610181978555e+18,2.0,0.0,1.0,-1.0,-1.0,2.0,-1.0,1.0
1.6951610181978555e+18,-1.0,0.0,0.0,0.0,0.0,0.0,0.0,-1.0
1.6951610181998533e+18,1.0,0.0,2.0,3.0,-4.0,-3.0,0.0,-1.0
1.6951610182008522e+18,-1.0,0.0,-3.0,-4.0,-1.0,-1.0,-1.0,2.0
1.695161018208847e+18,0.0,7.0,-6.0,-1.0,-2.0,-2.0,-1.0,-3.0
1.695161018208847e+18,-7.0,2.0,-2.0,-3.0,2.0,1.0,-3.0,-3.0
1.6951610182228385e+18,-1.0,-4.0,-4.0,0.0,1.0,-1.0,-1.0,-2.0
1.6951610182228385e+18,0.0,1.0,-3.0,-3.0,-2.0,-4.0,-1.0,-1.0
1.6951610182408284e+18,-4.0,-8.0,3.0,1.0,2.0,-1.0,1.0,0.0
1.6951610182408284e+18,2.0,2.0,5.0,-1.0,1.0,-1.0,0.0,1.0
1.6951610182458258e+18,-2.0,-2.0,6.0,4.0,2.0,2.0,-1.0,1.0
1.6951610182468252e+18,-1.0,2.0,-12.0,-10.0,-4.0,-2.0,-1.0,-2.0
1.6951610182608174e+18,-2.0,0.0,-4.0,0.0,1.0,0.0,-2.0,0.0
1.6951610182608174e+18,-1.0,3.0,-6.0,-3.0,-8.0,-4.0,-2.0,-2.0
1.6951610182618168e+18,-4.0,-10.0,17.0,15.0,5.0,2.0,0.0,-1.0
1.6951610182618168e+18,-2.0,-14.0,-1.0,-2.0,1.0,0.0,2.0,-3.0
1.6951610182688133e+18,3.0,5.0,2.0,-2.0,-4.0,-2.0,-1.0,-1.0
1.6951610182698125e+18,2.0,-4.0,0.0,-2.0,-1.0,-1.0,-1.0,1.0
1.6951610182858035e+18,-1.0,-6.0,3.0,1.0,1.0,0.0,-1.0,-1.0
1.6951610182858035e+18,-2.0,-2.0,-5.0,-3.0,-5.0,0.0,-1.0,0.0
1.6951610182868035e+18,-2.0,-6.0,3.0,1.0,1.0,2.0,0.0,-1.0
1.6951610182868035e+18,2.0,30.0,-25.0,-13.0,-8.0,-4.0,-2.0,-2.0
1.695161018305791e+18,-2.0,-1.0,4.0,2.0,2.0,0.0,0.0,0.0
1.695161018306791e+18,-5.0,0.0,19.0,7.0,2.0,1.0,0.0,0.0
1.695161018313787e+18,5.0,-7.0,-5.0,1.0,3.0,1.0,2.0,0.0
1.6951610183147863e+18,-7.0,10.0,-18.0,-11.0,-3.0,-3.0,-3.0,-3.0
1.6951610183197832e+18,1.0,0.0,3.0,3.0,-3.0,-3.0,-2.0,-1.0
1.695161018320783e+18,6.0,15.0,-4.0,-2.0,1.0,0.0,-3.0,-2.0
1.695161018351766e+18,-5.0,-7.0,13.0,6.0,-1.0,-1.0,0.0,0.0
1.6951610183527654e+18,-2.0,-14.0,8.0,3.0,2.0,0.0,1.0,0.0
1.6951610183527654e+18,-5.0,-4.0,2.0,1.0,4.0,2.0,1.0,-2.0
1.6951610183527654e+18,0.0,1.0,-4.0,-3.0,-4.0,-2.0,-1.0,0.0
1.6951610183547635e+18,-1.0,6.0,4.0,-5.0,-4.0,-3.0,-3.0,-2.0
1.6951610183547635e+18,1.0,-8.0,-12.0,1.0,0.0,-2.0,-1.0,-1.0
1.6951610183667564e+18,-3.0,-9.0,5.0,-3.0,-5.0,-4.0,0.0,0.0
1.6951610183667564e+18,-1.0,0.0,-12.0,-1.0,-1.0,0.0,-2.0,-2.0
1.6951610183677563e+18,-4.0,-12.0,-2.0,-5.0,-1.0,-1.0,-3.0,-2.0
1.6951610183677563e+18,-7.0,-31.0,27.0,21.0,8.0,5.0,2.0,2.0
1.6951610183807493e+18,2.0,13.0,-8.0,-5.0,-3.0,-3.0,-2.0,1.0
1.6951610183807493e+18,-2.0,2.0,-2.0,-2.0,-4.0,-2.0,-1.0,-1.0
1.6951610183887447e+18,-3.0,-2.0,-3.0,1.0,3.0,1.0,1.0,-1.0
1.6951610183897434e+18,4.0,2.0,-1.0,-4.0,-2.0,-2.0,-1.0,1.0
1.6951610184037368e+18,1.0,-5.0,-4.0,-2.0,-4.0,-1.0,1.0,1.0
1.695161018404735e+18,0.0,-5.0,1.0,0.0,1.0,-2.0,-1.0,1.0
1.6951610184057344e+18,-1.0,11.0,-13.0,-7.0,-5.0,-3.0,-4.0,0.0
1.6951610184057344e+18,1.0,4.0,9.0,5.0,0.0,-1.0,-2.0,-1.0
1.6951610184277217e+18,0.0,3.0,-12.0,-3.0,0.0,-1.0,-2.0,0.0
1.6951610184277217e+18,1.0,2.0,1.0,-1.0,0.0,-2.0,0.0,-1.0
1.6951610184287206e+18,-1.0,3.0,-6.0,0.0,1.0,1.0,0.0,-1.0
1.6951610184287206e+18,0.0,-9.0,14.0,1.0,1.0,0.0,0.0,0.0
1.6951610184405258e+18,1.0,-1.0,-2.0,-1.0,-1.0,0.0,0.0,-1.0
1.6951610184405258e+18,-2.0,-9.0,2.0,0.0,1.0,0.0,0.0,-1.0
1.6951610184475256e+18,-2.0,3.0,-8.0,-4.0,-3.0,-2.0,0.0,-1.0
1.6951610184475256e+18,-2.0,1.0,5.0,-3.0,1.0,1.0,1.0,-2.0
1.6951610184665206e+18,-1.0,-2.0,11.0,3.0,-2.0,-2.0,-1.0,1.0
1.6951610184665206e+18,-4.0,2.0,-13.0,-9.0,-2.0,-1.0,-3.0,0.0
1.695161018467522e+18,5.0,3.0,11.0,13.0,-1.0,-2.0,-2.0,-1.0
1.695161018467522e+18,-3.0,4.0,-11.0,-5.0,0.0,2.0,-1.0,-2.0
1.6951610184865193e+18,0.0,2.0,-6.0,-5.0,-2.0,0.0,-1.0,-1.0
1.6951610184874583e+18,-1.0,-1.0,-5.0,-3.0,0.0,0.0,0.0,-3.0
1.695161018488457e+18,-3.0,-6.0,5.0,-2.0,1.0,0.0,-1.0,0.0
1.695161018488457e+18,1.0,8.0,-7.0,-1.0,-5.0,-4.0,-2.0,0.0
1.6951610185004493e+18,3.0,8.0,-5.0,-3.0,0.0,-2.0,-2.0,-1.0
1.6951610185004493e+18,1.0,5.0,6.0,3.0,-3.0,-1.0,0.0,0.0
1.6951610185154414e+18,0.0,0.0,-11.0,-4.0,2.0,1.0,0.0,-2.0
1.6951610185154414e+18,1.0,-3.0,16.0,6.0,0.0,1.0,0.0,0.0
1.695161018523459e+18,-3.0,-7.0,4.0,-2.0,-1.0,1.0,0.0,-2.0
1.695161018524436e+18,1.0,3.0,-20.0,-2.0,-2.0,-3.0,-2.0,0.0
1.6951610185254354e+18,0.0,-5.0,6.0,-3.0,-3.0,-3.0,0.0,-1.0
1.6951610185254354e+18,3.0,5.0,-5.0,-4.0,-3.0,1.0,-2.0,-2.0
1.6951610185465508e+18,-2.0,1.0,2.0,1.0,1.0,-1.0,-1.0,-1.0
1.6951610185465508e+18,0.0,-1.0,10.0,3.0,-2.0,0.0,-1.0,0.0
1.6951610185484882e+18,-2.0,6.0,0.0,-1.0,-1.0,0.0,0.0,1.0
1.6951610185484882e+18,-4.0,-17.0,-8.0,0.0,-1.0,-1.0,1.0,-1.0
1.695161018561679e+18,-2.0,-8.0,1.0,-2.0,-1.0,-2.0,0.0,-3.0
1.695161018561679e+18,-5.0,-25.0,13.0,6.0,3.0,1.0,2.0,1.0
1.695161018569674e+18,2.0,7.0,-7.0,-5.0,-4.0,-3.0,-2.0,0.0
1.6951610185706813e+18,1.0,4.0,-1.0,-4.0,-3.0,-3.0,-3.0,0.0
1.6951610185866637e+18,5.0,4.0,-3.0,-2.0,-2.0,-2.0,-2.0,1.0
1.6951610185886625e+18,0.0,4.0,-9.0,-8.0,0.0,1.0,-1.0,-1.0
1.695161018590663e+18,-1.0,1.0,0.0,1.0,-2.0,0.0,-1.0,-4.0
1.6951610185916667e+18,1.0,2.0,-4.0,-5.0,-5.0,-4.0,-1.0,1.0
1.6951610186086515e+18,-2.0,11.0,-10.0,-1.0,2.0,1.0,-2.0,-4.0
1.6951610186086515e+18,0.0,4.0,2.0,2.0,0.0,2.0,0.0,-1.0
1.6951610186096594e+18,1.0,-2.0,1.0,-1.0,-1.0,-1.0,-2.0,0.0
1.6951610186106514e+18,-2.0,10.0,-11.0,-2.0,-1.0,-2.0,-1.0,-1.0
1.6951610186306412e+18,1.0,0.0,-3.0,-6.0,-6.0,-2.0,-2.0,0.0
1.695161018631641e+18,0.0,-2.0,4.0,-4.0,0.0,1.0,-1.0,-1.0
1.695161018631641e+18,-3.0,-3.0,3.0,6.0,2.0,0.0,-1.0,-2.0
1.695161018631641e+18,3.0,6.0,-10.0,-6.0,-3.0,-4.0,0.0,-1.0
1.69516101864463e+18,-3.0,-6.0,3.0,2.0,1.0,1.0,-1.0,1.0
1.69516101864463e+18,-1.0,-7.0,6.0,-1.0,1.0,-3.0,-1.0,1.0
1.695161018645628e+18,-3.0,-9.0,13.0,4.0,5.0,1.0,2.0,1.0
1.6951610186466276e+18,-2.0,-7.0,-20.0,-5.0,1.0,1.0,-1.0,0.0
1.6951610186666163e+18,-3.0,1.0,2.0,6.0,1.0,0.0,1.0,-1.0
1.695161018667619e+18,1.0,0.0,-3.0,-2.0,-3.0,0.0,-2.0,-3.0
1.695161018668616e+18,-3.0,-14.0,1.0,3.0,1.0,0.0,0.0,1.0
1.695161018668616e+18,-4.0,4.0,9.0,2.0,2.0,-1.0,-3.0,-3.0
1.695161018680608e+18,-2.0,-4.0,2.0,-1.0,2.0,1.0,2.0,1.0
1.695161018680608e+18,5.0,7.0,-1.0,2.0,-3.0,-2.0,-2.0,-1.0
1.6951610187065948e+18,1.0,7.0,-5.0,-5.0,-3.0,-2.0,-1.0,-2.0
1.6951610187065948e+18,1.0,-7.0,10.0,2.0,2.0,3.0,0.0,1.0
1.6951610187075932e+18,0.0,3.0,1.0,-2.0,-1.0,0.0,-1.0,-2.0
1.6951610187075932e+18,-2.0,0.0,-3.0,3.0,0.0,-1.0,1.0,-1.0
1.6951610187175867e+18,-2.0,3.0,-11.0,-6.0,-4.0,-1.0,-2.0,-1.0
1.6951610187175867e+18,1.0,-4.0,10.0,3.0,1.0,0.0,0.0,0.0
1.6951610187345812e+18,-1.0,-11.0,11.0,5.0,2.0,2.0,0.0,0.0
1.6951610187355786e+18,-2.0,-1.0,3.0,4.0,1.0,-2.0,-1.0,1.0
1.6951610187365775e+18,-2.0,0.0,-1.0,-5.0,-2.0,-1.0,0.0,0.0
1.6951610187365775e+18,-3.0,-3.0,-14.0,-6.0,-2.0,0.0,-1.0,-1.0
1.695161018740574e+18,-1.0,3.0,-5.0,-3.0,-3.0,1.0,-1.0,-1.0
1.695161018740574e+18,-1.0,3.0,-6.0,-4.0,-1.0,0.0,0.0,-1.0
1.6951610187495693e+18,0.0,-1.0,-1.0,0.0,0.0,-1.0,-1.0,1.0
1.6951610187495693e+18,0.0,2.0,1.0,0.0,0.0,0.0,0.0,0.0
1.6951610187735557e+18,-2.0,1.0,11.0,-3.0,0.0,-1.0,-1.0,-1.0
1.6951610187745577e+18,-2.0,-5.0,-8.0,2.0,-1.0,1.0,-2.0,-2.0
1.6951610187755538e+18,1.0,3.0,1.0,-2.0,-1.0,-2.0,-1.0,-2.0
1.695161018776578e+18,-2.0,-4.0,4.0,2.0,0.0,-1.0,-1.0,0.0
1.6951610187945436e+18,-3.0,-2.0,-7.0,0.0,-2.0,-2.0,0.0,-1.0
1.6951610187945436e+18,-1.0,7.0,0.0,-4.0,0.0,-3.0,-1.0,-2.0
1.6951610187955443e+18,0.0,1.0,2.0,0.0,-2.0,-3.0,-1.0,-1.0
1.6951610187965437e+18,-1.0,-1.0,-1.0,0.0,1.0,-4.0,0.0,-1.0
1.695161018816533e+18,2.0,-2.0,-7.0,-1.0,-3.0,-2.0,-3.0,1.0
1.69516101881753e+18,0.0,5.0,0.0,-3.0,-3.0,-1.0,-1.0,0.0
1.6951610188185306e+18,0.0,0.0,-7.0,-5.0,-3.0,0.0,-1.0,-1.0
1.6951610188185306e+18,-1.0,-1.0,0.0,-2.0,-2.0,-2.0,-1.0,-1.0
1.695161018831522e+18,0.0,6.0,1.0,0.0,-2.0,-4.0,-1.0,-1.0
1.6951610188375188e+18,-1.0,-4.0,1.0,-2.0,1.0,-2.0,0.0,-1.0
1.6951610188385185e+18,-3.0,0.0,2.0,1.0,0.0,0.0,-1.0,-1.0
1.6951610188385185e+18,-1.0,-1.0,7.0,0.0,0.0,1.0,-1.0,-1.0
1.6951610188465119e+18,1.0,-1.0,-22.0,-6.0,-1.0,1.0,-1.0,-1.0
1.695161018847513e+18,-2.0,-2.0,4.0,1.0,-2.0,1.0,-1.0,0.0
1.6951610188485123e+18,-1.0,-1.0,-2.0,1.0,-2.0,-1.0,0.0,0.0
1.6951610188485123e+18,-1.0,-4.0,3.0,-2.0,1.0,1.0,1.0,-1.0
1.695161018869082e+18,0.0,2.0,7.0,4.0,1.0,-2.0,-1.0,0.0
1.6951610188700854e+18,-1.0,-7.0,9.0,0.0,-1.0,-1.0,1.0,1.0
1.6951610188710843e+18,-2.0,-2.0,-11.0,-2.0,1.0,-2.0,-1.0,-2.0
1.6951610188710843e+18,-2.0,-1.0,-1.0,1.0,0.0,-1.0,-1.0,-2.0
1.695161018883588e+18,-1.0,-1.0,-4.0,-3.0,1.0,-1.0,-2.0,-2.0
1.6951610188845888e+18,0.0,3.0,-4.0,-3.0,-1.0,-1.0,-1.0,-2.0
1.6951610188856246e+18,2.0,2.0,6.0,-1.0,-2.0,-1.0,-1.0,-1.0
1.6951610188856246e+18,0.0,0.0,-3.0,-1.0,0.0,1.0,-1.0,-2.0
1.6951610189075144e+18,-1.0,3.0,-5.0,-4.0,-2.0,1.0,-1.0,-1.0
1.6951610189085187e+18,0.0,2.0,1.0,-2.0,-3.0,-2.0,-2.0,-1.0
1.6951610189095117e+18,-1.0,-18.0,4.0,5.0,6.0,4.0,0.0,0.0
1.6951610189105103e+18,0.0,2.0,-4.0,-1.0,-1.0,-1.0,-2.0,-1.0
1.6951610189295063e+18,-3.0,-1.0,-1.0,-1.0,-2.0,-1.0,0.0,-1.0
1.6951610189304996e+18,5.0,3.0,-3.0,-1.0,-1.0,-2.0,-2.0,2.0
1.6951610189314995e+18,-1.0,3.0,-3.0,-5.0,-2.0,-2.0,-1.0,1.0
1.6951610189324974e+18,2.0,3.0,1.0,-2.0,-1.0,-1.0,-2.0,0.0
1.695161018948489e+18,1.0,7.0,-7.0,-7.0,-5.0,-6.0,-3.0,-2.0
1.6951610189564933e+18,-6.0,-17.0,8.0,8.0,6.0,2.0,1.0,-1.0
1.695161018957493e+18,-2.0,-1.0,7.0,0.0,-1.0,-1.0,-4.0,-1.0
1.6951610189584842e+18,-2.0,-1.0,-5.0,1.0,-1.0,0.0,0.0,-1.0
1.6951610189824689e+18,0.0,1.0,-8.0,-6.0,-3.0,-3.0,0.0,-2.0
1.6951610189834706e+18,-1.0,-1.0,-5.0,-2.0,-3.0,-1.0,-1.0,-1.0
1.6951610189844756e+18,1.0,2.0,-6.0,-2.0,-4.0,-1.0,-1.0,-1.0
1.6951610189844756e+18,-1.0,-19.0,17.0,12.0,3.0,3.0,1.0,0.0
1.6951610189894656e+18,-3.0,-4.0,5.0,0.0,-1.0,-2.0,-1.0,-1.0
1.6951610189904643e+18,-1.0,6.0,-2.0,-3.0,-1.0,0.0,-1.0,-2.0
1.695161018991465e+18,-2.0,-12.0,-8.0,-3.0,-2.0,-2.0,2.0,0.0
1.6951610189924628e+18,1.0,6.0,-4.0,-6.0,-3.0,-5.0,-2.0,0.0
1.695161019004458e+18,-2.0,-5.0,2.0,5.0,2.0,1.0,1.0,-2.0
1.6951610190054584e+18,-1.0,1.0,1.0,0.0,-1.0,-1.0,-1.0,0.0
1.695161019006463e+18,1.0,7.0,-2.0,-3.0,-1.0,-1.0,0.0,0.0
1.695161019006463e+18,-1.0,0.0,-3.0,-4.0,-1.0,-1.0,0.0,1.0
1.695161019034439e+18,-4.0,-4.0,4.0,3.0,2.0,1.0,-2.0,0.0
1.6951610190354394e+18,-1.0,0.0,-3.0,-2.0,-1.0,0.0,-1.0,-1.0
1.6951610190364398e+18,-1.0,2.0,-2.0,-1.0,-2.0,-1.0,-1.0,-2.0
1.6951610190364398e+18,-3.0,-9.0,1.0,2.0,1.0,0.0,-1.0,-2.0
1.6951610190494305e+18,-1.0,-4.0,1.0,1.0,1.0,0.0,0.0,-1.0
1.695161019050431e+18,0.0,2.0,-3.0,-2.0,-1.0,-3.0,-1.0,-2.0
1.69516101905143e+18,-2.0,5.0,-5.0,-1.0,-2.0,-1.0,-1.0,-3.0
1.69516101905143e+18,0.0,2.0,-2.0,-3.0,-2.0,-1.0,-2.0,-1.0
1.6951610190744404e+18,2.0,-1.0,-3.0,-4.0,-4.0,-2.0,-1.0,0.0
1.695161019079418e+18,0.0,-2.0,0.0,1.0,1.0,-1.0,0.0,-1.0
1.695161019080418e+18,3.0,1.0,2.0,0.0,0.0,-1.0,0.0,1.0
1.695161019080418e+18,-1.0,2.0,-2.0,0.0,-2.0,0.0,-1.0,-1.0
1.6951610190864105e+18,-3.0,-3.0,-2.0,2.0,0.0,1.0,0.0,0.0
1.6951610190864105e+18,-2.0,0.0,0.0,0.0,-2.0,-3.0,-2.0,0.0
1.6951610190944049e+18,0.0,0.0,0.0,-2.0,0.0,-2.0,0.0,-1.0
1.6951610190944049e+18,0.0,2.0,-2.0,-3.0,-2.0,-4.0,0.0,-2.0
1.6951610191093955e+18,1.0,-2.0,-1.0,-2.0,-1.0,-2.0,0.0,0.0
1.6951610191103956e+18,-2.0,-1.0,2.0,1.0,1.0,0.0,0.0,-2.0
1.6951610191113948e+18,-4.0,-6.0,3.0,2.0,2.0,1.0,1.0,0.0
1.6951610191113948e+18,0.0,1.0,0.0,-2.0,-2.0,-1.0,-1.0,0.0
1.6951610191243866e+18,-4.0,0.0,0.0,0.0,-2.0,0.0,-1.0,-1.0
1.6951610191243866e+18,5.0,-2.0,4.0,0.0,-3.0,1.0,0.0,-1.0
1.6951610191313825e+18,-2.0,-11.0,-4.0,-2.0,-3.0,-3.0,-1.0,0.0
1.6951610191323837e+18,-2.0,1.0,-4.0,-2.0,2.0,-2.0,0.0,1.0
1.6951610191463987e+18,1.0,1.0,3.0,-2.0,-1.0,-1.0,-1.0,0.0
1.6951610191473736e+18,-2.0,3.0,-4.0,0.0,-2.0,-1.0,1.0,-2.0
1.6951610191483745e+18,0.0,2.0,3.0,0.0,0.0,1.0,0.0,-1.0
1.6951610191483745e+18,0.0,-4.0,-5.0,-1.0,1.0,0.0,-1.0,0.0
1.695161019169362e+18,1.0,0.0,4.0,2.0,1.0,1.0,0.0,-2.0
1.6951610191703603e+18,-1.0,-1.0,4.0,-4.0,1.0,0.0,-2.0,0.0
1.6951610191843523e+18,0.0,1.0,-3.0,5.0,-3.0,-3.0,-2.0,-2.0
1.6951610191843523e+18,-2.0,-4.0,1.0,-1.0,0.0,-1.0,-1.0,-3.0
1.6951610191853527e+18,2.0,2.0,-4.0,-2.0,-2.0,-4.0,1.0,0.0
1.6951610191853527e+18,-1.0,-1.0,2.0,-1.0,0.0,0.0,-2.0,1.0
1.6951610191903488e+18,-1.0,3.0,1.0,-2.0,1.0,0.0,-3.0,-1.0
1.6951610191903488e+18,-1.0,-3.0,-2.0,0.0,-2.0,1.0,0.0,1.0
1.6951610192223396e+18,-2.0,-2.0,3.0,2.0,0.0,1.0,-1.0,-2.0
1.6951610192323264e+18,-2.0,-3.0,-10.0,-3.0,-2.0,0.0,0.0,-1.0
1.695161019233325e+18,0.0,-1.0,-2.0,-2.0,-2.0,-1.0,0.0,1.0
1.6951610192343237e+18,-1.0,1.0,0.0,-1.0,-2.0,-2.0,1.0,0.0
1.6951610192373217e+18,0.0,-1.0,-2.0,1.0,1.0,1.0,-2.0,-1.0
1.6951610192373217e+18,-2.0,-2.0,-5.0,1.0,-3.0,-2.0,0.0,0.0
1.6951610192383217e+18,-3.0,0.0,-1.0,0.0,1.0,2.0,0.0,-2.0
1.6951610192383217e+18,-1.0,1.0,2.0,0.0,-2.0,-1.0,-1.0,-2.0
1.6951610192433178e+18,-2.0,-4.0,-1.0,-2.0,-2.0,-2.0,0.0,2.0
1.6951610192443185e+18,1.0,3.0,-6.0,-2.0,-1.0,-2.0,-2.0,-1.0
1.6951610192503158e+18,1.0,3.0,5.0,-4.0,1.0,0.0,-1.0,1.0
1.695161019251314e+18,-2.0,-2.0,-8.0,3.0,-2.0,0.0,-1.0,-2.0
1.6951610192663334e+18,-3.0,-8.0,2.0,2.0,1.0,0.0,-2.0,-1.0
1.6951610192673057e+18,-3.0,-7.0,4.0,1.0,3.0,2.0,1.0,0.0
1.6951610192683092e+18,-1.0,3.0,3.0,-1.0,-3.0,0.0,-2.0,-1.0
1.6951610192683092e+18,-3.0,0.0,-14.0,-6.0,-1.0,0.0,0.0,-1.0
1.6951610192892925e+18,0.0,-4.0,-3.0,-1.0,0.0,-2.0,-1.0,0.0
1.6951610192982874e+18,1.0,1.0,-1.0,-4.0,-2.0,-3.0,-2.0,0.0
1.6951610192992863e+18,-2.0,-1.0,10.0,4.0,3.0,1.0,1.0,-1.0
1.6951610192992863e+18,1.0,3.0,5.0,0.0,-1.0,-2.0,-1.0,-1.0
1.6951610193033098e+18,-1.0,-1.0,-9.0,-4.0,-5.0,-3.0,1.0,-1.0
1.6951610193042842e+18,-2.0,0.0,2.0,-1.0,2.0,-1.0,0.0,-1.0
1.6951610193102807e+18,0.0,-1.0,-9.0,-4.0,-1.0,0.0,0.0,0.0
1.6951610193112799e+18,0.0,0.0,2.0,0.0,-2.0,2.0,-2.0,1.0
1.6951610193262707e+18,2.0,4.0,6.0,-3.0,0.0,1.0,-1.0,-1.0
1.6951610193272701e+18,1.0,1.0,-5.0,-1.0,-3.0,-1.0,0.0,1.0
1.695161019328271e+18,0.0,0.0,-2.0,0.0,0.0,-4.0,-1.0,-2.0
1.695161019328271e+18,0.0,1.0,0.0,-4.0,0.0,-1.0,-1.0,-1.0
1.6951610193512568e+18,0.0,1.0,1.0,0.0,-1.0,0.0,0.0,0.0
1.69516101935226e+18,-4.0,-2.0,1.0,3.0,-1.0,-1.0,-1.0,-1.0
1.6951610193532554e+18,0.0,0.0,-4.0,0.0,-3.0,-1.0,-3.0,-2.0
1.6951610193532554e+18,1.0,2.0,5.0,-2.0,-1.0,-2.0,0.0,-2.0
1.6951610193632492e+18,-1.0,-3.0,-7.0,-3.0,0.0,-2.0,-1.0,-2.0
1.6951610193642493e+18,-2.0,0.0,-1.0,-1.0,-1.0,-2.0,-2.0,-2.0
1.6951610193712453e+18,0.0,-2.0,0.0,-1.0,-2.0,-5.0,-1.0,-1.0
1.6951610193732475e+18,-2.0,-3.0,-6.0,-5.0,-4.0,-2.0,-2.0,-1.0
1.6951610193872364e+18,-2.0,0.0,-1.0,2.0,-3.0,-1.0,-1.0,-1.0
1.6951610193882412e+18,-1.0,-3.0,-2.0,-1.0,0.0,0.0,-1.0,-2.0
1.6951610193892367e+18,0.0,-3.0,4.0,0.0,-3.0,-2.0,-3.0,0.0
1.6951610193892367e+18,-3.0,-1.0,-6.0,0.0,0.0,0.0,-1.0,-1.0
1.6951610194092227e+18,-2.0,-2.0,1.0,-2.0,-2.0,-5.0,-3.0,-2.0
1.6951610194102234e+18,-1.0,0.0,-4.0,-2.0,-6.0,5.0,-2.0,-3.0
1.6951610194112228e+18,0.0,-2.0,-4.0,-2.0,3.0,0.0,-1.0,0.0
1.6951610194112228e+18,1.0,6.0,1.0,-1.0,-2.0,-4.0,0.0,-1.0
1.6951610194232195e+18,-2.0,-9.0,-1.0,0.0,5.0,5.0,0.0,-1.0
1.6951610194232195e+18,-1.0,1.0,7.0,2.0,-1.0,-1.0,1.0,0.0
1.6951610194392074e+18,-1.0,-2.0,-11.0,-3.0,-5.0,-1.0,0.0,-1.0
1.6951610194502252e+18,-2.0,-3.0,2.0,-2.0,-13.0,-4.0,-2.0,-2.0
1.6951610194541975e+18,-1.0,0.0,-4.0,17.0,28.0,3.0,1.0,0.0
1.6951610194551982e+18,0.0,-2.0,-2.0,-7.0,-2.0,1.0,-1.0,-2.0
1.6951610194601938e+18,-3.0,-4.0,-2.0,-10.0,-6.0,-6.0,-2.0,-3.0
1.6951610194611935e+18,0.0,0.0,10.0,8.0,-4.0,-12.0,-4.0,-3.0
1.6951610194691937e+18,-1.0,-1.0,-11.0,-11.0,-6.0,14.0,4.0,1.0
1.6951610194691937e+18,-1.0,0.0,0.0,-3.0,-2.0,-5.0,0.0,-1.0
1.695161019471189e+18,1.0,5.0,2.0,10.0,25.0,5.0,-3.0,-2.0
1.695161019471189e+18,-6.0,-10.0,1.0,-3.0,10.0,6.0,3.0,-2.0
1.6951610194831813e+18,3.0,14.0,2.0,3.0,-16.0,-13.0,8.0,26.0
1.6951610194831813e+18,-4.0,14.0,-4.0,5.0,7.0,10.0,-9.0,-37.0
1.695161019492177e+18,-5.0,-50.0,-11.0,-10.0,2.0,1.0,0.0,8.0
1.695161019492177e+18,-12.0,11.0,6.0,-4.0,-19.0,-17.0,-7.0,-12.0
1.6951610195211592e+18,3.0,-4.0,-4.0,10.0,9.0,5.0,0.0,6.0
1.6951610195231575e+18,5.0,15.0,-5.0,-10.0,-11.0,0.0,4.0,15.0
1.6951610195231575e+18,2.0,7.0,8.0,4.0,2.0,-10.0,2.0,-5.0
1.6951610195231575e+18,0.0,-6.0,-5.0,10.0,24.0,27.0,16.0,0.0
1.6951610195361492e+18,-3.0,3.0,-1.0,-15.0,-10.0,-5.0,5.0,-40.0
1.6951610195371594e+18,8.0,-4.0,5.0,2.0,-16.0,-30.0,-32.0,43.0
1.695161019538149e+18,5.0,12.0,2.0,-15.0,-26.0,8.0,-1.0,3.0
1.695161019538149e+18,-2.0,7.0,3.0,16.0,26.0,-1.0,-4.0,-19.0
1.6951610195571392e+18,-5.0,-28.0,-8.0,1.0,-17.0,-14.0,1.0,15.0
1.69516101955816e+18,3.0,3.0,1.0,-5.0,21.0,15.0,16.0,10.0
1.69516101955816e+18,-2.0,2.0,-3.0,15.0,-3.0,-1.0,-13.0,-22.0
1.6951610195591378e+18,9.0,21.0,6.0,-12.0,-5.0,10.0,19.0,23.0
1.6951610195741302e+18,-3.0,2.0,2.0,-2.0,-6.0,-4.0,-1.0,-26.0
1.6951610195741302e+18,-12.0,-31.0,-7.0,-7.0,-6.0,-10.0,11.0,-9.0
1.6951610195751278e+18,-6.0,4.0,-5.0,-4.0,-12.0,-11.0,-26.0,7.0
1.695161019576127e+18,2.0,5.0,-3.0,2.0,3.0,-6.0,-22.0,8.0
1.6951610195941327e+18,7.0,6.0,4.0,-11.0,2.0,4.0,4.0,-2.0
1.6951610195941327e+18,-8.0,-14.0,-6.0,3.0,-13.0,0.0,2.0,2.0
1.6951610195941327e+18,0.0,7.0,0.0,11.0,10.0,9.0,18.0,3.0
1.6951610195941327e+18,1.0,-14.0,-7.0,-11.0,-5.0,-2.0,-6.0,7.0
1.6951610196031117e+18,-4.0,2.0,2.0,-3.0,1.0,-5.0,-9.0,-10.0
1.6951610196031117e+18,-2.0,5.0,7.0,20.0,10.0,7.0,15.0,-12.0
1.6951610196111073e+18,-1.0,-3.0,-1.0,-19.0,-8.0,-11.0,-8.0,3.0
1.6951610196121078e+18,-1.0,4.0,-1.0,2.0,-14.0,-9.0,-11.0,2.0
1.6951610196260997e+18,5.0,4.0,-2.0,0.0,1.0,-2.0,-8.0,4.0
1.695161019627098e+18,-9.0,-20.0,2.0,-5.0,2.0,13.0,6.0,-6.0
1.6951610196400904e+18,-5.0,14.0,2.0,5.0,11.0,12.0,16.0,-1.0
1.6951610196400904e+18,4.0,-11.0,-11.0,-5.0,3.0,2.0,0.0,-3.0
1.6951610196500846e+18,3.0,-13.0,-7.0,-7.0,-11.0,-11.0,3.0,37.0
1.6951610196500846e+18,-7.0,6.0,1.0,21.0,12.0,-12.0,-43.0,-64.0
1.695161019651084e+18,14.0,6.0,16.0,-5.0,-20.0,-2.0,-3.0,38.0
1.695161019651084e+18,1.0,8.0,-2.0,-7.0,19.0,11.0,20.0,8.0
1.6951610196630781e+18,-5.0,2.0,2.0,3.0,-33.0,-12.0,-9.0,3.0
1.6951610196630781e+18,7.0,-1.0,-3.0,-8.0,25.0,7.0,17.0,-5.0
1.6951610196790687e+18,-13.0,-4.0,-6.0,6.0,2.0,1.0,-1.0,-20.0
1.6951610196790687e+18,1.0,-1.0,-1.0,7.0,-3.0,0.0,-12.0,-14.0
1.695161019701055e+18,8.0,-7.0,-3.0,-7.0,3.0,5.0,2.0,18.0
1.6951610197020557e+18,-11.0,8.0,-2.0,-11.0,-19.0,-27.0,-9.0,11.0
1.6951610197030543e+18,14.0,-14.0,-3.0,3.0,5.0,15.0,16.0,-12.0
1.6951610197030543e+18,-23.0,-5.0,-1.0,0.0,-2.0,-3.0,-9.0,-2.0
1.69516101971105e+18,0.0,10.0,3.0,1.0,5.0,-15.0,-23.0,-14.0
1.69516101971105e+18,23.0,17.0,5.0,3.0,-4.0,16.0,12.0,6.0
1.69516101971105e+18,-19.0,-12.0,-9.0,-9.0,4.0,-2.0,15.0,15.0
1.69516101971105e+18,6.0,-2.0,0.0,2.0,-11.0,-8.0,-18.0,-4.0
1.695161019744038e+18,-22.0,-22.0,4.0,3.0,15.0,8.0,-10.0,-35.0
1.6951610197450524e+18,12.0,12.0,6.0,-5.0,-8.0,-1.0,6.0,59.0
1.6951610197450524e+18,-8.0,2.0,-1.0,3.0,-4.0,-16.0,-19.0,-22.0
1.6951610197450524e+18,-5.0,-8.0,1.0,11.0,11.0,15.0,22.0,-5.0
1.6951610197460334e+18,-1.0,4.0,-3.0,-13.0,-9.0,-6.0,-21.0,-4.0
1.6951610197460334e+18,-12.0,2.0,0.0,-7.0,-8.0,-5.0,-1.0,-11.0
1.6951610197540252e+18,1.0,-20.0,-10.0,-12.0,-10.0,-2.0,7.0,-17.0
1.6951610197540252e+18,-4.0,12.0,-3.0,1.0,0.0,-6.0,1.0,1.0
1.6951610197690138e+18,-5.0,-5.0,5.0,5.0,1.0,6.0,-1.0,14.0
1.6951610197690138e+18,1.0,-18.0,-4.0,14.0,19.0,7.0,5.0,1.0
1.6951610197710285e+18,18.0,19.0,6.0,-1.0,0.0,-5.0,11.0,2.0
1.6951610197710285e+18,-28.0,-33.0,-15.0,-10.0,-20.0,-10.0,-35.0,-21.0
1.6951610197985728e+18,6.0,23.0,11.0,4.0,24.0,19.0,25.0,19.0
1.695161019799571e+18,-4.0,-7.0,12.0,-1.0,-17.0,-5.0,-14.0,-8.0
1.6951610198005699e+18,8.0,7.0,-5.0,8.0,-1.0,-9.0,-9.0,-14.0
1.6951610198005699e+18,15.0,1.0,-5.0,-16.0,-9.0,-7.0,26.0,-5.0
1.695161019813584e+18,-1.0,4.0,-6.0,4.0,2.0,3.0,-6.0,1.0
1.695161019813584e+18,7.0,-7.0,14.0,0.0,-1.0,-6.0,-8.0,4.0
1.6951610198215908e+18,-22.0,9.0,-11.0,4.0,3.0,10.0,17.0,-13.0
1.6951610198215908e+18,21.0,7.0,13.0,-3.0,-11.0,-4.0,-9.0,0.0
1.695161019828514e+18,2.0,8.0,-20.0,-4.0,0.0,5.0,18.0,-13.0
1.695161019828514e+18,-8.0,-13.0,-10.0,-13.0,-4.0,-14.0,-19.0,-6.0
1.6951610198659036e+18,-20.0,18.0,1.0,3.0,-2.0,3.0,-7.0,-8.0
1.695161019866882e+18,5.0,-26.0,14.0,5.0,8.0,7.0,-5.0,21.0
1.695161019866882e+18,-1.0,2.0,8.0,4.0,-2.0,0.0,7.0,8.0
1.695161019866882e+18,-2.0,1.0,-16.0,-13.0,-10.0,-1.0,0.0,-25.0
1.6951610199058588e+18,-3.0,-9.0,-2.0,-4.0,-10.0,-3.0,-4.0,7.0
1.6951610199058588e+18,-11.0,8.0,12.0,-2.0,-1.0,-6.0,3.0,-10.0
1.695161019906881e+18,3.0,-7.0,0.0,6.0,3.0,5.0,12.0,-4.0
1.695161019906881e+18,-15.0,3.0,16.0,4.0,-2.0,-1.0,-3.0,20.0
1.6951610199105874e+18,15.0,2.0,-24.0,-8.0,6.0,3.0,-5.0,2.0
1.6951610199105874e+18,-11.0,-3.0,-7.0,-5.0,1.0,5.0,18.0,-8.0
1.695161019919524e+18,10.0,3.0,-10.0,1.0,-2.0,-10.0,-4.0,4.0
1.695161019919524e+18,0.0,7.0,4.0,8.0,7.0,7.0,1.0,-4.0
1.6951610199205263e+18,7.0,-1.0,9.0,7.0,25.0,17.0,-2.0,18.0
1.6951610199215242e+18,19.0,-2.0,-13.0,15.0,-4.0,-4.0,7.0,-1.0
1.6951610199255196e+18,-21.0,-3.0,11.0,-27.0,-12.0,-1.0,-2.0,15.0
1.6951610199255196e+18,-23.0,12.0,-12.0,13.0,0.0,3.0,21.0,-12.0
1.695161019940512e+18,25.0,-6.0,-13.0,-10.0,-12.0,-18.0,-26.0,-2.0
1.695161019940512e+18,-1.0,13.0,2.0,1.0,-4.0,-3.0,-7.0,0.0
1.6951610199495288e+18,7.0,-21.0,28.0,12.0,23.0,10.0,3.0,-5.0
1.6951610199495288e+18,6.0,8.0,-47.0,-6.0,-1.0,6.0,4.0,-1.0
1.6951610199515054e+18,2.0,-1.0,0.0,0.0,-5.0,-4.0,8.0,-3.0
1.6951610199515054e+18,-13.0,-8.0,-21.0,-16.0,-4.0,-7.0,-4.0,-5.0
1.695161019970624e+18,-15.0,-9.0,33.0,12.0,-11.0,-8.0,-27.0,-9.0
1.695161019970624e+18,21.0,10.0,1.0,-5.0,2.0,10.0,11.0,48.0
1.6951610199795976e+18,-6.0,-14.0,-12.0,13.0,12.0,2.0,-6.0,0.0
1.6951610199795976e+18,2.0,-6.0,18.0,-21.0,-11.0,-3.0,14.0,7.0
1.695161020000525e+18,0.0,11.0,-16.0,10.0,9.0,-2.0,0.0,-39.0
1.695161020000525e+18,-4.0,-19.0,19.0,3.0,4.0,3.0,5.0,-14.0
1.6951610200105244e+18,0.0,19.0,10.0,6.0,1.0,4.0,-4.0,14.0
1.6951610200105244e+18,9.0,-8.0,4.0,5.0,1.0,-4.0,-11.0,8.0
1.6951610200115287e+18,-3.0,-4.0,-5.0,-2.0,6.0,9.0,10.0,-17.0
1.6951610200115287e+18,-6.0,10.0,1.0,-1.0,-3.0,-7.0,-26.0,2.0
1.6951610200165642e+18,17.0,2.0,-3.0,-4.0,-11.0,-11.0,6.0,20.0
1.6951610200165642e+18,6.0,-6.0,-55.0,0.0,12.0,9.0,12.0,3.0
1.6951610200315328e+18,24.0,-13.0,12.0,-5.0,-10.0,-5.0,-21.0,7.0
1.6951610200315328e+18,-1.0,-5.0,-6.0,-14.0,-6.0,-1.0,3.0,-11.0
1.6951610200325164e+18,-36.0,12.0,25.0,0.0,0.0,1.0,7.0,5.0
1.6951610200335163e+18,-28.0,8.0,6.0,12.0,11.0,11.0,-6.0,-10.0
1.69516102004551e+18,-8.0,-1.0,-21.0,-5.0,-5.0,-3.0,3.0,3.0
1.69516102004551e+18,11.0,27.0,14.0,-10.0,-6.0,-4.0,11.0,-7.0
1.6951610200834865e+18,-6.0,-13.0,-12.0,-9.0,-3.0,2.0,-7.0,-3.0
1.6951610200834865e+18,6.0,27.0,13.0,-26.0,-17.0,-15.0,-2.0,4.0
1.6951610200844933e+18,-15.0,-7.0,-4.0,28.0,-2.0,-16.0,0.0,-13.0
1.6951610200844933e+18,-1.0,0.0,11.0,10.0,24.0,29.0,29.0,-13.0
1.6951610200934866e+18,5.0,14.0,-7.0,9.0,14.0,5.0,-26.0,-5.0
1.695161020097482e+18,3.0,-26.0,23.0,-11.0,-6.0,-1.0,6.0,22.0
1.695161020097482e+18,-2.0,-9.0,-36.0,-11.0,-13.0,-7.0,-13.0,1.0
1.695161020097482e+18,-12.0,9.0,-8.0,-3.0,-16.0,-21.0,0.0,2.0
1.6951610201054769e+18,-9.0,-17.0,7.0,9.0,7.0,7.0,14.0,-25.0
1.6951610201064768e+18,9.0,15.0,10.0,0.0,11.0,9.0,4.0,-11.0
1.6951610201064768e+18,16.0,-20.0,-7.0,-9.0,-7.0,-7.0,-6.0,31.0
1.6951610201064768e+18,-25.0,-23.0,1.0,0.0,-4.0,0.0,-1.0,-6.0
1.6951610201215311e+18,-9.0,-5.0,-6.0,-3.0,-7.0,0.0,3.0,1.0
1.695161020122534e+18,-3.0,3.0,-6.0,20.0,10.0,0.0,-2.0,-18.0
1.69516102012904e+18,-20.0,15.0,15.0,-2.0,3.0,6.0,20.0,4.0
1.69516102012904e+18,-7.0,-2.0,-4.0,3.0,1.0,-5.0,-20.0,-7.0
1.695161020131063e+18,26.0,-9.0,0.0,-11.0,-7.0,-8.0,-28.0,20.0
1.695161020131063e+18,-9.0,5.0,0.0,-1.0,-5.0,-3.0,4.0,12.0
1.695161020165547e+18,-9.0,8.0,-14.0,-4.0,-2.0,-1.0,-2.0,-28.0
1.695161020165547e+18,25.0,15.0,-9.0,-3.0,0.0,0.0,8.0,3.0
1.695161020183589e+18,-10.0,-5.0,21.0,3.0,-3.0,-2.0,3.0,-22.0
1.695161020183589e+18,0.0,-3.0,14.0,-1.0,-14.0,-7.0,-9.0,3.0
1.695161020184597e+18,9.0,3.0,-2.0,0.0,14.0,8.0,8.0,12.0
1.695161020184597e+18,3.0,-5.0,2.0,-4.0,-2.0,-7.0,-9.0,1.0
1.6951610201972042e+18,6.0,5.0,-1.0,-2.0,-5.0,-12.0,3.0,-1.0
1.6951610201972042e+18,-3.0,-3.0,-7.0,6.0,2.0,18.0,1.0,-12.0
1.6951610201982134e+18,-9.0,5.0,4.0,-10.0,-8.0,-1.0,0.0,8.0
1.6951610201982134e+18,-1.0,-12.0,-8.0,4.0,-1.0,3.0,0.0,0.0
1.695161020199211e+18,-6.0,-3.0,18.0,8.0,14.0,4.0,7.0,-4.0
1.6951610202002112e+18,-3.0,-20.0,-11.0,-11.0,-12.0,-15.0,-11.0,-5.0
1.69516102027263e+18,8.0,9.0,-2.0,6.0,5.0,6.0,7.0,7.0
1.6951610202736092e+18,-9.0,-24.0,-3.0,-5.0,-2.0,-3.0,-5.0,-11.0
1.6951610202745866e+18,-4.0,0.0,-12.0,-4.0,-5.0,-4.0,5.0,-3.0
1.6951610202745866e+18,0.0,24.0,4.0,-6.0,6.0,2.0,-8.0,20.0
1.6951610202753608e+18,12.0,9.0,8.0,-3.0,-4.0,2.0,0.0,-5.0
1.6951610202753608e+18,13.0,-6.0,1.0,2.0,7.0,1.0,4.0,6.0
1.6951610202956608e+18,8.0,5.0,-1.0,0.0,-6.0,-6.0,-13.0,7.0
1.6951610202966587e+18,6.0,1.0,2.0,7.0,8.0,11.0,20.0,7.0
