timestamp,EMG_s0,EMG_s1,EMG_s2,EMG_s3,EMG_s4,EMG_s5,EMG_s6,EMG_s7
1.6951612422631667e+18,-1.0,-1.0,1.0,0.0,0.0,1.0,0.0,-1.0
1.6951612422641654e+18,0.0,-1.0,-1.0,-1.0,0.0,0.0,-1.0,1.0
1.6951612422641654e+18,-2.0,-1.0,0.0,0.0,-1.0,2.0,0.0,-1.0
1.6951612422641654e+18,-2.0,0.0,0.0,1.0,0.0,1.0,0.0,-1.0
1.695161242265166e+18,0.0,0.0,-2.0,-1.0,-1.0,-3.0,-2.0,0.0
1.695161242265166e+18,0.0,0.0,1.0,-2.0,-3.0,-2.0,-1.0,-2.0
1.695161242266167e+18,-1.0,-2.0,0.0,0.0,-1.0,-1.0,-1.0,0.0
1.695161242266167e+18,-1.0,-1.0,-3.0,-1.0,-1.0,-2.0,-1.0,-1.0
1.695161242279155e+18,-1.0,-3.0,0.0,-2.0,-1.0,-1.0,0.0,0.0
1.695161242279155e+18,-1.0,-1.0,-2.0,0.0,0.0,-1.0,0.0,-1.0
1.695161242285151e+18,-1.0,1.0,0.0,-1.0,1.0,0.0,-2.0,-2.0
1.695161242285151e+18,-2.0,-2.0,0.0,-1.0,-1.0,1.0,-1.0,-1.0
1.6951612422931492e+18,-1.0,-1.0,-1.0,-2.0,2.0,-1.0,-1.0,-1.0
1.6951612422931492e+18,1.0,2.0,-1.0,-1.0,1.0,-1.0,2.0,0.0
1.6951612423101396e+18,0.0,-1.0,-1.0,-1.0,-1.0,-1.0,1.0,0.0
1.6951612423101396e+18,-1.0,0.0,-3.0,-1.0,-1.0,-1.0,0.0,0.0
1.6951612423221325e+18,1.0,-1.0,-1.0,-2.0,-1.0,-1.0,0.0,-1.0
1.6951612423221325e+18,-1.0,-2.0,2.0,1.0,-1.0,0.0,-3.0,-1.0
1.6951612423321467e+18,0.0,-1.0,-2.0,-1.0,-2.0,0.0,-2.0,0.0
1.6951612423321467e+18,0.0,-1.0,0.0,-2.0,-1.0,-1.0,-1.0,-2.0
1.6951612423441395e+18,-3.0,-1.0,-1.0,-1.0,-1.0,0.0,0.0,0.0
1.695161242348119e+18,-2.0,-3.0,-2.0,0.0,-2.0,-1.0,-2.0,0.0
1.6951612423681065e+18,-1.0,-2.0,0.0,-1.0,-1.0,-2.0,0.0,-1.0
1.6951612423681065e+18,0.0,-1.0,0.0,0.0,0.0,-2.0,-2.0,0.0
1.695161242369104e+18,-2.0,-1.0,-1.0,0.0,0.0,-1.0,-1.0,0.0
1.6951612423701066e+18,-1.0,-2.0,1.0,-2.0,-2.0,1.0,-1.0,1.0
1.6951612423781092e+18,0.0,0.0,-2.0,-2.0,-1.0,-1.0,-1.0,0.0
1.6951612423781092e+18,0.0,1.0,2.0,-1.0,-2.0,-2.0,1.0,-1.0
1.695161242383097e+18,-1.0,-2.0,-1.0,-1.0,-1.0,-1.0,-1.0,-1.0
1.695161242383097e+18,-1.0,0.0,-1.0,0.0,0.0,-1.0,1.0,0.0
1.6951612423901135e+18,0.0,-2.0,0.0,0.0,-1.0,-1.0,-1.0,-2.0
1.6951612423901135e+18,-1.0,0.0,-1.0,0.0,-2.0,-1.0,-2.0,0.0
1.695161242438066e+18,1.0,0.0,0.0,-2.0,0.0,0.0,-1.0,-2.0
1.695161242438066e+18,-1.0,-2.0,-1.0,0.0,-1.0,0.0,-1.0,-2.0
1.6951612424390664e+18,-2.0,-1.0,-1.0,-1.0,1.0,1.0,-1.0,-2.0
1.6951612424390664e+18,0.0,1.0,0.0,0.0,1.0,0.0,-1.0,1.0
1.6951612424440604e+18,1.0,-1.0,0.0,0.0,-1.0,0.0,1.0,0.0
1.6951612424440604e+18,0.0,-1.0,-2.0,-1.0,-2.0,0.0,0.0,0.0
1.6951612424450624e+18,-2.0,0.0,0.0,0.0,1.0,-1.0,-1.0,-1.0
1.6951612424450624e+18,-2.0,0.0,-2.0,1.0,-1.0,0.0,-2.0,-1.0
1.695161242450057e+18,-3.0,-2.0,-1.0,0.0,-1.0,0.0,-3.0,-3.0
1.6951612424520788e+18,0.0,0.0,0.0,1.0,0.0,-2.0,-1.0,0.0
1.695161242453056e+18,-1.0,0.0,1.0,0.0,-1.0,-3.0,0.0,0.0
1.6951612424540552e+18,0.0,-2.0,-2.0,-3.0,-2.0,-2.0,-2.0,-1.0
1.6951612424820413e+18,-2.0,0.0,-2.0,0.0,-1.0,-1.0,0.0,-1.0
1.6951612424830387e+18,0.0,-2.0,-1.0,-2.0,0.0,1.0,-1.0,-3.0
1.6951612424880512e+18,-1.0,-1.0,-1.0,0.0,1.0,0.0,-2.0,-3.0
1.6951612424880512e+18,0.0,-2.0,0.0,0.0,0.0,-1.0,1.0,1.0
1.6951612424880512e+18,-2.0,0.0,0.0,-2.0,3.0,0.0,1.0,2.0
1.6951612424880512e+18,-2.0,1.0,2.0,-1.0,0.0,-2.0,1.0,1.0
1.695161242502049e+18,3.0,3.0,3.0,-1.0,-1.0,0.0,0.0,-1.0
1.695161242502049e+18,1.0,1.0,2.0,0.0,0.0,0.0,1.0,-2.0
1.6951612425030277e+18,2.0,1.0,-1.0,0.0,-1.0,-1.0,1.0,1.0
1.6951612425030277e+18,0.0,0.0,-1.0,0.0,-1.0,0.0,-1.0,0.0
1.6951612425160215e+18,0.0,0.0,-2.0,-2.0,1.0,2.0,-1.0,1.0
1.6951612425170227e+18,0.0,0.0,0.0,-2.0,1.0,-1.0,0.0,0.0
1.6951612425320325e+18,-1.0,0.0,-1.0,-2.0,-1.0,0.0,0.0,0.0
1.6951612425320325e+18,1.0,1.0,0.0,-2.0,0.0,0.0,0.0,1.0
1.6951612425480026e+18,-1.0,-3.0,0.0,0.0,-1.0,-2.0,-1.0,0.0
1.6951612425480026e+18,0.0,-1.0,-1.0,-1.0,-1.0,1.0,0.0,-1.0
1.695161242549001e+18,0.0,-1.0,0.0,-1.0,-1.0,-1.0,-1.0,-1.0
1.695161242549001e+18,-1.0,-2.0,0.0,0.0,0.0,-1.0,0.0,-1.0
1.6951612425709898e+18,3.0,0.0,-1.0,0.0,-3.0,-2.0,0.0,0.0
1.6951612425709898e+18,-1.0,0.0,-2.0,0.0,-1.0,-1.0,0.0,1.0
1.6951612425709898e+18,-1.0,0.0,-1.0,0.0,-2.0,-1.0,-1.0,-1.0
1.6951612425719885e+18,1.0,-1.0,-1.0,-2.0,1.0,0.0,1.0,-2.0
1.6951612425939763e+18,-2.0,-1.0,-2.0,-1.0,0.0,-1.0,1.0,0.0
1.6951612425939763e+18,-3.0,-1.0,0.0,0.0,-2.0,0.0,-2.0,0.0
1.6951612426009928e+18,1.0,-1.0,0.0,1.0,-1.0,0.0,-2.0,-1.0
1.6951612426019717e+18,0.0,0.0,-2.0,0.0,-1.0,-1.0,-1.0,0.0
1.695161242602971e+18,-1.0,-1.0,-1.0,-2.0,0.0,-1.0,-1.0,1.0
1.695161242602971e+18,0.0,-1.0,0.0,1.0,-1.0,0.0,-2.0,-1.0
1.6951612426069893e+18,0.0,-1.0,0.0,-2.0,-1.0,-1.0,0.0,1.0
1.6951612426069893e+18,-1.0,-2.0,-1.0,0.0,-1.0,-2.0,0.0,0.0
1.695161242626956e+18,0.0,0.0,-1.0,-2.0,-1.0,-1.0,1.0,-3.0
1.695161242626956e+18,-2.0,0.0,-1.0,-1.0,1.0,0.0,0.0,-1.0
1.695161242626956e+18,-1.0,-1.0,-1.0,-2.0,-1.0,0.0,-1.0,-1.0
1.6951612426279552e+18,0.0,1.0,0.0,-2.0,0.0,1.0,-1.0,0.0
1.6951612426449454e+18,-1.0,-1.0,-2.0,1.0,-2.0,-1.0,0.0,2.0
1.6951612426449454e+18,-1.0,-2.0,-1.0,-7.0,-5.0,-1.0,-2.0,-1.0
1.6951612426449454e+18,-1.0,-1.0,0.0,-1.0,-2.0,-1.0,-2.0,0.0
1.695161242645945e+18,-1.0,-1.0,1.0,5.0,6.0,2.0,0.0,-1.0
1.6951612426609418e+18,-2.0,-1.0,-1.0,-3.0,-1.0,0.0,1.0,0.0
1.6951612426609418e+18,0.0,-1.0,-2.0,0.0,0.0,0.0,0.0,1.0
1.6951612426619356e+18,0.0,-2.0,-1.0,-2.0,-5.0,-5.0,-2.0,0.0
1.6951612426619356e+18,-1.0,-2.0,-1.0,-4.0,-4.0,-3.0,-3.0,0.0
1.695161242681925e+18,-1.0,-2.0,1.0,1.0,-1.0,2.0,-2.0,-2.0
1.695161242681925e+18,0.0,-1.0,0.0,0.0,-1.0,-1.0,1.0,-1.0
1.695161242682925e+18,-1.0,0.0,-1.0,-1.0,1.0,1.0,0.0,-2.0
1.695161242682925e+18,-1.0,-2.0,-2.0,-4.0,-15.0,-4.0,-2.0,-2.0
1.695161242696917e+18,-2.0,-2.0,-7.0,-12.0,-2.0,0.0,0.0,1.0
1.695161242696917e+18,1.0,1.0,2.0,12.0,16.0,3.0,1.0,0.0
1.695161242706911e+18,-1.0,-3.0,-3.0,0.0,0.0,-1.0,-1.0,-2.0
1.695161242706911e+18,0.0,0.0,1.0,-3.0,2.0,-3.0,-3.0,-4.0
1.6951612427199037e+18,-1.0,-1.0,-2.0,-2.0,-14.0,-7.0,-4.0,-2.0
1.6951612427199037e+18,-3.0,-4.0,-4.0,-8.0,-9.0,-3.0,-1.0,-2.0
1.695161242720903e+18,-1.0,-1.0,-1.0,0.0,0.0,0.0,-1.0,1.0
1.695161242720903e+18,-3.0,-4.0,-5.0,-1.0,-5.0,-3.0,-1.0,-2.0
1.6951612427438917e+18,-2.0,-3.0,0.0,-1.0,0.0,-3.0,-3.0,-2.0
1.6951612427438917e+18,-2.0,0.0,-2.0,0.0,-2.0,-2.0,-3.0,-2.0
1.6951612427438917e+18,-3.0,0.0,-2.0,0.0,-2.0,1.0,0.0,-3.0
1.6951612427448947e+18,-1.0,-2.0,-3.0,-5.0,-2.0,-2.0,0.0,1.0
1.695161242757883e+18,0.0,-1.0,-1.0,4.0,1.0,-1.0,-1.0,-2.0
1.695161242757883e+18,0.0,2.0,0.0,2.0,0.0,-1.0,0.0,0.0
1.695161242763899e+18,-2.0,-2.0,-3.0,-3.0,-4.0,-3.0,-2.0,-2.0
1.695161242763899e+18,-3.0,-1.0,-2.0,2.0,2.0,3.0,0.0,-1.0
1.6951612427798707e+18,0.0,0.0,0.0,-1.0,2.0,2.0,1.0,-2.0
1.6951612427798707e+18,0.0,-2.0,2.0,3.0,-2.0,-2.0,-2.0,-2.0
1.6951612427798707e+18,0.0,0.0,3.0,-7.0,0.0,0.0,-1.0,1.0
1.6951612427808684e+18,-2.0,-4.0,-9.0,-4.0,2.0,-1.0,-1.0,-1.0
1.6951612428018573e+18,0.0,-2.0,-1.0,2.0,0.0,-1.0,-1.0,0.0
1.695161242802858e+18,-2.0,-3.0,-2.0,-8.0,-6.0,-4.0,-2.0,-2.0
1.695161242802858e+18,0.0,-1.0,3.0,8.0,3.0,1.0,-1.0,0.0
1.695161242802858e+18,0.0,0.0,4.0,3.0,2.0,0.0,0.0,-1.0
1.6951612428168466e+18,-2.0,-1.0,-4.0,-2.0,1.0,-4.0,-1.0,-3.0
1.6951612428168466e+18,1.0,-2.0,-2.0,-2.0,-2.0,-2.0,0.0,0.0
1.6951612428238446e+18,1.0,-1.0,-3.0,2.0,1.0,1.0,1.0,-1.0
1.6951612428238446e+18,-1.0,0.0,-2.0,-1.0,-4.0,-2.0,-1.0,-1.0
1.695161242841843e+18,-1.0,-2.0,0.0,-4.0,-3.0,-3.0,-3.0,-1.0
1.695161242841843e+18,-2.0,-2.0,0.0,-2.0,-11.0,-10.0,-3.0,-1.0
1.695161242842836e+18,0.0,8.0,2.0,-7.0,3.0,3.0,1.0,1.0
1.695161242842836e+18,-3.0,-3.0,-2.0,7.0,13.0,10.0,2.0,-1.0
1.6951612428622979e+18,1.0,-10.0,-1.0,4.0,7.0,8.0,4.0,3.0
1.6951612428622979e+18,-2.0,2.0,-5.0,-5.0,0.0,-1.0,1.0,2.0
1.6951612428632983e+18,-3.0,-1.0,1.0,-5.0,-7.0,-9.0,-3.0,-3.0
1.6951612428632983e+18,3.0,7.0,3.0,-11.0,-15.0,-7.0,-3.0,-1.0
1.695161242876294e+18,-3.0,-1.0,3.0,20.0,22.0,3.0,1.0,0.0
1.695161242877292e+18,2.0,4.0,-2.0,3.0,-2.0,-6.0,0.0,-1.0
1.695161242884287e+18,-1.0,-4.0,-1.0,1.0,9.0,6.0,0.0,-1.0
1.695161242884287e+18,0.0,-2.0,-1.0,-14.0,-8.0,0.0,2.0,1.0
1.6951612429012762e+18,2.0,2.0,-2.0,-8.0,-9.0,-3.0,-1.0,0.0
1.6951612429012762e+18,1.0,0.0,2.0,0.0,4.0,4.0,1.0,0.0
1.6951612429022758e+18,1.0,2.0,-2.0,5.0,0.0,-1.0,-2.0,-1.0
1.6951612429022758e+18,0.0,-1.0,5.0,1.0,4.0,3.0,2.0,2.0
1.695161242922264e+18,-2.0,0.0,-1.0,-7.0,-7.0,0.0,-1.0,0.0
1.695161242922264e+18,0.0,2.0,-1.0,-1.0,0.0,1.0,-1.0,-1.0
1.6951612429232655e+18,-1.0,-4.0,-2.0,-1.0,-3.0,-2.0,-2.0,0.0
1.6951612429232655e+18,-1.0,-4.0,-2.0,5.0,3.0,-5.0,-4.0,-1.0
1.6951612429362563e+18,1.0,3.0,0.0,-6.0,-4.0,-4.0,1.0,0.0
1.6951612429372572e+18,0.0,-2.0,-1.0,2.0,-2.0,2.0,-1.0,1.0
1.6951612429442511e+18,2.0,4.0,0.0,-5.0,-1.0,-2.0,1.0,-1.0
1.6951612429442511e+18,-2.0,-8.0,0.0,0.0,-1.0,-2.0,-1.0,-1.0
1.6951612429632404e+18,-4.0,3.0,-5.0,2.0,0.0,0.0,-1.0,1.0
1.6951612429632404e+18,3.0,2.0,12.0,-5.0,4.0,1.0,-2.0,-1.0
1.6951612429632404e+18,-2.0,-8.0,-11.0,6.0,-2.0,-3.0,-3.0,0.0
1.695161242964242e+18,4.0,8.0,1.0,4.0,5.0,4.0,4.0,1.0
1.6951612429822316e+18,-5.0,-11.0,1.0,3.0,-2.0,-3.0,-3.0,-2.0
1.6951612429822316e+18,-4.0,4.0,-1.0,-3.0,-3.0,-1.0,1.0,-2.0
1.695161242983229e+18,3.0,-7.0,1.0,2.0,10.0,-2.0,-1.0,2.0
1.695161242983229e+18,-1.0,8.0,2.0,3.0,-14.0,-7.0,-1.0,3.0
1.695161243013212e+18,5.0,4.0,1.0,14.0,25.0,12.0,3.0,1.0
1.695161243013212e+18,-4.0,-5.0,-4.0,-7.0,-8.0,-3.0,-2.0,-3.0
1.695161243013212e+18,-3.0,0.0,2.0,-2.0,-3.0,-1.0,0.0,0.0
1.695161243013212e+18,0.0,-1.0,-3.0,-1.0,1.0,0.0,-1.0,-3.0
1.695161243035201e+18,5.0,9.0,2.0,-7.0,-12.0,-4.0,-4.0,0.0
1.695161243035201e+18,-5.0,-7.0,-4.0,10.0,6.0,-1.0,-2.0,-3.0
1.695161243036201e+18,-4.0,3.0,1.0,-12.0,-11.0,-5.0,-2.0,-1.0
1.695161243036201e+18,-7.0,-14.0,1.0,2.0,8.0,6.0,-1.0,-2.0
1.695161243042197e+18,10.0,-4.0,-2.0,-2.0,-7.0,-7.0,7.0,9.0
1.695161243042197e+18,-3.0,5.0,-1.0,1.0,0.0,1.0,-8.0,-33.0
1.6951612430431954e+18,9.0,24.0,0.0,7.0,1.0,10.0,23.0,13.0
1.6951612430431954e+18,-3.0,-26.0,-4.0,-8.0,-6.0,-2.0,-3.0,17.0
1.6951612430651953e+18,12.0,31.0,1.0,8.0,27.0,23.0,8.0,-22.0
1.6951612430651953e+18,-6.0,3.0,-5.0,6.0,2.0,-8.0,-9.0,19.0
1.6951612430651953e+18,-4.0,-19.0,6.0,6.0,6.0,-10.0,-15.0,11.0
1.695161243066186e+18,-6.0,4.0,-5.0,-14.0,-13.0,-5.0,9.0,-24.0
1.6951612430881692e+18,16.0,1.0,-3.0,-1.0,-6.0,-5.0,9.0,30.0
1.6951612430881692e+18,13.0,-9.0,7.0,-9.0,-5.0,3.0,3.0,23.0
1.6951612430881692e+18,-8.0,-13.0,-2.0,10.0,2.0,-6.0,2.0,-23.0
1.6951612430881692e+18,-12.0,2.0,0.0,-5.0,4.0,7.0,-1.0,-11.0
1.6951612431021624e+18,-12.0,-18.0,1.0,-11.0,-19.0,-10.0,-16.0,3.0
1.6951612431021624e+18,-13.0,22.0,-1.0,-3.0,0.0,-3.0,-44.0,-24.0
1.6951612431031608e+18,7.0,-20.0,-9.0,-4.0,-10.0,-1.0,3.0,40.0
1.6951612431031608e+18,-4.0,-2.0,-2.0,8.0,7.0,-3.0,-1.0,-60.0
1.6951612431261473e+18,6.0,19.0,5.0,-2.0,-6.0,-4.0,23.0,-47.0
1.6951612431271468e+18,3.0,4.0,7.0,-6.0,-1.0,-3.0,-9.0,47.0
1.6951612431271468e+18,3.0,20.0,-18.0,-4.0,6.0,5.0,-28.0,43.0
1.6951612431271468e+18,2.0,-26.0,4.0,7.0,4.0,-1.0,8.0,-1.0
1.6951612431571292e+18,-22.0,-19.0,-8.0,-3.0,-13.0,-5.0,-2.0,-35.0
1.6951612431571292e+18,-4.0,-13.0,-2.0,3.0,-4.0,-2.0,9.0,-38.0
1.6951612431571292e+18,-4.0,7.0,17.0,-2.0,-5.0,-9.0,-3.0,-52.0
1.6951612431581294e+18,0.0,9.0,8.0,-4.0,-12.0,5.0,6.0,46.0
1.695161243162127e+18,-4.0,-13.0,-23.0,-8.0,9.0,-7.0,-20.0,2.0
1.695161243162127e+18,-3.0,-2.0,1.0,-1.0,2.0,7.0,13.0,-13.0
1.695161243163127e+18,9.0,10.0,-1.0,7.0,2.0,2.0,5.0,-1.0
1.695161243163127e+18,12.0,36.0,2.0,-2.0,-12.0,-7.0,-1.0,14.0
1.6951612432021046e+18,-4.0,-23.0,3.0,6.0,9.0,-5.0,-20.0,20.0
1.695161243205102e+18,8.0,4.0,-11.0,-3.0,-2.0,-1.0,13.0,19.0
1.695161243205102e+18,-12.0,-14.0,-12.0,-6.0,-3.0,2.0,1.0,-23.0
1.6951612432061015e+18,-1.0,-13.0,11.0,0.0,2.0,-5.0,-11.0,-4.0
1.6951612432061015e+18,-9.0,8.0,14.0,-2.0,-6.0,2.0,-6.0,5.0
1.6951612432061015e+18,11.0,11.0,-22.0,-1.0,8.0,4.0,23.0,29.0
1.6951612432061015e+18,0.0,-8.0,-2.0,-6.0,-7.0,1.0,14.0,-36.0
1.6951612432071022e+18,-1.0,8.0,-21.0,1.0,5.0,-2.0,-28.0,81.0
1.6951612432300872e+18,16.0,-3.0,21.0,0.0,-10.0,-3.0,5.0,21.0
1.6951612432310879e+18,-18.0,-4.0,3.0,2.0,5.0,1.0,-1.0,-27.0
1.6951612432310879e+18,0.0,1.0,6.0,-4.0,-4.0,0.0,3.0,-19.0
1.6951612432320876e+18,-4.0,8.0,14.0,9.0,5.0,2.0,11.0,-21.0
1.695161243253077e+18,-10.0,3.0,-33.0,-20.0,-14.0,-2.0,-2.0,2.0
1.695161243253077e+18,6.0,-17.0,9.0,19.0,4.0,1.0,0.0,0.0
1.695161243253077e+18,-16.0,-4.0,-6.0,-1.0,2.0,7.0,14.0,-5.0
1.695161243254074e+18,11.0,6.0,10.0,-2.0,4.0,-8.0,-18.0,-18.0
1.695161243270071e+18,-11.0,2.0,15.0,-6.0,-3.0,-3.0,0.0,34.0
1.6951612432740785e+18,-3.0,-17.0,-17.0,-7.0,-2.0,-2.0,5.0,-32.0
1.6951612432740785e+18,0.0,-9.0,-19.0,-2.0,-2.0,2.0,-4.0,8.0
1.6951612432740785e+18,4.0,15.0,23.0,6.0,1.0,-3.0,-9.0,24.0
1.6951612432920522e+18,12.0,13.0,2.0,-1.0,-1.0,-5.0,-7.0,-14.0
1.6951612432920522e+18,27.0,-9.0,-4.0,-9.0,-9.0,-7.0,-15.0,25.0
1.6951612432920522e+18,-37.0,9.0,17.0,0.0,1.0,-1.0,8.0,-16.0
1.6951612432930563e+18,-22.0,-11.0,-7.0,13.0,6.0,7.0,17.0,-19.0
1.6951612433190364e+18,13.0,7.0,-2.0,-17.0,-8.0,1.0,0.0,-22.0
1.6951612433200479e+18,-7.0,-3.0,-3.0,-3.0,3.0,3.0,10.0,-10.0
1.6951612433290317e+18,10.0,-7.0,-13.0,2.0,2.0,-7.0,-24.0,29.0
1.6951612433290317e+18,4.0,8.0,17.0,6.0,-2.0,4.0,10.0,-28.0
1.6951612433300306e+18,-7.0,-8.0,-9.0,4.0,5.0,5.0,13.0,6.0
1.6951612433300306e+18,1.0,-6.0,30.0,-1.0,-3.0,-4.0,-6.0,-7.0
1.6951612433310336e+18,16.0,-4.0,-74.0,-13.0,-4.0,-3.0,-6.0,26.0
1.6951612433310336e+18,-8.0,-11.0,43.0,-10.0,-6.0,-10.0,-4.0,-37.0
1.695161243344026e+18,6.0,-2.0,-22.0,10.0,3.0,1.0,-14.0,9.0
1.695161243344026e+18,-15.0,-5.0,16.0,-6.0,-5.0,2.0,4.0,-18.0
1.695161243344026e+18,13.0,19.0,30.0,6.0,-9.0,-4.0,-7.0,5.0
1.695161243344026e+18,20.0,-21.0,-49.0,-3.0,1.0,2.0,9.0,-5.0
1.6951612433650125e+18,-17.0,1.0,-28.0,-22.0,-8.0,-10.0,-4.0,-13.0
1.6951612433650125e+18,-9.0,-2.0,1.0,1.0,6.0,-1.0,-18.0,7.0
1.69516124336601e+18,-5.0,4.0,7.0,1.0,2.0,5.0,12.0,-4.0
1.69516124336601e+18,6.0,-17.0,-26.0,-2.0,-9.0,-2.0,4.0,16.0
1.6951612433839995e+18,-3.0,6.0,22.0,27.0,11.0,9.0,12.0,3.0
1.6951612433839995e+18,-20.0,-1.0,-30.0,-23.0,-19.0,-5.0,1.0,-18.0
1.6951612433870006e+18,12.0,3.0,46.0,-1.0,-4.0,-6.0,-14.0,-9.0
1.6951612433870006e+18,-4.0,-7.0,-36.0,-6.0,3.0,6.0,8.0,-8.0
1.6951612434030113e+18,-6.0,11.0,19.0,13.0,8.0,-3.0,-10.0,27.0
1.6951612434030113e+18,-2.0,-33.0,-4.0,-7.0,-13.0,0.0,6.0,10.0
1.6951612434419668e+18,18.0,4.0,0.0,8.0,2.0,-11.0,-20.0,13.0
1.6951612434419668e+18,1.0,-7.0,6.0,-12.0,8.0,9.0,5.0,7.0
1.695161243442983e+18,-3.0,-10.0,-9.0,19.0,1.0,3.0,18.0,-13.0
1.695161243442983e+18,11.0,13.0,-4.0,8.0,-1.0,-8.0,-2.0,17.0
1.6951612434439675e+18,6.0,3.0,33.0,-14.0,-3.0,5.0,13.0,18.0
1.6951612434439675e+18,-14.0,-5.0,-24.0,6.0,4.0,2.0,-1.0,16.0
1.6951612434489638e+18,-25.0,-5.0,4.0,-7.0,-1.0,-5.0,-6.0,-36.0
1.6951612434489638e+18,28.0,-14.0,15.0,9.0,5.0,8.0,8.0,10.0
1.695161243449964e+18,-9.0,0.0,12.0,-14.0,-9.0,-10.0,-17.0,1.0
1.695161243449964e+18,1.0,4.0,-39.0,-16.0,5.0,3.0,-4.0,-4.0
1.69516124346995e+18,0.0,1.0,1.0,1.0,-10.0,4.0,5.0,1.0
1.695161243470953e+18,-7.0,-1.0,24.0,28.0,14.0,-1.0,5.0,-11.0
1.695161243470953e+18,-1.0,7.0,16.0,-10.0,-8.0,-2.0,-23.0,2.0
1.695161243470953e+18,-9.0,-8.0,16.0,4.0,-3.0,-3.0,-9.0,2.0
1.6951612434909414e+18,12.0,-1.0,-17.0,-13.0,-8.0,-6.0,0.0,5.0
1.6951612434909414e+18,-4.0,3.0,-12.0,-26.0,-9.0,-3.0,-7.0,-3.0
1.6951612434909414e+18,3.0,29.0,-41.0,17.0,12.0,9.0,14.0,-4.0
1.6951612434909414e+18,-13.0,7.0,39.0,26.0,9.0,-6.0,-32.0,-25.0
1.695161243506931e+18,0.0,-37.0,-14.0,-27.0,-10.0,3.0,19.0,50.0
1.6951612435079327e+18,-13.0,15.0,11.0,4.0,-1.0,-3.0,-18.0,-15.0
1.6951612435079327e+18,2.0,-5.0,-46.0,-8.0,0.0,-2.0,17.0,-15.0
1.6951612435079327e+18,-11.0,-3.0,-4.0,-7.0,-5.0,-5.0,-3.0,9.0
1.695161243529938e+18,14.0,2.0,15.0,17.0,2.0,-8.0,-16.0,-18.0
1.695161243530918e+18,13.0,9.0,-6.0,-9.0,3.0,6.0,18.0,10.0
1.695161243530918e+18,-13.0,32.0,1.0,-7.0,-3.0,-3.0,-42.0,-50.0
1.695161243530918e+18,5.0,-5.0,6.0,2.0,-1.0,6.0,34.0,18.0
1.6951612435449068e+18,-1.0,1.0,-3.0,4.0,8.0,-6.0,-41.0,-7.0
1.6951612435449068e+18,-8.0,6.0,-35.0,-9.0,-2.0,4.0,32.0,33.0
1.695161243545931e+18,-21.0,-18.0,77.0,10.0,1.0,3.0,8.0,-3.0
1.695161243545931e+18,19.0,8.0,-3.0,-8.0,-15.0,-9.0,-2.0,-13.0
1.6951612435678963e+18,4.0,43.0,-3.0,-1.0,11.0,2.0,-11.0,-13.0
1.6951612435678963e+18,-23.0,-13.0,-25.0,1.0,4.0,8.0,-14.0,-16.0
1.695161243568897e+18,10.0,-17.0,-26.0,-1.0,2.0,6.0,22.0,-5.0
1.695161243568897e+18,-12.0,3.0,16.0,-10.0,-9.0,-9.0,-7.0,16.0
1.695161243603874e+18,10.0,12.0,28.0,1.0,-8.0,-2.0,-7.0,7.0
1.695161243603874e+18,11.0,18.0,-2.0,8.0,7.0,-9.0,-29.0,21.0
1.695161243603874e+18,-12.0,-28.0,10.0,7.0,0.0,-4.0,-35.0,-20.0
1.695161243603874e+18,3.0,-18.0,-20.0,1.0,7.0,14.0,45.0,4.0
1.695161243604875e+18,23.0,9.0,-1.0,4.0,7.0,9.0,19.0,10.0
1.695161243604875e+18,2.0,9.0,-5.0,-8.0,-19.0,-8.0,3.0,-1.0
1.6951612436058734e+18,11.0,-30.0,17.0,-6.0,-1.0,-4.0,0.0,18.0
1.6951612436068756e+18,10.0,7.0,-24.0,-3.0,0.0,-6.0,-26.0,-39.0
1.6951612436398564e+18,-13.0,3.0,-7.0,1.0,-3.0,-1.0,1.0,-10.0
1.6951612436398564e+18,-5.0,-3.0,20.0,-1.0,-3.0,-8.0,-25.0,-3.0
1.6951612436398564e+18,4.0,21.0,-18.0,-5.0,0.0,6.0,26.0,-15.0
1.6951612436398564e+18,-6.0,-17.0,-16.0,1.0,4.0,-7.0,-23.0,-4.0
1.6951612436508457e+18,-2.0,-2.0,39.0,-3.0,-3.0,-2.0,14.0,6.0
1.695161243651849e+18,9.0,-20.0,-5.0,-2.0,-2.0,0.0,4.0,17.0
1.695161243651849e+18,-7.0,-1.0,-6.0,0.0,-2.0,0.0,12.0,6.0
1.695161243651849e+18,-2.0,-4.0,-3.0,-13.0,-15.0,-6.0,10.0,11.0
1.695161243664839e+18,-17.0,-24.0,13.0,6.0,9.0,-4.0,-13.0,-30.0
1.695161243664839e+18,0.0,-21.0,-43.0,13.0,8.0,7.0,3.0,2.0
1.6951612436808302e+18,1.0,16.0,26.0,-17.0,-13.0,-1.0,9.0,26.0
1.6951612436808302e+18,-8.0,21.0,-25.0,2.0,4.0,-3.0,-5.0,-16.0
1.6951612437028393e+18,-27.0,-24.0,-1.0,-9.0,-9.0,-2.0,-1.0,-25.0
1.6951612437028393e+18,9.0,10.0,-10.0,6.0,2.0,3.0,5.0,14.0
1.6951612437038216e+18,-1.0,-9.0,-7.0,8.0,5.0,-2.0,1.0,4.0
1.6951612437038216e+18,7.0,1.0,16.0,-9.0,-7.0,-2.0,-6.0,6.0
1.695161243712811e+18,0.0,7.0,-13.0,-1.0,-3.0,-1.0,-4.0,3.0
1.695161243712811e+18,-1.0,1.0,13.0,-3.0,1.0,-2.0,0.0,-28.0
1.6951612437148296e+18,-7.0,1.0,-3.0,6.0,-1.0,1.0,11.0,5.0
1.6951612437148296e+18,6.0,4.0,5.0,10.0,11.0,4.0,-7.0,1.0
1.6951612437328015e+18,1.0,-19.0,-3.0,8.0,12.0,6.0,6.0,-14.0
1.6951612437328015e+18,-4.0,8.0,2.0,-21.0,-9.0,3.0,7.0,-7.0
1.695161243733799e+18,1.0,2.0,-9.0,9.0,17.0,2.0,4.0,1.0
1.695161243733799e+18,0.0,1.0,7.0,2.0,-13.0,-4.0,-3.0,16.0
1.6951612437487908e+18,1.0,0.0,-16.0,4.0,5.0,-3.0,-1.0,9.0
1.6951612437497902e+18,2.0,3.0,43.0,2.0,-9.0,-3.0,5.0,-17.0
1.6951612437497902e+18,-8.0,-22.0,-37.0,-3.0,12.0,2.0,-4.0,6.0
1.6951612437497902e+18,3.0,3.0,0.0,0.0,-14.0,-4.0,-8.0,3.0
1.6951612437707796e+18,2.0,-1.0,-12.0,7.0,1.0,7.0,0.0,2.0
1.6951612437717806e+18,-3.0,4.0,21.0,-9.0,-17.0,-6.0,4.0,-2.0
1.6951612437717806e+18,-2.0,1.0,4.0,-13.0,7.0,-6.0,-1.0,-12.0
1.6951612437717806e+18,-3.0,2.0,20.0,20.0,15.0,9.0,-3.0,-1.0
1.695161243792791e+18,2.0,-7.0,-17.0,-30.0,-32.0,-9.0,2.0,8.0
1.695161243792791e+18,-3.0,2.0,0.0,33.0,28.0,3.0,1.0,-8.0
1.6951612437937646e+18,0.0,-4.0,1.0,-3.0,-23.0,-7.0,-1.0,7.0
1.6951612437937646e+18,5.0,5.0,5.0,-11.0,10.0,7.0,2.0,3.0
1.6951612438197504e+18,3.0,3.0,-1.0,-8.0,-6.0,-8.0,2.0,3.0
1.6951612438197504e+18,-3.0,2.0,-6.0,-12.0,-10.0,-1.0,-6.0,-5.0
1.695161243831751e+18,0.0,-5.0,-4.0,6.0,2.0,-5.0,-3.0,2.0
1.695161243831751e+18,-1.0,6.0,2.0,2.0,1.0,-3.0,2.0,-1.0
1.6951612438337428e+18,-3.0,-4.0,8.0,6.0,2.0,6.0,0.0,-7.0
1.6951612438337428e+18,1.0,-1.0,-6.0,-6.0,2.0,-2.0,-1.0,2.0
1.6951612438337428e+18,1.0,3.0,4.0,8.0,11.0,8.0,1.0,3.0
1.6951612438337428e+18,-5.0,-14.0,-1.0,1.0,0.0,-2.0,0.0,-6.0
1.6951612438457362e+18,2.0,4.0,0.0,-12.0,-3.0,-3.0,-2.0,4.0
1.695161243846736e+18,2.0,7.0,7.0,7.0,11.0,8.0,2.0,3.0
1.695161243846736e+18,-2.0,-6.0,-8.0,4.0,-1.0,0.0,-3.0,-1.0
1.695161243846736e+18,1.0,3.0,1.0,-4.0,-2.0,-2.0,0.0,-2.0
1.695161243868722e+18,0.0,0.0,1.0,4.0,0.0,-3.0,-1.0,0.0
1.6951612438697224e+18,-3.0,-6.0,-4.0,-2.0,2.0,1.0,3.0,-2.0
1.6951612438697224e+18,0.0,2.0,2.0,-5.0,-7.0,-1.0,0.0,-2.0
1.6951612438697224e+18,-1.0,-1.0,-9.0,2.0,5.0,-2.0,-2.0,-1.0
1.695161243943679e+18,-2.0,-2.0,11.0,-1.0,1.0,-1.0,-1.0,2.0
1.695161243943679e+18,1.0,3.0,1.0,1.0,-1.0,-3.0,-1.0,-1.0
1.695161243943679e+18,-2.0,-5.0,-3.0,3.0,1.0,1.0,-1.0,2.0
1.695161243943679e+18,-1.0,-1.0,2.0,-7.0,-7.0,-5.0,-5.0,-1.0
1.695161243950677e+18,2.0,2.0,-7.0,1.0,5.0,3.0,1.0,0.0
1.695161243950677e+18,-2.0,-2.0,-3.0,-2.0,0.0,-3.0,-3.0,-2.0
1.695161243951674e+18,-1.0,-3.0,-3.0,1.0,-7.0,-3.0,-1.0,-3.0
1.695161243951674e+18,1.0,5.0,5.0,0.0,0.0,-1.0,0.0,0.0
1.6951612439596698e+18,-2.0,-4.0,-7.0,-1.0,1.0,0.0,-1.0,-1.0
1.6951612439596698e+18,-2.0,-1.0,-2.0,-5.0,0.0,-2.0,-1.0,1.0
1.695161243967681e+18,1.0,2.0,0.0,-2.0,0.0,0.0,0.0,1.0
1.695161243967681e+18,0.0,3.0,6.0,12.0,1.0,-1.0,1.0,0.0
1.6951612439806577e+18,-1.0,-2.0,1.0,1.0,-3.0,-2.0,-1.0,-1.0
1.6951612439806577e+18,-2.0,0.0,-4.0,-2.0,-1.0,0.0,1.0,-2.0
1.6951612439806577e+18,1.0,-1.0,-2.0,-6.0,-1.0,-1.0,-1.0,-3.0
1.6951612439816596e+18,0.0,2.0,4.0,2.0,1.0,-3.0,0.0,-1.0
1.695161243986667e+18,2.0,0.0,0.0,5.0,4.0,1.0,0.0,1.0
1.695161243986667e+18,-1.0,-5.0,1.0,-4.0,-6.0,-5.0,-3.0,-2.0
1.6951612439946524e+18,0.0,0.0,1.0,0.0,1.0,1.0,1.0,0.0
1.6951612439946524e+18,-1.0,1.0,-1.0,-5.0,2.0,0.0,1.0,-1.0
1.695161244010641e+18,-1.0,-1.0,-2.0,0.0,0.0,0.0,0.0,-1.0
1.695161244010641e+18,0.0,-2.0,4.0,3.0,2.0,2.0,-1.0,0.0
1.6951612440116403e+18,-1.0,-2.0,-4.0,-5.0,-5.0,-2.0,-1.0,1.0
1.6951612440116403e+18,0.0,-1.0,0.0,2.0,-1.0,-1.0,0.0,0.0
1.6951612440386248e+18,-1.0,0.0,-5.0,-5.0,-2.0,0.0,0.0,0.0
1.6951612440386248e+18,-4.0,0.0,-3.0,3.0,0.0,-1.0,0.0,-3.0
1.6951612440386248e+18,0.0,0.0,8.0,8.0,-1.0,0.0,-1.0,-2.0
1.6951612440386248e+18,7.0,-1.0,-9.0,-18.0,-1.0,-2.0,-3.0,1.0
1.695161244047621e+18,-7.0,-1.0,0.0,7.0,4.0,0.0,-1.0,-2.0
1.695161244047621e+18,-1.0,0.0,2.0,-1.0,0.0,1.0,0.0,8.0
1.695161244047621e+18,-6.0,0.0,4.0,13.0,-1.0,0.0,-4.0,-28.0
1.695161244047621e+18,2.0,-3.0,-6.0,2.0,-4.0,-4.0,-1.0,0.0
1.6951612440716063e+18,-1.0,7.0,12.0,14.0,3.0,1.0,-1.0,0.0
1.6951612440776084e+18,11.0,9.0,-2.0,-10.0,-1.0,0.0,0.0,-4.0
1.6951612440786066e+18,2.0,-11.0,0.0,-15.0,-3.0,-3.0,0.0,8.0
1.6951612440786066e+18,-15.0,-12.0,27.0,19.0,3.0,1.0,0.0,-6.0
1.6951612440836216e+18,0.0,0.0,2.0,15.0,1.0,-4.0,2.0,-2.0
1.6951612440846098e+18,-5.0,-4.0,-13.0,-12.0,0.0,8.0,3.0,0.0
1.6951612440995914e+18,0.0,2.0,-8.0,-6.0,-2.0,-3.0,0.0,5.0
1.6951612440995914e+18,4.0,3.0,0.0,-2.0,-1.0,0.0,-1.0,-1.0
1.6951612441065864e+18,1.0,-1.0,15.0,11.0,0.0,-3.0,-3.0,4.0
1.6951612441075878e+18,-4.0,-5.0,-5.0,-6.0,-3.0,-8.0,-2.0,-2.0
1.6951612441215767e+18,-1.0,0.0,9.0,11.0,0.0,2.0,1.0,2.0
1.6951612441225797e+18,-1.0,0.0,-15.0,-23.0,-1.0,2.0,0.0,2.0
1.6951612441315748e+18,0.0,-1.0,-3.0,3.0,-2.0,3.0,0.0,-2.0
1.6951612441315748e+18,1.0,-1.0,-4.0,-12.0,-2.0,-2.0,0.0,-2.0
1.6951612441325734e+18,0.0,0.0,1.0,3.0,-2.0,-1.0,-1.0,0.0
1.6951612441325734e+18,-4.0,-1.0,-14.0,-6.0,-4.0,-1.0,-1.0,1.0
1.695161244143565e+18,1.0,-2.0,-6.0,-13.0,-2.0,1.0,-1.0,-2.0
1.6951612441445686e+18,-2.0,-1.0,5.0,1.0,-2.0,-3.0,-3.0,-2.0
1.6951612441595569e+18,0.0,-1.0,1.0,4.0,3.0,-2.0,0.0,3.0
1.6951612441595569e+18,-1.0,1.0,5.0,10.0,-1.0,-2.0,-2.0,-2.0
1.6951612441765458e+18,-2.0,-1.0,-6.0,-13.0,-2.0,-2.0,0.0,0.0
1.695161244177547e+18,-3.0,1.0,4.0,11.0,1.0,2.0,-2.0,0.0
1.695161244177547e+18,0.0,-1.0,-7.0,-10.0,-2.0,-1.0,-2.0,3.0
1.695161244177547e+18,0.0,0.0,-9.0,2.0,-4.0,-1.0,-1.0,0.0
1.6951612441915377e+18,0.0,-2.0,-13.0,-24.0,-4.0,-3.0,-3.0,-2.0
1.6951612441915377e+18,-3.0,-2.0,6.0,9.0,-1.0,-6.0,0.0,-1.0
1.6951612441915377e+18,0.0,1.0,-6.0,-5.0,-1.0,6.0,-1.0,1.0
1.6951612441915377e+18,-1.0,-2.0,-1.0,-3.0,-5.0,-2.0,-2.0,0.0
1.69516124420453e+18,1.0,-1.0,5.0,5.0,3.0,0.0,1.0,0.0
1.69516124420453e+18,-2.0,0.0,0.0,5.0,3.0,3.0,0.0,-1.0
1.6951612442285187e+18,-3.0,-1.0,-7.0,-9.0,-4.0,-3.0,-3.0,-1.0
1.6951612442285187e+18,0.0,-1.0,3.0,3.0,-2.0,-3.0,0.0,0.0
1.695161244230517e+18,-2.0,-1.0,-2.0,-2.0,-2.0,6.0,-2.0,-1.0
1.695161244230517e+18,0.0,-1.0,-2.0,-3.0,2.0,-3.0,-1.0,-3.0
1.695161244230517e+18,0.0,0.0,2.0,-4.0,-2.0,-3.0,0.0,0.0
1.695161244230517e+18,-1.0,1.0,0.0,0.0,4.0,0.0,-2.0,-2.0
1.6951612442505044e+18,1.0,-2.0,-3.0,-5.0,-3.0,-6.0,-1.0,1.0
1.6951612442505044e+18,-2.0,1.0,0.0,-1.0,-2.0,0.0,0.0,-1.0
1.6951612442515052e+18,-2.0,-2.0,2.0,4.0,0.0,1.0,1.0,0.0
1.6951612442515052e+18,0.0,2.0,1.0,-1.0,-1.0,-3.0,-1.0,-1.0
1.6951612442644964e+18,0.0,-2.0,-6.0,-12.0,-1.0,0.0,-1.0,0.0
1.6951612442644964e+18,1.0,-2.0,1.0,1.0,-4.0,1.0,-2.0,-1.0
1.695161244272491e+18,0.0,0.0,3.0,6.0,2.0,1.0,1.0,0.0
1.695161244272491e+18,-2.0,-2.0,-8.0,-12.0,-5.0,-4.0,-2.0,-3.0
1.6951612442894812e+18,-3.0,-2.0,-15.0,-10.0,-1.0,0.0,0.0,2.0
1.695161244290481e+18,-1.0,-2.0,-2.0,0.0,-1.0,-2.0,-1.0,-1.0
1.6951612443054748e+18,-2.0,0.0,-6.0,-9.0,0.0,-2.0,-2.0,0.0
1.6951612443064722e+18,1.0,-1.0,2.0,-5.0,2.0,1.0,0.0,2.0
1.6951612443104694e+18,0.0,1.0,6.0,17.0,2.0,-1.0,-2.0,0.0
1.6951612443104694e+18,-1.0,-2.0,-5.0,-5.0,-3.0,-3.0,-3.0,-2.0
1.6951612443114688e+18,-1.0,0.0,2.0,-1.0,1.0,-1.0,1.0,0.0
1.6951612443114688e+18,-1.0,0.0,-2.0,-5.0,1.0,-1.0,1.0,-1.0
1.6951612443244605e+18,-1.0,-1.0,1.0,-2.0,0.0,-2.0,0.0,-1.0
1.6951612443244605e+18,0.0,-1.0,0.0,4.0,1.0,2.0,1.0,1.0
1.695161244342452e+18,-1.0,1.0,3.0,6.0,0.0,0.0,-3.0,-2.0
1.695161244342452e+18,1.0,1.0,6.0,4.0,-1.0,2.0,0.0,0.0
1.6951612443474478e+18,-2.0,-3.0,-17.0,-8.0,-4.0,-5.0,-2.0,-3.0
1.6951612443474478e+18,2.0,4.0,9.0,18.0,4.0,2.0,1.0,-1.0
1.6951612443474478e+18,-3.0,-7.0,-15.0,-31.0,-8.0,-5.0,-2.0,-2.0
1.6951612443484472e+18,-2.0,-2.0,-10.0,-3.0,-4.0,-2.0,-2.0,-1.0
1.6951612443704346e+18,-1.0,0.0,-6.0,-13.0,-3.0,-1.0,-1.0,-4.0
1.6951612443704346e+18,-2.0,-1.0,0.0,3.0,1.0,-1.0,0.0,0.0
1.695161244371434e+18,-1.0,0.0,6.0,9.0,2.0,0.0,-1.0,0.0
1.695161244371434e+18,1.0,2.0,3.0,7.0,2.0,1.0,1.0,-1.0
1.695161244400417e+18,0.0,-1.0,8.0,3.0,-1.0,-1.0,0.0,-1.0
1.695161244400417e+18,-1.0,-3.0,-2.0,-9.0,-2.0,-2.0,-3.0,-1.0
1.695161244401417e+18,1.0,2.0,0.0,5.0,0.0,0.0,1.0,1.0
1.695161244401417e+18,-1.0,-2.0,0.0,-3.0,-1.0,-2.0,-1.0,-1.0
1.695161244416411e+18,1.0,1.0,4.0,3.0,1.0,0.0,1.0,1.0
1.695161244416411e+18,0.0,0.0,-1.0,-2.0,-1.0,1.0,0.0,0.0
1.6951612444174106e+18,0.0,-1.0,-2.0,3.0,0.0,0.0,1.0,-1.0
1.6951612444174106e+18,-1.0,0.0,-3.0,0.0,-1.0,0.0,-2.0,0.0
1.6951612444304074e+18,-1.0,0.0,5.0,-1.0,0.0,-1.0,-1.0,-1.0
1.6951612444304074e+18,-1.0,-2.0,-4.0,-3.0,-2.0,-1.0,-1.0,-2.0
1.6951612444313997e+18,0.0,-1.0,1.0,0.0,0.0,-2.0,-1.0,-1.0
1.6951612444313997e+18,-2.0,-2.0,-1.0,-1.0,0.0,-1.0,-1.0,-3.0
1.69516124445239e+18,0.0,0.0,1.0,1.0,0.0,-1.0,-2.0,1.0
1.69516124445339e+18,-3.0,-1.0,-3.0,-5.0,-1.0,-1.0,-2.0,-1.0
1.69516124445339e+18,-3.0,0.0,2.0,5.0,0.0,1.0,-1.0,-1.0
1.69516124445339e+18,0.0,-1.0,2.0,-1.0,0.0,1.0,-1.0,2.0
1.6951612444673787e+18,-2.0,-2.0,1.0,2.0,0.0,-2.0,-2.0,-3.0
1.6951612444673787e+18,0.0,0.0,-1.0,2.0,0.0,-1.0,-1.0,-1.0
1.6951612444673787e+18,0.0,0.0,1.0,0.0,1.0,0.0,-2.0,0.0
1.6951612444683784e+18,0.0,-1.0,0.0,1.0,-1.0,0.0,-2.0,-1.0
1.6951612444904617e+18,0.0,0.0,5.0,1.0,-1.0,1.0,0.0,1.0
1.6951612444904617e+18,-1.0,-2.0,-16.0,-12.0,-2.0,-2.0,-2.0,-1.0
1.6951612444914565e+18,-5.0,-3.0,-1.0,6.0,-4.0,-4.0,-2.0,-2.0
1.6951612444914565e+18,-2.0,-2.0,-6.0,-15.0,-2.0,0.0,-2.0,0.0
1.6951612445135913e+18,0.0,-1.0,1.0,2.0,2.0,-1.0,-1.0,-1.0
1.6951612445135913e+18,0.0,1.0,1.0,2.0,1.0,-2.0,-1.0,0.0
1.6951612445135913e+18,0.0,1.0,0.0,-1.0,0.0,1.0,1.0,0.0
1.6951612445135913e+18,-1.0,0.0,-1.0,1.0,0.0,1.0,0.0,0.0
1.695161244527175e+18,0.0,-1.0,-5.0,-6.0,-2.0,-2.0,1.0,-1.0
1.695161244527175e+18,1.0,0.0,4.0,1.0,-1.0,-1.0,-2.0,-1.0
1.6951612445281787e+18,0.0,-1.0,-2.0,-1.0,-1.0,-1.0,-1.0,-1.0
1.6951612445281787e+18,-1.0,-1.0,0.0,1.0,0.0,0.0,-1.0,0.0
1.6951612445505536e+18,0.0,0.0,3.0,3.0,0.0,0.0,-1.0,0.0
1.6951612445515553e+18,-1.0,-2.0,-8.0,-4.0,-2.0,-1.0,-1.0,-1.0
1.6951612445515553e+18,0.0,-2.0,-1.0,-3.0,-1.0,0.0,0.0,-1.0
1.6951612445525545e+18,0.0,0.0,-1.0,1.0,0.0,1.0,1.0,-1.0
1.6951612445805266e+18,-1.0,-1.0,-3.0,0.0,-3.0,-1.0,0.0,-2.0
1.6951612445805266e+18,-2.0,0.0,1.0,1.0,-2.0,-2.0,-1.0,0.0
1.6951612445815368e+18,-1.0,-1.0,-2.0,-4.0,0.0,0.0,2.0,0.0
1.6951612445815368e+18,0.0,-1.0,2.0,3.0,-1.0,-1.0,0.0,0.0
1.69516124458849e+18,0.0,0.0,-1.0,-2.0,-1.0,0.0,-2.0,0.0
1.69516124458849e+18,-1.0,-2.0,-2.0,-2.0,-1.0,-1.0,0.0,-1.0
1.6951612445894848e+18,0.0,-1.0,0.0,-1.0,0.0,1.0,0.0,-1.0
1.6951612445894848e+18,-1.0,-1.0,0.0,2.0,-2.0,-3.0,0.0,-2.0
1.6951612446105585e+18,-2.0,-1.0,-1.0,-1.0,0.0,-1.0,1.0,-2.0
1.6951612446115668e+18,0.0,0.0,2.0,3.0,1.0,-1.0,0.0,-1.0
1.6951612446115668e+18,1.0,1.0,2.0,3.0,0.0,0.0,-2.0,2.0
1.6951612446115668e+18,-2.0,-2.0,-8.0,-5.0,0.0,-2.0,1.0,-1.0
1.695161244640558e+18,-2.0,-3.0,-1.0,-2.0,-5.0,-2.0,-3.0,-1.0
1.6951612446415662e+18,-1.0,-2.0,5.0,2.0,-1.0,1.0,0.0,0.0
1.6951612446415662e+18,-1.0,0.0,-4.0,-4.0,-2.0,0.0,-1.0,-1.0
1.6951612446415662e+18,1.0,-1.0,4.0,4.0,-1.0,-1.0,0.0,-1.0
1.695161244656056e+18,-1.0,0.0,-1.0,-1.0,0.0,0.0,1.0,1.0
1.695161244656056e+18,-2.0,-1.0,2.0,2.0,-1.0,1.0,-1.0,-1.0
1.6951612446570555e+18,-2.0,-2.0,-3.0,-4.0,1.0,-1.0,-1.0,0.0
1.695161244658054e+18,1.0,-1.0,-4.0,-4.0,-1.0,-1.0,-2.0,-1.0
1.6951612446800517e+18,0.0,0.0,1.0,1.0,0.0,0.0,0.0,0.0
1.6951612446800517e+18,1.0,-1.0,-1.0,-1.0,-1.0,-1.0,-3.0,0.0
1.6951612446800517e+18,0.0,-1.0,0.0,0.0,-2.0,-2.0,-1.0,0.0
1.6951612446810465e+18,-1.0,0.0,-2.0,-1.0,1.0,0.0,-2.0,-2.0
1.695161244694034e+18,-1.0,-1.0,-1.0,0.0,0.0,-1.0,-1.0,-1.0
1.6951612446950336e+18,-2.0,1.0,2.0,1.0,1.0,-1.0,2.0,1.0
1.6951612446950336e+18,-1.0,0.0,-1.0,-2.0,-1.0,-1.0,0.0,-1.0
1.6951612446950336e+18,-1.0,0.0,0.0,0.0,-1.0,-1.0,0.0,0.0
1.6951612447210191e+18,0.0,-2.0,0.0,-2.0,-1.0,0.0,0.0,-1.0
1.6951612447220193e+18,-1.0,0.0,2.0,0.0,0.0,1.0,-2.0,-2.0
1.6951612447230177e+18,-3.0,-3.0,-15.0,-5.0,-1.0,-2.0,-2.0,-3.0
1.6951612447230177e+18,-1.0,0.0,1.0,1.0,-1.0,-2.0,0.0,-1.0
1.695161244731012e+18,-2.0,2.0,-3.0,-2.0,0.0,0.0,-1.0,-1.0
1.695161244731012e+18,0.0,-2.0,-1.0,-3.0,-1.0,-2.0,1.0,-1.0
1.695161244731012e+18,0.0,0.0,3.0,3.0,-1.0,-1.0,-1.0,-1.0
1.695161244731012e+18,2.0,1.0,4.0,0.0,1.0,1.0,-2.0,0.0
1.695161244753e+18,0.0,0.0,-4.0,-4.0,-2.0,-2.0,0.0,0.0
1.695161244753e+18,-1.0,-4.0,3.0,3.0,1.0,1.0,1.0,1.0
1.695161244753999e+18,-2.0,-1.0,3.0,-3.0,1.0,-1.0,-1.0,-3.0
1.695161244753999e+18,-1.0,-4.0,-12.0,-3.0,-3.0,0.0,-1.0,-2.0
1.695161244766993e+18,1.0,-2.0,4.0,2.0,1.0,1.0,-2.0,-1.0
1.695161244766993e+18,-1.0,-2.0,-4.0,-2.0,-1.0,0.0,-2.0,1.0
1.6951612447679905e+18,0.0,2.0,2.0,1.0,-2.0,1.0,0.0,-1.0
1.6951612447679905e+18,-4.0,-2.0,1.0,-3.0,1.0,0.0,-3.0,-1.0
1.6951612447909996e+18,-1.0,5.0,0.0,1.0,-2.0,-1.0,0.0,-2.0
1.6951612447919772e+18,-1.0,1.0,2.0,0.0,1.0,0.0,0.0,0.0
1.6951612447919772e+18,0.0,-1.0,-7.0,-8.0,0.0,-1.0,-1.0,1.0
1.6951612447919772e+18,0.0,0.0,4.0,6.0,0.0,-2.0,1.0,0.0
1.6951612448209628e+18,-3.0,-3.0,2.0,1.0,-1.0,1.0,0.0,-1.0
1.6951612448209628e+18,0.0,-3.0,10.0,3.0,1.0,1.0,1.0,0.0
1.6951612448219602e+18,-1.0,-2.0,-7.0,0.0,1.0,-1.0,-2.0,-1.0
1.6951612448219602e+18,1.0,-1.0,-1.0,-2.0,-2.0,0.0,-1.0,-2.0
1.695161244829955e+18,-1.0,-2.0,0.0,0.0,0.0,-3.0,-2.0,-1.0
1.695161244829955e+18,0.0,0.0,-5.0,-3.0,-1.0,-2.0,0.0,-3.0
1.695161244829955e+18,-1.0,-2.0,3.0,2.0,-1.0,0.0,1.0,0.0
1.6951612448309573e+18,0.0,0.0,2.0,-2.0,-2.0,-1.0,-1.0,0.0
1.6951612448499428e+18,-2.0,0.0,-3.0,-1.0,-1.0,-2.0,-1.0,-3.0
1.6951612448499428e+18,-1.0,0.0,-6.0,-4.0,-1.0,-1.0,-2.0,0.0
1.6951612448499428e+18,0.0,1.0,2.0,0.0,0.0,-2.0,0.0,-2.0
1.6951612448509427e+18,0.0,-1.0,1.0,0.0,0.0,0.0,-1.0,-2.0
1.695161244879928e+18,0.0,-3.0,1.0,-2.0,-2.0,0.0,0.0,1.0
1.6951612448809254e+18,-1.0,-2.0,-14.0,-6.0,-2.0,0.0,-2.0,-1.0
1.6951612448809254e+18,1.0,0.0,3.0,2.0,-1.0,1.0,-1.0,-1.0
1.6951612448809254e+18,-2.0,-4.0,1.0,1.0,-1.0,0.0,-1.0,-1.0
1.6951612448869238e+18,1.0,0.0,-2.0,-3.0,-1.0,-1.0,0.0,1.0
1.6951612448869238e+18,1.0,-1.0,-2.0,-1.0,-2.0,-3.0,-1.0,-1.0
1.6951612448879247e+18,-2.0,-1.0,4.0,1.0,-2.0,-1.0,-1.0,0.0
1.6951612448879247e+18,0.0,0.0,0.0,-2.0,0.0,0.0,0.0,0.0
1.69516124490991e+18,0.0,0.0,2.0,0.0,0.0,0.0,0.0,-1.0
1.69516124490991e+18,-2.0,-3.0,-3.0,0.0,-2.0,-1.0,0.0,0.0
1.6951612449169052e+18,-1.0,0.0,3.0,-1.0,1.0,0.0,0.0,-1.0
1.6951612449169052e+18,0.0,0.0,-3.0,1.0,-2.0,0.0,-2.0,-2.0
1.6951612449358953e+18,-1.0,-1.0,3.0,2.0,0.0,0.0,-2.0,-2.0
1.6951612449358953e+18,1.0,2.0,1.0,-1.0,0.0,0.0,0.0,0.0
1.6951612449358953e+18,0.0,0.0,-6.0,-2.0,0.0,-2.0,-1.0,-1.0
1.6951612449358953e+18,0.0,0.0,-1.0,-2.0,-2.0,-2.0,-2.0,0.0
1.6951612449468754e+18,1.0,0.0,-2.0,-1.0,0.0,-1.0,-1.0,0.0
1.695161244947878e+18,0.0,-2.0,1.0,0.0,-1.0,-1.0,0.0,-2.0
1.695161244947878e+18,-1.0,-5.0,1.0,3.0,2.0,-1.0,0.0,1.0
1.695161244947878e+18,-2.0,-1.0,-1.0,0.0,-1.0,-1.0,-2.0,0.0
1.6951612449697723e+18,-1.0,-1.0,-1.0,-1.0,-2.0,0.0,-1.0,-2.0
1.695161244970535e+18,-1.0,3.0,-2.0,-3.0,-1.0,-1.0,0.0,-1.0
1.695161244970535e+18,0.0,1.0,1.0,0.0,-1.0,-2.0,-1.0,-1.0
1.695161244970535e+18,-1.0,-3.0,-9.0,-5.0,-1.0,-2.0,-1.0,0.0
1.6951612449945866e+18,-1.0,-2.0,-2.0,-1.0,0.0,-2.0,-1.0,-3.0
1.6951612449955924e+18,-1.0,-1.0,3.0,-1.0,-1.0,-1.0,-1.0,-2.0
1.6951612449955924e+18,0.0,1.0,0.0,-1.0,-1.0,-2.0,-1.0,-2.0
1.6951612449955924e+18,-2.0,1.0,2.0,0.0,-1.0,0.0,-1.0,0.0
1.6951612450065155e+18,-3.0,0.0,-3.0,-2.0,-1.0,1.0,0.0,1.0
1.6951612450065155e+18,0.0,-1.0,-2.0,0.0,-1.0,-2.0,0.0,1.0
1.6951612450145336e+18,0.0,0.0,2.0,1.0,-1.0,1.0,1.0,0.0
1.6951612450145336e+18,-2.0,-2.0,-2.0,-1.0,0.0,-2.0,0.0,0.0
1.6951612450298253e+18,2.0,0.0,0.0,0.0,-1.0,-3.0,-1.0,-1.0
1.6951612450308247e+18,-1.0,1.0,0.0,-2.0,-1.0,0.0,-2.0,0.0
1.6951612450308247e+18,-1.0,-1.0,-1.0,0.0,-2.0,0.0,-1.0,1.0
1.6951612450308247e+18,0.0,2.0,3.0,2.0,1.0,-1.0,-1.0,-2.0
1.695161245060527e+18,1.0,-1.0,-2.0,-1.0,-1.0,1.0,1.0,0.0
1.6951612450615347e+18,-3.0,-1.0,-4.0,-2.0,0.0,-2.0,-1.0,-2.0
1.6951612450615347e+18,0.0,2.0,-1.0,-1.0,-1.0,-2.0,-2.0,-1.0
1.6951612450615347e+18,-2.0,-1.0,0.0,-3.0,-1.0,0.0,-1.0,-2.0
1.6951612450666286e+18,0.0,0.0,1.0,2.0,-1.0,1.0,0.0,-1.0
1.6951612450676431e+18,-3.0,1.0,-1.0,1.0,-2.0,0.0,-1.0,-1.0
1.6951612450816307e+18,-1.0,-1.0,-3.0,-4.0,-3.0,0.0,0.0,0.0
1.6951612450826401e+18,0.0,0.0,1.0,1.0,0.0,-1.0,-1.0,-1.0
1.6951612450926282e+18,-1.0,-1.0,-1.0,-2.0,1.0,-3.0,-2.0,-1.0
1.695161245093624e+18,0.0,-1.0,-3.0,-1.0,-1.0,1.0,1.0,-1.0
1.695161245093624e+18,0.0,-1.0,0.0,-1.0,0.0,-1.0,-1.0,-1.0
1.695161245093624e+18,0.0,-1.0,0.0,1.0,-2.0,-1.0,-1.0,0.0
1.695161245120608e+18,0.0,1.0,-3.0,-3.0,-1.0,-2.0,-2.0,-1.0
1.6951612451226204e+18,1.0,-1.0,0.0,2.0,-1.0,-1.0,-1.0,0.0
1.6951612451226204e+18,0.0,-1.0,-1.0,2.0,1.0,-1.0,-1.0,0.0
1.695161245123616e+18,-1.0,-1.0,-2.0,0.0,-1.0,-1.0,2.0,-2.0
1.69516124512661e+18,-3.0,0.0,0.0,-1.0,-1.0,0.0,0.0,1.0
1.69516124512661e+18,-2.0,1.0,1.0,1.0,-1.0,0.0,-1.0,0.0
1.6951612451355988e+18,-2.0,-2.0,0.0,-2.0,0.0,-2.0,-2.0,-2.0
1.6951612451365988e+18,0.0,-3.0,-2.0,-1.0,0.0,0.0,0.0,1.0
1.6951612451505897e+18,-2.0,0.0,-1.0,1.0,-1.0,-1.0,0.0,-1.0
1.6951612451515896e+18,1.0,-2.0,1.0,1.0,-1.0,-1.0,1.0,0.0
1.6951612451575864e+18,1.0,1.0,-4.0,0.0,0.0,1.0,-1.0,-1.0
1.695161245158586e+18,-1.0,0.0,0.0,-1.0,-1.0,0.0,-2.0,-2.0
1.695161245182604e+18,0.0,0.0,-1.0,0.0,0.0,-1.0,-2.0,-1.0
1.695161245182604e+18,-1.0,-3.0,1.0,1.0,-2.0,-2.0,-2.0,-2.0
1.695161245184571e+18,-1.0,-2.0,-1.0,-2.0,-1.0,-1.0,0.0,1.0
1.695161245184571e+18,-1.0,-2.0,-2.0,-3.0,-1.0,-2.0,1.0,0.0
1.6951612451955638e+18,0.0,-2.0,0.0,1.0,-2.0,-2.0,-1.0,0.0
1.6951612451965635e+18,0.0,1.0,-1.0,-4.0,-4.0,-1.0,-1.0,0.0
1.6951612451965635e+18,-3.0,-2.0,-1.0,2.0,0.0,0.0,-1.0,-2.0
1.6951612451975708e+18,0.0,-4.0,-1.0,-2.0,0.0,0.0,0.0,-1.0
1.6951612452125553e+18,-2.0,-2.0,-3.0,-1.0,1.0,0.0,-2.0,0.0
1.6951612452135542e+18,0.0,0.0,-2.0,-1.0,2.0,0.0,-1.0,-2.0
1.695161245214559e+18,-1.0,-1.0,-1.0,-3.0,-2.0,1.0,-1.0,-1.0
1.695161245214559e+18,-1.0,0.0,0.0,-1.0,-1.0,0.0,-2.0,0.0
1.6951612452335424e+18,-2.0,-2.0,-1.0,1.0,0.0,1.0,0.0,-2.0
1.6951612452345428e+18,-1.0,-2.0,0.0,-1.0,-1.0,-1.0,1.0,-1.0
1.695161245235542e+18,-1.0,0.0,-1.0,-1.0,-2.0,-1.0,-2.0,0.0
1.695161245235542e+18,0.0,1.0,-1.0,1.0,-1.0,-1.0,-1.0,0.0
1.695161245246553e+18,0.0,-7.0,-2.0,-2.0,0.0,-1.0,1.0,1.0
1.695161245247535e+18,-1.0,0.0,0.0,0.0,1.0,0.0,-2.0,1.0
1.6951612452555354e+18,-1.0,-2.0,1.0,0.0,0.0,-2.0,-1.0,-1.0
1.6951612452555354e+18,1.0,1.0,-1.0,0.0,0.0,-2.0,-1.0,0.0
1.6951612452715238e+18,2.0,1.0,-2.0,-2.0,-2.0,-3.0,-2.0,0.0
1.6951612452715238e+18,-1.0,-1.0,-2.0,0.0,0.0,0.0,1.0,-2.0
1.6951612452725207e+18,0.0,-1.0,0.0,0.0,2.0,-1.0,2.0,0.0
1.6951612452735273e+18,-1.0,0.0,0.0,-2.0,0.0,-1.0,-1.0,0.0
1.6951612453094996e+18,-3.0,1.0,-1.0,-2.0,-1.0,0.0,0.0,0.0
1.6951612453094996e+18,-1.0,-1.0,-1.0,0.0,-1.0,-1.0,-1.0,0.0
1.695161245310498e+18,1.0,0.0,-1.0,0.0,-3.0,-1.0,-2.0,-1.0
1.695161245310498e+18,-2.0,-1.0,-1.0,1.0,0.0,-1.0,-1.0,-2.0
1.6951612453114975e+18,0.0,0.0,-1.0,-2.0,-1.0,1.0,0.0,-2.0
1.6951612453114975e+18,0.0,-3.0,-2.0,-2.0,-1.0,-2.0,-1.0,-2.0
1.6951612453234913e+18,-2.0,-1.0,-1.0,-3.0,-1.0,0.0,-1.0,-1.0
1.6951612453245025e+18,0.0,-1.0,-2.0,-2.0,-2.0,0.0,0.0,-1.0
1.6951612453454784e+18,1.0,0.0,0.0,0.0,-2.0,-1.0,0.0,0.0
1.6951612453464778e+18,-1.0,-2.0,1.0,-2.0,-2.0,1.0,-1.0,-1.0
1.6951612453474778e+18,1.0,0.0,-2.0,-1.0,-2.0,0.0,0.0,-1.0
1.6951612453474778e+18,0.0,0.0,-1.0,0.0,-2.0,-2.0,0.0,-5.0
1.6951612453604762e+18,-1.0,-1.0,-1.0,-1.0,0.0,-2.0,-4.0,-3.0
1.6951612453614694e+18,-2.0,-2.0,1.0,-1.0,0.0,-4.0,-3.0,-2.0
1.6951612453614694e+18,0.0,-3.0,-3.0,-1.0,0.0,-3.0,-2.0,-2.0
1.6951612453624745e+18,-3.0,-2.0,0.0,0.0,-1.0,0.0,-2.0,-2.0
1.6951612453764626e+18,0.0,-2.0,-4.0,-1.0,-2.0,0.0,0.0,-1.0
1.6951612453764626e+18,-1.0,-1.0,1.0,1.0,0.0,-1.0,0.0,0.0
1.6951612453774602e+18,-2.0,-5.0,-11.0,-4.0,-2.0,-2.0,-1.0,-5.0
1.6951612453774602e+18,-1.0,-1.0,3.0,2.0,-1.0,-1.0,-1.0,-1.0
1.6951612453984492e+18,-1.0,-1.0,12.0,3.0,1.0,-3.0,1.0,-2.0
1.6951612453994468e+18,-1.0,-2.0,-15.0,-3.0,-2.0,-3.0,-3.0,-1.0
1.6951612453994468e+18,0.0,-1.0,5.0,0.0,-1.0,1.0,-2.0,-2.0
1.6951612453994468e+18,-1.0,-1.0,-5.0,-2.0,-2.0,-1.0,-2.0,-1.0
1.695161245421435e+18,-1.0,-2.0,-2.0,0.0,-1.0,-2.0,1.0,-2.0
1.695161245421435e+18,-1.0,1.0,3.0,4.0,0.0,-1.0,1.0,-2.0
1.6951612454224343e+18,-1.0,2.0,0.0,1.0,0.0,1.0,-1.0,-1.0
1.6951612454224343e+18,-3.0,-2.0,-12.0,-11.0,-5.0,-3.0,-2.0,-1.0
1.6951612454384256e+18,-1.0,0.0,1.0,2.0,0.0,0.0,-2.0,-1.0
1.6951612454394301e+18,-1.0,-1.0,1.0,-2.0,0.0,-1.0,-1.0,-1.0
1.6951612454394301e+18,-1.0,0.0,-3.0,2.0,0.0,-3.0,-1.0,-1.0
1.6951612454394301e+18,0.0,-2.0,4.0,2.0,4.0,0.0,0.0,0.0
1.695161245450417e+18,-1.0,-2.0,-5.0,-4.0,-3.0,-2.0,-1.0,-3.0
1.695161245450417e+18,0.0,-1.0,-1.0,-1.0,0.0,0.0,0.0,-1.0
1.695161245451417e+18,-1.0,0.0,2.0,-2.0,-2.0,-1.0,-1.0,1.0
1.6951612454524163e+18,-1.0,-1.0,0.0,0.0,-2.0,0.0,1.0,-1.0
1.6951612454744108e+18,-2.0,0.0,-6.0,-6.0,-3.0,-2.0,-3.0,0.0
1.6951612454774047e+18,0.0,-1.0,1.0,2.0,-2.0,0.0,-2.0,-1.0
1.6951612454774047e+18,0.0,-1.0,0.0,-2.0,0.0,1.0,1.0,-1.0
1.695161245481423e+18,0.0,0.0,0.0,1.0,-2.0,-3.0,-1.0,-1.0
1.695161245495395e+18,0.0,-1.0,0.0,2.0,-1.0,1.0,-1.0,1.0
1.6951612454963914e+18,-2.0,-1.0,-2.0,-2.0,1.0,1.0,3.0,1.0
1.6951612454963914e+18,-1.0,-2.0,-5.0,-6.0,2.0,2.0,0.0,-1.0
1.6951612454963914e+18,-2.0,0.0,2.0,1.0,1.0,0.0,2.0,0.0
1.6951612455093837e+18,2.0,2.0,1.0,-1.0,1.0,-1.0,-2.0,0.0
1.6951612455093837e+18,0.0,0.0,1.0,-3.0,-3.0,-4.0,-3.0,-1.0
1.695161245539368e+18,0.0,0.0,1.0,9.0,4.0,0.0,1.0,0.0
1.695161245539368e+18,0.0,-1.0,-3.0,4.0,1.0,2.0,1.0,1.0
1.6951612455523607e+18,0.0,0.0,3.0,3.0,2.0,2.0,3.0,1.0
1.695161245553359e+18,0.0,-2.0,-1.0,-2.0,1.0,-1.0,2.0,0.0
1.6951612455543583e+18,-1.0,-1.0,-2.0,-4.0,-2.0,-1.0,1.0,-1.0
1.6951612455543583e+18,-2.0,-1.0,1.0,8.0,-7.0,-6.0,-2.0,-2.0
1.6951612455563576e+18,-1.0,0.0,-2.0,-22.0,-21.0,-8.0,-4.0,-2.0
1.6951612455563576e+18,4.0,4.0,5.0,5.0,26.0,11.0,2.0,1.0
1.6951612455573568e+18,0.0,-1.0,2.0,15.0,8.0,5.0,2.0,2.0
1.6951612455573568e+18,1.0,-2.0,0.0,-8.0,-4.0,-2.0,-3.0,0.0
1.6951612455693486e+18,-2.0,-1.0,-3.0,10.0,4.0,1.0,-2.0,-1.0
1.6951612455693486e+18,-2.0,0.0,-2.0,-7.0,-16.0,-6.0,-2.0,-1.0
1.6951612455863416e+18,-2.0,-1.0,1.0,-4.0,-1.0,0.0,1.0,0.0
1.6951612455863416e+18,1.0,1.0,-3.0,-4.0,3.0,0.0,0.0,0.0
1.6951612456013312e+18,-1.0,-4.0,0.0,1.0,-4.0,-2.0,-2.0,1.0
1.6951612456023314e+18,0.0,8.0,-1.0,-4.0,-3.0,-2.0,-1.0,-3.0
1.6951612456023314e+18,-2.0,-4.0,3.0,7.0,3.0,0.0,-2.0,1.0
1.6951612456033316e+18,-6.0,-1.0,-4.0,-11.0,-11.0,-4.0,-1.0,-3.0
1.6951612456153224e+18,-1.0,-7.0,-6.0,-10.0,9.0,2.0,3.0,-3.0
1.6951612456153224e+18,2.0,3.0,1.0,18.0,-2.0,1.0,-2.0,6.0
1.6951612456293138e+18,-1.0,1.0,-2.0,-18.0,-16.0,-9.0,-7.0,-9.0
1.695161245630314e+18,-1.0,-4.0,0.0,2.0,1.0,0.0,-2.0,6.0
1.695161245630314e+18,-6.0,-7.0,-3.0,-5.0,-2.0,1.0,7.0,-1.0
1.695161245630314e+18,-1.0,-2.0,2.0,25.0,28.0,7.0,6.0,-4.0
1.695161245638309e+18,-4.0,2.0,1.0,-3.0,2.0,-4.0,-7.0,1.0
1.695161245638309e+18,4.0,0.0,-4.0,-9.0,1.0,2.0,-1.0,7.0
1.6951612456533002e+18,4.0,5.0,0.0,11.0,11.0,2.0,-1.0,5.0
1.6951612456533002e+18,-6.0,-8.0,3.0,-10.0,-15.0,-2.0,-2.0,-1.0
1.6951612456543e+18,3.0,2.0,0.0,2.0,0.0,1.0,9.0,6.0
1.6951612456543e+18,-1.0,4.0,0.0,0.0,1.0,-3.0,-1.0,-12.0
1.695161245675288e+18,-5.0,-10.0,-3.0,4.0,1.0,4.0,1.0,0.0
1.695161245676288e+18,2.0,8.0,-2.0,3.0,-6.0,-3.0,0.0,2.0
1.6951612456772872e+18,-3.0,-9.0,0.0,-13.0,-3.0,0.0,1.0,-12.0
1.6951612456772872e+18,-1.0,7.0,3.0,5.0,-3.0,-5.0,-3.0,29.0
1.6951612456982743e+18,2.0,0.0,-2.0,-6.0,-4.0,-11.0,-23.0,-24.0
1.6951612456982743e+18,0.0,0.0,1.0,-5.0,-1.0,2.0,12.0,-2.0
1.695161245699275e+18,0.0,-2.0,-3.0,4.0,1.0,3.0,-2.0,-8.0
1.695161245699275e+18,1.0,-5.0,-2.0,8.0,5.0,0.0,1.0,19.0
1.6951612457132662e+18,-5.0,4.0,1.0,-11.0,-18.0,2.0,17.0,-11.0
1.6951612457132662e+18,-2.0,0.0,-4.0,-24.0,-4.0,-5.0,-16.0,1.0
1.6951612457142666e+18,1.0,0.0,-1.0,11.0,5.0,-2.0,0.0,1.0
1.6951612457142666e+18,-6.0,-14.0,-3.0,1.0,-4.0,5.0,8.0,-22.0
1.6951612457352532e+18,-4.0,8.0,4.0,8.0,-3.0,-7.0,-13.0,7.0
1.6951612457352532e+18,1.0,-1.0,-2.0,-10.0,-8.0,5.0,2.0,-8.0
1.695161245737252e+18,0.0,-4.0,0.0,-9.0,-6.0,-7.0,-2.0,8.0
1.695161245737252e+18,5.0,-5.0,-2.0,5.0,3.0,1.0,-8.0,-21.0
1.6951612457492452e+18,-5.0,-3.0,1.0,4.0,4.0,-3.0,10.0,31.0
1.6951612457492452e+18,-5.0,14.0,-8.0,-27.0,-18.0,-8.0,-19.0,-40.0
1.695161245757578e+18,2.0,1.0,-5.0,7.0,8.0,-1.0,-13.0,38.0
1.695161245757578e+18,4.0,-3.0,4.0,6.0,2.0,1.0,15.0,17.0
1.6951612457745664e+18,4.0,9.0,-4.0,9.0,1.0,4.0,2.0,-15.0
1.6951612457745664e+18,8.0,0.0,3.0,-3.0,-1.0,-14.0,-27.0,-12.0
1.6951612457745664e+18,-13.0,-3.0,-3.0,-5.0,-2.0,5.0,1.0,6.0
1.6951612457745664e+18,0.0,6.0,3.0,-5.0,-2.0,6.0,9.0,-21.0
1.6951612457955538e+18,8.0,5.0,0.0,-3.0,4.0,1.0,15.0,30.0
1.6951612457955538e+18,-3.0,-9.0,-5.0,4.0,-3.0,6.0,17.0,-6.0
1.6951612457965537e+18,-8.0,-13.0,-3.0,0.0,-4.0,-10.0,-16.0,-18.0
1.695161245797553e+18,4.0,9.0,1.0,-4.0,1.0,2.0,-3.0,1.0
1.6951612458095846e+18,2.0,4.0,3.0,1.0,-3.0,-2.0,-3.0,6.0
1.6951612458095846e+18,-2.0,-9.0,0.0,1.0,5.0,4.0,-6.0,10.0
1.6951612458183068e+18,-2.0,9.0,2.0,-5.0,-8.0,-5.0,4.0,-7.0
1.6951612458183068e+18,-7.0,-7.0,1.0,-4.0,-9.0,-10.0,-17.0,-11.0
1.695161245840547e+18,4.0,1.0,-4.0,4.0,10.0,-11.0,-42.0,-4.0
1.6951612458415465e+18,11.0,-3.0,5.0,8.0,3.0,19.0,33.0,38.0
1.6951612458425457e+18,-14.0,-11.0,-15.0,-13.0,-12.0,-3.0,29.0,-41.0
1.6951612458435525e+18,-6.0,6.0,7.0,9.0,4.0,1.0,4.0,5.0
1.6951612458555392e+18,16.0,3.0,17.0,-8.0,-6.0,5.0,26.0,40.0
1.6951612458565386e+18,-28.0,-8.0,-6.0,6.0,1.0,-6.0,-25.0,-19.0
1.6951612458585377e+18,10.0,7.0,10.0,6.0,6.0,3.0,11.0,-12.0
1.6951612458585377e+18,-20.0,-6.0,-8.0,-19.0,-13.0,-28.0,-74.0,-9.0
1.695161245869538e+18,20.0,-8.0,-8.0,-10.0,2.0,22.0,74.0,5.0
1.6951612458705385e+18,-5.0,9.0,-2.0,4.0,1.0,5.0,-1.0,-24.0
1.6951612458855224e+18,30.0,-12.0,-2.0,8.0,3.0,2.0,14.0,59.0
1.6951612458865206e+18,-13.0,-4.0,-17.0,-1.0,3.0,-5.0,-24.0,-4.0
1.6951612459015155e+18,16.0,2.0,2.0,-2.0,1.0,-1.0,-11.0,-6.0
1.6951612459025119e+18,-42.0,-12.0,4.0,10.0,-1.0,-10.0,3.0,-30.0
1.6951612459035126e+18,25.0,12.0,-1.0,-3.0,-8.0,6.0,15.0,1.0
1.695161245904511e+18,33.0,8.0,23.0,-1.0,10.0,19.0,33.0,33.0
1.6951612459254994e+18,-10.0,-15.0,-40.0,-4.0,-6.0,-10.0,-25.0,-13.0
1.6951612459344916e+18,18.0,9.0,11.0,-23.0,-16.0,-4.0,10.0,5.0
1.6951612459364933e+18,-18.0,-28.0,-9.0,-4.0,4.0,-14.0,-29.0,-16.0
1.6951612459374927e+18,-6.0,9.0,20.0,3.0,5.0,7.0,13.0,0.0
1.6951612459374927e+18,-6.0,3.0,-12.0,3.0,1.0,0.0,-1.0,-14.0
1.6951612459404892e+18,4.0,-5.0,8.0,-5.0,-2.0,-15.0,-9.0,4.0
1.695161245941491e+18,-6.0,12.0,27.0,11.0,-5.0,8.0,-1.0,8.0
1.695161245941491e+18,12.0,-5.0,-27.0,2.0,-6.0,-3.0,5.0,-14.0
1.695161245953482e+18,-31.0,-14.0,-15.0,-18.0,3.0,-4.0,-25.0,-22.0
1.6951612459544878e+18,14.0,4.0,1.0,6.0,7.0,-6.0,-24.0,16.0
1.6951612459554819e+18,-7.0,5.0,1.0,-11.0,-11.0,-1.0,-6.0,16.0
1.6951612459554819e+18,-15.0,-14.0,-4.0,16.0,7.0,4.0,-3.0,-14.0
1.6951612459764695e+18,-9.0,21.0,45.0,3.0,-13.0,-9.0,-12.0,-8.0
1.6951612459774715e+18,3.0,-20.0,-51.0,-16.0,4.0,-1.0,8.0,19.0
1.695161245978468e+18,-6.0,5.0,-11.0,15.0,1.0,7.0,6.0,-14.0
1.695161245978468e+18,-4.0,2.0,14.0,1.0,6.0,-9.0,-8.0,-18.0
1.6951612459894618e+18,0.0,-3.0,-20.0,0.0,-4.0,-3.0,-3.0,13.0
1.695161245990461e+18,2.0,3.0,37.0,27.0,35.0,15.0,17.0,-12.0
1.6951612460214418e+18,-9.0,-18.0,-22.0,-28.0,-13.0,-6.0,-20.0,2.0
1.695161246022442e+18,-2.0,11.0,-18.0,-4.0,-2.0,7.0,10.0,-5.0
1.695161246022442e+18,12.0,-16.0,17.0,-1.0,-8.0,-4.0,1.0,24.0
1.695161246022442e+18,3.0,19.0,-11.0,6.0,-11.0,0.0,13.0,13.0
1.6951612460384315e+18,-11.0,-19.0,-14.0,-4.0,12.0,-1.0,-1.0,-15.0
1.6951612460394317e+18,-1.0,13.0,35.0,4.0,-3.0,-1.0,10.0,0.0
1.6951612460394317e+18,-5.0,6.0,-18.0,-3.0,13.0,8.0,-4.0,-25.0
1.6951612460404314e+18,-5.0,-7.0,12.0,-1.0,-16.0,-8.0,-18.0,-2.0
1.69516124604243e+18,-2.0,12.0,13.0,0.0,6.0,3.0,4.0,-13.0
1.69516124604243e+18,13.0,-16.0,-21.0,-10.0,-7.0,-9.0,-16.0,26.0
1.6951612460494257e+18,-27.0,-2.0,5.0,10.0,1.0,-2.0,2.0,-16.0
1.6951612460494257e+18,-6.0,2.0,1.0,5.0,3.0,-2.0,3.0,-11.0
1.695161246065417e+18,13.0,3.0,6.0,-22.0,-9.0,10.0,32.0,17.0
1.695161246066416e+18,-1.0,18.0,4.0,11.0,-5.0,-6.0,2.0,-16.0
1.6951612460964206e+18,1.0,-12.0,-22.0,1.0,6.0,1.0,-6.0,-1.0
1.6951612460964206e+18,2.0,7.0,-3.0,3.0,7.0,8.0,26.0,12.0
1.6951612460974075e+18,3.0,8.0,4.0,5.0,-1.0,-13.0,-27.0,-2.0
1.6951612460974075e+18,0.0,-2.0,-6.0,-9.0,-5.0,6.0,9.0,16.0
1.6951612461033935e+18,-2.0,2.0,22.0,8.0,-4.0,-1.0,3.0,-8.0
1.6951612461033935e+18,13.0,6.0,-19.0,-10.0,4.0,2.0,-13.0,7.0
1.6951612461043932e+18,5.0,-1.0,0.0,1.0,-3.0,0.0,6.0,2.0
1.6951612461043932e+18,4.0,4.0,16.0,-12.0,-4.0,6.0,-13.0,14.0
1.69516124610939e+18,7.0,9.0,-7.0,2.0,5.0,2.0,0.0,6.0
1.69516124610939e+18,6.0,-22.0,-27.0,-7.0,-9.0,-4.0,10.0,-4.0
1.6951612461393956e+18,-10.0,22.0,23.0,13.0,2.0,-17.0,-26.0,-29.0
1.6951612461393956e+18,-13.0,-35.0,-32.0,-2.0,5.0,11.0,29.0,30.0
1.6951612461583698e+18,-1.0,5.0,-11.0,9.0,7.0,-3.0,-8.0,-8.0
1.6951612461613632e+18,0.0,-9.0,-5.0,0.0,-5.0,6.0,13.0,14.0
1.6951612461613632e+18,-16.0,-7.0,11.0,3.0,1.0,0.0,-4.0,-23.0
1.695161246162363e+18,2.0,8.0,-7.0,2.0,0.0,-13.0,-24.0,-26.0
1.695161246162363e+18,29.0,11.0,10.0,-7.0,2.0,3.0,15.0,13.0
1.695161246162363e+18,-10.0,18.0,8.0,-22.0,-26.0,-12.0,-17.0,-9.0
1.6951612461633595e+18,-16.0,-24.0,-18.0,2.0,8.0,1.0,28.0,8.0
1.6951612461633595e+18,4.0,1.0,4.0,-5.0,0.0,8.0,-1.0,7.0
1.695161246169466e+18,-12.0,-5.0,-6.0,2.0,2.0,2.0,8.0,-6.0
1.695161246169466e+18,34.0,15.0,-5.0,-5.0,-1.0,-8.0,-13.0,-8.0
1.6951612461784622e+18,-3.0,-34.0,14.0,3.0,1.0,-4.0,-11.0,35.0
1.6951612461784622e+18,12.0,36.0,-14.0,-11.0,-8.0,-7.0,27.0,-66.0
1.695161246200824e+18,-2.0,-3.0,12.0,2.0,-2.0,3.0,-3.0,42.0
1.695161246200824e+18,1.0,-21.0,4.0,-4.0,-3.0,-6.0,-29.0,-2.0
1.695161246201835e+18,-12.0,17.0,-50.0,-10.0,-5.0,-2.0,-17.0,4.0
1.695161246201835e+18,-10.0,14.0,30.0,-4.0,2.0,1.0,16.0,-6.0
1.6951612462155884e+18,-13.0,-5.0,3.0,-3.0,-3.0,4.0,-14.0,-27.0
1.6951612462155884e+18,-10.0,1.0,7.0,7.0,-3.0,-10.0,-1.0,4.0
1.6951612462165903e+18,16.0,4.0,-4.0,6.0,4.0,5.0,14.0,8.0
1.6951612462175939e+18,-5.0,-11.0,1.0,5.0,7.0,24.0,7.0,1.0
1.695161246228604e+18,-15.0,-21.0,9.0,-2.0,-5.0,-2.0,8.0,-5.0
1.6951612462295857e+18,26.0,7.0,12.0,3.0,4.0,-1.0,-15.0,1.0
1.6951612462535672e+18,7.0,13.0,-8.0,1.0,-5.0,-3.0,0.0,-4.0
1.6951612462535672e+18,3.0,4.0,1.0,-11.0,-27.0,-21.0,-21.0,6.0
1.6951612462705797e+18,-8.0,-46.0,-3.0,21.0,38.0,13.0,-11.0,-13.0
1.6951612462715791e+18,2.0,-3.0,-11.0,5.0,5.0,-1.0,16.0,5.0
1.6951612462715791e+18,15.0,17.0,18.0,4.0,2.0,2.0,4.0,0.0
1.6951612462715791e+18,-1.0,-45.0,-15.0,-7.0,-5.0,-11.0,-2.0,19.0
1.695161246275396e+18,20.0,22.0,-9.0,2.0,-12.0,-4.0,-3.0,-23.0
1.695161246275396e+18,-14.0,1.0,17.0,2.0,5.0,4.0,4.0,-6.0
1.6951612462774e+18,-36.0,-6.0,23.0,2.0,-2.0,2.0,2.0,-21.0
1.6951612462774e+18,6.0,-10.0,-54.0,-1.0,4.0,-2.0,-9.0,30.0
1.695161246305499e+18,-12.0,-10.0,2.0,-14.0,-12.0,-7.0,15.0,1.0
1.695161246306493e+18,17.0,4.0,5.0,0.0,8.0,7.0,-10.0,-8.0
1.6951612463074916e+18,8.0,13.0,3.0,-6.0,-3.0,-3.0,2.0,-15.0
1.6951612463084908e+18,-8.0,-7.0,14.0,10.0,0.0,0.0,-2.0,-14.0
1.6951612463214825e+18,-6.0,1.0,-8.0,-12.0,-10.0,-8.0,-8.0,-3.0
1.695161246322483e+18,-18.0,-10.0,-38.0,0.0,1.0,4.0,10.0,3.0
1.6951612463234908e+18,3.0,12.0,7.0,4.0,1.0,5.0,-10.0,-12.0
1.6951612463234908e+18,-2.0,-11.0,1.0,-2.0,9.0,-4.0,-3.0,12.0
1.6951612463434708e+18,10.0,0.0,-7.0,-7.0,-16.0,-4.0,6.0,-1.0
1.6951612463444864e+18,-18.0,-16.0,16.0,2.0,2.0,3.0,13.0,-16.0
1.6951612463454697e+18,13.0,6.0,-3.0,2.0,5.0,0.0,-9.0,41.0
1.6951612463454697e+18,2.0,0.0,0.0,-23.0,-16.0,-11.0,-8.0,-11.0
1.695161246366457e+18,0.0,14.0,7.0,26.0,6.0,-6.0,1.0,-20.0
1.6951612463674586e+18,-6.0,0.0,5.0,-17.0,0.0,5.0,7.0,21.0
1.6951612463874445e+18,2.0,-7.0,-7.0,-5.0,-5.0,7.0,0.0,1.0
1.6951612463874445e+18,-2.0,3.0,11.0,22.0,17.0,15.0,6.0,-9.0
1.695161246388449e+18,1.0,6.0,5.0,-8.0,-15.0,-11.0,-8.0,2.0
1.695161246388449e+18,-10.0,-3.0,-5.0,3.0,-2.0,-4.0,-2.0,-6.0
1.695161246388449e+18,3.0,-4.0,1.0,13.0,13.0,-3.0,1.0,-5.0
1.695161246388449e+18,-4.0,-2.0,-3.0,-7.0,-4.0,2.0,0.0,0.0
1.695161246395603e+18,-1.0,6.0,9.0,-24.0,-32.0,-11.0,-3.0,-2.0
1.695161246395603e+18,-2.0,-8.0,1.0,6.0,1.0,1.0,-1.0,8.0
1.6951612463966019e+18,1.0,-4.0,-16.0,-2.0,-11.0,-5.0,1.0,0.0
1.695161246397601e+18,4.0,3.0,1.0,6.0,29.0,11.0,2.0,-7.0
1.69516124643358e+18,-2.0,-1.0,-2.0,5.0,-1.0,5.0,-6.0,4.0
1.69516124643358e+18,1.0,0.0,5.0,7.0,0.0,-3.0,-4.0,1.0
1.69516124643558e+18,-5.0,-10.0,-35.0,-14.0,-9.0,1.0,3.0,-5.0
1.69516124643558e+18,-3.0,-1.0,6.0,8.0,3.0,-12.0,-5.0,-5.0
1.6951612464365809e+18,-24.0,-3.0,9.0,-8.0,-14.0,-6.0,-6.0,-4.0
1.6951612464365809e+18,1.0,-4.0,-13.0,-8.0,-6.0,4.0,2.0,14.0
1.695161246440576e+18,-1.0,2.0,5.0,5.0,2.0,-11.0,-2.0,-24.0
1.695161246440576e+18,2.0,-1.0,3.0,0.0,-8.0,9.0,3.0,11.0
1.6951612464585907e+18,6.0,2.0,-3.0,-2.0,19.0,7.0,3.0,13.0
1.6951612464585907e+18,-8.0,-4.0,1.0,3.0,-6.0,-3.0,-3.0,-15.0
1.6951612464615647e+18,1.0,-2.0,7.0,-7.0,-1.0,-2.0,-5.0,3.0
1.6951612464625633e+18,2.0,-1.0,-3.0,1.0,-10.0,-11.0,-2.0,0.0
1.6951612464775542e+18,5.0,3.0,-1.0,-2.0,6.0,1.0,-5.0,-4.0
1.695161246478554e+18,-2.0,3.0,-4.0,3.0,4.0,-1.0,3.0,2.0
1.6951612464795587e+18,3.0,-1.0,8.0,-2.0,-5.0,1.0,-3.0,-3.0
1.6951612464795587e+18,-3.0,-2.0,-3.0,-4.0,-4.0,-2.0,3.0,-3.0
1.6951612464916265e+18,0.0,-2.0,-9.0,4.0,9.0,4.0,2.0,4.0
1.6951612464916265e+18,0.0,2.0,7.0,1.0,-3.0,-1.0,-2.0,-2.0
1.6951612465005325e+18,1.0,-1.0,-1.0,-4.0,-2.0,-1.0,-1.0,2.0
1.6951612465015734e+18,-4.0,0.0,-1.0,3.0,-2.0,2.0,1.0,-4.0
1.6951612465233234e+18,3.0,1.0,-10.0,-2.0,6.0,0.0,-2.0,-1.0
1.6951612465243236e+18,2.0,3.0,23.0,-1.0,-5.0,-5.0,-2.0,0.0
1.6951612465253228e+18,2.0,1.0,-4.0,-2.0,0.0,0.0,-2.0,2.0
1.6951612465253228e+18,-4.0,0.0,0.0,2.0,2.0,0.0,-1.0,-2.0
1.6951612465383158e+18,1.0,-3.0,2.0,0.0,-1.0,-2.0,-3.0,-3.0
1.6951612465393142e+18,-2.0,0.0,-1.0,2.0,-3.0,-3.0,-1.0,0.0
1.695161246540314e+18,0.0,-2.0,-2.0,4.0,3.0,2.0,1.0,4.0
1.695161246540314e+18,-2.0,3.0,-3.0,-15.0,-2.0,0.0,0.0,-4.0
1.6951612465643323e+18,1.0,-3.0,-7.0,3.0,2.0,1.0,1.0,0.0
1.695161246565301e+18,-3.0,-2.0,7.0,8.0,-1.0,2.0,0.0,1.0
1.695161246565301e+18,-1.0,-1.0,-2.0,-5.0,3.0,3.0,-2.0,0.0
1.6951612465663316e+18,-1.0,2.0,4.0,4.0,-6.0,-3.0,-1.0,-2.0
1.6951612465752937e+18,0.0,1.0,0.0,-10.0,1.0,-1.0,-1.0,-1.0
1.6951612465762934e+18,-1.0,0.0,-7.0,2.0,0.0,-1.0,0.0,1.0
1.695161246582291e+18,2.0,2.0,10.0,19.0,1.0,2.0,-2.0,1.0
1.695161246582291e+18,1.0,-3.0,-11.0,-20.0,-1.0,-3.0,-2.0,-3.0
1.695161246598288e+18,-2.0,-3.0,-12.0,-10.0,-1.0,1.0,0.0,1.0
1.69516124659928e+18,-3.0,-5.0,-8.0,-17.0,-5.0,0.0,-1.0,-1.0
1.6951612466002826e+18,4.0,1.0,8.0,5.0,0.0,-1.0,1.0,2.0
1.6951612466012795e+18,-4.0,0.0,8.0,7.0,0.0,-2.0,-2.0,-2.0
1.695161246622267e+18,0.0,4.0,11.0,16.0,4.0,0.0,-2.0,-1.0
1.695161246622267e+18,-1.0,1.0,-3.0,-13.0,-3.0,-2.0,-1.0,-1.0
1.6951612466232666e+18,-2.0,0.0,-8.0,-5.0,0.0,1.0,1.0,1.0
1.6951612466232666e+18,0.0,-3.0,2.0,11.0,4.0,1.0,0.0,0.0
1.6951612466362588e+18,0.0,-3.0,-4.0,-13.0,-6.0,-3.0,-2.0,-2.0
1.6951612466372585e+18,-3.0,-2.0,5.0,10.0,-3.0,-3.0,0.0,1.0
1.6951612466382584e+18,-3.0,0.0,4.0,-5.0,-1.0,-1.0,-1.0,0.0
1.6951612466382584e+18,-1.0,-1.0,-8.0,-5.0,1.0,-1.0,-1.0,0.0
1.695161246659246e+18,-3.0,0.0,11.0,14.0,1.0,-1.0,-2.0,-1.0
1.695161246660246e+18,0.0,-2.0,-4.0,1.0,0.0,-3.0,-1.0,0.0
1.695161246660246e+18,-2.0,-2.0,0.0,-4.0,-4.0,-1.0,-1.0,-2.0
1.6951612466612454e+18,-2.0,2.0,2.0,5.0,2.0,6.0,4.0,-1.0
1.6951612466782356e+18,1.0,0.0,0.0,-3.0,2.0,-1.0,2.0,0.0
1.6951612466782356e+18,-1.0,-1.0,-11.0,-10.0,-1.0,1.0,-3.0,0.0
1.69516124668923e+18,-2.0,-3.0,-3.0,-11.0,-4.0,-5.0,-3.0,-4.0
1.69516124668923e+18,-1.0,-1.0,4.0,12.0,-1.0,-2.0,-1.0,0.0
1.6951612466962243e+18,0.0,-2.0,-3.0,-5.0,-4.0,-1.0,-1.0,-2.0
1.6951612466972255e+18,1.0,1.0,9.0,18.0,7.0,3.0,1.0,-1.0
1.6951612466982292e+18,0.0,-2.0,-13.0,-21.0,-7.0,-1.0,-2.0,-2.0
1.6951612466982292e+18,-1.0,-2.0,-1.0,-4.0,-2.0,-2.0,-2.0,-1.0
1.695161246734202e+18,-2.0,-2.0,6.0,1.0,-3.0,-1.0,-2.0,-3.0
1.695161246734202e+18,-1.0,1.0,-5.0,0.0,-3.0,-8.0,-2.0,-1.0
1.695161246735201e+18,0.0,0.0,2.0,5.0,3.0,5.0,1.0,-1.0
1.6951612467362004e+18,1.0,0.0,-1.0,-1.0,1.0,4.0,2.0,-2.0
1.6951612467362004e+18,0.0,-1.0,-5.0,-6.0,0.0,-4.0,-2.0,-1.0
1.695161246737202e+18,-2.0,-1.0,-3.0,-3.0,-1.0,2.0,-2.0,-1.0
1.6951612467571889e+18,-1.0,0.0,2.0,6.0,0.0,-3.0,-1.0,-1.0
1.695161246761188e+18,0.0,-2.0,1.0,-4.0,-10.0,-18.0,-4.0,0.0
1.6951612467641871e+18,-1.0,0.0,-1.0,3.0,6.0,14.0,1.0,0.0
1.6951612467641871e+18,-1.0,-2.0,-4.0,-2.0,1.0,4.0,1.0,-1.0
1.6951612467651845e+18,1.0,-1.0,0.0,1.0,-1.0,-1.0,-1.0,-1.0
1.6951612467651845e+18,-1.0,-2.0,-2.0,-6.0,-5.0,2.0,-4.0,-1.0
1.695161246786172e+18,-1.0,0.0,-3.0,-4.0,-16.0,-24.0,-9.0,-2.0
1.695161246786172e+18,0.0,1.0,2.0,-2.0,-6.0,-21.0,-2.0,1.0
1.6951612467871754e+18,0.0,0.0,0.0,3.0,7.0,45.0,11.0,2.0
1.6951612467871754e+18,0.0,1.0,4.0,6.0,11.0,1.0,7.0,1.0
1.6951612468001636e+18,-1.0,-1.0,-1.0,1.0,13.0,8.0,1.0,0.0
1.6951612468001636e+18,-1.0,-1.0,-4.0,-5.0,7.0,7.0,-3.0,-1.0
1.69516124680616e+18,-2.0,-1.0,-1.0,-3.0,-9.0,-16.0,-6.0,-1.0
1.6951612468071608e+18,-3.0,-1.0,-1.0,-3.0,-9.0,-7.0,-3.0,0.0
1.6951612468251507e+18,1.0,0.0,0.0,-2.0,-16.0,2.0,1.0,0.0
1.695161246826149e+18,1.0,-2.0,-2.0,-1.0,-2.0,-7.0,-1.0,0.0
1.695161246826149e+18,0.0,0.0,-1.0,1.0,8.0,-6.0,-1.0,-2.0
1.695161246826149e+18,-1.0,-1.0,-1.0,1.0,1.0,3.0,-2.0,0.0
1.6951612468381463e+18,-1.0,0.0,-2.0,-3.0,0.0,-8.0,0.0,0.0
1.695161246839149e+18,-1.0,-1.0,0.0,-1.0,-1.0,5.0,2.0,-1.0
1.695161246839149e+18,0.0,-2.0,-1.0,1.0,-1.0,-3.0,-2.0,-1.0
1.6951612468401436e+18,0.0,-1.0,-2.0,-1.0,-1.0,-2.0,-3.0,-3.0
1.695161246861129e+18,-1.0,0.0,-1.0,-1.0,0.0,-3.0,-2.0,-2.0
1.695161246861129e+18,-3.0,-2.0,-2.0,-1.0,-1.0,6.0,-1.0,-1.0
1.6951612468631278e+18,-2.0,-1.0,1.0,1.0,1.0,-6.0,-2.0,0.0
1.6951612468631278e+18,-2.0,-1.0,-1.0,0.0,-5.0,-3.0,0.0,-1.0
1.695161246879121e+18,-1.0,-1.0,-1.0,-1.0,2.0,3.0,-1.0,0.0
1.6951612468831173e+18,0.0,0.0,-1.0,1.0,0.0,3.0,0.0,-1.0
1.6951612468871378e+18,-2.0,0.0,0.0,0.0,-3.0,-5.0,-3.0,-1.0
1.6951612468881372e+18,0.0,-1.0,-1.0,-1.0,1.0,3.0,1.0,0.0
1.695161246898112e+18,1.0,0.0,-1.0,0.0,2.0,6.0,0.0,1.0
1.695161246898112e+18,-1.0,-2.0,1.0,-1.0,-3.0,-5.0,-2.0,-1.0
1.695161246899107e+18,0.0,-1.0,-1.0,-1.0,-2.0,-5.0,0.0,0.0
1.69516124690011e+18,-1.0,-1.0,0.0,0.0,1.0,5.0,0.0,-2.0
1.6951612469121004e+18,-3.0,-1.0,2.0,4.0,3.0,-4.0,1.0,-1.0
1.6951612469121004e+18,0.0,-1.0,-3.0,0.0,-1.0,-1.0,-1.0,-1.0
1.6951612469210947e+18,-1.0,-1.0,0.0,-1.0,1.0,3.0,0.0,0.0
1.6951612469210947e+18,-1.0,-1.0,1.0,-2.0,0.0,-3.0,-1.0,0.0
1.6951612469350868e+18,-1.0,-1.0,-1.0,-2.0,-2.0,-1.0,0.0,1.0
1.6951612469360868e+18,-1.0,0.0,-2.0,-2.0,-3.0,-2.0,-2.0,-1.0
1.6951612469370854e+18,-2.0,-1.0,-1.0,1.0,-4.0,-4.0,-1.0,-1.0
1.6951612469370854e+18,0.0,0.0,-3.0,-2.0,1.0,1.0,0.0,-2.0
1.6951612469580772e+18,-1.0,0.0,-1.0,-1.0,-3.0,-2.0,-2.0,0.0
1.695161246959075e+18,1.0,-1.0,0.0,0.0,-1.0,1.0,0.0,-1.0
1.6951612469600732e+18,0.0,0.0,0.0,-2.0,-2.0,-9.0,1.0,-1.0
1.6951612469600732e+18,1.0,1.0,0.0,0.0,-3.0,8.0,1.0,-2.0
1.6951612469720694e+18,0.0,-1.0,-1.0,1.0,7.0,5.0,0.0,-1.0
1.6951612469720694e+18,0.0,-1.0,1.0,-1.0,2.0,1.0,1.0,-2.0
1.6951612469870574e+18,1.0,-1.0,-1.0,-2.0,-2.0,-5.0,-1.0,-1.0
1.6951612469870574e+18,-1.0,-2.0,0.0,-1.0,-3.0,-7.0,-3.0,0.0
1.6951612469950528e+18,-1.0,-1.0,-1.0,-1.0,-4.0,2.0,1.0,0.0
1.6951612469950528e+18,-2.0,0.0,-3.0,-2.0,-2.0,2.0,-1.0,-1.0
1.6951612470080502e+18,0.0,-2.0,-2.0,-1.0,-1.0,-3.0,-1.0,0.0
1.6951612470080502e+18,-1.0,0.0,0.0,1.0,-2.0,-2.0,-2.0,-1.0
1.6951612470490458e+18,0.0,-2.0,0.0,-1.0,1.0,0.0,0.0,-2.0
1.6951612470500204e+18,-2.0,-3.0,0.0,-1.0,-1.0,0.0,-1.0,1.0
1.6951612470510198e+18,-2.0,-1.0,-1.0,-2.0,0.0,-1.0,-1.0,0.0
1.6951612470510198e+18,-1.0,0.0,0.0,0.0,1.0,0.0,-2.0,-2.0
1.6951612470520202e+18,0.0,-1.0,-1.0,0.0,-2.0,-1.0,-1.0,-1.0
1.6951612470520202e+18,1.0,-1.0,0.0,0.0,-2.0,-2.0,0.0,-4.0
1.6951612470570166e+18,0.0,0.0,0.0,1.0,0.0,2.0,-1.0,-2.0
1.6951612470570166e+18,0.0,-2.0,-2.0,-1.0,0.0,1.0,-1.0,0.0
1.6951612470580165e+18,0.0,0.0,-1.0,1.0,-2.0,-2.0,-1.0,-1.0
1.6951612470580165e+18,0.0,0.0,-1.0,0.0,0.0,-2.0,1.0,-2.0
1.6951612470660209e+18,-2.0,0.0,-1.0,-1.0,2.0,1.0,0.0,1.0
1.6951612470690104e+18,-1.0,-1.0,-1.0,0.0,2.0,-4.0,0.0,0.0
1.6951612470860063e+18,1.0,0.0,0.0,-1.0,0.0,-1.0,-1.0,-2.0
1.6951612470860063e+18,-1.0,-1.0,0.0,-2.0,0.0,1.0,-1.0,2.0
1.6951612470869993e+18,-2.0,-1.0,-3.0,-3.0,0.0,-1.0,-2.0,0.0
1.6951612470869993e+18,0.0,-1.0,0.0,-2.0,-2.0,-5.0,0.0,0.0
1.695161247100992e+18,-1.0,0.0,-1.0,-2.0,-2.0,-1.0,1.0,-1.0
1.695161247100992e+18,-1.0,0.0,-2.0,0.0,1.0,0.0,-2.0,-1.0
1.6951612471029924e+18,0.0,-2.0,1.0,1.0,-2.0,0.0,-1.0,-2.0
1.6951612471039908e+18,0.0,-2.0,-1.0,-3.0,-1.0,0.0,-1.0,-1.0
1.6951612471149878e+18,1.0,-1.0,-2.0,-3.0,0.0,-1.0,-2.0,0.0
1.6951612471149878e+18,0.0,-1.0,0.0,0.0,-1.0,0.0,0.0,1.0
1.69516124712198e+18,-1.0,-1.0,-1.0,-1.0,-1.0,0.0,0.0,0.0
1.69516124712198e+18,-2.0,-1.0,0.0,0.0,0.0,-1.0,0.0,-1.0
1.6951612471379704e+18,-2.0,1.0,-1.0,-1.0,0.0,-2.0,-1.0,-1.0
1.6951612471409692e+18,0.0,-4.0,2.0,-2.0,0.0,0.0,-1.0,1.0
1.695161247144967e+18,1.0,0.0,0.0,-1.0,2.0,-2.0,-1.0,-2.0
1.695161247144967e+18,0.0,-2.0,-2.0,0.0,-2.0,-1.0,-1.0,-2.0
1.6951612471529628e+18,0.0,-2.0,-1.0,-1.0,0.0,-1.0,0.0,-1.0
1.6951612471539625e+18,-1.0,1.0,-1.0,-2.0,-1.0,0.0,-1.0,-1.0
1.6951612471609574e+18,1.0,-1.0,-1.0,-1.0,-2.0,0.0,0.0,-2.0
1.6951612471609574e+18,-3.0,-1.0,0.0,-2.0,-1.0,-1.0,-2.0,0.0
1.695161247174949e+18,-1.0,0.0,0.0,-1.0,0.0,-2.0,1.0,-2.0
1.695161247174949e+18,-1.0,-1.0,-1.0,-1.0,-2.0,-2.0,0.0,0.0
1.6951612471819453e+18,-1.0,-3.0,1.0,0.0,-1.0,-1.0,-1.0,0.0
1.6951612471819453e+18,0.0,0.0,-2.0,0.0,-1.0,-1.0,-1.0,-1.0
1.6951612472099302e+18,-1.0,-1.0,0.0,-1.0,-1.0,2.0,-1.0,-1.0
1.6951612472099302e+18,0.0,0.0,-1.0,0.0,0.0,0.0,-2.0,-1.0
1.6951612472109312e+18,-1.0,-1.0,-2.0,-2.0,0.0,1.0,-1.0,-1.0
1.6951612472109312e+18,-2.0,-1.0,-1.0,-1.0,-1.0,-1.0,-1.0,0.0
1.695161247211929e+18,-2.0,-1.0,-1.0,-1.0,-1.0,0.0,-1.0,2.0
1.6951612472129285e+18,1.0,0.0,-1.0,-1.0,-2.0,0.0,-2.0,-1.0
1.695161247227919e+18,0.0,-1.0,0.0,-1.0,-1.0,-1.0,0.0,-2.0
1.6951612472289185e+18,-1.0,-1.0,-1.0,1.0,0.0,0.0,-1.0,-1.0
1.6951612472349153e+18,-2.0,-1.0,0.0,0.0,-1.0,-2.0,-1.0,-3.0
1.6951612472349153e+18,-1.0,-1.0,-2.0,-2.0,0.0,-2.0,-1.0,-1.0
1.695161247241911e+18,-1.0,-1.0,-1.0,0.0,-2.0,-1.0,-1.0,0.0
1.695161247241911e+18,-1.0,-1.0,-3.0,0.0,0.0,-2.0,-1.0,0.0
1.6951612472589018e+18,0.0,-1.0,-1.0,1.0,-1.0,-2.0,0.0,-2.0
1.6951612472589018e+18,-2.0,0.0,0.0,0.0,-2.0,-2.0,0.0,-1.0
1.6951612472599007e+18,0.0,-1.0,0.0,-1.0,0.0,-2.0,0.0,-1.0
1.6951612472599007e+18,0.0,-1.0,0.0,-1.0,-1.0,1.0,-1.0,-2.0
1.6951612472798881e+18,0.0,-2.0,-3.0,0.0,-1.0,0.0,-2.0,-1.0
1.695161247280894e+18,-1.0,-1.0,-2.0,-1.0,-2.0,2.0,0.0,-2.0
1.6951612472818885e+18,1.0,0.0,-1.0,0.0,0.0,1.0,0.0,0.0
1.6951612472818885e+18,-1.0,1.0,-2.0,-2.0,-1.0,-1.0,-1.0,0.0
1.695161247302875e+18,1.0,1.0,-1.0,-4.0,-1.0,-1.0,-1.0,-1.0
1.695161247302875e+18,-1.0,0.0,0.0,1.0,-1.0,-2.0,-1.0,-1.0
1.695161247305874e+18,-2.0,1.0,1.0,0.0,-3.0,-1.0,0.0,0.0
1.6951612473098806e+18,0.0,-1.0,-1.0,1.0,1.0,-1.0,1.0,-1.0
1.695161247317866e+18,-1.0,0.0,-1.0,0.0,0.0,0.0,-2.0,0.0
1.695161247317866e+18,0.0,0.0,-1.0,0.0,-1.0,-2.0,-1.0,-2.0
1.6951612473188687e+18,2.0,0.0,-2.0,-2.0,-1.0,0.0,-2.0,-2.0
1.695161247319869e+18,1.0,-2.0,1.0,-2.0,-2.0,-1.0,0.0,-2.0
1.695161247340854e+18,-1.0,-4.0,0.0,0.0,-1.0,0.0,1.0,1.0
1.6951612473438518e+18,-1.0,-1.0,0.0,2.0,1.0,-2.0,-2.0,0.0
1.6951612473448515e+18,-1.0,0.0,-2.0,0.0,-3.0,-1.0,-2.0,-1.0
1.6951612473448515e+18,0.0,-1.0,0.0,-1.0,-1.0,-2.0,0.0,0.0
1.6951612473538455e+18,0.0,0.0,1.0,-1.0,-2.0,0.0,-1.0,1.0
1.6951612473538455e+18,-1.0,0.0,-1.0,-1.0,-1.0,-1.0,0.0,-1.0
1.6951612473625946e+18,0.0,0.0,0.0,0.0,0.0,-2.0,0.0,-1.0
1.6951612473625946e+18,-2.0,0.0,2.0,-1.0,-2.0,0.0,0.0,1.0
1.6951612473775199e+18,0.0,0.0,-1.0,-2.0,0.0,-3.0,-1.0,-1.0
1.695161247378524e+18,-1.0,-1.0,-3.0,-3.0,-2.0,0.0,0.0,-1.0
1.6951612473795164e+18,-1.0,0.0,-2.0,-2.0,1.0,-2.0,0.0,0.0
1.6951612473795164e+18,0.0,-2.0,0.0,-1.0,-1.0,1.0,-1.0,1.0
1.6951612474005056e+18,-1.0,-2.0,-1.0,1.0,-1.0,-3.0,-1.0,-1.0
1.6951612474005056e+18,0.0,0.0,-1.0,-2.0,0.0,1.0,-1.0,-1.0
1.695161247401504e+18,0.0,-1.0,-1.0,-1.0,0.0,-1.0,-1.0,-2.0
1.6951612474025037e+18,0.0,0.0,-2.0,0.0,0.0,2.0,0.0,0.0
1.6951612474145027e+18,-2.0,-1.0,-2.0,0.0,-1.0,0.0,1.0,-1.0
1.6951612474145027e+18,-1.0,-1.0,0.0,-1.0,-1.0,-1.0,1.0,-2.0
1.6951612474294879e+18,-3.0,-1.0,-1.0,-2.0,0.0,-1.0,-1.0,1.0
1.6951612474294879e+18,0.0,-1.0,-3.0,-1.0,-1.0,-1.0,-1.0,0.0
1.6951612474374876e+18,-1.0,1.0,0.0,-2.0,-1.0,-1.0,-2.0,-3.0
1.6951612474384942e+18,-2.0,-2.0,-1.0,-2.0,0.0,-1.0,0.0,0.0
1.6951612474394844e+18,-2.0,-2.0,1.0,0.0,-4.0,-1.0,-1.0,-1.0
1.6951612474394844e+18,0.0,0.0,1.0,-1.0,0.0,-1.0,0.0,0.0
1.6951612474684652e+18,-1.0,-1.0,-1.0,0.0,-1.0,-1.0,-1.0,-1.0
1.6951612474684652e+18,0.0,0.0,1.0,1.0,0.0,-1.0,0.0,0.0
1.6951612474694671e+18,-1.0,1.0,-1.0,-1.0,0.0,-3.0,-1.0,-1.0
1.6951612474694671e+18,-2.0,-2.0,-1.0,-1.0,-2.0,-2.0,1.0,-3.0
1.6951612474744625e+18,-2.0,0.0,-1.0,1.0,0.0,1.0,0.0,0.0
1.6951612474744625e+18,-2.0,0.0,-1.0,-1.0,0.0,-2.0,-1.0,0.0
1.6951612474894533e+18,0.0,0.0,-2.0,0.0,-2.0,0.0,0.0,-1.0
1.6951612474894533e+18,0.0,-2.0,-1.0,-2.0,-1.0,1.0,-2.0,-1.0
1.6951612475054477e+18,0.0,0.0,0.0,-1.0,-1.0,0.0,-2.0,-1.0
1.6951612475054477e+18,-2.0,-2.0,0.0,-1.0,-2.0,2.0,0.0,-1.0
1.6951612475074478e+18,0.0,-1.0,0.0,-1.0,0.0,1.0,0.0,-2.0
1.6951612475074478e+18,0.0,1.0,0.0,-2.0,0.0,0.0,0.0,1.0
1.6951612475204388e+18,-1.0,-1.0,-1.0,0.0,-2.0,-2.0,1.0,-1.0
1.6951612475204388e+18,1.0,-1.0,-1.0,1.0,-1.0,0.0,-1.0,0.0
1.6951612475264932e+18,-2.0,-1.0,0.0,0.0,1.0,-2.0,0.0,-1.0
1.6951612475264932e+18,0.0,-1.0,0.0,0.0,1.0,-2.0,-1.0,-1.0
1.6951612475434227e+18,-1.0,-2.0,-1.0,-1.0,1.0,-1.0,0.0,-1.0
1.6951612475434227e+18,1.0,0.0,-3.0,0.0,-1.0,1.0,-1.0,0.0
1.6951612475444221e+18,-1.0,-2.0,0.0,0.0,-1.0,1.0,0.0,0.0
1.6951612475444221e+18,-2.0,0.0,-3.0,1.0,1.0,-1.0,0.0,0.0
1.6951612475654126e+18,-1.0,-1.0,0.0,-3.0,-2.0,-2.0,-2.0,-2.0
1.6951612475654126e+18,0.0,-1.0,-2.0,-3.0,-2.0,-4.0,-2.0,0.0
1.6951612475664092e+18,0.0,-1.0,-2.0,-1.0,-1.0,-1.0,-1.0,-1.0
1.695161247567408e+18,-2.0,-1.0,1.0,0.0,0.0,-1.0,-1.0,-2.0
1.695161247580401e+18,0.0,0.0,-1.0,-2.0,0.0,-1.0,-1.0,0.0
1.695161247580401e+18,0.0,-1.0,1.0,0.0,-1.0,0.0,0.0,-2.0
1.6951612475814019e+18,-1.0,-2.0,-1.0,0.0,0.0,-3.0,-1.0,0.0
1.6951612475824003e+18,-1.0,0.0,-1.0,-1.0,-1.0,-1.0,0.0,1.0
1.6951612475944906e+18,1.0,-1.0,-2.0,-1.0,-1.0,-2.0,-1.0,-1.0
1.6951612475944906e+18,-2.0,0.0,-1.0,0.0,-2.0,0.0,-2.0,0.0
1.6951612476025915e+18,-1.0,1.0,-2.0,0.0,-1.0,0.0,-1.0,-1.0
1.6951612476035914e+18,-1.0,-1.0,-1.0,-1.0,0.0,0.0,-2.0,-2.0
1.6951612476178803e+18,0.0,-1.0,-2.0,0.0,0.0,2.0,-2.0,1.0
1.6951612476178803e+18,0.0,0.0,0.0,-2.0,-1.0,-1.0,-1.0,-1.0
1.6951612476188772e+18,0.0,-2.0,1.0,-2.0,-2.0,-1.0,-2.0,0.0
1.6951612476198746e+18,-1.0,-1.0,-1.0,0.0,-3.0,-2.0,1.0,-1.0
1.6951612476408637e+18,-1.0,-1.0,1.0,-2.0,-1.0,-2.0,0.0,-1.0
1.6951612476408637e+18,-1.0,-2.0,-2.0,-1.0,0.0,-1.0,-1.0,-1.0
1.6951612476418778e+18,0.0,-1.0,1.0,-1.0,-1.0,0.0,0.0,1.0
1.6951612476418778e+18,-2.0,-1.0,1.0,0.0,-1.0,-1.0,0.0,0.0
1.6951612476548529e+18,-2.0,0.0,-1.0,1.0,-1.0,0.0,0.0,-1.0
1.6951612476558533e+18,-1.0,1.0,0.0,-1.0,-1.0,-1.0,-1.0,-1.0
1.6951612476688448e+18,-1.0,0.0,-1.0,-1.0,0.0,-1.0,0.0,-2.0
1.6951612476688448e+18,-2.0,-2.0,0.0,-2.0,-1.0,0.0,-2.0,1.0
1.695161247677839e+18,-1.0,-1.0,-1.0,-1.0,0.0,-2.0,-1.0,2.0
1.695161247677839e+18,-2.0,-1.0,0.0,-1.0,0.0,0.0,0.0,-1.0
1.6951612476798397e+18,1.0,-1.0,-1.0,0.0,-2.0,1.0,-2.0,-2.0
1.6951612476798397e+18,1.0,0.0,-1.0,-1.0,-1.0,1.0,-3.0,-1.0
1.695161247700579e+18,0.0,0.0,-2.0,-2.0,-2.0,-1.0,0.0,-1.0
1.695161247700579e+18,-1.0,0.0,-1.0,0.0,-1.0,-1.0,0.0,-1.0
1.6951612477015788e+18,-1.0,0.0,0.0,0.0,-1.0,-2.0,-1.0,-1.0
1.695161247702578e+18,-2.0,-2.0,1.0,0.0,0.0,-1.0,-1.0,-2.0
1.695161247715187e+18,-2.0,0.0,-1.0,0.0,-2.0,-1.0,-3.0,-1.0
1.6951612477161874e+18,0.0,-1.0,0.0,-2.0,1.0,-2.0,0.0,1.0
1.6951612477305382e+18,1.0,0.0,1.0,-1.0,1.0,-1.0,-2.0,-2.0
1.6951612477305382e+18,0.0,-2.0,-1.0,-1.0,-2.0,-2.0,0.0,0.0
1.6951612477525883e+18,0.0,-2.0,-1.0,1.0,2.0,1.0,0.0,-1.0
1.69516124775353e+18,-1.0,-1.0,-2.0,-1.0,-1.0,0.0,-1.0,1.0
1.695161247754533e+18,-3.0,-2.0,-1.0,-1.0,-1.0,0.0,-1.0,-1.0
1.695161247754533e+18,0.0,1.0,-1.0,0.0,-1.0,-1.0,-2.0,0.0
1.6951612477605348e+18,-1.0,-2.0,0.0,-1.0,1.0,-2.0,-2.0,-1.0
1.6951612477605348e+18,-1.0,-2.0,-1.0,0.0,-1.0,0.0,0.0,0.0
1.6951612477625413e+18,-2.0,0.0,0.0,-2.0,-1.0,-1.0,-2.0,0.0
1.6951612477625413e+18,-1.0,-1.0,-1.0,0.0,-2.0,1.0,-1.0,-1.0
1.6951612477741394e+18,-1.0,2.0,0.0,-1.0,0.0,0.0,-3.0,-2.0
1.6951612477741394e+18,2.0,1.0,0.0,1.0,1.0,-2.0,-2.0,-2.0
1.695161247782593e+18,1.0,-2.0,0.0,-2.0,-1.0,-1.0,2.0,-1.0
1.6951612477835896e+18,0.0,-1.0,-1.0,2.0,0.0,-1.0,1.0,-2.0
1.695161247805577e+18,-1.0,-2.0,-1.0,-3.0,-3.0,-1.0,-1.0,0.0
1.695161247805577e+18,-1.0,-1.0,-2.0,-1.0,-1.0,0.0,0.0,0.0
1.6951612478065766e+18,-1.0,0.0,-2.0,1.0,-1.0,-1.0,0.0,0.0
1.695161247807575e+18,1.0,-1.0,-3.0,-1.0,-2.0,-3.0,0.0,-1.0
1.695161247823588e+18,0.0,-2.0,-1.0,1.0,-1.0,-1.0,-1.0,-2.0
1.6951612478245658e+18,-2.0,-1.0,1.0,0.0,1.0,0.0,-1.0,0.0
1.6951612478245658e+18,-1.0,0.0,-1.0,1.0,-2.0,-1.0,-1.0,1.0
1.6951612478245658e+18,0.0,-1.0,0.0,0.0,-1.0,-1.0,-1.0,-1.0
1.695161247834538e+18,0.0,0.0,-1.0,-1.0,-1.0,-1.0,-1.0,0.0
1.695161247834538e+18,0.0,0.0,-1.0,-2.0,-2.0,0.0,-1.0,-1.0
1.695161247842581e+18,-2.0,-1.0,0.0,-1.0,0.0,0.0,0.0,-2.0
1.6951612478435863e+18,-1.0,1.0,0.0,-1.0,-1.0,1.0,1.0,-1.0
1.6951612478665684e+18,1.0,-1.0,0.0,0.0,1.0,0.0,0.0,0.0
1.6951612478675679e+18,0.0,-2.0,0.0,0.0,-3.0,-2.0,-1.0,-1.0
1.6951612478675679e+18,1.0,0.0,-2.0,-2.0,-1.0,0.0,-1.0,0.0
1.6951612478685683e+18,-1.0,-1.0,-1.0,0.0,-1.0,-1.0,-1.0,-1.0
1.69516124788056e+18,0.0,0.0,-2.0,-2.0,0.0,0.0,0.0,0.0
1.6951612478815603e+18,-2.0,-2.0,-1.0,-2.0,-1.0,-1.0,-2.0,-1.0
1.6951612478825592e+18,-1.0,-1.0,-2.0,-1.0,-1.0,-2.0,-2.0,-1.0
1.6951612478825592e+18,-1.0,0.0,-2.0,-3.0,0.0,0.0,1.0,-2.0
1.695161247894553e+18,-2.0,0.0,-1.0,-3.0,-1.0,0.0,1.0,-2.0
1.695161247894553e+18,0.0,-3.0,-1.0,-1.0,1.0,-1.0,1.0,-3.0
1.6951612479055526e+18,-1.0,-1.0,-1.0,0.0,-1.0,0.0,-1.0,1.0
1.6951612479105505e+18,1.0,-2.0,-1.0,1.0,1.0,-1.0,-2.0,-1.0
1.6951612479185388e+18,0.0,0.0,0.0,-2.0,0.0,-2.0,1.0,0.0
1.6951612479185388e+18,-2.0,0.0,-3.0,-2.0,-2.0,0.0,-1.0,0.0
1.695161247919538e+18,1.0,-1.0,-2.0,-2.0,0.0,0.0,-1.0,-2.0
1.6951612479205448e+18,-1.0,-2.0,0.0,0.0,0.0,0.0,-1.0,0.0
1.6951612479395325e+18,-1.0,-1.0,0.0,0.0,1.0,0.0,-1.0,-2.0
1.695161247940537e+18,-2.0,-1.0,0.0,-2.0,0.0,-1.0,-2.0,0.0
1.6951612479485228e+18,-2.0,-1.0,0.0,0.0,-1.0,-2.0,-1.0,-2.0
1.6951612479485228e+18,0.0,-1.0,-1.0,-1.0,-1.0,0.0,-1.0,-2.0
1.695161247954518e+18,1.0,0.0,-1.0,-1.0,-1.0,-1.0,0.0,-1.0
1.695161247954518e+18,-1.0,1.0,-2.0,0.0,-1.0,0.0,-1.0,0.0
1.6951612479705096e+18,-1.0,-1.0,-1.0,0.0,-3.0,0.0,0.0,-1.0
1.6951612479715105e+18,-1.0,-1.0,-1.0,-3.0,1.0,-2.0,0.0,0.0
1.6951612479915041e+18,0.0,0.0,-2.0,1.0,-3.0,-3.0,-1.0,-2.0
1.6951612479915041e+18,1.0,0.0,-1.0,1.0,-3.0,-2.0,0.0,-1.0
1.6951612479925038e+18,-1.0,0.0,-1.0,1.0,0.0,1.0,0.0,-1.0
1.6951612479925038e+18,-1.0,-3.0,-1.0,1.0,-2.0,0.0,0.0,0.0
1.6951612479995927e+18,-3.0,-1.0,-1.0,-1.0,-1.0,-4.0,-1.0,0.0
1.6951612480005978e+18,1.0,-1.0,0.0,-2.0,-4.0,1.0,0.0,-1.0
1.6951612480083558e+18,0.0,1.0,0.0,0.0,-6.0,-4.0,-2.0,1.0
1.6951612480083558e+18,-1.0,2.0,1.0,1.0,6.0,2.0,0.0,0.0
1.6951612480143567e+18,0.0,-1.0,0.0,1.0,4.0,2.0,1.0,0.0
1.6951612480143567e+18,-2.0,0.0,-1.0,0.0,-1.0,-1.0,0.0,-1.0
1.6951612480235658e+18,-2.0,-2.0,-1.0,-1.0,2.0,2.0,0.0,1.0
1.6951612480235658e+18,1.0,0.0,-2.0,-1.0,-5.0,-4.0,-3.0,-1.0
1.6951612480465546e+18,1.0,-1.0,-1.0,-4.0,-5.0,-1.0,-3.0,-1.0
1.6951612480475533e+18,1.0,0.0,0.0,-1.0,-1.0,-2.0,0.0,0.0
1.6951612480495552e+18,1.0,0.0,0.0,-1.0,-3.0,-1.0,0.0,-2.0
1.6951612480505582e+18,-2.0,0.0,-2.0,-2.0,-2.0,-1.0,-1.0,0.0
1.695161248063546e+18,-1.0,0.0,-1.0,0.0,0.0,1.0,-1.0,0.0
1.695161248064543e+18,-1.0,-1.0,-1.0,-1.0,-2.0,-1.0,-2.0,-1.0
1.695161248064543e+18,-1.0,-1.0,-1.0,-2.0,0.0,-2.0,-2.0,0.0
1.695161248064543e+18,0.0,-1.0,-1.0,-1.0,0.0,-2.0,0.0,-2.0
1.6951612480835323e+18,-1.0,1.0,1.0,0.0,-2.0,-2.0,0.0,-2.0
1.695161248084541e+18,-1.0,0.0,-2.0,-2.0,0.0,0.0,0.0,-1.0
1.695161248086531e+18,-2.0,0.0,-2.0,0.0,0.0,0.0,1.0,-1.0
1.695161248086531e+18,-1.0,-2.0,1.0,-1.0,-1.0,0.0,0.0,0.0
1.6951612480985234e+18,0.0,-2.0,-2.0,0.0,-3.0,-1.0,-2.0,1.0
1.695161248099523e+18,0.0,-1.0,-1.0,2.0,0.0,-2.0,-1.0,-1.0
1.6951612481005302e+18,1.0,-1.0,1.0,-1.0,-1.0,-1.0,-2.0,1.0
1.6951612481005302e+18,0.0,1.0,-2.0,0.0,-1.0,0.0,-1.0,0.0
1.6951612481285358e+18,-2.0,-1.0,-1.0,0.0,-2.0,0.0,1.0,-1.0
1.6951612481365146e+18,-1.0,-2.0,0.0,-1.0,0.0,-1.0,0.0,0.0
1.6951612481375066e+18,0.0,0.0,-1.0,-2.0,-1.0,0.0,0.0,-1.0
1.6951612481385016e+18,-1.0,0.0,0.0,0.0,1.0,-2.0,0.0,-1.0
1.6951612481385016e+18,-1.0,-1.0,0.0,0.0,1.0,0.0,0.0,0.0
1.695161248139504e+18,-3.0,0.0,-1.0,-1.0,0.0,-1.0,0.0,-2.0
1.6951612481594898e+18,0.0,-2.0,-1.0,-2.0,1.0,1.0,-1.0,0.0
1.6951612481604887e+18,-2.0,-2.0,-1.0,-3.0,-3.0,-2.0,-2.0,0.0
1.6951612481604887e+18,-1.0,0.0,-1.0,-1.0,0.0,1.0,-1.0,-2.0
1.6951612481614884e+18,-1.0,0.0,1.0,1.0,1.0,-1.0,0.0,0.0
1.6951612481614884e+18,-1.0,1.0,1.0,0.0,0.0,0.0,-1.0,-1.0
1.6951612481624878e+18,-1.0,0.0,0.0,-2.0,-2.0,-1.0,0.0,-2.0
1.69516124818148e+18,0.0,-2.0,-1.0,-1.0,-3.0,-1.0,0.0,-1.0
1.69516124818148e+18,-1.0,-1.0,-1.0,-1.0,-3.0,1.0,-2.0,-2.0
1.6951612481824773e+18,0.0,0.0,-1.0,0.0,1.0,0.0,-2.0,-2.0
1.6951612481834808e+18,0.0,-2.0,-1.0,2.0,-1.0,-2.0,-1.0,-2.0
1.6951612482104668e+18,0.0,-3.0,0.0,-1.0,-1.0,-4.0,-2.0,-2.0
1.6951612482114593e+18,-1.0,-1.0,-2.0,0.0,-1.0,-3.0,0.0,1.0
1.6951612482124618e+18,-1.0,-2.0,-1.0,-3.0,0.0,-2.0,0.0,-1.0
1.6951612482124618e+18,-1.0,0.0,0.0,0.0,-2.0,-1.0,-1.0,0.0
1.6951612482184545e+18,-1.0,0.0,-1.0,-2.0,0.0,1.0,-2.0,0.0
1.6951612482194552e+18,-1.0,-1.0,0.0,-1.0,0.0,-1.0,-1.0,-2.0
1.6951612482244513e+18,0.0,-1.0,0.0,-1.0,-2.0,0.0,1.0,-1.0
1.6951612482254564e+18,-1.0,-1.0,0.0,0.0,-2.0,-3.0,-1.0,-2.0
1.6951612482534408e+18,1.0,0.0,0.0,-3.0,0.0,0.0,-1.0,0.0
1.6951612482604398e+18,1.0,-1.0,-2.0,0.0,1.0,-3.0,-1.0,-2.0
1.6951612482614395e+18,-1.0,-1.0,1.0,1.0,0.0,-2.0,0.0,-1.0
1.6951612482624366e+18,-1.0,-2.0,-2.0,-1.0,-2.0,0.0,1.0,-1.0
1.6951612482664374e+18,-1.0,0.0,0.0,-2.0,-1.0,-1.0,-2.0,-1.0
1.6951612482664374e+18,0.0,-2.0,-1.0,-2.0,-2.0,1.0,-2.0,1.0
1.6951612482664374e+18,1.0,-3.0,0.0,-1.0,-2.0,1.0,-2.0,-2.0
1.6951612482674276e+18,1.0,-1.0,0.0,-1.0,-1.0,1.0,-1.0,-1.0
1.6951612482864164e+18,-1.0,-1.0,-1.0,-1.0,-1.0,-2.0,0.0,1.0
1.6951612482864164e+18,-1.0,0.0,-1.0,-2.0,0.0,0.0,0.0,0.0
1.6951612482884145e+18,-2.0,-1.0,-1.0,-1.0,-1.0,-1.0,0.0,0.0
1.6951612482884145e+18,-2.0,-1.0,-2.0,0.0,1.0,0.0,0.0,1.0
1.6951612483094093e+18,1.0,-1.0,-1.0,-1.0,0.0,-2.0,-1.0,-1.0
1.695161248310403e+18,-1.0,-1.0,1.0,-1.0,0.0,-2.0,-1.0,-2.0
1.6951612483253942e+18,0.0,-1.0,0.0,1.0,-2.0,-3.0,-1.0,-1.0
1.695161248326394e+18,-1.0,0.0,-1.0,0.0,-1.0,-2.0,-1.0,-2.0
1.695161248327394e+18,0.0,-1.0,-1.0,-2.0,1.0,-3.0,1.0,-1.0
1.695161248327394e+18,0.0,0.0,1.0,1.0,-1.0,-1.0,-2.0,0.0
1.6951612483293914e+18,0.0,-2.0,-1.0,-4.0,-2.0,-1.0,-1.0,-2.0
1.6951612483303977e+18,0.0,-1.0,-1.0,-4.0,-2.0,-1.0,-1.0,-1.0
1.695161248337388e+18,0.0,-2.0,0.0,0.0,-2.0,0.0,0.0,-2.0
1.695161248337388e+18,-2.0,-2.0,0.0,-1.0,-2.0,1.0,1.0,-2.0
1.6951612483443812e+18,-1.0,0.0,-2.0,-1.0,-1.0,-2.0,-1.0,0.0
1.6951612483443812e+18,1.0,1.0,-1.0,0.0,-1.0,-2.0,-2.0,0.0
1.6951612483613742e+18,-1.0,0.0,0.0,0.0,-2.0,-2.0,-3.0,-2.0
1.6951612483663716e+18,0.0,0.0,-2.0,-2.0,-2.0,-3.0,-2.0,-2.0
1.6951612483673938e+18,-2.0,-4.0,-4.0,-1.0,-3.0,-2.0,-2.0,-2.0
1.6951612483673938e+18,-2.0,-2.0,-2.0,-1.0,-1.0,0.0,0.0,-3.0
1.6951612483823603e+18,-2.0,-3.0,-2.0,0.0,-2.0,0.0,-3.0,-1.0
1.6951612483823603e+18,-2.0,-2.0,-2.0,-1.0,0.0,-1.0,0.0,0.0
1.6951612483993551e+18,-2.0,0.0,-1.0,0.0,-2.0,1.0,0.0,-2.0
1.6951612483993551e+18,-1.0,-2.0,-1.0,-2.0,0.0,-1.0,0.0,-1.0
1.6951612484003525e+18,-1.0,-2.0,-1.0,-1.0,-2.0,0.0,-1.0,-2.0
1.6951612484003525e+18,-1.0,-1.0,-2.0,0.0,-2.0,-1.0,-1.0,-3.0
1.695161248421337e+18,-1.0,0.0,-3.0,0.0,0.0,2.0,-3.0,0.0
1.695161248421337e+18,-2.0,-2.0,-1.0,1.0,-2.0,-1.0,-1.0,0.0
1.6951612484223373e+18,-2.0,-1.0,-1.0,-2.0,-1.0,0.0,-1.0,-1.0
1.6951612484223373e+18,-1.0,-1.0,-1.0,-1.0,0.0,0.0,-1.0,-3.0
1.6951612484233418e+18,0.0,0.0,0.0,-1.0,-1.0,-3.0,0.0,0.0
1.6951612484243397e+18,-2.0,-1.0,-1.0,-1.0,0.0,-2.0,-1.0,-2.0
1.695161248443325e+18,-1.0,-1.0,-2.0,1.0,2.0,-1.0,0.0,0.0
1.695161248443325e+18,-2.0,-2.0,-1.0,-1.0,-2.0,0.0,-1.0,-2.0
1.695161248444328e+18,-1.0,-1.0,-3.0,-2.0,1.0,-1.0,-1.0,-2.0
1.6951612484453266e+18,1.0,-1.0,-2.0,-2.0,0.0,0.0,-2.0,0.0
1.6951612484733082e+18,-1.0,1.0,-1.0,0.0,-1.0,-3.0,0.0,0.0
1.6951612484733082e+18,0.0,0.0,-1.0,1.0,0.0,0.0,0.0,-1.0
1.695161248474312e+18,-2.0,-2.0,-2.0,-2.0,-1.0,-1.0,-1.0,-2.0
1.6951612484753124e+18,-1.0,-3.0,0.0,-1.0,-1.0,-1.0,-1.0,-2.0
1.6951612484803026e+18,-2.0,0.0,-2.0,0.0,0.0,-2.0,-2.0,-2.0
1.695161248481303e+18,-2.0,-1.0,-1.0,-1.0,-1.0,-2.0,0.0,-1.0
1.6951612484823058e+18,0.0,0.0,0.0,-1.0,1.0,-2.0,0.0,-1.0
1.6951612484823058e+18,0.0,1.0,-2.0,0.0,-1.0,1.0,-1.0,0.0
1.6951612485042913e+18,0.0,-1.0,-1.0,-1.0,-1.0,0.0,-2.0,-1.0
1.6951612485042913e+18,0.0,-1.0,0.0,-2.0,-3.0,2.0,1.0,1.0
1.6951612485072947e+18,0.0,-1.0,0.0,1.0,3.0,2.0,1.0,1.0
1.6951612485082944e+18,-2.0,0.0,4.0,-1.0,2.0,1.0,2.0,0.0
1.6951612485252813e+18,0.0,1.0,1.0,0.0,3.0,1.0,0.0,0.0
1.695161248526277e+18,0.0,1.0,1.0,2.0,0.0,-3.0,-2.0,1.0
1.6951612485272768e+18,1.0,2.0,3.0,-1.0,-2.0,-2.0,0.0,-1.0
1.6951612485272768e+18,0.0,-2.0,-2.0,-2.0,-1.0,-2.0,-1.0,-2.0
1.695161248550265e+18,-1.0,0.0,-1.0,0.0,-3.0,-3.0,0.0,0.0
1.695161248550265e+18,-1.0,-1.0,-5.0,-2.0,1.0,3.0,-2.0,-1.0
1.695161248555282e+18,-1.0,1.0,11.0,-4.0,-12.0,-2.0,0.0,-1.0
1.695161248555282e+18,-1.0,0.0,-7.0,-6.0,-5.0,-2.0,-1.0,-1.0
1.6951612485632556e+18,-1.0,-1.0,4.0,22.0,25.0,9.0,1.0,1.0
1.6951612485632556e+18,0.0,0.0,-2.0,-2.0,6.0,-1.0,1.0,0.0
1.6951612485642772e+18,-1.0,-2.0,-8.0,-11.0,-10.0,-6.0,-4.0,-3.0
1.6951612485642772e+18,0.0,5.0,9.0,-4.0,-11.0,-3.0,0.0,-3.0
1.6951612485872435e+18,-2.0,-5.0,-5.0,0.0,1.0,5.0,3.0,2.0
1.6951612485882412e+18,-1.0,-2.0,-3.0,-2.0,-2.0,-2.0,-1.0,-2.0
1.6951612485882412e+18,-2.0,6.0,1.0,11.0,9.0,4.0,4.0,4.0
1.6951612485882412e+18,2.0,-1.0,-1.0,-6.0,-15.0,-13.0,-6.0,6.0
1.695161248600234e+18,-2.0,-2.0,-4.0,-5.0,-1.0,-5.0,-13.0,-21.0
1.695161248600234e+18,-2.0,-3.0,2.0,13.0,20.0,8.0,3.0,9.0
1.6951612486022328e+18,-1.0,-2.0,-2.0,-3.0,-4.0,-3.0,0.0,1.0
1.6951612486022328e+18,1.0,2.0,0.0,3.0,7.0,7.0,3.0,0.0
1.6951612486252204e+18,1.0,3.0,-1.0,-6.0,-7.0,-5.0,1.0,1.0
1.6951612486262193e+18,-1.0,3.0,2.0,0.0,-8.0,-3.0,-3.0,-4.0
1.6951612486262193e+18,-2.0,-1.0,-3.0,2.0,0.0,-2.0,-5.0,-6.0
1.6951612486262193e+18,-1.0,-2.0,-1.0,7.0,6.0,3.0,3.0,1.0
1.695161248636213e+18,0.0,0.0,0.0,-17.0,-11.0,-2.0,0.0,5.0
1.695161248637216e+18,0.0,-1.0,1.0,3.0,0.0,-3.0,-1.0,-4.0
1.69516124864523e+18,-1.0,-4.0,-2.0,5.0,4.0,1.0,0.0,1.0
1.695161248646208e+18,-1.0,-4.0,-2.0,-1.0,0.0,2.0,-3.0,-3.0
1.6951612486682092e+18,-1.0,-3.0,-2.0,-1.0,-7.0,-4.0,-2.0,3.0
1.6951612486682092e+18,0.0,2.0,10.0,-8.0,-9.0,-3.0,0.0,-2.0
1.6951612486696448e+18,-1.0,1.0,-5.0,-1.0,3.0,2.0,2.0,-1.0
1.6951612486696448e+18,-2.0,-4.0,-12.0,-4.0,8.0,0.0,-3.0,0.0
1.6951612486832916e+18,-2.0,-3.0,-3.0,-11.0,-9.0,-4.0,0.0,-2.0
1.6951612486832916e+18,0.0,-1.0,-2.0,-1.0,-1.0,0.0,0.0,0.0
1.6951612486842934e+18,0.0,2.0,3.0,-6.0,-4.0,-5.0,-2.0,-1.0
1.6951612486842934e+18,-2.0,-1.0,0.0,10.0,0.0,-1.0,-1.0,-2.0
1.6951612487072786e+18,-1.0,-1.0,-1.0,-2.0,3.0,-3.0,0.0,1.0
1.6951612487082793e+18,-1.0,0.0,-1.0,-5.0,-6.0,0.0,0.0,-1.0
1.6951612487082793e+18,-3.0,-9.0,-1.0,10.0,23.0,20.0,8.0,0.0
1.6951612487082793e+18,3.0,15.0,0.0,-2.0,-6.0,-3.0,-1.0,4.0
1.6951612487202924e+18,1.0,4.0,5.0,-14.0,-22.0,-12.0,-4.0,-17.0
1.6951612487202924e+18,-1.0,-19.0,-6.0,8.0,-7.0,-7.0,-4.0,16.0
1.6951612487222697e+18,2.0,-6.0,0.0,0.0,8.0,7.0,2.0,-27.0
1.6951612487222697e+18,-4.0,4.0,1.0,4.0,4.0,-4.0,5.0,12.0
1.6951612487432586e+18,3.0,-13.0,1.0,2.0,0.0,5.0,-6.0,5.0
1.6951612487432586e+18,4.0,25.0,-1.0,-14.0,-13.0,-6.0,5.0,-6.0
1.6951612487442575e+18,-5.0,0.0,-5.0,-4.0,-11.0,-14.0,-31.0,-3.0
1.6951612487442575e+18,-1.0,-3.0,6.0,13.0,11.0,11.0,5.0,0.0
1.6951612487562514e+18,3.0,7.0,3.0,2.0,0.0,-4.0,7.0,1.0
1.6951612487562514e+18,-4.0,-5.0,-2.0,-1.0,2.0,4.0,0.0,-15.0
1.6951612487652475e+18,1.0,3.0,2.0,-2.0,12.0,7.0,14.0,-12.0
1.6951612487652475e+18,2.0,-10.0,-9.0,-12.0,-22.0,-13.0,-1.0,25.0
1.6951612487805468e+18,2.0,3.0,4.0,-2.0,1.0,0.0,-12.0,6.0
1.6951612487805468e+18,-2.0,-3.0,1.0,10.0,8.0,4.0,-9.0,-7.0
1.6951612487825518e+18,1.0,13.0,1.0,15.0,0.0,-7.0,3.0,9.0
1.6951612487825518e+18,-6.0,-12.0,-3.0,-13.0,7.0,1.0,-24.0,-25.0
1.6951612488026122e+18,-5.0,-25.0,-9.0,3.0,-2.0,3.0,8.0,22.0
1.6951612488035894e+18,2.0,9.0,2.0,-13.0,-10.0,0.0,13.0,-9.0
1.695161248804588e+18,-6.0,9.0,0.0,6.0,5.0,3.0,-3.0,-13.0
1.695161248804588e+18,1.0,-15.0,-3.0,-7.0,-4.0,-4.0,8.0,22.0
1.6951612488253942e+18,-5.0,6.0,-5.0,7.0,8.0,-10.0,-21.0,-34.0
1.6951612488253942e+18,5.0,5.0,3.0,-1.0,1.0,17.0,19.0,28.0
1.695161248827398e+18,1.0,-18.0,-5.0,-9.0,-13.0,-16.0,-15.0,6.0
1.695161248827398e+18,4.0,10.0,2.0,5.0,4.0,6.0,6.0,3.0
1.6951612488413926e+18,-2.0,-3.0,-2.0,-4.0,0.0,0.0,1.0,-7.0
1.6951612488423908e+18,-3.0,-1.0,0.0,-1.0,-8.0,-9.0,-13.0,-12.0
1.6951612488433923e+18,2.0,2.0,1.0,-3.0,-4.0,4.0,12.0,2.0
1.6951612488444014e+18,-5.0,5.0,4.0,-4.0,-7.0,-3.0,-4.0,-1.0
1.6951612488643794e+18,-1.0,-2.0,-15.0,2.0,4.0,2.0,5.0,8.0
1.6951612488643794e+18,-1.0,-3.0,-4.0,3.0,10.0,2.0,2.0,-2.0
1.6951612488653788e+18,2.0,-8.0,0.0,-25.0,-17.0,-1.0,1.0,13.0
1.6951612488663872e+18,-1.0,5.0,4.0,1.0,-7.0,-11.0,-11.0,-23.0
1.6951612488763948e+18,-1.0,5.0,7.0,13.0,12.0,13.0,13.0,4.0
1.6951612488773804e+18,-4.0,-4.0,-4.0,4.0,12.0,4.0,-7.0,-1.0
1.6951612488963587e+18,-8.0,-10.0,-3.0,2.0,0.0,0.0,0.0,-7.0
1.6951612488963587e+18,8.0,2.0,0.0,4.0,0.0,-1.0,-4.0,8.0
1.6951612489093517e+18,1.0,1.0,1.0,-9.0,-11.0,0.0,8.0,9.0
1.6951612489093517e+18,-5.0,-5.0,-7.0,-4.0,-6.0,-10.0,-13.0,3.0
1.6951612489103516e+18,4.0,3.0,4.0,0.0,-3.0,-4.0,-4.0,-11.0
1.6951612489103516e+18,13.0,3.0,-3.0,5.0,0.0,3.0,1.0,-7.0
1.6951612489303404e+18,-12.0,-6.0,3.0,5.0,7.0,4.0,16.0,-5.0
1.6951612489303404e+18,2.0,-8.0,5.0,2.0,1.0,0.0,-16.0,-17.0
1.6951612489323372e+18,2.0,7.0,-14.0,-7.0,3.0,-4.0,1.0,40.0
1.6951612489323372e+18,3.0,-7.0,-1.0,3.0,3.0,3.0,7.0,-9.0
1.695161248953327e+18,10.0,11.0,-6.0,-5.0,-10.0,0.0,0.0,7.0
1.695161248953327e+18,-2.0,0.0,-2.0,2.0,2.0,-2.0,0.0,-12.0
1.6951612489553244e+18,-1.0,1.0,6.0,10.0,-2.0,-1.0,-2.0,-9.0
1.6951612489553244e+18,-3.0,-15.0,-19.0,-3.0,6.0,1.0,-2.0,-6.0
1.6951612489593208e+18,-6.0,-16.0,10.0,-1.0,1.0,2.0,3.0,-7.0
1.6951612489593208e+18,-16.0,10.0,-7.0,-9.0,-7.0,0.0,7.0,-13.0
1.69516124898433e+18,6.0,-2.0,13.0,1.0,-1.0,-1.0,-8.0,21.0
1.6951612489883077e+18,18.0,15.0,0.0,0.0,2.0,2.0,3.0,-24.0
1.6951612489883077e+18,10.0,4.0,-4.0,-1.0,2.0,6.0,-11.0,3.0
1.6951612489883077e+18,-24.0,-27.0,9.0,0.0,-1.0,-13.0,4.0,-24.0
1.6951612489883077e+18,14.0,-4.0,-24.0,9.0,-7.0,-9.0,-20.0,41.0
1.6951612489883077e+18,-2.0,8.0,22.0,-5.0,4.0,16.0,32.0,-15.0
1.69516124900542e+18,-25.0,9.0,-20.0,1.0,-3.0,-14.0,-31.0,-20.0
1.69516124900542e+18,15.0,6.0,14.0,-2.0,-4.0,2.0,5.0,32.0
1.6951612490074286e+18,6.0,8.0,11.0,-7.0,-8.0,-9.0,4.0,-15.0
1.6951612490074286e+18,-26.0,-7.0,-30.0,5.0,17.0,4.0,-5.0,-4.0
1.6951612490204178e+18,-3.0,-15.0,-4.0,6.0,7.0,8.0,8.0,-10.0
1.6951612490204178e+18,4.0,52.0,8.0,-8.0,-22.0,-11.0,-12.0,10.0
1.695161249022416e+18,-6.0,1.0,-19.0,0.0,15.0,9.0,17.0,7.0
1.695161249022416e+18,4.0,9.0,24.0,-9.0,-8.0,-6.0,-14.0,19.0
1.695161249043405e+18,4.0,-18.0,13.0,-14.0,-19.0,-11.0,-8.0,-5.0
1.695161249043405e+18,-13.0,-16.0,-48.0,8.0,13.0,10.0,4.0,-13.0
1.695161249045402e+18,15.0,-26.0,23.0,-10.0,-13.0,-1.0,-1.0,22.0
1.695161249045402e+18,-3.0,25.0,0.0,21.0,22.0,5.0,-11.0,-11.0
1.6951612490654203e+18,21.0,4.0,-10.0,-3.0,-4.0,-11.0,-19.0,17.0
1.6951612490654203e+18,-12.0,-10.0,18.0,0.0,-12.0,5.0,-6.0,-19.0
1.6951612490674286e+18,-11.0,2.0,-10.0,-20.0,-17.0,-6.0,6.0,-9.0
1.6951612490674286e+18,-5.0,-8.0,-1.0,8.0,1.0,-3.0,7.0,10.0
1.6951612490805484e+18,4.0,-10.0,18.0,16.0,32.0,13.0,4.0,12.0
1.6951612490815485e+18,23.0,-6.0,-6.0,4.0,11.0,2.0,2.0,4.0
1.6951612490945405e+18,-10.0,8.0,-19.0,-6.0,-7.0,-1.0,-2.0,-18.0
1.6951612490955448e+18,-22.0,0.0,17.0,-22.0,-32.0,-18.0,-5.0,-16.0
1.6951612491035356e+18,5.0,-7.0,-5.0,4.0,-1.0,-9.0,-2.0,12.0
1.695161249104536e+18,-3.0,4.0,8.0,-3.0,4.0,6.0,15.0,0.0
1.695161249106542e+18,5.0,10.0,18.0,11.0,12.0,3.0,-5.0,16.0
1.6951612491075423e+18,6.0,-18.0,-23.0,-18.0,-18.0,0.0,10.0,-17.0
1.6951612491515072e+18,1.0,24.0,-13.0,-6.0,0.0,-8.0,-18.0,0.0
1.6951612491515072e+18,1.0,-3.0,14.0,27.0,21.0,8.0,-2.0,10.0
1.6951612491625004e+18,-4.0,3.0,5.0,7.0,1.0,1.0,4.0,-22.0
1.695161249163501e+18,21.0,0.0,-7.0,1.0,-1.0,3.0,11.0,7.0
1.6951612491645043e+18,-20.0,-1.0,6.0,-9.0,-11.0,-5.0,5.0,-35.0
1.6951612491645043e+18,-2.0,-5.0,-30.0,-11.0,-3.0,-5.0,-11.0,6.0
1.6951612491645043e+18,15.0,5.0,23.0,2.0,4.0,6.0,15.0,-5.0
1.6951612491664986e+18,18.0,3.0,0.0,0.0,-1.0,1.0,-2.0,12.0
1.6951612491664986e+18,-15.0,28.0,-2.0,-5.0,-17.0,-3.0,-2.0,15.0
1.6951612491674977e+18,5.0,-12.0,-3.0,-5.0,5.0,-4.0,-5.0,3.0
1.695161249170495e+18,-23.0,13.0,0.0,9.0,14.0,3.0,-5.0,-13.0
1.695161249170495e+18,-8.0,-36.0,2.0,1.0,1.0,5.0,5.0,8.0
1.6951612491924818e+18,20.0,17.0,-24.0,8.0,0.0,6.0,0.0,-7.0
1.6951612491924818e+18,3.0,-14.0,0.0,-10.0,-7.0,-3.0,-3.0,32.0
1.6951612492004772e+18,-18.0,4.0,-24.0,-15.0,-6.0,5.0,10.0,-27.0
1.6951612492004772e+18,-3.0,1.0,36.0,8.0,-10.0,-15.0,-20.0,14.0
1.6951612492014776e+18,7.0,-3.0,-26.0,7.0,13.0,2.0,-11.0,-10.0
1.6951612492014776e+18,-4.0,-7.0,8.0,-1.0,5.0,8.0,17.0,15.0
1.695161249206475e+18,17.0,-2.0,10.0,1.0,-1.0,1.0,-7.0,-6.0
1.695161249206475e+18,-20.0,26.0,-30.0,-5.0,-6.0,-4.0,-3.0,4.0
1.6951612492294618e+18,-5.0,-13.0,28.0,-1.0,0.0,4.0,4.0,-14.0
1.6951612492304625e+18,16.0,17.0,1.0,-8.0,-22.0,-15.0,-16.0,8.0
1.6951612492304625e+18,2.0,-10.0,0.0,14.0,30.0,13.0,7.0,4.0
1.6951612492304625e+18,-1.0,0.0,-6.0,-7.0,0.0,-2.0,-6.0,-11.0
1.6951612492524475e+18,-2.0,-8.0,30.0,4.0,2.0,8.0,18.0,18.0
1.6951612492534472e+18,-27.0,-4.0,-11.0,-3.0,-2.0,0.0,-6.0,-78.0
1.6951612492544494e+18,-3.0,-11.0,-2.0,-12.0,-14.0,-12.0,-3.0,13.0
1.6951612492544494e+18,12.0,7.0,24.0,3.0,-2.0,0.0,1.0,16.0
1.695161249258466e+18,8.0,-16.0,-39.0,5.0,6.0,0.0,10.0,-3.0
1.6951612492594437e+18,16.0,43.0,-14.0,-22.0,-12.0,-5.0,2.0,-1.0
1.6951612492854292e+18,-27.0,-30.0,16.0,13.0,-5.0,-6.0,-10.0,-12.0
1.6951612492854292e+18,6.0,-5.0,-30.0,-18.0,-12.0,-3.0,-6.0,-8.0
1.6951612492854292e+18,-11.0,4.0,14.0,1.0,9.0,-2.0,-9.0,8.0
1.6951612492854292e+18,13.0,11.0,2.0,9.0,6.0,2.0,-2.0,12.0
1.6951612492884495e+18,-25.0,-3.0,-29.0,-4.0,-6.0,-5.0,-5.0,-9.0
1.6951612492894264e+18,0.0,-5.0,10.0,2.0,3.0,1.0,-2.0,16.0
1.6951612493144138e+18,-18.0,-16.0,9.0,-8.0,-15.0,-1.0,-1.0,-14.0
1.695161249318411e+18,-5.0,-18.0,-6.0,4.0,1.0,-3.0,-8.0,11.0
1.6951612493194107e+18,27.0,7.0,-5.0,-1.0,-4.0,-1.0,-3.0,16.0
1.6951612493194107e+18,-4.0,-4.0,5.0,6.0,14.0,2.0,6.0,-3.0
1.6951612493204096e+18,4.0,11.0,3.0,-3.0,-2.0,-2.0,-1.0,4.0
1.6951612493204096e+18,-6.0,-13.0,8.0,5.0,2.0,1.0,2.0,-1.0
1.6951612493284063e+18,6.0,11.0,12.0,0.0,-10.0,-2.0,2.0,-13.0
1.6951612493284063e+18,-17.0,-21.0,-4.0,1.0,8.0,-7.0,-12.0,-7.0
1.6951612493433997e+18,11.0,5.0,-9.0,-15.0,-6.0,0.0,11.0,0.0
1.6951612493433997e+18,5.0,-15.0,0.0,7.0,3.0,2.0,14.0,20.0
1.695161249344494e+18,-5.0,2.0,-1.0,7.0,1.0,-3.0,-17.0,-17.0
1.695161249344494e+18,13.0,24.0,13.0,-5.0,-11.0,-11.0,-14.0,12.0
1.6951612493735465e+18,-5.0,10.0,6.0,-7.0,-7.0,-2.0,4.0,5.0
1.6951612493735465e+18,-3.0,-14.0,-9.0,-19.0,-5.0,-1.0,0.0,-7.0
1.695161249374544e+18,-2.0,-4.0,18.0,11.0,2.0,-6.0,-7.0,-6.0
1.695161249374544e+18,-10.0,7.0,2.0,30.0,16.0,11.0,4.0,-12.0
1.695161249378563e+18,1.0,-8.0,20.0,-6.0,-13.0,1.0,5.0,-14.0
1.695161249379551e+18,5.0,0.0,-12.0,-16.0,-13.0,-7.0,4.0,8.0
1.695161249395777e+18,1.0,5.0,-1.0,-1.0,8.0,-2.0,-2.0,8.0
1.695161249395777e+18,-7.0,-14.0,-22.0,2.0,-1.0,1.0,-3.0,-13.0
1.695161249401595e+18,2.0,-2.0,-6.0,6.0,12.0,13.0,16.0,18.0
1.695161249402593e+18,1.0,1.0,21.0,3.0,4.0,1.0,18.0,5.0
1.6951612494105866e+18,-7.0,-8.0,-15.0,-12.0,-2.0,0.0,-14.0,-15.0
1.6951612494105866e+18,3.0,-12.0,-12.0,16.0,15.0,7.0,-7.0,16.0
1.6951612494254205e+18,10.0,20.0,16.0,-9.0,-17.0,-16.0,-3.0,19.0
1.6951612494254205e+18,-3.0,-9.0,29.0,-6.0,8.0,-1.0,-8.0,-16.0
1.6951612494274253e+18,1.0,-7.0,-14.0,27.0,-2.0,-2.0,9.0,-3.0
1.6951612494274253e+18,-4.0,2.0,-12.0,-29.0,-14.0,8.0,3.0,-6.0
1.6951612494475133e+18,-7.0,-7.0,10.0,11.0,45.0,13.0,4.0,-6.0
1.6951612494485148e+18,4.0,2.0,1.0,2.0,4.0,6.0,-2.0,8.0
1.695161249449513e+18,1.0,-7.0,30.0,19.0,0.0,-2.0,0.0,-1.0
1.695161249449513e+18,-2.0,-5.0,-34.0,-3.0,-2.0,-7.0,-2.0,-14.0
1.6951612494715914e+18,-6.0,-1.0,8.0,-3.0,-25.0,-7.0,-7.0,18.0
1.6951612494715914e+18,-1.0,4.0,7.0,26.0,21.0,8.0,-4.0,7.0
1.695161249472633e+18,-1.0,-5.0,-9.0,-7.0,8.0,4.0,6.0,-1.0
1.695161249472633e+18,-2.0,6.0,14.0,-4.0,-8.0,-6.0,-2.0,-7.0
1.6951612494854198e+18,-1.0,-9.0,-10.0,-8.0,-12.0,0.0,-2.0,-7.0
1.6951612494854198e+18,-4.0,4.0,-16.0,0.0,-2.0,-12.0,-10.0,-27.0
1.6951612494874263e+18,5.0,0.0,-14.0,-14.0,-13.0,-7.0,-4.0,28.0
1.6951612494874263e+18,-4.0,-2.0,11.0,-10.0,-3.0,5.0,4.0,-12.0
1.6951612494990538e+18,2.0,-8.0,-13.0,3.0,3.0,2.0,2.0,-11.0
1.695161249500065e+18,2.0,-5.0,1.0,-6.0,-8.0,0.0,-1.0,22.0
1.6951612495088568e+18,1.0,7.0,-6.0,-10.0,-4.0,-3.0,-1.0,-11.0
1.6951612495088568e+18,-4.0,-8.0,12.0,4.0,6.0,-4.0,3.0,-1.0
1.6951612495388403e+18,0.0,6.0,-7.0,1.0,2.0,1.0,-2.0,-23.0
1.6951612495398395e+18,0.0,4.0,-5.0,2.0,-2.0,-1.0,0.0,6.0
1.6951612495398395e+18,2.0,0.0,6.0,-6.0,-2.0,0.0,0.0,10.0
1.6951612495408376e+18,2.0,1.0,6.0,9.0,5.0,6.0,2.0,-2.0
1.6951612495458355e+18,-7.0,-10.0,-9.0,0.0,-10.0,-9.0,-10.0,0.0
1.6951612495468342e+18,-3.0,-7.0,-8.0,-8.0,0.0,-1.0,0.0,-11.0
1.6951612495478333e+18,-2.0,2.0,-6.0,-13.0,2.0,-1.0,3.0,-2.0
1.6951612495478333e+18,4.0,5.0,12.0,-4.0,-5.0,1.0,1.0,9.0
1.6951612495598295e+18,2.0,-2.0,-12.0,10.0,5.0,0.0,2.0,2.0
1.6951612495598295e+18,-3.0,-1.0,-2.0,2.0,-8.0,-6.0,-3.0,-7.0
1.6951612495748188e+18,-1.0,2.0,-1.0,-9.0,0.0,4.0,2.0,1.0
1.6951612495748188e+18,-3.0,-2.0,0.0,-6.0,-7.0,-4.0,1.0,-3.0
1.695161249583813e+18,-2.0,-1.0,-3.0,-6.0,-2.0,-2.0,-3.0,0.0
1.6951612495848138e+18,-3.0,-1.0,0.0,-1.0,-1.0,-2.0,-6.0,-2.0
1.6951612495858143e+18,1.0,1.0,-3.0,8.0,-4.0,0.0,-1.0,-2.0
1.6951612495868114e+18,-3.0,-6.0,-9.0,-10.0,1.0,-3.0,0.0,-2.0
1.6951612496207923e+18,-2.0,-3.0,5.0,-4.0,-4.0,-5.0,-4.0,1.0
1.6951612496207923e+18,1.0,0.0,-6.0,2.0,2.0,2.0,-1.0,1.0
1.6951612496307924e+18,-2.0,-3.0,5.0,-2.0,0.0,1.0,1.0,-5.0
1.695161249631786e+18,-1.0,-1.0,-2.0,0.0,0.0,-2.0,0.0,1.0
1.6951612496327862e+18,2.0,4.0,-5.0,7.0,5.0,1.0,0.0,5.0
1.695161249633787e+18,-3.0,-6.0,0.0,-4.0,-8.0,-3.0,-4.0,-8.0
1.695161249635785e+18,1.0,1.0,4.0,1.0,1.0,0.0,0.0,-3.0
1.6951612496367926e+18,-1.0,-2.0,2.0,-2.0,0.0,-2.0,-1.0,-1.0
1.6951612496437796e+18,2.0,6.0,-2.0,3.0,3.0,2.0,1.0,0.0
1.6951612496447793e+18,0.0,0.0,-5.0,-4.0,-4.0,-1.0,1.0,0.0
1.6951612496457787e+18,-1.0,-3.0,0.0,-4.0,-1.0,1.0,0.0,0.0
1.6951612496457787e+18,-1.0,0.0,-1.0,1.0,0.0,0.0,-1.0,0.0
1.6951612496737618e+18,-1.0,0.0,6.0,1.0,-1.0,-1.0,0.0,0.0
1.6951612496737618e+18,-3.0,-3.0,2.0,3.0,1.0,-3.0,-3.0,-3.0
1.695161249674762e+18,-1.0,2.0,-3.0,-14.0,1.0,-2.0,-1.0,-2.0
1.695161249675761e+18,-2.0,-2.0,-4.0,6.0,-2.0,-2.0,-2.0,0.0
1.6951612496797588e+18,-1.0,-3.0,-1.0,-10.0,-3.0,-2.0,0.0,0.0
1.6951612496797588e+18,-1.0,3.0,3.0,6.0,1.0,2.0,0.0,0.0
1.6951612496887542e+18,-2.0,0.0,1.0,10.0,-3.0,0.0,-1.0,0.0
1.6951612496887542e+18,1.0,-2.0,6.0,-10.0,1.0,0.0,0.0,0.0
1.6951612497117414e+18,-1.0,-2.0,-4.0,12.0,1.0,0.0,-1.0,-1.0
1.6951612497117414e+18,-2.0,-2.0,-6.0,-16.0,-4.0,-2.0,0.0,0.0
1.6951612497127421e+18,-2.0,-1.0,-1.0,-1.0,-2.0,-2.0,-4.0,-3.0
1.695161249713739e+18,0.0,-2.0,4.0,6.0,1.0,1.0,1.0,1.0
1.6951612497267338e+18,0.0,0.0,-1.0,-2.0,1.0,0.0,-1.0,1.0
1.6951612497267338e+18,0.0,0.0,0.0,0.0,0.0,-1.0,-2.0,-2.0
1.6951612497377377e+18,-1.0,-3.0,-3.0,-6.0,0.0,-1.0,0.0,-1.0
1.695161249738757e+18,-3.0,-1.0,-1.0,0.0,-3.0,-4.0,-2.0,-2.0
1.695161249739725e+18,1.0,0.0,-1.0,-5.0,2.0,1.0,1.0,-1.0
1.695161249739725e+18,0.0,-1.0,0.0,8.0,-1.0,-1.0,0.0,1.0
1.695161249748719e+18,-1.0,0.0,-6.0,-6.0,0.0,-2.0,-1.0,1.0
1.6951612497497188e+18,-1.0,-3.0,-1.0,1.0,-2.0,-2.0,-1.0,0.0
1.6951612497637115e+18,-1.0,0.0,-3.0,-7.0,-2.0,0.0,0.0,-1.0
1.6951612497647117e+18,0.0,-1.0,2.0,-2.0,-1.0,-1.0,-1.0,-2.0
1.6951612497657096e+18,-2.0,-2.0,3.0,11.0,0.0,-1.0,0.0,-1.0
1.6951612497657096e+18,0.0,0.0,-1.0,-4.0,-3.0,-5.0,-1.0,-1.0
1.695161249785698e+18,-1.0,-3.0,0.0,1.0,-2.0,-1.0,0.0,-1.0
1.6951612497876966e+18,-1.0,1.0,5.0,5.0,2.0,9.0,4.0,0.0
1.6951612497886968e+18,1.0,-1.0,-2.0,-6.0,-2.0,1.0,0.0,1.0
1.6951612497896968e+18,-2.0,-1.0,0.0,0.0,-1.0,-4.0,-2.0,-1.0
1.6951612497996895e+18,-1.0,0.0,1.0,-2.0,1.0,-2.0,0.0,-1.0
1.69516124980069e+18,-2.0,-2.0,-1.0,3.0,-1.0,-4.0,-2.0,-1.0
1.6951612498156818e+18,0.0,0.0,-3.0,-8.0,1.0,-2.0,1.0,1.0
1.6951612498166797e+18,1.0,-3.0,6.0,11.0,1.0,3.0,-2.0,-1.0
1.6951612498246756e+18,0.0,-1.0,-2.0,-8.0,-5.0,-4.0,-3.0,-1.0
1.6951612498246756e+18,-1.0,-2.0,-1.0,6.0,-2.0,-1.0,1.0,0.0
1.6951612498256755e+18,-2.0,0.0,-2.0,-2.0,0.0,7.0,1.0,-1.0
1.6951612498266785e+18,0.0,0.0,-3.0,2.0,2.0,0.0,-1.0,0.0
1.695161249861653e+18,-2.0,-2.0,-5.0,-12.0,-1.0,-2.0,-1.0,-1.0
1.695161249861653e+18,0.0,-1.0,1.0,2.0,-3.0,-4.0,-2.0,-1.0
1.695161249862653e+18,0.0,-3.0,-2.0,-2.0,-3.0,-5.0,-3.0,0.0
1.695161249862653e+18,-3.0,0.0,-3.0,-6.0,1.0,1.0,2.0,0.0
1.6951612498636544e+18,0.0,0.0,0.0,4.0,-2.0,1.0,-1.0,-1.0
1.6951612498636544e+18,-2.0,0.0,-1.0,0.0,-1.0,-2.0,0.0,0.0
1.6951612498736468e+18,-1.0,-1.0,-3.0,0.0,-2.0,-1.0,-2.0,-1.0
1.6951612498746455e+18,0.0,-1.0,-2.0,0.0,0.0,2.0,0.0,0.0
1.6951612498906386e+18,0.0,-1.0,1.0,-2.0,0.0,1.0,0.0,0.0
1.6951612498916362e+18,-1.0,-1.0,-2.0,-6.0,-1.0,0.0,-3.0,-1.0
1.6951612498916362e+18,-2.0,0.0,2.0,2.0,0.0,-2.0,-1.0,-1.0
1.6951612498926362e+18,-2.0,2.0,-2.0,-1.0,0.0,4.0,1.0,1.0
1.6951612499126472e+18,-2.0,-1.0,-1.0,4.0,1.0,-1.0,1.0,-1.0
1.6951612499136284e+18,1.0,0.0,-2.0,-4.0,-3.0,-1.0,-2.0,-1.0
1.6951612499146232e+18,-1.0,-1.0,-5.0,-4.0,-1.0,-2.0,-1.0,-1.0
1.6951612499146232e+18,-1.0,-3.0,-1.0,-4.0,-3.0,-5.0,0.0,-4.0
1.6951612499196298e+18,0.0,3.0,2.0,3.0,-2.0,-1.0,0.0,1.0
1.6951612499196298e+18,-3.0,-1.0,0.0,0.0,1.0,-4.0,-1.0,-2.0
1.695161249927619e+18,0.0,0.0,-1.0,-1.0,-1.0,4.0,0.0,0.0
1.6951612499286172e+18,-1.0,-1.0,-1.0,-2.0,2.0,-1.0,-2.0,0.0
1.695161249942607e+18,-1.0,-1.0,-1.0,1.0,-1.0,-1.0,-2.0,-2.0
1.695161249942607e+18,-1.0,-1.0,-1.0,0.0,3.0,1.0,1.0,-1.0
1.695161249948626e+18,0.0,0.0,0.0,-4.0,-1.0,-2.0,-2.0,-2.0
1.6951612499496074e+18,-3.0,-2.0,1.0,-1.0,-4.0,1.0,-3.0,0.0
1.6951612499735918e+18,0.0,-1.0,-1.0,0.0,-3.0,-3.0,0.0,-1.0
1.6951612499735918e+18,-2.0,-3.0,-2.0,-4.0,-2.0,-3.0,-2.0,-1.0
1.6951612499765875e+18,-1.0,-4.0,-2.0,-2.0,0.0,1.0,1.0,-1.0
1.6951612499765875e+18,-1.0,-1.0,4.0,2.0,1.0,1.0,0.0,1.0
1.6951612499795858e+18,-1.0,-1.0,0.0,1.0,1.0,-4.0,-1.0,1.0
1.6951612499805855e+18,1.0,0.0,-1.0,-4.0,-1.0,2.0,0.0,0.0
1.6951612499885809e+18,0.0,0.0,0.0,-1.0,-2.0,0.0,-1.0,1.0
1.6951612499885809e+18,1.0,-1.0,-3.0,-4.0,-2.0,-8.0,-2.0,-1.0
1.69516125000757e+18,-3.0,-1.0,-1.0,1.0,2.0,5.0,-2.0,-1.0
1.69516125000757e+18,0.0,0.0,-1.0,-1.0,-1.0,1.0,-1.0,-1.0
1.6951612500095685e+18,0.0,0.0,2.0,3.0,-3.0,-2.0,-1.0,-1.0
1.695161250010569e+18,0.0,-1.0,-3.0,1.0,4.0,0.0,0.0,0.0
1.695161250025559e+18,0.0,-1.0,0.0,-3.0,0.0,-1.0,0.0,1.0
1.695161250025559e+18,0.0,-1.0,-2.0,-1.0,0.0,-1.0,-1.0,-1.0
1.695161250027558e+18,0.0,-1.0,-2.0,-3.0,-3.0,-3.0,-1.0,0.0
1.695161250027558e+18,0.0,-1.0,-2.0,1.0,-4.0,-5.0,1.0,-1.0
1.6951612500385518e+18,-1.0,-1.0,-1.0,1.0,-1.0,6.0,-1.0,0.0
1.6951612500395507e+18,-1.0,0.0,-1.0,-1.0,2.0,0.0,-2.0,-2.0
1.6951612500485468e+18,-2.0,1.0,0.0,0.0,-1.0,-1.0,0.0,0.0
1.6951612500495457e+18,1.0,0.0,-2.0,-3.0,-2.0,-1.0,-1.0,-2.0
1.695161250062538e+18,1.0,-1.0,0.0,1.0,-3.0,-3.0,0.0,0.0
1.695161250062538e+18,1.0,0.0,-1.0,-2.0,-2.0,-3.0,-1.0,0.0
1.6951612500695342e+18,-2.0,1.0,0.0,0.0,1.0,-1.0,0.0,0.0
1.6951612500695342e+18,-2.0,0.0,-1.0,-1.0,-2.0,-1.0,-2.0,-1.0
1.6951612500845253e+18,-3.0,-1.0,-2.0,-3.0,-2.0,-1.0,-1.0,-3.0
1.6951612500845253e+18,-2.0,-1.0,-1.0,-2.0,0.0,1.0,0.0,-1.0
1.6951612500925217e+18,-1.0,0.0,-1.0,2.0,1.0,0.0,0.0,0.0
1.695161250093521e+18,-2.0,0.0,0.0,-1.0,-2.0,1.0,-1.0,-1.0
1.6951612501155067e+18,0.0,0.0,1.0,0.0,-2.0,-1.0,0.0,0.0
1.6951612501155067e+18,-1.0,-3.0,0.0,1.0,-3.0,-2.0,-1.0,-2.0
1.695161250116507e+18,-1.0,-1.0,-1.0,-1.0,0.0,0.0,-1.0,-2.0
1.6951612501175063e+18,1.0,0.0,-1.0,-2.0,0.0,1.0,-1.0,0.0
1.695161250130499e+18,-1.0,-1.0,0.0,-2.0,1.0,-1.0,0.0,-1.0
1.695161250130499e+18,3.0,0.0,-2.0,-1.0,1.0,-1.0,0.0,-1.0
1.695161250131498e+18,0.0,1.0,0.0,-1.0,-3.0,-2.0,-1.0,-3.0
1.695161250131498e+18,-2.0,-7.0,-5.0,-1.0,-2.0,-2.0,-1.0,0.0
1.695161250145491e+18,-1.0,2.0,0.0,0.0,1.0,-2.0,-1.0,1.0
1.6951612501464906e+18,0.0,-5.0,-11.0,-2.0,-1.0,-1.0,-1.0,-1.0
1.695161250147494e+18,-3.0,14.0,8.0,-5.0,-1.0,-2.0,-2.0,-4.0
1.695161250147494e+18,-8.0,-18.0,3.0,6.0,5.0,4.0,3.0,-2.0
1.6951612501684777e+18,0.0,10.0,-5.0,-4.0,-5.0,-3.0,-4.0,-3.0
1.6951612501684777e+18,0.0,8.0,-20.0,-5.0,-5.0,-1.0,-2.0,1.0
1.6951612501694794e+18,-3.0,-2.0,-1.0,0.0,0.0,0.0,-2.0,-2.0
1.6951612501704778e+18,1.0,-10.0,0.0,-2.0,-2.0,-2.0,-2.0,0.0
1.6951612501824686e+18,-4.0,-3.0,1.0,1.0,0.0,-2.0,-2.0,-2.0
1.6951612501824686e+18,-2.0,3.0,4.0,1.0,0.0,-3.0,-1.0,0.0
1.695161250188465e+18,1.0,4.0,-11.0,-2.0,-3.0,-2.0,-2.0,1.0
1.6951612501894646e+18,0.0,5.0,6.0,0.0,0.0,1.0,0.0,-1.0
1.6951612502064558e+18,-1.0,-5.0,-3.0,0.0,0.0,1.0,-1.0,-1.0
1.6951612502064558e+18,0.0,0.0,0.0,-1.0,-1.0,1.0,-1.0,0.0
1.695161250207455e+18,1.0,-18.0,11.0,4.0,4.0,0.0,2.0,2.0
1.695161250207455e+18,0.0,1.0,-2.0,-2.0,-2.0,0.0,-1.0,-1.0
1.6951612502274652e+18,1.0,-5.0,6.0,0.0,-1.0,0.0,1.0,-1.0
1.6951612502284467e+18,-5.0,-7.0,7.0,4.0,3.0,1.0,0.0,-1.0
1.6951612502294643e+18,1.0,-5.0,-8.0,-1.0,-1.0,1.0,-1.0,-2.0
1.6951612502294643e+18,0.0,10.0,10.0,-2.0,-2.0,-2.0,-2.0,-2.0
1.6951612502414574e+18,1.0,0.0,-8.0,-3.0,-3.0,-3.0,0.0,-1.0
1.6951612502424348e+18,-2.0,-1.0,0.0,0.0,-1.0,-1.0,-2.0,-1.0
1.6951612502824095e+18,0.0,-3.0,-4.0,-1.0,1.0,0.0,0.0,0.0
1.695161250283411e+18,0.0,1.0,-2.0,1.0,1.0,0.0,-1.0,0.0
1.695161250283411e+18,-1.0,0.0,2.0,-1.0,-1.0,-2.0,-3.0,0.0
1.695161250283411e+18,1.0,-9.0,6.0,2.0,0.0,2.0,0.0,2.0
1.6951612502885376e+18,-1.0,-4.0,-1.0,-1.0,-1.0,-1.0,-1.0,0.0
1.6951612502885376e+18,1.0,2.0,-8.0,-4.0,-1.0,-1.0,-1.0,-1.0
1.6951612502895416e+18,-1.0,-5.0,2.0,2.0,-1.0,-2.0,0.0,-1.0
1.6951612502895416e+18,-1.0,0.0,16.0,1.0,-2.0,-2.0,-1.0,0.0
1.6951612502905413e+18,1.0,1.0,-22.0,-3.0,-2.0,-2.0,-1.0,-2.0
1.695161250291562e+18,-1.0,-1.0,4.0,-1.0,-1.0,-1.0,0.0,1.0
1.6951612503015752e+18,-1.0,-2.0,1.0,0.0,1.0,-2.0,-1.0,-1.0
1.6951612503015752e+18,1.0,1.0,-7.0,-3.0,-2.0,-1.0,-1.0,-2.0
1.695161250318573e+18,0.0,0.0,13.0,3.0,0.0,3.0,0.0,0.0
1.695161250318573e+18,1.0,0.0,-5.0,0.0,-1.0,-2.0,-1.0,-1.0
1.6951612503320648e+18,-1.0,0.0,-5.0,-1.0,0.0,0.0,-1.0,-2.0
1.6951612503320648e+18,1.0,0.0,4.0,0.0,-3.0,-2.0,0.0,1.0
1.6951612503441718e+18,-4.0,-1.0,2.0,-1.0,-1.0,-3.0,-3.0,-1.0
1.695161250345163e+18,-1.0,1.0,-4.0,-3.0,-3.0,1.0,-1.0,0.0
1.69516125035517e+18,0.0,-3.0,4.0,0.0,-1.0,2.0,2.0,0.0
1.6951612503561677e+18,-1.0,1.0,-5.0,-4.0,-1.0,0.0,0.0,-2.0
1.6951612503571569e+18,-1.0,-1.0,-4.0,-1.0,-2.0,0.0,0.0,0.0
1.6951612503571569e+18,0.0,-1.0,6.0,-1.0,-1.0,0.0,-3.0,-2.0
1.695161250370148e+18,-1.0,0.0,0.0,-1.0,-2.0,-2.0,-1.0,-1.0
1.695161250370148e+18,0.0,1.0,-3.0,0.0,-3.0,-1.0,-1.0,-2.0
1.6951612503721487e+18,0.0,-1.0,0.0,0.0,1.0,0.0,-1.0,-1.0
1.6951612503721487e+18,0.0,-2.0,-4.0,0.0,0.0,-3.0,0.0,-3.0
1.6951612503935204e+18,-1.0,-2.0,0.0,0.0,-2.0,-2.0,-1.0,1.0
1.6951612503935204e+18,-2.0,2.0,-1.0,-2.0,-1.0,-2.0,0.0,-1.0
1.695161250394521e+18,-1.0,-2.0,-5.0,-2.0,-1.0,1.0,0.0,0.0
1.695161250394521e+18,0.0,4.0,9.0,0.0,-1.0,0.0,-1.0,1.0
1.695161250415522e+18,-1.0,1.0,1.0,-1.0,-1.0,-1.0,-2.0,1.0
1.695161250415522e+18,0.0,0.0,-5.0,-1.0,-1.0,-1.0,-1.0,-1.0
1.695161250416529e+18,-1.0,-1.0,2.0,0.0,-1.0,1.0,-1.0,0.0
1.6951612504175212e+18,0.0,-1.0,-6.0,0.0,-2.0,2.0,-1.0,-1.0
1.6951612504305142e+18,0.0,-2.0,-1.0,0.0,-1.0,0.0,0.0,0.0
1.6951612504305142e+18,-1.0,-1.0,1.0,0.0,-1.0,1.0,-2.0,0.0
1.6951612504315139e+18,-1.0,1.0,2.0,0.0,-2.0,-2.0,0.0,-2.0
1.6951612504325123e+18,0.0,-1.0,0.0,0.0,-2.0,-2.0,0.0,-1.0
1.695161250447504e+18,-1.0,1.0,-3.0,-4.0,-2.0,0.0,-1.0,0.0
1.695161250447504e+18,-1.0,-1.0,-3.0,-1.0,-1.0,-2.0,-2.0,1.0
1.6951612504525036e+18,0.0,3.0,4.0,0.0,0.0,-1.0,-1.0,-3.0
1.695161250453506e+18,-2.0,-4.0,3.0,1.0,-1.0,1.0,-1.0,0.0
1.6951612504683604e+18,-1.0,-1.0,-5.0,-2.0,-1.0,2.0,0.0,-1.0
1.6951612504683604e+18,0.0,-2.0,0.0,-3.0,0.0,-2.0,-2.0,-2.0
1.695161250469362e+18,-1.0,1.0,2.0,-2.0,-2.0,0.0,0.0,0.0
1.695161250469362e+18,-1.0,1.0,-4.0,-2.0,-1.0,-3.0,0.0,0.0
1.6951612504813537e+18,-1.0,-2.0,-1.0,-1.0,2.0,-3.0,1.0,-3.0
1.6951612504813537e+18,-3.0,-1.0,-1.0,0.0,0.0,-1.0,-3.0,-2.0
1.6951612504923459e+18,0.0,-1.0,-4.0,1.0,-1.0,1.0,-2.0,0.0
1.695161250493345e+18,-2.0,0.0,7.0,1.0,-1.0,1.0,-1.0,-2.0
1.6951612505054628e+18,-1.0,-4.0,-6.0,-1.0,-1.0,0.0,-1.0,-2.0
1.6951612505054628e+18,0.0,1.0,5.0,1.0,0.0,-1.0,1.0,0.0
1.6951612505074662e+18,-1.0,-1.0,-4.0,-3.0,-1.0,1.0,-1.0,0.0
1.6951612505074662e+18,0.0,0.0,-2.0,-2.0,0.0,-1.0,-1.0,1.0
1.69516125052837e+18,-1.0,-1.0,1.0,-1.0,-2.0,-1.0,0.0,0.0
1.6951612505293688e+18,-1.0,-2.0,-1.0,-2.0,0.0,-1.0,-1.0,-1.0
1.6951612505303642e+18,-3.0,-3.0,4.0,1.0,-1.0,-2.0,-1.0,0.0
1.6951612505303642e+18,-1.0,-3.0,1.0,-2.0,1.0,-1.0,1.0,-1.0
1.6951612505423572e+18,-2.0,0.0,-3.0,-1.0,0.0,0.0,-1.0,-2.0
1.6951612505423572e+18,0.0,0.0,-4.0,0.0,-2.0,2.0,1.0,-1.0
1.695161250551352e+18,-1.0,0.0,2.0,-1.0,-1.0,-1.0,-1.0,1.0
1.695161250551352e+18,0.0,-3.0,-7.0,0.0,-1.0,-1.0,-2.0,0.0
1.6951612505663432e+18,-1.0,2.0,6.0,-1.0,-2.0,-3.0,-1.0,-1.0
1.6951612505663432e+18,-1.0,-2.0,-4.0,-4.0,-1.0,0.0,0.0,1.0
1.695161250567343e+18,-1.0,-2.0,0.0,-1.0,0.0,-3.0,0.0,1.0
1.6951612505683492e+18,-1.0,-1.0,-4.0,-2.0,-1.0,-2.0,0.0,0.0
1.6951612506023237e+18,-1.0,-1.0,-3.0,-2.0,0.0,0.0,-1.0,-1.0
1.6951612506033236e+18,-3.0,0.0,0.0,0.0,-2.0,-1.0,-1.0,-1.0
1.6951612506043213e+18,1.0,0.0,-3.0,-1.0,0.0,-1.0,0.0,-1.0
1.6951612506073208e+18,0.0,0.0,-4.0,-2.0,-1.0,0.0,-1.0,0.0
1.6951612506073208e+18,1.0,-1.0,-2.0,0.0,-1.0,-2.0,0.0,0.0
1.6951612506083192e+18,-1.0,-1.0,-3.0,-2.0,1.0,-1.0,0.0,-3.0
1.6951612506183148e+18,0.0,0.0,4.0,0.0,-3.0,-1.0,-1.0,-1.0
1.6951612506183148e+18,1.0,0.0,-4.0,-2.0,0.0,-1.0,0.0,-1.0
1.695161250640309e+18,-3.0,0.0,2.0,-1.0,2.0,1.0,-1.0,1.0
1.6951612506413046e+18,-1.0,-3.0,-2.0,-1.0,-1.0,0.0,0.0,0.0
1.6951612506490632e+18,0.0,-1.0,3.0,0.0,0.0,-1.0,-1.0,-2.0
1.695161250650064e+18,0.0,-3.0,-9.0,-1.0,-2.0,0.0,-2.0,-1.0
1.695161250651062e+18,-2.0,1.0,7.0,-2.0,-1.0,-1.0,-1.0,-2.0
1.695161250652063e+18,-1.0,0.0,-2.0,-2.0,-1.0,-1.0,-2.0,0.0
1.6951612506530675e+18,0.0,-1.0,4.0,-1.0,0.0,0.0,-1.0,0.0
1.6951612506540626e+18,-2.0,2.0,-1.0,1.0,0.0,-1.0,-2.0,0.0
1.6951612506620552e+18,-1.0,-6.0,-11.0,-3.0,0.0,-1.0,-2.0,-2.0
1.6951612506620552e+18,0.0,1.0,4.0,0.0,-1.0,-2.0,0.0,0.0
1.6951612506703347e+18,0.0,-5.0,2.0,1.0,0.0,-1.0,1.0,-1.0
1.6951612506713388e+18,-2.0,1.0,-3.0,-1.0,-2.0,0.0,-1.0,0.0
1.6951612506933215e+18,1.0,0.0,-1.0,0.0,-1.0,1.0,-2.0,-1.0
1.6951612506933215e+18,-1.0,-1.0,-5.0,-1.0,0.0,0.0,-2.0,-1.0
1.6951612506953203e+18,-1.0,1.0,-4.0,-3.0,0.0,-1.0,1.0,1.0
1.6951612506953203e+18,0.0,-3.0,2.0,0.0,-2.0,-2.0,-1.0,-2.0
1.6951612507083128e+18,0.0,-1.0,0.0,0.0,-2.0,0.0,0.0,0.0
1.6951612507083128e+18,0.0,-2.0,1.0,0.0,-3.0,1.0,-1.0,-2.0
1.6951612507103117e+18,-1.0,1.0,-5.0,-1.0,-1.0,-2.0,-2.0,-1.0
1.6951612507103117e+18,-1.0,5.0,2.0,0.0,0.0,-1.0,-2.0,0.0
1.69516125072733e+18,-1.0,0.0,-4.0,-2.0,0.0,-3.0,0.0,0.0
1.6951612507283292e+18,0.0,1.0,0.0,-4.0,-1.0,-1.0,0.0,-2.0
1.6951612507313e+18,-1.0,-2.0,-10.0,6.0,-2.0,-1.0,0.0,-1.0
1.6951612507313e+18,0.0,-1.0,21.0,10.0,1.0,0.0,1.0,-1.0
1.6951612507462917e+18,-1.0,-4.0,-7.0,-2.0,1.0,0.0,0.0,0.0
1.6951612507472978e+18,0.0,5.0,10.0,2.0,2.0,0.0,0.0,0.0
1.6951612507472978e+18,-2.0,-2.0,-5.0,-4.0,0.0,0.0,0.0,0.0
1.6951612507482908e+18,2.0,4.0,-4.0,-4.0,-2.0,-1.0,0.0,-1.0
1.6951612507682793e+18,-1.0,-5.0,-5.0,-1.0,0.0,0.0,-1.0,-1.0
1.6951612507692787e+18,0.0,-2.0,-3.0,-1.0,-1.0,-1.0,-2.0,-1.0
1.6951612507702776e+18,-1.0,2.0,2.0,-3.0,-1.0,0.0,-1.0,0.0
1.6951612507702776e+18,0.0,-1.0,-5.0,-2.0,-1.0,0.0,-1.0,-1.0
1.695161250782276e+18,1.0,2.0,3.0,-1.0,0.0,-2.0,-1.0,1.0
1.695161250782276e+18,-1.0,0.0,-3.0,-1.0,0.0,1.0,-1.0,0.0
1.6951612507912666e+18,-2.0,-1.0,3.0,0.0,-1.0,-2.0,0.0,-1.0
1.6951612507912666e+18,-2.0,-3.0,-4.0,-3.0,-2.0,-1.0,0.0,-1.0
1.6951612508052572e+18,0.0,2.0,0.0,-1.0,-3.0,-1.0,-2.0,0.0
1.6951612508062572e+18,0.0,-3.0,0.0,1.0,1.0,-1.0,0.0,0.0
1.695161250807261e+18,0.0,-1.0,-2.0,-2.0,-1.0,-1.0,-2.0,0.0
1.6951612508082565e+18,-2.0,-2.0,-4.0,-3.0,-2.0,-3.0,-2.0,0.0
1.6951612508332692e+18,-1.0,1.0,1.0,1.0,-2.0,-1.0,2.0,-1.0
1.6951612508332692e+18,0.0,1.0,-2.0,-2.0,-1.0,1.0,-2.0,0.0
1.6951612508342423e+18,0.0,-2.0,-2.0,-2.0,-2.0,0.0,-1.0,-2.0
1.695161250835242e+18,-2.0,0.0,1.0,-2.0,0.0,0.0,-1.0,-1.0
1.6951612508422367e+18,-2.0,0.0,-2.0,-1.0,-1.0,0.0,0.0,-1.0
1.6951612508432366e+18,-1.0,-4.0,-3.0,-1.0,-3.0,-2.0,-1.0,-1.0
1.6951612508582275e+18,-1.0,1.0,2.0,-1.0,-1.0,0.0,-1.0,0.0
1.6951612508582275e+18,0.0,-1.0,0.0,0.0,-2.0,-2.0,1.0,0.0
1.6951612508662267e+18,0.0,1.0,1.0,0.0,2.0,0.0,-1.0,-2.0
1.6951612508672228e+18,-2.0,-1.0,-1.0,0.0,0.0,-1.0,-1.0,0.0
1.695161250869221e+18,-1.0,-1.0,-3.0,-2.0,0.0,-1.0,-1.0,2.0
1.6951612508702223e+18,1.0,-2.0,-5.0,-1.0,0.0,0.0,-1.0,1.0
1.6951612508872115e+18,0.0,-1.0,6.0,-1.0,-1.0,0.0,-1.0,1.0
1.6951612508882112e+18,0.0,-3.0,-2.0,-1.0,0.0,-2.0,-1.0,-1.0
1.695161250895207e+18,-1.0,1.0,-2.0,-1.0,-2.0,-1.0,-3.0,-2.0
1.6951612508962076e+18,-1.0,-4.0,-7.0,-3.0,1.0,0.0,0.0,-1.0
1.6951612509022036e+18,1.0,1.0,3.0,0.0,-2.0,0.0,-1.0,-1.0
1.6951612509022036e+18,-1.0,-1.0,-2.0,-1.0,-1.0,0.0,0.0,-1.0
1.6951612509111972e+18,0.0,0.0,-1.0,-1.0,-1.0,-3.0,1.0,0.0
1.695161250912198e+18,-1.0,0.0,-1.0,-3.0,-2.0,1.0,0.0,0.0
1.6951612509251889e+18,1.0,-2.0,-5.0,-1.0,-2.0,-1.0,-1.0,1.0
1.6951612509261898e+18,-1.0,0.0,2.0,0.0,1.0,-3.0,-1.0,-2.0
1.6951612509341842e+18,-1.0,-2.0,1.0,1.0,0.0,-1.0,-2.0,0.0
1.695161250935184e+18,-1.0,1.0,-2.0,-2.0,1.0,0.0,-1.0,-2.0
1.695161250956171e+18,-3.0,-2.0,-1.0,-2.0,-1.0,-2.0,-2.0,-1.0
1.695161250956171e+18,1.0,-2.0,0.0,-2.0,1.0,1.0,1.0,-1.0
1.6951612509571722e+18,-1.0,-1.0,-1.0,1.0,1.0,-1.0,1.0,-1.0
1.69516125095817e+18,-2.0,0.0,0.0,-2.0,0.0,0.0,0.0,1.0
1.6951612509621678e+18,-1.0,0.0,-2.0,-1.0,-1.0,-1.0,-1.0,-1.0
1.6951612509631677e+18,-1.0,-1.0,-1.0,0.0,-1.0,-1.0,-1.0,0.0
1.6951612509701622e+18,0.0,-2.0,0.0,-2.0,-1.0,-1.0,-1.0,-2.0
1.695161250971161e+18,-1.0,-1.0,0.0,0.0,0.0,-2.0,-1.0,-1.0
1.695161250985153e+18,-2.0,-1.0,-3.0,2.0,-3.0,-2.0,-2.0,1.0
1.695161250986153e+18,0.0,-1.0,-2.0,0.0,0.0,0.0,-1.0,0.0
1.6951612509871532e+18,0.0,-1.0,0.0,-1.0,-2.0,1.0,-2.0,-2.0
1.6951612509871532e+18,-2.0,-3.0,-1.0,-3.0,-2.0,-1.0,-1.0,-2.0
1.695161251010141e+18,-1.0,-1.0,-3.0,-1.0,0.0,0.0,-1.0,-1.0
1.695161251010141e+18,0.0,-1.0,1.0,-1.0,-1.0,-2.0,0.0,0.0
1.6951612510111386e+18,-1.0,0.0,6.0,1.0,1.0,-1.0,0.0,-1.0
1.6951612510111386e+18,0.0,-1.0,-9.0,-2.0,-1.0,-3.0,1.0,-1.0
1.695161251038123e+18,0.0,0.0,-1.0,-2.0,-1.0,0.0,-1.0,-1.0
1.695161251038123e+18,-2.0,2.0,-3.0,-2.0,-2.0,-1.0,-1.0,-1.0
1.6951612510391227e+18,-1.0,1.0,1.0,0.0,-1.0,-1.0,-1.0,-3.0
1.6951612510401234e+18,0.0,0.0,2.0,0.0,0.0,0.0,-1.0,-2.0
1.6951612510461212e+18,0.0,-1.0,-2.0,1.0,1.0,0.0,0.0,-2.0
1.6951612510501158e+18,0.0,-3.0,-2.0,-1.0,-1.0,1.0,0.0,0.0
1.6951612510531146e+18,-2.0,-3.0,-5.0,-1.0,-1.0,0.0,-2.0,0.0
1.6951612510541135e+18,0.0,-1.0,3.0,-1.0,1.0,-3.0,0.0,1.0
1.695161251068106e+18,-1.0,1.0,-2.0,-1.0,-2.0,0.0,0.0,-1.0
1.695161251068106e+18,-2.0,-2.0,-1.0,-1.0,0.0,-1.0,-1.0,1.0
1.6951612510691057e+18,-1.0,1.0,-1.0,-1.0,-2.0,-1.0,1.0,1.0
1.6951612510691057e+18,-1.0,0.0,0.0,-1.0,-2.0,1.0,0.0,-1.0
1.6951612510980884e+18,-1.0,0.0,2.0,-2.0,-2.0,0.0,-1.0,-2.0
1.6951612510980884e+18,-2.0,1.0,-1.0,0.0,-1.0,-1.0,0.0,-1.0
1.6951612510990894e+18,0.0,-1.0,-4.0,-2.0,-1.0,0.0,0.0,1.0
1.6951612510990894e+18,1.0,-2.0,-1.0,-1.0,-1.0,1.0,-1.0,-1.0
1.6951612511130803e+18,-2.0,0.0,1.0,-1.0,1.0,-2.0,1.0,-1.0
1.6951612511130803e+18,-1.0,0.0,-2.0,1.0,0.0,-2.0,-1.0,0.0
1.6951612511140818e+18,-1.0,1.0,5.0,-2.0,-2.0,-1.0,-2.0,-1.0
1.6951612511150812e+18,-1.0,-2.0,2.0,0.0,0.0,0.0,-2.0,0.0
1.6951612511380887e+18,0.0,-2.0,-1.0,-2.0,-1.0,-1.0,-2.0,0.0
1.6951612511390653e+18,-1.0,-2.0,-1.0,-1.0,-1.0,-2.0,-2.0,-2.0
1.6951612511390653e+18,-1.0,-1.0,-3.0,-2.0,-2.0,-1.0,-1.0,0.0
1.6951612511390653e+18,-3.0,1.0,0.0,0.0,0.0,-3.0,0.0,-2.0
1.6951612511500585e+18,-1.0,-2.0,0.0,2.0,0.0,0.0,-1.0,-1.0
1.695161251151062e+18,0.0,0.0,-5.0,-1.0,-2.0,-2.0,0.0,1.0
1.695161251152059e+18,0.0,-2.0,-3.0,0.0,-3.0,0.0,0.0,-1.0
1.695161251152059e+18,0.0,0.0,-1.0,-1.0,-1.0,0.0,0.0,0.0
1.6951612511730455e+18,-1.0,-1.0,0.0,-2.0,1.0,-1.0,1.0,0.0
1.695161251174046e+18,-1.0,-1.0,2.0,-1.0,-3.0,0.0,0.0,-2.0
1.695161251175045e+18,-2.0,-1.0,-3.0,-2.0,-1.0,0.0,-1.0,-2.0
1.695161251175045e+18,1.0,-2.0,-1.0,-1.0,0.0,-1.0,-3.0,0.0
1.695161251194034e+18,-1.0,0.0,-2.0,0.0,1.0,1.0,-1.0,-1.0
1.695161251194034e+18,2.0,-1.0,0.0,-2.0,-1.0,0.0,-1.0,1.0
1.695161251194034e+18,-1.0,-2.0,-1.0,0.0,-1.0,-1.0,0.0,0.0
1.695161251194034e+18,0.0,0.0,1.0,-1.0,-1.0,-2.0,-1.0,-1.0
1.6951612512100242e+18,-1.0,-3.0,-3.0,1.0,-2.0,-1.0,0.0,0.0
1.6951612512100242e+18,-1.0,-1.0,0.0,-1.0,-1.0,-2.0,-1.0,-2.0
1.6951612512120236e+18,0.0,0.0,-1.0,-1.0,1.0,-1.0,-2.0,0.0
1.6951612512120236e+18,0.0,0.0,-3.0,-1.0,-1.0,0.0,0.0,0.0
1.6951612512250158e+18,0.0,0.0,-1.0,0.0,-1.0,-3.0,-2.0,0.0
1.6951612512250158e+18,0.0,-1.0,-1.0,-1.0,0.0,0.0,0.0,-1.0
1.6951612512390075e+18,0.0,-1.0,-1.0,0.0,-2.0,0.0,0.0,-2.0
1.6951612512390075e+18,-1.0,1.0,-1.0,0.0,1.0,2.0,0.0,-2.0
1.6951612512480028e+18,-1.0,-1.0,-1.0,-1.0,-1.0,1.0,0.0,1.0
1.6951612512480028e+18,0.0,-1.0,-1.0,0.0,-1.0,-2.0,0.0,1.0
1.6951612512490028e+18,-1.0,-1.0,4.0,-2.0,-1.0,-1.0,-2.0,-1.0
1.6951612512500022e+18,-1.0,-2.0,-5.0,-1.0,-1.0,-2.0,-1.0,-2.0
1.695161251270012e+18,0.0,0.0,5.0,-2.0,0.0,-2.0,1.0,-2.0
1.695161251270012e+18,-2.0,-2.0,0.0,-1.0,0.0,2.0,0.0,-2.0
1.6951612512719908e+18,0.0,-1.0,-2.0,0.0,1.0,1.0,0.0,0.0
1.6951612512719908e+18,0.0,-1.0,-2.0,-1.0,-2.0,0.0,1.0,0.0
1.6951612512849815e+18,-3.0,-1.0,-2.0,0.0,-1.0,-2.0,-2.0,-1.0
1.6951612512849815e+18,-1.0,-1.0,-1.0,-1.0,1.0,-2.0,-1.0,-2.0
1.695161251303971e+18,-3.0,1.0,0.0,-1.0,-2.0,-1.0,0.0,0.0
1.695161251303971e+18,-1.0,-3.0,0.0,0.0,0.0,-2.0,-1.0,-1.0
1.695161251315212e+18,2.0,1.0,-1.0,-3.0,0.0,0.0,-1.0,-1.0
1.695161251315212e+18,-1.0,-2.0,-1.0,-1.0,0.0,-1.0,-2.0,-1.0
1.6951612513212137e+18,-1.0,-2.0,-3.0,-2.0,-1.0,-1.0,-1.0,-1.0
1.695161251322217e+18,0.0,-1.0,-2.0,0.0,-1.0,-3.0,-1.0,-1.0
1.6951612513304707e+18,0.0,1.0,-1.0,-1.0,-2.0,-2.0,0.0,-1.0
1.695161251331467e+18,-1.0,-1.0,-3.0,0.0,-2.0,-2.0,0.0,-1.0
1.695161251332466e+18,-1.0,-2.0,-3.0,-1.0,-1.0,0.0,0.0,-1.0
1.695161251332466e+18,-1.0,1.0,1.0,-1.0,-2.0,0.0,-1.0,1.0
1.6951612513454595e+18,-2.0,-1.0,-1.0,0.0,-1.0,-1.0,-1.0,0.0
1.6951612513454595e+18,0.0,-2.0,-2.0,0.0,-1.0,-1.0,-1.0,0.0
1.6951612513604513e+18,-1.0,-1.0,-1.0,-2.0,0.0,-1.0,-2.0,-2.0
1.6951612513614717e+18,-1.0,-2.0,1.0,-1.0,-1.0,-1.0,-3.0,-3.0
1.695161251367446e+18,0.0,0.0,-3.0,1.0,-2.0,-2.0,-1.0,-3.0
1.695161251367446e+18,-1.0,1.0,0.0,-2.0,-3.0,-3.0,0.0,-2.0
1.695161251375567e+18,0.0,-3.0,-5.0,-1.0,-1.0,-3.0,-1.0,-2.0
1.695161251375567e+18,-1.0,-3.0,-3.0,-2.0,-1.0,-2.0,0.0,-1.0
1.695161251390535e+18,-3.0,-4.0,1.0,-2.0,-1.0,-1.0,-1.0,-4.0
1.6951612513915428e+18,-2.0,0.0,0.0,0.0,-1.0,-1.0,-1.0,-2.0
1.6951612513925425e+18,0.0,0.0,-3.0,-1.0,-2.0,-3.0,-2.0,-1.0
1.6951612513925425e+18,-1.0,-2.0,-2.0,-2.0,-2.0,1.0,-1.0,-1.0
1.6951612514135644e+18,-1.0,-2.0,-3.0,-2.0,-1.0,-1.0,-2.0,-1.0
1.6951612514145638e+18,0.0,-2.0,-2.0,-1.0,-1.0,-1.0,-1.0,-2.0
1.6951612514145638e+18,-1.0,-1.0,0.0,1.0,1.0,-2.0,0.0,0.0
1.6951612514155784e+18,-2.0,0.0,1.0,0.0,0.0,-2.0,-2.0,-2.0
1.6951612514285555e+18,-1.0,-1.0,-4.0,-1.0,-1.0,1.0,-1.0,1.0
1.6951612514285555e+18,-1.0,-3.0,-1.0,-1.0,-1.0,1.0,-2.0,0.0
1.6951612514295547e+18,0.0,1.0,3.0,-1.0,-1.0,-2.0,-1.0,-1.0
1.6951612514305595e+18,1.0,-2.0,-2.0,2.0,-1.0,0.0,-1.0,-1.0
1.6951612514505423e+18,0.0,-2.0,-1.0,0.0,0.0,0.0,-2.0,-1.0
1.6951612514515443e+18,-1.0,-2.0,-6.0,-2.0,-1.0,0.0,0.0,-2.0
1.6951612514525412e+18,0.0,0.0,5.0,0.0,-1.0,-1.0,0.0,0.0
1.6951612514525412e+18,-1.0,-1.0,-2.0,-1.0,-2.0,-2.0,-1.0,-2.0
1.6951612514645373e+18,-1.0,-1.0,-1.0,-2.0,-2.0,-2.0,-1.0,-2.0
1.6951612514655332e+18,0.0,-2.0,0.0,0.0,-1.0,-2.0,-3.0,-1.0
1.695161251486524e+18,0.0,-2.0,-2.0,1.0,-1.0,-1.0,-1.0,-1.0
1.6951612514885276e+18,-1.0,-1.0,1.0,-1.0,1.0,-2.0,-1.0,0.0
1.6951612514895204e+18,-1.0,-3.0,-2.0,-1.0,-1.0,-3.0,0.0,-2.0
1.6951612514895204e+18,-1.0,2.0,-1.0,-1.0,-1.0,-1.0,-3.0,-2.0
1.6951612514895204e+18,-1.0,2.0,0.0,0.0,1.0,1.0,-1.0,-1.0
1.6951612514895204e+18,0.0,-4.0,2.0,0.0,1.0,3.0,1.0,-1.0
1.6951612515105068e+18,0.0,0.0,-3.0,0.0,1.0,-1.0,-2.0,0.0
1.6951612515105068e+18,-3.0,0.0,2.0,0.0,1.0,3.0,2.0,0.0
1.695161251511506e+18,0.0,-2.0,-7.0,-4.0,-4.0,-3.0,-2.0,-2.0
1.695161251511506e+18,-3.0,1.0,2.0,7.0,13.0,5.0,4.0,1.0
1.6951612515245207e+18,3.0,1.0,-2.0,-2.0,0.0,1.0,-1.0,0.0
1.6951612515245207e+18,4.0,2.0,5.0,3.0,1.0,-2.0,2.0,2.0
1.695161251539491e+18,0.0,0.0,-4.0,-8.0,-7.0,-5.0,-1.0,-2.0
1.695161251539491e+18,0.0,0.0,1.0,-5.0,-12.0,-6.0,-4.0,-3.0
1.6951612515475077e+18,0.0,0.0,7.0,3.0,8.0,3.0,3.0,1.0
1.6951612515475077e+18,-3.0,-1.0,-12.0,-6.0,-6.0,-2.0,-2.0,-2.0
1.6951612515494843e+18,-2.0,-4.0,2.0,4.0,5.0,1.0,-1.0,-3.0
1.6951612515494843e+18,1.0,1.0,-1.0,6.0,4.0,0.0,-1.0,2.0
1.695161251570473e+18,-1.0,2.0,2.0,-7.0,-15.0,-6.0,-1.0,1.0
1.695161251570473e+18,1.0,-1.0,-1.0,7.0,13.0,2.0,0.0,0.0
1.6951612515714742e+18,-1.0,-3.0,-2.0,-1.0,-10.0,-8.0,-2.0,-1.0
1.6951612515724713e+18,-2.0,-1.0,-3.0,-7.0,8.0,7.0,0.0,-2.0
1.695161251584465e+18,1.0,2.0,0.0,-1.0,-5.0,0.0,2.0,1.0
1.695161251584465e+18,-4.0,-10.0,1.0,0.0,-2.0,-1.0,-2.0,-3.0
1.6951612515934587e+18,-2.0,7.0,-2.0,0.0,6.0,1.0,-3.0,-1.0
1.6951612515934587e+18,3.0,0.0,-2.0,-2.0,-7.0,-5.0,0.0,12.0
1.6951612516074734e+18,-2.0,-3.0,-1.0,6.0,-2.0,3.0,-1.0,-15.0
1.6951612516084618e+18,-1.0,-8.0,-4.0,-4.0,2.0,-1.0,-1.0,0.0
1.6951612516094502e+18,0.0,3.0,7.0,-2.0,-8.0,-1.0,-4.0,3.0
1.6951612516094502e+18,1.0,1.0,-7.0,-19.0,-2.0,-2.0,0.0,-2.0
1.695161251637766e+18,-2.0,-6.0,-1.0,1.0,-2.0,-3.0,-2.0,-4.0
1.6951612516387034e+18,4.0,2.0,1.0,-2.0,-8.0,-3.0,2.0,-4.0
1.6951612516397043e+18,-4.0,-5.0,-1.0,8.0,10.0,5.0,-2.0,0.0
1.6951612516397043e+18,0.0,2.0,-1.0,2.0,-11.0,-3.0,1.0,16.0
1.6951612516438943e+18,-1.0,1.0,5.0,16.0,25.0,5.0,0.0,-3.0
1.6951612516438943e+18,0.0,-3.0,-11.0,-2.0,-3.0,0.0,-1.0,-1.0
1.6951612516533325e+18,0.0,-3.0,-4.0,-7.0,-13.0,-4.0,0.0,-4.0
1.6951612516533325e+18,0.0,2.0,-1.0,-12.0,-14.0,-5.0,-6.0,-12.0
1.6951612516683261e+18,-1.0,-1.0,1.0,2.0,5.0,4.0,0.0,5.0
1.6951612516683261e+18,-1.0,-3.0,3.0,5.0,-1.0,-5.0,7.0,5.0
1.6951612516703227e+18,-5.0,-6.0,0.0,-6.0,-3.0,2.0,-7.0,-11.0
1.6951612516703227e+18,0.0,-3.0,-1.0,-1.0,2.0,9.0,-3.0,2.0
1.695161251690311e+18,6.0,10.0,2.0,7.0,12.0,-1.0,3.0,14.0
1.695161251690311e+18,0.0,1.0,2.0,-4.0,0.0,2.0,0.0,-13.0
1.695161251692311e+18,-2.0,0.0,-7.0,-7.0,-12.0,-7.0,7.0,-4.0
1.695161251692311e+18,-4.0,4.0,5.0,8.0,2.0,0.0,-4.0,15.0
1.6951612517043092e+18,0.0,-22.0,-8.0,-13.0,-9.0,-2.0,6.0,-3.0
1.6951612517043092e+18,0.0,15.0,9.0,12.0,2.0,-4.0,-12.0,-4.0
1.6951612517196163e+18,-1.0,-11.0,0.0,-7.0,-6.0,-4.0,4.0,24.0
1.6951612517196163e+18,2.0,4.0,1.0,13.0,17.0,7.0,19.0,-16.0
1.6951612517285158e+18,-5.0,16.0,1.0,-3.0,-7.0,0.0,-20.0,2.0
1.6951612517295245e+18,-2.0,-10.0,-3.0,4.0,4.0,3.0,9.0,-16.0
1.6951612517295245e+18,2.0,3.0,1.0,-2.0,0.0,2.0,7.0,16.0
1.6951612517295245e+18,-1.0,-3.0,-8.0,-3.0,-2.0,-1.0,-1.0,5.0
1.6951612517585175e+18,-3.0,-11.0,-2.0,-10.0,-15.0,-12.0,-1.0,2.0
1.6951612517585175e+18,-9.0,4.0,2.0,-8.0,-6.0,0.0,-12.0,-21.0
1.6951612517595272e+18,-2.0,7.0,-4.0,3.0,12.0,10.0,-4.0,-24.0
1.6951612517595272e+18,-3.0,-6.0,3.0,-11.0,-21.0,-21.0,-7.0,28.0
1.6951612517645235e+18,7.0,-6.0,-7.0,-8.0,-3.0,-7.0,-9.0,-16.0
1.6951612517645235e+18,-3.0,5.0,0.0,-4.0,0.0,20.0,9.0,31.0
1.6951612517816005e+18,-4.0,-2.0,-1.0,9.0,15.0,7.0,5.0,-10.0
1.695161251782599e+18,2.0,2.0,0.0,3.0,3.0,-6.0,-6.0,-16.0
1.695161251788517e+18,-3.0,-2.0,1.0,-4.0,-9.0,-4.0,3.0,-16.0
1.695161251788517e+18,-1.0,7.0,-7.0,-4.0,-7.0,-12.0,-10.0,2.0
1.6951612517895322e+18,2.0,0.0,12.0,6.0,-8.0,-5.0,12.0,-1.0
1.6951612517895322e+18,-7.0,-2.0,-8.0,-1.0,14.0,1.0,-15.0,-11.0
1.6951612518185654e+18,4.0,4.0,4.0,-4.0,1.0,1.0,-1.0,20.0
1.695161251819563e+18,5.0,-7.0,-13.0,-3.0,-4.0,0.0,-1.0,-3.0
1.695161251819563e+18,-2.0,-6.0,5.0,0.0,-9.0,-3.0,-2.0,-5.0
1.6951612518205624e+18,-3.0,11.0,7.0,16.0,16.0,5.0,7.0,-15.0
1.6951612518415506e+18,0.0,-8.0,-5.0,-2.0,5.0,4.0,-2.0,11.0
1.6951612518425505e+18,-4.0,-4.0,-1.0,-5.0,3.0,-1.0,-15.0,-3.0
1.6951612518425505e+18,-3.0,4.0,0.0,-7.0,-7.0,-2.0,8.0,-12.0
1.6951612518435548e+18,0.0,-2.0,-1.0,2.0,1.0,3.0,10.0,6.0
1.6951612518475474e+18,-5.0,-7.0,-2.0,-4.0,-3.0,6.0,-6.0,11.0
1.6951612518485466e+18,3.0,15.0,1.0,4.0,3.0,-3.0,-3.0,3.0
1.695161251854543e+18,9.0,-2.0,-2.0,-4.0,-2.0,-10.0,-23.0,-1.0
1.695161251855543e+18,-8.0,-7.0,-2.0,1.0,-1.0,0.0,3.0,-1.0
1.6951612518775363e+18,-7.0,8.0,0.0,15.0,6.0,5.0,12.0,-22.0
1.695161251878529e+18,3.0,-9.0,-2.0,-16.0,-1.0,4.0,7.0,6.0
1.6951612519085125e+18,0.0,4.0,5.0,14.0,13.0,-1.0,-8.0,27.0
1.695161251910519e+18,7.0,-8.0,-13.0,-7.0,-12.0,-2.0,0.0,-4.0
1.6951612519115192e+18,10.0,6.0,8.0,-6.0,-10.0,0.0,-3.0,-3.0
1.6951612519115192e+18,3.0,-9.0,-4.0,3.0,9.0,-4.0,2.0,-6.0
1.6951612519125187e+18,11.0,2.0,-10.0,3.0,9.0,4.0,0.0,11.0
1.6951612519135183e+18,-12.0,-5.0,7.0,13.0,-4.0,-2.0,-9.0,-9.0
1.6951612519165117e+18,2.0,4.0,-11.0,-9.0,-6.0,-10.0,-1.0,14.0
1.6951612519165117e+18,13.0,0.0,7.0,-11.0,-14.0,-6.0,-11.0,-8.0
1.695161251931499e+18,-15.0,-3.0,-8.0,4.0,10.0,7.0,9.0,1.0
1.6951612519324984e+18,9.0,-4.0,-7.0,-7.0,-5.0,-4.0,-10.0,-3.0
1.6951612519334986e+18,-1.0,5.0,8.0,3.0,1.0,-1.0,2.0,-15.0
1.6951612519344988e+18,-22.0,-3.0,8.0,1.0,-1.0,-5.0,1.0,10.0
1.6951612519354967e+18,1.0,2.0,-17.0,2.0,-5.0,-4.0,-6.0,-15.0
1.6951612519354967e+18,-7.0,3.0,-2.0,-27.0,-10.0,1.0,5.0,-5.0
1.6951612519444977e+18,-1.0,-1.0,51.0,6.0,-1.0,4.0,11.0,-8.0
1.6951612519454915e+18,8.0,2.0,-19.0,4.0,9.0,-1.0,-4.0,3.0
1.6951612519614822e+18,-7.0,-6.0,-8.0,-6.0,-6.0,-1.0,-3.0,-7.0
1.6951612519624827e+18,0.0,4.0,11.0,-1.0,-9.0,-6.0,-4.0,-17.0
1.69516125198347e+18,-3.0,0.0,-7.0,4.0,9.0,2.0,-3.0,43.0
1.6951612519844692e+18,2.0,-16.0,8.0,7.0,-4.0,3.0,14.0,4.0
1.6951612519854684e+18,-5.0,14.0,12.0,-9.0,-7.0,-7.0,-27.0,-8.0
1.6951612519854684e+18,23.0,3.0,3.0,-1.0,-5.0,-3.0,-3.0,-11.0
1.6951612519914703e+18,2.0,-8.0,-8.0,-6.0,-1.0,0.0,7.0,-12.0
1.6951612519924636e+18,-3.0,13.0,20.0,6.0,5.0,2.0,0.0,12.0
1.6951612519934656e+18,-8.0,-13.0,-42.0,-8.0,-5.0,-1.0,11.0,-6.0
1.6951612519934656e+18,-4.0,0.0,25.0,3.0,-7.0,-8.0,-5.0,-1.0
1.6951612520214482e+18,-2.0,-6.0,-22.0,6.0,28.0,13.0,0.0,-10.0
1.6951612520224476e+18,-5.0,3.0,26.0,-2.0,-7.0,-1.0,9.0,4.0
1.6951612520224476e+18,8.0,1.0,8.0,4.0,4.0,4.0,8.0,-1.0
1.6951612520224476e+18,2.0,-15.0,-26.0,-4.0,-5.0,-3.0,-4.0,3.0
1.6951612520354396e+18,-4.0,7.0,-13.0,-6.0,-12.0,-8.0,-7.0,4.0
1.6951612520364388e+18,1.0,-11.0,-16.0,-3.0,-3.0,-4.0,-3.0,-2.0
1.6951612520374387e+18,2.0,8.0,16.0,-1.0,1.0,3.0,4.0,4.0
1.6951612520374387e+18,-5.0,-3.0,6.0,-1.0,5.0,4.0,8.0,1.0
1.6951612520494653e+18,-7.0,-7.0,-13.0,10.0,12.0,0.0,7.0,-10.0
1.6951612520514322e+18,-1.0,-11.0,-3.0,-6.0,-7.0,-7.0,-25.0,12.0
1.695161252058428e+18,4.0,-3.0,-7.0,-1.0,-3.0,-5.0,-1.0,-13.0
1.695161252059436e+18,-5.0,11.0,22.0,6.0,10.0,7.0,0.0,-7.0
1.6951612520874104e+18,-2.0,6.0,-5.0,-6.0,-5.0,6.0,23.0,-18.0
1.6951612520874104e+18,-8.0,-4.0,-4.0,-5.0,-17.0,-11.0,-19.0,16.0
1.6951612521054134e+18,-5.0,1.0,-11.0,-2.0,6.0,3.0,9.0,-10.0
1.6951612521064018e+18,-5.0,-13.0,-22.0,-10.0,12.0,5.0,-4.0,1.0
1.6951612521064018e+18,1.0,1.0,-4.0,-2.0,7.0,5.0,-20.0,6.0
1.6951612521064018e+18,1.0,0.0,-33.0,0.0,-6.0,0.0,22.0,-13.0
1.6951612521064018e+18,6.0,11.0,20.0,24.0,21.0,8.0,0.0,-1.0
1.6951612521064018e+18,-6.0,-11.0,-14.0,-3.0,-2.0,-7.0,-21.0,-8.0
1.6951612521103995e+18,2.0,7.0,-2.0,2.0,-10.0,-11.0,-9.0,4.0
1.6951612521103995e+18,-3.0,-6.0,-42.0,-11.0,-3.0,1.0,3.0,-8.0
1.6951612521164157e+18,-3.0,-7.0,23.0,0.0,4.0,4.0,-2.0,10.0
1.695161252117392e+18,3.0,5.0,7.0,-2.0,-4.0,2.0,19.0,-14.0
1.6951612521483978e+18,8.0,-21.0,-14.0,1.0,-3.0,0.0,-6.0,15.0
1.6951612521493737e+18,23.0,15.0,16.0,8.0,6.0,0.0,0.0,-4.0
1.695161252151372e+18,-9.0,-2.0,4.0,-22.0,-20.0,-8.0,0.0,10.0
1.695161252151372e+18,3.0,-2.0,2.0,-7.0,6.0,7.0,10.0,11.0
1.6951612521523756e+18,-3.0,-7.0,-5.0,1.0,-17.0,-10.0,-9.0,5.0
1.6951612521523756e+18,11.0,13.0,31.0,7.0,8.0,6.0,2.0,-8.0
1.6951612521553728e+18,-5.0,1.0,4.0,5.0,4.0,-5.0,-9.0,-7.0
1.695161252156372e+18,16.0,8.0,8.0,-10.0,-15.0,-6.0,-7.0,14.0
1.6951612521723617e+18,-7.0,8.0,1.0,9.0,14.0,3.0,4.0,-9.0
1.695161252173361e+18,-15.0,-6.0,11.0,-1.0,4.0,11.0,20.0,-17.0
1.695161252173361e+18,10.0,0.0,-19.0,-7.0,-13.0,-6.0,-16.0,-6.0
1.695161252173361e+18,-20.0,-2.0,-1.0,15.0,21.0,4.0,-4.0,45.0
1.6951612522083395e+18,6.0,-12.0,-3.0,-3.0,-7.0,-9.0,-11.0,-22.0
1.695161252209345e+18,-7.0,2.0,-1.0,-13.0,-25.0,-12.0,2.0,8.0
1.6951612522163348e+18,11.0,-1.0,14.0,-1.0,26.0,22.0,19.0,14.0
1.6951612522173356e+18,-10.0,-9.0,-25.0,7.0,-1.0,2.0,0.0,-12.0
1.6951612522183342e+18,-7.0,-5.0,7.0,1.0,-16.0,-5.0,2.0,-15.0
1.695161252219337e+18,-6.0,7.0,3.0,24.0,21.0,5.0,-17.0,8.0
1.6951612522203325e+18,0.0,-13.0,-23.0,-19.0,-19.0,-9.0,1.0,-18.0
1.6951612522203325e+18,14.0,6.0,-1.0,7.0,2.0,-3.0,-7.0,0.0
1.6951612522293268e+18,-5.0,-15.0,2.0,-13.0,1.0,3.0,9.0,5.0
1.695161252230333e+18,-4.0,3.0,26.0,-28.0,-9.0,-9.0,-12.0,-20.0
1.6951612522463414e+18,3.0,17.0,11.0,18.0,-9.0,-8.0,-4.0,16.0
1.6951612522463414e+18,6.0,-23.0,-6.0,2.0,3.0,12.0,23.0,-18.0
1.6951612522533135e+18,-3.0,9.0,6.0,-5.0,-4.0,-4.0,-10.0,-14.0
1.6951612522533135e+18,-2.0,-4.0,-2.0,-7.0,7.0,4.0,11.0,14.0
1.6951612522543135e+18,15.0,8.0,-6.0,7.0,7.0,1.0,-6.0,-11.0
1.6951612522543135e+18,-11.0,-5.0,13.0,-8.0,-5.0,-3.0,-1.0,-4.0
1.6951612522753021e+18,-14.0,-10.0,8.0,-6.0,-13.0,-6.0,-9.0,2.0
1.695161252276304e+18,8.0,6.0,-8.0,14.0,13.0,11.0,6.0,-14.0
1.6951612522772997e+18,9.0,12.0,-11.0,-1.0,-7.0,-1.0,8.0,29.0
1.6951612522772997e+18,-7.0,-9.0,12.0,1.0,-2.0,-5.0,-16.0,-33.0
1.6951612522902927e+18,-28.0,9.0,0.0,1.0,6.0,-4.0,-14.0,-12.0
1.6951612522912957e+18,-18.0,-18.0,-8.0,4.0,0.0,3.0,6.0,-18.0
