timestamp,EMG_s0,EMG_s1,EMG_s2,EMG_s3,EMG_s4,EMG_s5,EMG_s6,EMG_s7
1.6951611391425044e+18,-2.0,-3.0,-1.0,-2.0,-1.0,2.0,-1.0,-2.0
1.6951611391425044e+18,0.0,-1.0,1.0,-1.0,-2.0,2.0,-1.0,1.0
1.695161139143501e+18,1.0,0.0,1.0,-2.0,0.0,0.0,-2.0,-2.0
1.695161139143501e+18,-2.0,-1.0,-2.0,0.0,0.0,-1.0,0.0,-1.0
1.6951611391445028e+18,0.0,-1.0,-1.0,0.0,-1.0,-2.0,1.0,0.0
1.6951611391445028e+18,0.0,0.0,-1.0,0.0,-1.0,0.0,-1.0,0.0
1.695161139154497e+18,-1.0,-2.0,-1.0,0.0,-1.0,-1.0,-1.0,-1.0
1.695161139154497e+18,-1.0,-1.0,-1.0,-2.0,-3.0,0.0,-1.0,-1.0
1.6951611391554936e+18,0.0,-1.0,-1.0,1.0,0.0,-1.0,-1.0,-2.0
1.6951611391554936e+18,0.0,0.0,-1.0,-3.0,0.0,-1.0,0.0,-1.0
1.6951611391715064e+18,-1.0,-2.0,-2.0,0.0,-1.0,1.0,-1.0,0.0
1.695161139172487e+18,-1.0,-1.0,0.0,0.0,-2.0,1.0,-1.0,0.0
1.695161139172487e+18,-2.0,1.0,1.0,-1.0,0.0,-1.0,0.0,0.0
1.695161139172487e+18,0.0,-2.0,-1.0,0.0,-1.0,-1.0,1.0,0.0
1.695161139190473e+18,-1.0,0.0,0.0,-2.0,-3.0,-1.0,1.0,0.0
1.695161139190473e+18,0.0,-1.0,0.0,-1.0,1.0,1.0,0.0,-1.0
1.695161139192476e+18,-2.0,0.0,-3.0,-1.0,-2.0,0.0,-1.0,-2.0
1.695161139192476e+18,-2.0,0.0,-2.0,1.0,-1.0,0.0,-1.0,-1.0
1.6951611392064643e+18,0.0,0.0,-2.0,0.0,0.0,0.0,1.0,0.0
1.6951611392064643e+18,0.0,-1.0,-2.0,0.0,-2.0,-3.0,-2.0,0.0
1.695161139214482e+18,1.0,0.0,0.0,0.0,-1.0,-2.0,-1.0,0.0
1.695161139214482e+18,-1.0,-1.0,1.0,-1.0,-1.0,-2.0,0.0,-2.0
1.69516113923145e+18,-2.0,-2.0,0.0,0.0,-1.0,0.0,0.0,-1.0
1.6951611392324498e+18,-1.0,0.0,-1.0,-2.0,-1.0,0.0,-1.0,0.0
1.6951611392324498e+18,-1.0,-2.0,-2.0,0.0,-1.0,0.0,-1.0,-1.0
1.6951611392324498e+18,0.0,-1.0,-1.0,-1.0,-1.0,0.0,-2.0,-2.0
1.6951611392514394e+18,-1.0,-2.0,-1.0,0.0,0.0,-1.0,0.0,-2.0
1.695161139252438e+18,-2.0,0.0,0.0,0.0,0.0,-3.0,-2.0,0.0
1.695161139252438e+18,0.0,-1.0,-1.0,0.0,-1.0,-2.0,0.0,0.0
1.695161139252438e+18,0.0,-2.0,-2.0,0.0,0.0,-1.0,-3.0,-1.0
1.695161139274433e+18,0.0,0.0,-2.0,1.0,-1.0,-1.0,-1.0,0.0
1.695161139274433e+18,0.0,-2.0,0.0,-1.0,1.0,-1.0,-1.0,-1.0
1.6951611392804237e+18,0.0,1.0,-2.0,-3.0,0.0,-2.0,-1.0,0.0
1.6951611392804237e+18,-1.0,0.0,-3.0,-2.0,-3.0,-1.0,-2.0,0.0
1.695161139290416e+18,-1.0,-1.0,1.0,0.0,-2.0,-2.0,0.0,-2.0
1.695161139290416e+18,-1.0,-1.0,0.0,1.0,-1.0,0.0,-1.0,1.0
1.6951611392914232e+18,0.0,-1.0,-1.0,1.0,-1.0,0.0,-1.0,-1.0
1.6951611392914232e+18,0.0,0.0,-1.0,-1.0,-1.0,0.0,-1.0,-3.0
1.6951611393124047e+18,-1.0,-1.0,1.0,-1.0,-2.0,0.0,-1.0,1.0
1.6951611393134129e+18,0.0,-3.0,-1.0,-1.0,-2.0,-1.0,0.0,-1.0
1.6951611393134129e+18,-2.0,-1.0,0.0,-1.0,0.0,0.0,-1.0,0.0
1.6951611393134129e+18,-1.0,-2.0,-1.0,1.0,-2.0,-2.0,0.0,0.0
1.695161139350382e+18,-2.0,0.0,0.0,-1.0,0.0,-1.0,-1.0,-2.0
1.695161139350382e+18,-1.0,-1.0,-2.0,-1.0,-1.0,0.0,0.0,-1.0
1.6951611393513815e+18,0.0,-2.0,-1.0,0.0,0.0,-2.0,-1.0,0.0
1.6951611393513815e+18,-1.0,0.0,0.0,0.0,-1.0,-1.0,0.0,-1.0
1.6951611393513815e+18,-1.0,0.0,0.0,-2.0,-2.0,-1.0,0.0,-3.0
1.6951611393523812e+18,0.0,-1.0,-2.0,0.0,-1.0,0.0,-1.0,-1.0
1.695161139355379e+18,-1.0,0.0,1.0,0.0,0.0,0.0,1.0,-1.0
1.695161139355379e+18,-1.0,-2.0,-1.0,-1.0,-1.0,-1.0,-1.0,-1.0
1.6951611393623757e+18,0.0,-1.0,-1.0,-1.0,-2.0,-3.0,-1.0,1.0
1.6951611393623757e+18,-1.0,-1.0,0.0,0.0,-1.0,0.0,0.0,1.0
1.6951611393693732e+18,0.0,-1.0,-1.0,-3.0,0.0,0.0,-1.0,0.0
1.6951611393693732e+18,0.0,-2.0,-2.0,-1.0,-1.0,-2.0,-1.0,-1.0
1.695161139381367e+18,-2.0,-3.0,0.0,0.0,-1.0,-2.0,-1.0,0.0
1.695161139381367e+18,-2.0,-1.0,1.0,-1.0,0.0,-1.0,-1.0,-2.0
1.6951611393923581e+18,-1.0,0.0,-2.0,-1.0,-2.0,-1.0,0.0,-1.0
1.6951611393923581e+18,-2.0,0.0,0.0,0.0,-2.0,1.0,1.0,-1.0
1.6951611394013527e+18,0.0,0.0,-1.0,0.0,0.0,0.0,0.0,-1.0
1.6951611394013527e+18,-1.0,0.0,-2.0,-1.0,-3.0,-2.0,-2.0,0.0
1.6951611394153677e+18,-2.0,-1.0,-1.0,-1.0,-2.0,-1.0,0.0,-1.0
1.695161139416366e+18,0.0,-1.0,-1.0,0.0,-1.0,-1.0,-1.0,-3.0
1.6951611394233428e+18,-2.0,-2.0,-3.0,-1.0,-2.0,-1.0,-2.0,-2.0
1.6951611394233428e+18,-1.0,-1.0,-2.0,-2.0,-4.0,-3.0,-2.0,-2.0
1.6951611394503273e+18,-3.0,-1.0,-3.0,0.0,-2.0,-3.0,-1.0,-2.0
1.6951611394503273e+18,-2.0,-3.0,-3.0,-2.0,1.0,-2.0,-1.0,-1.0
1.6951611394503273e+18,-1.0,-3.0,0.0,0.0,-1.0,1.0,-2.0,-1.0
1.6951611394503273e+18,-1.0,-3.0,-1.0,-1.0,-1.0,-1.0,-1.0,-1.0
1.6951611394613204e+18,-2.0,-1.0,-2.0,-1.0,-3.0,-1.0,-2.0,-3.0
1.6951611394613204e+18,-2.0,-1.0,-2.0,-1.0,-2.0,-1.0,-1.0,0.0
1.6951611394623252e+18,-1.0,-2.0,-2.0,0.0,-2.0,-2.0,-1.0,0.0
1.6951611394633213e+18,0.0,-1.0,1.0,-1.0,-1.0,-1.0,0.0,-2.0
1.6951611394743332e+18,0.0,-2.0,-1.0,0.0,-1.0,-1.0,-1.0,-2.0
1.6951611394743332e+18,-1.0,-1.0,-1.0,0.0,1.0,0.0,0.0,-2.0
1.6951611394833106e+18,-1.0,-2.0,-3.0,-1.0,-1.0,0.0,-1.0,0.0
1.6951611394833106e+18,1.0,0.0,-1.0,-1.0,-1.0,-1.0,-1.0,1.0
1.695161139498319e+18,-1.0,-2.0,1.0,-1.0,-2.0,-1.0,-1.0,-1.0
1.695161139498319e+18,-1.0,-1.0,-1.0,-1.0,-2.0,-1.0,-2.0,-1.0
1.6951611395002962e+18,-1.0,-1.0,-1.0,0.0,1.0,-1.0,0.0,0.0
1.6951611395002962e+18,-2.0,-1.0,-2.0,0.0,2.0,-1.0,0.0,-1.0
1.695161139520307e+18,-1.0,-3.0,-1.0,-1.0,-2.0,0.0,-1.0,-2.0
1.6951611395212844e+18,0.0,-1.0,-1.0,-1.0,-1.0,0.0,0.0,-1.0
1.695161139530301e+18,-1.0,0.0,-1.0,-1.0,0.0,-1.0,1.0,-2.0
1.695161139530301e+18,1.0,-2.0,0.0,-1.0,-2.0,-1.0,0.0,-1.0
1.695161139534276e+18,-2.0,-1.0,0.0,-1.0,0.0,0.0,-2.0,-1.0
1.695161139534276e+18,-1.0,-1.0,0.0,0.0,0.0,-1.0,-1.0,-1.0
1.69516113954929e+18,-1.0,-1.0,-2.0,-1.0,2.0,-1.0,-1.0,-1.0
1.69516113954929e+18,0.0,-1.0,-1.0,-1.0,1.0,-2.0,0.0,-2.0
1.6951611395582858e+18,0.0,1.0,-3.0,1.0,-1.0,-1.0,-1.0,-2.0
1.6951611395582858e+18,0.0,-2.0,-1.0,-1.0,0.0,0.0,-2.0,-1.0
1.6951611395602621e+18,-2.0,0.0,0.0,-3.0,-1.0,1.0,-2.0,0.0
1.6951611395602621e+18,-1.0,0.0,0.0,0.0,-2.0,1.0,1.0,1.0
1.6951611395812508e+18,-1.0,0.0,-1.0,0.0,2.0,2.0,0.0,2.0
1.6951611395812508e+18,-1.0,0.0,2.0,3.0,0.0,0.0,1.0,-2.0
1.69516113958225e+18,4.0,2.0,3.0,1.0,0.0,2.0,-1.0,0.0
1.69516113958225e+18,0.0,2.0,2.0,-1.0,2.0,0.0,-2.0,0.0
1.6951611395942653e+18,1.0,1.0,-1.0,-3.0,0.0,0.0,0.0,1.0
1.6951611395952428e+18,1.0,0.0,-3.0,-1.0,0.0,-3.0,-1.0,1.0
1.6951611396032381e+18,-1.0,-1.0,-1.0,-1.0,-1.0,-2.0,0.0,-1.0
1.6951611396032381e+18,0.0,0.0,-1.0,0.0,0.0,-1.0,-1.0,0.0
1.6951611396182528e+18,0.0,0.0,1.0,0.0,1.0,1.0,0.0,-1.0
1.6951611396182528e+18,-1.0,1.0,1.0,-1.0,-1.0,0.0,0.0,-1.0
1.6951611396202307e+18,1.0,0.0,0.0,-2.0,-2.0,0.0,0.0,-1.0
1.6951611396202307e+18,0.0,0.0,-1.0,-1.0,-1.0,-2.0,-2.0,-1.0
1.6951611396412157e+18,0.0,-1.0,1.0,-1.0,-1.0,0.0,-1.0,-1.0
1.6951611396412157e+18,-1.0,0.0,0.0,-1.0,-2.0,-2.0,-1.0,-1.0
1.695161139642215e+18,-1.0,0.0,1.0,0.0,0.0,0.0,-1.0,-3.0
1.695161139642215e+18,-1.0,-1.0,-1.0,-1.0,0.0,0.0,-1.0,-2.0
1.6951611396542303e+18,0.0,-1.0,-1.0,-1.0,0.0,-1.0,0.0,-3.0
1.6951611396542303e+18,1.0,0.0,0.0,-2.0,0.0,-2.0,0.0,0.0
1.6951611396711987e+18,0.0,0.0,1.0,1.0,-1.0,-1.0,-1.0,-1.0
1.6951611396711987e+18,0.0,0.0,1.0,-3.0,-1.0,-2.0,0.0,-1.0
1.69516113968619e+18,0.0,-2.0,-1.0,-1.0,-2.0,0.0,0.0,0.0
1.69516113968619e+18,0.0,-1.0,-1.0,-2.0,-3.0,0.0,-1.0,3.0
1.6951611396871918e+18,-1.0,-1.0,-1.0,-1.0,0.0,0.0,0.0,1.0
1.6951611396871918e+18,-1.0,-1.0,-1.0,1.0,-3.0,-1.0,-1.0,-1.0
1.6951611397001818e+18,-1.0,0.0,0.0,-1.0,-3.0,-1.0,0.0,0.0
1.6951611397001818e+18,0.0,0.0,-2.0,0.0,-1.0,-1.0,0.0,-1.0
1.6951611397081797e+18,0.0,-1.0,-2.0,-1.0,-1.0,-1.0,0.0,0.0
1.6951611397081797e+18,-1.0,-1.0,0.0,-1.0,-1.0,-1.0,-2.0,-2.0
1.6951611397231908e+18,0.0,-2.0,-1.0,-2.0,0.0,-2.0,-1.0,-1.0
1.6951611397231908e+18,-1.0,0.0,0.0,1.0,0.0,1.0,-2.0,-1.0
1.6951611397251694e+18,0.0,1.0,-2.0,-1.0,-2.0,-1.0,1.0,0.0
1.6951611397251694e+18,-1.0,-1.0,0.0,-2.0,1.0,0.0,1.0,-1.0
1.6951611397451779e+18,-2.0,0.0,-1.0,-1.0,-1.0,0.0,-1.0,1.0
1.6951611397461573e+18,0.0,0.0,0.0,-1.0,0.0,1.0,-2.0,-1.0
1.6951611397624855e+18,0.0,-1.0,-1.0,0.0,-1.0,-1.0,-1.0,0.0
1.6951611397624855e+18,-1.0,-1.0,-2.0,0.0,0.0,0.0,-1.0,1.0
1.6951611397624855e+18,-1.0,-1.0,0.0,-1.0,-2.0,0.0,1.0,0.0
1.6951611397624855e+18,-1.0,-2.0,-1.0,-3.0,-2.0,-1.0,0.0,-2.0
1.6951611397645033e+18,-1.0,-1.0,-1.0,-2.0,-1.0,-3.0,-2.0,-2.0
1.6951611397645033e+18,0.0,-1.0,0.0,0.0,-3.0,-1.0,-1.0,1.0
1.6951611397836076e+18,-2.0,-2.0,-1.0,1.0,-1.0,-1.0,-1.0,-1.0
1.6951611397836076e+18,-1.0,-1.0,-3.0,-1.0,-1.0,-1.0,-1.0,-1.0
1.695161139785097e+18,-1.0,-1.0,-1.0,-1.0,-1.0,1.0,-1.0,-1.0
1.695161139785097e+18,0.0,-1.0,-1.0,-2.0,-1.0,0.0,0.0,-1.0
1.6951611398065516e+18,-1.0,0.0,0.0,-1.0,-2.0,-2.0,-1.0,-2.0
1.6951611398065516e+18,0.0,-1.0,-1.0,-1.0,-2.0,-2.0,-2.0,-3.0
1.695161139807563e+18,-2.0,0.0,-3.0,-1.0,-2.0,-2.0,-2.0,-2.0
1.695161139807563e+18,-3.0,-3.0,-3.0,0.0,-5.0,-3.0,-2.0,-1.0
1.6951611398216033e+18,-2.0,-1.0,-2.0,-1.0,-2.0,-3.0,-2.0,-1.0
1.6951611398216033e+18,-2.0,-2.0,-4.0,-2.0,-2.0,0.0,0.0,-2.0
1.695161139822598e+18,-2.0,-3.0,-1.0,-1.0,-2.0,-1.0,-3.0,-2.0
1.695161139822598e+18,-3.0,-1.0,-1.0,-2.0,1.0,0.0,-2.0,-1.0
1.69516113986053e+18,-1.0,-1.0,0.0,1.0,-1.0,-2.0,-4.0,0.0
1.6951611398615421e+18,-1.0,-1.0,-2.0,-2.0,0.0,-1.0,-1.0,0.0
1.6951611398625413e+18,0.0,-1.0,-1.0,-2.0,-2.0,-3.0,-1.0,-1.0
1.6951611398625413e+18,0.0,-2.0,-3.0,0.0,-2.0,-1.0,0.0,-2.0
1.6951611398635418e+18,1.0,-2.0,-1.0,-2.0,1.0,-1.0,-1.0,-1.0
1.6951611398635418e+18,0.0,-1.0,1.0,0.0,-2.0,-2.0,-1.0,-1.0
1.6951611398725358e+18,0.0,-1.0,-2.0,-1.0,0.0,-1.0,0.0,0.0
1.6951611398725358e+18,-1.0,0.0,-2.0,0.0,0.0,0.0,0.0,0.0
1.6951611398816082e+18,-2.0,0.0,-4.0,0.0,-1.0,-1.0,-2.0,0.0
1.6951611398816082e+18,-1.0,0.0,0.0,1.0,0.0,0.0,-2.0,1.0
1.695161139895487e+18,-2.0,-1.0,-1.0,-1.0,-2.0,-2.0,1.0,0.0
1.695161139895487e+18,0.0,-2.0,-1.0,-1.0,-1.0,-1.0,0.0,-1.0
1.695161139911592e+18,-1.0,-1.0,-1.0,0.0,-1.0,-3.0,-1.0,-2.0
1.695161139911592e+18,-1.0,-2.0,-1.0,-1.0,-2.0,-2.0,-1.0,1.0
1.6951611399125908e+18,0.0,-1.0,-1.0,0.0,-1.0,0.0,-1.0,-1.0
1.6951611399125908e+18,0.0,-2.0,-2.0,-1.0,0.0,-1.0,0.0,-2.0
1.6951611399195233e+18,-1.0,-2.0,1.0,0.0,0.0,0.0,-2.0,-1.0
1.6951611399195233e+18,0.0,1.0,-1.0,-2.0,1.0,-2.0,-1.0,0.0
1.6951611399255217e+18,-2.0,-1.0,0.0,-3.0,-4.0,-1.0,-2.0,-1.0
1.6951611399255217e+18,-2.0,0.0,0.0,3.0,6.0,2.0,0.0,-1.0
1.6951611399485862e+18,0.0,-1.0,-2.0,0.0,0.0,0.0,1.0,-1.0
1.6951611399495862e+18,0.0,-3.0,0.0,0.0,-2.0,0.0,0.0,0.0
1.6951611399505853e+18,0.0,-1.0,-3.0,-3.0,-1.0,0.0,3.0,1.0
1.6951611399505853e+18,-1.0,-1.0,1.0,-2.0,-2.0,-2.0,-2.0,1.0
1.6951611399775703e+18,0.0,-1.0,-1.0,-1.0,1.0,1.0,2.0,0.0
1.6951611399905715e+18,2.0,3.0,8.0,2.0,4.0,3.0,0.0,0.0
1.6951611399905715e+18,0.0,3.0,-1.0,0.0,0.0,-1.0,0.0,0.0
1.6951611399905715e+18,0.0,1.0,7.0,-3.0,-7.0,-2.0,-3.0,-2.0
1.695161139991571e+18,-1.0,-3.0,-3.0,-5.0,-1.0,1.0,-2.0,0.0
1.695161139991571e+18,0.0,-1.0,-2.0,0.0,1.0,0.0,-1.0,0.0
1.695161139991571e+18,0.0,1.0,2.0,1.0,1.0,-1.0,0.0,0.0
1.695161139991571e+18,2.0,-1.0,-2.0,0.0,-1.0,-1.0,-1.0,-1.0
1.6951611400015572e+18,-2.0,1.0,-1.0,-1.0,-4.0,-2.0,-1.0,0.0
1.6951611400025567e+18,0.0,-1.0,0.0,-3.0,-3.0,0.0,-2.0,-1.0
1.6951611400025567e+18,0.0,-1.0,-1.0,1.0,2.0,0.0,-2.0,-1.0
1.6951611400035566e+18,-1.0,0.0,0.0,-1.0,-2.0,0.0,0.0,0.0
1.6951611400245432e+18,-1.0,0.0,1.0,1.0,0.0,-1.0,0.0,-1.0
1.6951611400265482e+18,-2.0,-1.0,-2.0,1.0,1.0,0.0,-1.0,0.0
1.6951611400275425e+18,0.0,0.0,1.0,0.0,1.0,-1.0,-1.0,0.0
1.695161140028541e+18,0.0,-1.0,-2.0,1.0,-1.0,-2.0,-1.0,1.0
1.6951611400385375e+18,1.0,3.0,2.0,-2.0,0.0,0.0,-1.0,-1.0
1.6951611400385375e+18,0.0,-1.0,-1.0,-2.0,-1.0,-1.0,-2.0,-1.0
1.6951611400475315e+18,-1.0,-2.0,-2.0,1.0,-2.0,0.0,-1.0,-3.0
1.6951611400485353e+18,-1.0,-1.0,0.0,-1.0,-2.0,0.0,-2.0,1.0
1.6951611400615206e+18,0.0,1.0,-1.0,-1.0,-2.0,-2.0,0.0,1.0
1.6951611400625203e+18,-1.0,0.0,-1.0,-1.0,-2.0,-1.0,-1.0,-1.0
1.6951611400625203e+18,1.0,-2.0,-2.0,1.0,2.0,2.0,1.0,0.0
1.69516114006352e+18,-2.0,0.0,3.0,1.0,1.0,0.0,0.0,-2.0
1.6951611400835077e+18,-1.0,1.0,0.0,1.0,2.0,0.0,0.0,1.0
1.6951611400835077e+18,-1.0,-1.0,-1.0,-4.0,-3.0,-3.0,-3.0,0.0
1.6951611400855076e+18,0.0,-1.0,1.0,-1.0,-3.0,-5.0,-1.0,1.0
1.6951611400855076e+18,0.0,0.0,-2.0,0.0,-3.0,-2.0,-2.0,-2.0
1.6951611400974994e+18,-2.0,0.0,-1.0,-3.0,-2.0,-3.0,-2.0,-2.0
1.6951611400974994e+18,-1.0,1.0,0.0,0.0,4.0,2.0,3.0,2.0
1.6951611401064945e+18,-1.0,-2.0,0.0,0.0,-1.0,0.0,-3.0,-1.0
1.6951611401064945e+18,-1.0,-1.0,-2.0,-3.0,-2.0,-2.0,-1.0,-1.0
1.6951611401214856e+18,1.0,0.0,0.0,1.0,4.0,2.0,-1.0,0.0
1.6951611401214856e+18,0.0,-2.0,-1.0,-7.0,-3.0,-1.0,-1.0,-1.0
1.6951611401224855e+18,1.0,2.0,3.0,-3.0,-10.0,-2.0,-1.0,-2.0
1.6951611401224855e+18,0.0,-1.0,-1.0,1.0,16.0,4.0,1.0,0.0
1.695161140150468e+18,0.0,0.0,0.0,5.0,2.0,-3.0,-1.0,-1.0
1.6951611401514714e+18,-2.0,-1.0,-3.0,1.0,-2.0,-2.0,1.0,-1.0
1.6951611401524705e+18,-3.0,0.0,3.0,-1.0,-4.0,-2.0,-2.0,-3.0
1.6951611401524705e+18,0.0,2.0,-10.0,-12.0,-7.0,-3.0,-1.0,-1.0
1.695161140158467e+18,0.0,-3.0,0.0,8.0,9.0,3.0,1.0,0.0
1.695161140158467e+18,-1.0,-2.0,-4.0,3.0,1.0,1.0,1.0,-2.0
1.6951611401734554e+18,0.0,1.0,3.0,2.0,3.0,2.0,0.0,0.0
1.6951611401734554e+18,1.0,1.0,2.0,-1.0,-5.0,-3.0,-2.0,-1.0
1.6951611401884465e+18,0.0,-2.0,-1.0,-19.0,-11.0,-6.0,-2.0,-1.0
1.6951611401884465e+18,0.0,-3.0,-4.0,-2.0,-6.0,-2.0,-5.0,-2.0
1.6951611402044378e+18,0.0,7.0,-2.0,0.0,3.0,1.0,-1.0,-2.0
1.6951611402044378e+18,-3.0,-9.0,3.0,22.0,2.0,-8.0,-2.0,-1.0
1.6951611402044378e+18,-3.0,11.0,0.0,-12.0,-6.0,4.0,1.0,-3.0
1.6951611402044378e+18,-2.0,-9.0,3.0,-4.0,2.0,5.0,0.0,-1.0
1.6951611402064366e+18,0.0,-2.0,-1.0,10.0,2.0,-1.0,-1.0,0.0
1.6951611402064366e+18,-4.0,-7.0,-1.0,-6.0,4.0,0.0,0.0,-5.0
1.695161140225427e+18,8.0,-7.0,-5.0,-2.0,-16.0,-9.0,1.0,15.0
1.6951611402264264e+18,1.0,21.0,1.0,-4.0,7.0,0.0,-2.0,-20.0
1.6951611402274276e+18,-3.0,-7.0,-4.0,-3.0,6.0,9.0,-2.0,-3.0
1.6951611402284262e+18,4.0,18.0,3.0,-5.0,-4.0,1.0,9.0,0.0
1.6951611402484157e+18,-6.0,-23.0,-1.0,6.0,7.0,0.0,-17.0,-10.0
1.6951611402484157e+18,-1.0,-6.0,-7.0,5.0,-6.0,-4.0,4.0,20.0
1.695161140249416e+18,2.0,-6.0,-3.0,-13.0,-6.0,-9.0,-18.0,-35.0
1.6951611402504128e+18,-8.0,7.0,5.0,14.0,1.0,4.0,17.0,21.0
1.6951611402664248e+18,3.0,0.0,2.0,-4.0,0.0,4.0,14.0,17.0
1.6951611402664248e+18,10.0,4.0,1.0,1.0,-5.0,1.0,8.0,-3.0
1.6951611402664248e+18,-23.0,-2.0,-6.0,14.0,18.0,-10.0,-22.0,6.0
1.6951611402674048e+18,14.0,-7.0,-5.0,-16.0,-15.0,-3.0,9.0,12.0
1.6951611402863908e+18,-16.0,-2.0,-1.0,1.0,-4.0,-1.0,-9.0,-78.0
1.6951611402863908e+18,-7.0,2.0,10.0,9.0,9.0,9.0,-2.0,29.0
1.695161140287412e+18,15.0,3.0,-10.0,-15.0,0.0,7.0,21.0,48.0
1.695161140287412e+18,2.0,9.0,-8.0,-10.0,-13.0,-1.0,-15.0,-9.0
1.6951611403013847e+18,1.0,-26.0,-6.0,15.0,7.0,-9.0,-9.0,37.0
1.6951611403013847e+18,0.0,4.0,2.0,-13.0,-15.0,-6.0,-5.0,-47.0
1.6951611403024038e+18,-3.0,2.0,10.0,6.0,8.0,6.0,-4.0,1.0
1.6951611403024038e+18,-3.0,-6.0,0.0,4.0,6.0,0.0,1.0,6.0
1.6951611403223724e+18,7.0,10.0,1.0,-4.0,-2.0,11.0,18.0,-5.0
1.6951611403223724e+18,-8.0,-8.0,-6.0,5.0,0.0,-5.0,3.0,-8.0
1.695161140338383e+18,2.0,5.0,5.0,-15.0,-8.0,2.0,9.0,-14.0
1.695161140338383e+18,-1.0,1.0,-3.0,-3.0,5.0,2.0,-5.0,-10.0
1.6951611403453788e+18,-5.0,5.0,-2.0,1.0,-8.0,-9.0,-9.0,-24.0
1.695161140346358e+18,0.0,-3.0,-3.0,-8.0,-4.0,-4.0,-6.0,19.0
1.6951611403473774e+18,-4.0,-7.0,2.0,9.0,-5.0,2.0,14.0,-3.0
1.6951611403473774e+18,1.0,0.0,-2.0,-20.0,-12.0,-2.0,-16.0,-5.0
1.6951611403703434e+18,3.0,10.0,11.0,18.0,21.0,1.0,-6.0,23.0
1.6951611403703434e+18,1.0,-7.0,-18.0,-1.0,-2.0,1.0,-7.0,4.0
1.6951611403703434e+18,2.0,1.0,-4.0,-6.0,-6.0,-1.0,9.0,-10.0
1.6951611403703434e+18,-5.0,7.0,6.0,5.0,-6.0,-1.0,4.0,-32.0
1.6951611403823352e+18,1.0,-11.0,-7.0,-3.0,-1.0,3.0,-3.0,15.0
1.6951611403823352e+18,-7.0,-20.0,-3.0,2.0,7.0,-1.0,4.0,1.0
1.6951611403913303e+18,-3.0,-2.0,-2.0,-4.0,-11.0,-5.0,-12.0,23.0
1.6951611403913303e+18,3.0,9.0,12.0,4.0,3.0,1.0,-2.0,-5.0
1.6951611404133197e+18,0.0,12.0,-6.0,-6.0,4.0,2.0,8.0,-1.0
1.6951611404133197e+18,-1.0,-9.0,4.0,-4.0,-6.0,-4.0,-3.0,-30.0
1.6951611404153165e+18,-1.0,-2.0,-2.0,-3.0,-9.0,-8.0,-4.0,-8.0
1.6951611404153165e+18,-4.0,-12.0,-3.0,8.0,9.0,3.0,-2.0,9.0
1.6951611404283315e+18,5.0,6.0,1.0,-2.0,1.0,5.0,10.0,16.0
1.6951611404283315e+18,7.0,13.0,1.0,-2.0,0.0,-4.0,-1.0,8.0
1.6951611404303084e+18,-7.0,-11.0,9.0,6.0,4.0,0.0,-5.0,-9.0
1.6951611404303084e+18,-1.0,4.0,10.0,5.0,5.0,-2.0,-2.0,-1.0
1.695161140451296e+18,-6.0,-27.0,-32.0,-7.0,-13.0,-10.0,-1.0,-11.0
1.695161140451296e+18,1.0,11.0,5.0,6.0,11.0,3.0,3.0,11.0
1.6951611404522957e+18,0.0,0.0,-15.0,-3.0,7.0,8.0,-4.0,-1.0
1.6951611404522957e+18,2.0,-2.0,7.0,3.0,-1.0,-2.0,6.0,9.0
1.6951611404672904e+18,1.0,7.0,-1.0,0.0,2.0,6.0,2.0,-22.0
1.6951611404672904e+18,-6.0,-5.0,-18.0,-17.0,-14.0,-11.0,-22.0,33.0
1.6951611404682875e+18,8.0,9.0,23.0,2.0,-3.0,-6.0,0.0,1.0
1.6951611404692905e+18,-10.0,-18.0,-12.0,-4.0,0.0,2.0,-2.0,13.0
1.6951611404882967e+18,1.0,10.0,5.0,2.0,-2.0,0.0,5.0,2.0
1.6951611404882967e+18,-4.0,7.0,14.0,4.0,4.0,0.0,3.0,-30.0
1.6951611404902738e+18,7.0,-2.0,-3.0,-1.0,-4.0,0.0,-7.0,7.0
1.6951611404902738e+18,2.0,-3.0,-13.0,3.0,6.0,1.0,3.0,1.0
1.695161140502267e+18,0.0,-5.0,30.0,-5.0,-8.0,-3.0,-4.0,19.0
1.695161140502267e+18,-2.0,9.0,0.0,-4.0,-8.0,0.0,-1.0,1.0
1.6951611405282522e+18,0.0,-5.0,-11.0,13.0,23.0,6.0,11.0,-10.0
1.6951611405282522e+18,-5.0,-2.0,22.0,-2.0,-4.0,-2.0,-3.0,-2.0
1.6951611405292595e+18,1.0,-2.0,-29.0,-14.0,-12.0,-5.0,-11.0,-16.0
1.6951611405292595e+18,0.0,11.0,18.0,17.0,13.0,1.0,1.0,-7.0
1.6951611405392458e+18,4.0,6.0,4.0,0.0,-2.0,0.0,4.0,5.0
1.6951611405402486e+18,9.0,-8.0,-8.0,6.0,2.0,4.0,-1.0,-9.0
1.6951611405642317e+18,-24.0,-4.0,10.0,-20.0,-8.0,-2.0,-1.0,0.0
1.6951611405642317e+18,12.0,-4.0,-23.0,-1.0,-9.0,2.0,3.0,5.0
1.695161140565233e+18,-7.0,-3.0,25.0,0.0,-9.0,-7.0,-5.0,-15.0
1.695161140565233e+18,-9.0,9.0,-10.0,3.0,12.0,0.0,-4.0,19.0
1.695161140566238e+18,4.0,3.0,13.0,0.0,-4.0,-2.0,-15.0,23.0
1.695161140566238e+18,-3.0,-16.0,7.0,0.0,0.0,0.0,4.0,7.0
1.6951611405832233e+18,-6.0,3.0,-10.0,5.0,-2.0,0.0,4.0,-5.0
1.6951611405832233e+18,-1.0,-9.0,-17.0,-9.0,-3.0,0.0,-1.0,-21.0
1.6951611405932155e+18,-6.0,15.0,3.0,4.0,3.0,-1.0,2.0,-18.0
1.6951611405932155e+18,3.0,-3.0,-7.0,-2.0,-10.0,-5.0,-3.0,-2.0
1.6951611405992105e+18,2.0,-6.0,2.0,-4.0,12.0,10.0,1.0,5.0
1.695161140600214e+18,1.0,-2.0,3.0,-5.0,-3.0,-2.0,0.0,-3.0
1.6951611406172137e+18,3.0,15.0,-13.0,2.0,3.0,-2.0,3.0,-2.0
1.6951611406192003e+18,-3.0,-2.0,-3.0,-5.0,-2.0,-2.0,-5.0,-1.0
1.6951611406201997e+18,-10.0,-9.0,-19.0,-7.0,-12.0,-5.0,-2.0,-17.0
1.6951611406201997e+18,3.0,8.0,40.0,1.0,5.0,1.0,-4.0,-3.0
1.6951611406391882e+18,1.0,-9.0,-1.0,13.0,2.0,2.0,-1.0,3.0
1.6951611406391882e+18,-4.0,-1.0,-8.0,-23.0,-3.0,-1.0,1.0,0.0
1.695161140640188e+18,-1.0,8.0,-14.0,-9.0,-11.0,-5.0,-4.0,17.0
1.6951611406411904e+18,-12.0,-12.0,0.0,-1.0,-5.0,-5.0,1.0,1.0
1.6951611406532027e+18,5.0,7.0,11.0,15.0,9.0,9.0,7.0,2.0
1.6951611406532027e+18,-1.0,2.0,4.0,7.0,8.0,3.0,3.0,-15.0
1.695161140655181e+18,14.0,-1.0,-14.0,-16.0,-7.0,-3.0,-2.0,23.0
1.695161140655181e+18,-17.0,-3.0,38.0,-4.0,-11.0,-8.0,0.0,0.0
1.695161140668194e+18,9.0,-4.0,-29.0,-1.0,2.0,-1.0,-7.0,-9.0
1.695161140668194e+18,-11.0,-5.0,-4.0,0.0,4.0,3.0,7.0,0.0
1.695161140670173e+18,9.0,12.0,6.0,2.0,-4.0,-9.0,-9.0,-9.0
1.695161140670173e+18,-3.0,-13.0,1.0,3.0,4.0,1.0,-1.0,-6.0
1.6951611406911583e+18,1.0,7.0,-8.0,1.0,3.0,-1.0,4.0,-8.0
1.6951611406911583e+18,-18.0,2.0,-5.0,4.0,3.0,5.0,-8.0,25.0
1.6951611406921628e+18,-8.0,-21.0,17.0,7.0,-3.0,-5.0,-8.0,-28.0
1.6951611406921628e+18,8.0,7.0,-23.0,-13.0,-8.0,1.0,5.0,28.0
1.6951611407061501e+18,-7.0,-3.0,16.0,-3.0,-2.0,-3.0,-1.0,-14.0
1.6951611407061501e+18,19.0,23.0,-9.0,-6.0,-8.0,-7.0,-3.0,-7.0
1.695161140707153e+18,-21.0,-30.0,10.0,11.0,10.0,9.0,4.0,11.0
1.695161140707153e+18,31.0,23.0,-53.0,-3.0,-2.0,0.0,3.0,7.0
1.6951611407291387e+18,-25.0,12.0,41.0,0.0,-4.0,-3.0,-5.0,-4.0
1.6951611407291387e+18,2.0,-31.0,54.0,-1.0,-2.0,-1.0,7.0,-46.0
1.6951611407301363e+18,6.0,15.0,-47.0,-5.0,0.0,-3.0,1.0,68.0
1.6951611407301363e+18,-7.0,2.0,-14.0,0.0,1.0,4.0,0.0,-45.0
1.695161140751124e+18,9.0,-13.0,-16.0,7.0,6.0,-3.0,-3.0,17.0
1.695161140751124e+18,13.0,40.0,21.0,0.0,3.0,6.0,5.0,9.0
1.6951611407571236e+18,-13.0,-12.0,-15.0,-9.0,-5.0,-1.0,8.0,-42.0
1.6951611407571236e+18,7.0,2.0,18.0,-4.0,-5.0,-5.0,-3.0,23.0
1.6951611407661153e+18,-4.0,-3.0,-29.0,-4.0,-6.0,-3.0,-12.0,-6.0
1.6951611407661153e+18,-6.0,-12.0,19.0,-3.0,-6.0,-4.0,-8.0,-5.0
1.695161140767125e+18,-10.0,-13.0,-20.0,6.0,16.0,3.0,0.0,-18.0
1.695161140767125e+18,-6.0,-2.0,-35.0,-4.0,-4.0,-2.0,5.0,3.0
1.6951611407881254e+18,21.0,16.0,39.0,5.0,9.0,3.0,-17.0,14.0
1.6951611407881254e+18,11.0,-2.0,-23.0,2.0,2.0,0.0,4.0,3.0
1.6951611407901046e+18,-10.0,8.0,8.0,-8.0,-13.0,-5.0,-4.0,-11.0
1.6951611407901046e+18,1.0,-8.0,19.0,1.0,5.0,0.0,2.0,-17.0
1.695161140802098e+18,-1.0,-13.0,-9.0,15.0,7.0,11.0,14.0,23.0
1.695161140802098e+18,-17.0,-8.0,-29.0,4.0,23.0,5.0,-12.0,3.0
1.695161140828083e+18,24.0,0.0,22.0,7.0,-7.0,2.0,10.0,12.0
1.695161140828083e+18,9.0,1.0,-2.0,-3.0,-3.0,-1.0,4.0,-25.0
1.6951611408290796e+18,-20.0,-2.0,-6.0,-7.0,-11.0,-8.0,-15.0,-7.0
1.6951611408290796e+18,4.0,-4.0,-30.0,-15.0,-10.0,-12.0,-19.0,-22.0
1.6951611408320801e+18,10.0,3.0,23.0,9.0,8.0,20.0,29.0,18.0
1.6951611408320801e+18,4.0,10.0,-10.0,-1.0,-1.0,-2.0,-20.0,-6.0
1.695161140856064e+18,6.0,-9.0,4.0,-3.0,-1.0,0.0,14.0,3.0
1.695161140856064e+18,18.0,0.0,3.0,8.0,-4.0,-4.0,1.0,2.0
1.6951611408570644e+18,2.0,-9.0,-18.0,-8.0,-5.0,-16.0,-35.0,-34.0
1.6951611408570644e+18,-34.0,-2.0,2.0,5.0,4.0,12.0,12.0,15.0
1.6951611408620639e+18,12.0,-4.0,-10.0,-7.0,-1.0,-2.0,2.0,-10.0
1.6951611408620639e+18,-13.0,-3.0,8.0,4.0,-1.0,-4.0,9.0,9.0
1.6951611408750538e+18,1.0,30.0,-9.0,-13.0,-10.0,0.0,13.0,-21.0
1.6951611408750538e+18,-12.0,-18.0,10.0,7.0,5.0,8.0,4.0,15.0
1.6951611408930458e+18,-8.0,-14.0,-2.0,-8.0,-5.0,-1.0,1.0,-4.0
1.6951611408940467e+18,18.0,0.0,0.0,3.0,0.0,5.0,3.0,18.0
1.6951611408950446e+18,3.0,19.0,14.0,7.0,5.0,-8.0,-20.0,19.0
1.6951611408950446e+18,-7.0,-17.0,11.0,1.0,-4.0,-11.0,-22.0,-12.0
1.6951611409160297e+18,-11.0,-19.0,9.0,2.0,1.0,10.0,25.0,-4.0
1.6951611409160297e+18,-7.0,15.0,1.0,-7.0,-5.0,-4.0,0.0,-2.0
1.6951611409170294e+18,-4.0,6.0,15.0,-2.0,-3.0,-4.0,-14.0,-1.0
1.6951611409180367e+18,4.0,-9.0,-23.0,9.0,8.0,6.0,1.0,7.0
1.6951611409220357e+18,8.0,15.0,4.0,-28.0,-18.0,-7.0,-6.0,4.0
1.6951611409220357e+18,-9.0,-4.0,14.0,18.0,5.0,3.0,0.0,15.0
1.6951611409310433e+18,-21.0,2.0,0.0,-5.0,3.0,6.0,18.0,-17.0
1.6951611409310433e+18,13.0,0.0,-10.0,1.0,1.0,-8.0,-22.0,3.0
1.6951611409450148e+18,-6.0,10.0,9.0,-3.0,-6.0,-8.0,-2.0,-28.0
1.6951611409450148e+18,-3.0,0.0,13.0,2.0,-1.0,1.0,-10.0,-5.0
1.6951611409520087e+18,-14.0,-13.0,-6.0,-5.0,-4.0,0.0,0.0,17.0
1.6951611409520087e+18,1.0,-7.0,3.0,-4.0,-8.0,-4.0,2.0,-3.0
1.6951611409690028e+18,23.0,9.0,-5.0,-3.0,-1.0,-3.0,-7.0,3.0
1.695161140972e+18,-5.0,-6.0,9.0,2.0,0.0,1.0,4.0,-32.0
1.695161140972999e+18,7.0,-18.0,-10.0,10.0,9.0,0.0,9.0,27.0
1.695161140972999e+18,10.0,25.0,5.0,-8.0,-9.0,-4.0,-5.0,8.0
1.695161140981994e+18,3.0,-4.0,5.0,-10.0,12.0,0.0,-6.0,-1.0
1.695161140981994e+18,-11.0,1.0,-9.0,-3.0,-21.0,-5.0,2.0,-5.0
1.695161140997983e+18,-2.0,-24.0,-17.0,-8.0,-6.0,0.0,2.0,-5.0
1.6951611409989824e+18,4.0,1.0,-15.0,16.0,27.0,17.0,16.0,7.0
1.69516114100698e+18,-10.0,2.0,16.0,-2.0,-8.0,-4.0,2.0,0.0
1.6951611410109778e+18,1.0,-1.0,15.0,-3.0,1.0,-2.0,-3.0,12.0
1.6951611410109778e+18,2.0,13.0,9.0,4.0,3.0,1.0,-2.0,-4.0
1.6951611410109778e+18,-3.0,0.0,2.0,-9.0,-20.0,-12.0,5.0,-9.0
1.6951611410279677e+18,-5.0,-16.0,-12.0,12.0,13.0,3.0,-11.0,5.0
1.6951611410289672e+18,-1.0,-7.0,1.0,-4.0,-6.0,4.0,4.0,11.0
1.6951611410299674e+18,3.0,3.0,18.0,-5.0,2.0,-1.0,-6.0,-7.0
1.6951611410299674e+18,-1.0,5.0,6.0,-10.0,-4.0,-1.0,3.0,-2.0
1.695161141043979e+18,-4.0,7.0,2.0,4.0,-12.0,-11.0,-2.0,3.0
1.695161141043979e+18,-2.0,-17.0,-35.0,-7.0,2.0,-2.0,-2.0,1.0
1.6951611410569713e+18,6.0,11.0,35.0,6.0,0.0,9.0,2.0,3.0
1.6951611410569713e+18,-1.0,1.0,1.0,-1.0,7.0,-8.0,-4.0,-2.0
1.6951611410649446e+18,-3.0,-4.0,-15.0,-4.0,-15.0,-12.0,-3.0,-2.0
1.6951611410659474e+18,-4.0,-2.0,7.0,-1.0,-6.0,11.0,-1.0,-4.0
1.6951611410739438e+18,3.0,3.0,-13.0,5.0,19.0,-2.0,3.0,-9.0
1.695161141078937e+18,-3.0,-16.0,-3.0,-25.0,-34.0,-9.0,-9.0,4.0
1.6951611410889326e+18,1.0,2.0,-3.0,22.0,19.0,7.0,3.0,-1.0
1.6951611410889326e+18,-4.0,-3.0,-20.0,-1.0,32.0,4.0,2.0,0.0
1.6951611410899336e+18,1.0,4.0,-9.0,-2.0,-16.0,9.0,2.0,2.0
1.6951611410899336e+18,-1.0,1.0,-6.0,2.0,-8.0,-3.0,-3.0,-5.0
1.6951611411109217e+18,-1.0,-3.0,3.0,-18.0,-24.0,-9.0,-1.0,1.0
1.6951611411109217e+18,-2.0,4.0,-2.0,16.0,25.0,-2.0,1.0,0.0
1.6951611411129183e+18,-1.0,-6.0,-9.0,-9.0,-7.0,-7.0,-5.0,-3.0
1.6951611411129183e+18,-2.0,1.0,2.0,5.0,1.0,-9.0,-4.0,-5.0
1.6951611411249124e+18,-1.0,-3.0,-16.0,-12.0,-13.0,2.0,2.0,-2.0
1.6951611411249124e+18,0.0,0.0,6.0,2.0,-4.0,-4.0,0.0,3.0
1.6951611411339075e+18,0.0,-1.0,-16.0,-5.0,1.0,3.0,-4.0,-1.0
1.6951611411339075e+18,-1.0,1.0,3.0,-6.0,1.0,3.0,3.0,1.0
1.6951611411548946e+18,-1.0,0.0,2.0,12.0,7.0,2.0,1.0,1.0
1.6951611411548946e+18,-1.0,1.0,3.0,0.0,-4.0,-4.0,-2.0,-2.0
1.6951611411548946e+18,-1.0,1.0,0.0,-2.0,-6.0,-9.0,-3.0,-1.0
1.6951611411548946e+18,-1.0,-4.0,-1.0,0.0,1.0,1.0,-2.0,-1.0
1.6951611411708833e+18,-1.0,2.0,-5.0,5.0,16.0,10.0,2.0,0.0
1.6951611411708833e+18,0.0,1.0,-5.0,-5.0,-14.0,-7.0,-1.0,2.0
1.6951611411718863e+18,1.0,-3.0,2.0,-3.0,-4.0,-1.0,-1.0,-1.0
1.695161141172894e+18,-1.0,1.0,-3.0,6.0,10.0,6.0,1.0,0.0
1.6951611412008686e+18,-1.0,0.0,-4.0,0.0,1.0,-2.0,-2.0,-2.0
1.6951611412008686e+18,-1.0,-1.0,0.0,-6.0,-12.0,-2.0,1.0,1.0
1.6951611412088637e+18,0.0,5.0,3.0,4.0,4.0,1.0,0.0,-1.0
1.6951611412088637e+18,-1.0,-3.0,4.0,3.0,4.0,0.0,0.0,0.0
1.6951611412098624e+18,-1.0,2.0,-6.0,-6.0,-4.0,-3.0,-1.0,0.0
1.6951611412098624e+18,1.0,5.0,-10.0,-5.0,-4.0,0.0,-1.0,-2.0
1.6951611412108639e+18,-1.0,-4.0,-2.0,1.0,2.0,-2.0,-2.0,-2.0
1.6951611412118717e+18,-1.0,1.0,2.0,-1.0,-2.0,-2.0,-1.0,-1.0
1.6951611412458632e+18,-2.0,1.0,-2.0,-2.0,0.0,1.0,-1.0,0.0
1.6951611412468452e+18,1.0,-4.0,-3.0,1.0,0.0,2.0,0.0,2.0
1.6951611412498417e+18,0.0,1.0,4.0,3.0,0.0,-3.0,-2.0,-1.0
1.6951611412498417e+18,-2.0,0.0,-5.0,0.0,0.0,1.0,-1.0,-1.0
1.6951611412868398e+18,-1.0,0.0,-11.0,-8.0,2.0,3.0,0.0,1.0
1.6951611412868398e+18,-1.0,2.0,16.0,1.0,-2.0,-2.0,-2.0,-2.0
1.6951611412878395e+18,-3.0,-4.0,4.0,6.0,-3.0,-4.0,-3.0,-1.0
1.6951611412878395e+18,-1.0,-1.0,2.0,1.0,1.0,0.0,-1.0,1.0
1.6951611412878395e+18,-1.0,1.0,8.0,16.0,8.0,3.0,0.0,-1.0
1.6951611412878395e+18,-1.0,-6.0,-16.0,-16.0,-4.0,-1.0,-2.0,-1.0
1.6951611413597757e+18,-1.0,-3.0,-4.0,-8.0,-4.0,-1.0,0.0,-1.0
1.6951611413597757e+18,-1.0,4.0,6.0,6.0,4.0,2.0,0.0,-1.0
1.6951611413597757e+18,-3.0,-6.0,-10.0,-8.0,-7.0,-4.0,-3.0,-1.0
1.6951611413607777e+18,2.0,0.0,-3.0,-6.0,-3.0,-2.0,-2.0,0.0
1.6951611413617976e+18,-1.0,-1.0,1.0,2.0,1.0,-3.0,-1.0,-1.0
1.6951611413617976e+18,-1.0,0.0,-4.0,-4.0,-1.0,-2.0,1.0,1.0
1.6951611413807805e+18,2.0,-1.0,4.0,-2.0,1.0,-2.0,-1.0,-1.0
1.6951611413807805e+18,-2.0,-1.0,-2.0,-5.0,-1.0,1.0,0.0,-1.0
1.6951611413817654e+18,1.0,0.0,0.0,1.0,-4.0,-2.0,-1.0,-2.0
1.6951611413817654e+18,0.0,0.0,-7.0,-7.0,0.0,-1.0,2.0,0.0
1.6951611413817654e+18,-1.0,-2.0,-6.0,-9.0,-2.0,1.0,-2.0,0.0
1.6951611413817654e+18,1.0,-1.0,-2.0,6.0,-2.0,-8.0,-5.0,-1.0
1.6951611413887816e+18,1.0,1.0,9.0,3.0,6.0,13.0,5.0,2.0
1.6951611413887816e+18,-1.0,0.0,-11.0,-16.0,-6.0,-2.0,0.0,-1.0
1.695161141389763e+18,-1.0,-1.0,4.0,12.0,0.0,0.0,2.0,1.0
1.695161141389763e+18,0.0,-1.0,-9.0,-11.0,1.0,-2.0,-2.0,0.0
1.6951611413917576e+18,-1.0,0.0,-4.0,6.0,-3.0,-6.0,-5.0,0.0
1.6951611413917576e+18,-1.0,-3.0,-6.0,-12.0,-3.0,-3.0,-2.0,-1.0
1.6951611414147674e+18,-1.0,1.0,5.0,1.0,-1.0,0.0,-1.0,1.0
1.6951611414147674e+18,0.0,0.0,1.0,2.0,-3.0,-1.0,-1.0,-2.0
1.6951611414147674e+18,-2.0,-3.0,0.0,5.0,-1.0,-2.0,-2.0,-2.0
1.6951611414147674e+18,-1.0,-2.0,2.0,6.0,-1.0,2.0,-1.0,-1.0
1.6951611414247386e+18,0.0,-1.0,-3.0,-10.0,0.0,-2.0,-2.0,-2.0
1.6951611414247386e+18,-1.0,-1.0,2.0,2.0,-1.0,2.0,1.0,0.0
1.6951611414337357e+18,-1.0,0.0,-3.0,-6.0,0.0,0.0,0.0,0.0
1.6951611414347338e+18,2.0,2.0,5.0,4.0,0.0,0.0,0.0,1.0
1.6951611414487283e+18,0.0,1.0,-7.0,-7.0,-1.0,-2.0,-3.0,-1.0
1.6951611414487283e+18,-1.0,-3.0,1.0,5.0,3.0,5.0,2.0,1.0
1.695161141449727e+18,-2.0,-4.0,-2.0,-2.0,-2.0,0.0,1.0,0.0
1.695161141449727e+18,-2.0,-2.0,0.0,1.0,-2.0,-2.0,-1.0,-1.0
1.6951611414707346e+18,-1.0,-1.0,2.0,-3.0,-1.0,-4.0,-3.0,-3.0
1.6951611414707346e+18,-2.0,-1.0,3.0,4.0,-3.0,-2.0,-1.0,-2.0
1.6951611414727122e+18,-1.0,0.0,-5.0,-6.0,-2.0,-4.0,0.0,0.0
1.6951611414727122e+18,0.0,0.0,1.0,-1.0,-2.0,-1.0,-3.0,0.0
1.6951611414847053e+18,-2.0,-1.0,0.0,1.0,0.0,-2.0,-1.0,0.0
1.6951611414847053e+18,-3.0,0.0,1.0,4.0,2.0,-1.0,0.0,0.0
1.6951611414937e+18,-1.0,-2.0,0.0,-3.0,1.0,4.0,1.0,0.0
1.6951611414937e+18,0.0,1.0,2.0,0.0,1.0,1.0,-1.0,-1.0
1.6951611415086907e+18,-2.0,-1.0,2.0,1.0,0.0,0.0,-1.0,-1.0
1.695161141509692e+18,0.0,0.0,0.0,0.0,-4.0,-3.0,-1.0,-2.0
1.695161141509692e+18,-2.0,-1.0,-5.0,-6.0,-4.0,-4.0,-1.0,-1.0
1.6951611415106908e+18,0.0,-1.0,-1.0,-1.0,1.0,-2.0,0.0,0.0
1.6951611415386734e+18,1.0,-1.0,2.0,1.0,-1.0,0.0,1.0,1.0
1.6951611415386734e+18,-1.0,-2.0,2.0,1.0,0.0,-1.0,1.0,0.0
1.6951611415396754e+18,-2.0,0.0,-2.0,-4.0,-1.0,1.0,-1.0,0.0
1.6951611415396754e+18,-1.0,0.0,0.0,0.0,1.0,0.0,1.0,1.0
1.6951611415536648e+18,0.0,1.0,0.0,2.0,2.0,-8.0,1.0,0.0
1.6951611415536648e+18,1.0,-1.0,-1.0,1.0,-1.0,5.0,-2.0,0.0
1.6951611415546673e+18,0.0,-2.0,-1.0,-2.0,-5.0,-2.0,0.0,-3.0
1.6951611415546673e+18,-1.0,0.0,-1.0,-1.0,-1.0,-2.0,-3.0,-2.0
1.695161141568657e+18,-1.0,-2.0,-1.0,-1.0,1.0,-3.0,-1.0,-1.0
1.695161141568657e+18,-2.0,-1.0,1.0,2.0,-2.0,5.0,2.0,2.0
1.695161141569656e+18,0.0,0.0,-1.0,-1.0,3.0,-2.0,0.0,0.0
1.695161141570656e+18,0.0,-1.0,0.0,-1.0,-3.0,1.0,-1.0,0.0
1.6951611415906655e+18,-2.0,-2.0,-2.0,0.0,-2.0,-2.0,-2.0,-1.0
1.6951611415906655e+18,-1.0,0.0,-2.0,-3.0,-2.0,-3.0,-2.0,-3.0
1.6951611415926449e+18,-1.0,-2.0,-2.0,-1.0,-3.0,-2.0,-4.0,-1.0
1.6951611415926449e+18,-1.0,-2.0,-1.0,1.0,0.0,-1.0,0.0,-1.0
1.6951611416046362e+18,0.0,0.0,-1.0,-1.0,1.0,2.0,1.0,0.0
1.6951611416046362e+18,0.0,-1.0,0.0,-1.0,-1.0,-3.0,-1.0,-1.0
1.695161141619628e+18,0.0,0.0,0.0,-2.0,2.0,-2.0,-2.0,-1.0
1.695161141619628e+18,0.0,0.0,0.0,0.0,-2.0,-3.0,-2.0,-2.0
1.6951611416286218e+18,0.0,-1.0,0.0,-2.0,0.0,3.0,-1.0,-1.0
1.6951611416286218e+18,-1.0,-1.0,-2.0,-2.0,1.0,0.0,0.0,-2.0
1.6951611416296215e+18,0.0,-1.0,-3.0,-1.0,-2.0,-3.0,-1.0,-1.0
1.6951611416296215e+18,-1.0,-1.0,0.0,1.0,1.0,1.0,0.0,-1.0
1.6951611416526085e+18,-1.0,-2.0,1.0,-1.0,0.0,3.0,0.0,-1.0
1.6951611416536108e+18,-1.0,1.0,0.0,1.0,-1.0,-3.0,0.0,1.0
1.6951611416536108e+18,0.0,-2.0,0.0,-2.0,-2.0,-3.0,-2.0,0.0
1.6951611416536108e+18,-1.0,-1.0,-1.0,-2.0,-1.0,-1.0,0.0,1.0
1.6951611416735956e+18,-1.0,1.0,0.0,1.0,-4.0,1.0,0.0,-2.0
1.6951611416735956e+18,0.0,-2.0,1.0,0.0,0.0,0.0,-2.0,0.0
1.6951611416745956e+18,-2.0,-1.0,0.0,-3.0,-2.0,0.0,0.0,-1.0
1.6951611416745956e+18,0.0,-1.0,-2.0,-2.0,-1.0,0.0,-1.0,0.0
1.6951611416885893e+18,-2.0,0.0,0.0,0.0,0.0,0.0,-1.0,0.0
1.6951611416885893e+18,-2.0,-3.0,-1.0,-1.0,-1.0,-2.0,-2.0,-1.0
1.695161141689589e+18,-3.0,0.0,-1.0,-1.0,-1.0,0.0,-1.0,0.0
1.695161141690587e+18,-1.0,-3.0,-1.0,-2.0,1.0,-2.0,-1.0,-2.0
1.695161141711577e+18,-1.0,0.0,-2.0,-1.0,2.0,0.0,0.0,-1.0
1.6951611417155896e+18,-2.0,-1.0,-1.0,1.0,0.0,-2.0,-1.0,0.0
1.6951611417155896e+18,-1.0,-1.0,-1.0,1.0,-2.0,-1.0,-1.0,-1.0
1.6951611417165942e+18,-1.0,0.0,-2.0,-1.0,-2.0,-1.0,-1.0,0.0
1.695161141724569e+18,-1.0,0.0,0.0,-1.0,-1.0,2.0,0.0,1.0
1.695161141724569e+18,1.0,-1.0,-2.0,-2.0,0.0,-1.0,-2.0,-2.0
1.6951611417335644e+18,-1.0,-1.0,0.0,-2.0,1.0,0.0,0.0,-2.0
1.6951611417335644e+18,0.0,0.0,0.0,1.0,-2.0,-1.0,-1.0,-1.0
1.6951611417485545e+18,1.0,-1.0,-1.0,-3.0,-1.0,0.0,-1.0,-2.0
1.6951611417485545e+18,-1.0,-2.0,-1.0,-1.0,0.0,0.0,0.0,1.0
1.6951611417495534e+18,1.0,8.0,-6.0,-4.0,-4.0,-3.0,-4.0,0.0
1.695161141750553e+18,-5.0,0.0,-3.0,1.0,0.0,-1.0,2.0,-2.0
1.6951611417705628e+18,4.0,6.0,1.0,-3.0,-4.0,-3.0,-1.0,0.0
1.6951611417715402e+18,-2.0,-1.0,-3.0,-1.0,1.0,-2.0,0.0,-3.0
1.6951611417725417e+18,2.0,8.0,-13.0,-7.0,-7.0,-4.0,-3.0,-4.0
1.6951611417725417e+18,-3.0,-15.0,7.0,4.0,4.0,3.0,2.0,1.0
1.6951611417845555e+18,-2.0,-2.0,-5.0,-1.0,0.0,-1.0,-2.0,-2.0
1.6951611417845555e+18,0.0,1.0,-3.0,-3.0,-2.0,0.0,-1.0,0.0
1.6951611417935306e+18,-6.0,-8.0,2.0,2.0,3.0,1.0,2.0,1.0
1.6951611417935306e+18,4.0,7.0,-5.0,-3.0,-5.0,-2.0,-3.0,0.0
1.6951611418077496e+18,-3.0,-8.0,-3.0,-2.0,-2.0,0.0,0.0,0.0
1.6951611418077496e+18,-1.0,-6.0,-3.0,1.0,0.0,0.0,0.0,-2.0
1.6951611418145956e+18,-5.0,-3.0,4.0,4.0,5.0,2.0,1.0,-2.0
1.6951611418145956e+18,-1.0,-16.0,3.0,3.0,2.0,2.0,0.0,-1.0
1.695161141830573e+18,-1.0,-2.0,4.0,3.0,1.0,1.0,0.0,1.0
1.695161141830573e+18,0.0,3.0,-4.0,-6.0,-4.0,-4.0,-4.0,1.0
1.695161141832572e+18,3.0,14.0,-9.0,-5.0,-6.0,-4.0,-4.0,-2.0
1.695161141832572e+18,-5.0,-5.0,0.0,2.0,2.0,1.0,1.0,-1.0
1.6951611418445668e+18,2.0,18.0,-20.0,-12.0,-9.0,-7.0,-3.0,-2.0
1.6951611418445668e+18,5.0,15.0,-6.0,-3.0,-1.0,-1.0,-3.0,-1.0
1.695161141853561e+18,-2.0,-4.0,-10.0,-4.0,-4.0,-1.0,0.0,-2.0
1.695161141853561e+18,1.0,10.0,1.0,-3.0,1.0,-2.0,-2.0,-1.0
1.6951611418675538e+18,-1.0,-4.0,-9.0,-5.0,-3.0,-3.0,-2.0,-2.0
1.6951611418685522e+18,0.0,16.0,-19.0,-7.0,-6.0,-2.0,-2.0,-1.0
1.695161141874549e+18,3.0,18.0,-27.0,-11.0,-8.0,-6.0,-5.0,-3.0
1.695161141874549e+18,4.0,-4.0,12.0,3.0,1.0,2.0,1.0,1.0
1.6951611418905603e+18,8.0,7.0,-1.0,-2.0,0.0,1.0,0.0,0.0
1.6951611418905603e+18,-2.0,1.0,-1.0,0.0,-1.0,-1.0,-1.0,-2.0
1.6951611418925376e+18,0.0,-3.0,6.0,1.0,1.0,0.0,-1.0,0.0
1.6951611418925376e+18,-3.0,-2.0,-5.0,-2.0,-3.0,-2.0,-1.0,-2.0
1.6951611419045535e+18,0.0,0.0,1.0,0.0,0.0,0.0,-2.0,-1.0
1.6951611419045535e+18,2.0,-16.0,9.0,1.0,-1.0,-1.0,2.0,1.0
1.695161141913525e+18,-5.0,-15.0,14.0,9.0,6.0,4.0,2.0,-1.0
1.695161141913525e+18,-1.0,4.0,-2.0,-2.0,-2.0,-2.0,-2.0,0.0
1.6951611419285258e+18,-1.0,-11.0,10.0,5.0,4.0,-1.0,1.0,1.0
1.6951611419285258e+18,0.0,2.0,4.0,0.0,0.0,-1.0,1.0,-1.0
1.6951611419435955e+18,-1.0,-6.0,6.0,3.0,2.0,-2.0,1.0,1.0
1.6951611419435955e+18,-2.0,15.0,-23.0,-10.0,-9.0,-7.0,-3.0,-3.0
1.695161141951524e+18,-7.0,-22.0,18.0,8.0,4.0,4.0,1.0,-1.0
1.695161141951524e+18,-3.0,-8.0,7.0,3.0,2.0,1.0,0.0,0.0
1.695161141952586e+18,4.0,6.0,-3.0,-4.0,-2.0,-2.0,0.0,0.0
1.695161141952586e+18,-2.0,-3.0,1.0,0.0,2.0,0.0,1.0,-1.0
1.6951611419644268e+18,0.0,4.0,-5.0,0.0,-1.0,-1.0,2.0,0.0
1.6951611419644268e+18,0.0,-5.0,3.0,3.0,0.0,-2.0,0.0,-3.0
1.6951611419875264e+18,-2.0,-14.0,11.0,3.0,5.0,1.0,-1.0,-2.0
1.6951611419875264e+18,0.0,2.0,-4.0,-3.0,-4.0,0.0,0.0,0.0
1.6951611420035907e+18,-4.0,-2.0,-2.0,1.0,-1.0,1.0,-2.0,0.0
1.6951611420035907e+18,-3.0,-5.0,3.0,1.0,1.0,-1.0,0.0,0.0
1.6951611420045896e+18,1.0,1.0,1.0,0.0,-1.0,-1.0,-2.0,0.0
1.6951611420045896e+18,-1.0,-5.0,2.0,-1.0,-1.0,-1.0,0.0,-1.0
1.6951611420185144e+18,-2.0,-2.0,0.0,2.0,2.0,1.0,0.0,-2.0
1.6951611420185144e+18,0.0,-2.0,-3.0,-2.0,-2.0,0.0,-1.0,0.0
1.6951611420205184e+18,-1.0,-3.0,2.0,0.0,0.0,-1.0,0.0,0.0
1.6951611420205184e+18,0.0,-1.0,2.0,0.0,1.0,-1.0,-1.0,2.0
1.6951611420325906e+18,-3.0,-3.0,0.0,0.0,-1.0,-1.0,0.0,-1.0
1.6951611420325906e+18,-1.0,-1.0,0.0,-1.0,0.0,1.0,0.0,-3.0
1.6951611420574886e+18,-2.0,3.0,-1.0,-1.0,0.0,-2.0,0.0,-3.0
1.6951611420574886e+18,0.0,-1.0,-1.0,1.0,1.0,-2.0,-1.0,0.0
1.6951611420584865e+18,-1.0,4.0,-5.0,-2.0,-1.0,-2.0,-1.0,-1.0
1.6951611420584865e+18,-3.0,-8.0,4.0,3.0,2.0,0.0,-1.0,0.0
1.695161142059487e+18,0.0,-4.0,2.0,1.0,0.0,0.0,0.0,-1.0
1.695161142059487e+18,1.0,3.0,-3.0,-4.0,-4.0,-1.0,-2.0,-2.0
1.6951611420785518e+18,0.0,-1.0,6.0,0.0,0.0,1.0,0.0,0.0
1.6951611420795448e+18,0.0,3.0,-7.0,-4.0,-2.0,-2.0,-1.0,0.0
1.695161142080545e+18,-3.0,-3.0,2.0,0.0,0.0,0.0,0.0,-2.0
1.695161142081552e+18,0.0,-6.0,2.0,0.0,1.0,0.0,0.0,0.0
1.6951611421195226e+18,1.0,8.0,-7.0,-6.0,-2.0,-3.0,-3.0,-1.0
1.695161142121529e+18,-8.0,-18.0,12.0,8.0,6.0,2.0,0.0,0.0
1.695161142122521e+18,-1.0,1.0,-2.0,-1.0,-3.0,-2.0,-1.0,0.0
1.695161142122521e+18,0.0,2.0,0.0,-2.0,-2.0,0.0,-2.0,-1.0
1.695161142122521e+18,0.0,-4.0,-1.0,0.0,0.0,-2.0,-1.0,-2.0
1.6951611421235197e+18,0.0,2.0,-3.0,0.0,0.0,-2.0,-1.0,-3.0
1.695161142134514e+18,4.0,7.0,-6.0,-4.0,-4.0,-2.0,-1.0,2.0
1.695161142135513e+18,-2.0,-4.0,5.0,3.0,2.0,0.0,0.0,-1.0
1.695161142135513e+18,-1.0,4.0,-4.0,-1.0,-2.0,-1.0,1.0,-1.0
1.6951611421365153e+18,2.0,4.0,-1.0,-3.0,-2.0,0.0,0.0,0.0
1.6951611421375124e+18,-1.0,-4.0,3.0,-1.0,0.0,3.0,0.0,0.0
1.6951611421375124e+18,-1.0,3.0,-4.0,-2.0,-2.0,-1.0,-1.0,-1.0
1.695161142155503e+18,-1.0,1.0,-3.0,-2.0,-2.0,0.0,-1.0,-1.0
1.6951611421565012e+18,0.0,1.0,-1.0,-2.0,-3.0,-2.0,-3.0,0.0
1.6951611421565012e+18,-3.0,-6.0,3.0,1.0,1.0,0.0,0.0,0.0
1.6951611421565012e+18,0.0,-3.0,-3.0,-2.0,-4.0,-2.0,1.0,-1.0
1.6951611421684936e+18,-2.0,-3.0,-1.0,-1.0,1.0,-1.0,0.0,-1.0
1.6951611421694932e+18,-1.0,0.0,0.0,0.0,0.0,0.0,-1.0,-1.0
1.6951611421944783e+18,-1.0,-3.0,-1.0,0.0,-2.0,-2.0,-1.0,0.0
1.6951611421954783e+18,0.0,3.0,-5.0,-3.0,0.0,-3.0,-1.0,0.0
1.6951611421954783e+18,-3.0,-4.0,0.0,1.0,1.0,1.0,-1.0,0.0
1.6951611421964836e+18,0.0,1.0,-4.0,-3.0,-1.0,-2.0,1.0,-2.0
1.6951611422054753e+18,0.0,0.0,-2.0,-2.0,-1.0,-3.0,-1.0,-2.0
1.6951611422054753e+18,2.0,2.0,-2.0,1.0,0.0,-2.0,-2.0,0.0
1.6951611422134687e+18,0.0,-2.0,-2.0,-1.0,-2.0,1.0,2.0,2.0
1.6951611422134687e+18,0.0,-1.0,-2.0,-4.0,2.0,1.0,0.0,2.0
1.695161142221464e+18,-4.0,-5.0,4.0,3.0,3.0,1.0,2.0,1.0
1.695161142222463e+18,0.0,-1.0,2.0,2.0,3.0,0.0,2.0,0.0
1.695161142228459e+18,2.0,1.0,2.0,-1.0,2.0,0.0,0.0,-1.0
1.6951611422294584e+18,-1.0,1.0,1.0,0.0,-3.0,0.0,0.0,-1.0
1.695161142256447e+18,1.0,-1.0,2.0,0.0,0.0,-1.0,1.0,1.0
1.695161142256447e+18,-4.0,1.0,-3.0,0.0,1.0,1.0,-2.0,-1.0
1.6951611422584428e+18,-2.0,1.0,1.0,0.0,-1.0,-1.0,0.0,-1.0
1.6951611422594445e+18,0.0,8.0,-7.0,-4.0,0.0,-2.0,-2.0,-2.0
1.6951611422744407e+18,1.0,-4.0,1.0,1.0,0.0,0.0,0.0,-1.0
1.6951611422754327e+18,0.0,-1.0,-1.0,-1.0,-1.0,0.0,1.0,1.0
1.6951611422754327e+18,-1.0,-1.0,-1.0,-1.0,0.0,-1.0,-1.0,2.0
1.695161142276433e+18,0.0,1.0,0.0,-1.0,-2.0,1.0,1.0,-2.0
1.6951611422774318e+18,0.0,1.0,-1.0,0.0,-1.0,0.0,-2.0,-1.0
1.6951611422774318e+18,-1.0,1.0,0.0,-4.0,0.0,0.0,-1.0,-1.0
1.695161142289425e+18,-4.0,-4.0,1.0,0.0,1.0,0.0,-2.0,-1.0
1.6951611422904312e+18,-1.0,-2.0,2.0,1.0,1.0,-1.0,-1.0,-1.0
1.6951611423024166e+18,-1.0,3.0,-1.0,-2.0,0.0,0.0,-1.0,1.0
1.6951611423034163e+18,0.0,0.0,0.0,-1.0,-2.0,-1.0,0.0,-1.0
1.695161142318407e+18,1.0,1.0,3.0,-1.0,0.0,-1.0,-2.0,0.0
1.6951611423194076e+18,-2.0,-3.0,1.0,0.0,-1.0,0.0,-1.0,-1.0
1.6951611423204068e+18,0.0,-1.0,1.0,0.0,1.0,-1.0,1.0,-1.0
1.695161142321421e+18,-1.0,0.0,-1.0,-2.0,1.0,2.0,-1.0,-1.0
1.6951611423334052e+18,0.0,0.0,-3.0,-2.0,-1.0,-1.0,0.0,-2.0
1.6951611423343995e+18,1.0,-2.0,1.0,1.0,0.0,-2.0,0.0,0.0
1.6951611423353987e+18,0.0,0.0,-1.0,0.0,-2.0,-1.0,1.0,-1.0
1.6951611423353987e+18,-1.0,-3.0,1.0,0.0,-3.0,0.0,-1.0,0.0
1.6951611423483912e+18,-1.0,-2.0,-1.0,-1.0,-2.0,-1.0,-1.0,-1.0
1.6951611423493906e+18,0.0,-2.0,-1.0,0.0,-2.0,0.0,-1.0,2.0
1.695161142355386e+18,-1.0,-2.0,-1.0,-2.0,-1.0,-1.0,-2.0,0.0
1.695161142355386e+18,-2.0,-2.0,1.0,-1.0,-1.0,0.0,0.0,-2.0
1.6951611423723768e+18,-2.0,-2.0,-1.0,-1.0,-1.0,-2.0,-2.0,0.0
1.695161142383371e+18,-1.0,-1.0,-1.0,-1.0,-1.0,1.0,-1.0,-1.0
1.695161142383371e+18,-1.0,1.0,-2.0,-2.0,-3.0,-1.0,0.0,-1.0
1.695161142383371e+18,-2.0,-1.0,-4.0,-1.0,0.0,-1.0,-1.0,-1.0
1.6951611423943644e+18,2.0,6.0,-3.0,-2.0,-1.0,-1.0,-1.0,-1.0
1.6951611423953646e+18,0.0,-1.0,-1.0,1.0,2.0,-1.0,0.0,-2.0
1.6951611423953646e+18,-2.0,-3.0,-1.0,-2.0,-1.0,-1.0,-2.0,1.0
1.6951611423963656e+18,-1.0,1.0,0.0,0.0,-4.0,-2.0,-1.0,0.0
1.6951611424093555e+18,1.0,-1.0,3.0,2.0,1.0,-1.0,-1.0,1.0
1.6951611424103598e+18,0.0,-1.0,-2.0,-1.0,0.0,-1.0,0.0,0.0
1.6951611424153533e+18,-1.0,-2.0,0.0,-2.0,-1.0,-1.0,-1.0,-1.0
1.6951611424153533e+18,0.0,-1.0,-1.0,-1.0,0.0,0.0,-1.0,1.0
1.6951611424313505e+18,0.0,-2.0,0.0,-1.0,-2.0,1.0,0.0,-1.0
1.6951611424323443e+18,-2.0,0.0,-1.0,0.0,-1.0,1.0,0.0,0.0
1.6951611424333432e+18,1.0,-2.0,0.0,1.0,0.0,-1.0,-2.0,-2.0
1.6951611424333432e+18,0.0,0.0,-1.0,-2.0,0.0,-2.0,0.0,0.0
1.6951611424543311e+18,-1.0,-2.0,-1.0,-1.0,0.0,-2.0,1.0,-2.0
1.69516114245533e+18,1.0,2.0,-2.0,-1.0,-1.0,-2.0,0.0,1.0
1.69516114245533e+18,1.0,1.0,-2.0,-3.0,-2.0,-2.0,0.0,-2.0
1.6951611424563292e+18,-2.0,-2.0,0.0,-1.0,0.0,-1.0,-2.0,1.0
1.695161142468321e+18,-1.0,-1.0,0.0,0.0,0.0,2.0,1.0,-2.0
1.695161142468321e+18,-1.0,0.0,1.0,-2.0,-3.0,-1.0,-2.0,0.0
1.695161142478321e+18,-1.0,-2.0,-1.0,1.0,-1.0,0.0,-1.0,1.0
1.6951611424833175e+18,-1.0,-1.0,0.0,-1.0,-1.0,0.0,0.0,-2.0
1.6951611424993034e+18,-1.0,0.0,0.0,-1.0,-1.0,1.0,-1.0,-1.0
1.6951611425003036e+18,0.0,-1.0,-1.0,0.0,0.0,-1.0,-1.0,-1.0
1.6951611425003036e+18,-1.0,-2.0,2.0,2.0,1.0,0.0,1.0,-1.0
1.6951611425003036e+18,-1.0,-1.0,-3.0,-1.0,0.0,1.0,0.0,-1.0
1.69516114251332e+18,-2.0,1.0,-1.0,-2.0,-1.0,-1.0,-1.0,0.0
1.6951611425143014e+18,-1.0,-3.0,0.0,-1.0,-1.0,-1.0,0.0,-2.0
1.6951611425152945e+18,-3.0,-2.0,1.0,0.0,0.0,-1.0,-1.0,0.0
1.6951611425152945e+18,0.0,-1.0,0.0,-1.0,-2.0,-2.0,-1.0,-1.0
1.6951611425272868e+18,-2.0,-3.0,2.0,0.0,1.0,1.0,1.0,-1.0
1.6951611425272868e+18,0.0,1.0,-1.0,-2.0,-2.0,-1.0,0.0,0.0
1.695161142536286e+18,-2.0,-2.0,0.0,-2.0,-1.0,0.0,-1.0,-1.0
1.695161142536286e+18,0.0,0.0,0.0,0.0,-1.0,-2.0,0.0,-2.0
1.6951611425602698e+18,-1.0,-3.0,2.0,-1.0,-2.0,-2.0,-2.0,1.0
1.6951611425602698e+18,0.0,0.0,1.0,-1.0,1.0,-2.0,-1.0,-1.0
1.695161142561269e+18,-2.0,-4.0,-2.0,2.0,2.0,0.0,-1.0,0.0
1.695161142561269e+18,-3.0,-1.0,-2.0,0.0,0.0,-1.0,-1.0,-2.0
1.6951611425732854e+18,-2.0,-4.0,-1.0,-2.0,-1.0,-1.0,-1.0,-3.0
1.6951611425742597e+18,-2.0,-3.0,-1.0,0.0,-1.0,0.0,0.0,-1.0
1.695161142575264e+18,1.0,0.0,-2.0,-1.0,-2.0,-2.0,0.0,-1.0
1.695161142575264e+18,-1.0,-1.0,-5.0,-1.0,0.0,0.0,0.0,-1.0
1.6951611425872566e+18,1.0,1.0,-2.0,-3.0,-2.0,-1.0,0.0,-3.0
1.6951611425872566e+18,-2.0,0.0,-1.0,-2.0,-1.0,0.0,0.0,0.0
1.6951611425962478e+18,0.0,-1.0,-1.0,1.0,0.0,0.0,0.0,-1.0
1.6951611425972467e+18,2.0,-1.0,3.0,1.0,1.0,1.0,-1.0,1.0
1.6951611426112394e+18,-1.0,0.0,0.0,-1.0,-1.0,-2.0,-2.0,-2.0
1.695161142612239e+18,-1.0,-3.0,-1.0,-1.0,-1.0,0.0,-1.0,-1.0
1.6951611426132383e+18,-1.0,-1.0,-2.0,-2.0,-1.0,0.0,-3.0,-2.0
1.6951611426132383e+18,0.0,1.0,1.0,1.0,0.0,-1.0,0.0,-3.0
1.695161142633251e+18,1.0,-4.0,4.0,1.0,-1.0,0.0,0.0,1.0
1.6951611426342254e+18,-1.0,-1.0,1.0,0.0,0.0,-1.0,-1.0,-1.0
1.695161142635226e+18,-1.0,0.0,-1.0,-2.0,-2.0,1.0,-1.0,-1.0
1.695161142635226e+18,0.0,-1.0,1.0,-2.0,-1.0,0.0,0.0,1.0
1.6951611426482196e+18,-2.0,2.0,-3.0,0.0,-1.0,0.0,0.0,-1.0
1.6951611426482196e+18,-2.0,-1.0,-3.0,-1.0,0.0,-2.0,-1.0,0.0
1.695161142663209e+18,0.0,-2.0,1.0,-1.0,0.0,-1.0,-2.0,0.0
1.6951611426642084e+18,0.0,3.0,-2.0,-3.0,-1.0,-2.0,-2.0,-2.0
1.695161142671204e+18,-1.0,-3.0,-1.0,1.0,-1.0,-3.0,0.0,1.0
1.695161142671204e+18,-2.0,1.0,-2.0,-1.0,0.0,-1.0,0.0,-1.0
1.695161142672209e+18,0.0,0.0,-2.0,0.0,-2.0,-2.0,1.0,-2.0
1.6951611426732035e+18,-2.0,-2.0,0.0,-1.0,0.0,0.0,-2.0,0.0
1.6951611427101832e+18,0.0,1.0,-2.0,-1.0,-2.0,0.0,0.0,0.0
1.6951611427101832e+18,1.0,-1.0,0.0,0.0,-2.0,0.0,-3.0,-2.0
1.695161142711182e+18,-2.0,0.0,1.0,-3.0,0.0,-1.0,-2.0,0.0
1.695161142711182e+18,-1.0,-1.0,-1.0,-1.0,1.0,0.0,0.0,0.0
1.695161142712182e+18,-1.0,1.0,-3.0,-2.0,-1.0,-2.0,-2.0,-1.0
1.695161142712182e+18,0.0,-1.0,0.0,-2.0,0.0,0.0,0.0,-1.0
1.695161142723175e+18,-2.0,1.0,-1.0,-1.0,-1.0,0.0,-1.0,0.0
1.695161142724174e+18,-1.0,-1.0,0.0,2.0,-2.0,0.0,-1.0,0.0
1.6951611427381652e+18,1.0,0.0,-4.0,-1.0,0.0,-1.0,-2.0,-1.0
1.6951611427391698e+18,2.0,-1.0,-2.0,1.0,-2.0,-1.0,1.0,-1.0
1.695161142744162e+18,0.0,0.0,0.0,0.0,-1.0,1.0,0.0,0.0
1.695161142745165e+18,-1.0,-2.0,0.0,-2.0,-4.0,-1.0,-1.0,-1.0
1.6951611427651564e+18,-2.0,-1.0,-3.0,-2.0,-4.0,-2.0,-1.0,0.0
1.6951611427711532e+18,-1.0,2.0,0.0,0.0,2.0,-2.0,-3.0,0.0
1.6951611427721528e+18,-1.0,-3.0,0.0,-2.0,-2.0,-1.0,1.0,0.0
1.6951611427721528e+18,-1.0,-1.0,-1.0,0.0,-1.0,-2.0,0.0,0.0
1.69516114278414e+18,-1.0,-2.0,3.0,2.0,-1.0,2.0,-1.0,-2.0
1.6951611427851412e+18,-1.0,-2.0,-1.0,-2.0,-4.0,-3.0,0.0,0.0
1.6951611427851412e+18,-1.0,0.0,-2.0,-2.0,0.0,-2.0,-1.0,-1.0
1.6951611427861512e+18,0.0,0.0,-2.0,-3.0,-3.0,-2.0,-3.0,-3.0
1.6951611427981563e+18,0.0,1.0,-2.0,-1.0,-1.0,-2.0,-4.0,-2.0
1.6951611427991316e+18,-2.0,-2.0,-1.0,1.0,2.0,0.0,2.0,1.0
1.695161142800131e+18,-1.0,0.0,-1.0,1.0,0.0,0.0,2.0,0.0
1.695161142800131e+18,-2.0,-2.0,3.0,-4.0,-7.0,-6.0,0.0,0.0
1.6951611428371354e+18,-3.0,-3.0,-15.0,-6.0,-4.0,-2.0,-6.0,-4.0
1.6951611428381087e+18,3.0,3.0,3.0,2.0,-5.0,-11.0,-3.0,1.0
1.6951611428401085e+18,-2.0,0.0,0.0,-1.0,-1.0,2.0,2.0,1.0
1.6951611428411082e+18,0.0,-2.0,4.0,3.0,13.0,25.0,4.0,4.0
1.6951611428411082e+18,1.0,1.0,3.0,3.0,5.0,-3.0,0.0,1.0
1.6951611428411082e+18,-3.0,-5.0,-7.0,-1.0,-3.0,1.0,-1.0,-1.0
1.6951611428760876e+18,-1.0,2.0,5.0,-12.0,-10.0,-14.0,-6.0,-3.0
1.6951611428760876e+18,-1.0,0.0,1.0,-5.0,-14.0,-12.0,-5.0,-3.0
1.6951611428770918e+18,0.0,-1.0,-1.0,3.0,-1.0,2.0,0.0,0.0
1.6951611428770918e+18,-1.0,-1.0,-1.0,-1.0,-1.0,-3.0,-5.0,-3.0
1.6951611428950756e+18,2.0,0.0,5.0,4.0,0.0,-2.0,2.0,10.0
1.6951611428950756e+18,-5.0,-8.0,-16.0,-4.0,-5.0,-3.0,-2.0,-3.0
1.6951611429120673e+18,1.0,6.0,4.0,-2.0,-1.0,6.0,2.0,-14.0
1.6951611429120673e+18,-2.0,1.0,9.0,16.0,20.0,7.0,2.0,-2.0
1.695161142914065e+18,-1.0,-5.0,-4.0,-1.0,-7.0,-9.0,-2.0,12.0
1.695161142914065e+18,-1.0,0.0,-4.0,-1.0,3.0,0.0,-2.0,-1.0
1.6951611429260575e+18,1.0,5.0,0.0,8.0,5.0,4.0,-2.0,-5.0
1.6951611429270597e+18,-6.0,-10.0,-3.0,-3.0,-3.0,-6.0,4.0,1.0
1.6951611429270597e+18,-1.0,15.0,9.0,7.0,2.0,0.0,1.0,-1.0
1.6951611429270597e+18,0.0,-6.0,2.0,2.0,0.0,7.0,0.0,-13.0
1.6951611429280563e+18,-8.0,-13.0,-10.0,0.0,4.0,0.0,-8.0,20.0
1.6951611429280563e+18,-1.0,-18.0,0.0,-7.0,-8.0,-6.0,-1.0,-8.0
1.6951611429320535e+18,16.0,24.0,-1.0,-3.0,-8.0,-2.0,-10.0,-5.0
1.6951611429320535e+18,7.0,6.0,0.0,4.0,11.0,7.0,5.0,27.0
1.695161142949045e+18,0.0,1.0,-1.0,-1.0,-2.0,-1.0,-9.0,12.0
1.695161142949045e+18,-4.0,-6.0,-3.0,5.0,2.0,-4.0,-13.0,-20.0
1.6951611429700347e+18,-12.0,-8.0,5.0,-11.0,-2.0,2.0,18.0,-10.0
1.6951611429700347e+18,-5.0,-7.0,-1.0,2.0,-4.0,-6.0,-3.0,-13.0
1.695161142987023e+18,9.0,14.0,-5.0,-4.0,1.0,-7.0,6.0,0.0
1.695161142987023e+18,1.0,7.0,9.0,7.0,2.0,4.0,-5.0,6.0
1.695161142987023e+18,-4.0,-14.0,-3.0,-3.0,9.0,4.0,-5.0,-3.0
1.695161142987023e+18,5.0,9.0,0.0,2.0,2.0,0.0,9.0,5.0
1.6951611429890225e+18,-7.0,-12.0,-4.0,1.0,-3.0,-5.0,-14.0,-12.0
1.6951611429890225e+18,4.0,5.0,0.0,-1.0,-5.0,-8.0,9.0,-3.0
1.6951611430080323e+18,-5.0,-8.0,7.0,9.0,13.0,13.0,5.0,-4.0
1.6951611430090125e+18,12.0,-1.0,-11.0,-18.0,-11.0,-9.0,-19.0,20.0
1.6951611430100099e+18,-5.0,3.0,3.0,5.0,-5.0,-1.0,-6.0,12.0
1.6951611430100099e+18,-9.0,3.0,-3.0,-9.0,1.0,7.0,32.0,-23.0
1.695161143023025e+18,8.0,-6.0,-1.0,2.0,-4.0,-9.0,-25.0,19.0
1.6951611430240123e+18,-6.0,-7.0,-2.0,1.0,-4.0,4.0,11.0,-24.0
1.6951611430250038e+18,2.0,5.0,-1.0,4.0,6.0,-2.0,-9.0,-1.0
1.6951611430250038e+18,8.0,9.0,-4.0,-7.0,-11.0,-6.0,-8.0,10.0
1.6951611430380155e+18,-6.0,-12.0,0.0,-1.0,11.0,4.0,8.0,3.0
1.6951611430390024e+18,-8.0,-8.0,-2.0,-3.0,-4.0,-3.0,-7.0,-8.0
1.6951611430399923e+18,-1.0,3.0,1.0,-3.0,-5.0,-8.0,3.0,-32.0
1.6951611430399923e+18,-2.0,10.0,2.0,2.0,12.0,13.0,12.0,10.0
1.6951611430569825e+18,-6.0,-4.0,-7.0,-7.0,-6.0,-6.0,-15.0,13.0
1.6951611430569825e+18,11.0,1.0,0.0,-6.0,-11.0,-12.0,-25.0,6.0
1.6951611430619807e+18,-17.0,-14.0,-10.0,-6.0,2.0,16.0,25.0,-21.0
1.6951611430619807e+18,7.0,4.0,7.0,22.0,8.0,-2.0,-6.0,-5.0
1.6951611430819676e+18,11.0,12.0,1.0,-15.0,-11.0,-11.0,7.0,39.0
1.6951611430829757e+18,-19.0,4.0,9.0,-7.0,-2.0,10.0,-2.0,-12.0
1.695161143099958e+18,6.0,-9.0,-2.0,6.0,7.0,2.0,-3.0,2.0
1.6951611431009595e+18,3.0,-1.0,1.0,2.0,3.0,-1.0,-6.0,4.0
1.6951611431009595e+18,-3.0,-10.0,-2.0,-8.0,-8.0,-4.0,-7.0,-61.0
1.6951611431009595e+18,3.0,11.0,2.0,3.0,0.0,-7.0,14.0,39.0
1.6951611431139538e+18,22.0,3.0,-1.0,4.0,11.0,3.0,-17.0,-12.0
1.6951611431149501e+18,-9.0,-1.0,-22.0,-13.0,-6.0,-1.0,-1.0,10.0
1.6951611431149501e+18,-4.0,-8.0,-6.0,11.0,10.0,14.0,23.0,-13.0
1.6951611431149501e+18,-17.0,-13.0,6.0,-2.0,-3.0,-9.0,-23.0,-16.0
1.6951611431169495e+18,20.0,8.0,10.0,-1.0,-7.0,-7.0,-2.0,2.0
1.6951611431169495e+18,-7.0,-8.0,-9.0,-7.0,6.0,5.0,-3.0,12.0
1.6951611431359368e+18,-5.0,5.0,0.0,6.0,-13.0,-9.0,-5.0,1.0
1.6951611431369408e+18,-1.0,4.0,-1.0,-1.0,11.0,11.0,7.0,-32.0
1.6951611431539492e+18,-19.0,2.0,6.0,2.0,-2.0,1.0,16.0,32.0
1.6951611431539492e+18,16.0,-6.0,12.0,8.0,1.0,-12.0,-24.0,23.0
1.695161143156942e+18,8.0,-3.0,-59.0,-13.0,-5.0,0.0,1.0,3.0
1.695161143156942e+18,-9.0,-3.0,2.0,-7.0,-6.0,-2.0,10.0,-8.0
1.6951611431659213e+18,1.0,12.0,11.0,10.0,9.0,7.0,2.0,-3.0
1.6951611431669207e+18,-28.0,-18.0,-31.0,-7.0,-5.0,0.0,0.0,-25.0
1.6951611431799347e+18,-2.0,2.0,19.0,-1.0,-1.0,0.0,7.0,7.0
1.6951611431799347e+18,11.0,5.0,-2.0,-3.0,-4.0,-4.0,-1.0,6.0
1.6951611431889075e+18,-28.0,-4.0,-9.0,2.0,7.0,6.0,5.0,-11.0
1.6951611431889075e+18,22.0,7.0,14.0,4.0,-7.0,-3.0,-1.0,-1.0
1.6951611432028997e+18,-6.0,6.0,-1.0,5.0,5.0,-5.0,-14.0,-1.0
1.6951611432028997e+18,-1.0,-5.0,-18.0,-2.0,-2.0,2.0,12.0,0.0
1.695161143211895e+18,-5.0,-10.0,7.0,-13.0,-14.0,1.0,3.0,25.0
1.6951611432129155e+18,1.0,-2.0,-2.0,-13.0,-5.0,-8.0,-12.0,-5.0
1.6951611432129155e+18,20.0,0.0,18.0,4.0,4.0,7.0,12.0,30.0
1.6951611432129155e+18,-19.0,1.0,8.0,0.0,-14.0,-9.0,-4.0,-9.0
1.6951611432255885e+18,5.0,4.0,-8.0,2.0,4.0,1.0,0.0,-10.0
1.6951611432265887e+18,0.0,5.0,15.0,4.0,-3.0,-7.0,-7.0,1.0
1.695161143249586e+18,-16.0,-1.0,-15.0,-9.0,-1.0,9.0,18.0,-5.0
1.695161143250585e+18,-18.0,-6.0,13.0,2.0,11.0,-1.0,-15.0,11.0
1.695161143250585e+18,22.0,3.0,-27.0,-4.0,-8.0,-9.0,-13.0,-13.0
1.695161143251585e+18,-8.0,6.0,-8.0,7.0,7.0,13.0,32.0,-5.0
1.6951611432565816e+18,-5.0,2.0,18.0,-5.0,-8.0,-13.0,-15.0,-9.0
1.6951611432575816e+18,6.0,8.0,13.0,-1.0,6.0,5.0,10.0,22.0
1.69516114325858e+18,-9.0,-17.0,19.0,15.0,8.0,7.0,11.0,-17.0
1.69516114325958e+18,7.0,5.0,23.0,-17.0,-4.0,-4.0,-13.0,-11.0
1.695161143269599e+18,2.0,13.0,-10.0,1.0,-17.0,-9.0,-3.0,-11.0
1.6951611432705784e+18,9.0,-2.0,8.0,8.0,15.0,6.0,-1.0,5.0
1.6951611432845658e+18,4.0,11.0,-12.0,-8.0,-5.0,-7.0,1.0,12.0
1.6951611432855708e+18,-15.0,-10.0,-9.0,8.0,-3.0,-1.0,-13.0,-14.0
1.6951611433345423e+18,0.0,-2.0,-1.0,6.0,11.0,6.0,7.0,10.0
1.6951611433355425e+18,22.0,-1.0,-10.0,-2.0,10.0,6.0,-9.0,5.0
1.6951611433355425e+18,-24.0,-18.0,-2.0,3.0,1.0,-5.0,-15.0,-17.0
1.6951611433355425e+18,6.0,7.0,18.0,-8.0,-9.0,4.0,30.0,15.0
1.6951611433365412e+18,-5.0,2.0,10.0,-3.0,-10.0,-14.0,-32.0,-14.0
1.6951611433365412e+18,-13.0,-21.0,-22.0,10.0,4.0,2.0,8.0,-7.0
1.6951611433395336e+18,10.0,6.0,12.0,-4.0,-1.0,1.0,-1.0,5.0
1.6951611433395336e+18,-10.0,-11.0,-31.0,-11.0,-3.0,-2.0,-2.0,17.0
1.6951611433395336e+18,-17.0,1.0,-3.0,15.0,4.0,4.0,-5.0,-2.0
1.6951611433405448e+18,1.0,-7.0,15.0,-13.0,-15.0,-5.0,12.0,-27.0
1.6951611433415393e+18,-5.0,1.0,-4.0,3.0,-2.0,1.0,11.0,5.0
1.6951611433415393e+18,7.0,4.0,16.0,6.0,12.0,7.0,-17.0,-4.0
1.69516114339259e+18,1.0,-14.0,-30.0,-4.0,3.0,5.0,9.0,14.0
1.69516114339259e+18,5.0,7.0,3.0,-6.0,-8.0,-8.0,-21.0,-13.0
1.6951611433935946e+18,-6.0,3.0,9.0,-5.0,-13.0,-2.0,8.0,-9.0
1.6951611433945892e+18,-1.0,0.0,-34.0,3.0,5.0,0.0,4.0,-12.0
1.6951611433945892e+18,16.0,-2.0,5.0,-4.0,4.0,-1.0,-3.0,3.0
1.6951611433955978e+18,11.0,6.0,3.0,2.0,-11.0,-1.0,5.0,20.0
1.6951611433995866e+18,-7.0,-8.0,-5.0,3.0,10.0,0.0,-4.0,-6.0
1.6951611434005868e+18,-3.0,2.0,0.0,7.0,-3.0,-8.0,-9.0,-18.0
1.695161143401586e+18,7.0,13.0,37.0,1.0,8.0,5.0,-4.0,8.0
1.695161143401586e+18,-5.0,-1.0,-18.0,-1.0,1.0,3.0,5.0,-13.0
1.6951611434455596e+18,-16.0,2.0,24.0,1.0,-6.0,-10.0,-16.0,-4.0
1.6951611434455596e+18,-2.0,-2.0,-5.0,3.0,-3.0,-3.0,-6.0,-3.0
1.6951611434465628e+18,-15.0,-5.0,-2.0,-9.0,-4.0,-2.0,-3.0,0.0
1.695161143447559e+18,-1.0,-7.0,7.0,3.0,3.0,7.0,15.0,20.0
1.695161143505526e+18,-10.0,5.0,-2.0,-5.0,-6.0,-2.0,5.0,-26.0
1.695161143505526e+18,1.0,8.0,-3.0,2.0,-7.0,-4.0,0.0,4.0
1.695161143505526e+18,-4.0,-11.0,-15.0,4.0,4.0,-2.0,2.0,-14.0
1.6951611435085238e+18,7.0,9.0,-6.0,-1.0,-4.0,-3.0,7.0,9.0
1.6951611435085238e+18,-9.0,-14.0,18.0,2.0,5.0,4.0,3.0,3.0
1.6951611435085238e+18,-1.0,12.0,-7.0,-3.0,-1.0,-7.0,-21.0,-5.0
1.6951611435824804e+18,11.0,-20.0,0.0,6.0,0.0,5.0,7.0,17.0
1.69516114358548e+18,-10.0,4.0,18.0,-12.0,-7.0,-1.0,-12.0,-32.0
1.6951611435864794e+18,0.0,-7.0,-21.0,-2.0,-1.0,6.0,26.0,-9.0
1.6951611435864794e+18,5.0,6.0,25.0,0.0,0.0,1.0,-1.0,11.0
1.6951611436174602e+18,7.0,5.0,-9.0,3.0,10.0,12.0,14.0,-3.0
1.6951611436174602e+18,5.0,4.0,-7.0,-4.0,-8.0,-6.0,-3.0,8.0
1.6951611436184596e+18,-2.0,6.0,7.0,3.0,5.0,-1.0,-17.0,5.0
1.6951611436194593e+18,0.0,-5.0,5.0,0.0,-5.0,-7.0,-4.0,0.0
1.6951611436194593e+18,-2.0,6.0,0.0,-8.0,-8.0,-4.0,2.0,-18.0
1.6951611436194593e+18,-10.0,-3.0,-13.0,22.0,15.0,0.0,-5.0,8.0
1.6951611436554383e+18,-3.0,-6.0,10.0,3.0,2.0,3.0,9.0,-1.0
1.6951611436554383e+18,-1.0,-6.0,-20.0,-5.0,0.0,3.0,3.0,0.0
1.6951611436564388e+18,-2.0,-13.0,-22.0,-1.0,-6.0,-8.0,-11.0,-4.0
1.6951611436574405e+18,-7.0,3.0,36.0,11.0,14.0,1.0,-2.0,-13.0
1.6951611436684306e+18,3.0,1.0,-23.0,-9.0,-6.0,-3.0,-6.0,24.0
1.6951611436684306e+18,7.0,-1.0,18.0,-2.0,-9.0,-2.0,1.0,0.0
1.695161143707409e+18,0.0,-7.0,0.0,-15.0,-17.0,-7.0,-5.0,3.0
1.6951611437144056e+18,-3.0,-8.0,-17.0,-21.0,-4.0,3.0,2.0,-3.0
1.6951611437144056e+18,-1.0,6.0,8.0,14.0,3.0,-3.0,-5.0,-4.0
1.6951611437144056e+18,5.0,4.0,-10.0,2.0,-2.0,-4.0,4.0,8.0
1.6951611437164045e+18,-1.0,-2.0,8.0,3.0,19.0,10.0,6.0,-3.0
1.6951611437164045e+18,-2.0,-9.0,-19.0,3.0,3.0,1.0,-10.0,-1.0
1.6951611437174044e+18,-4.0,-13.0,2.0,2.0,-9.0,-9.0,-4.0,-4.0
1.6951611437174044e+18,0.0,3.0,-1.0,-11.0,0.0,-6.0,-2.0,-1.0
1.6951611437184061e+18,2.0,2.0,7.0,2.0,-3.0,-13.0,-3.0,1.0
1.6951611437184061e+18,3.0,-3.0,-14.0,10.0,10.0,25.0,9.0,8.0
1.6951611437184061e+18,0.0,-4.0,3.0,15.0,10.0,6.0,4.0,-2.0
1.6951611437184061e+18,2.0,0.0,4.0,6.0,11.0,6.0,2.0,-3.0
1.6951611437433876e+18,-2.0,0.0,5.0,-16.0,-19.0,-9.0,-6.0,1.0
1.6951611437433876e+18,1.0,0.0,-9.0,-11.0,-12.0,-13.0,-4.0,0.0
1.6951611437443876e+18,-3.0,0.0,6.0,16.0,21.0,5.0,3.0,-5.0
1.6951611437443876e+18,-1.0,-5.0,-9.0,5.0,18.0,1.0,1.0,2.0
1.6951611437794772e+18,2.0,0.0,10.0,7.0,-5.0,-1.0,-3.0,3.0
1.6951611437814766e+18,-2.0,0.0,-7.0,3.0,-2.0,-5.0,-2.0,-2.0
1.6951611437824763e+18,-2.0,-2.0,2.0,-14.0,-5.0,0.0,1.0,-3.0
1.6951611437824763e+18,1.0,1.0,1.0,-3.0,-1.0,3.0,2.0,2.0
1.6951611437824763e+18,-2.0,-1.0,-4.0,3.0,1.0,5.0,-3.0,1.0
1.6951611437824763e+18,-2.0,-3.0,-4.0,-3.0,6.0,-1.0,-2.0,-5.0
1.6951611437824763e+18,-2.0,4.0,2.0,-5.0,-5.0,-3.0,0.0,-1.0
1.6951611437824763e+18,1.0,-4.0,-3.0,-4.0,-7.0,-2.0,0.0,2.0
1.6951611438194737e+18,-3.0,-1.0,3.0,10.0,5.0,4.0,2.0,0.0
1.6951611438194737e+18,-1.0,1.0,-1.0,-5.0,-11.0,-9.0,-4.0,-2.0
1.6951611438204739e+18,0.0,0.0,5.0,-5.0,6.0,3.0,0.0,0.0
1.6951611438204739e+18,1.0,-2.0,0.0,0.0,-7.0,0.0,1.0,-1.0
1.695161143821451e+18,-2.0,-3.0,-2.0,2.0,5.0,1.0,-3.0,-1.0
1.6951611438224507e+18,0.0,3.0,1.0,-2.0,2.0,-3.0,-1.0,0.0
1.6951611438344435e+18,-2.0,-2.0,1.0,-2.0,-2.0,-1.0,0.0,-1.0
1.6951611438344435e+18,-2.0,-2.0,-1.0,1.0,-7.0,-2.0,-2.0,-2.0
1.695161143835465e+18,-2.0,0.0,0.0,1.0,6.0,3.0,1.0,2.0
1.695161143835465e+18,1.0,-4.0,-12.0,-2.0,-2.0,-1.0,0.0,-1.0
1.6951611438364436e+18,0.0,1.0,22.0,-3.0,-5.0,-1.0,-1.0,-1.0
1.6951611438364436e+18,-4.0,-3.0,-11.0,-2.0,-7.0,-4.0,-1.0,-3.0
1.6951611438554307e+18,1.0,-2.0,1.0,5.0,9.0,2.0,0.0,-1.0
1.6951611438554307e+18,-1.0,1.0,2.0,-1.0,-4.0,1.0,0.0,0.0
1.6951611438554307e+18,-1.0,-1.0,-8.0,-4.0,-4.0,-2.0,-1.0,-2.0
1.695161143856433e+18,1.0,1.0,2.0,-2.0,-2.0,-1.0,1.0,0.0
1.6951611438874138e+18,0.0,-1.0,0.0,5.0,6.0,3.0,0.0,1.0
1.6951611438874138e+18,-1.0,0.0,1.0,-2.0,-4.0,-3.0,-2.0,-2.0
1.6951611438884122e+18,-1.0,0.0,-3.0,-1.0,-3.0,0.0,-2.0,-1.0
1.6951611438884122e+18,-1.0,1.0,7.0,-1.0,1.0,1.0,1.0,0.0
1.6951611438924127e+18,-1.0,-2.0,-7.0,-4.0,0.0,0.0,0.0,-3.0
1.6951611438924127e+18,-2.0,-1.0,4.0,2.0,0.0,-2.0,-2.0,-1.0
1.6951611439165873e+18,-1.0,-3.0,-3.0,-2.0,-1.0,0.0,-2.0,1.0
1.6951611439165873e+18,0.0,0.0,5.0,13.0,2.0,2.0,-1.0,-1.0
1.6951611439185915e+18,-1.0,-1.0,-3.0,-6.0,-2.0,0.0,-1.0,0.0
1.6951611439185915e+18,0.0,0.0,1.0,-3.0,1.0,1.0,0.0,-1.0
1.6951611439185915e+18,1.0,0.0,-5.0,-7.0,-2.0,0.0,2.0,0.0
1.6951611439185915e+18,0.0,-1.0,-5.0,-2.0,-5.0,-1.0,0.0,-1.0
1.6951611439376005e+18,-2.0,-2.0,2.0,6.0,4.0,-2.0,-2.0,-1.0
1.6951611439376005e+18,0.0,-1.0,-1.0,0.0,-3.0,-3.0,-2.0,-2.0
1.6951611439385155e+18,0.0,-1.0,-2.0,-5.0,-4.0,-4.0,-2.0,-3.0
1.6951611439385155e+18,-1.0,-1.0,-4.0,-1.0,-2.0,-2.0,-1.0,0.0
1.69516114396855e+18,0.0,-3.0,-1.0,-4.0,4.0,3.0,1.0,0.0
1.69516114396855e+18,-1.0,2.0,4.0,3.0,-2.0,0.0,1.0,3.0
1.6951611439690916e+18,-2.0,-1.0,1.0,4.0,-2.0,-2.0,-2.0,-2.0
1.6951611439690916e+18,0.0,0.0,1.0,-1.0,-1.0,-1.0,0.0,0.0
1.6951611439751227e+18,0.0,0.0,-4.0,-4.0,0.0,0.0,0.0,-1.0
1.6951611439761006e+18,-1.0,0.0,1.0,0.0,-3.0,-2.0,-1.0,-2.0
1.6951611439761006e+18,1.0,-2.0,-3.0,-6.0,-1.0,1.0,-1.0,0.0
1.6951611439761006e+18,-2.0,-1.0,-1.0,-2.0,-2.0,-6.0,-2.0,-1.0
1.6951611439980874e+18,-3.0,-1.0,0.0,5.0,3.0,1.0,0.0,1.0
1.6951611439980874e+18,0.0,-4.0,-4.0,-10.0,-5.0,2.0,1.0,0.0
1.6951611439980874e+18,-1.0,0.0,-5.0,-6.0,-1.0,-2.0,1.0,0.0
1.6951611439980874e+18,1.0,0.0,4.0,19.0,0.0,5.0,1.0,-1.0
1.695161144025094e+18,-2.0,0.0,7.0,3.0,-1.0,-3.0,-4.0,-4.0
1.695161144025094e+18,-3.0,0.0,2.0,8.0,6.0,-1.0,-3.0,0.0
1.695161144026094e+18,-3.0,-3.0,-8.0,-16.0,-4.0,-1.0,0.0,0.0
1.695161144026094e+18,0.0,-3.0,-16.0,-28.0,-2.0,-2.0,-3.0,-2.0
1.695161144035088e+18,-1.0,-3.0,7.0,14.0,-2.0,-1.0,-1.0,-1.0
1.6951611440360655e+18,1.0,-1.0,0.0,5.0,-3.0,-2.0,0.0,0.0
1.6951611440360655e+18,1.0,1.0,-2.0,0.0,1.0,1.0,-1.0,0.0
1.6951611440360655e+18,0.0,1.0,2.0,2.0,2.0,3.0,2.0,1.0
1.6951611440620636e+18,-2.0,-1.0,0.0,-1.0,-3.0,0.0,-2.0,-2.0
1.6951611440620636e+18,1.0,-1.0,-2.0,0.0,-1.0,1.0,0.0,-1.0
1.6951611440630574e+18,0.0,0.0,4.0,15.0,2.0,1.0,0.0,1.0
1.6951611440630574e+18,0.0,0.0,-3.0,-19.0,-3.0,0.0,0.0,0.0
1.6951611440815734e+18,-1.0,-2.0,-6.0,-4.0,-2.0,-4.0,-4.0,0.0
1.6951611440815734e+18,-1.0,1.0,0.0,3.0,4.0,0.0,1.0,-2.0
1.6951611440825853e+18,0.0,-1.0,1.0,0.0,0.0,1.0,1.0,1.0
1.6951611440825853e+18,0.0,0.0,2.0,8.0,-1.0,-1.0,-4.0,0.0
1.6951611441125824e+18,2.0,0.0,-6.0,-7.0,0.0,0.0,1.0,0.0
1.6951611441125824e+18,-1.0,0.0,2.0,-2.0,-4.0,-2.0,-3.0,-1.0
1.6951611441135816e+18,-1.0,-1.0,-1.0,-1.0,-1.0,-1.0,-2.0,-1.0
1.6951611441135816e+18,0.0,-3.0,1.0,3.0,0.0,1.0,0.0,-1.0
1.6951611441215775e+18,-2.0,0.0,4.0,10.0,1.0,-3.0,0.0,1.0
1.6951611441245757e+18,0.0,1.0,-2.0,-3.0,3.0,2.0,-1.0,-1.0
1.6951611441335777e+18,0.0,1.0,2.0,0.0,0.0,3.0,0.0,0.0
1.6951611441345705e+18,-1.0,-1.0,-2.0,-6.0,-4.0,-5.0,-1.0,-3.0
1.6951611441345705e+18,0.0,1.0,-2.0,-5.0,-1.0,1.0,1.0,1.0
1.695161144135573e+18,-1.0,-2.0,-2.0,-2.0,-1.0,1.0,1.0,-1.0
1.6951611441395692e+18,-1.0,-1.0,-2.0,-1.0,-1.0,-3.0,-1.0,-2.0
1.6951611441395692e+18,0.0,-1.0,0.0,2.0,-1.0,-2.0,-2.0,0.0
1.695161144163513e+18,1.0,0.0,-2.0,0.0,0.0,-1.0,0.0,-1.0
1.6951611441645123e+18,0.0,0.0,-1.0,-2.0,-1.0,-1.0,-1.0,1.0
1.6951611441645123e+18,-1.0,0.0,-3.0,-4.0,-3.0,-1.0,-2.0,-1.0
1.6951611441645123e+18,0.0,1.0,-1.0,2.0,-2.0,0.0,0.0,-1.0
1.695161144177589e+18,1.0,-1.0,-2.0,-1.0,1.0,0.0,-1.0,-1.0
1.695161144177589e+18,-1.0,-2.0,-2.0,-3.0,-2.0,-1.0,-2.0,-1.0
1.6951611441785874e+18,-2.0,-1.0,-1.0,1.0,-1.0,1.0,-1.0,0.0
1.6951611441785874e+18,-2.0,-1.0,2.0,2.0,-1.0,1.0,-1.0,0.0
1.695161144200577e+18,0.0,-1.0,0.0,-1.0,-2.0,0.0,0.0,0.0
1.695161144200577e+18,-1.0,-1.0,-3.0,-6.0,-4.0,-5.0,-2.0,-2.0
1.695161144200577e+18,2.0,-1.0,1.0,1.0,1.0,-7.0,-1.0,0.0
1.695161144200577e+18,-1.0,-1.0,0.0,-2.0,0.0,1.0,-2.0,-1.0
1.6951611442258214e+18,0.0,-2.0,-3.0,-3.0,0.0,0.0,1.0,-1.0
1.6951611442258214e+18,-2.0,-1.0,0.0,-1.0,-1.0,0.0,0.0,-2.0
1.6951611442258214e+18,-1.0,-1.0,1.0,1.0,0.0,-1.0,0.0,-2.0
1.6951611442268275e+18,0.0,0.0,-1.0,-2.0,0.0,-1.0,0.0,-1.0
1.6951611442626337e+18,-2.0,-1.0,-2.0,-2.0,-2.0,1.0,-1.0,0.0
1.6951611442636362e+18,1.0,0.0,-1.0,3.0,0.0,0.0,0.0,0.0
1.6951611442636362e+18,0.0,-1.0,0.0,1.0,0.0,-2.0,-2.0,-2.0
1.6951611442636362e+18,1.0,0.0,-2.0,0.0,-1.0,-1.0,-1.0,-1.0
1.6951611442646377e+18,1.0,-1.0,-1.0,0.0,-2.0,0.0,-1.0,-1.0
1.6951611442646377e+18,-1.0,-2.0,0.0,-2.0,-3.0,-2.0,-1.0,-2.0
1.6951611442855163e+18,-1.0,-2.0,0.0,-1.0,-1.0,1.0,-1.0,0.0
1.6951611442865157e+18,-1.0,-1.0,-1.0,-1.0,-1.0,0.0,0.0,0.0
1.6951611442865157e+18,-2.0,-2.0,-1.0,0.0,0.0,0.0,-1.0,-1.0
1.6951611442875146e+18,0.0,-1.0,0.0,-1.0,1.0,0.0,0.0,1.0
1.6951611442875146e+18,-1.0,0.0,0.0,0.0,-1.0,0.0,-1.0,0.0
1.6951611442885256e+18,-2.0,-1.0,0.0,-2.0,-1.0,1.0,-2.0,0.0
1.695161144299511e+18,-1.0,-1.0,-1.0,-2.0,-3.0,-2.0,0.0,-1.0
1.6951611443005074e+18,0.0,0.0,-2.0,-2.0,0.0,-1.0,-1.0,-2.0
1.6951611443005074e+18,0.0,-1.0,-2.0,0.0,-1.0,0.0,-1.0,-2.0
1.6951611443015073e+18,0.0,-1.0,0.0,0.0,-1.0,-3.0,-1.0,0.0
1.6951611443315218e+18,-2.0,-1.0,0.0,-1.0,-1.0,0.0,-2.0,-2.0
1.69516114433249e+18,-1.0,-2.0,-1.0,-1.0,-1.0,0.0,-1.0,0.0
1.6951611443374863e+18,-1.0,-1.0,-1.0,0.0,-2.0,-1.0,-2.0,-1.0
1.6951611443374863e+18,-3.0,0.0,-3.0,-1.0,0.0,-2.0,1.0,1.0
1.6951611443404854e+18,-1.0,0.0,-2.0,-1.0,0.0,-1.0,-1.0,0.0
1.6951611443404854e+18,0.0,0.0,-1.0,1.0,0.0,0.0,0.0,-1.0
1.6951611443414848e+18,0.0,-1.0,0.0,-1.0,-1.0,-1.0,-1.0,-1.0
1.6951611443414848e+18,0.0,-2.0,-1.0,0.0,-1.0,-1.0,-1.0,-1.0
1.695161144374471e+18,0.0,-1.0,-3.0,1.0,2.0,-3.0,-2.0,-3.0
1.6951611443754642e+18,0.0,1.0,-4.0,-4.0,-2.0,1.0,0.0,-1.0
1.6951611443754642e+18,-2.0,0.0,-1.0,2.0,1.0,-1.0,-1.0,-2.0
1.6951611443764698e+18,1.0,-2.0,1.0,0.0,-1.0,-1.0,-1.0,-2.0
1.6951611443764698e+18,0.0,-1.0,-1.0,-2.0,0.0,-2.0,-1.0,0.0
1.6951611443774733e+18,-2.0,-1.0,0.0,-3.0,-2.0,-1.0,-2.0,-1.0
1.6951611443884575e+18,-2.0,-1.0,-2.0,-3.0,-2.0,0.0,-1.0,0.0
1.6951611443894556e+18,-1.0,-2.0,0.0,-1.0,-2.0,0.0,-1.0,-1.0
1.6951611444114435e+18,-1.0,0.0,0.0,-1.0,0.0,-1.0,-1.0,1.0
1.695161144412443e+18,-1.0,-1.0,-1.0,-2.0,2.0,-3.0,-2.0,0.0
1.695161144412443e+18,-2.0,-1.0,-2.0,-1.0,0.0,-1.0,0.0,0.0
1.695161144412443e+18,-1.0,0.0,0.0,-2.0,1.0,-2.0,-2.0,-1.0
1.6951611444374295e+18,0.0,0.0,1.0,-2.0,0.0,0.0,1.0,0.0
1.6951611444384358e+18,-2.0,0.0,0.0,-1.0,-1.0,-1.0,-1.0,-3.0
1.6951611444384358e+18,1.0,0.0,0.0,1.0,-1.0,1.0,0.0,1.0
1.6951611444394337e+18,-1.0,0.0,0.0,-1.0,-2.0,-2.0,0.0,0.0
1.695161144449422e+18,0.0,-2.0,0.0,-1.0,-1.0,-1.0,-2.0,0.0
1.6951611444504215e+18,1.0,1.0,1.0,2.0,-1.0,-1.0,-2.0,-1.0
1.6951611444504215e+18,1.0,2.0,-2.0,-4.0,-1.0,-1.0,-1.0,0.0
1.6951611444514207e+18,0.0,-2.0,2.0,0.0,1.0,2.0,0.0,-1.0
1.695161144464414e+18,0.0,1.0,-2.0,-3.0,-1.0,-1.0,-2.0,-3.0
1.6951611444654126e+18,0.0,-1.0,-2.0,-2.0,0.0,0.0,-1.0,1.0
1.6951611444664136e+18,-2.0,2.0,-9.0,-3.0,-1.0,-1.0,-2.0,-3.0
1.6951611444664136e+18,1.0,3.0,-3.0,-2.0,-2.0,-2.0,-2.0,0.0
1.6951611444784054e+18,-2.0,-1.0,1.0,0.0,0.0,-1.0,-1.0,-1.0
1.6951611444794056e+18,-1.0,-2.0,-2.0,0.0,-1.0,-1.0,-1.0,-1.0
1.6951611444804104e+18,-2.0,-1.0,-1.0,-3.0,-1.0,-1.0,0.0,-1.0
1.6951611444804104e+18,1.0,1.0,-4.0,-3.0,-2.0,-2.0,-2.0,0.0
1.695161144501393e+18,-1.0,0.0,0.0,1.0,0.0,0.0,-1.0,-1.0
1.695161144501393e+18,-1.0,0.0,-3.0,-2.0,-2.0,-2.0,-1.0,-1.0
1.695161144501393e+18,-1.0,-3.0,1.0,0.0,0.0,0.0,2.0,-1.0
1.6951611445023918e+18,-3.0,-2.0,-1.0,2.0,0.0,0.0,0.0,-2.0
1.6951611445283784e+18,0.0,-1.0,0.0,0.0,1.0,2.0,0.0,0.0
1.6951611445293832e+18,-1.0,-3.0,1.0,1.0,0.0,0.0,0.0,1.0
1.6951611445303767e+18,0.0,-1.0,1.0,0.0,-1.0,-1.0,-1.0,-1.0
1.6951611445303767e+18,-1.0,-1.0,0.0,-1.0,-1.0,-1.0,1.0,0.0
1.6951611445383708e+18,-1.0,0.0,-3.0,0.0,-3.0,-2.0,-2.0,0.0
1.6951611445393702e+18,0.0,1.0,-1.0,-3.0,1.0,-2.0,0.0,0.0
1.6951611445393702e+18,0.0,0.0,0.0,0.0,1.0,-1.0,-2.0,-1.0
1.695161144540369e+18,-1.0,-1.0,-2.0,0.0,-3.0,1.0,-2.0,-1.0
1.695161144577348e+18,-1.0,-2.0,-1.0,-2.0,-1.0,-1.0,-1.0,-2.0
1.695161144577348e+18,-2.0,-1.0,-1.0,0.0,-1.0,0.0,-1.0,-1.0
1.6951611445783465e+18,2.0,-2.0,0.0,0.0,1.0,-2.0,-1.0,0.0
1.6951611445783465e+18,-2.0,-1.0,0.0,0.0,-1.0,-3.0,0.0,-1.0
1.6951611445793472e+18,-1.0,1.0,0.0,-2.0,-1.0,-3.0,0.0,0.0
1.6951611445803459e+18,0.0,-1.0,0.0,-2.0,-2.0,-2.0,0.0,0.0
1.6951611445903447e+18,-1.0,-1.0,0.0,-1.0,0.0,0.0,0.0,-3.0
1.6951611445903447e+18,2.0,0.0,-2.0,-1.0,-1.0,1.0,-1.0,0.0
1.695161144606331e+18,0.0,-1.0,-2.0,-2.0,-1.0,2.0,-1.0,0.0
1.695161144606331e+18,-2.0,0.0,1.0,0.0,0.0,-2.0,0.0,0.0
1.695161144606331e+18,-1.0,-1.0,-1.0,0.0,-1.0,-2.0,0.0,0.0
1.6951611446073347e+18,-1.0,0.0,-1.0,-1.0,0.0,-2.0,-3.0,-2.0
1.695161144628322e+18,-1.0,-1.0,0.0,-1.0,-2.0,0.0,-1.0,-1.0
1.695161144629318e+18,0.0,0.0,0.0,-1.0,-2.0,-1.0,-1.0,0.0
1.695161144629318e+18,-1.0,-2.0,0.0,-2.0,0.0,0.0,-2.0,-1.0
1.695161144629318e+18,-3.0,0.0,-1.0,-1.0,-1.0,0.0,0.0,0.0
1.6951611446373135e+18,-2.0,-1.0,-1.0,0.0,0.0,-1.0,-1.0,-1.0
1.6951611446373135e+18,0.0,1.0,0.0,0.0,0.0,0.0,-1.0,-2.0
1.6951611446383178e+18,1.0,0.0,0.0,0.0,-2.0,1.0,-1.0,0.0
1.6951611446383178e+18,0.0,-1.0,-3.0,-1.0,0.0,-1.0,1.0,0.0
1.6951611446583048e+18,-1.0,-1.0,-2.0,-3.0,-2.0,-1.0,0.0,-1.0
1.6951611446583048e+18,-1.0,-2.0,-3.0,-1.0,-2.0,-2.0,0.0,-2.0
1.6951611446662966e+18,-1.0,-2.0,1.0,1.0,-1.0,-1.0,-1.0,-1.0
1.6951611446662966e+18,-1.0,0.0,-1.0,1.0,-2.0,0.0,-1.0,-2.0
1.6951611446902848e+18,1.0,0.0,-1.0,-2.0,-1.0,-1.0,0.0,-1.0
1.6951611446962803e+18,-1.0,-2.0,0.0,-1.0,0.0,0.0,-1.0,-1.0
1.6951611446962803e+18,1.0,0.0,0.0,-2.0,0.0,-2.0,1.0,1.0
1.6951611446962803e+18,-2.0,-1.0,0.0,0.0,1.0,-2.0,-2.0,0.0
1.6951611446982825e+18,-1.0,-1.0,-1.0,2.0,1.0,-1.0,0.0,0.0
1.6951611446982825e+18,-1.0,0.0,-2.0,-3.0,-3.0,0.0,-1.0,-1.0
1.6951611446992794e+18,-2.0,-1.0,-2.0,0.0,-2.0,1.0,-1.0,-1.0
1.6951611446992794e+18,-2.0,-2.0,-1.0,-1.0,-1.0,0.0,0.0,-2.0
1.6951611447182656e+18,-1.0,0.0,-2.0,-2.0,1.0,-1.0,-1.0,-2.0
1.6951611447182656e+18,1.0,0.0,1.0,1.0,-2.0,-1.0,-1.0,1.0
1.6951611447182656e+18,1.0,-2.0,0.0,-3.0,0.0,-1.0,-1.0,0.0
1.6951611447182656e+18,0.0,0.0,0.0,-2.0,1.0,-1.0,-1.0,1.0
1.6951611447402555e+18,-1.0,0.0,0.0,0.0,0.0,0.0,-1.0,0.0
1.6951611447402555e+18,-1.0,-1.0,-1.0,-2.0,-1.0,-1.0,-1.0,-1.0
1.6951611447412529e+18,-3.0,0.0,-1.0,-1.0,1.0,-2.0,0.0,-3.0
1.6951611447412529e+18,-1.0,-2.0,0.0,-1.0,-1.0,-2.0,0.0,-1.0
1.695161144755244e+18,1.0,0.0,-1.0,-1.0,-2.0,-2.0,0.0,0.0
1.695161144755244e+18,0.0,1.0,-1.0,-1.0,1.0,0.0,-1.0,-1.0
1.6951611447562442e+18,0.0,1.0,-1.0,-1.0,-1.0,0.0,0.0,1.0
1.6951611447562442e+18,0.0,0.0,-1.0,-1.0,1.0,0.0,-1.0,0.0
1.6951611447811123e+18,-1.0,0.0,0.0,1.0,-1.0,0.0,1.0,1.0
1.6951611447821053e+18,-1.0,0.0,-1.0,0.0,-1.0,-2.0,0.0,-1.0
1.6951611447821053e+18,0.0,-1.0,0.0,-1.0,-2.0,0.0,0.0,0.0
1.6951611447821053e+18,0.0,-1.0,-1.0,0.0,0.0,0.0,-2.0,-1.0
1.6951611448000955e+18,0.0,-2.0,-3.0,-1.0,-2.0,2.0,1.0,0.0
1.6951611448000955e+18,-2.0,-1.0,-1.0,-1.0,-1.0,-1.0,0.0,-2.0
1.6951611448250808e+18,-1.0,0.0,1.0,2.0,-1.0,-1.0,1.0,1.0
1.6951611448250808e+18,0.0,-1.0,-1.0,-2.0,0.0,-1.0,0.0,-1.0
1.69516114482608e+18,-1.0,-1.0,0.0,0.0,-3.0,-1.0,-1.0,-2.0
1.69516114482608e+18,1.0,-1.0,-1.0,0.0,-1.0,-2.0,-1.0,-1.0
1.695161144827078e+18,-1.0,1.0,-2.0,-1.0,0.0,-2.0,0.0,-3.0
1.695161144827078e+18,-1.0,-2.0,-1.0,0.0,-1.0,-1.0,1.0,0.0
1.6951611448370714e+18,-1.0,0.0,-1.0,-2.0,1.0,-2.0,-3.0,-1.0
1.6951611448380726e+18,0.0,-1.0,-2.0,0.0,-2.0,1.0,0.0,-1.0
1.6951611448380726e+18,0.0,0.0,0.0,-2.0,1.0,-1.0,-1.0,0.0
1.6951611448380726e+18,0.0,-1.0,1.0,0.0,-1.0,-1.0,0.0,0.0
1.6951611448600812e+18,0.0,-1.0,-1.0,0.0,-1.0,-2.0,-1.0,-1.0
1.6951611448600812e+18,-1.0,0.0,1.0,0.0,0.0,-1.0,-1.0,1.0
1.6951611448610583e+18,0.0,-1.0,-1.0,-3.0,0.0,-1.0,-1.0,-2.0
1.6951611448610583e+18,0.0,1.0,0.0,-1.0,-2.0,0.0,0.0,1.0
1.6951611448750717e+18,0.0,1.0,0.0,1.0,0.0,0.0,-3.0,-2.0
1.6951611448750717e+18,-2.0,0.0,-2.0,0.0,0.0,0.0,-1.0,-1.0
1.6951611448760532e+18,1.0,-2.0,0.0,0.0,-2.0,0.0,2.0,0.0
1.6951611448760532e+18,0.0,-1.0,-1.0,0.0,1.0,-1.0,-1.0,0.0
1.6951611449056504e+18,-1.0,-2.0,0.0,-1.0,1.0,0.0,0.0,1.0
1.6951611449066125e+18,-1.0,-1.0,-3.0,-1.0,1.0,0.0,-2.0,-2.0
1.6951611449066125e+18,-2.0,-2.0,-1.0,-1.0,-1.0,-1.0,-1.0,-1.0
1.6951611449066125e+18,-2.0,-1.0,-2.0,0.0,-2.0,0.0,-1.0,1.0
1.69516114492055e+18,-3.0,-1.0,-2.0,-1.0,-3.0,-1.0,-1.0,0.0
1.6951611449215437e+18,-2.0,-1.0,0.0,-2.0,0.0,0.0,-2.0,-1.0
1.695161144922546e+18,-2.0,0.0,0.0,0.0,-1.0,0.0,-1.0,0.0
1.695161144922546e+18,-2.0,1.0,-1.0,-2.0,0.0,1.0,-1.0,-1.0
1.6951611449435356e+18,0.0,0.0,-1.0,-1.0,0.0,0.0,0.0,1.0
1.6951611449445292e+18,-1.0,-1.0,1.0,-1.0,0.0,-1.0,1.0,-1.0
1.6951611449455311e+18,0.0,0.0,0.0,0.0,0.0,-1.0,-1.0,-1.0
1.6951611449455311e+18,1.0,-1.0,-1.0,1.0,0.0,0.0,0.0,0.0
1.6951611449595215e+18,-1.0,0.0,0.0,-1.0,-1.0,-1.0,0.0,-2.0
1.6951611449605228e+18,-1.0,-1.0,0.0,0.0,-1.0,0.0,0.0,-2.0
1.6951611449605228e+18,1.0,0.0,-3.0,0.0,0.0,0.0,-1.0,-1.0
1.6951611449615252e+18,-1.0,-2.0,0.0,0.0,-1.0,-1.0,-1.0,-2.0
1.6951611449865147e+18,0.0,-2.0,0.0,0.0,-1.0,-1.0,0.0,0.0
1.695161144990503e+18,0.0,-2.0,0.0,-1.0,-1.0,-3.0,-1.0,0.0
1.695161144991502e+18,-1.0,-1.0,-1.0,-2.0,-1.0,0.0,0.0,0.0
1.695161144991502e+18,-1.0,1.0,-2.0,-4.0,-1.0,-2.0,0.0,0.0
1.6951611450234893e+18,0.0,-2.0,-1.0,-1.0,-1.0,0.0,0.0,-1.0
1.6951611450234893e+18,1.0,1.0,-1.0,-3.0,-1.0,0.0,-1.0,0.0
1.695161145024486e+18,-1.0,-1.0,-1.0,1.0,1.0,0.0,-1.0,-1.0
1.6951611450264855e+18,0.0,-2.0,0.0,-2.0,0.0,-1.0,0.0,-1.0
1.6951611450284854e+18,0.0,-3.0,-2.0,-2.0,-2.0,0.0,-1.0,-1.0
1.6951611450284854e+18,-2.0,-1.0,-2.0,0.0,1.0,0.0,-3.0,-2.0
1.6951611450294817e+18,-2.0,1.0,0.0,1.0,-2.0,-1.0,-1.0,-1.0
1.695161145030482e+18,-1.0,-2.0,0.0,-1.0,0.0,1.0,-1.0,0.0
1.6951611450404728e+18,-2.0,-2.0,0.0,-1.0,0.0,1.0,1.0,1.0
1.6951611450404728e+18,0.0,-1.0,-1.0,1.0,-2.0,1.0,-1.0,1.0
1.695161145041473e+18,-1.0,-2.0,1.0,-1.0,-1.0,0.0,-1.0,-1.0
1.695161145041473e+18,-2.0,2.0,-2.0,-1.0,0.0,0.0,-1.0,-3.0
1.6951611450564662e+18,0.0,0.0,0.0,-1.0,1.0,-1.0,-2.0,0.0
1.6951611450574656e+18,0.0,-3.0,0.0,-2.0,1.0,-2.0,0.0,-1.0
1.6951611450574656e+18,-2.0,0.0,-2.0,-2.0,-1.0,-2.0,-2.0,-1.0
1.6951611450574656e+18,-1.0,1.0,0.0,-1.0,-1.0,0.0,-2.0,-1.0
1.6951611450834542e+18,0.0,-2.0,-1.0,0.0,1.0,-1.0,0.0,-1.0
1.6951611450834542e+18,-1.0,0.0,-2.0,-1.0,-2.0,0.0,0.0,-2.0
1.6951611450834542e+18,-1.0,-2.0,-2.0,-1.0,-1.0,-1.0,0.0,-1.0
1.6951611450844529e+18,1.0,-2.0,0.0,0.0,-2.0,-1.0,0.0,0.0
1.695161145108444e+18,-2.0,2.0,-1.0,0.0,0.0,-1.0,0.0,0.0
1.6951611451094344e+18,0.0,-1.0,0.0,0.0,-3.0,0.0,-2.0,-1.0
1.6951611451094344e+18,0.0,-2.0,-2.0,0.0,-1.0,-1.0,-2.0,-1.0
1.6951611451094344e+18,0.0,-1.0,-2.0,0.0,0.0,-1.0,0.0,1.0
1.69516114511543e+18,-1.0,-1.0,-2.0,-1.0,0.0,1.0,2.0,0.0
1.69516114511543e+18,0.0,0.0,-2.0,-1.0,-1.0,0.0,1.0,1.0
1.6951611451164316e+18,-2.0,0.0,1.0,-1.0,-1.0,-1.0,-1.0,-1.0
1.6951611451164316e+18,-2.0,-1.0,-1.0,0.0,-2.0,0.0,0.0,-2.0
1.6951611451464128e+18,1.0,0.0,-1.0,-1.0,-1.0,0.0,-3.0,-3.0
1.6951611451464128e+18,0.0,0.0,0.0,0.0,-2.0,1.0,-1.0,0.0
1.6951611451464128e+18,-1.0,1.0,-1.0,-1.0,1.0,-1.0,0.0,-1.0
1.6951611451474125e+18,-1.0,-1.0,0.0,0.0,-1.0,-1.0,0.0,0.0
1.695161145160406e+18,-2.0,-1.0,0.0,1.0,-1.0,-1.0,1.0,-1.0
1.695161145160406e+18,0.0,-1.0,-1.0,-2.0,-1.0,-1.0,0.0,-1.0
1.6951611451684004e+18,1.0,-2.0,0.0,-1.0,0.0,-1.0,-1.0,1.0
1.6951611451693998e+18,-1.0,1.0,-1.0,-1.0,0.0,0.0,0.0,-1.0
1.695161145183391e+18,-1.0,0.0,1.0,-1.0,-1.0,-2.0,-1.0,0.0
1.6951611451843935e+18,-3.0,0.0,-3.0,-1.0,1.0,-1.0,-1.0,-1.0
1.6951611451843935e+18,-1.0,-1.0,0.0,0.0,-1.0,0.0,1.0,0.0
1.6951611451853944e+18,-1.0,0.0,0.0,-1.0,0.0,2.0,-1.0,-1.0
1.6951611451973821e+18,-1.0,-1.0,0.0,-2.0,-1.0,-1.0,-1.0,-1.0
1.6951611451983844e+18,1.0,-3.0,-1.0,0.0,-1.0,-1.0,1.0,0.0
1.6951611452143736e+18,-1.0,0.0,-2.0,0.0,-2.0,0.0,0.0,-1.0
1.6951611452143736e+18,0.0,0.0,0.0,0.0,-1.0,-1.0,-2.0,0.0
1.6951611452203697e+18,-1.0,-1.0,-1.0,-1.0,-2.0,-2.0,-2.0,-1.0
1.6951611452203697e+18,1.0,-1.0,0.0,-1.0,0.0,-2.0,-1.0,-1.0
1.6951611452213706e+18,0.0,0.0,0.0,-1.0,-1.0,0.0,-1.0,-2.0
1.6951611452213706e+18,0.0,0.0,-1.0,0.0,-1.0,-1.0,0.0,-1.0
1.6951611452443558e+18,-1.0,0.0,-1.0,0.0,0.0,-1.0,0.0,-1.0
1.695161145247357e+18,0.0,0.0,0.0,0.0,1.0,0.0,-2.0,-2.0
1.6951611452483564e+18,0.0,-1.0,0.0,0.0,0.0,-2.0,0.0,0.0
1.6951611452483564e+18,-1.0,0.0,-2.0,-1.0,-1.0,-1.0,0.0,-2.0
1.695161145257347e+18,0.0,0.0,0.0,0.0,0.0,-1.0,0.0,1.0
1.695161145257347e+18,-1.0,0.0,-1.0,0.0,1.0,-2.0,-1.0,-2.0
1.6951611452583506e+18,0.0,0.0,1.0,-1.0,-1.0,-1.0,-1.0,0.0
1.6951611452583506e+18,-1.0,-2.0,1.0,0.0,-3.0,-1.0,-2.0,1.0
1.695161145285557e+18,0.0,0.0,-1.0,2.0,1.0,-1.0,0.0,-1.0
1.695161145285557e+18,1.0,-1.0,0.0,0.0,0.0,-4.0,1.0,0.0
1.695161145285557e+18,-2.0,-1.0,-2.0,-2.0,0.0,1.0,-1.0,2.0
1.695161145286554e+18,-1.0,0.0,-1.0,-1.0,-1.0,-1.0,1.0,-3.0
1.695161145295545e+18,-1.0,0.0,-1.0,-2.0,0.0,0.0,-1.0,-1.0
1.695161145295545e+18,0.0,-1.0,-1.0,0.0,-1.0,1.0,-1.0,-2.0
1.695161145295545e+18,0.0,-1.0,-1.0,0.0,-2.0,0.0,1.0,1.0
1.6951611452965478e+18,-1.0,-1.0,-2.0,-2.0,1.0,-2.0,-1.0,-1.0
1.6951611453175877e+18,-3.0,-2.0,-3.0,-2.0,0.0,-1.0,-1.0,0.0
1.6951611453175877e+18,-1.0,0.0,1.0,-3.0,0.0,0.0,-1.0,-3.0
1.6951611453185866e+18,-2.0,0.0,0.0,-1.0,0.0,-2.0,1.0,-2.0
1.6951611453185866e+18,1.0,-1.0,0.0,-1.0,-1.0,0.0,-2.0,0.0
1.6951611453405274e+18,0.0,1.0,0.0,-1.0,-2.0,-1.0,-1.0,0.0
1.6951611453415357e+18,-1.0,-1.0,-1.0,0.0,-3.0,0.0,-2.0,0.0
1.6951611453415357e+18,0.0,-3.0,0.0,1.0,0.0,-1.0,0.0,0.0
1.6951611453415357e+18,1.0,-1.0,-2.0,-4.0,-4.0,-2.0,-1.0,-2.0
1.695161145377514e+18,-1.0,0.0,-1.0,-1.0,-1.0,0.0,-2.0,-1.0
1.6951611453845112e+18,-1.0,0.0,0.0,0.0,-2.0,1.0,1.0,1.0
1.695161145385511e+18,0.0,0.0,0.0,-1.0,-1.0,-1.0,-1.0,-2.0
1.695161145385511e+18,0.0,-2.0,-1.0,2.0,0.0,-2.0,-1.0,0.0
1.6951611453875364e+18,0.0,-1.0,0.0,0.0,-1.0,1.0,0.0,-3.0
1.6951611453875364e+18,-1.0,-1.0,-2.0,-1.0,0.0,-2.0,-1.0,1.0
1.6951611453885107e+18,-1.0,-1.0,0.0,-3.0,1.0,0.0,-1.0,-1.0
1.6951611453885107e+18,-1.0,1.0,-2.0,-1.0,0.0,0.0,0.0,1.0
1.695161145400502e+18,-1.0,0.0,-3.0,-2.0,0.0,-2.0,0.0,-2.0
1.695161145400502e+18,0.0,-2.0,-1.0,1.0,-1.0,0.0,-1.0,0.0
1.6951611454015014e+18,0.0,-1.0,-1.0,0.0,0.0,0.0,0.0,0.0
1.6951611454015014e+18,-2.0,-1.0,-1.0,-2.0,-1.0,-1.0,0.0,0.0
1.695161145423552e+18,0.0,-1.0,0.0,-3.0,0.0,-1.0,-1.0,-1.0
1.695161145424544e+18,-1.0,0.0,0.0,-3.0,-1.0,1.0,-2.0,-3.0
1.695161145424544e+18,-2.0,0.0,-2.0,-1.0,-3.0,0.0,-2.0,0.0
1.6951611454255488e+18,-1.0,-2.0,-1.0,-2.0,-1.0,1.0,0.0,0.0
1.6951611454385157e+18,-1.0,1.0,0.0,0.0,1.0,-1.0,-3.0,0.0
1.6951611454385157e+18,0.0,-1.0,0.0,-2.0,0.0,0.0,-2.0,-3.0
1.6951611454385157e+18,0.0,-1.0,-1.0,0.0,-2.0,-4.0,-2.0,-3.0
1.6951611454385157e+18,-1.0,0.0,-2.0,1.0,-2.0,-4.0,-3.0,-2.0
1.6951611454606287e+18,-1.0,-3.0,-4.0,0.0,-4.0,-1.0,-2.0,-2.0
1.6951611454616266e+18,-4.0,-2.0,-3.0,-1.0,-2.0,-2.0,0.0,-3.0
1.6951611454616266e+18,-3.0,-1.0,-3.0,-2.0,-2.0,0.0,-1.0,-1.0
1.6951611454626437e+18,-2.0,-1.0,0.0,-1.0,-2.0,0.0,-1.0,-1.0
1.6951611454856136e+18,-1.0,-4.0,-1.0,1.0,0.0,0.0,0.0,0.0
1.6951611454886116e+18,-3.0,0.0,-1.0,-2.0,-1.0,-1.0,0.0,1.0
1.6951611454886116e+18,-1.0,-2.0,-4.0,-3.0,-1.0,0.0,-2.0,-2.0
1.6951611454886116e+18,-1.0,-3.0,-2.0,-2.0,-1.0,0.0,-1.0,-1.0
1.6951611454976036e+18,-2.0,0.0,-1.0,-2.0,-4.0,-2.0,-2.0,-1.0
1.695161145498604e+18,-2.0,-2.0,-3.0,0.0,-1.0,-2.0,-2.0,-2.0
1.695161145498604e+18,0.0,-3.0,-2.0,0.0,-1.0,-1.0,0.0,-1.0
1.695161145498604e+18,-1.0,-1.0,-1.0,-2.0,-1.0,0.0,-3.0,-2.0
1.6951611455205908e+18,-2.0,0.0,-2.0,-1.0,-1.0,-1.0,-2.0,-1.0
1.6951611455205908e+18,0.0,-2.0,-1.0,0.0,-1.0,-2.0,-1.0,-1.0
1.6951611455215908e+18,-1.0,-1.0,1.0,1.0,0.0,-2.0,-2.0,-1.0
1.6951611455215908e+18,-1.0,-1.0,0.0,2.0,3.0,1.0,0.0,-1.0
1.6951611455345833e+18,-1.0,-1.0,-1.0,-1.0,-2.0,0.0,1.0,-1.0
1.6951611455355835e+18,-1.0,-1.0,0.0,-1.0,-1.0,0.0,-3.0,1.0
1.6951611455505738e+18,-1.0,-2.0,-2.0,1.0,0.0,1.0,-1.0,-2.0
1.6951611455505738e+18,-2.0,0.0,-1.0,2.0,1.0,-1.0,1.0,-1.0
1.6951611455665638e+18,1.0,0.0,2.0,-1.0,-1.0,-1.0,0.0,-3.0
1.695161145567565e+18,-2.0,0.0,-3.0,-5.0,1.0,3.0,2.0,-1.0
1.695161145567565e+18,0.0,-1.0,-2.0,9.0,1.0,0.0,-2.0,-1.0
1.6951611455685645e+18,-1.0,-1.0,-2.0,-4.0,-1.0,-2.0,-1.0,0.0
1.6951611455805565e+18,-2.0,-1.0,-1.0,-4.0,-1.0,-1.0,-3.0,-3.0
1.6951611455805565e+18,0.0,-1.0,-2.0,1.0,0.0,-3.0,2.0,1.0
1.695161145581557e+18,-1.0,0.0,-2.0,-14.0,-16.0,-7.0,-2.0,-1.0
1.695161145581557e+18,-1.0,-1.0,-4.0,12.0,7.0,-5.0,0.0,0.0
1.6951611455945482e+18,1.0,0.0,1.0,2.0,12.0,10.0,3.0,1.0
1.6951611455955574e+18,1.0,-2.0,0.0,-5.0,-11.0,-1.0,-1.0,0.0
1.6951611456105426e+18,-1.0,-1.0,2.0,-5.0,4.0,-7.0,-1.0,0.0
1.6951611456105426e+18,1.0,0.0,-8.0,-10.0,-11.0,3.0,-1.0,-2.0
1.695161145630528e+18,0.0,-1.0,-1.0,6.0,4.0,8.0,-1.0,0.0
1.6951611456315287e+18,-1.0,0.0,3.0,5.0,4.0,4.0,1.0,1.0
1.6951611456315287e+18,0.0,1.0,-2.0,-2.0,-7.0,-5.0,-3.0,-1.0
1.6951611456325345e+18,0.0,-2.0,4.0,0.0,-5.0,-10.0,-3.0,-1.0
1.695161145648518e+18,-2.0,-1.0,-1.0,3.0,7.0,3.0,0.0,-2.0
1.695161145649517e+18,-1.0,-1.0,-2.0,-2.0,4.0,1.0,-1.0,0.0
1.695161145649517e+18,-2.0,-3.0,1.0,10.0,9.0,2.0,2.0,0.0
1.695161145649517e+18,0.0,-2.0,3.0,-8.0,-6.0,-3.0,-2.0,0.0
1.695161145663509e+18,0.0,-2.0,-5.0,-4.0,-6.0,-4.0,-1.0,-1.0
1.695161145663509e+18,0.0,0.0,-1.0,-3.0,-3.0,-3.0,1.0,-1.0
1.6951611456645084e+18,-1.0,-2.0,-3.0,-10.0,-3.0,0.0,0.0,-1.0
1.6951611456645084e+18,1.0,-1.0,3.0,8.0,3.0,2.0,-1.0,-1.0
1.695161145686502e+18,0.0,-2.0,-1.0,-3.0,-11.0,-4.0,0.0,1.0
1.695161145686502e+18,-1.0,-1.0,-1.0,-5.0,0.0,-6.0,-5.0,-1.0
1.695161145686502e+18,1.0,1.0,1.0,11.0,4.0,0.0,-2.0,-2.0
1.6951611456874954e+18,0.0,-1.0,0.0,-2.0,0.0,7.0,0.0,1.0
1.6951611457004884e+18,0.0,-1.0,-2.0,-6.0,-3.0,-1.0,-3.0,-2.0
1.695161145701488e+18,0.0,0.0,0.0,0.0,0.0,-8.0,-1.0,1.0
1.695161145701488e+18,0.0,0.0,1.0,15.0,8.0,3.0,1.0,-1.0
1.695161145701488e+18,-1.0,3.0,-2.0,-21.0,-8.0,4.0,1.0,0.0
1.6951611457264742e+18,-1.0,-5.0,-2.0,18.0,8.0,-4.0,3.0,0.0
1.6951611457264742e+18,-2.0,-2.0,-5.0,-11.0,1.0,1.0,-3.0,-3.0
1.695161145727476e+18,0.0,10.0,4.0,-8.0,7.0,11.0,2.0,2.0
1.695161145727476e+18,3.0,-12.0,-2.0,15.0,17.0,-2.0,-2.0,-1.0
1.6951611457374881e+18,-3.0,8.0,-1.0,-18.0,-15.0,-5.0,-3.0,-6.0
1.6951611457374881e+18,4.0,-21.0,-4.0,13.0,0.0,-2.0,4.0,27.0
1.6951611457384648e+18,-2.0,4.0,1.0,-5.0,-4.0,-7.0,4.0,-34.0
1.6951611457384648e+18,-12.0,1.0,2.0,2.0,4.0,3.0,-10.0,-6.0
1.6951611457604526e+18,6.0,6.0,4.0,0.0,4.0,-2.0,-10.0,5.0
1.6951611457604526e+18,3.0,5.0,5.0,12.0,2.0,3.0,5.0,-2.0
1.6951611457604526e+18,6.0,2.0,-15.0,-21.0,-21.0,-1.0,-8.0,10.0
1.6951611457614554e+18,2.0,-9.0,4.0,31.0,35.0,9.0,8.0,-3.0
1.6951611457774433e+18,-4.0,-7.0,-7.0,-6.0,-5.0,-14.0,-1.0,14.0
1.695161145782458e+18,-6.0,13.0,2.0,-1.0,-6.0,3.0,-12.0,-43.0
1.695161145799431e+18,3.0,-18.0,-5.0,-9.0,-5.0,0.0,-6.0,-26.0
1.695161145799431e+18,4.0,16.0,-3.0,-13.0,-21.0,-11.0,1.0,43.0
1.6951611458004513e+18,-3.0,3.0,2.0,-3.0,-4.0,-1.0,-5.0,-18.0
1.6951611458004513e+18,10.0,5.0,-1.0,22.0,14.0,8.0,18.0,42.0
1.6951611458014505e+18,-3.0,-14.0,-1.0,-2.0,8.0,7.0,-4.0,-5.0
1.6951611458014505e+18,-6.0,-9.0,0.0,-1.0,-5.0,2.0,-11.0,-10.0
1.69516114583592e+18,-4.0,12.0,-2.0,-7.0,-15.0,-2.0,14.0,-37.0
1.6951611458365535e+18,-7.0,-5.0,-11.0,-21.0,-12.0,-5.0,-4.0,-32.0
1.6951611458365535e+18,-3.0,3.0,-6.0,6.0,-1.0,-11.0,7.0,49.0
1.6951611458365535e+18,-2.0,-5.0,1.0,-8.0,-20.0,-5.0,-8.0,1.0
1.695161145851572e+18,2.0,-5.0,8.0,20.0,10.0,-3.0,-8.0,27.0
1.695161145851572e+18,8.0,23.0,1.0,-10.0,7.0,16.0,-6.0,-39.0
1.695161145851572e+18,-6.0,-17.0,2.0,1.0,0.0,1.0,19.0,16.0
1.695161145851572e+18,7.0,19.0,-2.0,-4.0,3.0,-3.0,17.0,5.0
1.6951611458664842e+18,-4.0,-13.0,-3.0,-8.0,-11.0,-8.0,-9.0,4.0
1.6951611458664842e+18,-20.0,-1.0,-4.0,2.0,0.0,-2.0,-5.0,1.0
1.6951611458664842e+18,15.0,9.0,14.0,8.0,9.0,3.0,-8.0,10.0
1.6951611458664842e+18,-6.0,-8.0,-5.0,-10.0,-10.0,-1.0,-1.0,-18.0
1.6951611458885153e+18,5.0,-1.0,-2.0,-4.0,0.0,0.0,0.0,-1.0
1.6951611458885153e+18,-5.0,-20.0,-14.0,8.0,-2.0,-5.0,1.0,4.0
1.6951611458895196e+18,3.0,12.0,17.0,0.0,4.0,6.0,3.0,-3.0
1.6951611458895196e+18,0.0,1.0,-9.0,0.0,3.0,-4.0,-4.0,-5.0
1.6951611459135698e+18,2.0,1.0,-21.0,-11.0,-3.0,1.0,-7.0,8.0
1.6951611459145518e+18,-2.0,-11.0,22.0,-4.0,-3.0,-13.0,-15.0,0.0
1.6951611459145518e+18,-4.0,3.0,7.0,5.0,-2.0,15.0,24.0,-5.0
1.6951611459145518e+18,-10.0,-5.0,-15.0,6.0,8.0,0.0,3.0,0.0
1.695161145917551e+18,1.0,3.0,3.0,0.0,4.0,3.0,10.0,6.0
1.695161145917551e+18,8.0,7.0,9.0,0.0,-1.0,1.0,-2.0,-13.0
1.6951611459255455e+18,-5.0,-3.0,0.0,-2.0,4.0,-14.0,-11.0,13.0
1.6951611459255455e+18,-21.0,-11.0,-32.0,-9.0,-8.0,-5.0,-11.0,-8.0
1.6951611459405248e+18,16.0,10.0,6.0,6.0,6.0,13.0,13.0,-1.0
1.6951611459405248e+18,-2.0,2.0,4.0,-8.0,-7.0,-6.0,3.0,-14.0
1.6951611459405248e+18,-6.0,-14.0,-33.0,-9.0,-15.0,-9.0,-30.0,38.0
1.6951611459405248e+18,1.0,1.0,16.0,19.0,13.0,3.0,7.0,-13.0
1.695161145964611e+18,-13.0,-4.0,-8.0,-16.0,-12.0,-9.0,-1.0,-3.0
1.6951611459656077e+18,12.0,11.0,6.0,12.0,12.0,5.0,-3.0,-5.0
1.6951611459656077e+18,-16.0,-14.0,15.0,2.0,-12.0,-10.0,-2.0,-12.0
1.6951611459676055e+18,13.0,3.0,10.0,-1.0,7.0,11.0,10.0,17.0
1.6951611460026097e+18,-8.0,-10.0,-47.0,2.0,-4.0,5.0,4.0,-19.0
1.6951611460026097e+18,2.0,-7.0,16.0,2.0,10.0,1.0,-4.0,17.0
1.6951611460036096e+18,-8.0,11.0,10.0,-9.0,-6.0,-3.0,-11.0,-26.0
1.6951611460036096e+18,5.0,-12.0,19.0,11.0,1.0,-8.0,-13.0,-6.0
1.6951611460046077e+18,-2.0,-3.0,-31.0,-5.0,1.0,3.0,9.0,-2.0
1.6951611460056082e+18,2.0,-1.0,21.0,-11.0,-16.0,-6.0,1.0,17.0
1.69516114602561e+18,4.0,-2.0,-7.0,6.0,12.0,1.0,0.0,-1.0
1.6951611460266097e+18,5.0,11.0,-34.0,1.0,10.0,12.0,14.0,-5.0
1.6951611460276083e+18,-20.0,-18.0,39.0,-1.0,-2.0,-3.0,-6.0,7.0
1.6951611460286095e+18,0.0,-4.0,-21.0,-9.0,-11.0,-5.0,3.0,17.0
1.6951611460286095e+18,7.0,13.0,-5.0,-3.0,-5.0,-5.0,-6.0,8.0
1.6951611460296087e+18,-13.0,7.0,48.0,1.0,-12.0,-4.0,5.0,-10.0
1.6951611460396027e+18,1.0,-28.0,-59.0,8.0,10.0,-4.0,-11.0,5.0
1.6951611460396027e+18,0.0,3.0,0.0,-17.0,-6.0,2.0,9.0,7.0
1.6951611460396027e+18,1.0,2.0,28.0,15.0,20.0,12.0,14.0,-27.0
1.6951611460406098e+18,6.0,15.0,-33.0,-15.0,-13.0,-11.0,-36.0,1.0
1.6951611460615903e+18,-3.0,8.0,38.0,8.0,6.0,-4.0,4.0,29.0
1.6951611460625892e+18,-7.0,-22.0,-51.0,-14.0,-21.0,-4.0,14.0,3.0
1.6951611460625892e+18,1.0,-3.0,18.0,-6.0,-15.0,-4.0,-4.0,-6.0
1.6951611460625892e+18,3.0,-9.0,-13.0,1.0,7.0,8.0,11.0,-16.0
1.6951611460916042e+18,3.0,8.0,16.0,9.0,22.0,9.0,-7.0,-12.0
1.6951611460925716e+18,-11.0,11.0,1.0,5.0,3.0,-4.0,0.0,1.0
1.6951611460936033e+18,-5.0,-10.0,-24.0,2.0,-38.0,-20.0,6.0,-22.0
1.695161146094579e+18,-9.0,-10.0,17.0,-29.0,5.0,4.0,1.0,17.0
1.6951611461145592e+18,39.0,13.0,34.0,0.0,-17.0,-5.0,-9.0,6.0
1.6951611461145592e+18,15.0,11.0,20.0,17.0,27.0,9.0,-13.0,9.0
1.6951611461155587e+18,10.0,-8.0,-13.0,3.0,5.0,2.0,9.0,16.0
1.6951611461155587e+18,-8.0,-3.0,-14.0,-14.0,-26.0,-20.0,3.0,-2.0
1.6951611461295516e+18,14.0,6.0,-8.0,-3.0,1.0,3.0,-9.0,-12.0
1.6951611461295516e+18,-7.0,-23.0,-3.0,-1.0,-4.0,4.0,9.0,-9.0
1.69516114613055e+18,-6.0,4.0,-2.0,-20.0,-8.0,-5.0,-7.0,-13.0
1.69516114613055e+18,0.0,3.0,20.0,26.0,17.0,3.0,19.0,-3.0
1.6951611461505385e+18,-5.0,-19.0,-1.0,2.0,1.0,-12.0,-48.0,6.0
1.6951611461505385e+18,0.0,6.0,-22.0,-8.0,-10.0,5.0,10.0,13.0
1.6951611461675282e+18,-2.0,-5.0,8.0,0.0,14.0,6.0,-8.0,-12.0
1.6951611461685304e+18,1.0,16.0,25.0,-19.0,-14.0,-3.0,22.0,-19.0
1.6951611461695268e+18,13.0,12.0,-5.0,18.0,4.0,4.0,-4.0,5.0
1.6951611461695268e+18,2.0,3.0,18.0,-1.0,-4.0,-5.0,-8.0,-49.0
1.6951611461705324e+18,-14.0,3.0,10.0,3.0,1.0,5.0,3.0,18.0
1.6951611461705324e+18,24.0,3.0,-40.0,-7.0,2.0,-5.0,-23.0,9.0
1.6951611461965128e+18,-13.0,4.0,55.0,13.0,-6.0,2.0,26.0,-5.0
1.6951611461975124e+18,-2.0,19.0,-6.0,3.0,11.0,0.0,-6.0,20.0
1.6951611461975124e+18,12.0,-22.0,8.0,-7.0,-4.0,-1.0,5.0,11.0
1.695161146198525e+18,1.0,-8.0,-28.0,2.0,-9.0,0.0,-4.0,2.0
1.695161146203508e+18,-20.0,-1.0,-5.0,-12.0,11.0,1.0,9.0,-15.0
1.6951611462045092e+18,-9.0,-7.0,5.0,5.0,-5.0,-7.0,10.0,6.0
1.6951611462045092e+18,9.0,-5.0,-8.0,6.0,3.0,1.0,-16.0,-9.0
1.6951611462055117e+18,-3.0,-4.0,-12.0,-7.0,-11.0,-4.0,-17.0,17.0
1.6951611462264952e+18,-2.0,4.0,13.0,-3.0,11.0,-1.0,6.0,-2.0
1.6951611462284933e+18,28.0,9.0,20.0,5.0,1.0,5.0,-2.0,11.0
1.6951611462284933e+18,-42.0,2.0,18.0,0.0,2.0,-5.0,-10.0,-28.0
1.6951611462294953e+18,10.0,-3.0,-20.0,2.0,-5.0,1.0,2.0,-4.0
1.6951611462414858e+18,-28.0,-14.0,-26.0,-11.0,-7.0,2.0,7.0,12.0
1.6951611462424865e+18,4.0,0.0,15.0,2.0,-6.0,-2.0,-6.0,13.0
1.695161146243493e+18,4.0,8.0,-27.0,-1.0,-4.0,-8.0,-15.0,-18.0
1.6951611462444884e+18,15.0,-6.0,24.0,-4.0,6.0,7.0,15.0,-1.0
1.6951611462634734e+18,-16.0,10.0,26.0,7.0,1.0,-3.0,-6.0,-8.0
1.695161146264474e+18,-8.0,-35.0,34.0,10.0,7.0,0.0,-6.0,13.0
1.6951611462654858e+18,7.0,5.0,-29.0,-3.0,2.0,3.0,2.0,28.0
1.6951611462654858e+18,-24.0,10.0,8.0,9.0,3.0,5.0,9.0,-24.0
1.695161146279467e+18,33.0,-18.0,-35.0,-16.0,-10.0,-11.0,-24.0,2.0
1.695161146279467e+18,-23.0,2.0,-56.0,-6.0,-2.0,11.0,24.0,0.0
1.6951611462804626e+18,19.0,6.0,35.0,1.0,0.0,-3.0,3.0,9.0
1.6951611462804626e+18,5.0,-9.0,7.0,12.0,8.0,2.0,13.0,14.0
1.6951611463004536e+18,-11.0,-7.0,-13.0,-11.0,-16.0,-4.0,5.0,5.0
1.6951611463014508e+18,15.0,28.0,-25.0,-7.0,7.0,-10.0,-18.0,-25.0
1.6951611463014508e+18,-10.0,-11.0,-14.0,14.0,17.0,17.0,31.0,17.0
1.6951611463014508e+18,-6.0,10.0,7.0,5.0,-5.0,-4.0,2.0,20.0
1.6951611463234412e+18,-8.0,-5.0,5.0,1.0,9.0,7.0,10.0,-9.0
1.6951611463234412e+18,2.0,-21.0,-51.0,-21.0,-21.0,-10.0,-10.0,-24.0
1.6951611463394322e+18,-14.0,8.0,2.0,5.0,17.0,6.0,7.0,0.0
1.6951611463404324e+18,6.0,0.0,13.0,-1.0,-5.0,-11.0,-14.0,-3.0
1.6951611463414275e+18,8.0,-18.0,19.0,2.0,-9.0,-2.0,3.0,-6.0
1.6951611463414275e+18,-24.0,-3.0,17.0,11.0,14.0,-1.0,-9.0,-17.0
1.6951611463424276e+18,-2.0,-2.0,-14.0,-4.0,-1.0,1.0,9.0,37.0
1.6951611463424276e+18,9.0,-1.0,9.0,-2.0,-3.0,4.0,1.0,-5.0
1.6951611463634191e+18,11.0,-5.0,9.0,4.0,5.0,-2.0,-10.0,1.0
1.6951611463634191e+18,17.0,3.0,11.0,5.0,1.0,2.0,15.0,14.0
1.6951611463674153e+18,-7.0,3.0,-20.0,-5.0,2.0,9.0,6.0,-26.0
1.6951611463684127e+18,-16.0,5.0,5.0,-6.0,-5.0,-3.0,-4.0,-24.0
1.6951611463824072e+18,4.0,15.0,-14.0,-6.0,-8.0,-4.0,7.0,11.0
1.6951611463824072e+18,-15.0,-10.0,27.0,15.0,13.0,3.0,-10.0,-15.0
1.695161146390399e+18,11.0,22.0,1.0,-9.0,-9.0,-7.0,-8.0,2.0
1.695161146390399e+18,-17.0,7.0,0.0,-3.0,1.0,-2.0,-10.0,-38.0
1.6951611464063908e+18,-5.0,-20.0,-10.0,-14.0,-27.0,-7.0,-1.0,-5.0
1.6951611464063908e+18,7.0,0.0,-1.0,6.0,31.0,0.0,-3.0,-5.0
1.6951611464073976e+18,-7.0,-5.0,-7.0,15.0,22.0,17.0,1.0,-1.0
1.6951611464073976e+18,13.0,3.0,4.0,-1.0,-4.0,-4.0,11.0,0.0
1.6951611464213837e+18,-3.0,10.0,8.0,-5.0,-1.0,-5.0,-22.0,12.0
1.6951611464213837e+18,7.0,19.0,2.0,-9.0,-24.0,-7.0,-10.0,-1.0
1.6951611464213837e+18,-6.0,-26.0,-15.0,-7.0,-12.0,-9.0,2.0,-32.0
1.6951611464213837e+18,5.0,-10.0,10.0,-11.0,3.0,6.0,-2.0,16.0
1.6951611464423918e+18,-8.0,13.0,-1.0,3.0,-16.0,-6.0,4.0,-15.0
1.6951611464423918e+18,1.0,0.0,7.0,22.0,36.0,16.0,2.0,10.0
1.6951611464433692e+18,13.0,9.0,-11.0,1.0,-3.0,3.0,-14.0,-30.0
1.6951611464433692e+18,-21.0,-12.0,4.0,-8.0,-5.0,-7.0,-21.0,-3.0
1.6951611464823565e+18,13.0,12.0,-9.0,-1.0,-6.0,1.0,28.0,20.0
1.6951611464833551e+18,-28.0,-9.0,0.0,-19.0,-11.0,-1.0,0.0,22.0
1.6951611464833551e+18,-8.0,30.0,-18.0,-4.0,-4.0,-6.0,-12.0,-28.0
1.6951611464843533e+18,-16.0,2.0,-1.0,-14.0,-28.0,-12.0,-12.0,-3.0
1.695161146496346e+18,10.0,3.0,-12.0,23.0,43.0,16.0,7.0,13.0
1.695161146496346e+18,-1.0,0.0,5.0,0.0,-8.0,-5.0,-3.0,-16.0
1.695161146496346e+18,25.0,-6.0,0.0,9.0,10.0,0.0,-1.0,15.0
1.695161146496346e+18,-3.0,-8.0,-43.0,-5.0,-10.0,-2.0,0.0,-5.0
1.6951611465023424e+18,1.0,16.0,14.0,2.0,7.0,6.0,11.0,-14.0
1.6951611465023424e+18,-12.0,-3.0,-29.0,-8.0,-15.0,-15.0,-26.0,-13.0
1.695161146503342e+18,-6.0,-23.0,28.0,-2.0,-3.0,0.0,1.0,25.0
1.695161146503342e+18,2.0,2.0,14.0,-1.0,5.0,7.0,-6.0,-2.0
1.6951611465183365e+18,0.0,-3.0,3.0,2.0,7.0,5.0,-4.0,1.0
1.6951611465183365e+18,4.0,-2.0,1.0,-9.0,-14.0,-7.0,8.0,3.0
1.69516114652633e+18,5.0,10.0,37.0,-17.0,-26.0,-7.0,0.0,15.0
1.69516114652633e+18,9.0,-15.0,-1.0,28.0,22.0,2.0,0.0,10.0
1.6951611465556534e+18,-11.0,11.0,-7.0,-3.0,-3.0,4.0,6.0,-10.0
1.6951611465556534e+18,-17.0,-11.0,-23.0,-20.0,-20.0,-6.0,-4.0,-22.0
1.695161146556682e+18,13.0,2.0,-7.0,-7.0,-8.0,-6.0,-5.0,-4.0
1.695161146556682e+18,3.0,8.0,1.0,21.0,24.0,1.0,1.0,9.0
1.6951611465837821e+18,-12.0,-8.0,-7.0,-11.0,-22.0,0.0,-1.0,-21.0
1.6951611465837821e+18,7.0,-1.0,8.0,25.0,24.0,5.0,0.0,10.0
1.6951611465847734e+18,-1.0,-1.0,4.0,-22.0,-23.0,-10.0,1.0,3.0
1.6951611465847734e+18,-1.0,-13.0,-7.0,17.0,32.0,21.0,9.0,5.0
1.695161146585793e+18,2.0,-2.0,-54.0,-10.0,2.0,-5.0,-5.0,1.0
1.695161146585793e+18,-3.0,-8.0,34.0,-9.0,-30.0,-8.0,-2.0,1.0
1.69516114658677e+18,-7.0,-2.0,-6.0,7.0,-1.0,3.0,2.0,1.0
1.69516114658677e+18,2.0,-1.0,1.0,-4.0,12.0,-2.0,3.0,5.0
1.6951611466085143e+18,-6.0,2.0,18.0,-8.0,0.0,1.0,-6.0,-4.0
1.6951611466085143e+18,2.0,2.0,-14.0,7.0,1.0,6.0,5.0,5.0
1.6951611466095199e+18,-3.0,-4.0,-8.0,2.0,-9.0,-21.0,-9.0,-8.0
1.6951611466095199e+18,1.0,6.0,16.0,-24.0,-33.0,0.0,-1.0,3.0
1.695161146631595e+18,0.0,-2.0,7.0,-6.0,-25.0,-13.0,-2.0,-4.0
1.6951611466325837e+18,1.0,-4.0,-4.0,8.0,44.0,15.0,2.0,2.0
1.6951611466325837e+18,-1.0,-2.0,8.0,5.0,8.0,2.0,0.0,3.0
1.6951611466325837e+18,2.0,-1.0,-4.0,9.0,-8.0,-1.0,0.0,3.0
1.6951611466395973e+18,-5.0,0.0,-7.0,-4.0,15.0,7.0,1.0,-1.0
1.6951611466395973e+18,4.0,2.0,3.0,-12.0,-29.0,-18.0,-5.0,2.0
1.6951611466465938e+18,-6.0,-2.0,3.0,8.0,8.0,-2.0,-3.0,-3.0
1.695161146647607e+18,2.0,-1.0,-5.0,3.0,16.0,12.0,6.0,4.0
1.6951611466605865e+18,-2.0,-4.0,9.0,6.0,-1.0,-9.0,-4.0,-5.0
1.6951611466605865e+18,3.0,3.0,0.0,0.0,-1.0,1.0,3.0,1.0
1.6951611466685806e+18,0.0,-1.0,2.0,-6.0,-5.0,1.0,-1.0,-2.0
1.6951611466695803e+18,-1.0,-4.0,-8.0,-2.0,-2.0,-6.0,-3.0,-1.0
1.6951611466845724e+18,-1.0,-2.0,20.0,6.0,1.0,-2.0,1.0,0.0
1.6951611466845724e+18,3.0,2.0,-7.0,2.0,-1.0,4.0,1.0,5.0
1.6951611466856072e+18,-3.0,-3.0,-8.0,2.0,6.0,5.0,0.0,-1.0
1.6951611466865718e+18,0.0,-2.0,1.0,-6.0,-9.0,-8.0,-3.0,0.0
1.695161146705566e+18,-2.0,-4.0,-4.0,5.0,8.0,2.0,0.0,-1.0
1.695161146710592e+18,0.0,0.0,-4.0,-5.0,-5.0,-2.0,1.0,1.0
1.6951611467115574e+18,0.0,0.0,-2.0,-2.0,-2.0,0.0,-1.0,0.0
1.6951611467125558e+18,-2.0,-2.0,-6.0,1.0,-1.0,0.0,-1.0,0.0
1.6951611467205517e+18,-3.0,0.0,10.0,-2.0,-5.0,-1.0,-1.0,-1.0
1.69516114672155e+18,2.0,-2.0,-6.0,-3.0,-2.0,1.0,1.0,1.0
1.69516114672155e+18,-1.0,-2.0,3.0,3.0,7.0,2.0,-1.0,-1.0
1.695161146722554e+18,-2.0,0.0,4.0,-3.0,-9.0,-5.0,-2.0,-1.0
1.6951611467435395e+18,0.0,0.0,1.0,1.0,6.0,3.0,1.0,0.0
1.6951611467435395e+18,-1.0,-3.0,0.0,-4.0,-5.0,-1.0,0.0,-1.0
1.6951611467525343e+18,-1.0,0.0,-11.0,1.0,5.0,2.0,0.0,-1.0
1.6951611467525343e+18,-1.0,-2.0,-5.0,-8.0,-8.0,-4.0,-2.0,0.0
1.6951611467765245e+18,-1.0,1.0,7.0,1.0,4.0,-1.0,-1.0,-1.0
1.6951611467775183e+18,0.0,-1.0,0.0,4.0,3.0,1.0,2.0,1.0
1.6951611467775183e+18,-1.0,0.0,-8.0,-7.0,0.0,0.0,0.0,-1.0
1.695161146778518e+18,0.0,-1.0,4.0,-3.0,-3.0,-2.0,0.0,-1.0
1.6951611467805153e+18,1.0,0.0,-5.0,-2.0,0.0,0.0,-1.0,-2.0
1.6951611467805153e+18,-1.0,-3.0,-4.0,-1.0,-4.0,1.0,2.0,-2.0
1.695161146781518e+18,-2.0,-3.0,4.0,13.0,6.0,2.0,0.0,-1.0
1.695161146781518e+18,0.0,0.0,2.0,-1.0,0.0,-2.0,0.0,0.0
1.6951611468025065e+18,-1.0,-1.0,-5.0,0.0,0.0,-1.0,-1.0,0.0
1.6951611468035018e+18,0.0,2.0,3.0,-4.0,-1.0,-1.0,-1.0,0.0
1.6951611468035018e+18,-1.0,-1.0,-9.0,-5.0,-2.0,-3.0,1.0,1.0
1.6951611468045074e+18,0.0,1.0,-2.0,-2.0,0.0,0.0,0.0,0.0
1.6951611468254907e+18,-1.0,-2.0,9.0,6.0,0.0,-2.0,-2.0,-1.0
1.6951611468264888e+18,-1.0,1.0,-4.0,2.0,-1.0,-1.0,0.0,-2.0
1.6951611468264888e+18,-2.0,-1.0,-4.0,-24.0,-4.0,-2.0,-1.0,-1.0
1.6951611468274885e+18,0.0,0.0,13.0,22.0,2.0,-2.0,-1.0,0.0
1.69516114684048e+18,-1.0,-3.0,-6.0,-10.0,-3.0,-3.0,-1.0,-1.0
1.69516114684048e+18,1.0,0.0,4.0,4.0,0.0,-1.0,1.0,2.0
1.69516114684048e+18,1.0,1.0,4.0,4.0,3.0,0.0,-2.0,-1.0
1.6951611468414794e+18,-1.0,-1.0,-18.0,-25.0,-6.0,1.0,0.0,-2.0
1.6951611468884534e+18,-2.0,-1.0,0.0,-3.0,-3.0,5.0,3.0,-1.0
1.6951611468884534e+18,3.0,-1.0,-9.0,-6.0,-2.0,-2.0,-2.0,-1.0
1.6951611468884534e+18,0.0,-2.0,0.0,4.0,0.0,-1.0,0.0,-1.0
1.6951611468884534e+18,-2.0,-3.0,-6.0,-9.0,-3.0,-1.0,-3.0,-1.0
1.6951611468894523e+18,0.0,0.0,3.0,12.0,1.0,-2.0,-2.0,-1.0
1.6951611468894523e+18,-4.0,0.0,1.0,-7.0,-1.0,-2.0,0.0,0.0
1.6951611468894523e+18,1.0,0.0,5.0,11.0,1.0,1.0,-2.0,-1.0
1.6951611468894523e+18,-2.0,-1.0,-7.0,-15.0,-3.0,-7.0,-4.0,-2.0
1.695161146921434e+18,0.0,-1.0,0.0,2.0,1.0,2.0,0.0,-2.0
1.695161146921434e+18,-1.0,0.0,-6.0,-10.0,-6.0,1.0,0.0,0.0
1.695161146921434e+18,-1.0,0.0,1.0,8.0,-1.0,0.0,-1.0,0.0
1.695161146921434e+18,-1.0,1.0,7.0,3.0,4.0,1.0,1.0,-2.0
1.695161146927431e+18,-2.0,-3.0,-3.0,3.0,0.0,-3.0,-3.0,-1.0
1.695161146927431e+18,0.0,0.0,2.0,0.0,1.0,1.0,-2.0,-2.0
1.695161146928431e+18,-1.0,1.0,-2.0,-4.0,2.0,5.0,2.0,0.0
1.695161146928431e+18,0.0,1.0,4.0,5.0,-1.0,-5.0,0.0,-2.0
1.6951611469594135e+18,0.0,-3.0,-6.0,-6.0,-4.0,-5.0,-3.0,1.0
1.6951611469594135e+18,0.0,0.0,2.0,-2.0,-1.0,0.0,-1.0,-1.0
1.6951611469594135e+18,-3.0,-1.0,0.0,2.0,-1.0,-1.0,0.0,-2.0
1.6951611469594135e+18,-1.0,0.0,0.0,2.0,0.0,0.0,-2.0,-2.0
1.695161146961412e+18,-5.0,-2.0,2.0,3.0,0.0,-1.0,1.0,-3.0
1.695161146961412e+18,1.0,0.0,-5.0,-8.0,-2.0,-3.0,-1.0,-1.0
1.695161146961412e+18,0.0,0.0,-2.0,-3.0,0.0,-3.0,-1.0,0.0
1.695161146961412e+18,0.0,-1.0,2.0,4.0,0.0,2.0,1.0,0.0
1.695161146984399e+18,-2.0,-1.0,-1.0,-2.0,-1.0,0.0,-2.0,-2.0
1.695161146984399e+18,-3.0,0.0,3.0,5.0,0.0,-3.0,-1.0,0.0
1.695161146984399e+18,0.0,-1.0,-4.0,-2.0,-3.0,-6.0,1.0,0.0
1.695161146984399e+18,1.0,-1.0,2.0,3.0,-1.0,8.0,1.0,0.0
1.6951611470245432e+18,1.0,0.0,0.0,1.0,4.0,4.0,2.0,2.0
1.6951611470255455e+18,0.0,-1.0,1.0,0.0,-1.0,-2.0,-4.0,-1.0
1.6951611470255455e+18,0.0,0.0,-3.0,-5.0,0.0,-4.0,-2.0,-1.0
1.6951611470255455e+18,-1.0,-1.0,1.0,3.0,-3.0,-3.0,-1.0,1.0
1.6951611470265439e+18,2.0,-2.0,-2.0,-3.0,0.0,1.0,0.0,1.0
1.6951611470275448e+18,0.0,0.0,1.0,4.0,3.0,4.0,2.0,0.0
1.695161147043595e+18,-2.0,-2.0,-1.0,0.0,-4.0,-1.0,-3.0,-3.0
1.6951611470445947e+18,-2.0,-1.0,1.0,0.0,-2.0,-3.0,-1.0,-1.0
1.6951611470455936e+18,1.0,0.0,-3.0,-4.0,-2.0,-2.0,-1.0,-1.0
1.6951611470455936e+18,-1.0,0.0,1.0,-1.0,0.0,-4.0,0.0,0.0
1.6951611470465925e+18,0.0,-3.0,1.0,6.0,1.0,2.0,-1.0,-1.0
1.6951611470465925e+18,0.0,-1.0,-2.0,0.0,0.0,-2.0,-2.0,-1.0
1.6951611470655398e+18,0.0,-1.0,0.0,-3.0,-3.0,-3.0,-1.0,0.0
1.6951611470665172e+18,-1.0,-1.0,1.0,0.0,0.0,-1.0,0.0,0.0
1.6951611470665172e+18,2.0,-2.0,-5.0,-8.0,-1.0,2.0,0.0,1.0
1.6951611470665172e+18,-1.0,0.0,3.0,4.0,1.0,0.0,1.0,0.0
1.6951611470885043e+18,-4.0,-1.0,0.0,-1.0,-2.0,-3.0,-3.0,-1.0
1.6951611470895037e+18,-1.0,-1.0,0.0,-2.0,-4.0,-4.0,-3.0,-2.0
1.6951611470895037e+18,-4.0,0.0,-1.0,-1.0,-1.0,1.0,0.0,-1.0
1.6951611470895037e+18,0.0,-1.0,0.0,0.0,1.0,6.0,-1.0,0.0
1.6951611471026514e+18,1.0,0.0,0.0,2.0,1.0,-2.0,0.0,0.0
1.6951611471026514e+18,-1.0,-1.0,-1.0,2.0,-1.0,2.0,0.0,-1.0
1.6951611471035948e+18,1.0,-1.0,-2.0,-2.0,-1.0,-1.0,1.0,-1.0
1.6951611471035948e+18,-3.0,2.0,-2.0,-1.0,-1.0,-5.0,-2.0,-1.0
1.6951611471255626e+18,-1.0,-2.0,0.0,-3.0,0.0,0.0,-3.0,-1.0
1.6951611471255626e+18,0.0,-1.0,-1.0,0.0,0.0,-3.0,-2.0,-1.0
1.695161147126554e+18,-1.0,0.0,3.0,1.0,-3.0,-2.0,0.0,0.0
1.695161147126554e+18,1.0,-2.0,-2.0,0.0,3.0,3.0,0.0,1.0
1.6951611471426158e+18,1.0,-1.0,-3.0,-2.0,-2.0,-2.0,-1.0,-2.0
1.695161147143643e+18,-1.0,0.0,1.0,-1.0,-1.0,0.0,0.0,-1.0
1.695161147143643e+18,0.0,0.0,1.0,0.0,-1.0,-1.0,-3.0,-1.0
1.695161147143643e+18,-1.0,-1.0,-1.0,-1.0,-2.0,0.0,-1.0,-1.0
1.6951611471636076e+18,-1.0,1.0,-1.0,0.0,-3.0,0.0,-1.0,0.0
1.6951611471636076e+18,0.0,-1.0,1.0,1.0,-2.0,0.0,0.0,-1.0
1.6951611471636076e+18,-1.0,-1.0,-1.0,-1.0,-1.0,1.0,-1.0,-1.0
1.6951611471636076e+18,-1.0,0.0,-1.0,-1.0,-2.0,-3.0,-1.0,-1.0
1.695161147185916e+18,-2.0,-2.0,-2.0,-2.0,0.0,1.0,-1.0,-1.0
1.695161147186912e+18,-1.0,-1.0,0.0,-3.0,-3.0,0.0,-1.0,1.0
1.695161147186912e+18,-1.0,-1.0,1.0,6.0,1.0,0.0,1.0,0.0
1.695161147187946e+18,0.0,-1.0,-1.0,-1.0,-2.0,-2.0,-1.0,-1.0
1.6951611472029025e+18,0.0,0.0,0.0,0.0,-2.0,-1.0,0.0,-1.0
1.6951611472039117e+18,-1.0,-1.0,-1.0,-2.0,0.0,1.0,0.0,-1.0
1.69516114720491e+18,-1.0,0.0,-1.0,-3.0,-1.0,-1.0,-2.0,-1.0
1.69516114720491e+18,0.0,-1.0,1.0,0.0,-1.0,-1.0,-1.0,0.0
1.6951611472228902e+18,-2.0,-1.0,0.0,-1.0,-1.0,-1.0,1.0,-1.0
1.695161147223889e+18,-1.0,-1.0,-1.0,1.0,-1.0,0.0,0.0,-1.0
1.695161147223889e+18,0.0,0.0,-2.0,0.0,0.0,1.0,1.0,0.0
1.695161147224889e+18,0.0,-1.0,0.0,0.0,-1.0,-1.0,0.0,0.0
1.6951611472508746e+18,-1.0,-2.0,0.0,-3.0,1.0,0.0,0.0,-1.0
1.6951611472508746e+18,0.0,0.0,-1.0,0.0,-2.0,-2.0,-1.0,-2.0
1.6951611472518853e+18,-2.0,0.0,-1.0,-3.0,0.0,-2.0,-1.0,-2.0
1.6951611472528822e+18,0.0,-1.0,0.0,0.0,-2.0,-3.0,0.0,-1.0
1.695161147260868e+18,1.0,1.0,-1.0,-2.0,-1.0,0.0,-1.0,0.0
1.6951611472618675e+18,-1.0,-1.0,1.0,1.0,2.0,-1.0,0.0,-1.0
1.6951611472618675e+18,0.0,-1.0,1.0,-1.0,-1.0,-1.0,-1.0,0.0
1.6951611472628677e+18,-1.0,0.0,-1.0,-1.0,2.0,-1.0,-2.0,1.0
1.6951611472988554e+18,-1.0,0.0,-1.0,-1.0,-2.0,2.0,1.0,-1.0
1.6951611472998538e+18,0.0,-1.0,-1.0,-2.0,-1.0,0.0,0.0,1.0
1.6951611473008453e+18,-1.0,-1.0,-1.0,-3.0,0.0,-1.0,-1.0,-1.0
1.6951611473008453e+18,0.0,-1.0,-2.0,1.0,0.0,-1.0,-1.0,0.0
1.6951611473068419e+18,0.0,-1.0,-1.0,-1.0,0.0,0.0,-2.0,-1.0
1.6951611473068419e+18,-1.0,-2.0,-1.0,0.0,-2.0,0.0,-3.0,1.0
1.6951611473078413e+18,-2.0,-1.0,-1.0,-1.0,0.0,1.0,-2.0,0.0
1.695161147309841e+18,-1.0,0.0,0.0,-3.0,-1.0,-2.0,-1.0,-1.0
1.6951611473288294e+18,-1.0,-1.0,0.0,-1.0,1.0,-2.0,-2.0,-3.0
1.6951611473298301e+18,-1.0,-1.0,-1.0,-1.0,-2.0,1.0,0.0,-3.0
1.6951611473308288e+18,0.0,0.0,0.0,-1.0,-1.0,0.0,-2.0,-1.0
1.6951611473308288e+18,0.0,2.0,-2.0,-2.0,0.0,-2.0,-2.0,0.0
1.6951611473438226e+18,-3.0,-7.0,-4.0,-1.0,-1.0,-2.0,0.0,0.0
1.6951611473448197e+18,-1.0,0.0,-1.0,1.0,1.0,0.0,0.0,-1.0
1.6951611473508168e+18,-3.0,-2.0,-2.0,-2.0,-1.0,-1.0,-1.0,-2.0
1.6951611473518164e+18,1.0,-1.0,0.0,0.0,-1.0,1.0,0.0,-2.0
1.6951611473818125e+18,-2.0,0.0,0.0,0.0,-2.0,0.0,-2.0,0.0
1.6951611473848325e+18,0.0,0.0,-1.0,-3.0,0.0,-1.0,-1.0,1.0
1.695161147385808e+18,-1.0,0.0,-1.0,0.0,0.0,-3.0,-1.0,0.0
1.695161147386806e+18,-1.0,-2.0,0.0,-1.0,0.0,-2.0,-1.0,0.0
1.695161147386806e+18,-1.0,1.0,0.0,-2.0,-2.0,-1.0,0.0,-1.0
1.6951611473878024e+18,-1.0,-2.0,-1.0,0.0,-1.0,-1.0,-1.0,-1.0
1.6951611473927936e+18,1.0,-1.0,1.0,0.0,-1.0,1.0,-2.0,-1.0
1.6951611473927936e+18,-1.0,-2.0,-1.0,-2.0,-1.0,-1.0,-1.0,0.0
1.6951611474027937e+18,-1.0,-1.0,-3.0,1.0,-2.0,1.0,0.0,1.0
1.6951611474038013e+18,0.0,2.0,1.0,-3.0,-1.0,0.0,1.0,0.0
1.6951611474107827e+18,0.0,-6.0,-3.0,-3.0,-2.0,-2.0,-2.0,0.0
1.6951611474107827e+18,-2.0,0.0,5.0,0.0,-1.0,-1.0,-1.0,-1.0
1.6951611474267735e+18,0.0,-2.0,-13.0,-1.0,0.0,0.0,-1.0,0.0
1.6951611474267735e+18,-3.0,0.0,0.0,1.0,-2.0,-1.0,-1.0,-2.0
1.6951611474277724e+18,0.0,1.0,0.0,0.0,-2.0,0.0,0.0,-2.0
1.695161147428772e+18,0.0,-3.0,-2.0,-1.0,-1.0,-2.0,0.0,-2.0
1.6951611474397706e+18,0.0,0.0,-1.0,-2.0,1.0,-1.0,-1.0,-2.0
1.6951611474407652e+18,-1.0,0.0,6.0,6.0,0.0,-2.0,0.0,-1.0
1.6951611474477606e+18,1.0,0.0,-2.0,-3.0,-2.0,0.0,1.0,-1.0
1.6951611474487603e+18,-2.0,0.0,-1.0,0.0,-2.0,-3.0,0.0,-2.0
1.6951611474647516e+18,1.0,-1.0,1.0,-1.0,-1.0,-1.0,-1.0,-2.0
1.6951611474657513e+18,-2.0,-4.0,-4.0,-3.0,-1.0,-1.0,-1.0,-2.0
1.6951611474657513e+18,-2.0,0.0,1.0,-2.0,1.0,1.0,1.0,-1.0
1.695161147466756e+18,0.0,-1.0,-2.0,-1.0,-1.0,-1.0,-1.0,1.0
1.6951611475007304e+18,-1.0,0.0,7.0,-1.0,1.0,-2.0,-1.0,-1.0
1.6951611475007304e+18,-1.0,-1.0,-7.0,-2.0,-1.0,-2.0,1.0,-1.0
1.6951611475017298e+18,0.0,1.0,-1.0,0.0,0.0,-2.0,-1.0,0.0
1.6951611475017298e+18,0.0,-1.0,-3.0,-3.0,-2.0,0.0,0.0,-2.0
1.695161147509725e+18,0.0,2.0,2.0,1.0,-2.0,0.0,-1.0,1.0
1.695161147509725e+18,0.0,-1.0,3.0,1.0,0.0,1.0,0.0,0.0
1.6951611475107236e+18,0.0,0.0,-2.0,1.0,0.0,-2.0,-2.0,-2.0
1.6951611475107236e+18,-2.0,-1.0,-4.0,0.0,0.0,0.0,0.0,-2.0
1.695161147522721e+18,-1.0,1.0,3.0,0.0,-1.0,0.0,0.0,-2.0
1.695161147522721e+18,-2.0,0.0,-2.0,-3.0,0.0,0.0,-2.0,1.0
1.6951611475237164e+18,1.0,0.0,-2.0,-1.0,-2.0,0.0,0.0,-2.0
1.6951611475247188e+18,0.0,-1.0,-1.0,0.0,-1.0,1.0,-3.0,-1.0
1.6951611475457288e+18,0.0,0.0,0.0,0.0,-1.0,-3.0,2.0,-1.0
1.6951611475467085e+18,-1.0,-1.0,-2.0,-3.0,0.0,-3.0,0.0,-1.0
1.6951611475477023e+18,-1.0,-1.0,0.0,-1.0,-1.0,-2.0,-1.0,0.0
1.6951611475477023e+18,1.0,-2.0,0.0,0.0,-1.0,0.0,0.0,-1.0
1.6951611475606966e+18,-1.0,-1.0,0.0,0.0,-1.0,1.0,-3.0,1.0
1.6951611475606966e+18,-1.0,-1.0,-1.0,-2.0,0.0,1.0,0.0,-1.0
1.6951611475767114e+18,-2.0,1.0,2.0,0.0,-1.0,-1.0,0.0,1.0
1.6951611475777093e+18,-1.0,-1.0,-2.0,-1.0,0.0,-2.0,0.0,-2.0
1.6951611475827067e+18,0.0,-1.0,0.0,1.0,0.0,-1.0,-2.0,-2.0
1.695161147583689e+18,1.0,0.0,-2.0,0.0,-1.0,1.0,-1.0,-2.0
1.695161147583689e+18,0.0,0.0,-1.0,0.0,-2.0,-1.0,-1.0,-2.0
1.695161147583689e+18,-1.0,0.0,-1.0,-3.0,0.0,-1.0,-1.0,-1.0
1.695161147605695e+18,-1.0,-3.0,-1.0,-1.0,0.0,0.0,0.0,0.0
1.6951611476066742e+18,0.0,-2.0,0.0,0.0,-1.0,1.0,-1.0,0.0
1.6951611476066742e+18,0.0,-2.0,0.0,-1.0,-1.0,-1.0,-1.0,-2.0
1.6951611476066742e+18,-1.0,-2.0,0.0,-1.0,0.0,-1.0,0.0,-1.0
1.6951611476196608e+18,0.0,2.0,1.0,0.0,-2.0,-4.0,-1.0,-2.0
1.6951611476196608e+18,-2.0,-4.0,-6.0,0.0,-2.0,-2.0,-2.0,0.0
1.695161147637675e+18,1.0,-1.0,-3.0,-1.0,1.0,0.0,0.0,0.0
1.695161147638655e+18,-1.0,1.0,-2.0,1.0,-2.0,-1.0,-1.0,0.0
1.695161147643648e+18,-1.0,-1.0,-1.0,0.0,0.0,0.0,-2.0,-2.0
1.695161147644648e+18,-3.0,0.0,0.0,0.0,0.0,-1.0,-1.0,-1.0
1.695161147644648e+18,-1.0,-2.0,1.0,1.0,0.0,1.0,-1.0,-2.0
1.6951611476456476e+18,-2.0,0.0,0.0,-1.0,0.0,0.0,-1.0,2.0
1.6951611476656346e+18,-1.0,0.0,-1.0,-1.0,0.0,1.0,0.0,-2.0
1.69516114766664e+18,-1.0,0.0,-1.0,0.0,-1.0,-1.0,1.0,-1.0
1.69516114766664e+18,-1.0,-1.0,-3.0,-1.0,0.0,-1.0,-1.0,0.0
1.695161147667634e+18,-1.0,-1.0,0.0,0.0,2.0,0.0,-2.0,0.0
1.6951611476796298e+18,-1.0,-1.0,-1.0,-4.0,-1.0,-1.0,-1.0,-1.0
1.6951611476796298e+18,1.0,-1.0,-1.0,-2.0,-1.0,0.0,-1.0,-2.0
1.695161147687622e+18,-1.0,0.0,0.0,0.0,0.0,0.0,-1.0,0.0
1.695161147687622e+18,2.0,-2.0,2.0,2.0,1.0,0.0,-1.0,-1.0
1.6951611477036152e+18,-1.0,0.0,-1.0,1.0,0.0,-1.0,-1.0,-2.0
1.6951611477036152e+18,2.0,-1.0,-1.0,-1.0,-1.0,0.0,-2.0,-2.0
1.695161147705617e+18,-1.0,-1.0,-1.0,-2.0,0.0,-1.0,0.0,0.0
1.695161147705617e+18,-2.0,-2.0,-4.0,0.0,-2.0,-1.0,-1.0,0.0
1.695161147741596e+18,-1.0,-1.0,-1.0,1.0,-2.0,-1.0,-1.0,-1.0
1.695161147741596e+18,-1.0,0.0,1.0,0.0,0.0,-1.0,1.0,-1.0
1.6951611477425915e+18,-2.0,1.0,0.0,-2.0,-1.0,1.0,0.0,-1.0
1.6951611477425915e+18,0.0,0.0,0.0,-2.0,0.0,0.0,0.0,-1.0
1.695161147764583e+18,0.0,-1.0,-2.0,-2.0,-1.0,-1.0,-2.0,1.0
1.695161147764583e+18,-2.0,0.0,-2.0,0.0,-2.0,-2.0,-2.0,0.0
1.6951611477656018e+18,1.0,-2.0,-2.0,0.0,-2.0,-1.0,0.0,0.0
1.6951611477656018e+18,0.0,-1.0,-2.0,-2.0,-1.0,-1.0,1.0,-2.0
1.695161147771575e+18,-1.0,-1.0,-1.0,-1.0,-1.0,1.0,0.0,1.0
1.6951611477725742e+18,1.0,0.0,1.0,-1.0,0.0,0.0,0.0,-1.0
1.695161147773574e+18,-1.0,0.0,3.0,0.0,-1.0,-1.0,-1.0,-1.0
1.695161147773574e+18,-1.0,-1.0,-9.0,-1.0,-2.0,-1.0,-1.0,-1.0
1.6951611477895644e+18,-1.0,-2.0,-1.0,-1.0,-2.0,-1.0,1.0,-1.0
1.6951611477905667e+18,0.0,0.0,1.0,-2.0,0.0,0.0,0.0,1.0
1.6951611477905667e+18,-1.0,-1.0,-2.0,0.0,-2.0,-2.0,-1.0,-1.0
1.6951611477905667e+18,-2.0,0.0,1.0,0.0,0.0,-2.0,0.0,-2.0
1.6951611478085522e+18,-2.0,-1.0,-2.0,-1.0,0.0,0.0,2.0,1.0
1.6951611478085522e+18,-2.0,-3.0,-2.0,0.0,-1.0,-1.0,-3.0,-2.0
1.6951611478095521e+18,0.0,1.0,0.0,0.0,-2.0,0.0,0.0,0.0
1.6951611478095521e+18,-1.0,0.0,0.0,-2.0,0.0,-1.0,-1.0,0.0
1.6951611478225472e+18,-2.0,-1.0,-2.0,-1.0,1.0,0.0,-2.0,-1.0
1.6951611478225472e+18,0.0,-1.0,0.0,0.0,-1.0,0.0,1.0,0.0
1.695161147823544e+18,-2.0,-2.0,-1.0,-2.0,-1.0,-1.0,0.0,-1.0
1.695161147823544e+18,0.0,-1.0,-2.0,0.0,-2.0,0.0,-1.0,-1.0
1.6951611478455327e+18,0.0,-3.0,0.0,0.0,-2.0,-1.0,-1.0,-2.0
1.6951611478455327e+18,-1.0,-1.0,-2.0,-2.0,-1.0,-2.0,1.0,-1.0
1.6951611478545487e+18,-2.0,-2.0,-2.0,1.0,0.0,0.0,-1.0,0.0
1.6951611478545487e+18,-1.0,0.0,2.0,0.0,-2.0,-1.0,0.0,1.0
1.6951611478685204e+18,0.0,-1.0,-1.0,-3.0,-1.0,0.0,-1.0,0.0
1.6951611478685204e+18,-1.0,0.0,-1.0,-1.0,-1.0,-1.0,-1.0,0.0
1.6951611478685204e+18,1.0,1.0,-2.0,-2.0,2.0,-1.0,-1.0,-1.0
1.6951611478695178e+18,-1.0,-1.0,1.0,-3.0,-2.0,1.0,0.0,-1.0
1.6951611478845112e+18,0.0,1.0,-2.0,6.0,-1.0,-3.0,0.0,-2.0
1.6951611478875067e+18,-2.0,-2.0,1.0,4.0,3.0,-2.0,-2.0,-1.0
1.6951611478875067e+18,0.0,1.0,4.0,-1.0,-5.0,-2.0,-2.0,-1.0
1.6951611478875067e+18,-1.0,0.0,-2.0,-3.0,-2.0,-1.0,-2.0,0.0
1.695161147905496e+18,0.0,-5.0,1.0,-2.0,1.0,0.0,0.0,1.0
1.6951611479064983e+18,0.0,-1.0,-1.0,0.0,-1.0,0.0,-1.0,-1.0
1.6951611479064983e+18,0.0,-1.0,-2.0,1.0,1.0,-1.0,-1.0,-2.0
1.6951611479064983e+18,-1.0,0.0,1.0,-1.0,-1.0,2.0,0.0,-1.0
1.695161147928484e+18,1.0,1.0,-2.0,-4.0,-2.0,-2.0,0.0,-1.0
1.695161147928484e+18,-1.0,-1.0,-1.0,0.0,0.0,0.0,-1.0,-1.0
1.6951611479294835e+18,0.0,-2.0,-1.0,-3.0,-1.0,-1.0,0.0,-1.0
1.6951611479294835e+18,-1.0,0.0,-2.0,-2.0,0.0,-1.0,-1.0,0.0
1.6951611479424978e+18,0.0,0.0,-1.0,-1.0,0.0,1.0,-1.0,-1.0
1.6951611479424978e+18,0.0,-1.0,0.0,-2.0,-1.0,-1.0,0.0,1.0
1.6951611479434977e+18,0.0,0.0,-3.0,-1.0,0.0,1.0,0.0,-1.0
1.6951611479434977e+18,0.0,-1.0,-1.0,2.0,1.0,-2.0,-2.0,-1.0
1.6951611479674637e+18,-3.0,0.0,0.0,-1.0,0.0,-2.0,-1.0,0.0
1.6951611479674637e+18,-1.0,0.0,-1.0,0.0,-1.0,0.0,-1.0,-1.0
1.6951611479684608e+18,1.0,-2.0,-1.0,-2.0,0.0,0.0,0.0,0.0
1.6951611479684608e+18,-2.0,-2.0,-1.0,-1.0,0.0,-3.0,-2.0,0.0
1.6951611480195988e+18,0.0,-1.0,0.0,-2.0,0.0,1.0,1.0,0.0
1.6951611480195988e+18,-1.0,-1.0,-1.0,-1.0,-1.0,-1.0,-1.0,-2.0
1.6951611480205783e+18,-2.0,0.0,-2.0,-2.0,-1.0,0.0,-1.0,0.0
1.6951611480205783e+18,1.0,-1.0,-2.0,0.0,-2.0,1.0,0.0,0.0
1.6951611480215805e+18,-1.0,0.0,-1.0,-2.0,-3.0,-3.0,-2.0,-1.0
1.6951611480225756e+18,-1.0,-1.0,-1.0,-2.0,-1.0,-1.0,-1.0,-3.0
1.6951611480265723e+18,-1.0,-1.0,-1.0,1.0,1.0,-3.0,-2.0,-1.0
1.6951611480265723e+18,-2.0,-3.0,0.0,-3.0,-1.0,-2.0,0.0,1.0
1.695161148027575e+18,-1.0,0.0,-3.0,0.0,-2.0,0.0,0.0,-1.0
1.69516114802858e+18,1.0,-1.0,-2.0,-1.0,-1.0,-1.0,-1.0,1.0
1.69516114802858e+18,-1.0,-1.0,-1.0,-2.0,0.0,-1.0,-1.0,-2.0
1.695161148029574e+18,0.0,-1.0,0.0,-1.0,0.0,-1.0,-1.0,-1.0
1.6951611480565596e+18,-1.0,-1.0,1.0,0.0,-2.0,0.0,0.0,-1.0
1.6951611480565596e+18,-1.0,-1.0,0.0,0.0,0.0,-1.0,1.0,0.0
1.695161148057557e+18,-1.0,0.0,-2.0,0.0,0.0,-3.0,0.0,0.0
1.695161148057557e+18,0.0,-1.0,1.0,0.0,-1.0,-2.0,0.0,-1.0
1.6951611480706422e+18,1.0,-2.0,0.0,-1.0,-1.0,-2.0,-1.0,1.0
1.6951611480706422e+18,-2.0,-2.0,-1.0,-2.0,-2.0,-1.0,-1.0,1.0
1.6951611480716022e+18,-1.0,-1.0,0.0,0.0,-1.0,-1.0,0.0,0.0
1.6951611480716022e+18,-2.0,0.0,-1.0,0.0,-1.0,-1.0,0.0,-2.0
1.6951611480848271e+18,-1.0,1.0,0.0,-1.0,-2.0,2.0,1.0,-2.0
1.695161148085768e+18,0.0,0.0,0.0,-2.0,-1.0,1.0,-1.0,-1.0
1.695161148085768e+18,-1.0,-1.0,-2.0,-1.0,0.0,0.0,-2.0,-2.0
1.695161148085768e+18,-1.0,0.0,-1.0,0.0,1.0,-1.0,0.0,-1.0
1.695161148109461e+18,-1.0,0.0,-1.0,-2.0,1.0,0.0,-1.0,-1.0
1.6951611481104612e+18,0.0,0.0,1.0,-2.0,0.0,-1.0,0.0,0.0
1.6951611481104612e+18,-1.0,-1.0,-1.0,-2.0,-2.0,0.0,-2.0,0.0
1.6951611481114614e+18,-1.0,0.0,0.0,1.0,-1.0,-1.0,0.0,0.0
1.695161148131448e+18,1.0,-1.0,-2.0,0.0,0.0,-2.0,-1.0,0.0
1.695161148131448e+18,-1.0,-1.0,-2.0,-2.0,-1.0,-2.0,-2.0,0.0
1.6951611481324485e+18,-1.0,-1.0,0.0,-3.0,-1.0,0.0,0.0,-2.0
1.6951611481324485e+18,-1.0,-1.0,-1.0,0.0,-2.0,0.0,-1.0,-1.0
1.69516114814544e+18,-1.0,0.0,-1.0,0.0,-1.0,-1.0,0.0,1.0
1.6951611481464415e+18,0.0,-2.0,0.0,-1.0,-1.0,0.0,0.0,-1.0
1.6951611481464415e+18,0.0,-1.0,-2.0,-1.0,-1.0,1.0,1.0,0.0
1.6951611481464415e+18,1.0,-1.0,0.0,-1.0,0.0,-1.0,1.0,-2.0
1.6951611481684265e+18,-1.0,-1.0,-1.0,0.0,0.0,-2.0,-1.0,-1.0
1.6951611481694264e+18,-1.0,-1.0,0.0,1.0,-2.0,-1.0,-1.0,-1.0
1.6951611481694264e+18,-3.0,-1.0,0.0,0.0,0.0,-1.0,-1.0,-2.0
1.695161148170425e+18,0.0,-2.0,-2.0,1.0,-1.0,1.0,-2.0,1.0
1.695161148182419e+18,-1.0,-1.0,0.0,-1.0,-1.0,-1.0,-1.0,-1.0
1.695161148182419e+18,0.0,-1.0,0.0,1.0,0.0,0.0,1.0,-2.0
1.6951611481904138e+18,-1.0,-2.0,0.0,1.0,0.0,-2.0,0.0,0.0
1.6951611481914143e+18,0.0,-1.0,-1.0,0.0,0.0,-1.0,-1.0,-2.0
1.6951611482114258e+18,-1.0,-3.0,-1.0,-2.0,-1.0,0.0,-2.0,-2.0
1.6951611482124027e+18,-1.0,0.0,-2.0,-2.0,-1.0,-1.0,-1.0,-1.0
1.6951611482124027e+18,-2.0,-2.0,-1.0,-1.0,-1.0,-1.0,0.0,-1.0
1.6951611482134065e+18,1.0,0.0,-1.0,-1.0,-1.0,0.0,-2.0,0.0
1.6951611482283917e+18,-1.0,-1.0,-2.0,-1.0,0.0,0.0,-2.0,0.0
1.695161148229392e+18,0.0,-1.0,-1.0,0.0,2.0,-1.0,-2.0,-1.0
1.695161148229392e+18,-1.0,-1.0,-1.0,-1.0,-1.0,-2.0,0.0,-1.0
1.695161148230392e+18,-1.0,-1.0,-3.0,0.0,-3.0,-2.0,0.0,0.0
1.695161148251304e+18,0.0,-1.0,0.0,-1.0,-1.0,-1.0,-1.0,-3.0
1.695161148251304e+18,-2.0,-1.0,0.0,-2.0,0.0,0.0,0.0,-1.0
1.6951611482523044e+18,0.0,-1.0,-2.0,-1.0,-1.0,-1.0,-2.0,0.0
1.6951611482523044e+18,-1.0,0.0,0.0,0.0,-1.0,-1.0,-2.0,-1.0
1.6951611482742912e+18,0.0,0.0,-1.0,0.0,0.0,0.0,-1.0,-1.0
1.6951611482782884e+18,0.0,0.0,-1.0,-1.0,-1.0,-2.0,-1.0,-1.0
1.6951611482902812e+18,0.0,-1.0,-1.0,-2.0,-2.0,-2.0,-2.0,-1.0
1.6951611482932797e+18,-1.0,-1.0,0.0,-2.0,-1.0,1.0,-1.0,0.0
1.695161148295279e+18,-2.0,0.0,-1.0,-1.0,-1.0,-1.0,0.0,-1.0
1.695161148296279e+18,0.0,0.0,-1.0,-2.0,1.0,0.0,0.0,2.0
1.695161148296279e+18,-1.0,-1.0,-1.0,-1.0,0.0,-1.0,1.0,0.0
1.6951611482972782e+18,-2.0,-1.0,-1.0,-2.0,-1.0,0.0,-2.0,-2.0
1.6951611483112689e+18,0.0,0.0,-1.0,-1.0,-1.0,-1.0,-2.0,0.0
1.6951611483112689e+18,0.0,-1.0,-2.0,0.0,-1.0,-1.0,-1.0,-2.0
1.6951611483112689e+18,0.0,-1.0,0.0,-1.0,0.0,0.0,-2.0,1.0
1.6951611483122706e+18,-2.0,-2.0,-1.0,0.0,0.0,0.0,-1.0,0.0
1.6951611483262592e+18,-1.0,0.0,-1.0,-1.0,-2.0,0.0,-1.0,-1.0
1.6951611483262592e+18,1.0,0.0,0.0,0.0,-2.0,1.0,-2.0,1.0
1.6951611483272594e+18,0.0,0.0,-1.0,1.0,1.0,1.0,0.0,-3.0
1.6951611483272594e+18,0.0,-1.0,0.0,0.0,0.0,-2.0,1.0,-1.0
1.695161148348247e+18,0.0,-1.0,0.0,-2.0,-1.0,-3.0,0.0,-1.0
1.695161148348247e+18,-1.0,-1.0,-1.0,0.0,-1.0,-1.0,-2.0,-1.0
1.695161148349247e+18,0.0,-2.0,-1.0,1.0,-1.0,-1.0,0.0,-1.0
1.695161148349247e+18,0.0,0.0,-2.0,0.0,-2.0,-2.0,0.0,-1.0
1.695161148362294e+18,-2.0,-2.0,1.0,0.0,0.0,-2.0,0.0,-1.0
1.695161148362294e+18,0.0,-1.0,-2.0,0.0,-2.0,-1.0,-1.0,0.0
1.6951611483702917e+18,0.0,1.0,0.0,0.0,-1.0,0.0,-2.0,-1.0
1.6951611483702917e+18,-1.0,-1.0,-2.0,-1.0,-2.0,0.0,1.0,0.0
1.6951611483862802e+18,0.0,-2.0,0.0,1.0,-1.0,0.0,-1.0,-1.0
1.6951611483862802e+18,0.0,-1.0,-1.0,0.0,0.0,0.0,1.0,0.0
1.6951611483862802e+18,0.0,0.0,-1.0,-2.0,-1.0,0.0,-1.0,-2.0
1.6951611483862802e+18,0.0,1.0,-1.0,0.0,1.0,0.0,1.0,-1.0
1.6951611484085153e+18,0.0,0.0,0.0,-1.0,-1.0,2.0,-1.0,-1.0
1.6951611484085153e+18,-2.0,-1.0,-2.0,-1.0,0.0,0.0,0.0,1.0
1.6951611484085153e+18,-1.0,-1.0,-2.0,1.0,-1.0,-1.0,0.0,1.0
1.6951611484085153e+18,-1.0,-1.0,1.0,-1.0,-3.0,-2.0,-2.0,-2.0
1.695161148422592e+18,0.0,-1.0,0.0,0.0,0.0,-2.0,0.0,0.0
1.695161148422592e+18,-1.0,0.0,0.0,0.0,0.0,0.0,-1.0,-2.0
1.6951611484305244e+18,0.0,-2.0,-1.0,-3.0,-2.0,-1.0,-2.0,0.0
1.6951611484305244e+18,-1.0,-2.0,-1.0,-3.0,0.0,-1.0,-2.0,1.0
1.6951611484453489e+18,-1.0,-1.0,-2.0,-1.0,-2.0,-1.0,-2.0,1.0
1.6951611484453489e+18,-2.0,-1.0,-1.0,-2.0,0.0,-2.0,-2.0,-4.0
1.695161148453345e+18,-1.0,0.0,-2.0,0.0,-2.0,-2.0,-2.0,-2.0
1.695161148453345e+18,1.0,1.0,-2.0,1.0,-2.0,-1.0,-2.0,-2.0
1.695161148468519e+18,-1.0,-3.0,-3.0,-2.0,0.0,-1.0,-1.0,-1.0
1.695161148468519e+18,-4.0,-4.0,-2.0,-2.0,-4.0,-2.0,0.0,-3.0
1.695161148469526e+18,-2.0,-1.0,-2.0,-1.0,1.0,-1.0,0.0,0.0
1.695161148469526e+18,-3.0,-2.0,-2.0,-4.0,-2.0,-1.0,-1.0,-3.0
1.695161148490587e+18,-1.0,-1.0,-2.0,0.0,-1.0,-2.0,-1.0,-2.0
1.6951611484916124e+18,0.0,-1.0,0.0,-1.0,0.0,-2.0,-1.0,-1.0
1.6951611484916124e+18,-2.0,-3.0,-1.0,1.0,0.0,-1.0,1.0,-1.0
1.6951611484916124e+18,-2.0,-2.0,0.0,1.0,-3.0,-2.0,-1.0,-2.0
1.6951611485058693e+18,-3.0,1.0,-1.0,0.0,-2.0,-3.0,0.0,-1.0
1.695161148506554e+18,-2.0,-2.0,-2.0,-2.0,-1.0,-1.0,-2.0,-1.0
1.695161148506554e+18,0.0,-3.0,-2.0,0.0,-1.0,-3.0,0.0,-1.0
1.695161148506554e+18,0.0,-1.0,0.0,0.0,-1.0,0.0,0.0,-1.0
1.69516114852855e+18,-3.0,-3.0,-2.0,0.0,-1.0,-1.0,1.0,-1.0
1.69516114852855e+18,-1.0,1.0,-1.0,2.0,-2.0,0.0,-1.0,0.0
1.695161148529546e+18,-1.0,0.0,-1.0,-2.0,-2.0,-2.0,0.0,0.0
1.695161148529546e+18,-2.0,-2.0,-2.0,0.0,0.0,-3.0,-1.0,-1.0
1.6951611485525356e+18,0.0,-1.0,-1.0,-2.0,1.0,-1.0,-1.0,-2.0
1.6951611485525356e+18,0.0,0.0,-1.0,0.0,-1.0,-1.0,0.0,-1.0
1.6951611485535357e+18,-1.0,1.0,-2.0,-1.0,0.0,-1.0,1.0,-1.0
1.6951611485535357e+18,-1.0,-3.0,-1.0,-2.0,0.0,0.0,-1.0,0.0
1.6951611485655473e+18,0.0,0.0,0.0,-1.0,-1.0,1.0,-4.0,-1.0
1.6951611485665252e+18,-1.0,0.0,-1.0,-1.0,1.0,1.0,-2.0,0.0
1.6951611485665252e+18,0.0,-1.0,1.0,-2.0,-1.0,-1.0,0.0,-2.0
1.6951611485665252e+18,1.0,-1.0,1.0,0.0,1.0,0.0,1.0,-1.0
1.6951611485885898e+18,-1.0,-1.0,-2.0,-2.0,-2.0,-3.0,-1.0,1.0
1.6951611485885898e+18,-3.0,-2.0,0.0,-4.0,0.0,-2.0,-1.0,1.0
1.6951611485885898e+18,-2.0,0.0,-2.0,1.0,0.0,2.0,-2.0,0.0
1.6951611485895846e+18,-2.0,-2.0,-4.0,-5.0,-2.0,-1.0,1.0,0.0
1.6951611486105943e+18,-1.0,0.0,-2.0,0.0,-2.0,-2.0,-2.0,-1.0
1.6951611486115753e+18,1.0,1.0,-1.0,-5.0,-3.0,-2.0,-1.0,-2.0
1.6951611486115753e+18,-1.0,-2.0,0.0,0.0,-6.0,-5.0,-2.0,-2.0
1.6951611486115753e+18,-1.0,0.0,2.0,15.0,10.0,7.0,3.0,1.0
1.6951611486256417e+18,0.0,-1.0,0.0,5.0,3.0,1.0,0.0,1.0
1.695161148626601e+18,-1.0,-2.0,-3.0,-6.0,0.0,-3.0,-1.0,-1.0
1.695161148626601e+18,1.0,-1.0,-1.0,-12.0,-12.0,-5.0,-2.0,-1.0
1.695161148626601e+18,0.0,2.0,-3.0,-11.0,-11.0,-5.0,-2.0,-3.0
1.6951611486485281e+18,-1.0,-1.0,1.0,1.0,1.0,2.0,2.0,2.0
1.6951611486495383e+18,-1.0,-2.0,-1.0,2.0,2.0,2.0,-1.0,0.0
1.6951611486495383e+18,1.0,-1.0,1.0,11.0,1.0,1.0,-1.0,-1.0
1.6951611486495383e+18,0.0,-2.0,-1.0,-3.0,-3.0,-3.0,-3.0,-2.0
1.6951611486875658e+18,-1.0,0.0,-2.0,-4.0,-9.0,-3.0,0.0,-2.0
1.695161148688558e+18,0.0,-3.0,-1.0,-4.0,-4.0,-3.0,0.0,-1.0
1.695161148689565e+18,-2.0,-1.0,0.0,-1.0,3.0,1.0,-2.0,0.0
1.6951611486905572e+18,-1.0,-1.0,-1.0,0.0,-3.0,-2.0,-2.0,1.0
1.6951611486915643e+18,0.0,1.0,1.0,-2.0,4.0,-2.0,-3.0,-2.0
1.6951611486915643e+18,1.0,0.0,1.0,11.0,4.0,4.0,1.0,1.0
1.6951611486935562e+18,-2.0,-1.0,-1.0,-2.0,1.0,1.0,0.0,-1.0
1.6951611486935562e+18,-3.0,-1.0,-2.0,4.0,3.0,2.0,-3.0,-1.0
1.695161148716543e+18,0.0,0.0,-4.0,-19.0,-11.0,-2.0,-2.0,-2.0
1.695161148717545e+18,-2.0,-1.0,2.0,-1.0,-4.0,-5.0,-1.0,0.0
1.695161148718577e+18,0.0,1.0,0.0,-3.0,4.0,0.0,2.0,2.0
1.695161148718577e+18,-2.0,0.0,-1.0,4.0,-2.0,-3.0,-3.0,-2.0
1.6951611487485317e+18,-4.0,-4.0,-2.0,14.0,14.0,4.0,1.0,-1.0
1.695161148749525e+18,-2.0,0.0,-3.0,-7.0,-4.0,-11.0,-3.0,-4.0
1.695161148749525e+18,-1.0,0.0,0.0,-2.0,1.0,6.0,0.0,-1.0
1.6951611487505226e+18,1.0,1.0,2.0,11.0,-5.0,1.0,2.0,0.0
1.6951611487505226e+18,2.0,2.0,7.0,-9.0,2.0,4.0,-2.0,-1.0
1.6951611487535296e+18,2.0,-4.0,-12.0,-3.0,0.0,5.0,3.0,0.0
1.695161148754521e+18,-2.0,-2.0,5.0,2.0,-5.0,-7.0,-3.0,-2.0
1.695161148755521e+18,-3.0,-7.0,-6.0,-9.0,-1.0,-4.0,-3.0,-3.0
1.6951611488006008e+18,2.0,7.0,2.0,8.0,-7.0,-6.0,-5.0,-1.0
1.6951611488016023e+18,-4.0,-13.0,-1.0,3.0,0.0,-3.0,0.0,0.0
1.6951611488016023e+18,-4.0,0.0,-3.0,-1.0,-1.0,1.0,0.0,-3.0
1.6951611488016023e+18,1.0,-3.0,0.0,-4.0,7.0,2.0,0.0,1.0
1.6951611488025925e+18,5.0,-8.0,-3.0,1.0,-5.0,0.0,4.0,0.0
1.6951611488025925e+18,0.0,4.0,2.0,-3.0,-10.0,-3.0,1.0,-9.0
1.6951611488076042e+18,-2.0,-6.0,-4.0,-8.0,2.0,2.0,5.0,-13.0
1.6951611488076042e+18,-2.0,8.0,-2.0,7.0,-6.0,4.0,3.0,21.0
1.695161148808603e+18,1.0,5.0,2.0,-16.0,-4.0,-5.0,-37.0,-28.0
1.695161148808603e+18,-17.0,-37.0,-7.0,-3.0,-2.0,2.0,-3.0,19.0
1.6951611488096023e+18,20.0,24.0,2.0,9.0,7.0,-1.0,0.0,12.0
1.6951611488096023e+18,-3.0,14.0,5.0,-4.0,-3.0,-5.0,9.0,-1.0
1.6951611488305907e+18,3.0,-12.0,-7.0,-1.0,-4.0,-3.0,18.0,0.0
1.6951611488305907e+18,-8.0,-2.0,-2.0,-14.0,-22.0,-17.0,-29.0,-11.0
1.6951611488315922e+18,-5.0,-7.0,0.0,11.0,7.0,6.0,10.0,-8.0
1.6951611488315922e+18,11.0,2.0,1.0,2.0,12.0,4.0,8.0,-3.0
1.6951611488515794e+18,-19.0,-6.0,0.0,10.0,5.0,0.0,2.0,8.0
1.695161148852578e+18,4.0,5.0,6.0,3.0,0.0,6.0,-1.0,7.0
1.6951611488535775e+18,-3.0,4.0,-4.0,-4.0,-6.0,-7.0,-2.0,4.0
1.6951611488535775e+18,2.0,-5.0,3.0,-10.0,1.0,5.0,6.0,-30.0
1.695161148866571e+18,0.0,-7.0,-1.0,-2.0,-3.0,-4.0,-1.0,14.0
1.6951611488675692e+18,3.0,10.0,1.0,6.0,5.0,-1.0,-7.0,0.0
1.6951611488675692e+18,6.0,10.0,2.0,11.0,8.0,-4.0,-13.0,-8.0
1.6951611488685686e+18,-16.0,-15.0,-1.0,-11.0,-9.0,-3.0,17.0,20.0
1.6951611488995512e+18,-3.0,-1.0,-3.0,5.0,7.0,1.0,-16.0,-41.0
1.69516114890056e+18,7.0,8.0,4.0,-2.0,1.0,2.0,-5.0,34.0
1.6951611489015585e+18,-2.0,-7.0,-2.0,-6.0,-6.0,9.0,24.0,7.0
1.6951611489015585e+18,3.0,-5.0,-3.0,11.0,8.0,2.0,-8.0,-6.0
1.6951611489105464e+18,8.0,5.0,2.0,-3.0,-11.0,-6.0,-2.0,11.0
1.6951611489115425e+18,4.0,9.0,1.0,4.0,2.0,-1.0,7.0,-14.0
1.6951611489175404e+18,-10.0,-4.0,-3.0,-9.0,-2.0,-3.0,-6.0,-11.0
1.6951611489185395e+18,4.0,0.0,3.0,5.0,0.0,-3.0,-11.0,6.0
1.6951611489245356e+18,-6.0,-17.0,0.0,-3.0,6.0,10.0,21.0,7.0
1.695161148925535e+18,7.0,13.0,8.0,5.0,0.0,1.0,-2.0,-16.0
1.6951611489405274e+18,-9.0,-6.0,-6.0,-10.0,-4.0,-5.0,2.0,13.0
1.695161148941526e+18,-1.0,-5.0,-6.0,-2.0,-8.0,0.0,-4.0,0.0
1.69516114894752e+18,2.0,10.0,-4.0,4.0,0.0,-4.0,-2.0,9.0
1.69516114894752e+18,6.0,-2.0,18.0,12.0,10.0,3.0,7.0,-8.0
1.6951611489615168e+18,3.0,-2.0,-16.0,-7.0,-3.0,-1.0,-5.0,-3.0
1.695161148962513e+18,-8.0,4.0,34.0,0.0,2.0,0.0,-4.0,3.0
1.6951611489705096e+18,14.0,-5.0,-43.0,-14.0,-10.0,-5.0,0.0,2.0
1.6951611489705096e+18,-4.0,-4.0,-6.0,-1.0,1.0,4.0,7.0,1.0
1.6951611489765038e+18,14.0,6.0,15.0,3.0,-2.0,-1.0,-4.0,3.0
1.6951611489775037e+18,-20.0,-4.0,-8.0,-12.0,-9.0,-6.0,-16.0,-24.0
1.695161148984502e+18,5.0,1.0,16.0,17.0,11.0,0.0,5.0,10.0
1.695161148984502e+18,-1.0,0.0,-8.0,-6.0,2.0,2.0,6.0,-9.0
1.6951611489984947e+18,-8.0,-2.0,-7.0,2.0,-6.0,-6.0,-10.0,3.0
1.6951611489984947e+18,29.0,0.0,23.0,-7.0,-6.0,3.0,4.0,-3.0
1.6951611490154816e+18,-8.0,5.0,-13.0,1.0,8.0,-2.0,1.0,8.0
1.6951611490164846e+18,-5.0,3.0,-2.0,6.0,14.0,5.0,-4.0,1.0
1.695161149017481e+18,-10.0,-2.0,-4.0,0.0,-4.0,6.0,3.0,-10.0
1.695161149017481e+18,5.0,7.0,-4.0,-5.0,0.0,-4.0,2.0,-13.0
1.6951611490314762e+18,-9.0,-17.0,9.0,-1.0,-10.0,-3.0,-20.0,2.0
1.695161149033472e+18,11.0,-3.0,-14.0,-4.0,-6.0,0.0,7.0,21.0
1.6951611490374694e+18,-10.0,0.0,8.0,-1.0,4.0,-3.0,-6.0,-6.0
1.69516114903847e+18,6.0,10.0,-6.0,-8.0,-11.0,-7.0,-2.0,-4.0
1.695161149044466e+18,-5.0,-6.0,-4.0,-1.0,3.0,5.0,12.0,-15.0
1.695161149044466e+18,-5.0,4.0,28.0,-2.0,-3.0,-3.0,-8.0,-10.0
1.6951611490534638e+18,3.0,-17.0,0.0,5.0,3.0,4.0,0.0,13.0
1.6951611490534638e+18,-1.0,10.0,-18.0,-12.0,-4.0,-2.0,15.0,10.0
1.69516114906846e+18,10.0,3.0,21.0,6.0,0.0,-2.0,-7.0,6.0
1.69516114906846e+18,-24.0,-11.0,-46.0,-6.0,1.0,-3.0,-10.0,-26.0
1.6951611490744494e+18,-3.0,-1.0,4.0,2.0,-1.0,-4.0,1.0,3.0
1.6951611490784479e+18,3.0,-2.0,-1.0,1.0,-4.0,-4.0,-9.0,0.0
1.695161149091439e+18,-5.0,7.0,3.0,-3.0,5.0,1.0,9.0,13.0
1.695161149091439e+18,-9.0,-4.0,7.0,-6.0,-5.0,-3.0,-5.0,-17.0
1.6951611490924636e+18,5.0,-7.0,-27.0,2.0,-2.0,-8.0,3.0,0.0
1.6951611490924636e+18,-6.0,-9.0,-3.0,0.0,13.0,13.0,0.0,18.0
1.6951611491074442e+18,-3.0,6.0,-25.0,-11.0,-17.0,-6.0,-6.0,-16.0
1.69516114911143e+18,22.0,-9.0,-6.0,-1.0,3.0,6.0,5.0,6.0
1.695161149113436e+18,-18.0,7.0,-1.0,-5.0,-7.0,-9.0,-7.0,0.0
1.695161149113436e+18,-6.0,-7.0,21.0,-1.0,-1.0,-6.0,-7.0,-15.0
1.6951611491284183e+18,-4.0,11.0,9.0,-9.0,-13.0,2.0,10.0,2.0
1.6951611491284183e+18,0.0,-11.0,-11.0,2.0,3.0,-4.0,-13.0,13.0
1.6951611491294167e+18,14.0,2.0,-1.0,-5.0,0.0,0.0,-4.0,-12.0
1.6951611491304205e+18,-21.0,-23.0,-29.0,6.0,2.0,-3.0,-13.0,-2.0
1.6951611491504038e+18,8.0,25.0,40.0,-9.0,-4.0,0.0,2.0,4.0
1.6951611491514076e+18,-3.0,-6.0,-42.0,-12.0,-14.0,0.0,17.0,-3.0
1.6951611491524275e+18,-2.0,-11.0,17.0,8.0,8.0,1.0,-4.0,9.0
1.6951611491524275e+18,8.0,15.0,11.0,6.0,-1.0,-7.0,-14.0,-12.0
1.6951611491644823e+18,-25.0,-12.0,-13.0,-1.0,2.0,1.0,-6.0,-5.0
1.6951611491644823e+18,-4.0,9.0,20.0,-1.0,2.0,2.0,12.0,3.0
1.695161149180529e+18,-4.0,-10.0,-24.0,-18.0,-7.0,-1.0,-6.0,-17.0
1.695161149180529e+18,9.0,10.0,36.0,12.0,2.0,0.0,3.0,35.0
1.6951611491967667e+18,28.0,-13.0,-17.0,5.0,6.0,2.0,14.0,21.0
1.695161149197767e+18,-11.0,3.0,-19.0,-15.0,-12.0,-3.0,1.0,2.0
1.695161149197767e+18,-4.0,7.0,7.0,-8.0,-3.0,4.0,-1.0,-10.0
1.6951611491987658e+18,-6.0,-9.0,-17.0,0.0,4.0,2.0,5.0,-8.0
1.6951611492107597e+18,3.0,5.0,11.0,10.0,1.0,-6.0,-14.0,-10.0
1.6951611492107597e+18,7.0,13.0,30.0,-1.0,-6.0,-5.0,-3.0,4.0
1.6951611492187558e+18,3.0,-23.0,-8.0,3.0,8.0,9.0,14.0,3.0
1.6951611492197617e+18,-2.0,-3.0,-19.0,-5.0,0.0,0.0,3.0,-7.0
1.6951611492257677e+18,-11.0,-2.0,10.0,1.0,-1.0,-4.0,-4.0,-3.0
1.6951611492257677e+18,12.0,7.0,-9.0,0.0,-3.0,-4.0,2.0,3.0
1.6951611492577329e+18,-3.0,-1.0,37.0,12.0,3.0,1.0,-6.0,-5.0
1.69516114926073e+18,-21.0,-12.0,-22.0,-16.0,-5.0,1.0,-2.0,-3.0
1.6951611492617295e+18,-29.0,13.0,10.0,-10.0,-2.0,-5.0,-12.0,-27.0
1.6951611492627305e+18,-7.0,-11.0,17.0,22.0,6.0,0.0,-3.0,-5.0
1.695161149263734e+18,12.0,4.0,-33.0,-7.0,-9.0,1.0,10.0,10.0
1.695161149263734e+18,14.0,-1.0,-12.0,10.0,6.0,-2.0,2.0,14.0
1.6951611492717225e+18,0.0,15.0,33.0,3.0,-3.0,-1.0,-2.0,-19.0
1.695161149272723e+18,-9.0,-17.0,-7.0,-6.0,3.0,-4.0,-20.0,-7.0
1.695161149272723e+18,-1.0,-2.0,-3.0,-5.0,-4.0,-3.0,-10.0,-2.0
1.695161149272723e+18,7.0,0.0,-8.0,-3.0,-7.0,2.0,9.0,22.0
1.6951611492937093e+18,12.0,-3.0,-26.0,1.0,5.0,3.0,1.0,5.0
1.6951611492937093e+18,7.0,6.0,33.0,13.0,5.0,5.0,18.0,1.0
1.6951611492947095e+18,2.0,-5.0,-1.0,3.0,4.0,4.0,2.0,-9.0
1.6951611492957087e+18,-12.0,16.0,7.0,-8.0,-7.0,-11.0,-20.0,-24.0
1.6951611493087012e+18,-6.0,-3.0,-12.0,-12.0,3.0,14.0,24.0,8.0
1.6951611493087012e+18,18.0,8.0,-3.0,14.0,14.0,1.0,1.0,16.0
1.6951611493107e+18,28.0,26.0,2.0,-9.0,-8.0,-1.0,-25.0,16.0
1.6951611493107e+18,-8.0,-27.0,-13.0,0.0,4.0,7.0,24.0,-5.0
1.6951611493326884e+18,-14.0,-7.0,-3.0,6.0,-7.0,-8.0,-15.0,-36.0
1.6951611493336873e+18,-5.0,8.0,1.0,-12.0,-8.0,-8.0,-15.0,-12.0
1.6951611493336873e+18,16.0,15.0,23.0,-1.0,0.0,-4.0,10.0,-3.0
