timestamp,left_data_Ac_X,left_data_Ac_Y,left_data_Ac_Z,left_data_Gy_X,left_data_Gy_Y,left_data_Gy_Z,left_data_flex_1,left_data_flex_2,left_data_flex_3,left_data_flex_4,left_data_flex_5,right_data_Ac_X,right_data_Ac_Y,right_data_Ac_Z,right_data_Gy_X,right_data_Gy_Y,right_data_Gy_Z,right_data_flex_1,right_data_flex_2,right_data_flex_3,right_data_flex_4,right_data_flex_5
1695161138925626400,-6.567295074,1.786074519,6.815094948,-0.086067379,0.785531402,-0.063817769,9,24,-5,13,51,-8.852560997,3.155557871,0.998382092,-0.034773353,0.001998469,-0.042900458,-49,-12,-20,21,166
1695161138926626400,-6.588842869,1.800439715,6.797138691,-0.069280244,0.774739683,-0.078473203,17,20,-1,13,51,-8.850166321,3.156754971,0.998382092,-0.032774884,0.000532925,-0.045431852,-48,-9,-19,21,167
1695161138927626400,-6.604405403,1.808819413,6.774393559,-0.053425729,0.764347613,-0.092995405,20,18,-4,16,52,-8.840589523,3.171120167,1.001973391,-0.029577335,-0.001732006,-0.049029093,-48,-12,-21,18,166
1695161138928626400,-6.623558998,1.817199111,6.757634163,-0.038637057,0.754088819,-0.107384384,5,22,-5,13,50,-8.834604263,3.177105665,1.001973391,-0.02691271,-0.0042634,-0.05249311,-50,-2,-23,24,165
1695161138929626400,-6.635529995,1.823184609,6.748057365,-0.02904441,0.747560501,-0.116977029,16,19,-6,14,59,-8.832210541,3.183091164,1.001973391,-0.025313934,-0.005862175,-0.054225113,-53,-15,-23,20,166
1695161138984608800,-6.791152954,1.837549806,6.39491272,0.062085759,0.589148581,-0.282450229,8,25,-3,13,52,-8.814253807,3.27287364,0.972045898,0.006128637,-0.029444104,-0.071545176,-50,-11,-23,18,167
1695161138985608800,-6.794744492,1.823184609,6.379350662,0.0678147,0.57809037,-0.281784087,10,22,-6,15,53,-8.813055992,3.276464939,0.968454599,0.007327718,-0.029977029,-0.072344564,-47,-13,-23,22,165
1695161138986608800,-6.795941353,1.807622313,6.36259079,0.07500919,0.566765666,-0.280185282,5,18,-8,15,53,-8.81664753,3.283647537,0.970848799,0.008526799,-0.03011026,-0.07301072,-47,-14,-23,15,163
1695161138987608800,-6.794744492,1.793257117,6.344634533,0.083802447,0.555307806,-0.278320044,8,21,-3,13,51,-8.815450668,3.290830135,0.968454599,0.009459418,-0.030509954,-0.073810108,-43,-9,-20,22,165
1695161138988608800,-6.789956093,1.777694821,6.3242836,0.094727404,0.543583453,-0.275921881,6,22,-6,13,53,-8.814253807,3.293224335,0.9672575,0.009992342,-0.031042879,-0.074343033,-50,-9,-22,22,164
1695161139025567900,-6.513425827,1.881842494,5.778405666,0.481764168,0.367052078,-0.244346097,16,21,-3,13,53,-8.81664753,3.38061285,0.924161851,0.005728943,-0.038237367,-0.070079632,-48,-11,-23,24,166
1695161139026567900,-6.506243229,1.903390408,5.738901615,0.502281785,0.362522215,-0.243413478,9,19,-4,13,55,-8.817844391,3.38180995,0.920570552,0.006128637,-0.038503829,-0.069013782,-50,-13,-21,15,164
1695161139027567900,-6.502651691,1.924938202,5.697002888,0.52146709,0.359058201,-0.242214397,18,21,-5,13,52,-8.815450668,3.386598349,0.915782154,0.006528331,-0.039036751,-0.067548238,-47,-11,-21,20,167
1695161139028567900,-6.50145483,1.947683096,5.668272495,0.539453328,0.356926501,-0.241148531,8,18,-3,13,51,-8.814253807,3.391386747,0.910993755,0.007194487,-0.03956968,-0.065949462,-47,-11,-19,19,166
1695161139029567900,-6.50744009,1.968033791,5.637147903,0.556373656,0.355993867,-0.239683002,18,19,-5,14,51,-8.814253807,3.388992548,0.909796655,0.007993874,-0.040102605,-0.064084224,-47,-13,-21,20,164
1695161139059549600,-7.076063156,2.335543871,5.531803131,0.665356815,0.609133244,-0.155214384,16,22,-6,14,50,-8.819042206,3.42131424,0.888248801,0.029843798,-0.042101074,-0.008260337,-47,-13,-20,24,167
1695161139060549600,-7.120356083,2.358288765,5.537788391,0.661759555,0.631649256,-0.146421134,8,25,-2,13,51,-8.81664753,3.423708439,0.885854602,0.030243492,-0.041967839,-0.004796324,-47,-12,-18,20,166
1695161139061549600,-7.163451672,2.383427858,5.543774128,0.657229722,0.65443182,-0.137494639,6,19,-5,13,50,-8.811859131,3.423708439,0.884657502,0.030376723,-0.041701376,-0.001465544,-50,-13,-20,17,164
1695161139062549600,-7.194576263,2.404975653,5.548562527,0.653632462,0.669353783,-0.131499231,9,21,-5,13,51,-8.81066227,3.422511339,0.881066203,0.030509954,-0.041434918,0.002264931,-47,-13,-21,18,166
1695161139063549600,-7.237671852,2.431311846,5.552153587,0.647503793,0.691603363,-0.122572735,17,25,-6,14,51,-8.813055992,3.423708439,0.876277804,0.030643184,-0.04103522,0.005595712,-47,-11,-20,20,168
1695161139093530400,-8.046912193,2.759317398,5.537788391,0.376378268,0.882523715,0.003996937,16,21,-5,14,52,-8.817844391,3.337517262,0.909796655,0.028777948,-0.027312404,0.053425729,-49,-17,-21,20,164
1695161139094530400,-8.085219383,2.755726099,5.523423195,0.357459426,0.87306428,0.007460949,16,18,-6,13,56,-8.817844391,3.336320162,0.914585054,0.028511487,-0.026646247,0.054758042,-49,-13,-20,24,164
1695161139095530400,-8.121131897,2.7533319,5.501875401,0.339206725,0.861473203,0.010258805,10,21,-6,13,48,-8.819042206,3.335123062,0.915782154,0.028378254,-0.02571363,0.055823889,-49,-12,-21,22,166
1695161139096530400,-8.154650688,2.748543501,5.483919144,0.32148698,0.848016858,0.012124043,20,17,-6,13,49,-8.821435928,3.331531763,0.918176353,0.02797856,-0.024781011,0.056889739,-53,-13,-22,21,167
1695161139097530400,-8.201337814,2.742558002,5.451597214,0.29923737,0.827232778,0.012790199,8,18,-4,13,49,-8.823830605,3.326743364,0.920570552,0.027712099,-0.024114855,0.05768913,-54,-15,-19,21,162
1695161139125532100,-8.571242332,2.504334927,5.204994678,0.22382848,0.528661549,-0.128967836,18,19,-6,14,53,-8.80467701,3.290830135,0.979228497,0.01505513,-0.01398928,0.056490045,-50,-12,-20,20,164
1695161139126532100,-8.572439194,2.515108824,5.191826344,0.222895861,0.521733522,-0.138027564,6,21,-6,12,51,-8.805873871,3.290830135,0.976834297,0.014388974,-0.01398928,0.056090351,-49,-13,-17,21,165
1695161139127532100,-8.567650795,2.531868219,5.179855347,0.220497698,0.516404271,-0.147087291,17,17,-6,13,51,-8.805873871,3.288435936,0.980425596,0.01398928,-0.014122511,0.05595712,-49,-13,-21,21,166
1695161139128532100,-8.562862396,2.549824715,5.169081688,0.21663399,0.512407362,-0.155614093,10,21,-6,13,55,-8.805873871,3.286041737,0.985213995,0.013456355,-0.014522205,0.055690661,-46,-12,-21,20,167
1695161139129532100,-8.558073997,2.570175409,5.153519154,0.210905045,0.51000917,-0.163607955,16,11,-6,13,49,-8.805873871,3.283647537,0.987608194,0.013056661,-0.01505513,0.055557426,-49,-11,-21,22,165
1695161139160491700,-8.457517624,2.765302896,4.915296078,-0.07820674,0.516004622,-0.210505351,10,22,-4,13,48,-8.857349396,3.296815634,1.021126986,0.01612098,-0.026246555,0.053558957,-50,-13,-22,20,166
1695161139161491700,-8.467094421,2.732981205,4.911705017,-0.091263399,0.514672279,-0.206508413,6,21,-5,12,51,-8.864531517,3.296815634,1.022324085,0.016387442,-0.027045943,0.053558957,-50,-13,-21,22,168
1695161139162491700,-8.476671219,2.710236311,4.894945145,-0.10258805,0.512807071,-0.201179162,8,19,-6,13,53,-8.866926193,3.298012733,1.022324085,0.016653905,-0.027445635,0.053825419,-49,-13,-19,21,162
1695161139163491700,-8.488641739,2.688688517,4.887762547,-0.11298009,0.509742737,-0.195050538,5,19,-6,13,51,-8.868123055,3.305195332,1.021126986,0.016787136,-0.027845331,0.054091886,-51,-13,-21,17,167
1695161139164491700,-8.493430138,2.657563925,4.886565685,-0.121373661,0.506145477,-0.188655436,4,20,-6,13,52,-8.869319916,3.309983969,1.022324085,0.017053599,-0.028378254,0.054358348,-47,-9,-20,21,163
1695161139196471100,-8.36893177,2.439691544,4.742913723,-0.069013782,0.336808592,-0.033041347,8,17,-7,10,53,-8.863334656,3.348291159,0.993593693,0.015854517,-0.03543951,0.077673815,-47,-9,-18,18,167
1695161139197471100,-8.361749649,2.448071241,4.736927986,-0.063950993,0.324151605,-0.026779478,10,20,-6,13,51,-8.862137794,3.348291159,0.994790792,0.01612098,-0.035839204,0.079805516,-49,-13,-18,20,166
1695161139198471100,-8.35696125,2.45166254,4.724956989,-0.059287902,0.311361402,-0.020917306,9,26,-6,13,51,-8.865729332,3.34469986,0.993593693,0.016387442,-0.036105666,0.081937209,-49,-12,-22,20,167
1695161139199471100,-8.352172852,2.45285964,4.71657753,-0.056356817,0.3028346,-0.016920367,8,21,-6,13,52,-8.864531517,3.34350276,0.993593693,0.016653905,-0.036771823,0.084068909,-51,-15,-21,21,166
1695161139200471100,-8.344989777,2.456450939,4.698620796,-0.052359879,0.290177643,-0.011058193,6,19,-6,12,53,-8.865729332,3.337517262,0.991199493,0.016920367,-0.03757121,0.086200617,-49,-9,-20,16,167
1695161139234449800,-8.291120529,2.397793055,4.589684486,0.001332312,0.094460949,0.074343033,8,20,-6,13,55,-8.865729332,3.276464939,1.007958889,0.017053599,-0.042900458,0.101921894,-49,-13,-23,16,166
1695161139235449800,-8.288725853,2.400187254,4.593276024,0.002797856,0.087799385,0.077274114,6,17,-7,13,52,-8.864531517,3.275267839,1.00436759,0.015454824,-0.042367533,0.101522207,-51,-13,-20,21,164
1695161139236449800,-8.28034687,2.404975653,4.595670223,0.003863706,0.081137821,0.079805516,5,21,-6,14,49,-8.864531517,3.27287364,1.000776291,0.01385605,-0.042101074,0.100989282,-47,-15,-20,20,166
1695161139237449800,-8.276755333,2.410961151,4.594472885,0.004130168,0.074476264,0.081937209,9,18,-6,11,49,-8.863334656,3.27287364,0.995987892,0.012257273,-0.041967839,0.100589581,-49,-15,-17,21,164
1695161139238449800,-8.268375397,2.41335535,4.598064423,0.003464012,0.067947932,0.083669223,4,18,-6,13,50,-8.859743118,3.268085241,0.993593693,0.01079173,-0.041834611,0.100056656,-47,-13,-21,21,165
1695161139272424700,-8.069656372,2.379836559,4.475960255,-0.079272583,-0.085001536,0.061286367,6,21,-6,12,52,-8.817844391,3.209427357,0.963666201,0.000932619,-0.04103522,0.091663092,-45,-11,-20,20,166
1695161139273424700,-8.055291176,2.358288765,4.469974518,-0.08233691,-0.095926493,0.059154671,8,21,-5,13,49,-8.817844391,3.210624456,0.962469101,0.001465544,-0.040768761,0.091263399,-45,-12,-21,22,164
1695161139274424700,-8.045714378,2.334346771,4.45680666,-0.084868304,-0.106984682,0.057289433,5,10,-6,13,49,-8.819042206,3.209427357,0.955286503,0.001998469,-0.040502299,0.090730481,-48,-12,-21,20,165
1695161139275424700,-8.033743858,2.313995838,4.453215122,-0.086733535,-0.117909648,0.055690661,8,18,-6,13,52,-8.819042206,3.208230257,0.952892303,0.002664625,-0.040235836,0.09033078,-45,-12,-20,20,162
1695161139276424700,-8.021772385,2.294842243,4.446032524,-0.08753293,-0.128568143,0.054225113,3,19,-6,13,49,-8.817844391,3.210624456,0.958877802,0.00319755,-0.039836142,0.089664623,-48,-13,-18,24,166
1695161139307404300,-7.937975883,2.051830769,4.328716755,0.007993874,-0.211704448,0.045298621,5,18,-8,14,52,-8.841787338,3.254917145,0.925358951,-0.002531394,-0.032108728,0.077540584,-48,-10,-20,20,166
1695161139308404300,-7.935581684,2.055422068,4.326322556,0.01612098,-0.207174569,0.04516539,5,17,-6,13,51,-8.840589523,3.253720045,0.925358951,-0.003064318,-0.031176111,0.077407345,-49,-11,-19,22,167
1695161139309404300,-7.936778545,2.060210466,4.325125217,0.02384839,-0.201845318,0.045032158,16,17,-6,13,50,-8.840589523,3.254917145,0.925358951,-0.003597243,-0.030376723,0.077274114,-55,-9,-19,22,167
1695161139310404300,-7.936778545,2.067393064,4.327519417,0.031042879,-0.195716694,0.044632465,4,22,-6,14,51,-8.839392662,3.256114244,0.92775315,-0.003996937,-0.029710567,0.077007659,-48,-11,-21,21,167
1695161139311404300,-7.939172745,2.078166962,4.327519417,0.037970904,-0.188788652,0.043833077,5,17,-6,12,49,-8.838195801,3.259705544,0.93134445,-0.004529862,-0.028777948,0.077007659,-51,-9,-21,21,162
1695161139341388000,-8.018181801,2.418143749,4.327519417,0.008793262,-0.031042879,-0.030643184,10,18,-6,13,51,-8.834604263,3.247734547,0.937329948,-0.007460949,-0.006794794,0.075542115,-45,-9,-20,24,168
1695161139342388000,-8.025363922,2.436100245,4.334702015,0.0,-0.02571363,-0.038104136,8,21,-6,14,49,-8.835801125,3.246537447,0.940921247,-0.007460949,-0.005862175,0.07500919,-32,-9,-18,22,167
1695161139343388000,-8.031349182,2.45166254,4.338293552,-0.009326187,-0.021183766,-0.045431852,4,20,-6,14,50,-8.838195801,3.244143248,0.946906745,-0.007594181,-0.004796324,0.074476264,-47,-13,-21,20,162
1695161139344388000,-8.043320656,2.455253839,4.341884613,-0.018652374,-0.017053599,-0.05249311,9,11,-6,12,51,-8.839392662,3.242946148,0.954089403,-0.007727412,-0.003996937,0.073810108,-47,-9,-20,18,165
1695161139345388000,-8.058882713,2.456450939,4.349067211,-0.02797856,-0.013589587,-0.059554365,6,18,-6,15,53,-8.8429842,3.239354849,0.955286503,-0.007727412,-0.003064318,0.07301072,-48,-12,-21,18,165
1695161139378366700,-8.147468567,2.366668463,4.400542736,-0.059154671,-0.005196018,-0.089398161,2,19,-7,13,49,-8.874108315,3.241749048,1.022324085,0.007727412,-0.009725881,0.057156201,-49,-13,-20,20,167
1695161139379366700,-8.143877029,2.365471363,4.399345398,-0.053558957,-0.003863706,-0.086067379,16,17,-4,13,51,-8.877699852,3.248931646,1.023521185,0.009725881,-0.009459418,0.057289433,-49,-11,-21,21,167
1695161139380366700,-8.139088631,2.365471363,4.399345398,-0.047963247,-0.002264931,-0.08207044,8,10,-7,13,51,-8.881291389,3.251325846,1.017535686,0.011591119,-0.010125575,0.057289433,-45,-11,-22,21,167
1695161139381366700,-8.135497093,2.370259762,4.3921628,-0.042367533,0.000133231,-0.07794027,9,19,-6,13,50,-8.883685112,3.251325846,1.018732786,0.012790199,-0.01079173,0.057156201,-50,-5,-19,14,167
1695161139382366700,-8.133103371,2.37744236,4.384980202,-0.036771823,0.002797856,-0.073543645,6,21,-8,13,51,-8.882488251,3.250128746,1.025915384,0.014655436,-0.011324655,0.057422664,-46,-9,-19,19,168
1695161139413367000,-8.097189903,2.45166254,4.259284973,0.013323124,0.044232771,0.026779478,4,12,-9,13,50,-8.907627106,3.283647537,1.072602391,0.043300152,-0.019718224,0.067148544,-49,-11,-20,22,166
1695161139414367000,-8.100781441,2.45405674,4.252102375,0.014655436,0.044898927,0.03011026,8,20,-6,13,51,-8.906430244,3.280056238,1.073799491,0.044232771,-0.020251149,0.067281775,-47,-11,-19,21,166
1695161139415367000,-8.104372978,2.458845139,4.252102375,0.015854517,0.04516539,0.032774884,8,19,-7,13,48,-8.907627106,3.276464939,1.07858789,0.045298621,-0.020917306,0.067015313,-54,-11,-21,24,167
1695161139416367000,-8.104372978,2.466027737,4.250905037,0.016787136,0.045565084,0.035039816,9,21,-6,13,51,-8.907627106,3.27407074,1.084573388,0.045698319,-0.021316998,0.067015313,-49,-12,-21,19,164
1695161139417367000,-8.101978302,2.473210335,4.259284973,0.017719755,0.045964777,0.036372125,16,20,-6,16,49,-8.906430244,3.275267839,1.089361787,0.046364475,-0.021849923,0.067015313,-46,-11,-20,21,167
1695161139447327500,-8.147468567,2.562992811,4.316745758,-0.035306279,0.037704438,0.011457887,9,19,-6,13,52,-8.883685112,3.256114244,1.109712481,0.051160797,-0.034240428,0.050761104,-45,-12,-19,24,168
1695161139448327500,-8.157045364,2.552218914,4.322731018,-0.04103522,0.034506891,0.01079173,9,19,-6,13,49,-8.882488251,3.253720045,1.109712481,0.051027562,-0.034506891,0.049428791,-49,-13,-20,20,166
1695161139449327500,-8.167819023,2.543839216,4.335899353,-0.045964777,0.030509954,0.010258805,5,21,-5,12,51,-8.880094528,3.251325846,1.109712481,0.050761104,-0.034773353,0.047830015,-47,-10,-18,21,166
1695161139450327500,-8.175002098,2.535459518,4.34787035,-0.050627869,0.026513018,0.009859112,3,21,-6,13,49,-8.877699852,3.252522945,1.110909581,0.050627869,-0.034773353,0.04623124,-47,-12,-17,23,167
1695161139451327500,-8.184578896,2.52827692,4.356249809,-0.05489127,0.022249617,0.009592649,5,19,-6,13,52,-8.874108315,3.256114244,1.11450088,0.050494641,-0.035039816,0.044632465,-49,-13,-18,24,167
1695161139488324600,-8.172607422,2.476801634,4.477157116,-0.083003066,-0.077673815,-0.009059724,5,19,-6,12,52,-8.850166321,3.293224335,1.109712481,0.048362937,-0.042367533,0.016520673,-46,-8,-20,22,167
1695161139489324600,-8.172607422,2.473210335,4.471171856,-0.083802447,-0.081404284,-0.009992342,6,17,-6,12,51,-8.84896946,3.292027235,1.109712481,0.048229709,-0.04276723,0.015721286,-47,-12,-18,21,163
1695161139490324600,-8.170213699,2.467224836,4.474762917,-0.084868304,-0.08513476,-0.01079173,5,18,-7,13,52,-8.844181061,3.292027235,1.110909581,0.048229709,-0.043033689,0.014788668,-47,-11,-21,23,167
1695161139491324600,-8.170213699,2.458845139,4.477157116,-0.085934147,-0.088065848,-0.011191424,3,21,-6,13,48,-8.840589523,3.293224335,1.109712481,0.048096478,-0.043300152,0.01398928,-45,-15,-20,24,168
1695161139492324600,-8.171410561,2.449268341,4.480748653,-0.086999997,-0.09033078,-0.011324655,5,18,-11,10,50,-8.839392662,3.295618534,1.108515382,0.047963247,-0.043566614,0.013056661,-50,-12,-19,24,167
1695161139528278400,-8.171410561,2.402581453,4.545392036,-0.08513476,-0.068347625,0.017320061,3,17,-11,8,46,-8.805873871,3.351882458,1.059434295,0.038770292,-0.042367533,0.001465544,-48,-9,-19,24,168
1695161139529278400,-8.165425301,2.407369852,4.548983097,-0.085401222,-0.06674885,0.018652374,6,17,-7,12,47,-8.805873871,3.353079557,1.058237195,0.037837673,-0.042367533,0.000932619,-45,-11,-22,22,168
1695161139530278400,-8.165425301,2.41694665,4.556165695,-0.085934147,-0.065549769,0.019584993,0,17,-9,12,48,-8.802282333,3.353079557,1.054645896,0.036905054,-0.042234302,0.000532925,-47,-12,-18,26,166
1695161139531278400,-8.170213699,2.41574955,4.559757233,-0.086733535,-0.06461715,0.020650841,4,18,-9,12,47,-8.802282333,3.349488258,1.049857497,0.035839204,-0.041967839,0.000133231,-46,-12,-21,22,166
1695161139532278400,-8.173804283,2.41335535,4.563348293,-0.087799385,-0.063684531,0.021983154,4,17,-6,13,49,-8.798690796,3.354276657,1.046266198,0.034906585,-0.041967839,-0.000532925,-45,-13,-18,24,166
1695161139563258300,-8.163030624,2.389413357,4.578910828,-0.074476264,-0.09739203,0.032508422,17,17,-7,13,48,-8.809465408,3.378218651,1.022324085,0.022649311,-0.033840735,-0.009992342,-47,-11,-21,20,168
1695161139564258300,-8.151060104,2.396595955,4.57771349,-0.073143952,-0.098324656,0.031042879,8,22,-8,15,49,-8.807070732,3.38300705,1.015141487,0.022382848,-0.032908116,-0.010258805,-47,-9,-19,22,168
1695161139565258300,-8.142680168,2.408566952,4.574122429,-0.072211333,-0.099124044,0.029577335,1,17,-8,11,47,-8.803479195,3.384204149,1.013944387,0.021849923,-0.032108728,-0.010658499,-47,-16,-17,21,167
1695161139566258300,-8.133103371,2.418143749,4.566939831,-0.07194487,-0.099523738,0.02797856,8,17,-6,13,47,-8.803479195,3.388992548,1.015141487,0.021450229,-0.03130934,-0.010924961,-49,-12,-21,21,167
1695161139567258300,-8.125920296,2.432508945,4.564545631,-0.072477795,-0.099656969,0.026113322,4,19,-9,13,48,-8.805873871,3.393780947,1.012747288,0.021050537,-0.030376723,-0.011191424,-46,-9,-19,20,168
1695161139609235200,-8.063671112,2.497152328,4.582501888,-0.162009194,-0.0955268,-0.000932619,2,17,-10,10,49,-8.781931877,3.445256233,1.000776291,-0.000399694,-0.016653905,-0.003330781,-51,-9,-20,19,166
1695161139610235200,-8.060079575,2.48996973,4.587290287,-0.166139349,-0.096459419,-0.001732006,2,17,-7,11,49,-8.781931877,3.446453333,1.001973391,-0.001598775,-0.016387442,-0.002264931,-49,-15,-20,20,164
1695161139611235200,-8.056488991,2.479195833,4.587290287,-0.169203669,-0.097525269,-0.0021317,5,10,-10,13,48,-8.783128738,3.450044632,1.00317049,-0.002398162,-0.015987748,-0.00106585,-44,-10,-18,24,166
1695161139612235200,-8.056488991,2.469619036,4.586093426,-0.171601832,-0.098724343,-0.002398162,4,18,-6,13,49,-8.783128738,3.451241732,1.00317049,-0.003330781,-0.01612098,0.0,-48,-9,-17,21,167
1695161139613235200,-8.055291176,2.458845139,4.594472885,-0.173333839,-0.100056656,-0.002264931,3,9,-9,13,49,-8.783128738,3.450044632,1.00436759,-0.003863706,-0.01612098,0.000666156,-49,-14,-19,20,167
1695161139647212600,-7.964312077,2.341529369,4.666299343,-0.094327718,-0.0955268,0.034640122,4,19,-7,13,48,-8.789113998,3.435679436,1.006761789,-0.011058193,-0.007061256,0.023715161,-47,-7,-17,21,167
1695161139648212600,-7.957129478,2.349909067,4.674678802,-0.088199086,-0.091796324,0.037171517,16,19,-8,15,47,-8.790311813,3.430891037,1.007958889,-0.011058193,-0.006528331,0.024781011,-51,-12,-17,21,166
1695161139649212600,-7.95234108,2.358288765,4.679467201,-0.08233691,-0.087932616,0.039702907,4,17,-6,13,49,-8.789113998,3.427299738,1.00556469,-0.010924961,-0.006128637,0.025980091,-47,-15,-21,20,167
1695161139650212600,-7.951143742,2.370259762,4.687847137,-0.077007659,-0.083802447,0.042101074,5,11,-7,12,48,-8.789113998,3.424905539,0.995987892,-0.010658499,-0.005728943,0.027045943,-49,-11,-19,20,168
1695161139651212600,-7.94994688,2.384624958,4.701014996,-0.072477795,-0.079405814,0.044366002,0,10,-6,10,48,-8.792705536,3.42131424,0.992396593,-0.010258805,-0.005462481,0.028378254,-49,-12,-20,24,166
1695161139681213400,-7.92001915,2.360682964,4.778826714,-0.049828485,-0.015588055,0.094993874,9,17,-11,13,47,-8.799888611,3.339911461,0.979228497,0.006928025,-0.007594181,0.04623124,-51,-15,-18,21,165
1695161139682213400,-7.916428089,2.342726469,4.783615112,-0.042234302,-0.014388974,0.100589581,8,21,-6,13,47,-8.798690796,3.335123062,0.978031397,0.007993874,-0.007194487,0.046364475,-45,-12,-21,24,167
1695161139683213400,-7.91403389,2.333149672,4.789600372,-0.036372125,-0.013589587,0.104320064,3,9,-8,11,48,-8.798690796,3.331531763,0.981622696,0.009059724,-0.007061256,0.046630934,-53,-13,-21,18,166
1695161139684213400,-7.912836552,2.313995838,4.794388771,-0.026379786,-0.012257273,0.110315464,5,20,-9,13,49,-8.802282333,3.329137564,0.984016895,0.009459418,-0.006661562,0.046764165,-53,-13,-19,22,166
1695161139685213400,-7.910442352,2.298433542,4.795586109,-0.01505513,-0.011191424,0.116444103,8,11,-8,10,47,-8.805873871,3.327940464,0.986411095,0.010258805,-0.006128637,0.046897396,-45,-10,-20,24,167
1695161139716193700,-7.954735279,2.531868219,4.819528103,0.183059722,0.001332312,0.219032168,7,9,-9,12,47,-8.82263279,3.351882458,1.067813993,-0.003863706,0.008926493,0.03650536,-47,-9,-20,22,167
1695161139717193700,-7.954735279,2.558204412,4.823119164,0.185591117,0.0,0.223162323,4,17,-8,13,48,-8.825027466,3.353079557,1.069011092,-0.005196018,0.008260337,0.036372125,-45,-11,-20,24,162
1695161139718193700,-7.95593214,2.583343744,4.824316502,0.187323123,-0.001465544,0.226493105,2,11,-6,13,49,-8.825027466,3.351882458,1.071405292,-0.006261868,0.007727412,0.036105666,-49,-18,-16,22,168
1695161139719193700,-7.95234108,2.607285738,4.8291049,0.188388973,-0.00319755,0.229290962,4,17,-7,13,50,-8.828619003,3.349488258,1.074996591,-0.007327718,0.007061256,0.036105666,-47,-11,-20,20,167
1695161139720193700,-7.951143742,2.631227732,4.8314991,0.188522205,-0.005329249,0.231422648,5,9,-9,11,51,-8.833407402,3.347094059,1.080982089,-0.008393568,0.005728943,0.035972435,-49,-11,-19,20,167
1695161140101495000,-7.87931776,3.039438963,4.997896194,0.19425115,-0.313626319,0.206908107,5,17,-6,12,46,-8.930372238,3.713406801,1.094150186,-0.295240432,-0.167871356,-0.15428178,-47,-9,-18,25,167
1695161140102495000,-7.874529362,3.069366693,4.993107796,0.191852987,-0.319754958,0.208373666,1,9,-6,12,49,-8.931569099,3.7181952,1.086967587,-0.29350841,-0.173200607,-0.149218991,-47,-14,-19,20,168
1695161140103495000,-7.868544102,3.100491285,4.984727859,0.187456369,-0.325883597,0.210771829,4,11,-7,11,48,-8.930372238,3.727771997,1.07619369,-0.292042881,-0.178130165,-0.143756509,-47,-9,-17,24,168
1695161140104495000,-7.867346764,3.12203908,4.975151062,0.181061253,-0.332545161,0.213969365,5,17,-6,13,46,-8.933963776,3.734954596,1.064222693,-0.290843785,-0.182926491,-0.138160795,-46,-9,-20,24,167
1695161140105495000,-7.867346764,3.145981073,4.967968464,0.172800913,-0.339339972,0.218099549,0,17,-9,12,49,-8.936357498,3.745728493,1.055842996,-0.289777964,-0.187456369,-0.132298619,-44,-13,-19,22,167
1695161140176451100,-4.619612217,3.523067713,8.085219383,-0.198514536,-1.376012206,-0.505879045,16,17,-24,10,48,-8.649053574,3.556586742,0.785298169,-0.228358343,-0.247010723,0.237418056,-45,-11,-19,21,167
1695161140177451100,-4.565742493,3.512293816,8.143877029,-0.203177631,-1.39306581,-0.511607945,16,23,-23,10,51,-8.634688377,3.543418407,0.786495268,-0.225294024,-0.247010723,0.246211335,-46,-8,-20,19,167
1695161140178451100,-4.522646904,3.493140221,8.196549416,-0.209306285,-1.407588124,-0.516937196,16,17,-23,6,49,-8.617929459,3.53264451,0.786495268,-0.222096488,-0.24674426,0.255004585,-47,-12,-19,20,168
1695161140179451100,-4.481945515,3.477577925,8.243236542,-0.217300147,-1.420911193,-0.520667672,20,17,-27,6,49,-8.601169586,3.518279314,0.790086567,-0.218765706,-0.246611029,0.263797849,-44,-9,-19,22,167
1695161140180451100,-4.442441463,3.468001127,8.283937454,-0.225826949,-1.43250227,-0.523465574,16,18,-27,7,47,-8.583212852,3.506308317,0.793677866,-0.215434924,-0.246078104,0.272191435,-49,-11,-20,21,165
1695161140220427700,-3.918111086,3.263296843,8.719682693,-0.52359879,-1.457283378,-0.588215888,16,11,-61,0,50,-8.406042099,3.257311344,0.922964752,-0.172401235,-0.189987749,0.40568912,-46,-8,-20,24,167
1695161140221427700,-3.90135169,3.216609955,8.756793022,-0.536122501,-1.468607903,-0.595010698,20,5,-63,0,52,-8.40723896,3.23576355,0.92775315,-0.169603363,-0.186923429,0.411284834,-45,-5,-18,22,168
1695161140222427700,-3.870227098,3.165134668,8.798690796,-0.54691422,-1.482064366,-0.602205217,16,6,-67,-2,49,-8.412027359,3.217807055,0.93014735,-0.166405827,-0.18385911,0.416747332,-46,-11,-20,21,165
1695161140223427700,-3.833117008,3.111265182,8.844181061,-0.556373656,-1.497785568,-0.609666169,9,5,-64,2,48,-8.419210434,3.19625926,0.938527048,-0.162941799,-0.181327716,0.421676874,-46,-11,-19,24,165
1695161140224427700,-3.79480958,3.056198359,8.889671326,-0.563168406,-1.514706016,-0.61752677,20,8,-64,-2,52,-8.425195694,3.177105665,0.946906745,-0.159477785,-0.179062784,0.4264732,-45,-13,-20,25,167
1695161140264423700,-3.05140996,2.558204412,9.203310966,-0.426739663,-1.583186746,-0.615261853,18,4,-86,-6,49,-8.797493935,2.845508814,1.185129881,-0.088065848,-0.11817611,0.456849933,-46,-11,-19,18,167
1695161140265423700,-3.05140996,2.535459518,9.192537308,-0.414615631,-1.581055045,-0.606068909,17,0,-87,-5,50,-8.838195801,2.825158119,1.195903778,-0.081404284,-0.115511484,0.454584986,-44,-9,-19,20,165
1695161140266423700,-3.04901576,2.509123325,9.185355186,-0.402758032,-1.581055045,-0.597142458,16,5,-91,-8,48,-8.872911453,2.801215887,1.205480576,-0.074343033,-0.113246553,0.45192036,-48,-11,-19,21,167
1695161140267423700,-3.041833162,2.482787132,9.178172112,-0.391166925,-1.583053589,-0.587949455,17,3,-88,-6,48,-8.913613319,2.782062292,1.216254473,-0.066349156,-0.111647777,0.448589563,-47,-8,-20,20,166
1695161140268423700,-3.028665066,2.463633537,9.169792175,-0.380508423,-1.587050557,-0.57915616,9,3,-92,-9,46,-8.955511093,2.762908697,1.218648672,-0.058222052,-0.110448696,0.444592625,-45,-12,-20,24,167
1695161140299384200,-2.249352455,2.351106167,9.651026726,-0.437531412,-1.619958639,-0.504546702,16,3,-102,-9,46,-9.224859238,2.607285738,1.452083349,0.087666154,-0.057955589,0.291909665,-45,-9,-21,19,166
1695161140300384200,-2.212242365,2.349909067,9.689333916,-0.448323131,-1.612231255,-0.504813194,17,3,-101,-13,46,-9.198522568,2.612074137,1.490390539,0.086733535,-0.044366002,0.280185282,-46,-12,-19,18,166
1695161140301384200,-2.190694571,2.251746655,9.690531731,-0.451787144,-1.606235743,-0.501615584,17,0,-102,-16,46,-9.168595314,2.615665436,1.529894829,0.084335379,-0.029444104,0.267928004,-45,-12,-20,17,166
1695161140302384200,-2.171540976,2.149993181,9.688137054,-0.447923422,-1.602505326,-0.496153146,16,1,-102,-15,46,-9.139864922,2.616862535,1.570596337,0.080604896,-0.013189893,0.255271077,-48,-6,-22,21,166
1695161140303384200,-2.146401882,2.075772762,9.702502251,-0.440862179,-1.598774791,-0.489358336,16,1,-101,-10,47,-9.111134529,2.613271236,1.616086125,0.075808577,0.003863706,0.242480844,-45,-12,-20,22,162
1695161140332384700,-1.252167463,1.960851192,10.05205631,-0.209705979,-1.560537577,-0.438464016,16,0,-105,-13,45,-8.786720276,2.145204782,2.164358377,-0.014788668,0.187722817,-0.031709034,-46,-12,-19,24,167
1695161140333384700,-1.183932781,1.982398987,10.05923843,-0.196782529,-1.551877499,-0.440995395,9,1,-104,-10,46,-8.783128738,2.130839586,2.202665567,-0.016787136,0.187589586,-0.048096478,-44,-13,-19,21,167
1695161140334384700,-1.118092179,2.006340981,10.06282997,-0.18492496,-1.54108572,-0.443393588,20,3,-105,-9,45,-8.780735016,2.11767149,2.236184359,-0.019451762,0.187323123,-0.06461715,-46,-13,-21,21,166
1695161140335384700,-1.048660398,2.026691675,10.07120991,-0.174399704,-1.528428793,-0.445924938,18,5,-104,-7,46,-8.777143478,2.110488892,2.26730895,-0.022516079,0.187189892,-0.081537522,-49,-13,-23,22,167
1695161140336384700,-0.984016895,2.04823947,10.08318043,-0.16520673,-1.513773322,-0.448189914,16,0,-102,-12,46,-8.77235508,2.104503393,2.300827742,-0.026246555,0.187323123,-0.099257268,-46,-12,-18,20,167
1695161140367364900,-0.266953498,2.099714994,9.916783333,-0.170535982,-1.166705966,-0.370516092,18,0,-105,-14,52,-8.929175377,2.249352455,2.767697096,-0.327882051,0.30176878,-0.45911485,-47,-7,-19,22,168
1695161140368364900,-0.219069451,2.105700493,9.916783333,-0.175199077,-1.147387385,-0.361722827,16,1,-105,-11,45,-8.963891029,2.256535053,2.779668093,-0.349199086,0.309229732,-0.474836111,-47,-9,-21,27,167
1695161140369364900,-0.171185419,2.109291792,9.919178009,-0.180128634,-1.126336813,-0.352529854,10,0,-104,-14,47,-8.993818283,2.258929253,2.792836189,-0.369983137,0.316157728,-0.490157723,-46,-8,-17,21,168
1695161140370364900,-0.122104287,2.110488892,9.916783333,-0.185191423,-1.103954077,-0.34333688,16,1,-105,-12,45,-9.028534889,2.262520552,2.804807186,-0.390634,0.322819293,-0.505079627,-49,-9,-21,24,167
1695161140371364900,-0.077811554,2.104503393,9.923966408,-0.189721286,-1.080238938,-0.333877474,17,1,-106,-12,44,-9.06205368,2.264914751,2.817975283,-0.410618693,0.32934764,-0.519468606,-44,-5,-18,26,168
1695161140402325200,0.366312861,1.981201887,9.870096207,-0.190120965,-0.479499221,-0.182926491,20,3,-109,-14,46,-9.531316757,2.245761156,2.943670988,-0.650967836,0.341205209,-0.667088807,-44,-8,-21,20,168
1695161140403325200,0.349553436,1.978807688,9.84974575,-0.179329246,-0.456183791,-0.177996933,20,0,-105,-10,47,-9.546878815,2.236184359,2.93768549,-0.652433395,0.335343033,-0.666689157,-47,-7,-21,22,167
1695161140404325200,0.33518824,1.976413488,9.832986832,-0.167871356,-0.435666144,-0.173067391,20,1,-105,-14,46,-9.561244011,2.225410461,2.934094191,-0.652166963,0.32934764,-0.665356815,-47,-9,-20,20,167
1695161140405325200,0.324414343,1.975216389,9.818621635,-0.156280249,-0.417280257,-0.168004602,17,0,-105,-9,46,-9.569623947,2.214636564,2.926911592,-0.650434852,0.322686076,-0.663358331,-46,-12,-20,22,167
1695161140406325200,0.316034615,1.976413488,9.812635422,-0.144156188,-0.400093406,-0.163075045,20,1,-105,-10,46,-9.575610161,2.201468468,2.917334795,-0.646837711,0.31575802,-0.660560489,-45,-9,-18,22,169
1695161140437302200,0.336385339,2.050633669,9.789890289,-0.170935676,-0.201845318,-0.073943339,20,0,-105,-13,47,-9.466673851,2.035071373,2.729389906,-0.378243476,0.157612562,-0.509476244,-47,-11,-19,20,166
1695161140438302200,0.350750536,2.031480074,9.803058624,-0.177464008,-0.194517612,-0.070212863,19,0,-108,-16,46,-9.459490776,2.042253971,2.730587006,-0.362255752,0.150018379,-0.500549793,-47,-15,-20,24,165
1695161140439302200,0.365115762,2.018311977,9.81742382,-0.182926491,-0.186923429,-0.066615619,20,0,-107,-9,46,-9.449913979,2.04704237,2.734178305,-0.347333819,0.14282389,-0.491756529,-49,-16,-18,20,167
1695161140440302200,0.377086759,2.003946781,9.835380554,-0.187323123,-0.178929552,-0.063284837,20,0,-105,-9,46,-9.442731857,2.056619167,2.736572504,-0.333611012,0.136029094,-0.483229697,-46,-13,-20,22,167
1695161140441302200,0.386663586,1.984793186,9.85573101,-0.190920368,-0.170802444,-0.06008729,21,2,-105,-11,46,-9.440337181,2.067393064,2.738966703,-0.321220547,0.12936753,-0.475102603,-49,-13,-19,21,167
1695161140479300800,0.417788208,1.827973008,9.959878922,-0.127901986,-0.079405814,-0.022516079,19,1,-108,-16,46,-9.779116631,2.206256866,2.607285738,-0.306032151,0.036372125,-0.411284834,-45,-11,-18,24,167
1695161140480300800,0.433350503,1.824381709,9.963470459,-0.128834605,-0.076874427,-0.021450229,20,1,-105,-10,46,-9.797073364,2.218227863,2.604891539,-0.31216079,0.035173047,-0.413283318,-44,-9,-20,24,167
1695161140481300800,0.442927301,1.81959331,9.973047256,-0.130300149,-0.073943339,-0.020117918,19,5,-105,-15,46,-9.812635422,2.22900176,2.607285738,-0.31895557,0.034240428,-0.415681452,-46,-11,-21,24,168
1695161140482300800,0.456095427,1.811213613,9.985017776,-0.131898925,-0.070479326,-0.018519141,18,1,-108,-14,46,-9.821015358,2.239775658,2.607285738,-0.326283306,0.034107197,-0.418479323,-46,-9,-19,25,167
1695161140483300800,0.470460624,1.804031014,9.999382973,-0.134030625,-0.066482387,-0.016387442,18,2,-108,-9,46,-9.822212219,2.249352455,2.608482838,-0.33401072,0.034240428,-0.421410412,-45,-12,-20,21,167
1695161140513258700,0.395043284,1.608903527,10.03529644,-0.169869825,0.057422664,0.049162328,20,1,-112,-17,46,-9.21528244,1.945288897,2.328361034,-0.359724343,-0.007993874,-0.360523731,-47,-9,-21,18,170
1695161140514258700,0.378283858,1.594538331,10.0317049,-0.165339977,0.053026035,0.04769678,19,1,-107,-13,45,-9.17697525,1.917755604,2.310404539,-0.346667677,-0.016920367,-0.350931078,-45,-7,-19,21,167
1695161140515258700,0.366312861,1.580173135,10.03888798,-0.159477785,0.047430322,0.045565084,21,3,-107,-12,45,-9.142259598,1.895010591,2.294842243,-0.332545161,-0.026246555,-0.341071963,-45,-9,-17,21,168
1695161140516258700,0.355538964,1.568202138,10.05205631,-0.152816221,0.040901989,0.04276723,22,1,-108,-12,46,-9.11233139,1.869871497,2.280477047,-0.317090333,-0.036105666,-0.330946386,-49,-13,-21,24,168
1695161140517258700,0.349553436,1.552639842,10.06163311,-0.145222053,0.033973966,0.03956968,16,1,-105,-13,45,-9.083600998,1.849520802,2.266111851,-0.300836146,-0.046364475,-0.320687592,-47,-11,-20,18,167
1695161140547242300,0.524330199,1.655590534,10.21845245,-0.076474734,0.024781011,-0.013189893,19,1,-108,-13,46,-8.872911453,1.799242616,2.066195965,-0.024781011,-0.219431862,-0.169203669,-47,-9,-18,24,168
1695161140548242300,0.525527298,1.660378933,10.21246719,-0.078739658,0.031042879,-0.012523737,21,2,-111,-10,46,-8.866926193,1.802833915,2.049436569,-0.01612098,-0.222895861,-0.165073514,-45,-14,-21,19,167
1695161140549242300,0.521935999,1.668758631,10.21127033,-0.080871366,0.037304748,-0.011591119,21,4,-108,-19,43,-8.858546257,1.807622313,2.037465572,-0.007993874,-0.225560486,-0.161076576,-45,-11,-19,22,167
1695161140550242300,0.515950441,1.675941229,10.21127033,-0.082869835,0.043699846,-0.010258805,24,2,-108,-14,46,-8.853757858,1.808819413,2.019509077,-0.000532925,-0.227825418,-0.1573461,-46,-12,-19,22,166
1695161140551242300,0.511162043,1.680729628,10.20528507,-0.084735066,0.049562022,-0.008660031,18,0,-110,-14,46,-8.847772598,1.813607812,2.006340981,0.0063951,-0.229290962,-0.153349161,-47,-9,-18,24,168
1695161140581220100,-12.24873543,-4.469974518,1.520318031,-0.499084204,-0.137894332,2.341938734,8,17,-65,6,49,-9.81742382,2.804807186,0.490811348,0.332678407,-0.10805054,-0.003064318,-47,-8,-21,23,172
1695161140582220100,-12.17690945,-4.435258865,1.479616642,-0.471105665,-0.156679943,2.286248207,10,17,-67,3,47,-9.823410034,2.814383984,0.477643251,0.349865228,-0.118442573,0.005595712,-45,-13,-21,22,167
1695161140583220100,-12.1038866,-4.401739597,1.443703651,-0.443526804,-0.173067391,2.22736001,8,21,-69,6,46,-9.829395294,2.825158119,0.468066424,0.366785586,-0.128568143,0.014255743,-45,-13,-18,26,167
1695161140584220100,-12.0248785,-4.367023945,1.408987641,-0.416614085,-0.187323123,2.165140867,16,19,-63,11,46,-9.832986832,2.832340717,0.458489627,0.383173048,-0.138427258,0.023049004,-47,-17,-21,20,165
1695161140585220100,-11.94227791,-4.323928356,1.379060149,-0.390634,-0.199313939,2.099990845,16,17,-70,4,50,-9.831789017,2.845508814,0.444124401,0.398627877,-0.148153126,0.031842265,-46,-11,-18,24,166
1695161140617199300,-9.187748909,-2.158372879,-0.183156431,-0.088598773,-0.02917764,0.053558957,8,19,4,13,46,-8.572439194,3.558980942,1.37786305,0.148819283,-0.077274114,-0.018385911,-45,-10,-20,24,167
1695161140618199300,-9.187748909,-2.157175779,-0.187944829,-0.086467072,-0.028111791,0.051960181,5,19,0,13,46,-8.582015991,3.563769341,1.364694953,0.147087291,-0.076607957,-0.022915773,-44,-10,-21,24,167
1695161140619199300,-9.18894577,-2.159569979,-0.190339029,-0.084202148,-0.026779478,0.050228179,6,17,3,11,44,-8.591592789,3.56496644,1.351526856,0.145888209,-0.076075032,-0.027578866,-47,-11,-19,24,167
1695161140620199300,-9.192537308,-2.161964178,-0.191536129,-0.08207044,-0.025846859,0.048229709,16,20,5,12,45,-8.605957985,3.569754839,1.340752959,0.145355284,-0.075542115,-0.031842265,-47,-7,-17,26,167
1695161140621199300,-9.193734169,-2.164358377,-0.193930343,-0.079805516,-0.024647778,0.046364475,5,19,3,13,45,-8.615534782,3.572149038,1.332373261,0.145088822,-0.07474272,-0.035839204,-45,-9,-21,17,166
1695161140648204200,-8.507795334,-2.476801634,-2.079364061,-0.347866774,-0.402758032,0.213303223,2,17,-6,10,42,-8.834604263,3.484760523,1.207874775,0.078606427,-0.027712099,0.039303213,-46,-9,-20,24,166
1695161140649204200,-8.479064941,-2.439691544,-2.081758261,-0.337208271,-0.398627877,0.202378258,0,19,-6,12,42,-8.833407402,3.484760523,1.207874775,0.075808577,-0.026513018,0.038370594,-46,-7,-16,22,168
1695161140650204200,-8.461109161,-2.41574955,-2.084152699,-0.331346095,-0.39529708,0.195050538,3,19,-7,10,41,-8.829815865,3.483563423,1.207874775,0.074076563,-0.025846859,0.03757121,-47,-10,-19,24,167
1695161140651204200,-8.435969353,-2.388216257,-2.087743998,-0.324018389,-0.38956812,0.184258804,2,19,-6,13,39,-8.825027466,3.483563423,1.205480576,0.071545176,-0.024647778,0.03650536,-46,-11,-17,23,166
1695161140652204200,-8.410830498,-2.359485865,-2.08295536,-0.318555921,-0.38277334,0.173067391,4,17,-3,8,39,-8.823830605,3.484760523,1.210268974,0.068880551,-0.023448698,0.035572741,-47,-11,-19,21,167
1695161140680186500,-9.575610161,-1.691503525,-1.655590534,-0.355993867,-0.180528328,-0.017053599,-1,6,-11,2,36,-8.757989883,3.563769341,1.171961784,0.0678147,-0.027845331,0.018385911,-59,-18,-31,14,160
1695161140681186500,-9.572018623,-1.679532528,-1.648407817,-0.333877474,-0.183192953,-0.017719755,-1,4,-9,9,35,-8.754398346,3.563769341,1.171961784,0.066882081,-0.027179174,0.019318528,-59,-19,-29,15,156
1695161140682186500,-9.568427086,-1.667561531,-1.641225219,-0.31216079,-0.185724348,-0.01825268,-1,6,-12,8,35,-8.754398346,3.563769341,1.170764685,0.066082694,-0.026646247,0.020650841,-57,-18,-29,13,154
1695161140683186500,-9.567230225,-1.651999116,-1.641225219,-0.290710568,-0.18798928,-0.018652374,-1,5,-10,6,31,-8.753201485,3.562572241,1.167173386,0.065283306,-0.026246555,0.02158346,-56,-18,-28,13,154
1695161140684186500,-9.563638687,-1.634042621,-1.641225219,-0.270192951,-0.189987749,-0.018918836,-1,7,-11,7,35,-8.755595207,3.561375141,1.164779186,0.06461715,-0.025980091,0.022782542,-58,-20,-31,12,156
1695161140712167200,-9.160215378,-2.178723574,-0.326808542,-0.151350692,0.061952524,0.044366002,-3,10,-10,8,36,-8.7843256,3.513490915,1.164779186,0.065816231,-0.033840735,0.044099543,-58,-18,-33,14,167
1695161140713167200,-9.159018517,-2.183511972,-0.320823014,-0.149751917,0.06115314,0.043433387,-1,10,-13,7,34,-8.783128738,3.511096716,1.164779186,0.06674885,-0.03437366,0.044499233,-60,-21,-31,13,157
1695161140714167200,-9.161413193,-2.184709072,-0.317231715,-0.14748697,0.060486984,0.042633995,-1,7,-11,12,32,-8.783128738,3.509899616,1.173158884,0.067548238,-0.034906585,0.044632465,-57,-18,-30,15,155
1695161140715167200,-9.161413193,-2.19308877,-0.316034615,-0.144689128,0.059820827,0.041834611,-1,11,-12,9,32,-8.785523415,3.505111217,1.171961784,0.067947932,-0.035173047,0.044765696,-55,-18,-31,14,155
1695161140716167200,-9.159018517,-2.196680069,-0.316034615,-0.141491577,0.059154671,0.041301683,-2,7,-14,7,33,-8.783128738,3.506308317,1.173158884,0.068347625,-0.035306279,0.044765696,-58,-20,-31,13,156
1695161140743150400,-9.114726067,-2.021903276,-0.560243189,-0.067681469,0.020384381,-0.048629403,-1,17,-11,10,39,-8.77834034,3.519476414,1.207874775,0.04516539,-0.022649311,0.041701376,-57,-19,-31,13,154
1695161140744150400,-9.114726067,-2.023100376,-0.561440289,-0.067015313,0.02158346,-0.047963247,-1,5,-9,8,35,-8.780735016,3.515885115,1.205480576,0.044366002,-0.022516079,0.042101074,-57,-20,-29,13,160
1695161140745150400,-9.117119789,-2.026691675,-0.562637389,-0.066082694,0.022782542,-0.047563553,0,6,-13,10,32,-8.779537201,3.511096716,1.210268974,0.043566614,-0.022516079,0.042900458,-58,-19,-29,15,156
1695161140746150400,-9.118317604,-2.025494576,-0.560243189,-0.065016843,0.023715161,-0.046897396,-1,17,-11,9,36,-8.780735016,3.507505417,1.215057373,0.043033689,-0.022516079,0.043699846,-59,-19,-29,12,157
1695161140747150400,-9.115922928,-2.023100376,-0.55665189,-0.063684531,0.024514547,-0.04623124,-1,17,-12,11,34,-8.781931877,3.507505417,1.218648672,0.042900458,-0.022782542,0.044499233,-57,-20,-31,14,156
1695161140776116500,-9.118317604,-2.038662672,-0.562637389,-0.04516539,0.001998469,-0.009059724,2,17,-7,13,43,-8.808267593,3.459621429,1.205480576,0.06115314,-0.04516539,0.062352221,-58,-20,-31,13,158
1695161140777116500,-9.114726067,-2.04464817,-0.55904609,-0.045032158,0.002531394,-0.008127105,6,17,-7,13,46,-8.809465408,3.459621429,1.209071875,0.061419602,-0.045565084,0.062751912,-57,-19,-31,13,157
1695161140778116500,-9.111134529,-2.04704237,-0.560243189,-0.044632465,0.002931087,-0.007327718,2,17,-11,11,36,-8.811859131,3.45722723,1.209071875,0.061286367,-0.045698319,0.062885143,-57,-18,-32,14,157
1695161140779116500,-9.108740807,-2.04823947,-0.567425787,-0.043833077,0.003597243,-0.006528331,3,17,-9,14,39,-8.81066227,3.45722723,1.205480576,0.060886677,-0.045698319,0.062751912,-57,-21,-31,14,158
1695161140780116500,-9.105149269,-2.051830769,-0.572214186,-0.042500768,0.004529862,-0.005595712,1,21,-7,13,40,-8.807070732,3.45842433,1.205480576,0.060353752,-0.045698319,0.062751912,-58,-18,-32,10,156
1695161140807113100,-9.09437561,-2.018311977,-0.572214186,-0.032641653,0.007194487,-0.002931087,2,19,-8,13,42,-8.771158218,3.414131641,1.163581967,0.041701376,-0.035839204,0.057822358,-60,-19,-31,12,156
1695161140808113100,-9.09437561,-2.015917778,-0.569819987,-0.033574272,0.006794794,-0.00319755,6,18,-5,13,39,-8.769960403,3.412934542,1.164779186,0.041701376,-0.035572741,0.057555895,-57,-18,-29,12,160
1695161140809113100,-9.095572472,-2.012326479,-0.563834488,-0.034640122,0.006528331,-0.003597243,0,17,-7,12,37,-8.768763542,3.411737442,1.163581967,0.041701376,-0.035572741,0.057156201,-57,-18,-31,14,156
1695161140810113100,-9.09437561,-2.012326479,-0.560243189,-0.03543951,0.006128637,-0.003597243,0,10,-7,13,41,-8.767566681,3.405751944,1.162384868,0.041967839,-0.03543951,0.056889739,-57,-18,-32,14,157
1695161140811113100,-9.09437561,-2.012326479,-0.555454791,-0.036372125,0.005995406,-0.003863706,1,17,-7,12,42,-8.765172005,3.399766445,1.161187768,0.042101074,-0.03543951,0.056490045,-59,-19,-31,13,156
1695161140839075100,-9.121908188,-1.999158382,-0.574608386,-0.041301683,0.001998469,-0.007061256,1,21,-6,14,41,-8.779537201,3.430891037,1.194706678,0.043300152,-0.035039816,0.038770292,-58,-18,-28,14,157
1695161140840075100,-9.123106003,-1.997961283,-0.580593884,-0.041701376,0.001998469,-0.007327718,5,21,-4,13,42,-8.780735016,3.439270735,1.191115379,0.042633995,-0.034506891,0.037837673,-59,-18,-31,12,154
1695161140841075100,-9.125499725,-1.997961283,-0.582988143,-0.042367533,0.001998469,-0.007860643,4,20,-6,14,45,-8.779537201,3.446453333,1.198297977,0.041701376,-0.033840735,0.036771823,-57,-18,-33,13,156
1695161140842075100,-9.123106003,-1.996764183,-0.585382342,-0.043166921,0.001998469,-0.008260337,3,18,-6,13,41,-8.781931877,3.452438831,1.197100878,0.040635526,-0.033441041,0.035839204,-57,-21,-32,15,154
1695161140843075100,-9.121908188,-1.994369984,-0.591367841,-0.043966308,0.001998469,-0.008526799,5,19,-5,13,40,-8.780735016,3.459621429,1.204283476,0.040102605,-0.032908116,0.035306279,-59,-23,-34,8,154
1695161140872053100,-9.10036087,-2.020706177,-0.578199685,-0.056490045,0.011457887,-0.013456355,6,18,-6,14,42,-8.802282333,3.608062029,1.278503656,0.045565084,-0.035306279,0.048229709,-49,-7,-20,21,166
1695161140873053100,-9.097966194,-2.020706177,-0.578199685,-0.055823889,0.01185758,-0.01398928,1,18,-6,10,41,-8.80467701,3.626018524,1.284489155,0.047830015,-0.036638591,0.050094947,-47,-9,-19,20,164
1695161140874053100,-9.103952408,-2.018311977,-0.578199685,-0.055024505,0.011990812,-0.01398928,5,21,-6,15,41,-8.80467701,3.64038372,1.294066072,0.04969525,-0.037970904,0.05249311,-49,-11,-19,20,167
1695161140875053100,-9.103952408,-2.017114878,-0.579396784,-0.054491576,0.011990812,-0.014255743,1,21,-6,13,37,-8.80467701,3.658340216,1.304839969,0.051560488,-0.039036751,0.05489127,-46,-11,-21,18,166
1695161140876053100,-9.105149269,-2.014720678,-0.580593884,-0.053692192,0.01185758,-0.014388974,5,20,-6,14,42,-8.799888611,3.67988801,1.315613866,0.053159267,-0.040102605,0.05768913,-47,-13,-19,18,167
1695161140903058100,-9.130288124,-2.067393064,-0.55904609,-0.050894335,0.01185758,-0.008793262,5,18,-8,14,43,-8.839392662,4.669890404,1.571793437,0.078872897,-0.011724349,0.163474724,-47,-11,-22,22,166
1695161140904058100,-9.1326828,-2.074575663,-0.553060591,-0.050094947,0.012656967,-0.007993874,4,17,-7,13,42,-8.833407402,4.701014996,1.576581836,0.080071971,-0.012656967,0.17453292,-48,-9,-20,20,167
1695161140905058100,-9.136273384,-2.078166962,-0.545877993,-0.049029093,0.013323124,-0.007327718,4,21,-7,13,41,-8.826224327,4.732139587,1.588552833,0.081670754,-0.01385605,0.187056661,-49,-12,-20,21,165
1695161140906058100,-9.135076523,-2.08295536,-0.539892495,-0.047830015,0.014122511,-0.006261868,4,21,-6,11,40,-8.814253807,4.763264179,1.600523829,0.083802447,-0.01505513,0.200379789,-46,-7,-21,16,164
1695161140907058100,-9.133879662,-2.090138197,-0.543483794,-0.046497703,0.014522205,-0.005728943,8,23,-8,15,44,-8.807070732,4.788403511,1.607706428,0.086333841,-0.016653905,0.214901984,-46,-13,-20,20,166
1695161140936019100,-9.18296051,-2.227804661,-0.462080926,-0.032241959,0.015188362,-0.016387442,1,17,-8,13,41,-8.737639427,5.268440723,1.638831019,0.188122496,-0.155614093,0.519202113,-48,-7,-21,24,168
1695161140937019100,-9.186552048,-2.239775658,-0.459686726,-0.032774884,0.015321592,-0.016787136,4,17,-6,13,35,-8.729259491,5.31273365,1.632845521,0.193984687,-0.161609486,0.529993892,-47,-12,-23,21,167
1695161140938019100,-9.191340446,-2.256535053,-0.457292527,-0.033707503,0.015188362,-0.017453292,5,19,-6,14,41,-8.716091156,5.363011837,1.619677424,0.198647782,-0.166938737,0.540652335,-51,-14,-24,20,165
1695161140939019100,-9.197325706,-2.275688648,-0.454898328,-0.034506891,0.014788668,-0.018119449,4,21,-8,13,43,-8.710105896,5.395333767,1.610100627,0.201179162,-0.170136288,0.547846854,-47,-9,-24,20,163
1695161140940019100,-9.208099365,-2.298433542,-0.457292527,-0.035039816,0.014388974,-0.018652374,3,21,-6,13,43,-8.702922821,5.445611954,1.606509328,0.204376727,-0.173999995,0.559038281,-45,-12,-19,22,166
1695161140971018600,-9.373299599,-3.166331768,-0.380678058,-0.002664625,0.051160797,-0.069546707,4,19,-7,13,39,-8.714894295,7.02339077,1.462857246,-0.019718224,-0.242081165,0.944609523,-49,-11,-21,22,167
1695161140972018600,-9.379284859,-3.213018656,-0.375889659,0.00106585,0.055557426,-0.077007659,1,19,-9,13,42,-8.737639427,7.308300495,1.436521053,-0.090597242,-0.280451775,1.057323098,-46,-10,-22,20,167
1695161140973018600,-9.384073257,-3.260902643,-0.374692559,0.004796324,0.059687596,-0.085667685,1,21,-8,13,43,-8.747216225,7.407660007,1.420958757,-0.113113321,-0.293241978,1.096226692,-47,-12,-21,22,167
1695161140974018600,-9.386467934,-3.303998232,-0.37229836,0.007993874,0.063817769,-0.095393561,2,19,-8,12,43,-8.779537201,7.544129372,1.381454349,-0.140292495,-0.311361402,1.148586512,-49,-14,-20,18,166
1695161140975018600,-9.392453194,-3.339911461,-0.366312861,0.010658499,0.067415006,-0.106451757,0,19,-6,13,45,-8.807070732,7.650671482,1.341950059,-0.157079637,-0.325350702,1.186957121,-51,-12,-25,20,165
1695161141008974700,-9.376891136,-3.835511208,-0.384269387,-0.0021317,0.032108728,-0.435133219,0,22,-7,13,36,-9.091980934,10.35133076,0.791283667,-0.171601832,-0.509076536,1.989675283,-47,-14,-19,30,168
1695161141009974700,-9.37449646,-3.877409697,-0.385466486,-0.000799387,0.027179174,-0.450721264,4,21,-9,13,43,-9.093177795,10.56561184,0.794874966,-0.202511474,-0.512940288,2.046565056,-45,-7,-17,30,169
1695161141010974700,-9.376891136,-3.922899485,-0.384269387,0.001732006,0.022382848,-0.465509921,-1,17,-7,15,43,-9.118317604,10.80982113,0.797269166,-0.241281778,-0.518136322,2.104520798,-47,-12,-19,31,169
1695161141011974700,-9.375694275,-3.969586372,-0.393846184,0.005728943,0.017719755,-0.478566617,8,17,-6,13,43,-9.145850182,11.03726959,0.769735873,-0.305232793,-0.530526757,2.159811735,-46,-13,-19,34,166
1695161141012974700,-9.375694275,-4.01747036,-0.397437483,0.011324655,0.013056661,-0.490557432,3,18,-12,13,40,-9.136273384,11.15817738,0.746990919,-0.366119444,-0.545182228,2.217500687,-45,-7,-18,38,174
1695161141040959400,-9.422380447,-4.726154327,-0.603338838,0.286846846,0.007727412,-0.672551274,-1,18,-9,13,41,-8.646659851,12.00213337,0.421379507,-0.985644698,-0.319888234,3.278021336,-45,-9,6,95,234
1695161141041959400,-9.430760384,-4.75488472,-0.628477931,0.299370587,0.008926493,-0.686407328,2,21,-6,14,43,-8.520963669,11.92910957,0.378283858,-0.955001533,-0.252739668,3.335044384,-47,-15,7,95,242
1695161141042959400,-9.437943459,-4.788403511,-0.644040287,0.310562044,0.009859112,-0.700796306,2,18,-7,12,43,-8.415618896,11.91474438,0.33279404,-0.93075341,-0.196782529,3.379676819,-44,-12,13,95,243
1695161141043959400,-9.45111084,-4.8291049,-0.67037648,0.320687592,0.010392036,-0.715851426,0,21,-7,13,41,-8.313865662,11.90995598,0.282515794,-0.903307796,-0.138826951,3.423909426,-51,-9,14,95,245
1695161141044959400,-9.461885452,-4.87579155,-0.699106872,0.329747319,0.011058193,-0.731039822,2,21,-9,11,41,-8.222886086,11.87883186,0.244208574,-0.869200587,-0.073810108,3.469474554,-49,-11,16,98,245
1695161141075936800,-9.913191795,-6.968324184,-0.938527048,0.570362926,0.035306279,-1.087033749,2,17,-11,11,41,-8.02895546,12.48456478,-0.824802458,-1.060387492,0.954868257,3.985346079,-49,-5,62,105,280
1695161141076936800,-9.943120003,-7.110779285,-0.937329948,0.603004575,0.038237367,-1.113680005,2,18,-6,13,40,-7.965508938,12.427104,-0.730231524,-1.136329293,0.97338742,3.988943338,-45,-12,62,104,281
1695161141077936800,-9.967061996,-7.254431248,-0.936132848,0.638444126,0.041168455,-1.143124104,5,18,-12,13,43,-7.903259754,12.37203693,-0.644040287,-1.217200518,0.99417156,3.991607904,-46,-7,62,105,285
1695161141078936800,-9.994594574,-7.396886349,-0.93014735,0.67734766,0.043300152,-1.175765634,2,21,-8,13,43,-7.854178905,12.32175922,-0.569819987,-1.305000067,1.015222073,3.991341591,-49,-9,62,100,283
1695161141079936800,-10.03290176,-7.546523571,-0.936132848,0.720114827,0.043566614,-1.212137818,-1,9,-15,13,43,-7.806294441,12.2607069,-0.530315697,-1.400926471,1.035073519,3.986145496,-46,-13,63,106,288
1695161141108918200,-10.67933655,-9.897629738,-1.429338455,2.293442726,-0.477634013,-2.182727337,1,21,-11,12,43,-6.879738808,9.470264435,-0.107739076,-3.173301458,1.276488543,3.520102739,-44,-2,73,108,317
1695161141109918200,-10.64821243,-9.896432877,-1.399410844,2.398428679,-0.50747782,-2.237885237,3,23,-11,11,41,-6.842628479,9.33020401,-0.098162271,-3.250309229,1.27515614,3.480932713,-44,-5,76,108,316
1695161141110918200,-10.6206789,-9.885659218,-1.371877551,2.502082586,-0.534790218,-2.291843653,0,21,-11,13,41,-6.79953289,9.168595314,-0.096965171,-3.326251268,1.269960165,3.439497471,-43,-5,75,106,316
1695161141111918200,-10.59314537,-9.856928825,-1.333570361,2.600940228,-0.559970915,-2.344070435,-1,21,-11,13,41,-6.739677906,8.989029884,-0.099359371,-3.397130013,1.26156652,3.397929668,-44,-5,78,106,314
1695161141112918200,-10.56202126,-9.813833237,-1.294066072,2.696200609,-0.58275342,-2.39296627,2,18,-8,7,37,-6.681019783,8.796297073,-0.10295067,-3.462280035,1.250508428,3.357294083,-42,-3,75,105,313
1695161141151895700,-9.299078941,-8.797493935,0.193930343,3.407388926,-0.638843775,-2.813310862,0,63,16,22,46,-4.753687382,4.727351189,1.016338587,-3.636147022,1.174566507,2.620658398,-41,-2,79,105,311
1695161141152895700,-9.216479301,-8.77834034,0.274136096,3.414583445,-0.637245059,-2.821438074,0,64,24,26,49,-4.653131008,4.541800499,1.11569798,-3.593513012,1.188022971,2.583353758,-41,-1,79,104,311
1695161141153895700,-9.13866806,-8.754398346,0.356736064,3.419379711,-0.629917264,-2.827966213,-1,69,25,28,55,-4.557363033,4.371812344,1.199495077,-3.54701519,1.203744292,2.544450045,-41,-2,80,104,310
1695161141154895700,-9.065644264,-8.729259491,0.417788208,3.426041365,-0.618059695,-2.834095001,-1,77,26,27,56,-4.473566055,4.203021049,1.26294136,-3.49825263,1.220531344,2.503814459,-42,-1,79,106,311
1695161141155895700,-9.006986618,-8.70172596,0.451307029,3.42910552,-0.605003059,-2.839823961,-1,78,26,38,57,-4.402936935,4.046200752,1.322796464,-3.447624683,1.236519098,2.462113142,-39,-1,78,97,310
1695161141186874100,-8.422801971,-7.867346764,1.364694953,3.819206715,-0.859874368,-2.90657258,1,183,203,134,207,-3.086126089,2.439691544,3.487154722,-2.760551214,1.300470114,1.500450253,-41,11,79,100,296
1695161141187874100,-8.364143372,-7.794323444,1.431732655,3.850116253,-0.877594173,-2.889252901,-2,192,218,142,224,-3.01310277,2.406172752,3.597288132,-2.762150049,1.300203681,1.448090315,-41,12,80,102,295
1695161141188874100,-8.31865406,-7.735665798,1.466448545,3.877295494,-0.89238286,-2.869134665,-1,195,232,154,237,-2.950853586,2.37624526,3.705027103,-2.768278599,1.297938704,1.398661613,-42,10,80,106,297
1695161141189874100,-8.271966934,-7.66024828,1.484405041,3.903408766,-0.906638563,-2.846618891,-1,205,250,156,248,-2.893392801,2.361880064,3.823540211,-2.77787137,1.294341564,1.351897359,-39,14,80,99,296
1695161141190874100,-8.218097687,-7.568071365,1.468842745,3.927790165,-0.922093451,-2.824369192,2,210,267,163,265,-2.843114614,2.354697466,3.951629877,-2.791061163,1.289278746,1.307531357,-43,13,80,98,295
1695161141219876700,-7.156269073,-5.121197224,2.215833664,4.025182247,-1.273690581,-2.710722685,25,336,549,310,545,-2.905363798,2.53067112,5.928043365,-3.150918722,0.840955555,0.735836148,-44,19,78,95,285
1695161141220876700,-7.026981831,-4.983530998,2.353500366,3.975486994,-1.266362906,-2.694868326,21,341,560,322,558,-2.889801502,2.498349428,5.996278286,-3.151185274,0.810978532,0.719182253,-45,17,76,96,287
1695161141221876700,-6.91445446,-4.825513363,2.470816135,3.917664766,-1.250641584,-2.678480864,29,347,570,332,572,-2.864662409,2.45405674,6.063315868,-3.144656897,0.781800866,0.703860641,-43,20,84,97,289
1695161141222876700,-6.80791235,-4.708197594,2.574964046,3.852647781,-1.230656981,-2.661560535,29,351,574,331,587,-2.835932016,2.401384354,6.121973515,-3.131067276,0.753555894,0.689071953,-44,19,79,98,284
1695161141223876700,-6.706159115,-4.594472885,2.651578426,3.783500671,-1.207474709,-2.639843702,31,355,585,337,593,-2.809595585,2.358288765,6.163872242,-3.117744207,0.735702932,0.679745793,-44,19,78,95,286
1695161141251838200,-5.108029366,-3.663128614,3.945644379,2.658762693,-0.623655438,-2.041102648,64,389,733,468,867,-1.823184609,1.555034041,7.475894928,-1.733871341,0.659228146,0.383572727,-45,21,80,95,284
1695161141252838200,-4.446032524,-3.228580952,4.428076267,2.467975616,-0.426073521,-1.734404325,68,390,737,467,877,-1.793257117,1.553836942,7.534552574,-1.666323066,0.674683034,0.356926501,-46,24,79,96,282
1695161141253838200,-4.361038208,-3.154360771,4.467580318,2.449589729,-0.402491599,-1.698964834,70,391,737,478,879,-1.768117905,1.551442742,7.588422298,-1.602771878,0.692136347,0.32721591,-45,24,82,95,284
1695161141254838200,-4.265270233,-3.065775394,4.525041103,2.42880559,-0.377710581,-1.662192941,74,395,739,468,884,-1.733402014,1.541865945,7.643488884,-1.542950988,0.711721301,0.294041336,-44,21,80,93,282
1695161141255838200,-4.161122322,-2.985569477,4.600458622,2.406689167,-0.351064324,-1.62528789,74,389,741,466,894,-1.703474522,1.531091928,7.703343868,-1.487926483,0.733571172,0.257136285,-45,18,81,95,285
1695161141284839000,-3.34230566,-2.19189167,5.900510311,1.914666176,0.174266458,-0.743430316,88,402,743,467,962,-1.704671621,0.823605359,8.051700592,-1.017353773,1.216667652,-0.625787139,-47,30,78,90,279
1695161141285839000,-3.323152065,-2.129642487,5.960365295,1.88908577,0.186124057,-0.707191408,91,403,746,466,960,-1.707065821,0.773327172,8.076839447,-0.999767244,1.230523705,-0.662692189,-49,32,78,92,279
1695161141286839000,-3.307589531,-2.070984364,6.015431881,1.86110723,0.196249619,-0.673883617,90,402,745,463,961,-1.711854219,0.739808321,8.097189903,-0.981381297,1.245712042,-0.695467055,-49,30,77,87,279
1695161141287839000,-3.295618534,-2.017114878,6.069301128,1.831130147,0.20464319,-0.642840743,89,405,748,466,960,-1.719036818,0.725443125,8.111555099,-0.962062836,1.261699796,-0.722779453,-49,30,77,90,279
1695161141288839000,-3.278859138,-1.965639591,6.114790916,1.799287915,0.212104142,-0.612730443,94,403,749,466,960,-1.728613615,0.739808321,8.133103371,-0.942477763,1.277154684,-0.744362891,-49,30,76,89,279
1695161141314822900,-2.743755102,-2.024297476,7.173028469,1.033208251,0.395430326,-0.150151595,97,401,743,461,942,-4.988319397,2.201468468,10.41597462,-0.23941654,0.648436427,-0.435000002,-53,9,78,90,275
1695161141315822900,-2.7509377,-2.087743998,7.249642849,1.013756514,0.40355742,-0.132298619,101,400,743,461,939,-5.05894804,2.319981337,10.69011021,-0.188921899,0.547713637,-0.398094952,-48,9,78,88,274
1695161141316822900,-2.764105797,-2.146401882,7.331045628,0.99776876,0.4103522,-0.114712104,104,400,736,458,937,-5.080495834,2.460042238,10.92234802,-0.144156188,0.454185307,-0.360923439,-46,9,79,92,274
1695161141317822900,-2.783259392,-2.201468468,7.405265808,0.985111773,0.415548235,-0.097125575,107,400,742,458,938,-5.060145378,2.625242233,11.11987019,-0.106052071,0.36984992,-0.326549739,-46,9,79,92,276
1695161141318822900,-2.809595585,-2.250549555,7.478289127,0.975252628,0.41967839,-0.079539053,104,398,740,459,932,-5.000290394,2.783259392,11.288661,-0.074209802,0.29710567,-0.296839207,-48,7,81,90,273
1695161141345804600,-3.053804159,-2.316390038,8.414422035,0.693202138,0.337075025,0.120973967,106,393,732,459,910,-3.315969467,2.873042107,10.15859795,0.043300152,0.285114855,-0.226626337,-49,-2,83,86,268
1695161141346804600,-3.059789658,-2.330755472,8.451532364,0.653898895,0.32934764,0.120574266,106,396,731,460,910,-3.223792553,2.862268209,10.01973438,0.049428791,0.283782542,-0.225693718,-45,-2,80,90,273
1695161141347804600,-3.064578056,-2.357091665,8.492233276,0.613263428,0.322286367,0.120041348,104,391,730,458,909,-3.131615877,2.855085611,9.886856079,0.053825419,0.281784087,-0.224627867,-49,-2,80,86,273
1695161141348804600,-3.065775394,-2.394201756,8.534132004,0.572761118,0.315891296,0.119641654,105,394,732,458,908,-3.040636063,2.85987401,9.757569313,0.056223582,0.278852999,-0.223295555,-47,-5,81,90,270
1695161141349804600,-3.065775394,-2.439691544,8.582015991,0.532525241,0.310029089,0.119108729,105,395,730,456,903,-2.979583979,2.868253708,9.679757118,0.05595712,0.276454836,-0.222096488,-46,-1,81,92,273
1695161141378779400,-3.442862034,-2.093729496,8.322244644,0.076607957,0.092995405,-0.043433387,109,385,725,460,894,-2.7533319,2.85867691,8.906430244,-0.01079173,0.13762787,-0.18798928,-53,-3,85,93,274
1695161141379779400,-3.445256233,-1.875856996,8.189367294,0.02917764,0.056756508,-0.070745789,104,387,727,460,893,-2.785653591,2.837129116,8.955511093,0.007993874,0.128568143,-0.176264927,-49,-3,85,92,270
1695161141380779400,-3.42011714,-1.686715126,8.085219383,-0.025980091,0.02051761,-0.095926493,101,384,721,459,894,-2.816778183,2.816778183,9.005789757,0.02917764,0.119375192,-0.163208261,-48,-4,86,90,274
1695161141381779400,-3.384204149,-1.531091928,8.014590263,-0.087799385,-0.01292343,-0.117909648,110,386,723,461,894,-2.850297213,2.795230389,9.060855865,0.052759573,0.110182241,-0.148686066,-49,-2,89,94,275
1695161141382779400,-3.34230566,-1.41138196,7.964312077,-0.15481469,-0.041967839,-0.135895863,110,385,723,461,893,-2.883816004,2.779668093,9.121908188,0.07820674,0.101388969,-0.133364469,-48,-5,85,93,272
1695161141411767100,-2.893392801,-3.320757866,8.755595207,-0.046630934,0.057822358,0.102987751,112,383,705,451,879,-3.078943491,2.431311846,9.761159897,0.588615596,-0.02691271,0.114978559,-51,-2,77,88,274
1695161141412767100,-2.877830505,-3.293224335,8.780735016,0.012656967,0.06981317,0.120707504,110,384,705,454,879,-3.104082584,2.437297344,9.757569313,0.613130212,-0.035039816,0.127502292,-51,-13,80,89,276
1695161141413767100,-2.869450808,-3.254917145,8.798690796,0.065150075,0.08207044,0.135895863,113,382,707,453,878,-3.137601376,2.440888643,9.747992516,0.637644708,-0.044232771,0.140558958,-58,-3,78,84,275
1695161141414767100,-2.870647907,-3.203441858,8.81066227,0.109516084,0.094061248,0.147886679,111,385,702,452,878,-3.169923067,2.449268341,9.733627319,0.661759555,-0.054758042,0.154415011,-54,-10,79,85,277
1695161141415767100,-2.874239206,-3.150769472,8.820239067,0.145488501,0.104719758,0.156413481,108,381,700,455,878,-3.192667961,2.456450939,9.726444244,0.678013802,-0.062218986,0.164007664,-50,-6,77,90,274
1695161141443742300,-2.947262287,-3.005920172,9.027337074,-0.253938764,-0.046764165,-0.058754977,111,381,697,454,866,-3.726574898,2.541445017,9.210494041,1.456084251,-0.445658505,0.610065818,-60,-20,55,82,273
1695161141444742300,-2.914940596,-3.041833162,9.044096947,-0.27525574,-0.059287902,-0.064084224,116,374,696,450,867,-3.727771997,2.582146645,9.139864922,1.553742766,-0.487493098,0.644439518,-60,-18,56,81,268
1695161141445742300,-2.877830505,-3.077746391,9.054870605,-0.29244259,-0.070079632,-0.067548238,118,377,696,450,866,-3.731363297,2.609679937,9.114726067,1.60450387,-0.508943319,0.661359906,-61,-18,53,78,273
1695161141446742300,-2.840720415,-3.11964488,9.066842079,-0.304833084,-0.079272583,-0.069013782,114,374,693,454,867,-3.746925592,2.663549423,9.087192535,1.679512978,-0.541851461,0.686140895,-61,-18,47,75,267
1695161141447742300,-2.801215887,-3.163937569,9.076418877,-0.312427253,-0.086600304,-0.068747319,112,379,693,448,866,-3.764882088,2.719813108,9.064447403,1.755188346,-0.574892759,0.709989309,-60,-17,47,77,269
1695161141479705700,-2.472013235,-2.964021683,9.060855865,-0.138294026,0.069013782,0.155480847,115,369,685,444,859,-4.241328239,4.010287762,8.61314106,2.484096527,-1.2429142,1.158179164,-60,-1,8,62,245
1695161141480705700,-2.495955229,-2.955641985,9.077615738,-0.14175804,0.078872897,0.166805506,113,371,692,445,857,-4.212597847,3.995922565,8.564059258,2.467709064,-1.284082651,1.163375139,-59,-2,2,62,240
1695161141481705700,-2.524685621,-2.953247786,9.095572472,-0.146154657,0.088065848,0.177464008,116,373,689,446,859,-4.19464159,3.982754469,8.537723541,2.456517696,-1.303401232,1.164307833,-60,-2,10,57,234
1695161141482705700,-2.557007313,-2.954444885,9.119514465,-0.150817752,0.096326187,0.187189892,117,370,688,445,857,-4.165910721,3.957615376,8.493430138,2.435200691,-1.330180645,1.162442565,-51,-2,1,57,236
1695161141483705700,-2.589329243,-2.956839085,9.142259598,-0.155480847,0.103520676,0.196516067,112,371,688,445,855,-4.125209332,3.922899485,8.43956089,2.412151575,-1.354562044,1.158045888,-58,-3,4,56,234
1695161141515686900,-3.268085241,-2.838326216,9.33618927,-0.20570904,0.04623124,0.311894357,116,367,677,434,850,-3.19745636,3.154360771,6.719326973,1.992606401,-1.441029072,0.626719773,-51,-2,-5,50,222
1695161141516686900,-3.311181068,-2.744952202,9.272743225,-0.224627867,0.029977029,0.315891296,113,368,678,441,849,-3.154360771,3.106476784,6.609193802,1.977684617,-1.430370569,0.574359894,-50,0,-5,50,221
1695161141517686900,-3.34230566,-2.650381327,9.211690903,-0.242480844,0.016520673,0.317623258,113,366,679,436,847,-3.105279684,3.08133769,6.527791023,1.969424129,-1.417313933,0.519335389,-50,-2,-5,50,222
1695161141518686900,-3.367444754,-2.536656618,9.139864922,-0.264197558,0.0021317,0.318022966,114,369,679,438,851,-3.058592558,3.026270866,6.410475254,1.963695288,-1.402525306,0.460047454,-50,-2,-8,49,220
1695161141519686900,-3.38061285,-2.444479942,9.084798813,-0.281117916,-0.007860643,0.317490041,110,367,677,434,846,-3.015496969,2.977189779,6.288370609,1.956900477,-1.391467094,0.403290957,-47,-1,-9,50,220
1695161141546670100,-3.664325714,-0.9672575,6.417657852,-1.545349121,-0.381973952,0.334143966,96,357,641,411,825,-2.318784237,2.71502471,5.009867191,1.755721331,-1.173767209,-0.699730456,-46,-2,-20,43,208
1695161141547670100,-3.667917013,-0.985213995,6.287173748,-1.596509933,-0.405022949,0.337208271,93,359,639,407,817,-2.318784237,2.736572504,4.927267075,1.728808641,-1.166039824,-0.777670741,-46,0,-23,40,210
1695161141548670100,-3.666719913,-1.000776291,6.163872242,-1.64287436,-0.426739663,0.341071963,92,353,634,399,819,-2.311601639,2.749740601,4.842272758,1.702162385,-1.157513022,-0.859874368,-45,-2,-24,41,212
1695161141549670100,-3.663128614,-1.017535686,6.046556473,-1.685375214,-0.447257251,0.346001506,93,356,631,398,814,-2.291250944,2.746149302,4.740519524,1.675649405,-1.147254229,-0.94687438,-45,-1,-23,41,204
1695161141550670100,-3.659537315,-1.029506683,5.936423302,-1.724145532,-0.465776414,0.352529854,86,354,627,397,814,-2.273294449,2.725798607,4.610035419,1.651268005,-1.136995316,-1.038803935,-46,-3,-27,40,205
1695161141580649600,-3.760093689,-1.321599364,5.067327976,-2.137029171,-0.324551284,0.792326152,44,289,499,314,695,-2.928108692,4.027047157,2.728192806,3.395264864,-0.614728928,-2.877395153,-49,0,-39,29,200
1695161141581649600,-3.787626982,-1.344344258,5.062539577,-2.155415058,-0.298437983,0.831496119,41,288,490,305,687,-3.063380957,4.559757233,2.748543501,3.486261845,-0.59780854,-2.962796211,-47,-2,-41,28,200
1695161141582649600,-3.82473731,-1.37666595,5.054159641,-2.1747334,-0.270992339,0.870799422,36,283,477,297,675,-3.186682463,5.054159641,2.773682594,3.553543806,-0.589281797,-3.048996925,-49,-2,-45,26,200
1695161141583649600,-3.861847401,-1.417367458,5.038597584,-2.194451809,-0.242081165,0.910102606,41,282,471,288,663,-3.265691042,5.373785496,2.807201385,3.587384462,-0.588882089,-3.103621721,-49,0,-45,25,200
1695161141584649600,-3.896563292,-1.462857246,5.019443989,-2.214436293,-0.212370604,0.95007199,36,281,459,283,649,-3.372233152,5.835866451,2.869450808,3.617494822,-0.595010698,-3.182761192,-47,0,-43,26,200
1695161141617626000,-4.906916618,-3.01070857,4.586093426,-2.655431747,0.309629381,1.812211275,28,187,229,141,364,-3.688267708,8.742427826,3.390189648,1.094494581,-0.96299541,-3.858110189,-49,0,-45,13,192
1695161141618626000,-4.926070213,-3.059789658,4.587290287,-2.693669081,0.348266453,1.860441089,30,177,219,138,350,-3.786429882,8.674192429,3.339911461,0.942611039,-0.955401242,-3.861041307,-51,0,-45,14,188
1695161141619626000,-4.93804121,-3.125630379,4.595670223,-2.736969233,0.393831551,1.904274106,30,174,207,130,335,-3.890577793,8.598775864,3.288435936,0.799520671,-0.944609523,-3.863039732,-49,1,-48,10,196
1695161141620626000,-4.93804121,-3.178302765,4.596867085,-2.764548063,0.430603355,1.93385148,26,171,197,120,324,-3.956418276,8.541314125,3.251325846,0.709456325,-0.935816228,-3.86343956,-49,3,-41,13,194
1695161141621626000,-4.93804121,-3.232172251,4.572925091,-2.80398488,0.495220512,1.979416609,30,160,181,120,315,-4.066551685,8.456320763,3.193865061,0.581954002,-0.920094907,-3.863572598,-49,0,-46,15,194
1695161141650610300,-6.133944988,-3.568557739,3.175908566,-4.365721226,1.32138741,2.570430279,8,64,64,54,149,-6.301538944,6.543353081,2.293645144,-0.105385914,-0.360390514,-3.908737898,-46,-2,-45,8,192
1695161141651610300,-6.336254597,-3.724180698,3.102885485,-4.365721226,1.235586524,2.569097996,8,64,59,50,146,-6.441599846,6.4715271,2.257732153,-0.070079632,-0.323352218,-3.90647316,-49,-2,-46,6,192
1695161141652610300,-6.530185223,-3.90135169,3.055001259,-4.365721226,1.132732034,2.576025963,16,64,58,45,145,-6.592434406,6.418854713,2.236184359,-0.029843798,-0.284848392,-3.904075146,-47,-2,-43,9,189
1695161141653610300,-6.740874767,-4.070142746,2.986766577,-4.365721226,1.029078126,2.591614246,16,64,51,45,142,-6.750451565,6.381744862,2.208651066,0.014788668,-0.245278716,-3.901676893,-49,-1,-45,10,193
1695161141654610300,-6.936002254,-4.242525578,2.892195702,-4.365721226,0.930886626,2.607202291,8,54,49,39,141,-6.906075001,6.361393929,2.188300371,0.063151613,-0.204376727,-3.899278641,-49,-2,-47,9,194
1695161141680612700,-8.796297073,-5.94719696,0.798466265,-4.365721226,-0.658029079,2.886588097,9,46,26,22,113,-9.616311073,6.636727333,2.024297476,1.008693695,0.780468583,-3.838392019,-49,-2,-45,8,192
1695161141681612700,-8.847772598,-5.973533154,0.657208383,-4.365721226,-0.712387443,2.903375387,10,42,28,26,114,-9.678560257,6.558915615,1.985990286,1.060254216,0.829897404,-3.811346054,-48,-1,-45,6,192
1695161141682612700,-8.880094528,-5.997475147,0.569819987,-4.365721226,-0.745162308,2.913767099,8,43,28,23,115,-9.734824181,6.472724438,1.941697598,1.113280177,0.878127098,-3.779637098,-46,-1,-41,7,190
1695161141683612700,-8.930372238,-6.030993938,0.452504128,-4.365721226,-0.789261878,2.927756548,17,43,26,23,116,-9.791088104,6.380547523,1.902193308,1.167771816,0.924624801,-3.743531466,-49,-4,-41,9,193
1695161141684612700,-8.977059364,-6.074089527,0.345962137,-4.365721226,-0.827499211,2.939080954,9,39,27,26,115,-9.844957352,6.284779549,1.862688899,1.224261761,0.970056713,-3.703162193,-45,-1,-44,10,192
1695161141713574800,-9.939528465,-7.648277283,-0.860715508,-4.365721226,-0.838957131,2.949739456,18,44,25,24,110,-11.33774185,4.996698856,1.237802267,2.457583427,1.544150114,-2.538721085,-46,-3,-38,10,193
1695161141714574800,-10.03529644,-7.672219276,-0.919373453,-4.365721226,-0.824568152,2.937082529,18,38,26,23,110,-11.4502697,4.985925198,1.204283476,2.518603325,1.558938742,-2.478634119,-46,-1,-41,10,190
1695161141715574800,-10.10831928,-7.681796074,-0.9660604,-4.365721226,-0.814842284,2.926290989,17,43,25,26,110,-11.56279755,4.98233366,1.181538582,2.578290939,1.572128534,-2.421211243,-47,-2,-40,12,174
1695161141716574800,-10.15380955,-7.684190273,-0.992396593,-4.365721226,-0.808580399,2.917897463,17,43,21,24,110,-11.67771912,4.990713596,1.156399369,2.636646032,1.583186746,-2.366453171,-46,-2,-41,16,194
1695161141717574800,-10.22084713,-7.677007675,-1.033097982,-4.365721226,-0.799653947,2.904441118,16,39,25,23,109,-11.79383755,5.009867191,1.124077678,2.693269491,1.592513084,-2.314892769,-46,-1,-38,14,190
1695161141746553000,-11.10191345,-7.019799232,-1.398213744,-2.429738283,-0.715451777,2.496886492,8,43,26,26,107,-13.35964584,7.040150166,0.815225661,3.158646107,1.290611029,-2.002998352,-51,3,-39,12,188
1695161141747553000,-11.11747551,-6.987477779,-1.395819545,-2.286647797,-0.714785576,2.473571062,17,43,23,24,104,-13.34528065,7.189787865,0.811634362,3.124672174,1.246511459,-2.010059595,-49,1,-36,15,192
1695161141748553000,-11.13423538,-6.963535786,-1.394622445,-2.143690586,-0.714519143,2.45065546,16,45,26,22,108,-13.31774712,7.334636688,0.805648863,3.08257103,1.199347615,-2.016587973,-45,-2,-37,12,193
1695161141749553000,-11.15219116,-6.941987991,-1.389834046,-2.001533031,-0.714652359,2.428672075,17,43,24,28,107,-13.29021358,7.428010941,0.802057564,3.050195932,1.16657269,-2.020718098,-49,1,-35,12,192
1695161141750553000,-11.17373943,-6.91445446,-1.387439847,-1.862705946,-0.716117859,2.408687592,16,42,23,26,105,-13.23873806,7.566874504,0.799663365,2.994904995,1.115145445,-2.025914192,-49,-2,-36,11,189
1695161141777557100,-11.09233665,-5.783194065,-1.280897856,0.309762627,-0.610732019,2.062019825,17,41,26,26,106,-10.8660841,8.111555099,0.799663365,0.975385964,0.138294026,-1.488192916,-50,-2,-34,15,184
1695161141778557100,-11.07437992,-5.711368084,-1.268926859,0.379709035,-0.598075032,2.045632362,6,41,31,26,108,-10.74158573,8.021772385,0.799663365,0.862006128,0.107917301,-1.424375176,-49,-3,-36,16,186
1695161141779557100,-11.05522633,-5.640739441,-1.252167463,0.444459409,-0.584751964,2.029511452,9,44,26,23,105,-10.62427044,7.918822289,0.802057564,0.753555894,0.080871366,-1.35829246,-49,0,-34,16,188
1695161141780557100,-11.03248119,-5.568912983,-1.237802267,0.504146993,-0.571029067,2.013257265,17,40,28,24,105,-10.51293945,7.801506042,0.803254664,0.650168419,0.056490045,-1.290078044,-44,-1,-34,18,184
1695161141781557100,-11.00734234,-5.495890141,-1.219845772,0.558638573,-0.556506872,1.997136354,8,38,29,26,105,-10.40879154,7.674613476,0.802057564,0.552909672,0.034906585,-1.220398188,-49,-2,-35,16,192
1695161141860556400,-10.46745014,-4.412513733,-0.697909772,0.836558938,-0.15681316,1.66112709,9,44,33,28,100,-9.39484787,5.05296278,0.639251828,0.130699843,-0.066082694,0.063684531,-45,-2,-34,18,189
1695161141861556400,-10.44350815,-4.371812344,-0.66798228,0.825900435,-0.130566612,1.638877511,16,41,31,26,104,-9.37449646,4.973954201,0.638054729,0.168137819,-0.064217456,0.118575804,-46,-2,-34,18,189
1695161141862556400,-10.41836834,-4.334702015,-0.639251828,0.814442575,-0.104453288,1.615961671,16,41,31,23,105,-9.364919662,4.910507679,0.639251828,0.207707509,-0.062485453,0.171335369,-46,-2,-34,18,188
1695161141863556400,-10.39322948,-4.303577423,-0.617704034,0.802185297,-0.078339972,1.592646241,5,39,29,29,103,-9.369708061,4.872200489,0.642843127,0.241681471,-0.06261868,0.220497698,-46,-3,-34,18,185
1695161141864556400,-10.37168217,-4.27125597,-0.588973641,0.789395094,-0.052093416,1.568930984,16,43,31,24,99,-9.352949142,4.818330765,0.63087213,0.265263379,-0.063284837,0.251407355,-51,-1,-34,18,190
1695161142123517900,-10.13345909,-3.859453201,-0.496796846,0.542384386,0.341604888,1.079972386,5,42,31,26,103,-8.966285706,4.170699596,0.881066203,0.903441012,-0.047430322,0.906238914,-55,-2,-34,22,186
1695161142124517900,-10.13226128,-3.848679304,-0.499191046,0.534124076,0.350398153,1.053725839,9,45,35,24,104,-8.950722694,4.146757126,0.89184016,0.91783005,-0.050094947,0.927822351,-46,-2,-35,20,196
1695161142125517900,-10.13345909,-3.840299606,-0.500388145,0.526796341,0.356926501,1.027745843,16,43,38,27,101,-8.937555313,4.127603531,0.897825658,0.929954052,-0.053692192,0.948339939,-46,-2,-30,21,188
1695161142126517900,-10.12507915,-3.831919909,-0.497993946,0.520401239,0.361589581,1.002032161,16,46,35,24,103,-8.924386978,4.102464676,0.895431459,0.939679921,-0.057822358,0.96765852,-47,-2,-33,19,188
1695161142127517900,-10.11789608,-3.82473731,-0.489614248,0.515071988,0.364520669,0.976584971,8,41,33,25,104,-8.913613319,4.073734283,0.900219858,0.948073506,-0.062485453,0.986177683,-46,-2,-33,21,186
1695161142259440900,-9.866505623,-3.306392431,-0.29568392,0.453785598,0.27525574,0.491223574,5,43,33,27,101,-8.905233383,3.787626982,0.990002394,0.808980107,-0.2669954,1.122073531,-50,-2,-32,26,188
1695161142260440900,-9.852140427,-3.263296843,-0.284909993,0.444725901,0.268727422,0.460980088,16,43,37,25,104,-8.902838707,3.799597979,1.00317049,0.788862169,-0.281117916,1.115545154,-47,-2,-34,28,185
1695161142261440900,-9.834183693,-3.219004154,-0.278924495,0.434467077,0.262731999,0.431003064,9,45,37,26,104,-8.896853447,3.813963413,1.019929886,0.76767844,-0.294574291,1.10741806,-47,-2,-34,27,188
1695161142262440900,-9.815030098,-3.175908566,-0.271741897,0.422742724,0.257136285,0.400759578,9,47,37,28,100,-8.888473511,3.82473731,1.030703783,0.745562017,-0.307364464,1.097558975,-46,-2,-31,28,185
1695161142263440900,-9.798270226,-3.131615877,-0.25977087,0.409952521,0.25194028,0.370516092,8,41,35,29,103,-8.882488251,3.839102507,1.037886381,0.721846879,-0.319222063,1.086234331,-47,2,-34,25,190
1695161142383404400,-9.455899239,-2.349909067,-0.199915841,-0.117643185,0.236885145,-0.148552835,16,45,41,28,97,-8.875306129,3.890577793,1.073799491,0.064217456,-0.332545161,0.701862156,-46,-2,-33,28,185
1695161142384404400,-9.440337181,-2.316390038,-0.202310041,-0.161609486,0.238217458,-0.173866764,10,45,39,28,103,-8.865729332,3.849876404,1.067813993,0.02797856,-0.323885113,0.683209777,-48,-2,-33,26,187
1695161142385404400,-9.425971985,-2.286462545,-0.207098454,-0.206108719,0.240082696,-0.198647782,9,43,38,30,101,-8.853757858,3.807977915,1.058237195,-0.006128637,-0.314692199,0.665756524,-46,-2,-27,28,186
1695161142386404400,-9.41280365,-2.264914751,-0.208295554,-0.251274139,0.242214397,-0.222895861,9,41,39,28,103,-8.845377922,3.763684988,1.042674899,-0.038104136,-0.304833084,0.649369061,-44,-2,-33,30,188
1695161142387404400,-9.397241592,-2.244564056,-0.20350714,-0.296705961,0.244879022,-0.246611029,16,45,37,29,100,-8.83699894,3.7181952,1.023521185,-0.068081163,-0.294707507,0.634180665,-45,-2,-31,27,190
1695161142483314500,-9.526528358,-2.032677174,-0.453701228,-0.979382813,0.197715163,-0.609666169,17,45,44,30,92,-8.866926193,3.026270866,0.784101069,-0.153748855,-0.097125575,0.446724325,-44,-2,-32,31,186
1695161142484314500,-9.514557838,-2.026691675,-0.471657723,-1.002964735,0.188255742,-0.625120997,16,46,40,28,101,-8.871714592,3.020285368,0.782903969,-0.140825421,-0.088998467,0.438730478,-44,-2,-28,30,190
1695161142485314500,-9.497797966,-2.025494576,-0.489614248,-1.02534759,0.178929552,-0.639909685,10,43,43,28,99,-8.877699852,3.016694069,0.786495268,-0.127369061,-0.081271052,0.430869848,-47,-1,-32,31,185
1695161142486314500,-9.478644371,-2.020706177,-0.506373644,-1.046398163,0.169869825,-0.654565096,16,46,45,29,99,-8.883685112,3.015496969,0.790086567,-0.113912709,-0.074343033,0.423142403,-44,-2,-31,29,188
1695161142487314500,-9.455899239,-2.024297476,-0.521935999,-1.066116333,0.160676882,-0.668554366,16,45,44,30,98,-8.890868187,3.017891169,0.793677866,-0.100589581,-0.067548238,0.415548235,-47,-4,-28,28,186
1695161142557269000,-9.032125473,-2.354697466,-0.427365005,-1.027879,0.13869372,-0.781800866,8,47,45,30,100,-8.834604263,3.27167654,0.897825658,-0.038637057,-0.020650841,0.299770296,-44,-2,-33,31,187
1695161142558269000,-9.027337074,-2.37624526,-0.403422982,-1.001765728,0.14748697,-0.779003024,10,45,48,32,98,-8.827422142,3.27407074,0.900219858,-0.044499233,-0.020251149,0.295506895,-47,-2,-20,28,186
1695161142559269000,-9.022548676,-2.400187254,-0.377086759,-0.973254204,0.1573461,-0.775539041,17,47,48,34,99,-8.821435928,3.276464939,0.901416957,-0.050761104,-0.019851454,0.29137671,-45,-2,-32,27,186
1695161142560269000,-9.018958092,-2.420537949,-0.354341865,-0.942477763,0.16773814,-0.770875931,17,48,49,29,99,-8.815450668,3.277662039,0.903811157,-0.056889739,-0.019451762,0.287113339,-47,-2,-33,28,188
1695161142561269000,-9.016563416,-2.444479942,-0.336385339,-0.909436405,0.17866309,-0.76514703,10,45,53,32,101,-8.81066227,3.281253338,0.899022758,-0.063151613,-0.019052068,0.2831164,-46,-2,-31,29,188
1695161142626253300,-9.101557732,-2.445677042,-0.015562311,-0.098457888,0.274323106,-0.573160827,18,49,47,32,100,-8.730456352,3.242946148,0.859518409,-0.100589581,-0.009859112,0.20464319,-45,-5,-32,27,186
1695161142627253300,-9.099164009,-2.421735048,-0.005985504,-0.05489127,0.271791726,-0.562901974,17,47,48,38,99,-8.719682693,3.245340347,0.865503907,-0.099523738,-0.008793262,0.199846849,-46,-2,-32,28,188
1695161142628253300,-9.099164009,-2.395398855,0.002394202,-0.012790199,0.269260317,-0.553042889,17,53,56,34,99,-8.714894295,3.246537447,0.861912608,-0.098191425,-0.007460949,0.195050538,-47,-2,-32,26,185
1695161142629253300,-9.096769333,-2.371456861,0.01436521,0.027845331,0.266595691,-0.543583453,8,47,47,30,97,-8.708909035,3.252522945,0.859518409,-0.096725874,-0.006128637,0.190387443,-45,-2,-31,29,188
1695161142630253300,-9.09437561,-2.348711967,0.029927522,0.067281775,0.263797849,-0.534390509,16,47,51,30,98,-8.704120636,3.256114244,0.861912608,-0.095260337,-0.004929556,0.185191423,-45,-2,-32,30,188
1695161142700185200,-9.153033257,-1.929726601,0.225054964,0.512940288,0.212104142,-0.40568912,16,48,47,32,98,-8.672995567,3.347094059,0.830788016,-0.034107197,-0.003730475,0.102721281,-44,-5,-31,29,192
1695161142701185200,-9.154230118,-1.905784607,0.232237563,0.521067381,0.208773345,-0.400359869,20,48,52,34,100,-8.672995567,3.355473757,0.830788016,-0.029977029,-0.004796324,0.099656969,-45,-8,-31,25,186
1695161142702185200,-9.155426979,-1.881842494,0.240617275,0.527595699,0.2051761,-0.395163864,16,52,52,32,99,-8.671798706,3.362656355,0.831985116,-0.027179174,-0.005329249,0.09739203,-47,-2,-32,29,188
1695161142703185200,-9.159018517,-1.8602947,0.245405674,0.532658458,0.201312408,-0.390367538,18,46,52,32,99,-8.670601845,3.373430252,0.834379315,-0.023448698,-0.005728943,0.094194487,-46,-2,-33,30,187
1695161142704185200,-9.159018517,-1.837549806,0.252588272,0.536255717,0.197715163,-0.385571182,18,50,49,31,97,-8.66940403,3.38300705,0.839167714,-0.019718224,-0.006261868,0.090996936,-49,-4,-31,27,185
1695161142770152200,-9.270348549,-1.572990537,0.18555063,0.399560481,0.157212853,-0.306565106,16,46,48,32,96,-8.66341877,3.578134537,0.914585054,0.003996937,0.021316998,0.022516079,-48,-3,-34,27,188
1695161142771152200,-9.279925346,-1.569399238,0.175973818,0.385571182,0.155747324,-0.302168459,22,49,51,36,97,-8.667010307,3.586514235,0.918176353,0.003464012,0.023448698,0.018519141,-44,-3,-30,28,186
1695161142772152200,-9.287108421,-1.568202138,0.16759412,0.371448696,0.15428178,-0.297905058,16,48,52,34,99,-8.665813446,3.591302633,0.922964752,0.003064318,0.024647778,0.015721286,-65,-3,-31,24,185
1695161142773152200,-9.293093681,-1.563413739,0.160411507,0.357192963,0.152150065,-0.293774903,19,49,53,35,100,-8.66341877,3.599682331,0.92775315,0.002398162,0.026246555,0.011591119,-46,2,-30,24,188
1695161142774152200,-9.296685219,-1.56101954,0.156820208,0.342670739,0.150151595,-0.289511472,19,47,47,32,97,-8.65743351,3.608062029,0.93134445,0.001598775,0.027845331,0.007594181,-44,-2,-29,28,186
1695161142836108500,-9.257181168,-1.678335428,-0.01316811,0.155747324,0.076874427,-0.210638598,18,47,51,39,100,-8.615534782,3.764882088,1.101332784,-0.019584993,0.046364475,-0.059154671,-46,-2,-31,27,186
1695161142837108500,-9.258378029,-1.695094824,-0.021547815,0.153482378,0.072344564,-0.204909652,16,49,51,34,100,-8.617929459,3.775655985,1.110909581,-0.020117918,0.04623124,-0.062352221,-44,-3,-29,25,185
1695161142838108500,-9.258378029,-1.711854219,-0.025139118,0.152150065,0.067947932,-0.199047476,16,47,47,31,96,-8.620323181,3.785232782,1.108515382,-0.020650841,0.046098009,-0.065683,-46,-2,-33,25,186
1695161142839108500,-9.261969566,-1.726219416,-0.025139118,0.151483908,0.063684531,-0.192918837,16,49,54,34,99,-8.620323181,3.79600668,1.108515382,-0.020917306,0.045698319,-0.068747319,-45,-2,-32,27,186
1695161142840108500,-9.264363289,-1.740584612,-0.031124622,0.151350692,0.059687596,-0.186523736,17,49,52,34,99,-8.621520042,3.806780815,1.11450088,-0.021050537,0.045032158,-0.071811639,-44,-3,-29,26,187
1695161142888100000,-9.218873978,-1.78248322,-0.33518824,0.073810108,-0.001598775,-0.084868304,17,48,51,36,96,-8.664615631,4.012681961,1.233013868,0.002398162,0.0063951,-0.088865243,-44,-1,-31,28,184
1695161142889100000,-9.212887764,-1.801636815,-0.359130263,0.059820827,-0.0042634,-0.082470134,16,49,52,36,96,-8.670601845,4.029441357,1.235408068,0.003863706,0.0042634,-0.087932616,-45,-2,-24,31,184
1695161142890100000,-9.206902504,-1.827973008,-0.377086759,0.045831546,-0.006928025,-0.08020521,9,47,49,39,97,-8.672995567,4.041412354,1.237802267,0.004929556,0.002264931,-0.086733535,-44,-3,-32,27,187
1695161142891100000,-9.204508781,-1.865083098,-0.397437483,0.032508422,-0.009192956,-0.077807046,18,49,52,35,97,-8.672995567,4.050989151,1.237802267,0.006128637,0.000133231,-0.085267991,-44,-3,-32,25,185
1695161142892100000,-9.196128845,-1.903390408,-0.418985307,0.020251149,-0.011591119,-0.075542115,16,45,52,34,97,-8.677783966,4.061763287,1.240196466,0.007327718,-0.0021317,-0.083669223,-45,-1,-33,29,186
1695161142920059600,-8.969876289,-2.596511841,-0.500388145,0.121773355,0.001199081,-0.045431852,16,50,53,32,95,-8.680178642,4.139574528,1.177947283,0.025180703,-0.0528928,-0.011591119,-45,-2,-31,28,186
1695161142921059600,-8.963891029,-2.60010314,-0.509964943,0.135496169,0.003730475,-0.046630934,18,44,49,31,96,-8.681375504,4.140771866,1.169567585,0.026379786,-0.055424199,-0.005995406,-48,-2,-31,30,188
1695161142922059600,-8.957905769,-2.602497339,-0.509964943,0.148686066,0.005728943,-0.048096478,10,44,59,32,97,-8.686163902,4.140771866,1.161187768,0.027578866,-0.057822358,-0.000532925,-44,-2,-33,26,185
1695161142923059600,-8.951920509,-2.603694439,-0.512359142,0.161209792,0.007594181,-0.049961712,16,46,53,32,93,-8.682572365,4.139574528,1.150413871,0.028644716,-0.059820827,0.004929556,-47,-2,-31,26,188
1695161142924059600,-8.948328972,-2.609679937,-0.517147541,0.172667682,0.008793262,-0.051960181,9,50,55,30,94,-8.684967041,4.140771866,1.140837073,0.029977029,-0.061819296,0.010125575,-47,4,-29,30,188
1695161142953042800,-8.933963776,-2.693476915,-0.506373644,0.228891268,-0.00106585,-0.07474272,10,47,51,31,94,-8.681375504,4.12401247,1.018732786,0.020917306,-0.082736596,0.083269522,-44,-2,-33,28,185
1695161142954042800,-8.937555313,-2.699462414,-0.499191046,0.2290245,-0.001865237,-0.075542115,17,52,53,35,95,-8.676587105,4.118026733,1.011550188,0.018918836,-0.08313629,0.086067379,-45,0,-30,28,186
1695161142955042800,-8.938752174,-2.710236311,-0.490811348,0.229290962,-0.002664625,-0.076474734,16,50,47,34,94,-8.672995567,4.110844135,1.00436759,0.016787136,-0.083669223,0.089131698,-45,-2,-29,28,189
1695161142956042800,-8.935160637,-2.716221809,-0.48482585,0.229690656,-0.003597243,-0.077407345,20,47,48,32,94,-8.66940403,4.100070477,0.999579191,0.014788668,-0.084202148,0.091929555,-44,-4,-34,28,186
1695161142957042800,-8.931569099,-2.721010208,-0.477643251,0.230090365,-0.004529862,-0.078339972,17,48,51,33,95,-8.66341877,4.09408474,0.991199493,0.012790199,-0.084735066,0.094860643,-45,0,-29,25,188
1695161142986022900,-8.892065048,-2.652775526,-0.395043284,0.180261865,-0.016254211,-0.102055125,4,44,48,31,95,-8.66341877,4.361038208,0.786495268,0.071278714,-0.057289433,0.113513015,-44,-2,-30,28,188
1695161142987022900,-8.890868187,-2.643198729,-0.390254885,0.171868294,-0.015987748,-0.102987751,16,48,48,33,96,-8.667010307,4.388571739,0.769735873,0.08233691,-0.053292494,0.116310872,-46,-2,-31,28,184
1695161142988022900,-8.887276649,-2.633621931,-0.383072257,0.162808567,-0.015721286,-0.103787132,16,51,53,30,94,-8.670601845,4.428076267,0.760159016,0.094460949,-0.048496172,0.119908117,-44,-1,-30,26,183
1695161142989022900,-8.888473511,-2.624045134,-0.378283858,0.153215915,-0.015188362,-0.104719758,16,45,47,34,94,-8.675390244,4.478354454,0.757764816,0.107384384,-0.043166921,0.124571204,-44,-2,-31,26,186
1695161142990022900,-8.888473511,-2.613271236,-0.378283858,0.143090352,-0.014522205,-0.105519146,8,44,53,36,92,-8.683769226,4.542997837,0.757764816,0.121107198,-0.036905054,0.129633993,-46,-2,-28,31,188
1695161143021003800,-8.942343712,-2.56778121,-0.29568392,-0.037837673,0.025447167,-0.103787132,16,48,52,32,95,-9.097966194,8.412027359,1.089361787,-0.193052068,-0.009592649,0.466309339,-45,-2,-31,22,186
1695161143022003800,-8.947132111,-2.571372509,-0.292092621,-0.043300152,0.027712099,-0.103120975,16,45,48,30,93,-9.115922928,8.623914719,1.104924083,-0.263264924,-0.030643184,0.510408878,-44,-2,-30,28,184
1695161143023003800,-8.945934296,-2.578555346,-0.287304193,-0.047830015,0.029577335,-0.102055125,17,47,51,36,97,-9.126696587,8.817844391,1.133654475,-0.335742712,-0.051560488,0.558905005,-45,-2,-32,29,188
1695161143024003800,-8.949525833,-2.578555346,-0.281318694,-0.051560488,0.031442571,-0.101255737,19,46,51,34,97,-9.131484985,8.996212959,1.157596469,-0.406621754,-0.072344564,0.611664653,-44,-1,-33,24,186
1695161143025003800,-8.950722694,-2.582146645,-0.275333196,-0.054758042,0.033174578,-0.100323126,17,49,53,34,95,-9.136273384,9.103952408,1.174355984,-0.452719748,-0.085934147,0.649635553,-45,-2,-30,28,185
1695161143054982100,-9.072827339,-2.794033289,-0.301669419,-0.01185758,0.037437979,-0.063018374,17,47,49,34,95,-9.348160744,10.07360363,1.168370485,-0.649102569,-0.565300167,2.111848354,-45,-2,-29,40,192
1695161143055982100,-9.085995674,-2.82396102,-0.312443316,-0.004130168,0.036238898,-0.060220521,17,45,49,34,95,-9.338583946,10.12986755,1.191115379,-0.595143914,-0.592479289,2.187790155,-44,-2,-24,47,192
1695161143056982100,-9.101557732,-2.86107111,-0.325611442,0.004529862,0.034506891,-0.057422664,16,49,49,34,95,-9.32421875,10.20408726,1.22822547,-0.540785611,-0.619392037,2.260800838,-41,-2,-27,46,192
1695161143057982100,-9.119514465,-2.904166698,-0.337582439,0.01398928,0.033174578,-0.054358348,10,47,53,33,93,-9.306262016,10.28070164,1.274912357,-0.487093419,-0.646038294,2.331280231,-46,2,-25,48,194
1695161143058982100,-9.136273384,-2.952050686,-0.349553436,0.024381317,0.031709034,-0.051693719,16,48,52,31,96,-9.273940086,10.37168217,1.331176162,-0.433934122,-0.672418058,2.400160789,-48,-2,-27,57,194
1695161143085967800,-9.261969566,-4.396951199,-0.311246216,0.49495405,0.055424199,-0.05249311,16,48,51,32,93,-8.38928318,11.88122559,0.469263524,-0.213169977,-0.487093419,3.377278566,-46,-3,14,86,232
1695161143086967800,-9.287108421,-4.509479046,-0.301669419,0.52719599,0.061819296,-0.054358348,16,47,52,36,95,-8.39526844,11.87643719,0.320823014,-0.20624195,-0.456050515,3.421511412,-48,-2,14,88,232
1695161143087967800,-9.317035675,-4.624400616,-0.293289721,0.559571207,0.068614088,-0.056490045,16,47,50,30,94,-8.39526844,11.89798546,0.175973818,-0.204776406,-0.424208283,3.464278698,-47,-5,16,87,232
1695161143088967800,-9.345766068,-4.742913723,-0.280121595,0.591946423,0.075142421,-0.058888208,9,44,48,34,97,-8.382100105,11.90756226,0.039504327,-0.205309346,-0.393032134,3.503715038,-45,-2,18,89,241
1695161143089967800,-9.376891136,-4.86980629,-0.270544797,0.624721289,0.080338441,-0.062352221,18,47,48,32,93,-8.364143372,11.8967886,-0.08259996,-0.205042884,-0.364254236,3.542618513,-45,-2,25,90,238
1695161143122942900,-9.822212219,-7.750030994,0.434547603,1.45435226,-0.05142726,-0.542917311,9,44,46,32,93,-7.730877399,12.7766571,-1.139639974,-1.078240395,0.598208308,4.074211597,-31,-4,81,95,269
1695161143123942900,-9.854534149,-7.835024834,0.429759204,1.505113363,-0.075941809,-0.592212856,9,46,42,34,91,-7.753622055,12.74553299,-1.236605167,-1.156846762,0.638444126,4.070613861,-35,-3,81,95,272
1695161143124942900,-9.88206768,-7.908048153,0.430956304,1.551877499,-0.102055125,-0.642973959,17,49,47,31,93,-7.758410454,12.70363426,-1.303642869,-1.207741141,0.664024532,4.066617012,-35,-3,83,95,269
1695161143125942900,-9.909601212,-7.977479935,0.436941803,1.596243501,-0.129500762,-0.695333838,5,48,43,30,94,-7.753622055,12.60906315,-1.388636947,-1.283150077,0.70066309,4.060754776,-37,-1,87,96,276
1695161143126942900,-9.933543205,-8.03494072,0.439336002,1.637278676,-0.158012256,-0.748892784,16,48,43,34,94,-7.7284832,12.51329517,-1.459265947,-1.355627775,0.736235797,4.05449295,-34,-2,89,95,277
1695161143153930800,-9.702502251,-8.951920509,0.85592711,2.256271124,-0.929154634,-1.705493093,7,59,51,44,99,-6.659471989,10.763134,-1.48679924,-2.629451752,1.635146976,3.679313898,-21,-3,105,95,288
1695161143154930800,-9.645041466,-8.980650902,0.881066203,2.285315514,-0.958998442,-1.74213171,9,63,51,40,104,-6.598419666,10.65300083,-1.443703651,-2.689805508,1.675516129,3.651068926,-13,-1,108,96,290
1695161143155930800,-9.582792282,-9.001001358,0.903811157,2.31302762,-0.984578848,-1.775705934,5,59,52,42,108,-6.53976202,10.55962658,-1.367089152,-2.750692368,1.714952588,3.625621557,-15,-2,107,96,288
1695161143156930800,-9.518148422,-9.001001358,0.938527048,2.337941647,-1.005496144,-1.807548285,6,63,53,45,110,-6.487089634,10.48660374,-1.279700756,-2.813843727,1.753989339,3.600707531,-15,-2,106,94,292
1695161143157930800,-9.454702377,-9.002198219,0.976834297,2.360058069,-1.019885182,-1.838591099,8,65,56,44,110,-6.438008308,10.41118622,-1.198297977,-2.881258726,1.791826963,3.57672596,-13,-2,108,96,292
1695161143190904200,-9.126696587,-8.892065048,1.011550188,2.358859062,-0.533591092,-2.280652285,4,120,121,84,195,-5.35104084,6.65468359,-0.512359142,-3.850382805,2.114646196,2.841156006,-11,0,111,98,284
1695161143191904200,-9.17697525,-8.956708908,1.036689281,2.370183706,-0.516404271,-2.300237417,5,128,129,88,203,-5.264849663,6.38653326,-0.424970806,-3.851182222,2.121041298,2.789862394,-12,2,110,96,285
1695161143192904200,-9.232041359,-9.024943352,1.079784989,2.388036728,-0.504146993,-2.316624641,4,133,140,93,206,-5.182249546,6.129156113,-0.308852017,-3.84838438,2.126636982,2.738301516,-13,3,109,95,280
1695161143193904200,-9.270348549,-9.103952408,1.148019671,2.412418127,-0.496419609,-2.330347776,6,144,153,94,216,-5.110423565,5.887341976,-0.179565132,-3.843721151,2.132632494,2.685941696,-17,1,109,96,284
1695161143194904200,-9.302670479,-9.174580574,1.200692177,2.445059538,-0.490024507,-2.342205048,5,147,159,104,226,-5.040991783,5.658695698,-0.047884032,-3.837193012,2.139293909,2.633182049,-15,4,109,96,281
1695161143249583800,-9.892841339,-8.593987465,1.061828494,3.497453213,-0.534923434,-2.566833019,16,244,368,218,398,-3.639186621,3.08133769,2.04704237,-3.717551231,2.054825544,1.627552748,-22,17,105,95,272
1695161143250583800,-9.885659218,-8.482656479,1.126471877,3.543551207,-0.561036766,-2.5882833,9,251,383,226,414,-3.573346138,2.980781078,2.145204782,-3.726078272,2.048696756,1.571728945,-19,17,104,94,272
1695161143251583800,-9.864110947,-8.365341187,1.217451572,3.59031558,-0.590880513,-2.60866785,7,259,393,237,429,-3.514688015,2.879027605,2.236184359,-3.735537529,2.042434931,1.514839172,-21,16,104,93,272
1695161143252583800,-9.840168953,-8.258798599,1.344344258,3.634548187,-0.625653923,-2.628119469,6,260,410,246,441,-3.459621429,2.758120298,2.317587137,-3.744064331,2.035373688,1.457016945,-22,15,103,94,273
1695161143253583800,-9.821015358,-8.164227486,1.502361536,3.675982952,-0.662159264,-2.643974066,16,270,430,257,461,-3.405751944,2.626439333,2.396595955,-3.750725746,2.026980162,1.399727345,-23,18,104,94,268
1695161143333541400,-8.690952301,-6.088454723,2.467224836,3.568199158,-0.790061235,-2.595611095,37,309,676,429,737,-3.153163671,0.027533319,4.734533787,-2.938415051,1.63354826,0.720647812,-32,27,95,90,258
1695161143334541400,-8.591592789,-6.001066685,2.626439333,3.531560421,-0.787663102,-2.592280149,40,319,681,431,747,-3.190273762,0.005985504,4.920084476,-2.852214336,1.605836153,0.694401205,-32,29,95,90,257
1695161143335541400,-8.493430138,-5.922058105,2.760514498,3.494255543,-0.776604891,-2.585885286,42,319,691,434,750,-3.224989653,0.011971008,5.099649429,-2.767346144,1.578124046,0.667088807,-31,27,99,86,256
1695161143336541400,-8.390480042,-5.856217384,2.870647907,3.454019785,-0.757952571,-2.574959993,45,321,694,438,756,-3.260902643,0.037110128,5.279214859,-2.684742689,1.550012231,0.639243484,-30,25,95,88,252
1695161143337541400,-8.297105789,-5.772420406,2.941276789,3.410586596,-0.734903514,-2.558706045,44,327,698,443,766,-3.307589531,0.075417355,5.45997715,-2.605470181,1.520568132,0.610865235,-35,27,94,88,250
1695161143423571600,-6.73129797,-4.701014996,3.615244627,2.851681471,-0.228491575,-1.876828432,63,358,729,446,834,-4.086902142,1.134851575,7.933187485,-1.88908577,0.915964782,0.156946406,-38,30,94,88,247
1695161143424571600,-6.675034523,-4.636371613,3.627215624,2.857143879,-0.217699856,-1.837658525,66,365,728,444,836,-4.108449936,1.145625472,7.982268333,-1.859908104,0.889851451,0.136828482,-41,29,94,87,247
1695161143425571600,-6.6163764,-4.562151432,3.64277792,2.865936995,-0.209572732,-1.800087333,63,364,727,443,840,-4.134786129,1.157596469,8.0229702,-1.82886529,0.864404321,0.117243491,-35,30,94,86,247
1695161143426571600,-6.562506676,-4.480748653,3.659537315,2.875263453,-0.204376727,-1.764248013,63,367,724,443,840,-4.156333923,1.170764685,8.055291176,-1.795290947,0.839623272,0.098191425,-41,30,91,84,245
1695161143427571600,-6.512228489,-4.390965939,3.67988801,2.885921955,-0.202111781,-1.730007648,65,365,725,443,841,-4.180276394,1.18872118,8.082824707,-1.758385897,0.814842284,0.079539053,-38,30,92,84,248
1695161143498529300,-5.38934803,-2.132036686,4.256890774,2.57109642,-0.457915753,-1.295540452,78,383,723,434,846,-4.997896194,2.250549555,9.333795547,-0.780601799,0.143490046,-0.130833074,-42,12,91,88,247
1695161143499529300,-5.305551052,-2.04584527,4.310760021,2.524199247,-0.461912692,-1.277021408,79,385,720,435,848,-4.972756863,2.312798738,9.466673851,-0.72357887,0.087932616,-0.132565081,-43,11,91,85,247
1695161143500529300,-5.218162537,-1.982398987,4.368220806,2.477834702,-0.462978572,-1.258102536,85,384,718,439,846,-4.911705017,2.37863946,9.583989143,-0.669620216,0.038370594,-0.134030625,-43,12,91,90,247
1695161143501529300,-5.139153957,-1.929726601,4.428076267,2.430004597,-0.46124655,-1.237584949,86,384,719,436,848,-4.818330765,2.45405674,9.684545517,-0.618992329,-0.00319755,-0.135895863,-44,9,88,84,247
1695161143502529300,-5.064933777,-1.892616391,4.493916512,2.382574081,-0.456450224,-1.216134787,85,384,714,439,846,-4.705803394,2.539050817,9.763554573,-0.57236141,-0.034906585,-0.138826951,-42,10,93,84,247
1695161143547499000,-4.299986362,-1.417367458,5.451597214,1.72347939,-0.249009192,-0.771675348,91,383,699,431,855,-2.71382761,3.34350276,8.329427719,-0.134696782,0.279252678,-0.277653903,-44,1,89,88,247
1695161143548499000,-4.267664433,-1.353921056,5.505466938,1.688705921,-0.237684533,-0.749159276,86,383,698,429,849,-2.67432332,3.357867956,8.274360657,-0.124304749,0.288045943,-0.276854515,-43,-1,88,85,247
1695161143549499000,-4.23294878,-1.290474772,5.558139324,1.651934147,-0.22542727,-0.726509929,94,383,699,431,851,-2.616862535,3.38300705,8.206126213,-0.109382853,0.299370587,-0.274722815,-39,-1,93,89,247
1695161143550499000,-4.197035789,-1.231816769,5.61081171,1.613030553,-0.212370604,-0.703194499,92,378,698,435,853,-2.562992811,3.399766445,8.142680168,-0.095393561,0.308830023,-0.271525264,-43,1,89,89,247
1695161143551499000,-4.170699596,-1.174355984,5.657498837,1.572128534,-0.198780999,-0.679612517,92,381,698,429,857,-2.507926226,3.42011714,8.093599319,-0.082203679,0.316424191,-0.267128646,-41,-2,89,82,239
1695161143583481500,-3.42011714,-0.988805294,6.461950302,0.786597252,0.159744263,-0.198248088,93,373,690,427,871,-2.397793055,3.473986626,8.700529099,0.130833074,0.19838132,-0.104586519,-42,0,93,90,247
1695161143584481500,-3.398569345,-0.944512546,6.458359241,0.751024485,0.184791744,-0.177464008,95,378,691,431,875,-2.41694665,3.489548922,8.779537201,0.145754978,0.182393566,-0.09659265,-41,0,92,90,246
1695161143585481500,-3.379415751,-0.869095206,6.441599846,0.714119434,0.207840726,-0.159744263,93,375,691,430,875,-2.432508945,3.506308317,8.865729332,0.160277188,0.166672289,-0.089264929,-43,-1,90,90,247
1695161143586481500,-3.369838953,-0.760159016,6.412869453,0.675615609,0.228758052,-0.145621747,94,375,686,431,875,-2.45166254,3.527856112,8.955511093,0.173866764,0.151350692,-0.082869835,-44,-2,91,90,248
1695161143587481500,-3.356670856,-0.621295333,6.385335922,0.634180665,0.247010723,-0.135496169,94,377,687,430,877,-2.467224836,3.539827108,9.012971878,0.182127118,0.141358346,-0.079006128,-42,3,92,89,247
1695161143642447600,-3.706224203,-1.646013618,7.304709435,-0.030776417,0.361722827,0.071811639,86,371,675,427,865,-2.801215887,3.23576355,10.03050804,0.416614085,-0.025580399,0.008926493,-44,-1,89,89,247
1695161143643447600,-3.742137194,-1.826775908,7.387309551,-0.002664625,0.350931078,0.090996936,84,367,675,428,865,-2.801215887,3.191470861,10.01135445,0.439796329,-0.031975497,0.017986218,-42,-2,93,88,244
1695161143644447600,-3.773261786,-1.993172884,7.472303391,0.030509954,0.339473218,0.109249614,88,367,671,426,865,-2.808398485,3.142389774,9.985017776,0.464577317,-0.038503829,0.027312404,-41,-2,88,89,247
1695161143645447600,-3.798400879,-2.147598982,7.54891777,0.067548238,0.327082694,0.126303226,88,366,672,423,862,-2.810792685,3.107673883,9.965864182,0.482163846,-0.043033689,0.033707503,-43,-2,85,84,247
1695161143646447600,-3.818751812,-2.290053844,7.61954689,0.106851459,0.314558983,0.141491577,86,367,672,428,862,-2.815581083,3.058592558,9.937133789,0.51000917,-0.050228179,0.043566614,-44,-2,89,88,248
1695161143714406200,-3.830722809,-3.046621561,8.289923668,0.191852987,-0.020384381,-0.099257268,81,361,663,417,845,-3.45603013,2.669534922,9.142259598,1.42317605,-0.290843785,0.397029072,-43,-13,77,84,248
1695161143715406200,-3.801992416,-3.069366693,8.343792915,0.160676882,-0.035306279,-0.125237361,88,363,665,419,841,-3.508702517,2.71382761,9.077615738,1.486194491,-0.316157728,0.413150072,-43,-9,75,80,247
1695161143716406200,-3.770867586,-3.088520288,8.390480042,0.129234299,-0.048096478,-0.14908576,81,357,660,416,843,-3.556586742,2.767697096,9.017760277,1.548280239,-0.344269514,0.428338438,-43,-8,73,76,250
1695161143717406200,-3.737348795,-3.106476784,8.431180954,0.099257268,-0.059021436,-0.170535982,84,363,664,419,842,-3.596091032,2.826355219,8.961497307,1.609300137,-0.374779463,0.442993879,-43,-7,72,79,247
1695161143718406200,-3.699041605,-3.125630379,8.473079681,0.072477795,-0.068747319,-0.189854518,84,362,663,416,839,-3.637989521,2.894589901,8.907627106,1.669121027,-0.408486992,0.457382828,-42,-4,69,81,248
1695161143779474700,-3.221398354,-2.604891539,9.011775017,-0.096725874,-0.009459418,-0.170802444,85,357,660,413,829,-4.264073372,4.274847031,8.677783966,1.97115624,-1.636745811,0.754222035,-34,3,57,79,253
1695161143780474700,-3.214215755,-2.547430515,9.026140213,-0.104320064,-0.007860643,-0.157479316,88,361,661,415,830,-4.237737179,4.282029629,8.656236649,1.934917331,-1.704294086,0.768078089,-35,1,45,77,248
1695161143781474700,-3.208230257,-2.494758129,9.040505409,-0.113646246,-0.005995406,-0.144022971,88,363,659,416,829,-4.197035789,4.278438568,8.635885239,1.898811579,-1.767045975,0.782067418,-37,4,43,73,247
1695161143782474700,-3.203441858,-2.446874142,9.059659004,-0.124970905,-0.003730475,-0.130566612,91,359,656,413,825,-4.141968727,4.27724123,8.605957985,1.857509971,-1.823402762,0.794990778,-35,8,44,70,248
1695161143783474700,-3.204638958,-2.406172752,9.0740242,-0.137894332,-0.000932619,-0.116977029,88,361,657,415,828,-4.083311081,4.262876034,8.566453934,1.815009117,-1.874430418,0.806448698,-34,0,42,77,248
1695161143867424800,-3.520673513,-2.865859509,9.109937668,-0.372914255,0.111248083,0.172800913,92,357,653,414,820,-3.167528868,3.110068083,7.044938564,1.194817781,-1.939047456,0.524131715,-31,2,40,95,241
1695161143868424800,-3.536235809,-2.877830505,9.084798813,-0.37344715,0.112846859,0.181993872,90,361,653,416,821,-3.125630379,3.034650564,6.921637058,1.184425712,-1.911734939,0.479499221,-32,3,35,95,235
1695161143869424800,-3.544615507,-2.874239206,9.060855865,-0.373580426,0.113513015,0.190254211,89,363,651,414,819,-3.086126089,2.967612982,6.797138691,1.177231193,-1.883623362,0.43366769,-30,0,33,97,236
1695161143870424800,-3.550601006,-2.862268209,9.039308548,-0.373980075,0.113779478,0.198114842,88,359,651,412,817,-3.052607059,2.907757998,6.670246124,1.172035217,-1.855911136,0.385837674,-30,4,39,94,234
1695161143871424800,-3.552995205,-2.838326216,9.008183479,-0.37451303,0.113379791,0.205842257,90,358,650,415,820,-3.022679567,2.845508814,6.54574728,1.167771816,-1.828465581,0.336142421,-30,1,40,95,236
1695161143986092100,-3.588908434,-0.946906745,7.522581577,-0.782467067,0.031442571,0.278719753,88,350,640,418,819,-2.481590033,2.085349798,5.073313236,1.353629351,-1.30166924,-0.736768782,-35,3,30,82,216
1695161143987092100,-3.594893932,-0.821211159,7.39808321,-0.845751941,0.037437979,0.283782542,89,352,647,419,816,-2.467224836,2.087743998,5.008669853,1.367485404,-1.26836133,-0.814176083,-34,1,30,82,215
1695161143988092100,-3.60566783,-0.711077929,7.267599106,-0.912500799,0.044765696,0.289777964,90,352,641,418,818,-2.466027737,2.102109194,4.973954201,1.382540464,-1.234520674,-0.894514501,-34,1,30,82,215
1695161143989092100,-3.626018524,-0.617704034,7.134721279,-0.981781006,0.053159267,0.29710567,89,351,647,416,818,-2.472013235,2.120065689,4.951209068,1.39413166,-1.21027267,-0.95007199,-34,3,29,81,215
1695161143990092100,-3.653551817,-0.547075093,7.010222435,-1.051993847,0.061552834,0.305632442,86,352,641,416,817,-2.473210335,2.160767078,4.923676014,1.414649367,-1.174699783,-1.03827107,-35,1,30,79,215
1695161144025072700,-4.513070107,-0.865503907,5.172672749,-1.845918775,0.170802444,0.618192911,76,326,631,412,814,-3.393780947,4.035427094,3.764882088,1.761583447,-0.433534473,-3.342905045,-42,0,7,56,208
1695161144026072700,-4.546588898,-0.867898107,5.106832027,-1.864571214,0.175998464,0.641641676,68,327,629,413,812,-3.511096716,4.244919777,3.682282209,1.785964847,-0.404090345,-3.472539186,-44,0,6,56,204
1695161144027072700,-4.581305027,-0.867898107,5.040991783,-1.883756518,0.181194484,0.665356815,67,324,627,414,812,-3.616441727,4.448426723,3.60447073,1.812077999,-0.377444088,-3.596310854,-44,1,7,57,204
1695161144028072700,-4.617218018,-0.866701007,4.9763484,-1.903741121,0.186124057,0.689471722,65,321,625,413,809,-3.733757496,4.675876141,3.538630009,1.835793257,-0.355061263,-3.714220524,-44,1,0,51,201
1695161144029072700,-4.662707806,-0.869095206,4.917690277,-1.924658537,0.190387443,0.713719785,67,320,622,412,809,-3.869029999,4.93804121,3.481169224,1.852313876,-0.336941808,-3.827866793,-43,4,-1,56,203
1695161144060050300,-5.746084213,-1.618480325,4.313154221,-2.436266422,-0.183592647,1.076641679,41,251,552,362,757,-4.751293182,8.5484972,3.468001127,1.256503701,-0.754621744,-4.365721226,-44,7,-20,31,197
1695161144061050300,-5.762843609,-1.685518026,4.31554842,-2.461580276,-0.215301678,1.090497732,38,243,547,359,752,-4.769249916,8.598775864,3.472789526,1.206275582,-0.778336942,-4.365721226,-44,5,-21,28,194
1695161144062050300,-5.785588264,-1.759738207,4.314351559,-2.487027645,-0.244745791,1.105153084,34,238,538,354,750,-4.811148167,8.658630371,3.476380825,1.160310864,-0.797255754,-4.365721226,-44,4,-27,28,197
1695161144063050300,-5.814318657,-1.836352706,4.30956316,-2.515006304,-0.272990793,1.12140727,36,235,538,350,747,-4.853046894,8.719682693,3.476380825,1.117676854,-0.811511457,-4.365721226,-43,3,-25,28,200
1695161144064050300,-5.837063789,-1.879448295,4.298789024,-2.534058094,-0.29137671,1.133398175,36,230,531,347,740,-4.917690277,8.787917137,3.475183725,1.072511435,-0.823635519,-4.365721226,-44,4,-23,29,195
1695161144121575900,-6.258443356,-4.359841347,4.305971622,-3.088833094,-0.582220554,1.707358241,31,161,389,237,526,-5.815515995,8.295908928,3.452438831,0.620990813,-0.199047476,-4.342538834,-44,3,-35,14,196
1695161144122575900,-6.252457619,-4.505887508,4.320336819,-3.081372261,-0.56303519,1.741865277,30,158,385,233,511,-5.837063789,8.177395821,3.450044632,0.635246515,-0.132565081,-4.305100918,-44,5,-34,16,196
1695161144123575900,-6.239289761,-4.650736809,4.34787035,-3.070980072,-0.539986193,1.776238918,26,154,371,224,496,-5.868188381,8.069656372,3.441664934,0.655630887,-0.064084224,-4.265131474,-44,5,-37,17,197
1695161144124575900,-6.230909824,-4.772840977,4.380191803,-3.060721159,-0.511874437,1.810212851,29,150,364,212,483,-5.90290451,7.957129478,3.428496838,0.678946435,0.006128637,-4.224096298,-45,1,-37,15,196
1695161144125575900,-6.216544628,-4.911705017,4.408922195,-3.047398329,-0.478300154,1.842987776,26,146,347,208,466,-5.924452305,7.870938301,3.42131424,0.699064314,0.054091886,-4.194519043,-44,4,-35,15,196
1695161144196576900,-6.451176643,-6.770802498,4.20062685,-3.333312273,1.244779468,2.472105742,9,85,155,91,236,-7.833827972,6.072892666,2.917334795,1.944110274,1.326716661,-3.100424051,-42,0,-39,13,194
1695161144197576900,-6.476315498,-6.852205276,4.174290657,-3.350632429,1.339240432,2.47756815,16,80,150,90,225,-7.969100475,6.029797077,2.900575399,2.019785643,1.381474733,-3.045133114,-42,3,-37,9,195
1695161144198576900,-6.511031628,-6.91684866,4.185064793,-3.365154505,1.424508452,2.483030796,5,79,143,80,217,-8.101978302,5.989095688,2.876633406,2.093062878,1.434234381,-2.991707563,-44,2,-39,12,193
1695161144199576900,-6.548141479,-6.975506783,4.218583584,-3.382075071,1.498984694,2.486227989,7,78,132,79,207,-8.243236542,5.948394299,2.863465309,2.164474726,1.484995365,-2.939347744,-43,4,-39,14,197
1695161144200576900,-6.585251808,-7.055712223,4.266467571,-3.390735149,1.566799402,2.48542881,9,74,129,77,204,-8.384494781,5.919663906,2.847903013,2.235220432,1.534823895,-2.887254,-44,3,-39,10,196
1695161144331488200,-8.508993149,-8.109161377,3.156754971,-1.928388953,1.459947944,2.37617898,1,44,42,30,132,-11.08036518,5.720944881,2.063801765,2.957333803,2.032842159,-2.220431805,-44,0,-35,12,193
1695161144332488200,-8.508993149,-8.076839447,3.155557871,-1.873497725,1.430637121,2.363655329,-1,43,44,34,136,-11.23958015,5.738901615,1.989581585,2.96492815,2.028578758,-2.204310894,-43,0,-39,11,194
1695161144333488200,-8.488641739,-8.032546997,3.153163671,-1.789162397,1.388003111,2.342205048,-1,44,37,34,131,-11.39759731,5.767632008,1.922544003,2.971722841,2.020451784,-2.189788818,-44,1,-35,9,193
1695161144334488200,-8.48385334,-7.969100475,3.142389774,-1.707225084,1.34683454,2.320488453,-1,38,32,30,128,-11.60110474,5.819107056,1.829170108,2.976519346,2.004330635,-2.174600363,-44,2,-37,13,195
1695161144335488200,-8.487444878,-7.899668694,3.126827478,-1.629551291,1.302601933,2.29690671,-1,42,27,31,127,-11.74715042,5.858611584,1.753752708,2.976519346,1.987676859,-2.166739702,-46,-1,-35,9,193
1695161144438427000,-9.159018517,-6.582857609,2.902969599,-0.785664618,0.577690661,1.856044412,-2,32,0,19,109,-13.26148319,7.43040514,0.802057564,2.516871214,1.160577416,-2.318623304,-44,0,-33,12,191
1695161144439427000,-9.185355186,-6.496666431,2.879027605,-0.776338398,0.547313929,1.837125659,-1,32,-4,16,107,-13.2327528,7.544129372,0.78170687,2.45571804,1.097558975,-2.327416658,-43,0,-34,12,196
1695161144440427000,-9.204508781,-6.404489517,2.846705914,-0.771009147,0.517336905,1.81847322,2,37,-2,14,105,-13.19324875,7.649474621,0.761356115,2.388969421,1.034540653,-2.334344625,-44,3,-34,7,190
1695161144441427000,-9.211690903,-6.308721542,2.810792685,-0.770076573,0.488958627,1.799554348,-1,32,-1,17,108,-13.14297009,7.750030994,0.741005421,2.317024469,0.971388996,-2.339007854,-44,0,-34,12,193
1695161144442427000,-9.214085579,-6.206967831,2.766499996,-0.774073541,0.462179184,1.780102491,0,31,-5,17,105,-13.08311558,7.845798969,0.719457626,2.240283251,0.908237338,-2.341006279,-44,0,-34,14,192
1695161144559356100,-9.236829758,-4.721365929,1.648407817,-1.62528789,0.225560486,1.382274032,0,33,-5,20,103,-10.71525002,7.763198853,0.673967779,0.470705956,0.055424199,-1.64647162,-44,2,-28,11,192
1695161144560356100,-9.235632896,-4.690241337,1.607706428,-1.688572764,0.220630929,1.362955689,-2,32,-6,18,103,-10.58596325,7.638700485,0.683544576,0.39423123,0.040102605,-1.56653285,-43,3,-34,17,192
1695161144561356100,-9.232041359,-4.660313606,1.569399238,-1.751324654,0.217166916,1.344436407,-1,31,-6,14,100,-10.45787334,7.51061058,0.685938776,0.323485464,0.027845331,-1.483130097,-44,3,-31,16,196
1695161144562356100,-9.234436035,-4.630385876,1.531091928,-1.813410401,0.21503523,1.32711637,-2,30,-6,19,103,-10.33816338,7.370550156,0.691924274,0.258868307,0.018785605,-1.396663189,-41,-1,-28,15,190
1695161144563356100,-9.235632896,-4.606443882,1.493981838,-1.874830008,0.214369074,1.311395049,-1,32,-6,17,101,-10.22204399,7.223306656,0.694318473,0.200513005,0.012790199,-1.307531357,-44,3,-29,15,191
1695161144622343400,-9.787496567,-4.408922195,0.681150377,-2.81877327,0.320021451,1.308730483,-2,31,-7,18,99,-9.248801231,4.611232281,0.745793819,0.376244992,0.106052071,0.355993867,-43,1,-31,18,192
1695161144623343400,-9.831789017,-4.396951199,0.627280831,-2.857676744,0.322952509,1.31925571,-1,32,-6,18,99,-9.230844498,4.534617901,0.761356115,0.430603355,0.112047479,0.424474716,-42,1,-29,16,190
1695161144624343400,-9.87608242,-4.3897686,0.565031588,-2.895248175,0.32468453,1.330313921,-1,32,-6,18,99,-9.217676163,4.467580318,0.775721371,0.486160785,0.11711026,0.489225119,-44,3,-28,18,190
1695161144625343400,-9.921571732,-4.380191803,0.494402647,-2.931487083,0.32468453,1.340839148,-1,32,-6,17,98,-9.202114105,4.405331135,0.787692368,0.542517602,0.121373661,0.550644696,-44,0,-29,20,189
1695161144626343400,-9.971850395,-4.374206543,0.426167905,-2.966127157,0.322686076,1.351364493,0,32,-4,13,97,-9.187748909,4.346673012,0.802057564,0.599807084,0.125237361,0.608733535,-44,-1,-27,20,188
1695161144697277400,-10.53328991,-5.215768337,-0.068234749,-3.070713758,0.125637069,1.503647804,-1,32,-5,24,99,-8.948328972,4.197035789,0.918176353,1.377611041,0.050094947,1.087433338,-44,0,-25,26,189
1695161144698277400,-10.55483818,-5.31512785,-0.067037649,-3.020352125,0.116577335,1.510842323,1,32,-6,19,97,-8.936357498,4.220977783,0.925358951,1.392666101,0.03996937,1.087166905,-44,-1,-28,20,190
1695161144699277400,-10.57518864,-5.416881561,-0.06584055,-2.962130308,0.107251145,1.517503858,-1,32,-6,23,97,-8.930372238,4.253299236,0.926556051,1.403324604,0.02917764,1.084502339,-43,-2,-23,26,192
1695161144700277400,-10.59314537,-5.515043736,-0.064643443,-2.895647764,0.0976585,1.52349925,-1,32,-6,18,95,-8.921992302,4.282029629,0.924161851,1.409719825,0.017852986,1.079705954,-43,-2,-23,24,193
1695161144701277400,-10.61229897,-5.646724701,-0.056263741,-2.794791698,0.083935678,1.530693769,-2,33,-5,16,98,-8.913613319,4.308365822,0.926556051,1.4127841,0.005995406,1.073177576,-44,-2,-24,28,192
1695161144734277800,-10.27471638,-5.868188381,-0.305260718,-0.510675371,-0.132565081,1.327382803,-1,33,0,19,95,-8.765172005,4.86980629,0.990002394,0.78486526,-0.199980095,0.729307771,-44,-1,-25,30,189
1695161144735277800,-10.24000072,-5.795165062,-0.325611442,-0.381574243,-0.142557427,1.294474721,-2,33,-3,20,96,-8.755595207,4.885368347,0.986411095,0.724245012,-0.206108719,0.705192924,-44,1,-15,31,192
1695161144736277800,-10.20528507,-5.714959621,-0.351947635,-0.256336898,-0.152283311,1.26010108,-1,31,-1,14,93,-8.74601841,4.893748283,0.985213995,0.662425697,-0.211171508,0.681477845,-43,3,-21,31,188
1695161144737277800,-10.1693716,-5.637147903,-0.366312861,-0.135229707,-0.161476254,1.223995328,-1,32,-3,16,97,-8.737639427,4.900930882,0.982819796,0.5999403,-0.215301678,0.657895863,-44,-2,-19,31,190
1695161144738277800,-10.13465595,-5.546168327,-0.375889659,-0.018785605,-0.169869825,1.186957121,-4,32,-1,15,94,-8.726864815,4.904522419,0.978031397,0.536921918,-0.218499228,0.63471365,-44,-2,-23,30,186
1695161144779125800,-9.599552155,-3.736151695,-0.237025961,1.010558963,-0.096859112,0.439663082,-3,33,3,19,94,-8.682572365,4.365826607,0.712275028,-0.343070447,-0.120973967,0.378243476,-44,-1,-20,29,189
1695161144780125800,-9.587580681,-3.682282209,-0.225054964,1.009493113,-0.087399691,0.417013764,-1,32,-3,19,94,-8.687360764,4.326322556,0.695515573,-0.365320057,-0.112180702,0.375578851,-42,0,-19,29,189
1695161144781125800,-9.569623947,-3.60566783,-0.202310041,1.004030585,-0.07301072,0.38383922,-1,33,2,22,95,-8.692149162,4.285621166,0.676361978,-0.384771824,-0.103787132,0.373846859,-43,4,-19,30,192
1695161144782125800,-9.555258751,-3.537432909,-0.192733243,0.994437993,-0.058355279,0.351464033,-4,32,4,22,95,-8.698134422,4.247313976,0.663193882,-0.401292503,-0.095393561,0.373047471,-42,-1,-22,29,189
1695161144783125800,-9.542090416,-3.470395327,-0.172382519,0.981381297,-0.043833077,0.319888234,-2,33,5,22,95,-8.704120636,4.209006786,0.650025785,-0.415148526,-0.086999997,0.373047471,-44,-2,-21,24,188
1695161144814102900,-9.350554466,-2.710236311,0.015562311,0.422742724,0.170136288,-0.123238891,-4,32,3,20,92,-8.865729332,3.683479309,0.599747539,-0.325217426,-0.004796324,0.472304761,-42,-2,-21,28,189
1695161144815102900,-9.348160744,-2.681505919,0.022744916,0.387569666,0.176931083,-0.142290965,-2,31,5,19,93,-8.868123055,3.667917013,0.604535937,-0.310428768,-0.003996937,0.479499221,-43,-1,-22,28,188
1695161144816102900,-9.338583946,-2.650381327,0.022744916,0.35266307,0.183059722,-0.161076576,-4,32,7,22,93,-8.872911453,3.653551817,0.611718535,-0.295373648,-0.003330781,0.48669371,-43,-2,-23,31,188
1695161144817102900,-9.33020401,-2.622848034,0.027533319,0.318022966,0.188788652,-0.179862171,-2,35,9,21,94,-8.875306129,3.64277792,0.615309834,-0.280185282,-0.003330781,0.493888199,-41,0,-20,30,188
1695161144818102900,-9.325415611,-2.59890604,0.02873042,0.283649325,0.193851456,-0.198248088,-4,32,5,23,94,-8.878896713,3.632004023,0.614112735,-0.265263379,-0.003597243,0.500949442,-43,1,-18,28,189
1695161144848087700,-9.199720383,-2.402581453,0.098162271,-0.192385912,0.223695248,-0.481497705,-4,31,12,22,93,-8.872911453,3.499125719,0.701501071,-0.066215925,-0.04729709,0.586084247,-44,1,-19,31,188
1695161144849087700,-9.190143585,-2.401384354,0.098162271,-0.207973972,0.222629398,-0.494421154,-1,32,7,19,94,-8.868123055,3.49553442,0.70509243,-0.062218986,-0.050094947,0.586350679,-41,3,-19,31,186
1695161144850087700,-9.186552048,-2.398990154,0.096965171,-0.222496167,0.221030638,-0.507078111,-1,34,11,22,94,-8.862137794,3.490746021,0.712275028,-0.059021436,-0.053292494,0.586084247,-44,1,-20,24,192
1695161144851087700,-9.185355186,-2.396595955,0.10175357,-0.235552832,0.219298616,-0.519335389,-2,34,9,18,93,-8.85495472,3.488351822,0.715866327,-0.056223582,-0.056090351,0.585551262,-42,1,-17,29,189
1695161144852087700,-9.184157372,-2.395398855,0.10175357,-0.247143939,0.217300147,-0.531192958,-1,32,10,23,93,-8.852560997,3.488351822,0.717063427,-0.054091886,-0.058754977,0.584485412,-42,3,-21,26,189
1695161144880048200,-9.127894402,-2.404975653,0.122104287,-0.275788665,0.192385912,-0.644173086,-1,33,11,24,93,-8.661025047,3.354276657,0.725443125,-0.067947932,-0.072877489,0.487093419,-43,-1,-19,29,189
1695161144881048200,-9.127894402,-2.403778553,0.125695586,-0.270192951,0.192918837,-0.643373668,-1,32,10,22,92,-8.652645111,3.345896959,0.725443125,-0.069013782,-0.071545176,0.479366004,-43,0,-17,30,189
1695161144882048200,-9.124302864,-2.401384354,0.135272399,-0.264197558,0.193584993,-0.642174542,-3,33,11,22,92,-8.644265175,3.336320162,0.723048925,-0.070346095,-0.070346095,0.471372128,-44,-2,-19,31,188
1695161144883048200,-9.121908188,-2.396595955,0.134075299,-0.25766921,0.194384381,-0.640309334,-1,33,15,24,90,-8.639476776,3.325546265,0.721851826,-0.071145482,-0.069013782,0.463111788,-41,0,-21,30,187
1695161144884048200,-9.123106003,-2.391807556,0.135272399,-0.250607967,0.195317,-0.637911141,-3,33,16,22,92,-8.629899979,3.318363667,0.721851826,-0.07194487,-0.067281775,0.454718202,-43,1,-17,31,189
1695161144990502300,-9.10634613,-2.316390038,0.219069451,-0.06115314,0.223162323,-0.549578846,-2,34,13,25,92,-8.538920403,3.245340347,0.727837324,-0.048762634,-0.021983154,0.258468598,-43,-2,-29,31,189
1695161144991502300,-9.109937668,-2.310404539,0.229843363,-0.048362937,0.22382848,-0.544116378,-1,32,13,19,89,-8.537723541,3.248931646,0.730231524,-0.044898927,-0.019984685,0.246344566,-43,1,-23,28,184
1695161144992502300,-9.109937668,-2.302024841,0.237025961,-0.035705972,0.224361405,-0.538787127,-1,34,13,22,91,-8.534132004,3.257311344,0.738611221,-0.04103522,-0.017852986,0.233820826,-41,-1,-20,31,186
1695161144993502300,-9.109937668,-2.297236443,0.237025961,-0.023182238,0.224494636,-0.533724368,-1,35,13,27,92,-8.532935143,3.266888142,0.74220252,-0.037038282,-0.015588055,0.221430331,-42,-2,-20,30,190
1695161144994502300,-9.109937668,-2.290053844,0.238223076,-0.010658499,0.224228173,-0.528395116,-1,35,19,23,92,-8.531737328,3.278859138,0.741005421,-0.032908116,-0.013456355,0.208773345,-42,-2,-19,36,188
1695161145081453300,-9.14465332,-2.067393064,0.343567938,0.150817752,0.18385911,-0.4243415,-4,32,20,23,92,-8.529343605,3.600879431,0.737414122,0.020384381,0.004796324,0.020384381,-43,-2,-21,29,186
1695161145082453300,-9.143456459,-2.04823947,0.341173738,0.152683005,0.180661559,-0.419145465,-2,35,19,24,90,-8.530540466,3.621230125,0.739808321,0.020650841,0.005329249,0.014388974,-41,-2,-19,29,187
1695161145083453300,-9.141061783,-2.033874273,0.341173738,0.153882071,0.177197546,-0.41394946,-4,34,15,24,93,-8.530540466,3.64038372,0.74220252,0.020784073,0.005595712,0.008793262,-42,-2,-21,31,186
1695161145084453300,-9.142259598,-2.027888775,0.345962137,0.154415011,0.174932614,-0.410485446,-1,36,14,24,90,-8.532935143,3.655946016,0.738611221,0.021050537,0.006128637,0.003597243,-41,-4,-23,30,190
1695161145085453300,-9.142259598,-2.018311977,0.351947635,0.154681474,0.171068922,-0.405156225,-2,32,19,22,91,-8.531737328,3.672705412,0.733822823,0.021050537,0.006528331,-0.001332312,-41,0,-17,29,188
