timestamp,left_data_Ac_X,left_data_Ac_Y,left_data_Ac_Z,left_data_Gy_X,left_data_Gy_Y,left_data_Gy_Z,left_data_flex_1,left_data_flex_2,left_data_flex_3,left_data_flex_4,left_data_flex_5,right_data_Ac_X,right_data_Ac_Y,right_data_Ac_Z,right_data_Gy_X,right_data_Gy_Y,right_data_Gy_Z,right_data_flex_1,right_data_flex_2,right_data_flex_3,right_data_flex_4,right_data_flex_5
1695161322617289600,-9.090784073,-1.549048543,-0.752976418,-0.25087443,-0.036638591,-0.148952529,1,27,13,28,59,-8.6957407,3.75530529,0.515950441,0.291243494,-0.093661562,0.042101074,-65,-16,-31,18,162
1695161322618289600,-9.089587212,-1.546654344,-0.756567717,-0.248609498,-0.033840735,-0.145355284,-1,27,15,26,57,-8.698134422,3.748122692,0.52073884,0.288578868,-0.091130167,0.041568145,-64,-16,-32,17,162
1695161322619289600,-9.090784073,-1.541865945,-0.762553215,-0.246611029,-0.031176111,-0.14175804,5,29,12,29,56,-8.698134422,3.744531393,0.524330199,0.286313951,-0.088732004,0.04103522,-66,-17,-33,16,163
1695161322620289600,-9.088389397,-1.539471745,-0.764947414,-0.244346097,-0.028777948,-0.138294026,3,32,11,27,59,-8.6957407,3.734954596,0.529118598,0.283249617,-0.085667685,0.040369064,-65,-15,-29,18,162
1695161322621289600,-9.089587212,-1.539471745,-0.767341673,-0.242081165,-0.026379786,-0.134696782,4,28,15,29,57,-8.696937561,3.734954596,0.535104096,0.280851454,-0.083535992,0.03956968,-63,-16,-31,17,161
1695161322684249300,-9.0740242,-1.479616642,-0.714669228,-0.217966303,-0.000799387,-0.067947932,2,31,15,29,59,-8.781931877,3.730166197,0.714669228,0.277920365,-0.098857582,0.011724349,-62,-16,-31,16,162
1695161322685249300,-9.06803894,-1.482010841,-0.717063427,-0.216767237,0.001332312,-0.063950993,2,30,14,30,58,-8.754398346,3.676296711,0.709880829,0.278186828,-0.102188364,0.009725881,-63,-15,-32,18,161
1695161322686249300,-9.070432663,-1.48560214,-0.717063427,-0.215301678,0.003597243,-0.059687596,4,31,15,29,57,-8.741230011,3.659537315,0.732625723,0.282183766,-0.101921894,0.009326187,-67,-14,-29,15,164
1695161322687249300,-9.0740242,-1.489193439,-0.711077929,-0.213702917,0.005995406,-0.055157732,5,29,11,27,56,-8.741230011,3.663128614,0.751779318,0.284715146,-0.100456357,0.008660031,-63,-13,-33,13,159
1695161322688249300,-9.072827339,-1.493981838,-0.703895271,-0.212104142,0.008260337,-0.050627869,2,31,16,30,55,-8.747216225,3.665522814,0.768538773,0.28671363,-0.097791731,0.007061256,-65,-14,-32,15,161
1695161322724247800,-9.169792175,-1.595735431,-0.585382342,-0.158012256,0.042101074,0.051027562,0,29,15,27,55,-8.840589523,3.606864929,0.793677866,0.241814688,-0.072877489,-0.005862175,-70,-17,-34,12,162
1695161322725247800,-9.17098999,-1.608903527,-0.580593884,-0.15481469,0.043166921,0.056623276,0,27,16,28,55,-8.84896946,3.60327363,0.793677866,0.237551302,-0.074476264,-0.008127105,-62,-15,-33,15,163
1695161322726247800,-9.174580574,-1.620874524,-0.567425787,-0.151617154,0.044499233,0.062218986,5,29,14,28,56,-8.859743118,3.597288132,0.797269166,0.233421117,-0.076474734,-0.010658499,-61,-13,-31,10,162
1695161322727247800,-9.179368973,-1.63643682,-0.55904609,-0.148286372,0.045831546,0.067947932,6,29,13,29,57,-8.865729332,3.596091032,0.798466265,0.229424208,-0.07820674,-0.013189893,-67,-15,-34,12,158
1695161322728247800,-9.18296051,-1.644816518,-0.55784899,-0.146154657,0.046764165,0.071545176,4,26,19,27,53,-8.869319916,3.592499733,0.800860465,0.225826949,-0.08020521,-0.01612098,-66,-16,-32,12,163
1695161322758205700,-9.194931984,-1.873462796,-0.322020143,-0.099523738,0.057555895,0.132032156,6,31,8,26,54,-8.862137794,3.688267708,0.660799682,0.161476254,-0.125637069,-0.078872897,-65,-13,-30,13,164
1695161322759205700,-9.191340446,-1.883039594,-0.308852017,-0.100323126,0.056623276,0.13243185,4,30,14,32,55,-8.85495472,3.701435804,0.644040287,0.154548228,-0.125903517,-0.082470134,-66,-13,-35,14,163
1695161322760205700,-9.192537308,-1.889025092,-0.299275219,-0.100989282,0.055823889,0.132565081,2,30,12,30,58,-8.85495472,3.708618402,0.638054729,0.150817752,-0.125903517,-0.084335379,-62,-15,-34,15,162
1695161322761205700,-9.193734169,-1.89740479,-0.287304193,-0.102454826,0.054624807,0.132298619,1,32,14,30,59,-8.853757858,3.715801001,0.627280831,0.145222053,-0.125503823,-0.086999997,-66,-12,-34,11,160
1695161322762205700,-9.191340446,-1.906981707,-0.276530296,-0.104586519,0.053026035,0.131765693,-1,32,14,30,55,-8.850166321,3.721786499,0.616506934,0.140159264,-0.124704443,-0.089531392,-64,-13,-34,10,165
1695161322799182800,-9.257181168,-2.118868589,-0.16879122,-0.177863702,-0.007594181,0.099523738,4,29,11,30,52,-8.844181061,3.932476282,0.609324336,0.041301683,-0.077673815,-0.112846859,-65,-17,-33,16,162
1695161322800182800,-9.263166428,-2.134430885,-0.165199921,-0.179595709,-0.011191424,0.098457888,2,31,13,30,56,-8.845377922,3.94085598,0.615309834,0.037437979,-0.075808577,-0.112313934,-61,-16,-34,15,162
1695161322801182800,-9.267954826,-2.148796082,-0.162805721,-0.18079479,-0.014522205,0.097258806,2,30,12,29,55,-8.8429842,3.945644379,0.622492433,0.033840735,-0.074209802,-0.111514546,-65,-13,-32,17,164
1695161322802182800,-9.267954826,-2.166752577,-0.155623108,-0.181327716,-0.017453292,0.096459419,2,30,13,28,57,-8.840589523,3.950432777,0.622492433,0.030509954,-0.073143952,-0.110448696,-68,-13,-33,15,160
1695161322803182800,-9.264363289,-2.185906172,-0.153228909,-0.181194484,-0.020251149,0.095793262,2,25,15,29,56,-8.835801125,3.951629877,0.626083732,0.027312404,-0.072211333,-0.108849928,-65,-17,-34,17,167
1695161322832166000,-9.15063858,-2.391807556,-0.219069451,-0.146287903,-0.050894335,0.045298621,3,32,13,28,57,-8.755595207,3.94085598,0.699106872,0.008793262,-0.111514546,-0.03650536,-66,-14,-31,16,166
1695161322833166000,-9.151836395,-2.391807556,-0.229843363,-0.14748697,-0.053958651,0.038637057,2,31,10,31,56,-8.756793022,3.933673382,0.701501071,0.009992342,-0.115511484,-0.031975497,-67,-15,-33,15,160
1695161322834166000,-9.157821655,-2.391807556,-0.233434662,-0.149352223,-0.057156201,0.031442571,-1,26,14,30,57,-8.753201485,3.931279182,0.697909772,0.011324655,-0.119108729,-0.027312404,-63,-17,-31,16,160
1695161322835166000,-9.159018517,-2.393004656,-0.241814375,-0.151617154,-0.060620211,0.023981623,9,30,16,29,56,-8.753201485,3.927687883,0.697909772,0.01292343,-0.122972436,-0.022782542,-63,-14,-32,17,167
1695161322836166000,-9.157821655,-2.396595955,-0.251391172,-0.15428178,-0.064350687,0.016387442,2,29,12,29,56,-8.752004623,3.921702385,0.701501071,0.014655436,-0.126836136,-0.018119449,-66,-13,-34,16,162
1695161322865144600,-9.041702271,-2.388216257,-0.432153404,-0.195317,-0.108583458,-0.109915771,2,30,15,30,55,-8.809465408,3.785232782,0.636857629,0.068347625,-0.198914245,0.078339972,-67,-13,-33,17,164
1695161322866144600,-9.030928612,-2.381033659,-0.447715729,-0.195450217,-0.109782539,-0.115245022,2,27,11,28,55,-8.813055992,3.780444384,0.629675031,0.072877489,-0.202511474,0.083669223,-66,-14,-33,15,164
1695161322867144600,-9.016563416,-2.375048161,-0.464475125,-0.195317,-0.110848397,-0.120307811,2,29,13,28,55,-8.819042206,3.767276287,0.622492433,0.077407345,-0.205975503,0.088865243,-63,-17,-34,18,164
1695161322868144600,-9.006986618,-2.366668463,-0.48362875,-0.195183769,-0.111781009,-0.125104129,2,32,15,25,58,-8.825027466,3.75769949,0.614112735,0.081670754,-0.209173039,0.094194487,-65,-12,-33,17,164
1695161322869144600,-8.997409821,-2.358288765,-0.495599747,-0.19478406,-0.112580396,-0.130033687,3,26,14,26,56,-8.829815865,3.749319792,0.610521436,0.086333841,-0.212503821,0.099257268,-66,-15,-33,14,164
1695161322903146000,-8.965087891,-2.183511972,-0.736217022,-0.179329246,-0.071678407,-0.174666151,8,41,15,29,52,-9.087192535,3.576937437,0.545877993,0.201312408,-0.279519141,0.19784838,-77,-12,-34,16,165
1695161322904146000,-8.972270966,-2.182314873,-0.749385118,-0.177197546,-0.069413476,-0.175332308,6,29,13,29,56,-9.089587212,3.569754839,0.545877993,0.20624195,-0.281650841,0.201978564,-66,-16,-33,17,166
1695161322905146000,-8.975862503,-2.177526474,-0.761356115,-0.174932614,-0.067015313,-0.175865233,1,31,12,28,57,-9.093177795,3.557783842,0.542286694,0.213969365,-0.284848392,0.208506882,-61,-16,-32,18,164
1695161322906146000,-8.987833023,-2.173935175,-0.786495268,-0.171335369,-0.064217456,-0.175998464,4,31,13,29,57,-9.091980934,3.542221308,0.539892495,0.221696794,-0.288045943,0.214901984,-65,-16,-29,18,162
1695161322907146000,-8.993818283,-2.169146776,-0.793677866,-0.168004602,-0.062352221,-0.175998464,0,32,11,29,53,-9.090784073,3.530250311,0.537498295,0.229424208,-0.291110277,0.221430331,-65,-12,-30,18,162
1695161322938106000,-9.058462143,-2.049436569,-0.943315446,-0.08513476,0.002531394,-0.174666151,3,31,15,29,56,-9.115922928,3.223792553,0.547075093,0.381307811,-0.344136298,0.330280244,-64,-20,-29,14,165
1695161322939106000,-9.058462143,-2.039859772,-0.946906745,-0.081937209,0.008660031,-0.173866764,2,27,15,28,58,-9.120711327,3.207033157,0.550666392,0.388635516,-0.345735073,0.333078086,-64,-13,-30,18,164
1695161322940106000,-9.059659004,-2.030282974,-0.949300945,-0.078872897,0.014655436,-0.173200607,4,29,11,28,56,-9.121908188,3.189076662,0.554257691,0.395830035,-0.347333819,0.335343033,-63,-13,-28,18,166
1695161322941106000,-9.06205368,-2.023100376,-0.950498104,-0.076075032,0.020650841,-0.172267988,2,29,13,30,53,-9.123106003,3.173514366,0.555454791,0.402758032,-0.348799407,0.337208271,-63,-13,-31,18,163
1695161322942106000,-9.063250542,-2.018311977,-0.950498104,-0.073410407,0.02691271,-0.171468601,2,28,13,28,57,-9.123106003,3.166331768,0.555454791,0.407421142,-0.349732012,0.338140905,-63,-16,-34,17,165
1695161322974084800,-9.044096947,-1.890222192,-0.85473001,-0.039169986,0.101255737,-0.165606424,2,31,11,30,59,-9.002198219,3.01429987,0.624886632,0.474969387,-0.377977014,0.313493103,-63,-15,-32,18,165
1695161322975084800,-9.044096947,-1.880645394,-0.840364814,-0.038104136,0.104053594,-0.165339977,6,31,17,32,56,-8.993818283,3.005920172,0.63087213,0.476434916,-0.37811026,0.309629381,-65,-18,-33,18,164
1695161322976084800,-9.042900085,-1.873462796,-0.827196658,-0.037171517,0.106718227,-0.165073514,2,27,13,30,56,-8.979453087,3.001131773,0.634463429,0.477767229,-0.377977014,0.305366009,-65,-14,-32,18,164
1695161322977084800,-9.039308548,-1.868674397,-0.811634362,-0.036372125,0.109782539,-0.164274111,4,31,15,29,57,-8.967482567,2.992752075,0.646434486,0.479099542,-0.377177656,0.300969362,-63,-15,-33,16,165
1695161322978084800,-9.03571701,-1.865083098,-0.794874966,-0.035705972,0.112846859,-0.163474724,3,32,13,29,56,-8.951920509,2.981978178,0.648828685,0.480698317,-0.376244992,0.296173036,-70,-15,-32,16,165
1695161323009074100,-9.041702271,-1.799242616,-0.363918662,-0.046897396,0.167604893,-0.108983152,1,31,13,26,57,-8.718485832,2.902969599,0.785298169,0.524931073,-0.345735073,0.166805506,-65,-17,-32,18,167
1695161323010074100,-9.036913872,-1.794454217,-0.312443316,-0.051294025,0.172667682,-0.106052071,2,27,13,28,56,-8.706514359,2.904166698,0.792480767,0.526130199,-0.34440276,0.158012256,-63,-16,-33,19,162
1695161323011074100,-9.034520149,-1.778891921,-0.262165099,-0.057555895,0.178396642,-0.103387438,4,31,15,27,52,-8.696937561,2.907757998,0.803254664,0.526929557,-0.343070447,0.14908576,-62,-12,-32,18,166
1695161323012074100,-9.034520149,-1.757344007,-0.215478152,-0.066215925,0.184125587,-0.101522207,1,30,16,27,57,-8.68975544,2.910152197,0.815225661,0.527329266,-0.342004567,0.140026033,-65,-13,-33,17,164
1695161323013074100,-9.038111687,-1.733402014,-0.171185419,-0.07794027,0.189854518,-0.100456357,1,31,11,19,51,-8.681375504,2.913743496,0.824802458,0.527595699,-0.340672255,0.130566612,-63,-12,-31,20,165
1695161323042065800,-9.302670479,-1.570596337,0.01316811,-0.835892797,0.03996937,-0.239283308,4,29,11,29,55,-8.508993149,2.942473888,1.086967587,0.481231242,-0.304166913,-0.077274114,-64,-12,-31,16,166
1695161323043065800,-9.308655739,-1.626860023,0.020350715,-0.876794755,0.023448698,-0.244346097,4,28,12,27,57,-8.508993149,2.942473888,1.098938584,0.480431855,-0.303101093,-0.089531392,-63,-12,-32,18,169
1695161323044065800,-9.315838814,-1.684320927,0.020350715,-0.913966298,0.007460949,-0.247943342,2,29,15,29,55,-8.507795334,2.940079689,1.109712481,0.47989893,-0.302301675,-0.101655439,-65,-16,-33,15,164
1695161323045065800,-9.319430351,-1.744175911,0.025139118,-0.947540581,-0.007594181,-0.250208259,1,31,13,30,56,-8.503006935,2.938882589,1.118092179,0.47989893,-0.301901996,-0.114045948,-64,-13,-34,18,162
1695161323046065800,-9.319430351,-1.804031014,0.026336219,-0.977117896,-0.021716693,-0.251140893,2,28,11,29,57,-8.503006935,2.940079689,1.128866076,0.480165392,-0.301901996,-0.126436442,-63,-12,-31,20,163
1695161323078045000,-9.242815971,-2.78924489,-0.175973818,-0.697732031,-0.090996936,-0.090996936,2,28,13,29,55,-8.457517624,3.290830135,1.297657371,0.442727417,-0.326283306,-0.386104137,-60,-12,-32,18,166
1695161323079045000,-9.240421295,-2.807201385,-0.191536129,-0.650035203,-0.089931086,-0.076607957,2,31,13,30,55,-8.447940826,3.317166567,1.308431268,0.433934122,-0.324418068,-0.399560481,-62,-16,-30,20,165
1695161323080045000,-9.235632896,-2.82036972,-0.208295554,-0.601539016,-0.088865243,-0.062085759,4,31,12,29,56,-8.441955566,3.336320162,1.318008065,0.4243415,-0.322153151,-0.413016826,-63,-16,-30,17,166
1695161323081045000,-9.232041359,-2.829946518,-0.220266551,-0.55264318,-0.087666154,-0.047963247,2,27,15,29,57,-8.437167168,3.357867956,1.329979062,0.414349139,-0.319621742,-0.426339954,-64,-11,-33,18,164
1695161323082045000,-9.232041359,-2.837129116,-0.231040463,-0.50388056,-0.086733535,-0.033840735,-1,29,14,27,57,-8.432378769,3.38300705,1.33716166,0.403690636,-0.316290945,-0.439663082,-63,-14,-33,20,165
1695161323114004800,-9.17697525,-2.486378431,-0.436941803,0.0678147,-0.091663092,0.106052071,0,28,13,28,55,-8.382100105,3.732560396,1.454477549,0.204376727,-0.23941654,-0.629784048,-62,-13,-32,18,166
1695161323115004800,-9.172186852,-2.472013235,-0.447715729,0.07794027,-0.09246248,0.107251145,4,27,13,25,53,-8.388085365,3.75650239,1.459265947,0.195716694,-0.232888207,-0.634980083,-66,-13,-33,18,167
1695161323116004800,-9.166201591,-2.457648039,-0.454898328,0.086733535,-0.093128636,0.107917301,4,27,12,28,56,-8.386888504,3.785232782,1.456871748,0.186790213,-0.226359874,-0.639776468,-64,-11,-29,21,167
1695161323117004800,-9.163806915,-2.444479942,-0.464475125,0.094460949,-0.09352833,0.108716697,-1,30,13,29,56,-8.377311707,3.806780815,1.44849205,0.177730486,-0.220364481,-0.644839168,-64,-13,-32,20,161
1695161323118004800,-9.159018517,-2.431311846,-0.474051923,0.100856051,-0.094194487,0.109249614,2,32,13,29,53,-8.377311707,3.82473731,1.455674648,0.168803975,-0.214768767,-0.649502337,-61,-17,-31,17,166
1695161323157000500,-9.123106003,-2.367865562,-0.627280831,0.195183769,-0.095926493,0.145621747,-1,26,11,26,56,-8.343792915,4.236539841,1.509544134,0.065283306,-0.112447165,-0.639110267,-62,-13,-31,20,163
1695161323158000500,-9.114726067,-2.364274263,-0.642843127,0.20157887,-0.095127106,0.148952529,1,25,14,30,55,-8.334216118,4.266467571,1.515529633,0.061686065,-0.108183771,-0.632848382,-62,-16,-29,17,164
1695161323159000500,-9.108740807,-2.364274263,-0.648828685,0.207840726,-0.094194487,0.152150065,3,29,16,27,57,-8.328230858,4.294000626,1.514332533,0.057822358,-0.103787132,-0.625920355,-63,-12,-32,17,166
1695161323160000500,-9.101557732,-2.363077164,-0.659602582,0.213836133,-0.093261868,0.155214384,2,29,10,29,56,-8.325836182,4.317942619,1.513135433,0.053558957,-0.099257268,-0.618192911,-62,-12,-30,17,164
1695161323161000500,-9.089587212,-2.358288765,-0.664390981,0.219565079,-0.092196018,0.15841195,5,29,13,30,55,-8.31865406,4.343081951,1.513135433,0.049295556,-0.094860643,-0.609799385,-63,-13,-32,17,164
1695161323192960300,-8.931569099,-2.330755472,-0.881066203,0.281784087,-0.0678147,0.174932614,4,25,11,29,53,-8.311470985,4.726154327,1.642422318,-0.067681469,0.0528928,-0.355860651,-62,-13,-29,21,165
1695161323193960300,-8.926780701,-2.328361034,-0.885854602,0.283649325,-0.066349156,0.174266458,1,29,16,30,56,-8.317456245,4.744110584,1.660378933,-0.078473203,0.062352221,-0.341738135,-65,-15,-30,20,164
1695161323194960300,-8.926780701,-2.333149672,-0.896628559,0.285914242,-0.064750381,0.173333839,1,29,13,29,57,-8.32463932,4.764461517,1.677138329,-0.089931086,0.071545176,-0.327748835,-63,-12,-32,22,164
1695161323195960300,-8.923190117,-2.331952572,-0.902614057,0.287912726,-0.063151613,0.172401235,0,25,10,26,55,-8.328230858,4.777629375,1.685518026,-0.097924963,0.077807046,-0.318289429,-63,-16,-32,16,165
1695161323196960300,-8.918401718,-2.330755472,-0.913387954,0.29031086,-0.061019909,0.171735078,3,29,10,27,52,-8.339004517,4.791994572,1.695094824,-0.110715166,0.086866774,-0.304433405,-61,-13,-25,18,166
1695161323226937100,-8.937555313,-2.244564056,-0.9672575,0.289111793,0.008260337,0.151750386,0,30,10,28,56,-8.646659851,4.765658379,1.838746905,-0.364387453,0.189188361,-0.030776417,-64,-14,-31,16,166
1695161323227937100,-8.942343712,-2.244564056,-0.969651699,0.285514534,0.011457887,0.149885148,-1,30,12,30,53,-8.653841972,4.751293182,1.836352706,-0.371981621,0.189588055,-0.016653905,-66,-17,-32,18,166
1695161323228937100,-8.943540573,-2.244564056,-0.972045898,0.281784087,0.014655436,0.147753447,-1,30,19,29,57,-8.659827232,4.741716385,1.839944005,-0.37917611,0.189987749,-0.002664625,-63,-7,-32,16,161
1695161323229937100,-8.947132111,-2.245761156,-0.9660604,0.277920365,0.017719755,0.145355284,0,32,15,28,57,-8.664615631,4.732139587,1.845929503,-0.385571182,0.189721286,0.011457887,-63,-12,-24,21,169
1695161323230937100,-8.949525833,-2.248155355,-0.958877802,0.274056673,0.02051761,0.142957121,2,31,15,28,56,-8.667010307,4.720168591,1.848323703,-0.391699851,0.189321592,0.02571363,-62,-15,-31,19,166
1695161323260917700,-8.979453087,-2.299630642,-0.842759013,0.21863246,0.073810108,0.076208271,2,30,10,29,55,-8.441955566,4.45680666,1.816002011,-0.395163864,0.159344569,0.30856356,-63,-13,-33,20,167
1695161323261917700,-8.980650902,-2.292448044,-0.814028561,0.212104142,0.079405814,0.070612557,4,27,13,29,55,-8.423998833,4.450820923,1.817199111,-0.39423123,0.15787901,0.323085755,-63,-9,-31,18,167
1695161323262917700,-8.983044624,-2.282871246,-0.785298169,0.20411025,0.085800916,0.064750381,4,27,13,28,55,-8.413225174,4.446032524,1.814804912,-0.393831551,0.157079637,0.332545161,-67,-14,-27,17,166
1695161323263917700,-8.987833023,-2.266111851,-0.757764816,0.194517612,0.09246248,0.05808882,2,29,12,29,55,-8.4012537,4.441244125,1.816002011,-0.393565059,0.155880541,0.346667677,-65,-14,-31,15,163
1695161323264917700,-8.995016098,-2.243366957,-0.735019922,0.183059722,0.098990813,0.051027562,0,29,13,29,52,-8.384494781,4.434061527,1.813607812,-0.393964767,0.154548228,0.36518684,-66,-13,-31,16,165
1695161323305893500,-9.194931984,-1.89620769,-0.579396784,-0.451120973,0.099923424,-0.18492496,1,29,11,26,53,-8.599972725,4.180276394,1.662773132,-0.462179184,0.135362938,0.567032158,-67,-13,-28,19,167
1695161323306893500,-9.197325706,-1.917755604,-0.572214186,-0.495486975,0.095660031,-0.198514536,1,28,11,30,56,-8.634688377,4.171896458,1.656787634,-0.467375189,0.135362938,0.572094917,-65,-13,-33,15,162
1695161323307893500,-9.198522568,-1.945288897,-0.565031588,-0.538120985,0.091796324,-0.211571202,1,29,13,29,56,-8.672995567,4.159925461,1.646013618,-0.472571194,0.135895863,0.576624751,-63,-15,-28,17,167
1695161323308893500,-9.200917244,-1.975216389,-0.55784899,-0.578490078,0.088199086,-0.223695248,1,32,12,28,52,-8.696937561,4.153939724,1.638831019,-0.4763017,0.136428788,0.57915616,-63,-13,-27,20,164
1695161323309893500,-9.198522568,-2.012326479,-0.548272192,-0.61606127,0.085401222,-0.234886676,2,31,16,29,57,-8.73404789,4.144362926,1.634042621,-0.48203063,0.137361407,0.582486987,-63,-9,-31,18,164
1695161323341893800,-9.115922928,-2.772485495,-0.444124401,-0.636845291,0.142690659,-0.299903542,1,32,15,29,55,-9.03571701,4.018667698,1.406593442,-0.596209764,0.188522205,0.620591104,-61,-14,-33,17,165
1695161323342893800,-9.113529205,-2.79044199,-0.44532153,-0.606202185,0.146820813,-0.297771841,-1,29,12,28,58,-9.042900085,4.0114851,1.395819545,-0.599140882,0.189854518,0.623522162,-66,-13,-34,17,166
1695161323343893800,-9.113529205,-2.804807186,-0.440533102,-0.573960185,0.150418073,-0.295107216,1,29,12,28,55,-9.054870605,4.000710964,1.387439847,-0.603004575,0.191453278,0.628185272,-55,-9,-29,21,167
1695161323344893800,-9.118317604,-2.809595585,-0.435744703,-0.540519118,0.153615624,-0.292042881,3,25,15,28,57,-9.070432663,3.988739967,1.37546885,-0.606868267,0.192785591,0.633114874,-62,-9,-31,18,167
1695161323345893800,-9.121908188,-2.809595585,-0.423773706,-0.50641191,0.156013787,-0.288978547,1,27,13,31,54,-9.090784073,3.97916317,1.367089152,-0.610865235,0.19425115,0.638177633,-63,-14,-30,16,166
1695161323378855100,-9.091980934,-2.431311846,-0.232237563,-0.02158346,0.159744263,-0.249275655,2,30,12,26,53,-9.447520256,3.846285105,1.350329757,-0.709722817,0.238750383,0.676947892,-61,-13,-28,18,168
1695161323379855100,-9.09437561,-2.402581453,-0.228646263,-0.010258805,0.15841195,-0.249675348,0,28,13,30,53,-9.443928719,3.840299606,1.350329757,-0.717583418,0.241148531,0.676814675,-62,-16,-28,20,168
1695161323380855100,-9.09437561,-2.373851061,-0.229843363,-0.000399694,0.15681316,-0.250341505,-1,27,10,28,55,-9.43914032,3.828328609,1.352723956,-0.725577295,0.243147001,0.676814675,-64,-13,-32,16,166
1695161323381855100,-9.09437561,-2.343923569,-0.227449164,0.007993874,0.155081168,-0.25087443,2,25,15,26,51,-9.431957245,3.816357613,1.352723956,-0.733571172,0.245012254,0.676548243,-60,-15,-32,19,165
1695161323382855100,-9.091980934,-2.319981337,-0.225054964,0.015188362,0.153215915,-0.251673818,0,29,13,25,53,-9.423578262,3.805583715,1.344344258,-0.741565049,0.246344566,0.676681459,-63,-13,-31,17,166
1695161323413830700,-9.057265282,-1.935712099,-0.234631762,-0.005329249,0.111114852,-0.253139347,0,25,12,27,55,-9.157821655,3.497928619,1.306037068,-0.80924654,0.249675348,0.710655391,-62,-12,-28,18,165
1695161323414830700,-9.053673744,-1.922544003,-0.237025961,-0.010525269,0.109782539,-0.250341505,1,26,11,27,51,-9.14465332,3.482366323,1.304839969,-0.807914257,0.250474721,0.712920368,-63,-16,-29,26,166
1695161323415830700,-9.054870605,-1.911770105,-0.240617275,-0.015454824,0.108716697,-0.247143939,2,30,10,30,56,-9.135076523,3.469198227,1.307234168,-0.806315482,0.251274139,0.715185285,-65,-11,-28,18,166
1695161323416830700,-9.052476883,-1.900996208,-0.245405674,-0.020384381,0.107251145,-0.243546709,-1,29,11,27,56,-9.129091263,3.453635931,1.310825467,-0.804316998,0.252073497,0.717583418,-61,-14,-29,22,165
1695161323417830700,-9.051279068,-1.893813491,-0.250194073,-0.025313934,0.106052071,-0.239549771,2,28,11,29,53,-9.118317604,3.439270735,1.313219666,-0.802052021,0.252739668,0.719715178,-63,-13,-31,15,165
1695161323672030600,-9.534908295,-1.541865945,-0.798466265,0.193718225,0.130166918,-0.209705979,3,32,21,34,59,-9.864110947,3.621230125,1.476025343,0.470306277,-0.304699838,0.003330781,-65,-13,-28,20,165
1695161323673030600,-9.539696693,-1.533486247,-0.791283667,0.181594178,0.123905048,-0.213836133,5,32,15,34,56,-9.883264542,3.612850428,1.462857246,0.490424216,-0.315225124,0.017453292,-65,-13,-30,20,164
1695161323674030600,-9.543288231,-1.52390933,-0.78050977,0.169203669,0.117776416,-0.217566609,6,33,15,33,59,-9.8940382,3.600879431,1.44968915,0.510142446,-0.325350702,0.030776417,-59,-13,-29,17,167
1695161323675030600,-9.546878815,-1.516726732,-0.774524271,0.157079637,0.110981621,-0.221430331,5,32,19,30,57,-9.897629738,3.593696833,1.441309452,0.529460967,-0.334543616,0.043033689,-63,-12,-31,18,166
1695161323676030600,-9.552865028,-1.504755735,-0.768538773,0.144689128,0.104320064,-0.22489433,9,32,15,30,55,-9.8940382,3.585317135,1.432929754,0.548113346,-0.343070447,0.054624807,-63,-14,-28,16,164
1695161323776968900,-9.659406662,-1.361103654,-0.709880829,-0.059287902,-0.076341502,-0.255271077,5,30,15,32,57,-8.83699894,3.423708439,1.201889277,0.745828509,-0.356393576,0.187856048,-63,-15,-32,16,164
1695161323777968900,-9.666589737,-1.345541358,-0.718260527,-0.071678407,-0.088732004,-0.255137831,5,30,18,32,56,-8.796297073,3.406949043,1.198297977,0.752223551,-0.35266307,0.192652375,-62,-13,-32,18,167
1695161323778968900,-9.670180321,-1.328781962,-0.725443125,-0.084468603,-0.101388969,-0.255004585,6,31,17,29,57,-8.757989883,3.387795448,1.18991828,0.75835222,-0.34906584,0.197315469,-61,-12,-31,16,166
1695161323779968900,-9.671378136,-1.312022567,-0.731428623,-0.097924963,-0.113912709,-0.254604906,8,32,19,30,60,-8.725667953,3.369838953,1.183932781,0.764214396,-0.344935685,0.201445624,-65,-12,-32,16,166
1695161323780968900,-9.673771858,-1.296460271,-0.741005421,-0.111781009,-0.126436442,-0.253805518,6,32,16,30,59,-8.70172596,3.353079557,1.181538582,0.769810081,-0.340672255,0.204909652,-63,-10,-31,17,165
1695161323828939100,-9.627084732,-1.069011092,-1.059434295,-0.457516104,-0.31109494,-0.216767237,4,30,15,29,59,-8.635885239,3.359065056,1.470039845,0.717316985,-0.206641659,0.077673815,-63,-12,-33,16,166
1695161323829939100,-9.631873131,-1.066616893,-1.082179189,-0.478966326,-0.318289429,-0.214235827,5,32,14,32,61,-8.628703117,3.38061285,1.499967337,0.700529873,-0.196782529,0.060620211,-61,-13,-31,19,167
1695161323830939100,-9.629479408,-1.065419793,-1.103726983,-0.500549793,-0.325350702,-0.211304754,5,32,19,31,57,-8.622717857,3.399766445,1.519120932,0.682277143,-0.187189892,0.043300152,-65,-13,-31,19,164
1695161323831939100,-9.628282547,-1.066616893,-1.121683478,-0.521866739,-0.331745774,-0.207707509,8,32,15,30,60,-8.609549522,3.41892004,1.547851443,0.662425697,-0.177730486,0.025447167,-65,-16,-29,15,163
1695161323832939100,-9.627084732,-1.067813993,-1.144428372,-0.542784095,-0.337741196,-0.203977033,8,32,18,38,60,-8.598775864,3.436876535,1.570596337,0.641375184,-0.168404296,0.007993874,-61,-13,-32,19,168
1695161323877914600,-9.349357605,-1.328781962,-1.422155857,-0.796989322,-0.375445634,-0.094993874,6,30,21,32,60,-8.220491409,3.405751944,1.786074519,0.321886688,-0.083669223,-0.207441032,-62,-13,-30,17,166
1695161323878914600,-9.325415611,-1.352723956,-1.428141356,-0.800186813,-0.374379784,-0.08753293,6,31,19,34,57,-8.210914612,3.403357744,1.790862918,0.319621742,-0.084601834,-0.210238889,-62,-15,-30,18,164
1695161323879914600,-9.299078941,-1.37786305,-1.435323954,-0.802318573,-0.373580426,-0.080071971,9,32,19,34,55,-8.195352554,3.398569345,1.798045516,0.318822354,-0.085667685,-0.212503821,-60,-11,-32,16,165
1695161323880914600,-9.272743225,-1.404199243,-1.442506552,-0.803251147,-0.372781008,-0.072611026,1,33,15,34,58,-8.189367294,3.392583847,1.799242616,0.318822354,-0.086467072,-0.213702917,-61,-11,-29,15,165
1695161323881914600,-9.24760437,-1.432929754,-1.442506552,-0.803117871,-0.371715158,-0.065016843,9,32,17,35,60,-8.185775757,3.387795448,1.801636815,0.319888234,-0.087799385,-0.214768767,-64,-13,-34,16,167
1695161323923888200,-8.725667953,-1.766920805,-1.355118155,-0.641375184,-0.342004567,0.06261868,8,32,19,34,59,-8.364143372,3.518279314,2.014720678,0.423941821,-0.111114852,-0.191586524,-62,-11,-31,18,165
1695161323924888200,-8.720879555,-1.768117905,-1.352723956,-0.631782591,-0.343070447,0.066882081,5,32,13,30,56,-8.36893177,3.529053211,2.019509077,0.426606447,-0.112047479,-0.189854518,-61,-8,-29,15,166
1695161323925888200,-8.730456352,-1.758541107,-1.352723956,-0.622989297,-0.344935685,0.070346095,8,32,17,29,57,-8.372523308,3.536235809,2.026691675,0.428071976,-0.112580396,-0.188522205,-63,-16,-31,17,166
1695161323926888200,-8.747216225,-1.74896431,-1.356315255,-0.615528286,-0.347467095,0.073543645,5,32,16,33,60,-8.378508568,3.550601006,2.037465572,0.43007046,-0.113513015,-0.186257273,-63,-13,-30,20,164
1695161323927888200,-8.767566681,-1.735796213,-1.363497853,-0.609133244,-0.350531399,0.075941809,4,31,17,38,59,-8.380903244,3.56616354,2.049436569,0.431535989,-0.114445634,-0.183592647,-61,-13,-31,17,166
1695161323969858300,-9.046490669,-1.617283225,-1.431732655,-0.668154716,-0.412350684,0.114978559,6,32,11,32,60,-8.511386871,3.948038578,2.521094322,0.246477783,-0.359591126,0.240882084,-65,-15,-28,24,166
1695161323970858300,-9.06803894,-1.612494826,-1.44849205,-0.677880526,-0.413416535,0.116843797,3,27,15,31,59,-8.54251194,3.945644379,2.52827692,0.233820826,-0.389434904,0.271392047,-61,-9,-29,22,166
1695161323971858300,-9.085995674,-1.606509328,-1.462857246,-0.688272595,-0.414349139,0.118575804,5,32,15,33,59,-8.572439194,3.951629877,2.536656618,0.223562017,-0.42074427,0.29923737,-61,-16,-29,21,167
1695161323972858300,-9.103952408,-1.605312228,-1.474828243,-0.698931098,-0.414882064,0.120574266,8,32,15,31,57,-8.59278965,3.945644379,2.545036316,0.215434924,-0.452586502,0.322952509,-60,-11,-29,24,167
1695161323973858300,-9.123106003,-1.610100627,-1.483207941,-0.710122526,-0.415148526,0.122705974,4,34,13,32,59,-8.607154846,3.932476282,2.548627615,0.210905045,-0.482563555,0.344003052,-65,-11,-29,20,167
1695161324009834900,-9.376891136,-1.685518026,-1.768117905,-0.957399666,-0.393698305,0.141624808,6,32,23,32,57,-8.47188282,3.60447073,2.427720547,0.487226635,-0.668554366,0.331745774,-61,-12,-31,31,167
1695161324010834900,-9.370905876,-1.699883223,-1.78368032,-0.97125572,-0.390101075,0.140958652,8,31,20,36,59,-8.453926086,3.624821424,2.433706045,0.514405787,-0.652166963,0.32468453,-61,-13,-25,30,167
1695161324011834900,-9.366117477,-1.713051319,-1.796848416,-0.984578848,-0.385970891,0.140026033,2,32,20,31,56,-8.434772491,3.646369219,2.433706045,0.540119469,-0.634447217,0.317490041,-60,-11,-28,31,167
1695161324012834900,-9.35654068,-1.732204914,-1.804031014,-0.997635543,-0.381441027,0.138960183,5,31,19,34,60,-8.419210434,3.667917013,2.432508945,0.564500749,-0.615794837,0.310562044,-60,-14,-25,31,164
1695161324013834900,-9.338583946,-1.753752708,-1.808819413,-1.010159254,-0.376511484,0.13762787,8,33,14,32,59,-8.403648376,3.684676409,2.438494444,0.586883605,-0.596209764,0.303367525,-62,-13,-28,31,167
1695161324043836300,-8.66341877,-2.170343876,-1.848323703,-1.055990815,-0.211704448,0.065016843,9,32,15,33,59,-8.388085365,3.986345768,2.607285738,0.706658483,-0.15481469,0.069946401,-60,-14,-21,31,168
1695161324044836300,-8.627506256,-2.183511972,-1.836352706,-1.046398163,-0.201712102,0.059287902,5,32,13,33,57,-8.391676903,3.998316765,2.613271236,0.701329231,-0.134830013,0.054225113,-60,-15,-28,29,166
1695161324045836300,-8.588001251,-2.19428587,-1.826775908,-1.036272645,-0.191719756,0.053692192,4,32,16,32,59,-8.394071579,4.004302502,2.618059635,0.695467055,-0.115378261,0.038237367,-60,-13,-28,29,164
1695161324046836300,-8.549694061,-2.196680069,-1.812410712,-1.025480866,-0.182127118,0.047963247,6,30,17,31,58,-8.38928318,4.0090909,2.618059635,0.68920517,-0.096725874,0.022516079,-61,-13,-23,31,166
1695161324047836300,-8.526948929,-2.200271368,-1.801636815,-1.017620206,-0.175732017,0.044366002,8,31,17,30,58,-8.383296967,4.010287762,2.621650934,0.682410419,-0.078606427,0.007194487,-60,-9,-25,27,165
1695161324073821500,-8.166622162,-2.088941097,-1.522712231,-0.781534433,-0.04623124,0.018119449,5,31,16,33,52,-8.24802494,3.891774893,2.536656618,0.559038281,0.116710559,-0.181194484,-60,-9,-28,25,166
1695161324074821500,-8.170213699,-2.081758261,-1.509544134,-0.769143939,-0.043166921,0.021183766,4,32,21,33,61,-8.239645004,3.878606796,2.533065319,0.55477488,0.119908117,-0.183192953,-60,-15,-29,21,167
1695161324075821500,-8.172607422,-2.069787264,-1.499967337,-0.756620228,-0.040901989,0.024514547,6,32,19,32,58,-8.234856606,3.869029999,2.52827692,0.550777912,0.122572735,-0.184791744,-62,-11,-23,22,169
1695161324076821500,-8.183381081,-2.055422068,-1.48560214,-0.744229674,-0.039169986,0.028511487,5,32,19,31,57,-8.225279808,3.860650301,2.521094322,0.54691422,0.124837674,-0.185724348,-58,-13,-27,28,167
1695161324077821500,-8.191761017,-2.04464817,-1.473631144,-0.732105613,-0.037970904,0.032908116,4,33,16,31,61,-8.219294548,3.854664803,2.515108824,0.54331696,0.126702905,-0.186124057,-64,-12,-27,25,166
1695161324107779600,-8.737639427,-1.648407817,-1.528697729,0.573027551,-0.02571363,-0.110182241,6,30,23,30,58,-8.678980827,3.143586874,-0.278924495,0.624188364,-0.454718202,0.249542102,-60,-12,-23,26,166
1695161324108779600,-8.720879555,-1.626860023,-1.528697729,0.572228134,-0.025180703,-0.110581927,4,29,19,29,60,-8.676587105,3.169923067,-0.307654917,0.623921931,-0.448989272,0.234353751,-60,-10,-23,27,164
1695161324109779600,-8.706514359,-1.602918029,-1.533486247,0.570496202,-0.024781011,-0.110981621,5,33,17,34,56,-8.672995567,3.19865346,-0.331596941,0.621923387,-0.441927999,0.218765706,-62,-9,-29,25,167
1695161324110779600,-8.699332237,-1.572990537,-1.539471745,0.567565084,-0.02384839,-0.111248083,4,33,14,34,58,-8.670601845,3.224989653,-0.353144765,0.617793262,-0.433534473,0.202644721,-60,-13,-25,26,167
1695161324111779600,-8.693346024,-1.545457244,-1.545457244,0.563301682,-0.022649311,-0.111647777,4,33,17,32,57,-8.664615631,3.256114244,-0.37229836,0.611797869,-0.423675328,0.186390504,-60,-12,-27,25,168
1695161324139760700,-9.435548782,-2.213439465,-1.52390933,0.486027569,-0.191053599,0.154415011,4,32,16,29,56,-8.526948929,3.93965888,1.080982089,-0.054624807,0.170402765,0.249408886,-59,-13,-24,20,166
1695161324140760700,-9.44512558,-2.197877169,-1.533486247,0.488159269,-0.1854579,0.14748697,0,29,21,28,51,-8.534132004,3.938461781,1.096544385,-0.048096478,0.164807037,0.253938764,-59,-13,-24,22,166
1695161324141760700,-9.457097054,-2.179920673,-1.543063045,0.489358336,-0.17972894,0.140558958,2,32,15,29,55,-8.544905663,3.93965888,1.118092179,-0.042500768,0.159078106,0.258202136,-60,-13,-28,17,168
1695161324142760700,-9.467870712,-2.164358377,-1.547851443,0.489624798,-0.173733547,0.133764163,1,29,15,30,56,-8.549694061,3.94085598,1.139639974,-0.03757121,0.153482378,0.261799395,-60,-13,-25,24,167
1695161324143760700,-9.48343277,-2.149993181,-1.549048543,0.488958627,-0.167604893,0.126836136,1,30,16,30,59,-8.55448246,3.94205308,1.158793569,-0.033441041,0.148286372,0.2648637,-60,-7,-28,24,166
1695161324181759600,-9.184157372,-2.033874273,-0.673967779,0.071678407,0.234886676,-0.155614093,-1,28,19,28,53,-8.724471092,3.599682331,1.090558887,0.097258806,-0.062085759,0.088199086,-60,-13,-28,17,167
1695161324182759600,-9.181763649,-2.033874273,-0.661996782,0.067681469,0.235153139,-0.158278719,-1,28,14,28,51,-8.724471092,3.594893932,1.092953086,0.097525269,-0.063018374,0.08753293,-60,-15,-29,20,166
1695161324183759600,-9.180566788,-2.037465572,-0.650025785,0.063817769,0.23528637,-0.161076576,0,26,16,29,52,-8.724471092,3.593696833,1.092953086,0.097791731,-0.063950993,0.086733535,-60,-11,-28,18,166
1695161324184759600,-9.181763649,-2.041056871,-0.634463429,0.06008729,0.235419586,-0.163741201,2,29,13,26,59,-8.724471092,3.593696833,1.088164687,0.097924963,-0.065150075,0.085934147,-60,-13,-29,18,167
1695161324185759600,-9.180566788,-2.039859772,-0.626083732,0.056223582,0.23528637,-0.166139349,-1,30,16,24,53,-8.722076416,3.591302633,1.085770488,0.098191425,-0.066082694,0.08513476,-60,-11,-25,20,165
1695161324215718100,-9.107542992,-2.217030764,-0.732625723,-0.034240428,0.029843798,0.003064318,-1,21,9,22,49,-8.803479195,3.551798105,0.991199493,0.053692192,-0.047963247,0.061419602,-63,-23,-40,4,157
1695161324216718100,-9.109937668,-2.212242365,-0.727837324,-0.034640122,0.028777948,0.001732006,-4,22,9,24,49,-8.808267593,3.554192305,0.991199493,0.052626338,-0.048362937,0.06008729,-63,-25,-41,4,157
1695161324217718100,-9.11233139,-2.206256866,-0.724246025,-0.035306279,0.027712099,0.0,-4,21,9,26,49,-8.813055992,3.555389643,0.990002394,0.05142726,-0.048629403,0.058754977,-65,-24,-38,5,153
1695161324218718100,-9.114726067,-2.200271368,-0.721851826,-0.036372125,0.026646247,-0.001865237,-1,21,11,24,49,-8.817844391,3.556586742,0.988805294,0.049961712,-0.049162328,0.057289433,-62,-24,-39,5,154
1695161324219718100,-9.114726067,-2.197877169,-0.718260527,-0.037837673,0.025313934,-0.003597243,-3,21,13,22,51,-8.823830605,3.554192305,0.984016895,0.048362937,-0.049428791,0.055690661,-62,-21,-38,4,154
1695161324247701500,-9.700108528,-1.868674397,-1.019929886,0.770609498,-0.317090333,0.262065858,-3,17,-69,-8,46,-8.334216118,3.487154722,0.04309563,0.687606394,-0.076474734,0.419811636,-76,-24,-49,1,153
1695161324248701500,-9.680954933,-1.850717902,-1.019929886,0.761283278,-0.340805531,0.252206743,-2,9,-70,-8,46,-8.315062523,3.49553442,0.087388359,0.695200622,-0.061019909,0.426073521,-71,-25,-56,4,151
1695161324249701500,-9.666589737,-1.827973008,-1.023521185,0.749692142,-0.363188356,0.242747322,-3,9,-69,-5,46,-8.297105789,3.507505417,0.123301387,0.701329231,-0.04623124,0.431669205,-70,-20,-49,6,152
1695161324250701500,-9.657012939,-1.806425214,-1.030703783,0.736369014,-0.384372145,0.233687595,-1,17,-69,-2,45,-8.285135269,3.521870613,0.165199921,0.705459356,-0.031842265,0.436465532,-74,-23,-48,4,154
1695161324251701500,-9.653421402,-1.78368032,-1.036689281,0.721580386,-0.40462327,0.224494636,-1,17,-67,-4,46,-8.275558472,3.53503871,0.207098454,0.707724333,-0.017986218,0.440595686,-73,-27,-49,2,152
1695161324284678500,-9.190143585,-2.299630642,-0.656011283,0.15428178,0.038237367,-0.086999997,-7,7,-51,2,39,-8.917203903,3.009511471,0.470460624,-0.02917764,-0.02691271,-0.002931087,-71,-23,-46,3,154
1695161324285678500,-9.185355186,-2.292448044,-0.651222885,0.155081168,0.037704438,-0.088465542,-4,5,-45,0,41,-8.881291389,2.996343374,0.476446152,-0.032908116,-0.020784073,-0.015854517,-74,-25,-48,9,152
1695161324286678500,-9.18296051,-2.290053844,-0.653617084,0.156280249,0.036905054,-0.089931086,-4,7,-45,0,39,-8.8429842,2.984372377,0.487220049,-0.036638591,-0.014255743,-0.029444104,-73,-23,-45,6,151
1695161324287678500,-9.184157372,-2.286462545,-0.657208383,0.1573461,0.036372125,-0.091263399,-6,4,-48,1,40,-8.81066227,2.971204281,0.495599747,-0.040502299,-0.007194487,-0.043300152,-74,-23,-47,5,151
1695161324288678500,-9.180566788,-2.284068346,-0.652419984,0.158545166,0.035972435,-0.09246248,-5,3,-49,0,39,-8.769960403,2.961627483,0.511162043,-0.044366002,0.000532925,-0.05768913,-75,-24,-49,6,151
1695161324318658000,-9.404424667,-1.570596337,-0.699106872,0.271525264,0.305765688,-0.454584986,-1,19,-22,13,37,-8.7843256,3.758896589,1.051054597,0.089931086,0.092196018,0.103520676,-76,-23,-44,8,151
1695161324319658000,-9.405621529,-1.564610839,-0.679953277,0.243679941,0.305099547,-0.463245004,-1,18,-24,13,40,-8.786720276,3.752911091,1.059434295,0.085401222,0.093395106,0.104719758,-76,-27,-43,6,151
1695161324320658000,-9.402029991,-1.55982244,-0.661996782,0.215434924,0.305232793,-0.471372128,-1,17,-27,13,41,-8.792705536,3.746925592,1.070208192,0.080871366,0.094061248,0.106185302,-76,-25,-45,10,151
1695161324321658000,-9.396044731,-1.553836942,-0.638054729,0.186790213,0.30643183,-0.478966326,-1,17,-27,12,43,-8.799888611,3.739742994,1.079784989,0.076075032,0.094594181,0.107517615,-75,-24,-44,8,152
1695161324322658000,-9.382876396,-1.552639842,-0.622492433,0.15841195,0.30856356,-0.486427277,-1,17,-25,11,40,-8.802282333,3.736151695,1.080982089,0.071411945,0.094460949,0.108983152,-76,-24,-47,6,151
1695161324360633900,-9.151836395,-2.023100376,-0.724246025,-0.047030624,0.017453292,-0.174666151,-1,9,-45,3,39,-9.058462143,10.32020664,0.454898328,0.325217426,-0.486160785,2.228558779,-62,-18,-35,17,162
1695161324361633900,-9.148244858,-2.017114878,-0.720654726,-0.04623124,0.017986218,-0.175332308,-4,9,-43,3,35,-9.065644264,10.43033981,0.380678058,0.317090333,-0.497218996,2.292643309,-60,-18,-34,18,158
1695161324362633900,-9.148244858,-2.00873518,-0.723048925,-0.04516539,0.018385911,-0.175865233,-3,17,-39,7,33,-9.069235802,10.51413631,0.322020143,0.309229732,-0.50428021,2.340872765,-60,-15,-34,20,164
1695161324363633900,-9.15063858,-2.003946781,-0.723048925,-0.044099543,0.018918836,-0.176131696,-1,7,-43,7,37,-9.083600998,10.59793377,0.252588272,0.300436467,-0.511341512,2.389635563,-63,-17,-34,21,164
1695161324364633900,-9.149441719,-2.000355482,-0.730231524,-0.043166921,0.019451762,-0.176531389,-4,7,-43,2,37,-9.09437561,10.66856289,0.187944829,0.291243494,-0.518535972,2.439330578,-62,-18,-39,20,165
1695161324401633900,-10.60870743,-8.297105789,-1.169567585,1.392266512,-0.52719599,-2.195650816,1,32,37,46,78,-8.951920509,11.32217979,-1.059434295,0.308297068,-0.324418068,3.483464003,-58,-18,-28,73,181
1695161324402633900,-10.62666416,-8.291120529,-1.182735682,1.407188296,-0.515338421,-2.233888149,2,32,33,46,76,-8.929175377,11.33893967,-1.092953086,0.325617135,-0.290444106,3.528496027,-58,-18,-24,74,183
1695161324403633900,-10.63384724,-8.288725853,-1.18991828,1.421577215,-0.50174886,-2.271459341,4,33,40,46,75,-8.902838707,11.36527538,-1.128866076,0.344269514,-0.253272593,3.572329044,-59,-15,-28,72,182
1695161324404633900,-10.63863564,-8.291120529,-1.193509579,1.43716538,-0.481764168,-2.319689274,-1,34,39,47,77,-8.877699852,11.39400578,-1.168370485,0.359857589,-0.213969365,3.613897324,-59,-17,-28,73,183
1695161324405633900,-10.63863564,-8.294712067,-1.18991828,1.4486233,-0.464977026,-2.354728937,2,35,39,47,78,-8.859743118,11.41675091,-1.221042871,0.371448696,-0.17346707,3.65306735,-57,-15,-23,81,183
1695161324433592900,-10.52491093,-8.514978409,-0.717063427,1.923859,-0.267661542,-2.717784166,1,54,74,62,105,-8.194155693,12.33971596,-1.657984734,-0.096192956,0.756886661,4.161877155,-60,-18,7,100,212
1695161324434592900,-10.49378586,-8.5484972,-0.653617084,1.974087358,-0.273523748,-2.71551919,-1,61,73,61,107,-8.142680168,12.33133602,-1.74657011,-0.167071983,0.816441,4.170670986,-59,-16,9,97,214
1695161324435592900,-10.46026707,-8.573636055,-0.581790984,2.025914192,-0.280718207,-2.710323095,-1,62,77,67,110,-8.088809967,12.31218243,-1.832761407,-0.242480844,0.874263406,4.176399708,-59,-17,12,101,213
1695161324436592900,-10.41956615,-8.595184326,-0.521935999,2.082537413,-0.286846846,-2.705793142,0,64,79,67,112,-8.027758598,12.30260563,-1.890222192,-0.322819293,0.933418036,4.177731991,-57,-16,15,101,215
1695161324437592900,-10.34414864,-8.627506256,-0.466869324,2.163542032,-0.292709023,-2.698732138,2,64,87,68,115,-7.972691536,12.28584576,-1.959654093,-0.406488538,0.996303201,4.17493391,-58,-18,17,100,215
1695161324465574400,-9.30386734,-7.991845131,-0.263362199,3.433768749,-0.239150077,-2.640509844,1,108,139,84,169,-6.655880928,10.75235939,-1.725022316,-2.169803858,2.024715185,3.833729029,-49,-19,62,111,258
1695161324466574400,-9.222464561,-7.91762495,-0.181959331,3.528496027,-0.244212866,-2.64024353,-1,113,145,87,174,-6.556521416,10.65180302,-1.650802016,-2.286781073,2.057756424,3.798955679,-44,-16,65,109,264
1695161324467574400,-9.166201591,-7.862558365,-0.112527482,3.600440979,-0.251140893,-2.636246681,-1,118,153,92,180,-6.467936039,10.53807831,-1.584961534,-2.402026176,2.094528437,3.761784077,-44,-18,72,112,266
1695161324468574400,-9.108740807,-7.809885979,-0.033518825,3.672385931,-0.262065858,-2.62878561,0,125,160,93,190,-6.379350662,10.39801788,-1.55862534,-2.512608051,2.132499218,3.724479198,-42,-13,75,113,268
1695161324469574400,-9.040505409,-7.754819393,0.063446343,3.74486351,-0.277787149,-2.618793249,2,129,169,98,200,-6.320692539,10.29985619,-1.555034041,-2.581222057,2.157813311,3.699831486,-38,-18,75,112,269
1695161324497577700,-7.004237175,-5.694608688,0.888248801,4.365588188,-0.369583488,-1.96755898,4,211,355,210,455,-4.576516628,6.745663166,-0.82001406,-3.707425594,2.43346858,2.69260335,-12,-16,104,116,297
1695161324498577700,-6.953958988,-5.535394192,0.851138711,4.365588188,-0.364653885,-1.949039698,17,217,365,221,473,-4.50109911,6.657077789,-0.739808321,-3.717817783,2.443593979,2.654632568,-12,-17,103,117,299
1695161324499577700,-6.906075001,-5.397727966,0.827196658,4.365588188,-0.35945788,-1.936782598,16,224,373,227,489,-4.400542736,6.512228489,-0.624886632,-3.728875875,2.457983255,2.597209692,-7,-15,99,117,296
1695161324500577700,-6.860584736,-5.28041172,0.81761986,4.365588188,-0.354928017,-1.926790237,17,224,377,236,509,-4.308365822,6.348225594,-0.524330199,-3.739534378,2.473438025,2.539254189,-8,-17,103,116,296
1695161324501577700,-6.829460144,-5.208585739,0.825999558,4.365588188,-0.353329241,-1.920395017,16,230,394,240,521,-4.225766182,6.180631638,-0.450109929,-3.746861935,2.486094952,2.481831551,-7,-15,102,118,297
1695161324533535600,-5.313930511,-2.804807186,2.571372509,4.005863667,0.002398162,-1.315525293,169,277,651,481,910,-2.895787001,4.217386246,1.563413739,-3.908737898,2.385638714,1.462346196,13,-14,94,105,280
1695161324534535600,-5.303156853,-2.731784105,2.594117641,3.92579174,0.034773353,-1.278486967,178,272,657,483,915,-2.816778183,4.107253075,1.687912226,-3.930987597,2.374447346,1.387869716,10,-7,95,106,278
1695161324535535600,-5.307945251,-2.664746523,2.668337822,3.847584963,0.065949462,-1.243580341,186,272,661,486,926,-2.766499996,4.018667698,1.784877419,-3.945642948,2.36538744,1.330447078,9,-5,94,106,276
1695161324536535600,-5.32111311,-2.606088638,2.730587006,3.767513037,0.099656969,-1.212004662,196,275,671,484,937,-2.724601507,3.912125587,1.895010591,-3.958833218,2.355128765,1.27195859,7,-9,94,99,276
1695161324537535600,-5.313930511,-2.571372509,2.762908697,3.687041283,0.134163857,-1.181761026,207,277,675,484,942,-2.685097218,3.797203779,2.006340981,-3.970957279,2.3446033,1.212670803,9,-4,96,105,275
1695161324574512400,-5.013458252,-2.140416384,4.289212227,2.727909803,0.168537512,-0.594744265,307,288,730,480,981,-2.357091665,1.575384736,4.528632641,-3.875163794,1.837392092,-0.045431852,-15,7,91,95,244
1695161324575512400,-4.978742599,-2.086546898,4.337096214,2.699131489,0.155880541,-0.564634025,310,289,735,480,979,-2.323572636,1.477222443,4.702212334,-3.848650694,1.789828539,-0.099257268,-17,8,87,93,241
1695161324576512400,-4.942829609,-2.024297476,4.393360138,2.66928792,0.14388974,-0.533591092,313,291,733,480,979,-2.285265446,1.37786305,4.86741209,-3.820006132,1.740799308,-0.146554366,-21,9,81,92,237
1695161324577512400,-4.912901878,-1.954865694,4.453215122,2.637978554,0.132565081,-0.502415001,316,289,736,479,979,-2.242169857,1.284489155,5.025429249,-3.789629459,1.690704465,-0.186124057,-15,7,91,94,236
1695161324578512400,-4.887762547,-1.881842494,4.519055843,2.604537487,0.121773355,-0.472437978,317,294,735,479,975,-2.197877169,1.199495077,5.178658485,-3.756321669,1.638344646,-0.218232766,-18,10,87,94,238
1695161324622485000,-4.683058739,-1.18872118,5.583278179,1.784232736,-0.200912714,-0.255937219,338,294,730,458,941,-2.183511972,1.176750183,7.343016624,-2.517803907,0.767811656,-0.214901984,-17,8,93,91,233
1695161324623485000,-4.661510944,-1.171961784,5.655104637,1.736536026,-0.220098019,-0.256869823,342,301,730,459,941,-2.200271368,1.286883354,7.445967197,-2.446258783,0.747693717,-0.218366012,-16,13,85,89,236
1695161324624485000,-4.643554211,-1.165976286,5.729324818,1.688306332,-0.237684533,-0.25660339,340,302,730,457,937,-2.225410461,1.398213744,7.54891777,-2.381242037,0.729174554,-0.223428801,-17,11,83,88,236
1695161324625485000,-4.631583214,-1.164779186,5.804741859,1.639543653,-0.253539056,-0.255271077,342,303,729,455,936,-2.249352455,1.516726732,7.649474621,-2.323286295,0.71212095,-0.230356812,-17,9,89,92,238
1695161324626485000,-4.619612217,-1.167173386,5.877765179,1.591047525,-0.267261863,-0.252073497,340,305,727,454,932,-2.273294449,1.634042621,7.745242596,-2.271992207,0.69706583,-0.239150077,-16,15,83,89,236
1695161324670456800,-4.452018261,-1.713051319,7.122750282,0.819105625,-0.282317013,-0.104053594,339,301,708,446,905,-2.401384354,2.164358377,8.226476669,-1.628219008,0.668554366,-0.417813152,-14,13,77,85,232
1695161324671456800,-4.435258865,-1.757344007,7.171831131,0.786197543,-0.275788665,-0.095793262,340,297,704,446,907,-2.379836559,2.171540976,8.275558472,-1.546148539,0.688405812,-0.420211345,-13,13,85,84,237
1695161324672456800,-4.412513733,-1.807622313,7.218518257,0.754355311,-0.268860638,-0.08833231,341,301,701,444,907,-2.364274263,2.188300371,8.313865662,-1.484862089,0.705192924,-0.420211345,-13,13,79,83,235
1695161324673456800,-4.393360138,-1.8579005,7.261613846,0.723445654,-0.261932611,-0.081803977,334,298,703,448,900,-2.358288765,2.215833664,8.346187592,-1.424774885,0.722912669,-0.41861257,-14,11,77,85,233
1695161324674456800,-4.378994942,-1.908178806,7.295132637,0.693868279,-0.25553751,-0.076607957,338,295,703,443,903,-2.359485865,2.263717651,8.371326447,-1.366419554,0.741032183,-0.415681452,-15,9,76,80,233
1695161324706437900,-4.169502258,-2.329558372,8.134300232,0.297905058,-0.136828482,-0.072877489,335,294,692,437,886,-3.60207653,2.608482838,8.779537201,-0.802585006,0.855611026,-0.350264937,-12,-15,75,80,233
1695161324707437900,-4.158728123,-2.170343876,8.045714378,0.276188374,-0.140558958,-0.084468603,334,295,692,439,885,-3.807977915,2.522291422,9.06205368,-0.75049156,0.798188388,-0.349598765,-12,-13,73,82,232
1695161324708437900,-4.138377666,-1.966836691,7.927201748,0.249941811,-0.149485439,-0.101122513,335,293,693,442,884,-3.988739967,2.468421936,9.381679535,-0.699464023,0.731705964,-0.345335364,-10,-17,69,81,233
1695161324709437900,-4.104858875,-1.744175911,7.794323444,0.21863246,-0.163741201,-0.122039817,336,293,695,440,888,-4.146757126,2.427720547,9.696516991,-0.651367545,0.658562064,-0.337474734,-7,-17,76,82,233
1695161324710437900,-4.062960148,-1.522712231,7.665036678,0.181594178,-0.181460962,-0.145621747,335,297,688,440,884,-4.268861771,2.396595955,9.979032516,-0.607800961,0.581554353,-0.325217426,-9,-15,73,79,221
1695161324743415100,-3.912125587,-2.245761156,8.196549416,-0.249675348,0.005062787,-0.07714089,336,294,680,439,875,-3.190273762,2.110488892,10.28429317,-0.282317013,0.090197548,-0.238350689,13,-19,74,80,230
1695161324744415100,-3.954024076,-2.279279947,8.24802494,-0.209972441,0.018652374,-0.053958651,334,291,672,435,875,-3.150769472,2.111685991,10.1837368,-0.27379021,0.08726646,-0.242081165,9,-18,68,81,230
1695161324745415100,-3.97916317,-2.291250944,8.285135269,-0.172134757,0.030509954,-0.03237519,333,291,677,434,873,-3.087323189,2.114080191,10.0604353,-0.264197558,0.081137821,-0.246211335,5,-21,72,81,229
1695161324746415100,-3.992331266,-2.290053844,8.316259384,-0.137228176,0.040768761,-0.013189893,332,293,679,432,873,-3.031059265,2.120065689,9.974244118,-0.25766921,0.076607957,-0.248742729,9,-21,67,79,226
1695161324747415100,-3.995922565,-2.278082848,8.341399193,-0.106851459,0.04969525,0.003730475,335,288,676,436,873,-2.967612982,2.126051188,9.870096207,-0.251540571,0.07274425,-0.250474721,13,-20,71,80,226
1695161324780394400,-3.957615376,-2.705447912,8.591592789,-0.306698322,0.033707503,-0.05142726,329,288,664,429,861,-2.488772631,2.418143749,8.743624687,-0.041301683,0.021183766,-0.134830013,8,-21,70,78,220
1695161324781394400,-3.918111086,-2.725798607,8.61314106,-0.320287883,0.031575806,-0.055557426,330,288,666,429,862,-2.515108824,2.445677042,8.762778282,-0.019318528,0.014255743,-0.125770286,11,-21,71,81,224
1695161324782394400,-3.878606796,-2.738966703,8.63109684,-0.333477795,0.031842265,-0.057555895,330,288,666,429,860,-2.543839216,2.473210335,8.787917137,0.003863706,0.007194487,-0.11711026,12,-24,72,79,225
1695161324783394400,-3.834314108,-2.747346401,8.643068314,-0.346001506,0.034240428,-0.058222052,331,288,662,428,860,-2.570175409,2.500743628,8.825027466,0.027845331,-0.000133231,-0.109116383,9,-25,73,80,222
1695161324784394400,-3.79241538,-2.7533319,8.653841972,-0.357992321,0.038370594,-0.05768913,334,287,665,429,862,-2.595314741,2.525882721,8.870517731,0.052226644,-0.007993874,-0.102188364,6,-20,73,84,226
1695161324823392300,-3.738545895,-3.100491285,8.888473511,-0.348799407,0.10258805,0.074076563,340,283,652,429,849,-2.653972626,1.8579005,9.455899239,0.611797869,-0.257802457,0.087133229,7,-25,68,78,231
1695161324824392300,-3.761290789,-3.087323189,8.921992302,-0.344669193,0.100589581,0.081004597,338,283,653,428,849,-2.651578426,1.794454217,9.447520256,0.644439518,-0.269127101,0.098191425,9,-27,68,78,231
1695161324825392300,-3.787626982,-3.071760893,8.956708908,-0.342670739,0.098724343,0.086866774,341,279,653,428,849,-2.646790028,1.704671621,9.428366661,0.696266472,-0.286180705,0.115245022,9,-25,75,77,230
1695161324826392300,-3.813963413,-3.056198359,8.997409821,-0.343070447,0.096459419,0.091929555,339,283,652,428,848,-2.642001629,1.623268723,9.409213066,0.752223551,-0.30390048,0.132698312,5,-25,69,77,230
1695161324827392300,-3.841496706,-3.041833162,9.039308548,-0.346267998,0.094460949,0.096725874,337,282,651,425,851,-2.63841033,1.550245643,9.39484787,0.811378241,-0.322153151,0.151350692,8,-28,68,79,230
1695161324865346500,-4.723760128,-2.852691412,9.756371498,-0.724777937,-0.107117914,0.120973967,324,274,633,413,836,-2.972401381,1.082179189,9.458293915,2.231090307,-0.853079617,0.614196002,-22,-27,60,74,232
1695161324866346500,-4.753687382,-2.819172382,9.740809441,-0.750757992,-0.126836136,0.123505361,327,275,629,408,835,-3.020285368,1.138442874,9.422380447,2.330480814,-0.889585018,0.635113299,-25,-28,59,70,228
1695161324867346500,-4.775235176,-2.780865192,9.713275909,-0.777271032,-0.147620216,0.125903517,323,273,630,409,835,-3.070563793,1.213860273,9.391256332,2.43346858,-0.927022934,0.654964805,-22,-24,55,70,230
1695161324868346500,-4.795586109,-2.729389906,9.677363396,-0.804983199,-0.169603363,0.128301695,323,275,621,407,835,-3.128024578,1.308431268,9.36252594,2.539387465,-0.965260327,0.672551274,-25,-24,52,73,232
1695161324869346500,-4.815936565,-2.669534922,9.629479408,-0.834160745,-0.192785591,0.130300149,321,267,619,406,833,-3.186682463,1.425747156,9.33020401,2.647171497,-1.005096555,0.686940312,-27,-25,52,75,231
1695161324901325000,-4.588487625,-0.92775315,6.922834396,-1.657263398,-0.927955568,0.02904441,264,256,565,368,791,-3.93965888,3.924096584,9.045293808,3.954036713,-2.145422697,0.71212095,-37,-12,12,63,229
1695161324902325000,-4.546588898,-0.875080705,6.781576157,-1.7088238,-0.968324661,0.021050537,256,256,560,365,787,-3.869029999,3.97796607,8.969876289,3.964029074,-2.197915792,0.706658483,-35,-9,11,65,230
1695161324903325000,-4.507084846,-0.830788016,6.639121532,-1.760117888,-1.007894397,0.013589587,255,251,554,363,784,-3.775655985,4.019864559,8.886079788,3.969358206,-2.246678352,0.70172894,-38,-12,11,65,230
1695161324904325000,-4.46279192,-0.785298169,6.50983429,-1.809946418,-1.04613173,0.0063951,250,249,549,360,780,-3.660734415,4.058171749,8.796297073,3.971490145,-2.290644646,0.697732031,-37,-11,5,65,229
1695161324905325000,-4.420893669,-0.741005421,6.38653326,-1.859241962,-1.082503796,0.000133231,240,251,539,356,775,-3.578134537,4.082113743,8.731653214,3.971756458,-2.317291021,0.695866764,-37,-12,8,65,227
1695161324936305000,-3.49553442,-0.584185243,4.899733543,-2.829964638,-1.204943419,0.190387443,116,203,416,272,627,-1.962048292,4.453215122,6.107608318,3.78496623,-2.288246632,0.433800906,-27,-9,15,76,218
1695161324937305000,-3.473986626,-0.627280831,4.79319191,-2.887120962,-1.182560444,0.218499228,112,195,412,269,619,-1.927332401,4.46279192,5.967547894,3.771643162,-2.263332129,0.395563543,-33,-14,15,77,216
1695161324938305000,-3.451241732,-0.66917938,4.681861401,-2.948540688,-1.161243439,0.249808565,108,195,405,262,609,-1.893813491,4.472368717,5.827486992,3.758719683,-2.237885237,0.356793284,-29,-12,15,70,215
1695161324939305000,-3.435679436,-0.713472128,4.578910828,-3.015156031,-1.140592575,0.284981638,109,195,399,254,592,-1.844732404,4.509479046,5.710171223,3.749393702,-2.209506989,0.315624803,-28,-8,19,79,216
1695161324940305000,-3.423708439,-0.758961916,4.480748653,-3.083903551,-1.119142413,0.323085755,107,193,395,249,585,-1.813607812,4.50109911,5.555745125,3.743264914,-2.177797794,0.268327713,-28,-13,15,78,215
1695161324969287600,-3.333925962,-2.911349297,2.63841033,-4.365721226,-0.281384379,1.204277158,37,129,221,109,323,-1.136048675,4.904522419,2.579752445,3.725678444,-2.0313766,-0.584352195,-28,-11,15,68,210
1695161324970287600,-3.353079557,-3.05021286,2.503137827,-4.365721226,-0.200912714,1.237451792,38,128,211,104,313,-1.104924083,4.967968464,2.45166254,3.743131638,-2.034307718,-0.640176117,-28,-12,14,68,210
1695161324971287600,-3.375824451,-3.220201254,2.372653961,-4.365721226,-0.117909648,1.263964772,33,123,207,105,302,-1.079784989,5.045780182,2.330755472,3.762983322,-2.036972523,-0.696532905,-31,-12,17,64,208
1695161324972287600,-3.400963545,-3.402160645,2.227804661,-4.365721226,-0.029977029,1.288346171,31,119,191,102,293,-1.047463298,5.155913353,2.225410461,3.778704405,-2.03564024,-0.754222035,-27,-12,14,66,211
1695161324973287600,-3.428496838,-3.582922935,2.104503393,-4.365721226,0.059687596,1.311128616,31,112,186,93,288,-1.016338587,5.281609058,2.091335297,3.794559002,-2.032309294,-0.814709067,-28,-9,13,64,211
1695161325002270400,-4.479551315,-7.366958618,0.216675252,-4.365721226,1.697232842,1.283816218,0,49,64,47,157,-0.919373453,8.714894295,0.55784899,2.850348949,-2.030843735,-1.985811591,-29,-8,-12,44,200
1695161325003270400,-4.598064423,-7.558494568,0.090979666,-4.365721226,1.727609515,1.26116693,2,51,58,45,167,-0.921767652,8.821435928,0.508767843,2.727243423,-2.04390049,-2.038704395,-27,-11,-9,43,196
1695161325004270400,-4.736927986,-7.757213593,-0.035913024,-4.365721226,1.744396567,1.236385822,4,48,56,43,163,-0.915782154,8.889671326,0.439336002,2.600007772,-2.054425716,-2.091330767,-29,-7,-11,45,201
1695161325005270400,-4.886565685,-7.95593214,-0.164002821,-4.365721226,1.75252378,1.208540678,0,46,56,45,163,-0.913387954,8.945934296,0.389057785,2.473438025,-2.065883636,-2.141292334,-25,-7,-11,43,200
1695161325006270400,-5.032611847,-8.169015884,-0.317231715,-4.365721226,1.754255772,1.182160854,-1,45,53,44,159,-0.915782154,8.986636162,0.325611442,2.341272593,-2.074010611,-2.193119287,-27,-12,-13,44,194
1695161325034271400,-6.855796337,-10.57878017,-2.001552582,-4.365721226,0.318156213,1.083569646,-1,37,12,30,127,-1.580173135,7.50701952,0.262165099,0.743696809,-1.614496112,-2.792793274,-31,-9,-33,29,201
1695161325035271400,-6.877344608,-10.6446209,-1.990778685,-4.365721226,0.196649313,1.092363,-1,37,14,32,127,-1.762132406,7.544129372,0.253785372,0.694934189,-1.576791763,-2.817041397,-27,-9,-34,31,199
1695161325036271400,-6.891709805,-10.69849014,-1.977610588,-4.194519043,0.075808577,1.103154659,-1,37,11,32,127,-1.956062794,7.600393295,0.239420176,0.647903562,-1.542418122,-2.844220638,-31,-12,-35,30,200
1695161325037271400,-6.896498203,-10.73679733,-1.956062794,-3.970823765,-0.043300152,1.115411997,0,35,10,33,127,-2.100912094,7.647080421,0.231040463,0.614062786,-1.521500826,-2.863805532,-34,-12,-36,28,198
1695161325038271400,-6.894104004,-10.7727108,-1.939303398,-3.741266489,-0.160143942,1.128735065,-1,39,11,32,117,-2.331952572,7.73446846,0.207098454,0.560770333,-1.492323041,-2.895381212,-28,-9,-38,31,197
1695161325068251600,-6.513425827,-8.422801971,-1.940500498,-0.376777947,-1.603970885,1.54001987,0,35,2,31,111,-4.819528103,8.840589523,0.426167905,-0.328148544,-1.230790138,-3.636546612,-41,-8,-43,17,194
1695161325069251600,-6.515820026,-8.275558472,-1.909375906,-0.301235855,-1.637811542,1.561603308,2,36,1,29,110,-4.772840977,8.742427826,0.486022949,-0.361056656,-1.205609441,-3.631750345,-39,-7,-44,17,194
1695161325070251600,-6.532579422,-8.151060104,-1.885433793,-0.236751899,-1.666989326,1.583586574,0,38,0,27,112,-4.726154327,8.627506256,0.551863492,-0.391833097,-1.177764177,-3.620425701,-42,-3,-39,20,194
1695161325071251600,-6.561309814,-8.037335396,-1.875856996,-0.180928022,-1.692436457,1.606768727,0,35,4,28,111,-4.681861401,8.508993149,0.622492433,-0.420477778,-1.146987796,-3.602838993,-39,-9,-41,20,194
1695161325072251600,-6.592434406,-7.940370083,-1.867477298,-0.133098006,-1.715885162,1.630883574,4,35,3,28,110,-4.654327869,8.392873764,0.678756177,-0.446990818,-1.114079595,-3.579657078,-41,-8,-44,16,194
1695161325106211000,-6.930016994,-6.393715858,-1.235408068,-0.346800923,-1.613963246,2.037638664,2,37,-3,27,108,-6.95276165,6.999448776,0.999579191,-0.347200602,-0.443127096,-3.131866693,-45,-13,-44,0,189
1695161325107211000,-6.957550049,-6.291962147,-1.198297977,-0.414349139,-1.578656912,2.04962945,0,36,1,27,105,-7.058106422,6.906075001,1.009155989,-0.306831539,-0.40928638,-3.123339891,-44,-7,-44,16,195
1695161325108211000,-6.99106884,-6.194996834,-1.175553083,-0.487093419,-1.54215157,2.060421228,0,35,-3,28,105,-7.159860134,6.810306549,1.022324085,-0.264730483,-0.375712097,-3.115346193,-44,-16,-45,16,191
1695161325109211000,-7.036558628,-6.111199856,-1.15520227,-0.564234257,-1.504580379,2.070147038,2,35,0,30,110,-7.25323391,6.713341713,1.033097982,-0.220897391,-0.342537522,-3.10761857,-43,-7,-40,16,193
1695161325110211000,-7.09761095,-6.042964935,-1.143231273,-0.645238936,-1.46727562,2.079739809,-1,33,0,27,108,-7.344213486,6.6163764,1.051054597,-0.175732017,-0.309762627,-3.099758148,-44,-9,-47,16,193
1695161325141209300,-8.930372238,-6.435614109,-1.565807939,-2.042035103,-1.034274101,2.246412039,0,37,3,27,104,-10.00417137,6.076483727,1.143231273,0.613663077,0.149352223,-3.029678345,-44,-9,-41,18,193
1695161325142209300,-8.978256226,-6.454767704,-1.593341231,-2.088266373,-1.024015307,2.245079756,0,38,4,29,104,-10.18134308,6.117185116,1.11569798,0.640575767,0.162808567,-3.037805557,-45,-8,-39,15,190
1695161325143209300,-9.021351814,-6.467936039,-1.618480325,-2.130367517,-1.014022946,2.24174881,-1,35,3,30,107,-10.35731697,6.154295444,1.07858789,0.665090322,0.173200607,-3.047264814,-62,-5,-41,17,190
1695161325144209300,-9.059659004,-6.476315498,-1.646013618,-2.168338537,-1.004163861,2.236153126,-1,37,1,26,108,-10.52251625,6.174646378,1.052251697,0.686140895,0.180261865,-3.057523727,-44,-8,-43,15,192
1695161325145209300,-9.096769333,-6.482301235,-1.667561531,-2.202312469,-0.994437993,2.228958607,0,37,1,26,105,-10.66616821,6.183025837,1.022324085,0.705192924,0.185191423,-3.06778264,-44,-7,-37,18,193
1695161325177189200,-9.799467087,-6.130353451,-1.895010591,-2.317957163,-0.771808565,1.910003066,1,34,0,26,103,-12.55160236,6.364984989,0.752976418,0.953003049,0.219032168,-3.069781065,-44,-9,-35,16,193
1695161325178189200,-9.841365814,-6.119579315,-1.902193308,-2.302369118,-0.759817779,1.893215895,8,33,3,29,100,-12.61265469,6.418854713,0.752976418,0.963528335,0.219964772,-3.063119411,-44,-11,-35,16,190
1695161325179189200,-9.880870819,-6.101623058,-1.908178806,-2.283983231,-0.748226643,1.877361417,-1,32,4,28,101,-12.66772079,6.473921299,0.756567717,0.97338742,0.221430331,-3.056058168,-44,-5,-36,16,189
1695161325180189200,-9.939528465,-6.082469463,-1.912967205,-2.255738258,-0.733437955,1.857376695,0,34,4,30,103,-12.71321106,6.533776283,0.762553215,0.981914222,0.223162323,-3.048330784,-44,-14,-36,15,189
1695161325181189200,-9.980229378,-6.069301128,-1.928529501,-2.231623173,-0.723312438,1.843520641,-1,33,4,30,101,-12.75510979,6.600813866,0.768538773,0.989241958,0.225826949,-3.040203571,-44,-11,-19,16,190
1695161325213169100,-10.35971069,-5.606023312,-2.050633669,-1.498318553,-0.650701404,1.629551291,-1,37,10,28,99,-11.78426075,7.565677166,0.700303972,0.762882054,0.250075042,-2.561370611,-46,-12,-37,18,189
1695161325214169100,-10.35133076,-5.57848978,-2.066195965,-1.451287866,-0.648303211,1.612497687,0,35,7,26,95,-11.66574764,7.566874504,0.696712673,0.736768782,0.248476252,-2.505013704,-44,-5,-34,17,187
1695161325215169100,-10.3405571,-5.548562527,-2.081758261,-1.403990865,-0.64617151,1.594245076,-1,35,7,30,98,-11.54723454,7.562086105,0.699106872,0.709456325,0.247410417,-2.445193052,-44,-7,-35,18,191
1695161325216169100,-10.3309803,-5.517437935,-2.098517895,-1.356560469,-0.643906593,1.575059772,-2,35,5,26,98,-11.42632771,7.55131197,0.703895271,0.681477845,0.24674426,-2.381242037,-44,-12,-37,18,189
1695161325217169100,-10.3166151,-5.482721806,-2.11527729,-1.309529781,-0.641108751,1.554808617,2,37,10,26,103,-11.30182934,7.535749912,0.712275028,0.652833045,0.24674426,-2.313827038,-42,-7,-35,20,193
1695161325327600300,-9.96466732,-4.818330765,-2.201468468,-0.592879057,-0.480431855,1.0300107,-1,33,11,29,99,-9.63067627,6.291962147,0.879869103,0.21450229,0.325617135,-0.684675336,-44,-8,-35,16,188
1695161325328600300,-9.944316864,-4.800374508,-2.190694571,-0.557572722,-0.467375189,0.997235835,-1,33,10,31,99,-9.587580681,6.194996834,0.885854602,0.210238889,0.329614073,-0.601805508,-45,-9,-35,17,189
1695161325329600300,-9.923966408,-4.780023575,-2.176329374,-0.521600306,-0.454052061,0.964993894,-1,33,9,29,99,-9.54807663,6.099228859,0.888248801,0.209173039,0.332545161,-0.520800948,-44,-7,-34,16,189
1695161325330600300,-9.906009674,-4.756081581,-2.164358377,-0.484961689,-0.440595686,0.933018386,0,37,11,29,96,-9.514557838,5.999869347,0.89303726,0.210505351,0.335343033,-0.441927999,-42,-8,-35,17,192
1695161325331600300,-9.88805294,-4.736927986,-2.148796082,-0.447656959,-0.427139342,0.901442528,-1,37,9,29,97,-9.482235909,5.901707172,0.89184016,0.214768767,0.337341517,-0.365053594,-46,-9,-35,19,192
1695161325378585500,-9.545681953,-4.072536945,-1.744175911,0.240349159,-0.152683005,0.44978866,0,35,10,28,98,-9.154230118,4.703409195,0.77931267,0.629917264,0.209306285,0.620990813,-44,-8,-38,16,188
1695161325379585500,-9.528923035,-4.018667698,-1.721431017,0.2648637,-0.138160795,0.433001518,-1,36,10,29,97,-9.137471199,4.677073002,0.782903969,0.656830013,0.196915776,0.648969352,-51,-14,-34,20,188
1695161325380585500,-9.513360023,-3.964797974,-1.697489023,0.286846846,-0.124038287,0.417147011,1,34,11,30,98,-9.117119789,4.649539471,0.788889468,0.682676852,0.183992341,0.674816251,-44,-15,-39,17,188
1695161325381585500,-9.501389503,-3.906140089,-1.675941229,0.306565106,-0.110049009,0.401825428,0,35,9,30,101,-9.10036087,4.626794815,0.791283667,0.707591116,0.170669213,0.698531389,-44,-9,-34,18,189
1695161325382585500,-9.488221169,-3.847482204,-1.657984734,0.323485464,-0.096059717,0.387169987,-1,33,11,26,96,-9.082404137,4.604049683,0.792480767,0.731705964,0.157079637,0.720114827,-44,-12,-36,19,189
1695161325496614100,-9.28591156,-3.251325846,-1.246181965,0.27059263,0.102188364,0.189987749,0,32,11,29,95,-8.817844391,4.407725334,0.82001406,0.909969389,-0.125104129,0.871865213,-43,-7,-34,22,186
1695161325497614100,-9.282320023,-3.236960649,-1.229422569,0.259667695,0.107384384,0.179595709,-2,34,12,25,95,-8.817844391,4.41849947,0.825999558,0.901442528,-0.136428788,0.870666206,-46,-9,-34,22,194
1695161325498614100,-9.278728485,-3.224989653,-1.211466074,0.249142408,0.111514546,0.168670759,-1,34,10,27,97,-8.821435928,4.423287868,0.829590917,0.890917301,-0.14695406,0.868268013,-44,-9,-34,24,187
1695161325499614100,-9.272743225,-3.211821556,-1.198297977,0.238883615,0.115245022,0.157479316,-1,34,10,30,96,-8.819042206,4.428076267,0.836773515,0.878660023,-0.15681316,0.865470171,-44,-9,-34,24,189
1695161325500614100,-9.26556015,-3.19745636,-1.181538582,0.229157731,0.11817611,0.146021441,2,36,10,28,99,-8.815450668,4.430470467,0.845153213,0.864670753,-0.165473193,0.861872911,-44,-8,-34,21,186
1695161325533594200,-9.089587212,-3.094505787,-0.873883605,0.118309341,0.136828482,-0.065549769,-1,34,11,30,95,-8.692149162,4.314351559,0.866701007,0.358658493,-0.199980095,0.704793274,-43,-7,-36,21,185
1695161325534594200,-9.090784073,-3.088520288,-0.858321309,0.115777947,0.138560489,-0.075275652,0,35,11,28,97,-8.686163902,4.292803764,0.869095206,0.328415006,-0.193451747,0.695067406,-44,-9,-34,20,189
1695161325535594200,-9.084798813,-3.08133769,-0.845153213,0.113513015,0.140292495,-0.085267991,-1,37,10,32,95,-8.682572365,4.27724123,0.869095206,0.308830023,-0.188522205,0.688539028,-44,-8,-32,31,188
1695161325536594200,-9.082404137,-3.069366693,-0.833182216,0.111114852,0.142157733,-0.095260337,-1,38,15,28,96,-8.676587105,4.254496574,0.866701007,0.279652387,-0.180661559,0.678946435,-44,-8,-34,25,188
1695161325537594200,-9.082404137,-3.055001259,-0.82001406,0.108316995,0.144156188,-0.105119444,-1,36,11,30,95,-8.66940403,4.230554581,0.870292306,0.251407355,-0.172001526,0.669353783,-44,-12,-36,21,189
1695161325586610600,-9.088389397,-2.843114614,-0.664390981,0.032108728,0.160810098,-0.310428768,0,37,11,29,93,-8.687360764,3.691859007,0.839167714,-0.091663092,0.019851454,0.514938712,-44,-9,-34,24,184
1695161325587610600,-9.090784073,-2.843114614,-0.651222885,0.030376723,0.161742732,-0.320421129,-1,35,11,29,93,-8.690952301,3.677493811,0.837970614,-0.096059717,0.023715161,0.510941803,-44,-9,-34,22,188
1695161325588610600,-9.093177795,-2.839523315,-0.640448928,0.02917764,0.162675351,-0.330147028,-1,37,12,30,97,-8.698134422,3.653551817,0.836773515,-0.101921894,0.02904441,0.505346119,-44,-7,-34,25,189
1695161325589610600,-9.099164009,-2.838326216,-0.627280831,0.028511487,0.163474724,-0.339606434,0,33,13,32,96,-8.704120636,3.636792421,0.835576415,-0.107117914,0.033840735,0.499750376,-43,-6,-34,20,185
1695161325590610600,-9.103952408,-2.833537817,-0.617704034,0.028511487,0.164407358,-0.348932624,-1,37,12,29,95,-8.711302757,3.620033026,0.834379315,-0.111647777,0.037970904,0.494287878,-44,-8,-30,27,183
1695161325690550400,-9.071630478,-2.613271236,-0.48482585,0.074476264,0.141891271,-0.491756529,0,34,12,30,94,-8.831012726,3.53503871,0.861912608,-0.162941799,0.016787136,0.408753455,-44,-10,-34,24,183
1695161325691550400,-9.065644264,-2.596511841,-0.476446152,0.075542115,0.141624808,-0.497618675,0,38,11,29,95,-8.829815865,3.53503871,0.869095206,-0.166938737,0.013589587,0.404889733,-44,-9,-36,21,185
1695161325692550400,-9.063250542,-2.586935043,-0.474051923,0.075941809,0.14175804,-0.500150084,0,36,16,29,93,-8.831012726,3.53384161,0.867898107,-0.170935676,0.010392036,0.401026011,-44,-11,-34,21,186
1695161325693550400,-9.059659004,-2.573766708,-0.469263524,0.076474734,0.142290965,-0.503480852,-1,33,13,29,95,-8.834604263,3.530250311,0.873883605,-0.175199077,0.007327718,0.397162348,-42,-9,-33,21,185
1695161325694550400,-9.06205368,-2.564189911,-0.459686726,0.076741189,0.143090352,-0.506145477,0,39,14,29,94,-8.834604263,3.525461912,0.877474904,-0.179595709,0.004396631,0.393431842,-43,-11,-34,24,189
1695161325807476900,-9.044096947,-2.410961151,-0.415394008,0.087799385,0.166272581,-0.474702895,-1,37,15,28,93,-8.735244751,3.351882458,0.773327172,-0.201845318,-0.042101074,0.329747319,-44,-8,-34,23,189
1695161325808476900,-9.041702271,-2.400187254,-0.418985307,0.087399691,0.165872887,-0.47163859,-2,37,15,30,94,-8.737639427,3.356670856,0.769735873,-0.199180692,-0.043966308,0.326549739,-43,-13,-34,24,185
1695161325809476900,-9.038111687,-2.390610456,-0.418985307,0.086999997,0.164940268,-0.468707502,-1,36,17,31,99,-8.732851028,3.354276657,0.752976418,-0.198780999,-0.046497703,0.322286367,-42,-9,-34,24,187
1695161325810476900,-9.03571701,-2.382230759,-0.415394008,0.086733535,0.163607955,-0.465776414,-1,35,12,29,95,-8.708909035,3.324349165,0.748188019,-0.192519143,-0.048496172,0.318022966,-44,-8,-34,22,188
1695161325811476900,-9.030928612,-2.371456861,-0.420182407,0.086467072,0.161875948,-0.462978572,1,35,12,30,94,-8.694543839,3.318363667,0.758961916,-0.186656967,-0.048629403,0.315225124,-44,-11,-33,24,186
1695161325891426400,-8.916007042,-2.274491549,-0.40821138,0.086600304,0.110715166,-0.396762639,0,41,11,31,93,-8.670601845,3.321954966,0.746990919,-0.073676877,-0.001465544,0.235419586,-43,-9,-34,26,188
1695161325892426400,-8.919598579,-2.26850605,-0.40940848,0.087932616,0.108583458,-0.391300142,0,38,15,29,93,-8.671798706,3.330334663,0.748188019,-0.069679938,0.001465544,0.229157731,-44,-9,-34,22,186
1695161325893426400,-8.921992302,-2.263717651,-0.407014281,0.088732004,0.106984682,-0.387702912,3,37,17,32,94,-8.667010307,3.335123062,0.748188019,-0.065416537,0.005329249,0.220364481,-39,-9,-34,26,185
1695161325894426400,-8.923190117,-2.258929253,-0.403422982,0.089797854,0.105119444,-0.381840736,1,36,11,28,93,-8.665813446,3.34469986,0.746990919,-0.062485453,0.007860643,0.213436455,-39,-12,-34,24,187
1695161325895426400,-8.923190117,-2.254140854,-0.405817181,0.090996936,0.103120975,-0.375845343,1,34,12,26,93,-8.668207169,3.353079557,0.749385118,-0.060353752,0.010392036,0.206508413,-44,-11,-34,24,186
1695161325949393000,-8.941145897,-2.091335297,-0.44651863,0.007860643,0.055557426,-0.276588053,-2,34,12,29,89,-8.667010307,3.507505417,0.778115571,-0.101655439,0.05249311,0.078739658,-43,-9,-34,28,188
1695161325950393000,-8.944737434,-2.099714994,-0.44651863,-0.000266462,0.052626338,-0.27165848,-2,35,10,25,93,-8.671798706,3.507505417,0.78050977,-0.104320064,0.054758042,0.073543645,-39,-12,-32,25,186
1695161325951393000,-8.949525833,-2.105700493,-0.436941803,-0.008260337,0.04969525,-0.266595691,-1,33,11,29,93,-8.670601845,3.508702517,0.775721371,-0.106451757,0.056756508,0.068614088,-41,-7,-30,25,189
1695161325952393000,-8.951920509,-2.114080191,-0.432153404,-0.015987748,0.047030624,-0.261399686,-2,32,12,26,90,-8.672995567,3.511096716,0.774524271,-0.108183771,0.058621746,0.063684531,-44,-9,-34,26,187
1695161325953393000,-8.954314232,-2.126051188,-0.429759204,-0.023182238,0.044499233,-0.255803972,-2,31,9,27,91,-8.670601845,3.514688015,0.774524271,-0.109516084,0.060353752,0.059021436,-43,-5,-34,26,187
1695161326007359700,-8.921992302,-2.23139596,-0.44532153,-0.063950993,0.007327718,-0.133231238,-1,33,10,23,91,-8.665813446,3.573346138,0.790086567,-0.086333841,0.057955589,-0.004396631,-44,-9,-34,26,187
1695161326008359700,-8.920795441,-2.233790159,-0.444124401,-0.063950993,0.007061256,-0.126303226,-1,34,12,28,92,-8.66341877,3.574543238,0.793677866,-0.083269522,0.057555895,-0.0063951,-44,-8,-34,25,189
1695161326009359700,-8.917203903,-2.240972757,-0.438138902,-0.063950993,0.007061256,-0.11924196,-1,35,10,26,90,-8.66341877,3.576937437,0.797269166,-0.080071971,0.057022974,-0.008127105,-44,-5,-34,22,188
1695161326010359700,-8.916007042,-2.244564056,-0.438138902,-0.063950993,0.006928025,-0.112180702,-1,33,10,24,92,-8.665813446,3.579331636,0.803254664,-0.076874427,0.056490045,-0.009992342,-44,-7,-32,25,189
1695161326011359700,-8.913613319,-2.250549555,-0.436941803,-0.063551299,0.007061256,-0.104852989,-1,33,13,28,90,-8.66940403,3.580528736,0.806845963,-0.073277183,0.055690661,-0.011591119,-44,-7,-33,25,188
1695161326064350100,-8.869319916,-2.394201756,-0.460883826,-0.014255743,-0.016254211,0.025980091,-1,33,13,26,92,-8.645462036,3.649960518,0.858321309,0.004796324,0.039303213,-0.039036751,-44,-12,-34,23,186
1695161326065350100,-8.874108315,-2.401384354,-0.458489627,-0.009725881,-0.018652374,0.032641653,-2,32,11,27,91,-8.649053574,3.657143116,0.85592711,0.008793262,0.038370594,-0.04103522,-43,-9,-34,23,188
1695161326066350100,-8.875306129,-2.408566952,-0.456095427,-0.005062787,-0.021450229,0.039303213,-1,32,13,28,91,-8.65144825,3.664325714,0.859518409,0.012390506,0.037304748,-0.042900458,-41,-12,-33,22,192
1695161326067350100,-8.878896713,-2.41335535,-0.456095427,-0.000799387,-0.024248086,0.045565084,-1,35,15,28,91,-8.653841972,3.669114113,0.860715508,0.015854517,0.036238898,-0.045032158,-44,-8,-33,24,184
1695161326068350100,-8.883685112,-2.41455245,-0.458489627,0.003863706,-0.027578866,0.051960181,-2,32,10,27,93,-8.658630371,3.675099611,0.867898107,0.019185297,0.035705972,-0.047030624,-44,-9,-35,26,185
1695161326120317900,-8.850166321,-2.436100245,-0.515950441,-0.011324655,-0.045964777,0.15534763,-1,33,12,30,92,-8.676587105,3.829525709,0.926556051,0.031709034,0.017453292,-0.079139359,-44,-8,-33,24,186
1695161326121317900,-8.853757858,-2.45166254,-0.517147541,-0.017053599,-0.044499233,0.160543635,-4,33,14,28,88,-8.677783966,3.834314108,0.922964752,0.030643184,0.015588055,-0.07993874,-42,-9,-33,24,186
1695161326122317900,-8.853757858,-2.470816135,-0.521935999,-0.022249617,-0.043566614,0.165606424,-1,32,12,29,88,-8.678980827,3.839102507,0.925358951,0.03011026,0.013589587,-0.080338441,-41,-9,-32,28,189
1695161326123317900,-8.85495472,-2.493561029,-0.525527298,-0.026779478,-0.042900458,0.170669213,-2,33,13,27,89,-8.677783966,3.841496706,0.925358951,0.028911179,0.011591119,-0.080604896,-44,-12,-34,22,187
1695161326124317900,-8.860940933,-2.511517525,-0.529118598,-0.030776417,-0.042234302,0.175465539,-2,32,13,28,91,-8.682572365,3.846285105,0.925358951,0.028245023,0.009459418,-0.080604896,-41,-8,-33,24,186
1695161326184257400,-8.904036522,-2.782062292,-0.551863492,0.015721286,-0.063950993,0.239283308,-2,33,16,27,89,-8.66940403,3.883395195,0.912190855,0.035039816,-0.014122511,-0.073676877,-44,-2,-33,26,189
1695161326185257400,-8.898050308,-2.784456491,-0.549469292,0.020117918,-0.064750381,0.241015315,-1,32,12,29,88,-8.671798706,3.883395195,0.913387954,0.036105666,-0.014388974,-0.073143952,-41,-7,-32,24,188
1695161326186257400,-8.899248123,-2.785653591,-0.547075093,0.024114855,-0.065416537,0.242880553,-1,32,11,30,91,-8.675390244,3.888183594,0.909796655,0.037171517,-0.014522205,-0.072877489,-43,-8,-34,25,188
1695161326187257400,-8.902838707,-2.79163909,-0.550666392,0.027712099,-0.065816231,0.244346097,-1,32,12,29,91,-8.675390244,3.890577793,0.909796655,0.038104136,-0.014655436,-0.072344564,-44,-13,-34,21,186
1695161326188257400,-8.908824921,-2.795230389,-0.550666392,0.030776417,-0.065949462,0.245811626,-1,32,12,27,88,-8.677783966,3.891774893,0.910993755,0.039169986,-0.01505513,-0.071811639,-41,-9,-32,25,186
1695161326226255900,-8.972270966,-2.871845007,-0.582988143,0.016920367,-0.043166921,0.247277185,1,32,10,28,91,-8.667010307,3.958812475,0.899022758,0.041168455,-0.028511487,-0.061286367,-43,-11,-33,28,188
1695161326227255900,-8.975862503,-2.877830505,-0.590170741,0.015854517,-0.042234302,0.245411947,-1,30,11,28,89,-8.665813446,3.956418276,0.895431459,0.040635526,-0.029444104,-0.06008729,-42,-8,-34,22,185
1695161326228255900,-8.977059364,-2.887407303,-0.590170741,0.014788668,-0.041168455,0.243280247,-1,34,13,29,89,-8.668207169,3.956418276,0.89184016,0.040102605,-0.030376723,-0.058754977,-40,-8,-33,24,188
1695161326229255900,-8.979453087,-2.8981812,-0.59376204,0.014255743,-0.040235836,0.240882084,-2,35,13,27,87,-8.665813446,3.960009575,0.896628559,0.039702907,-0.03130934,-0.057555895,-43,-11,-33,24,186
1695161326230255900,-8.981847763,-2.907757998,-0.59376204,0.01398928,-0.039303213,0.238350689,-1,33,12,26,87,-8.664615631,3.961206675,0.89064306,0.039169986,-0.032241959,-0.056223582,-41,-8,-33,22,186
1695161326270232300,-9.040505409,-3.076549292,-0.620098233,0.074209802,-0.035572741,0.177330777,-3,33,9,26,91,-8.832210541,4.686649799,0.591367841,0.110581927,-0.022116385,-0.08313629,-44,-8,-33,21,186
1695161326271232300,-9.047688484,-3.096899986,-0.626083732,0.081271052,-0.03543951,0.174799383,-1,34,13,27,88,-8.865729332,4.789600372,0.536301196,0.126303226,-0.019984685,-0.088598773,-44,-7,-31,25,188
1695161326272232300,-9.056067467,-3.118447781,-0.638054729,0.088598773,-0.035306279,0.172534451,-2,32,11,26,89,-8.904036522,4.90811348,0.48362875,0.142690659,-0.01825268,-0.094194487,-44,-7,-29,25,187
1695161326273232300,-9.066842079,-3.145981073,-0.654814184,0.096459419,-0.03543951,0.170535982,-1,33,11,27,88,-8.930372238,4.996698856,0.44532153,0.154015318,-0.017586524,-0.097525269,-42,-8,-32,20,188
1695161326274232300,-9.082404137,-3.181894064,-0.672770679,0.104852989,-0.03543951,0.169070452,-1,33,12,27,87,-8.974664688,5.140350819,0.386663586,0.170802444,-0.017453292,-0.101921894,-43,-9,-32,23,186
1695161326316181700,-9.568427086,-4.174290657,-1.501164436,0.350797862,-0.059820827,0.071678407,-1,33,15,28,87,-8.955511093,8.949525833,0.612915635,-0.252872884,-0.337341517,0.613130212,-38,-4,-29,28,188
1695161326317181700,-9.611522675,-4.268861771,-1.549048543,0.376644701,-0.069946401,0.050494641,-3,34,13,28,89,-8.950722694,9.044096947,0.615309834,-0.299503833,-0.367984682,0.701329231,-41,-7,-29,29,186
1695161326318181700,-9.652224541,-4.384980202,-1.586158633,0.40568912,-0.081537522,0.027312404,-1,29,15,27,87,-8.942343712,9.118317604,0.598550439,-0.343736589,-0.400093406,0.791127086,-45,-7,-29,30,189
1695161326319181700,-9.686940193,-4.522646904,-1.619677424,0.440196037,-0.093794793,0.002931087,-2,34,11,28,85,-8.939949036,9.155426979,0.579396784,-0.370649308,-0.422343016,0.851347625,-42,-5,-29,35,190
1695161326320181700,-9.708487511,-4.680664539,-1.646013618,0.478833079,-0.106584989,-0.02384839,-1,36,11,25,90,-8.931569099,9.197325706,0.543483794,-0.405822366,-0.457516104,0.942877471,-43,-7,-28,36,188
1695161326390139400,-9.058462143,-7.311892033,-1.113303781,1.959165335,0.161209792,-0.555574298,-2,34,21,30,85,-8.128314972,9.739612579,0.577002585,-0.050494641,-0.741431832,2.392833233,-33,-16,13,102,230
1695161326391139400,-9.036913872,-7.334636688,-1.138442874,2.022316933,0.209572732,-0.580222011,-2,32,23,29,83,-8.057685852,9.771934509,0.537498295,-0.008660031,-0.701462448,2.449722767,-35,-7,15,98,232
1695161326392139400,-9.010578156,-7.32745409,-1.161187768,2.074277163,0.254738122,-0.604869843,-1,37,21,29,83,-8.005013466,9.803058624,0.435744703,0.032241959,-0.656163871,2.503814459,-30,-5,17,101,234
1695161326393139400,-8.984241486,-7.304709435,-1.163581967,2.113047361,0.29710567,-0.631782591,-1,39,20,32,83,-7.954735279,9.828198433,0.329202741,0.069946401,-0.610732019,2.555375099,-31,-8,27,104,238
1695161326394139400,-8.954314232,-7.2891469,-1.165976286,2.148486853,0.340405822,-0.662692189,-3,38,21,32,84,-7.926004887,9.828198433,0.227449164,0.105519146,-0.557173014,2.606269598,-33,-7,28,104,238
1695161326448106400,-9.275136948,-7.223306656,-1.368286252,2.122640133,0.833894312,-1.270493031,-2,47,20,56,79,-7.91163969,11.59990692,-0.902614057,0.045298621,0.573027551,3.293742657,-27,-8,81,112,257
1695161326449106400,-9.314641953,-7.275979042,-1.368286252,2.113447189,0.842421114,-1.299271107,-3,49,20,51,79,-7.951143742,11.66933918,-0.956483603,-0.025980091,0.625520647,3.299072027,-28,-11,84,115,257
1695161326450106400,-9.351752281,-7.335834026,-1.369483352,2.104653835,0.849082649,-1.326583505,-1,50,25,54,79,-7.985859871,11.7256031,-1.010353088,-0.103120975,0.674816251,3.302136183,-28,-8,89,114,258
1695161326451106400,-9.384073257,-7.394492149,-1.355118155,2.09839201,0.853745818,-1.35256362,-2,52,25,57,80,-8.014590263,11.76031876,-1.069011092,-0.184791744,0.719981611,3.302269459,-27,-8,84,112,257
1695161326452106400,-9.422380447,-7.457938194,-1.341950059,2.097725868,0.856943309,-1.378810048,-1,51,25,58,79,-8.042123795,11.77348709,-1.133654475,-0.269526809,0.761549771,3.30040431,-30,-9,89,113,258
1695161326485085500,-9.497797966,-8.036137581,-0.735019922,2.685275793,0.615661561,-1.654731989,-1,110,107,94,141,-7.91163969,11.01572227,-1.808819413,-1.363355279,1.421310782,3.374747276,-23,-9,107,121,282
1695161326486085500,-9.498994827,-8.000225067,-0.730231524,2.726843834,0.60926646,-1.661260247,-1,111,117,99,142,-7.900865555,10.96664047,-1.816002011,-1.381208301,1.4486233,3.379276991,-26,-7,111,116,281
1695161326487085500,-9.504981041,-7.966706276,-0.730231524,2.763349295,0.603137791,-1.667655468,-2,113,121,103,137,-7.880515099,10.93791008,-1.808819413,-1.397196054,1.475802422,3.383274317,-27,-7,115,121,284
1695161326488085500,-9.507374763,-7.936778545,-0.727837324,2.793992281,0.598474741,-1.673251152,0,119,122,106,143,-7.848193169,10.90798283,-1.788468719,-1.411984682,1.50311482,3.386871338,-27,-4,113,120,284
1695161326489085500,-9.514557838,-7.909245491,-0.721851826,2.823169947,0.594744265,-1.678580403,0,123,125,106,153,-7.801506042,10.87925243,-1.753752708,-1.426373601,1.531359792,3.390468597,-24,-9,114,121,292
1695161326520066500,-9.856928825,-7.726089001,-0.503979445,3.542085648,0.207840726,-1.787030578,16,192,272,190,284,-6.964732647,10.84932518,-1.112106681,-1.949705958,2.141825438,3.497853041,-5,-12,126,122,311
1695161326521066500,-9.866505623,-7.679401875,-0.471657723,3.583387375,0.176797852,-1.788096428,18,192,282,200,296,-6.926425457,10.83855152,-1.054645896,-2.010992289,2.162742615,3.493722677,-1,-9,130,127,312
1695161326522066500,-9.862914085,-7.624335289,-0.423773706,3.624555826,0.148686066,-1.788096428,17,198,292,205,310,-6.882133007,10.81700325,-0.990002394,-2.074410439,2.182327747,3.486261845,5,-7,127,126,311
1695161326523066500,-9.856928825,-7.562086105,-0.380678058,3.661061049,0.121373661,-1.78729701,24,203,309,220,323,-6.831854343,10.78468132,-0.914585054,-2.139960289,2.201779366,3.475203514,5,-9,126,122,312
1695161326524066500,-9.850942612,-7.51300478,-0.33399114,3.693303108,0.09246248,-1.784366012,22,209,321,234,341,-6.76960516,10.74996567,-0.822408259,-2.208574295,2.221897364,3.46028161,7,-7,128,126,312
1695161326571587900,-9.682151794,-6.938396454,0.361524463,3.764981747,-0.406621754,-1.57479322,37,209,553,426,716,-5.835866451,8.384494781,0.132878199,-2.906972408,2.326617241,2.721381187,15,-3,126,122,311
1695161326572587900,-9.612719536,-6.885724068,0.531512797,3.774707556,-0.443127096,-1.579056621,38,213,560,428,728,-5.743690014,8.24203968,0.226252064,-2.916165352,2.308764219,2.680079699,18,-8,126,121,309
1695161326573587900,-9.556455612,-6.865373611,0.636857629,3.782168388,-0.463911176,-1.582254171,40,218,570,428,739,-5.6515131,8.095993042,0.318428814,-2.925624847,2.289712191,2.64024353,17,-11,127,121,311
1695161326574587900,-9.457097054,-6.824671745,0.772130072,3.792693615,-0.486294001,-1.584785581,40,222,575,429,752,-5.528211594,7.912836552,0.427365005,-2.93881464,2.261333704,2.58934927,17,-6,126,122,310
1695161326575587900,-9.354146004,-6.739677906,0.842759013,3.799888134,-0.500416517,-1.583986163,42,224,585,430,762,-5.433640957,7.783549786,0.508767843,-2.949473143,2.237485409,2.553243399,17,-11,126,122,308
1695161326602566200,-7.697358608,-4.522646904,2.551021814,3.100690842,-0.172134757,-1.33644259,60,270,670,424,871,-3.782838583,5.024232388,2.11647439,-3.334378242,1.726410389,1.779436469,13,-3,123,114,293
1695161326603566200,-7.709329605,-4.527435303,2.596511841,3.059788465,-0.162675351,-1.327915788,63,267,675,420,874,-3.669114113,4.83509016,2.178723574,-3.331313848,1.707624793,1.732672334,15,-2,121,112,293
1695161326604566200,-7.702147007,-4.553771496,2.645592928,3.024615765,-0.158678412,-1.319522142,63,272,676,422,872,-3.558980942,4.666299343,2.242169857,-3.325185299,1.689771891,1.688039899,16,-2,119,113,292
1695161326605566200,-7.697358608,-4.576516628,2.700659513,2.995571136,-0.160277188,-1.310329199,63,274,677,423,878,-3.488351822,4.563348293,2.288856745,-3.319722652,1.678580403,1.659528255,11,-1,123,115,290
1695161326606566200,-7.69616127,-4.606443882,2.749740601,2.972788811,-0.166405827,-1.301003098,63,277,680,422,877,-3.390189648,4.423287868,2.358288765,-3.309463978,1.662859082,1.618093371,11,-2,123,113,282
1695161326744549700,-6.700173378,-3.883395195,3.292027235,2.955868244,-0.553842247,-0.959931076,91,314,715,426,877,-2.365471363,2.718616009,3.428496838,-2.759485483,1.412251115,1.116477847,7,4,121,105,277
1695161326745549700,-6.631938934,-3.807977915,3.313575268,2.944010496,-0.555041373,-0.933817804,92,314,717,426,874,-2.352303267,2.653972626,3.481169224,-2.708857536,1.389202118,1.105419517,11,7,115,105,278
1695161326746549700,-6.567295074,-3.730166197,3.333925962,2.929222107,-0.553442538,-0.907304764,95,317,718,429,871,-2.343923569,2.612074137,3.509899616,-2.673551321,1.372814655,1.098358274,5,7,116,102,278
1695161326747549700,-6.505045891,-3.647566319,3.356670856,2.911235809,-0.549845338,-0.880791724,92,318,716,425,868,-2.334346771,2.553416014,3.561375141,-2.618659973,1.346035242,1.088366032,-2,4,114,101,273
1695161326748549700,-6.46554184,-3.590105534,3.367444754,2.897513151,-0.546114862,-0.863338411,94,319,717,426,868,-2.317587137,2.495955229,3.616441727,-2.562170029,1.317124128,1.078640103,6,7,114,104,278
1695161326862481300,-5.974730492,-2.723404408,3.921702385,2.22522831,-0.43260181,-0.551310837,104,323,698,420,840,-1.921346903,2.809595585,5.056553841,-1.561736584,1.098225117,0.71212095,5,8,108,95,266
1695161326863481300,-5.950788498,-2.686294317,3.973177671,2.186058044,-0.438064337,-0.541718245,105,320,698,418,838,-1.9333179,2.893392801,5.111620426,-1.524831533,1.11314702,0.672551274,5,10,109,95,269
1695161326864481300,-5.924452305,-2.652775526,4.030638695,2.146621704,-0.443926483,-0.53292495,107,323,698,418,840,-1.951274395,2.978386879,5.16788435,-1.490591049,1.127402782,0.632049024,5,13,109,95,269
1695161326865481300,-5.893327713,-2.620453835,4.089296341,2.107185364,-0.44978866,-0.524931073,112,322,696,417,836,-1.966836691,3.071760893,5.234921932,-1.459148526,1.140592575,0.591013789,5,12,107,95,268
1695161326866481300,-5.859808445,-2.589329243,4.143166065,2.067882061,-0.45551762,-0.518003047,112,325,692,423,837,-1.980004787,3.132812977,5.288791656,-1.439963222,1.148719788,0.563301682,-2,7,108,94,266
1695161326928442900,-5.246892929,-2.286462545,5.178658485,1.405456305,-0.506012261,-0.402091891,133,319,672,414,817,-2.571372509,4.599261284,7.122750282,-1.550678372,1.142324567,-0.150551304,-9,16,97,92,261
1695161326929442900,-5.221754074,-2.309207439,5.222950935,1.376678348,-0.502281785,-0.390500784,130,319,671,414,814,-2.562992811,4.616020679,7.20894146,-1.568531394,1.132998466,-0.183725879,-9,13,97,89,261
1695161326930442900,-5.194220543,-2.321178436,5.261258125,1.347767234,-0.497352213,-0.378776401,132,319,668,412,814,-2.548627615,4.624400616,7.296329498,-1.585851431,1.125937223,-0.214768767,-6,14,96,92,260
1695161326931442900,-5.164293289,-2.334346771,5.288791656,1.319921851,-0.492156208,-0.367185295,130,311,666,412,814,-2.531868219,4.629189014,7.370550156,-1.602105618,1.121540666,-0.243946403,-9,14,94,89,262
1695161326932442900,-5.133168221,-2.347514868,5.317522049,1.293408871,-0.487626314,-0.355993867,129,313,667,414,814,-2.512714624,4.629189014,7.433996201,-1.617160797,1.119675398,-0.271392047,-7,16,95,88,256
1695161326994429000,-4.733336926,-2.078166962,6.476315498,0.772741199,-0.428738147,-0.249941811,127,305,650,404,800,-4.367023945,4.310760021,9.673771858,-1.048663139,0.674416542,-0.472171485,-7,-24,97,90,251
1695161326995429000,-4.726154327,-2.084152699,6.562506676,0.731572747,-0.416747332,-0.242214397,130,301,650,402,800,-4.505887508,4.340687752,10.01973438,-0.996969402,0.549445629,-0.450055122,-3,-21,98,89,249
1695161326996429000,-4.712985992,-2.090138197,6.637924194,0.689738154,-0.404090345,-0.233954057,128,303,650,402,803,-4.559757233,4.361038208,10.22802925,-0.964194477,0.465110272,-0.434200615,-2,-28,97,88,249
1695161326997429000,-4.697423935,-2.076969862,6.682217121,0.647770226,-0.392765701,-0.226759583,127,302,650,402,797,-4.587290287,4.381389141,10.50934792,-0.915964782,0.340539038,-0.40928638,5,-24,99,91,250
1695161326998429000,-4.677073002,-2.035071373,6.678625584,0.605935633,-0.384638578,-0.222496167,127,299,652,398,796,-4.556165695,4.395754337,10.76193619,-0.869067371,0.22183001,-0.383705974,6,-23,95,90,254
1695161327063390700,-3.854664803,-2.133233786,6.514622688,-0.272857577,-0.29350841,-0.226626337,142,309,648,399,784,-2.096123695,4.165910721,9.429563522,-0.560104132,-0.034640122,-0.431402773,22,-25,97,92,252
1695161327064390700,-3.890577793,-2.357091665,6.581660271,-0.264464021,-0.249675348,-0.197715163,142,304,647,398,784,-2.015917778,4.139574528,9.252392769,-0.532392025,-0.020117918,-0.430603355,18,-27,94,89,252
1695161327065390700,-3.934870481,-2.571372509,6.634333134,-0.245012254,-0.209705979,-0.169203669,143,303,644,397,783,-1.939303398,4.121618271,9.082404137,-0.503214419,-0.007194487,-0.427539051,19,-28,99,90,251
1695161327066390700,-3.988739967,-2.770091295,6.676231384,-0.215967834,-0.17453292,-0.141491577,140,309,644,401,782,-1.866280198,4.119224072,8.925583839,-0.473370582,0.004796324,-0.422209799,20,-24,94,92,248
1695161327067390700,-4.048594952,-2.946065187,6.716932774,-0.179196015,-0.144555897,-0.114179172,141,305,649,397,782,-1.800439715,4.127603531,8.791508675,-0.443926483,0.015854517,-0.414215922,20,-25,95,89,252
1695161327132324400,-4.080916882,-3.029862165,7.374141216,0.165473193,0.082869835,0.056490045,133,314,637,397,773,-2.092532396,4.602852821,8.486248016,-0.199180692,0.044499233,-0.198514536,20,-28,94,84,250
1695161327133324400,-4.078522682,-3.005920172,7.432799339,0.131632462,0.090064317,0.045831546,136,313,634,395,776,-2.11767149,4.601655483,8.532935143,-0.195716694,0.03996937,-0.191053599,19,-25,94,88,248
1695161327134324400,-4.079719543,-2.993949175,7.471106529,0.107917301,0.094594181,0.038770292,140,309,635,396,775,-2.138022184,4.594472885,8.576030731,-0.191719756,0.034773353,-0.18385911,20,-25,96,89,249
1695161327135324400,-4.079719543,-2.981978178,7.528567314,0.071811639,0.101255737,0.028378254,138,309,634,397,772,-2.152387381,4.582501888,8.61912632,-0.187456369,0.02917764,-0.176664621,19,-24,94,89,250
1695161327136324400,-4.092887878,-2.986766577,7.593210697,0.03543951,0.10778407,0.018385911,137,313,631,397,772,-2.158372879,4.568136692,8.65743351,-0.182393566,0.023315467,-0.169736609,20,-25,94,88,249
1695161327207281600,-4.412513733,-3.779247284,8.410830498,-0.097125575,0.033973966,0.035173047,137,314,631,395,766,-2.261323452,4.004302502,9.196128845,0.20624195,-0.039702907,-0.004529862,20,-25,94,83,266
1695161327208281600,-4.400542736,-3.751713991,8.423998833,-0.092196018,0.026246555,0.040102605,142,315,630,392,764,-2.273294449,3.97796607,9.217676163,0.244479313,-0.042900458,0.008260337,19,-29,95,89,250
1695161327209281600,-4.390965939,-3.730166197,8.429984093,-0.090597242,0.021849923,0.043166921,142,311,629,393,766,-2.282871246,3.957615376,9.235632896,0.284581929,-0.04623124,0.02158346,17,-25,94,86,250
1695161327210281600,-4.38378334,-3.695450306,8.43956089,-0.09033078,0.015854517,0.047030624,140,314,629,395,765,-2.296039343,3.94085598,9.25957489,0.326683015,-0.049828485,0.03543951,17,-25,95,83,252
1695161327211281600,-4.377797604,-3.667917013,8.453926086,-0.092595711,0.01079173,0.050228179,138,315,628,397,765,-2.300827742,3.936067581,9.266757965,0.355727404,-0.052626338,0.045032158,19,-25,94,86,248
1695161327276243700,-4.633977413,-4.045003891,8.862137794,-0.154148534,-0.085001536,-0.005462481,138,306,618,391,753,-2.767697096,3.745728493,9.424775124,1.66112709,-0.363854527,0.535722792,18,-29,89,84,252
1695161327277243700,-4.644751072,-4.04979229,8.904036522,-0.152549773,-0.090064317,-0.007860643,136,309,624,387,751,-2.798821688,3.732560396,9.398438454,1.755321503,-0.390367538,0.569297075,14,-28,87,84,252
1695161327278243700,-4.657919407,-4.04979229,8.949525833,-0.151750386,-0.094860643,-0.010125575,140,315,620,387,750,-2.831143618,3.721786499,9.366117477,1.851647854,-0.419278711,0.602738142,11,-27,88,84,253
1695161327279243700,-4.675876141,-4.045003891,8.990227699,-0.151883617,-0.098990813,-0.011724349,136,310,620,386,750,-2.857479811,3.7169981,9.343372345,1.917197585,-0.439929545,0.624854505,16,-25,89,87,253
1695161327280243700,-4.697423935,-4.036623955,9.024943352,-0.152816221,-0.102987751,-0.013456355,137,313,623,383,749,-2.8969841,3.7169981,9.309853554,2.016587973,-0.472437978,0.656696796,10,-32,88,83,251
1695161327352224600,-5.396530628,-3.020285368,8.868123055,-0.418745786,-0.379042894,-0.109516084,132,303,605,371,719,-3.412934542,4.689043999,8.938752174,3.459748745,-1.699630857,0.928355217,-12,-8,68,85,263
1695161327353224600,-5.426458359,-2.890998602,8.774748802,-0.458448708,-0.413549751,-0.12616998,131,304,605,369,718,-3.397372246,4.774038315,8.916007042,3.482131481,-1.783966303,0.946208298,-12,-5,68,84,249
1695161327354224600,-5.438429356,-2.762908697,8.668207169,-0.50174886,-0.451520681,-0.144156188,132,299,602,367,718,-3.377021551,4.853046894,8.878896713,3.498918772,-1.866303205,0.963395119,-12,-7,65,83,248
1695161327355224600,-5.42765522,-2.627636433,8.562862396,-0.548646212,-0.492955565,-0.163607955,134,302,603,365,716,-3.34230566,4.924872875,8.832210541,3.511042833,-1.945176005,0.978183806,-12,-5,62,90,249
1695161327356224600,-5.401319027,-2.487575531,8.458714485,-0.599673808,-0.537721276,-0.184658498,132,302,602,369,718,-3.302801132,4.969165802,8.767566681,3.519836187,-2.02098465,0.9905743,-12,-7,64,84,247
1695161327421160500,-4.57771349,-0.359130263,5.670666695,-2.373780966,-1.572128534,-0.5999403,106,256,520,316,624,-2.236184359,4.558559895,6.679822922,3.423509836,-2.442661524,0.988708973,-14,-4,25,81,244
1695161327422160500,-4.509479046,-0.351947635,5.544970989,-2.478900433,-1.609699726,-0.605402768,101,253,513,316,621,-2.23139596,4.520252705,6.512228489,3.41298461,-2.432535887,0.97125572,-17,-9,18,79,242
1695161327423160500,-4.437653065,-0.357933164,5.42166996,-2.583886862,-1.643007636,-0.608067393,101,255,506,310,615,-2.226607561,4.466383457,6.343437195,3.404990673,-2.421744108,0.951537549,-16,-5,17,81,242
1695161327424160500,-4.384980202,-0.37110126,5.347449303,-2.653699875,-1.662992239,-0.60820061,97,247,505,310,607,-2.226607561,4.419696331,6.16506958,3.398728848,-2.411218882,0.93075341,-17,-7,17,81,241
1695161327425160500,-4.310760021,-0.404620081,5.240907669,-2.755887985,-1.68910563,-0.606468618,95,245,495,300,600,-2.23139596,4.381389141,5.990292549,3.393000126,-2.402692318,0.908637047,-19,-5,14,79,241
1695161327487122000,-3.49673152,-1.48679924,3.90135169,-3.912601709,-1.534823895,-0.026246555,74,191,346,186,405,-2.373851061,3.944447279,3.068169594,3.238718033,-2.592147112,0.165339977,-27,-9,-1,64,224
1695161327488122000,-3.452438831,-1.52510643,3.8654387,-3.937782526,-1.508977056,0.028111791,68,186,336,186,397,-2.373851061,3.937264681,2.911349297,3.242448568,-2.622523546,0.102321595,-29,-5,2,65,225
1695161327489122000,-3.404554844,-1.578976035,3.816357613,-3.961897373,-1.480198979,0.085001536,72,183,328,175,383,-2.358288765,3.952826977,2.767697096,3.250442743,-2.653033495,0.03757121,-26,-6,0,66,225
1695161327490122000,-3.367444754,-1.59932673,3.769670486,-3.98348093,-1.448889732,0.144289434,66,185,314,169,371,-2.342726469,3.928884983,2.583343744,3.267362833,-2.676615715,-0.031575806,-30,-8,-2,65,222
1695161327491122000,-3.331531763,-1.630451322,3.708618402,-4.003332138,-1.414382815,0.203177631,68,179,310,168,364,-2.322375536,3.896563292,2.385822058,3.295474529,-2.702462435,-0.094061248,-25,-4,1,64,222
1695161327558082200,-4.08809948,-3.878606796,1.11450088,-4.365721226,-0.758751929,1.907471657,45,118,155,85,208,-1.279700756,6.58405447,-1.095347285,4.365588188,-3.007695198,-0.570096493,-27,-5,-22,46,215
1695161327559082200,-4.138377666,-4.101267338,0.933738649,-4.365721226,-0.690137804,2.016454697,46,118,153,77,206,-1.179144382,6.848613739,-1.126471877,4.365588188,-3.008228064,-0.564900458,-29,-6,-24,47,213
1695161327560082200,-4.193444252,-4.355052948,0.763750315,-4.365721226,-0.620990813,2.123306274,43,117,145,77,203,-1.084573388,7.110779285,-1.175553083,4.365588188,-3.007828474,-0.561169982,-29,-5,-21,44,215
1695161327561082200,-4.240131378,-4.626794815,0.63326633,-4.365721226,-0.551044405,2.23029089,43,117,139,74,195,-1.029506683,7.278373241,-1.213860273,4.365588188,-3.009427071,-0.559038281,-24,-2,-24,46,212
1695161327562082200,-4.278438568,-4.904522419,0.535104096,-4.365721226,-0.481497705,2.334877491,45,115,131,70,190,-0.980425596,7.533355713,-1.272518158,4.365588188,-3.014623165,-0.557039797,-22,-2,-20,46,213
1695161327626042300,-5.543774128,-9.414001465,-0.616506934,-4.365721226,0.159744263,3.047264814,27,113,60,42,142,-1.341950059,9.490615845,-1.929726601,1.973554254,-3.217134714,-1.326183796,-28,-2,-27,38,206
1695161327627042300,-5.590460777,-9.319430351,-0.766144514,-4.365721226,0.14495559,3.008761168,26,110,59,36,142,-1.388636947,9.40681839,-1.927332401,1.782500744,-3.222730398,-1.39199996,-25,-3,-32,33,200
1695161327628042300,-5.628767967,-9.205705643,-0.901416957,-4.365721226,0.127502292,2.961197615,27,107,58,40,142,-1.44968915,9.321824074,-1.945288897,1.590247989,-3.22805953,-1.459814668,-23,-4,-28,40,202
1695161327629042300,-5.665878296,-9.080010414,-1.021126986,-4.365721226,0.107117914,2.906439543,28,111,58,42,140,-1.529894829,9.245209694,-1.981201887,1.398661613,-3.233388901,-1.5296278,-26,-2,-31,37,202
1695161327630042300,-5.699397087,-8.960299492,-1.132457376,-4.365721226,0.084202148,2.844619989,26,109,58,41,140,-1.625662923,9.181763649,-2.043451071,1.209872842,-3.239650726,-1.602105618,-26,-2,-24,39,196
1695161327659022600,-6.961141586,-8.717288017,-2.020706177,-3.493189812,-0.496686071,1.666323066,24,91,43,39,129,-5.53419733,10.29506683,-4.753687382,-0.678679943,-4.04117012,-3.499984503,-22,-2,-30,33,202
1695161327660022600,-7.000645638,-8.732851028,-1.987187386,-3.380076647,-0.532791734,1.631283402,26,85,43,43,128,-5.626373768,10.28189945,-4.818330765,-0.685208261,-4.10072422,-3.588050604,-19,-3,-24,33,205
1695161327661022600,-7.049726963,-8.753201485,-1.938106298,-3.222464085,-0.581820786,1.589581847,28,83,42,44,128,-5.676652431,10.25077438,-4.857835293,-0.685474753,-4.15521574,-3.66852212,-19,-3,-25,32,200
1695161327662022600,-7.078457355,-8.752004623,-1.89620769,-3.099491596,-0.618725896,1.562669158,24,85,40,38,127,-5.702988625,10.20887566,-4.871003151,-0.680545151,-4.202912807,-3.740600348,-21,-3,-27,32,196
1695161327663022600,-7.113173485,-8.754398346,-1.862688899,-2.971856117,-0.65549767,1.537222028,26,85,41,41,128,-5.706579685,10.17775154,-4.859032154,-0.675482392,-4.230091572,-3.783900499,-15,-6,-31,33,204
1695161327697001000,-7.46871233,-7.167042732,-1.593341231,-0.78486526,-1.137261868,1.59197998,26,74,35,42,127,-3.441664934,8.655038834,-1.491587639,-0.617260337,-2.679546595,-3.199015141,-14,-9,-25,32,214
1695161327698001000,-7.534552574,-7.076063156,-1.618480325,-0.731306314,-1.150451779,1.614229679,25,77,39,39,127,-3.520673513,8.652645111,-1.322796464,-0.647770226,-2.51593852,-3.111615658,-12,-7,-23,32,199
1695161327699001000,-7.618350029,-7.000645638,-1.654393315,-0.685874403,-1.163508415,1.638611078,27,75,37,38,127,-3.594893932,8.65743351,-1.22702837,-0.671218991,-2.407621622,-3.055924892,-11,-7,-21,31,201
1695161327700001000,-7.717709064,-6.939593792,-1.703474522,-0.647770226,-1.177098036,1.665257335,26,69,39,39,115,-3.730166197,8.676587105,-1.092953086,-0.710255742,-2.245346069,-2.976119518,-12,-2,-23,31,202
1695161327701001000,-7.826645374,-6.890512466,-1.754949808,-0.616594136,-1.190954089,1.694168448,24,67,40,40,127,-3.892971992,8.694543839,-0.979228497,-0.754222035,-2.084669113,-2.902442694,-13,-5,-24,31,199
1695161327731984500,-8.402450562,-5.603629112,-2.062604666,-1.031875968,-1.190954089,2.200180531,27,67,35,38,117,-7.000645638,7.929595947,0.337582439,-2.002598763,-0.028911179,-2.45891571,-14,-5,-27,34,200
1695161327732984500,-8.43357563,-5.565321922,-2.069787264,-1.086500764,-1.165373683,2.211638689,21,67,35,40,115,-7.116764545,7.860164165,0.357933164,-2.069614172,0.027045943,-2.476635456,-13,-5,-27,32,200
1695161327733984500,-8.468291283,-5.53419733,-2.067393064,-1.140725851,-1.138460875,2.221764088,24,65,33,42,115,-7.189787865,7.812280178,0.378283858,-2.113047361,0.06261868,-2.490091801,-13,-5,-25,33,201
1695161327734984500,-8.51019001,-5.507861137,-2.062604666,-1.194284916,-1.110482335,2.230957031,25,64,33,38,115,-7.295132637,7.733271599,0.404620081,-2.176198959,0.113779478,-2.511941671,-15,-7,-24,31,197
1695161327735984500,-8.559270859,-5.487510204,-2.055422068,-1.246911168,-1.08197093,2.23921752,27,65,35,38,114,-7.399280548,7.65426302,0.429759204,-2.236286402,0.162941799,-2.536056757,-12,-7,-28,31,202
1695161327775366100,-9.885659218,-5.583278179,-2.327163935,-1.61063242,-0.74796015,2.298372269,23,64,33,36,114,-9.63666153,6.09683466,0.810437262,-2.507944822,0.921826959,-3.23232317,-19,-7,-23,31,200
1695161327776366100,-9.97065258,-5.594052315,-2.354697466,-1.597842336,-0.745961726,2.298905134,24,66,38,40,114,-9.765948296,6.002263546,0.81642276,-2.459715366,0.956600308,-3.268295527,-18,-7,-23,30,197
1695161327777366100,-10.05205631,-5.601234913,-2.381033659,-1.582254171,-0.745162308,2.298638582,28,64,33,36,117,-9.895236015,5.901707172,0.815225661,-2.402958632,0.991107166,-3.302536011,-18,-5,-19,31,200
1695161327778366100,-10.12986755,-5.601234913,-2.407369852,-1.563735127,-0.745961726,2.297839403,18,64,37,40,115,-10.03050804,5.810727596,0.815225661,-2.337008953,1.025081158,-3.334378242,-17,-7,-23,30,199
1695161327779366100,-10.20528507,-5.600037575,-2.430114746,-1.543084264,-0.747427285,2.295974016,20,64,33,34,115,-10.12148762,5.761646271,0.81642276,-2.289179325,1.046931148,-3.355162382,-23,-9,-25,31,200
1695161327989238200,-10.83017159,-5.252878666,-2.412158251,-0.813243508,-0.806848407,2.015921831,22,64,38,38,112,-12.22599125,5.849034786,0.612915635,-0.034240428,1.262366056,-3.555675268,-24,-9,-23,30,199
1695161327990238200,-10.84214211,-5.216965675,-2.396595955,-0.768078089,-0.804983199,1.991007566,25,64,37,32,110,-12.24275017,5.9436059,0.617704034,0.086333841,1.25117445,-3.533292532,-26,-8,-21,30,199
1695161327991238200,-10.8565073,-5.175066948,-2.381033659,-0.723978519,-0.802052021,1.965294003,22,64,38,39,112,-12.24873543,6.010643482,0.624886632,0.164407358,1.242647767,-3.5158391,-25,-8,-22,31,201
1695161327992238200,-10.86847878,-5.134365559,-2.363077164,-0.681078076,-0.798454821,1.939580321,22,63,38,38,113,-12.2559185,6.118382454,0.63326633,0.276454836,1.227725863,-3.485728979,-24,-7,-21,32,200
1695161327993238200,-10.87925243,-5.087678432,-2.351106167,-0.639110267,-0.793924928,1.913600326,24,64,38,40,111,-12.24873543,6.234501362,0.635660529,0.382107198,1.21027267,-3.451088667,-27,-9,-25,29,199
1695161328097207800,-10.75235939,-4.301183224,-2.128445387,-0.157479316,-0.57555896,1.406122565,28,64,40,42,110,-10.39562416,7.544129372,0.919373453,0.970456362,0.653898895,-1.849516153,-27,-7,-20,31,198
1695161328098207800,-10.723629,-4.273650169,-2.121262789,-0.147353753,-0.558105648,1.378410339,20,63,41,38,112,-10.28309631,7.515398979,0.934935749,0.942611039,0.62645334,-1.722813129,-27,-8,-23,31,198
1695161328099207800,-10.69370174,-4.242525578,-2.111685991,-0.138160795,-0.53971976,1.3504318,17,64,42,34,110,-10.18014526,7.477091789,0.944512546,0.911701381,0.599807084,-1.594245076,-30,-11,-23,31,196
1695161328100207800,-10.66257763,-4.217386246,-2.103306293,-0.129633993,-0.521067381,1.322320104,22,64,36,36,110,-10.08677197,7.425616741,0.946906745,0.878793299,0.573960185,-1.464344621,-30,-7,-23,28,198
1695161328101207800,-10.61948204,-4.188655853,-2.085349798,-0.118709028,-0.495353758,1.284215927,24,67,40,36,112,-10.00297451,7.369352818,0.948103845,0.844819248,0.548512995,-1.33391118,-28,-8,-21,31,199
1695161328206118200,-9.934740067,-3.701435804,-1.722628117,0.048096478,-0.120307811,0.660027564,24,64,42,35,110,-9.396044731,5.470750809,1.046266198,0.503480852,0.223428801,0.737701356,-30,-9,-21,31,198
1695161328207118200,-9.904812813,-3.664325714,-1.701080322,0.057289433,-0.10178867,0.623921931,20,64,42,40,110,-9.385271072,5.388150692,1.049857497,0.510675371,0.214102611,0.808846831,-29,-9,-25,30,194
1695161328208118200,-9.878476143,-3.624821424,-1.678335428,0.066215925,-0.083802447,0.587949455,26,64,41,38,110,-9.376891136,5.306747913,1.049857497,0.520267963,0.204776406,0.875329256,-28,-11,-24,30,199
1695161328209118200,-9.852140427,-3.590105534,-1.655590534,0.07500919,-0.066349156,0.551977038,24,63,40,40,111,-9.3685112,5.230133533,1.053448796,0.532125592,0.195716694,0.93754822,-27,-4,-21,29,197
1695161328210118200,-9.822212219,-3.552995205,-1.632845521,0.083402753,-0.049162328,0.516537488,24,64,43,40,110,-9.355342865,5.160701752,1.060631394,0.54584837,0.186923429,0.994571209,-30,-9,-21,28,200
1695161328323078100,-9.498994827,-3.015496969,-1.235408068,0.175998464,0.180661559,0.049162328,24,63,44,38,112,-8.893261909,4.60764122,1.180341482,0.854811668,0.067148544,1.290344596,-27,-10,-21,32,196
1695161328324078100,-9.48343277,-2.993949175,-1.221042871,0.180261865,0.185324654,0.036238898,21,64,47,39,110,-8.875306129,4.611232281,1.186326981,0.860940278,0.061686065,1.276088834,-27,-7,-17,31,198
1695161328325078100,-9.467870712,-2.971204281,-1.206677675,0.184658498,0.188921899,0.024248086,24,63,43,42,111,-8.857349396,4.612429619,1.18991828,0.864670753,0.055823889,1.26010108,-31,-4,-22,36,197
1695161328326078100,-9.452308655,-2.955641985,-1.192312479,0.188921899,0.191986218,0.013589587,24,62,43,40,110,-8.839392662,4.617218018,1.192312479,0.866136253,0.049562022,1.242781043,-29,-9,-20,33,198
1695161328327078100,-9.431957245,-2.934094191,-1.182735682,0.193052068,0.194384381,0.003863706,26,64,44,42,110,-8.823830605,4.625597477,1.206677675,0.865470171,0.042900458,1.224395037,-27,-3,-23,31,196
1695161328437012600,-9.114726067,-2.67432332,-0.916979253,0.283649325,0.133231238,-0.073543645,22,64,44,43,110,-8.671798706,4.868608952,1.368286252,0.324151605,-0.179196015,0.849482417,-28,-18,-20,33,196
1695161328438012600,-9.11233139,-2.665943623,-0.902614057,0.291776419,0.130433381,-0.076474734,28,64,44,39,110,-8.665813446,4.865017891,1.361103654,0.275655419,-0.192918837,0.832562029,-29,-8,-18,34,196
1695161328439012600,-9.109937668,-2.657563925,-0.887051702,0.300169975,0.128168449,-0.079405814,24,64,44,42,110,-8.662221909,4.862623692,1.355118155,0.243147001,-0.201712102,0.821503818,-28,-9,-22,31,192
1695161328440012600,-9.108740807,-2.651578426,-0.879869103,0.308830023,0.125770286,-0.082470134,21,63,43,41,110,-8.656236649,4.853046894,1.350329757,0.194517612,-0.214635521,0.805116415,-30,-5,-18,32,194
1695161328441012600,-9.109937668,-2.643198729,-0.875080705,0.31788975,0.123771824,-0.085667685,21,62,43,40,108,-8.650250435,4.839878559,1.333570361,0.146287903,-0.226626337,0.789661527,-29,-9,-20,32,195
1695161328545918600,-9.118317604,-2.384624958,-0.787692368,0.409153163,0.154415011,-0.179995403,24,64,48,42,110,-8.688557625,4.363432407,1.030703783,-0.462445647,-0.209173039,0.595943332,-28,-9,-17,32,196
1695161328546918600,-9.124302864,-2.369062662,-0.78050977,0.405955583,0.160810098,-0.188522205,25,63,48,39,110,-8.694543839,4.335899353,1.015141487,-0.475102603,-0.195983157,0.591147006,-26,-7,-18,32,196
1695161328547918600,-9.130288124,-2.352303267,-0.775721371,0.402358323,0.167471662,-0.197448686,25,63,41,40,109,-8.698134422,4.316745758,1.006761789,-0.482696772,-0.186656967,0.588215888,-28,-7,-17,37,196
1695161328548918600,-9.137471199,-2.336740971,-0.769735873,0.398094952,0.174799383,-0.206908107,20,63,47,39,110,-8.702922821,4.286818027,0.995987892,-0.49242267,-0.172267988,0.584218979,-29,-9,-19,34,193
1695161328549918600,-9.147047997,-2.323572636,-0.768538773,0.393298626,0.182393566,-0.216767237,20,64,48,36,110,-8.708909035,4.260481834,0.982819796,-0.500283301,-0.157612562,0.580488503,-28,-6,-19,32,195
1695161328651856300,-9.338583946,-2.214636564,-0.713472128,0.33867383,0.319355279,-0.453918815,22,64,47,39,108,-8.877699852,3.763684988,0.833182216,-0.360923439,0.085667685,0.600473166,-29,-13,-17,32,193
1695161328652856300,-9.346963882,-2.213439465,-0.707486629,0.341338426,0.325084209,-0.467108727,25,64,45,42,101,-8.883685112,3.751713991,0.841561913,-0.345468611,0.091263399,0.605136335,-31,-9,-18,31,189
1695161328653856300,-9.357737541,-2.208651066,-0.708683729,0.344669193,0.330546677,-0.480165392,20,63,47,39,110,-8.892065048,3.743334293,0.841561913,-0.330280244,0.096192956,0.609799385,-27,-8,-18,34,194
1695161328654856300,-9.3685112,-2.200271368,-0.713472128,0.348266453,0.335476279,-0.492955565,24,62,44,43,110,-8.898050308,3.736151695,0.843956113,-0.315358341,0.099790201,0.614595711,-28,-7,-17,31,195
1695161328655856300,-9.375694275,-2.196680069,-0.715866327,0.352263391,0.340139359,-0.505346119,21,63,47,42,110,-8.900444984,3.726574898,0.852335811,-0.300569683,0.102454826,0.61965853,-28,-8,-17,31,194
1695161328741809300,-9.452308655,-1.89740479,-0.684741676,0.390500784,0.357725888,-0.653632462,22,63,47,42,109,-8.774748802,3.582922935,0.89303726,-0.163741201,0.036105666,0.665090322,-26,-5,-18,33,196
1695161328742809300,-9.448717117,-1.877054095,-0.685938776,0.386503845,0.354128659,-0.657762647,25,64,47,42,110,-8.761581421,3.572149038,0.900219858,-0.163874418,0.031176111,0.663891256,-29,-9,-17,36,198
1695161328743809300,-9.443928719,-1.856703401,-0.684741676,0.382107198,0.349865228,-0.661359906,22,64,43,45,109,-8.750806808,3.557783842,0.899022758,-0.164407358,0.026379786,0.662425697,-27,-7,-18,32,196
1695161328744809300,-9.441534042,-1.839944005,-0.676361978,0.377310872,0.345068902,-0.66482389,21,64,44,42,110,-8.736441612,3.545812607,0.906205356,-0.165339977,0.021849923,0.660560489,-28,-9,-15,31,194
1695161328745809300,-9.440337181,-1.82198751,-0.675164878,0.372248113,0.340006143,-0.668287933,20,63,47,39,109,-8.729259491,3.537432909,0.906205356,-0.166139349,0.019052068,0.65909493,-29,-9,-17,33,196
1695161328805791600,-9.22725296,-1.587355733,-0.586579442,0.311494648,0.244745791,-0.701062799,23,63,47,40,109,-8.530540466,3.287238836,0.92895025,-0.188122496,-0.048229709,0.56876421,-29,-7,-20,32,192
1695161328806791600,-9.217676163,-1.575384736,-0.581790984,0.309496164,0.241814688,-0.700130105,25,64,51,43,110,-8.518569946,3.292027235,0.939724147,-0.187456369,-0.051693719,0.561436415,-31,-5,-17,31,196
1695161328807791600,-9.211690903,-1.563413739,-0.575805485,0.307630926,0.238883615,-0.698931098,21,64,47,41,108,-8.51019001,3.301604033,0.945709646,-0.187189892,-0.055290964,0.553575814,-27,-7,-17,31,193
1695161328808791600,-9.208099365,-1.553836942,-0.568622887,0.305632442,0.235552832,-0.696932614,21,63,45,40,110,-8.500613213,3.309983969,0.945709646,-0.186790213,-0.059421133,0.545182228,-28,-8,-16,34,195
1695161328809791600,-9.202114105,-1.546654344,-0.560243189,0.303633988,0.232088804,-0.694401205,19,59,45,39,107,-8.491036415,3.319560766,0.956483603,-0.185857579,-0.063684531,0.536388993,-29,-9,-17,36,192
1695161328874752000,-9.003395081,-1.441309452,-0.475249052,0.230090365,0.155880541,-0.519468606,21,64,46,42,109,-8.344989777,3.408146143,1.010353088,-0.120174579,-0.120973967,0.310428768,-28,-9,-17,37,194
1695161328875752000,-8.990227699,-1.431732655,-0.469263524,0.22382848,0.152949467,-0.506012261,24,62,49,43,109,-8.336610794,3.410540342,1.009155989,-0.112846859,-0.119108729,0.297638565,-29,-8,-19,32,193
1695161328876752000,-8.980650902,-1.419761658,-0.465672225,0.217033699,0.150684536,-0.492822349,25,61,53,44,110,-8.329427719,3.414131641,1.012747288,-0.105252676,-0.116577335,0.284715146,-29,-11,-18,36,196
1695161328877752000,-8.968679428,-1.408987641,-0.462080926,0.209839195,0.148686066,-0.479499221,25,64,51,44,111,-8.32463932,3.415328741,1.016338587,-0.099790201,-0.114445634,0.276188374,-29,-7,-19,37,193
1695161328878752000,-8.960299492,-1.398213744,-0.462080926,0.202245027,0.147220522,-0.466309339,26,63,49,42,110,-8.321047783,3.42011714,1.023521185,-0.091663092,-0.110715166,0.262865245,-28,-11,-18,35,192
1695161328912728400,-8.876502991,-1.380257249,-0.404620081,0.016254211,0.133231238,-0.238883615,26,64,51,43,110,-8.346187592,3.649960518,1.127668977,0.03996937,0.019185297,-0.013456355,-25,-7,-17,35,194
1695161328913728400,-8.874108315,-1.387439847,-0.398634583,0.008660031,0.130699843,-0.227292493,20,64,49,42,108,-8.353369713,3.666719913,1.131260276,0.04276723,0.025180703,-0.025846859,-30,-8,-15,35,194
1695161328914728400,-8.872911453,-1.395819545,-0.396240383,0.001865237,0.128035218,-0.215834603,25,64,45,40,110,-8.361749649,3.683479309,1.134851575,0.045032158,0.030776417,-0.038104136,-24,-11,-18,36,196
1695161328915728400,-8.872911453,-1.406593442,-0.391451985,-0.0042634,0.124970905,-0.204509944,21,64,47,43,109,-8.371326447,3.705027103,1.142034173,0.046897396,0.035572741,-0.049828485,-29,-8,-17,33,193
1695161328916728400,-8.875306129,-1.419761658,-0.390254885,-0.009725881,0.121506892,-0.1931853,26,59,48,41,107,-8.379706383,3.725377798,1.15520227,0.047963247,0.040102605,-0.06115314,-28,-8,-17,35,195
1695161328943687200,-8.883685112,-1.629254222,-0.378283858,-0.042234302,0.008260337,0.013056661,18,62,51,44,109,-8.485051155,3.986345768,1.26533556,0.023182238,0.030909648,-0.209705979,-27,-7,-16,34,198
1695161328944687200,-8.884882927,-1.641225219,-0.381875157,-0.043166921,0.002398162,0.023448698,20,64,48,42,108,-8.486248016,3.988739967,1.26653266,0.022516079,0.028245023,-0.215301678,-33,-8,-14,36,196
1695161328945687200,-8.887276649,-1.654393315,-0.384269387,-0.044099543,-0.00319755,0.033707503,22,63,47,44,110,-8.491036415,3.989937067,1.260547161,0.022249617,0.02571363,-0.220764175,-31,-7,-20,36,194
1695161328946687200,-8.886079788,-1.663970232,-0.390254885,-0.045298621,-0.008660031,0.043833077,22,63,48,38,110,-8.493430138,3.994725466,1.258152962,0.022249617,0.023315467,-0.225826949,-28,-11,-18,40,194
1695161328947687200,-8.884882927,-1.678335428,-0.397437483,-0.046764165,-0.01385605,0.053425729,25,64,47,42,108,-8.497021675,3.999513865,1.256955862,0.022649311,0.021050537,-0.230756521,-25,-5,-16,36,195
1695161328976691400,-8.876502991,-2.035071373,-0.475249052,-0.049428791,-0.068747319,0.214102611,20,63,51,39,108,-8.495824814,4.231751442,1.235408068,0.119375192,-0.013589587,-0.297638565,-28,-6,-17,32,195
1695161328977691400,-8.881291389,-2.060210466,-0.478840351,-0.044898927,-0.069413476,0.223162323,25,56,47,40,110,-8.489839554,4.250905037,1.237802267,0.127102599,-0.013189893,-0.298837662,-26,-6,-18,34,193
1695161328978691400,-8.886079788,-2.087743998,-0.48243165,-0.03956968,-0.070346095,0.232621744,24,64,51,44,108,-8.488641739,4.270058632,1.246181965,0.134696782,-0.012390506,-0.299637049,-35,-6,-12,35,196
1695161328979691400,-8.888473511,-2.120065689,-0.48482585,-0.033174578,-0.071145482,0.242214397,28,61,45,39,110,-8.480262756,4.288015366,1.242590666,0.142157733,-0.011324655,-0.299903542,-28,-7,-15,32,194
1695161328980691400,-8.892065048,-2.148796082,-0.486022949,-0.026246555,-0.072211333,0.252339959,21,63,44,44,107,-8.47786808,4.301183224,1.248576164,0.14695406,-0.010392036,-0.299903542,-28,-7,-15,36,189
1695161329011648400,-8.962694168,-2.49116683,-0.598550439,0.094061248,-0.070079632,0.441395104,24,63,48,41,108,-8.449137688,4.554968834,1.26413846,0.245811626,-0.010525269,-0.24461256,-26,-12,-17,32,190
1695161329012648400,-8.967482567,-2.498349428,-0.606930137,0.092995405,-0.067281775,0.447656959,26,62,49,44,110,-8.444349289,4.564545631,1.258152962,0.247810096,-0.01292343,-0.240882084,-26,-9,-15,38,192
1695161329013648400,-8.973467827,-2.510320425,-0.618901134,0.091263399,-0.064483918,0.453252673,20,64,49,42,108,-8.444349289,4.574122429,1.256955862,0.249275655,-0.015454824,-0.237284839,-30,-8,-17,33,192
1695161329014648400,-8.985439301,-2.519897223,-0.63087213,0.088598773,-0.061819296,0.458315462,22,62,45,40,109,-8.441955566,4.584896088,1.254561663,0.250474721,-0.017986218,-0.233554363,-30,-11,-16,30,193
1695161329015648400,-8.997409821,-2.531868219,-0.644040287,0.085401222,-0.059421133,0.462712079,22,63,47,40,109,-8.444349289,4.595670223,1.249773264,0.251140893,-0.021050537,-0.230090365,-27,-9,-14,34,196
1695161329042631300,-9.059659004,-2.71382761,-0.827196658,-0.004529862,-0.073676877,0.415148526,25,64,48,45,108,-8.415618896,4.695029736,1.137245774,0.191852987,-0.073943339,-0.183459431,-29,-7,-17,33,193
1695161329043631300,-9.063250542,-2.722207308,-0.845153213,-0.008526799,-0.078739658,0.404223561,24,59,43,43,108,-8.410830498,4.696226597,1.126471877,0.187056661,-0.075275652,-0.181727409,-30,-11,-16,34,189
1695161329044631300,-9.064447403,-2.724601507,-0.857124209,-0.011324655,-0.082603365,0.395563543,18,64,51,42,110,-8.4012537,4.696226597,1.11569798,0.182393566,-0.076741189,-0.179862171,-29,-4,-14,33,192
1695161329045631300,-9.066842079,-2.730587006,-0.869095206,-0.013722817,-0.086600304,0.387036771,21,62,51,40,110,-8.396465302,4.692635536,1.110909581,0.177730486,-0.077807046,-0.178130165,-31,-8,-17,35,190
1695161329046631300,-9.071630478,-2.737769604,-0.873883605,-0.015987748,-0.090730481,0.37811026,22,64,51,42,110,-8.390480042,4.687847137,1.100135684,0.173200607,-0.078473203,-0.176264927,-26,-11,-13,33,196
1695161329075635300,-9.087192535,-2.743755102,-0.994790792,-0.013589587,-0.140958652,0.238750383,20,64,47,42,108,-8.43357563,4.64594841,0.970848799,0.108849928,-0.060753446,-0.129633993,-27,-5,-15,34,195
1695161329076635300,-9.088389397,-2.740163803,-1.001973391,-0.013589587,-0.141091883,0.233021438,22,64,49,42,107,-8.437167168,4.649539471,0.969651699,0.105252676,-0.058222052,-0.126569673,-25,-9,-15,36,196
1695161329077635300,-9.089587212,-2.732981205,-1.009155989,-0.013589587,-0.140825421,0.227558956,25,64,52,44,109,-8.435969353,4.650736809,0.972045898,0.10285452,-0.056490045,-0.124571204,-27,-5,-17,33,194
1695161329078635300,-9.090784073,-2.729389906,-1.015141487,-0.013589587,-0.140292495,0.222229704,25,60,51,41,108,-8.437167168,4.650736809,0.974440098,0.099124044,-0.053825419,-0.121773355,-27,-8,-15,35,194
1695161329079635300,-9.088389397,-2.728192806,-1.024718285,-0.013589587,-0.139626339,0.216900453,22,60,45,43,110,-8.434772491,4.648342609,0.978031397,0.095393561,-0.051160797,-0.118975498,-23,-8,-12,35,192
1695161329106617400,-9.089587212,-2.619256735,-1.065419793,-0.039436448,-0.058754977,0.115111791,21,60,48,43,107,-8.470685959,4.548983097,1.022324085,0.025447167,-0.014655436,-0.043033689,-30,-7,-16,36,195
