timestamp,left_data_Ac_X,left_data_Ac_Y,left_data_Ac_Z,left_data_Gy_X,left_data_Gy_Y,left_data_Gy_Z,left_data_flex_1,left_data_flex_2,left_data_flex_3,left_data_flex_4,left_data_flex_5,right_data_Ac_X,right_data_Ac_Y,right_data_Ac_Z,right_data_Gy_X,right_data_Gy_Y,right_data_Gy_Z,right_data_flex_1,right_data_flex_2,right_data_flex_3,right_data_flex_4,right_data_flex_5
1695161189128743500,-9.083600998,-2.124854088,-0.142454997,-0.104453288,0.047030624,-0.035039816,1,18,-5,14,49,-8.780735016,3.525461912,0.987608194,0.08513476,-0.124038287,0.055823889,-50,-9,-46,5,176
1695161189129743500,-9.085995674,-2.127248287,-0.141257897,-0.103920363,0.048362937,-0.033973966,-1,17,-6,14,46,-8.77834034,3.509899616,0.997184992,0.090197548,-0.12616998,0.057422664,-50,-8,-47,8,176
1695161189130743500,-9.089587212,-2.130839586,-0.14844051,-0.103653908,0.049428791,-0.032908116,-1,17,-5,10,46,-8.774748802,3.505111217,1.00317049,0.095660031,-0.127635539,0.059421133,-54,-5,-55,6,176
1695161189131743500,-9.096769333,-2.130839586,-0.154426008,-0.103120975,0.050094947,-0.031842265,-3,18,-4,12,47,-8.774748802,3.505111217,0.987608194,0.103254206,-0.130699843,0.061952524,-53,-2,-47,5,175
1695161189132743500,-9.102754593,-2.133233786,-0.154426008,-0.10258805,0.049961712,-0.030776417,-1,20,-1,13,46,-8.77834034,3.499125719,0.984016895,0.107650839,-0.133098006,0.063284837,-51,-9,-44,6,176
1695161189189437800,-9.126696587,-2.181117773,-0.114921682,-0.084468603,0.048762634,-0.006261868,-1,22,-1,14,47,-8.82263279,3.527856112,1.017535686,0.206375197,-0.179995403,0.117643185,-70,-12,-41,2,172
1695161189190437800,-9.131484985,-2.184709072,-0.116118781,-0.083535992,0.049562022,-0.004796324,1,19,-5,13,46,-8.828619003,3.541024208,1.019929886,0.208906576,-0.185857579,0.119108729,-66,-7,-49,4,174
1695161189191437800,-9.133879662,-2.189497471,-0.111330383,-0.08233691,0.050094947,-0.003330781,-1,22,-1,13,46,-8.820239067,3.539827108,1.023521185,0.213436455,-0.192385912,0.121107198,-67,-7,-49,5,178
1695161189192437800,-9.139864922,-2.196680069,-0.110133275,-0.081004597,0.050627869,-0.001865237,-1,20,-6,12,46,-8.815450668,3.550601006,1.034295082,0.218765706,-0.198914245,0.123638593,-72,-9,-47,3,174
1695161189193437800,-9.143456459,-2.201468468,-0.107739076,-0.079539053,0.051294025,-0.000399694,-1,20,-5,11,46,-8.808267593,3.562572241,1.048660398,0.222229704,-0.205309346,0.125503823,-73,-8,-49,2,176
1695161189231411600,-9.161413193,-2.286462545,-0.035913024,-0.029577335,0.048895866,0.022915773,0,23,-4,13,46,-8.724471092,3.647566319,1.170764685,0.172134757,-0.283782542,0.123638593,-76,-7,-49,-1,176
1695161189232411600,-9.168595314,-2.288856745,-0.027533319,-0.02691271,0.04729709,0.023448698,-1,22,-5,14,46,-8.724471092,3.649960518,1.164779186,0.169203669,-0.282716691,0.122839205,-85,-4,-49,-1,176
1695161189233411600,-9.17098999,-2.290053844,-0.021547815,-0.024114855,0.04516539,0.023981623,-1,18,-6,10,44,-8.723274231,3.643975019,1.15400517,0.165073514,-0.280318528,0.121506892,-77,-9,-49,-1,177
1695161189234411600,-9.173383713,-2.288856745,-0.01436521,-0.021183766,0.042633995,0.024514547,-2,18,-5,13,46,-8.724471092,3.633201122,1.15280807,0.161476254,-0.277254194,0.120307811,-76,-4,-49,-1,178
1695161189235411600,-9.173383713,-2.287659645,-0.009576807,-0.017986218,0.039702907,0.025047474,-1,23,-3,13,46,-8.725667953,3.633201122,1.15280807,0.158012256,-0.273656964,0.11924196,-77,-9,-56,-1,178
1695161189267413100,-9.124302864,-2.219424963,0.045489833,0.009326187,-0.011990812,0.016787136,-3,19,-5,13,46,-8.711302757,3.676296711,1.349132657,-0.003464012,-0.198248088,0.042500768,-78,-10,-49,-1,178
1695161189268413100,-9.121908188,-2.212242365,0.045489833,0.005862175,-0.01185758,0.015987748,-3,17,-4,13,44,-8.700529099,3.672705412,1.357512355,-0.018119449,-0.190653905,0.034773353,-77,-12,-41,-2,177
1695161189269413100,-9.115922928,-2.208651066,0.039504327,0.001598775,-0.011191424,0.015321592,-2,21,-5,13,46,-8.699332237,3.669114113,1.361103654,-0.02571363,-0.186656967,0.030509954,-78,-7,-49,-1,172
1695161189270413100,-9.113529205,-2.201468468,0.04189853,-0.003064318,-0.010125575,0.014522205,-1,21,-5,13,46,-8.698134422,3.663128614,1.364694953,-0.036638591,-0.180261865,0.023981623,-78,-10,-57,-2,177
1695161189271413100,-9.108740807,-2.196680069,0.039504327,-0.008127105,-0.008526799,0.01398928,-3,25,-7,12,46,-8.696937561,3.653551817,1.363497853,-0.046897396,-0.173999995,0.017586524,-77,-7,-49,-2,176
1695161189301393700,-9.162610054,-2.329558372,-0.004788403,-0.065416537,0.029577335,0.012523737,-1,21,-5,13,46,-8.665813446,3.465606928,1.329979062,-0.08753293,-0.028245023,-0.059687596,-80,-7,-49,-5,176
1695161189302393700,-9.168595314,-2.33793807,-0.004788403,-0.062485453,0.02917764,0.012257273,-2,18,-5,13,46,-8.686163902,3.464409828,1.333570361,-0.088199086,-0.02384839,-0.061286367,-76,-7,-56,-3,180
1695161189303393700,-9.17098999,-2.345120668,-0.004788403,-0.059021436,0.028644716,0.01185758,-1,21,-6,13,46,-8.698134422,3.45842433,1.332373261,-0.089264929,-0.020251149,-0.06261868,-80,-5,-55,-4,178
1695161189304393700,-9.175778389,-2.349909067,-0.003591303,-0.055157732,0.027445635,0.011324655,-2,19,-3,13,45,-8.708909035,3.450044632,1.331176162,-0.09033078,-0.017320061,-0.063418068,-81,-7,-49,-6,176
1695161189305393700,-9.175778389,-2.349909067,-0.008379706,-0.050894335,0.026113322,0.010924961,-1,22,-5,12,45,-8.711302757,3.442862034,1.335964561,-0.091663092,-0.014788668,-0.063551299,-80,-7,-57,-4,179
1695161189334351900,-9.157821655,-2.260126352,-0.046686932,-0.003330781,-0.012523737,-0.005329249,0,19,-5,12,46,-8.771158218,3.336320162,1.289277673,0.018918836,-0.033307809,-0.011324655,-76,-7,-60,-6,179
1695161189335351900,-9.153033257,-2.255337954,-0.049081136,-0.004796324,-0.013323124,-0.006528331,-1,18,-6,7,46,-8.773551941,3.347094059,1.291671872,0.026113322,-0.035572741,-0.008127105,-77,-7,-49,-11,173
1695161189336351900,-9.147047997,-2.245761156,-0.056263741,-0.007327718,-0.01398928,-0.007993874,-1,18,-3,12,46,-8.77235508,3.353079557,1.294066072,0.030643184,-0.037171517,-0.005995406,-81,-6,-49,-3,180
1695161189337351900,-9.142259598,-2.237381458,-0.068234749,-0.009592649,-0.014122511,-0.009059724,-2,21,-5,13,46,-8.76636982,3.360262156,1.294066072,0.037437979,-0.039036751,-0.002931087,-80,-8,-49,-2,177
1695161189338351900,-9.139864922,-2.23259306,-0.071826048,-0.011990812,-0.014255743,-0.010125575,-1,20,-5,11,43,-8.765172005,3.373430252,1.292868972,0.043433387,-0.040502299,0.000133231,-77,-12,-49,-4,179
1695161189372330400,-9.10634613,-2.218227863,-0.105344877,-0.030643184,0.005462481,-0.019984685,0,18,-5,13,45,-8.743624687,3.423708439,1.331176162,0.013456355,-0.051160797,0.024781011,-77,-7,-56,-6,178
1695161189373330400,-9.101557732,-2.218227863,-0.107739076,-0.029843798,0.006528331,-0.020384381,-1,23,-6,13,46,-8.742427826,3.42011714,1.332373261,0.011058193,-0.051027562,0.025313934,-76,-8,-57,-2,178
1695161189374330400,-9.101557732,-2.218227863,-0.104147777,-0.028911179,0.007327718,-0.020917306,-1,18,-3,12,46,-8.74003315,3.414131641,1.335964561,0.009059724,-0.050894335,0.02571363,-81,-7,-56,-6,172
1695161189375330400,-9.099164009,-2.218227863,-0.10295067,-0.02797856,0.007860643,-0.02158346,-1,18,-6,13,46,-8.738836288,3.406949043,1.332373261,0.007727412,-0.050761104,0.025980091,-78,-5,-49,-2,176
1695161189376330400,-9.096769333,-2.214636564,-0.10295067,-0.027045943,0.008393568,-0.022382848,-1,21,-5,12,46,-8.737639427,3.394978046,1.333570361,0.006794794,-0.050494641,0.026246555,-77,-8,-57,-4,176
1695161189407333000,-9.078812599,-2.142810583,-0.104147777,-0.007727412,0.002931087,-0.024914242,-1,21,-4,13,46,-8.737639427,3.399766445,1.327584863,0.060620211,-0.03996937,0.025180703,-77,-7,-60,-5,174
1695161189408333000,-9.075222015,-2.138022184,-0.106541976,-0.007194487,0.003064318,-0.024514547,-1,22,-5,12,47,-8.736441612,3.404554844,1.325190663,0.062485453,-0.038770292,0.024914242,-79,-7,-56,-5,178
1695161189409333000,-9.0740242,-2.135627985,-0.10295067,-0.006528331,0.003064318,-0.024114855,-1,18,-6,13,45,-8.735244751,3.408146143,1.326387763,0.064217456,-0.03757121,0.024647778,-76,-3,-47,-5,177
1695161189410333000,-9.075222015,-2.129642487,-0.105344877,-0.0063951,0.003330781,-0.023715161,-1,21,-5,12,46,-8.729259491,3.411737442,1.326387763,0.065416537,-0.036238898,0.024381317,-77,-9,-49,-4,174
1695161189411333000,-9.072827339,-2.124854088,-0.108936176,-0.0063951,0.003730475,-0.023182238,-1,25,-5,12,45,-8.72806263,3.42011714,1.331176162,0.066215925,-0.034773353,0.024114855,-79,-7,-56,-5,173
1695161189443290600,-9.096769333,-2.070984364,-0.14963761,-0.042101074,0.007460949,-0.017719755,-1,11,-6,12,46,-8.768763542,3.470395327,1.314416766,0.060486984,-0.0042634,0.030243492,-76,-7,-49,-1,178
1695161189444290600,-9.101557732,-2.070984364,-0.155623108,-0.044099543,0.006928025,-0.01718683,0,22,-5,12,46,-8.77235508,3.470395327,1.312022567,0.060220521,-0.004529862,0.031176111,-76,-6,-54,-3,178
1695161189445290600,-9.103952408,-2.073378563,-0.155623108,-0.045698319,0.006261868,-0.016787136,-1,17,-6,13,46,-8.77834034,3.472789526,1.312022567,0.059954058,-0.005062787,0.031842265,-76,-3,-49,-1,176
1695161189446290600,-9.109937668,-2.079364061,-0.159214407,-0.046897396,0.005595712,-0.016387442,-1,20,-1,11,46,-8.781931877,3.476380825,1.315613866,0.059687596,-0.005862175,0.032241959,-78,-4,-49,-2,176
1695161189447290600,-9.11233139,-2.085349798,-0.161608621,-0.047563553,0.004929556,-0.015854517,-1,22,-3,13,46,-8.7843256,3.481169224,1.318008065,0.058888208,-0.007327718,0.032774884,-76,-3,-48,-2,177
1695161189479271400,-9.096769333,-2.11527729,-0.146046311,-0.011324655,0.018785605,0.011724349,-1,23,-4,13,46,-8.752004623,3.448847532,1.341950059,0.048895866,-0.030776417,0.040901989,-76,-9,-55,10,177
1695161189480271400,-9.096769333,-2.114080191,-0.141257897,-0.010392036,0.020384381,0.01292343,-1,22,-5,12,46,-8.750806808,3.450044632,1.343147159,0.049428791,-0.029843798,0.041301683,-77,-9,-55,-4,173
1695161189481271400,-9.096769333,-2.109291792,-0.142454997,-0.009859112,0.02158346,0.01398928,0,20,-3,13,46,-8.749609947,3.446453333,1.351526856,0.050094947,-0.028511487,0.041434918,-76,-8,-55,-4,176
1695161189482271400,-9.096769333,-2.105700493,-0.14844051,-0.009592649,0.022649311,0.014788668,0,17,-5,13,49,-8.747216225,3.444059134,1.351526856,0.050894335,-0.02691271,0.041434918,-79,-7,-56,-24,176
1695161189483271400,-9.095572472,-2.102109194,-0.152031809,-0.009725881,0.02358193,0.015721286,0,19,-5,12,46,-8.743624687,3.445256233,1.350329757,0.051960181,-0.025180703,0.041168455,-76,-7,-57,-4,176
1695161189514248600,-9.078812599,-2.169146776,-0.064643443,-0.01612098,0.029577335,0.022249617,-4,21,-4,13,46,-8.765172005,3.459621429,1.371877551,0.05808882,0.001465544,0.036238898,-79,-11,-49,-4,169
1695161189515248600,-9.080010414,-2.169146776,-0.063446343,-0.015588055,0.029310873,0.022649311,-1,21,-3,12,46,-8.763975143,3.459621429,1.368286252,0.057555895,0.001332312,0.036372125,-76,-5,-47,-4,174
1695161189516248600,-9.080010414,-2.169146776,-0.064643443,-0.014921899,0.028777948,0.022915773,-1,21,-5,13,46,-8.768763542,3.45842433,1.368286252,0.057022974,0.000799387,0.036638591,-76,-6,-56,-3,174
1695161189517248600,-9.081207275,-2.172738075,-0.059855044,-0.014255743,0.028378254,0.023182238,-1,22,-6,13,44,-8.771158218,3.454833031,1.367089152,0.056490045,0.000133231,0.036905054,-76,-9,-55,-5,174
1695161189518248600,-9.084798813,-2.178723574,-0.056263741,-0.013589587,0.02797856,0.023182238,-1,21,-5,13,46,-8.769960403,3.45603013,1.361103654,0.05595712,-0.000799387,0.037304748,-78,-8,-57,-2,176
1695161189550250700,-9.114726067,-2.208651066,-0.068234749,-0.014921899,0.017053599,0.02917764,-1,21,-7,13,46,-8.77834034,3.424905539,1.343147159,0.057022974,-0.004130168,0.040369064,-76,-7,-47,-2,176
1695161189551250700,-9.11233139,-2.209848166,-0.064643443,-0.015321592,0.017719755,0.029977029,-1,20,-6,12,46,-8.779537201,3.42131424,1.33955586,0.057422664,-0.00319755,0.040102605,-76,-5,-49,-4,173
1695161189552250700,-9.11233139,-2.214636564,-0.063446343,-0.015454824,0.01825268,0.030776417,-1,21,-6,11,45,-8.781931877,3.42011714,1.33716166,0.057822358,-0.002264931,0.039836142,-76,-7,-49,-3,177
1695161189553250700,-9.11233139,-2.221819162,-0.063446343,-0.015321592,0.019185297,0.03130934,0,19,-5,13,44,-8.785523415,3.42131424,1.33835876,0.05808882,-0.001465544,0.03956968,-78,-6,-55,-4,177
1695161189554250700,-9.113529205,-2.227804661,-0.063446343,-0.01505513,0.020251149,0.032108728,-2,19,-3,12,46,-8.787917137,3.423708439,1.333570361,0.058222052,-0.000666156,0.039303213,-76,-12,-49,-4,173
1695161189588209500,-9.081207275,-2.244564056,-0.068234749,-0.008127105,0.048096478,0.040768761,-2,19,-12,11,46,-8.815450668,3.400963545,1.362300754,0.03996937,-0.023182238,0.039836142,-76,-9,-49,-2,178
1695161189589209500,-9.081207275,-2.238578558,-0.06584055,-0.008926493,0.049562022,0.04103522,-1,22,-9,11,46,-8.819042206,3.398569345,1.365892053,0.039836142,-0.025980091,0.040102605,-77,-8,-69,-3,176
1695161189590209500,-9.081207275,-2.237381458,-0.068234749,-0.010125575,0.050761104,0.04103522,-1,22,-9,12,47,-8.813055992,3.397372246,1.369483352,0.03996937,-0.028644716,0.039836142,-76,-7,-57,-1,178
1695161189591209500,-9.083600998,-2.233790159,-0.069431849,-0.011457887,0.052226644,0.040502299,2,19,-6,11,46,-8.814253807,3.394978046,1.373074651,0.040369064,-0.03130934,0.039702907,-76,-8,-56,-4,176
1695161189592209500,-9.085995674,-2.23139596,-0.073023155,-0.01292343,0.053958651,0.039436448,-1,25,-13,12,47,-8.811859131,3.392583847,1.379060149,0.040901989,-0.033840735,0.039436448,-76,-9,-57,-2,174
1695161189622187300,-9.157821655,-2.221819162,-0.098162271,-0.016520673,0.036905054,0.01079173,-1,21,-21,11,47,-8.773551941,3.416525841,1.349132657,0.050094947,-0.039836142,0.031442571,-78,-9,-49,-1,177
1695161189623187300,-9.159018517,-2.213439465,-0.10295067,-0.016387442,0.035039816,0.008660031,-1,23,-17,11,46,-8.768763542,3.415328741,1.351526856,0.049828485,-0.038903523,0.031176111,-75,-4,-49,-2,176
1695161189624187300,-9.162610054,-2.206256866,-0.110133275,-0.016653905,0.033041347,0.0063951,-1,19,-15,7,45,-8.765172005,3.416525841,1.351526856,0.04969525,-0.037704438,0.030909648,-76,-3,-44,-3,178
1695161189625187300,-9.159018517,-2.202665567,-0.119710088,-0.017453292,0.031042879,0.0042634,-1,18,-17,8,45,-8.763975143,3.416525841,1.352723956,0.049562022,-0.036372125,0.030776417,-78,-9,-45,-2,176
1695161189626187300,-9.159018517,-2.199074268,-0.128089786,-0.018519141,0.029310873,0.001998469,-1,18,-19,12,44,-8.762778282,3.42011714,1.351526856,0.049428791,-0.035173047,0.030776417,-76,-8,-55,-4,176
1695161189670160400,-9.120711327,-2.161964178,-0.116118781,-0.044366002,0.008127105,-0.024114855,0,21,-13,8,45,-8.7843256,3.427299738,1.323993564,0.063418068,-0.015721286,0.037304748,-76,-5,-57,-2,177
1695161189671160400,-9.124302864,-2.161964178,-0.116118781,-0.044099543,0.007993874,-0.025047474,-1,21,-17,8,45,-8.7843256,3.430891037,1.319205165,0.064217456,-0.015321592,0.037970904,-76,-8,-61,-2,181
1695161189672160400,-9.126696587,-2.157175779,-0.120907187,-0.043966308,0.007993874,-0.026113322,-1,19,-15,8,46,-8.7843256,3.433285236,1.314416766,0.065016843,-0.015188362,0.038637057,-76,-5,-49,-2,177
1695161189673160400,-9.129091263,-2.15358448,-0.120907187,-0.043833077,0.007860643,-0.026779478,-1,18,-21,8,46,-8.786720276,3.433285236,1.312022567,0.065949462,-0.01505513,0.03956968,-76,-7,-56,-2,174
1695161189674160400,-9.1326828,-2.152387381,-0.124498487,-0.043566614,0.007727412,-0.02797856,-3,21,-20,10,41,-8.789113998,3.435679436,1.315613866,0.06674885,-0.015188362,0.040369064,-77,-11,-57,-3,172
1695161189716133200,-9.135076523,-2.099714994,-0.1316811,-0.059287902,0.01185758,-0.034107197,-1,19,-21,10,45,-8.775946617,3.41892004,1.282094955,0.059021436,-0.028911179,0.046897396,-77,-7,-49,-1,176
1695161189717133200,-9.131484985,-2.098517895,-0.129286885,-0.059954058,0.012124043,-0.033973966,-1,19,-21,10,42,-8.775946617,3.415328741,1.277306557,0.058488514,-0.029977029,0.046630934,-76,-11,-49,-4,176
1695161189718133200,-9.133879662,-2.096123695,-0.125695586,-0.060620211,0.012257273,-0.033840735,-1,18,-13,12,46,-8.780735016,3.411737442,1.274912357,0.05808882,-0.030643184,0.046497703,-78,-8,-57,-1,177
1695161189719133200,-9.1326828,-2.097320795,-0.126892686,-0.06115314,0.012523737,-0.033707503,-3,17,-19,9,46,-8.783128738,3.406949043,1.267729759,0.05808882,-0.03130934,0.04623124,-78,-7,-49,-2,176
1695161189720133200,-9.127894402,-2.096123695,-0.123301387,-0.061952524,0.013056661,-0.033441041,-2,22,-22,11,45,-8.786720276,3.402160645,1.261744261,0.05768913,-0.031842265,0.045964777,-76,-9,-49,-3,173
1695161189755113600,-9.096769333,-2.04704237,-0.132878199,-0.062485453,0.043699846,-0.014122511,-1,21,-17,10,46,-8.768763542,3.435679436,1.273715258,0.055823889,-0.009859112,0.029444104,-76,-9,-47,-2,176
1695161189756113600,-9.095572472,-2.04584527,-0.137666598,-0.062751912,0.045431852,-0.013056661,-1,19,-20,12,46,-8.767566681,3.441664934,1.274912357,0.055157732,-0.008526799,0.02904441,-77,-7,-49,-2,172
1695161189757113600,-9.097966194,-2.04584527,-0.138863698,-0.063284837,0.047030624,-0.011990812,-1,19,-17,8,46,-8.76636982,3.441664934,1.271321058,0.054624807,-0.007327718,0.028911179,-75,-7,-49,-4,173
1695161189758113600,-9.097966194,-2.04584527,-0.141257897,-0.063684531,0.048362937,-0.01079173,-1,20,-15,13,46,-8.763975143,3.440467834,1.273715258,0.054091886,-0.006794794,0.028777948,-75,-6,-49,-1,177
1695161189759113600,-9.101557732,-2.04464817,-0.138863698,-0.064217456,0.049562022,-0.009725881,1,21,-19,7,46,-8.762778282,3.440467834,1.278503656,0.053425729,-0.005462481,0.028777948,-76,-5,-47,-2,178
1695161189808081900,-9.141061783,-2.074575663,-0.119710088,-0.057555895,0.02384839,-0.005462481,-1,21,-18,8,46,-8.796297073,3.423708439,1.302445769,0.052359879,-0.008660031,0.034240428,-75,-5,-48,-2,177
1695161189809081900,-9.13866806,-2.073378563,-0.123301387,-0.057156201,0.022116385,-0.005062787,-2,22,-20,10,48,-8.796297073,3.424905539,1.306037068,0.052626338,-0.009592649,0.034240428,-76,-8,-49,-2,177
1695161189810081900,-9.139864922,-2.075772762,-0.123301387,-0.057156201,0.020384381,-0.004663093,-1,21,-20,7,49,-8.802282333,3.427299738,1.304839969,0.052759573,-0.010924961,0.034240428,-76,-8,-49,-2,178
1695161189811081900,-9.141061783,-2.075772762,-0.124498487,-0.057422664,0.018785605,-0.0042634,-2,19,-16,10,46,-8.802282333,3.432088137,1.307234168,0.0528928,-0.012257273,0.034240428,-76,-7,-49,-2,177
1695161189812081900,-9.139864922,-2.074575663,-0.126892686,-0.05768913,0.017320061,-0.003730475,-1,20,-22,8,46,-8.803479195,3.433285236,1.307234168,0.052759573,-0.013456355,0.034240428,-76,-7,-49,-2,176
1695161189850056300,-9.137471199,-2.120065689,-0.120907187,-0.063151613,0.021716693,0.015987748,-3,23,-20,8,44,-8.801085472,3.428496838,1.286883354,0.053692192,-0.016787136,0.038237367,-74,-7,-45,-1,177
1695161189851056300,-9.135076523,-2.121262789,-0.117315881,-0.062751912,0.022116385,0.017053599,-1,25,-24,10,46,-8.799888611,3.429693937,1.284489155,0.054225113,-0.015721286,0.038637057,-76,-9,-49,-6,173
1695161189852056300,-9.135076523,-2.123656988,-0.120907187,-0.062085759,0.022516079,0.017852986,-1,21,-17,11,46,-8.795100212,3.429693937,1.279700756,0.054624807,-0.014788668,0.039036751,-76,-7,-49,-2,177
1695161189853056300,-9.133879662,-2.128445387,-0.118512981,-0.061419602,0.022915773,0.018918836,-1,17,-20,8,43,-8.796297073,3.427299738,1.274912357,0.055024505,-0.01385605,0.039436448,-76,-11,-49,-4,176
1695161189854056300,-9.130288124,-2.130839586,-0.117315881,-0.060753446,0.023049004,0.019718224,-2,11,-20,8,46,-8.795100212,3.424905539,1.279700756,0.055557426,-0.01292343,0.03996937,-76,-9,-62,-6,174
1695161189888057600,-9.135076523,-2.175132275,-0.090979666,-0.051826954,0.010924961,0.024781011,-1,13,-22,8,46,-8.789113998,3.409343243,1.296460271,0.057955589,-0.013722817,0.04516539,-78,-6,-47,-1,177
1695161189889057600,-9.131484985,-2.175132275,-0.095768064,-0.051960181,0.009859112,0.024381317,-3,18,-21,6,43,-8.789113998,3.408146143,1.296460271,0.057156201,-0.014921899,0.044898927,-76,-8,-49,-2,176
1695161189890057600,-9.130288124,-2.171540976,-0.10175357,-0.051960181,0.008926493,0.024114855,0,19,-22,6,44,-8.791508675,3.404554844,1.29885447,0.056490045,-0.01612098,0.044366002,-75,-7,-48,-4,176
1695161189891057600,-9.130288124,-2.171540976,-0.106541976,-0.052093416,0.007860643,0.023715161,-3,18,-17,10,46,-8.793902397,3.403357744,1.30124867,0.05595712,-0.017453292,0.043833077,-76,-5,-49,-3,176
1695161189892057600,-9.129091263,-2.171540976,-0.108936176,-0.052359879,0.006794794,0.02358193,-1,17,-21,9,45,-8.795100212,3.400963545,1.29885447,0.055424199,-0.018652374,0.043166921,-73,-5,-49,-1,173
1695161189924030900,-9.142259598,-2.223016262,-0.159214407,-0.054491576,0.003863706,0.024248086,-1,20,-23,13,46,-8.777143478,3.402160645,1.242590666,0.053958651,-0.022915773,0.023981623,-76,-5,-49,-1,176
1695161189925030900,-9.13866806,-2.227804661,-0.160411507,-0.053692192,0.004529862,0.024114855,-1,18,-24,7,44,-8.777143478,3.406949043,1.246181965,0.054091886,-0.022382848,0.023182238,-73,-5,-47,-2,174
1695161189926030900,-9.137471199,-2.23259306,-0.164002821,-0.0528928,0.005329249,0.023715161,-2,20,-17,10,46,-8.779537201,3.408146143,1.244984865,0.053958651,-0.021849923,0.022382848,-76,-9,-48,-1,177
1695161189927030900,-9.139864922,-2.237381458,-0.165199921,-0.051960181,0.006128637,0.023182238,-1,17,-21,8,45,-8.779537201,3.410540342,1.242590666,0.053825419,-0.021183766,0.021849923,-76,-5,-48,-4,177
1695161189928030900,-9.13866806,-2.239775658,-0.16639702,-0.051560488,0.006794794,0.022782542,-1,17,-17,7,45,-8.780735016,3.411737442,1.240196466,0.053825419,-0.020917306,0.02158346,-75,-5,-48,-2,176
1695161189961992600,-9.154230118,-2.221819162,-0.180762231,-0.062085759,0.013456355,-0.000266462,-1,23,-19,8,44,-8.783128738,3.430891037,1.222239971,0.048229709,-0.015321592,0.022915773,-76,-8,-49,-1,176
1695161189962992600,-9.157821655,-2.223016262,-0.18555063,-0.062218986,0.013722817,-0.001332312,-1,17,-19,11,46,-8.785523415,3.433285236,1.22583127,0.048229709,-0.015188362,0.022915773,-78,-3,-47,-1,177
1695161189963992600,-9.162610054,-2.225410461,-0.180762231,-0.062218986,0.01385605,-0.001998469,0,23,-21,10,46,-8.781931877,3.434482336,1.229422569,0.048096478,-0.015188362,0.023049004,-76,-7,-48,-1,176
1695161189964992600,-9.161413193,-2.226607561,-0.178368032,-0.061952524,0.014255743,-0.002797856,2,21,-22,10,45,-8.7843256,3.436876535,1.230619669,0.047963247,-0.014921899,0.023049004,-76,-7,-47,-4,176
1695161189965992600,-9.161413193,-2.23019886,-0.179565132,-0.061286367,0.014388974,-0.003330781,-2,17,-19,10,45,-8.787917137,3.435679436,1.230619669,0.047830015,-0.014921899,0.023182238,-77,-7,-49,-1,177
1695161191119463400,-9.147047997,-2.121262789,-0.117315881,-0.056889739,0.018519141,0.008926493,-3,19,-24,9,45,-8.787917137,3.434482336,1.203086376,0.036771823,-0.024114855,0.066615619,-76,-5,-47,-1,176
1695161191120463400,-9.149441719,-2.121262789,-0.114921682,-0.056889739,0.018652374,0.009059724,-1,18,-19,10,45,-8.787917137,3.434482336,1.200692177,0.03650536,-0.023715161,0.06674885,-75,-6,-48,-1,173
1695161191121463400,-9.149441719,-2.121262789,-0.111330383,-0.056756508,0.018785605,0.009459418,-1,18,-19,12,44,-8.787917137,3.436876535,1.197100878,0.036238898,-0.023448698,0.067015313,-75,-11,-48,-1,177
1695161191122463400,-9.149441719,-2.124854088,-0.105344877,-0.056756508,0.018519141,0.009725881,-1,17,-22,4,45,-8.786720276,3.435679436,1.195903778,0.036105666,-0.023049004,0.067148544,-75,-7,-46,-3,176
1695161191123463400,-9.149441719,-2.124854088,-0.10295067,-0.056889739,0.01825268,0.010258805,-1,17,-17,7,44,-8.787917137,3.434482336,1.193509579,0.035839204,-0.022782542,0.067281775,-76,-9,-47,-1,174
1695161191229401000,-9.17098999,-2.123656988,-0.132878199,-0.053026035,0.008393568,0.017320061,-2,23,-16,8,44,-8.787917137,3.406949043,1.176750183,0.022915773,-0.023981623,0.059154671,-76,-8,-49,-4,175
1695161191230401000,-9.172186852,-2.126051188,-0.137666598,-0.052759573,0.007327718,0.017586524,-1,7,-21,13,45,-8.7843256,3.403357744,1.181538582,0.021983154,-0.023981623,0.058355279,-76,-8,-49,-2,174
1695161191231401000,-9.172186852,-2.126051188,-0.138863698,-0.05249311,0.006528331,0.017852986,0,19,-17,10,45,-8.779537201,3.403357744,1.180341482,0.021316998,-0.02384839,0.057955589,-75,-11,-49,-3,175
1695161191232401000,-9.173383713,-2.124854088,-0.136469498,-0.052359879,0.005595712,0.017986218,-2,17,-22,12,45,-8.77235508,3.403357744,1.180341482,0.020384381,-0.023715161,0.057022974,-74,-9,-46,-1,177
1695161191233401000,-9.173383713,-2.128445387,-0.134075299,-0.052093416,0.004529862,0.018119449,-1,17,-19,10,45,-8.769960403,3.402160645,1.181538582,0.019718224,-0.023715161,0.055823889,-76,-8,-45,-1,176
1695161191302383900,-9.125499725,-2.149993181,-0.150834709,-0.046630934,-0.009326187,0.015588055,-1,22,-19,8,51,-8.791508675,3.369838953,1.150413871,0.018119449,-0.015188362,0.041301683,-76,-7,-49,-1,178
1695161191303383900,-9.123106003,-2.148796082,-0.14963761,-0.046897396,-0.009326187,0.015454824,-2,18,-19,6,46,-8.797493935,3.371036053,1.148019671,0.018918836,-0.014921899,0.040369064,-76,-8,-44,-1,174
1695161191304383900,-9.123106003,-2.147598982,-0.14844051,-0.047163859,-0.009192956,0.015188362,-1,17,-17,7,44,-8.798690796,3.371036053,1.15161097,0.019451762,-0.014655436,0.03956968,-76,-7,-47,-1,176
1695161191305383900,-9.125499725,-2.142810583,-0.14963761,-0.047430322,-0.009059724,0.014788668,-3,20,-19,10,45,-8.799888611,3.374627352,1.15280807,0.019851454,-0.014255743,0.038770292,-74,-6,-47,-1,176
1695161191306383900,-9.126696587,-2.144007683,-0.153228909,-0.047563553,-0.008660031,0.014388974,-2,19,-19,12,45,-8.799888611,3.374627352,1.156399369,0.020384381,-0.01385605,0.038104136,-76,-7,-48,0,174
1695161191371344100,-9.130288124,-2.166752577,-0.190339029,-0.045565084,-0.011058193,0.007727412,-2,19,-20,8,45,-8.783128738,3.434482336,1.180341482,0.027712099,-0.006528331,0.032508422,-72,-8,-44,-1,176
1695161191372344100,-9.135076523,-2.161964178,-0.193930343,-0.044765696,-0.011457887,0.007460949,-1,21,-19,8,46,-8.774748802,3.436876535,1.181538582,0.027445635,-0.007061256,0.033041347,-73,-7,-49,-3,174
1695161191373344100,-9.13866806,-2.160767078,-0.187944829,-0.043966308,-0.011591119,0.007194487,2,17,-22,11,46,-8.77235508,3.439270735,1.183932781,0.027045943,-0.007860643,0.033707503,-71,-8,-47,-1,176
1695161191374344100,-9.139864922,-2.159569979,-0.18674773,-0.043033689,-0.011724349,0.006928025,-1,20,-17,11,46,-8.773551941,3.439270735,1.182735682,0.026779478,-0.008526799,0.034107197,-73,-7,-44,-4,174
1695161191375344100,-9.139864922,-2.159569979,-0.18555063,-0.042367533,-0.01185758,0.006794794,-1,18,-19,12,41,-8.775946617,3.442862034,1.182735682,0.026379786,-0.009326187,0.034773353,-75,-8,-47,-1,172
1695161191438281500,-9.123106003,-2.138022184,-0.223857865,-0.058222052,0.002931087,0.000666156,-1,17,-19,11,46,-8.802282333,3.435679436,1.192312479,0.034906585,-0.029444104,0.04623124,-76,-7,-46,-1,174
1695161191439281500,-9.124302864,-2.139219284,-0.220266551,-0.059021436,0.003730475,0.0,-4,19,-19,9,44,-8.801085472,3.436876535,1.192312479,0.036638591,-0.029577335,0.046630934,-74,-10,-48,-3,173
1695161191440281500,-9.125499725,-2.142810583,-0.222660765,-0.059021436,0.003996937,-0.000266462,-1,19,-18,10,44,-8.799888611,3.439270735,1.18991828,0.039036751,-0.029710567,0.047430322,-75,-9,-47,-1,176
1695161191441281500,-9.125499725,-2.145204782,-0.226252064,-0.059287902,0.004396631,-0.000799387,-1,17,-20,7,44,-8.799888611,3.441664934,1.18872118,0.041834611,-0.029710567,0.048229709,-76,-9,-48,-1,176
1695161191442281500,-9.126696587,-2.146401882,-0.229843363,-0.059287902,0.004663093,-0.001465544,0,22,-17,7,46,-8.796297073,3.441664934,1.18991828,0.044232771,-0.029577335,0.049029093,-76,-9,-47,-1,173
1695161191508241600,-9.120711327,-2.096123695,-0.210689753,-0.043566614,0.002931087,-0.011324655,-3,19,-21,12,45,-8.811859131,3.501519918,1.183932781,0.065150075,-0.023715161,0.065949462,-75,-7,-45,-1,174
1695161191509241600,-9.118317604,-2.092532396,-0.211886853,-0.044366002,0.003330781,-0.011724349,-2,18,-19,10,46,-8.814253807,3.503914118,1.18872118,0.064217456,-0.023315467,0.066349156,-76,-3,-48,-1,173
1695161191510241600,-9.117119789,-2.090138197,-0.208295554,-0.045298621,0.003730475,-0.011990812,-1,17,-19,8,46,-8.811859131,3.506308317,1.18752408,0.063018374,-0.022915773,0.066615619,-75,-7,-47,-1,180
1695161191511241600,-9.115922928,-2.087743998,-0.213083953,-0.046497703,0.004529862,-0.012257273,-1,21,-20,10,42,-8.81066227,3.505111217,1.197100878,0.061819296,-0.022782542,0.06674885,-73,-6,-45,-1,176
1695161191512241600,-9.115922928,-2.086546898,-0.217872351,-0.04769678,0.005329249,-0.012257273,-1,21,-21,10,45,-8.809465408,3.502717018,1.200692177,0.060620211,-0.022516079,0.066882081,-76,-9,-47,-2,176
1695161191578225500,-9.133879662,-2.11527729,-0.178368032,-0.042900458,0.019185297,-0.007327718,-2,18,-21,12,44,-8.779537201,3.459621429,1.235408068,0.045565084,-0.028378254,0.064483918,-74,-4,-48,-1,177
1695161191579225500,-9.135076523,-2.108094692,-0.177170932,-0.041301683,0.019451762,-0.007194487,-1,19,-20,12,43,-8.779537201,3.45842433,1.235408068,0.045298621,-0.02917764,0.064084224,-75,-14,-48,-2,178
1695161191580225500,-9.13866806,-2.103306293,-0.175973818,-0.040235836,0.019584993,-0.007061256,-1,26,-19,8,45,-8.785523415,3.45722723,1.235408068,0.045298621,-0.029577335,0.063551299,-73,-8,-48,-2,178
1695161191581225500,-9.137471199,-2.100912094,-0.171185419,-0.038770292,0.019718224,-0.007194487,-4,20,-19,12,44,-8.786720276,3.454833031,1.235408068,0.04516539,-0.030243492,0.062885143,-73,-5,-47,-1,176
1695161191582225500,-9.137471199,-2.099714994,-0.174776718,-0.03757121,0.019718224,-0.007327718,-3,19,-19,3,42,-8.785523415,3.453635931,1.236605167,0.044898927,-0.030776417,0.062485453,-76,-16,-48,-1,177
1695161191635167700,-9.130288124,-2.054224968,-0.159214407,-0.057555895,0.014655436,-0.01398928,0,21,-17,8,45,-8.796297073,3.476380825,1.230619669,0.040901989,-0.041967839,0.050894335,-76,-4,-48,-2,176
1695161191636167700,-9.131484985,-2.057816267,-0.159214407,-0.058488514,0.015188362,-0.013456355,-1,21,-16,13,46,-8.796297073,3.476380825,1.22822547,0.040768761,-0.042633995,0.050894335,-76,-5,-47,-7,176
1695161191637167700,-9.131484985,-2.059013367,-0.159214407,-0.059021436,0.015721286,-0.012790199,-1,22,-19,9,45,-8.797493935,3.478775024,1.22822547,0.040635526,-0.043699846,0.050761104,-73,-5,-47,-3,173
1695161191638167700,-9.133879662,-2.059013367,-0.153228909,-0.059021436,0.016254211,-0.01185758,-1,19,-15,11,47,-8.796297073,3.477577925,1.22702837,0.040635526,-0.044366002,0.050761104,-75,-7,-48,-3,172
1695161191639167700,-9.131484985,-2.062604666,-0.154426008,-0.058888208,0.016653905,-0.010924961,-1,23,-17,13,47,-8.797493935,3.478775024,1.223437071,0.040235836,-0.04516539,0.051160797,-76,-9,-49,-2,180
1695161191670147900,-9.136273384,-2.053027868,-0.123301387,-0.039836142,0.011990812,0.0042634,-1,25,-16,13,46,-8.761581421,3.445256233,1.175553083,0.045298621,-0.047563553,0.060353752,-75,-5,-48,-1,174
1695161191671147900,-9.133879662,-2.051830769,-0.120907187,-0.040768761,0.011324655,0.004396631,2,23,-19,9,46,-8.762778282,3.441664934,1.174355984,0.046098009,-0.046897396,0.060220521,-72,-7,-48,0,176
1695161191672147900,-9.130288124,-2.050633669,-0.119710088,-0.041967839,0.010525269,0.004529862,0,22,-16,11,46,-8.760383606,3.440467834,1.169567585,0.046764165,-0.04623124,0.059820827,-75,-8,-47,-1,176
1695161191673147900,-9.126696587,-2.04823947,-0.117315881,-0.043300152,0.009992342,0.004796324,-1,25,-19,8,45,-8.760383606,3.435679436,1.162384868,0.047430322,-0.045431852,0.059554365,-76,-5,-48,-1,173
1695161191674147900,-9.126696587,-2.04823947,-0.119710088,-0.044898927,0.009592649,0.004929556,0,17,-17,10,46,-8.759186745,3.434482336,1.164779186,0.048229709,-0.044499233,0.059154671,-74,-7,-49,-3,176
1695161191706149800,-9.133879662,-2.062604666,-0.130484,-0.059021436,0.009059724,0.006528331,-1,21,-13,13,46,-8.771158218,3.441664934,1.15161097,0.046897396,-0.038503829,0.044632465,-75,-9,-48,-2,176
1695161191707149800,-9.136273384,-2.062604666,-0.132878199,-0.059421133,0.008793262,0.006661562,-1,10,-16,13,46,-8.77235508,3.441664934,1.146822572,0.046098009,-0.038637057,0.044232771,-75,-4,-49,-1,173
1695161191708149800,-9.141061783,-2.063801765,-0.132878199,-0.059687596,0.008393568,0.006661562,0,26,-19,12,46,-8.771158218,3.446453333,1.144428372,0.045431852,-0.038637057,0.044099543,-75,-6,-49,-1,176
1695161191709149800,-9.143456459,-2.066195965,-0.130484,-0.06008729,0.007993874,0.006528331,-1,25,-18,11,47,-8.767566681,3.445256233,1.143231273,0.044765696,-0.038770292,0.043699846,-76,-5,-49,-1,178
1695161191710149800,-9.147047997,-2.067393064,-0.136469498,-0.060353752,0.007460949,0.006528331,-1,25,-17,13,46,-8.763975143,3.442862034,1.134851575,0.044232771,-0.038903523,0.043433387,-74,-5,-49,-1,178
1695161191740107800,-9.136273384,-2.120065689,-0.16759412,-0.049295556,0.001199081,0.013722817,-1,27,-16,12,46,-8.777143478,3.424905539,1.124077678,0.05142726,-0.024381317,0.039702907,-75,-3,-47,-1,174
1695161191741107800,-9.135076523,-2.124854088,-0.177170932,-0.04729709,0.001332312,0.01385605,0,23,-17,13,48,-8.77834034,3.424905539,1.121683478,0.051560488,-0.023049004,0.039169986,-76,-5,-46,-1,173
1695161191742107800,-9.1326828,-2.122459888,-0.183156431,-0.045565084,0.001465544,0.014255743,-1,22,-17,13,46,-8.775946617,3.427299738,1.124077678,0.051560488,-0.021983154,0.038770292,-75,-12,-49,-1,176
1695161191743107800,-9.1326828,-2.120065689,-0.18555063,-0.043833077,0.001598775,0.014655436,-1,25,-16,11,46,-8.775946617,3.428496838,1.125274777,0.05142726,-0.020784073,0.038104136,-74,-10,-48,-2,172
1695161191744107800,-9.133879662,-2.11647439,-0.181959331,-0.042101074,0.001865237,0.015188362,4,21,-17,13,46,-8.779537201,3.432088137,1.127668977,0.051294025,-0.019851454,0.03757121,-73,-5,-45,-1,177
1695161191775087600,-9.142259598,-2.132036686,-0.18555063,-0.038637057,0.01079173,0.019318528,-2,23,-12,13,47,-8.779537201,3.416525841,1.168370485,0.046897396,-0.014655436,0.027712099,-75,-4,-45,-1,176
1695161191776087600,-9.143456459,-2.132036686,-0.18435353,-0.038370594,0.011058193,0.018918836,2,23,-16,9,46,-8.775946617,3.415328741,1.168370485,0.047163859,-0.014655436,0.027578866,-73,-5,-47,-1,177
1695161191777087600,-9.143456459,-2.132036686,-0.18555063,-0.037837673,0.011324655,0.01825268,-1,25,-17,10,46,-8.777143478,3.415328741,1.165976286,0.04729709,-0.014522205,0.027445635,-75,-7,-49,-1,175
1695161191778087600,-9.147047997,-2.134430885,-0.181959331,-0.037437979,0.011457887,0.017453292,-1,23,-16,12,46,-8.777143478,3.411737442,1.165976286,0.047563553,-0.014388974,0.027312404,-76,-8,-47,0,177
1695161191779087600,-9.149441719,-2.135627985,-0.18555063,-0.037038282,0.011191424,0.016520673,-1,21,-17,12,47,-8.779537201,3.412934542,1.167173386,0.047963247,-0.014388974,0.027179174,-73,-4,-45,4,176
1695161191811069400,-9.124302864,-2.097320795,-0.10295067,-0.064350687,0.007860643,-0.007993874,0,22,-17,12,45,-8.791508675,3.426102638,1.218648672,0.06674885,-0.023182238,0.021316998,-75,-5,-47,-1,178
1695161191812069400,-9.123106003,-2.100912094,-0.10175357,-0.063284837,0.007860643,-0.007594181,-1,23,-16,13,46,-8.791508675,3.424905539,1.219845772,0.067281775,-0.02384839,0.021183766,-76,-5,-45,-2,177
1695161191813069400,-9.123106003,-2.099714994,-0.10175357,-0.062218986,0.007860643,-0.007327718,-1,21,-12,13,45,-8.793902397,3.422511339,1.216254473,0.0678147,-0.024381317,0.021050537,-74,-5,-49,-4,173
1695161191814069400,-9.125499725,-2.100912094,-0.092176765,-0.06115314,0.007594181,-0.006794794,0,23,-16,11,45,-8.793902397,3.423708439,1.213860273,0.068747319,-0.025047474,0.020917306,-75,-9,-45,0,173
1695161191815069400,-9.125499725,-2.099714994,-0.090979666,-0.060353752,0.007594181,-0.006261868,-1,20,-17,10,45,-8.790311813,3.426102638,1.219845772,0.069546707,-0.025846859,0.020917306,-75,-5,-46,-1,177
1695161191847046700,-9.14465332,-2.066195965,-0.159214407,-0.039702907,-0.002664625,-0.021183766,1,23,-6,13,46,-8.801085472,3.426102638,1.054645896,0.040369064,-0.026646247,0.04103522,-63,-6,-45,2,173
1695161191848046700,-9.14465332,-2.064998865,-0.158017308,-0.039436448,-0.002531394,-0.021183766,-1,21,-6,13,45,-8.801085472,3.423708439,1.055842996,0.040369064,-0.026646247,0.040901989,-66,-5,-40,2,174
1695161191849046700,-9.145850182,-2.066195965,-0.158017308,-0.039303213,-0.002664625,-0.020917306,-1,25,-7,13,47,-8.798690796,3.42131424,1.057040095,0.040635526,-0.026646247,0.040901989,-65,-5,-44,4,170
1695161191850046700,-9.148244858,-2.064998865,-0.158017308,-0.039169986,-0.002531394,-0.020784073,2,21,-8,13,46,-8.795100212,3.41772294,1.060631394,0.04103522,-0.026379786,0.041168455,-65,-9,-42,3,172
1695161191851046700,-9.149441719,-2.064998865,-0.158017308,-0.038637057,-0.002398162,-0.02051761,-1,23,-11,11,46,-8.801085472,3.41772294,1.061828494,0.041301683,-0.026513018,0.04103522,-67,-5,-46,4,176
1695161191883027600,-9.160215378,-2.080561161,-0.159214407,-0.058621746,0.020784073,0.000932619,-1,19,-10,11,45,-8.803479195,3.463212729,1.013944387,0.063551299,-0.03757121,0.044366002,-67,-5,-41,11,172
1695161191884027600,-9.163806915,-2.079364061,-0.160411507,-0.059021436,0.02051761,0.000799387,-1,20,-7,8,46,-8.801085472,3.459621429,1.010353088,0.064084224,-0.037970904,0.044232771,-63,-5,-39,10,172
1695161191885027600,-9.162610054,-2.078166962,-0.160411507,-0.059287902,0.020251149,0.000932619,1,25,-7,13,45,-8.801085472,3.459621429,1.011550188,0.064350687,-0.038237367,0.044366002,-66,-6,-35,10,176
1695161191886027600,-9.162610054,-2.079364061,-0.158017308,-0.059421133,0.019984685,0.000799387,-2,19,-10,8,44,-8.799888611,3.462015629,1.013944387,0.064883612,-0.038770292,0.044099543,-65,-5,-41,9,173
1695161191887027600,-9.162610054,-2.079364061,-0.160411507,-0.059421133,0.019584993,0.000932619,0,19,-7,12,46,-8.795100212,3.465606928,1.007958889,0.065150075,-0.039169986,0.043966308,-62,-9,-39,10,176
1695161191920022300,-9.136273384,-1.983596087,-0.187944829,-0.048229709,0.010924961,-0.0063951,-1,20,-9,10,46,-8.769960403,3.433285236,0.956483603,0.060353752,-0.032641653,0.047830015,-67,-5,-41,9,172
1695161191921022300,-9.136273384,-1.984793186,-0.187944829,-0.047830015,0.011191424,-0.005728943,-4,17,-11,10,45,-8.771158218,3.429693937,0.955286503,0.060886677,-0.032774884,0.047563553,-64,-5,-41,5,169
1695161191922022300,-9.129091263,-1.981201887,-0.189141929,-0.04729709,0.011324655,-0.004663093,-3,19,-11,12,42,-8.77235508,3.428496838,0.955286503,0.061419602,-0.032774884,0.047163859,-62,-4,-35,10,172
1695161191923022300,-9.124302864,-1.980004787,-0.189141929,-0.046897396,0.011591119,-0.003464012,-1,17,-13,11,43,-8.77235508,3.427299738,0.954089403,0.061686065,-0.032774884,0.046897396,-66,-8,-39,9,171
1695161191924022300,-9.124302864,-1.978807688,-0.189141929,-0.046764165,0.011724349,-0.002264931,-3,18,-13,7,43,-8.77235508,3.424905539,0.954089403,0.061952524,-0.032908116,0.046364475,-63,-8,-40,9,172
1695161191953008700,-9.340977669,-3.424905539,-0.214281052,-0.011191424,0.056756508,-0.222895861,-1,17,-12,12,43,-8.862137794,3.763684988,1.304839969,0.051027562,-0.072611026,0.083402753,-76,-16,-55,-1,166
1695161191954008700,-9.367314339,-3.529053211,-0.219069451,-0.009059724,0.061819296,-0.230223581,-2,20,-16,11,43,-8.857349396,3.781641483,1.306037068,0.049428791,-0.075542115,0.084202148,-76,-18,-49,-1,165
1695161191955008700,-9.45111084,-3.888183594,-0.260968,0.008926493,0.079139359,-0.252339959,-3,17,-11,8,43,-8.852560997,3.801992416,1.307234168,0.047563553,-0.078339972,0.085401222,-76,-17,-56,-1,162
1695161191956008700,-9.469067574,-3.988739967,-0.274136096,0.016920367,0.084335379,-0.259001523,-2,17,-16,6,44,-8.846575737,3.823540211,1.315613866,0.04516539,-0.081004597,0.086467072,-76,-19,-49,-1,161
1695161191957008700,-9.485827446,-4.090493679,-0.286107093,0.026246555,0.089797854,-0.266728938,-4,18,-15,10,42,-8.844181061,3.843890905,1.323993564,0.042234302,-0.083802447,0.087666154,-74,-17,-49,-1,161
1695161191985967200,-9.889249802,-6.526593685,-0.448912829,0.448056638,0.212637067,-0.762082696,-4,17,-16,15,40,-8.933963776,4.622006416,1.41018486,0.030376723,-0.095660031,0.181194484,-76,-16,-49,-1,160
1695161191986967200,-9.92037487,-6.673837185,-0.477643251,0.488425732,0.210238889,-0.829630911,-6,17,-17,9,40,-8.945934296,4.712985992,1.424550056,0.033441041,-0.094594181,0.190920368,-76,-17,-49,-1,161
1695161191987967200,-9.943120003,-6.776787758,-0.502782345,0.51680398,0.207174569,-0.881191373,-3,10,-19,4,41,-8.955511093,4.806359768,1.438915253,0.035972435,-0.093794793,0.201712102,-63,-7,-37,10,174
1695161191988967200,-9.975440979,-6.87016201,-0.539892495,0.543050528,0.20357734,-0.933551252,-2,18,-17,8,42,-8.962694168,4.876988888,1.442506552,0.03757121,-0.09352833,0.209705979,-66,-7,-39,10,170
1695161191989967200,-10.01135445,-6.961141586,-0.575805485,0.566898882,0.199313939,-0.986044347,-4,17,-21,8,44,-8.977059364,4.988319397,1.441309452,0.039436448,-0.093928024,0.222762644,-64,-7,-41,8,168
1695161192018970200,-10.02332497,-8.219294548,-0.949300945,0.781268001,0.120973967,-1.832329273,-1,10,-17,7,43,-9.238027573,7.863755703,1.459265947,-0.115644716,-0.314558983,0.827765703,-76,-17,-55,-1,162
1695161192019970200,-10.00656605,-8.274360657,-0.963666201,0.807647824,0.120307811,-1.867102504,-4,19,-18,6,44,-9.239224434,8.052897453,1.468842745,-0.139093414,-0.328015327,0.874263406,-76,-16,-57,-1,162
1695161192020970200,-9.987412453,-8.32463932,-0.981622696,0.837491572,0.119508423,-1.901476264,-5,18,-22,6,44,-9.251194954,8.236053467,1.467645645,-0.165073514,-0.341071963,0.921693742,-75,-17,-56,-2,161
1695161192021970200,-9.974244118,-8.354566574,-0.984016895,0.859208286,0.118842266,-1.924258828,-1,21,-20,6,45,-9.266757965,8.429984093,1.456871748,-0.195183769,-0.354528338,0.969656944,-76,-17,-56,-2,162
1695161192022970200,-9.959878922,-8.390480042,-0.993593693,0.893981636,0.118309341,-1.957433343,-3,17,-21,10,45,-9.28591156,8.620323181,1.442506552,-0.227692187,-0.369450212,1.018286347,-75,-16,-49,-1,164
1695161192057928400,-9.856928825,-9.02374649,-0.991199493,1.936249614,0.082869835,-2.306898832,-5,21,-18,11,49,-9.143456459,9.777919769,1.249773264,-0.72038132,-0.693202138,2.237751961,-73,-17,-49,30,168
1695161192058928400,-9.853337288,-9.020154953,-0.972045898,2.008194447,0.079006128,-2.31342721,-2,17,-19,12,46,-9.124302864,9.801861763,1.249773264,-0.703993857,-0.706258774,2.30196929,-73,-18,-48,31,168
1695161192059928400,-9.847352028,-9.011775017,-0.943315446,2.080538988,0.07500919,-2.321154833,-2,17,-18,11,48,-9.10036087,9.836577415,1.259350061,-0.684941769,-0.718782485,2.365787268,-70,-18,-47,37,169
1695161192060928400,-9.836577415,-8.997409821,-0.925358951,2.15288353,0.070479326,-2.329814911,-3,17,-17,13,48,-9.071630478,9.874884605,1.271321058,-0.664690673,-0.729840755,2.427872896,-67,-17,-45,43,169
1695161192061928400,-9.824606895,-8.981847763,-0.900219858,2.224828482,0.064483918,-2.339673758,-2,17,-19,14,48,-9.039308548,9.906009674,1.284489155,-0.640842259,-0.740365982,2.487427235,-71,-17,-47,48,170
1695161192092921100,-9.440337181,-8.526948929,-0.29568392,3.234588146,-0.232754961,-2.465976954,-7,81,39,46,90,-8.025363922,10.75954247,1.380257249,-0.134297088,-0.63258189,3.227260351,-66,-16,-31,93,209
1695161192093921100,-9.411606789,-8.469488144,-0.308852017,3.268029213,-0.238350689,-2.460914135,-3,86,41,51,94,-7.973888874,10.763134,1.310825467,-0.103920363,-0.597542107,3.259635448,-66,-18,-29,93,215
1695161192094921100,-9.390059471,-8.422801971,-0.316034615,3.309197664,-0.242081165,-2.457849979,-2,90,45,54,99,-7.945158482,10.77390766,1.254561663,-0.082470134,-0.574759543,3.283483982,-65,-18,-25,90,215
1695161192095921100,-9.361329079,-8.383296967,-0.330399841,3.355961561,-0.244479313,-2.453719616,-4,93,53,59,105,-7.904457092,10.80144119,1.175553083,-0.047030624,-0.541451752,3.321454763,-63,-17,-24,93,216
1695161192096921100,-9.31823349,-8.341399193,-0.312443316,3.403791666,-0.24514547,-2.447591305,-1,97,58,61,110,-7.8733325,10.8469305,1.102529883,-0.009859112,-0.509742737,3.361823797,-65,-16,-23,92,217
1695161192127907700,-8.564059258,-8.111555099,0.571017087,4.365588188,0.243546709,-1.999268055,94,173,243,170,317,-7.439981937,12.42111874,0.16639702,0.038637057,0.290843785,4.119509697,-39,-16,55,104,277
1695161192128907700,-8.538920403,-8.064867973,0.512359142,4.365588188,0.27059263,-1.953303218,100,175,250,173,327,-7.451952934,12.47379112,0.08499416,0.011990812,0.329480857,4.142159462,-38,-15,60,104,279
1695161192129907700,-8.530540466,-8.008605003,0.429759204,4.365588188,0.288045943,-1.90986979,106,183,260,182,336,-7.465120792,12.52646351,0.02873042,-0.016920367,0.363854527,4.163609505,-22,-7,72,112,293
1695161192130907700,-8.550890923,-7.923610687,0.336385339,4.365588188,0.297638565,-1.867502332,110,185,268,182,343,-7.485471725,12.60547161,-0.003591303,-0.055024505,0.396362931,4.182261944,-19,-5,77,117,297
1695161192131907700,-8.578424454,-7.815871239,0.237025961,4.365588188,0.298437983,-1.828332305,126,186,281,190,349,-7.502231121,12.66413021,-0.007182605,-0.085667685,0.417147011,4.191321373,-22,-7,78,116,300
1695161192158868200,-7.574057102,-3.337517262,1.307234168,4.365588188,-0.487093419,-1.488992453,255,271,489,306,622,-6.834248543,11.9662199,-0.392649084,-1.495653868,0.994038224,3.941513062,34,-18,123,129,370
1695161192159868200,-7.428010941,-3.134010077,1.424550056,4.365588188,-0.527595699,-1.485395074,258,275,503,315,645,-6.793547153,11.82256794,-0.390254885,-1.533491611,1.022016764,3.914200783,37,-17,123,127,372
1695161192160868200,-7.272387505,-2.944868088,1.553836942,4.365588188,-0.562901974,-1.482597232,268,277,507,322,667,-6.715735912,11.54962921,-0.404620081,-1.59770906,1.090897441,3.875430346,41,-17,122,128,373
1695161192161868200,-7.128735542,-2.784456491,1.67234993,4.365588188,-0.594744265,-1.482064366,274,286,512,327,686,-6.551733017,11.34253025,-0.523133099,-1.6206249,1.143656969,3.839058161,45,-18,122,127,373
1695161192162868200,-6.987477779,-2.63841033,1.805228114,4.242882252,-0.619791746,-1.479399681,282,288,528,333,706,-6.361393929,11.15697956,-0.650025785,-1.664058208,1.187490106,3.802686214,47,-18,121,128,374
1695161192197852900,-5.324704647,-2.777273893,3.853467703,2.272525072,-0.623388946,-1.219065785,374,338,674,423,921,-4.316745758,7.667430878,-0.305260718,-3.251774788,2.386704445,2.369784117,68,-13,109,124,349
1695161192198852900,-5.275623322,-2.888604403,3.921702385,2.247611046,-0.611664653,-1.194151521,381,342,678,427,927,-4.23294878,7.356184959,-0.331596941,-3.324918747,2.429604769,2.282650709,68,-16,105,122,346
1695161192199852900,-5.225345135,-2.986766577,3.955221176,2.229758024,-0.598474741,-1.166306257,380,349,689,429,932,-4.147954464,7.013813972,-0.354341865,-3.389402628,2.47077322,2.194318533,67,-17,107,121,344
1695161192200852900,-5.176264286,-3.053804159,3.975571871,2.221231222,-0.586617172,-1.135130167,383,352,693,430,936,-4.065354347,6.65468359,-0.366312861,-3.443494797,2.510609627,2.105986118,67,-15,108,123,344
1695161192201852900,-5.136759758,-3.087323189,4.016273499,2.219232798,-0.577690661,-1.102888227,383,351,696,431,942,-3.985148668,6.299144745,-0.36990416,-3.486395121,2.549379587,2.018053532,65,-13,107,121,343
1695161192232847800,-4.458003521,-1.813607812,4.886565685,1.771709085,-0.265396625,-0.468840718,408,398,780,460,952,-3.072957993,3.42131424,1.285686255,-3.639877558,2.81371069,0.695866764,23,-4,99,105,308
1695161192233847800,-4.42448473,-1.817199111,4.93804121,1.712287903,-0.245278716,-0.440196037,415,399,779,461,952,-3.08253479,3.348291159,1.404199243,-3.667456388,2.783467054,0.672018409,20,-3,96,106,309
1695161192234847800,-4.388571739,-1.837549806,4.989516258,1.655531406,-0.225160792,-0.412750393,410,400,780,460,949,-3.099294186,3.266888142,1.521515131,-3.694369078,2.748160601,0.652833045,21,-4,96,106,308
1695161192235847800,-4.355052948,-1.863885999,5.05296278,1.601839185,-0.20624195,-0.387036771,412,401,780,460,948,-3.110068083,3.175908566,1.634042621,-3.720215797,2.708457947,0.637644708,20,-3,95,105,308
1695161192236847800,-4.327519417,-1.914164305,5.116408825,1.554142356,-0.187856048,-0.364254236,414,400,785,460,948,-3.131615877,3.08253479,1.74776721,-3.743664742,2.664358377,0.624987781,20,-3,97,105,308
1695161192264809700,-4.395754337,-2.41335535,6.357802391,1.332978606,-0.086333841,-0.113513015,422,384,787,461,928,-2.965218782,1.423352957,4.362235546,-3.467343092,1.708157778,0.376111776,16,-1,95,100,296
1695161192265809700,-4.396951199,-2.382230759,6.390124321,1.313793302,-0.090730481,-0.104053594,423,385,789,461,929,-2.938882589,1.370680451,4.499902248,-3.415649176,1.664990902,0.355327696,17,3,95,97,295
1695161192266809700,-4.384980202,-2.363077164,6.426037312,1.29127717,-0.095926493,-0.094727404,421,385,792,461,927,-2.906560898,1.326387763,4.64594841,-3.362356663,1.623822331,0.333078086,19,1,95,100,295
1695161192267809700,-4.369418144,-2.342726469,6.476315498,1.264364481,-0.100722812,-0.084601834,418,385,791,461,925,-2.875436306,1.290474772,4.791994572,-3.308131695,1.583853006,0.310162336,18,0,94,98,296
1695161192268809700,-4.356249809,-2.330755472,6.528987885,1.234120965,-0.103787132,-0.075142421,424,384,791,461,924,-2.845508814,1.26413846,4.942829609,-3.253773212,1.545349121,0.287113339,14,-1,93,97,294
1695161192298787100,-4.349067211,-2.704250813,7.459135532,0.730373681,-0.108716697,0.015721286,417,374,773,450,898,-2.839523315,1.248576164,6.98508358,-2.506479263,0.742098033,0.0678147,11,7,89,95,286
1695161192299787100,-4.368220806,-2.688688517,7.528567314,0.711188376,-0.119108729,0.013056661,419,369,771,448,899,-2.832340717,1.230619669,7.048529625,-2.475969315,0.719581902,0.065150075,13,7,89,95,284
1695161192300787100,-4.376600742,-2.670732021,7.594407558,0.690937221,-0.130433381,0.009725881,418,373,771,449,897,-2.833537817,1.200692177,7.143100739,-2.42813921,0.689071953,0.060886677,10,7,87,95,282
1695161192301787100,-4.375403404,-2.651578426,7.66024828,0.669886649,-0.14175804,0.005595712,420,374,769,450,897,-2.839523315,1.176750183,7.229291916,-2.377111673,0.661493123,0.055557426,10,4,88,95,284
1695161192302787100,-4.370615005,-2.632424831,7.727285862,0.64763701,-0.152549773,0.001465544,418,369,770,448,897,-2.855085611,1.167173386,7.308300495,-2.323286295,0.635646224,0.049162328,13,7,89,95,281
1695161192329793800,-4.031835556,-1.630451322,7.389703751,0.044499233,-0.25300613,-0.161209792,424,363,749,446,879,-2.986766577,2.139219284,8.541314125,-1.569464087,0.451520681,-0.251140893,-6,8,79,94,269
1695161192330793800,-3.985148668,-1.489193439,7.255628109,-0.002797856,-0.273124039,-0.181860641,422,362,751,443,878,-2.980781078,2.134430885,8.519766808,-1.548813105,0.458048999,-0.262598753,-5,9,83,94,270
1695161192331793800,-3.921702385,-1.346738458,7.145494938,-0.052626338,-0.292309314,-0.199713632,425,359,751,440,878,-2.989160776,2.11647439,8.476671219,-1.525364518,0.463911176,-0.271258801,-3,9,81,92,269
1695161192332793800,-3.839102507,-1.22583127,7.059303761,-0.102987751,-0.30856356,-0.214901984,421,362,749,442,878,-3.002328873,2.100912094,8.43956089,-1.508044362,0.467108727,-0.275522202,-6,7,81,91,269
1695161192333793800,-3.746925592,-1.138442874,7.005434036,-0.153482378,-0.320421129,-0.226626337,422,358,748,442,877,-3.029862165,2.072181463,8.382100105,-1.478999972,0.470173031,-0.279652387,-6,8,80,93,268
1695161192364749500,-3.910928488,-2.706645012,8.558073997,-0.085401222,0.054358348,0.133897394,415,351,728,429,865,-4.542997837,2.23259306,9.196128845,-0.441261858,0.391566604,-0.327349156,-11,-4,78,90,268
1695161192365749500,-3.951629877,-2.743755102,8.595184326,-0.061286367,0.065283306,0.150418073,415,352,727,429,864,-4.783615112,2.379836559,9.627084732,-0.390367538,0.331745774,-0.338407338,-10,-5,77,89,266
1695161192366749500,-3.983951569,-2.767697096,8.622717857,-0.042900458,0.073277183,0.162408888,415,352,725,432,863,-4.917690277,2.485181332,9.919178009,-0.364387453,0.285381317,-0.344935685,-7,-2,79,90,268
1695161192367749500,-4.010287762,-2.778470993,8.626308441,-0.030909648,0.078339972,0.169603363,414,353,725,430,862,-5.008669853,2.59890604,10.18134308,-0.347467095,0.239949465,-0.34906584,-10,-2,79,88,268
1695161192368749500,-4.031835556,-2.78924489,8.616731644,-0.025580399,0.080471672,0.172534451,413,353,723,432,861,-5.054159641,2.718616009,10.40400314,-0.339073509,0.197049007,-0.352529854,-10,-2,79,90,270
1695161192394734800,-3.38300705,-3.588908434,8.259995461,-0.395163864,0.07474272,-0.01398928,409,346,713,429,848,-3.670311213,2.412158251,9.469067574,-0.099523738,0.158145472,-0.258868307,-1,-7,77,88,266
1695161192395734800,-3.349488258,-3.64158082,8.259995461,-0.388369083,0.07993874,-0.014122511,412,350,715,431,846,-3.584120035,2.41574955,9.372102737,-0.061419602,0.156013787,-0.237151608,1,-5,77,89,270
1695161192396734800,-3.323152065,-3.687070608,8.262390137,-0.377577305,0.086333841,-0.012390506,405,349,714,428,848,-3.505111217,2.422932148,9.278728485,-0.025180703,0.15428178,-0.215834603,6,-4,77,88,266
1695161192397734800,-3.296815634,-3.726574898,8.264783859,-0.363854527,0.093395106,-0.009459418,406,347,714,430,848,-3.438073635,2.442085743,9.200917244,0.008526799,0.152949467,-0.195183769,7,-8,75,90,266
1695161192398734800,-3.275267839,-3.75769949,8.270770073,-0.34693414,0.101388969,-0.005329249,412,348,714,429,848,-3.38300705,2.468421936,9.126696587,0.038903523,0.151483908,-0.17559877,9,-8,73,89,265
1695161192427736300,-3.677493811,-3.135207176,8.607154846,-0.253938764,0.145222053,-0.001865237,406,342,704,426,840,-3.187879562,2.333149672,9.30386734,0.746494651,-0.142690659,0.14908576,25,-3,81,95,279
1695161192428736300,-3.708618402,-3.116053581,8.646659851,-0.271924943,0.140292495,-0.005995406,408,337,703,424,841,-3.250128746,2.312798738,9.352949142,0.786330819,-0.149218991,0.171868294,26,-7,87,96,277
1695161192429736300,-3.739742994,-3.104082584,8.681375504,-0.290577352,0.134963244,-0.009725881,406,343,700,424,841,-3.300406933,2.298433542,9.388861656,0.817373693,-0.154415011,0.189854518,20,-9,84,95,279
1695161192430736300,-3.764882088,-3.095702887,8.712499619,-0.309362948,0.12936753,-0.013189893,404,343,701,423,839,-3.549403906,2.121262789,9.481039047,1.006828427,-0.183059722,0.290044397,20,-11,85,94,279
1695161192431736300,-3.79241538,-3.094505787,8.736441612,-0.327748835,0.122972436,-0.016520673,404,345,700,426,839,-3.576937437,2.091335297,9.481039047,1.039603353,-0.186257273,0.304566622,18,-15,83,94,279
1695161192459718500,-4.479551315,-3.239354849,8.731653214,-0.368650824,-0.226759583,-0.030509954,400,337,684,414,828,-5.032611847,2.059013367,8.755595207,2.898578882,-0.641375184,0.756886661,-23,3,80,89,286
1695161192460718500,-4.544194698,-3.187879562,8.68975544,-0.383705974,-0.256470144,-0.027312404,399,336,677,413,828,-5.070919037,2.15478158,8.768763542,2.992506742,-0.710522175,0.784998477,-21,6,81,91,288
1695161192461718500,-4.60764122,-3.132812977,8.661025047,-0.403690636,-0.288312376,-0.023981623,396,337,676,413,826,-5.114014626,2.264914751,8.774748802,3.078174591,-0.784332275,0.81390965,-23,3,83,90,290
1695161192462718500,-4.65193367,-3.089717388,8.646659851,-0.420344561,-0.310562044,-0.021983154,395,336,672,411,823,-5.15950489,2.37863946,8.773551941,3.153450012,-0.863071978,0.842021406,-25,4,83,88,286
1695161192463718500,-4.715380192,-3.016694069,8.629899979,-0.450321585,-0.345068902,-0.019451762,390,337,668,407,824,-5.201403141,2.487575531,8.760383606,3.219000101,-0.944209754,0.868800879,-23,0,79,89,288
1695161192496674700,-4.642356873,-1.595735431,6.335057735,-2.358592749,-1.364687562,-0.078739658,316,299,553,333,735,-4.163516521,3.203441858,7.073668957,3.284549713,-2.098924875,0.790594161,-38,2,53,91,274
1695161192497674700,-4.5394063,-1.653196216,6.227318764,-2.475836277,-1.39093411,-0.072211333,308,290,547,327,728,-4.067748547,3.19506216,6.927622795,3.254039764,-2.125704288,0.762482405,-40,4,53,88,272
1695161192498674700,-4.432864666,-1.728613615,6.120776653,-2.585885286,-1.410385847,-0.064084224,300,293,538,320,718,-3.969586372,3.189076662,6.789956093,3.223796368,-2.149153233,0.733571172,-35,-1,51,92,266
1695161192499674700,-4.329913616,-1.811213613,6.016628742,-2.688872814,-1.424108744,-0.052759573,292,289,528,316,708,-3.873818398,3.193865061,6.665457726,3.192220449,-2.169137716,0.702794731,-36,3,46,90,268
1695161192500674700,-4.224568844,-1.895010591,5.913678169,-2.785598755,-1.432235718,-0.037837673,286,286,522,310,700,-3.779247284,3.199850559,6.53976202,3.157980204,-2.185258865,0.668820798,-35,3,45,92,270
1695161192535655300,-3.066972494,-2.033874273,4.368220806,-3.561804056,-0.895180702,0.42793873,121,209,327,157,425,-2.272097349,2.947262287,4.402936935,2.707525253,-2.068414927,-0.18385911,-40,0,0,94,236
1695161192536655300,-3.05021286,-1.988384485,4.314351559,-3.590448618,-0.846418023,0.460980088,112,202,316,152,409,-2.244564056,2.968810081,4.340687752,2.69513464,-2.05749011,-0.224761114,-43,1,-2,94,232
1695161192537655300,-3.033453465,-1.948880196,4.266467571,-3.625621557,-0.797122538,0.498418063,106,198,308,146,397,-2.213439465,2.997540474,4.23294878,2.679280043,-2.043633938,-0.287912726,-43,4,0,93,218
1695161192538655300,-3.025073767,-1.912967205,4.218583584,-3.667056561,-0.745562017,0.539852977,99,193,297,141,380,-2.170343876,3.062183857,4.19464159,2.665024519,-2.02991128,-0.353329241,-40,0,-7,93,231
1695161192539655300,-3.021482468,-1.873462796,4.169502258,-3.70862484,-0.689738154,0.58488518,102,192,285,131,366,-2.15478158,3.100491285,4.122815132,2.652234316,-2.008993864,-0.427272588,-39,3,0,92,230
1695161192573632900,-3.031059265,-3.465606928,3.289633036,-4.365721226,1.086900473,1.462612629,34,121,102,70,209,-2.612074137,5.329493046,3.254917145,2.232689142,-1.652067304,-2.230823994,-43,7,-9,65,208
1695161192574632900,-3.132812977,-3.606864929,3.282450438,-4.365721226,1.175366044,1.496186733,31,113,100,67,206,-2.649184227,5.45997715,3.23456645,2.179663181,-1.617960215,-2.343004704,-44,4,-13,62,208
1695161192575632900,-3.260902643,-3.75650239,3.280056238,-4.365721226,1.257569671,1.52709651,31,110,90,61,199,-2.694674015,5.603629112,3.229778051,2.124905109,-1.582121015,-2.455052137,-42,3,-12,63,208
1695161192576632900,-3.402160645,-3.920505285,3.254917145,-4.365721226,1.334177613,1.552410364,28,106,87,60,194,-2.759317398,5.760449409,3.213018656,2.063085794,-1.543217421,-2.568298578,-44,5,-15,60,206
1695161192577632900,-3.561375141,-4.09408474,3.215412855,-4.365721226,1.401459336,1.573727369,28,98,86,62,187,-2.847903013,5.898116112,3.178302765,1.996736526,-1.503647804,-2.681944847,-44,5,-16,56,202
1695161192607613700,-6.921637058,-6.238092422,0.864306808,-4.365721226,0.745029092,1.655930996,-1,53,25,32,133,-4.880579948,8.47786808,2.506729126,0.052359879,-1.087166905,-4.365721226,-51,9,-29,29,193
1695161192608613700,-7.018602371,-6.284779549,0.758961916,-4.365721226,0.644839168,1.641941786,-1,52,26,35,133,-4.932055473,8.596381187,2.510320425,-0.067415006,-1.071712017,-4.365721226,-51,7,-31,28,192
1695161192609613700,-7.10359621,-6.327875137,0.66798228,-4.365721226,0.53971976,1.625820875,-1,53,20,29,128,-4.972756863,8.700529099,2.519897223,-0.188522205,-1.053059697,-4.365721226,-56,9,-31,29,188
1695161192610613700,-7.173028469,-6.385335922,0.567425787,-4.365721226,0.431003064,1.60703516,-1,51,19,32,128,-5.008669853,8.802282333,2.537853718,-0.310029089,-1.032009244,-4.365721226,-49,3,-31,25,192
1695161192611613700,-7.228095055,-6.448782444,0.464475125,-4.365721226,0.320687592,1.586784124,-2,51,16,34,130,-5.013458252,8.893261909,2.562992811,-0.431269497,-1.006961703,-4.365721226,-49,8,-29,29,190
1695161192640613500,-7.2915411,-7.046135426,-1.175553083,-4.365721226,-0.999500751,1.316591024,0,40,-16,19,108,-4.942829609,7.892486095,2.758120298,-2.516738176,0.181460962,-4.365721226,-54,5,-31,17,188
1695161192641613500,-7.331045628,-7.13831234,-1.22822547,-4.365721226,-1.023349166,1.312194467,4,38,-9,15,109,-5.030217648,7.706935406,2.761711597,-2.550179243,0.269926488,-4.365721226,-51,7,-31,15,183
1695161192642613500,-7.372944355,-7.241262913,-1.271321058,-4.365721226,-1.044266462,1.309263349,5,34,-13,18,107,-5.131971359,7.521384716,2.774879694,-2.567632437,0.360523731,-4.365721226,-50,9,-32,14,186
1695161192643613500,-7.411251545,-7.344213486,-1.308431268,-4.365721226,-1.062119484,1.308064342,0,35,-16,16,104,-5.254075527,7.353790283,2.795230389,-2.573361397,0.452053577,-4.365721226,-49,5,-34,12,184
1695161192644613500,-7.435193539,-7.416039944,-1.33716166,-4.365721226,-1.072911143,1.308197618,0,33,-17,18,105,-5.374982834,7.177816868,2.817975283,-2.564168453,0.545581937,-4.365721226,-49,4,-34,15,190
1695161192672573800,-8.003816605,-8.638279915,-2.136825085,-3.725944757,-1.387470126,1.47620213,5,34,-25,15,97,-7.91762495,3.64277792,3.08253479,-0.04276723,1.984879017,-3.481598616,-53,8,-40,8,183
1695161192673573800,-8.044517517,-8.667010307,-2.179920673,-3.646672249,-1.418246627,1.490724325,4,34,-29,13,104,-8.058882713,3.555389643,3.038241863,0.181194484,2.023249626,-3.380609512,-50,7,-36,6,184
1695161192674573800,-8.082824707,-8.690952301,-2.213439465,-3.565800905,-1.449689031,1.506179094,5,33,-27,15,99,-8.198944092,3.476380825,2.989160776,0.405955583,2.055624723,-3.280286312,-50,5,-37,8,183
1695161192675573800,-8.113949776,-8.702922821,-2.248155355,-3.483197689,-1.481797814,1.522300124,3,33,-29,14,100,-8.327033043,3.408146143,2.931699991,0.631649256,2.082670689,-3.180629492,-54,4,-37,6,184
1695161192676573800,-8.140285492,-8.708909035,-2.274491549,-3.399128675,-1.513373613,1.538687706,4,32,-33,14,100,-8.449137688,3.350685358,2.881421804,0.857476294,2.104920387,-3.081905127,-49,5,-36,5,184
1695161192707554600,-8.261193275,-8.578424454,-2.463633537,-1.730407238,-1.800487041,1.922926545,4,33,-36,13,95,-10.57040024,3.308786631,1.733402014,4.243414879,1.906805515,-1.613963246,-50,7,-39,4,188
1695161192708554600,-8.283937454,-8.559270859,-2.476801634,-1.644473195,-1.793958664,1.948373675,6,32,-33,15,95,-10.72722054,3.359065056,1.683123827,4.365588188,1.87762785,-1.568264961,-49,11,-40,4,183
1695161192709554600,-8.305485725,-8.537723541,-2.485181332,-1.560004473,-1.78516531,1.974486947,8,32,-33,14,93,-10.88284397,3.391386747,1.613691926,4.365588188,1.846984625,-1.528695226,-48,7,-36,4,184
1695161192710554600,-8.33062458,-8.513781548,-2.493561029,-1.478067279,-1.773840785,2.001266479,4,33,-33,14,95,-11.04445267,3.42131424,1.552639842,4.365588188,1.816607952,-1.491124034,-48,7,-37,1,184
1695161192711554600,-8.353369713,-8.486248016,-2.506729126,-1.399061322,-1.760251164,2.028578758,6,32,-32,13,93,-11.23479176,3.497928619,1.514332533,4.365588188,1.786497712,-1.4579494,-48,7,-41,4,183
1695161192741534400,-9.053673744,-7.565677166,-2.266111851,-0.464044392,-1.196416616,2.339140892,4,32,-35,14,92,-14.77342129,6.230909824,1.009155989,4.365588188,0.713453233,-1.708024502,-47,7,-43,0,184
1695161192742534400,-9.105149269,-7.556100368,-2.227804661,-0.422742724,-1.160843849,2.343137741,0,32,-35,15,92,-14.90989113,6.460753441,1.006761789,4.365588188,0.628318548,-1.75505507,-47,7,-47,-1,186
1695161192743534400,-9.160215378,-7.547720909,-2.183511972,-0.379042894,-1.125937223,2.346868277,1,32,-38,13,90,-15.02720737,6.689399719,1.00436759,4.365588188,0.541052043,-1.803684592,-47,9,-43,1,186
1695161192744534400,-9.212887764,-7.54293251,-2.145204782,-0.33294487,-1.092096448,2.349932671,2,32,-38,13,96,-15.12297535,6.913257599,0.998382092,4.365588188,0.451653898,-1.85324657,-47,9,-40,-1,186
1695161192745534400,-9.266757965,-7.536946774,-2.105700493,-0.284448713,-1.059588075,2.35139823,1,31,-36,13,93,-15.1720562,7.062894821,0.986411095,4.365588188,0.391300142,-1.886287808,-48,5,-44,-1,185
1695161192773538100,-10.26873112,-5.261258125,-1.322796464,1.227992415,-0.416747332,1.549079537,4,30,-41,10,84,-12.91552067,9.378087997,0.861912608,2.184592724,-1.07157886,-2.153682947,-45,3,-39,1,183
1695161192774538100,-10.24119759,-5.173870087,-1.325190663,1.205343008,-0.410751909,1.501915812,4,26,-39,10,88,-12.67729759,9.346963882,0.888248801,1.987676859,-1.095027566,-2.109450102,-47,7,-40,0,183
1695161192775538100,-10.20887566,-5.090072632,-1.318008065,1.178563595,-0.404490054,1.453419566,2,29,-44,10,89,-12.43907452,9.289502144,0.912190855,1.794225097,-1.110215902,-2.05749011,-45,7,-40,2,183
1695161192776538100,-10.17535686,-5.006275654,-1.307234168,1.148053527,-0.39782849,1.403990865,0,26,-44,10,89,-12.19965458,9.214085579,0.944512546,1.605170012,-1.117143989,-1.998601794,-44,11,-40,8,183
1695161192777538100,-10.14303589,-4.918887615,-1.304839969,1.114079595,-0.391166925,1.353496194,1,27,-44,10,89,-12.03804588,9.151836395,0.962469101,1.482064366,-1.117143989,-1.955568075,-44,8,-39,2,183
1695161192805519100,-9.47744751,-3.879803896,-0.951695204,0.171601832,-0.180395097,0.410085768,-1,27,-43,10,85,-9.210494041,5.708973885,1.388636947,-0.508277178,-0.142557427,0.074476264,-45,4,-39,6,172
1695161192806519100,-9.419986725,-3.82713151,-0.877474904,0.052359879,-0.133630931,0.301635504,-1,30,-41,11,85,-9.194931984,5.53419733,1.41018486,-0.522266448,-0.079272583,0.18492496,-44,3,-39,2,183
1695161192807519100,-9.404424667,-3.817554712,-0.841561913,0.013056661,-0.116177641,0.263797849,-1,25,-47,8,80,-9.180566788,5.365406036,1.435323954,-0.528128624,-0.017453292,0.291776419,-44,1,-39,4,183
1695161192808519100,-9.391256332,-3.809175014,-0.814028561,-0.023448698,-0.098457888,0.227958649,2,27,-40,8,85,-9.173383713,5.20379734,1.467645645,-0.526796341,0.042633995,0.394630939,-41,7,-40,2,176
1695161192809519100,-9.380482674,-3.806780815,-0.791283667,-0.056356817,-0.080738127,0.193851456,1,25,-43,8,85,-9.178172112,5.055356979,1.495178938,-0.518535972,0.101122513,0.493222058,-46,7,-39,4,182
1695161192837479400,-9.423578262,-3.621230125,-0.486022949,-0.091796324,0.085800916,-0.137361407,-1,27,-38,8,87,-9.640253067,3.557783842,1.790862918,0.167071983,0.560903549,1.267029047,-44,4,-36,9,183
1695161192838479400,-9.419986725,-3.586514235,-0.475249052,-0.076208271,0.081271052,-0.144289434,5,28,-41,10,82,-9.639056206,3.497928619,1.799242616,0.210638598,0.549578846,1.257702827,-44,4,-40,10,182
1695161192839479400,-9.411606789,-3.550601006,-0.463278025,-0.06115314,0.075408876,-0.150684536,-1,31,-41,10,85,-9.633070946,3.442862034,1.804031014,0.253672272,0.535456359,1.245978594,-44,3,-37,12,181
1695161192840479400,-9.397241592,-3.514688015,-0.457292527,-0.046630934,0.068747319,-0.156679943,-1,27,-40,7,84,-9.619902611,3.390189648,1.808819413,0.296173036,0.519068897,1.231989264,-45,5,-40,11,181
1695161192841479400,-9.379284859,-3.478775024,-0.447715729,-0.032908116,0.06115314,-0.162808567,-1,22,-40,13,85,-9.605537415,3.34230566,1.806425214,0.337341517,0.500283301,1.216001511,-44,3,-39,12,183
1695161192869464000,-8.931569099,-2.846705914,-0.192733243,0.024114855,-0.022382848,-0.282849908,1,28,-37,12,89,-8.821435928,3.034650564,1.844732404,0.669753432,-0.029977029,0.874396622,-45,4,-37,13,183
1695161192870464000,-8.916007042,-2.827552319,-0.181959331,0.019185297,-0.019451762,-0.287113339,0,29,-38,13,84,-8.775946617,3.043030262,1.842338204,0.657762647,-0.055690661,0.862805545,-44,7,-39,12,181
1695161192871464000,-8.904036522,-2.813186884,-0.16639702,0.013589587,-0.015721286,-0.290843785,1,31,-39,11,87,-8.73404789,3.055001259,1.841141105,0.643240392,-0.080338441,0.85188055,-44,8,-36,13,182
1695161192872464000,-8.895656586,-2.798821688,-0.155623108,0.007860643,-0.011058193,-0.294307798,0,31,-38,10,85,-8.6957407,3.066972494,1.839944005,0.626320064,-0.104053594,0.84148854,-44,4,-39,12,183
1695161192873464000,-8.886079788,-2.782062292,-0.137666598,0.001598775,-0.005728943,-0.29710567,2,27,-38,10,83,-8.664615631,3.077746391,1.837549806,0.606601834,-0.126569673,0.831496119,-44,4,-39,14,183
1695161192901466300,-8.980650902,-2.650381327,0.01316811,-0.132698312,0.105385914,-0.306165397,1,31,-37,12,85,-8.713697433,3.173514366,1.555034041,0.062085759,-0.305632442,0.594477832,-44,7,-34,16,183
1695161192902466300,-8.996212959,-2.652775526,0.023942016,-0.136428788,0.110715166,-0.30643183,1,28,-38,11,83,-8.730456352,3.171120167,1.535880446,0.035572741,-0.30390048,0.577157736,-44,1,-37,14,183
1695161192903466300,-9.008183479,-2.659958124,0.032321721,-0.139226645,0.115777947,-0.306964755,2,29,-38,13,85,-8.748413086,3.163937569,1.52630353,0.010392036,-0.301235855,0.559571207,-42,8,-35,16,180
1695161192904466300,-9.02374649,-2.670732021,0.052672438,-0.141091883,0.120973967,-0.30749771,-1,29,-37,10,83,-8.76636982,3.154360771,1.517923832,-0.013323124,-0.297372133,0.541851461,-44,4,-39,15,181
1695161192905466300,-9.036913872,-2.679111719,0.06584055,-0.142424196,0.126036748,-0.308030635,2,31,-38,9,82,-8.781931877,3.150769472,1.508347034,-0.036105666,-0.292176098,0.523732007,-44,7,-36,14,182
1695161192934445400,-9.121908188,-2.653972626,0.191536129,-0.050228179,0.189987749,-0.355327696,2,29,-35,12,83,-8.939949036,2.990357876,1.443703651,-0.248076573,-0.065816231,0.268594176,-43,7,-35,16,183
1695161192935445400,-9.123106003,-2.649184227,0.197521642,-0.043566614,0.190254211,-0.360257268,0,29,-36,13,83,-8.947132111,2.978386879,1.44729495,-0.247943342,-0.054091886,0.262998462,-44,3,-43,15,181
1695161192936445400,-9.125499725,-2.642001629,0.199915841,-0.036771823,0.190387443,-0.364787132,-1,26,-38,13,81,-8.968679428,2.947262287,1.446097851,-0.243013784,-0.029977029,0.25300613,-44,0,-35,16,183
1695161192937445400,-9.126696587,-2.634819031,0.207098454,-0.03011026,0.190387443,-0.369583488,0,30,-37,11,83,-8.975862503,2.93529129,1.44849205,-0.239150077,-0.021183766,0.249941811,-43,5,-34,14,182
1695161192938445400,-9.131484985,-2.626439333,0.217872351,-0.023182238,0.189987749,-0.374246567,1,31,-37,13,84,-8.980650902,2.924517393,1.44849205,-0.234087273,-0.013323124,0.247410417,-44,-2,-34,12,180
1695161192965429400,-9.115922928,-2.457648039,0.365115762,0.092995405,0.166539043,-0.422609508,2,30,-37,13,84,-8.949525833,2.852691412,1.613691926,-0.058888208,0.03437366,0.266329229,-43,7,-34,12,183
1695161192966429400,-9.107542992,-2.442085743,0.368707061,0.097125575,0.164274111,-0.421943337,0,28,-37,12,79,-8.942343712,2.853888512,1.623268723,-0.051294025,0.034107197,0.267528325,-43,3,-34,15,182
1695161192967429400,-9.105149269,-2.427720547,0.37349546,0.100722812,0.161609486,-0.421010703,5,32,-35,11,84,-8.936357498,2.853888512,1.630451322,-0.046497703,0.033707503,0.26806125,-44,7,-35,13,183
1695161192968429400,-9.097966194,-2.412158251,0.37349546,0.104053594,0.158678412,-0.419944882,0,31,-37,10,83,-8.930372238,2.855085611,1.631648421,-0.039702907,0.033441041,0.268860638,-44,10,-34,13,182
1695161192969429400,-9.088389397,-2.396595955,0.374692559,0.106984682,0.156013787,-0.41861257,4,28,-38,9,83,-8.918401718,2.85867691,1.63523972,-0.033441041,0.032908116,0.269393563,-44,5,-31,14,181
1695161192997410200,-8.984241486,-2.208651066,0.470460624,0.092995405,0.06981317,-0.358791709,3,31,-29,10,83,-8.780735016,2.868253708,1.696291924,-0.006261868,0.028777948,0.223961711,-43,7,-36,14,197
1695161192998410200,-8.981847763,-2.208651066,0.478840351,0.090863705,0.064350687,-0.353062779,1,31,-33,12,83,-8.777143478,2.865859509,1.695094824,-0.007594181,0.029977029,0.219298616,-44,0,-34,14,183
1695161192999410200,-8.977059364,-2.208651066,0.489614248,0.088732004,0.059021436,-0.347067386,1,27,-33,7,78,-8.774748802,2.86107111,1.696291924,-0.008660031,0.031042879,0.21450229,-44,1,-34,15,182
1695161193000410200,-8.974664688,-2.206256866,0.503979445,0.086733535,0.054091886,-0.340672255,3,30,-32,13,83,-8.767566681,2.857479811,1.696291924,-0.009859112,0.032508422,0.209572732,-44,3,-35,15,180
1695161193001410200,-8.973467827,-2.207453966,0.511162043,0.084601834,0.049295556,-0.333744258,1,26,-36,13,81,-8.76636982,2.855085611,1.702277422,-0.010924961,0.033973966,0.20464319,-42,7,-36,16,181
1695161193032371400,-8.977059364,-2.225410461,0.536301196,0.033574272,-0.034107197,-0.164274111,-1,29,-35,11,78,-8.798690796,2.952050686,1.731007814,-0.002931087,0.045032158,0.096192956,-43,9,-34,16,183
1695161193033371400,-8.974664688,-2.233790159,0.531512797,0.02904441,-0.038637057,-0.155480847,0,32,-33,13,80,-8.803479195,2.964021683,1.733402014,-0.002931087,0.044632465,0.089797854,-41,5,-34,15,183
1695161193034371400,-8.966285706,-2.239775658,0.525527298,0.024114855,-0.04276723,-0.146820813,-1,29,-32,10,80,-8.807070732,2.977189779,1.732204914,-0.00319755,0.044099543,0.083402753,-44,5,-33,15,181
1695161193035371400,-8.965087891,-2.245761156,0.526724398,0.019451762,-0.046630934,-0.138294026,5,31,-34,12,79,-8.809465408,2.989160776,1.736993313,-0.003597243,0.043300152,0.076874427,-42,6,-34,16,182
1695161193036371400,-8.962694168,-2.252943754,0.521935999,0.014655436,-0.050494641,-0.130166918,2,30,-29,10,81,-8.815450668,2.998737574,1.738190413,-0.003996937,0.042900458,0.070612557,-43,7,-35,15,183
1695161193063373400,-8.956708908,-2.473210335,0.40821138,-0.05489127,-0.04969525,-0.007194487,1,29,-31,13,81,-8.81664753,3.165134668,1.751358509,-0.033840735,0.020917306,-0.003597243,-44,5,-34,15,183
1695161193064373400,-8.963891029,-2.486378431,0.398634583,-0.056223582,-0.048096478,-0.003863706,4,27,-29,10,78,-8.813055992,3.174711466,1.750161409,-0.035306279,0.020384381,-0.005728943,-42,5,-34,16,183
1695161193065373400,-8.972270966,-2.495955229,0.391451985,-0.057289433,-0.046630934,-0.000399694,-1,27,-32,11,78,-8.809465408,3.175908566,1.744175911,-0.036638591,0.019318528,-0.007860643,-43,7,-34,14,180
1695161193066373400,-8.978256226,-2.504334927,0.380678058,-0.057955589,-0.04516539,0.002797856,4,27,-29,10,79,-8.808267593,3.184288263,1.744175911,-0.03757121,0.018652374,-0.009592649,-44,6,-33,16,182
1695161193067373400,-8.984241486,-2.517503023,0.37110126,-0.058355279,-0.043833077,0.005462481,1,31,-25,12,81,-8.807070732,3.186682463,1.744175911,-0.038637057,0.017986218,-0.011457887,-41,8,-34,12,182
1695161193097353100,-9.017760277,-2.701856613,0.277727395,-0.0021317,-0.054225113,0.039169986,2,31,-29,12,81,-8.819042206,3.250128746,1.719036818,-0.025447167,0.00106585,-0.030243492,-42,6,-37,16,177
1695161193098353100,-9.012971878,-2.705447912,0.274136096,0.001598775,-0.054491576,0.041301683,0,25,-31,10,81,-8.817844391,3.252522945,1.717839718,-0.023182238,-0.000266462,-0.03011026,-40,7,-34,15,183
1695161193099353100,-9.009381294,-2.711433411,0.266953498,0.004929556,-0.054358348,0.043433387,2,29,-27,12,80,-8.813055992,3.253720045,1.719036818,-0.021050537,-0.001732006,-0.029843798,-43,4,-34,15,180
1695161193100353100,-9.006986618,-2.711433411,0.263362199,0.007993874,-0.053692192,0.045431852,1,28,-31,10,80,-8.815450668,3.252522945,1.714248419,-0.018519141,-0.003064318,-0.029444104,-41,8,-34,14,181
1695161193101353100,-9.002198219,-2.71263051,0.256179571,0.010658499,-0.0528928,0.047430322,-1,29,-27,11,80,-8.815450668,3.254917145,1.713051319,-0.015721286,-0.0042634,-0.028777948,-43,0,-36,15,179
1695161193131311000,-8.948328972,-2.758120298,0.10055647,-0.018652374,-0.020650841,0.074076563,-1,28,-31,12,78,-8.809465408,3.312378168,1.655590534,0.043566614,-0.014255743,-0.012656967,-44,4,-34,15,180
1695161193132311000,-8.949525833,-2.768894196,0.088585466,-0.021983154,-0.019318528,0.074609496,0,29,-28,13,79,-8.809465408,3.319560766,1.650802016,0.045964777,-0.014522205,-0.012523737,-40,4,-34,17,183
1695161193133311000,-8.951920509,-2.780865192,0.080205753,-0.025047474,-0.01825268,0.074875958,1,26,-29,10,78,-8.811859131,3.325546265,1.643619418,0.047963247,-0.014788668,-0.012257273,-43,4,-33,16,182
1695161193134311000,-8.959102631,-2.792836189,0.073023155,-0.028111791,-0.017453292,0.075408876,0,29,-28,13,81,-8.81066227,3.335123062,1.643619418,0.04969525,-0.014788668,-0.012390506,-42,9,-34,15,183
1695161193135311000,-8.960299492,-2.813186884,0.059855044,-0.030909648,-0.016653905,0.075941809,1,30,-29,13,81,-8.809465408,3.341108561,1.642422318,0.05142726,-0.015321592,-0.012523737,-39,4,-34,15,182
1695161193163292500,-9.083600998,-3.636792421,-0.045489833,0.0042634,0.045298621,0.126969382,-1,30,-28,12,79,-8.929175377,4.034229755,1.519120932,0.043300152,-0.032108728,-0.048229709,-44,4,-34,15,183
1695161193164292500,-9.105149269,-3.695450306,-0.064643443,0.007061256,0.053692192,0.132831544,2,32,-31,12,81,-8.945934296,4.121618271,1.496376038,0.043033689,-0.033041347,-0.050494641,-42,4,-34,16,183
1695161193165292500,-9.1326828,-3.751713991,-0.088585466,0.009059724,0.061819296,0.138960183,4,31,-29,13,81,-8.965087891,4.214992046,1.483207941,0.042367533,-0.034240428,-0.052759573,-44,7,-34,14,182
1695161193166292500,-9.161413193,-3.801992416,-0.117315881,0.009592649,0.069413476,0.145355284,2,30,-32,10,78,-8.984241486,4.313154221,1.476025343,0.041834611,-0.034640122,-0.054491576,-42,7,-34,16,183
1695161193167292500,-9.193734169,-3.861847401,-0.14724341,0.008127105,0.076741189,0.151883617,2,29,-31,13,79,-9.004592896,4.41849947,1.472434044,0.042101074,-0.034906585,-0.055157732,-43,7,-34,17,183
1695161193197273500,-9.270348549,-6.719326973,-0.047884032,0.011058193,0.334810108,0.183326185,3,30,-32,13,79,-9.5157547,8.127118111,2.026691675,-0.136162326,-0.065416537,0.368517607,-44,7,-34,15,182
1695161193198273500,-9.257181168,-6.894104004,-0.027533319,0.039836142,0.357059717,0.16773814,-1,29,-29,13,82,-9.549273491,8.327033043,2.025494576,-0.143223584,-0.076741189,0.410218984,-43,4,-34,15,181
1695161193199273500,-9.241618156,-7.06169796,-0.010773907,0.072078094,0.378376722,0.148952529,4,29,-33,13,78,-9.575610161,8.51019001,2.021903276,-0.148419604,-0.089931086,0.454185307,-41,7,-34,16,182
1695161193200273500,-9.235632896,-7.224503517,-0.001197101,0.107384384,0.398494661,0.126569673,-1,31,-32,12,83,-9.59835434,8.683769226,2.019509077,-0.151084229,-0.105119444,0.500549793,-44,7,-34,13,183
1695161193201273500,-9.239224434,-7.382521152,-0.004788403,0.145621747,0.416880548,0.100722812,-1,31,-31,8,80,-9.619902611,8.847772598,2.017114878,-0.151883617,-0.121506892,0.549312413,-44,5,-36,14,182
1695161193237250500,-10.07360363,-9.623494148,-0.749385118,1.095427275,0.243946403,-0.876661539,0,27,-31,13,78,-9.795876503,10.78587818,1.798045516,0.003464012,-0.524931073,1.835393667,-42,3,-34,14,182
1695161193238250500,-10.11310768,-9.685743332,-0.77931267,1.134863734,0.224361405,-0.923026085,-1,31,-35,13,78,-9.782708168,10.83256531,1.766920805,0.010924961,-0.540119469,1.912268043,-39,7,-34,16,182
1695161193239250500,-10.17176628,-9.771934509,-0.823605359,1.194684505,0.194117904,-0.992972434,2,27,-31,13,79,-9.769539833,10.87207031,1.744175911,0.019185297,-0.553309321,1.989408851,-41,7,-34,13,180
1695161193240250500,-10.21845245,-9.84974575,-0.859518409,1.255571246,0.163474724,-1.063185334,-1,30,-29,12,79,-9.793481827,10.97980881,1.726219416,0.023315467,-0.566366017,2.066816092,-35,6,-34,17,182
1695161193241250500,-10.25675964,-9.919178009,-0.900219858,1.317257285,0.133764163,-1.134064317,-1,32,-33,10,79,-9.806650162,11.06121159,1.666364431,0.010125575,-0.583686054,2.138627768,-41,3,-35,16,182
1695161193269231900,-10.58955383,-9.84376049,-1.221042871,2.174067497,0.020117918,-2.309963226,-1,32,-23,13,81,-9.621099472,11.49695683,0.784101069,0.211038291,-0.567831576,3.44162941,-42,7,-29,66,194
1695161193270231900,-10.60511684,-9.812635422,-1.211466074,2.205909729,0.030509954,-2.351131916,-1,30,-24,11,78,-9.605537415,11.56997967,0.762553215,0.223029092,-0.551177621,3.495721102,-44,11,-30,73,199
1695161193271231900,-10.62786102,-9.789890289,-1.18991828,2.237219095,0.040768761,-2.388969421,-1,29,-26,13,78,-9.587580681,11.64779091,0.730231524,0.233287901,-0.530127108,3.5444839,-43,5,-27,76,199
1695161193272231900,-10.6446209,-9.785101891,-1.168370485,2.269860744,0.050894335,-2.423343182,0,31,-22,13,77,-9.569623947,11.70764637,0.691924274,0.242081165,-0.504813194,3.588050604,-41,4,-24,81,202
1695161193273231900,-10.65898609,-9.786299706,-1.148019671,2.303834677,0.061419602,-2.453586578,-1,32,-24,13,78,-9.579200745,11.73757362,0.575805485,0.248875946,-0.476568133,3.629219055,-42,5,-21,80,206
1695161193303212500,-10.69370174,-9.051279068,-1.290474772,3.167306185,0.343736589,-2.70366168,-1,55,-3,42,105,-8.68975544,11.93868637,-1.889025092,0.274323106,1.319655418,4.365588188,-51,3,56,94,275
1695161193304212500,-10.70327854,-8.973467827,-1.26533556,3.220998526,0.347866774,-2.722980261,2,59,3,45,110,-8.668207169,11.97340298,-2.04704237,0.238883615,1.486727357,4.365588188,-47,0,63,94,279
1695161193305212500,-10.7140522,-8.901641846,-1.237802267,3.280552864,0.351330757,-2.744696617,1,65,3,45,115,-8.645462036,11.99135876,-2.243366957,0.191852987,1.657130122,4.365588188,-49,3,69,94,279
1695161193306212500,-10.71764374,-8.841787338,-1.210268974,3.345303059,0.352796346,-2.768012047,0,67,11,46,127,-8.623914719,11.98896503,-2.383427858,0.155880541,1.76757884,4.365588188,-47,3,78,98,283
1695161193307212500,-10.72482681,-8.790311813,-1.171961784,3.410852909,0.350931078,-2.79039526,4,75,15,51,132,-8.611943245,11.9710083,-2.604891539,0.098324656,1.929854512,4.365588188,-50,5,85,100,286
1695161193333195500,-10.50096893,-7.274781704,-1.059434295,4.365588188,0.059554365,-2.733905077,22,169,218,141,283,-8.747216225,11.35569859,-4.04979229,-2.397496223,3.501050472,3.90647316,-31,3,158,123,311
1695161193334195500,-10.43273354,-7.165845871,-0.960074902,4.365588188,0.029577335,-2.704594374,21,178,227,143,297,-8.759186745,11.22042656,-4.050989151,-2.596410275,3.522634029,3.854912519,-28,0,159,121,311
1695161193335195500,-10.35372543,-7.059303761,-0.831985116,4.365588188,0.004130168,-2.676615715,24,185,247,151,305,-8.737639427,11.09233665,-4.04979229,-2.8011868,3.537955761,3.801620007,-25,-1,158,122,310
1695161193336195500,-10.27232265,-6.961141586,-0.719457626,4.365588188,-0.017586524,-2.649836302,28,191,261,157,316,-8.667010307,10.94389629,-4.048594952,-3.006495953,3.546482325,3.746861935,-23,1,159,121,311
1695161193337195500,-10.17775154,-6.87016201,-0.610521436,4.365588188,-0.038503829,-2.62345624,29,198,275,163,330,-8.559270859,10.75595093,-4.042609692,-3.203278542,3.551545382,3.690905094,-22,3,159,121,311
1695161193365199300,-8.267178535,-3.53264451,0.657208383,4.365588188,-0.502548277,-2.257070541,81,281,512,286,587,-6.580463409,4.350264549,-2.542642117,-4.365721226,3.308131695,2.694868326,-23,5,144,110,295
1695161193366199300,-8.112752914,-3.325546265,0.773327172,4.365588188,-0.529727399,-2.233222008,82,286,519,296,601,-6.527791023,4.159925461,-2.442085743,-4.365721226,3.284416676,2.662093401,-19,9,145,109,297
1695161193367199300,-7.94994688,-3.131615877,0.894234359,4.365588188,-0.555041373,-2.20804143,92,290,529,304,615,-6.446388245,3.895366192,-2.282871246,-4.365721226,3.246179342,2.612397909,-21,4,145,110,294
1695161193368199300,-7.789535046,-2.926911592,0.998382092,4.365588188,-0.577957094,-2.180862188,96,291,538,307,626,-6.353013992,3.654748917,-2.104503393,-4.365721226,3.205143929,2.562569857,-18,7,144,109,294
1695161193369199300,-7.648277283,-2.725798607,1.108515382,4.365588188,-0.60100615,-2.153416395,101,298,547,319,647,-6.254851818,3.450044632,-1.904587507,-4.365721226,3.162243605,2.512474537,-18,7,143,109,291
1695161193399173800,-5.412093163,-1.714248419,3.19625926,2.831830025,-0.464577317,-1.497519135,202,347,661,397,791,-4.733336926,3.034650564,2.055422068,-4.365721226,2.355395079,1.471672297,-26,17,133,104,279
1695161193400173800,-5.368997097,-1.740584612,3.277662039,2.775473118,-0.442460954,-1.459548235,207,347,666,399,796,-4.697423935,2.941276789,2.188300371,-4.365721226,2.304367542,1.418246627,-27,13,131,102,279
1695161193401173800,-5.329493046,-1.758541107,3.359065056,2.723646164,-0.42327565,-1.421577215,208,348,666,406,799,-4.662707806,2.840720415,2.321178436,-4.365721226,2.251607895,1.366686106,-29,15,136,107,278
1695161193402173800,-5.295974255,-1.776497602,3.439270735,2.676748753,-0.406488538,-1.383739591,207,350,668,397,798,-4.629189014,2.728192806,2.445677042,-4.365721226,2.197782516,1.316990852,-24,19,133,107,278
1695161193403173800,-5.268440723,-1.800439715,3.523067713,2.634248257,-0.392765701,-1.345768809,211,353,673,401,803,-4.590881824,2.608482838,2.565387011,-4.365721226,2.143157721,1.269560456,-23,19,131,105,276
1695161193432141200,-4.490325451,-1.404199243,4.917690277,1.979683042,-0.097525269,-0.654032171,264,372,709,416,835,-4.109647274,0.987608194,4.997896194,-3.58392024,1.109283328,0.590214431,-27,23,127,105,273
1695161193433141200,-4.49271965,-1.387439847,4.98233366,1.93744874,-0.081670754,-0.633248091,261,369,706,416,836,-4.078522682,0.998382092,5.16549015,-3.51863718,1.060387492,0.555973947,-25,20,126,101,272
1695161193434141200,-4.49870491,-1.370680451,5.046977043,1.894415021,-0.068480857,-0.615928054,264,370,701,414,839,-4.04979229,1.013944387,5.325901508,-3.458150148,1.01388967,0.521067381,-23,24,127,100,274
1695161193435141200,-4.515464306,-1.351526856,5.102043629,1.850981593,-0.058488514,-0.602338433,266,367,705,413,835,-4.01507616,1.027112484,5.477933407,-3.402459383,0.970189929,0.485228181,-21,21,127,102,273
1695161193436141200,-4.541800499,-1.329979062,5.146336555,1.806882024,-0.052226644,-0.592346072,270,366,700,416,836,-3.97916317,1.029506683,5.61919117,-3.35169816,0.929421127,0.448856056,-22,23,126,100,273
1695161193464120600,-4.242525578,-1.741781712,6.670246124,1.036006093,-0.187056661,-0.44046247,296,358,702,422,844,-3.42131424,0.835576415,6.80551815,-2.625588179,0.648169994,-0.103120975,-9,20,126,100,270
1695161193465120600,-4.223371983,-1.794454217,6.793547153,1.01495564,-0.182526797,-0.419012249,301,355,703,419,842,-3.412934542,0.842759013,6.812700748,-2.57429409,0.659494638,-0.124171518,-9,20,124,101,266
1695161193466120600,-4.198232651,-1.837549806,6.91684866,0.99523735,-0.177064329,-0.396895856,302,359,701,420,840,-3.397372246,0.835576415,6.817489147,-2.519536018,0.672551274,-0.145222053,-7,21,125,97,264
1695161193467120600,-4.180276394,-1.879448295,7.030573368,0.976718247,-0.170669213,-0.374779463,300,355,700,423,841,-3.379415751,0.822408259,6.818686485,-2.461447239,0.688272595,-0.16573967,-9,25,123,100,268
1695161193468120600,-4.163516521,-1.910573006,7.145494938,0.959264934,-0.163607955,-0.353062779,298,357,699,422,838,-3.353079557,0.810437262,6.823474884,-2.3997612,0.707058191,-0.185857579,-9,18,121,100,263
1695161193498124300,-3.915716887,-0.92775315,6.634333134,0.196915776,-0.498950988,-0.332278699,312,352,685,413,820,-4.691438198,1.186326981,8.152256966,-1.099424243,0.907571197,-0.413682997,-3,-15,116,95,253
1695161193499124300,-3.79241538,-0.915782154,6.592434406,0.127102599,-0.537987709,-0.342937201,313,352,683,413,821,-4.885368347,1.236605167,8.572439194,-1.042401195,0.807514489,-0.408087283,18,-18,116,96,246
1695161193500124300,-3.649960518,-0.933738649,6.591237068,0.05808882,-0.568897426,-0.348399699,312,352,685,412,821,-5.019443989,1.320402265,8.971074104,-0.997235835,0.699197531,-0.399427265,7,-14,119,92,251
1695161193501124300,-3.547009706,-0.961272001,6.6163764,0.013456355,-0.584085763,-0.349199086,313,351,685,413,819,-5.099649429,1.399410844,9.332598686,-0.961130142,0.587016821,-0.387169987,-1,-17,120,100,250
1695161193502124300,-3.385401249,-1.022324085,6.682217121,-0.050761104,-0.597142458,-0.34693414,307,352,685,413,816,-5.124788761,1.465251446,9.667786598,-0.933684468,0.476701379,-0.371981621,7,-17,119,97,254
1695161193531084900,-2.964021683,-3.040636063,8.037335396,0.276854515,-0.098591112,0.100589581,303,342,664,400,801,-3.096899986,1.502361536,9.676166534,-0.582220554,0.026379786,-0.289245039,19,-18,117,100,251
1695161193532084900,-2.971204281,-2.991554976,8.045714378,0.304433405,-0.090197548,0.114712104,304,347,665,402,797,-3.003525972,1.508347034,9.574412346,-0.540252686,0.035705972,-0.282317013,20,-13,115,100,253
1695161193533084900,-2.97359848,-2.93529129,8.042123795,0.323485464,-0.084202148,0.126036748,308,346,663,403,795,-2.916137695,1.521515131,9.469067574,-0.497218996,0.046764165,-0.274722815,20,-18,115,99,251
1695161193534084900,-2.97359848,-2.869450808,8.039729118,0.333477795,-0.080738127,0.13456355,304,342,666,398,796,-2.828749418,1.540668845,9.361329079,-0.45338589,0.058355279,-0.266462475,15,-18,115,101,250
1695161193535084900,-2.967612982,-2.801215887,8.037335396,0.334277183,-0.079272583,0.140292495,302,345,665,400,793,-2.7533319,1.570596337,9.258378029,-0.409419596,0.069946401,-0.257802457,20,-17,114,96,249
1695161193564085000,-2.643198729,-3.555389643,8.329427719,-0.317490041,-0.044499233,0.111781009,297,338,659,397,782,-2.681505919,2.434903145,8.933963776,-0.015721286,0.0976585,-0.159744263,17,-18,119,100,252
1695161193565085000,-2.643198729,-3.634398222,8.360552788,-0.316024512,-0.036638591,0.118042871,298,336,659,396,782,-2.700659513,2.45285964,8.967482567,-0.011724349,0.089931086,-0.158012256,15,-19,117,97,252
1695161193566085000,-2.634819031,-3.714603901,8.392873764,-0.310961694,-0.029444104,0.125903517,300,335,653,397,781,-2.723404408,2.473210335,9.005789757,-0.007594181,0.081670754,-0.155614093,12,-20,115,95,252
1695161193567085000,-2.630030632,-3.769670486,8.42759037,-0.302035213,-0.02158346,0.134830013,300,337,655,398,780,-2.747346401,2.487575531,9.051279068,-0.003064318,0.07301072,-0.152683005,18,-19,116,98,250
1695161193568085000,-2.628833532,-3.819948912,8.455122948,-0.289644688,-0.01292343,0.144156188,298,337,656,397,780,-2.761711597,2.494758129,9.080010414,0.000399694,0.067015313,-0.150284842,18,-16,119,96,253
1695161193614037200,-2.862268209,-3.166331768,8.626308441,-0.354661554,0.13243185,0.257136285,300,337,657,397,776,-2.881421804,1.719036818,9.463082314,0.471505344,-0.073543645,0.012390506,13,-19,116,99,274
1695161193615037200,-2.885013103,-3.153163671,8.639476776,-0.386237353,0.138826951,0.257136285,302,334,649,397,779,-2.886210203,1.63763392,9.457097054,0.514139354,-0.073810108,0.02158346,6,-18,111,98,276
1695161193616037200,-2.908955097,-3.143586874,8.650250435,-0.418346077,0.145754978,0.257269531,302,337,655,398,775,-2.8969841,1.547851443,9.448717117,0.558505356,-0.074209802,0.030909648,9,-18,115,96,276
1695161193617037200,-2.938882589,-3.143586874,8.658630371,-0.450321585,0.152949467,0.25766921,302,341,654,398,775,-2.907757998,1.456871748,9.43315506,0.604869843,-0.074609496,0.040635526,7,-18,116,98,277
1695161193618037200,-2.970007181,-3.149572372,8.661025047,-0.481231242,0.159877479,0.258068919,300,336,650,397,776,-2.918531895,1.370680451,9.416395187,0.652833045,-0.075542115,0.050627869,14,-19,119,100,279
1695161193646016400,-3.696647406,-2.997540474,7.987056732,-0.672418058,-0.023049004,0.254205197,293,335,645,397,767,-3.576937437,0.775721371,8.912415504,1.912800908,-0.169203669,0.401825428,-34,-25,116,113,280
1695161193647016400,-3.730166197,-2.917334795,7.872135162,-0.68201071,-0.045431852,0.251007646,288,336,644,395,766,-3.64158082,0.839167714,8.862137794,2.006196022,-0.17559877,0.42540735,-35,-22,114,95,279
1695161193648016400,-3.769670486,-2.82396102,7.751227856,-0.694267988,-0.068880551,0.246477783,288,329,640,395,765,-3.713406801,0.912190855,8.803479195,2.101722717,-0.183059722,0.449122518,-37,-20,107,94,282
1695161193649016400,-3.809175014,-2.71502471,7.62194109,-0.709722817,-0.09352833,0.240615621,291,335,640,394,763,-3.774458885,1.001973391,8.748413086,2.195917368,-0.191852987,0.471771836,-38,-21,111,94,279
1695161193650016400,-3.849876404,-2.59890604,7.490260124,-0.728774905,-0.119375192,0.232621744,287,332,636,395,763,-3.845088005,1.092953086,8.694543839,2.293042898,-0.20357734,0.4960199,-39,-20,111,92,282
1695161193680018500,-3.97796607,-1.207874775,4.79917717,-1.711621761,-0.904640138,-0.022915773,230,325,583,347,713,-5.040991783,3.448847532,7.960720539,3.580989122,-1.393998504,0.987110257,-58,5,80,94,274
1695161193681018500,-3.956418276,-1.249773264,4.771644115,-1.756787062,-0.927422702,-0.021983154,223,323,576,346,711,-5.032611847,3.547009706,7.896077156,3.598042727,-1.486194491,1.009493113,-59,2,80,95,273
1695161193682018500,-3.938461781,-1.297657371,4.753687382,-1.798355341,-0.943810105,-0.01718683,221,321,572,348,706,-5.006275654,3.636792421,7.846996307,3.612165451,-1.574127078,1.028678417,-60,3,77,92,267
1695161193683018500,-3.930082083,-1.33716166,4.745307922,-1.823536038,-0.951404333,-0.01185758,216,320,563,339,697,-4.971560001,3.712209702,7.791929245,3.620558977,-1.656730533,1.043733478,-59,0,75,95,269
1695161193684018500,-3.920505285,-1.406593442,4.742913723,-1.857509971,-0.957799375,-0.001199081,208,317,560,336,693,-4.930858612,3.774458885,7.724891663,3.624289513,-1.733871341,1.054525256,-60,3,71,98,268
1695161193725797100,-4.370615005,-2.928108692,4.847061157,-1.799154639,-0.355061263,0.815241933,95,271,407,237,526,-3.693056107,3.318363667,6.16506958,3.096427202,-2.165673733,0.694267988,-59,3,30,111,246
1695161193726797100,-4.410119534,-2.984372377,4.839878559,-1.796223521,-0.315091878,0.887586534,95,266,400,234,515,-3.659537315,3.260902643,6.047753334,3.064851522,-2.154748917,0.654831588,-60,0,30,108,241
1695161193727797100,-4.431667328,-3.039438963,4.838681698,-1.798088908,-0.274722815,0.963261843,93,261,394,230,507,-3.629609823,3.19745636,5.920860767,3.031810284,-2.145022869,0.613396645,-56,4,28,100,238
1695161193728797100,-4.45680666,-3.080140591,4.843470097,-1.802618623,-0.233287901,1.042800903,90,256,384,221,494,-3.60447073,3.129221678,5.809530258,2.998768568,-2.136096478,0.571029067,-58,4,29,111,240
1695161193729797100,-4.486733913,-3.107673883,4.843470097,-1.810612559,-0.188788652,1.12353909,90,257,379,215,483,-3.580528736,3.062183857,5.700594425,2.965194464,-2.126903534,0.52719599,-60,4,30,110,236
1695161193901522600,-4.98233366,-4.419696331,5.160701752,-2.390568256,1.370150089,2.848217487,63,239,283,132,316,-1.988384485,2.086546898,2.833537817,2.516072035,-2.269993782,-0.802451789,-51,3,15,80,215
1695161193902522600,-5.019443989,-4.444835663,5.146336555,-2.432136297,1.472072005,2.919895887,60,233,268,122,308,-1.905784607,2.124854088,2.728192806,2.534058094,-2.260934353,-0.910635531,-48,3,13,81,213
1695161193903522600,-5.078101635,-4.466383457,5.117606163,-2.467842102,1.573860645,2.981182098,60,228,257,121,302,-1.82079041,2.212242365,2.63960743,2.554176092,-2.245212793,-1.026946425,-49,1,14,77,215
1695161193904522600,-5.170278549,-4.486733913,5.050568581,-2.504347801,1.670320153,3.0327425,52,225,255,118,299,-1.757344007,2.302024841,2.534262419,2.57362771,-2.221897364,-1.152450204,-45,3,14,77,215
1695161193905522600,-5.284003258,-4.519055843,4.967968464,-2.544583559,1.757719755,3.077241898,58,223,243,112,290,-1.699883223,2.422932148,2.49236393,2.599474669,-2.19192028,-1.283816218,-49,2,11,74,212
1695161193956490600,-7.69855547,-5.821501255,3.60327363,-2.837292433,2.240683079,3.124139309,8,134,104,61,175,-3.23576355,6.882133007,1.735796213,2.795058012,-1.198548198,-3.75991869,-50,5,-14,52,203
1695161193957490600,-7.77277565,-5.883750439,3.555389643,-2.823969364,2.223229647,3.097093344,9,128,96,60,174,-3.369838953,7.187393665,1.71065712,2.756554365,-1.163375139,-3.824935436,-54,5,-15,49,202
1695161193958490600,-7.845798969,-5.932831764,3.511096716,-2.807182074,2.199647665,3.067382813,9,127,90,59,168,-3.490746021,7.55131197,1.70826292,2.713387489,-1.131000042,-3.877295494,-55,2,-19,46,200
1695161193959490600,-7.91163969,-5.984307289,3.470395327,-2.7846663,2.169270992,3.033808708,2,122,88,56,163,-3.60207653,7.934384346,1.703474522,2.656630993,-1.103554368,-3.92259407,-53,7,-13,48,204
1695161193960490600,-7.967903137,-6.030993938,3.452438831,-2.756154776,2.134364367,2.997969389,4,118,83,49,161,-3.689464808,8.276755333,1.680729628,2.590415001,-1.084502339,-3.958033562,-55,7,-15,44,201
1695161193989471700,-9.175778389,-6.20936203,2.829946518,-1.925457835,1.475935698,2.242281675,-4,61,23,27,119,-4.817133904,10.67335129,2.52827692,0.501615584,-1.011624813,-3.052194595,-57,3,-24,31,194
1695161193990471700,-9.248801231,-6.142324448,2.777273893,-1.902408838,1.433301687,2.206176043,-6,58,19,27,127,-4.909310818,10.65060616,2.559401512,0.375712097,-0.989241958,-2.994638681,-55,4,-28,33,195
1695161193991471700,-9.306262016,-6.069301128,2.734178305,-1.882424235,1.392133236,2.169537544,-4,54,13,27,127,-5.006275654,10.61349583,2.580949545,0.249941811,-0.967125535,-2.943877459,-55,1,-28,32,196
1695161193992471700,-9.345766068,-5.984307289,2.693476915,-1.867102504,1.353895783,2.132899046,-3,57,15,24,116,-5.081693172,10.58476543,2.592920542,0.167604893,-0.953003049,-2.913101196,-55,10,-31,31,190
1695161193993471700,-9.384073257,-5.888539314,2.661155224,-1.859241962,1.317124128,2.09586072,-2,49,11,25,116,-5.19781208,10.52730465,2.594117641,0.048629403,-0.933551252,-2.871532917,-54,5,-26,32,195
1695161194023452000,-9.768342972,-5.001487255,1.48799634,-2.748027563,0.998301685,1.502182245,-4,38,-10,18,110,-7.141903877,8.049305916,2.683900118,-0.009592649,-0.427672267,-3.313993931,-53,7,-33,21,192
1695161194024452000,-9.777919769,-5.011064053,1.401805043,-2.828232765,0.991506934,1.480465531,-5,38,-9,16,105,-7.220912457,7.929595947,2.704250813,0.093928024,-0.384638578,-3.36169076,-53,3,-34,26,190
1695161194025452000,-9.788693428,-5.023035049,1.315613866,-2.90657258,0.983912706,1.459548235,-3,39,-12,19,105,-7.320271492,7.829039574,2.711433411,0.199713632,-0.341738135,-3.408055305,-50,5,-33,18,194
1695161194026452000,-9.798270226,-5.038597584,1.233013868,-2.981981754,0.975385964,1.439830065,-4,35,-13,16,104,-7.424419403,7.730877399,2.711433411,0.308430314,-0.299503833,-3.45308733,-55,1,-34,21,190
1695161194027452000,-9.810241699,-5.051765442,1.146822572,-3.054326057,0.96512711,1.420777917,-8,35,-17,16,108,-7.518990517,7.631517887,2.707842112,0.42074427,-0.257535994,-3.495987654,-55,1,-34,20,192
1695161194102406200,-10.39682102,-5.827486992,-0.056263741,-3.725145578,0.579422712,1.238650918,-2,33,-29,12,96,-9.344569206,7.114370346,2.518700123,1.879892826,0.02691271,-3.756054878,-47,4,-37,9,192
1695161194103406200,-10.41357994,-5.87896204,-0.10055647,-3.718883753,0.550111771,1.232788682,-6,35,-28,11,93,-9.41280365,7.074865818,2.494758129,1.90160954,0.009992342,-3.735537529,-49,4,-37,12,189
1695161194104406200,-10.42555141,-5.926846504,-0.138863698,-3.707159281,0.519735038,1.226660013,-2,33,-25,11,99,-9.48343277,7.035361767,2.469619036,1.919728875,-0.008393568,-3.711689234,-51,3,-44,12,193
1695161194105406200,-10.43153667,-5.965153694,-0.178368032,-3.690105438,0.488558948,1.219732046,-1,34,-27,13,97,-9.561244011,7.003039837,2.443282843,1.932652354,-0.028245023,-3.685842276,-51,3,-39,8,188
1695161194106406200,-10.43033981,-5.995080948,-0.216675252,-3.668255568,0.456450224,1.21240437,-2,33,-29,13,95,-9.631873131,6.970718384,2.420537949,1.941445589,-0.049029093,-3.657996893,-57,3,-39,12,189
1695161194173388100,-10.23521233,-5.621585369,-0.881066203,-2.816375017,-0.102055125,0.93861407,-1,33,-36,12,92,-11.05881786,6.968324184,2.365471363,1.406921864,-0.292709023,-3.136529922,-49,3,-40,6,189
1695161194174388100,-10.22802925,-5.591658115,-0.89303726,-2.759618521,-0.126836136,0.921560466,-1,33,-35,10,89,-11.11627865,6.981492043,2.361880064,1.35256362,-0.287246555,-3.121075153,-47,4,-39,9,190
1695161194175388100,-10.22324085,-5.555745125,-0.906205356,-2.702462435,-0.150817752,0.905572772,-1,33,-31,13,91,-11.17134476,6.995857239,2.358288765,1.297539115,-0.279918849,-3.106952667,-47,5,-37,11,193
1695161194176388100,-10.21366405,-5.515043736,-0.919373453,-2.62598753,-0.181327716,0.885321558,-2,37,-33,13,92,-11.22042656,7.011419773,2.345120668,1.242647767,-0.270725876,-3.094428778,-46,1,-41,8,190
1695161194177388100,-10.20767879,-5.482721806,-0.92895025,-2.568298578,-0.202777937,0.871199071,-3,38,-35,12,93,-11.26591587,7.024587631,2.329558372,1.187623262,-0.259800911,-3.082970858,-46,4,-41,8,192
1695161194210362400,-10.26154804,-4.879383087,-1.061828494,-1.653532863,-0.360124022,0.854545176,-1,35,-33,12,89,-11.02529907,7.577648163,2.059013367,0.255271077,0.176264927,-2.701663256,-47,2,-41,8,188
1695161194211362400,-10.25795746,-4.848258495,-1.074996591,-1.617160797,-0.357192963,0.861739695,-1,33,-35,8,90,-10.96185207,7.644686222,2.087743998,0.196249619,0.20624195,-2.659295559,-47,3,-41,8,189
1695161194212362400,-10.25436592,-4.817133904,-1.098938584,-1.581854582,-0.353595704,0.869067371,-4,32,-33,11,93,-10.89481449,7.712920666,2.110488892,0.128967836,0.23635222,-2.615329266,-49,0,-48,5,188
1695161194213362400,-10.25197124,-4.784811974,-1.110909581,-1.547747374,-0.349332303,0.876128674,-2,37,-32,11,88,-10.82059479,7.759607792,2.123656988,0.05768913,0.266862184,-2.569231033,-49,1,-41,8,188
1695161194214362400,-10.24838066,-4.756081581,-1.121683478,-1.51457274,-0.344669193,0.8830567,-1,32,-32,12,89,-10.7679224,7.783549786,2.139219284,0.008393568,0.287912726,-2.536989212,-45,3,-43,6,188
1695161194261739100,-10.00656605,-4.489128113,-1.118092179,-0.841355324,-0.292176098,0.861473203,-2,32,-30,6,84,-9.672574997,6.327875137,2.19428587,-1.153516173,1.036006093,-1.211604834,-47,3,-44,9,189
1695161194262739100,-9.986215591,-4.468777657,-1.106121182,-0.796989322,-0.292309314,0.849482417,-2,37,-31,13,88,-9.678560257,6.181828976,2.171540976,-1.166439533,1.059721231,-1.128068924,-51,3,-41,6,188
1695161194263739100,-9.96466732,-4.444835663,-1.098938584,-0.751957119,-0.29244259,0.836292505,-3,33,-29,13,86,-9.695320129,6.032191277,2.148796082,-1.17230165,1.078906655,-1.045332313,-49,1,-41,7,189
1695161194264739100,-9.945513725,-4.420893669,-1.092953086,-0.70639205,-0.292709023,0.821770251,-2,32,-32,13,87,-9.706093788,5.887341976,2.124854088,-1.170569658,1.093695283,-0.963261843,-47,4,-41,8,189
1695161194265739100,-9.923966408,-4.396951199,-1.086967587,-0.66016084,-0.293375194,0.806182206,-2,34,-28,12,89,-9.716867447,5.737704277,2.099714994,-1.16190958,1.103687525,-0.882523715,-51,-2,-40,8,189
1695161194378749300,-9.594763756,-3.728969097,-0.788889468,0.126836136,-0.29350841,0.438197553,-1,36,-27,13,87,-9.666589737,3.706224203,1.935712099,0.002664625,0.625254214,0.258068919,-49,1,-41,8,186
1695161194379749300,-9.579200745,-3.688267708,-0.774524271,0.156546697,-0.289245039,0.418745786,-1,32,-28,13,87,-9.660603523,3.661931515,1.922544003,0.088998467,0.581554353,0.297238916,-51,3,-44,6,186
1695161194380749300,-9.563638687,-3.646369219,-0.755370617,0.184658498,-0.283782542,0.399427265,-2,33,-24,13,89,-9.648633003,3.617638826,1.900996208,0.174799383,0.537321568,0.334676892,-50,1,-45,8,185
1695161194381749300,-9.552865028,-3.60566783,-0.737414122,0.211571202,-0.278053582,0.380508423,-1,37,-25,13,89,-9.635464668,3.575740337,1.886630893,0.259667695,0.492689133,0.370649308,-47,0,-41,8,184
1695161194382749300,-9.539696693,-3.56736064,-0.717063427,0.236618683,-0.271791726,0.36198926,-2,34,-25,12,87,-9.625887871,3.549403906,1.880645394,0.315491587,0.462978572,0.393831551,-51,5,-40,7,186
1695161194427743800,-9.396044731,-2.800018787,-0.486022949,0.368917316,-0.091796324,0.053026035,-1,33,-23,13,85,-9.075222015,3.369838953,1.742978811,1.400526881,-0.203710571,0.856810093,-47,3,-40,13,184
1695161194428743800,-9.391256332,-2.764105797,-0.468066424,0.358125567,-0.081937209,0.038637057,-4,34,-24,11,87,-9.051279068,3.373430252,1.735796213,1.428105593,-0.223162323,0.870932639,-48,0,-39,5,185
1695161194429743800,-9.386467934,-2.731784105,-0.456095427,0.346134782,-0.072611026,0.024381317,-4,35,-23,13,88,-9.026140213,3.374627352,1.736993313,1.453019857,-0.240882084,0.883855999,-47,4,-40,14,185
1695161194430743800,-9.380482674,-2.699462414,-0.441730201,0.332678407,-0.063418068,0.010258805,0,33,-25,12,85,-9.002198219,3.377021551,1.736993313,1.474869728,-0.257136285,0.895180702,-51,3,-41,15,184
1695161194431743800,-9.376891136,-2.671929121,-0.426167905,0.31788975,-0.054758042,-0.003597243,-2,35,-23,13,87,-8.975862503,3.375824451,1.734599113,1.493921876,-0.271525264,0.905173004,-48,0,-37,12,186
1695161194525687300,-9.212887764,-2.322375536,-0.293289721,-0.065416537,0.044232771,-0.260733545,-1,34,-21,12,87,-8.58680439,3.144783974,1.616086125,1.454885125,-0.334277183,0.869333863,-51,-1,-39,14,186
1695161194526687300,-9.203310966,-2.316390038,-0.284909993,-0.083269522,0.04769678,-0.273523748,1,34,-22,13,83,-8.573636055,3.148375273,1.611297727,1.438364506,-0.330013782,0.85547775,-50,1,-39,15,185
1695161194527687300,-9.192537308,-2.312798738,-0.281318694,-0.099923424,0.050894335,-0.286047459,-1,37,-20,13,84,-8.565256119,3.153163671,1.607706428,1.420911193,-0.325217426,0.840555906,-47,1,-39,15,184
1695161194528687300,-9.181763649,-2.309207439,-0.281318694,-0.115644716,0.053958651,-0.298304737,-1,37,-21,14,83,-8.559270859,3.162740469,1.606509328,1.402258873,-0.320021451,0.824168444,-49,1,-41,17,185
1695161194529687300,-9.168595314,-2.30681324,-0.280121595,-0.130166918,0.057422664,-0.310428768,-2,32,-23,13,89,-8.552088737,3.173514366,1.59812963,1.382407308,-0.314558983,0.80671519,-51,-1,-41,16,183
1695161194556670200,-9.147047997,-2.358288765,-0.201112941,-0.149618685,0.10258805,-0.445658505,-1,32,-21,13,84,-8.674192429,3.660734415,1.695094824,0.75368911,-0.106318533,0.372114837,-53,-1,-45,16,185
1695161194557670200,-9.157821655,-2.353500366,-0.197521642,-0.13975957,0.103787132,-0.447390497,-6,35,-25,13,84,-8.683769226,3.67988801,1.695094824,0.707724333,-0.092862174,0.351863712,-46,-2,-43,14,185
1695161194558670200,-9.166201591,-2.352303267,-0.190339029,-0.129900455,0.104719758,-0.448856056,-2,34,-24,12,89,-8.6957407,3.697844505,1.693897724,0.66122669,-0.079672284,0.332545161,-51,-2,-43,15,183
1695161194559670200,-9.174580574,-2.349909067,-0.18674773,-0.119641654,0.105918832,-0.44978866,-1,35,-19,14,83,-8.706514359,3.709815502,1.693897724,0.614595711,-0.067148544,0.314558983,-48,2,-39,15,186
1695161194560670200,-9.185355186,-2.343923569,-0.187944829,-0.109249614,0.106584989,-0.450321585,-2,35,-19,13,84,-8.718485832,3.713406801,1.691503525,0.567831576,-0.055557426,0.297905058,-49,-2,-39,13,184
1695161194613499900,-9.220070839,-2.164358377,-0.093373865,0.050494641,0.100056656,-0.414349139,-3,33,-21,12,83,-8.986636162,3.426102638,1.555034041,-0.027845331,0.033041347,0.195050538,-50,1,-39,13,183
1695161194614499900,-9.218873978,-2.151190281,-0.088585466,0.056356817,0.101122513,-0.412217438,-3,34,-17,13,84,-8.987833023,3.412934542,1.552639842,-0.035572741,0.033041347,0.195983157,-47,1,-39,16,185
1695161194615499900,-9.2212677,-2.136825085,-0.088585466,0.061952524,0.10258805,-0.409952521,-1,35,-18,13,84,-8.996212959,3.391386747,1.553836942,-0.045698319,0.032908116,0.197448686,-49,-2,-39,15,184
1695161194616499900,-9.223662376,-2.127248287,-0.089782566,0.067281775,0.104186833,-0.407954067,-3,35,-21,13,88,-9.003395081,3.371036053,1.551442742,-0.054091886,0.032641653,0.199180692,-49,-2,-40,15,183
1695161194617499900,-9.222464561,-2.11767149,-0.08259996,0.072344564,0.105785601,-0.406222045,-1,35,-19,13,83,-9.008183479,3.348291159,1.553836942,-0.060620211,0.032641653,0.201045945,-47,1,-37,16,184
1695161194763571600,-9.172186852,-1.946485996,-0.029927522,0.100323126,0.11298009,-0.387969375,-5,37,-19,14,79,-8.936357498,3.052607059,1.629254222,-0.011724349,0.046497703,0.22183001,-50,-1,-37,15,184
1695161194764571600,-9.172186852,-1.939303398,-0.023942016,0.099390499,0.111514546,-0.386903495,-1,37,-17,13,84,-8.929175377,3.044227362,1.632845521,-0.004130168,0.046897396,0.221563548,-47,1,-41,14,185
1695161194765571600,-9.167398453,-1.9333179,-0.021547815,0.098724343,0.109915771,-0.385837674,-1,35,-18,13,80,-8.924386978,3.034650564,1.640028119,0.003464012,0.04729709,0.221030638,-48,-1,-39,15,183
1695161194766571600,-9.160215378,-1.924938202,-0.019153614,0.097924963,0.108316995,-0.384638578,-3,38,-17,13,87,-8.918401718,3.023876667,1.644816518,0.011058193,0.04729709,0.220231235,-50,4,-37,16,185
1695161194767571600,-9.156624794,-1.921346903,-0.01436521,0.097125575,0.106451757,-0.383173048,-1,35,-18,12,82,-8.908824921,3.019088268,1.650802016,0.018785605,0.047430322,0.219298616,-50,-1,-38,14,184
1695161194829530200,-9.10634613,-1.808819413,0.0,0.074609496,0.064217456,-0.328148544,0,37,-13,15,85,-8.845377922,3.086126089,1.717839718,0.082869835,0.022382848,0.147620216,-49,3,-36,15,184
1695161194830530200,-9.105149269,-1.811213613,0.005985504,0.073410407,0.061286367,-0.323218971,0,36,-12,13,81,-8.852560997,3.093308687,1.721431017,0.080471672,0.020917306,0.142290965,-53,0,-40,14,184
1695161194831530200,-9.102754593,-1.806425214,0.005985504,0.072078094,0.057955589,-0.318156213,-2,35,-12,13,80,-8.856152534,3.098097086,1.721431017,0.078872897,0.019984685,0.138560489,-46,2,-38,16,183
1695161194832530200,-9.10036087,-1.805228114,0.009576807,0.071278714,0.054758042,-0.312693715,-2,34,-17,14,80,-8.863334656,3.101688385,1.722628117,0.076075032,0.018652374,0.132964775,-46,1,-37,13,181
1695161194833530200,-9.099164009,-1.801636815,0.005985504,0.070479326,0.05142726,-0.306964755,-1,32,-13,14,79,-8.868123055,3.106476784,1.720233917,0.072078094,0.01718683,0.125903517,-49,-2,-34,15,184
1695161194887497000,-9.075222015,-1.89740479,-0.019153614,0.081404284,-0.004130168,-0.15481469,-1,36,-17,13,80,-8.852560997,3.192667961,1.638831019,0.025580399,-0.009592649,0.050761104,-47,-1,-38,14,192
1695161194888497000,-9.071630478,-1.902193308,-0.020350715,0.083669223,-0.005728943,-0.145621747,-1,35,-13,13,83,-8.852560997,3.192667961,1.632845521,0.024914242,-0.010525269,0.048762634,-47,-1,-39,17,185
1695161194889497000,-9.065644264,-1.908178806,-0.020350715,0.086200617,-0.007061256,-0.136695251,-1,33,-13,14,80,-8.847772598,3.19625926,1.630451322,0.024381317,-0.011191424,0.047030624,-47,0,-37,15,184
1695161194890497000,-9.06205368,-1.915361404,-0.026336219,0.088598773,-0.008260337,-0.127901986,-3,37,-16,13,83,-8.847772598,3.202244759,1.626860023,0.023981623,-0.011724349,0.045298621,-49,0,-37,16,183
1695161194891497000,-9.060855865,-1.920149803,-0.026336219,0.090996936,-0.009192956,-0.11924196,-4,37,-15,13,81,-8.845377922,3.208230257,1.630451322,0.023448698,-0.012257273,0.043833077,-43,4,-37,15,189
1695161194944487300,-9.056067467,-2.025494576,-0.122104287,0.102454826,-0.007727412,-0.009059724,-1,36,-13,15,81,-8.917203903,3.282450438,1.693897724,0.003996937,-0.068214394,0.017320061,-46,3,-35,16,186
1695161194945487300,-9.052476883,-2.027888775,-0.122104287,0.102055125,-0.007327718,-0.006128637,-1,34,-15,15,82,-8.911218643,3.289633036,1.697489023,0.0,-0.073943339,0.015454824,-47,-1,-37,14,186
1695161194946487300,-9.050082207,-2.036268473,-0.124498487,0.101655439,-0.006928025,-0.00319755,-1,37,-11,13,78,-8.907627106,3.290830135,1.707065821,-0.004130168,-0.079672284,0.01398928,-46,2,-37,16,185
1695161194947487300,-9.051279068,-2.037465572,-0.129286885,0.100989282,-0.006661562,-0.000266462,-1,37,-15,13,81,-8.901641846,3.296815634,1.71065712,-0.008393568,-0.084735066,0.012124043,-47,7,-40,15,184
1695161194948487300,-9.051279068,-2.04704237,-0.1316811,0.100189894,-0.006528331,0.002531394,-1,42,-11,15,81,-8.894459724,3.298012733,1.711854219,-0.012523737,-0.089531392,0.010392036,-50,1,-39,13,185
1695161195001455100,-9.047688484,-2.215833664,-0.138863698,0.087399691,-0.016653905,0.038637057,-1,32,-13,13,79,-8.785523415,3.23336935,1.570596337,-0.002664625,-0.0976585,-0.000932619,-50,-1,-40,14,183
1695161195002455100,-9.041702271,-2.224213362,-0.143652096,0.08726646,-0.017320061,0.040102605,-1,35,-15,13,82,-8.781931877,3.230975151,1.565807939,0.0042634,-0.093794793,-0.000799387,-49,-2,-39,12,183
1695161195003455100,-9.040505409,-2.226607561,-0.14844051,0.08726646,-0.017719755,0.041434918,-1,33,-13,13,81,-8.780735016,3.228580952,1.55982244,0.011324655,-0.089664623,-0.000799387,-45,3,-36,15,184
1695161195004455100,-9.036913872,-2.23019886,-0.156820208,0.087133229,-0.017986218,0.042900458,-3,33,-7,13,78,-8.781931877,3.227383852,1.556231141,0.016254211,-0.086733535,-0.000666156,-49,-1,-40,16,184
1695161195005455100,-9.032125473,-2.23259306,-0.164002821,0.086866774,-0.017986218,0.044099543,-1,36,-13,13,81,-8.77834034,3.229778051,1.555034041,0.02384839,-0.082203679,-0.000532925,-50,1,-37,16,184
1695161195059421900,-9.010578156,-2.323572636,-0.153228909,0.060620211,0.008793262,0.070212863,-1,37,-10,13,82,-8.821435928,3.387795448,1.533486247,0.107384384,-0.028777948,-0.003597243,-48,-1,-38,14,183
1695161195060421900,-9.018958092,-2.331952572,-0.14724341,0.058488514,0.011591119,0.072477795,-1,38,-12,13,81,-8.825027466,3.399766445,1.532289028,0.105252676,-0.03011026,-0.004396631,-46,0,-37,15,184
1695161195061421900,-9.024943352,-2.33913517,-0.137666598,0.056623276,0.014522205,0.074875958,0,34,-11,13,81,-8.825027466,3.411737442,1.532289028,0.10285452,-0.031842265,-0.005329249,-49,3,-36,16,186
1695161195062421900,-9.028534889,-2.348711967,-0.134075299,0.055024505,0.017586524,0.07714089,-1,35,-9,13,79,-8.826224327,3.422511339,1.531091928,0.099656969,-0.033574272,-0.006128637,-44,-1,-37,15,183
1695161195063421900,-9.033323288,-2.359485865,-0.1316811,0.053425729,0.020784073,0.079405814,-3,32,-16,13,81,-8.826224327,3.433285236,1.529894829,0.096326187,-0.03543951,-0.006928025,-46,-2,-39,17,186
1695161195120369100,-9.041702271,-2.474407434,-0.044292733,0.046497703,0.045698319,0.091263399,-1,37,-12,15,80,-8.750806808,3.45842433,1.460463047,0.061552834,-0.053425729,0.007194487,-44,0,-40,17,185
1695161195121369100,-9.041702271,-2.472013235,-0.037110128,0.046098009,0.04516539,0.090197548,-1,36,-10,13,81,-8.752004623,3.454833031,1.459265947,0.063817769,-0.053292494,0.008793262,-46,0,-38,17,185
1695161195122369100,-9.042900085,-2.469619036,-0.029927522,0.045698319,0.044499233,0.088998467,0,37,-9,13,85,-8.749609947,3.45603013,1.45088625,0.066482387,-0.0528928,0.010525269,-46,1,-38,16,183
1695161195123369100,-9.045293808,-2.474407434,-0.023942016,0.045298621,0.043699846,0.087799385,1,35,-9,13,80,-8.743624687,3.453635931,1.446097851,0.069413476,-0.052626338,0.012390506,-50,-1,-37,17,183
1695161195124369100,-9.042900085,-2.480392933,-0.019153614,0.044898927,0.042633995,0.086333841,1,32,-11,14,81,-8.742427826,3.452438831,1.441309452,0.07274425,-0.05249311,0.01398928,-46,2,-36,16,186
1695161195304532300,-9.088389397,-2.519897223,0.020350715,0.030909648,-0.019584993,0.049295556,-1,37,-11,14,79,-8.756793022,3.521870613,1.479616642,0.090597242,-0.038370594,0.038104136,-44,3,-35,20,185
1695161195305532300,-9.080010414,-2.522291422,0.01436521,0.029843798,-0.022116385,0.048096478,1,38,-11,18,80,-8.755595207,3.523067713,1.482010841,0.088199086,-0.037038282,0.038503829,-47,0,-40,16,186
1695161195306532300,-9.075222015,-2.522291422,0.010773907,0.028378254,-0.024647778,0.047163859,-1,37,-9,15,80,-8.755595207,3.524264812,1.480813742,0.085800916,-0.035705972,0.039036751,-46,1,-38,17,183
1695161195307532300,-9.070432663,-2.521094322,0.01316811,0.027045943,-0.026779478,0.04623124,-2,37,-11,14,81,-8.759186745,3.525461912,1.490390539,0.083269522,-0.034107197,0.03956968,-49,2,-38,16,184
1695161195308532300,-9.066842079,-2.522291422,0.015562311,0.025980091,-0.027845331,0.045565084,0,35,-10,14,84,-8.760383606,3.526659012,1.491587639,0.080604896,-0.032908116,0.040102605,-47,1,-37,16,184
1695161195419493400,-9.028534889,-2.506729126,-0.031124622,-0.040235836,-0.015987748,0.032241959,-1,35,-8,13,81,-8.762778282,3.489548922,1.510741234,0.055823889,-0.024914242,0.053958651,-49,-1,-41,16,200
1695161195420493400,-9.027337074,-2.507926226,-0.033518825,-0.043833077,-0.014921899,0.03130934,0,34,-11,14,80,-8.762778282,3.491943121,1.510741234,0.055424199,-0.025580399,0.054624807,-51,-1,-37,18,184
1695161195421493400,-9.027337074,-2.510320425,-0.037110128,-0.047163859,-0.014122511,0.030243492,-1,41,-9,14,80,-8.762778282,3.489548922,1.516726732,0.055157732,-0.026113322,0.055157732,-47,1,-39,18,185
1695161195422493400,-9.030928612,-2.515108824,-0.04070143,-0.050361406,-0.013323124,0.029444104,1,37,-9,13,81,-8.762778282,3.488351822,1.52510643,0.05489127,-0.026779478,0.055823889,-47,3,-40,14,184
1695161195423493400,-9.032125473,-2.519897223,-0.04309563,-0.053026035,-0.012656967,0.028245023,-1,36,-9,13,79,-8.765172005,3.487154722,1.527500629,0.054624807,-0.027445635,0.056490045,-45,0,-37,15,185
1695161195542397700,-9.069235802,-2.515108824,-0.105344877,-0.070346095,-0.025313934,-0.00106585,-1,34,-9,13,82,-8.741230011,3.469198227,1.556231141,0.042900458,-0.025313934,0.066215925,-50,-1,-37,19,184
1695161195543397700,-9.069235802,-2.510320425,-0.108936176,-0.070479326,-0.02691271,-0.003064318,-1,38,-13,16,84,-8.744821548,3.466804028,1.556231141,0.042500768,-0.025447167,0.066615619,-51,1,-36,20,186
1695161195544397700,-9.06803894,-2.507926226,-0.112527482,-0.070745789,-0.028511487,-0.004663093,-1,39,-9,14,81,-8.744821548,3.470395327,1.550245643,0.042101074,-0.025846859,0.067015313,-49,0,-40,16,184
1695161195545397700,-9.071630478,-2.504334927,-0.117315881,-0.071012251,-0.029977029,-0.006261868,0,37,-8,14,78,-8.74601841,3.465606928,1.549048543,0.041834611,-0.026246555,0.067415006,-50,0,-39,17,185
1695161195546397700,-9.070432663,-2.503137827,-0.120907187,-0.071278714,-0.031042879,-0.007727412,-1,39,-7,18,79,-8.748413086,3.465606928,1.555034041,0.041434918,-0.027045943,0.067947932,-53,3,-37,14,185
1695161195660320400,-9.060855865,-2.457648039,-0.152031809,-0.082603365,-0.020117918,-0.013589587,-1,37,-10,14,81,-8.759186745,3.441664934,1.533486247,0.034640122,-0.043966308,0.075675346,-49,-2,-38,16,184
1695161195661320400,-9.06205368,-2.455253839,-0.153228909,-0.083003066,-0.018519141,-0.01385605,-1,39,-9,13,78,-8.759186745,3.442862034,1.529894829,0.034906585,-0.043699846,0.075941809,-44,1,-37,18,184
1695161195662320400,-9.06205368,-2.45285964,-0.152031809,-0.083535992,-0.016920367,-0.01398928,-2,38,-11,15,79,-8.759186745,3.444059134,1.527500629,0.035039816,-0.043433387,0.076075032,-46,0,-37,16,184
1695161195663320400,-9.063250542,-2.448071241,-0.14844051,-0.084068909,-0.015321592,-0.014522205,1,33,-9,14,80,-8.755595207,3.447650433,1.52390933,0.03543951,-0.043300152,0.076341502,-45,1,-40,17,183
1695161195664320400,-9.060855865,-2.445677042,-0.153228909,-0.084202148,-0.013589587,-0.014921899,-1,36,-6,13,78,-8.750806808,3.447650433,1.529894829,0.035972435,-0.042900458,0.076341502,-47,-1,-37,17,185
1695161195730278900,-9.051279068,-2.41335535,-0.126892686,-0.082603365,0.017986218,-0.021716693,-1,35,-9,14,79,-8.771158218,3.435679436,1.495178938,0.022516079,-0.038637057,0.080604896,-46,1,-40,16,185
1695161195731278900,-9.048885345,-2.410961151,-0.123301387,-0.081271052,0.019584993,-0.021716693,-1,37,-6,14,81,-8.769960403,3.430891037,1.495178938,0.021849923,-0.038637057,0.081004597,-49,-1,-38,15,183
1695161195732278900,-9.045293808,-2.406172752,-0.123301387,-0.079805516,0.021050537,-0.021849923,0,38,-8,14,78,-8.773551941,3.429693937,1.491587639,0.020917306,-0.038637057,0.081537522,-47,-1,-36,16,183
1695161195733278900,-9.045293808,-2.406172752,-0.124498487,-0.078606427,0.021983154,-0.021849923,-1,33,-7,13,78,-8.773551941,3.426102638,1.484405041,0.020117918,-0.038503829,0.08207044,-45,-5,-41,17,184
1695161195734278900,-9.047688484,-2.404975653,-0.123301387,-0.07714089,0.023315467,-0.022116385,-1,37,-6,15,81,-8.774748802,3.415328741,1.478419542,0.019318528,-0.038370594,0.082736596,-46,1,-37,19,184
1695161195820228300,-9.040505409,-2.351106167,-0.077811554,-0.062485453,0.015188362,-0.037704438,-1,33,-7,13,78,-8.750806808,3.374627352,1.496376038,0.029843798,-0.061552834,0.089664623,-50,0,-37,16,184
1695161195821228300,-9.040505409,-2.346317768,-0.069431849,-0.063284837,0.01505513,-0.038370594,-1,36,-13,13,81,-8.752004623,3.374627352,1.501164436,0.029977029,-0.063018374,0.089664623,-49,-1,-35,16,184
1695161195822228300,-9.040505409,-2.34033227,-0.06584055,-0.064350687,0.015188362,-0.038637057,-2,34,-12,12,78,-8.749609947,3.372233152,1.496376038,0.029843798,-0.064084224,0.089398161,-50,0,-38,16,184
1695161195823228300,-9.039308548,-2.34033227,-0.062249243,-0.065683,0.015454824,-0.038770292,-1,34,-10,13,80,-8.748413086,3.372233152,1.491587639,0.029843798,-0.064883612,0.088998467,-50,-2,-38,18,184
1695161195824228300,-9.038111687,-2.33913517,-0.061052144,-0.067148544,0.015987748,-0.038770292,-1,35,-7,15,78,-8.749609947,3.374627352,1.492784739,0.029977029,-0.065549769,0.088865243,-46,-1,-37,18,186
1695161195879193100,-9.273940086,-2.67552042,-0.197521642,-0.069413476,0.023315467,-0.014522205,-1,35,-7,13,78,-8.871714592,3.758896589,1.382651448,0.054491576,-0.048762634,0.063284837,-47,0,-36,18,183
1695161195880193100,-9.301473618,-2.737769604,-0.216675252,-0.06461715,0.023182238,-0.01079173,-1,34,-9,13,80,-8.888473511,3.82593441,1.391031146,0.055823889,-0.046497703,0.063950993,-46,2,-37,16,184
1695161195881193100,-9.325415611,-2.802412987,-0.231040463,-0.058754977,0.02384839,-0.007061256,-4,32,-7,13,79,-8.902838707,3.90374589,1.408987641,0.056623276,-0.044232771,0.065549769,-49,1,-37,17,183
1695161195882193100,-9.345766068,-2.873042107,-0.239420176,-0.052093416,0.025313934,-0.002931087,-1,35,-8,14,79,-8.911218643,3.958812475,1.419761658,0.056490045,-0.04276723,0.066882081,-50,-1,-40,16,184
