timestamp,EMG_s0,EMG_s1,EMG_s2,EMG_s3,EMG_s4,EMG_s5,EMG_s6,EMG_s7
1.6951626912080576e+18,-1.0,1.0,0.0,0.0,0.0,-1.0,0.0,0.0
1.6951626912080576e+18,-2.0,-1.0,-1.0,0.0,-1.0,-2.0,0.0,1.0
1.6951626912090547e+18,0.0,-3.0,-2.0,0.0,-2.0,-1.0,1.0,1.0
1.6951626912090547e+18,-1.0,-1.0,0.0,-1.0,0.0,-1.0,0.0,-1.0
1.6951626912090547e+18,-1.0,0.0,0.0,1.0,-1.0,0.0,-1.0,-2.0
1.6951626912100644e+18,-2.0,-2.0,-1.0,-1.0,0.0,1.0,-2.0,0.0
1.6951626912130537e+18,-1.0,1.0,-1.0,-2.0,0.0,-2.0,-2.0,-2.0
1.6951626912140554e+18,-1.0,0.0,1.0,0.0,-1.0,-1.0,-2.0,-1.0
1.6951626912140554e+18,1.0,-2.0,-3.0,-1.0,-1.0,0.0,0.0,-1.0
1.6951626912150513e+18,0.0,0.0,0.0,-3.0,0.0,-1.0,0.0,-1.0
1.6951626912160502e+18,-2.0,0.0,-1.0,0.0,-1.0,-1.0,-1.0,0.0
1.6951626912160502e+18,0.0,-2.0,-2.0,-2.0,-1.0,-1.0,-1.0,-2.0
1.695162691219073e+18,0.0,-2.0,-1.0,0.0,1.0,0.0,0.0,1.0
1.695162691220048e+18,1.0,-1.0,-1.0,1.0,-1.0,-1.0,2.0,-1.0
1.6951626912390374e+18,0.0,-3.0,3.0,-2.0,0.0,0.0,-1.0,-1.0
1.6951626912390374e+18,-1.0,-2.0,-3.0,0.0,0.0,-1.0,-2.0,-1.0
1.695162691243038e+18,-2.0,-3.0,-4.0,-4.0,-1.0,-1.0,-1.0,-1.0
1.695162691249035e+18,0.0,-2.0,0.0,0.0,-1.0,1.0,0.0,0.0
1.6951626912580506e+18,-2.0,0.0,-1.0,0.0,0.0,2.0,0.0,-1.0
1.6951626912580506e+18,-2.0,0.0,2.0,0.0,-2.0,1.0,-2.0,0.0
1.6951626912730184e+18,-1.0,0.0,-1.0,0.0,0.0,-1.0,-2.0,-3.0
1.6951626912730184e+18,-2.0,-2.0,-2.0,-1.0,-1.0,0.0,-1.0,-2.0
1.6951626912820173e+18,1.0,0.0,0.0,-1.0,1.0,0.0,0.0,-2.0
1.6951626912830126e+18,-1.0,-2.0,-1.0,-1.0,0.0,-1.0,1.0,0.0
1.695162691288009e+18,-1.0,-1.0,1.0,-1.0,-3.0,0.0,0.0,0.0
1.695162691288009e+18,0.0,2.0,-2.0,-1.0,-2.0,-3.0,-1.0,-2.0
1.6951626913209907e+18,0.0,1.0,-1.0,1.0,-1.0,-2.0,-1.0,-1.0
1.6951626913249907e+18,-1.0,-1.0,-1.0,-2.0,0.0,0.0,1.0,-2.0
1.6951626913249907e+18,0.0,-1.0,0.0,0.0,0.0,-1.0,-2.0,0.0
1.6951626913249907e+18,-1.0,-1.0,1.0,0.0,0.0,0.0,0.0,-1.0
1.6951626913249907e+18,-1.0,-2.0,-3.0,0.0,0.0,-2.0,-1.0,-1.0
1.6951626913259901e+18,1.0,-1.0,0.0,0.0,0.0,0.0,-1.0,-1.0
1.6951626913279867e+18,-1.0,-1.0,-2.0,-2.0,-2.0,-1.0,-1.0,-2.0
1.6951626913279867e+18,-1.0,-1.0,-1.0,-1.0,0.0,-1.0,-1.0,-1.0
1.6951626913729605e+18,-1.0,-1.0,1.0,-1.0,0.0,1.0,-1.0,0.0
1.6951626913729605e+18,1.0,1.0,2.0,-1.0,-1.0,1.0,0.0,-1.0
1.6951626913729605e+18,-3.0,-1.0,-2.0,-2.0,-1.0,-1.0,-3.0,-2.0
1.6951626913739653e+18,-1.0,0.0,-1.0,-1.0,0.0,-1.0,-1.0,0.0
1.6951626913869548e+18,-1.0,0.0,0.0,0.0,0.0,-2.0,0.0,-2.0
1.6951626913869548e+18,0.0,-1.0,-1.0,-1.0,-1.0,-1.0,-1.0,0.0
1.695162691387952e+18,-1.0,-1.0,-2.0,0.0,-2.0,-1.0,0.0,-1.0
1.695162691387952e+18,1.0,0.0,0.0,0.0,-2.0,0.0,1.0,-1.0
1.6951626913889528e+18,-1.0,1.0,-1.0,-2.0,0.0,-1.0,0.0,-1.0
1.6951626913889528e+18,-2.0,-1.0,-2.0,-1.0,0.0,0.0,-1.0,-1.0
1.6951626913919496e+18,1.0,0.0,0.0,0.0,-1.0,-1.0,0.0,0.0
1.6951626913919496e+18,0.0,0.0,1.0,-2.0,-1.0,-1.0,-1.0,-2.0
1.695162691400968e+18,0.0,0.0,-1.0,-2.0,0.0,1.0,1.0,-2.0
1.695162691400968e+18,-1.0,-2.0,-2.0,-2.0,-3.0,-2.0,0.0,0.0
1.695162691407943e+18,0.0,1.0,-2.0,-2.0,-1.0,0.0,1.0,0.0
1.695162691407943e+18,-1.0,-1.0,-2.0,-1.0,0.0,-1.0,-1.0,1.0
1.6951626914229335e+18,0.0,-1.0,0.0,-1.0,-2.0,-2.0,-3.0,-1.0
1.6951626914229335e+18,1.0,0.0,-1.0,0.0,-1.0,-3.0,-1.0,0.0
1.6951626914389253e+18,0.0,0.0,-1.0,0.0,0.0,0.0,-1.0,-1.0
1.6951626914389253e+18,0.0,-1.0,-1.0,0.0,-1.0,-1.0,-1.0,-1.0
1.6951626914389253e+18,-1.0,-1.0,-1.0,-1.0,-2.0,-1.0,0.0,0.0
1.6951626914389253e+18,0.0,1.0,-2.0,1.0,-1.0,2.0,1.0,1.0
1.6951626914519148e+18,-1.0,-2.0,0.0,-1.0,-2.0,-2.0,0.0,-2.0
1.6951626914519148e+18,0.0,-1.0,-1.0,1.0,-2.0,-2.0,-1.0,0.0
1.695162691458935e+18,-1.0,0.0,-2.0,1.0,-2.0,-2.0,-1.0,-1.0
1.6951626914599127e+18,-1.0,-1.0,-1.0,-1.0,-1.0,-2.0,-1.0,-2.0
1.6951626914759025e+18,0.0,-1.0,0.0,-3.0,-2.0,-2.0,-2.0,0.0
1.6951626914779077e+18,0.0,-2.0,0.0,-1.0,-2.0,1.0,0.0,0.0
1.6951626914779077e+18,0.0,-1.0,0.0,-2.0,-1.0,1.0,-1.0,1.0
1.6951626914779077e+18,0.0,-1.0,-1.0,-1.0,0.0,-1.0,-1.0,-1.0
1.6951626914978895e+18,0.0,-1.0,0.0,0.0,-1.0,1.0,-1.0,-2.0
1.6951626914978895e+18,-3.0,-1.0,-1.0,-1.0,0.0,0.0,0.0,-2.0
1.6951626914998894e+18,0.0,-1.0,0.0,1.0,-1.0,0.0,-1.0,-1.0
1.6951626914998894e+18,-2.0,-1.0,0.0,-2.0,-1.0,-2.0,0.0,-2.0
1.6951626915288717e+18,0.0,-1.0,-1.0,0.0,1.0,-1.0,-1.0,0.0
1.6951626915288717e+18,-2.0,0.0,-1.0,-1.0,-1.0,-1.0,0.0,-1.0
1.6951626915288717e+18,0.0,-1.0,-1.0,-1.0,-1.0,-2.0,-1.0,-1.0
1.695162691536868e+18,0.0,-2.0,-1.0,-1.0,0.0,-1.0,-2.0,-4.0
1.6951626915598546e+18,1.0,0.0,0.0,-1.0,-4.0,-2.0,-2.0,-4.0
1.6951626915608563e+18,-2.0,-1.0,-1.0,-1.0,-3.0,-1.0,-4.0,-1.0
1.6951626915608563e+18,-2.0,-3.0,-4.0,-2.0,-2.0,-1.0,-1.0,-1.0
1.6951626915618563e+18,-2.0,-3.0,-2.0,0.0,-4.0,-2.0,-2.0,-2.0
1.6951626915618563e+18,-2.0,-3.0,-1.0,1.0,0.0,-1.0,-2.0,0.0
1.6951626915618563e+18,-1.0,-3.0,-3.0,-2.0,-1.0,-1.0,-2.0,-2.0
1.695162691562852e+18,0.0,-2.0,-3.0,0.0,-2.0,-2.0,0.0,-2.0
1.695162691562852e+18,-3.0,-1.0,-2.0,0.0,-3.0,1.0,-1.0,-1.0
1.6951626915748457e+18,-1.0,-2.0,-1.0,-1.0,-3.0,1.0,-1.0,-2.0
1.6951626915748457e+18,-1.0,-1.0,-1.0,-1.0,1.0,0.0,-1.0,-1.0
1.695162691594834e+18,-3.0,-1.0,-1.0,0.0,0.0,-1.0,0.0,1.0
1.6951626915958333e+18,0.0,-1.0,-1.0,0.0,1.0,1.0,-1.0,0.0
1.6951626916108244e+18,-1.0,0.0,0.0,0.0,0.0,-2.0,-1.0,-1.0
1.6951626916148224e+18,-2.0,-2.0,-1.0,1.0,-2.0,0.0,-1.0,-2.0
1.6951626916158218e+18,-1.0,-1.0,0.0,-1.0,0.0,-2.0,0.0,-2.0
1.6951626916158218e+18,-1.0,-1.0,-2.0,0.0,-1.0,-1.0,-1.0,0.0
1.6951626916258153e+18,-1.0,-1.0,0.0,-1.0,-2.0,-2.0,-1.0,0.0
1.6951626916258153e+18,0.0,0.0,-1.0,0.0,0.0,0.0,-2.0,0.0
1.6951626916258153e+18,-1.0,0.0,1.0,0.0,-3.0,-2.0,0.0,-1.0
1.695162691626817e+18,-1.0,-1.0,0.0,0.0,-2.0,-1.0,-1.0,-2.0
1.6951626916318126e+18,-1.0,-2.0,-3.0,-3.0,1.0,1.0,-1.0,-2.0
1.6951626916318126e+18,-2.0,-2.0,-2.0,-1.0,-1.0,-1.0,-1.0,-2.0
1.6951626916478034e+18,0.0,-1.0,-1.0,0.0,0.0,0.0,-2.0,-2.0
1.6951626916518026e+18,-2.0,1.0,-1.0,-1.0,1.0,-2.0,0.0,0.0
1.695162691662796e+18,-2.0,0.0,1.0,-1.0,1.0,-1.0,0.0,0.0
1.6951626916638034e+18,-1.0,-2.0,0.0,-1.0,1.0,0.0,0.0,-1.0
1.6951626916638034e+18,-1.0,-1.0,0.0,-2.0,-1.0,0.0,-3.0,-1.0
1.6951626916638034e+18,0.0,0.0,0.0,-2.0,-1.0,-1.0,0.0,0.0
1.6951626916777871e+18,-1.0,-1.0,-1.0,1.0,-1.0,-1.0,-2.0,0.0
1.6951626916777871e+18,1.0,-1.0,-2.0,-1.0,0.0,1.0,1.0,2.0
1.695162691678791e+18,0.0,0.0,-1.0,-2.0,0.0,2.0,2.0,0.0
1.695162691678791e+18,-2.0,1.0,2.0,1.0,1.0,1.0,-1.0,1.0
1.695162691700774e+18,2.0,1.0,0.0,1.0,0.0,0.0,1.0,-1.0
1.695162691700774e+18,1.0,1.0,1.0,0.0,-1.0,0.0,-1.0,-2.0
1.6951626917077688e+18,1.0,1.0,0.0,-1.0,-1.0,-1.0,0.0,1.0
1.6951626917077688e+18,0.0,0.0,-1.0,-2.0,-1.0,-1.0,-2.0,0.0
1.6951626917227617e+18,0.0,-3.0,0.0,-1.0,0.0,-1.0,1.0,1.0
1.6951626917237847e+18,-1.0,0.0,1.0,-1.0,-1.0,-2.0,-1.0,0.0
1.6951626917237847e+18,1.0,0.0,0.0,0.0,1.0,2.0,-1.0,0.0
1.6951626917237847e+18,-2.0,0.0,-2.0,1.0,-1.0,1.0,1.0,1.0
1.6951626917377516e+18,1.0,1.0,-2.0,-1.0,-2.0,0.0,-1.0,-1.0
1.6951626917377516e+18,0.0,0.0,1.0,-2.0,-1.0,-2.0,-1.0,-1.0
1.6951626917377516e+18,-1.0,0.0,0.0,-1.0,1.0,-2.0,-2.0,2.0
1.695162691738751e+18,0.0,-1.0,-1.0,0.0,-2.0,-1.0,0.0,-1.0
1.6951626917617372e+18,-1.0,1.0,-3.0,-1.0,1.0,-1.0,-1.0,-1.0
1.6951626917617372e+18,1.0,0.0,-2.0,-2.0,0.0,-1.0,-1.0,-1.0
1.6951626917617372e+18,-2.0,0.0,-1.0,-1.0,-1.0,0.0,0.0,-1.0
1.6951626917627412e+18,0.0,-1.0,1.0,-1.0,1.0,-1.0,0.0,0.0
1.6951626917767332e+18,-1.0,0.0,-2.0,-1.0,-1.0,0.0,1.0,1.0
1.6951626917767332e+18,0.0,0.0,0.0,-1.0,2.0,1.0,0.0,0.0
1.6951626917767332e+18,-1.0,-1.0,-1.0,0.0,-2.0,-1.0,-1.0,-1.0
1.695162691777733e+18,0.0,-1.0,-1.0,-1.0,0.0,0.0,0.0,-1.0
1.6951626917977172e+18,0.0,0.0,0.0,0.0,-1.0,0.0,0.0,-3.0
1.6951626917977172e+18,-2.0,-2.0,-1.0,-1.0,-2.0,-1.0,2.0,0.0
1.6951626917987177e+18,-1.0,-2.0,0.0,-2.0,1.0,0.0,-1.0,-1.0
1.6951626917987177e+18,0.0,0.0,-1.0,0.0,-1.0,-1.0,-1.0,-3.0
1.6951626918127084e+18,-1.0,-2.0,0.0,-2.0,-1.0,-1.0,-2.0,0.0
1.6951626918137096e+18,-1.0,0.0,-1.0,-1.0,-1.0,-3.0,0.0,-1.0
1.6951626918197059e+18,-1.0,0.0,0.0,-2.0,-1.0,-1.0,-1.0,0.0
1.6951626918197059e+18,-1.0,-1.0,0.0,-2.0,1.0,-1.0,-2.0,0.0
1.6951626918386962e+18,0.0,1.0,2.0,-1.0,-1.0,-1.0,-2.0,-1.0
1.6951626918397002e+18,0.0,-1.0,-1.0,0.0,-1.0,1.0,-1.0,0.0
1.6951626918397002e+18,0.0,1.0,0.0,0.0,-2.0,-1.0,1.0,-1.0
1.6951626918406976e+18,0.0,-1.0,-1.0,-1.0,0.0,-2.0,0.0,0.0
1.6951626918656878e+18,-1.0,-1.0,0.0,-1.0,-2.0,-1.0,-1.0,-1.0
1.6951626918656878e+18,-2.0,-1.0,0.0,-1.0,-1.0,-1.0,0.0,-1.0
1.695162691866678e+18,-1.0,-1.0,-2.0,-1.0,-2.0,-3.0,-1.0,0.0
1.695162691866678e+18,-2.0,-2.0,-1.0,0.0,-1.0,-1.0,0.0,-1.0
1.6951626918716982e+18,-3.0,-1.0,0.0,0.0,-1.0,-1.0,2.0,0.0
1.6951626918716982e+18,0.0,0.0,0.0,0.0,-1.0,-1.0,-1.0,0.0
1.6951626918876677e+18,0.0,-2.0,1.0,-1.0,0.0,0.0,-2.0,-2.0
1.6951626918876677e+18,-1.0,-1.0,0.0,-1.0,-1.0,0.0,0.0,1.0
1.6951626919036805e+18,-2.0,-2.0,-2.0,0.0,0.0,0.0,-1.0,-1.0
1.6951626919036805e+18,-1.0,1.0,0.0,0.0,2.0,1.0,-1.0,-1.0
1.695162691904657e+18,-1.0,-1.0,-1.0,0.0,-1.0,-2.0,-1.0,-1.0
1.695162691904657e+18,1.0,-1.0,-1.0,0.0,-2.0,-1.0,-2.0,-2.0
1.695162691926643e+18,0.0,-1.0,-2.0,0.0,-2.0,-3.0,-3.0,-2.0
1.6951626919276588e+18,-2.0,-3.0,-4.0,-1.0,-3.0,-2.0,-3.0,-3.0
1.6951626919276588e+18,-2.0,-2.0,-2.0,-1.0,0.0,-1.0,-1.0,-2.0
1.6951626919276588e+18,-3.0,-1.0,-2.0,0.0,-4.0,-3.0,0.0,-2.0
1.695162691940581e+18,-1.0,-2.0,-2.0,-1.0,-2.0,-1.0,-2.0,0.0
1.695162691940581e+18,-2.0,-1.0,-3.0,-2.0,-1.0,-2.0,-1.0,0.0
1.695162691940581e+18,1.0,-2.0,-3.0,1.0,-2.0,-1.0,-1.0,0.0
1.695162691940581e+18,-2.0,-2.0,-2.0,-4.0,1.0,0.0,-1.0,-1.0
1.6951626919625124e+18,-1.0,-1.0,-2.0,-1.0,-1.0,0.0,0.0,-1.0
1.6951626919625124e+18,-3.0,-2.0,-3.0,1.0,-2.0,-2.0,0.0,1.0
1.695162691963512e+18,0.0,-4.0,-1.0,-1.0,0.0,0.0,-1.0,-2.0
1.695162691963512e+18,-2.0,-1.0,-1.0,-2.0,1.0,-1.0,-1.0,-1.0
1.6951626919855273e+18,1.0,-1.0,1.0,-1.0,-2.0,-1.0,0.0,-2.0
1.6951626919855273e+18,0.0,-1.0,-2.0,-2.0,0.0,-1.0,-1.0,-1.0
1.6951626919865247e+18,-1.0,0.0,-3.0,-1.0,-1.0,-2.0,-2.0,0.0
1.6951626919865247e+18,0.0,-1.0,-3.0,-1.0,-1.0,-1.0,-3.0,-2.0
1.695162692000516e+18,-1.0,-1.0,0.0,0.0,-2.0,-1.0,-2.0,0.0
1.695162692000516e+18,-2.0,-1.0,-1.0,0.0,-4.0,0.0,-2.0,0.0
1.695162692000516e+18,-2.0,-1.0,0.0,-1.0,-1.0,-1.0,0.0,-1.0
1.6951626920015163e+18,-1.0,-2.0,-2.0,-1.0,-2.0,0.0,0.0,0.0
1.6951626920175073e+18,-2.0,-1.0,-1.0,-2.0,0.0,-2.0,-1.0,0.0
1.6951626920175073e+18,-2.0,0.0,0.0,0.0,0.0,0.0,0.0,-2.0
1.6951626920175073e+18,0.0,-1.0,0.0,-1.0,-1.0,-2.0,-2.0,-2.0
1.6951626920175073e+18,-1.0,-1.0,0.0,0.0,-1.0,-1.0,1.0,-1.0
1.695162692039494e+18,0.0,0.0,-1.0,0.0,-1.0,-2.0,-1.0,-2.0
1.695162692039494e+18,0.0,-1.0,0.0,0.0,1.0,0.0,0.0,-1.0
1.695162692040497e+18,-2.0,1.0,-2.0,0.0,-2.0,-1.0,0.0,-1.0
1.695162692040497e+18,0.0,1.0,-1.0,0.0,0.0,-1.0,-1.0,-1.0
1.695162692070477e+18,0.0,-1.0,0.0,-1.0,-1.0,0.0,-1.0,1.0
1.695162692070477e+18,-1.0,-1.0,0.0,-2.0,1.0,1.0,1.0,0.0
1.695162692070477e+18,-1.0,0.0,2.0,0.0,2.0,2.0,0.0,0.0
1.695162692070477e+18,1.0,1.0,1.0,1.0,1.0,-1.0,0.0,-1.0
1.6951626920804705e+18,0.0,2.0,0.0,0.0,2.0,-1.0,0.0,-1.0
1.6951626920804705e+18,0.0,0.0,1.0,-1.0,0.0,-2.0,-1.0,-1.0
1.69516269209946e+18,0.0,0.0,0.0,-2.0,0.0,-1.0,0.0,0.0
1.69516269209946e+18,1.0,1.0,2.0,-1.0,-1.0,1.0,-1.0,-3.0
1.69516269209946e+18,-1.0,-1.0,-1.0,-1.0,-1.0,-1.0,1.0,0.0
1.69516269209946e+18,1.0,0.0,0.0,0.0,-1.0,-2.0,-1.0,-1.0
1.6951626921004593e+18,-1.0,-1.0,-1.0,0.0,0.0,1.0,0.0,0.0
1.6951626921004593e+18,0.0,0.0,-2.0,-3.0,1.0,-1.0,-2.0,-1.0
1.695162692152432e+18,1.0,1.0,-1.0,0.0,-1.0,0.0,-1.0,-2.0
1.695162692152432e+18,0.0,-1.0,-1.0,0.0,-1.0,0.0,0.0,0.0
1.695162692152432e+18,1.0,-2.0,0.0,-1.0,0.0,-1.0,0.0,-2.0
1.695162692152432e+18,-1.0,-2.0,-2.0,2.0,0.0,-1.0,-1.0,0.0
1.695162692158426e+18,-2.0,-2.0,0.0,-2.0,-1.0,-2.0,-2.0,-3.0
1.695162692159426e+18,-2.0,1.0,0.0,-1.0,0.0,0.0,-1.0,-1.0
1.695162692159426e+18,-1.0,0.0,0.0,-1.0,-2.0,-1.0,-2.0,0.0
1.695162692159426e+18,-2.0,-3.0,0.0,-2.0,-1.0,-1.0,2.0,0.0
1.6951626921674222e+18,1.0,-1.0,-1.0,1.0,0.0,-1.0,-1.0,-1.0
1.6951626921674222e+18,1.0,0.0,-1.0,1.0,0.0,0.0,-1.0,-2.0
1.695162692168421e+18,0.0,-1.0,-2.0,-1.0,-2.0,0.0,-1.0,-1.0
1.695162692168421e+18,0.0,-1.0,-1.0,-1.0,-3.0,-1.0,-4.0,-1.0
1.6951626921844114e+18,-2.0,0.0,0.0,0.0,1.0,1.0,0.0,0.0
1.6951626921844114e+18,-3.0,-1.0,0.0,0.0,0.0,2.0,1.0,0.0
1.6951626921844114e+18,-2.0,0.0,-3.0,1.0,-3.0,0.0,-1.0,-1.0
1.6951626921844114e+18,0.0,0.0,-1.0,-2.0,-1.0,-1.0,-1.0,0.0
1.6951626921974062e+18,-2.0,-1.0,-2.0,-2.0,-1.0,-1.0,-1.0,-2.0
1.6951626921974062e+18,-1.0,-1.0,0.0,0.0,0.0,-2.0,-4.0,-2.0
1.6951626922024013e+18,0.0,1.0,-2.0,-1.0,-1.0,-2.0,-1.0,-1.0
1.6951626922024013e+18,0.0,-2.0,0.0,-3.0,-1.0,-1.0,0.0,-2.0
1.695162692219391e+18,0.0,0.0,-1.0,1.0,-2.0,-1.0,-1.0,-1.0
1.695162692219391e+18,0.0,-1.0,0.0,0.0,-1.0,-1.0,-2.0,-2.0
1.6951626922283884e+18,-1.0,-1.0,0.0,0.0,1.0,0.0,-1.0,0.0
1.6951626922283884e+18,-1.0,0.0,-1.0,1.0,1.0,-2.0,1.0,1.0
1.6951626922413788e+18,-1.0,-1.0,-1.0,-1.0,0.0,0.0,0.0,0.0
1.6951626922423788e+18,-1.0,-1.0,0.0,-2.0,-1.0,0.0,1.0,0.0
1.6951626922423788e+18,-1.0,0.0,-2.0,-2.0,-1.0,-2.0,-3.0,0.0
1.6951626922423788e+18,0.0,0.0,0.0,-1.0,-3.0,1.0,-1.0,0.0
1.6951626922543718e+18,-2.0,0.0,0.0,-4.0,-1.0,0.0,0.0,1.0
1.6951626922543718e+18,1.0,0.0,-3.0,-5.0,-6.0,0.0,-2.0,-3.0
1.6951626922703613e+18,-1.0,2.0,4.0,6.0,4.0,1.0,-2.0,-1.0
1.6951626922713628e+18,-1.0,-1.0,-1.0,1.0,1.0,-1.0,1.0,0.0
1.695162692277357e+18,0.0,-2.0,-12.0,-1.0,-9.0,-4.0,-3.0,-2.0
1.695162692277357e+18,0.0,2.0,17.0,12.0,22.0,5.0,0.0,0.0
1.6951626922783588e+18,1.0,1.0,3.0,1.0,6.0,-1.0,0.0,0.0
1.6951626922783588e+18,-1.0,-1.0,1.0,1.0,-6.0,-3.0,-1.0,-3.0
1.6951626923003446e+18,-1.0,-4.0,-6.0,-2.0,4.0,-1.0,0.0,0.0
1.6951626923003446e+18,1.0,1.0,-1.0,-9.0,-10.0,-9.0,-2.0,-1.0
1.6951626923013494e+18,-1.0,1.0,4.0,-5.0,-6.0,4.0,1.0,4.0
1.6951626923013494e+18,-2.0,0.0,-6.0,1.0,-10.0,-6.0,-1.0,-9.0
1.695162692314336e+18,-2.0,1.0,2.0,-17.0,-17.0,-3.0,4.0,-3.0
1.695162692314336e+18,2.0,-3.0,-31.0,16.0,16.0,13.0,2.0,11.0
1.6951626923223332e+18,-1.0,10.0,37.0,-5.0,27.0,12.0,14.0,-34.0
1.6951626923223332e+18,-6.0,-25.0,-41.0,-26.0,-23.0,-3.0,-13.0,18.0
1.6951626923373233e+18,2.0,-3.0,18.0,0.0,5.0,-1.0,-5.0,30.0
1.6951626923373233e+18,0.0,5.0,-5.0,44.0,28.0,1.0,-13.0,-19.0
1.6951626923453187e+18,3.0,-3.0,-12.0,-7.0,-20.0,-12.0,1.0,14.0
1.6951626923453187e+18,-8.0,3.0,1.0,0.0,2.0,-4.0,-10.0,-44.0
1.6951626923603098e+18,6.0,-6.0,8.0,-8.0,-9.0,0.0,3.0,26.0
1.6951626923603098e+18,0.0,-5.0,-2.0,-19.0,-19.0,-4.0,7.0,13.0
1.6951626923603098e+18,-4.0,0.0,-7.0,4.0,-1.0,-1.0,-7.0,-3.0
1.6951626923603098e+18,3.0,19.0,32.0,7.0,9.0,2.0,-18.0,-2.0
1.6951626923822996e+18,-4.0,-4.0,-41.0,-1.0,2.0,-4.0,-3.0,-29.0
1.6951626923822996e+18,-12.0,-21.0,-3.0,-7.0,-9.0,-11.0,-1.0,-5.0
1.6951626923832975e+18,2.0,-18.0,-9.0,-15.0,-8.0,4.0,2.0,31.0
1.6951626923832975e+18,-2.0,14.0,13.0,-3.0,-14.0,-10.0,13.0,11.0
1.695162692406288e+18,6.0,-8.0,-4.0,25.0,41.0,31.0,-4.0,-19.0
1.695162692406288e+18,1.0,1.0,-16.0,-16.0,-5.0,-9.0,-4.0,0.0
1.695162692406288e+18,-7.0,0.0,-10.0,-1.0,-5.0,-8.0,-13.0,-38.0
1.695162692407284e+18,6.0,-10.0,15.0,-5.0,-6.0,-2.0,-4.0,44.0
1.6951626924202755e+18,-1.0,16.0,7.0,9.0,-11.0,-6.0,21.0,2.0
1.6951626924202755e+18,2.0,0.0,-3.0,-11.0,-2.0,5.0,16.0,23.0
1.6951626924212774e+18,-4.0,-3.0,10.0,7.0,-9.0,-9.0,-10.0,-14.0
1.6951626924212774e+18,2.0,6.0,-2.0,3.0,15.0,9.0,11.0,-7.0
1.6951626924422638e+18,-6.0,-1.0,-13.0,-9.0,-5.0,-6.0,-5.0,-7.0
1.6951626924422638e+18,3.0,6.0,14.0,1.0,-3.0,5.0,-5.0,-30.0
1.6951626924432627e+18,1.0,3.0,-12.0,-1.0,1.0,12.0,7.0,45.0
1.6951626924432627e+18,8.0,-21.0,-7.0,-1.0,0.0,-11.0,-27.0,-11.0
1.6951626924752468e+18,-6.0,12.0,39.0,1.0,-6.0,-5.0,3.0,24.0
1.6951626924752468e+18,-1.0,-1.0,-15.0,-3.0,-7.0,3.0,4.0,-70.0
1.695162692482241e+18,-11.0,-10.0,5.0,1.0,1.0,-5.0,1.0,-7.0
1.6951626924832404e+18,14.0,18.0,-4.0,4.0,-4.0,7.0,9.0,59.0
1.6951626924832404e+18,0.0,-2.0,-2.0,-2.0,3.0,1.0,7.0,1.0
1.6951626924832404e+18,1.0,4.0,35.0,0.0,-6.0,3.0,2.0,9.0
1.6951626924832404e+18,-4.0,-23.0,-74.0,-9.0,7.0,1.0,-4.0,-19.0
1.69516269248424e+18,-7.0,-3.0,8.0,7.0,6.0,5.0,11.0,-24.0
1.695162692510224e+18,0.0,1.0,-17.0,-8.0,-1.0,-9.0,-7.0,-17.0
1.695162692510224e+18,0.0,11.0,47.0,-4.0,-11.0,-2.0,-7.0,12.0
1.6951626925112256e+18,3.0,4.0,-11.0,8.0,-5.0,-4.0,1.0,-23.0
1.6951626925112256e+18,-11.0,-17.0,-15.0,-8.0,-4.0,2.0,11.0,14.0
1.6951626925252168e+18,10.0,4.0,-13.0,8.0,-5.0,-8.0,-1.0,-10.0
1.6951626925252168e+18,-9.0,-7.0,-12.0,-1.0,12.0,7.0,6.0,-17.0
1.6951626925332111e+18,17.0,20.0,39.0,-3.0,-10.0,-10.0,-26.0,81.0
1.6951626925342124e+18,3.0,-7.0,-1.0,6.0,12.0,6.0,9.0,-25.0
1.6951626925402076e+18,-5.0,2.0,-14.0,-3.0,-1.0,7.0,7.0,-4.0
1.6951626925402076e+18,-4.0,-15.0,3.0,-5.0,-5.0,-8.0,-2.0,-8.0
1.6951626925402076e+18,-4.0,10.0,22.0,9.0,10.0,14.0,24.0,-24.0
1.6951626925412073e+18,-2.0,3.0,-47.0,-4.0,-5.0,-2.0,-3.0,11.0
1.6951626925632087e+18,0.0,-20.0,17.0,-4.0,-2.0,-6.0,-24.0,-2.0
1.6951626925721897e+18,-1.0,2.0,-27.0,0.0,-10.0,-12.0,-10.0,15.0
1.6951626925721897e+18,-8.0,4.0,-1.0,2.0,14.0,17.0,32.0,-67.0
1.6951626925731884e+18,-11.0,6.0,23.0,-9.0,-11.0,-15.0,-35.0,-12.0
1.6951626925931853e+18,23.0,0.0,8.0,17.0,10.0,3.0,3.0,71.0
1.6951626925931853e+18,13.0,13.0,-33.0,-2.0,1.0,0.0,10.0,10.0
1.6951626925941768e+18,-3.0,-17.0,5.0,-5.0,-11.0,-6.0,-10.0,5.0
1.6951626925941768e+18,-10.0,-17.0,-5.0,-6.0,-3.0,5.0,19.0,-49.0
1.6951626926081705e+18,-11.0,6.0,4.0,5.0,9.0,2.0,-5.0,-25.0
1.6951626926121674e+18,0.0,4.0,63.0,3.0,-3.0,1.0,-8.0,17.0
1.695162692613166e+18,1.0,7.0,-19.0,-1.0,1.0,0.0,13.0,3.0
1.695162692613166e+18,12.0,6.0,14.0,2.0,1.0,-5.0,-3.0,6.0
1.6951626926311555e+18,-8.0,-8.0,0.0,-6.0,-4.0,0.0,-7.0,4.0
1.6951626926311555e+18,3.0,5.0,3.0,-2.0,2.0,3.0,4.0,11.0
1.6951626926311555e+18,-6.0,-12.0,-18.0,-3.0,-4.0,-5.0,-8.0,-9.0
1.6951626926321564e+18,11.0,7.0,0.0,4.0,8.0,7.0,22.0,19.0
1.6951626926461463e+18,11.0,-10.0,-32.0,-7.0,-4.0,2.0,-4.0,-30.0
1.6951626926561434e+18,-23.0,17.0,22.0,6.0,2.0,-4.0,-26.0,14.0
1.6951626926561434e+18,-15.0,0.0,-2.0,-5.0,-6.0,-3.0,6.0,-39.0
1.6951626926561434e+18,10.0,23.0,-4.0,5.0,6.0,-1.0,-11.0,63.0
1.6951626926601418e+18,-18.0,-15.0,23.0,0.0,0.0,4.0,8.0,-14.0
1.6951626926601418e+18,12.0,-12.0,-36.0,-11.0,-6.0,-3.0,-1.0,14.0
1.6951626926611387e+18,10.0,-6.0,24.0,5.0,1.0,-6.0,-14.0,11.0
1.6951626926611387e+18,-5.0,-1.0,-3.0,3.0,1.0,3.0,13.0,-28.0
1.6951626926821263e+18,-16.0,5.0,-2.0,-4.0,-1.0,6.0,7.0,-24.0
1.6951626926831255e+18,8.0,3.0,-9.0,-1.0,-2.0,-5.0,-6.0,7.0
1.6951626926831255e+18,-10.0,-22.0,-4.0,-2.0,4.0,-1.0,-10.0,14.0
1.6951626926831255e+18,3.0,-12.0,-8.0,-5.0,-3.0,-1.0,-1.0,-26.0
1.6951626927071158e+18,0.0,9.0,15.0,-2.0,-4.0,-4.0,-8.0,8.0
1.6951626927071158e+18,-3.0,10.0,-27.0,-6.0,-4.0,-4.0,2.0,-8.0
1.6951626927081114e+18,7.0,-12.0,-6.0,8.0,3.0,3.0,20.0,8.0
1.6951626927081114e+18,-4.0,24.0,5.0,-3.0,-4.0,-8.0,-26.0,3.0
1.6951626927201055e+18,-1.0,-11.0,22.0,4.0,3.0,5.0,8.0,-1.0
1.6951626927201055e+18,-3.0,1.0,-25.0,-5.0,-3.0,-7.0,-16.0,-11.0
1.6951626927201055e+18,9.0,5.0,-5.0,2.0,0.0,2.0,19.0,40.0
1.6951626927211034e+18,-17.0,-8.0,-2.0,-7.0,-2.0,0.0,-4.0,-49.0
1.6951626927590817e+18,-6.0,1.0,8.0,0.0,-7.0,-9.0,-30.0,1.0
1.6951626927600827e+18,7.0,-10.0,8.0,-5.0,-1.0,1.0,21.0,23.0
1.6951626927600827e+18,3.0,11.0,-1.0,-6.0,-19.0,-14.0,-18.0,8.0
1.6951626927600827e+18,-6.0,-14.0,9.0,18.0,23.0,3.0,0.0,-6.0
1.6951626927660782e+18,0.0,2.0,-14.0,-17.0,-13.0,-7.0,15.0,-6.0
1.6951626927660782e+18,-3.0,-6.0,-9.0,15.0,15.0,13.0,2.0,-4.0
1.6951626927660782e+18,2.0,9.0,13.0,-12.0,-13.0,-7.0,-7.0,-1.0
1.6951626927660782e+18,-1.0,-2.0,-1.0,-1.0,-3.0,2.0,8.0,1.0
1.6951626927800932e+18,-6.0,-8.0,18.0,-5.0,-15.0,-6.0,8.0,-11.0
1.695162692781069e+18,-1.0,-1.0,5.0,-4.0,-7.0,-2.0,3.0,3.0
1.695162692795061e+18,2.0,1.0,11.0,5.0,7.0,-3.0,-13.0,3.0
1.695162692795061e+18,0.0,-19.0,-38.0,-16.0,-18.0,1.0,7.0,-1.0
1.6951626928180493e+18,4.0,12.0,-8.0,27.0,49.0,19.0,16.0,7.0
1.6951626928180493e+18,-6.0,-19.0,-8.0,-11.0,-13.0,-13.0,-23.0,-10.0
1.6951626928190472e+18,2.0,20.0,-1.0,-13.0,-20.0,-2.0,-8.0,-16.0
1.6951626928190472e+18,-1.0,-2.0,17.0,29.0,38.0,1.0,3.0,23.0
1.6951626928260452e+18,5.0,-1.0,-16.0,-12.0,-22.0,-10.0,-8.0,0.0
1.6951626928260452e+18,-2.0,-1.0,6.0,3.0,-3.0,6.0,16.0,-12.0
1.6951626928260452e+18,-6.0,-8.0,-3.0,-12.0,3.0,-3.0,-7.0,-5.0
1.6951626928260452e+18,-4.0,9.0,14.0,3.0,-14.0,-1.0,9.0,-26.0
1.695162692849031e+18,7.0,-10.0,-42.0,-9.0,7.0,0.0,-16.0,57.0
1.6951626928510305e+18,0.0,2.0,33.0,6.0,-8.0,-6.0,2.0,-16.0
1.6951626928510305e+18,-4.0,0.0,-19.0,-24.0,-14.0,-8.0,-7.0,-1.0
1.6951626928510305e+18,3.0,1.0,5.0,8.0,-2.0,4.0,7.0,-2.0
1.6951626928620462e+18,1.0,8.0,-3.0,8.0,21.0,4.0,1.0,-18.0
1.6951626928620462e+18,-2.0,-8.0,-4.0,-17.0,-18.0,-5.0,0.0,-2.0
1.6951626928700186e+18,2.0,-7.0,-4.0,1.0,-1.0,1.0,1.0,4.0
1.6951626928700186e+18,-2.0,5.0,7.0,-5.0,-3.0,-2.0,-6.0,2.0
1.6951626928910077e+18,-1.0,-8.0,-6.0,8.0,-7.0,1.0,1.0,-10.0
1.6951626928910077e+18,-3.0,-1.0,14.0,7.0,8.0,1.0,-1.0,-1.0
1.6951626928910077e+18,1.0,4.0,8.0,-9.0,-3.0,3.0,7.0,4.0
1.6951626928920064e+18,3.0,-6.0,12.0,18.0,15.0,-3.0,-9.0,7.0
1.695162692900003e+18,-4.0,4.0,7.0,0.0,0.0,-3.0,-6.0,-8.0
1.695162692900003e+18,3.0,0.0,-10.0,-10.0,-1.0,7.0,5.0,-2.0
1.6951626929010025e+18,-4.0,-3.0,-9.0,9.0,13.0,4.0,3.0,5.0
1.6951626929010025e+18,-4.0,0.0,7.0,-10.0,-10.0,1.0,-4.0,-24.0
1.6951626929299845e+18,1.0,11.0,2.0,12.0,4.0,0.0,-4.0,-8.0
1.6951626929299845e+18,3.0,-7.0,-5.0,-4.0,1.0,-2.0,9.0,37.0
1.6951626929309844e+18,-2.0,-2.0,5.0,9.0,3.0,4.0,-4.0,-28.0
1.6951626929309844e+18,4.0,0.0,-6.0,-12.0,-10.0,-12.0,-6.0,15.0
1.6951626929459748e+18,-6.0,-4.0,1.0,-21.0,-17.0,-5.0,4.0,-12.0
1.6951626929459748e+18,-1.0,3.0,-8.0,11.0,13.0,12.0,-8.0,-10.0
1.6951626929459748e+18,1.0,3.0,3.0,4.0,-2.0,-7.0,9.0,10.0
1.6951626929469752e+18,-4.0,-6.0,-7.0,2.0,3.0,10.0,1.0,4.0
1.695162692958967e+18,-1.0,4.0,2.0,-13.0,-20.0,-5.0,4.0,-6.0
1.6951626929599665e+18,1.0,1.0,4.0,-5.0,-6.0,-5.0,-2.0,-1.0
1.6951626929749604e+18,1.0,-2.0,-2.0,11.0,9.0,-3.0,-2.0,6.0
1.6951626929749604e+18,0.0,1.0,-7.0,-20.0,-17.0,5.0,0.0,-2.0
1.6951626929839767e+18,0.0,-1.0,3.0,-2.0,-12.0,-8.0,-3.0,1.0
1.6951626929839767e+18,-1.0,-2.0,-3.0,-2.0,1.0,3.0,3.0,-3.0
1.6951626929849526e+18,-2.0,-1.0,-1.0,19.0,21.0,4.0,-7.0,-5.0
1.6951626929849526e+18,0.0,1.0,-6.0,-5.0,-2.0,-4.0,-1.0,4.0
1.695162693014936e+18,-1.0,-2.0,3.0,8.0,-7.0,-8.0,-8.0,-2.0
1.695162693014936e+18,-3.0,-4.0,-1.0,-1.0,19.0,-8.0,-14.0,-10.0
1.6951626930159363e+18,-3.0,2.0,-2.0,2.0,-8.0,-20.0,-40.0,-12.0
1.6951626930159363e+18,2.0,-3.0,-6.0,-14.0,-5.0,23.0,35.0,11.0
1.6951626930209316e+18,2.0,-3.0,6.0,12.0,1.0,8.0,19.0,6.0
1.6951626930209316e+18,0.0,2.0,-1.0,5.0,0.0,-1.0,3.0,-4.0
1.6951626930279516e+18,-4.0,-5.0,-7.0,-18.0,2.0,-19.0,-34.0,-8.0
1.6951626930279516e+18,5.0,4.0,-6.0,-10.0,3.0,10.0,-3.0,14.0
1.6951626930499151e+18,-2.0,-1.0,11.0,6.0,-9.0,-2.0,6.0,-6.0
1.6951626930499151e+18,0.0,1.0,-1.0,-7.0,-1.0,12.0,40.0,4.0
1.695162693058913e+18,1.0,4.0,10.0,15.0,-8.0,9.0,8.0,5.0
1.6951626930599096e+18,0.0,0.0,-9.0,1.0,34.0,-6.0,-1.0,-4.0
1.695162693066906e+18,-4.0,-9.0,-24.0,-14.0,12.0,-4.0,-17.0,-5.0
1.695162693067908e+18,-2.0,2.0,14.0,6.0,-18.0,-8.0,-14.0,-3.0
1.695162693067908e+18,2.0,7.0,10.0,14.0,3.0,1.0,0.0,0.0
1.695162693067908e+18,-7.0,-6.0,11.0,29.0,-8.0,-14.0,-11.0,-7.0
1.6951626931338688e+18,4.0,8.0,24.0,9.0,20.0,11.0,6.0,7.0
1.6951626931348662e+18,-2.0,-11.0,-30.0,-30.0,-6.0,-1.0,-10.0,-5.0
1.6951626931348662e+18,5.0,0.0,-24.0,-51.0,-3.0,9.0,11.0,5.0
1.6951626931348662e+18,1.0,3.0,18.0,22.0,-12.0,-2.0,-8.0,-6.0
1.6951626931368658e+18,-2.0,-2.0,9.0,13.0,-5.0,4.0,28.0,7.0
1.6951626931368658e+18,1.0,1.0,2.0,-16.0,-49.0,-12.0,-1.0,-2.0
1.6951626931648515e+18,1.0,-4.0,-10.0,12.0,44.0,11.0,15.0,3.0
1.6951626931648515e+18,-1.0,-4.0,-18.0,-48.0,-13.0,-18.0,-18.0,-3.0
1.6951626931658488e+18,-5.0,-5.0,-4.0,-4.0,2.0,-7.0,-42.0,-4.0
1.6951626931668488e+18,1.0,6.0,7.0,16.0,10.0,1.0,-12.0,-2.0
1.6951626931668488e+18,0.0,-1.0,-14.0,-28.0,0.0,3.0,-3.0,-5.0
1.6951626931668488e+18,-1.0,-2.0,3.0,5.0,-3.0,-17.0,-37.0,-11.0
1.6951626931778445e+18,2.0,6.0,5.0,14.0,1.0,6.0,6.0,3.0
1.6951626931788419e+18,-4.0,-3.0,-5.0,-13.0,-12.0,-9.0,-11.0,-5.0
1.6951626931888374e+18,6.0,1.0,-7.0,-6.0,-1.0,27.0,47.0,17.0
1.6951626931938458e+18,0.0,-2.0,10.0,19.0,7.0,14.0,15.0,7.0
1.6951626931938458e+18,-1.0,-1.0,-1.0,0.0,0.0,0.0,13.0,4.0
1.6951626931948324e+18,-2.0,-3.0,3.0,3.0,-4.0,-2.0,1.0,-6.0
1.695162693198837e+18,1.0,6.0,-7.0,-14.0,-28.0,-13.0,0.0,4.0
1.6951626931998336e+18,-4.0,-5.0,-1.0,22.0,30.0,15.0,-3.0,4.0
1.6951626932298204e+18,0.0,-1.0,13.0,12.0,-2.0,-3.0,-5.0,-5.0
1.6951626932318134e+18,0.0,5.0,-27.0,-62.0,-3.0,0.0,-19.0,1.0
1.6951626932328287e+18,-2.0,-17.0,10.0,17.0,-5.0,-12.0,-23.0,-9.0
1.6951626932328287e+18,1.0,9.0,14.0,14.0,11.0,18.0,33.0,5.0
1.6951626932378104e+18,-3.0,-15.0,-2.0,9.0,-17.0,-7.0,-12.0,-2.0
1.695162693238811e+18,-2.0,-7.0,11.0,12.0,27.0,7.0,5.0,0.0
1.6951626932517996e+18,0.0,-8.0,16.0,22.0,11.0,-7.0,-9.0,-6.0
1.695162693252799e+18,1.0,2.0,-24.0,-17.0,0.0,-2.0,4.0,0.0
1.6951626932597957e+18,-3.0,-3.0,4.0,-5.0,2.0,-1.0,-9.0,-4.0
1.695162693260797e+18,2.0,8.0,6.0,28.0,-10.0,6.0,23.0,8.0
1.6951626932767854e+18,0.0,7.0,0.0,-6.0,8.0,-1.0,5.0,-5.0
1.6951626932767854e+18,6.0,-4.0,-9.0,-20.0,3.0,8.0,-2.0,6.0
1.6951626932767854e+18,-3.0,6.0,0.0,4.0,0.0,6.0,12.0,4.0
1.6951626932767854e+18,-1.0,0.0,11.0,10.0,-6.0,-9.0,-34.0,-8.0
1.6951626933147676e+18,2.0,8.0,-8.0,-2.0,2.0,1.0,15.0,1.0
1.6951626933147676e+18,-6.0,-9.0,13.0,6.0,1.0,-24.0,-37.0,-21.0
1.6951626933167626e+18,3.0,13.0,-22.0,-24.0,-2.0,18.0,34.0,8.0
1.6951626933167626e+18,-3.0,0.0,10.0,5.0,-31.0,-10.0,3.0,-4.0
1.6951626933167626e+18,0.0,3.0,-8.0,11.0,12.0,8.0,-2.0,4.0
1.6951626933167626e+18,-5.0,0.0,0.0,-26.0,-16.0,-7.0,-6.0,-11.0
1.6951626933297546e+18,3.0,1.0,6.0,21.0,16.0,-6.0,-26.0,-5.0
1.6951626933297546e+18,0.0,-2.0,7.0,13.0,9.0,8.0,7.0,3.0
1.6951626933307597e+18,-1.0,-1.0,-16.0,-10.0,-5.0,1.0,-3.0,-2.0
1.6951626933317568e+18,-4.0,-8.0,-8.0,-21.0,-11.0,-6.0,6.0,1.0
1.6951626933317568e+18,0.0,-1.0,10.0,13.0,-11.0,-6.0,-7.0,-5.0
1.695162693332754e+18,3.0,0.0,3.0,13.0,9.0,2.0,-2.0,8.0
1.6951626933537413e+18,1.0,-1.0,-1.0,-20.0,-11.0,-3.0,20.0,1.0
1.6951626933567406e+18,1.0,3.0,-5.0,19.0,12.0,7.0,-11.0,-3.0
1.6951626933567406e+18,-6.0,5.0,-19.0,-27.0,-9.0,7.0,4.0,21.0
1.6951626933567406e+18,0.0,-8.0,0.0,2.0,5.0,2.0,16.0,-5.0
1.695162693365735e+18,3.0,5.0,10.0,21.0,8.0,-2.0,-5.0,-5.0
1.6951626933667343e+18,-2.0,-1.0,-6.0,-19.0,-11.0,1.0,9.0,-1.0
1.6951626933667343e+18,-7.0,13.0,0.0,-2.0,-7.0,-22.0,-32.0,-13.0
1.6951626933667343e+18,3.0,-23.0,-14.0,-18.0,-1.0,4.0,19.0,4.0
1.6951626933887214e+18,-3.0,-3.0,-5.0,1.0,-5.0,1.0,2.0,-3.0
1.6951626933887214e+18,-2.0,2.0,15.0,12.0,-7.0,-10.0,-7.0,1.0
1.695162693389724e+18,2.0,-3.0,5.0,13.0,22.0,5.0,-1.0,-2.0
1.6951626933947185e+18,-1.0,2.0,-13.0,-22.0,-7.0,5.0,1.0,3.0
1.6951626934027136e+18,1.0,8.0,-2.0,-7.0,-10.0,-9.0,-6.0,-3.0
1.6951626934027136e+18,-4.0,-9.0,3.0,21.0,10.0,-4.0,-7.0,-3.0
1.6951626934037143e+18,1.0,0.0,2.0,-13.0,-12.0,-7.0,15.0,-5.0
1.6951626934037143e+18,4.0,30.0,-14.0,0.0,9.0,2.0,-5.0,-15.0
1.6951626934267003e+18,-8.0,-12.0,0.0,-1.0,7.0,5.0,-7.0,7.0
1.695162693427702e+18,0.0,5.0,7.0,6.0,-8.0,-5.0,-3.0,13.0
1.695162693427702e+18,-6.0,14.0,-10.0,-10.0,-3.0,-16.0,-32.0,-39.0
1.695162693427702e+18,4.0,-1.0,8.0,7.0,1.0,20.0,59.0,31.0
1.695162693455707e+18,-2.0,1.0,-13.0,-7.0,-9.0,-3.0,-6.0,-2.0
1.695162693455707e+18,-2.0,-10.0,6.0,-1.0,-2.0,2.0,6.0,-2.0
1.6951626934566825e+18,0.0,-1.0,-4.0,1.0,21.0,2.0,-4.0,6.0
1.6951626934566825e+18,-4.0,-2.0,-3.0,-7.0,-14.0,-15.0,-19.0,-11.0
1.6951626934626908e+18,-2.0,1.0,-3.0,-1.0,-4.0,-6.0,-19.0,-8.0
1.6951626934626908e+18,2.0,-1.0,2.0,-1.0,1.0,5.0,14.0,7.0
1.6951626934626908e+18,5.0,-1.0,-6.0,-19.0,-12.0,2.0,2.0,9.0
1.6951626934636782e+18,-7.0,-6.0,1.0,3.0,-9.0,-10.0,-8.0,-6.0
1.6951626935006566e+18,2.0,-8.0,13.0,30.0,41.0,15.0,13.0,2.0
1.6951626935006566e+18,-2.0,-1.0,-5.0,-22.0,-14.0,-5.0,-4.0,-2.0
1.6951626935016576e+18,-1.0,-30.0,24.0,25.0,4.0,2.0,4.0,3.0
1.6951626935016576e+18,2.0,15.0,-5.0,-15.0,-13.0,-8.0,-11.0,-3.0
1.6951626935156536e+18,-3.0,-2.0,-4.0,-1.0,8.0,-2.0,-4.0,-1.0
1.6951626935166482e+18,-3.0,-7.0,-16.0,-8.0,-5.0,-1.0,-2.0,-3.0
1.6951626935166482e+18,3.0,0.0,2.0,2.0,12.0,6.0,9.0,2.0
1.6951626935166482e+18,-2.0,-3.0,-8.0,-1.0,-17.0,-7.0,-6.0,-3.0
1.6951626935526275e+18,1.0,2.0,6.0,4.0,-3.0,0.0,2.0,-3.0
1.6951626935526275e+18,-3.0,0.0,-5.0,12.0,14.0,7.0,4.0,3.0
1.695162693570617e+18,-1.0,-8.0,-4.0,-16.0,-15.0,-3.0,6.0,3.0
1.695162693570617e+18,-2.0,-1.0,-7.0,2.0,6.0,2.0,-5.0,-1.0
1.695162693570617e+18,0.0,3.0,11.0,-3.0,-12.0,-3.0,-4.0,10.0
1.6951626935716178e+18,0.0,-1.0,0.0,-7.0,1.0,0.0,1.0,-15.0
1.6951626935726164e+18,-3.0,4.0,0.0,1.0,-12.0,-3.0,1.0,0.0
1.6951626935736166e+18,0.0,-8.0,4.0,2.0,8.0,-1.0,-5.0,-2.0
1.6951626935756147e+18,-3.0,7.0,23.0,-8.0,-4.0,-1.0,1.0,0.0
1.6951626935766144e+18,1.0,-7.0,-38.0,10.0,12.0,7.0,9.0,5.0
1.6951626936295844e+18,0.0,1.0,6.0,-8.0,-11.0,-11.0,-12.0,1.0
1.6951626936295844e+18,10.0,5.0,24.0,3.0,-4.0,-1.0,5.0,21.0
1.695162693630583e+18,2.0,12.0,12.0,1.0,3.0,-5.0,9.0,-35.0
1.695162693630583e+18,-18.0,-37.0,-45.0,-4.0,11.0,15.0,5.0,-8.0
1.6951626936325824e+18,8.0,19.0,-16.0,-1.0,-7.0,-1.0,-9.0,16.0
1.6951626936325824e+18,-9.0,3.0,39.0,3.0,-4.0,-7.0,-33.0,-17.0
1.6951626936665623e+18,42.0,29.0,-54.0,-3.0,-3.0,-2.0,5.0,-4.0
1.695162693667562e+18,-2.0,2.0,56.0,7.0,6.0,7.0,23.0,38.0
1.695162693668561e+18,-5.0,-38.0,-5.0,0.0,-4.0,-1.0,18.0,14.0
1.695162693668561e+18,-21.0,-8.0,-32.0,-8.0,3.0,2.0,-28.0,-35.0
1.6951626936695603e+18,3.0,-20.0,-31.0,-9.0,-3.0,-5.0,-10.0,13.0
1.6951626936695603e+18,10.0,4.0,25.0,2.0,-3.0,2.0,14.0,19.0
1.695162693680554e+18,-17.0,18.0,-13.0,3.0,8.0,9.0,5.0,-19.0
1.695162693680554e+18,-5.0,37.0,57.0,1.0,-10.0,-14.0,-12.0,-4.0
1.6951626936825536e+18,-29.0,-10.0,12.0,7.0,6.0,9.0,25.0,-15.0
1.6951626936825536e+18,61.0,44.0,-15.0,-8.0,-4.0,1.0,1.0,8.0
1.69516269368855e+18,-8.0,89.0,-2.0,-8.0,-8.0,-12.0,-43.0,-46.0
1.69516269368855e+18,-2.0,-20.0,16.0,7.0,5.0,2.0,16.0,57.0
1.6951626936895514e+18,16.0,46.0,-49.0,2.0,4.0,7.0,19.0,35.0
1.6951626936895514e+18,-2.0,-51.0,17.0,-8.0,-8.0,-9.0,4.0,-54.0
1.6951626937025413e+18,-9.0,64.0,-53.0,-5.0,-12.0,-9.0,-32.0,-16.0
1.6951626937025413e+18,9.0,33.0,19.0,-13.0,3.0,8.0,22.0,-1.0
1.695162693703543e+18,-2.0,-29.0,20.0,7.0,-5.0,-6.0,-9.0,2.0
1.695162693703543e+18,-5.0,7.0,-20.0,5.0,9.0,3.0,-20.0,4.0
1.6951626937255278e+18,8.0,-61.0,70.0,4.0,4.0,12.0,23.0,30.0
1.6951626937255278e+18,1.0,22.0,-87.0,-15.0,-18.0,-7.0,6.0,-56.0
1.6951626937265275e+18,-41.0,8.0,42.0,0.0,1.0,-12.0,-30.0,11.0
1.6951626937265275e+18,13.0,-29.0,-59.0,-9.0,-4.0,-4.0,-5.0,1.0
1.6951626937555116e+18,-20.0,-43.0,44.0,-2.0,6.0,-2.0,-4.0,-11.0
1.6951626937565133e+18,-8.0,-36.0,23.0,12.0,4.0,10.0,25.0,19.0
1.6951626937565133e+18,-23.0,49.0,17.0,-14.0,-5.0,5.0,1.0,28.0
1.6951626937565133e+18,35.0,27.0,0.0,3.0,-7.0,-9.0,-6.0,-32.0
1.6951626937625098e+18,17.0,-21.0,-61.0,6.0,3.0,0.0,-4.0,-7.0
1.6951626937635067e+18,-8.0,-5.0,-2.0,-8.0,-10.0,-11.0,-4.0,59.0
1.69516269379449e+18,-30.0,-66.0,-70.0,-5.0,-2.0,-5.0,-7.0,-9.0
1.69516269379449e+18,10.0,82.0,127.0,7.0,-4.0,0.0,8.0,22.0
1.6951626937954903e+18,37.0,-63.0,-72.0,-18.0,-4.0,6.0,21.0,-7.0
1.695162693796488e+18,-43.0,-3.0,76.0,17.0,5.0,-6.0,-20.0,-86.0
1.695162693796488e+18,-4.0,8.0,-23.0,-1.0,6.0,15.0,20.0,46.0
1.695162693796488e+18,-7.0,9.0,-32.0,-6.0,-9.0,-11.0,-25.0,6.0
1.6951626938314757e+18,13.0,-7.0,48.0,-8.0,-2.0,2.0,12.0,38.0
1.6951626938314757e+18,-23.0,-20.0,-46.0,6.0,11.0,-7.0,-6.0,5.0
1.6951626938714452e+18,9.0,2.0,57.0,-9.0,-4.0,-8.0,-32.0,-33.0
1.6951626938724467e+18,12.0,-11.0,-13.0,24.0,9.0,5.0,3.0,38.0
1.695162693873445e+18,12.0,24.0,-29.0,-6.0,-8.0,1.0,40.0,-16.0
1.695162693873445e+18,6.0,-2.0,-8.0,-5.0,18.0,9.0,-19.0,3.0
1.695162693873445e+18,-19.0,-29.0,31.0,2.0,-5.0,8.0,19.0,-48.0
1.6951626938754445e+18,30.0,25.0,42.0,-9.0,-4.0,-7.0,-29.0,28.0
1.695162693885437e+18,-14.0,-7.0,-53.0,9.0,2.0,-2.0,1.0,14.0
1.695162693885437e+18,-14.0,-15.0,31.0,-4.0,-2.0,-9.0,-11.0,-44.0
1.695162693885437e+18,24.0,-9.0,-23.0,-5.0,-4.0,11.0,38.0,-34.0
1.695162693886436e+18,-11.0,5.0,7.0,-1.0,0.0,-6.0,-34.0,37.0
1.695162693886436e+18,-34.0,11.0,11.0,-1.0,-2.0,-13.0,-28.0,2.0
1.695162693886436e+18,12.0,-8.0,-17.0,0.0,2.0,16.0,51.0,18.0
1.6951626939194186e+18,29.0,-1.0,26.0,3.0,3.0,2.0,14.0,10.0
1.695162693920417e+18,-1.0,6.0,-39.0,-8.0,-2.0,0.0,0.0,-9.0
1.6951626940053686e+18,-4.0,-16.0,39.0,8.0,4.0,5.0,14.0,6.0
1.6951626940053686e+18,26.0,8.0,10.0,-4.0,-3.0,-3.0,-2.0,7.0
1.6951626940063703e+18,-4.0,-2.0,-5.0,-8.0,-5.0,-7.0,4.0,21.0
1.6951626940063703e+18,6.0,-14.0,-36.0,-12.0,-2.0,2.0,-8.0,-32.0
1.6951626940343514e+18,-30.0,34.0,14.0,-2.0,-3.0,-9.0,-15.0,-48.0
1.6951626940343514e+18,-22.0,-8.0,-12.0,3.0,4.0,4.0,18.0,36.0
1.6951626940353513e+18,17.0,-3.0,36.0,0.0,-1.0,-7.0,-35.0,34.0
1.6951626940353513e+18,-15.0,1.0,-64.0,-1.0,2.0,3.0,27.0,-36.0
1.6951626940353513e+18,16.0,-13.0,-37.0,-9.0,2.0,9.0,24.0,23.0
1.6951626940363533e+18,-27.0,0.0,23.0,5.0,2.0,5.0,44.0,10.0
1.6951626940543424e+18,1.0,1.0,-7.0,5.0,3.0,9.0,45.0,-27.0
1.6951626940553403e+18,-22.0,-3.0,28.0,-1.0,-2.0,-16.0,-49.0,14.0
1.6951626940693332e+18,29.0,-6.0,-50.0,4.0,9.0,10.0,23.0,50.0
1.695162694070331e+18,-28.0,-14.0,-6.0,1.0,-1.0,4.0,28.0,-21.0
1.6951626941073106e+18,-3.0,5.0,-13.0,-7.0,-3.0,-5.0,-2.0,31.0
1.6951626941073106e+18,-26.0,-2.0,21.0,-5.0,-10.0,-4.0,3.0,-6.0
1.6951626941243028e+18,-4.0,1.0,-20.0,8.0,8.0,2.0,11.0,14.0
1.6951626941243028e+18,-22.0,-12.0,3.0,2.0,-7.0,-6.0,5.0,-40.0
1.6951626941262986e+18,62.0,22.0,9.0,2.0,8.0,7.0,-2.0,-5.0
1.6951626941262986e+18,-14.0,-4.0,11.0,2.0,-5.0,-7.0,-17.0,12.0
1.6951626941262986e+18,-20.0,-6.0,8.0,-2.0,-1.0,-4.0,-19.0,5.0
1.6951626941272998e+18,36.0,-12.0,10.0,-4.0,-8.0,-11.0,-12.0,-17.0
1.695162694147287e+18,-31.0,-4.0,-2.0,0.0,-3.0,-2.0,15.0,-21.0
1.695162694147287e+18,18.0,23.0,-24.0,0.0,4.0,0.0,-7.0,32.0
1.695162694148288e+18,30.0,-14.0,34.0,-1.0,-5.0,5.0,0.0,26.0
1.6951626941492877e+18,7.0,6.0,23.0,6.0,0.0,0.0,-10.0,21.0
1.6951626941492877e+18,14.0,5.0,-21.0,-4.0,-1.0,1.0,8.0,-15.0
1.6951626941492877e+18,-2.0,-29.0,-9.0,5.0,1.0,5.0,14.0,25.0
1.695162694184548e+18,9.0,4.0,-2.0,-2.0,-1.0,2.0,5.0,-57.0
1.695162694184548e+18,44.0,-2.0,-13.0,-9.0,-11.0,-9.0,-17.0,37.0
1.6951626941855452e+18,-23.0,-12.0,41.0,0.0,-2.0,-3.0,3.0,14.0
1.6951626941855452e+18,50.0,23.0,19.0,6.0,2.0,1.0,4.0,26.0
1.6951626941865475e+18,-38.0,-19.0,29.0,5.0,2.0,-1.0,-6.0,-23.0
1.6951626941865475e+18,-14.0,-9.0,-6.0,2.0,4.0,11.0,35.0,-17.0
1.6951626942220923e+18,12.0,31.0,-10.0,-7.0,-5.0,-9.0,-38.0,-2.0
1.6951626942220923e+18,-2.0,3.0,22.0,1.0,0.0,0.0,0.0,-3.0
1.6951626942230925e+18,18.0,-12.0,-43.0,1.0,-2.0,-3.0,0.0,-22.0
1.6951626942241006e+18,7.0,9.0,38.0,-11.0,-8.0,-5.0,4.0,18.0
1.6951626942241006e+18,-48.0,-8.0,-17.0,1.0,1.0,5.0,8.0,2.0
1.6951626942250893e+18,-5.0,9.0,-16.0,-5.0,1.0,3.0,3.0,-13.0
1.6951626942380818e+18,-5.0,18.0,2.0,5.0,4.0,0.0,-1.0,7.0
1.6951626942380818e+18,-12.0,-28.0,-34.0,1.0,3.0,6.0,14.0,-2.0
1.6951626942390815e+18,27.0,25.0,-11.0,-10.0,-14.0,-7.0,6.0,19.0
1.6951626942390815e+18,-15.0,-6.0,45.0,4.0,8.0,5.0,-10.0,-13.0
1.6951626942390815e+18,5.0,2.0,8.0,-2.0,-1.0,3.0,16.0,-4.0
1.6951626942390815e+18,32.0,-3.0,22.0,7.0,3.0,-4.0,-4.0,64.0
1.6951626942500746e+18,4.0,3.0,13.0,-8.0,-3.0,4.0,15.0,-22.0
1.6951626942500746e+18,-23.0,-14.0,9.0,-2.0,-1.0,4.0,1.0,-7.0
1.695162694272609e+18,-6.0,19.0,7.0,7.0,11.0,2.0,-2.0,21.0
1.6951626942735775e+18,-3.0,-23.0,7.0,-6.0,-9.0,-10.0,-22.0,-32.0
1.6951626942735775e+18,-14.0,-15.0,-21.0,5.0,9.0,9.0,13.0,-17.0
1.6951626942735775e+18,-1.0,8.0,-5.0,0.0,-7.0,-8.0,-26.0,-16.0
1.695162694297999e+18,1.0,10.0,7.0,-6.0,-8.0,-3.0,8.0,51.0
1.695162694297999e+18,-18.0,-20.0,-22.0,-13.0,-4.0,-7.0,-32.0,-38.0
1.695162694299005e+18,0.0,8.0,18.0,5.0,4.0,-2.0,2.0,-3.0
1.695162694299005e+18,-7.0,-19.0,-53.0,-9.0,-2.0,2.0,4.0,-22.0
1.6951626943115727e+18,22.0,17.0,3.0,1.0,-5.0,-6.0,-15.0,4.0
1.6951626943125796e+18,-7.0,19.0,25.0,7.0,1.0,3.0,16.0,-10.0
1.6951626943125796e+18,20.0,-10.0,-21.0,-4.0,-1.0,2.0,0.0,12.0
1.6951626943125796e+18,-11.0,14.0,12.0,0.0,1.0,-3.0,-3.0,8.0
1.6951626943135923e+18,-17.0,-20.0,-12.0,-1.0,0.0,-1.0,-2.0,-4.0
1.6951626943135923e+18,16.0,9.0,5.0,-3.0,-6.0,-3.0,-7.0,-18.0
1.6951626943575516e+18,5.0,-15.0,-18.0,-3.0,2.0,3.0,9.0,5.0
1.6951626943585513e+18,6.0,-18.0,9.0,5.0,1.0,0.0,11.0,7.0
1.6951626943705436e+18,-5.0,0.0,6.0,-8.0,-6.0,1.0,-2.0,12.0
1.6951626943705436e+18,-23.0,-7.0,-11.0,1.0,-10.0,-5.0,6.0,-24.0
1.695162694372545e+18,7.0,1.0,1.0,2.0,21.0,5.0,-6.0,0.0
1.6951626943735485e+18,15.0,8.0,0.0,15.0,1.0,3.0,1.0,10.0
1.6951626944105219e+18,-19.0,-16.0,3.0,-9.0,-6.0,-8.0,-19.0,-15.0
1.6951626944105219e+18,-8.0,2.0,0.0,1.0,-2.0,2.0,8.0,-9.0
1.695162694411528e+18,1.0,11.0,-3.0,-7.0,-17.0,-10.0,-4.0,10.0
1.69516269441252e+18,0.0,11.0,-18.0,-10.0,-3.0,-1.0,8.0,18.0
1.69516269441252e+18,-2.0,-24.0,-18.0,4.0,7.0,8.0,7.0,-14.0
1.6951626944135242e+18,1.0,4.0,0.0,3.0,1.0,-1.0,-4.0,6.0
1.695162694425514e+18,-5.0,-5.0,1.0,1.0,0.0,2.0,-6.0,-10.0
1.695162694425514e+18,1.0,0.0,-5.0,-5.0,-3.0,-8.0,0.0,-2.0
1.6951626944275113e+18,0.0,3.0,-10.0,-9.0,-21.0,-7.0,-3.0,2.0
1.6951626944275113e+18,1.0,2.0,-12.0,18.0,44.0,31.0,11.0,3.0
1.6951626944624986e+18,0.0,2.0,-1.0,-4.0,2.0,0.0,-2.0,-5.0
1.695162694463491e+18,-1.0,0.0,11.0,6.0,0.0,-2.0,1.0,2.0
1.6951626944704868e+18,2.0,2.0,-7.0,-2.0,-2.0,-1.0,-2.0,4.0
1.6951626944714862e+18,-2.0,-8.0,-10.0,-10.0,-10.0,-6.0,-2.0,-5.0
1.6951626944714862e+18,0.0,8.0,10.0,5.0,-3.0,-6.0,-3.0,-4.0
1.6951626944724856e+18,-1.0,-4.0,-9.0,4.0,14.0,6.0,1.0,6.0
1.6951626944765005e+18,-2.0,5.0,16.0,-11.0,-19.0,-7.0,-2.0,-3.0
1.6951626944774833e+18,-2.0,-4.0,-5.0,9.0,15.0,3.0,-1.0,-2.0
1.6951626944774833e+18,0.0,2.0,-2.0,2.0,2.0,4.0,0.0,-1.0
1.695162694478489e+18,3.0,5.0,8.0,-6.0,-10.0,-6.0,0.0,3.0
1.6951626945224586e+18,-1.0,3.0,13.0,-3.0,-5.0,-6.0,-3.0,-3.0
1.6951626945234573e+18,-2.0,0.0,-16.0,-3.0,10.0,3.0,2.0,2.0
1.6951626945354506e+18,-2.0,-4.0,-4.0,11.0,10.0,4.0,-1.0,-1.0
1.6951626945354506e+18,1.0,3.0,-1.0,-9.0,6.0,5.0,2.0,3.0
1.6951626945504422e+18,-2.0,-2.0,-4.0,1.0,0.0,-2.0,1.0,-4.0
1.6951626945514396e+18,-4.0,-5.0,8.0,8.0,-8.0,-7.0,-2.0,1.0
1.6951626946034102e+18,-1.0,2.0,-2.0,-4.0,-1.0,-1.0,-1.0,-2.0
1.6951626946164088e+18,7.0,14.0,-1.0,4.0,13.0,11.0,6.0,3.0
1.6951626946184026e+18,-8.0,-11.0,-2.0,-8.0,-14.0,-12.0,-10.0,-7.0
1.6951626946184026e+18,-1.0,5.0,3.0,-1.0,6.0,5.0,2.0,1.0
1.6951626946194015e+18,5.0,8.0,-2.0,-2.0,9.0,7.0,3.0,2.0
1.6951626946194015e+18,-3.0,-3.0,4.0,-2.0,-14.0,-8.0,-5.0,-3.0
1.6951626946194015e+18,-1.0,2.0,-4.0,-1.0,-2.0,0.0,1.0,-2.0
1.6951626946203999e+18,-3.0,-7.0,-3.0,-10.0,-8.0,-8.0,-5.0,-2.0
1.6951626946203999e+18,1.0,1.0,-3.0,1.0,6.0,4.0,1.0,2.0
1.6951626946203999e+18,3.0,3.0,0.0,-4.0,-9.0,4.0,0.0,0.0
1.6951626946203999e+18,-4.0,-5.0,0.0,1.0,5.0,1.0,1.0,-1.0
1.6951626946213998e+18,-2.0,-2.0,-3.0,1.0,-4.0,-4.0,-2.0,-2.0
1.695162694624399e+18,-1.0,-4.0,-1.0,0.0,1.0,-1.0,-1.0,0.0
1.695162694624399e+18,0.0,1.0,1.0,1.0,3.0,1.0,0.0,0.0
1.6951626946393874e+18,-1.0,-1.0,-3.0,-3.0,-3.0,-2.0,-1.0,0.0
1.6951626946393874e+18,-1.0,-1.0,-2.0,-3.0,-2.0,-2.0,-1.0,0.0
1.6951626946483837e+18,-2.0,-1.0,-1.0,3.0,-1.0,-4.0,-3.0,-3.0
1.6951626946483837e+18,-1.0,-1.0,1.0,4.0,5.0,1.0,1.0,-2.0
1.695162694649382e+18,-1.0,1.0,0.0,2.0,-3.0,0.0,-2.0,-3.0
1.695162694649382e+18,-2.0,-3.0,-2.0,-2.0,-3.0,0.0,0.0,1.0
1.6951626946783662e+18,0.0,0.0,-1.0,0.0,-2.0,-2.0,-2.0,-2.0
1.6951626946783662e+18,-2.0,-2.0,3.0,6.0,0.0,-3.0,-1.0,-1.0
1.6951626946793656e+18,-1.0,-1.0,-3.0,-3.0,-2.0,0.0,0.0,1.0
1.6951626946793656e+18,0.0,-1.0,-2.0,1.0,0.0,-1.0,0.0,0.0
1.6951626946843628e+18,0.0,0.0,-1.0,1.0,1.0,0.0,0.0,0.0
1.6951626946843628e+18,-2.0,1.0,-1.0,-1.0,-1.0,-2.0,-2.0,0.0
1.6951626947173435e+18,-3.0,-2.0,2.0,2.0,-2.0,-3.0,-4.0,-2.0
1.695162694718344e+18,-2.0,-2.0,-9.0,-7.0,-1.0,2.0,-1.0,-1.0
1.695162694718344e+18,-3.0,-1.0,2.0,5.0,2.0,-2.0,1.0,0.0
1.695162694718344e+18,4.0,-2.0,-4.0,-8.0,-1.0,-2.0,-1.0,2.0
1.695162694731337e+18,1.0,1.0,0.0,1.0,-4.0,0.0,-1.0,-1.0
1.695162694731337e+18,-1.0,-2.0,2.0,-2.0,-2.0,-3.0,-1.0,-1.0
1.6951626947323356e+18,0.0,-1.0,-3.0,-5.0,2.0,1.0,-1.0,-1.0
1.6951626947323356e+18,-2.0,-1.0,-1.0,5.0,1.0,-4.0,1.0,-2.0
1.6951626947423524e+18,0.0,-1.0,-5.0,-8.0,0.0,5.0,2.0,0.0
1.6951626947423524e+18,-1.0,0.0,6.0,6.0,-1.0,-3.0,-2.0,-4.0
1.6951626947533225e+18,-2.0,-3.0,-8.0,-1.0,3.0,1.0,0.0,2.0
1.6951626947533225e+18,-1.0,1.0,3.0,-6.0,-1.0,-1.0,-2.0,-1.0
1.6951626947543222e+18,-2.0,0.0,1.0,7.0,1.0,-4.0,-3.0,-2.0
1.6951626947553252e+18,3.0,-1.0,-5.0,-11.0,-5.0,-6.0,-2.0,4.0
1.6951626947683136e+18,0.0,0.0,-1.0,5.0,-2.0,0.0,-1.0,-1.0
1.6951626947683136e+18,-6.0,1.0,8.0,3.0,5.0,4.0,4.0,2.0
1.6951626947693138e+18,5.0,-1.0,-12.0,-10.0,-2.0,-3.0,-4.0,-10.0
1.6951626947693138e+18,0.0,-2.0,3.0,5.0,2.0,3.0,1.0,3.0
1.695162694790302e+18,-1.0,-1.0,-7.0,-18.0,-6.0,-4.0,-4.0,-3.0
1.6951626947913027e+18,0.0,1.0,5.0,4.0,2.0,-1.0,-3.0,-3.0
1.6951626947923008e+18,-2.0,-3.0,3.0,8.0,-3.0,-3.0,-2.0,2.0
1.6951626947923008e+18,-1.0,0.0,-2.0,-7.0,1.0,4.0,0.0,-2.0
1.695162694813289e+18,1.0,1.0,5.0,9.0,-3.0,-2.0,-1.0,-3.0
1.6951626948142902e+18,2.0,-3.0,-6.0,-3.0,-4.0,-2.0,1.0,5.0
1.6951626948142902e+18,-1.0,0.0,-3.0,-4.0,3.0,1.0,0.0,1.0
1.6951626948152934e+18,0.0,-2.0,3.0,1.0,1.0,0.0,0.0,-2.0
1.6951626948282826e+18,-2.0,-1.0,3.0,7.0,1.0,-2.0,0.0,1.0
1.6951626948282826e+18,0.0,-2.0,1.0,-3.0,-4.0,-2.0,-4.0,-4.0
1.6951626948298063e+18,-2.0,-1.0,-2.0,-3.0,0.0,0.0,-1.0,3.0
1.6951626948298063e+18,-1.0,2.0,3.0,2.0,-1.0,0.0,0.0,-2.0
1.6951626948503964e+18,0.0,0.0,-1.0,-10.0,3.0,2.0,1.0,-1.0
1.695162694851397e+18,1.0,-1.0,-7.0,-7.0,-1.0,-3.0,-1.0,-1.0
1.6951626948523955e+18,1.0,2.0,6.0,5.0,-1.0,0.0,0.0,-1.0
1.6951626948523955e+18,-1.0,0.0,-5.0,-5.0,-2.0,0.0,-1.0,2.0
1.6951626948683866e+18,-2.0,-1.0,-3.0,3.0,-1.0,-4.0,0.0,-1.0
1.6951626948693862e+18,-1.0,0.0,4.0,8.0,2.0,-2.0,-2.0,-1.0
1.6951626948733842e+18,0.0,-1.0,0.0,-7.0,-2.0,-2.0,0.0,2.0
1.6951626948733842e+18,-1.0,-1.0,-3.0,1.0,2.0,1.0,-1.0,0.0
1.695162694888376e+18,2.0,1.0,1.0,2.0,1.0,1.0,0.0,-1.0
1.695162694888376e+18,-1.0,-1.0,-7.0,-4.0,-3.0,1.0,-1.0,0.0
1.6951626948903772e+18,-2.0,-2.0,-1.0,-3.0,0.0,-1.0,0.0,1.0
1.6951626948903772e+18,-1.0,-1.0,0.0,1.0,-1.0,-1.0,0.0,-2.0
1.6951626949274002e+18,-1.0,-1.0,-1.0,-2.0,0.0,-1.0,-2.0,-1.0
1.6951626949334019e+18,-1.0,-1.0,-2.0,0.0,-1.0,-1.0,0.0,0.0
1.6951626949334019e+18,-1.0,-1.0,-2.0,-2.0,-1.0,-2.0,-3.0,0.0
1.6951626949334019e+18,-1.0,-1.0,-2.0,1.0,-1.0,-1.0,0.0,-2.0
1.6951626949344e+18,-3.0,-3.0,-3.0,-2.0,-1.0,-2.0,-1.0,-1.0
1.6951626949344e+18,-1.0,-1.0,-2.0,0.0,-2.0,-2.0,1.0,-2.0
1.6951626949344e+18,1.0,0.0,-2.0,-2.0,0.0,-2.0,0.0,-1.0
1.6951626949344e+18,0.0,0.0,0.0,1.0,0.0,-2.0,-1.0,-2.0
1.695162694947942e+18,0.0,-1.0,0.0,2.0,0.0,0.0,-1.0,-1.0
1.6951626949489395e+18,-2.0,0.0,-2.0,-1.0,-1.0,3.0,-2.0,0.0
1.6951626949499402e+18,-1.0,0.0,-1.0,-2.0,0.0,0.0,0.0,-1.0
1.6951626949499402e+18,-1.0,-1.0,1.0,0.0,-1.0,0.0,0.0,-1.0
1.695162694978566e+18,-1.0,-2.0,-1.0,-2.0,-1.0,0.0,0.0,-1.0
1.695162694978566e+18,-1.0,-2.0,-3.0,-3.0,0.0,-1.0,0.0,-2.0
1.6951626949795656e+18,-1.0,-2.0,-1.0,0.0,-3.0,-1.0,-1.0,-1.0
1.6951626949795656e+18,-1.0,-1.0,-1.0,0.0,-1.0,-1.0,-1.0,0.0
1.6951626949935826e+18,-3.0,-1.0,-1.0,-2.0,-1.0,-1.0,0.0,0.0
1.6951626949935826e+18,-2.0,-2.0,-3.0,-1.0,-1.0,-1.0,-2.0,-2.0
1.6951626949946079e+18,-1.0,-1.0,-2.0,0.0,-2.0,1.0,-1.0,-1.0
1.6951626949946079e+18,1.0,-1.0,-2.0,-1.0,2.0,-3.0,0.0,-1.0
1.695162695008636e+18,-1.0,0.0,-1.0,-1.0,-2.0,-1.0,-1.0,0.0
1.695162695008636e+18,-1.0,-1.0,0.0,-2.0,0.0,-1.0,1.0,0.0
1.6951626950096353e+18,-1.0,-1.0,-3.0,-4.0,-1.0,0.0,-1.0,-1.0
1.6951626950106378e+18,-1.0,0.0,-3.0,2.0,-1.0,-1.0,-1.0,-1.0
1.695162695038449e+18,0.0,-1.0,-1.0,-2.0,-1.0,-1.0,0.0,-1.0
1.695162695038449e+18,-1.0,0.0,-1.0,-2.0,-1.0,-3.0,-1.0,-2.0
1.695162695039448e+18,-1.0,0.0,0.0,-1.0,-1.0,-1.0,0.0,-1.0
1.695162695039448e+18,-1.0,0.0,-1.0,-2.0,0.0,0.0,-1.0,1.0
1.6951626950535124e+18,-2.0,-1.0,-1.0,0.0,1.0,-2.0,0.0,-1.0
1.6951626950535124e+18,-2.0,1.0,-2.0,1.0,1.0,1.0,-1.0,1.0
1.6951626950545252e+18,-1.0,-2.0,0.0,-1.0,-1.0,-1.0,0.0,-2.0
1.6951626950545252e+18,0.0,-1.0,-1.0,1.0,-2.0,-2.0,0.0,-1.0
1.695162695067518e+18,0.0,0.0,0.0,-1.0,-3.0,0.0,-1.0,-1.0
1.695162695067518e+18,1.0,-2.0,0.0,0.0,-1.0,-1.0,-1.0,-2.0
1.695162695075516e+18,-1.0,-1.0,-2.0,-1.0,0.0,-2.0,-2.0,0.0
1.695162695075516e+18,-1.0,-2.0,1.0,-2.0,-1.0,-1.0,-2.0,0.0
1.6951626950905298e+18,0.0,-2.0,-1.0,-1.0,0.0,0.0,0.0,-1.0
1.6951626950905298e+18,-1.0,-1.0,-2.0,-2.0,1.0,-1.0,-1.0,0.0
1.6951626950925059e+18,-2.0,-1.0,0.0,0.0,-1.0,-1.0,1.0,-1.0
1.6951626950925059e+18,-1.0,-1.0,0.0,-2.0,0.0,0.0,2.0,-2.0
1.6951626951048215e+18,-1.0,-2.0,-2.0,0.0,0.0,-1.0,-1.0,-1.0
1.6951626951048215e+18,0.0,1.0,-1.0,0.0,-2.0,1.0,0.0,0.0
1.6951626951135437e+18,0.0,1.0,-1.0,-2.0,-1.0,0.0,-3.0,-1.0
1.6951626951145426e+18,-2.0,-2.0,1.0,3.0,0.0,0.0,-1.0,-2.0
1.6951626951272637e+18,-2.0,-3.0,0.0,0.0,-1.0,-1.0,-1.0,-1.0
1.6951626951272637e+18,0.0,-1.0,-3.0,-1.0,-3.0,1.0,-2.0,-1.0
1.6951626951344612e+18,2.0,-5.0,8.0,1.0,2.0,1.0,1.0,1.0
1.6951626951344612e+18,-1.0,4.0,-4.0,-3.0,-1.0,-2.0,-3.0,-1.0
1.695162695165543e+18,-1.0,1.0,-1.0,-1.0,-3.0,-1.0,-1.0,-1.0
1.695162695165543e+18,-2.0,-7.0,-1.0,1.0,1.0,-1.0,0.0,-3.0
1.6951626951675382e+18,-4.0,6.0,-10.0,-6.0,-5.0,-4.0,-2.0,-2.0
1.6951626951675382e+18,-1.0,-5.0,-1.0,1.0,1.0,1.0,-2.0,-1.0
1.6951626951755346e+18,-5.0,-5.0,2.0,1.0,1.0,1.0,-1.0,0.0
1.6951626951755346e+18,-2.0,2.0,-6.0,-3.0,-2.0,-1.0,-3.0,-1.0
1.6951626951755346e+18,-1.0,2.0,-4.0,-2.0,-2.0,-2.0,-1.0,-1.0
1.6951626951755346e+18,0.0,-1.0,-4.0,-1.0,-2.0,-1.0,-1.0,0.0
1.6951626951885274e+18,1.0,9.0,-5.0,-4.0,-4.0,-3.0,-2.0,-2.0
1.6951626951885274e+18,-3.0,-7.0,3.0,2.0,0.0,0.0,1.0,1.0
1.6951626951975235e+18,0.0,-3.0,-1.0,-2.0,-2.0,-1.0,1.0,0.0
1.6951626952005217e+18,0.0,4.0,2.0,1.0,1.0,2.0,-1.0,-1.0
1.69516269521851e+18,1.0,-2.0,0.0,0.0,-1.0,0.0,-1.0,-1.0
1.69516269521851e+18,-2.0,-1.0,1.0,0.0,0.0,-1.0,0.0,-2.0
1.6951626952195098e+18,-1.0,-2.0,2.0,2.0,-1.0,-1.0,-2.0,0.0
1.6951626952195098e+18,3.0,26.0,-29.0,-17.0,-12.0,-8.0,-5.0,-3.0
1.695162695233501e+18,-4.0,-2.0,-6.0,-1.0,2.0,-2.0,-1.0,-1.0
1.6951626952374994e+18,2.0,8.0,1.0,-3.0,-1.0,-1.0,0.0,0.0
1.6951626952385216e+18,-2.0,-10.0,1.0,1.0,0.0,-1.0,-1.0,0.0
1.6951626952385216e+18,2.0,-1.0,2.0,-2.0,-1.0,-1.0,-1.0,0.0
1.6951626952474934e+18,3.0,3.0,-4.0,-3.0,-3.0,-1.0,-3.0,0.0
1.6951626952474934e+18,1.0,-5.0,1.0,0.0,-1.0,-2.0,-1.0,1.0
1.6951626952564877e+18,-3.0,1.0,-4.0,-1.0,0.0,0.0,-1.0,-2.0
1.6951626952564877e+18,-5.0,-15.0,9.0,5.0,3.0,2.0,-1.0,-1.0
1.6951626952709097e+18,0.0,-8.0,6.0,3.0,0.0,1.0,2.0,1.0
1.6951626952709097e+18,-3.0,-2.0,-1.0,-2.0,1.0,0.0,0.0,0.0
1.6951626952729088e+18,-1.0,-4.0,1.0,-1.0,-1.0,0.0,-2.0,-1.0
1.6951626952729088e+18,-2.0,-4.0,4.0,2.0,1.0,-1.0,1.0,2.0
1.695162695293034e+18,0.0,11.0,-7.0,-3.0,-4.0,-2.0,0.0,-1.0
1.6951626952940362e+18,-4.0,1.0,0.0,0.0,-1.0,0.0,-1.0,-3.0
1.695162695295031e+18,0.0,-4.0,2.0,2.0,0.0,-1.0,0.0,-1.0
1.695162695295031e+18,-1.0,-9.0,7.0,3.0,2.0,0.0,0.0,0.0
1.6951626953068352e+18,-4.0,-1.0,-1.0,0.0,0.0,-1.0,1.0,-1.0
1.6951626953068352e+18,0.0,0.0,-2.0,0.0,0.0,-1.0,-1.0,0.0
1.6951626953159063e+18,-1.0,2.0,-2.0,-2.0,-2.0,0.0,0.0,1.0
1.6951626953179282e+18,0.0,-2.0,-2.0,-2.0,0.0,-3.0,1.0,0.0
1.695162695330898e+18,0.0,2.0,0.0,1.0,0.0,-1.0,1.0,0.0
1.695162695330898e+18,2.0,-10.0,6.0,0.0,-1.0,-1.0,-1.0,0.0
1.695162695331897e+18,0.0,0.0,-3.0,-2.0,0.0,-2.0,0.0,0.0
1.6951626953329016e+18,2.0,-5.0,7.0,2.0,1.0,1.0,-1.0,-1.0
1.6951626953534656e+18,-4.0,-9.0,2.0,1.0,0.0,-1.0,0.0,-1.0
1.6951626953534656e+18,1.0,1.0,-3.0,-2.0,-1.0,-1.0,0.0,-1.0
1.6951626953624625e+18,-2.0,14.0,-11.0,-2.0,-2.0,-2.0,-1.0,-3.0
1.6951626953624625e+18,-3.0,-4.0,-2.0,0.0,0.0,0.0,0.0,0.0
1.695162695366459e+18,2.0,0.0,-1.0,-3.0,0.0,-1.0,-2.0,-1.0
1.6951626953674596e+18,0.0,-4.0,2.0,1.0,0.0,1.0,0.0,0.0
1.6951626953831826e+18,0.0,0.0,1.0,1.0,-1.0,-1.0,-2.0,-2.0
1.6951626953831826e+18,-2.0,-1.0,-2.0,-1.0,-1.0,0.0,0.0,-1.0
1.6951626954065677e+18,0.0,2.0,-2.0,-1.0,-1.0,-1.0,0.0,1.0
1.6951626954115658e+18,0.0,6.0,-7.0,-2.0,-3.0,-1.0,-2.0,1.0
1.6951626954125665e+18,1.0,-4.0,4.0,0.0,0.0,0.0,-1.0,1.0
1.6951626954125665e+18,-2.0,-2.0,1.0,0.0,-2.0,-2.0,0.0,0.0
1.695162695413565e+18,-1.0,-4.0,1.0,-2.0,1.0,-2.0,-2.0,-1.0
1.695162695413565e+18,2.0,1.0,-2.0,-2.0,-2.0,-1.0,-1.0,-1.0
1.6951626954145687e+18,-1.0,-2.0,2.0,0.0,0.0,-1.0,-1.0,-1.0
1.6951626954155633e+18,-1.0,2.0,-3.0,-2.0,-1.0,-1.0,-1.0,-2.0
1.695162695426496e+18,3.0,7.0,-2.0,-5.0,-5.0,-4.0,-1.0,-2.0
1.695162695426496e+18,0.0,2.0,-4.0,-2.0,1.0,-1.0,-2.0,-1.0
1.6951626954358725e+18,3.0,-2.0,2.0,-2.0,-1.0,-1.0,0.0,0.0
1.6951626954358725e+18,-1.0,2.0,-1.0,-1.0,-1.0,-1.0,-2.0,-1.0
1.695162695450365e+18,-1.0,0.0,1.0,0.0,0.0,-2.0,0.0,0.0
1.695162695450365e+18,-1.0,-3.0,0.0,0.0,0.0,-2.0,-3.0,-1.0
1.6951626954563287e+18,-1.0,-3.0,-1.0,-2.0,-1.0,0.0,-1.0,-2.0
1.695162695457333e+18,-1.0,-1.0,1.0,0.0,-2.0,0.0,-1.0,0.0
1.6951626954763407e+18,-1.0,-2.0,1.0,-1.0,-1.0,1.0,0.0,-1.0
1.6951626954763407e+18,0.0,1.0,-3.0,-2.0,-3.0,-2.0,0.0,-2.0
1.6951626954773192e+18,-5.0,-7.0,2.0,1.0,1.0,-1.0,-1.0,-1.0
1.6951626954773192e+18,0.0,-2.0,-1.0,-1.0,1.0,-1.0,0.0,-1.0
1.695162695486855e+18,1.0,-3.0,-1.0,3.0,1.0,-1.0,-2.0,-3.0
1.695162695486855e+18,-2.0,-1.0,-2.0,-1.0,-2.0,-1.0,0.0,0.0
1.6951626954958487e+18,0.0,-2.0,0.0,2.0,0.0,-1.0,1.0,-2.0
1.6951626954958487e+18,1.0,-4.0,0.0,-1.0,-1.0,0.0,-1.0,-1.0
1.6951626955106076e+18,-2.0,-2.0,0.0,0.0,1.0,0.0,-3.0,-1.0
1.6951626955106076e+18,-1.0,0.0,-1.0,0.0,0.0,0.0,0.0,1.0
1.6951626955125473e+18,-1.0,0.0,-2.0,-1.0,0.0,0.0,1.0,-1.0
1.6951626955125473e+18,-1.0,1.0,0.0,-1.0,0.0,-1.0,-1.0,0.0
1.695162695534535e+18,0.0,-3.0,-1.0,0.0,-1.0,0.0,0.0,0.0
1.6951626955355338e+18,0.0,-1.0,0.0,0.0,-1.0,-1.0,0.0,-2.0
1.6951626955355338e+18,0.0,0.0,-2.0,0.0,-2.0,-1.0,-1.0,0.0
1.6951626955355338e+18,0.0,-2.0,-3.0,0.0,-2.0,-1.0,-1.0,0.0
1.6951626955475277e+18,-2.0,-1.0,0.0,-1.0,-1.0,0.0,0.0,0.0
1.6951626955475277e+18,0.0,-1.0,-1.0,-2.0,1.0,-2.0,-2.0,0.0
1.6951626955620265e+18,-2.0,-1.0,-1.0,-1.0,-1.0,0.0,-1.0,-1.0
1.6951626955620265e+18,-1.0,-1.0,-1.0,0.0,-1.0,0.0,-2.0,0.0
1.6951626955704133e+18,-1.0,-2.0,1.0,0.0,-1.0,0.0,1.0,-1.0
1.6951626955704133e+18,-2.0,-1.0,-1.0,-2.0,0.0,-1.0,-1.0,1.0
1.695162695572411e+18,1.0,-3.0,0.0,-1.0,0.0,0.0,0.0,0.0
1.6951626955734136e+18,0.0,2.0,0.0,-1.0,0.0,-2.0,-2.0,-3.0
1.6951626956004183e+18,-1.0,-1.0,0.0,-2.0,0.0,-2.0,-2.0,-1.0
1.695162695601394e+18,0.0,1.0,-1.0,-1.0,-1.0,-1.0,-1.0,-1.0
1.6951626956023928e+18,0.0,0.0,-2.0,-1.0,0.0,0.0,-2.0,0.0
1.6951626956023928e+18,-2.0,1.0,1.0,0.0,-1.0,1.0,1.0,-2.0
1.695162695607391e+18,-2.0,-2.0,-2.0,0.0,0.0,0.0,-1.0,-1.0
1.695162695607391e+18,-1.0,0.0,1.0,0.0,1.0,0.0,-2.0,-2.0
1.6951626956163866e+18,0.0,0.0,-2.0,-1.0,-2.0,0.0,0.0,-1.0
1.6951626956173906e+18,-1.0,-1.0,-2.0,-1.0,-3.0,-3.0,-1.0,-1.0
1.6951626956463875e+18,-1.0,0.0,-2.0,-4.0,-1.0,1.0,-1.0,-1.0
1.6951626956463875e+18,-1.0,-3.0,-4.0,-6.0,-16.0,-6.0,-1.0,-1.0
1.6951626956473692e+18,-1.0,1.0,1.0,12.0,23.0,3.0,-2.0,-1.0
1.6951626956483717e+18,0.0,2.0,1.0,-4.0,-6.0,-4.0,1.0,-2.0
1.6951626956606538e+18,-2.0,-5.0,-2.0,1.0,3.0,1.0,0.0,0.0
1.6951626956606538e+18,0.0,2.0,-2.0,11.0,-3.0,0.0,-1.0,-1.0
1.695162695662565e+18,-4.0,-1.0,-16.0,-22.0,-26.0,-6.0,-3.0,-3.0
1.695162695662565e+18,2.0,-3.0,2.0,-2.0,1.0,-15.0,-2.0,0.0
1.695162695682931e+18,0.0,7.0,4.0,3.0,2.0,8.0,0.0,0.0
1.695162695682931e+18,-1.0,-4.0,24.0,8.0,7.0,13.0,4.0,2.0
1.695162695684906e+18,-3.0,-3.0,-38.0,-20.0,-7.0,-9.0,-6.0,-2.0
1.695162695684906e+18,0.0,0.0,0.0,7.0,-3.0,1.0,-2.0,0.0
1.6951626956988987e+18,-2.0,-2.0,-1.0,-7.0,-4.0,-4.0,3.0,1.0
1.6951626956988987e+18,-2.0,-1.0,-1.0,1.0,-1.0,-7.0,0.0,-1.0
1.6951626956998984e+18,-1.0,3.0,12.0,7.0,-8.0,-2.0,0.0,-2.0
1.6951626957029135e+18,0.0,2.0,4.0,-5.0,10.0,5.0,-2.0,3.0
1.6951626957203028e+18,-3.0,-5.0,-9.0,4.0,9.0,0.0,1.0,-9.0
1.695162695721306e+18,1.0,3.0,-1.0,-5.0,3.0,-1.0,-1.0,5.0
1.695162695722321e+18,-1.0,-2.0,11.0,9.0,6.0,6.0,0.0,-14.0
1.695162695722321e+18,-2.0,-7.0,-7.0,0.0,-12.0,-9.0,2.0,21.0
1.695162695736608e+18,-5.0,-5.0,4.0,-4.0,-5.0,-8.0,-19.0,-26.0
1.6951626957376087e+18,7.0,9.0,-6.0,-14.0,-10.0,4.0,19.0,2.0
1.6951626957376087e+18,4.0,4.0,7.0,14.0,5.0,13.0,-1.0,1.0
1.6951626957386076e+18,-3.0,3.0,7.0,-10.0,13.0,15.0,6.0,3.0
1.695162695766591e+18,3.0,0.0,-7.0,6.0,3.0,-6.0,4.0,-5.0
1.695162695768592e+18,-10.0,-11.0,-3.0,0.0,4.0,-10.0,-3.0,3.0
1.695162695768592e+18,-1.0,-5.0,-1.0,6.0,-4.0,-1.0,2.0,5.0
1.695162695769594e+18,-1.0,0.0,-9.0,6.0,-7.0,-3.0,-6.0,-13.0
1.6951626957895777e+18,0.0,-1.0,6.0,-40.0,-24.0,-13.0,-13.0,12.0
1.6951626957895777e+18,0.0,3.0,0.0,-5.0,-14.0,-8.0,3.0,-6.0
1.6951626957925757e+18,-3.0,0.0,4.0,14.0,34.0,12.0,-3.0,-7.0
1.6951626957935762e+18,3.0,4.0,10.0,-12.0,-6.0,5.0,-4.0,-1.0
1.6951626957935762e+18,-8.0,-4.0,-23.0,18.0,-4.0,-17.0,7.0,10.0
1.695162695794576e+18,-5.0,-10.0,-9.0,-14.0,-12.0,-9.0,-16.0,-17.0
1.6951626957975734e+18,0.0,17.0,22.0,-9.0,-15.0,-18.0,-8.0,-5.0
1.6951626957995732e+18,6.0,-18.0,-11.0,2.0,17.0,38.0,47.0,1.0
1.6951626958115653e+18,14.0,27.0,22.0,13.0,15.0,12.0,-19.0,35.0
1.6951626958125647e+18,-22.0,-48.0,-28.0,2.0,4.0,8.0,19.0,-4.0
1.6951626958135644e+18,3.0,12.0,0.0,-7.0,-17.0,-17.0,-5.0,-1.0
1.6951626958145656e+18,4.0,1.0,3.0,9.0,-2.0,-22.0,-21.0,-32.0
1.695162695841548e+18,7.0,20.0,7.0,-3.0,-6.0,2.0,4.0,12.0
1.6951626958425482e+18,7.0,11.0,9.0,7.0,3.0,-2.0,-20.0,16.0
1.695162695843548e+18,-2.0,-32.0,-15.0,-9.0,-4.0,-5.0,9.0,-26.0
1.6951626958445517e+18,-21.0,-7.0,-20.0,-20.0,-12.0,-8.0,-4.0,2.0
1.6951626958475456e+18,4.0,4.0,29.0,-2.0,-7.0,-7.0,13.0,22.0
1.695162695848548e+18,-12.0,-7.0,-15.0,15.0,35.0,15.0,-12.0,-36.0
1.6951626958875213e+18,8.0,-4.0,1.0,-6.0,-1.0,0.0,-14.0,68.0
1.6951626958885217e+18,-5.0,7.0,-4.0,4.0,-14.0,-13.0,-18.0,-26.0
1.6951626958885217e+18,-12.0,-27.0,-23.0,-6.0,-8.0,3.0,-13.0,-27.0
1.6951626958885217e+18,5.0,17.0,-2.0,-16.0,-17.0,-3.0,43.0,-17.0
1.6951626958885217e+18,5.0,9.0,23.0,7.0,-4.0,-6.0,-5.0,1.0
1.6951626958895204e+18,6.0,-1.0,-7.0,6.0,14.0,10.0,2.0,18.0
1.6951626959035126e+18,-5.0,-5.0,-4.0,-2.0,4.0,2.0,-13.0,-9.0
1.695162695904545e+18,14.0,8.0,1.0,-1.0,-3.0,5.0,15.0,14.0
1.69516269590751e+18,-7.0,-13.0,-5.0,-1.0,-6.0,-11.0,18.0,-5.0
1.6951626959085115e+18,15.0,23.0,9.0,2.0,5.0,3.0,-26.0,-26.0
1.6951626959095101e+18,-15.0,-10.0,16.0,7.0,15.0,24.0,18.0,-35.0
1.6951626959095101e+18,10.0,22.0,23.0,3.0,1.0,0.0,3.0,54.0
1.6951626959175053e+18,-12.0,-32.0,-52.0,-10.0,-2.0,1.0,5.0,-31.0
1.6951626959175053e+18,-5.0,-13.0,-11.0,2.0,-4.0,-27.0,-39.0,33.0
1.6951626959394913e+18,5.0,1.0,17.0,13.0,3.0,5.0,23.0,-18.0
1.6951626959394913e+18,10.0,3.0,-10.0,-10.0,17.0,25.0,-13.0,-1.0
1.6951626959404918e+18,-18.0,-3.0,27.0,-9.0,-15.0,-17.0,0.0,9.0
1.6951626959404918e+18,15.0,3.0,-3.0,4.0,3.0,10.0,4.0,-14.0
1.6951626959524833e+18,-15.0,-14.0,-33.0,-2.0,-3.0,-14.0,-3.0,0.0
1.6951626959524833e+18,1.0,12.0,4.0,0.0,-4.0,-2.0,-8.0,-26.0
1.69516269596048e+18,-30.0,-13.0,-28.0,2.0,19.0,18.0,7.0,-12.0
1.6951626959614784e+18,-1.0,21.0,12.0,-1.0,1.0,7.0,29.0,3.0
1.6951626959674752e+18,-19.0,-29.0,19.0,-6.0,-13.0,-13.0,-20.0,-13.0
1.6951626959674752e+18,7.0,25.0,-9.0,1.0,-8.0,-17.0,-17.0,48.0
1.695162695992465e+18,28.0,20.0,7.0,5.0,6.0,8.0,-3.0,-20.0
1.695162695992465e+18,-16.0,-8.0,-14.0,-9.0,-8.0,3.0,20.0,19.0
1.6951626959934602e+18,31.0,11.0,17.0,4.0,-1.0,2.0,8.0,37.0
1.6951626959934602e+18,-11.0,-19.0,-11.0,2.0,10.0,-4.0,-3.0,-25.0
1.6951626959964616e+18,-8.0,-1.0,-5.0,-14.0,-9.0,-2.0,-33.0,-5.0
1.695162695997458e+18,-5.0,-4.0,-4.0,9.0,-10.0,-11.0,5.0,-20.0
1.695162696013449e+18,10.0,25.0,14.0,3.0,11.0,11.0,2.0,-6.0
1.695162696014448e+18,-4.0,-35.0,-25.0,-12.0,-8.0,-5.0,-6.0,3.0
1.695162696015449e+18,18.0,8.0,45.0,8.0,3.0,4.0,20.0,25.0
1.695162696015449e+18,-23.0,-3.0,21.0,-5.0,-6.0,-4.0,-6.0,-27.0
1.695162696027441e+18,6.0,8.0,-40.0,-6.0,-2.0,-1.0,-3.0,32.0
1.6951626960284406e+18,-26.0,-7.0,33.0,2.0,-2.0,-4.0,-10.0,-21.0
1.6951626960524262e+18,6.0,9.0,-16.0,0.0,1.0,3.0,10.0,-19.0
1.695162696060446e+18,-4.0,1.0,-13.0,-1.0,1.0,2.0,-2.0,-4.0
1.6951626960634194e+18,-15.0,-16.0,-34.0,1.0,-1.0,-5.0,-7.0,19.0
1.695162696065419e+18,-5.0,10.0,-10.0,-4.0,-5.0,-3.0,-2.0,-21.0
1.695162696065419e+18,1.0,1.0,50.0,9.0,5.0,3.0,0.0,-18.0
1.6951626960664184e+18,6.0,-7.0,2.0,-6.0,-7.0,2.0,10.0,1.0
1.6951626960734141e+18,1.0,20.0,0.0,-1.0,3.0,-7.0,-18.0,10.0
1.6951626960744143e+18,16.0,-2.0,9.0,-6.0,-8.0,-6.0,-6.0,6.0
1.6951626960754138e+18,-4.0,6.0,-29.0,-10.0,-20.0,-4.0,-7.0,3.0
1.6951626960754138e+18,4.0,1.0,2.0,-3.0,13.0,3.0,1.0,-1.0
1.6951626960874058e+18,-2.0,-2.0,11.0,10.0,5.0,11.0,24.0,-21.0
1.6951626960884063e+18,-3.0,-1.0,0.0,3.0,-4.0,-8.0,-21.0,4.0
1.6951626961033964e+18,12.0,22.0,-5.0,-2.0,-1.0,2.0,7.0,8.0
1.6951626961043965e+18,13.0,10.0,-2.0,-5.0,-7.0,-4.0,-7.0,-8.0
1.6951626961293862e+18,-6.0,-7.0,-19.0,-8.0,-8.0,-11.0,-14.0,-2.0
1.6951626961353792e+18,-7.0,14.0,7.0,-2.0,5.0,5.0,15.0,-21.0
1.6951626961353792e+18,5.0,-11.0,-11.0,-1.0,0.0,1.0,-4.0,25.0
1.69516269613638e+18,11.0,-2.0,-8.0,-4.0,-9.0,-5.0,0.0,17.0
1.695162696142375e+18,-5.0,11.0,-8.0,2.0,12.0,4.0,-1.0,-19.0
1.6951626961433746e+18,1.0,-8.0,10.0,4.0,-2.0,1.0,5.0,-10.0
1.695162696144374e+18,6.0,0.0,-8.0,-6.0,-1.0,-2.0,5.0,-29.0
1.695162696144374e+18,10.0,3.0,5.0,3.0,1.0,1.0,-5.0,63.0
1.6951626961653612e+18,-3.0,-12.0,8.0,2.0,-2.0,-2.0,-10.0,5.0
1.6951626961653612e+18,3.0,-2.0,-13.0,9.0,5.0,2.0,13.0,5.0
1.6951626961663603e+18,0.0,11.0,4.0,-5.0,0.0,-2.0,-11.0,-11.0
1.6951626961663603e+18,-15.0,-22.0,12.0,8.0,9.0,3.0,4.0,-18.0
1.6951626961853489e+18,9.0,0.0,-7.0,-6.0,-9.0,-2.0,5.0,3.0
1.69516269618635e+18,-7.0,-6.0,-7.0,2.0,-2.0,-1.0,-3.0,5.0
1.6951626961873477e+18,-8.0,13.0,-13.0,-8.0,-3.0,1.0,5.0,9.0
1.6951626961873477e+18,-2.0,3.0,1.0,20.0,17.0,3.0,-6.0,-9.0
1.695162696193344e+18,-2.0,-9.0,12.0,0.0,3.0,0.0,0.0,4.0
1.695162696193344e+18,5.0,2.0,4.0,4.0,4.0,3.0,-4.0,-6.0
1.6951626961943444e+18,-1.0,15.0,11.0,2.0,0.0,4.0,3.0,10.0
1.695162696195344e+18,-16.0,-24.0,-4.0,0.0,-8.0,-1.0,12.0,-47.0
1.6951626962233277e+18,6.0,-2.0,-8.0,-2.0,-13.0,-11.0,-25.0,63.0
1.6951626962233277e+18,-4.0,-12.0,1.0,-4.0,-5.0,-5.0,2.0,3.0
1.695162696227326e+18,-1.0,-7.0,8.0,7.0,10.0,4.0,-2.0,3.0
1.6951626962283256e+18,0.0,5.0,4.0,-4.0,0.0,-2.0,3.0,-5.0
1.6951626962303237e+18,-7.0,-18.0,2.0,-1.0,-2.0,1.0,7.0,-32.0
1.6951626962313231e+18,2.0,0.0,1.0,-8.0,-6.0,-7.0,-5.0,9.0
1.695162696236321e+18,-9.0,-12.0,-8.0,3.0,2.0,2.0,14.0,11.0
1.6951626962373253e+18,6.0,-5.0,8.0,1.0,-1.0,-7.0,-24.0,3.0
1.6951626962533102e+18,0.0,10.0,0.0,-7.0,1.0,2.0,10.0,-25.0
1.6951626962533102e+18,-1.0,-5.0,-1.0,2.0,3.0,2.0,-2.0,13.0
1.69516269625531e+18,0.0,-9.0,-2.0,12.0,5.0,3.0,5.0,0.0
1.69516269625531e+18,8.0,9.0,-4.0,-12.0,-5.0,-1.0,-3.0,14.0
1.6951626962752983e+18,-1.0,-1.0,-3.0,-1.0,-2.0,0.0,2.0,-4.0
1.6951626962763046e+18,0.0,3.0,12.0,-4.0,-3.0,-1.0,-4.0,-23.0
1.6951626962772964e+18,-10.0,-11.0,-8.0,-5.0,-32.0,-14.0,-9.0,-5.0
1.6951626962772964e+18,-5.0,-6.0,-4.0,19.0,52.0,15.0,6.0,-3.0
1.6951626962892913e+18,9.0,0.0,1.0,-7.0,-4.0,4.0,5.0,-2.0
1.6951626962892913e+18,-4.0,-5.0,-16.0,-9.0,-3.0,3.0,3.0,-4.0
1.695162696315278e+18,-2.0,-13.0,5.0,-3.0,-12.0,-10.0,-15.0,-13.0
1.695162696315278e+18,2.0,12.0,6.0,-20.0,-29.0,-9.0,8.0,35.0
1.6951626963162744e+18,1.0,12.0,2.0,15.0,14.0,6.0,8.0,-14.0
1.6951626963162744e+18,-2.0,-13.0,-5.0,-2.0,7.0,4.0,0.0,-8.0
1.6951626963192714e+18,-1.0,0.0,1.0,-4.0,-1.0,-3.0,-9.0,-7.0
1.6951626963192714e+18,-1.0,0.0,-3.0,-7.0,-19.0,-3.0,2.0,6.0
1.695162696335263e+18,-9.0,0.0,4.0,-4.0,1.0,1.0,17.0,-28.0
1.695162696336264e+18,4.0,20.0,-7.0,1.0,-15.0,-9.0,-20.0,25.0
1.6951626963372644e+18,-12.0,-42.0,5.0,12.0,38.0,16.0,15.0,-38.0
1.6951626963372644e+18,23.0,14.0,-7.0,0.0,-9.0,-15.0,-28.0,70.0
1.6951626963672627e+18,-3.0,4.0,-1.0,-10.0,-14.0,-4.0,-8.0,2.0
1.6951626963672627e+18,-2.0,-1.0,1.0,-8.0,-10.0,-7.0,-3.0,-11.0
1.6951626963682447e+18,-5.0,4.0,-4.0,0.0,10.0,3.0,7.0,0.0
1.6951626963682447e+18,-12.0,-4.0,-2.0,12.0,14.0,8.0,7.0,-35.0
1.695162696373242e+18,1.0,-7.0,10.0,-1.0,0.0,-1.0,-3.0,-3.0
1.6951626963742415e+18,2.0,2.0,-1.0,3.0,-7.0,-5.0,1.0,6.0
1.6951626963742415e+18,2.0,8.0,0.0,-11.0,-10.0,-4.0,-10.0,5.0
1.6951626963752402e+18,-6.0,-10.0,-2.0,-10.0,-4.0,3.0,4.0,-10.0
1.6951626964082373e+18,3.0,2.0,-7.0,-3.0,-6.0,-5.0,-4.0,9.0
1.6951626964082373e+18,-1.0,0.0,18.0,6.0,9.0,3.0,4.0,-8.0
1.6951626964082373e+18,3.0,6.0,-12.0,3.0,-2.0,-2.0,-2.0,18.0
1.6951626964082373e+18,-10.0,-7.0,-11.0,-1.0,3.0,1.0,-3.0,-12.0
1.6951626964182154e+18,-3.0,-4.0,18.0,-1.0,2.0,-1.0,2.0,0.0
1.6951626964182154e+18,2.0,1.0,-1.0,5.0,7.0,3.0,3.0,5.0
1.695162696419215e+18,-1.0,-1.0,-5.0,5.0,4.0,0.0,-6.0,9.0
1.6951626964202158e+18,-2.0,0.0,-1.0,-10.0,-18.0,-4.0,2.0,-13.0
1.695162696431939e+18,-2.0,-4.0,-4.0,-2.0,2.0,2.0,5.0,0.0
1.6951626964329334e+18,-1.0,-3.0,2.0,8.0,6.0,-1.0,-2.0,-1.0
1.6951626964405673e+18,7.0,5.0,5.0,-9.0,-7.0,-3.0,-2.0,22.0
1.6951626964405673e+18,-6.0,-6.0,-14.0,9.0,7.0,2.0,2.0,-14.0
1.6951626964555284e+18,-2.0,-1.0,4.0,-6.0,-16.0,-6.0,1.0,-2.0
1.6951626964555284e+18,2.0,4.0,-4.0,7.0,16.0,7.0,5.0,3.0
1.6951626964575012e+18,-2.0,-1.0,20.0,-3.0,-16.0,-7.0,4.0,14.0
1.6951626964575012e+18,-4.0,-6.0,6.0,16.0,30.0,13.0,-4.0,-7.0
1.6951626964784911e+18,1.0,-6.0,-2.0,-2.0,-11.0,-5.0,-3.0,4.0
1.6951626964784911e+18,-1.0,0.0,-17.0,-10.0,-19.0,-9.0,-4.0,-5.0
1.695162696479512e+18,0.0,6.0,13.0,3.0,18.0,5.0,-12.0,9.0
1.695162696479512e+18,-1.0,-3.0,-2.0,-4.0,-18.0,-7.0,0.0,-4.0
1.6951626965084644e+18,-2.0,1.0,10.0,3.0,9.0,1.0,-1.0,-7.0
1.6951626965084644e+18,-2.0,-1.0,12.0,5.0,2.0,1.0,-1.0,-2.0
1.6951626965094876e+18,-2.0,-1.0,-13.0,-14.0,-12.0,-3.0,1.0,-8.0
1.6951626965094876e+18,-1.0,0.0,4.0,-3.0,-9.0,-5.0,0.0,0.0
1.6951626965154606e+18,-1.0,-2.0,-10.0,5.0,16.0,4.0,-3.0,-6.0
1.6951626965164598e+18,-3.0,-3.0,-1.0,-5.0,-17.0,-6.0,-1.0,-6.0
1.69516269651746e+18,-2.0,-1.0,-7.0,14.0,27.0,7.0,1.0,-3.0
1.69516269651746e+18,1.0,3.0,-3.0,-1.0,-3.0,-1.0,3.0,5.0
1.695162696529453e+18,0.0,0.0,9.0,7.0,4.0,1.0,-1.0,-3.0
1.695162696529453e+18,-3.0,-8.0,-12.0,-9.0,-7.0,-3.0,0.0,3.0
1.6951626965454428e+18,-1.0,-1.0,-11.0,-27.0,-29.0,-8.0,-8.0,-5.0
1.6951626965454428e+18,0.0,3.0,5.0,-23.0,-14.0,-14.0,-1.0,-2.0
1.6951626966070223e+18,1.0,-5.0,-11.0,11.0,-4.0,8.0,4.0,0.0
1.6951626966080223e+18,0.0,1.0,11.0,37.0,44.0,16.0,3.0,4.0
1.6951626966080223e+18,1.0,3.0,3.0,-5.0,-20.0,-1.0,1.0,-3.0
1.6951626966090212e+18,-1.0,1.0,4.0,-12.0,-7.0,-4.0,0.0,-3.0
1.6951626966090212e+18,-2.0,-1.0,-7.0,5.0,-7.0,-13.0,-11.0,-2.0
1.6951626966090212e+18,-1.0,-3.0,-21.0,-42.0,-24.0,-21.0,-10.0,0.0
1.6951626966360212e+18,0.0,3.0,26.0,44.0,29.0,-2.0,-15.0,-6.0
1.6951626966360212e+18,3.0,2.0,5.0,13.0,22.0,28.0,18.0,6.0
1.6951626966450094e+18,-2.0,-5.0,-11.0,-12.0,6.0,5.0,3.0,-1.0
1.6951626966450094e+18,4.0,2.0,7.0,8.0,19.0,26.0,15.0,6.0
1.6951626966450094e+18,-2.0,1.0,-11.0,15.0,25.0,3.0,-2.0,-3.0
1.6951626966450094e+18,-1.0,-2.0,-2.0,7.0,41.0,6.0,-4.0,-2.0
1.6951626966469988e+18,0.0,2.0,22.0,60.0,35.0,7.0,5.0,0.0
1.6951626966469988e+18,4.0,5.0,-7.0,-10.0,3.0,7.0,2.0,4.0
1.6951626966590154e+18,-3.0,-3.0,-28.0,-43.0,-25.0,-4.0,-16.0,-6.0
1.6951626966590154e+18,-8.0,0.0,34.0,20.0,-25.0,-27.0,-53.0,-14.0
1.6951626966599916e+18,8.0,9.0,-5.0,31.0,22.0,-1.0,10.0,2.0
1.6951626966599916e+18,-1.0,5.0,-18.0,-25.0,-20.0,-44.0,-92.0,-26.0
1.6951626966609915e+18,-13.0,-31.0,-65.0,-42.0,-18.0,17.0,71.0,11.0
1.6951626966609915e+18,-19.0,-31.0,-44.0,-55.0,-41.0,-13.0,18.0,-11.0
1.6951626966809818e+18,12.0,24.0,22.0,-6.0,-3.0,7.0,6.0,7.0
1.6951626966809818e+18,0.0,-9.0,28.0,30.0,9.0,13.0,21.0,5.0
1.695162696681979e+18,-1.0,-1.0,16.0,7.0,0.0,-18.0,-45.0,-11.0
1.695162696681979e+18,5.0,16.0,5.0,12.0,5.0,-2.0,-10.0,-1.0
1.6951626966959747e+18,-4.0,-1.0,12.0,-1.0,-6.0,-2.0,5.0,-1.0
1.6951626966959747e+18,2.0,4.0,-14.0,-26.0,-31.0,-5.0,2.0,0.0
1.695162696696978e+18,2.0,6.0,0.0,5.0,-1.0,-5.0,-16.0,-4.0
1.695162696697971e+18,-5.0,-11.0,-10.0,14.0,81.0,25.0,-10.0,-2.0
1.6951626967099622e+18,-1.0,2.0,9.0,4.0,-14.0,-3.0,3.0,1.0
1.6951626967099622e+18,-5.0,-10.0,-17.0,-41.0,-31.0,0.0,28.0,3.0
1.69516269671896e+18,7.0,17.0,-2.0,13.0,16.0,0.0,-23.0,0.0
1.6951626967279524e+18,-5.0,-7.0,19.0,29.0,-18.0,-7.0,-1.0,-8.0
1.6951626967329536e+18,-2.0,-3.0,7.0,22.0,2.0,-2.0,-20.0,-1.0
1.6951626967339604e+18,-4.0,-8.0,-9.0,-24.0,-4.0,-18.0,-3.0,-9.0
1.6951626967349486e+18,-2.0,-2.0,4.0,-5.0,13.0,29.0,42.0,15.0
1.6951626967349486e+18,-2.0,-12.0,-26.0,-31.0,-17.0,-6.0,-16.0,0.0
1.6951626967560317e+18,-2.0,-2.0,3.0,-12.0,-4.0,-6.0,-30.0,-8.0
1.6951626967560317e+18,6.0,9.0,9.0,25.0,1.0,14.0,36.0,12.0
1.695162696757265e+18,-6.0,-10.0,-7.0,-26.0,-23.0,-38.0,-59.0,-20.0
1.695162696757265e+18,0.0,13.0,-6.0,-14.0,-17.0,-8.0,10.0,2.0
1.6951626967691533e+18,-2.0,-1.0,6.0,6.0,5.0,17.0,30.0,7.0
1.6951626967691533e+18,1.0,-1.0,-4.0,3.0,3.0,-2.0,-15.0,1.0
1.6951626967955587e+18,3.0,2.0,3.0,-8.0,14.0,24.0,26.0,11.0
1.6951626967955587e+18,-5.0,-6.0,-9.0,-22.0,-30.0,-15.0,-18.0,-4.0
1.6951626967955587e+18,1.0,2.0,-7.0,-5.0,25.0,3.0,0.0,0.0
1.6951626967965563e+18,0.0,6.0,6.0,8.0,0.0,-2.0,5.0,-1.0
1.6951626968067569e+18,0.0,2.0,8.0,1.0,-3.0,11.0,-12.0,5.0
1.6951626968067569e+18,3.0,3.0,0.0,8.0,-5.0,-6.0,-1.0,-2.0
1.695162696869185e+18,-1.0,-5.0,-3.0,-5.0,-12.0,-4.0,4.0,1.0
1.695162696869185e+18,-3.0,-1.0,2.0,2.0,14.0,-11.0,-20.0,-10.0
1.6951626968711875e+18,1.0,-7.0,2.0,8.0,1.0,17.0,31.0,0.0
1.6951626968711875e+18,4.0,5.0,-2.0,-10.0,-6.0,3.0,11.0,15.0
1.6951626968721866e+18,-1.0,-5.0,-11.0,0.0,3.0,2.0,17.0,-11.0
1.6951626968721866e+18,-2.0,-9.0,9.0,14.0,4.0,15.0,11.0,6.0
1.6951626968848236e+18,-1.0,6.0,3.0,-9.0,-13.0,-22.0,-31.0,-7.0
1.6951626968858253e+18,1.0,7.0,13.0,9.0,9.0,-3.0,-3.0,-1.0
1.6951626968858253e+18,4.0,17.0,3.0,-4.0,-1.0,18.0,43.0,12.0
1.6951626968858253e+18,-1.0,-6.0,6.0,7.0,7.0,32.0,80.0,12.0
1.6951626968896182e+18,8.0,7.0,1.0,3.0,5.0,4.0,15.0,18.0
1.695162696890478e+18,-8.0,1.0,-11.0,-11.0,-3.0,-2.0,-6.0,-18.0
1.695162696898478e+18,-5.0,2.0,2.0,1.0,-3.0,-15.0,-25.0,-7.0
1.695162696898478e+18,-4.0,-1.0,-8.0,-5.0,4.0,-2.0,-3.0,1.0
1.6951626969374546e+18,8.0,14.0,2.0,-3.0,-10.0,5.0,14.0,6.0
1.6951626969374546e+18,-4.0,-35.0,14.0,7.0,14.0,12.0,23.0,6.0
1.6951626969384548e+18,-9.0,-10.0,-5.0,9.0,-7.0,-23.0,-37.0,-5.0
1.6951626969384548e+18,1.0,-6.0,-6.0,-6.0,13.0,15.0,19.0,8.0
1.6951626969514867e+18,-7.0,-9.0,-3.0,-5.0,-12.0,-26.0,-44.0,-18.0
1.6951626969514867e+18,5.0,23.0,-18.0,-21.0,-8.0,5.0,11.0,6.0
1.6951626969514867e+18,2.0,-48.0,19.0,12.0,-4.0,9.0,3.0,3.0
1.6951626969514867e+18,-4.0,5.0,-2.0,-5.0,1.0,-15.0,-56.0,-14.0
1.6951626969584801e+18,-1.0,-2.0,17.0,19.0,14.0,19.0,8.0,3.0
1.6951626969584801e+18,0.0,8.0,-39.0,-31.0,-18.0,-5.0,1.0,-1.0
1.6951626969597647e+18,-2.0,-7.0,8.0,9.0,9.0,-3.0,-4.0,-15.0
1.6951626969597647e+18,-7.0,-11.0,-8.0,-4.0,-10.0,-3.0,15.0,2.0
1.6951626969808143e+18,10.0,23.0,-1.0,0.0,-8.0,-5.0,-32.0,4.0
1.6951626969817974e+18,-11.0,-47.0,28.0,10.0,-7.0,-13.0,-20.0,-10.0
1.6951626969827986e+18,0.0,2.0,-5.0,13.0,10.0,9.0,14.0,-6.0
1.6951626969827986e+18,5.0,22.0,-3.0,7.0,8.0,5.0,-9.0,0.0
1.6951626969957883e+18,-6.0,-3.0,-14.0,-26.0,-2.0,9.0,26.0,19.0
1.695162697002786e+18,-2.0,11.0,0.0,-2.0,-10.0,3.0,8.0,9.0
1.6951626970037878e+18,14.0,-7.0,5.0,0.0,-5.0,4.0,8.0,-6.0
1.6951626970037878e+18,-13.0,-15.0,-10.0,7.0,5.0,-17.0,-33.0,-7.0
1.6951626970097823e+18,-1.0,5.0,2.0,-5.0,-1.0,-3.0,-1.0,-3.0
1.6951626970107827e+18,5.0,10.0,-1.0,1.0,3.0,15.0,27.0,-14.0
1.695162697034159e+18,-9.0,-5.0,1.0,-3.0,-13.0,-22.0,-26.0,10.0
1.6951626970351578e+18,5.0,5.0,10.0,16.0,15.0,17.0,12.0,11.0
1.6951626970351578e+18,-7.0,6.0,-4.0,-11.0,-15.0,-24.0,-14.0,-25.0
1.6951626970351578e+18,3.0,-3.0,14.0,19.0,17.0,23.0,20.0,23.0
1.6951626970391777e+18,-9.0,8.0,0.0,3.0,-2.0,-32.0,-30.0,-21.0
1.6951626970391777e+18,6.0,-15.0,-16.0,-5.0,-15.0,-3.0,-1.0,5.0
1.6951626970714678e+18,-1.0,7.0,0.0,-12.0,-3.0,0.0,8.0,1.0
1.6951626970714678e+18,6.0,19.0,14.0,24.0,16.0,5.0,31.0,14.0
1.695162697072465e+18,-10.0,-11.0,-15.0,-7.0,-3.0,4.0,-1.0,14.0
1.6951626970734643e+18,5.0,9.0,0.0,-1.0,0.0,2.0,0.0,-40.0
1.6951626970734643e+18,-1.0,-13.0,-8.0,-25.0,-6.0,-6.0,-9.0,11.0
1.6951626970744676e+18,-15.0,-8.0,14.0,16.0,0.0,-12.0,-17.0,-24.0
1.6951626970854336e+18,6.0,-3.0,2.0,-5.0,-2.0,5.0,-10.0,-8.0
1.6951626970864338e+18,-11.0,5.0,18.0,19.0,9.0,-3.0,28.0,15.0
1.6951626971003466e+18,9.0,18.0,-17.0,-14.0,-12.0,9.0,21.0,4.0
1.695162697101345e+18,-4.0,-28.0,11.0,-2.0,-7.0,4.0,-9.0,-3.0
1.6951626971023437e+18,-6.0,-4.0,-15.0,-17.0,9.0,0.0,2.0,0.0
1.6951626971023437e+18,9.0,-20.0,7.0,-11.0,-6.0,0.0,6.0,18.0
1.6951626971273357e+18,-6.0,3.0,3.0,5.0,-20.0,-26.0,-21.0,-45.0
1.6951626971493228e+18,-2.0,15.0,-18.0,-3.0,27.0,23.0,14.0,38.0
1.6951626971503252e+18,11.0,8.0,5.0,11.0,-2.0,-6.0,11.0,9.0
1.6951626971533486e+18,-1.0,-13.0,14.0,-4.0,-1.0,13.0,27.0,7.0
1.695162697155322e+18,0.0,-17.0,-19.0,-9.0,7.0,7.0,18.0,23.0
1.695162697155322e+18,0.0,-14.0,4.0,-2.0,-9.0,-18.0,-11.0,-28.0
1.6951626971563484e+18,-9.0,-4.0,18.0,23.0,10.0,4.0,-8.0,2.0
1.6951626971563484e+18,0.0,6.0,1.0,-1.0,-3.0,9.0,43.0,-27.0
1.6951626971613125e+18,6.0,-2.0,-4.0,-10.0,2.0,-1.0,-16.0,16.0
1.695162697162315e+18,7.0,9.0,-14.0,-4.0,-3.0,1.0,8.0,15.0
1.6951626971643113e+18,-15.0,-19.0,8.0,5.0,1.0,-5.0,-32.0,0.0
1.6951626971653107e+18,8.0,8.0,3.0,-6.0,-12.0,-20.0,-26.0,9.0
1.6951626971783035e+18,-15.0,-5.0,-39.0,-21.0,2.0,-6.0,-16.0,-7.0
1.695162697179303e+18,11.0,-14.0,11.0,3.0,-11.0,-11.0,-37.0,0.0
1.6951626971862976e+18,2.0,13.0,-21.0,-37.0,-12.0,1.0,16.0,-12.0
1.6951626971872975e+18,-3.0,13.0,-7.0,-2.0,4.0,14.0,-10.0,2.0
1.6951626972012892e+18,-5.0,-8.0,6.0,8.0,10.0,10.0,19.0,4.0
1.695162697202288e+18,-7.0,-16.0,18.0,26.0,-12.0,-12.0,-5.0,-7.0
1.695162697202288e+18,6.0,0.0,-9.0,-2.0,4.0,6.0,10.0,3.0
1.6951626972032873e+18,-5.0,21.0,-8.0,-9.0,-6.0,-7.0,-12.0,3.0
1.695162697212282e+18,0.0,-22.0,14.0,8.0,1.0,-7.0,-10.0,-6.0
1.695162697212282e+18,2.0,34.0,-17.0,-26.0,-25.0,-14.0,-7.0,-6.0
1.6951626972382674e+18,-6.0,-11.0,3.0,2.0,11.0,11.0,6.0,-2.0
1.6951626972392673e+18,2.0,-2.0,-7.0,-2.0,8.0,-2.0,-11.0,1.0
1.6951626972392673e+18,2.0,-5.0,9.0,2.0,-4.0,2.0,-9.0,-4.0
1.6951626972392673e+18,-3.0,6.0,-4.0,5.0,-1.0,1.0,4.0,-4.0
1.695162697250263e+18,-1.0,-9.0,5.0,9.0,6.0,6.0,7.0,2.0
1.695162697258258e+18,-3.0,3.0,-5.0,-13.0,-8.0,-9.0,-22.0,-4.0
1.6951626972732475e+18,-3.0,9.0,11.0,9.0,-2.0,-2.0,-3.0,-4.0
1.6951626972742497e+18,-1.0,1.0,-17.0,-15.0,3.0,1.0,6.0,3.0
1.6951626972892385e+18,3.0,5.0,3.0,-5.0,-10.0,-5.0,-2.0,-5.0
1.695162697290238e+18,-4.0,-9.0,-3.0,-1.0,-2.0,-6.0,-6.0,-2.0
1.695162697291239e+18,-1.0,6.0,6.0,16.0,2.0,0.0,0.0,-5.0
1.695162697291239e+18,0.0,0.0,-4.0,1.0,8.0,1.0,4.0,0.0
1.695162697291239e+18,0.0,2.0,-9.0,-7.0,-4.0,0.0,-3.0,-4.0
1.6951626972922373e+18,0.0,-4.0,-1.0,-1.0,-3.0,-3.0,-3.0,0.0
1.6951626973102254e+18,-2.0,13.0,5.0,2.0,6.0,3.0,2.0,-1.0
1.6951626973112305e+18,3.0,6.0,-4.0,-7.0,4.0,0.0,-4.0,5.0
1.6951626973122245e+18,2.0,-25.0,7.0,6.0,-6.0,-1.0,2.0,0.0
1.6951626973122245e+18,-12.0,-11.0,-21.0,-5.0,-3.0,-5.0,-6.0,-6.0
1.6951626973312174e+18,3.0,12.0,-4.0,3.0,-1.0,-2.0,4.0,0.0
1.6951626973322143e+18,1.0,17.0,23.0,6.0,-3.0,-6.0,-1.0,-8.0
1.6951626973402102e+18,-6.0,-10.0,-15.0,-4.0,5.0,3.0,11.0,-24.0
1.6951626973412132e+18,7.0,26.0,15.0,2.0,-1.0,3.0,10.0,51.0
1.6951626973492096e+18,1.0,-23.0,-30.0,0.0,1.0,-1.0,-11.0,-8.0
1.6951626973492096e+18,-43.0,-18.0,1.0,-8.0,-7.0,-4.0,9.0,-24.0
1.6951626973502044e+18,44.0,42.0,57.0,13.0,12.0,9.0,1.0,-17.0
1.6951626973502044e+18,33.0,62.0,32.0,-3.0,-2.0,-7.0,-8.0,71.0
1.6951626973641953e+18,-51.0,-91.0,-91.0,-16.0,-16.0,-12.0,-12.0,-29.0
1.6951626973651955e+18,19.0,-8.0,1.0,0.0,3.0,-1.0,4.0,-12.0
1.6951626973651955e+18,51.0,69.0,9.0,-1.0,-1.0,9.0,0.0,26.0
1.6951626973661947e+18,-70.0,-23.0,-30.0,-1.0,-2.0,3.0,12.0,-72.0
1.6951626974021727e+18,29.0,73.0,60.0,10.0,0.0,-9.0,-16.0,35.0
1.6951626974021727e+18,-27.0,3.0,-42.0,-6.0,4.0,6.0,3.0,-64.0
1.695162697405173e+18,-22.0,-98.0,31.0,-3.0,-11.0,-14.0,-39.0,76.0
1.695162697405173e+18,30.0,17.0,5.0,7.0,0.0,8.0,1.0,19.0
1.695162697405173e+18,17.0,56.0,-48.0,-3.0,7.0,8.0,27.0,-8.0
1.695162697405173e+18,-19.0,-17.0,19.0,3.0,-3.0,-6.0,6.0,-18.0
1.6951626974571415e+18,3.0,3.0,-27.0,-7.0,0.0,-8.0,-9.0,-49.0
1.6951626974661596e+18,1.0,-43.0,15.0,-7.0,-8.0,-7.0,-15.0,-8.0
1.6951626974671365e+18,-31.0,-7.0,58.0,4.0,2.0,4.0,-1.0,-17.0
1.6951626974671365e+18,30.0,35.0,-32.0,-5.0,-1.0,1.0,0.0,-1.0
1.6951626974671365e+18,-18.0,17.0,31.0,-2.0,-1.0,0.0,-1.0,40.0
1.6951626974671365e+18,-16.0,-41.0,-43.0,3.0,-1.0,-5.0,9.0,18.0
1.69516269747713e+18,15.0,7.0,35.0,10.0,5.0,6.0,8.0,-64.0
1.69516269747713e+18,1.0,6.0,-45.0,7.0,17.0,6.0,-2.0,-8.0
1.6951626974781307e+18,-22.0,-2.0,-27.0,4.0,1.0,1.0,16.0,-12.0
1.6951626974791352e+18,-10.0,4.0,22.0,6.0,5.0,4.0,-4.0,-54.0
1.6951626974791352e+18,9.0,-5.0,22.0,3.0,-1.0,11.0,13.0,6.0
1.6951626974801298e+18,1.0,-37.0,-17.0,-6.0,-2.0,-8.0,-9.0,5.0
1.6951626974911227e+18,-28.0,19.0,-7.0,-14.0,-27.0,-5.0,26.0,73.0
1.6951626974911227e+18,29.0,23.0,4.0,24.0,33.0,6.0,-11.0,-12.0
1.6951626975141094e+18,-43.0,-23.0,44.0,-8.0,-5.0,-8.0,-17.0,-13.0
1.695162697515109e+18,7.0,-29.0,-73.0,-9.0,-8.0,0.0,0.0,28.0
1.6951626975161085e+18,3.0,19.0,26.0,-13.0,-15.0,-8.0,-4.0,-54.0
1.6951626975161085e+18,-15.0,-16.0,-70.0,1.0,4.0,-2.0,-5.0,-22.0
1.6951626975161085e+18,20.0,-2.0,53.0,10.0,9.0,3.0,7.0,20.0
1.6951626975171095e+18,-23.0,5.0,24.0,4.0,3.0,0.0,-15.0,1.0
1.695162697541097e+18,22.0,10.0,-37.0,4.0,4.0,7.0,24.0,-8.0
1.6951626975430927e+18,-26.0,-4.0,-7.0,-12.0,-12.0,7.0,22.0,-4.0
1.6951626975430927e+18,33.0,-18.0,-40.0,-1.0,15.0,-5.0,-37.0,9.0
1.6951626975430927e+18,2.0,73.0,42.0,-19.0,-28.0,-7.0,-1.0,-11.0
1.6951626975430927e+18,-11.0,-36.0,30.0,17.0,4.0,0.0,21.0,0.0
1.695162697544092e+18,3.0,3.0,7.0,2.0,12.0,6.0,-20.0,-32.0
1.695162697567079e+18,3.0,21.0,-13.0,-11.0,-24.0,-16.0,-5.0,64.0
1.6951626975680783e+18,6.0,-33.0,-15.0,8.0,28.0,14.0,7.0,33.0
1.6951626975690778e+18,1.0,-10.0,16.0,-10.0,-14.0,-11.0,-11.0,-35.0
1.6951626975690778e+18,-1.0,-4.0,-6.0,-2.0,-12.0,-5.0,-3.0,-9.0
1.6951626975720765e+18,-16.0,8.0,52.0,8.0,2.0,-6.0,8.0,-49.0
1.6951626975730762e+18,8.0,-14.0,-27.0,3.0,4.0,18.0,23.0,48.0
1.6951626975810721e+18,-22.0,-3.0,24.0,-2.0,8.0,-10.0,-41.0,6.0
1.695162697582071e+18,18.0,3.0,16.0,2.0,-3.0,-4.0,13.0,11.0
1.6951626976270438e+18,13.0,18.0,-9.0,6.0,-3.0,-11.0,-10.0,3.0
1.6951626976270438e+18,22.0,-13.0,-39.0,15.0,5.0,11.0,7.0,19.0
1.6951626976290437e+18,-41.0,-8.0,-19.0,-12.0,1.0,5.0,-6.0,-84.0
1.6951626976290437e+18,21.0,-9.0,-22.0,-4.0,-3.0,1.0,1.0,45.0
1.6951626976290437e+18,2.0,13.0,-26.0,-6.0,-11.0,-3.0,1.0,4.0
1.6951626976300434e+18,-11.0,29.0,58.0,1.0,3.0,-9.0,-4.0,-9.0
1.6951626976430356e+18,1.0,-22.0,-25.0,14.0,8.0,13.0,7.0,-7.0
1.6951626976430356e+18,-19.0,15.0,32.0,-15.0,-17.0,-15.0,-19.0,-12.0
1.6951626976440366e+18,5.0,-12.0,-14.0,-1.0,20.0,16.0,21.0,7.0
1.6951626976440366e+18,-20.0,-9.0,-33.0,-8.0,-19.0,-12.0,-1.0,-32.0
1.6951626976500344e+18,33.0,22.0,14.0,9.0,10.0,8.0,-4.0,47.0
1.6951626976500344e+18,-4.0,11.0,17.0,4.0,-9.0,-7.0,1.0,-5.0
1.695162697670021e+18,-7.0,-39.0,-29.0,-5.0,-9.0,-2.0,-12.0,2.0
1.6951626976710205e+18,-8.0,-21.0,35.0,-3.0,-8.0,-5.0,5.0,0.0
1.695162697680015e+18,2.0,-4.0,-86.0,5.0,10.0,-3.0,-2.0,-17.0
1.6951626976810138e+18,25.0,13.0,21.0,-16.0,-9.0,2.0,0.0,-2.0
1.6951626976820142e+18,26.0,-11.0,-42.0,7.0,16.0,13.0,10.0,12.0
1.6951626976820142e+18,-11.0,25.0,20.0,-11.0,-9.0,-5.0,-14.0,-19.0
1.6951626976840343e+18,-1.0,12.0,-68.0,-13.0,-4.0,1.0,14.0,4.0
1.695162697685021e+18,0.0,-24.0,17.0,9.0,6.0,-3.0,-10.0,-14.0
1.695162697701025e+18,-25.0,8.0,1.0,0.0,2.0,1.0,1.0,11.0
1.695162697701025e+18,32.0,-11.0,-29.0,-9.0,-9.0,-4.0,3.0,1.0
1.6951626977229893e+18,4.0,12.0,30.0,9.0,5.0,0.0,1.0,0.0
1.6951626977229893e+18,-13.0,-17.0,8.0,6.0,7.0,5.0,4.0,-18.0
1.6951626977309857e+18,-31.0,9.0,-17.0,-4.0,-3.0,-1.0,3.0,13.0
1.6951626977319895e+18,25.0,18.0,70.0,11.0,-4.0,-5.0,4.0,-5.0
1.6951626977329836e+18,-12.0,-15.0,10.0,5.0,11.0,10.0,-7.0,-6.0
1.6951626977329836e+18,-6.0,5.0,-10.0,-3.0,-3.0,0.0,9.0,10.0
1.6951626977389806e+18,-13.0,-18.0,1.0,5.0,-1.0,-7.0,-9.0,11.0
1.6951626977389806e+18,-17.0,41.0,8.0,9.0,4.0,3.0,-3.0,3.0
1.6951626977399803e+18,-6.0,4.0,32.0,-21.0,-16.0,-9.0,5.0,-14.0
1.6951626977399803e+18,-4.0,-12.0,-17.0,14.0,14.0,2.0,-12.0,11.0
1.6951626977799795e+18,-8.0,-16.0,25.0,-3.0,-10.0,-4.0,5.0,-18.0
1.695162697780961e+18,-22.0,-17.0,-18.0,-7.0,2.0,-4.0,0.0,-8.0
1.695162697791954e+18,16.0,15.0,7.0,4.0,-13.0,-10.0,-3.0,18.0
1.695162697791954e+18,0.0,-15.0,-18.0,-3.0,3.0,12.0,8.0,10.0
1.6951626977929495e+18,21.0,39.0,93.0,17.0,7.0,1.0,-5.0,-3.0
1.6951626977929495e+18,-13.0,-21.0,-25.0,-6.0,2.0,-1.0,-12.0,6.0
1.6951626977939492e+18,-4.0,-23.0,-12.0,3.0,-2.0,-4.0,16.0,15.0
1.6951626977939492e+18,-7.0,17.0,1.0,-5.0,-7.0,0.0,-5.0,-44.0
1.6951626977979474e+18,16.0,-12.0,-15.0,-6.0,-3.0,0.0,19.0,-6.0
1.6951626977979474e+18,22.0,4.0,3.0,6.0,2.0,3.0,5.0,63.0
1.695162697835947e+18,38.0,39.0,-42.0,-8.0,5.0,-3.0,-6.0,-9.0
1.6951626978369247e+18,-3.0,-1.0,-12.0,2.0,-2.0,-4.0,-3.0,4.0
1.6951626978369247e+18,-16.0,13.0,-36.0,-16.0,-3.0,-9.0,-31.0,-67.0
1.6951626978369247e+18,31.0,-3.0,26.0,5.0,1.0,13.0,47.0,4.0
1.6951626978529385e+18,-16.0,-10.0,0.0,5.0,1.0,0.0,-6.0,-5.0
1.6951626978529385e+18,-3.0,8.0,-20.0,-2.0,-10.0,-10.0,-14.0,10.0
1.6951626978539172e+18,-3.0,4.0,34.0,-4.0,-1.0,-5.0,-9.0,-19.0
1.6951626978539172e+18,23.0,-17.0,9.0,-5.0,-5.0,-1.0,-6.0,13.0
1.6951626978539172e+18,-18.0,13.0,21.0,2.0,1.0,-1.0,-7.0,-3.0
1.6951626978539172e+18,5.0,-26.0,-2.0,-5.0,1.0,5.0,4.0,-16.0
1.6951626978669074e+18,-12.0,-7.0,-33.0,7.0,9.0,3.0,21.0,12.0
1.6951626978669074e+18,-26.0,0.0,-3.0,1.0,-6.0,-1.0,-29.0,-9.0
1.6951626978679066e+18,-4.0,2.0,15.0,8.0,1.0,4.0,16.0,-2.0
1.6951626978679066e+18,-23.0,-31.0,48.0,3.0,7.0,1.0,7.0,41.0
1.69516269789489e+18,11.0,-24.0,-63.0,-22.0,-8.0,0.0,12.0,1.0
1.69516269789489e+18,-38.0,-2.0,23.0,7.0,-2.0,-8.0,-12.0,-38.0
1.695162697905886e+18,19.0,11.0,4.0,-1.0,1.0,-1.0,-2.0,-26.0
1.695162697905886e+18,1.0,-15.0,-21.0,-3.0,1.0,6.0,21.0,12.0
1.6951626979068854e+18,9.0,22.0,20.0,-7.0,-16.0,-6.0,-9.0,22.0
1.6951626979068854e+18,-1.0,-15.0,-27.0,-4.0,20.0,7.0,10.0,-12.0
1.6951626979228795e+18,-9.0,-9.0,-15.0,-2.0,3.0,3.0,-12.0,23.0
1.6951626979238776e+18,20.0,40.0,-13.0,-3.0,-6.0,-10.0,-5.0,-24.0
1.695162697924876e+18,-5.0,-12.0,-3.0,4.0,-3.0,7.0,8.0,0.0
1.695162697924876e+18,-11.0,25.0,-14.0,-13.0,-15.0,-14.0,-12.0,-12.0
1.695162697924876e+18,-5.0,7.0,14.0,-15.0,-10.0,-4.0,2.0,12.0
1.695162697924876e+18,24.0,8.0,7.0,3.0,8.0,-1.0,-6.0,10.0
1.695162697956855e+18,-7.0,-16.0,28.0,-7.0,-13.0,-6.0,-5.0,1.0
1.695162697957855e+18,-4.0,-2.0,-5.0,4.0,0.0,-5.0,-17.0,-9.0
1.6951626979588544e+18,7.0,-23.0,3.0,10.0,4.0,7.0,12.0,-11.0
1.6951626979588544e+18,-13.0,6.0,-18.0,-3.0,-1.0,-9.0,-18.0,28.0
1.6951626979588544e+18,5.0,-21.0,12.0,8.0,11.0,8.0,-1.0,11.0
1.6951626979598533e+18,17.0,5.0,-3.0,-13.0,-4.0,5.0,21.0,8.0
1.6951626980098253e+18,-31.0,-13.0,-7.0,3.0,-6.0,-6.0,-29.0,-15.0
1.6951626980108234e+18,-5.0,3.0,15.0,5.0,3.0,-1.0,-6.0,-37.0
1.6951626980108234e+18,10.0,7.0,-9.0,3.0,15.0,9.0,15.0,17.0
1.6951626980108234e+18,-11.0,2.0,19.0,2.0,-16.0,-8.0,-1.0,23.0
1.69516269801782e+18,12.0,2.0,3.0,-5.0,0.0,0.0,4.0,1.0
1.6951626980248184e+18,-1.0,10.0,11.0,15.0,8.0,-4.0,-8.0,-2.0
1.6951626980248184e+18,-9.0,-8.0,4.0,-11.0,-12.0,-2.0,0.0,-5.0
1.695162698025819e+18,5.0,-1.0,-22.0,-6.0,0.0,-3.0,-8.0,-13.0
1.695162698025819e+18,0.0,17.0,-19.0,8.0,4.0,2.0,-1.0,-5.0
1.695162698025819e+18,0.0,-11.0,-16.0,-7.0,-11.0,-4.0,-6.0,-1.0
1.695162698030472e+18,3.0,-3.0,12.0,-3.0,2.0,-1.0,3.0,5.0
1.695162698031477e+18,-3.0,-9.0,-9.0,-2.0,-3.0,2.0,3.0,3.0
1.6951626980694738e+18,2.0,7.0,3.0,1.0,-3.0,-1.0,-2.0,-6.0
1.6951626980694738e+18,2.0,-1.0,-4.0,-4.0,-4.0,-7.0,-7.0,-5.0
1.6951626980714488e+18,-1.0,-2.0,-18.0,-1.0,-10.0,-4.0,-3.0,3.0
1.6951626980714488e+18,-3.0,-1.0,4.0,5.0,10.0,8.0,2.0,-2.0
1.695162698072448e+18,-4.0,1.0,-8.0,-14.0,-4.0,-2.0,-4.0,-3.0
1.695162698072448e+18,4.0,-1.0,9.0,17.0,18.0,2.0,-1.0,3.0
1.6951626981134246e+18,0.0,-10.0,-25.0,0.0,9.0,11.0,8.0,3.0
1.695162698114425e+18,-1.0,-1.0,4.0,-6.0,-15.0,-11.0,-8.0,0.0
1.695162698114425e+18,-1.0,3.0,-10.0,-6.0,-4.0,-5.0,-2.0,-2.0
1.695162698114425e+18,-1.0,-7.0,10.0,2.0,-1.0,3.0,1.0,1.0
1.695162698121447e+18,0.0,3.0,10.0,-4.0,-6.0,-2.0,-2.0,-2.0
1.6951626981224192e+18,-1.0,5.0,-13.0,-10.0,-11.0,-9.0,-1.0,0.0
1.6951626981224192e+18,-2.0,-12.0,-18.0,12.0,16.0,9.0,1.0,-2.0
1.6951626981224192e+18,2.0,-1.0,9.0,-3.0,3.0,1.0,-1.0,-4.0
1.6951626981284388e+18,1.0,4.0,23.0,5.0,1.0,-6.0,-2.0,0.0
1.6951626981284388e+18,-1.0,-4.0,7.0,-6.0,-4.0,0.0,-3.0,-1.0
1.695162698129415e+18,0.0,2.0,5.0,6.0,4.0,1.0,0.0,-1.0
1.695162698130416e+18,-2.0,-4.0,1.0,-3.0,-8.0,-6.0,-1.0,1.0
1.6951626981434076e+18,0.0,1.0,-9.0,-10.0,-1.0,0.0,-1.0,-1.0
1.6951626981434076e+18,0.0,-1.0,0.0,7.0,2.0,3.0,-2.0,0.0
1.6951626981454103e+18,-3.0,-1.0,7.0,2.0,-2.0,-6.0,-4.0,-1.0
1.6951626981454103e+18,-3.0,-3.0,-2.0,-7.0,0.0,6.0,1.0,0.0
1.6951626981584005e+18,-1.0,-4.0,-6.0,3.0,-2.0,-2.0,-1.0,-1.0
1.6951626981584005e+18,1.0,0.0,4.0,5.0,1.0,0.0,1.0,0.0
1.6951626981593997e+18,0.0,1.0,-1.0,-11.0,-2.0,1.0,0.0,1.0
1.6951626981593997e+18,-1.0,-5.0,-2.0,0.0,-4.0,-3.0,-2.0,-2.0
1.6951626981803901e+18,-2.0,1.0,-2.0,6.0,-4.0,-1.0,-3.0,-1.0
1.6951626981813865e+18,0.0,0.0,-2.0,-11.0,-2.0,-3.0,0.0,-1.0
1.695162698182385e+18,-1.0,-2.0,6.0,-1.0,-5.0,-2.0,-5.0,-3.0
1.695162698182385e+18,0.0,-3.0,3.0,-5.0,1.0,0.0,1.0,0.0
1.6951626981943841e+18,-1.0,3.0,-13.0,5.0,5.0,2.0,-2.0,-2.0
1.6951626981943841e+18,-3.0,-8.0,-4.0,-9.0,-3.0,-4.0,-1.0,-1.0
1.6951626982103688e+18,0.0,-1.0,1.0,10.0,-1.0,0.0,-1.0,-1.0
1.6951626982113705e+18,2.0,1.0,4.0,-8.0,-6.0,-2.0,-1.0,2.0
1.695162698218364e+18,1.0,1.0,2.0,3.0,-1.0,-5.0,3.0,0.0
1.695162698218364e+18,-3.0,-5.0,-9.0,-1.0,0.0,4.0,-2.0,-2.0
1.6951626982193674e+18,-1.0,0.0,0.0,0.0,1.0,2.0,-1.0,-1.0
1.6951626982193674e+18,0.0,-1.0,-2.0,1.0,1.0,0.0,-1.0,-1.0
1.695162698247349e+18,-2.0,2.0,3.0,-1.0,-2.0,-2.0,-1.0,0.0
1.6951626982483494e+18,0.0,2.0,-7.0,-2.0,0.0,0.0,-1.0,1.0
1.6951626982573417e+18,-1.0,0.0,12.0,10.0,2.0,0.0,-2.0,-2.0
1.6951626982573417e+18,0.0,-1.0,0.0,9.0,2.0,0.0,0.0,0.0
1.6951626982583424e+18,-2.0,0.0,-4.0,-3.0,-2.0,1.0,0.0,-1.0
1.6951626982583424e+18,1.0,0.0,1.0,3.0,1.0,1.0,2.0,0.0
1.6951626982613396e+18,-2.0,0.0,-10.0,-17.0,-2.0,0.0,1.0,0.0
1.69516269826234e+18,3.0,1.0,9.0,14.0,5.0,0.0,-1.0,-2.0
1.6951626982853297e+18,0.0,-2.0,0.0,-5.0,0.0,-1.0,-2.0,-2.0
1.6951626982863268e+18,0.0,-1.0,1.0,4.0,-3.0,-4.0,-1.0,1.0
1.6951626982873252e+18,-2.0,2.0,8.0,7.0,2.0,1.0,-1.0,0.0
1.6951626982873252e+18,-1.0,-2.0,-9.0,-19.0,-2.0,-4.0,1.0,-1.0
1.6951626983083123e+18,-2.0,-1.0,0.0,5.0,0.0,4.0,0.0,-1.0
1.6951626983083123e+18,-1.0,0.0,0.0,0.0,1.0,-2.0,0.0,-1.0
1.6951626983093146e+18,1.0,0.0,-7.0,-4.0,0.0,1.0,-1.0,0.0
1.6951626983093146e+18,-2.0,-6.0,-6.0,-8.0,-6.0,-3.0,-3.0,-2.0
1.6951626983143186e+18,-1.0,-1.0,1.0,2.0,-1.0,-3.0,-3.0,-1.0
1.6951626983143186e+18,-2.0,-1.0,4.0,0.0,-1.0,-2.0,0.0,1.0
1.6951626983472906e+18,2.0,0.0,-4.0,-1.0,-1.0,-3.0,-1.0,-2.0
1.695162698348291e+18,-8.0,0.0,1.0,-2.0,-2.0,1.0,-4.0,-2.0
1.695162698348291e+18,3.0,2.0,-5.0,-3.0,-3.0,-4.0,1.0,-1.0
1.695162698348291e+18,-1.0,-1.0,11.0,11.0,5.0,6.0,2.0,-2.0
1.6951626983612813e+18,-1.0,-2.0,-12.0,-6.0,-1.0,-1.0,0.0,1.0
1.6951626983612813e+18,-6.0,-3.0,10.0,6.0,-3.0,0.0,-1.0,0.0
1.6951626983622825e+18,-1.0,-3.0,-18.0,-20.0,-2.0,-5.0,-6.0,-2.0
1.6951626983622825e+18,10.0,0.0,-1.0,0.0,-2.0,-2.0,-2.0,7.0
1.695162698363282e+18,-1.0,-1.0,8.0,9.0,1.0,0.0,-1.0,1.0
1.6951626983642903e+18,-2.0,1.0,-4.0,2.0,4.0,4.0,2.0,0.0
1.695162698374276e+18,1.0,-2.0,5.0,3.0,-4.0,0.0,-1.0,2.0
1.695162698374276e+18,0.0,-1.0,-7.0,-13.0,-4.0,-1.0,2.0,7.0
1.6951626983832707e+18,-8.0,-2.0,-10.0,-16.0,-1.0,-2.0,-2.0,-13.0
1.6951626983832707e+18,-1.0,-3.0,3.0,9.0,-6.0,-5.0,-3.0,-3.0
1.6951626983982605e+18,-2.0,2.0,4.0,13.0,1.0,1.0,2.0,3.0
1.6951626983982605e+18,-3.0,0.0,-2.0,-7.0,1.0,1.0,0.0,-2.0
1.6951626983992617e+18,1.0,-1.0,-2.0,1.0,-3.0,-1.0,-1.0,2.0
1.6951626983992617e+18,0.0,1.0,4.0,-1.0,-2.0,-6.0,-1.0,0.0
1.695162698420248e+18,-3.0,-1.0,-6.0,-3.0,2.0,4.0,1.0,-2.0
1.6951626984212488e+18,-2.0,1.0,3.0,5.0,0.0,3.0,-4.0,-6.0
1.6951626984222497e+18,0.0,-1.0,5.0,-6.0,0.0,-1.0,-1.0,1.0
1.6951626984222497e+18,3.0,1.0,-5.0,-3.0,-5.0,-2.0,1.0,1.0
1.6951626984342423e+18,-2.0,-1.0,1.0,6.0,7.0,-1.0,0.0,-2.0
1.6951626984342423e+18,2.0,-1.0,3.0,-1.0,0.0,0.0,-2.0,-1.0
1.6951626984432353e+18,3.0,0.0,-4.0,3.0,-3.0,0.0,0.0,0.0
1.6951626984432353e+18,-1.0,-1.0,-6.0,-1.0,2.0,-1.0,-3.0,-2.0
1.6951626984582264e+18,-1.0,-1.0,0.0,-11.0,-5.0,-7.0,-2.0,0.0
1.6951626984582264e+18,-4.0,-1.0,1.0,4.0,-2.0,-3.0,-1.0,-4.0
1.6951626984592284e+18,-1.0,-3.0,-3.0,-9.0,0.0,-1.0,-1.0,0.0
1.6951626984592284e+18,2.0,0.0,0.0,3.0,-2.0,1.0,-1.0,1.0
1.6951626984812145e+18,0.0,2.0,4.0,9.0,3.0,3.0,-1.0,0.0
1.6951626984812145e+18,-3.0,-2.0,-11.0,-10.0,-3.0,-2.0,-1.0,-3.0
1.6951626984822154e+18,0.0,0.0,3.0,5.0,-1.0,0.0,0.0,1.0
1.6951626984822154e+18,-1.0,-1.0,-3.0,-6.0,-1.0,1.0,-1.0,-3.0
1.6951626984942298e+18,-1.0,-2.0,3.0,3.0,3.0,0.0,-1.0,-1.0
1.6951626984942298e+18,-2.0,-1.0,4.0,4.0,-3.0,-2.0,-2.0,-3.0
1.6951626985032028e+18,0.0,-1.0,-9.0,-11.0,-2.0,0.0,0.0,-1.0
1.6951626985032028e+18,1.0,0.0,0.0,1.0,3.0,3.0,2.0,-1.0
1.6951626985334438e+18,-2.0,-3.0,-9.0,-7.0,-4.0,-2.0,-1.0,-1.0
1.6951626985334438e+18,-1.0,-1.0,3.0,-2.0,-3.0,-3.0,-2.0,-1.0
1.6951626985344453e+18,-2.0,-2.0,5.0,11.0,1.0,-2.0,-2.0,-2.0
1.6951626985344453e+18,0.0,-1.0,-2.0,-2.0,4.0,1.0,0.0,0.0
1.6951626985484342e+18,1.0,-1.0,0.0,-3.0,-1.0,-4.0,-1.0,-2.0
1.6951626985484342e+18,-1.0,-1.0,0.0,-1.0,0.0,1.0,-1.0,-1.0
1.69516269854944e+18,0.0,-1.0,-4.0,1.0,-1.0,1.0,-2.0,1.0
1.69516269854944e+18,0.0,0.0,2.0,-1.0,-2.0,-5.0,-1.0,0.0
