timestamp,EMG_s0,EMG_s1,EMG_s2,EMG_s3,EMG_s4,EMG_s5,EMG_s6,EMG_s7
1.695162469377836e+18,-1.0,-1.0,-1.0,0.0,-2.0,-1.0,0.0,0.0
1.6951624693818294e+18,0.0,1.0,0.0,1.0,1.0,0.0,0.0,-1.0
1.6951624693818294e+18,-1.0,0.0,-2.0,0.0,1.0,1.0,-1.0,-1.0
1.6951624693818294e+18,-1.0,-2.0,3.0,-5.0,-3.0,-1.0,-1.0,0.0
1.6951624693878254e+18,0.0,-1.0,-3.0,0.0,-1.0,1.0,0.0,-1.0
1.6951624693878254e+18,-1.0,-3.0,-5.0,2.0,1.0,2.0,0.0,0.0
1.6951624693888253e+18,0.0,-1.0,2.0,2.0,-3.0,-2.0,-1.0,0.0
1.6951624693888253e+18,0.0,-1.0,-4.0,2.0,-7.0,-2.0,-2.0,-1.0
1.6951624693898245e+18,0.0,5.0,8.0,-10.0,-4.0,-3.0,-1.0,1.0
1.6951624693898245e+18,1.0,0.0,2.0,8.0,-2.0,1.0,-1.0,-1.0
1.6951624693958208e+18,-7.0,-19.0,-38.0,-1.0,16.0,-3.0,-2.0,-3.0
1.6951624693958208e+18,-1.0,-1.0,3.0,0.0,7.0,7.0,-1.0,-1.0
1.6951624694018194e+18,-1.0,-1.0,0.0,-8.0,-13.0,-6.0,-3.0,0.0
1.6951624694018194e+18,0.0,10.0,19.0,1.0,-14.0,-3.0,0.0,1.0
1.695162469439819e+18,-1.0,1.0,0.0,-10.0,-10.0,-1.0,0.0,-1.0
1.6951624694407985e+18,0.0,-7.0,-16.0,3.0,4.0,1.0,-2.0,-2.0
1.6951624694417994e+18,-1.0,-1.0,-11.0,9.0,5.0,-15.0,1.0,-1.0
1.6951624694417994e+18,0.0,-1.0,3.0,6.0,29.0,19.0,2.0,-1.0
1.695162469442819e+18,0.0,2.0,4.0,-5.0,-5.0,5.0,-1.0,0.0
1.695162469442819e+18,0.0,2.0,3.0,5.0,-8.0,-9.0,-2.0,1.0
1.6951624694497902e+18,0.0,-3.0,-2.0,-16.0,-11.0,-5.0,-5.0,-2.0
1.6951624694497902e+18,-2.0,-3.0,-7.0,-2.0,-16.0,-19.0,-4.0,-1.0
1.6951624694627848e+18,-1.0,1.0,8.0,8.0,18.0,24.0,1.0,-1.0
1.6951624694637824e+18,1.0,2.0,-1.0,-9.0,-2.0,5.0,5.0,-1.0
1.6951624694658043e+18,-1.0,-6.0,1.0,14.0,2.0,-5.0,-1.0,-2.0
1.6951624694658043e+18,-2.0,-2.0,-2.0,0.0,-1.0,-7.0,-4.0,-3.0
1.6951624694857713e+18,1.0,2.0,-1.0,0.0,-2.0,-2.0,-4.0,-2.0
1.6951624694857713e+18,-3.0,-2.0,3.0,-6.0,-18.0,-13.0,-2.0,-3.0
1.6951624694887867e+18,-3.0,-1.0,2.0,4.0,0.0,1.0,-1.0,-2.0
1.6951624694887867e+18,-3.0,-5.0,-13.0,-3.0,0.0,11.0,2.0,0.0
1.6951624694997617e+18,-1.0,0.0,9.0,-1.0,2.0,-11.0,-3.0,-1.0
1.6951624695007613e+18,-1.0,-1.0,2.0,-13.0,-5.0,-2.0,0.0,-2.0
1.6951624695157752e+18,-3.0,-3.0,-4.0,5.0,1.0,-11.0,-1.0,-1.0
1.6951624695157752e+18,0.0,-3.0,2.0,-8.0,-4.0,28.0,1.0,-2.0
1.695162469546734e+18,0.0,0.0,1.0,-4.0,3.0,-11.0,-1.0,1.0
1.6951624695477366e+18,-2.0,-1.0,-1.0,7.0,-4.0,-10.0,-3.0,0.0
1.6951624695477366e+18,-1.0,-3.0,-2.0,-1.0,-17.0,-13.0,-5.0,-2.0
1.6951624695477366e+18,-3.0,-3.0,-4.0,1.0,10.0,7.0,0.0,-2.0
1.6951624695507318e+18,-1.0,-1.0,0.0,2.0,-18.0,-9.0,-5.0,-3.0
1.6951624695517338e+18,0.0,-3.0,-5.0,-14.0,-3.0,-5.0,-1.0,-1.0
1.6951624695517338e+18,-3.0,-1.0,-1.0,0.0,10.0,13.0,3.0,0.0
1.6951624695517338e+18,2.0,1.0,1.0,7.0,4.0,5.0,3.0,0.0
1.69516246955873e+18,-1.0,-1.0,-6.0,7.0,13.0,9.0,0.0,-2.0
1.69516246955873e+18,-3.0,-2.0,1.0,-11.0,-18.0,-16.0,-4.0,-3.0
1.695162469574719e+18,-1.0,-1.0,-8.0,-13.0,-28.0,-10.0,-4.0,-5.0
1.6951624695847127e+18,1.0,-2.0,6.0,-2.0,19.0,-2.0,-1.0,-3.0
1.6951624695847127e+18,-1.0,-1.0,-3.0,2.0,12.0,12.0,1.0,0.0
1.6951624695847127e+18,0.0,0.0,3.0,17.0,2.0,4.0,2.0,2.0
1.6951624695877115e+18,-1.0,-1.0,1.0,1.0,13.0,4.0,1.0,-1.0
1.6951624695887104e+18,-2.0,1.0,-1.0,0.0,-10.0,-7.0,-3.0,-3.0
1.6951624695967053e+18,0.0,0.0,-10.0,8.0,7.0,-1.0,-2.0,0.0
1.6951624695967053e+18,-2.0,-1.0,0.0,-6.0,9.0,-5.0,-2.0,0.0
1.6951624696106982e+18,0.0,-3.0,-3.0,4.0,8.0,2.0,5.0,4.0
1.6951624696106982e+18,-1.0,4.0,1.0,-20.0,-21.0,6.0,0.0,-1.0
1.6951624696307103e+18,-2.0,0.0,5.0,-1.0,4.0,-7.0,-4.0,0.0
1.6951624696307103e+18,-1.0,2.0,1.0,-14.0,-24.0,-7.0,-3.0,-2.0
1.695162469633685e+18,1.0,2.0,1.0,21.0,7.0,-18.0,0.0,-1.0
1.6951624696346844e+18,2.0,0.0,1.0,1.0,10.0,25.0,0.0,1.0
1.6951624696346844e+18,2.0,1.0,1.0,-9.0,-7.0,0.0,3.0,1.0
1.6951624696346844e+18,3.0,0.0,0.0,11.0,15.0,10.0,5.0,2.0
1.6951624696556736e+18,3.0,4.0,7.0,0.0,-24.0,-9.0,-5.0,-2.0
1.6951624696566712e+18,-5.0,-6.0,-5.0,6.0,14.0,-10.0,-1.0,1.0
1.6951624696566712e+18,-1.0,-5.0,4.0,-20.0,-14.0,5.0,1.0,-1.0
1.6951624696576722e+18,0.0,0.0,-7.0,3.0,13.0,7.0,1.0,1.0
1.6951624696746632e+18,-1.0,1.0,1.0,21.0,-14.0,-12.0,-14.0,-5.0
1.69516246967867e+18,0.0,4.0,7.0,18.0,27.0,0.0,4.0,2.0
1.6951624696806756e+18,-3.0,-6.0,-15.0,-10.0,-17.0,-3.0,-8.0,-4.0
1.6951624696806756e+18,-2.0,0.0,10.0,-2.0,4.0,-6.0,-2.0,-3.0
1.6951624696936494e+18,0.0,-4.0,-18.0,-44.0,-22.0,3.0,-5.0,-1.0
1.6951624696936494e+18,-6.0,-2.0,4.0,4.0,-8.0,-17.0,-30.0,-10.0
1.6951624696946493e+18,1.0,8.0,13.0,6.0,16.0,12.0,39.0,12.0
1.6951624696946493e+18,6.0,4.0,1.0,6.0,-13.0,11.0,15.0,1.0
1.6951624697166372e+18,-5.0,-10.0,10.0,19.0,32.0,11.0,18.0,-8.0
1.6951624697166372e+18,-7.0,-7.0,-18.0,-21.0,-27.0,-6.0,-13.0,-4.0
1.6951624697166372e+18,-5.0,-3.0,12.0,0.0,5.0,7.0,1.0,9.0
1.695162469717637e+18,8.0,9.0,8.0,-11.0,-12.0,-4.0,-16.0,22.0
1.695162469730631e+18,12.0,4.0,-56.0,-8.0,17.0,2.0,1.0,20.0
1.695162469730631e+18,-7.0,4.0,24.0,-10.0,-32.0,-19.0,8.0,17.0
1.695162469738624e+18,-2.0,0.0,-1.0,8.0,6.0,-1.0,-13.0,-65.0
1.695162469738624e+18,-11.0,5.0,-3.0,9.0,17.0,9.0,4.0,6.0
1.6951624697616125e+18,-4.0,-10.0,2.0,-1.0,-14.0,-1.0,17.0,-15.0
1.6951624697626135e+18,10.0,-4.0,-12.0,-4.0,-2.0,-7.0,-19.0,27.0
1.6951624697626135e+18,-1.0,3.0,3.0,11.0,11.0,-11.0,-31.0,-2.0
1.6951624697626135e+18,1.0,-6.0,30.0,0.0,4.0,1.0,1.0,-3.0
1.6951624697766042e+18,12.0,20.0,2.0,12.0,-1.0,11.0,12.0,-4.0
1.6951624697776044e+18,-2.0,-17.0,10.0,-4.0,-9.0,2.0,12.0,-3.0
1.6951624697776044e+18,-5.0,-7.0,17.0,-5.0,-11.0,-6.0,-2.0,9.0
1.6951624697776044e+18,1.0,-6.0,-57.0,3.0,11.0,7.0,1.0,-22.0
1.695162469800596e+18,-7.0,-12.0,21.0,-4.0,7.0,0.0,-7.0,18.0
1.69516246980159e+18,9.0,22.0,-21.0,-4.0,-2.0,-2.0,-2.0,9.0
1.69516246980159e+18,-7.0,-11.0,-1.0,-1.0,-7.0,-5.0,-11.0,-57.0
1.695162469802589e+18,-4.0,-8.0,16.0,-4.0,-4.0,3.0,11.0,25.0
1.6951624698135841e+18,-8.0,14.0,-9.0,-13.0,7.0,6.0,1.0,2.0
1.6951624698135841e+18,6.0,-17.0,-9.0,3.0,-5.0,-6.0,4.0,1.0
1.6951624698145815e+18,-5.0,-9.0,-1.0,4.0,4.0,2.0,5.0,2.0
1.6951624698145815e+18,4.0,6.0,1.0,-4.0,-8.0,-4.0,-3.0,-15.0
1.6951624698365683e+18,-6.0,3.0,1.0,-2.0,4.0,-1.0,-1.0,2.0
1.6951624698365683e+18,11.0,9.0,32.0,6.0,4.0,1.0,4.0,-2.0
1.6951624698365683e+18,-8.0,32.0,14.0,3.0,-4.0,-2.0,5.0,19.0
1.6951624698375672e+18,0.0,-37.0,-23.0,-11.0,-3.0,-1.0,-9.0,4.0
1.6951624698595794e+18,-13.0,8.0,11.0,6.0,0.0,-5.0,-15.0,-8.0
1.6951624698595794e+18,-5.0,-16.0,5.0,-13.0,-3.0,8.0,8.0,-24.0
1.6951624698595794e+18,4.0,-8.0,-48.0,3.0,-2.0,-2.0,12.0,37.0
1.6951624698605568e+18,8.0,22.0,37.0,7.0,4.0,-7.0,-12.0,-13.0
1.6951624698735488e+18,8.0,0.0,0.0,1.0,1.0,-2.0,-15.0,-18.0
1.6951624698735488e+18,-13.0,10.0,-6.0,-3.0,2.0,2.0,10.0,-7.0
1.6951624698745482e+18,-11.0,-15.0,3.0,-7.0,-8.0,-1.0,3.0,5.0
1.6951624698745482e+18,-6.0,-4.0,15.0,-4.0,-9.0,-4.0,-1.0,-13.0
1.695162469907529e+18,11.0,15.0,3.0,6.0,15.0,6.0,5.0,-8.0
1.6951624699115497e+18,2.0,-26.0,-9.0,4.0,0.0,-3.0,-15.0,0.0
1.6951624699115497e+18,4.0,2.0,-31.0,-8.0,-10.0,-6.0,-2.0,8.0
1.6951624699115497e+18,-18.0,6.0,-9.0,7.0,1.0,-4.0,-14.0,6.0
1.6951624699265162e+18,0.0,-14.0,5.0,-32.0,-22.0,-5.0,5.0,5.0
1.695162469927521e+18,-14.0,18.0,12.0,7.0,-3.0,6.0,5.0,-12.0
1.695162469927521e+18,8.0,-1.0,12.0,12.0,10.0,3.0,-8.0,-7.0
1.695162469927521e+18,-11.0,0.0,26.0,-15.0,-6.0,-1.0,11.0,-17.0
1.6951624699325128e+18,0.0,-18.0,26.0,-2.0,-24.0,-16.0,-5.0,14.0
1.695162469933513e+18,5.0,2.0,-27.0,1.0,25.0,16.0,7.0,6.0
1.695162469941509e+18,2.0,-4.0,25.0,-1.0,-2.0,1.0,1.0,-3.0
1.695162469941509e+18,-2.0,16.0,-4.0,-5.0,4.0,7.0,11.0,12.0
1.6951624699615204e+18,0.0,-31.0,-18.0,0.0,-17.0,-15.0,-24.0,-48.0
1.6951624699615204e+18,-7.0,4.0,38.0,-4.0,-8.0,-10.0,-3.0,40.0
1.6951624699615204e+18,10.0,13.0,-9.0,0.0,2.0,3.0,4.0,-6.0
1.6951624699615204e+18,11.0,-6.0,-14.0,7.0,-1.0,-4.0,-12.0,14.0
1.695162469978491e+18,-3.0,-5.0,6.0,4.0,15.0,10.0,16.0,19.0
1.695162469978491e+18,3.0,26.0,36.0,-8.0,-10.0,-8.0,-9.0,-12.0
1.6951624699794867e+18,3.0,-1.0,-19.0,-5.0,-1.0,3.0,13.0,-3.0
1.6951624699794867e+18,1.0,-19.0,-18.0,-3.0,-13.0,-8.0,-12.0,-1.0
1.6951624699944812e+18,-1.0,2.0,-24.0,-7.0,6.0,3.0,2.0,8.0
1.6951624699944812e+18,-2.0,16.0,49.0,31.0,16.0,1.0,3.0,-17.0
1.6951624700084713e+18,0.0,-17.0,-50.0,-11.0,-8.0,-6.0,2.0,13.0
1.6951624700084713e+18,0.0,5.0,-5.0,-6.0,-14.0,-4.0,-6.0,-9.0
1.6951624700184658e+18,-4.0,2.0,60.0,0.0,-6.0,-3.0,-6.0,4.0
1.6951624700184658e+18,4.0,-12.0,-54.0,27.0,49.0,29.0,9.0,1.0
1.695162470019465e+18,0.0,18.0,24.0,-10.0,-7.0,-8.0,-5.0,0.0
1.695162470019465e+18,-2.0,-19.0,0.0,10.0,4.0,-1.0,1.0,-12.0
1.6951624700384535e+18,-3.0,19.0,-36.0,-2.0,-4.0,2.0,0.0,1.0
1.6951624700384535e+18,-5.0,-8.0,4.0,-2.0,-15.0,-8.0,11.0,-9.0
1.6951624700394537e+18,2.0,-10.0,41.0,-8.0,-9.0,-6.0,-26.0,8.0
1.6951624700394537e+18,-15.0,19.0,5.0,4.0,16.0,7.0,9.0,-7.0
1.6951624700544435e+18,10.0,9.0,13.0,1.0,2.0,3.0,7.0,3.0
1.6951624700544435e+18,1.0,-9.0,-18.0,-15.0,-13.0,-12.0,-14.0,7.0
1.6951624700604398e+18,1.0,2.0,-27.0,12.0,5.0,0.0,0.0,9.0
1.695162470061441e+18,15.0,8.0,52.0,-1.0,-6.0,-2.0,2.0,0.0
1.6951624700934218e+18,-10.0,-2.0,16.0,8.0,10.0,7.0,4.0,-2.0
1.6951624700934218e+18,-5.0,-23.0,-40.0,-2.0,-6.0,2.0,12.0,-14.0
1.6951624700944207e+18,1.0,-5.0,-34.0,-8.0,-5.0,-5.0,-15.0,4.0
1.6951624700944207e+18,11.0,-4.0,-21.0,-3.0,2.0,1.0,-3.0,1.0
1.6951624701064133e+18,-12.0,1.0,-30.0,0.0,8.0,3.0,2.0,0.0
1.6951624701074135e+18,-1.0,-21.0,-8.0,-8.0,-13.0,-5.0,-5.0,-5.0
1.6951624701074135e+18,-8.0,7.0,20.0,0.0,-5.0,-5.0,0.0,-7.0
1.6951624701074135e+18,-1.0,3.0,-8.0,-13.0,-9.0,-3.0,10.0,-1.0
1.6951624701124099e+18,5.0,-1.0,-18.0,21.0,40.0,15.0,-15.0,10.0
1.6951624701134108e+18,-9.0,1.0,-60.0,-14.0,-4.0,-4.0,-4.0,-12.0
1.6951624701284022e+18,2.0,8.0,58.0,-1.0,-8.0,0.0,3.0,0.0
1.6951624701284022e+18,-8.0,-3.0,-18.0,9.0,4.0,1.0,11.0,-5.0
1.6951624701523886e+18,-5.0,-2.0,6.0,-22.0,-17.0,-16.0,-15.0,-6.0
1.6951624701533875e+18,5.0,-23.0,14.0,8.0,1.0,3.0,-6.0,6.0
1.6951624701853706e+18,-6.0,1.0,-24.0,5.0,4.0,3.0,7.0,-3.0
1.6951624701863698e+18,-3.0,-2.0,-8.0,-3.0,-1.0,-1.0,-5.0,-11.0
1.6951624701863698e+18,2.0,12.0,3.0,-8.0,-17.0,-9.0,1.0,-12.0
1.6951624701863698e+18,0.0,2.0,9.0,3.0,0.0,-1.0,3.0,27.0
1.6951624701863698e+18,11.0,-11.0,37.0,-1.0,2.0,3.0,5.0,12.0
1.6951624701863698e+18,-6.0,-6.0,19.0,4.0,-2.0,-2.0,2.0,23.0
1.6951624702123548e+18,-1.0,-15.0,-7.0,1.0,4.0,2.0,-7.0,-16.0
1.6951624702133594e+18,0.0,17.0,-41.0,-10.0,-9.0,-5.0,0.0,-9.0
1.6951624702143547e+18,-5.0,-16.0,-22.0,5.0,3.0,3.0,10.0,-2.0
1.6951624702143547e+18,10.0,17.0,-2.0,-24.0,-14.0,-14.0,-23.0,10.0
1.6951624702143547e+18,6.0,1.0,-13.0,0.0,7.0,-9.0,-23.0,5.0
1.6951624702153546e+18,-4.0,-19.0,-17.0,3.0,-2.0,9.0,26.0,-7.0
1.6951624702273452e+18,7.0,5.0,-5.0,-9.0,-15.0,-13.0,6.0,11.0
1.6951624702273452e+18,-2.0,7.0,-1.0,30.0,41.0,26.0,12.0,-12.0
1.6951624702273452e+18,-2.0,4.0,-22.0,-21.0,-36.0,-16.0,-8.0,-8.0
1.6951624702283446e+18,0.0,-23.0,8.0,13.0,25.0,1.0,-8.0,-3.0
1.695162470246334e+18,-5.0,1.0,4.0,1.0,-10.0,-2.0,1.0,2.0
1.6951624702473347e+18,2.0,9.0,20.0,-1.0,-11.0,-17.0,-10.0,-3.0
1.6951624702473347e+18,-3.0,4.0,-17.0,5.0,24.0,13.0,13.0,-6.0
1.6951624702473347e+18,0.0,16.0,-28.0,-17.0,-32.0,-9.0,-9.0,-2.0
1.695162470272319e+18,5.0,-13.0,100.0,10.0,18.0,6.0,0.0,4.0
1.695162470272319e+18,12.0,1.0,-22.0,2.0,15.0,-9.0,-30.0,0.0
1.695162470272319e+18,-3.0,-1.0,16.0,11.0,12.0,26.0,45.0,19.0
1.695162470272319e+18,-7.0,6.0,-47.0,-39.0,-34.0,-15.0,-6.0,-5.0
1.695162470278316e+18,-5.0,-6.0,-21.0,15.0,11.0,2.0,-7.0,-1.0
1.6951624702793157e+18,-17.0,14.0,62.0,-29.0,-35.0,-22.0,-4.0,-27.0
1.6951624702793157e+18,-1.0,-3.0,-22.0,13.0,23.0,7.0,-11.0,-21.0
1.6951624702793157e+18,15.0,18.0,22.0,-3.0,4.0,-1.0,-1.0,18.0
1.6951624703093053e+18,-8.0,-13.0,-21.0,8.0,0.0,1.0,0.0,-16.0
1.695162470310298e+18,-3.0,-32.0,-8.0,10.0,18.0,11.0,17.0,8.0
1.695162470310298e+18,-3.0,3.0,-46.0,-28.0,-28.0,-10.0,-4.0,-5.0
1.695162470310298e+18,-2.0,6.0,52.0,18.0,1.0,-3.0,0.0,-11.0
1.6951624703232904e+18,7.0,-19.0,-46.0,4.0,17.0,5.0,1.0,14.0
1.6951624703232904e+18,2.0,11.0,31.0,-10.0,-30.0,-11.0,-1.0,-2.0
1.695162470331285e+18,-1.0,-6.0,35.0,7.0,12.0,5.0,-2.0,4.0
1.695162470331285e+18,-1.0,-15.0,-21.0,3.0,15.0,4.0,2.0,11.0
1.6951624703482762e+18,0.0,4.0,-5.0,-15.0,-8.0,0.0,-4.0,-24.0
1.6951624703522742e+18,10.0,8.0,-11.0,18.0,9.0,8.0,8.0,-5.0
1.695162470356273e+18,-18.0,7.0,-8.0,-7.0,-15.0,-12.0,-8.0,-9.0
1.695162470356273e+18,6.0,6.0,2.0,-7.0,4.0,-1.0,-7.0,4.0
1.695162470356273e+18,-3.0,6.0,1.0,-9.0,-15.0,0.0,0.0,-21.0
1.695162470356273e+18,2.0,-21.0,1.0,-1.0,1.0,8.0,14.0,38.0
1.695162470368264e+18,-1.0,-4.0,9.0,-6.0,-10.0,-12.0,-11.0,-22.0
1.6951624703692654e+18,-4.0,-1.0,2.0,-4.0,-2.0,1.0,2.0,1.0
1.6951624703842632e+18,-4.0,-1.0,-17.0,-8.0,-5.0,-6.0,5.0,-1.0
1.6951624703842632e+18,-4.0,13.0,22.0,6.0,9.0,6.0,-7.0,-13.0
1.6951624703852572e+18,5.0,-17.0,-29.0,3.0,-1.0,1.0,1.0,15.0
1.6951624703852572e+18,4.0,-16.0,13.0,0.0,2.0,4.0,3.0,-2.0
1.6951624704072422e+18,1.0,10.0,-17.0,-7.0,-6.0,-1.0,0.0,8.0
1.6951624704072422e+18,-9.0,5.0,4.0,-13.0,-20.0,-12.0,7.0,-1.0
1.6951624704072422e+18,7.0,-4.0,-7.0,22.0,21.0,8.0,-6.0,4.0
1.6951624704072422e+18,4.0,-1.0,-8.0,4.0,9.0,3.0,0.0,-6.0
1.6951624704222328e+18,0.0,-4.0,9.0,2.0,6.0,3.0,2.0,14.0
1.6951624704222328e+18,-2.0,-4.0,8.0,-14.0,-21.0,-6.0,7.0,-3.0
1.6951624704222328e+18,3.0,10.0,3.0,2.0,-8.0,-6.0,-11.0,-3.0
1.6951624704232328e+18,-1.0,0.0,-20.0,5.0,8.0,4.0,-2.0,-19.0
1.6951624704412234e+18,-13.0,-6.0,8.0,-5.0,-8.0,-5.0,-8.0,11.0
1.6951624704412234e+18,-9.0,14.0,-38.0,2.0,0.0,-1.0,-2.0,-14.0
1.6951624704412234e+18,7.0,-2.0,-1.0,0.0,15.0,4.0,6.0,3.0
1.6951624704412234e+18,1.0,5.0,20.0,4.0,-5.0,-3.0,-3.0,8.0
1.6951624704582157e+18,6.0,13.0,6.0,0.0,0.0,-1.0,0.0,12.0
1.6951624704592123e+18,-4.0,3.0,-12.0,-1.0,3.0,3.0,0.0,-5.0
1.6951624704592123e+18,-1.0,-12.0,3.0,-4.0,-3.0,-4.0,-3.0,-23.0
1.6951624704592123e+18,3.0,-6.0,-3.0,4.0,-3.0,-3.0,6.0,19.0
1.6951624704742052e+18,1.0,15.0,2.0,-1.0,-2.0,-3.0,-8.0,-2.0
1.6951624704782019e+18,4.0,0.0,-12.0,-3.0,4.0,2.0,-1.0,2.0
1.6951624704812006e+18,1.0,-9.0,6.0,-2.0,-5.0,-3.0,1.0,5.0
1.6951624704812006e+18,-5.0,9.0,7.0,-1.0,1.0,-3.0,-1.0,-13.0
1.6951624704961907e+18,3.0,2.0,15.0,-7.0,-11.0,-1.0,-1.0,0.0
1.6951624704961907e+18,-3.0,-13.0,-4.0,4.0,6.0,1.0,-2.0,-8.0
1.6951624704971901e+18,2.0,4.0,11.0,0.0,7.0,1.0,0.0,10.0
1.6951624704971901e+18,2.0,8.0,1.0,-6.0,-8.0,-2.0,2.0,14.0
1.695162470518178e+18,-1.0,-14.0,-11.0,8.0,11.0,1.0,0.0,3.0
1.695162470518178e+18,2.0,7.0,12.0,-1.0,-9.0,-2.0,-4.0,-1.0
1.6951624705591547e+18,-2.0,-4.0,-1.0,-10.0,-8.0,-3.0,3.0,-4.0
1.6951624705591547e+18,-4.0,9.0,-7.0,1.0,6.0,1.0,3.0,26.0
1.6951624705601564e+18,-2.0,-14.0,0.0,-4.0,-9.0,-3.0,-2.0,-21.0
1.6951624705601564e+18,3.0,1.0,-8.0,-1.0,5.0,0.0,0.0,16.0
1.6951624705641513e+18,-2.0,-9.0,-1.0,1.0,-1.0,-3.0,0.0,-5.0
1.6951624705641513e+18,-1.0,3.0,13.0,4.0,-2.0,-3.0,-3.0,-5.0
1.6951624705651515e+18,0.0,4.0,-27.0,-2.0,-1.0,-2.0,-3.0,7.0
1.6951624705651515e+18,-4.0,-11.0,-6.0,1.0,4.0,0.0,-2.0,-12.0
1.6951624705721475e+18,1.0,-3.0,-7.0,-1.0,-3.0,-1.0,-2.0,10.0
1.6951624705721475e+18,0.0,1.0,1.0,-7.0,-6.0,-3.0,-5.0,-9.0
1.6951624705941358e+18,2.0,5.0,16.0,3.0,0.0,1.0,2.0,-1.0
1.6951624705951393e+18,-2.0,-5.0,-3.0,1.0,4.0,2.0,1.0,-8.0
1.695162470596135e+18,1.0,6.0,44.0,-2.0,-7.0,-2.0,-1.0,16.0
1.695162470596135e+18,-2.0,-20.0,-79.0,-9.0,3.0,3.0,-4.0,-12.0
1.6951624706091492e+18,-4.0,4.0,21.0,3.0,3.0,-1.0,3.0,21.0
1.695162470610126e+18,0.0,-4.0,-5.0,1.0,-2.0,0.0,-7.0,-5.0
1.6951624706111296e+18,2.0,3.0,2.0,-1.0,-2.0,-2.0,0.0,-3.0
1.6951624706111296e+18,2.0,-4.0,1.0,1.0,1.0,1.0,-3.0,-10.0
1.6951624706241408e+18,-9.0,2.0,-12.0,-1.0,-2.0,-2.0,0.0,5.0
1.6951624706241408e+18,5.0,-3.0,3.0,-2.0,-3.0,-1.0,3.0,0.0
1.6951624706261174e+18,-16.0,-4.0,-4.0,-1.0,1.0,2.0,-2.0,-35.0
1.6951624706261174e+18,21.0,-1.0,7.0,-2.0,-2.0,-2.0,0.0,46.0
1.6951624706580992e+18,8.0,16.0,12.0,-2.0,-5.0,-3.0,-1.0,0.0
1.6951624706580992e+18,1.0,-4.0,8.0,0.0,2.0,1.0,1.0,-12.0
1.6951624706580992e+18,5.0,14.0,3.0,2.0,-1.0,0.0,-2.0,2.0
1.6951624706580992e+18,-14.0,-4.0,15.0,0.0,-4.0,-2.0,-4.0,-16.0
1.6951624706710917e+18,-8.0,-21.0,-5.0,3.0,2.0,-1.0,-3.0,-12.0
1.6951624706720904e+18,0.0,5.0,0.0,2.0,-2.0,-2.0,-1.0,8.0
1.6951624706720904e+18,-5.0,-4.0,-9.0,-7.0,-4.0,-1.0,-1.0,6.0
1.6951624706720904e+18,-2.0,5.0,-3.0,-2.0,-3.0,-1.0,-3.0,-12.0
1.6951624706920799e+18,4.0,2.0,28.0,-3.0,-3.0,-1.0,1.0,4.0
1.6951624706920799e+18,-5.0,-7.0,-12.0,-1.0,-2.0,-2.0,-1.0,-3.0
1.6951624706920799e+18,2.0,-4.0,-46.0,-4.0,0.0,0.0,0.0,4.0
1.6951624706930785e+18,-1.0,-1.0,19.0,1.0,-1.0,-1.0,0.0,-8.0
1.6951624706980746e+18,0.0,0.0,-4.0,-1.0,-1.0,-2.0,-1.0,-5.0
1.6951624706980746e+18,-2.0,-1.0,-11.0,0.0,-1.0,-2.0,0.0,6.0
1.6951624707230615e+18,0.0,-5.0,20.0,0.0,-2.0,-1.0,1.0,3.0
1.6951624707230615e+18,-2.0,0.0,-4.0,-4.0,3.0,1.0,-1.0,-2.0
1.6951624707230615e+18,-4.0,-2.0,-13.0,0.0,3.0,3.0,-1.0,-2.0
1.6951624707240607e+18,-1.0,3.0,10.0,-1.0,-3.0,-2.0,-3.0,-1.0
1.695162470737053e+18,0.0,-5.0,-12.0,-7.0,-2.0,-2.0,-2.0,6.0
1.695162470737053e+18,-6.0,-2.0,10.0,9.0,2.0,-2.0,-1.0,-10.0
1.695162470760039e+18,2.0,2.0,3.0,-3.0,1.0,0.0,0.0,-1.0
1.695162470760039e+18,-2.0,1.0,-2.0,-1.0,-2.0,-3.0,-1.0,2.0
1.695162470761039e+18,1.0,1.0,-10.0,0.0,-1.0,1.0,1.0,0.0
1.69516247076204e+18,-4.0,-5.0,22.0,8.0,4.0,3.0,1.0,-4.0
1.69516247076204e+18,1.0,5.0,-6.0,-5.0,-5.0,-2.0,0.0,-1.0
1.69516247076204e+18,-1.0,-7.0,1.0,-10.0,0.0,2.0,1.0,1.0
1.6951624707970176e+18,0.0,1.0,-5.0,7.0,2.0,-2.0,-1.0,0.0
1.6951624707980183e+18,-2.0,-1.0,-4.0,-5.0,-4.0,-1.0,-2.0,-3.0
1.6951624707980183e+18,-1.0,-2.0,0.0,8.0,-2.0,-1.0,-2.0,0.0
1.6951624707980183e+18,-2.0,-1.0,8.0,3.0,1.0,0.0,-2.0,-1.0
1.695162470800022e+18,2.0,3.0,-2.0,1.0,-3.0,-3.0,-2.0,2.0
1.6951624708010166e+18,-1.0,-2.0,3.0,-1.0,3.0,1.0,0.0,-3.0
1.6951624708200156e+18,1.0,1.0,-11.0,-5.0,1.0,-3.0,0.0,-2.0
1.6951624708200156e+18,-1.0,-2.0,0.0,8.0,5.0,4.0,3.0,1.0
1.6951624708210048e+18,0.0,2.0,12.0,4.0,3.0,4.0,1.0,3.0
1.695162470822004e+18,-3.0,-1.0,-4.0,-3.0,-8.0,-5.0,-3.0,-3.0
1.695162470822004e+18,-2.0,-1.0,-7.0,-6.0,0.0,1.0,-1.0,-1.0
1.695162470822004e+18,2.0,5.0,17.0,7.0,0.0,-6.0,0.0,0.0
1.6951624708339978e+18,-4.0,-6.0,-23.0,-13.0,-7.0,-2.0,0.0,1.0
1.695162470835e+18,-3.0,2.0,1.0,-4.0,9.0,8.0,1.0,-3.0
1.6951624708489887e+18,-2.0,-11.0,-20.0,-10.0,-6.0,-5.0,0.0,-2.0
1.69516247084999e+18,-1.0,0.0,1.0,-7.0,1.0,0.0,-2.0,-1.0
1.695162470850988e+18,2.0,3.0,14.0,12.0,3.0,0.0,1.0,-1.0
1.695162470850988e+18,-1.0,-1.0,20.0,12.0,-7.0,-5.0,-5.0,-3.0
1.6951624708719775e+18,-2.0,1.0,-27.0,-11.0,-4.0,-1.0,-3.0,-3.0
1.6951624708719775e+18,0.0,-6.0,-23.0,-11.0,-10.0,-8.0,-1.0,-1.0
1.695162470879971e+18,-1.0,-5.0,1.0,-2.0,0.0,2.0,-2.0,0.0
1.695162470879971e+18,-1.0,-2.0,-22.0,-15.0,0.0,1.0,-2.0,-1.0
1.6951624708869683e+18,3.0,5.0,28.0,17.0,7.0,3.0,3.0,0.0
1.6951624708869683e+18,-2.0,-2.0,-3.0,-1.0,2.0,2.0,-1.0,-2.0
1.695162470887968e+18,1.0,2.0,-3.0,0.0,-3.0,-5.0,-3.0,-2.0
1.695162470887968e+18,0.0,0.0,-2.0,0.0,-1.0,-3.0,0.0,0.0
1.6951624709019607e+18,-2.0,-2.0,2.0,5.0,1.0,5.0,-1.0,1.0
1.6951624709019607e+18,0.0,1.0,3.0,-5.0,2.0,-1.0,0.0,0.0
1.6951624709029604e+18,-2.0,2.0,1.0,-8.0,-3.0,-1.0,-1.0,-1.0
1.6951624709039567e+18,1.0,-2.0,-14.0,-7.0,0.0,-1.0,0.0,0.0
1.6951624709239693e+18,0.0,0.0,7.0,-1.0,-3.0,-4.0,-3.0,-2.0
1.695162470924959e+18,1.0,-2.0,6.0,7.0,-4.0,0.0,-1.0,-1.0
1.695162470925962e+18,-1.0,8.0,0.0,-9.0,0.0,2.0,1.0,-1.0
1.695162470925962e+18,-1.0,-4.0,1.0,0.0,-3.0,-7.0,-2.0,-1.0
1.6951624709379615e+18,-1.0,-1.0,-14.0,-13.0,-2.0,2.0,-1.0,-2.0
1.6951624709379615e+18,-1.0,-1.0,2.0,9.0,-1.0,-1.0,-1.0,-2.0
1.6951624709529318e+18,-1.0,-2.0,-10.0,-9.0,-2.0,0.0,0.0,0.0
1.6951624709529318e+18,0.0,1.0,8.0,8.0,3.0,0.0,0.0,0.0
1.6951624709619249e+18,-1.0,3.0,-4.0,1.0,-1.0,0.0,2.0,1.0
1.6951624709629256e+18,-1.0,-3.0,-2.0,3.0,4.0,2.0,0.0,1.0
1.6951624709629256e+18,0.0,-2.0,9.0,0.0,-3.0,-4.0,-1.0,-3.0
1.6951624709639293e+18,-1.0,0.0,-12.0,-7.0,-1.0,2.0,0.0,-1.0
1.6951624709879117e+18,-1.0,-2.0,11.0,10.0,-1.0,-1.0,-2.0,-1.0
1.6951624709879117e+18,-2.0,0.0,-7.0,-7.0,-4.0,0.0,-3.0,-1.0
1.6951624709879117e+18,0.0,-2.0,1.0,-1.0,-4.0,-4.0,-3.0,-1.0
1.6951624709879117e+18,0.0,-1.0,3.0,4.0,-2.0,-3.0,0.0,-1.0
1.6951624709979023e+18,0.0,0.0,-2.0,0.0,2.0,6.0,0.0,-1.0
1.6951624709979023e+18,3.0,0.0,-5.0,-5.0,-3.0,-2.0,0.0,-1.0
1.6951624710068977e+18,-1.0,-1.0,7.0,4.0,3.0,-1.0,-1.0,0.0
1.6951624710068977e+18,-1.0,-2.0,-2.0,2.0,-2.0,1.0,-2.0,-1.0
1.6951624710218898e+18,-1.0,-1.0,3.0,4.0,1.0,-8.0,-1.0,-2.0
1.6951624710228892e+18,-3.0,0.0,2.0,-1.0,0.0,1.0,-1.0,0.0
1.6951624710358848e+18,-2.0,-2.0,2.0,4.0,-3.0,-2.0,0.0,0.0
1.6951624710358848e+18,-1.0,-1.0,-2.0,-3.0,-1.0,6.0,-1.0,-1.0
1.6951624710439007e+18,2.0,0.0,1.0,-2.0,0.0,-2.0,1.0,0.0
1.6951624710448776e+18,0.0,-1.0,1.0,1.0,3.0,3.0,0.0,0.0
1.695162471045876e+18,-1.0,-1.0,-3.0,1.0,1.0,-2.0,-2.0,0.0
1.695162471045876e+18,-1.0,0.0,-3.0,-4.0,-7.0,-10.0,0.0,-1.0
1.6951624710668652e+18,-2.0,-1.0,3.0,-1.0,4.0,12.0,-1.0,-1.0
1.695162471067864e+18,-1.0,-1.0,-4.0,-1.0,-3.0,-1.0,-1.0,-1.0
1.695162471067864e+18,0.0,-1.0,0.0,-2.0,0.0,0.0,-2.0,-3.0
1.695162471068863e+18,-1.0,0.0,0.0,2.0,-2.0,0.0,0.0,1.0
1.695162471080879e+18,-1.0,0.0,-2.0,1.0,-4.0,-6.0,-1.0,0.0
1.695162471080879e+18,-1.0,0.0,-6.0,-6.0,-1.0,-1.0,0.0,0.0
1.6951624710878536e+18,1.0,-5.0,-2.0,-1.0,2.0,0.0,-2.0,-1.0
1.6951624710878536e+18,1.0,3.0,8.0,1.0,-1.0,0.0,-2.0,-1.0
1.6951624711048422e+18,-3.0,-3.0,-14.0,-7.0,-5.0,-6.0,-1.0,-1.0
1.6951624711048422e+18,-1.0,1.0,1.0,-1.0,0.0,5.0,0.0,1.0
1.6951624711058588e+18,-3.0,-5.0,-1.0,5.0,3.0,-1.0,0.0,-1.0
1.6951624711058588e+18,-2.0,-1.0,-1.0,-2.0,2.0,-1.0,-3.0,-1.0
1.6951624711178345e+18,-2.0,-2.0,3.0,-2.0,-3.0,-3.0,0.0,0.0
1.6951624711178345e+18,-1.0,0.0,-2.0,-3.0,-6.0,-3.0,-1.0,-2.0
1.6951624711298296e+18,1.0,0.0,0.0,1.0,0.0,2.0,-2.0,-1.0
1.6951624711298296e+18,0.0,-1.0,4.0,1.0,-1.0,0.0,1.0,-1.0
1.695162471140826e+18,0.0,-2.0,-15.0,-4.0,1.0,-1.0,0.0,0.0
1.6951624711418214e+18,0.0,-2.0,1.0,0.0,0.0,0.0,-1.0,-1.0
1.6951624711478408e+18,-1.0,1.0,6.0,1.0,-1.0,0.0,1.0,-1.0
1.6951624711478408e+18,-1.0,-2.0,-10.0,-4.0,1.0,-1.0,0.0,0.0
1.6951624711658086e+18,0.0,-1.0,5.0,2.0,-2.0,-2.0,0.0,-2.0
1.6951624711658086e+18,-1.0,-1.0,0.0,1.0,0.0,-4.0,0.0,0.0
1.6951624711668467e+18,0.0,0.0,-1.0,-2.0,0.0,0.0,-1.0,-1.0
1.6951624711678065e+18,-1.0,-2.0,0.0,-2.0,-1.0,0.0,0.0,0.0
1.6951624711887951e+18,0.0,-1.0,1.0,1.0,-1.0,-1.0,-1.0,0.0
1.6951624711907965e+18,-1.0,-1.0,-2.0,-1.0,-1.0,0.0,-1.0,-2.0
1.695162471191794e+18,0.0,0.0,0.0,-2.0,-1.0,-1.0,1.0,-2.0
1.695162471191794e+18,-1.0,-1.0,-3.0,0.0,0.0,-1.0,-1.0,-1.0
1.6951624712017874e+18,-2.0,0.0,2.0,0.0,1.0,-1.0,1.0,1.0
1.6951624712027886e+18,0.0,-1.0,2.0,-1.0,-2.0,-2.0,0.0,-2.0
1.695162471208786e+18,-1.0,0.0,-3.0,-2.0,-1.0,-2.0,0.0,0.0
1.695162471208786e+18,-1.0,-1.0,0.0,0.0,-1.0,0.0,-1.0,-1.0
1.695162471224774e+18,0.0,-1.0,0.0,-3.0,-2.0,-1.0,-1.0,-2.0
1.695162471224774e+18,0.0,-2.0,1.0,5.0,0.0,-2.0,0.0,1.0
1.695162471225777e+18,0.0,1.0,-2.0,-1.0,-2.0,0.0,-2.0,0.0
1.695162471225777e+18,-1.0,-1.0,-3.0,-2.0,-1.0,-1.0,-2.0,-2.0
1.6951624712467612e+18,0.0,0.0,2.0,-3.0,-1.0,-2.0,-2.0,-1.0
1.6951624712467612e+18,-1.0,0.0,-2.0,-4.0,-2.0,-4.0,0.0,-1.0
1.6951624712487593e+18,0.0,-3.0,0.0,-1.0,1.0,-1.0,0.0,-1.0
1.6951624712487593e+18,0.0,1.0,-5.0,-1.0,-1.0,1.0,-2.0,-1.0
1.6951624712607762e+18,-1.0,0.0,1.0,1.0,-1.0,-1.0,-1.0,-2.0
1.6951624712617746e+18,0.0,-1.0,0.0,-4.0,-2.0,0.0,-2.0,-2.0
1.6951624712867382e+18,0.0,2.0,-1.0,0.0,-1.0,0.0,0.0,0.0
1.6951624712867382e+18,0.0,-6.0,-5.0,-3.0,-1.0,-2.0,2.0,-1.0
1.69516247129174e+18,0.0,-2.0,0.0,2.0,0.0,1.0,-1.0,-2.0
1.69516247129174e+18,-1.0,-1.0,-3.0,-2.0,0.0,1.0,-1.0,0.0
1.6951624712937347e+18,-2.0,0.0,4.0,-1.0,-2.0,0.0,-1.0,1.0
1.6951624712937347e+18,-1.0,-1.0,-12.0,-2.0,0.0,-1.0,-1.0,1.0
1.6951624713067256e+18,-1.0,1.0,12.0,0.0,1.0,0.0,-1.0,1.0
1.6951624713067256e+18,0.0,-2.0,-4.0,-2.0,-1.0,-1.0,0.0,0.0
1.6951624713087247e+18,-2.0,-1.0,-2.0,0.0,1.0,1.0,-1.0,-1.0
1.6951624713087247e+18,0.0,0.0,3.0,0.0,-2.0,-2.0,0.0,0.0
1.6951624713227177e+18,1.0,-1.0,2.0,0.0,-1.0,0.0,-2.0,-1.0
1.6951624713227177e+18,-2.0,-1.0,-1.0,-2.0,-2.0,1.0,-1.0,-1.0
1.6951624713277148e+18,0.0,-1.0,2.0,-2.0,0.0,1.0,0.0,-1.0
1.6951624713277148e+18,0.0,1.0,0.0,1.0,-1.0,-1.0,-1.0,-2.0
1.6951624713447045e+18,0.0,-1.0,-6.0,1.0,-1.0,-1.0,-2.0,-2.0
1.6951624713447045e+18,-1.0,2.0,1.0,-1.0,1.0,-1.0,-2.0,-1.0
1.6951624713457044e+18,-3.0,-4.0,-4.0,-1.0,-2.0,-2.0,-2.0,-1.0
1.695162471346708e+18,-1.0,0.0,2.0,-1.0,-1.0,0.0,0.0,-1.0
1.695162471366697e+18,0.0,0.0,-3.0,-2.0,0.0,1.0,0.0,-1.0
1.695162471367693e+18,0.0,-1.0,0.0,1.0,0.0,0.0,1.0,-1.0
1.695162471368691e+18,-1.0,2.0,-2.0,1.0,-2.0,-1.0,0.0,1.0
1.695162471368691e+18,-1.0,-3.0,-4.0,-1.0,1.0,-2.0,-2.0,0.0
1.6951624713807076e+18,-3.0,-2.0,1.0,-2.0,-3.0,-2.0,-1.0,-3.0
1.6951624713807076e+18,-1.0,0.0,8.0,2.0,1.0,0.0,-2.0,0.0
1.695162471391681e+18,0.0,0.0,0.0,-2.0,0.0,-1.0,0.0,-1.0
1.695162471391681e+18,1.0,-3.0,-8.0,-4.0,-2.0,1.0,-1.0,1.0
1.6951624714046723e+18,1.0,1.0,8.0,1.0,1.0,0.0,0.0,0.0
1.6951624714046723e+18,-2.0,0.0,-1.0,-6.0,-3.0,-1.0,-2.0,-2.0
1.6951624714056873e+18,2.0,7.0,12.0,3.0,0.0,-1.0,0.0,0.0
1.6951624714056873e+18,-4.0,-14.0,-21.0,-3.0,-3.0,-2.0,-3.0,-2.0
1.695162471428658e+18,-1.0,-2.0,-7.0,-1.0,-1.0,-2.0,0.0,1.0
1.695162471428658e+18,0.0,0.0,-1.0,1.0,0.0,-1.0,0.0,-1.0
1.695162471428658e+18,-2.0,-1.0,1.0,0.0,-1.0,-1.0,0.0,-1.0
1.6951624714296568e+18,1.0,5.0,6.0,2.0,0.0,0.0,1.0,-2.0
1.6951624714406497e+18,-1.0,-2.0,-16.0,-2.0,0.0,-1.0,-1.0,-2.0
1.6951624714406497e+18,0.0,-2.0,7.0,-2.0,-2.0,-2.0,-1.0,-1.0
1.695162471463637e+18,0.0,-2.0,-8.0,-2.0,-2.0,-2.0,-2.0,0.0
1.695162471463637e+18,-1.0,1.0,7.0,1.0,1.0,-1.0,0.0,0.0
1.6951624714656374e+18,-1.0,-2.0,1.0,-1.0,0.0,-1.0,0.0,-1.0
1.6951624714656374e+18,0.0,0.0,-2.0,0.0,-1.0,0.0,-1.0,-1.0
1.6951624714676352e+18,-1.0,-4.0,-7.0,-3.0,-1.0,-1.0,-1.0,-2.0
1.6951624714676352e+18,-1.0,-1.0,3.0,-2.0,0.0,0.0,-1.0,0.0
1.6951624714866258e+18,0.0,3.0,13.0,1.0,-2.0,-1.0,-1.0,0.0
1.6951624714866258e+18,-1.0,0.0,-14.0,-2.0,-1.0,0.0,1.0,-2.0
1.6951624714956275e+18,-2.0,-2.0,1.0,0.0,-2.0,-1.0,0.0,-1.0
1.6951624714956275e+18,0.0,0.0,3.0,0.0,-2.0,-1.0,-3.0,0.0
1.6951624715026148e+18,-1.0,0.0,0.0,0.0,-1.0,-1.0,-2.0,1.0
1.6951624715026148e+18,0.0,-1.0,-3.0,1.0,-1.0,-1.0,-1.0,0.0
1.695162471509611e+18,-1.0,-3.0,-11.0,-4.0,-3.0,0.0,-2.0,0.0
1.695162471509611e+18,0.0,8.0,14.0,3.0,-1.0,0.0,0.0,-2.0
1.6951624715475958e+18,-2.0,-1.0,-8.0,-2.0,-1.0,-2.0,-1.0,2.0
1.6951624715475958e+18,0.0,-2.0,5.0,1.0,-1.0,-1.0,1.0,1.0
1.6951624715475958e+18,-1.0,-2.0,-2.0,-1.0,-2.0,0.0,0.0,-1.0
1.6951624715475958e+18,-2.0,0.0,-3.0,0.0,0.0,-1.0,0.0,0.0
1.6951624715485883e+18,-1.0,1.0,-2.0,-4.0,-3.0,-3.0,-1.0,-1.0
1.6951624715485883e+18,-1.0,-2.0,-4.0,1.0,1.0,-1.0,-2.0,-2.0
1.6951624715625797e+18,-1.0,-2.0,3.0,-1.0,3.0,-2.0,0.0,0.0
1.6951624715625797e+18,0.0,-2.0,-11.0,-5.0,-1.0,-3.0,0.0,0.0
1.6951624715635794e+18,-1.0,-1.0,1.0,-1.0,0.0,1.0,-2.0,-1.0
1.6951624715635794e+18,-1.0,-2.0,1.0,4.0,-1.0,-1.0,1.0,-2.0
1.6951624715695762e+18,0.0,-1.0,-13.0,0.0,-3.0,-1.0,-1.0,-1.0
1.6951624715695762e+18,-2.0,0.0,7.0,-2.0,1.0,0.0,0.0,0.0
1.6951624715915674e+18,1.0,-3.0,-3.0,-2.0,-1.0,-2.0,1.0,0.0
1.6951624715915674e+18,-1.0,-2.0,-5.0,-3.0,-4.0,-1.0,0.0,0.0
1.6951624715935634e+18,-1.0,0.0,5.0,0.0,0.0,-1.0,-2.0,-2.0
1.6951624715935634e+18,-2.0,1.0,1.0,1.0,-1.0,-2.0,-1.0,0.0
1.6951624716065572e+18,0.0,-3.0,-4.0,-1.0,0.0,-1.0,-1.0,-2.0
1.695162471607557e+18,-1.0,1.0,1.0,0.0,1.0,1.0,0.0,0.0
1.6951624716085555e+18,0.0,-1.0,2.0,0.0,0.0,0.0,0.0,-1.0
1.6951624716085555e+18,-1.0,-1.0,-1.0,0.0,-2.0,1.0,0.0,-2.0
1.6951624716235459e+18,-1.0,0.0,-1.0,-1.0,-3.0,0.0,-1.0,-1.0
1.695162471628545e+18,-1.0,0.0,4.0,-1.0,-1.0,-1.0,-1.0,-1.0
1.6951624716295421e+18,0.0,-2.0,-3.0,1.0,-1.0,-2.0,-2.0,-1.0
1.6951624716295421e+18,-1.0,0.0,-1.0,-2.0,0.0,-1.0,-1.0,1.0
1.695162471644554e+18,-2.0,0.0,-2.0,0.0,0.0,0.0,1.0,-1.0
1.695162471644554e+18,-2.0,-1.0,3.0,-2.0,0.0,-2.0,-3.0,0.0
1.6951624716455324e+18,-2.0,-3.0,-16.0,0.0,-1.0,1.0,-2.0,0.0
1.6951624716455324e+18,1.0,-1.0,9.0,0.0,-1.0,-1.0,-1.0,-1.0
1.6951624716665247e+18,0.0,1.0,2.0,0.0,-1.0,-1.0,0.0,1.0
1.69516247166752e+18,0.0,-2.0,-2.0,-1.0,-1.0,0.0,1.0,0.0
1.6951624716685192e+18,0.0,0.0,5.0,1.0,1.0,-2.0,-1.0,0.0
1.6951624716685192e+18,-1.0,-3.0,-3.0,-1.0,-1.0,0.0,-2.0,0.0
1.6951624716805238e+18,-1.0,-2.0,2.0,-3.0,0.0,-2.0,-2.0,-1.0
1.6951624716805238e+18,-1.0,-1.0,-5.0,-4.0,1.0,-1.0,-1.0,-1.0
1.6951624717064983e+18,0.0,1.0,6.0,3.0,0.0,0.0,0.0,-1.0
1.6951624717064983e+18,-1.0,1.0,-1.0,0.0,-2.0,-1.0,0.0,-1.0
1.695162471707499e+18,0.0,0.0,-1.0,0.0,0.0,0.0,-1.0,0.0
1.695162471707499e+18,0.0,0.0,0.0,-2.0,-2.0,0.0,0.0,-1.0
1.6951624717104945e+18,0.0,0.0,-1.0,-3.0,-2.0,0.0,-1.0,-2.0
1.6951624717104945e+18,2.0,-2.0,-2.0,-1.0,-1.0,0.0,0.0,-1.0
1.6951624717264865e+18,-1.0,0.0,-1.0,-1.0,-1.0,-1.0,-1.0,-2.0
1.6951624717264865e+18,-1.0,2.0,-2.0,0.0,1.0,0.0,-1.0,-1.0
1.6951624717345057e+18,-2.0,1.0,-1.0,-3.0,0.0,0.0,-1.0,-1.0
1.6951624717345057e+18,-2.0,-2.0,-1.0,1.0,-1.0,0.0,-1.0,-1.0
1.6951624717424812e+18,-1.0,-2.0,-7.0,0.0,-2.0,2.0,-2.0,-1.0
1.6951624717424812e+18,-1.0,-3.0,1.0,-1.0,0.0,-1.0,-1.0,-3.0
1.6951624717574692e+18,-1.0,0.0,2.0,-3.0,-1.0,-2.0,1.0,0.0
1.6951624717574692e+18,0.0,2.0,6.0,1.0,-1.0,-1.0,-1.0,-2.0
1.695162471764465e+18,0.0,-5.0,-4.0,-1.0,-1.0,-1.0,0.0,-1.0
1.695162471764465e+18,-1.0,0.0,0.0,-1.0,-1.0,-1.0,-2.0,1.0
1.6951624717654638e+18,-1.0,-1.0,-9.0,-4.0,-3.0,-1.0,-1.0,0.0
1.695162471766464e+18,-1.0,1.0,9.0,0.0,-1.0,1.0,0.0,-1.0
1.6951624717944474e+18,1.0,-1.0,-20.0,0.0,0.0,-1.0,1.0,-1.0
1.6951624717944474e+18,-1.0,-1.0,14.0,0.0,2.0,0.0,1.0,-1.0
1.6951624717954468e+18,-1.0,-1.0,3.0,1.0,1.0,-1.0,-1.0,-1.0
1.6951624717964457e+18,-1.0,1.0,1.0,0.0,-1.0,0.0,-1.0,0.0
1.695162471809445e+18,-1.0,1.0,3.0,-2.0,0.0,0.0,0.0,0.0
1.695162471809445e+18,-1.0,0.0,-11.0,7.0,-2.0,-1.0,-2.0,-1.0
1.695162471810439e+18,-2.0,-3.0,0.0,-3.0,-1.0,0.0,0.0,-2.0
1.695162471811445e+18,-1.0,-2.0,-9.0,-2.0,1.0,-1.0,-1.0,-1.0
1.6951624718244308e+18,0.0,0.0,1.0,-1.0,0.0,-1.0,1.0,0.0
1.6951624718244308e+18,0.0,0.0,-6.0,-5.0,1.0,-2.0,0.0,-1.0
1.6951624718264294e+18,0.0,-1.0,-1.0,2.0,-2.0,0.0,-1.0,-2.0
1.6951624718264294e+18,1.0,-1.0,-3.0,-2.0,-1.0,-2.0,-1.0,0.0
1.6951624718464166e+18,-2.0,-1.0,7.0,0.0,-2.0,-2.0,-2.0,-1.0
1.69516247184742e+18,2.0,0.0,-5.0,0.0,-2.0,-1.0,-1.0,0.0
1.6951624718484165e+18,-1.0,1.0,4.0,0.0,-1.0,-1.0,0.0,1.0
1.6951624718484165e+18,0.0,0.0,-2.0,-4.0,1.0,-2.0,-2.0,-2.0
1.6951624718634074e+18,-2.0,1.0,0.0,0.0,-1.0,0.0,1.0,0.0
1.6951624718634074e+18,-1.0,0.0,-1.0,-3.0,0.0,0.0,-1.0,0.0
1.695162471869407e+18,1.0,-2.0,-2.0,-2.0,1.0,-1.0,-1.0,1.0
1.695162471869407e+18,-2.0,-2.0,-6.0,-1.0,-1.0,0.0,-1.0,0.0
1.6951624718843965e+18,-1.0,1.0,14.0,3.0,-1.0,0.0,-1.0,-3.0
1.6951624718843965e+18,-1.0,-2.0,-3.0,1.0,0.0,0.0,-1.0,-2.0
1.695162471885395e+18,-1.0,-2.0,-8.0,-6.0,-1.0,-3.0,-1.0,0.0
1.695162471886397e+18,-2.0,-2.0,-2.0,-2.0,0.0,0.0,-2.0,0.0
1.695162471908383e+18,-2.0,-1.0,4.0,1.0,0.0,0.0,-2.0,0.0
1.695162471908383e+18,-1.0,-1.0,2.0,-1.0,-2.0,0.0,-2.0,0.0
1.6951624719223741e+18,-1.0,1.0,1.0,0.0,2.0,-1.0,0.0,-1.0
1.6951624719223741e+18,-1.0,-1.0,0.0,1.0,-1.0,0.0,1.0,-2.0
1.6951624719233754e+18,0.0,1.0,-9.0,-1.0,-1.0,1.0,-1.0,-2.0
1.6951624719233754e+18,-1.0,-2.0,8.0,-5.0,-3.0,-1.0,-2.0,-2.0
1.69516247192937e+18,0.0,1.0,-1.0,1.0,-1.0,0.0,-2.0,1.0
1.69516247192937e+18,1.0,1.0,-3.0,1.0,0.0,-2.0,-1.0,-1.0
1.6951624719473626e+18,-1.0,-1.0,0.0,-2.0,0.0,-1.0,0.0,0.0
1.6951624719503588e+18,-3.0,1.0,-3.0,-2.0,-1.0,-1.0,-1.0,0.0
1.6951624719503588e+18,-1.0,0.0,-5.0,-1.0,0.0,-1.0,0.0,-1.0
1.6951624719513582e+18,0.0,1.0,12.0,0.0,-3.0,-1.0,1.0,-3.0
1.6951624719673562e+18,1.0,-2.0,-2.0,1.0,0.0,-1.0,-2.0,-1.0
1.6951624719673562e+18,-1.0,1.0,-3.0,-1.0,1.0,-2.0,-1.0,-2.0
1.695162471968348e+18,-1.0,-1.0,0.0,-1.0,-1.0,1.0,0.0,-2.0
1.695162471968348e+18,0.0,-2.0,-7.0,-1.0,-1.0,0.0,1.0,1.0
1.6951624719803402e+18,0.0,-1.0,2.0,1.0,-1.0,-2.0,0.0,-1.0
1.6951624719803402e+18,-2.0,-5.0,0.0,2.0,-1.0,-1.0,0.0,-1.0
1.695162471995334e+18,-2.0,-1.0,3.0,1.0,0.0,1.0,-2.0,-2.0
1.695162471995334e+18,-1.0,-2.0,-4.0,-2.0,-1.0,2.0,-1.0,-2.0
1.6951624720043264e+18,1.0,0.0,0.0,-4.0,-3.0,-2.0,0.0,-2.0
1.6951624720043264e+18,1.0,0.0,-2.0,-1.0,0.0,1.0,-2.0,0.0
1.695162472006326e+18,-1.0,-1.0,1.0,-1.0,-2.0,-1.0,0.0,-2.0
1.695162472006326e+18,-1.0,-1.0,0.0,-1.0,-1.0,-2.0,-1.0,1.0
1.6951624720263145e+18,-2.0,1.0,6.0,0.0,-1.0,-1.0,-1.0,0.0
1.6951624720273152e+18,0.0,0.0,-2.0,0.0,-2.0,-2.0,-1.0,-1.0
1.695162472028314e+18,-2.0,0.0,0.0,0.0,-1.0,0.0,-2.0,-1.0
1.695162472028314e+18,0.0,1.0,3.0,-2.0,0.0,-1.0,-1.0,-2.0
1.6951624720493018e+18,0.0,-2.0,-14.0,-3.0,0.0,-1.0,1.0,-2.0
1.6951624720503014e+18,-1.0,-1.0,-1.0,1.0,-3.0,1.0,-1.0,0.0
1.695162472051301e+18,-2.0,-1.0,3.0,0.0,-2.0,0.0,-1.0,0.0
1.695162472051301e+18,0.0,0.0,-4.0,-1.0,-1.0,-3.0,-1.0,0.0
1.695162472072288e+18,1.0,-2.0,1.0,0.0,0.0,0.0,-1.0,0.0
1.695162472072288e+18,0.0,-1.0,-2.0,-1.0,1.0,-1.0,1.0,1.0
1.6951624720732882e+18,-1.0,-2.0,-2.0,-2.0,-1.0,-1.0,0.0,0.0
1.6951624720742884e+18,-2.0,-1.0,-2.0,-4.0,-1.0,-1.0,-2.0,-2.0
1.695162472089279e+18,-1.0,0.0,2.0,0.0,0.0,-2.0,-1.0,-1.0
1.6951624720972744e+18,1.0,3.0,-1.0,1.0,1.0,-1.0,-1.0,-1.0
1.6951624720982738e+18,-1.0,0.0,2.0,1.0,-1.0,-1.0,-3.0,-2.0
1.6951624720982738e+18,0.0,-1.0,-3.0,0.0,-2.0,-1.0,-1.0,0.0
1.6951624721012726e+18,0.0,-1.0,1.0,-1.0,2.0,1.0,-4.0,-2.0
1.6951624721012726e+18,-2.0,-1.0,-1.0,-2.0,0.0,0.0,0.0,0.0
1.6951624721092675e+18,1.0,-2.0,-3.0,-3.0,0.0,-2.0,-1.0,0.0
1.6951624721092675e+18,-1.0,1.0,2.0,1.0,-1.0,-1.0,1.0,-1.0
1.6951624721232591e+18,-3.0,0.0,3.0,-1.0,-1.0,0.0,0.0,-1.0
1.6951624721242596e+18,0.0,-1.0,0.0,0.0,0.0,0.0,0.0,-1.0
1.695162472130254e+18,2.0,-2.0,-3.0,-1.0,-1.0,-1.0,0.0,-2.0
1.695162472130254e+18,-2.0,-1.0,-5.0,2.0,0.0,0.0,0.0,1.0
1.695162472148245e+18,-1.0,-1.0,0.0,0.0,-3.0,1.0,-1.0,-1.0
1.695162472148245e+18,-2.0,-1.0,-3.0,-2.0,-1.0,0.0,-2.0,-2.0
1.6951624721492454e+18,-1.0,1.0,6.0,-1.0,1.0,1.0,0.0,1.0
1.6951624721492454e+18,-1.0,-2.0,-1.0,-1.0,1.0,0.0,-3.0,0.0
1.695162472169232e+18,0.0,-2.0,-3.0,-1.0,0.0,-1.0,-1.0,2.0
1.695162472169232e+18,-1.0,-1.0,0.0,-1.0,2.0,-1.0,0.0,0.0
1.695162472171231e+18,0.0,0.0,-3.0,1.0,-2.0,-1.0,1.0,1.0
1.695162472171231e+18,-2.0,-1.0,7.0,-2.0,0.0,-1.0,0.0,-1.0
1.695162472186223e+18,-3.0,-2.0,-11.0,-3.0,0.0,-1.0,1.0,0.0
1.695162472186223e+18,0.0,0.0,-3.0,-2.0,0.0,0.0,-2.0,-1.0
1.6951624721982164e+18,0.0,0.0,-1.0,-1.0,0.0,0.0,-1.0,-1.0
1.6951624721982164e+18,1.0,-2.0,1.0,1.0,-1.0,-1.0,-1.0,0.0
1.6951624722072118e+18,-1.0,-1.0,-9.0,-2.0,-2.0,-1.0,0.0,-1.0
1.6951624722072118e+18,0.0,1.0,13.0,2.0,-3.0,-1.0,-3.0,-1.0
1.6951624722082107e+18,0.0,0.0,-5.0,0.0,-1.0,-1.0,-1.0,-2.0
1.6951624722082107e+18,-2.0,-3.0,-3.0,-2.0,-2.0,-1.0,0.0,-3.0
1.695162472235219e+18,-1.0,1.0,-1.0,1.0,0.0,-1.0,0.0,0.0
1.695162472235219e+18,-1.0,-2.0,-6.0,-1.0,0.0,-2.0,-1.0,-1.0
1.6951624722361974e+18,-2.0,-4.0,-5.0,0.0,-2.0,-2.0,-1.0,-1.0
1.6951624722361974e+18,0.0,1.0,-2.0,1.0,-2.0,-1.0,0.0,-1.0
1.695162472243193e+18,0.0,-3.0,-1.0,-2.0,-1.0,-1.0,-3.0,-3.0
1.695162472243193e+18,0.0,-2.0,-5.0,0.0,-1.0,-1.0,2.0,1.0
1.6951624722591818e+18,-1.0,1.0,6.0,0.0,-2.0,0.0,0.0,0.0
1.6951624722591818e+18,-1.0,0.0,-5.0,-1.0,1.0,-1.0,0.0,0.0
1.695162472271175e+18,-2.0,-1.0,3.0,1.0,-3.0,0.0,-2.0,-1.0
1.695162472271175e+18,0.0,0.0,0.0,-1.0,-1.0,-1.0,-1.0,1.0
1.695162472271175e+18,-1.0,-2.0,2.0,-1.0,0.0,-2.0,-1.0,0.0
1.695162472271175e+18,0.0,-1.0,-7.0,-1.0,-1.0,0.0,0.0,0.0
1.695162472289163e+18,1.0,-1.0,3.0,2.0,-1.0,-1.0,0.0,-1.0
1.695162472289163e+18,0.0,0.0,0.0,-1.0,0.0,0.0,0.0,0.0
1.695162472291163e+18,0.0,-1.0,-4.0,-2.0,-2.0,-2.0,-1.0,-1.0
1.695162472291163e+18,0.0,-1.0,3.0,0.0,0.0,-2.0,0.0,-1.0
1.6951624723115415e+18,-1.0,0.0,1.0,0.0,-1.0,-3.0,-2.0,-2.0
1.6951624723115415e+18,-1.0,-2.0,-7.0,-2.0,-1.0,-1.0,0.0,-1.0
1.695162472313544e+18,0.0,1.0,14.0,0.0,2.0,1.0,-1.0,-2.0
1.695162472313544e+18,-1.0,0.0,-11.0,0.0,0.0,-1.0,-1.0,-1.0
1.6951624723268204e+18,0.0,0.0,-3.0,-1.0,-1.0,0.0,0.0,-1.0
1.6951624723268204e+18,-1.0,-1.0,-3.0,0.0,-2.0,0.0,2.0,0.0
1.6951624723284664e+18,-2.0,0.0,3.0,-1.0,-1.0,-1.0,0.0,0.0
1.6951624723284664e+18,-1.0,-2.0,-4.0,-1.0,2.0,-1.0,-1.0,-2.0
1.695162472355558e+18,-1.0,3.0,12.0,-2.0,0.0,-1.0,0.0,-2.0
1.695162472355558e+18,-3.0,-7.0,-15.0,-1.0,-1.0,-2.0,-3.0,-3.0
1.695162472355558e+18,-1.0,0.0,1.0,0.0,0.0,0.0,-1.0,-1.0
1.695162472355558e+18,-1.0,-2.0,-2.0,0.0,-3.0,0.0,-1.0,0.0
1.6951624723715471e+18,-1.0,0.0,1.0,-3.0,0.0,1.0,0.0,1.0
1.6951624723715471e+18,-1.0,1.0,2.0,3.0,0.0,-1.0,-2.0,0.0
1.6951624723735457e+18,0.0,-2.0,-8.0,-3.0,-1.0,-2.0,0.0,0.0
1.6951624723735457e+18,-2.0,-1.0,4.0,0.0,1.0,-2.0,-1.0,-1.0
1.695162472391535e+18,-1.0,-1.0,-5.0,1.0,0.0,0.0,-2.0,-1.0
1.6951624723975314e+18,0.0,-2.0,8.0,-2.0,1.0,1.0,0.0,-1.0
1.6951624723975314e+18,-2.0,-1.0,-6.0,-1.0,0.0,0.0,-1.0,-1.0
1.6951624723975314e+18,-2.0,-3.0,-6.0,-5.0,-3.0,-1.0,0.0,-1.0
1.6951624724095245e+18,-1.0,-4.0,5.0,-3.0,-1.0,-2.0,0.0,0.0
1.6951624724095245e+18,-1.0,0.0,-1.0,-3.0,-3.0,-2.0,0.0,-2.0
1.6951624724105262e+18,-1.0,-1.0,-4.0,1.0,0.0,-1.0,-2.0,-1.0
1.6951624724105262e+18,0.0,1.0,2.0,3.0,1.0,1.0,-1.0,-1.0
1.6951624724235187e+18,-1.0,-2.0,-4.0,-1.0,-1.0,0.0,-3.0,-1.0
1.6951624724235187e+18,-1.0,1.0,-1.0,-1.0,-1.0,0.0,-1.0,0.0
1.6951624724325123e+18,-1.0,-2.0,4.0,-2.0,0.0,1.0,-1.0,2.0
1.695162472433522e+18,1.0,0.0,-6.0,-2.0,0.0,0.0,-1.0,0.0
1.6951624724544202e+18,1.0,-2.0,-1.0,0.0,-1.0,-2.0,0.0,2.0
1.6951624724544202e+18,0.0,3.0,-6.0,-2.0,-4.0,-1.0,-2.0,-1.0
1.695162472456417e+18,-1.0,-1.0,-3.0,-1.0,0.0,0.0,-1.0,-1.0
1.695162472456417e+18,0.0,2.0,3.0,0.0,0.0,-1.0,-1.0,-1.0
1.695162472469117e+18,-2.0,0.0,-1.0,-4.0,-2.0,0.0,-1.0,-1.0
1.695162472469117e+18,0.0,1.0,2.0,-1.0,-2.0,0.0,-1.0,0.0
1.6951624724711342e+18,-1.0,-3.0,-5.0,1.0,-3.0,-2.0,-2.0,-2.0
1.6951624724711342e+18,0.0,2.0,2.0,0.0,-2.0,0.0,-1.0,-3.0
1.695162472484123e+18,-1.0,-3.0,-7.0,-6.0,-3.0,-2.0,-1.0,-3.0
1.695162472484123e+18,0.0,-5.0,3.0,0.0,0.0,-2.0,-3.0,-2.0
1.6951624724901478e+18,-2.0,-1.0,0.0,4.0,-1.0,-3.0,-1.0,-1.0
1.6951624724911304e+18,-3.0,-2.0,2.0,-3.0,-1.0,-1.0,-2.0,-1.0
1.6951624725061092e+18,-2.0,-2.0,0.0,2.0,-2.0,-1.0,0.0,-2.0
1.6951624725071094e+18,-2.0,-2.0,-4.0,-4.0,-2.0,-1.0,0.0,-2.0
1.6951624725131075e+18,0.0,0.0,2.0,-2.0,-2.0,-1.0,-2.0,-2.0
1.6951624725131075e+18,-2.0,0.0,1.0,0.0,-1.0,-2.0,-2.0,0.0
1.695162472529361e+18,-1.0,-2.0,-2.0,0.0,0.0,-3.0,-2.0,0.0
1.695162472529361e+18,0.0,-2.0,-3.0,0.0,-1.0,-1.0,-2.0,-1.0
1.6951624725313661e+18,1.0,-1.0,-3.0,-2.0,-2.0,-3.0,-1.0,0.0
1.6951624725313661e+18,-1.0,-1.0,3.0,0.0,-2.0,-1.0,0.0,-2.0
1.6951624725435937e+18,-2.0,-3.0,-5.0,-1.0,0.0,0.0,-1.0,-2.0
1.6951624725435937e+18,0.0,2.0,7.0,0.0,1.0,-2.0,0.0,-1.0
1.6951624725503775e+18,-1.0,-1.0,0.0,-1.0,1.0,0.0,-1.0,-2.0
1.6951624725503775e+18,-1.0,-3.0,0.0,-2.0,-1.0,-2.0,-2.0,-2.0
1.6951624725667817e+18,0.0,-2.0,-2.0,3.0,0.0,0.0,-1.0,-1.0
1.6951624725667817e+18,-1.0,-1.0,1.0,0.0,3.0,0.0,1.0,-2.0
1.695162472568783e+18,-1.0,0.0,4.0,-1.0,-2.0,0.0,0.0,0.0
1.695162472568783e+18,-1.0,-3.0,-3.0,-1.0,1.0,-1.0,0.0,0.0
1.6951624725891177e+18,0.0,3.0,-1.0,2.0,-1.0,-1.0,-2.0,-2.0
1.6951624725901258e+18,-1.0,-3.0,-1.0,0.0,-1.0,-1.0,-1.0,0.0
1.6951624725911194e+18,-2.0,-1.0,-11.0,-2.0,-1.0,0.0,-1.0,0.0
1.6951624725911194e+18,0.0,0.0,12.0,1.0,0.0,1.0,0.0,-2.0
1.6951624726041124e+18,0.0,-1.0,-2.0,-2.0,0.0,-2.0,-1.0,0.0
1.6951624726041124e+18,0.0,-1.0,-3.0,0.0,0.0,-1.0,-1.0,-1.0
1.695162472614109e+18,0.0,0.0,-2.0,-1.0,0.0,0.0,1.0,-1.0
1.695162472614109e+18,0.0,-3.0,-11.0,-3.0,-1.0,2.0,0.0,0.0
1.695162472627103e+18,0.0,-1.0,7.0,1.0,-1.0,0.0,0.0,0.0
1.695162472627103e+18,-2.0,6.0,0.0,2.0,-1.0,1.0,-2.0,0.0
1.6951624726280988e+18,-2.0,-14.0,-8.0,-2.0,0.0,-3.0,0.0,-2.0
1.6951624726280988e+18,0.0,-1.0,-1.0,-3.0,-2.0,0.0,0.0,-2.0
1.6951624726497592e+18,-1.0,3.0,8.0,-1.0,0.0,-1.0,-1.0,0.0
1.6951624726497592e+18,-1.0,-3.0,-8.0,-3.0,-1.0,-1.0,-1.0,0.0
1.6951624726507566e+18,0.0,2.0,0.0,1.0,0.0,1.0,-1.0,0.0
1.6951624726507566e+18,-2.0,0.0,-4.0,-2.0,-2.0,-3.0,-3.0,0.0
1.6951624726637507e+18,-1.0,-2.0,-3.0,0.0,-1.0,-1.0,-1.0,-3.0
1.6951624726637507e+18,1.0,0.0,3.0,0.0,-2.0,0.0,-2.0,-3.0
1.6951624726727455e+18,-1.0,1.0,3.0,-1.0,-1.0,0.0,0.0,0.0
1.6951624726727455e+18,-2.0,-2.0,-7.0,1.0,1.0,1.0,-1.0,0.0
1.6951624726867377e+18,-2.0,1.0,-2.0,-3.0,-2.0,-2.0,0.0,-1.0
1.6951624726877445e+18,-2.0,-1.0,5.0,-2.0,0.0,-1.0,0.0,1.0
1.6951624727017285e+18,-1.0,3.0,12.0,0.0,0.0,0.0,0.0,-2.0
1.6951624727027282e+18,-2.0,-1.0,-5.0,-1.0,-2.0,-1.0,0.0,1.0
1.6951624727107233e+18,0.0,-2.0,-19.0,2.0,2.0,1.0,-2.0,-1.0
1.6951624727117238e+18,-1.0,-5.0,2.0,-3.0,1.0,-1.0,-1.0,-1.0
1.6951624727137224e+18,0.0,5.0,6.0,-3.0,-2.0,0.0,-1.0,-1.0
1.6951624727147218e+18,1.0,0.0,1.0,-4.0,-4.0,-3.0,0.0,0.0
1.6951624727387077e+18,-1.0,-4.0,-5.0,-2.0,2.0,1.0,0.0,0.0
1.6951624727397074e+18,1.0,0.0,10.0,-2.0,-9.0,-6.0,-2.0,-3.0
1.6951624727407063e+18,1.0,-1.0,-19.0,-5.0,-14.0,-7.0,-5.0,1.0
1.6951624727417065e+18,1.0,1.0,7.0,5.0,20.0,-3.0,0.0,0.0
1.6951624727477028e+18,-2.0,-3.0,-2.0,-3.0,-9.0,6.0,0.0,2.0
1.6951624727477028e+18,-2.0,1.0,-5.0,-2.0,-1.0,-4.0,-2.0,-2.0
1.6951624727487007e+18,-1.0,-1.0,3.0,7.0,19.0,5.0,3.0,1.0
1.695162472749705e+18,0.0,2.0,3.0,-5.0,-14.0,-8.0,-2.0,-1.0
1.6951624727716877e+18,0.0,-3.0,-11.0,-1.0,9.0,9.0,3.0,0.0
1.6951624727716877e+18,1.0,-1.0,-2.0,-1.0,5.0,11.0,2.0,2.0
1.695162472772687e+18,-1.0,1.0,-2.0,-3.0,-11.0,-6.0,-2.0,-1.0
1.695162472772687e+18,-1.0,0.0,1.0,4.0,2.0,-3.0,-1.0,-2.0
1.6951624727836813e+18,0.0,1.0,6.0,-2.0,-4.0,-12.0,-3.0,-2.0
1.6951624727846794e+18,-2.0,-4.0,-11.0,-2.0,-3.0,-3.0,-2.0,-1.0
1.6951624727926764e+18,2.0,-2.0,-10.0,-11.0,-4.0,6.0,1.0,1.0
1.6951624727936755e+18,-1.0,-1.0,7.0,0.0,2.0,1.0,0.0,-1.0
1.695162472814662e+18,0.0,0.0,-6.0,8.0,-9.0,-3.0,-1.0,0.0
1.695162472814662e+18,1.0,-1.0,-3.0,-4.0,-1.0,-5.0,-2.0,-2.0
1.6951624728206587e+18,1.0,3.0,3.0,13.0,15.0,-5.0,2.0,1.0
1.6951624728206587e+18,-2.0,-2.0,-3.0,3.0,-4.0,10.0,5.0,2.0
1.695162472829654e+18,0.0,-1.0,2.0,10.0,7.0,3.0,0.0,0.0
1.6951624728376497e+18,0.0,-1.0,-2.0,-20.0,-5.0,0.0,0.0,1.0
1.6951624728376497e+18,-2.0,-2.0,0.0,-7.0,-5.0,-3.0,-2.0,-2.0
1.6951624728376497e+18,-2.0,-1.0,-6.0,-7.0,-6.0,-7.0,-2.0,-1.0
1.6951624728426465e+18,-4.0,-4.0,2.0,0.0,-10.0,1.0,-3.0,-4.0
1.695162472843647e+18,0.0,0.0,-2.0,1.0,4.0,-6.0,-2.0,-1.0
1.6951624728516413e+18,-1.0,1.0,5.0,10.0,3.0,-6.0,-4.0,-4.0
1.6951624728526403e+18,-1.0,-4.0,-12.0,-12.0,3.0,0.0,0.0,-1.0
1.6951624728666322e+18,-1.0,-2.0,-6.0,-2.0,1.0,5.0,1.0,0.0
1.6951624728676347e+18,-3.0,-2.0,10.0,7.0,20.0,13.0,3.0,-1.0
1.6951624728686313e+18,-4.0,0.0,0.0,-1.0,-10.0,-3.0,0.0,-2.0
1.6951624728686313e+18,0.0,-1.0,2.0,7.0,-1.0,-5.0,-6.0,0.0
1.6951624728896192e+18,-1.0,2.0,2.0,-10.0,-8.0,-13.0,-3.0,-1.0
1.6951624728896192e+18,0.0,-2.0,-4.0,-4.0,-2.0,1.0,2.0,1.0
1.6951624728906214e+18,3.0,9.0,4.0,5.0,-5.0,-9.0,-4.0,-1.0
1.6951624728916186e+18,-3.0,-16.0,-3.0,10.0,6.0,14.0,3.0,0.0
1.6951624729026122e+18,0.0,3.0,9.0,-21.0,2.0,-3.0,-2.0,-1.0
1.695162472903615e+18,1.0,6.0,4.0,17.0,-6.0,0.0,0.0,-1.0
1.6951624729285996e+18,-4.0,-6.0,-3.0,10.0,16.0,13.0,4.0,-2.0
1.6951624729285996e+18,-1.0,1.0,-6.0,-19.0,-16.0,-10.0,-4.0,0.0
1.695162472929602e+18,0.0,4.0,9.0,16.0,7.0,-2.0,-1.0,1.0
1.695162472929602e+18,-6.0,-15.0,-10.0,-16.0,-8.0,-18.0,-2.0,10.0
1.695162472933595e+18,8.0,16.0,15.0,15.0,7.0,18.0,2.0,-24.0
1.695162472933595e+18,-6.0,-4.0,-5.0,-7.0,-7.0,0.0,-2.0,-2.0
1.6951624729495852e+18,-4.0,-6.0,-2.0,-8.0,21.0,-1.0,4.0,-4.0
1.6951624729495852e+18,-5.0,-13.0,3.0,20.0,-1.0,-9.0,8.0,8.0
1.6951624729505846e+18,15.0,22.0,-9.0,-7.0,11.0,7.0,-13.0,-2.0
1.6951624729505846e+18,-3.0,-7.0,3.0,25.0,5.0,-2.0,12.0,22.0
1.6951624729625792e+18,0.0,-17.0,-14.0,5.0,-20.0,-9.0,-9.0,27.0
1.6951624729635791e+18,-15.0,19.0,23.0,2.0,4.0,1.0,-7.0,-42.0
1.6951624729785697e+18,-4.0,12.0,-15.0,-46.0,-32.0,-4.0,-15.0,-29.0
1.6951624729785697e+18,29.0,14.0,9.0,13.0,3.0,-1.0,-4.0,3.0
1.6951624729955587e+18,-14.0,-50.0,-15.0,9.0,22.0,11.0,7.0,45.0
1.6951624729955587e+18,19.0,58.0,5.0,0.0,-1.0,4.0,4.0,9.0
1.6951624729965693e+18,-4.0,-80.0,-1.0,-6.0,-17.0,-9.0,8.0,18.0
1.6951624729965693e+18,-27.0,-43.0,-17.0,-34.0,-23.0,-5.0,20.0,-35.0
1.69516247300955e+18,77.0,62.0,8.0,16.0,4.0,-2.0,-21.0,-15.0
1.6951624730105516e+18,-9.0,-15.0,14.0,13.0,-8.0,-4.0,-13.0,33.0
1.6951624730115492e+18,-20.0,65.0,9.0,6.0,29.0,7.0,26.0,-6.0
1.6951624730115492e+18,-34.0,-88.0,-17.0,6.0,10.0,-1.0,-25.0,23.0
1.6951624730479063e+18,-24.0,20.0,10.0,-3.0,5.0,13.0,16.0,-18.0
1.6951624730488852e+18,-15.0,-35.0,-17.0,-13.0,-20.0,-6.0,4.0,-34.0
1.6951624730498824e+18,19.0,44.0,18.0,-5.0,1.0,-16.0,-16.0,43.0
1.6951624730498824e+18,25.0,2.0,-40.0,7.0,11.0,8.0,8.0,-18.0
1.6951624730508813e+18,-20.0,-8.0,16.0,-2.0,6.0,17.0,4.0,-17.0
1.6951624730508813e+18,17.0,22.0,-18.0,-13.0,-3.0,-4.0,11.0,9.0
1.6951624730538806e+18,-31.0,-56.0,-27.0,-5.0,-24.0,-7.0,3.0,-28.0
1.695162473054881e+18,7.0,28.0,1.0,-7.0,-10.0,-23.0,-29.0,1.0
1.6951624730688727e+18,-3.0,-9.0,22.0,-7.0,-8.0,-9.0,-14.0,-13.0
1.69516247306987e+18,5.0,4.0,5.0,8.0,11.0,13.0,11.0,9.0
1.6951624730708933e+18,4.0,-5.0,-12.0,-3.0,-3.0,-8.0,-3.0,22.0
1.6951624730708933e+18,3.0,4.0,17.0,-5.0,-2.0,3.0,-5.0,-39.0
1.6951624730915512e+18,-8.0,12.0,-26.0,2.0,-11.0,1.0,6.0,4.0
1.6951624730925612e+18,-8.0,-20.0,-27.0,-16.0,-8.0,-5.0,5.0,-14.0
1.6951624730935496e+18,5.0,7.0,6.0,8.0,7.0,-1.0,-8.0,37.0
1.6951624730935496e+18,7.0,15.0,1.0,2.0,-1.0,-1.0,-6.0,2.0
1.6951624731085414e+18,-16.0,4.0,10.0,-6.0,5.0,-6.0,3.0,-6.0
1.6951624731085414e+18,0.0,-26.0,-11.0,2.0,15.0,7.0,-4.0,-13.0
1.6951624731125386e+18,6.0,-5.0,0.0,3.0,-10.0,-7.0,-6.0,-6.0
1.6951624731135406e+18,0.0,28.0,-16.0,2.0,11.0,5.0,3.0,7.0
1.6951624731293865e+18,3.0,-6.0,-47.0,-2.0,4.0,-1.0,10.0,1.0
1.6951624731293865e+18,0.0,-10.0,51.0,10.0,12.0,6.0,-9.0,2.0
1.695162473131405e+18,-9.0,-8.0,-32.0,-1.0,-8.0,-6.0,-3.0,-9.0
1.695162473131405e+18,8.0,9.0,64.0,5.0,1.0,6.0,3.0,10.0
1.6951624731595292e+18,-2.0,19.0,-27.0,-10.0,-10.0,-3.0,8.0,-10.0
1.6951624731595292e+18,-2.0,27.0,53.0,10.0,0.0,0.0,0.0,16.0
1.6951624731735242e+18,10.0,-14.0,-10.0,-3.0,-4.0,-1.0,-3.0,11.0
1.6951624731745236e+18,-7.0,2.0,-3.0,-2.0,-7.0,-7.0,1.0,1.0
1.6951624731925097e+18,4.0,-16.0,-55.0,1.0,13.0,3.0,-4.0,-5.0
1.6951624731945124e+18,-10.0,-3.0,17.0,-2.0,-10.0,-3.0,-1.0,-12.0
1.6951624731955154e+18,1.0,8.0,78.0,7.0,3.0,6.0,4.0,3.0
1.6951624731955154e+18,-3.0,14.0,-29.0,-6.0,-7.0,-3.0,4.0,7.0
1.6951624732035016e+18,5.0,2.0,59.0,-4.0,-9.0,-6.0,-9.0,-9.0
1.6951624732045056e+18,-2.0,15.0,-15.0,5.0,0.0,-2.0,-9.0,-2.0
1.6951624732124977e+18,-27.0,-18.0,-20.0,-11.0,-6.0,-1.0,8.0,-43.0
1.6951624732124977e+18,15.0,41.0,21.0,-2.0,-2.0,-3.0,-16.0,19.0
1.6951624732194941e+18,-3.0,-48.0,-46.0,-7.0,-6.0,-6.0,-7.0,22.0
1.6951624732204933e+18,0.0,-16.0,-56.0,-3.0,2.0,1.0,-5.0,-33.0
1.6951624732214927e+18,-7.0,-19.0,4.0,6.0,6.0,0.0,8.0,-8.0
1.695162473222493e+18,1.0,22.0,-15.0,1.0,-1.0,4.0,17.0,2.0
1.69516247322649e+18,-1.0,12.0,61.0,-8.0,-10.0,-9.0,-14.0,6.0
1.69516247322649e+18,8.0,-8.0,-60.0,-2.0,-4.0,-3.0,-5.0,19.0
1.6951624732344855e+18,0.0,-22.0,-53.0,-7.0,-5.0,1.0,5.0,-4.0
1.6951624732354885e+18,-7.0,-6.0,14.0,6.0,12.0,3.0,-9.0,-6.0
1.6951624732524751e+18,1.0,14.0,28.0,12.0,-8.0,-8.0,1.0,-11.0
1.6951624732524751e+18,4.0,1.0,9.0,-19.0,-6.0,0.0,-3.0,3.0
1.6951624732534746e+18,1.0,19.0,62.0,6.0,9.0,4.0,0.0,-2.0
1.6951624732534746e+18,0.0,-10.0,-31.0,-8.0,4.0,8.0,7.0,0.0
1.6951624732884544e+18,-11.0,-13.0,27.0,8.0,-10.0,-7.0,-1.0,7.0
1.6951624732884544e+18,0.0,6.0,-20.0,3.0,10.0,4.0,17.0,2.0
1.6951624732894538e+18,7.0,-4.0,-29.0,-8.0,-2.0,-3.0,-14.0,32.0
1.6951624732894538e+18,-10.0,0.0,48.0,-5.0,-6.0,-5.0,-6.0,-11.0
1.6951624732894538e+18,-2.0,-2.0,-8.0,4.0,-5.0,-2.0,2.0,-11.0
1.6951624732894538e+18,2.0,-26.0,-58.0,-1.0,-5.0,0.0,11.0,12.0
1.6951624732974484e+18,-1.0,14.0,13.0,-10.0,-4.0,0.0,-7.0,-11.0
1.6951624732974484e+18,1.0,-14.0,-20.0,-3.0,-9.0,-3.0,5.0,3.0
1.6951624733264323e+18,-2.0,-9.0,19.0,1.0,7.0,2.0,1.0,-3.0
1.6951624733264323e+18,-2.0,6.0,5.0,-2.0,-2.0,-7.0,-11.0,0.0
1.6951624733264323e+18,2.0,30.0,49.0,14.0,0.0,0.0,0.0,-4.0
1.6951624733264323e+18,6.0,27.0,96.0,6.0,2.0,2.0,5.0,8.0
1.6951624733504184e+18,-14.0,-22.0,-28.0,-13.0,-5.0,-4.0,-6.0,-13.0
1.6951624733504184e+18,0.0,3.0,42.0,0.0,1.0,5.0,9.0,23.0
1.6951624733504184e+18,9.0,6.0,-3.0,-4.0,5.0,3.0,-6.0,0.0
1.6951624733504184e+18,-9.0,-18.0,2.0,1.0,5.0,3.0,9.0,9.0
1.6951624733504184e+18,10.0,20.0,-20.0,-2.0,-4.0,-2.0,-1.0,-8.0
1.6951624733514184e+18,1.0,15.0,23.0,9.0,7.0,-2.0,-7.0,-5.0
1.695162473355415e+18,1.0,-35.0,-72.0,-13.0,-10.0,-3.0,-3.0,0.0
1.695162473355415e+18,-8.0,-22.0,5.0,7.0,-1.0,-2.0,1.0,-12.0
1.6951624733933932e+18,-4.0,-6.0,-2.0,2.0,11.0,8.0,7.0,4.0
1.6951624733933932e+18,11.0,43.0,-15.0,-7.0,-15.0,-5.0,-10.0,-11.0
1.6951624733943926e+18,2.0,-27.0,-15.0,-1.0,5.0,1.0,8.0,-3.0
1.695162473395395e+18,-4.0,1.0,-29.0,-1.0,-2.0,-2.0,-4.0,-5.0
1.695162473395395e+18,1.0,-5.0,4.0,6.0,1.0,-2.0,-2.0,5.0
1.695162473395395e+18,-5.0,-5.0,8.0,-5.0,-5.0,-1.0,-1.0,-2.0
1.6951624733993953e+18,10.0,31.0,9.0,5.0,17.0,4.0,4.0,5.0
1.6951624733993953e+18,6.0,-5.0,-26.0,-2.0,-8.0,-5.0,-2.0,-1.0
1.6951624734053852e+18,0.0,-18.0,-15.0,-6.0,-3.0,1.0,2.0,13.0
1.6951624734053852e+18,-2.0,-3.0,0.0,-1.0,0.0,0.0,-1.0,-5.0
1.6951624734213768e+18,-2.0,0.0,-12.0,-2.0,-5.0,-3.0,-1.0,5.0
1.6951624734223757e+18,-4.0,-1.0,-27.0,-3.0,5.0,4.0,-3.0,-17.0
1.6951624734293722e+18,4.0,22.0,83.0,4.0,-10.0,-5.0,3.0,11.0
1.6951624734363681e+18,-9.0,15.0,-31.0,1.0,7.0,1.0,5.0,-7.0
1.6951624734363681e+18,-4.0,-37.0,-31.0,-1.0,-9.0,-5.0,-8.0,28.0
1.6951624734363681e+18,1.0,20.0,61.0,-2.0,0.0,-5.0,-11.0,8.0
1.6951624734593582e+18,6.0,18.0,-27.0,-8.0,-9.0,-7.0,0.0,5.0
1.6951624734593582e+18,-3.0,-5.0,14.0,-13.0,-18.0,-2.0,-2.0,-4.0
1.6951624734613565e+18,6.0,21.0,12.0,30.0,37.0,15.0,3.0,-17.0
1.6951624734613565e+18,-8.0,2.0,-13.0,3.0,4.0,1.0,-2.0,-8.0
1.6951624734753492e+18,-1.0,1.0,-27.0,-1.0,-1.0,-1.0,-3.0,5.0
1.6951624734763476e+18,0.0,-15.0,-8.0,-6.0,-11.0,-10.0,-6.0,-6.0
1.6951624734903378e+18,6.0,-3.0,8.0,-10.0,-14.0,0.0,7.0,-3.0
1.6951624734903378e+18,0.0,-4.0,-22.0,0.0,8.0,8.0,1.0,9.0
1.6951624734903378e+18,1.0,24.0,33.0,4.0,0.0,-7.0,-6.0,-12.0
1.6951624734913418e+18,10.0,-2.0,71.0,22.0,11.0,7.0,3.0,6.0
1.6951624734923622e+18,-17.0,-30.0,10.0,2.0,7.0,-2.0,1.0,-10.0
1.6951624734923622e+18,1.0,-11.0,-34.0,-12.0,-11.0,-5.0,-1.0,2.0
1.695162473512412e+18,3.0,-2.0,11.0,0.0,-2.0,4.0,3.0,-6.0
1.695162473512412e+18,-7.0,-10.0,-43.0,-2.0,12.0,-1.0,-7.0,-1.0
1.6951624735134103e+18,6.0,1.0,24.0,15.0,8.0,6.0,5.0,5.0
1.6951624735134103e+18,0.0,28.0,-12.0,-2.0,-5.0,-1.0,-5.0,-9.0
1.6951624735343982e+18,-17.0,-29.0,-80.0,-11.0,-2.0,4.0,8.0,-30.0
1.6951624735343982e+18,4.0,-14.0,37.0,3.0,-4.0,-6.0,-3.0,52.0
1.6951624735353981e+18,0.0,18.0,-31.0,-18.0,-12.0,-6.0,-11.0,-14.0
1.6951624735363978e+18,-5.0,-8.0,-12.0,2.0,-2.0,4.0,19.0,11.0
1.695162473549494e+18,0.0,-10.0,-4.0,1.0,9.0,2.0,-12.0,-15.0
1.695162473549494e+18,0.0,0.0,2.0,-5.0,-4.0,1.0,-1.0,-9.0
1.695162473551491e+18,-12.0,4.0,3.0,-1.0,-6.0,-6.0,-3.0,-18.0
1.695162473551491e+18,1.0,-18.0,-11.0,1.0,15.0,4.0,3.0,15.0
1.695162473571547e+18,3.0,-9.0,-56.0,-11.0,-10.0,-2.0,-1.0,4.0
1.695162473571547e+18,-4.0,-14.0,-34.0,3.0,8.0,3.0,-2.0,-12.0
1.6951624735915382e+18,4.0,15.0,29.0,-10.0,-17.0,-5.0,5.0,0.0
1.6951624735925363e+18,3.0,9.0,-27.0,5.0,19.0,5.0,-3.0,-8.0
1.69516247360955e+18,-4.0,5.0,68.0,2.0,-4.0,-3.0,0.0,27.0
1.69516247360955e+18,3.0,-12.0,-3.0,-2.0,3.0,-1.0,-6.0,-6.0
1.695162473611527e+18,2.0,20.0,27.0,-3.0,-7.0,0.0,2.0,-3.0
1.695162473611527e+18,-3.0,0.0,-3.0,-2.0,-11.0,-10.0,-5.0,-6.0
1.695162473616776e+18,2.0,-1.0,2.0,-8.0,5.0,3.0,0.0,7.0
1.6951624736177818e+18,-7.0,1.0,13.0,-3.0,-8.0,-2.0,-1.0,-14.0
1.6951624736185357e+18,-9.0,2.0,35.0,4.0,0.0,1.0,5.0,8.0
1.6951624736185357e+18,2.0,-5.0,53.0,0.0,-11.0,-8.0,-12.0,-7.0
1.6951624736473802e+18,0.0,1.0,24.0,10.0,7.0,2.0,-5.0,1.0
1.6951624736473802e+18,6.0,7.0,-24.0,-5.0,-6.0,-2.0,-3.0,-18.0
1.6951624736493558e+18,-6.0,-15.0,-26.0,2.0,0.0,0.0,1.0,-4.0
1.6951624736493558e+18,-1.0,-12.0,-5.0,-5.0,-4.0,0.0,1.0,0.0
1.6951624736493558e+18,-2.0,1.0,-2.0,-1.0,-9.0,-9.0,-2.0,-14.0
1.6951624736503557e+18,-4.0,-4.0,-6.0,-1.0,15.0,8.0,1.0,-3.0
1.6951624736623483e+18,2.0,6.0,-16.0,-1.0,0.0,-1.0,-3.0,14.0
1.6951624736623483e+18,-5.0,-8.0,-10.0,-7.0,-10.0,-6.0,2.0,-13.0
1.695162473669344e+18,3.0,3.0,-17.0,5.0,9.0,3.0,4.0,1.0
1.695162473669344e+18,-1.0,-7.0,20.0,1.0,-1.0,0.0,3.0,7.0
1.6951624736703432e+18,-7.0,0.0,-1.0,8.0,3.0,-3.0,-6.0,-15.0
1.695162473671342e+18,6.0,-9.0,-20.0,-4.0,6.0,7.0,-1.0,-2.0
1.6951624736995843e+18,7.0,-1.0,-19.0,-8.0,-5.0,-5.0,3.0,20.0
1.6951624736995843e+18,2.0,3.0,-9.0,-3.0,-3.0,-1.0,6.0,38.0
1.6951624737005768e+18,8.0,-19.0,15.0,9.0,-2.0,-3.0,-7.0,-22.0
1.6951624737005768e+18,-21.0,17.0,21.0,-4.0,-11.0,-10.0,-4.0,-12.0
1.695162473705547e+18,-4.0,-1.0,8.0,8.0,12.0,6.0,3.0,-4.0
1.695162473705547e+18,-2.0,-6.0,-12.0,-1.0,-2.0,1.0,0.0,-9.0
1.6951624737146588e+18,0.0,-7.0,-8.0,-6.0,-3.0,-1.0,2.0,4.0
1.6951624737146588e+18,8.0,6.0,37.0,2.0,-2.0,-2.0,1.0,1.0
1.695162473729645e+18,-1.0,1.0,10.0,-4.0,-6.0,1.0,-1.0,-1.0
1.695162473729645e+18,-1.0,-2.0,5.0,1.0,-2.0,-2.0,-1.0,-10.0
1.695162473744639e+18,1.0,-6.0,-31.0,-3.0,2.0,0.0,0.0,0.0
1.695162473744639e+18,6.0,10.0,-1.0,-3.0,-1.0,2.0,0.0,1.0
1.695162473783366e+18,-6.0,-4.0,23.0,-4.0,-5.0,-5.0,-3.0,-4.0
1.695162473783366e+18,-2.0,4.0,5.0,3.0,1.0,1.0,-1.0,-7.0
1.695162473784358e+18,-3.0,3.0,11.0,0.0,0.0,3.0,-1.0,5.0
1.6951624737853586e+18,1.0,-3.0,-20.0,1.0,-3.0,0.0,0.0,9.0
1.6951624737853586e+18,1.0,0.0,-18.0,-6.0,-2.0,0.0,0.0,-3.0
1.6951624737853586e+18,-4.0,-9.0,-39.0,-3.0,-2.0,-3.0,-4.0,-5.0
1.6951624737923543e+18,-2.0,-1.0,2.0,-5.0,-2.0,-2.0,1.0,5.0
1.6951624737973724e+18,1.0,-3.0,20.0,0.0,-1.0,-2.0,1.0,0.0
1.6951624737983498e+18,1.0,6.0,-8.0,-2.0,-1.0,2.0,0.0,-3.0
1.6951624737983498e+18,0.0,-9.0,-10.0,0.0,1.0,1.0,0.0,-1.0
1.6951624738121976e+18,0.0,6.0,0.0,-4.0,-1.0,-1.0,-2.0,2.0
1.6951624738131666e+18,1.0,-4.0,1.0,0.0,1.0,1.0,-1.0,0.0
1.6951624738131666e+18,0.0,6.0,13.0,2.0,0.0,-1.0,-1.0,-6.0
1.6951624738131666e+18,2.0,1.0,-14.0,-4.0,1.0,-1.0,1.0,1.0
1.695162473815164e+18,0.0,2.0,-11.0,-3.0,-3.0,-1.0,0.0,1.0
1.695162473815164e+18,-1.0,-5.0,17.0,3.0,-2.0,-2.0,-1.0,0.0
1.6951624738251904e+18,0.0,0.0,-2.0,-2.0,0.0,-2.0,0.0,0.0
1.6951624738261617e+18,0.0,6.0,12.0,-1.0,-2.0,-1.0,-1.0,-3.0
1.695162473834576e+18,-2.0,-8.0,8.0,2.0,3.0,0.0,0.0,-1.0
1.695162473834576e+18,0.0,1.0,-22.0,-3.0,1.0,2.0,0.0,1.0
1.6951624738496312e+18,-1.0,-3.0,5.0,4.0,-3.0,0.0,0.0,-3.0
1.6951624738496312e+18,-1.0,3.0,6.0,-7.0,-2.0,-2.0,-1.0,-2.0
1.6951624738506304e+18,2.0,6.0,15.0,6.0,0.0,-3.0,-2.0,1.0
1.6951624738516293e+18,-2.0,-10.0,-17.0,-2.0,-1.0,-3.0,-2.0,1.0
1.695162473871569e+18,0.0,2.0,-4.0,1.0,6.0,5.0,2.0,0.0
1.695162473871569e+18,-3.0,1.0,20.0,9.0,0.0,0.0,-4.0,-2.0
1.6951624738735693e+18,-3.0,-3.0,-8.0,-16.0,-5.0,0.0,-1.0,-1.0
1.6951624738735693e+18,-1.0,1.0,-18.0,1.0,-3.0,-6.0,-2.0,-2.0
1.69516247388757e+18,0.0,0.0,5.0,2.0,0.0,0.0,-4.0,-2.0
1.6951624738925596e+18,-3.0,-2.0,11.0,-1.0,0.0,0.0,0.0,0.0
1.6951624739245435e+18,1.0,-4.0,-19.0,1.0,2.0,1.0,0.0,1.0
1.695162473925539e+18,0.0,1.0,9.0,11.0,-1.0,-1.0,-1.0,-5.0
1.695162473925539e+18,-2.0,-7.0,-5.0,-14.0,-3.0,-3.0,-3.0,0.0
1.695162473925539e+18,-2.0,-3.0,6.0,1.0,-5.0,-4.0,0.0,-1.0
1.6951624739275607e+18,-2.0,-1.0,-8.0,10.0,-2.0,-5.0,-3.0,1.0
1.6951624739275607e+18,0.0,-4.0,-2.0,-7.0,1.0,2.0,3.0,2.0
1.6951624739405317e+18,-7.0,2.0,-2.0,3.0,-4.0,-3.0,-3.0,-3.0
1.6951624739405317e+18,3.0,-1.0,4.0,-12.0,-3.0,-3.0,-1.0,0.0
1.6951624739415306e+18,-2.0,3.0,13.0,10.0,0.0,0.0,0.0,1.0
1.6951624739415306e+18,1.0,5.0,-10.0,-4.0,-2.0,-1.0,0.0,1.0
1.695162473961626e+18,0.0,-5.0,2.0,1.0,-1.0,1.0,1.0,-1.0
1.6951624739625884e+18,-3.0,-3.0,-13.0,-9.0,0.0,-3.0,-3.0,-3.0
1.695162473963588e+18,-1.0,-2.0,-1.0,-1.0,-2.0,-1.0,0.0,-1.0
1.695162473963588e+18,-1.0,-1.0,-11.0,-3.0,2.0,1.0,0.0,0.0
1.6951624739768602e+18,0.0,-2.0,7.0,8.0,2.0,-3.0,-1.0,-2.0
1.695162473977865e+18,1.0,2.0,18.0,-6.0,-1.0,1.0,0.0,-2.0
1.6951624739788664e+18,2.0,-1.0,-10.0,2.0,-2.0,-1.0,-1.0,0.0
1.6951624739788664e+18,-3.0,-3.0,9.0,-1.0,-5.0,-5.0,-4.0,-4.0
1.695162473991378e+18,0.0,-3.0,-14.0,-2.0,-2.0,4.0,2.0,-1.0
1.695162473991378e+18,0.0,-4.0,13.0,15.0,3.0,0.0,0.0,0.0
1.6951624739994524e+18,-2.0,-2.0,-16.0,-15.0,-3.0,1.0,-1.0,-3.0
1.6951624740004628e+18,0.0,0.0,10.0,-2.0,3.0,1.0,0.0,-1.0
1.695162474005452e+18,-1.0,-3.0,-6.0,3.0,-2.0,-1.0,0.0,-1.0
1.695162474005452e+18,-2.0,1.0,-9.0,3.0,-1.0,-2.0,-1.0,0.0
1.6951624740145106e+18,-1.0,-4.0,2.0,-2.0,0.0,2.0,1.0,0.0
1.6951624740145106e+18,0.0,0.0,-18.0,1.0,-4.0,-4.0,-2.0,-1.0
1.695162474028531e+18,1.0,3.0,-10.0,-11.0,-3.0,-4.0,-2.0,-1.0
1.695162474028531e+18,-4.0,-4.0,6.0,6.0,1.0,2.0,-1.0,-2.0
1.6951624740415002e+18,0.0,2.0,-3.0,0.0,0.0,0.0,1.0,1.0
1.6951624740415002e+18,0.0,-5.0,10.0,1.0,1.0,2.0,0.0,2.0
1.695162474051631e+18,-2.0,3.0,-2.0,-2.0,-2.0,-1.0,-1.0,-2.0
1.695162474051631e+18,-1.0,2.0,0.0,8.0,-1.0,-1.0,0.0,-2.0
1.6951624740536054e+18,-2.0,-4.0,-12.0,1.0,-2.0,-3.0,-1.0,-1.0
1.6951624740536054e+18,1.0,5.0,32.0,0.0,0.0,1.0,2.0,2.0
1.6951624740745472e+18,1.0,13.0,3.0,5.0,2.0,1.0,-1.0,0.0
1.6951624740745472e+18,-2.0,-7.0,-3.0,-13.0,-4.0,-2.0,-2.0,-1.0
1.6951624740765468e+18,0.0,-2.0,-2.0,7.0,2.0,0.0,0.0,-4.0
1.6951624740765468e+18,-2.0,-5.0,-10.0,-4.0,-4.0,-1.0,-1.0,1.0
1.6951624740885688e+18,0.0,-1.0,-4.0,-5.0,1.0,-1.0,1.0,0.0
1.6951624740885688e+18,-1.0,1.0,1.0,2.0,-2.0,-1.0,0.0,-1.0
1.695162474095565e+18,-1.0,0.0,7.0,-4.0,-2.0,-2.0,-3.0,0.0
1.695162474095565e+18,-1.0,-4.0,-20.0,-1.0,2.0,0.0,0.0,-1.0
1.6951624741115543e+18,-1.0,-3.0,8.0,-4.0,-2.0,-1.0,-2.0,-1.0
1.6951624741115543e+18,0.0,2.0,-11.0,-3.0,-1.0,-1.0,0.0,0.0
1.6951624741195528e+18,-1.0,-1.0,4.0,-6.0,-1.0,1.0,1.0,0.0
1.6951624741195528e+18,0.0,-5.0,2.0,3.0,0.0,2.0,0.0,-2.0
1.6951624741340895e+18,0.0,-1.0,-6.0,-2.0,-4.0,-2.0,-2.0,-1.0
1.6951624741340895e+18,2.0,4.0,10.0,0.0,1.0,-1.0,-3.0,-2.0
1.6951624741404157e+18,-2.0,-1.0,-8.0,-2.0,0.0,-4.0,-1.0,-2.0
1.6951624741404157e+18,-1.0,-5.0,-13.0,0.0,1.0,1.0,0.0,-1.0
1.6951624741484242e+18,-2.0,-2.0,2.0,-3.0,0.0,-1.0,-1.0,-2.0
1.6951624741494364e+18,-1.0,-5.0,-2.0,0.0,-2.0,-2.0,0.0,0.0
1.6951624741554964e+18,-2.0,-3.0,-11.0,-1.0,0.0,0.0,-1.0,-2.0
1.6951624741554964e+18,-2.0,-2.0,-5.0,0.0,-1.0,-4.0,-2.0,0.0
1.6951624741764813e+18,-1.0,3.0,6.0,-3.0,-3.0,-1.0,0.0,1.0
1.695162474177481e+18,0.0,-2.0,-8.0,1.0,0.0,3.0,1.0,2.0
1.69516247417848e+18,1.0,2.0,6.0,4.0,2.0,4.0,0.0,1.0
1.6951624741794826e+18,-3.0,0.0,0.0,-2.0,-1.0,2.0,1.0,-1.0
1.6951624742020221e+18,0.0,-2.0,1.0,0.0,-3.0,-4.0,-2.0,-2.0
1.6951624742020221e+18,-1.0,0.0,0.0,-1.0,-1.0,-4.0,-2.0,0.0
1.69516247420302e+18,0.0,-3.0,4.0,-1.0,-4.0,-4.0,-1.0,-1.0
1.6951624742040192e+18,-2.0,5.0,-2.0,-1.0,1.0,-1.0,-2.0,-3.0
1.6951624742086175e+18,-1.0,-12.0,11.0,3.0,1.0,-1.0,-1.0,-2.0
1.6951624742086175e+18,-1.0,2.0,-8.0,-5.0,-2.0,1.0,-1.0,-1.0
1.695162474215546e+18,-3.0,-3.0,-12.0,-2.0,-2.0,1.0,1.0,0.0
1.69516247421655e+18,0.0,0.0,7.0,0.0,-2.0,-1.0,-1.0,-1.0
1.6951624742325763e+18,-1.0,1.0,-22.0,-2.0,-1.0,0.0,1.0,1.0
1.6951624742325763e+18,0.0,2.0,-3.0,-2.0,3.0,0.0,1.0,1.0
1.6951624742345738e+18,-1.0,-1.0,-2.0,1.0,-3.0,0.0,0.0,-1.0
1.6951624742345738e+18,-1.0,-5.0,9.0,4.0,2.0,0.0,-1.0,-1.0
1.6951624742546278e+18,-1.0,-2.0,-8.0,1.0,0.0,-1.0,0.0,-1.0
1.6951624742556326e+18,-3.0,-6.0,-21.0,-16.0,-5.0,-3.0,0.0,-4.0
1.6951624742566254e+18,0.0,3.0,-4.0,-7.0,-2.0,-2.0,0.0,1.0
1.6951624742566254e+18,-2.0,0.0,-3.0,1.0,-2.0,-1.0,0.0,-2.0
1.69516247426762e+18,-1.0,3.0,12.0,1.0,1.0,1.0,0.0,-1.0
1.6951624742686372e+18,-1.0,1.0,4.0,3.0,-1.0,-1.0,0.0,-1.0
1.6951624742796147e+18,-2.0,-2.0,9.0,0.0,0.0,-2.0,-1.0,-2.0
1.6951624742796147e+18,1.0,0.0,-1.0,-3.0,-1.0,-3.0,0.0,-1.0
1.695162474291632e+18,-3.0,-1.0,-1.0,0.0,1.0,2.0,1.0,0.0
1.695162474291632e+18,1.0,1.0,3.0,2.0,0.0,0.0,-1.0,0.0
1.6951624742936033e+18,1.0,-1.0,5.0,-2.0,-2.0,-1.0,-3.0,-1.0
1.6951624742936033e+18,-2.0,1.0,0.0,-3.0,-2.0,1.0,-1.0,-1.0
1.6951624743185923e+18,-1.0,-1.0,-10.0,-3.0,-2.0,-2.0,1.0,-2.0
1.6951624743215908e+18,1.0,1.0,6.0,1.0,-1.0,-1.0,0.0,-1.0
1.6951624743215908e+18,0.0,0.0,7.0,3.0,2.0,0.0,0.0,0.0
1.6951624743215908e+18,-2.0,-2.0,-7.0,-4.0,-1.0,-1.0,-2.0,0.0
1.695162474327585e+18,-2.0,-1.0,4.0,0.0,0.0,0.0,0.0,0.0
1.6951624743285855e+18,-2.0,-2.0,-8.0,-5.0,0.0,-1.0,-1.0,-1.0
1.6951624743425774e+18,0.0,-1.0,5.0,1.0,0.0,-2.0,0.0,-1.0
1.6951624743435748e+18,0.0,2.0,-2.0,1.0,0.0,-2.0,-2.0,1.0
1.6951624743515697e+18,0.0,-1.0,3.0,-1.0,0.0,0.0,0.0,1.0
1.6951624743515697e+18,1.0,1.0,5.0,5.0,1.0,0.0,1.0,-2.0
1.6951624743535693e+18,-1.0,-4.0,-11.0,-6.0,-4.0,0.0,-1.0,0.0
1.6951624743535693e+18,-3.0,1.0,-2.0,-1.0,-1.0,-1.0,-1.0,1.0
1.6951624743745585e+18,0.0,-2.0,-6.0,-2.0,0.0,0.0,-2.0,0.0
1.6951624743745585e+18,-1.0,-1.0,6.0,2.0,-1.0,0.0,0.0,0.0
1.6951624743760543e+18,0.0,-2.0,0.0,-2.0,1.0,0.0,-2.0,-2.0
1.6951624743760543e+18,0.0,-2.0,-1.0,-2.0,-1.0,-1.0,-1.0,-1.0
1.6951624743973184e+18,0.0,1.0,3.0,0.0,-1.0,-3.0,0.0,0.0
1.6951624743973184e+18,-2.0,-1.0,-1.0,0.0,0.0,-1.0,0.0,-2.0
1.6951624743983142e+18,-1.0,0.0,0.0,0.0,-1.0,0.0,-1.0,0.0
1.6951624743983142e+18,1.0,-2.0,0.0,1.0,0.0,-1.0,0.0,-1.0
1.6951624744194286e+18,0.0,0.0,-4.0,1.0,-1.0,1.0,-1.0,-2.0
1.695162474421429e+18,-2.0,-2.0,0.0,2.0,-1.0,-2.0,-3.0,-1.0
1.6951624744254264e+18,-1.0,0.0,-1.0,0.0,-2.0,-1.0,-1.0,-2.0
1.6951624744254264e+18,0.0,-1.0,0.0,-1.0,-2.0,0.0,-1.0,-1.0
1.6951624744344197e+18,0.0,-2.0,-3.0,-3.0,-2.0,0.0,-1.0,1.0
1.6951624744344197e+18,0.0,-1.0,0.0,1.0,-1.0,-2.0,-1.0,0.0
1.6951624744354207e+18,0.0,0.0,-1.0,-2.0,0.0,-3.0,-1.0,-1.0
1.6951624744364227e+18,-2.0,0.0,-2.0,-1.0,0.0,-1.0,0.0,0.0
1.6951624744564956e+18,0.0,0.0,-2.0,0.0,-2.0,-3.0,-1.0,-2.0
1.6951624744574948e+18,-1.0,0.0,2.0,1.0,-2.0,1.0,-1.0,-1.0
1.6951624744584922e+18,-3.0,-1.0,-2.0,-2.0,-1.0,0.0,-1.0,-1.0
1.6951624744584922e+18,1.0,-1.0,-1.0,0.0,-2.0,-2.0,0.0,-1.0
1.6951624744713846e+18,-2.0,0.0,-3.0,-1.0,1.0,-1.0,-1.0,0.0
1.695162474472385e+18,0.0,0.0,-1.0,-2.0,0.0,1.0,-1.0,1.0
1.6951624744783775e+18,-1.0,0.0,0.0,1.0,0.0,-1.0,0.0,0.0
1.6951624744783775e+18,-1.0,-2.0,-2.0,1.0,0.0,-1.0,-1.0,-2.0
1.695162474496367e+18,0.0,0.0,1.0,-1.0,-1.0,0.0,-1.0,0.0
1.6951624744973663e+18,-2.0,-1.0,-1.0,-1.0,-1.0,0.0,-2.0,-1.0
1.6951624744973663e+18,0.0,-1.0,0.0,-1.0,0.0,0.0,0.0,0.0
1.695162474498367e+18,-1.0,-1.0,0.0,0.0,0.0,-1.0,-2.0,-2.0
1.6951624745093673e+18,1.0,-1.0,-1.0,-1.0,-1.0,-3.0,-1.0,0.0
1.695162474532346e+18,0.0,-1.0,0.0,0.0,-2.0,-1.0,-1.0,-1.0
1.6951624745343462e+18,-1.0,1.0,4.0,1.0,0.0,1.0,-1.0,0.0
1.6951624745353439e+18,-1.0,-1.0,-8.0,-6.0,0.0,0.0,0.0,1.0
1.6951624745363558e+18,-1.0,0.0,0.0,-2.0,-1.0,-2.0,-1.0,-1.0
1.69516247453835e+18,-1.0,-2.0,-6.0,-1.0,-1.0,-1.0,0.0,0.0
1.6951624745393426e+18,-2.0,1.0,-1.0,-2.0,-1.0,-2.0,0.0,-1.0
1.6951624745393426e+18,1.0,0.0,5.0,1.0,0.0,0.0,0.0,-1.0
1.6951624745553334e+18,-1.0,-2.0,-2.0,-1.0,1.0,-2.0,-2.0,-1.0
1.6951624745563323e+18,-1.0,-2.0,-1.0,0.0,1.0,0.0,-2.0,-2.0
1.6951624745573366e+18,0.0,1.0,2.0,-1.0,0.0,-1.0,-1.0,1.0
1.6951624745573366e+18,0.0,-1.0,0.0,0.0,0.0,1.0,0.0,-1.0
1.6951624745683256e+18,-2.0,-2.0,-1.0,-2.0,-1.0,0.0,1.0,-1.0
1.6951624745693286e+18,-1.0,0.0,1.0,-1.0,-2.0,0.0,-2.0,0.0
1.69516247457732e+18,-2.0,-1.0,-7.0,-1.0,0.0,-1.0,-1.0,-2.0
1.695162474578323e+18,-1.0,-2.0,9.0,-1.0,-2.0,-2.0,-1.0,-1.0
1.6951624745923123e+18,-1.0,-1.0,-8.0,-4.0,1.0,0.0,-1.0,-2.0
1.6951624745933107e+18,-1.0,1.0,0.0,3.0,2.0,0.0,-1.0,0.0
1.6951624745943163e+18,2.0,-1.0,-2.0,-2.0,-1.0,2.0,-1.0,-1.0
1.6951624745943163e+18,-1.0,-1.0,-1.0,-2.0,0.0,1.0,1.0,-2.0
1.695162474615299e+18,0.0,0.0,2.0,0.0,-1.0,0.0,-1.0,0.0
1.6951624746162993e+18,0.0,0.0,-2.0,-2.0,-1.0,-2.0,-1.0,-2.0
1.6951624746162993e+18,-1.0,-1.0,0.0,-1.0,0.0,-1.0,-1.0,-1.0
1.6951624746172982e+18,0.0,-2.0,-4.0,-1.0,-1.0,-2.0,-2.0,-1.0
1.695162474628292e+18,1.0,-1.0,-1.0,-2.0,-3.0,0.0,0.0,-1.0
1.695162474629296e+18,0.0,2.0,0.0,-2.0,-1.0,-1.0,0.0,0.0
1.6951624746522842e+18,-2.0,-2.0,0.0,0.0,1.0,-1.0,0.0,-1.0
1.6951624746632755e+18,0.0,1.0,0.0,0.0,-1.0,-2.0,-1.0,0.0
1.6951624746642788e+18,0.0,0.0,0.0,0.0,1.0,-1.0,-1.0,0.0
1.6951624746652695e+18,-2.0,-1.0,0.0,0.0,-1.0,-1.0,-2.0,-1.0
1.6951624746652695e+18,0.0,0.0,-1.0,-1.0,-2.0,-1.0,0.0,-1.0
1.6951624746662764e+18,-2.0,-2.0,-5.0,-2.0,0.0,-2.0,0.0,1.0
1.6951624746852654e+18,-1.0,-1.0,-4.0,-1.0,-1.0,-2.0,-1.0,-1.0
1.6951624746862587e+18,1.0,-1.0,3.0,0.0,0.0,-1.0,-1.0,-2.0
1.6951624746872645e+18,-2.0,-1.0,-10.0,-6.0,-1.0,-2.0,-1.0,0.0
1.6951624746872645e+18,2.0,1.0,0.0,2.0,0.0,-2.0,0.0,-1.0
1.695162474688269e+18,-1.0,-1.0,0.0,0.0,0.0,0.0,-2.0,-1.0
1.695162474688269e+18,-1.0,0.0,0.0,-1.0,0.0,1.0,-1.0,0.0
1.6951624746972557e+18,-1.0,-2.0,0.0,0.0,-1.0,-1.0,-1.0,-1.0
1.6951624746972557e+18,-2.0,0.0,1.0,-1.0,-1.0,0.0,0.0,-1.0
1.695162474712243e+18,0.0,0.0,7.0,4.0,1.0,0.0,1.0,1.0
1.695162474713249e+18,-2.0,-2.0,-5.0,-2.0,0.0,-1.0,1.0,0.0
1.6951624747142423e+18,0.0,3.0,5.0,3.0,0.0,-1.0,-1.0,0.0
1.6951624747142423e+18,-3.0,-6.0,6.0,0.0,-1.0,-3.0,-2.0,-1.0
1.6951624747352307e+18,-3.0,-4.0,-15.0,-3.0,-3.0,-1.0,-1.0,-4.0
1.695162474736229e+18,-1.0,1.0,8.0,1.0,0.0,-1.0,0.0,-2.0
1.695162474736229e+18,0.0,0.0,3.0,-1.0,-2.0,0.0,0.0,1.0
1.6951624747372365e+18,1.0,1.0,0.0,0.0,-3.0,-1.0,-1.0,1.0
1.6951624747582172e+18,0.0,-1.0,5.0,1.0,0.0,-1.0,-2.0,0.0
1.6951624747592164e+18,0.0,1.0,-5.0,-3.0,0.0,-1.0,0.0,0.0
1.695162474760221e+18,0.0,-2.0,-2.0,0.0,0.0,-1.0,-2.0,-2.0
1.695162474761216e+18,0.0,-1.0,-7.0,-2.0,0.0,1.0,0.0,-1.0
1.695162474773208e+18,0.0,0.0,1.0,-2.0,-1.0,-1.0,0.0,-1.0
1.695162474773208e+18,-1.0,0.0,-2.0,-1.0,-1.0,0.0,-2.0,-1.0
1.695162474780205e+18,-1.0,-1.0,-3.0,-1.0,-2.0,-1.0,-2.0,-1.0
1.6951624747812037e+18,-2.0,2.0,2.0,-2.0,-2.0,-2.0,0.0,-2.0
1.695162474799194e+18,0.0,1.0,1.0,-1.0,-1.0,-1.0,1.0,-2.0
1.6951624748031944e+18,0.0,-2.0,2.0,0.0,-1.0,-2.0,-2.0,0.0
1.6951624748041953e+18,0.0,0.0,-3.0,0.0,0.0,-2.0,1.0,-1.0
1.6951624748041953e+18,-1.0,0.0,-3.0,-1.0,-1.0,-1.0,-2.0,-2.0
1.695162474817182e+18,-2.0,-1.0,-1.0,0.0,-3.0,-1.0,-1.0,-1.0
1.6951624748181814e+18,-2.0,-1.0,-3.0,-3.0,-3.0,-1.0,-1.0,-2.0
1.6951624748181814e+18,0.0,-1.0,-1.0,0.0,0.0,0.0,0.0,-1.0
1.6951624748191834e+18,-1.0,-2.0,-4.0,-1.0,1.0,1.0,-1.0,-1.0
1.6951624748301734e+18,-1.0,-1.0,1.0,-1.0,1.0,0.0,1.0,-1.0
1.6951624748311744e+18,-2.0,-1.0,-2.0,0.0,0.0,1.0,1.0,1.0
1.695162474839174e+18,-2.0,1.0,7.0,-1.0,-1.0,0.0,0.0,-1.0
1.6951624748401746e+18,-1.0,-1.0,-1.0,-2.0,-2.0,0.0,-2.0,-2.0
1.695162474871151e+18,-1.0,-2.0,-10.0,-3.0,-2.0,0.0,-2.0,-1.0
1.6951624748791462e+18,-1.0,-3.0,4.0,0.0,-2.0,-1.0,0.0,0.0
1.6951624748791462e+18,-1.0,-1.0,-1.0,0.0,-1.0,-2.0,0.0,1.0
1.6951624748791462e+18,0.0,1.0,1.0,2.0,1.0,-1.0,-1.0,0.0
1.6951624748801513e+18,0.0,1.0,6.0,-2.0,-2.0,-2.0,1.0,-2.0
1.6951624748801513e+18,-1.0,-1.0,-3.0,-1.0,-1.0,1.0,-1.0,-3.0
1.695162474884146e+18,-1.0,-1.0,-3.0,0.0,-1.0,-2.0,-2.0,0.0
1.695162474885143e+18,-1.0,2.0,-10.0,0.0,-1.0,-2.0,-1.0,0.0
1.6951624748911442e+18,-2.0,-9.0,9.0,-1.0,-1.0,-1.0,-1.0,-1.0
1.6951624748921398e+18,-1.0,0.0,-7.0,-1.0,0.0,-1.0,0.0,-2.0
1.6951624748981348e+18,0.0,1.0,2.0,0.0,1.0,-1.0,0.0,-1.0
1.6951624748981348e+18,-1.0,1.0,-2.0,-3.0,0.0,1.0,0.0,0.0
1.6951624749221217e+18,-1.0,0.0,-2.0,0.0,0.0,-1.0,0.0,1.0
1.6951624749221217e+18,-2.0,-2.0,-1.0,-2.0,0.0,-1.0,-1.0,1.0
1.6951624749231212e+18,0.0,-2.0,1.0,0.0,0.0,0.0,0.0,-1.0
1.6951624749241213e+18,-1.0,-1.0,-2.0,-2.0,-1.0,0.0,-2.0,-3.0
1.695162474928118e+18,1.0,1.0,0.0,-1.0,-1.0,0.0,1.0,-2.0
1.695162474928118e+18,1.0,0.0,0.0,-1.0,1.0,-2.0,-1.0,0.0
1.6951624749371146e+18,0.0,-1.0,0.0,-2.0,-1.0,2.0,1.0,-1.0
1.6951624749371146e+18,-2.0,-1.0,-4.0,-3.0,-1.0,-2.0,-2.0,1.0
1.695162474952105e+18,0.0,0.0,0.0,1.0,1.0,-2.0,-2.0,0.0
1.695162474952105e+18,0.0,0.0,2.0,-1.0,-1.0,-1.0,0.0,1.0
1.695162474958103e+18,-1.0,-2.0,-3.0,-2.0,0.0,-2.0,-1.0,0.0
1.6951624749591066e+18,-1.0,-4.0,-2.0,1.0,-2.0,0.0,1.0,-3.0
1.6951624749740946e+18,0.0,1.0,-2.0,-1.0,-2.0,1.0,-1.0,-1.0
1.6951624749750986e+18,-1.0,-2.0,-3.0,-2.0,-1.0,-1.0,0.0,-1.0
1.695162474976091e+18,-2.0,-1.0,5.0,0.0,-2.0,-2.0,-2.0,0.0
1.695162474976091e+18,-1.0,-2.0,4.0,-1.0,1.0,0.0,0.0,0.0
1.695162474996817e+18,-2.0,0.0,-10.0,0.0,-1.0,-2.0,-1.0,-1.0
1.695162474996817e+18,0.0,-1.0,-5.0,0.0,0.0,1.0,0.0,-1.0
1.6951624749988209e+18,-2.0,-2.0,1.0,-1.0,-3.0,-1.0,-1.0,0.0
1.6951624749988209e+18,0.0,0.0,3.0,0.0,0.0,1.0,-1.0,-1.0
1.6951624750120878e+18,-1.0,-1.0,-2.0,-2.0,-1.0,-1.0,-1.0,1.0
1.6951624750120878e+18,-1.0,-2.0,1.0,0.0,-3.0,-1.0,-1.0,0.0
1.695162475018457e+18,-1.0,-1.0,-1.0,-1.0,-1.0,-1.0,-2.0,-2.0
1.695162475018457e+18,1.0,0.0,-2.0,2.0,1.0,-1.0,1.0,-1.0
1.6951624750343572e+18,1.0,0.0,2.0,4.0,1.0,0.0,-2.0,-1.0
1.6951624750343572e+18,-1.0,-1.0,1.0,0.0,0.0,-1.0,0.0,-2.0
1.695162475036353e+18,0.0,-2.0,-7.0,-2.0,-1.0,-1.0,-1.0,-2.0
1.695162475036353e+18,-3.0,-3.0,-2.0,-1.0,-2.0,-1.0,-2.0,-1.0
1.6951624750566538e+18,-1.0,-1.0,1.0,-3.0,-2.0,-2.0,-1.0,1.0
1.695162475057662e+18,-1.0,2.0,2.0,0.0,-1.0,-1.0,0.0,2.0
1.6951624750586803e+18,-1.0,-2.0,0.0,0.0,-3.0,-3.0,1.0,-1.0
1.6951624750586803e+18,1.0,-2.0,-7.0,-1.0,0.0,-2.0,-1.0,2.0
1.6951624750711232e+18,-1.0,6.0,7.0,0.0,0.0,-1.0,-1.0,-1.0
1.6951624750721226e+18,-1.0,-11.0,1.0,-1.0,-1.0,0.0,-1.0,0.0
1.6951624750855442e+18,-1.0,-1.0,-13.0,-2.0,-1.0,0.0,-1.0,1.0
1.695162475086549e+18,0.0,1.0,6.0,0.0,-1.0,0.0,0.0,0.0
1.695162475095568e+18,0.0,-2.0,2.0,1.0,1.0,-2.0,0.0,-1.0
1.6951624751015414e+18,0.0,1.0,0.0,-1.0,0.0,-2.0,-1.0,-1.0
1.6951624751025398e+18,-1.0,0.0,-1.0,0.0,3.0,0.0,-1.0,-1.0
1.6951624751035392e+18,-2.0,-2.0,0.0,-1.0,-2.0,-1.0,-1.0,-1.0
1.695162475124527e+18,0.0,-1.0,-2.0,0.0,-2.0,0.0,-1.0,0.0
1.695162475125531e+18,-1.0,3.0,0.0,1.0,-2.0,-1.0,0.0,0.0
1.695162475126527e+18,1.0,-1.0,1.0,-2.0,0.0,0.0,-1.0,0.0
1.695162475126527e+18,0.0,1.0,0.0,-1.0,1.0,-2.0,-1.0,-2.0
1.6951624751315392e+18,0.0,-2.0,6.0,-1.0,-2.0,0.0,-1.0,0.0
1.6951624751315392e+18,0.0,-1.0,-11.0,-1.0,-1.0,-2.0,-1.0,-2.0
1.695162475138547e+18,-1.0,1.0,6.0,0.0,-2.0,0.0,-1.0,-1.0
1.695162475138547e+18,1.0,-1.0,-13.0,-4.0,-3.0,0.0,0.0,0.0
1.6951624751615434e+18,-1.0,-3.0,0.0,-1.0,-1.0,-1.0,0.0,-1.0
1.69516247516255e+18,0.0,0.0,2.0,0.0,-1.0,-1.0,-1.0,-1.0
1.6951624751635512e+18,-1.0,0.0,-3.0,0.0,0.0,0.0,-1.0,-1.0
1.6951624751635512e+18,-1.0,0.0,0.0,-1.0,0.0,-2.0,-1.0,-1.0
1.6951624751768164e+18,-1.0,-1.0,0.0,0.0,0.0,-1.0,0.0,-2.0
1.6951624751768164e+18,0.0,1.0,-1.0,-2.0,-3.0,0.0,-1.0,-1.0
1.695162475178824e+18,1.0,-1.0,2.0,-1.0,1.0,1.0,1.0,-1.0
1.695162475178824e+18,-1.0,0.0,0.0,-1.0,-2.0,0.0,-1.0,0.0
1.6951624752510753e+18,-2.0,0.0,-4.0,-2.0,-2.0,0.0,1.0,0.0
1.6951624752510753e+18,-2.0,-1.0,0.0,-1.0,1.0,-1.0,-1.0,-1.0
1.6951624752530752e+18,-1.0,0.0,-1.0,-1.0,-1.0,-1.0,-1.0,-2.0
1.6951624752540744e+18,1.0,1.0,5.0,1.0,-1.0,-1.0,-1.0,-2.0
1.6951624752540744e+18,-2.0,-6.0,-2.0,-5.0,-2.0,0.0,-2.0,0.0
1.695162475255074e+18,1.0,0.0,4.0,1.0,1.0,-1.0,-1.0,0.0
1.695162475255074e+18,0.0,-2.0,-8.0,-2.0,-1.0,-1.0,-3.0,0.0
1.6951624752560737e+18,0.0,-3.0,-2.0,-3.0,-2.0,-1.0,-1.0,-2.0
1.6951624752560737e+18,-1.0,-1.0,-4.0,1.0,-1.0,0.0,-1.0,0.0
1.6951624752570734e+18,0.0,3.0,8.0,-1.0,-2.0,-1.0,-2.0,-2.0
1.6951624752570734e+18,-2.0,-1.0,1.0,-3.0,-1.0,-1.0,0.0,-1.0
1.695162475258072e+18,-1.0,-2.0,-2.0,-1.0,0.0,0.0,-2.0,-1.0
1.695162475258072e+18,0.0,-1.0,-3.0,0.0,-2.0,-3.0,0.0,0.0
1.6951624752590743e+18,-1.0,1.0,-5.0,0.0,-1.0,-1.0,0.0,0.0
1.6951624752670684e+18,-1.0,-2.0,1.0,1.0,-2.0,-2.0,0.0,0.0
1.6951624752670684e+18,0.0,0.0,2.0,-2.0,0.0,0.0,0.0,0.0
1.6951624752830653e+18,-1.0,-1.0,-5.0,-1.0,0.0,0.0,-1.0,-2.0
1.6951624752830653e+18,-1.0,0.0,-2.0,-1.0,-1.0,-1.0,-2.0,0.0
1.695162475284059e+18,0.0,1.0,1.0,-1.0,-1.0,-1.0,-1.0,-1.0
1.6951624752850568e+18,-1.0,-1.0,-13.0,-3.0,0.0,-1.0,-2.0,0.0
1.6951624752970488e+18,-1.0,0.0,0.0,0.0,1.0,-1.0,-1.0,-2.0
1.6951624752970488e+18,0.0,-1.0,-2.0,-1.0,2.0,-1.0,-1.0,-1.0
1.6951624752990487e+18,0.0,-1.0,-1.0,-1.0,0.0,1.0,-1.0,1.0
1.6951624752990487e+18,0.0,-2.0,6.0,0.0,-1.0,0.0,0.0,0.0
1.6951624753104886e+18,-1.0,-2.0,-11.0,-4.0,-2.0,-2.0,-1.0,0.0
1.6951624753104886e+18,0.0,-1.0,5.0,0.0,-1.0,-1.0,-2.0,-1.0
1.6951624753197187e+18,0.0,-2.0,-5.0,-2.0,-1.0,-1.0,1.0,-1.0
1.6951624753197187e+18,0.0,0.0,3.0,2.0,-2.0,0.0,1.0,0.0
1.6951624753343283e+18,-1.0,-1.0,1.0,-2.0,-2.0,-1.0,-1.0,0.0
1.6951624753343283e+18,-2.0,-3.0,-4.0,-3.0,1.0,2.0,-2.0,-1.0
1.695162475336331e+18,-1.0,-2.0,-1.0,-1.0,-2.0,0.0,-2.0,0.0
1.695162475336331e+18,-1.0,1.0,-1.0,-1.0,-1.0,-1.0,-1.0,0.0
1.6951624753559565e+18,-2.0,7.0,11.0,3.0,1.0,-1.0,-1.0,0.0
1.6951624753559565e+18,0.0,-6.0,-13.0,1.0,1.0,0.0,-2.0,0.0
1.695162475364174e+18,-2.0,-1.0,0.0,-2.0,-2.0,-2.0,0.0,-3.0
1.695162475364174e+18,0.0,-1.0,-1.0,0.0,-1.0,0.0,0.0,-2.0
1.6951624753704904e+18,-1.0,-1.0,0.0,1.0,0.0,0.0,0.0,-1.0
1.6951624753704904e+18,1.0,1.0,11.0,0.0,-1.0,0.0,0.0,0.0
1.695162475379735e+18,-1.0,-2.0,-8.0,-3.0,-1.0,0.0,-1.0,1.0
1.695162475379735e+18,0.0,0.0,1.0,2.0,0.0,-3.0,-1.0,0.0
1.695162475402907e+18,0.0,1.0,1.0,-2.0,1.0,-1.0,-1.0,-2.0
1.695162475402907e+18,-2.0,-1.0,-7.0,0.0,-3.0,0.0,0.0,-1.0
1.6951624754039086e+18,0.0,2.0,10.0,1.0,-2.0,-1.0,-2.0,1.0
1.695162475404906e+18,-2.0,-1.0,-1.0,-2.0,-1.0,-1.0,-1.0,0.0
1.6951624754338962e+18,1.0,-2.0,0.0,-3.0,-2.0,0.0,-1.0,1.0
1.695162475443885e+18,-4.0,-2.0,-10.0,-1.0,1.0,0.0,0.0,-2.0
1.6951624754518804e+18,-2.0,-3.0,0.0,-1.0,1.0,-2.0,-2.0,0.0
1.6951624754518804e+18,-2.0,0.0,0.0,0.0,-1.0,-1.0,0.0,-1.0
1.6951624754518804e+18,0.0,-3.0,-4.0,-1.0,-2.0,-1.0,-1.0,-2.0
1.6951624754528878e+18,-1.0,-1.0,3.0,-3.0,-3.0,-2.0,0.0,-1.0
1.6951624754558774e+18,-1.0,-1.0,0.0,2.0,-1.0,1.0,1.0,0.0
1.6951624754558774e+18,-1.0,-2.0,-2.0,-3.0,-1.0,0.0,0.0,-1.0
1.695162475456877e+18,-1.0,1.0,5.0,-1.0,-1.0,0.0,-1.0,-1.0
1.6951624754578808e+18,0.0,-1.0,-9.0,-1.0,-1.0,-2.0,-1.0,-1.0
1.6951624754588764e+18,0.0,1.0,6.0,0.0,0.0,0.0,0.0,0.0
1.6951624754588764e+18,1.0,0.0,-3.0,-2.0,-1.0,0.0,0.0,-2.0
1.6951624754778644e+18,-1.0,-2.0,-4.0,0.0,0.0,0.0,-1.0,-2.0
1.6951624754778644e+18,0.0,0.0,3.0,-1.0,-2.0,1.0,-2.0,0.0
1.695162475478865e+18,0.0,1.0,-2.0,-1.0,1.0,0.0,-2.0,-2.0
1.695162475479871e+18,0.0,-2.0,-2.0,0.0,-2.0,-3.0,-1.0,-2.0
1.6951624754908562e+18,-1.0,-2.0,-1.0,-2.0,-4.0,-3.0,-1.0,-2.0
1.6951624754918625e+18,-1.0,-3.0,1.0,-1.0,-2.0,-4.0,-1.0,-1.0
1.695162475500851e+18,-1.0,-3.0,-7.0,-1.0,-2.0,-1.0,-2.0,-2.0
1.6951624755018552e+18,-2.0,-1.0,-1.0,1.0,-2.0,-2.0,-1.0,-2.0
1.6951624755158428e+18,-2.0,-2.0,-4.0,-1.0,1.0,-1.0,0.0,-1.0
1.6951624755178468e+18,0.0,-1.0,-1.0,-1.0,0.0,-2.0,0.0,-1.0
1.6951624755188408e+18,0.0,0.0,-6.0,-1.0,-3.0,-3.0,0.0,-1.0
1.695162475519841e+18,-1.0,-1.0,-1.0,1.0,0.0,-1.0,-1.0,-1.0
1.6951624755378307e+18,0.0,-1.0,0.0,1.0,-2.0,-1.0,-1.0,-1.0
1.6951624755378307e+18,0.0,0.0,-2.0,-1.0,0.0,0.0,1.0,-1.0
1.6951624755388293e+18,0.0,-1.0,-1.0,-1.0,0.0,-2.0,0.0,-3.0
1.6951624755398364e+18,0.0,0.0,0.0,-2.0,-1.0,0.0,-2.0,0.0
1.695162475550822e+18,-1.0,-2.0,-4.0,-2.0,1.0,-1.0,-2.0,-2.0
1.695162475551822e+18,-1.0,-1.0,3.0,-2.0,-1.0,-2.0,-1.0,-1.0
1.6951624755608174e+18,-1.0,-1.0,-2.0,2.0,-2.0,-2.0,0.0,-1.0
1.695162475561825e+18,-1.0,-2.0,5.0,1.0,-2.0,-2.0,-1.0,-1.0
1.6951624755917993e+18,-2.0,-2.0,-14.0,-4.0,-1.0,-2.0,-1.0,-1.0
1.6951624756028078e+18,-1.0,-1.0,-1.0,-1.0,-2.0,-1.0,-1.0,0.0
1.695162475603827e+18,0.0,1.0,0.0,-1.0,-2.0,-2.0,-1.0,0.0
1.695162475603827e+18,-1.0,0.0,0.0,-1.0,-1.0,-1.0,-1.0,-1.0
1.6951624756047916e+18,1.0,-2.0,2.0,-1.0,-1.0,-1.0,-1.0,0.0
1.6951624756047916e+18,-1.0,0.0,4.0,2.0,0.0,0.0,0.0,-2.0
1.6951624756047916e+18,-3.0,-2.0,-6.0,-5.0,-1.0,-1.0,-1.0,-2.0
1.6951624756047916e+18,-1.0,0.0,3.0,1.0,1.0,0.0,0.0,-1.0
1.6951624756107884e+18,-2.0,-1.0,-2.0,1.0,-2.0,-1.0,0.0,-1.0
1.6951624756117878e+18,-1.0,2.0,9.0,1.0,1.0,-1.0,-2.0,-2.0
1.6951624756277788e+18,-1.0,-2.0,-9.0,0.0,0.0,-1.0,-1.0,0.0
1.6951624756277788e+18,-2.0,-1.0,-3.0,-1.0,-2.0,0.0,0.0,0.0
1.6951624756357747e+18,-1.0,-1.0,-1.0,-1.0,-1.0,2.0,0.0,-1.0
1.6951624756357747e+18,-2.0,0.0,0.0,-1.0,-1.0,0.0,-3.0,-2.0
1.6951624756367729e+18,-2.0,0.0,2.0,1.0,-1.0,2.0,0.0,-2.0
1.6951624756367729e+18,-2.0,-2.0,1.0,-2.0,0.0,-2.0,-2.0,-1.0
1.6951624756577623e+18,0.0,-2.0,-9.0,-1.0,0.0,0.0,0.0,-1.0
1.6951624756577623e+18,-1.0,-1.0,-1.0,-2.0,-1.0,-1.0,2.0,-1.0
1.6951624756587615e+18,0.0,0.0,2.0,-1.0,2.0,1.0,0.0,0.0
1.6951624756587615e+18,-1.0,-1.0,-3.0,0.0,-2.0,1.0,0.0,1.0
1.6951624756707533e+18,-2.0,1.0,6.0,0.0,-1.0,-1.0,-2.0,-3.0
1.6951624756717535e+18,0.0,1.0,-3.0,-1.0,-3.0,-1.0,-1.0,0.0
1.6951624756797484e+18,-3.0,-2.0,-1.0,1.0,-1.0,-2.0,-1.0,0.0
1.6951624756797484e+18,-1.0,-1.0,1.0,0.0,-1.0,0.0,-1.0,-3.0
1.6951624757027415e+18,0.0,-1.0,0.0,1.0,-1.0,-2.0,-1.0,1.0
1.6951624757027415e+18,-1.0,-2.0,-3.0,-2.0,-1.0,1.0,0.0,0.0
1.6951624757037396e+18,-1.0,0.0,0.0,0.0,-1.0,0.0,-2.0,0.0
1.6951624757047409e+18,-1.0,-2.0,-3.0,-3.0,0.0,-2.0,1.0,0.0
1.695162475721733e+18,-1.0,1.0,2.0,0.0,-1.0,-1.0,-1.0,-3.0
1.695162475728755e+18,0.0,-1.0,-2.0,0.0,0.0,0.0,1.0,-1.0
1.6951624757397146e+18,0.0,0.0,3.0,-1.0,0.0,-1.0,-2.0,0.0
1.6951624757397146e+18,-1.0,-2.0,0.0,-3.0,0.0,-1.0,-2.0,-1.0
1.6951624757417152e+18,-1.0,-1.0,1.0,1.0,-2.0,-1.0,0.0,1.0
1.6951624757417152e+18,-2.0,0.0,-1.0,-1.0,0.0,-2.0,0.0,0.0
1.6951624757427139e+18,-1.0,0.0,5.0,0.0,0.0,0.0,-1.0,0.0
1.6951624757437169e+18,-1.0,-2.0,-9.0,-2.0,-1.0,-1.0,0.0,-1.0
1.6951624757547118e+18,-1.0,-1.0,-2.0,-2.0,0.0,-1.0,-1.0,-1.0
1.6951624757557059e+18,0.0,0.0,-5.0,-2.0,-2.0,0.0,-3.0,-2.0
1.6951624757567043e+18,1.0,3.0,17.0,-1.0,-1.0,-1.0,-2.0,-3.0
1.6951624757577068e+18,0.0,-1.0,14.0,0.0,0.0,1.0,0.0,0.0
1.6951624757856883e+18,-1.0,1.0,-2.0,0.0,0.0,1.0,1.0,1.0
1.695162475786687e+18,-1.0,-4.0,-4.0,0.0,-1.0,-2.0,0.0,-1.0
1.6951624757926879e+18,-1.0,-5.0,-11.0,-2.0,1.0,1.0,-2.0,-2.0
1.6951624757936837e+18,-2.0,2.0,-3.0,-4.0,-6.0,-7.0,-5.0,-2.0
1.6951624757936837e+18,-2.0,0.0,8.0,6.0,4.0,-5.0,-3.0,-1.0
1.6951624757946831e+18,1.0,-1.0,-11.0,-7.0,-4.0,3.0,3.0,4.0
1.695162475800682e+18,-1.0,0.0,0.0,1.0,-6.0,1.0,2.0,0.0
1.6951624758016847e+18,2.0,2.0,-1.0,-4.0,-2.0,1.0,-2.0,-1.0
1.6951624758226665e+18,-1.0,-4.0,-4.0,10.0,14.0,2.0,-2.0,-2.0
1.6951624758236677e+18,-1.0,0.0,1.0,-4.0,-9.0,-16.0,-2.0,-3.0
1.6951624758246666e+18,-1.0,0.0,-5.0,4.0,13.0,9.0,2.0,0.0
1.6951624758246666e+18,1.0,-1.0,-9.0,-3.0,-2.0,12.0,0.0,-1.0
1.6951624758376576e+18,0.0,-1.0,7.0,-9.0,-17.0,-7.0,-2.0,-1.0
1.6951624758386578e+18,0.0,-1.0,3.0,-1.0,8.0,6.0,-1.0,-3.0
1.6951624758386578e+18,-2.0,-1.0,-6.0,3.0,-5.0,-10.0,-1.0,-1.0
1.695162475839657e+18,-1.0,-1.0,8.0,3.0,-4.0,-11.0,-2.0,0.0
1.6951624758516508e+18,1.0,2.0,-8.0,-13.0,-13.0,9.0,3.0,3.0
1.6951624758516508e+18,0.0,3.0,10.0,8.0,24.0,-1.0,1.0,0.0
1.6951624758666493e+18,-1.0,-5.0,4.0,-3.0,-24.0,-5.0,-6.0,-4.0
1.6951624758676454e+18,0.0,-1.0,-13.0,-3.0,12.0,-3.0,2.0,0.0
1.695162475874637e+18,-3.0,-3.0,-4.0,1.0,-22.0,-20.0,-3.0,-1.0
1.6951624758756362e+18,0.0,0.0,3.0,12.0,17.0,29.0,4.0,0.0
1.6951624758816335e+18,1.0,0.0,-4.0,4.0,29.0,3.0,2.0,0.0
1.6951624758816335e+18,-3.0,0.0,6.0,5.0,-6.0,2.0,-1.0,0.0
1.6951624758966252e+18,1.0,-8.0,-4.0,-17.0,-2.0,-7.0,0.0,-3.0
1.6951624758976266e+18,-3.0,-2.0,-2.0,-2.0,-27.0,-18.0,-7.0,-3.0
1.6951624758996288e+18,-1.0,-1.0,-3.0,-3.0,-14.0,-7.0,-1.0,-2.0
1.695162475911616e+18,0.0,0.0,-2.0,-16.0,2.0,10.0,3.0,2.0
1.69516247591961e+18,-1.0,1.0,-1.0,17.0,11.0,-8.0,2.0,-1.0
1.69516247591961e+18,-3.0,0.0,9.0,-8.0,-12.0,13.0,0.0,-3.0
1.6951624759206134e+18,1.0,2.0,-3.0,1.0,14.0,4.0,2.0,0.0
1.6951624759216115e+18,-2.0,-2.0,1.0,8.0,-9.0,-4.0,2.0,1.0
1.695162475933603e+18,0.0,1.0,-1.0,-4.0,13.0,1.0,-6.0,-4.0
1.695162475934603e+18,1.0,-3.0,-4.0,-2.0,-6.0,-15.0,1.0,2.0
1.6951624759405983e+18,-2.0,0.0,-6.0,-9.0,-19.0,3.0,-5.0,0.0
1.6951624759415985e+18,-1.0,-1.0,-6.0,1.0,-3.0,-2.0,-2.0,-1.0
1.6951624759575898e+18,-2.0,-3.0,19.0,7.0,13.0,5.0,-1.0,-2.0
1.6951624759575898e+18,-1.0,-2.0,-5.0,3.0,-2.0,-18.0,-2.0,-2.0
1.695162475958593e+18,-2.0,-2.0,-3.0,-3.0,18.0,15.0,-2.0,0.0
1.695162475958593e+18,1.0,-2.0,-3.0,3.0,4.0,-4.0,0.0,1.0
1.6951624759885952e+18,1.0,3.0,-1.0,-21.0,-23.0,15.0,0.0,-1.0
1.6951624759895716e+18,-1.0,0.0,-7.0,7.0,4.0,2.0,0.0,0.0
1.69516247599057e+18,1.0,0.0,9.0,5.0,-11.0,-14.0,-2.0,1.0
1.69516247599057e+18,0.0,3.0,2.0,-11.0,10.0,9.0,-1.0,-1.0
1.6951624759935685e+18,-1.0,0.0,-15.0,14.0,-10.0,-9.0,-2.0,-1.0
1.695162475994567e+18,-5.0,-16.0,1.0,-20.0,9.0,6.0,-1.0,-2.0
1.6951624760005647e+18,0.0,4.0,-3.0,-7.0,-17.0,-24.0,-3.0,-3.0
1.695162476001563e+18,1.0,5.0,-7.0,4.0,3.0,17.0,5.0,-2.0
1.6951624760175572e+18,-3.0,3.0,4.0,-2.0,9.0,-5.0,3.0,-5.0
1.695162476018558e+18,-1.0,-1.0,3.0,-3.0,-30.0,14.0,3.0,-12.0
1.695162476018558e+18,-3.0,-12.0,6.0,5.0,19.0,-2.0,-5.0,14.0
1.695162476018558e+18,1.0,4.0,-2.0,-26.0,-36.0,-28.0,-10.0,1.0
1.6951624760465357e+18,-1.0,1.0,3.0,-17.0,-11.0,-3.0,-8.0,0.0
1.6951624760475412e+18,3.0,-2.0,-15.0,26.0,36.0,4.0,16.0,22.0
1.6951624760485366e+18,-3.0,6.0,8.0,1.0,-13.0,15.0,6.0,-11.0
1.6951624760495363e+18,0.0,-5.0,7.0,24.0,31.0,-2.0,5.0,-2.0
1.695162476053558e+18,-9.0,-12.0,9.0,28.0,34.0,14.0,-10.0,14.0
1.6951624760545334e+18,9.0,7.0,4.0,-15.0,-35.0,-11.0,-9.0,-13.0
1.6951624760735224e+18,5.0,-3.0,-11.0,-21.0,0.0,-8.0,-3.0,21.0
1.6951624760745216e+18,6.0,11.0,-39.0,7.0,16.0,13.0,4.0,-2.0
1.69516247607752e+18,-22.0,-14.0,5.0,-3.0,-14.0,-12.0,-5.0,-41.0
1.69516247607752e+18,-7.0,5.0,-14.0,-18.0,3.0,1.0,1.0,6.0
1.6951624760925107e+18,1.0,-4.0,26.0,14.0,-20.0,-16.0,9.0,5.0
1.6951624760925107e+18,7.0,5.0,15.0,-36.0,-23.0,9.0,-1.0,-23.0
1.695162476107503e+18,-5.0,0.0,-13.0,36.0,39.0,13.0,4.0,24.0
1.695162476107503e+18,-6.0,-4.0,-11.0,21.0,39.0,6.0,2.0,-25.0
1.6951624761085056e+18,6.0,-18.0,10.0,-8.0,-18.0,-5.0,-12.0,27.0
1.6951624761085056e+18,-4.0,21.0,6.0,7.0,-5.0,-17.0,24.0,-45.0
1.6951624761135007e+18,3.0,-19.0,-13.0,-14.0,-13.0,7.0,-20.0,49.0
1.6951624761135007e+18,-3.0,23.0,32.0,-9.0,-19.0,-2.0,-3.0,-32.0
1.695162476122494e+18,-8.0,-17.0,-66.0,5.0,16.0,-4.0,17.0,0.0
1.695162476122494e+18,8.0,24.0,53.0,5.0,1.0,3.0,-19.0,18.0
1.6951624761464827e+18,3.0,-17.0,4.0,-9.0,-18.0,-1.0,5.0,-3.0
1.69516247615248e+18,2.0,-3.0,-25.0,-1.0,5.0,-4.0,-2.0,-4.0
1.69516247615248e+18,-7.0,6.0,27.0,-3.0,2.0,4.0,-10.0,-70.0
1.6951624761534766e+18,-2.0,-1.0,19.0,12.0,5.0,-4.0,-2.0,23.0
1.695162476175463e+18,1.0,13.0,12.0,-3.0,-11.0,-6.0,21.0,-1.0
1.695162476175463e+18,3.0,-16.0,-4.0,-8.0,-6.0,-9.0,-16.0,11.0
1.6951624761764682e+18,11.0,3.0,-47.0,2.0,9.0,9.0,25.0,-4.0
1.6951624761774671e+18,-7.0,-18.0,48.0,-2.0,-5.0,-3.0,-33.0,65.0
1.6951624761784635e+18,-6.0,15.0,-39.0,-7.0,3.0,-1.0,-1.0,-36.0
1.6951624761784635e+18,2.0,-10.0,-21.0,-2.0,-5.0,0.0,-14.0,49.0
1.69516247618246e+18,-4.0,30.0,59.0,-4.0,-4.0,2.0,-7.0,-38.0
1.6951624761834637e+18,-13.0,-34.0,-79.0,-4.0,-1.0,-5.0,18.0,-4.0
1.695162476197456e+18,11.0,6.0,24.0,-12.0,-8.0,-4.0,-5.0,-26.0
1.695162476197456e+18,10.0,4.0,24.0,20.0,15.0,4.0,1.0,-1.0
1.695162476198451e+18,-23.0,-18.0,-90.0,-5.0,6.0,5.0,-8.0,10.0
1.6951624761994506e+18,-5.0,-27.0,-27.0,-8.0,-13.0,-14.0,-10.0,-27.0
1.6951624762354294e+18,3.0,20.0,37.0,-8.0,1.0,5.0,12.0,9.0
1.6951624762354294e+18,-3.0,1.0,7.0,10.0,-2.0,1.0,2.0,-12.0
1.6951624762364278e+18,8.0,21.0,15.0,-15.0,-2.0,1.0,8.0,21.0
1.6951624762364278e+18,13.0,-26.0,27.0,17.0,2.0,-5.0,-21.0,10.0
1.695162476237437e+18,-13.0,-18.0,-43.0,-11.0,1.0,3.0,11.0,16.0
1.695162476237437e+18,11.0,14.0,-50.0,-10.0,-2.0,-1.0,8.0,-13.0
1.6951624762584166e+18,9.0,-1.0,0.0,4.0,7.0,11.0,9.0,31.0
1.6951624762584166e+18,-1.0,19.0,77.0,3.0,2.0,2.0,-4.0,-16.0
1.6951624762594163e+18,-2.0,-9.0,-44.0,4.0,-3.0,-4.0,-11.0,0.0
1.6951624762594163e+18,-8.0,0.0,43.0,-2.0,-1.0,1.0,0.0,-4.0
1.695162476260416e+18,-9.0,-34.0,-73.0,4.0,1.0,1.0,0.0,-6.0
1.695162476261415e+18,1.0,-7.0,-6.0,8.0,18.0,8.0,11.0,-6.0
1.6951624762874038e+18,2.0,4.0,13.0,-2.0,-7.0,-4.0,-2.0,-14.0
1.6951624762884017e+18,-5.0,2.0,24.0,-7.0,-14.0,-7.0,-2.0,23.0
1.695162476289401e+18,1.0,-14.0,30.0,9.0,7.0,3.0,-3.0,-2.0
1.695162476289401e+18,-4.0,2.0,-80.0,-13.0,-3.0,0.0,-1.0,-13.0
1.695162476312386e+18,13.0,33.0,31.0,0.0,-9.0,-7.0,-2.0,-14.0
1.6951624763213796e+18,-18.0,-45.0,-3.0,-1.0,-7.0,-5.0,6.0,0.0
1.6951624763213796e+18,2.0,63.0,35.0,11.0,4.0,5.0,-17.0,-9.0
1.69516247632238e+18,-8.0,-62.0,-37.0,-20.0,-23.0,-9.0,0.0,27.0
1.6951624763243817e+18,7.0,12.0,21.0,1.0,21.0,8.0,6.0,-12.0
1.69516247632538e+18,-13.0,1.0,-4.0,-10.0,-14.0,-8.0,-9.0,-5.0
1.69516247632538e+18,-3.0,2.0,49.0,6.0,-5.0,-7.0,-6.0,-10.0
1.695162476326378e+18,1.0,27.0,-8.0,6.0,3.0,2.0,13.0,-21.0
1.6951624763393692e+18,6.0,17.0,6.0,-5.0,-8.0,-7.0,-21.0,12.0
1.6951624763393692e+18,1.0,-7.0,23.0,6.0,6.0,3.0,3.0,-4.0
1.6951624763413683e+18,-5.0,-21.0,40.0,3.0,3.0,6.0,7.0,-1.0
1.6951624763413683e+18,-3.0,11.0,-29.0,-9.0,-6.0,-5.0,-8.0,-4.0
1.695162476369352e+18,7.0,22.0,0.0,0.0,-7.0,-7.0,-8.0,2.0
1.695162476369352e+18,-8.0,-40.0,53.0,11.0,8.0,4.0,4.0,1.0
1.695162476370352e+18,5.0,6.0,-23.0,-14.0,-5.0,-2.0,-6.0,-3.0
1.695162476370352e+18,-2.0,18.0,33.0,0.0,-9.0,-2.0,8.0,8.0
1.695162476391341e+18,-6.0,-16.0,12.0,2.0,2.0,4.0,6.0,-22.0
1.6951624763923395e+18,10.0,16.0,-74.0,1.0,18.0,4.0,-7.0,17.0
1.6951624764003343e+18,-1.0,-2.0,13.0,-7.0,-25.0,-11.0,-2.0,5.0
1.6951624764003343e+18,-7.0,-8.0,2.0,-2.0,3.0,-1.0,-3.0,1.0
1.6951624764003343e+18,0.0,-15.0,28.0,14.0,2.0,-2.0,4.0,10.0
1.695162476401336e+18,4.0,-11.0,-31.0,-9.0,-11.0,-4.0,2.0,-11.0
1.695162476402335e+18,-7.0,11.0,3.0,0.0,5.0,0.0,-5.0,12.0
1.695162476402335e+18,-8.0,2.0,-2.0,1.0,-7.0,-1.0,4.0,-36.0
1.6951624764213222e+18,1.0,-12.0,14.0,-2.0,-2.0,-4.0,-10.0,22.0
1.6951624764223212e+18,9.0,29.0,-17.0,-2.0,-2.0,-1.0,-8.0,-14.0
1.695162476423321e+18,-1.0,-17.0,-25.0,-8.0,5.0,4.0,7.0,20.0
1.695162476423321e+18,25.0,15.0,78.0,15.0,2.0,-2.0,2.0,-5.0
1.6951624764363128e+18,-57.0,-18.0,-41.0,-16.0,-1.0,3.0,-6.0,-51.0
1.6951624764373138e+18,6.0,5.0,8.0,0.0,-1.0,-4.0,-6.0,-2.0
1.6951624764383117e+18,-5.0,-16.0,-14.0,5.0,5.0,1.0,-8.0,-15.0
1.6951624764383117e+18,2.0,3.0,-16.0,-4.0,0.0,2.0,1.0,22.0
1.695162476459301e+18,20.0,26.0,3.0,6.0,-11.0,-6.0,5.0,-8.0
1.6951624764603003e+18,-8.0,-12.0,20.0,-5.0,12.0,-1.0,-2.0,25.0
1.6951624764603003e+18,-11.0,34.0,60.0,5.0,6.0,1.0,-3.0,-15.0
1.6951624764612995e+18,11.0,6.0,-18.0,2.0,4.0,6.0,7.0,10.0
1.6951624764732928e+18,-5.0,-19.0,-13.0,-5.0,-13.0,-13.0,-6.0,15.0
1.6951624764732928e+18,-3.0,18.0,-38.0,-7.0,-2.0,5.0,3.0,0.0
1.695162476489284e+18,15.0,7.0,19.0,-13.0,-17.0,-5.0,1.0,4.0
1.6951624764902922e+18,-7.0,2.0,-16.0,15.0,10.0,-2.0,-7.0,0.0
1.6951624765012764e+18,8.0,-7.0,-26.0,-1.0,25.0,8.0,5.0,3.0
1.6951624765012764e+18,-7.0,4.0,27.0,8.0,-3.0,-3.0,3.0,5.0
1.6951624765022756e+18,1.0,-6.0,-11.0,-15.0,-24.0,-15.0,-6.0,-10.0
1.6951624765022756e+18,-1.0,-6.0,-4.0,-4.0,8.0,8.0,-1.0,-8.0
1.695162476521264e+18,1.0,-2.0,-15.0,-8.0,-20.0,-3.0,-5.0,7.0
1.6951624765222643e+18,-6.0,-41.0,-23.0,13.0,20.0,5.0,0.0,-27.0
1.6951624765292608e+18,1.0,-10.0,-11.0,6.0,6.0,7.0,8.0,17.0
1.6951624765292608e+18,-10.0,7.0,-16.0,-1.0,-1.0,-7.0,-4.0,-1.0
1.695162476552247e+18,18.0,10.0,-54.0,-4.0,1.0,2.0,9.0,13.0
1.695162476552247e+18,-13.0,5.0,9.0,-3.0,-5.0,-3.0,-5.0,-19.0
1.695162476552247e+18,-3.0,-1.0,14.0,15.0,19.0,6.0,-9.0,2.0
1.695162476552247e+18,-33.0,-24.0,-15.0,-4.0,-3.0,3.0,7.0,-12.0
1.6951624765682388e+18,4.0,0.0,36.0,3.0,5.0,5.0,1.0,3.0
1.6951624765682388e+18,-9.0,15.0,-15.0,-6.0,-14.0,-6.0,-4.0,-14.0
1.6951624765682388e+18,-9.0,-14.0,-25.0,-2.0,-3.0,-7.0,-2.0,0.0
1.695162476569238e+18,6.0,14.0,25.0,2.0,6.0,1.0,-2.0,-21.0
1.6951624765882268e+18,-6.0,5.0,31.0,-1.0,-5.0,-1.0,-1.0,3.0
1.6951624765882268e+18,4.0,13.0,15.0,3.0,-2.0,3.0,2.0,7.0
1.6951624765882268e+18,-1.0,-1.0,-40.0,-2.0,3.0,-2.0,1.0,-4.0
1.695162476589226e+18,6.0,-12.0,19.0,-4.0,-6.0,1.0,-1.0,7.0
1.695162476602219e+18,2.0,-13.0,-7.0,7.0,-1.0,-1.0,3.0,6.0
1.695162476602219e+18,10.0,17.0,24.0,-5.0,-10.0,-3.0,2.0,-4.0
1.6951624766032187e+18,1.0,3.0,-3.0,9.0,16.0,4.0,-4.0,3.0
1.695162476604218e+18,4.0,0.0,-27.0,7.0,-3.0,-4.0,1.0,12.0
1.6951624766242066e+18,1.0,-2.0,-7.0,-10.0,0.0,-1.0,0.0,-5.0
1.695162476625208e+18,3.0,-5.0,-16.0,-12.0,-11.0,0.0,-2.0,6.0
1.695162476637199e+18,3.0,-2.0,47.0,8.0,2.0,0.0,4.0,5.0
1.6951624766381985e+18,-7.0,4.0,4.0,-6.0,-4.0,-4.0,-4.0,-5.0
1.695162476648193e+18,-4.0,-19.0,3.0,10.0,8.0,3.0,0.0,-2.0
1.695162476648193e+18,-1.0,13.0,21.0,-8.0,-8.0,-2.0,3.0,0.0
1.6951624766491945e+18,2.0,-10.0,-21.0,-4.0,-5.0,-6.0,-10.0,-18.0
1.6951624766491945e+18,1.0,-6.0,-3.0,-2.0,-3.0,-3.0,-6.0,-4.0
1.695162476663184e+18,3.0,12.0,25.0,-1.0,0.0,3.0,3.0,14.0
1.6951624766641836e+18,4.0,-2.0,2.0,5.0,9.0,3.0,-5.0,-3.0
1.6951624766641836e+18,0.0,2.0,-16.0,-7.0,-8.0,0.0,3.0,-11.0
1.6951624766641836e+18,2.0,-2.0,29.0,2.0,-2.0,0.0,-3.0,12.0
1.6951624766771756e+18,1.0,-3.0,-45.0,-2.0,-4.0,0.0,-6.0,-23.0
1.6951624766771756e+18,0.0,-19.0,-12.0,2.0,-1.0,4.0,12.0,41.0
1.6951624766781755e+18,3.0,-1.0,-14.0,3.0,9.0,1.0,1.0,8.0
1.6951624766791754e+18,-2.0,10.0,12.0,-9.0,-3.0,0.0,0.0,-4.0
1.6951624766991642e+18,0.0,-3.0,-20.0,-5.0,-5.0,-3.0,1.0,2.0
1.6951624767001628e+18,2.0,6.0,-9.0,-4.0,-6.0,-4.0,-6.0,-7.0
1.695162476701162e+18,2.0,-1.0,2.0,-1.0,-4.0,-1.0,2.0,-1.0
1.695162476701162e+18,3.0,-4.0,-7.0,0.0,-5.0,-1.0,1.0,11.0
1.6951624767291459e+18,1.0,-3.0,-3.0,8.0,17.0,6.0,0.0,-4.0
1.6951624767291459e+18,2.0,-5.0,-8.0,-6.0,-10.0,-4.0,-2.0,4.0
1.6951624767311444e+18,2.0,3.0,7.0,1.0,1.0,0.0,1.0,5.0
1.6951624767311444e+18,0.0,0.0,-18.0,-3.0,-4.0,-5.0,-3.0,-7.0
1.6951624767371415e+18,-2.0,-4.0,6.0,6.0,4.0,3.0,0.0,1.0
1.6951624767381417e+18,-1.0,4.0,31.0,-1.0,7.0,4.0,1.0,-10.0
1.6951624767501335e+18,2.0,0.0,28.0,0.0,-6.0,-1.0,-1.0,1.0
1.6951624767511342e+18,1.0,1.0,-26.0,-2.0,3.0,0.0,0.0,5.0
1.6951624767661338e+18,-3.0,-2.0,19.0,-3.0,-2.0,-2.0,1.0,2.0
1.6951624767671242e+18,0.0,2.0,20.0,7.0,15.0,2.0,-2.0,1.0
1.69516247679211e+18,0.0,-5.0,-52.0,-11.0,-6.0,-2.0,0.0,-2.0
1.6951624767931098e+18,0.0,1.0,17.0,-1.0,0.0,1.0,-2.0,-1.0
1.6951624767931098e+18,-1.0,1.0,-7.0,-8.0,-12.0,-6.0,-3.0,1.0
1.6951624767941092e+18,-1.0,-9.0,-12.0,5.0,3.0,-1.0,0.0,-6.0
1.6951624767941092e+18,-1.0,-4.0,6.0,-1.0,-3.0,1.0,1.0,-2.0
1.6951624767951089e+18,0.0,-1.0,-8.0,3.0,3.0,-2.0,-1.0,-4.0
1.6951624767961093e+18,0.0,-1.0,2.0,-2.0,-2.0,-1.0,-1.0,2.0
1.6951624767961093e+18,-2.0,1.0,-6.0,-1.0,-2.0,0.0,-1.0,-2.0
1.6951624768031037e+18,-1.0,-8.0,-5.0,-4.0,-4.0,-1.0,-3.0,0.0
1.6951624768031037e+18,-1.0,-5.0,-9.0,-1.0,-2.0,-2.0,-2.0,4.0
1.69516247682609e+18,0.0,3.0,8.0,0.0,-1.0,1.0,3.0,1.0
1.6951624768270907e+18,-1.0,-4.0,-8.0,-4.0,-8.0,-2.0,-2.0,-4.0
1.695162476842081e+18,-1.0,1.0,3.0,4.0,8.0,0.0,-1.0,-2.0
1.6951624768430804e+18,0.0,0.0,-9.0,0.0,3.0,0.0,-1.0,0.0
1.6951624768430804e+18,-1.0,0.0,22.0,2.0,4.0,1.0,-1.0,-1.0
1.6951624768430804e+18,2.0,4.0,1.0,-3.0,-5.0,-4.0,-2.0,-2.0
1.6951624768450788e+18,1.0,0.0,-3.0,-3.0,-5.0,-2.0,1.0,0.0
1.6951624768450788e+18,-1.0,2.0,17.0,1.0,-1.0,-1.0,-1.0,0.0
1.695162476864068e+18,0.0,0.0,-5.0,-3.0,1.0,0.0,-1.0,1.0
1.6951624768650683e+18,-1.0,2.0,13.0,4.0,0.0,-1.0,0.0,0.0
1.6951624768660675e+18,-4.0,-1.0,17.0,4.0,-2.0,0.0,-1.0,-2.0
1.6951624768660675e+18,4.0,0.0,3.0,2.0,-1.0,-1.0,0.0,-1.0
1.6951624768790605e+18,-1.0,-2.0,-4.0,-2.0,-2.0,-1.0,0.0,1.0
1.6951624768800607e+18,-1.0,-1.0,-6.0,-6.0,2.0,-1.0,-1.0,-2.0
1.6951624768840563e+18,-1.0,4.0,2.0,2.0,-3.0,-3.0,-1.0,-1.0
1.6951624768850563e+18,0.0,-3.0,-13.0,-11.0,-4.0,-3.0,-2.0,-1.0
1.6951624769100431e+18,-2.0,-1.0,0.0,5.0,2.0,-1.0,1.0,-2.0
1.695162476914041e+18,0.0,-12.0,2.0,16.0,-2.0,-6.0,-4.0,0.0
1.695162476914041e+18,1.0,0.0,-7.0,-5.0,-3.0,-5.0,-2.0,0.0
1.6951624769150397e+18,-2.0,-4.0,-8.0,-4.0,3.0,4.0,1.0,-4.0
1.695162476916041e+18,-1.0,-4.0,-10.0,-10.0,-4.0,2.0,0.0,0.0
1.695162476916041e+18,-2.0,7.0,5.0,-6.0,-2.0,0.0,0.0,-2.0
1.695162476923035e+18,0.0,0.0,4.0,15.0,2.0,0.0,0.0,1.0
1.695162476923035e+18,-5.0,2.0,1.0,9.0,-1.0,-2.0,0.0,-3.0
1.6951624769400292e+18,6.0,2.0,6.0,-9.0,-1.0,-4.0,-2.0,-2.0
1.6951624769400292e+18,3.0,-1.0,-13.0,-10.0,-5.0,-1.0,-2.0,1.0
1.6951624769410253e+18,0.0,-2.0,-9.0,-9.0,0.0,2.0,0.0,0.0
1.6951624769410253e+18,-1.0,-1.0,-9.0,8.0,3.0,1.0,2.0,0.0
1.6951624769780032e+18,1.0,-2.0,-1.0,6.0,2.0,1.0,0.0,-3.0
1.6951624769780032e+18,-12.0,-3.0,-3.0,-4.0,-4.0,-4.0,-2.0,1.0
1.6951624769800018e+18,3.0,2.0,7.0,0.0,0.0,-2.0,-1.0,-1.0
1.6951624769800018e+18,0.0,-3.0,-3.0,-9.0,-2.0,1.0,1.0,17.0
1.6951624769800018e+18,-13.0,-2.0,-2.0,0.0,-2.0,-2.0,-2.0,-22.0
1.6951624769810028e+18,3.0,1.0,1.0,-4.0,-1.0,0.0,0.0,0.0
1.6951624769919951e+18,0.0,0.0,0.0,-2.0,-2.0,-2.0,-2.0,-1.0
1.6951624769919951e+18,1.0,1.0,1.0,-3.0,-1.0,0.0,0.0,1.0
1.6951624770129838e+18,-5.0,-3.0,1.0,5.0,-4.0,-2.0,-3.0,-5.0
1.695162477013983e+18,6.0,0.0,1.0,8.0,1.0,-1.0,-2.0,4.0
1.695162477013983e+18,-4.0,-2.0,-9.0,2.0,0.0,-1.0,0.0,-4.0
1.695162477013983e+18,-1.0,2.0,7.0,9.0,0.0,-2.0,-2.0,-4.0
1.6951624770209787e+18,4.0,-6.0,-13.0,-22.0,-3.0,-1.0,0.0,6.0
1.6951624770209787e+18,-1.0,3.0,-8.0,-8.0,-1.0,-1.0,-2.0,-5.0
1.6951624770379692e+18,-3.0,-3.0,2.0,-5.0,-4.0,0.0,0.0,2.0
1.6951624770389686e+18,2.0,0.0,-4.0,1.0,-2.0,-2.0,-2.0,-2.0
1.6951624770389686e+18,1.0,1.0,-2.0,12.0,1.0,0.0,0.0,7.0
1.6951624770389686e+18,2.0,1.0,6.0,5.0,1.0,0.0,1.0,-2.0
1.695162477052961e+18,-3.0,-2.0,-7.0,-11.0,-2.0,0.0,0.0,0.0
1.695162477052961e+18,-4.0,-5.0,3.0,17.0,0.0,3.0,1.0,-2.0
1.6951624770599567e+18,5.0,6.0,27.0,14.0,7.0,1.0,0.0,6.0
1.6951624770599567e+18,0.0,-6.0,-33.0,-41.0,-13.0,-3.0,-5.0,-5.0
1.6951624770609564e+18,0.0,-1.0,10.0,-1.0,-2.0,-1.0,-4.0,0.0
1.6951624770609564e+18,-11.0,1.0,-4.0,10.0,3.0,2.0,0.0,-4.0
1.6951624770889418e+18,14.0,-2.0,-28.0,-30.0,-5.0,-3.0,-1.0,3.0
1.6951624770899397e+18,1.0,0.0,2.0,8.0,3.0,0.0,1.0,4.0
1.6951624770909391e+18,-1.0,-1.0,8.0,13.0,0.0,0.0,-1.0,0.0
1.6951624770909391e+18,-3.0,-3.0,1.0,-13.0,2.0,1.0,-2.0,-6.0
1.6951624770959363e+18,-2.0,0.0,3.0,0.0,-1.0,-1.0,-2.0,0.0
1.6951624770959363e+18,-2.0,1.0,-20.0,-14.0,-1.0,0.0,1.0,-2.0
1.6951624771189238e+18,-1.0,-2.0,1.0,1.0,-2.0,-7.0,0.0,-2.0
1.6951624771199232e+18,6.0,1.0,7.0,-3.0,-6.0,5.0,3.0,6.0
1.6951624771199232e+18,-14.0,-2.0,1.0,12.0,0.0,-1.0,-1.0,-11.0
1.6951624771219226e+18,3.0,0.0,2.0,-1.0,2.0,0.0,-1.0,0.0
1.6951624771219226e+18,-3.0,0.0,0.0,4.0,6.0,2.0,0.0,0.0
1.6951624771219226e+18,0.0,-2.0,-2.0,-4.0,-3.0,-2.0,-1.0,-1.0
1.6951624771419092e+18,-3.0,-1.0,-1.0,-4.0,-5.0,-1.0,0.0,2.0
1.6951624771419092e+18,-5.0,1.0,3.0,4.0,-1.0,0.0,-2.0,-2.0
1.6951624771429084e+18,-2.0,-1.0,2.0,4.0,-1.0,-2.0,0.0,-2.0
1.6951624771439078e+18,2.0,-1.0,-3.0,-9.0,-1.0,-4.0,-3.0,-2.0
1.6951624771559017e+18,-2.0,-3.0,-5.0,-5.0,-4.0,-2.0,1.0,2.0
1.6951624771559017e+18,-2.0,0.0,16.0,26.0,4.0,5.0,0.0,-3.0
1.6951624771658964e+18,4.0,1.0,-6.0,-13.0,-3.0,-1.0,1.0,2.0
1.6951624771738962e+18,1.0,-1.0,-5.0,-6.0,1.0,0.0,-3.0,-1.0
1.6951624771788884e+18,-4.0,1.0,2.0,5.0,-1.0,-3.0,0.0,2.0
1.6951624771798879e+18,0.0,-1.0,4.0,2.0,-1.0,-4.0,-1.0,0.0
1.6951624771808868e+18,-2.0,-2.0,-6.0,-7.0,-1.0,4.0,1.0,-2.0
1.6951624771808868e+18,-2.0,-2.0,1.0,-3.0,-2.0,-2.0,-1.0,0.0
1.6951624772018752e+18,-1.0,-2.0,2.0,7.0,0.0,-2.0,-1.0,1.0
1.6951624772018752e+18,-2.0,-1.0,2.0,0.0,-1.0,-1.0,-1.0,-2.0
1.695162477202875e+18,1.0,-1.0,-4.0,-5.0,-4.0,-1.0,1.0,1.0
1.695162477203874e+18,0.0,-1.0,0.0,2.0,3.0,-3.0,-1.0,-2.0
1.6951624772158682e+18,0.0,1.0,0.0,1.0,1.0,2.0,-1.0,2.0
1.6951624772158682e+18,0.0,0.0,2.0,1.0,0.0,-5.0,0.0,0.0
1.6951624772318587e+18,0.0,0.0,-2.0,-3.0,-3.0,5.0,1.0,-1.0
1.6951624772348562e+18,-1.0,-1.0,-1.0,-3.0,-2.0,-2.0,-1.0,0.0
1.695162477246849e+18,-1.0,-2.0,-2.0,-2.0,-5.0,-3.0,-4.0,-1.0
1.695162477246849e+18,0.0,0.0,5.0,3.0,-2.0,-3.0,2.0,1.0
1.695162477248851e+18,-1.0,2.0,-5.0,-2.0,5.0,6.0,-1.0,-1.0
1.695162477248851e+18,-1.0,-5.0,-6.0,-2.0,1.0,1.0,1.0,-1.0
1.6951624772688366e+18,-1.0,-1.0,8.0,4.0,1.0,2.0,-3.0,0.0
1.6951624772698365e+18,0.0,-3.0,0.0,-1.0,-2.0,-1.0,-2.0,-1.0
1.6951624772708362e+18,-2.0,-1.0,1.0,-4.0,-6.0,-4.0,-2.0,-1.0
1.6951624772718362e+18,0.0,1.0,-2.0,-3.0,0.0,0.0,-1.0,-2.0
1.6951624772758328e+18,0.0,-2.0,-4.0,0.0,0.0,-1.0,-1.0,2.0
1.6951624772758328e+18,-1.0,0.0,1.0,1.0,0.0,0.0,-1.0,-2.0
1.6951624772848276e+18,-2.0,-2.0,1.0,0.0,-1.0,-1.0,-2.0,-1.0
1.6951624772848276e+18,0.0,-1.0,-2.0,-3.0,-4.0,-4.0,-1.0,-1.0
1.6951624773018186e+18,0.0,-2.0,-5.0,-1.0,2.0,0.0,1.0,-2.0
1.6951624773068165e+18,-2.0,0.0,0.0,-3.0,0.0,1.0,-1.0,0.0
1.6951624773078157e+18,1.0,-2.0,-3.0,-3.0,-1.0,-1.0,-1.0,0.0
1.6951624773078157e+18,1.0,-1.0,4.0,6.0,0.0,-3.0,-1.0,-2.0
1.6951624773218066e+18,0.0,1.0,-2.0,-3.0,-2.0,0.0,0.0,0.0
1.6951624773228065e+18,-1.0,-1.0,-4.0,-3.0,2.0,2.0,-1.0,1.0
1.6951624773248054e+18,-1.0,-1.0,-2.0,-3.0,-1.0,-3.0,-2.0,-2.0
1.6951624773248054e+18,-1.0,-2.0,1.0,-1.0,-3.0,-2.0,0.0,-1.0
1.6951624773447936e+18,0.0,-1.0,-2.0,-4.0,-2.0,0.0,-3.0,0.0
1.6951624773447936e+18,-2.0,0.0,-2.0,1.0,-3.0,0.0,-1.0,-1.0
1.695162477345793e+18,0.0,-3.0,3.0,3.0,-1.0,-2.0,-2.0,-1.0
1.6951624773467927e+18,-1.0,-1.0,-2.0,-3.0,0.0,0.0,-1.0,1.0
1.6951624773597852e+18,1.0,0.0,-5.0,-4.0,0.0,-1.0,0.0,0.0
1.6951624773597852e+18,0.0,-2.0,4.0,5.0,1.0,-2.0,-2.0,-3.0
1.6951624773757755e+18,1.0,1.0,-1.0,7.0,-1.0,-2.0,0.0,-1.0
1.6951624773757755e+18,-1.0,-1.0,2.0,3.0,-1.0,-1.0,-1.0,-2.0
1.6951624773837716e+18,-2.0,0.0,-1.0,-3.0,-1.0,-1.0,0.0,0.0
1.6951624773837716e+18,-1.0,-1.0,-7.0,-5.0,-2.0,1.0,-1.0,-1.0
1.6951624773837716e+18,-1.0,0.0,5.0,6.0,1.0,-1.0,-1.0,-1.0
1.6951624773837716e+18,0.0,-1.0,-5.0,-8.0,-2.0,0.0,-1.0,0.0
1.6951624773957642e+18,-1.0,-3.0,1.0,6.0,2.0,0.0,0.0,0.0
1.6951624773957642e+18,0.0,-1.0,0.0,-8.0,-2.0,-1.0,0.0,0.0
1.6951624774057587e+18,-3.0,0.0,0.0,5.0,1.0,0.0,0.0,-2.0
1.6951624774057587e+18,-1.0,1.0,0.0,-2.0,-3.0,-1.0,-1.0,0.0
1.69516247741975e+18,0.0,-1.0,-1.0,-2.0,0.0,-2.0,-1.0,-1.0
1.6951624774207516e+18,-3.0,-1.0,-2.0,0.0,-1.0,1.0,0.0,0.0
1.6951624774217492e+18,-1.0,-1.0,-3.0,-6.0,0.0,0.0,-1.0,-1.0
1.6951624774217492e+18,-1.0,-3.0,0.0,1.0,-1.0,0.0,-1.0,0.0
1.6951624774407378e+18,-2.0,-2.0,-1.0,0.0,1.0,-1.0,1.0,0.0
1.695162477441738e+18,-1.0,-2.0,0.0,3.0,0.0,-1.0,-2.0,-1.0
1.6951624774497334e+18,-1.0,-1.0,-3.0,-5.0,-2.0,1.0,1.0,1.0
1.6951624774497334e+18,-1.0,-2.0,-1.0,0.0,1.0,-1.0,-2.0,-1.0
1.6951624774557294e+18,-2.0,-1.0,-1.0,1.0,-3.0,-2.0,-1.0,0.0
1.6951624774557294e+18,1.0,0.0,1.0,0.0,0.0,-1.0,0.0,-1.0
1.6951624774647247e+18,-1.0,-1.0,-1.0,-4.0,-3.0,-2.0,0.0,-1.0
1.6951624774647247e+18,-2.0,-1.0,-1.0,-3.0,-2.0,-1.0,-1.0,-1.0
1.6951624774877115e+18,-1.0,-2.0,-1.0,2.0,-2.0,-1.0,-2.0,-2.0
1.695162477488712e+18,-1.0,-2.0,-1.0,0.0,0.0,0.0,-1.0,-1.0
1.695162477488712e+18,-1.0,-2.0,-2.0,-3.0,-1.0,-2.0,-2.0,-1.0
1.695162477488712e+18,-1.0,-1.0,-1.0,0.0,-1.0,0.0,-1.0,0.0
1.695162477501703e+18,2.0,0.0,0.0,0.0,-1.0,-1.0,-1.0,-2.0
1.695162477501703e+18,-2.0,0.0,-2.0,1.0,-3.0,-1.0,0.0,0.0
1.695162477503702e+18,-1.0,-2.0,-1.0,-2.0,-1.0,-2.0,-2.0,-2.0
1.695162477503702e+18,0.0,-1.0,-1.0,0.0,-1.0,-1.0,-1.0,0.0
1.695162477524694e+18,-1.0,1.0,-1.0,0.0,-1.0,0.0,-1.0,-1.0
1.6951624775256906e+18,-1.0,-1.0,-2.0,-1.0,1.0,0.0,-1.0,-2.0
1.6951624775256906e+18,-2.0,-2.0,-2.0,0.0,-2.0,1.0,0.0,0.0
1.6951624775256906e+18,1.0,0.0,1.0,-2.0,-1.0,0.0,0.0,-2.0
1.6951624775396833e+18,-1.0,-4.0,-6.0,-1.0,-1.0,0.0,-1.0,-2.0
1.6951624775436813e+18,-2.0,-1.0,0.0,0.0,-3.0,-1.0,-2.0,-2.0
1.6951624775446794e+18,0.0,-1.0,-1.0,-2.0,-1.0,-1.0,0.0,0.0
1.6951624775446794e+18,0.0,2.0,0.0,-2.0,0.0,0.0,0.0,-1.0
1.695162477561669e+18,-1.0,1.0,0.0,1.0,-1.0,2.0,-2.0,0.0
1.695162477562669e+18,-1.0,0.0,-2.0,1.0,-1.0,-1.0,-1.0,0.0
1.6951624775636685e+18,-1.0,-2.0,-2.0,-1.0,-1.0,-2.0,-2.0,-1.0
1.6951624775636685e+18,-2.0,-1.0,3.0,-3.0,0.0,-1.0,0.0,-2.0
1.6951624775756608e+18,-1.0,-3.0,-8.0,-1.0,-2.0,-2.0,-1.0,0.0
1.6951624775756608e+18,0.0,-1.0,-1.0,1.0,-1.0,-1.0,0.0,-1.0
1.6951624775846564e+18,-1.0,2.0,4.0,-2.0,-3.0,-1.0,-2.0,0.0
1.6951624775856553e+18,-1.0,-1.0,0.0,0.0,-2.0,-1.0,-1.0,0.0
1.6951624776026455e+18,0.0,0.0,1.0,-2.0,-1.0,-1.0,0.0,0.0
1.6951624776086446e+18,0.0,0.0,-2.0,0.0,0.0,0.0,1.0,-1.0
1.6951624776096435e+18,-1.0,-1.0,-4.0,-1.0,-1.0,-1.0,0.0,-1.0
1.6951624776096435e+18,-1.0,0.0,1.0,0.0,0.0,-1.0,-1.0,-1.0
1.6951624776216343e+18,-1.0,-3.0,1.0,2.0,0.0,-2.0,-2.0,-1.0
1.6951624776226345e+18,-1.0,-1.0,-7.0,-5.0,-1.0,0.0,1.0,0.0
1.6951624776236344e+18,2.0,-1.0,0.0,-4.0,0.0,-1.0,0.0,-1.0
1.6951624776236344e+18,-2.0,-1.0,-4.0,1.0,0.0,-1.0,-3.0,0.0
1.6951624776446216e+18,1.0,1.0,6.0,2.0,-1.0,0.0,-1.0,-1.0
1.6951624776446216e+18,-1.0,2.0,1.0,-1.0,-1.0,-1.0,-2.0,1.0
1.695162477645621e+18,-2.0,-2.0,-3.0,-2.0,-1.0,-2.0,0.0,0.0
1.6951624776466204e+18,-1.0,1.0,-3.0,-2.0,-1.0,-1.0,-1.0,-1.0
1.6951624776616136e+18,1.0,0.0,2.0,1.0,0.0,-1.0,0.0,-1.0
1.6951624776646108e+18,1.0,-3.0,0.0,-2.0,-2.0,-1.0,-1.0,-1.0
1.6951624776736049e+18,-1.0,0.0,-3.0,-1.0,-1.0,2.0,0.0,0.0
1.6951624776736049e+18,0.0,-1.0,-2.0,0.0,-1.0,-1.0,1.0,0.0
1.6951624776816013e+18,-2.0,0.0,2.0,-5.0,2.0,1.0,-1.0,-1.0
1.6951624776825997e+18,-2.0,-1.0,0.0,3.0,-1.0,-3.0,-1.0,-1.0
1.6951624776836e+18,2.0,-1.0,2.0,1.0,1.0,-1.0,-2.0,0.0
1.6951624776836e+18,0.0,-2.0,-2.0,0.0,-2.0,-2.0,-1.0,-1.0
1.695162477695592e+18,0.0,0.0,-2.0,-4.0,-2.0,-1.0,-1.0,0.0
1.695162477695592e+18,-1.0,0.0,2.0,-2.0,-1.0,-1.0,-1.0,-1.0
1.6951624777045868e+18,0.0,2.0,2.0,-1.0,-1.0,0.0,-1.0,0.0
1.6951624777045868e+18,-2.0,-2.0,-9.0,-3.0,-2.0,-2.0,-1.0,-2.0
1.6951624777345697e+18,-2.0,0.0,1.0,-2.0,0.0,-2.0,1.0,0.0
1.6951624777345697e+18,0.0,-1.0,-3.0,-2.0,1.0,-1.0,-2.0,-2.0
1.6951624777505615e+18,-1.0,-1.0,3.0,1.0,1.0,-1.0,0.0,-1.0
1.6951624777505615e+18,-2.0,-1.0,-4.0,-3.0,0.0,-1.0,-2.0,-1.0
1.6951624777505615e+18,-1.0,-2.0,-1.0,2.0,-2.0,0.0,-1.0,-2.0
1.6951624777515604e+18,1.0,0.0,1.0,-2.0,-1.0,-3.0,-1.0,0.0
1.69516247775256e+18,-1.0,-3.0,-7.0,-2.0,-3.0,0.0,-1.0,-2.0
1.69516247775256e+18,-1.0,-1.0,6.0,1.0,-1.0,2.0,-1.0,1.0
1.6951624777645524e+18,-2.0,-1.0,-6.0,-2.0,-2.0,1.0,1.0,0.0
1.6951624777645524e+18,-1.0,0.0,-1.0,0.0,0.0,1.0,0.0,0.0
1.6951624777655534e+18,-1.0,-1.0,0.0,0.0,0.0,-2.0,0.0,-1.0
1.6951624777665526e+18,1.0,0.0,-1.0,1.0,-2.0,-1.0,-1.0,1.0
1.6951624777865393e+18,-1.0,-1.0,-2.0,-4.0,0.0,-1.0,-1.0,-2.0
1.6951624777865393e+18,0.0,0.0,0.0,3.0,-2.0,0.0,0.0,0.0
1.6951624777885394e+18,-1.0,-2.0,-1.0,-1.0,-1.0,-1.0,-2.0,0.0
1.6951624777885394e+18,0.0,0.0,3.0,0.0,-1.0,1.0,0.0,-2.0
1.6951624778095268e+18,0.0,-1.0,-10.0,-2.0,-4.0,-1.0,-2.0,-1.0
1.6951624778095268e+18,-1.0,0.0,1.0,-1.0,-1.0,0.0,0.0,0.0
1.6951624778105267e+18,-1.0,-1.0,-3.0,-1.0,-1.0,0.0,0.0,0.0
1.6951624778115267e+18,0.0,-1.0,-1.0,-3.0,-2.0,-1.0,-1.0,-1.0
1.695162477832522e+18,-1.0,1.0,5.0,3.0,-3.0,1.0,-1.0,-1.0
1.695162477832522e+18,0.0,-1.0,-1.0,-1.0,0.0,-1.0,1.0,0.0
1.6951624778335132e+18,-1.0,0.0,-3.0,0.0,-1.0,0.0,0.0,0.0
1.6951624778335132e+18,-1.0,-1.0,-1.0,0.0,1.0,-2.0,0.0,-1.0
1.6951624778385096e+18,0.0,-1.0,-1.0,-5.0,0.0,0.0,0.0,-2.0
1.6951624778385096e+18,0.0,0.0,-2.0,4.0,0.0,0.0,-2.0,-2.0
1.6951624778455086e+18,-2.0,-1.0,-1.0,-2.0,-1.0,-1.0,0.0,-1.0
1.6951624778455086e+18,0.0,0.0,-2.0,0.0,0.0,0.0,1.0,0.0
1.6951624778624988e+18,-3.0,-1.0,0.0,1.0,0.0,1.0,-1.0,-1.0
1.6951624778624988e+18,-1.0,-1.0,-2.0,-3.0,-1.0,0.0,-2.0,-2.0
1.6951624778634954e+18,-1.0,4.0,11.0,0.0,-1.0,-3.0,0.0,-1.0
1.6951624778634954e+18,-1.0,0.0,-1.0,3.0,0.0,-1.0,1.0,-1.0
1.6951624778844833e+18,1.0,-4.0,-2.0,-3.0,-2.0,-2.0,-2.0,-1.0
1.6951624778844833e+18,-2.0,-1.0,0.0,-3.0,-1.0,1.0,-2.0,0.0
1.6951624778854835e+18,0.0,-2.0,-5.0,-2.0,-2.0,-1.0,0.0,-1.0
1.6951624778864855e+18,1.0,1.0,0.0,-2.0,-2.0,1.0,-1.0,-2.0
1.6951624778984763e+18,-1.0,2.0,1.0,-2.0,-1.0,-1.0,1.0,1.0
1.6951624778994785e+18,-2.0,-2.0,-1.0,3.0,-1.0,-1.0,1.0,0.0
1.6951624779094697e+18,-2.0,-2.0,-1.0,-1.0,0.0,0.0,0.0,0.0
1.695162477910477e+18,-3.0,-2.0,-2.0,0.0,-2.0,-2.0,0.0,-1.0
1.6951624779214615e+18,-3.0,-1.0,-3.0,-3.0,-1.0,-2.0,0.0,0.0
1.695162477922462e+18,-1.0,-2.0,-1.0,-3.0,-1.0,-1.0,-1.0,-2.0
1.6951624779234624e+18,-1.0,-1.0,-3.0,-1.0,0.0,0.0,-1.0,-1.0
1.6951624779244636e+18,0.0,-1.0,-2.0,-3.0,-1.0,0.0,-1.0,-1.0
1.6951624779484534e+18,0.0,0.0,0.0,1.0,0.0,-1.0,0.0,-1.0
1.695162477960441e+18,-1.0,0.0,0.0,-1.0,0.0,-2.0,0.0,1.0
1.695162477960441e+18,0.0,0.0,-1.0,1.0,-1.0,-1.0,-1.0,-1.0
1.695162477960441e+18,-1.0,-1.0,-3.0,-2.0,0.0,1.0,-3.0,0.0
1.6951624779624394e+18,0.0,-2.0,2.0,-2.0,-1.0,1.0,-2.0,-3.0
1.6951624779624394e+18,-2.0,0.0,0.0,0.0,-1.0,0.0,1.0,-1.0
1.695162477970435e+18,0.0,-1.0,-4.0,0.0,-1.0,-2.0,0.0,-2.0
1.695162477970435e+18,0.0,-1.0,-1.0,-1.0,-2.0,-1.0,0.0,0.0
1.695162477989425e+18,0.0,1.0,0.0,4.0,1.0,0.0,0.0,-1.0
1.695162477989425e+18,0.0,-2.0,-1.0,-3.0,-2.0,1.0,0.0,1.0
1.6951624779904259e+18,0.0,-1.0,1.0,-2.0,-1.0,0.0,0.0,-1.0
1.6951624779914227e+18,-1.0,0.0,-1.0,3.0,-2.0,-2.0,-1.0,-2.0
1.6951624780034153e+18,-2.0,0.0,1.0,0.0,0.0,-1.0,0.0,0.0
1.6951624780034153e+18,-2.0,-1.0,-3.0,-1.0,0.0,0.0,-1.0,-1.0
1.6951624780114353e+18,-1.0,0.0,-3.0,-3.0,0.0,0.0,-1.0,0.0
1.6951624780124116e+18,-1.0,-2.0,1.0,0.0,-2.0,0.0,0.0,-2.0
1.6951624780264264e+18,-2.0,-1.0,0.0,-1.0,-1.0,0.0,-1.0,2.0
1.695162478027405e+18,0.0,0.0,-3.0,-2.0,0.0,0.0,-1.0,-2.0
1.6951624780284255e+18,0.0,-2.0,3.0,5.0,-2.0,0.0,-2.0,-2.0
1.6951624780294042e+18,0.0,1.0,-1.0,-2.0,0.0,0.0,-1.0,0.0
1.6951624780423946e+18,-1.0,-1.0,0.0,-3.0,-2.0,0.0,0.0,0.0
1.6951624780423946e+18,0.0,-2.0,0.0,-3.0,-1.0,0.0,-2.0,-2.0
1.6951624780433935e+18,-1.0,0.0,0.0,1.0,0.0,2.0,0.0,-1.0
1.6951624780433935e+18,0.0,-2.0,0.0,-2.0,-1.0,0.0,1.0,0.0
1.6951624780643802e+18,0.0,-3.0,-1.0,1.0,1.0,-1.0,-1.0,-2.0
1.6951624780643802e+18,-1.0,-1.0,-4.0,-1.0,-1.0,-2.0,-2.0,0.0
1.69516247806638e+18,-1.0,0.0,2.0,0.0,-1.0,-2.0,-1.0,-2.0
1.69516247806638e+18,-1.0,0.0,-1.0,2.0,-1.0,-1.0,-2.0,-2.0
1.6951624780793723e+18,1.0,0.0,-1.0,-2.0,0.0,-2.0,-1.0,0.0
1.6951624780793723e+18,1.0,-1.0,-1.0,-2.0,-2.0,0.0,0.0,-1.0
1.6951624780873677e+18,-1.0,-2.0,-2.0,-3.0,0.0,-1.0,0.0,0.0
1.6951624780873677e+18,-1.0,-2.0,2.0,2.0,0.0,0.0,-1.0,-2.0
1.6951624781013688e+18,1.0,0.0,-2.0,-1.0,-1.0,-1.0,-1.0,1.0
1.6951624781023647e+18,-1.0,0.0,0.0,-1.0,0.0,-1.0,0.0,0.0
1.6951624781033582e+18,0.0,-2.0,-4.0,-1.0,-2.0,-1.0,-2.0,0.0
1.6951624781033582e+18,-1.0,-1.0,-4.0,-2.0,-1.0,0.0,-2.0,-1.0
1.6951624781243471e+18,-1.0,1.0,-1.0,2.0,-2.0,1.0,-2.0,-1.0
1.695162478125349e+18,3.0,0.0,1.0,0.0,-1.0,0.0,-1.0,-1.0
1.695162478125349e+18,-2.0,-2.0,-3.0,-2.0,-1.0,-2.0,-1.0,-1.0
1.695162478126349e+18,0.0,0.0,-1.0,-3.0,-1.0,-3.0,-1.0,-1.0
1.6951624781383383e+18,-1.0,0.0,0.0,-1.0,-2.0,-2.0,-1.0,-1.0
1.6951624781383383e+18,0.0,1.0,-1.0,-1.0,1.0,-2.0,0.0,0.0
1.6951624781543293e+18,0.0,0.0,1.0,2.0,-1.0,-2.0,-1.0,0.0
1.6951624781543293e+18,-1.0,-1.0,-2.0,-2.0,0.0,-1.0,-1.0,1.0
1.6951624781613253e+18,-1.0,-2.0,0.0,-4.0,-1.0,-1.0,0.0,0.0
1.6951624781623258e+18,-1.0,0.0,0.0,0.0,0.0,0.0,0.0,-2.0
1.6951624781643246e+18,0.0,0.0,-1.0,-1.0,0.0,-2.0,-1.0,-3.0
1.6951624781643246e+18,0.0,0.0,-1.0,0.0,-2.0,0.0,-1.0,-1.0
1.6951624781843118e+18,0.0,0.0,0.0,1.0,-1.0,0.0,-1.0,-2.0
1.6951624781843118e+18,-1.0,-2.0,0.0,-2.0,0.0,1.0,-2.0,0.0
1.6951624781853115e+18,-2.0,-2.0,-3.0,-2.0,1.0,0.0,0.0,-1.0
1.6951624781863135e+18,-1.0,-1.0,1.0,-1.0,-1.0,0.0,-1.0,-1.0
1.695162478200315e+18,-1.0,0.0,-1.0,-1.0,0.0,0.0,-2.0,-2.0
1.695162478200315e+18,0.0,-1.0,0.0,0.0,-1.0,-1.0,-1.0,0.0
1.6951624782073006e+18,-2.0,0.0,-3.0,-3.0,0.0,1.0,0.0,0.0
1.6951624782073006e+18,-1.0,0.0,-2.0,0.0,0.0,-2.0,-1.0,-1.0
1.6951624782222927e+18,-1.0,-1.0,-1.0,0.0,-1.0,-2.0,-2.0,0.0
1.6951624782222927e+18,-1.0,0.0,-1.0,0.0,-1.0,-1.0,-2.0,0.0
1.6951624782232896e+18,-1.0,-1.0,-1.0,-3.0,-2.0,0.0,-3.0,0.0
1.6951624782232896e+18,-1.0,-2.0,-1.0,-3.0,-2.0,-1.0,1.0,0.0
1.6951624782522742e+18,-1.0,0.0,-1.0,0.0,-1.0,-2.0,0.0,-1.0
1.6951624782522742e+18,-2.0,-2.0,-2.0,-1.0,0.0,-2.0,-1.0,-1.0
1.6951624782532964e+18,0.0,-2.0,-1.0,-3.0,-2.0,-1.0,-1.0,0.0
1.6951624782532964e+18,0.0,0.0,0.0,-2.0,-1.0,-1.0,0.0,-2.0
1.695162478267265e+18,0.0,0.0,1.0,3.0,1.0,-1.0,-1.0,-2.0
1.695162478267265e+18,-1.0,-1.0,0.0,-3.0,-2.0,-2.0,-1.0,-1.0
1.695162478268288e+18,-1.0,0.0,-3.0,-1.0,0.0,0.0,-1.0,-2.0
1.695162478268288e+18,1.0,-1.0,1.0,2.0,-1.0,0.0,-1.0,-1.0
1.695162478283256e+18,-1.0,-1.0,-1.0,-3.0,0.0,-1.0,1.0,-1.0
1.695162478283256e+18,-1.0,1.0,0.0,1.0,-1.0,-2.0,-1.0,-1.0
1.695162478284255e+18,1.0,-1.0,1.0,-1.0,0.0,-2.0,-2.0,-1.0
1.695162478284255e+18,-3.0,-1.0,-1.0,-1.0,-1.0,-2.0,-1.0,-2.0
1.6951624783042588e+18,-2.0,-1.0,-2.0,-1.0,-1.0,-2.0,-1.0,0.0
1.6951624783052467e+18,-1.0,-1.0,1.0,-2.0,0.0,-1.0,1.0,-2.0
1.6951624783062438e+18,0.0,-1.0,0.0,1.0,-3.0,-1.0,2.0,0.0
1.6951624783072422e+18,1.0,0.0,-1.0,-2.0,0.0,0.0,-1.0,1.0
1.6951624783182356e+18,-1.0,-2.0,-3.0,1.0,0.0,-1.0,1.0,0.0
1.6951624783182356e+18,-1.0,0.0,3.0,-1.0,-3.0,-1.0,-1.0,-1.0
1.6951624783272307e+18,-1.0,-1.0,-1.0,-2.0,0.0,-1.0,-2.0,-1.0
1.6951624783272307e+18,-1.0,0.0,-1.0,-2.0,-1.0,0.0,1.0,0.0
1.6951624783422246e+18,-1.0,-2.0,-4.0,-3.0,-2.0,1.0,0.0,0.0
1.6951624783422246e+18,0.0,-3.0,-2.0,1.0,0.0,0.0,0.0,0.0
1.695162478343245e+18,0.0,1.0,-1.0,1.0,0.0,1.0,0.0,-2.0
1.695162478343245e+18,1.0,-2.0,-1.0,0.0,0.0,-1.0,0.0,-2.0
1.6951624783642125e+18,-1.0,1.0,0.0,-2.0,-2.0,-2.0,-2.0,-2.0
1.6951624783652099e+18,-3.0,-1.0,-1.0,3.0,-2.0,-1.0,-2.0,-1.0
1.695162478367208e+18,-1.0,1.0,-1.0,-2.0,-2.0,0.0,-2.0,0.0
1.695162478367208e+18,-2.0,-1.0,0.0,-2.0,0.0,-1.0,0.0,-2.0
1.6951624783782246e+18,0.0,-1.0,0.0,0.0,0.0,0.0,-2.0,0.0
1.6951624783782246e+18,1.0,-2.0,-1.0,-3.0,1.0,0.0,0.0,0.0
1.695162478387198e+18,-1.0,-1.0,-2.0,-2.0,-2.0,-2.0,1.0,-1.0
1.695162478387198e+18,1.0,0.0,-1.0,-1.0,0.0,0.0,-1.0,-2.0
1.6951624784041876e+18,0.0,0.0,0.0,-2.0,-1.0,1.0,0.0,-1.0
1.6951624784041876e+18,0.0,0.0,0.0,0.0,1.0,-2.0,-1.0,-1.0
1.695162478405186e+18,-1.0,0.0,-2.0,-1.0,-1.0,0.0,-1.0,0.0
1.695162478405186e+18,-1.0,-1.0,1.0,0.0,0.0,-3.0,-1.0,1.0
1.69516247842419e+18,-1.0,-2.0,-1.0,-2.0,-1.0,0.0,-2.0,1.0
1.6951624784251748e+18,0.0,0.0,-3.0,-1.0,1.0,1.0,-1.0,0.0
1.6951624784261742e+18,0.0,-1.0,-1.0,-1.0,1.0,-1.0,-1.0,1.0
1.6951624784261742e+18,-1.0,0.0,0.0,-1.0,-2.0,0.0,0.0,-2.0
1.695162478439173e+18,0.0,0.0,0.0,1.0,-3.0,-2.0,0.0,0.0
1.6951624784411663e+18,0.0,0.0,0.0,-3.0,-2.0,-1.0,-1.0,-2.0
1.695162478454175e+18,-2.0,-1.0,-1.0,-1.0,-1.0,0.0,-1.0,-1.0
1.6951624784551572e+18,-1.0,0.0,-1.0,3.0,1.0,0.0,0.0,1.0
1.6951624784771446e+18,1.0,0.0,0.0,-4.0,0.0,-2.0,-1.0,-1.0
1.6951624784771446e+18,-1.0,0.0,-1.0,-1.0,-1.0,1.0,1.0,0.0
1.6951624784781437e+18,-1.0,-2.0,1.0,-2.0,0.0,-2.0,1.0,0.0
1.6951624784791442e+18,-1.0,-1.0,-2.0,-1.0,-3.0,-1.0,-1.0,0.0
1.6951624784881395e+18,-2.0,-3.0,-1.0,0.0,-1.0,-1.0,-2.0,-1.0
1.6951624784911396e+18,-1.0,-2.0,0.0,-1.0,-2.0,-1.0,0.0,0.0
1.6951624784921388e+18,0.0,0.0,-1.0,-3.0,-1.0,0.0,-2.0,-2.0
1.6951624784921388e+18,0.0,-2.0,-1.0,0.0,-3.0,-2.0,-2.0,-1.0
1.6951624785071278e+18,1.0,1.0,-3.0,-1.0,-2.0,-4.0,-1.0,-1.0
1.6951624785071278e+18,-2.0,-3.0,-3.0,-4.0,0.0,-2.0,0.0,-2.0
1.6951624785081285e+18,-1.0,-3.0,-2.0,5.0,0.0,-1.0,-1.0,-3.0
1.6951624785081285e+18,-2.0,-2.0,-2.0,-2.0,1.0,-1.0,-3.0,-2.0
1.695162478529545e+18,-1.0,-1.0,-1.0,-2.0,-1.0,-1.0,-2.0,-4.0
1.6951624785375416e+18,-2.0,-1.0,-2.0,-2.0,-2.0,-1.0,-1.0,-1.0
1.6951624785385403e+18,-1.0,-1.0,0.0,3.0,-1.0,-1.0,0.0,-1.0
1.6951624785385403e+18,-3.0,-2.0,-1.0,1.0,0.0,-1.0,0.0,-2.0
1.6951624785445599e+18,-2.0,-2.0,-3.0,0.0,-1.0,0.0,1.0,-1.0
1.695162478545536e+18,-2.0,-2.0,-3.0,2.0,-1.0,-1.0,-2.0,-2.0
1.6951624785465364e+18,-1.0,-1.0,-3.0,2.0,-1.0,-2.0,-2.0,-2.0
1.6951624785465364e+18,0.0,0.0,5.0,-2.0,-2.0,-1.0,-1.0,-1.0
1.6951624785575304e+18,-1.0,-1.0,-8.0,-2.0,-2.0,-2.0,1.0,1.0
1.69516247855853e+18,-1.0,1.0,5.0,-3.0,1.0,-1.0,-3.0,-2.0
1.695162478567523e+18,-2.0,-2.0,-3.0,-4.0,-4.0,-5.0,0.0,0.0
1.695162478567523e+18,-1.0,0.0,0.0,8.0,-1.0,-1.0,-2.0,-2.0
1.6951624785815155e+18,-1.0,2.0,1.0,-15.0,-7.0,-1.0,-1.0,-1.0
1.6951624785815155e+18,0.0,-1.0,-7.0,9.0,7.0,3.0,2.0,0.0
1.6951624785895342e+18,0.0,-2.0,2.0,-3.0,4.0,3.0,0.0,0.0
1.6951624785925115e+18,0.0,-1.0,-1.0,6.0,8.0,0.0,-1.0,-2.0
1.6951624786045046e+18,-3.0,-4.0,-3.0,-7.0,-2.0,1.0,1.0,-4.0
1.6951624786045046e+18,-3.0,-2.0,-1.0,0.0,-10.0,-3.0,-2.0,-1.0
1.6951624786055014e+18,1.0,2.0,2.0,20.0,26.0,-13.0,0.0,0.0
1.6951624786065044e+18,-2.0,-1.0,-7.0,-12.0,-9.0,12.0,-3.0,0.0
1.6951624786180974e+18,-3.0,-1.0,6.0,28.0,6.0,9.0,0.0,-2.0
1.6951624786180974e+18,3.0,1.0,-4.0,-29.0,0.0,-7.0,-2.0,0.0
1.69516247862709e+18,0.0,0.0,2.0,-3.0,-11.0,-3.0,-1.0,-1.0
1.69516247862709e+18,0.0,1.0,-3.0,-5.0,-2.0,-10.0,-3.0,-2.0
1.695162478641665e+18,0.0,2.0,-3.0,0.0,11.0,9.0,2.0,1.0
1.695162478641665e+18,-2.0,-6.0,7.0,6.0,1.0,5.0,-1.0,0.0
1.6951624786554877e+18,-3.0,-5.0,-7.0,1.0,-4.0,-1.0,-1.0,0.0
1.6951624786554877e+18,-1.0,-1.0,-1.0,-3.0,-2.0,-7.0,1.0,2.0
1.6951624786644014e+18,-4.0,-2.0,-5.0,-14.0,-18.0,-5.0,-8.0,-9.0
1.6951624786644014e+18,0.0,3.0,6.0,16.0,-3.0,-10.0,0.0,-1.0
1.6951624786664023e+18,2.0,2.0,-1.0,-29.0,-12.0,-6.0,-5.0,-2.0
1.6951624786664023e+18,-3.0,-4.0,-5.0,-1.0,-9.0,10.0,4.0,0.0
1.6951624786783939e+18,2.0,5.0,3.0,7.0,19.0,4.0,5.0,5.0
1.6951624786783939e+18,3.0,4.0,-4.0,5.0,7.0,-1.0,-4.0,5.0
1.6951624786903862e+18,-8.0,-10.0,3.0,10.0,-5.0,-10.0,6.0,2.0
1.6951624786903862e+18,3.0,2.0,-1.0,-9.0,-2.0,19.0,-1.0,1.0
1.6951624787093747e+18,1.0,7.0,0.0,-5.0,10.0,5.0,2.0,1.0
1.6951624787093747e+18,7.0,-3.0,0.0,9.0,-3.0,-3.0,-1.0,-3.0
1.6951624787103741e+18,-2.0,2.0,3.0,1.0,1.0,2.0,-2.0,0.0
1.6951624787113736e+18,3.0,0.0,-1.0,-5.0,-8.0,-14.0,-6.0,-5.0
1.695162478725368e+18,2.0,-4.0,-2.0,-5.0,-13.0,-9.0,-3.0,-3.0
1.6951624787303654e+18,-7.0,-1.0,-2.0,1.0,-1.0,-5.0,-1.0,-2.0
1.6951624787303654e+18,4.0,3.0,-6.0,-8.0,-10.0,1.0,-4.0,-4.0
1.6951624787313656e+18,-3.0,-3.0,4.0,-2.0,11.0,24.0,6.0,-3.0
1.6951624787383603e+18,4.0,0.0,7.0,3.0,-2.0,-12.0,1.0,5.0
1.6951624787383603e+18,-3.0,-1.0,-5.0,-9.0,1.0,0.0,-10.0,-6.0
1.695162478754553e+18,-1.0,-1.0,0.0,1.0,-7.0,-28.0,-4.0,1.0
1.695162478754553e+18,0.0,3.0,6.0,16.0,-7.0,0.0,1.0,-1.0
1.6951624787615508e+18,-4.0,-3.0,3.0,3.0,35.0,50.0,9.0,4.0
1.6951624787615508e+18,-3.0,-1.0,-22.0,-7.0,-5.0,-2.0,5.0,0.0
1.6951624787675474e+18,-2.0,-6.0,-2.0,-10.0,-7.0,3.0,-5.0,-4.0
1.6951624787765407e+18,-2.0,-3.0,-9.0,1.0,-1.0,-28.0,-6.0,-1.0
1.6951624787845386e+18,-4.0,-6.0,2.0,1.0,-9.0,-18.0,-7.0,-5.0
1.6951624787845386e+18,-2.0,1.0,7.0,-8.0,-17.0,-2.0,2.0,0.0
1.6951624787855378e+18,4.0,8.0,8.0,1.0,3.0,15.0,-2.0,0.0
1.6951624787865347e+18,-2.0,-8.0,-19.0,1.0,0.0,-10.0,-2.0,-1.0
1.695162478807574e+18,-4.0,-1.0,1.0,13.0,-2.0,-13.0,3.0,0.0
1.695162478807574e+18,2.0,0.0,4.0,-2.0,44.0,45.0,7.0,2.0
1.6951624788085757e+18,-3.0,3.0,1.0,-10.0,-18.0,-8.0,-4.0,-4.0
1.6951624788085757e+18,-4.0,-7.0,-3.0,-1.0,14.0,3.0,-2.0,1.0
1.69516247882098e+18,-1.0,0.0,-6.0,-4.0,-29.0,-42.0,-10.0,-3.0
1.6951624788219876e+18,-2.0,-2.0,6.0,0.0,-8.0,6.0,0.0,-1.0
1.69516247882806e+18,-1.0,2.0,0.0,5.0,11.0,19.0,6.0,0.0
1.69516247882806e+18,-2.0,3.0,4.0,0.0,-11.0,-10.0,-5.0,-3.0
1.6951624788443077e+18,1.0,-4.0,2.0,-15.0,-12.0,-7.0,-5.0,-3.0
1.6951624788443077e+18,-6.0,0.0,3.0,9.0,2.0,-9.0,2.0,-1.0
1.6951624788463135e+18,1.0,-3.0,-11.0,3.0,1.0,-1.0,1.0,0.0
1.6951624788463135e+18,2.0,3.0,13.0,-17.0,-2.0,17.0,7.0,2.0
1.6951624788752965e+18,0.0,-6.0,-28.0,11.0,0.0,-4.0,-8.0,0.0
1.6951624788762929e+18,0.0,-3.0,-1.0,-7.0,-12.0,-20.0,-4.0,0.0
1.6951624788762929e+18,-2.0,-1.0,3.0,12.0,13.0,16.0,4.0,1.0
1.6951624788762929e+18,-2.0,-6.0,-17.0,5.0,12.0,12.0,1.0,0.0
1.69516247888129e+18,-2.0,4.0,0.0,-10.0,0.0,-9.0,1.0,-1.0
1.69516247888129e+18,3.0,-2.0,8.0,7.0,13.0,14.0,-1.0,-1.0
1.6951624788955438e+18,-2.0,-7.0,-19.0,-9.0,-11.0,-17.0,-3.0,-4.0
1.6951624788955438e+18,-1.0,5.0,10.0,20.0,11.0,3.0,1.0,0.0
1.69516247891193e+18,5.0,-4.0,-2.0,4.0,3.0,11.0,6.0,-7.0
1.69516247891193e+18,-20.0,11.0,20.0,-2.0,-14.0,-16.0,-4.0,-13.0
1.6951624789179292e+18,3.0,-13.0,21.0,7.0,23.0,22.0,-3.0,13.0
1.6951624789189274e+18,-6.0,-5.0,-47.0,-21.0,-26.0,-22.0,10.0,-12.0
1.6951624789341806e+18,-1.0,-5.0,-15.0,-24.0,-11.0,-7.0,-36.0,3.0
1.6951624789341806e+18,20.0,14.0,34.0,18.0,16.0,7.0,6.0,39.0
1.695162478936182e+18,-4.0,4.0,-5.0,0.0,-5.0,-11.0,6.0,-6.0
1.695162478936182e+18,-2.0,2.0,17.0,5.0,4.0,24.0,8.0,-11.0
1.6951624789404828e+18,-6.0,-12.0,-14.0,-2.0,-11.0,-3.0,19.0,-8.0
1.6951624789404828e+18,-1.0,1.0,-14.0,-12.0,-21.0,-9.0,-10.0,-29.0
1.695162478958397e+18,-1.0,-8.0,-48.0,-16.0,-7.0,1.0,-13.0,-7.0
1.6951624789593902e+18,-6.0,10.0,50.0,39.0,43.0,4.0,3.0,24.0
1.695162478971388e+18,-1.0,-2.0,1.0,-4.0,-7.0,1.0,1.0,5.0
1.695162478972375e+18,-4.0,-6.0,7.0,-9.0,-20.0,-24.0,-5.0,-7.0
1.6951624789733865e+18,5.0,19.0,-17.0,11.0,0.0,2.0,16.0,-23.0
1.6951624789733865e+18,-4.0,-10.0,7.0,-20.0,6.0,0.0,-24.0,18.0
1.6951624789863575e+18,2.0,0.0,-11.0,11.0,-7.0,-18.0,-7.0,-27.0
1.695162478987376e+18,-6.0,-7.0,-19.0,6.0,30.0,74.0,15.0,-8.0
1.6951624789883584e+18,9.0,14.0,35.0,-7.0,-31.0,-46.0,15.0,4.0
1.6951624789883584e+18,-14.0,-25.0,-41.0,-20.0,-20.0,-11.0,-10.0,42.0
1.695162479009345e+18,8.0,9.0,38.0,12.0,37.0,8.0,-10.0,31.0
1.695162479009345e+18,2.0,-31.0,-57.0,-17.0,-8.0,2.0,9.0,-8.0
1.6951624790103654e+18,1.0,10.0,18.0,7.0,2.0,37.0,14.0,-21.0
1.6951624790113413e+18,0.0,8.0,3.0,-4.0,-9.0,-35.0,-5.0,-11.0
1.6951624790244874e+18,-5.0,2.0,6.0,3.0,-15.0,16.0,5.0,-4.0
1.6951624790244874e+18,5.0,0.0,-23.0,0.0,0.0,-20.0,-8.0,-5.0
1.6951624790254866e+18,-5.0,14.0,38.0,-5.0,6.0,8.0,1.0,3.0
1.6951624790264837e+18,-4.0,-43.0,-100.0,-14.0,-19.0,-7.0,-6.0,-9.0
1.6951624790468575e+18,3.0,4.0,2.0,-8.0,-10.0,-15.0,7.0,-2.0
1.6951624790468575e+18,-1.0,20.0,61.0,23.0,2.0,-1.0,-10.0,-9.0
1.6951624790488602e+18,-2.0,-6.0,-3.0,10.0,22.0,11.0,5.0,49.0
1.6951624790488602e+18,18.0,21.0,51.0,-24.0,-13.0,-11.0,-21.0,-13.0
1.6951624790601257e+18,-5.0,-3.0,14.0,5.0,-1.0,6.0,17.0,6.0
1.6951624790611471e+18,-3.0,0.0,-17.0,-4.0,-3.0,-12.0,1.0,10.0
1.6951624790771154e+18,0.0,3.0,48.0,5.0,5.0,-1.0,-26.0,-34.0
1.6951624790781379e+18,6.0,-6.0,38.0,8.0,2.0,-1.0,2.0,-9.0
1.6951624790841114e+18,6.0,-1.0,5.0,11.0,16.0,17.0,11.0,11.0
1.6951624790851118e+18,-10.0,16.0,46.0,9.0,2.0,-5.0,1.0,1.0
1.6951624790861087e+18,-9.0,-16.0,-23.0,-15.0,-7.0,-13.0,-11.0,-10.0
1.6951624790861087e+18,27.0,12.0,45.0,6.0,1.0,15.0,6.0,5.0
1.6951624791150938e+18,-6.0,-3.0,-17.0,-10.0,-1.0,-2.0,3.0,-6.0
1.6951624791160924e+18,-1.0,21.0,65.0,9.0,-6.0,-15.0,-1.0,-4.0
1.6951624791210903e+18,-3.0,-29.0,-115.0,-9.0,-2.0,0.0,-11.0,5.0
1.6951624791210903e+18,4.0,19.0,19.0,16.0,2.0,-1.0,2.0,-4.0
1.6951624791220887e+18,3.0,-2.0,-34.0,-15.0,3.0,9.0,11.0,19.0
1.6951624791220887e+18,4.0,-11.0,-25.0,-3.0,-1.0,-5.0,-6.0,-1.0
1.6951624791535972e+18,-5.0,-4.0,30.0,-3.0,-3.0,5.0,8.0,3.0
1.6951624791545787e+18,-7.0,-15.0,-68.0,0.0,0.0,1.0,13.0,-8.0
1.6951624791545787e+18,-2.0,27.0,47.0,17.0,9.0,-8.0,-30.0,-11.0
1.6951624791545787e+18,-3.0,-20.0,-30.0,-24.0,-24.0,-7.0,-2.0,-1.0
1.695162479157646e+18,4.0,-5.0,19.0,14.0,19.0,10.0,2.0,12.0
1.6951624791586708e+18,-5.0,5.0,-15.0,0.0,-3.0,1.0,6.0,-3.0
1.6951624791743693e+18,-4.0,-16.0,28.0,9.0,8.0,7.0,7.0,-7.0
1.6951624791743693e+18,-4.0,5.0,-59.0,-15.0,-5.0,-8.0,-14.0,-7.0
1.695162479176376e+18,1.0,-2.0,1.0,-2.0,-8.0,-6.0,-12.0,7.0
1.695162479176376e+18,-6.0,33.0,24.0,-7.0,4.0,4.0,0.0,-8.0
1.695162479197369e+18,0.0,0.0,-60.0,-17.0,-8.0,-3.0,-10.0,-7.0
1.6951624792043653e+18,1.0,9.0,39.0,1.0,0.0,2.0,10.0,4.0
1.695162479205367e+18,-9.0,-32.0,-22.0,9.0,3.0,-2.0,1.0,5.0
1.695162479205367e+18,14.0,-6.0,32.0,2.0,3.0,-1.0,2.0,10.0
1.695162479205367e+18,-14.0,21.0,33.0,-11.0,-14.0,-4.0,-7.0,-11.0
1.695162479205367e+18,-5.0,-30.0,-29.0,1.0,5.0,0.0,4.0,2.0
1.695162479218357e+18,-2.0,16.0,0.0,3.0,5.0,5.0,15.0,-11.0
1.695162479218357e+18,-4.0,-13.0,15.0,9.0,4.0,0.0,-11.0,-6.0
1.695162479226832e+18,1.0,-8.0,-43.0,-3.0,-7.0,-8.0,-10.0,4.0
1.695162479226832e+18,0.0,16.0,-35.0,-9.0,-23.0,-14.0,-12.0,3.0
1.695162479228458e+18,1.0,24.0,39.0,10.0,30.0,9.0,-3.0,0.0
1.695162479228458e+18,-9.0,-10.0,17.0,-2.0,0.0,1.0,9.0,-2.0
1.695162479250866e+18,-1.0,9.0,-37.0,3.0,-8.0,-1.0,2.0,-7.0
1.6951624792518656e+18,-8.0,-15.0,15.0,1.0,3.0,2.0,-4.0,-1.0
1.6951624792518656e+18,27.0,44.0,-42.0,-33.0,-27.0,-16.0,-14.0,3.0
1.6951624792518656e+18,-7.0,-6.0,-15.0,2.0,4.0,4.0,4.0,-17.0
1.6951624792638582e+18,-5.0,-28.0,57.0,13.0,-2.0,1.0,-4.0,-5.0
1.6951624792638582e+18,-9.0,-53.0,-19.0,-7.0,18.0,7.0,12.0,15.0
1.695162479287851e+18,5.0,-12.0,9.0,-2.0,-11.0,-6.0,1.0,-12.0
1.695162479287851e+18,-8.0,-1.0,3.0,9.0,2.0,-8.0,-6.0,-4.0
1.6951624792888558e+18,24.0,26.0,-14.0,-9.0,-3.0,9.0,6.0,11.0
1.6951624792888558e+18,9.0,10.0,11.0,14.0,14.0,17.0,17.0,24.0
1.695162479289855e+18,-6.0,-30.0,7.0,-24.0,-14.0,-1.0,1.0,-2.0
1.6951624792908536e+18,-23.0,-2.0,-40.0,-13.0,-8.0,-10.0,-13.0,-28.0
1.6951624793258706e+18,-13.0,-11.0,-2.0,3.0,-6.0,-24.0,-4.0,-10.0
1.6951624793258706e+18,-9.0,-3.0,-2.0,2.0,-1.0,-4.0,-1.0,5.0
1.6951624793268692e+18,-1.0,22.0,78.0,19.0,8.0,24.0,2.0,2.0
1.6951624793268692e+18,-4.0,6.0,-30.0,-5.0,-8.0,-3.0,-1.0,5.0
1.6951624793278797e+18,-9.0,-12.0,14.0,-3.0,16.0,8.0,5.0,-32.0
1.6951624793278797e+18,-2.0,-10.0,-7.0,-1.0,-1.0,-10.0,1.0,-1.0
1.6951624793318684e+18,-4.0,2.0,-11.0,-1.0,-13.0,-11.0,0.0,-11.0
1.6951624793328663e+18,-5.0,17.0,-16.0,-6.0,1.0,7.0,1.0,-29.0
1.6951624793468577e+18,8.0,-27.0,26.0,2.0,-1.0,1.0,-7.0,45.0
1.695162479347858e+18,11.0,11.0,-20.0,-6.0,-11.0,-19.0,-17.0,-10.0
1.6951624793488576e+18,-11.0,-15.0,-34.0,8.0,0.0,10.0,18.0,-20.0
