timestamp,left_data_Ac_X,left_data_Ac_Y,left_data_Ac_Z,left_data_Gy_X,left_data_Gy_Y,left_data_Gy_Z,left_data_flex_1,left_data_flex_2,left_data_flex_3,left_data_flex_4,left_data_flex_5,right_data_Ac_X,right_data_Ac_Y,right_data_Ac_Z,right_data_Gy_X,right_data_Gy_Y,right_data_Gy_Z,right_data_flex_1,right_data_flex_2,right_data_flex_3,right_data_flex_4,right_data_flex_5
1695163128852394800,-9.135076523,-1.848323703,-1.276109457,-0.033041347,0.179196015,-0.290843785,1,20,36,31,2686,-8.627506256,3.852270603,1.719036818,0.069280244,-0.047163859,0.063151613,-53,-2,0,27,168
1695163128853394800,-9.139864922,-1.841141105,-1.271321058,-0.031575806,0.180528328,-0.293108732,-3,17,36,31,2686,-8.623914719,3.853467703,1.717839718,0.068880551,-0.047563553,0.063950993,-47,-2,1,28,168
1695163128854394800,-9.143456459,-1.835155606,-1.270123959,-0.03011026,0.181993872,-0.295107216,2,9,32,30,2686,-8.626308441,3.853467703,1.719036818,0.068480857,-0.047830015,0.064350687,-48,-2,-1,28,169
1695163128855394800,-9.149441719,-1.824381709,-1.260547161,-0.028245023,0.183725879,-0.297505349,-1,17,33,26,2686,-8.628703117,3.852270603,1.720233917,0.067947932,-0.048229709,0.064750381,-49,-4,-2,25,167
1695163128856394800,-9.154230118,-1.81959331,-1.252167463,-0.026779478,0.18492496,-0.298970878,1,17,36,27,2686,-8.626308441,3.852270603,1.722628117,0.067548238,-0.048629403,0.065150075,-47,-2,-1,25,168
1695163128906389100,-9.222464561,-1.703474522,-1.173158884,-0.015188362,0.205309346,-0.300436467,2,19,32,30,2686,-8.62511158,3.818751812,1.667561531,0.052226644,-0.056490045,0.069946401,-50,-2,1,28,170
1695163128907389100,-9.224859238,-1.698686123,-1.163581967,-0.014921899,0.206108719,-0.298837662,4,17,32,32,2686,-8.623914719,3.821146011,1.668758631,0.051294025,-0.056756508,0.070212863,-48,-1,-1,26,169
1695163128908389100,-9.22725296,-1.696291924,-1.162384868,-0.014522205,0.207041353,-0.29710567,5,20,32,30,2686,-8.621520042,3.821146011,1.666364431,0.050494641,-0.056889739,0.070612557,-49,-2,0,25,167
1695163128909389100,-9.229647636,-1.697489023,-1.15400517,-0.014122511,0.207707509,-0.295373648,4,21,37,31,2686,-8.61912632,3.818751812,1.663970232,0.049828485,-0.056623276,0.07087902,-49,-2,1,29,169
1695163128910389100,-9.22725296,-1.695094824,-1.145625472,-0.01385605,0.20824042,-0.29350841,8,17,33,30,2686,-8.615534782,3.817554712,1.662773132,0.049295556,-0.056623276,0.071145482,-47,-2,0,29,169
1695163128947366200,-9.161413193,-1.71065712,-1.007958889,0.008660031,0.21197091,-0.241947934,6,20,37,30,2686,-8.634688377,3.787626982,1.618480325,0.047563553,-0.05489127,0.073810108,-50,-2,-1,28,170
1695163128948366200,-9.160215378,-1.70946002,-1.00556469,0.010125575,0.211437985,-0.239283308,5,19,35,34,2686,-8.637083054,3.788824081,1.620874524,0.04729709,-0.053958651,0.073277183,-47,-2,-2,26,167
1695163128949366200,-9.160215378,-1.705868721,-0.999579191,0.011457887,0.210638598,-0.23635222,-1,17,35,30,2686,-8.637083054,3.791218281,1.618480325,0.046764165,-0.053026035,0.072611026,-47,-2,-1,28,168
1695163128950366200,-9.161413193,-1.70826292,-0.993593693,0.012790199,0.209839195,-0.233687595,4,17,33,28,2686,-8.641871452,3.791218281,1.626860023,0.046098009,-0.051960181,0.07194487,-47,-5,-2,26,170
1695163128951366200,-9.160215378,-1.70826292,-0.982819796,0.014122511,0.208773345,-0.230889738,1,19,33,31,2686,-8.643068314,3.791218281,1.629254222,0.045565084,-0.051294025,0.071545176,-48,-4,0,29,165
1695163128980328000,-9.118317604,-1.702277422,-0.860715508,0.026513018,0.169603363,-0.172267988,-1,7,31,30,2686,-8.59278965,3.760093689,1.625662923,0.024914242,-0.040768761,0.061686065,-49,-2,-1,29,172
1695163128981328000,-9.114726067,-1.697489023,-0.852335811,0.027045943,0.166938737,-0.168404296,3,17,31,24,2686,-8.588001251,3.754108191,1.625662923,0.024914242,-0.041301683,0.061819296,-50,-3,-2,26,169
1695163128982328000,-9.111134529,-1.698686123,-0.845153213,0.027578866,0.164274111,-0.164274111,2,21,31,30,2686,-8.58680439,3.749319792,1.625662923,0.025047474,-0.042101074,0.062085759,-46,-2,-1,26,170
1695163128983328000,-9.107542992,-1.696291924,-0.843956113,0.02797856,0.161476254,-0.160277188,0,17,32,29,2686,-8.58680439,3.742137194,1.625662923,0.025580399,-0.042900458,0.062352221,-46,-2,-1,28,172
1695163128984328000,-9.103952408,-1.693897724,-0.839167714,0.028378254,0.15841195,-0.156280249,-1,9,31,27,2686,-8.585607529,3.737348795,1.625662923,0.026113322,-0.043433387,0.062485453,-49,-2,-1,28,167
1695163129012329000,-9.105149269,-1.650802016,-0.798466265,0.007194487,0.085534461,-0.071811639,-1,17,28,30,2686,-8.58081913,3.722983599,1.549048543,0.041701376,-0.046364475,0.056356817,-49,-2,-1,28,169
1695163129013329000,-9.105149269,-1.650802016,-0.798466265,0.005062787,0.081271052,-0.066482387,0,17,30,29,2686,-8.578424454,3.724180698,1.547851443,0.040768761,-0.045032158,0.055424199,-47,-2,0,28,169
1695163129014329000,-9.105149269,-1.653196216,-0.798466265,0.002797856,0.076874427,-0.060753446,1,17,31,29,2686,-8.574832916,3.726574898,1.545457244,0.039702907,-0.043699846,0.054491576,-47,-2,0,25,172
1695163129015329000,-9.105149269,-1.650802016,-0.793677866,0.000399694,0.072611026,-0.055157732,1,17,29,30,2686,-8.572439194,3.731363297,1.541865945,0.038370594,-0.042101074,0.053825419,-46,-2,0,26,169
1695163129016329000,-9.108740807,-1.651999116,-0.791283667,-0.001865237,0.068081163,-0.04969525,0,11,35,29,2686,-8.574832916,3.733757496,1.535880446,0.037038282,-0.040502299,0.053026035,-46,-3,1,28,170
1695163129043291900,-9.096769333,-1.70946002,-0.889445961,-0.032108728,-0.02358193,0.04516539,5,17,33,28,2686,-8.591592789,3.739742994,1.503558636,0.018652374,-0.013189893,0.042900458,-47,-2,0,30,169
1695163129044291900,-9.09437561,-1.71065712,-0.89303726,-0.033574272,-0.027578866,0.049295556,1,17,30,30,2686,-8.593987465,3.739742994,1.505952835,0.018519141,-0.011990812,0.042633995,-53,-4,0,28,169
1695163129045291900,-9.09437561,-1.71065712,-0.902614057,-0.034773353,-0.031442571,0.053292494,4,9,33,30,2686,-8.595184326,3.738545895,1.510741234,0.018519141,-0.011191424,0.042234302,-47,-2,-1,30,168
1695163129046291900,-9.093177795,-1.711854219,-0.910993755,-0.036238898,-0.035039816,0.057289433,2,21,32,29,2686,-8.595184326,3.739742994,1.513135433,0.018519141,-0.010258805,0.041834611,-49,-3,4,26,169
1695163129047291900,-9.090784073,-1.713051319,-0.915782154,-0.038104136,-0.038370594,0.061286367,-1,17,33,27,2686,-8.598775864,3.738545895,1.517923832,0.018385911,-0.009326187,0.041701376,-49,-2,-1,29,168
1695163129078271400,-9.051279068,-1.742978811,-1.048660398,-0.068480857,-0.079006128,0.123638593,-1,17,35,29,2686,-8.598775864,3.725377798,1.556231141,0.019718224,-0.000133231,0.045032158,-54,-3,-1,28,168
1695163129079271400,-9.051279068,-1.745373011,-1.054645896,-0.069413476,-0.080871366,0.12616998,-1,17,28,30,2686,-8.596381187,3.724180698,1.555034041,0.020784073,0.000133231,0.045298621,-46,-3,-2,28,185
1695163129080271400,-9.051279068,-1.74896431,-1.059434295,-0.070479326,-0.082736596,0.128701374,1,9,30,29,2686,-8.598775864,3.7193923,1.563413739,0.022116385,0.000399694,0.045698319,-44,-2,-2,28,170
1695163129081271400,-9.051279068,-1.752555609,-1.065419793,-0.071545176,-0.084735066,0.131232768,5,7,32,27,2686,-8.601169586,3.7181952,1.565807939,0.023315467,0.000266462,0.045964777,-47,-2,-2,30,169
1695163129082271400,-9.050082207,-1.754949808,-1.074996591,-0.072477795,-0.086333841,0.133630931,4,17,36,29,2686,-8.603564262,3.7169981,1.570596337,0.024781011,0.000399694,0.04623124,-50,-3,-1,27,169
1695163129111271600,-9.015366554,-1.784877419,-1.164779186,-0.092329249,-0.102055125,0.178529859,2,17,33,29,2686,-8.615534782,3.739742994,1.600523829,0.032108728,-0.002931087,0.041434918,-49,-2,-1,28,169
1695163129112271600,-9.018958092,-1.784877419,-1.174355984,-0.093928024,-0.102721281,0.180928022,1,10,31,30,2686,-8.61314106,3.737348795,1.59693253,0.031176111,-0.002931087,0.040901989,-48,-3,-2,26,168
1695163129113271600,-9.017760277,-1.78368032,-1.181538582,-0.0955268,-0.103387438,0.182926491,0,19,29,29,2686,-8.61314106,3.736151695,1.59693253,0.030243492,-0.003064318,0.040369064,-47,-2,1,28,169
1695163129114271600,-9.021351814,-1.78248322,-1.185129881,-0.097258806,-0.104186833,0.185058191,-1,9,28,27,2686,-8.611943245,3.734954596,1.593341231,0.029577335,-0.003064318,0.039836142,-51,-2,0,26,169
1695163129115271600,-9.02374649,-1.784877419,-1.191115379,-0.098857582,-0.104852989,0.187323123,0,9,30,29,2686,-8.61314106,3.733757496,1.590947032,0.02904441,-0.003064318,0.039436448,-51,-2,-1,28,167
1695163129143253800,-9.058462143,-1.856703401,-1.26653266,-0.121773355,-0.111248083,0.232888207,2,17,32,26,2686,-8.645462036,3.739742994,1.569399238,0.025846859,0.004396631,0.028111791,-51,-2,1,24,170
1695163129144253800,-9.058462143,-1.8602947,-1.261744261,-0.12230628,-0.110715166,0.235552832,2,17,31,28,2686,-8.646659851,3.744531393,1.574187636,0.024514547,0.005462481,0.027312404,-49,-2,1,30,170
1695163129145253800,-9.059659004,-1.863885999,-1.26413846,-0.122572735,-0.110315464,0.238350689,0,10,31,29,2686,-8.652645111,3.749319792,1.575384736,0.022915773,0.006928025,0.026513018,-47,-2,0,28,170
1695163129146253800,-9.060855865,-1.865083098,-1.270123959,-0.122705974,-0.109915771,0.240882084,0,9,31,28,2686,-8.656236649,3.754108191,1.580173135,0.021050537,0.008260337,0.02571363,-47,-3,0,29,168
1695163129147253800,-9.063250542,-1.873462796,-1.276109457,-0.122972436,-0.109649308,0.243413478,-1,6,31,28,2686,-8.661025047,3.758896589,1.584961534,0.018918836,0.009725881,0.024781011,-50,0,-2,29,168
1695163129178212000,-9.118317604,-1.983596087,-1.328781962,-0.124837674,-0.100456357,0.264330775,-1,18,32,29,2686,-8.696937561,3.75650239,1.594538331,-0.030243492,0.027712099,0.003064318,-46,-2,-1,31,172
1695163129179212000,-9.124302864,-1.989581585,-1.332373261,-0.125370592,-0.099790201,0.263797849,3,17,29,32,2686,-8.693346024,3.754108191,1.59812963,-0.032108728,0.028245023,0.001998469,-49,-2,1,26,169
1695163129180212000,-9.126696587,-1.995567083,-1.331176162,-0.126036748,-0.098857582,0.263131708,0,17,32,29,2686,-8.6957407,3.751713991,1.606509328,-0.033707503,0.028644716,0.000799387,-48,-2,1,29,169
1695163129181212000,-9.126696587,-1.999158382,-1.327584863,-0.126303226,-0.098058186,0.262199074,0,11,29,27,2686,-8.694543839,3.748122692,1.604115129,-0.035039816,0.02904441,-0.000266462,-49,-2,-1,28,173
1695163129182212000,-9.133879662,-2.002749681,-1.326387763,-0.126836136,-0.097125575,0.261133224,0,17,33,30,2686,-8.692149162,3.748122692,1.606509328,-0.036238898,0.029444104,-0.001332312,-49,-2,-1,29,170
1695163129210215900,-9.210494041,-2.092532396,-1.406593442,-0.128301695,-0.069679938,0.199713632,0,18,33,29,2686,-8.674192429,3.785232782,1.711854219,-0.053026035,0.036238898,-0.014788668,-49,-1,0,31,170
1695163129211215900,-9.210494041,-2.092532396,-1.41018486,-0.127768755,-0.067548238,0.19425115,2,17,30,29,2686,-8.677783966,3.787626982,1.714248419,-0.053692192,0.035572741,-0.014655436,-45,-2,0,29,169
1695163129212215900,-9.21528244,-2.090138197,-1.417367458,-0.12723583,-0.065416537,0.188522205,0,21,35,29,2686,-8.681375504,3.790021181,1.717839718,-0.054758042,0.034773353,-0.014388974,-51,-2,3,29,167
1695163129213215900,-9.220070839,-2.091335297,-1.419761658,-0.126702905,-0.063151613,0.182526797,-1,17,30,30,2686,-8.683769226,3.79241538,1.717839718,-0.05595712,0.033574272,-0.014122511,-46,-2,3,31,170
1695163129214215900,-9.224859238,-2.092532396,-1.420958757,-0.12616998,-0.060886677,0.176398173,4,17,32,30,2686,-8.686163902,3.79480958,1.721431017,-0.056889739,0.031842265,-0.01385605,-45,-2,1,31,170
1695163129244176600,-9.175778389,-2.067393064,-1.425747156,-0.107517615,0.016653905,0.051027562,1,9,35,31,2686,-8.708909035,3.778050184,1.678335428,-0.025047474,-0.033174578,0.019185297,-44,-2,0,32,170
1695163129245176600,-9.168595314,-2.064998865,-1.417367458,-0.105785601,0.02158346,0.044898927,1,17,33,28,2686,-8.705317497,3.780444384,1.674744129,-0.021849923,-0.036638591,0.021450229,-47,-2,2,30,170
1695163129246176600,-9.161413193,-2.061407566,-1.406593442,-0.103920363,0.026513018,0.038903523,5,10,30,28,2686,-8.704120636,3.785232782,1.673547029,-0.019718224,-0.038770292,0.022915773,-47,-2,0,30,172
1695163129247176600,-9.157821655,-2.061407566,-1.398213744,-0.10178867,0.031442571,0.033041347,2,18,32,27,2686,-8.70172596,3.786429882,1.67115283,-0.016387442,-0.041834611,0.025047474,-47,-2,-1,40,171
1695163129248176600,-9.155426979,-2.061407566,-1.393425345,-0.099656969,0.036238898,0.027712099,1,17,36,30,2686,-8.700529099,3.788824081,1.663970232,-0.012257273,-0.045298621,0.02797856,-47,-2,1,27,170
1695163129278153800,-9.082404137,-1.959654093,-1.233013868,-0.042900458,0.096992344,-0.047030624,1,17,34,30,2686,-8.676587105,3.787626982,1.551442742,0.002398162,-0.061419602,0.061286367,-46,-6,0,31,169
1695163129279153800,-9.083600998,-1.953668594,-1.224634171,-0.03996937,0.098324656,-0.049162328,0,18,37,29,2686,-8.676587105,3.782838583,1.544260144,0.001865237,-0.061286367,0.062751912,-47,-3,-1,28,165
1695163129280153800,-9.081207275,-1.945288897,-1.212663174,-0.037437979,0.099257268,-0.051294025,4,17,33,28,2686,-8.677783966,3.778050184,1.539471745,0.001732006,-0.061286367,0.064217456,-44,-2,3,28,170
1695163129281153800,-9.080010414,-1.939303398,-1.205480576,-0.035039816,0.100189894,-0.053159267,1,17,32,29,2686,-8.677783966,3.773261786,1.533486247,0.001598775,-0.061019909,0.065549769,-47,-2,1,30,169
1695163129282153800,-9.0740242,-1.9333179,-1.192312479,-0.032774884,0.100989282,-0.054624807,-1,17,31,28,2686,-8.676587105,3.766079187,1.52390933,0.001598775,-0.060886677,0.067015313,-47,-1,-2,30,169
1695163129311134700,-9.052476883,-1.867477298,-1.057040095,-0.006661562,0.100189894,-0.05768913,0,18,32,29,2686,-8.628703117,3.67869091,1.461660147,0.019984685,-0.053425729,0.083269522,-49,-2,1,26,169
1695163129312134700,-9.052476883,-1.868674397,-1.048660398,-0.005329249,0.099656969,-0.056889739,0,17,29,32,2686,-8.623914719,3.677493811,1.462857246,0.020384381,-0.052226644,0.083402753,-47,-3,1,29,165
1695163129313134700,-9.048885345,-1.866280198,-1.048660398,-0.003996937,0.098990813,-0.055557426,2,9,30,27,2686,-8.61912632,3.677493811,1.465251446,0.02051761,-0.051027562,0.083535992,-47,-2,3,29,169
1695163129314134700,-9.047688484,-1.863885999,-1.043871999,-0.002664625,0.098191425,-0.054358348,2,11,32,29,2686,-8.611943245,3.675099611,1.461660147,0.020251149,-0.049162328,0.083802447,-48,-2,3,28,168
1695163129315134700,-9.046490669,-1.862688899,-1.040280581,-0.001332312,0.09739203,-0.053292494,2,11,33,30,2686,-8.605957985,3.671508312,1.464054346,0.019718224,-0.047563553,0.083802447,-48,-1,1,29,170
1695163129346115400,-9.10634613,-1.855506301,-0.995987892,0.014122511,0.061686065,-0.038903523,6,17,29,31,2686,-8.568847656,3.60327363,1.498770237,0.001332312,-0.019052068,0.072078094,-47,-2,1,28,169
1695163129347115400,-9.10634613,-1.856703401,-0.997184992,0.014122511,0.059287902,-0.038637057,2,19,32,30,2686,-8.570044518,3.599682331,1.501164436,0.001332312,-0.01825268,0.07087902,-47,-2,0,28,170
1695163129348115400,-9.102754593,-1.855506301,-0.997184992,0.01385605,0.056889739,-0.038637057,1,17,29,30,2686,-8.571242332,3.594893932,1.501164436,0.001598775,-0.017852986,0.069546707,-46,-2,1,31,172
1695163129349115400,-9.10634613,-1.854309201,-1.000776291,0.013589587,0.054624807,-0.038370594,1,17,31,28,2686,-8.573636055,3.591302633,1.504755735,0.001865237,-0.017586524,0.068614088,-45,0,0,31,170
1695163129350115400,-9.109937668,-1.851915002,-0.995987892,0.013189893,0.052226644,-0.038637057,1,18,30,29,2686,-8.577227592,3.588908434,1.507149935,0.0021317,-0.017453292,0.067281775,-45,-2,1,30,171
1695163129381096100,-9.180566788,-1.830367208,-1.017535686,0.003064318,0.021450229,-0.048362937,-1,9,27,27,2686,-8.614337921,3.60566783,1.582567334,0.010125575,0.000799387,0.033307809,-46,-2,1,30,170
1695163129382096100,-9.178172112,-1.830367208,-1.018732786,0.001998469,0.019451762,-0.049295556,0,7,31,30,2686,-8.61912632,3.611653328,1.586158633,0.009592649,0.001598775,0.031709034,-48,-2,3,29,169
1695163129383096100,-9.18296051,-1.829170108,-1.022324085,0.000799387,0.017719755,-0.050361406,-1,9,27,28,2686,-8.620323181,3.616441727,1.592144132,0.009059724,0.002398162,0.03011026,-47,-2,2,31,171
1695163129384096100,-9.185355186,-1.825578809,-1.030703783,-0.000133231,0.015854517,-0.05142726,4,10,27,30,2686,-8.622717857,3.621230125,1.59693253,0.008393568,0.002931087,0.028511487,-47,-2,0,25,170
1695163129385096100,-9.186552048,-1.823184609,-1.037886381,-0.001199081,0.014122511,-0.052626338,-1,9,28,26,2686,-8.62511158,3.624821424,1.59693253,0.007860643,0.003464012,0.027179174,-44,-1,3,30,170
1695163129421074700,-9.15063858,-1.807622313,-1.091755986,-0.013589587,-0.0021317,-0.078606427,-1,6,28,24,2686,-8.644265175,3.636792421,1.619677424,0.017053599,-0.013456355,0.02917764,-49,-3,2,30,170
1695163129422074700,-9.14465332,-1.806425214,-1.091755986,-0.014122511,-0.002398162,-0.080338441,0,10,26,27,2686,-8.644265175,3.634398222,1.618480325,0.019584993,-0.01505513,0.029977029,-45,-3,0,29,172
1695163129423074700,-9.14465332,-1.799242616,-1.097741485,-0.014921899,-0.002664625,-0.082203679,-1,9,29,29,2686,-8.644265175,3.632004023,1.622071624,0.022116385,-0.016653905,0.030776417,-46,-2,4,29,169
1695163129424074700,-9.145850182,-1.788468719,-1.106121182,-0.015588055,-0.003064318,-0.084068909,-2,17,29,29,2686,-8.644265175,3.629609823,1.620874524,0.024781011,-0.01825268,0.031442571,-47,-2,1,29,170
1695163129425074700,-9.142259598,-1.78368032,-1.109712481,-0.016387442,-0.003597243,-0.085934147,-1,10,29,24,2686,-8.645462036,3.630806923,1.622071624,0.027445635,-0.020117918,0.032241959,-51,-1,0,30,170
1695163129454053800,-9.121908188,-1.736993313,-1.15280807,-0.033973966,-0.00319755,-0.103254206,-1,17,30,28,2686,-8.614337921,3.663128614,1.604115129,0.047963247,-0.025047474,0.034506891,-45,-5,1,31,173
1695163129455053800,-9.123106003,-1.732204914,-1.15400517,-0.033707503,-0.00319755,-0.102987751,1,9,31,29,2686,-8.61314106,3.665522814,1.59693253,0.046897396,-0.023981623,0.034240428,-48,-2,3,31,170
1695163129456053800,-9.119514465,-1.731007814,-1.158793569,-0.033441041,-0.003064318,-0.102721281,-1,17,32,26,2686,-8.614337921,3.670311213,1.594538331,0.045831546,-0.022915773,0.034240428,-47,-4,1,30,172
1695163129457053800,-9.117119789,-1.728613615,-1.159990668,-0.032774884,-0.003064318,-0.102454826,-1,17,33,29,2686,-8.616731644,3.670311213,1.594538331,0.044632465,-0.021849923,0.033840735,-50,-2,0,28,170
1695163129458053800,-9.117119789,-1.727416515,-1.161187768,-0.032108728,-0.003330781,-0.102055125,-1,9,27,29,2686,-8.617929459,3.670311213,1.588552833,0.043433387,-0.020784073,0.033574272,-46,-2,1,31,170
1695163129487034800,-9.069235802,-1.659181833,-1.191115379,-0.024914242,-0.006128637,-0.079805516,2,21,31,29,2686,-8.639476776,3.682282209,1.610100627,0.03650536,-0.007594181,0.026779478,-48,-2,-2,30,172
1695163129488034800,-9.066842079,-1.659181833,-1.194706678,-0.02571363,-0.005728943,-0.07794027,2,9,33,25,2686,-8.641871452,3.683479309,1.608903527,0.036638591,-0.007594181,0.026513018,-50,-2,1,29,170
1695163129489034800,-9.06205368,-1.660378933,-1.193509579,-0.026379786,-0.005728943,-0.075941809,-1,9,30,26,2686,-8.645462036,3.685873508,1.608903527,0.036905054,-0.007594181,0.026513018,-47,-3,-1,29,169
1695163129490034800,-9.060855865,-1.661576033,-1.195903778,-0.027312404,-0.005462481,-0.073810108,-1,7,31,26,2686,-8.646659851,3.689464808,1.608903527,0.037171517,-0.007460949,0.026646247,-44,-2,1,30,169
1695163129491034800,-9.060855865,-1.661576033,-1.199495077,-0.02797856,-0.005329249,-0.071678407,0,10,32,30,2686,-8.644265175,3.690661907,1.610100627,0.037304748,-0.007460949,0.02691271,-49,-2,3,26,169
1695163129532009000,-9.042900085,-1.691503525,-1.238999367,-0.035306279,-0.008793262,-0.037038282,1,10,35,28,2686,-8.65144825,3.713406801,1.650802016,0.045431852,-0.005862175,0.028111791,-44,-1,7,31,172
1695163129533009000,-9.041702271,-1.691503525,-1.237802267,-0.03543951,-0.008926493,-0.035572741,-1,7,29,27,2686,-8.65144825,3.715801001,1.654393315,0.045431852,-0.005728943,0.02797856,-47,-2,1,30,170
1695163129534009000,-9.041702271,-1.692700624,-1.241393566,-0.035839204,-0.009326187,-0.034107197,-1,17,30,29,2686,-8.649053574,3.7169981,1.654393315,0.045298621,-0.005728943,0.027845331,-47,-1,3,31,170
1695163129535009000,-9.044096947,-1.693897724,-1.241393566,-0.036105666,-0.009592649,-0.032641653,0,9,31,29,2686,-8.644265175,3.720589399,1.659181833,0.04516539,-0.005728943,0.027712099,-47,-2,1,30,170
1695163129536009000,-9.041702271,-1.692700624,-1.243787766,-0.036372125,-0.009592649,-0.03130934,-1,17,30,30,2686,-8.644265175,3.725377798,1.665167332,0.044765696,-0.005995406,0.027578866,-45,-2,3,29,170
1695163129566990800,-9.060855865,-1.711854219,-1.242590666,-0.057156201,-0.007327718,-0.020650841,0,9,29,28,2686,-8.635885239,3.742137194,1.699883223,0.032241959,-0.010525269,0.022516079,-45,1,0,29,170
1695163129567990800,-9.06205368,-1.716642618,-1.241393566,-0.059154671,-0.006794794,-0.020650841,1,17,31,28,2686,-8.635885239,3.744531393,1.698686123,0.032108728,-0.01079173,0.022382848,-44,-2,1,26,170
1695163129568990800,-9.065644264,-1.721431017,-1.241393566,-0.06115314,-0.0063951,-0.020650841,-1,10,31,27,2686,-8.632294655,3.746925592,1.697489023,0.03237519,-0.011457887,0.022116385,-45,-2,3,31,169
1695163129569990800,-9.069235802,-1.719036818,-1.241393566,-0.063418068,-0.005595712,-0.02051761,1,7,31,29,2686,-8.632294655,3.749319792,1.699883223,0.03237519,-0.012124043,0.021849923,-45,-2,1,29,170
1695163129570990800,-9.0740242,-1.722628117,-1.235408068,-0.065683,-0.005062787,-0.02051761,-1,17,32,29,2686,-8.629899979,3.750516891,1.698686123,0.032508422,-0.012790199,0.021716693,-46,3,3,30,168
1695163129601969300,-9.149441719,-1.787271619,-1.210268974,-0.122572735,-0.0021317,-0.027179174,-1,17,31,28,2686,-8.640673637,3.79480958,1.626860023,0.039836142,-0.029977029,0.027712099,-47,-2,1,30,170
1695163129602969300,-9.156624794,-1.792060018,-1.212663174,-0.125770286,-0.002398162,-0.028245023,0,17,29,26,2686,-8.641871452,3.79480958,1.625662923,0.039836142,-0.030643184,0.028644716,-47,-2,0,30,172
1695163129603969300,-9.159018517,-1.794454217,-1.211466074,-0.128967836,-0.002797856,-0.029843798,-1,11,28,30,2686,-8.645462036,3.797203779,1.619677424,0.039836142,-0.030909648,0.029444104,-47,-1,-2,29,169
1695163129604969300,-9.161413193,-1.794454217,-1.213860273,-0.132165387,-0.003330781,-0.03130934,5,17,35,28,2686,-8.649053574,3.798400879,1.618480325,0.040102605,-0.031176111,0.030243492,-45,-2,1,30,172
1695163129605969300,-9.161413193,-1.796848416,-1.213860273,-0.135629401,-0.0042634,-0.033174578,-1,17,28,28,2686,-8.646659851,3.800795317,1.616086125,0.040102605,-0.031575806,0.031176111,-44,-2,1,30,173
1695163129666952900,-9.097966194,-1.915361404,-1.054645896,-0.060220521,-0.020784073,0.007993874,2,21,32,30,2686,-8.682572365,3.576937437,1.66995573,0.087133229,-0.054491576,-0.039702907,-46,-5,4,30,170
1695163129667952900,-9.097966194,-1.909375906,-1.053448796,-0.061286367,-0.022516079,0.007061256,4,17,37,33,2686,-8.684967041,3.579331636,1.667561531,0.08753293,-0.055424199,-0.041701376,-46,-2,1,30,170
1695163129668952900,-9.093177795,-1.906981707,-1.053448796,-0.062085759,-0.023981623,0.0063951,3,22,34,31,2686,-8.686163902,3.584120035,1.662773132,0.088065848,-0.056490045,-0.043566614,-45,-2,3,30,171
1695163129669952900,-9.093177795,-1.908178806,-1.052251697,-0.063151613,-0.025313934,0.005462481,4,17,31,29,2686,-8.684967041,3.587711334,1.662773132,0.088732004,-0.057555895,-0.045698319,-44,-2,8,31,172
1695163129670952900,-9.091980934,-1.906981707,-1.053448796,-0.064217456,-0.026779478,0.004796324,5,18,33,27,2686,-8.682572365,3.591302633,1.660378933,0.089398161,-0.058621746,-0.047563553,-45,1,0,31,169
1695163129704912600,-9.065644264,-1.899798989,-1.113303781,-0.076874427,-0.034640122,0.007061256,4,19,33,30,2686,-8.694543839,3.724180698,1.648407817,0.087666154,-0.060886677,-0.075941809,-46,-1,0,31,169
1695163129705912600,-9.06803894,-1.903390408,-1.11689508,-0.076607957,-0.034506891,0.007594181,1,11,35,33,2686,-8.692149162,3.727771997,1.647210717,0.086733535,-0.061286367,-0.076341502,-43,-2,3,30,174
1695163129706912600,-9.06803894,-1.906981707,-1.119289279,-0.075941809,-0.03437366,0.008127105,6,17,37,36,2686,-8.688557625,3.731363297,1.648407817,0.086067379,-0.061819296,-0.076341502,-47,0,0,31,170
1695163129707912600,-9.06803894,-1.908178806,-1.124077678,-0.075275652,-0.034107197,0.008793262,4,19,35,35,2686,-8.681375504,3.736151695,1.647210717,0.085401222,-0.062352221,-0.076341502,-45,-2,4,31,171
1695163129708912600,-9.070432663,-1.909375906,-1.132457376,-0.074343033,-0.033973966,0.009592649,5,21,36,31,2686,-8.675390244,3.738545895,1.644816518,0.084735066,-0.063151613,-0.075941809,-46,-1,0,26,173
1695163129740889000,-9.058462143,-1.912967205,-1.177947283,-0.054624807,-0.034640122,0.019984685,16,20,36,34,2686,-8.634688377,3.774458885,1.56101954,0.099656969,-0.084601834,-0.046897396,-46,-2,3,30,170
1695163129741889000,-9.056067467,-1.915361404,-1.181538582,-0.054358348,-0.034107197,0.020384381,2,18,41,36,2686,-8.634688377,3.779247284,1.55982244,0.101122513,-0.084868304,-0.045431852,-44,-2,3,30,176
1695163129742889000,-9.053673744,-1.915361404,-1.185129881,-0.054225113,-0.033307809,0.020650841,2,22,39,33,2686,-8.633491516,3.781641483,1.55982244,0.102454826,-0.085001536,-0.043833077,-44,-1,3,31,173
1695163129743889000,-9.052476883,-1.915361404,-1.185129881,-0.054091886,-0.032774884,0.020917306,6,22,31,30,2686,-8.633491516,3.784035683,1.556231141,0.103254206,-0.084868304,-0.042900458,-44,-2,1,29,172
1695163129744889000,-9.052476883,-1.917755604,-1.182735682,-0.053958651,-0.031842265,0.021050537,4,25,39,32,2686,-8.628703117,3.788824081,1.544260144,0.104186833,-0.084735066,-0.041568145,-45,-2,2,30,170
1695163129771893200,-9.036913872,-1.946485996,-1.209071875,-0.040768761,-0.003330781,0.020117918,5,17,37,30,2686,-8.584410667,3.871424198,1.480813742,0.092062794,-0.065016843,-0.013323124,-45,-1,4,31,172
1695163129772893200,-9.038111687,-1.946485996,-1.204283476,-0.039436448,-0.001732006,0.019851454,6,19,32,35,2686,-8.582015991,3.871424198,1.480813742,0.090863705,-0.063284837,-0.011724349,-47,0,-2,31,172
1695163129773893200,-9.039308548,-1.948880196,-1.209071875,-0.038104136,-0.000399694,0.019718224,9,18,36,34,2686,-8.582015991,3.871424198,1.476025343,0.089531392,-0.061419602,-0.010125575,-44,-2,3,30,172
1695163129774893200,-9.039308548,-1.952471495,-1.209071875,-0.036771823,0.000799387,0.019584993,2,22,36,33,2686,-8.58081913,3.870227098,1.478419542,0.088465542,-0.059820827,-0.008393568,-45,1,3,29,172
1695163129775893200,-9.041702271,-1.952471495,-1.207874775,-0.03543951,0.001865237,0.019451762,2,19,38,34,2686,-8.578424454,3.869029999,1.478419542,0.087399691,-0.057955589,-0.006794794,-45,2,3,31,170
1695163129803875500,-9.036913872,-1.954865694,-1.186326981,-0.015721286,0.012656967,0.008393568,2,19,35,30,2686,-8.565256119,3.873818398,1.541865945,0.065150075,-0.03237519,0.017586524,-47,-2,2,30,171
1695163129804875500,-9.03571701,-1.953668594,-1.183932781,-0.015588055,0.013056661,0.007727412,3,22,35,31,2686,-8.566453934,3.875015497,1.544260144,0.063551299,-0.031842265,0.018785605,-44,-2,2,32,172
1695163129805875500,-9.03571701,-1.953668594,-1.180341482,-0.015321592,0.013722817,0.007061256,2,21,36,29,2686,-8.564059258,3.876212597,1.546654344,0.062218986,-0.031442571,0.019984685,-44,0,7,31,172
1695163129806875500,-9.033323288,-1.951274395,-1.179144382,-0.01505513,0.014122511,0.006528331,6,18,33,30,2686,-8.565256119,3.876212597,1.550245643,0.060620211,-0.030776417,0.021183766,-45,-2,3,30,172
1695163129807875500,-9.032125473,-1.952471495,-1.177947283,-0.01505513,0.014921899,0.006128637,4,17,37,32,2686,-8.568847656,3.872621298,1.56221664,0.059154671,-0.03011026,0.022382848,-46,-2,3,29,168
1695163129833857800,-9.047688484,-1.950077295,-1.15400517,-0.0063951,0.026379786,-0.000666156,4,20,36,34,2686,-8.579621315,3.869029999,1.656787634,0.047830015,-0.023049004,0.045831546,-46,-2,1,29,178
1695163129834857800,-9.048885345,-1.948880196,-1.15161097,-0.005462481,0.026246555,-0.00106585,5,18,36,32,2686,-8.584410667,3.873818398,1.661576033,0.04729709,-0.022915773,0.047430322,-44,-1,4,31,174
1695163129835857800,-9.050082207,-1.947683096,-1.150413871,-0.004663093,0.026379786,-0.001732006,4,21,36,34,2686,-8.585607529,3.873818398,1.663970232,0.046897396,-0.022915773,0.048362937,-44,-2,1,30,170
1695163129836857800,-9.051279068,-1.950077295,-1.146822572,-0.003730475,0.026379786,-0.0021317,4,17,35,32,2686,-8.589199066,3.872621298,1.662773132,0.046098009,-0.023049004,0.049961712,-47,-2,4,28,170
1695163129837857800,-9.050082207,-1.948880196,-1.148019671,-0.002797856,0.026246555,-0.002664625,8,21,36,29,2686,-8.589199066,3.871424198,1.662773132,0.045431852,-0.023182238,0.05142726,-47,-2,3,30,174
1695163129867815900,-9.083600998,-1.914164305,-1.106121182,-0.001465544,0.022116385,-0.01398928,8,18,35,32,2686,-8.61912632,3.823540211,1.648407817,0.037970904,-0.033574272,0.082869835,-46,-1,2,30,170
1695163129868815900,-9.081207275,-1.911770105,-1.110909581,-0.001865237,0.022116385,-0.014788668,2,18,36,29,2686,-8.61912632,3.823540211,1.650802016,0.037970904,-0.033441041,0.084468603,-50,-1,0,30,171
1695163129869815900,-9.078812599,-1.910573006,-1.108515382,-0.002264931,0.022116385,-0.015454824,7,21,34,30,2686,-8.61912632,3.823540211,1.654393315,0.038237367,-0.033441041,0.085800916,-47,-3,-1,31,168
1695163129870815900,-9.0740242,-1.914164305,-1.112106681,-0.002664625,0.022249617,-0.015987748,4,17,36,30,2686,-8.617929459,3.822343111,1.653196216,0.038370594,-0.033307809,0.087133229,-47,-3,1,29,170
1695163129871815900,-9.072827339,-1.911770105,-1.109712481,-0.003064318,0.022382848,-0.016653905,4,25,36,30,2686,-8.620323181,3.817554712,1.644816518,0.038503829,-0.033307809,0.088598773,-49,-2,3,31,170
1695163129904795400,-9.084798813,-1.885433793,-1.119289279,-0.0042634,0.023049004,-0.027045943,8,17,37,32,2686,-8.65743351,3.751713991,1.612494826,0.026246555,-0.032241959,0.107251145,-46,-3,1,28,171
1695163129905795400,-9.085995674,-1.883039594,-1.120486379,-0.004396631,0.022915773,-0.027445635,6,21,35,32,2686,-8.659827232,3.744531393,1.610100627,0.025313934,-0.031842265,0.10805054,-47,-1,3,31,169
1695163129906795400,-9.085995674,-1.880645394,-1.124077678,-0.004529862,0.022915773,-0.027578866,3,26,32,32,2686,-8.662221909,3.736151695,1.607706428,0.024514547,-0.031442571,0.108716697,-45,-1,4,31,172
1695163129907795400,-9.087192535,-1.878251195,-1.126471877,-0.004529862,0.022516079,-0.027712099,5,21,35,31,2686,-8.66341877,3.728969097,1.607706428,0.024114855,-0.030909648,0.109516084,-46,0,3,31,172
1695163129908795400,-9.088389397,-1.874659896,-1.132457376,-0.004796324,0.022516079,-0.028111791,8,23,39,30,2686,-8.665813446,3.724180698,1.606509328,0.023715161,-0.030509954,0.110049009,-44,-2,2,31,167
1695163129952773500,-9.093177795,-1.847126603,-1.128866076,-0.011724349,0.020650841,-0.027712099,2,19,35,34,2686,-8.659827232,3.632004023,1.59932673,0.022382848,-0.025980091,0.108983152,-47,-2,3,30,174
1695163129953773500,-9.096769333,-1.844732404,-1.125274777,-0.011724349,0.020650841,-0.027179174,5,21,38,30,2686,-8.658630371,3.627215624,1.59693253,0.022249617,-0.026379786,0.108716697,-47,1,5,31,169
1695163129954773500,-9.099164009,-1.848323703,-1.119289279,-0.011591119,0.02051761,-0.026646247,5,21,35,31,2686,-8.656236649,3.622427225,1.594538331,0.022382848,-0.026513018,0.10805054,-46,-2,5,29,170
1695163129955773500,-9.097966194,-1.847126603,-1.11689508,-0.011324655,0.02051761,-0.026113322,3,17,35,29,2686,-8.655038834,3.614047527,1.593341231,0.022382848,-0.026513018,0.107517615,-45,-2,3,31,172
1695163129956773500,-9.096769333,-1.848323703,-1.11689508,-0.011324655,0.02051761,-0.02571363,4,20,36,32,2686,-8.655038834,3.611653328,1.593341231,0.022516079,-0.026646247,0.106718227,-46,-2,5,29,170
1695163130011733600,-9.088389397,-1.844732404,-1.100135684,-0.005995406,0.019984685,-0.012257273,5,17,36,34,2686,-8.647856712,3.547009706,1.589749932,0.028111791,-0.022116385,0.083003066,-45,0,4,30,176
1695163130012733600,-9.089587212,-1.849520802,-1.102529883,-0.005728943,0.020117918,-0.011724349,8,22,35,31,2686,-8.646659851,3.550601006,1.587355733,0.028245023,-0.021316998,0.081271052,-45,-2,3,29,174
1695163130013733600,-9.090784073,-1.854309201,-1.101332784,-0.005728943,0.020117918,-0.011191424,8,18,36,32,2686,-8.646659851,3.550601006,1.587355733,0.028245023,-0.021050537,0.080071971,-46,0,5,31,171
1695163130014733600,-9.089587212,-1.855506301,-1.107318282,-0.005595712,0.020384381,-0.010658499,5,21,36,34,2686,-8.646659851,3.549403906,1.590947032,0.02797856,-0.020384381,0.078339972,-45,-2,1,30,174
1695163130015733600,-9.088389397,-1.8579005,-1.107318282,-0.005728943,0.020384381,-0.010258805,5,18,38,35,2686,-8.645462036,3.550601006,1.590947032,0.02797856,-0.019984685,0.076474734,-46,-2,3,31,172
1695163130044715500,-9.118317604,-1.866280198,-1.11689508,-0.019185297,0.013722817,-0.008926493,2,18,38,29,2686,-8.658630371,3.549403906,1.550245643,0.025846859,-0.010258805,0.041434918,-45,-2,4,27,171
1695163130045715500,-9.123106003,-1.871068597,-1.11689508,-0.019851454,0.013456355,-0.008660031,1,17,38,31,2686,-8.659827232,3.555389643,1.552639842,0.026113322,-0.009592649,0.039702907,-44,0,3,31,170
1695163130046715500,-9.124302864,-1.877054095,-1.113303781,-0.020251149,0.013323124,-0.008260337,2,8,35,30,2686,-8.658630371,3.558980942,1.553836942,0.026513018,-0.008793262,0.038104136,-46,-2,3,31,173
1695163130047715500,-9.125499725,-1.881842494,-1.109712481,-0.020650841,0.013456355,-0.007993874,5,21,32,32,2686,-8.658630371,3.560178041,1.55982244,0.026779478,-0.007860643,0.03650536,-46,-1,1,30,169
1695163130048715500,-9.124302864,-1.885433793,-1.106121182,-0.020650841,0.013323124,-0.007594181,2,18,35,30,2686,-8.653841972,3.563769341,1.56221664,0.027045943,-0.007061256,0.034906585,-47,3,1,29,173
1695163130078696600,-9.129091263,-1.841141105,-0.956483603,-0.090863705,0.032774884,0.005862175,5,21,35,34,2686,-8.664615631,3.623624325,1.59693253,0.029710567,-0.002664625,0.017719755,-46,-1,3,30,174
1695163130079696600,-9.129091263,-1.842338204,-0.954089403,-0.090064317,0.031842265,0.007061256,4,21,37,30,2686,-8.661025047,3.622427225,1.59932673,0.030243492,-0.003064318,0.017719755,-44,-2,2,28,170
1695163130080696600,-9.131484985,-1.842338204,-0.950498104,-0.089531392,0.030776417,0.008393568,2,23,35,32,2686,-8.661025047,3.626018524,1.600523829,0.030776417,-0.003730475,0.017586524,-45,-2,1,31,168
1695163130081696600,-9.135076523,-1.842338204,-0.951695204,-0.088998467,0.029310873,0.009592649,5,17,36,32,2686,-8.661025047,3.628412724,1.605312228,0.03130934,-0.0042634,0.017586524,-45,-1,2,30,172
1695163130082696600,-9.139864922,-1.839944005,-0.954089403,-0.088465542,0.02797856,0.010525269,6,18,35,32,2686,-8.66341877,3.628412724,1.605312228,0.031975497,-0.004929556,0.017453292,-44,-2,1,29,174
1695163130114677600,-9.131484985,-1.665167332,-1.039083481,-0.042500768,-0.034107197,0.008660031,4,21,36,32,2686,-8.686163902,3.744531393,1.391031146,0.089531392,-0.049295556,0.061419602,-53,-2,0,31,174
1695163130115677600,-9.131484985,-1.66995573,-1.04147768,-0.043433387,-0.034640122,0.010658499,3,9,38,32,2686,-8.687360764,3.744531393,1.385045648,0.089131698,-0.049295556,0.061019909,-45,-1,5,30,170
1695163130116677600,-9.131484985,-1.675941229,-1.043871999,-0.044366002,-0.035306279,0.012257273,2,19,32,32,2686,-8.686163902,3.742137194,1.383848548,0.088732004,-0.049428791,0.060753446,-47,1,5,31,173
1695163130117677600,-9.126696587,-1.681926727,-1.046266198,-0.04516539,-0.035839204,0.01385605,4,19,29,30,2686,-8.682572365,3.737348795,1.37786305,0.088598773,-0.049295556,0.060353752,-47,-2,3,31,172
1695163130118677600,-9.126696587,-1.686715126,-1.051054597,-0.045831546,-0.036105666,0.015454824,0,19,37,32,2686,-8.681375504,3.734954596,1.37427175,0.088598773,-0.048762634,0.059954058,-45,-1,4,29,172
1695163130145679400,-9.076418877,-2.030282974,-1.18872118,-0.100189894,-0.013589587,0.036238898,0,17,31,28,2686,-8.680178642,3.847482204,1.63523972,-0.034773353,-0.038637057,0.070745789,-47,-2,0,30,168
1695163130146679400,-9.077615738,-2.033874273,-1.18872118,-0.094327718,-0.011457887,0.038770292,0,17,31,29,2686,-8.683769226,3.847482204,1.644816518,-0.034773353,-0.037304748,0.069413476,-47,-2,1,29,169
1695163130147679400,-9.077615738,-2.038662672,-1.182735682,-0.088465542,-0.009326187,0.041434918,-1,10,31,29,2686,-8.684967041,3.848679304,1.650802016,-0.034773353,-0.035972435,0.068081163,-47,-2,3,27,170
1695163130148679400,-9.078812599,-2.04584527,-1.179144382,-0.082470134,-0.007194487,0.043833077,1,17,31,30,2686,-8.683769226,3.849876404,1.660378933,-0.034640122,-0.035039816,0.066882081,-50,-2,-2,29,172
1695163130149679400,-9.076418877,-2.04823947,-1.171961784,-0.076474734,-0.005329249,0.046364475,-1,11,31,27,2686,-8.683769226,3.847482204,1.667561531,-0.034506891,-0.034506891,0.065816231,-47,-2,0,29,169
1695163130177641400,-9.117119789,-2.133233786,-1.035492182,-0.075142421,-0.01505513,0.091529861,1,10,29,28,2686,-8.293514252,3.488351822,1.620874524,0.245012254,-0.061819296,-0.044099543,-51,-2,0,30,169
1695163130178641400,-9.123106003,-2.133233786,-1.04147768,-0.074209802,-0.01398928,0.09272895,-1,17,29,30,2686,-8.304288864,3.49553442,1.630451322,0.244879022,-0.059287902,-0.044898927,-48,-2,3,31,168
1695163130179641400,-9.1326828,-2.128445387,-1.042674899,-0.073277183,-0.013189893,0.093661562,-1,10,29,29,2686,-8.316259384,3.500322819,1.63763392,0.244346097,-0.055823889,-0.045565084,-47,-2,3,31,171
1695163130180641400,-9.139864922,-2.124854088,-1.043871999,-0.07274425,-0.012124043,0.094194487,2,9,31,31,2686,-8.333019257,3.507505417,1.648407817,0.244079635,-0.051826954,-0.046364475,-45,-1,3,31,169
1695163130181641400,-9.14465332,-2.124854088,-1.052251697,-0.072611026,-0.011058193,0.094594181,-1,17,31,29,2686,-8.349778175,3.515885115,1.659181833,0.243413478,-0.047430322,-0.047030624,-57,-2,3,30,172
1695163130206622500,-9.048885345,-1.395819545,-0.05865794,0.245411947,0.211171508,-0.17759724,-2,5,24,22,2686,-8.5484972,4.013879299,0.495599747,0.161343038,-0.047963247,0.021450229,-60,-12,-4,20,164
1695163130207622500,-9.038111687,-1.393425345,-0.056263741,0.219165385,0.206508413,-0.174133226,-2,3,25,22,2686,-8.549694061,4.013879299,0.505176544,0.160143942,-0.046630934,0.020650841,-60,-14,-6,18,160
1695163130208622500,-9.028534889,-1.393425345,-0.053869538,0.192519143,0.201712102,-0.170802444,-2,3,26,20,2686,-8.5484972,4.0114851,0.51954174,0.158811629,-0.045032158,0.019451762,-60,-13,-7,19,161
1695163130209622500,-9.021351814,-1.398213744,-0.055066638,0.165872887,0.196649313,-0.168004602,-5,2,24,23,2686,-8.544905663,4.012681961,0.523133099,0.157212853,-0.043300152,0.018385911,-59,-11,-8,18,160
1695163130210622500,-9.011775017,-1.41018486,-0.05865794,0.139493108,0.191586524,-0.16520673,-2,4,26,20,2686,-8.54251194,4.0114851,0.531512797,0.155614093,-0.041701376,0.017453292,-59,-13,-5,20,160
1695163130238610900,-9.141061783,-2.218227863,-0.338779539,-0.087133229,-0.025047474,0.008393568,3,18,32,30,2686,-8.611943245,4.018667698,0.652419984,0.03437366,-0.009326187,0.038770292,-51,-3,-2,27,169
1695163130239610900,-9.137471199,-2.215833664,-0.342370838,-0.088199086,-0.025047474,0.004796324,3,19,33,33,2686,-8.616731644,4.012681961,0.657208383,0.034906585,-0.010525269,0.039702907,-49,-4,-2,27,167
1695163130240610900,-9.133879662,-2.211045265,-0.345962137,-0.089664623,-0.025180703,-0.000266462,2,21,30,32,2686,-8.621520042,4.010287762,0.663193882,0.035306279,-0.01185758,0.040768761,-51,-3,-1,29,167
1695163130241610900,-9.130288124,-2.208651066,-0.342370838,-0.090996936,-0.025047474,-0.003730475,9,18,31,29,2686,-8.622717857,4.012681961,0.665588081,0.036105666,-0.013189893,0.041834611,-49,-4,0,25,167
1695163130242610900,-9.126696587,-2.205059767,-0.345962137,-0.092062794,-0.024914242,-0.007194487,2,17,28,29,2686,-8.626308441,4.013879299,0.66798228,0.03650536,-0.014388974,0.042900458,-51,-4,-1,28,170
1695163130268603300,-9.097966194,-2.142810583,-0.420182407,-0.089931086,-0.010525269,-0.050361406,6,18,27,30,2686,-8.647856712,4.018667698,0.687135875,0.03757121,-0.028911179,0.061686065,-49,-3,-1,29,168
1695163130269603300,-9.095572472,-2.133233786,-0.423773706,-0.089264929,-0.009326187,-0.051960181,8,19,33,31,2686,-8.653841972,4.013879299,0.688332975,0.037171517,-0.029977029,0.063950993,-50,-4,-2,28,168
1695163130270603300,-9.091980934,-2.130839586,-0.429759204,-0.088465542,-0.008260337,-0.053425729,6,18,27,30,2686,-8.658630371,4.0114851,0.691924274,0.037171517,-0.030509954,0.065016843,-47,-3,1,29,171
1695163130271603300,-9.087192535,-2.126051188,-0.434547603,-0.088065848,-0.007194487,-0.055024505,5,21,31,30,2686,-8.659827232,4.012681961,0.694318473,0.037038282,-0.031042879,0.066082694,-49,-2,0,30,169
1695163130272603300,-9.081207275,-2.118868589,-0.444124401,-0.087133229,-0.005595712,-0.057156201,4,21,32,29,2686,-8.66341877,4.007893562,0.696712673,0.037038282,-0.031442571,0.067148544,-50,-2,0,28,167
1695163130300568600,-9.030928612,-2.079364061,-0.48243165,-0.074076563,0.028378254,-0.081004597,4,18,32,30,2686,-8.74601841,4.296394825,0.873883605,0.041168455,-0.028245023,0.070745789,-51,-2,-1,28,168
1695163130301568600,-9.034520149,-2.070984364,-0.486022949,-0.072477795,0.030243492,-0.081670754,4,17,35,32,2686,-8.769960403,4.371812344,0.895431459,0.039836142,-0.026379786,0.069280244,-53,-2,1,30,169
1695163130302568600,-9.033323288,-2.064998865,-0.488417149,-0.070745789,0.032108728,-0.082603365,5,21,35,30,2686,-8.787917137,4.461595058,0.918176353,0.037970904,-0.024114855,0.068081163,-51,-2,-1,28,168
1695163130303568600,-9.03571701,-2.062604666,-0.487220049,-0.069013782,0.033840735,-0.083269522,1,11,37,28,2686,-8.80467701,4.562151432,0.950498104,0.035039816,-0.021316998,0.067148544,-49,-3,-1,28,168
1695163130304568600,-9.039308548,-2.059013367,-0.48362875,-0.067148544,0.035705972,-0.083935678,3,18,32,31,2686,-8.825027466,4.669890404,0.974440098,0.030776417,-0.01718683,0.066215925,-50,-2,-5,30,169
1695163130330553900,-9.107542992,-1.953668594,-0.480037451,-0.052359879,0.063684531,-0.086467072,1,19,35,31,2686,-9.494206429,7.894880295,1.832761407,-0.2311562,0.030243492,0.409019887,-47,-3,0,29,170
1695163130331553900,-9.113529205,-1.950077295,-0.476446152,-0.0528928,0.065283306,-0.086200617,1,18,31,32,2686,-9.543288231,8.063671112,1.874659896,-0.246078104,0.007727412,0.461113334,-51,-3,-2,28,165
1695163130332553900,-9.119514465,-1.953668594,-0.468066424,-0.053425729,0.066882081,-0.085800916,4,18,31,30,2686,-9.583989143,8.243236542,1.916558504,-0.260733545,-0.018519141,0.51680398,-48,-2,0,28,168
1695163130333553900,-9.124302864,-1.957259893,-0.468066424,-0.053958651,0.068880551,-0.085267991,7,21,36,31,2686,-9.62469101,8.415618896,1.952471495,-0.274323106,-0.048096478,0.574226677,-47,-7,0,28,170
1695163130334553900,-9.129091263,-1.959654093,-0.465672225,-0.054358348,0.07087902,-0.084601834,6,17,32,29,2686,-9.662998199,8.56046772,1.978807688,-0.284448713,-0.080738127,0.633114874,-49,-2,-1,26,167
1695163130362533700,-9.143456459,-2.039859772,-0.323217243,-0.031709034,0.099790201,-0.063018374,1,19,32,31,2686,-10.08916569,10.49977112,2.571372509,-0.141225114,-0.816441,1.82779932,-49,-3,-2,28,167
1695163130363533700,-9.142259598,-2.042253971,-0.312443316,-0.029843798,0.099656969,-0.062485453,1,19,31,34,2686,-10.08677197,10.61708736,2.610877037,-0.146820813,-0.841888189,1.878826976,-50,-3,0,28,168
1695163130364533700,-9.141061783,-2.04464817,-0.308852017,-0.027845331,0.099390499,-0.062218986,3,18,29,29,2686,-10.08437729,10.7332058,2.644395828,-0.158678412,-0.865203619,1.92812252,-51,-2,-2,27,173
1695163130365533700,-9.133879662,-2.04464817,-0.299275219,-0.026113322,0.098990813,-0.061952524,4,18,33,30,2686,-10.08318043,10.80144119,2.664746523,-0.168537512,-0.880525291,1.959964752,-49,-2,2,30,170
1695163130366533700,-9.130288124,-2.039859772,-0.292092621,-0.024514547,0.098191425,-0.061819296,2,17,39,32,2686,-10.07360363,10.9008007,2.695871115,-0.187856048,-0.902241945,2.006595612,-47,-4,-2,28,169
1695163130398535600,-9.093177795,-2.002749681,-0.258573771,-0.011058193,0.076607957,-0.055557426,3,17,32,30,2686,-10.33696556,12.15296745,3.149572372,-1.050661564,-1.310329199,2.72018218,-47,-2,1,33,168
1695163130399535600,-9.093177795,-2.000355482,-0.262165099,-0.010125575,0.075142421,-0.054358348,2,17,31,30,2686,-10.36449909,12.14937687,3.16034627,-1.091030598,-1.349499226,2.762416601,-47,-2,-1,32,169
1695163130400535600,-9.096769333,-1.999158382,-0.262165099,-0.009326187,0.073410407,-0.052759573,2,17,30,30,2686,-10.39442635,12.17930412,3.156754971,-1.139793277,-1.39413166,2.803052187,-46,-2,4,33,170
1695163130401535600,-9.09437561,-1.996764183,-0.266953498,-0.008260337,0.071411945,-0.051027562,2,21,30,28,2686,-10.38963795,12.11226654,3.139995575,-1.18162787,-1.441162348,2.84168911,-51,-3,1,37,171
1695163130402535600,-9.095572472,-1.994369984,-0.275333196,-0.007194487,0.069413476,-0.049162328,2,17,29,29,2686,-10.37647057,12.04163742,3.153163671,-1.200546741,-1.471405864,2.868868113,-47,-2,1,38,172
1695163130430494800,-9.148244858,-2.038662672,-0.317231715,0.029843798,0.054624807,0.003863706,0,18,29,29,2686,-9.124302864,11.28985786,3.907337189,-1.196416616,-1.67045331,3.244180679,-50,-2,16,76,198
1695163130431494800,-9.156624794,-2.042253971,-0.316034615,0.030643184,0.054624807,0.005595712,2,17,35,34,2686,-9.002198219,11.1557827,3.857059002,-1.180961728,-1.618892789,3.242981672,-49,-4,17,74,200
1695163130432494800,-9.165003777,-2.043451071,-0.314837515,0.031176111,0.054358348,0.006928025,3,18,28,30,2686,-8.908824921,11.06480312,3.812766314,-1.166705966,-1.565866828,3.243381262,-48,-2,20,75,199
1695163130433494800,-9.17697525,-2.043451071,-0.314837515,0.031176111,0.053692192,0.008127105,4,20,28,29,2686,-8.82263279,10.98818874,3.758896589,-1.158045888,-1.512174606,3.241516113,-50,-1,23,77,200
1695163130434494800,-9.18894577,-2.043451071,-0.317231715,0.030509954,0.0528928,0.009059724,4,17,30,29,2686,-8.762778282,10.90917969,3.712209702,-1.150851488,-1.460880637,3.238851547,-52,-2,17,76,203
1695163130460476800,-9.24760437,-2.118868589,-0.392649084,-0.02384839,0.025180703,-0.033441041,4,18,30,31,2686,-6.294356346,9.127894402,3.803189516,-2.184992313,-0.826300144,2.899511576,-59,-2,81,79,224
1695163130461476800,-9.242815971,-2.121262789,-0.395043284,-0.026113322,0.024914242,-0.037437979,4,10,31,30,2686,-6.107608318,8.888473511,3.774458885,-2.267729044,-0.813376725,2.8707335,-59,-2,87,81,224
1695163130462476800,-9.239224434,-2.126051188,-0.395043284,-0.028245023,0.024914242,-0.041301683,2,17,37,30,2686,-5.91128397,8.635885239,3.732560396,-2.349133015,-0.802851439,2.84168911,-57,-2,93,79,225
1695163130463476800,-9.232041359,-2.130839586,-0.396240383,-0.029843798,0.025313934,-0.04516539,1,19,32,34,2686,-5.778405666,8.467094421,3.700238705,-2.400693655,-0.797255754,2.822104216,-58,-2,94,82,229
1695163130464476800,-9.22725296,-2.132036686,-0.396240383,-0.03130934,0.02571363,-0.049162328,-1,21,27,32,2686,-5.58088398,8.209717751,3.646369219,-2.475169897,-0.790993869,2.790928125,-58,0,94,81,230
1695163130494480000,-8.997409821,-2.112883091,-0.438138902,-0.008260337,0.052759573,-0.092595711,5,19,37,29,2686,-1.681926727,3.573346138,4.298789024,-2.954802513,-0.493621737,1.589581847,-60,12,161,95,240
1695163130495480000,-8.983044624,-2.110488892,-0.439336002,-0.005329249,0.053825419,-0.09272895,4,19,28,31,2686,-1.48799634,3.406949043,4.325125217,-2.956800938,-0.471905053,1.491923451,-60,11,161,97,240
1695163130496480000,-8.966285706,-2.103306293,-0.442927301,-0.002398162,0.054624807,-0.09272895,16,17,31,27,2686,-1.297657371,3.252522945,4.367023945,-2.964128733,-0.452586502,1.393332362,-60,14,167,95,239
1695163130497480000,-8.953117371,-2.098517895,-0.439336002,0.000666156,0.055157732,-0.092595711,5,19,31,30,2686,-1.107318282,3.094505787,4.404133797,-2.972388983,-0.434866786,1.293675423,-60,15,164,95,242
1695163130498480000,-8.939949036,-2.092532396,-0.439336002,0.003597243,0.055823889,-0.09246248,3,18,31,31,2686,-0.909796655,2.922123194,4.438849926,-2.98251462,-0.419278711,1.193352222,-59,13,165,99,243
1695163130524442900,-8.893261909,-2.042253971,-0.508767843,0.047563553,0.053825419,-0.050228179,8,18,32,29,2686,3.227383852,-2.059013367,3.975571871,-3.461214304,-0.135096475,-0.806315482,-59,18,208,111,246
1695163130525442900,-8.898050308,-2.04823947,-0.513556242,0.050761104,0.054358348,-0.046364475,5,18,32,29,2686,3.280056238,-2.188300371,3.906140089,-3.474137783,-0.090197548,-0.935816228,-51,20,207,117,244
1695163130526442900,-8.902838707,-2.056619167,-0.518344641,0.054358348,0.055024505,-0.042633995,4,19,33,28,2686,3.298012733,-2.299630642,3.847482204,-3.488393545,-0.03543951,-1.069580436,-56,19,208,116,247
1695163130527442900,-8.906430244,-2.063801765,-0.525527298,0.058488514,0.056090351,-0.038903523,8,17,37,30,2686,3.289633036,-2.41694665,3.776853085,-3.503182173,0.02917764,-1.206542015,-59,23,208,117,247
1695163130528442900,-8.907627106,-2.070984364,-0.533906996,0.063018374,0.057289433,-0.035039816,4,18,31,29,2686,3.240551949,-2.535459518,3.695450306,-3.517038107,0.103120975,-1.345235705,-59,20,208,112,247
1695163130552424100,-8.956708908,-2.248155355,-0.572214186,0.201179162,0.084601834,0.036905054,4,21,33,30,2686,-5.527014732,-1.82079041,2.932897091,-2.688339949,2.31622529,-3.598709106,-61,33,192,114,230
1695163130553424100,-8.962694168,-2.262520552,-0.569819987,0.210505351,0.087133229,0.040369064,0,17,33,29,2686,-6.336254597,-1.37786305,3.05140996,-2.628519297,2.383373737,-3.641875982,-65,32,190,111,227
1695163130554424100,-8.968679428,-2.274491549,-0.565031588,0.219698325,0.089797854,0.043699846,5,21,33,30,2686,-7.133523941,-0.899022758,3.178302765,-2.573761225,2.440663099,-3.673451662,-60,33,191,113,227
1695163130555424100,-8.978256226,-2.285265446,-0.55665189,0.228891268,0.092196018,0.046764165,3,19,31,31,2686,-7.928399086,-0.379480958,3.313575268,-2.526730537,2.487427235,-3.694102764,-63,33,190,114,226
1695163130556424100,-8.993818283,-2.294842243,-0.550666392,0.238217458,0.094460949,0.04969525,4,18,31,31,2686,-8.714894295,0.180762231,3.470395327,-2.486894369,2.523399591,-3.704894304,-61,35,190,123,228
1695163130583405800,-9.325415611,-2.311601639,-0.404620081,0.29497394,0.069280244,0.025580399,8,19,35,32,2686,-16.94496346,6.396110058,7.299921036,-1.882157683,1.2808851,-1.759451747,-71,39,175,109,216
1695163130584405800,-9.337387085,-2.30801034,-0.397437483,0.286580414,0.064750381,0.017852986,5,19,31,34,2686,-16.90545845,6.332663536,7.380126953,-1.783300161,1.100490093,-1.556940317,-71,36,170,105,224
1695163130585405800,-9.348160744,-2.296039343,-0.395043284,0.276454836,0.06008729,0.009059724,4,22,35,30,2686,-16.83842087,6.217741966,7.443572998,-1.675782561,0.909169972,-1.347101092,-73,37,172,107,216
1695163130586405800,-9.358934402,-2.282871246,-0.395043284,0.264464021,0.055290964,-0.000666156,4,18,31,28,2686,-16.73666763,6.059724331,7.50462532,-1.560537577,0.708123982,-1.130733609,-70,35,172,108,215
1695163130587405800,-9.3685112,-2.266111851,-0.390254885,0.250474721,0.050627869,-0.011324655,2,18,36,30,2686,-16.59540939,5.862202644,7.562086105,-1.437431812,0.49961713,-0.909702957,-73,40,172,104,215
1695163130617387700,-9.430760384,-1.780089021,-0.690727174,-0.321753442,-0.05768913,-0.367185295,5,20,31,29,2686,-11.80580902,3.333925962,8.201337814,2.145289421,-2.319689274,2.949339867,-74,32,161,100,215
1695163130618387700,-9.418789864,-1.757344007,-0.719457626,-0.364387453,-0.062352221,-0.388102591,4,19,32,32,2686,-11.60589314,3.502717018,8.230068207,2.323952436,-2.387503862,3.116145611,-70,32,161,104,214
1695163130619387700,-9.403226852,-1.738190413,-0.745793819,-0.406488538,-0.066082694,-0.408087283,3,20,33,28,2686,-11.41914463,3.700238705,8.245630264,2.495554209,-2.451987743,3.281884909,-70,31,159,98,212
1695163130620387700,-9.385271072,-1.720233917,-0.773327172,-0.448056638,-0.068480857,-0.427139342,2,18,29,32,2686,-11.24317074,3.914519787,8.234856606,2.660494804,-2.514339924,3.447091818,-71,32,160,100,215
1695163130621387700,-9.36252594,-1.705868721,-0.802057564,-0.488558948,-0.06981317,-0.44512558,4,17,36,30,2686,-11.08994198,4.134786129,8.200140953,2.819173098,-2.576292515,3.613098145,-70,30,159,99,213
1695163130650371100,-8.945934296,-1.929726601,-0.9660604,-0.75368911,0.103387438,-0.438064337,2,19,37,30,2686,-6.013037682,6.703764915,5.328295708,4.365588188,-3.6613276,4.365588188,-76,27,79,82,201
1695163130651371100,-8.932766914,-1.951274395,-0.973242998,-0.734903514,0.118309341,-0.417013764,8,21,34,30,2686,-5.469553947,6.791152954,5.16788435,4.365588188,-3.635081053,4.365588188,-75,24,67,74,200
1695163130652371100,-8.926780701,-1.981201887,-0.980425596,-0.7131868,0.130833074,-0.395163864,5,17,31,29,2686,-4.899733543,6.871358871,5.012261391,4.365588188,-3.587384462,4.365588188,-74,28,62,72,200
1695163130653371100,-8.923190117,-2.013523579,-0.968454599,-0.68920517,0.141091883,-0.371715158,1,19,39,29,2686,-4.507084846,6.928819656,4.902127743,4.365588188,-3.543684483,4.365588188,-74,27,56,68,200
1695163130654371100,-8.917203903,-2.04464817,-0.948103845,-0.662825465,0.151084229,-0.347200602,6,23,39,32,2686,-3.90374589,7.034164429,4.748898983,4.365588188,-3.460681438,4.365588188,-76,26,43,64,196
1695163130684348500,-9.02973175,-2.63601613,-0.543483794,0.180928022,0.129234299,0.17866309,5,21,30,32,2686,4.477157116,11.43949604,1.962048292,4.365588188,0.158811629,4.365588188,-67,27,-49,10,183
1695163130685348500,-9.036913872,-2.628833532,-0.541089594,0.222762644,0.118442573,0.198914245,8,17,32,29,2686,4.702212334,11.62025833,2.053027868,4.365588188,0.324018389,4.365588188,-71,29,-57,12,183
1695163130686348500,-9.044096947,-2.622848034,-0.536301196,0.261932611,0.107650839,0.217699856,2,17,33,32,2686,4.887762547,11.78306389,2.217030764,4.365588188,0.487226635,4.365588188,-73,27,-65,9,182
1695163130687348500,-9.048885345,-2.610877037,-0.542286694,0.298038274,0.095660031,0.234620214,5,20,32,28,2686,5.018246651,11.89918232,2.375048161,4.365588188,0.649635553,4.365588188,-71,29,-61,8,183
1695163130688348500,-9.054870605,-2.59890604,-0.539892495,0.330813169,0.081937209,0.249142408,2,19,29,32,2686,5.092466831,11.93509579,2.501940727,4.365588188,0.800453246,4.365588188,-67,27,-61,8,182
1695163130718329200,-9.045293808,-2.159569979,-0.656011283,0.255670756,-0.103520676,0.268860638,2,19,31,30,2686,4.339490414,6.42484045,3.313575268,4.365588188,1.758252621,4.365588188,-70,25,-70,0,176
1695163130719329200,-9.047688484,-2.15597868,-0.664390981,0.22183001,-0.10258805,0.262731999,5,21,35,30,2686,4.335899353,6.147112846,3.397372246,4.365588188,1.741199017,4.365588188,-70,23,-71,-1,177
1695163130720329200,-9.048885345,-2.158372879,-0.677559078,0.186923429,-0.100456357,0.256336898,6,17,33,30,2686,4.35385561,5.866991043,3.513490915,4.29857254,1.728941798,4.365588188,-70,27,-72,-1,176
1695163130721329200,-9.048885345,-2.161964178,-0.687135875,0.150817752,-0.097125575,0.250075042,5,11,29,30,2686,4.378994942,5.673060894,3.594893932,4.176799297,1.724278688,4.365588188,-67,25,-72,-1,176
1695163130722329200,-9.047688484,-2.166752577,-0.694318473,0.113912709,-0.09246248,0.243679941,6,20,33,35,2686,4.417302132,5.370194435,3.746925592,3.99027586,1.724145532,4.365588188,-73,23,-77,-1,175
1695163130748312400,-8.992621422,-2.967612982,-0.738611221,-0.252739668,0.075275652,0.128301695,16,11,31,30,2686,3.439270735,-0.080205753,5.656301498,1.466875911,2.673684597,2.976519346,-61,29,-72,1,180
1695163130749312400,-8.984241486,-3.005920172,-0.74339962,-0.244346097,0.083535992,0.122439511,2,17,31,32,2686,3.337517262,-0.223857865,5.827486992,1.402791739,2.691670656,2.823169947,-64,21,-75,-1,178
1695163130750312400,-8.971074104,-3.038241863,-0.749385118,-0.233687595,0.091663092,0.116177641,1,17,35,29,2686,3.226186752,-0.348356336,6.025008678,1.340705991,2.70406127,2.67501688,-61,27,-80,-1,178
1695163130751312400,-8.962694168,-3.072957993,-0.751779318,-0.221030638,0.098857582,0.109782539,1,21,33,32,2686,3.112462282,-0.456095427,6.229712963,1.2808851,2.711788416,2.531526804,-63,28,-74,0,182
1695163130752312400,-8.953117371,-3.104082584,-0.754173517,-0.206641659,0.105785601,0.102987751,-1,17,31,30,2686,3.008314371,-0.547075093,6.428431511,1.225993872,2.715385914,2.392300129,-61,28,-68,-1,177
1695163130778295400,-9.082404137,-3.409343243,-0.976834297,0.09739203,0.189321592,0.014655436,2,17,27,30,2686,0.434547603,0.910993755,10.22324085,0.605136335,1.74000001,0.563168406,-62,30,-94,-55,178
1695163130779295400,-9.103952408,-3.430891037,-1.006761789,0.105119444,0.194917306,0.010125575,2,21,31,30,2686,-0.023942016,1.213860273,10.6158905,0.569297075,1.596243501,0.522799373,-64,30,-92,-48,178
1695163130780295400,-9.126696587,-3.45842433,-1.042674899,0.111647777,0.201312408,0.004663093,2,17,37,30,2686,-0.444124401,1.543063045,11.0480442,0.51680398,1.412251115,0.48775959,-69,28,-95,-44,178
1695163130781295400,-9.154230118,-3.49673152,-1.07739079,0.116444103,0.208773345,-0.001865237,5,19,35,30,2686,-0.697909772,1.887827992,11.48498535,0.433267981,1.2020123,0.45551762,-63,28,-94,-36,179
1695163130782295400,-9.184157372,-3.545812607,-1.113303781,0.119908117,0.217033699,-0.009326187,0,19,35,32,2686,-0.752976418,2.270900249,11.77229023,0.306964755,0.996836126,0.415415019,-67,29,-93,-36,176
1695163130811293000,-10.48420906,-7.055712223,-2.240972757,0.038503829,0.501615584,-0.408353746,0,17,30,30,2686,2.109291792,-0.617704034,7.498639584,-0.391966313,-1.305399656,-0.063151613,-66,17,-84,-18,168
1695163130812293000,-10.59314537,-7.32745409,-2.390610456,0.041967839,0.504946411,-0.455384374,6,18,29,29,2686,2.15358448,-0.750582218,7.290344238,-0.346267998,-1.423975468,-0.088998467,-64,19,-76,-23,167
1695163130813293000,-10.69729328,-7.602787495,-2.547430515,0.04729709,0.502415001,-0.506811619,3,17,30,30,2686,2.190694571,-0.889445961,7.074865818,-0.306698322,-1.551877499,-0.117909648,-63,17,-81,-14,167
1695163130814293000,-10.7918644,-7.876923561,-2.697068214,0.054624807,0.495220512,-0.561836123,0,17,27,31,2686,2.239775658,-1.047463298,6.862978935,-0.27165848,-1.690704465,-0.149618685,-66,17,-77,-18,167
1695163130815293000,-10.88164711,-8.142680168,-2.838326216,0.063817769,0.484029084,-0.620990813,4,17,31,29,2686,2.30561614,-1.22702837,6.65468359,-0.239283308,-1.839923382,-0.183725879,-70,17,-79,-17,166
1695163130853541700,-11.14261436,-12.29302883,-4.199429989,0.84295404,0.22596018,-2.209240437,1,18,44,28,2686,5.874173641,-2.166752577,1.398213744,-0.613396645,-3.43843174,-2.713920355,-71,13,33,60,268
1695163130854541700,-11.09832191,-12.49294472,-4.176684856,0.948473155,0.242347628,-2.27865386,4,20,49,31,2686,6.083666325,-1.968033791,1.022324085,-0.75368911,-3.323986053,-2.97358799,-76,11,45,60,277
1695163130855541700,-11.03487587,-12.67370701,-4.146757126,1.061053514,0.264330775,-2.343803883,8,17,58,28,2686,6.283582211,-1.788468719,0.609324336,-0.909436405,-3.188356638,-3.242848396,-75,13,60,61,279
1695163130856541700,-10.95586681,-12.83890629,-4.116829872,1.182826996,0.293375194,-2.404157639,2,21,57,32,2686,6.4691329,-1.572990537,0.20350714,-1.071978569,-3.043534517,-3.515039682,-73,15,67,58,280
1695163130857541700,-10.86967564,-12.99093819,-4.080916882,1.311395049,0.329480857,-2.460114717,4,21,64,28,2686,6.665457726,-1.321599364,-0.210689753,-1.254638672,-2.886321545,-3.794026136,-74,11,79,57,286
1695163130901553000,-10.09275723,-13.78581333,-4.472368717,4.279387474,1.500183821,-2.572695255,4,59,284,79,2686,9.442731857,5.372588634,-4.544194698,-4.365721226,1.781434894,-4.365721226,-66,19,164,95,297
1695163130902553000,-10.08198357,-13.79179859,-4.473566055,4.365588188,1.542418122,-2.55244422,2,64,307,91,2686,9.563638687,5.609614372,-4.321534157,-4.365721226,2.036705971,-4.365721226,-65,25,163,91,297
1695163130903553000,-10.04367638,-13.80855846,-4.45441246,4.365588188,1.584519148,-2.529794693,5,65,330,99,2686,9.728838921,5.810727596,-4.025850296,-4.365721226,2.294374943,-4.365721226,-67,25,164,89,295
1695163130904553000,-9.959878922,-13.84566879,-4.430470467,4.365588188,1.628618717,-2.503947973,6,77,348,110,2686,9.934740067,5.990292549,-3.669114113,-4.365721226,2.552577257,-4.365721226,-69,27,158,88,295
1695163130905553000,-9.838972092,-13.87439919,-4.419696331,4.365588188,1.678979993,-2.473704338,5,85,374,126,2686,10.12268448,6.230909824,-3.247734547,-4.365721226,2.814110279,-4.365721226,-67,29,157,85,292
1695163130971835600,-12.29302883,-11.79383755,-7.916428089,4.365588188,1.34430325,-1.578790188,52,173,771,375,607,0.307654917,8.541314125,3.223792553,-4.365721226,4.365588188,-4.365721226,-76,30,135,72,251
1695163130972835600,-12.19845772,-11.22880554,-7.781155586,4.365588188,1.213869929,-1.528295636,58,186,783,388,627,-0.079008654,8.392873764,3.552995205,-4.365721226,4.365588188,-4.365721226,-76,35,133,73,250
1695163130973835600,-11.99614716,-10.67694283,-7.528567314,4.365588188,1.09382844,-1.478067279,63,192,794,396,654,-0.615309834,8.154650688,4.066551685,-4.365721226,4.365588188,-4.365721226,-76,33,135,72,250
1695163130974835600,-11.71482849,-10.11669922,-7.219715118,4.365588188,0.988309324,-1.425441027,64,191,801,412,676,-1.108515382,7.934384346,4.588487625,-4.365721226,4.293110371,-4.365721226,-75,31,136,72,250
1695163130975835600,-11.40717411,-9.544485092,-6.9084692,4.365588188,0.897312403,-1.369750381,71,193,813,424,697,-1.55982244,7.715314865,5.102043629,-4.365721226,4.164009094,-4.365721226,-77,32,137,72,249
1695163131098223600,-8.026560783,-1.200692177,-4.128800869,4.365588188,0.199580401,-0.401825428,130,229,823,449,873,-6.794744492,3.606864929,10.28429317,-3.346768618,3.655199051,-2.763482332,-76,37,130,63,230
1695163131099223600,-7.939172745,-1.130063176,-3.963600874,4.365588188,0.148419604,-0.388901979,132,228,824,449,878,-6.973112583,3.472789526,10.40041256,-3.232056856,3.663192987,-2.6843431,-76,35,126,63,227
1695163131100223600,-7.850587368,-1.07739079,-3.798400879,4.365588188,0.0955268,-0.379309326,132,231,826,454,2686,-7.134721279,3.353079557,10.51892471,-3.121474743,3.665058136,-2.607335329,-78,39,128,65,228
1695163131101223600,-7.756016254,-1.042674899,-3.64038372,4.365588188,0.041967839,-0.371581942,132,234,825,446,2686,-7.231686115,3.288435936,10.59314537,-3.050862312,3.663059711,-2.556574106,-76,32,126,63,225
1695163131102223600,-7.673416615,-1.025915384,-3.479972124,4.365588188,-0.01185758,-0.364787132,132,234,825,447,2686,-7.365761757,3.213018656,10.70208168,-2.949473143,3.654532909,-2.481165409,-78,40,129,63,224
1695163131220165200,-6.669048786,0.468066424,-0.802057564,4.365588188,-0.530926466,-0.073143952,153,256,795,444,953,-8.682572365,0.946906745,11.46104336,-1.772375226,2.159678459,-1.037604928,-80,45,124,56,215
1695163131221165200,-6.596025467,0.609324336,-0.646434486,4.365588188,-0.554241955,-0.067548238,155,256,794,443,954,-8.616731644,0.773327172,11.47301483,-1.690704465,2.062552929,-0.98844254,-79,44,125,57,215
1695163131222165200,-6.542156219,0.712275028,-0.535104096,4.316558838,-0.572894335,-0.068347625,158,253,794,444,952,-8.547300339,0.614112735,11.47421169,-1.607701302,1.971022964,-0.945275664,-81,41,123,53,213
1695163131223165200,-6.495469093,0.806845963,-0.427365005,4.203578949,-0.59314549,-0.072611026,158,256,794,444,951,-8.464699745,0.471657723,11.47301483,-1.525630951,1.884955525,-0.907571197,-79,41,124,62,215
1695163131224165200,-6.453570843,0.887051702,-0.316034615,4.090598583,-0.614862144,-0.079805516,159,257,789,439,951,-8.367734909,0.355538964,11.49216843,-1.445825338,1.805416584,-0.875595689,-81,27,120,58,214
1695163131333090800,-5.495890141,1.681926727,2.099714994,2.219632387,-0.961663067,-0.362522215,164,253,767,429,911,-9.131484985,1.069011092,13.81813526,-0.929954052,-0.332811654,-0.928488553,-80,-17,116,56,210
1695163131334090800,-5.346252441,1.813607812,2.209848166,2.123705864,-0.955534458,-0.37451303,168,251,767,429,910,-8.632294655,0.829590917,13.52604294,-0.951537549,-0.383972436,-0.919428766,-79,-15,116,59,211
1695163131335090800,-5.149928093,2.091335297,2.240972757,2.022583485,-0.947140872,-0.391566604,170,251,765,428,910,-8.127118111,0.55904609,13.18965721,-0.951803982,-0.41141808,-0.907038331,-79,-16,119,58,211
1695163131336090800,-4.969165802,2.545036316,2.141613483,1.918396592,-0.941012263,-0.421410412,175,253,768,429,909,-7.637503624,0.280121595,12.81257057,-0.930353761,-0.418479323,-0.89025116,-79,-15,115,57,210
1695163131337090800,-4.787206173,3.055001259,2.038662672,1.80128634,-0.938880503,-0.463644713,174,251,763,428,909,-7.187393665,0.01316811,12.39957047,-0.887053609,-0.408087283,-0.867335379,-79,-15,120,62,211
1695163131473008400,-5.665878296,-1.033097982,4.358644009,0.225693718,-0.175199077,-0.150817752,188,247,740,414,872,-4.777629375,2.908955097,7.51061058,0.553309321,0.169203669,-0.161209792,-80,-22,111,58,213
1695163131474008400,-5.855020046,-1.236605167,4.432864666,0.358525276,-0.1672052,-0.08726646,180,246,739,413,871,-4.774038315,3.100491285,7.493851185,0.50428021,0.150950998,-0.165872887,-76,-21,115,57,209
1695163131475008400,-5.97951889,-1.400607944,4.559757233,0.498018384,-0.173333839,-0.027445635,180,244,741,412,868,-4.748898983,3.276464939,7.485471725,0.423142403,0.122705974,-0.178529859,-78,-25,110,58,212
1695163131476008400,-6.052541733,-1.503558636,4.76086998,0.630183756,-0.183992341,0.031975497,179,249,739,415,868,-4.71657753,3.353079557,7.484274387,0.354528338,0.099923424,-0.191320062,-79,-24,111,56,212
1695163131477008400,-6.087257862,-1.501164436,4.978742599,0.747427285,-0.19118683,0.089131698,181,246,739,413,867,-4.679467201,3.390189648,7.480683327,0.28205052,0.076874427,-0.2051761,-81,-24,112,58,214
1695163131519981000,-6.187814236,-0.836773515,7.335834026,0.204509944,-0.119908117,-0.041701376,173,243,727,411,849,-4.751293182,1.772906303,8.525752068,0.011191424,-0.089931086,-0.135895863,-80,-20,116,56,212
1695163131520981000,-6.197391033,-0.938527048,7.432799339,0.158811629,-0.127635539,-0.066615619,173,241,725,410,847,-4.802768707,1.771709204,8.610746384,0.047163859,-0.087799385,-0.118442573,-77,-21,113,61,213
1695163131521981000,-6.196194172,-1.030703783,7.522581577,0.121107198,-0.136295557,-0.088865243,174,243,728,408,846,-4.853046894,1.769315004,8.698134422,0.08207044,-0.087133229,-0.10178867,-79,-23,111,56,214
1695163131522981000,-6.184223175,-1.110909581,7.599195957,0.091263399,-0.145488501,-0.107384384,173,242,721,412,846,-4.898536682,1.769315004,8.77834034,0.115644716,-0.088065848,-0.086067379,-78,-24,121,57,214
1695163131523981000,-6.155492783,-1.173158884,7.665036678,0.068347625,-0.154548228,-0.12230628,176,247,721,406,846,-4.935647011,1.770512104,8.850166321,0.147220522,-0.090064317,-0.071411945,-78,-24,115,58,214
1695163131562955800,-5.31512785,-0.940921247,7.69017601,0.035705972,-0.141491577,-0.019851454,174,242,715,406,835,-4.738125324,0.755370617,8.597578049,0.641375184,-0.178396642,0.166805506,-79,-31,108,57,213
1695163131563955800,-5.32111311,-0.951695204,7.702147007,0.03996937,-0.135229707,-0.011191424,171,241,714,406,836,-4.729745388,0.666785181,8.552088737,0.68667376,-0.185058191,0.189454809,-78,-25,109,56,214
1695163131564955800,-5.328295708,-0.960074902,7.722497463,0.044232771,-0.129101068,-0.003064318,174,240,714,403,836,-4.724956989,0.580593884,8.511386871,0.735036731,-0.192252681,0.214102611,-81,-29,109,58,214
1695163131565955800,-5.340266705,-0.9660604,7.736862659,0.048229709,-0.123238891,0.004529862,174,239,712,404,833,-4.717774391,0.500388145,8.474276543,0.786597252,-0.199846849,0.240482375,-78,-32,110,56,211
1695163131566955800,-5.352237701,-0.968454599,7.753622055,0.051560488,-0.117776416,0.011324655,169,239,715,400,834,-4.711789131,0.420182407,8.43956089,0.840955555,-0.207441032,0.268594176,-79,-33,107,57,215
1695163131603932700,-5.518634796,-0.785298169,7.580042362,-0.254071981,-0.093661562,-0.051560488,173,239,708,400,827,-4.413711071,-0.63326633,7.015010834,2.499284744,-0.426872909,1.102355242,-77,-28,112,60,222
1695163131604932700,-5.519832134,-0.796072066,7.539340973,-0.280584991,-0.09659265,-0.061952524,170,235,708,402,825,-4.371812344,-0.606930137,6.885724068,2.615329266,-0.451254189,1.168437958,-76,-31,113,60,224
1695163131605932700,-5.522226334,-0.804451764,7.495048523,-0.307098001,-0.100323126,-0.072611026,168,238,705,399,823,-4.329913616,-0.561440289,6.751648903,2.731106997,-0.477101088,1.236918926,-79,-22,109,61,226
1695163131606932700,-5.525817394,-0.815225661,7.453149796,-0.333211303,-0.104852989,-0.083535992,172,237,703,398,823,-4.285621166,-0.511162043,6.623558998,2.845686197,-0.504946411,1.306998491,-76,-20,112,61,228
1695163131607932700,-5.524620533,-0.822408259,7.410054207,-0.358924955,-0.110315464,-0.094860643,169,234,701,402,825,-4.246116638,-0.458489627,6.500257492,2.958666325,-0.534124076,1.378543615,-76,-19,108,57,228
1695163131643911900,-5.422866821,0.511162043,5.746084213,-1.176165342,-0.593278706,-0.585950971,148,221,659,376,787,-3.898957491,0.943315446,3.873818398,4.255805492,-1.090630889,2.551911354,-74,-10,56,49,224
1695163131644911900,-5.414487362,0.663193882,5.602431774,-1.260767221,-0.643906593,-0.63258189,152,220,651,370,784,-3.890577793,0.979228497,3.750516891,4.281652451,-1.123006105,2.571629286,-70,-7,48,50,221
1695163131645911900,-5.384559631,0.808043063,5.46596241,-1.353496194,-0.693868279,-0.679346085,154,214,650,369,781,-3.882198095,1.000776291,3.633201122,4.307632446,-1.156846762,2.585352182,-69,-5,49,48,221
1695163131646911900,-5.328295708,0.946906745,5.31871891,-1.453019857,-0.743030608,-0.725577295,152,217,639,367,777,-3.881000996,1.010353088,3.49673152,4.335477829,-1.191087365,2.593212843,-74,-7,47,51,221
1695163131647911900,-5.267243862,1.086967587,5.170278549,-1.560137868,-0.792326152,-0.771142364,149,209,637,365,773,-3.889380693,1.00556469,3.359065056,4.365588188,-1.227459431,2.596410275,-70,-7,44,48,224
1695163131684892700,-4.448426723,1.880645394,2.140416384,-4.365721226,-1.22892499,-0.692269564,111,162,475,242,549,-3.469198227,2.161964178,1.199495077,4.365588188,-2.300104141,2.135829926,-58,-9,17,52,215
1695163131685892700,-4.402936935,1.817199111,1.983596087,-4.365721226,-1.217333913,-0.629784048,110,166,464,234,529,-3.442862034,2.254140854,1.11450088,4.365588188,-2.376312256,2.09266305,-60,-8,15,53,213
1695163131686892700,-4.364629745,1.74896431,1.808819413,-4.365721226,-1.204143882,-0.562768757,114,163,443,223,507,-3.422511339,2.363077164,1.034295082,4.365588188,-2.453053713,2.047097921,-59,-5,14,56,215
1695163131687892700,-4.344278812,1.680729628,1.617283225,-4.365721226,-1.191087365,-0.491623253,113,158,431,211,494,-3.404554844,2.463633537,0.944512546,4.365588188,-2.532992363,1.998202085,-60,-7,17,53,214
1695163131688892700,-4.333505154,1.600523829,1.431732655,-4.365721226,-1.178830028,-0.416747332,112,154,415,206,473,-3.38180995,2.554613113,0.858321309,4.365588188,-2.615595579,1.948240399,-59,-8,15,57,212
1695163131723866500,-3.481169224,-2.773682594,1.113303781,-4.365721226,0.001998469,1.14112556,101,90,173,89,2686,-4.266467571,4.649539471,-0.178368032,4.281385899,-4.2326231,0.367984682,-67,-4,17,47,200
1695163131724866500,-3.53384161,-3.025073767,1.229422569,-4.365721226,0.085401222,1.21959877,98,90,165,86,2686,-4.444835663,4.8314991,-0.293289721,4.16201067,-4.307232857,0.205975503,-50,-9,20,45,201
1695163131725866500,-3.606864929,-3.270479441,1.316810966,-4.365721226,0.166405827,1.302601933,99,87,155,79,205,-4.562151432,4.960785866,-0.37349546,4.07954073,-4.353330612,0.090730481,-49,-8,16,40,200
1695163131726866500,-3.7169981,-3.505111217,1.370680451,-4.365721226,0.243147001,1.389601946,97,85,150,75,2686,-4.714183331,5.166687489,-0.500388145,3.95523572,-4.365721226,-0.093395106,-50,-7,18,41,198
1695163131727866500,-3.8630445,-3.732560396,1.398213744,-4.365721226,0.316157728,1.480731964,94,83,137,75,2686,-4.853046894,5.361814499,-0.63087213,3.831064224,-4.365721226,-0.29031086,-50,-7,8,43,199
1695163131770842200,-7.146692276,-4.013879299,-0.222660765,-4.365721226,0.662692189,2.905906677,54,47,53,44,2686,-5.969942093,9.619902611,-1.148019671,1.058388948,-4.365721226,-4.365721226,-44,-5,-8,26,196
1695163131771842200,-7.274781704,-4.010287762,-0.311246216,-4.365721226,0.636312425,2.931753397,51,47,51,43,2686,-6.041768074,9.792284966,-1.145625472,0.880392075,-4.365721226,-4.365721226,-44,-8,-12,28,193
1695163131772842200,-7.406463146,-4.013879299,-0.41060558,-4.365721226,0.607934177,2.954935551,48,46,49,42,2686,-6.10281992,9.925163269,-1.149216771,0.704127073,-4.365721226,-4.365721226,-44,-8,-14,22,194
1695163131773842200,-7.546523571,-4.031835556,-0.493205547,-4.365721226,0.577157736,2.974254131,48,45,44,43,2686,-6.168660641,10.04966164,-1.119289279,0.530393541,-4.311229706,-4.365721226,-43,-8,-13,22,194
1695163131774842200,-7.704541206,-4.060565948,-0.584185243,-4.365721226,0.543716669,2.99077487,46,45,37,42,2686,-6.220136166,10.14662647,-1.079784989,0.414748847,-4.264465332,-4.365721226,-44,-5,-15,22,196
1695163131934745500,-11.27549267,-5.42765522,-2.711433411,-4.365721226,-0.25300613,2.962929487,32,35,19,30,2686,-7.309497833,9.366117477,1.169567585,-2.474104166,-1.291143894,-4.365721226,-44,-5,-34,15,194
1695163131935745500,-11.42034245,-5.503072739,-2.828749418,-4.365721226,-0.306698322,2.944144011,34,37,20,34,2686,-7.413645744,9.193734169,1.216254473,-2.533925056,-1.157379866,-4.365721226,-44,-3,-34,13,194
1695163131936745500,-11.56159973,-5.576095581,-2.941276789,-4.365721226,-0.361722827,2.923359871,36,40,17,34,2686,-7.582436562,8.925583839,1.292868972,-2.611865044,-0.956600308,-4.365721226,-44,-3,-36,14,192
1695163131937745500,-11.69447803,-5.64313364,-3.052607059,-4.365721226,-0.41754669,2.899910927,36,37,23,32,2686,-7.762001991,8.652645111,1.357512355,-2.676882029,-0.75622052,-4.365721226,-43,-3,-37,14,193
1695163131938745500,-11.81777954,-5.712565422,-3.156754971,-4.365721226,-0.473903507,2.87393117,32,35,21,31,2686,-7.969100475,8.366538048,1.413776159,-2.728975534,-0.557705998,-4.365721226,-44,-3,-35,15,192
1695163132002704900,-12.88319969,-6.412869453,-3.493140221,-4.365721226,-1.525497675,2.236552715,32,35,6,29,2686,-14.8727808,4.594472885,2.213439465,-1.418779492,2.460114717,-4.365721226,-48,-2,-41,12,193
1695163132003704900,-12.92988586,-6.43321991,-3.429693937,-4.365721226,-1.572928071,2.212038279,31,39,11,29,2686,-15.29775143,4.60764122,2.279279947,-1.259701371,2.582687616,-4.365721226,-46,-2,-39,14,192
1695163132004704900,-12.97776985,-6.455965042,-3.357867956,-4.365721226,-1.618759632,2.190587997,33,43,12,31,2686,-15.72032833,4.659116745,2.336740971,-1.096093416,2.70406127,-4.365721226,-44,-3,-39,12,193
1695163132005704900,-13.04001999,-6.487089634,-3.256114244,-4.365721226,-1.677248001,2.166073561,32,41,13,31,2686,-16.14290428,4.762067318,2.402581453,-0.929021418,2.823036671,-4.365721226,-50,-3,-36,13,194
1695163132006704900,-13.08790398,-6.517016888,-3.177105665,-4.365721226,-1.719082713,2.151284933,33,37,4,32,2686,-16.56188965,4.904522419,2.472013235,-0.763947904,2.941212893,-4.365721226,-47,-2,-36,12,194
1695163132081662300,-14.18325043,-7.456741333,-1.884236693,-1.212137818,-1.983546734,2.616794825,31,38,7,34,2686,-18.15163994,10.39801788,1.889025092,1.097292423,3.620958805,-4.365721226,-51,3,-36,8,196
1695163132082662300,-14.20719242,-7.475894928,-1.8579005,-1.005229712,-1.968358278,2.664358377,31,37,9,30,2686,-17.94813347,10.49977112,1.850717902,1.084768772,3.578457832,-4.365721226,-54,0,-35,9,192
1695163132083662300,-14.22155857,-7.484274387,-1.831564307,-0.799520671,-1.950905085,2.710589647,30,35,5,31,2686,-17.61893082,10.62427044,1.795651317,1.055191398,3.50757885,-4.365721226,-51,3,-34,13,197
1695163132084662300,-14.23113537,-7.486668587,-1.806425214,-0.595410407,-1.931186914,2.755621672,31,37,7,31,2686,-17.26099777,10.7140522,1.732204914,1.01282382,3.429372311,-4.365721226,-51,6,-34,9,196
1695163132085662300,-14.23352909,-7.481880188,-1.792060018,-0.393565059,-1.909336925,2.798388958,31,37,8,29,2686,-16.88510704,10.77151299,1.691503525,0.958465517,3.342905045,-4.365721226,-53,3,-35,8,194
1695163132120636700,-12.4917469,-6.320692539,-2.103306293,2.491424084,-1.125537515,2.897513151,30,35,11,34,2686,-10.66616821,6.556521416,0.366312861,-0.846418023,1.215601921,-0.65656352,-54,-1,-35,14,188
1695163132121636700,-12.32654762,-6.163872242,-2.105700493,2.574427128,-1.061986208,2.85314703,28,36,11,31,2686,-10.59194851,6.238092422,0.304063618,-0.879192948,1.084901929,-0.404889733,-53,4,-31,15,192
1695163132122636700,-12.15536213,-5.998672485,-2.108094692,2.647970915,-0.996969402,2.802785635,31,34,9,29,2686,-10.53448772,5.931634903,0.253785372,-0.900509953,0.952869833,-0.158012256,-51,-2,-32,15,188
1695163132123636700,-11.9805851,-5.815515995,-2.106897593,2.711788416,-0.93075341,2.746162176,27,35,9,26,2686,-10.47942066,5.633556366,0.214281052,-0.909836173,0.81963861,0.083402753,-55,-2,-32,14,188
1695163132124636700,-11.80820274,-5.623979568,-2.097320795,2.765614033,-0.862538993,2.683143854,29,37,15,32,2686,-10.43153667,5.346252441,0.18674773,-0.906905055,0.685741186,0.319088817,-51,0,-34,14,185
1695163132154640400,-9.732429504,-1.405396342,-1.71065712,1.869767189,0.370382845,0.628584981,25,36,21,32,2686,-9.819818497,2.558204412,0.286107093,0.880791724,-1.361756563,2.938148499,-51,-7,-23,31,188
1695163132155640400,-9.712079048,-1.241393566,-1.696291924,1.734404325,0.407554358,0.506278694,24,38,19,34,2686,-9.758766174,2.564189911,0.304063618,1.014555931,-1.403724313,2.957999945,-53,-6,-20,30,189
1695163132156640400,-9.692925453,-1.096544385,-1.689109325,1.593445539,0.441261858,0.385837674,28,35,21,31,2686,-9.696516991,2.585737944,0.33399114,1.145522237,-1.437831521,2.967592716,-49,-2,-17,31,186
1695163132157640400,-9.680954933,-0.962469101,-1.675941229,1.447557449,0.471105665,0.267794788,26,39,19,32,2686,-9.625887871,2.625242233,0.363918662,1.274889708,-1.462612629,2.967326403,-53,-3,-20,31,186
1695163132158640400,-9.670180321,-0.845153213,-1.668758631,1.29807198,0.497218996,0.152150065,27,37,18,32,2686,-9.545681953,2.671929121,0.397437483,1.40026021,-1.481264949,2.95640111,-55,-5,-16,31,184
1695163132187601100,-9.651026726,-0.770932972,-1.614889026,-1.328315496,0.423675328,-1.192686081,27,32,26,40,2686,-8.279149055,4.508281708,0.85353291,2.506879091,-1.021217465,1.644606352,-55,-2,-15,32,185
1695163132188601100,-9.648633003,-0.849941611,-1.617283225,-1.429304719,0.405289441,-1.209872842,21,43,26,38,2686,-8.236053467,4.605247021,0.889445961,2.477301836,-0.982580423,1.560537577,-45,-3,-14,32,183
1695163132189601100,-9.641449928,-0.937329948,-1.619677424,-1.523898959,0.386503845,-1.220797777,28,37,26,36,2686,-8.192957878,4.696226597,0.93014735,2.43919754,-0.943943322,1.478999972,-53,-3,-18,32,185
1695163132190601100,-9.635464668,-1.031900883,-1.617283225,-1.613696814,0.368117899,-1.226127028,24,38,26,38,2686,-8.169015884,4.75249052,0.955286503,2.409353733,-0.918362916,1.426506877,-51,-4,-18,32,186
1695163132191601100,-9.629479408,-1.137245774,-1.620874524,-1.69696629,0.349732012,-1.225594163,25,38,27,42,2686,-8.133103371,4.836287498,0.993593693,2.357926607,-0.880258799,1.350564957,-55,-3,-18,32,186
1695163132226573000,-9.275136948,-3.139995575,-1.602918029,-1.883623362,-0.049428791,-0.443127096,25,41,35,44,2686,-7.995436668,5.072116375,0.916979253,0.665623307,-0.442460954,0.561436415,-50,-5,-15,30,184
1695163132227573000,-9.248801231,-3.192667961,-1.607706428,-1.829264879,-0.07087902,-0.389035225,24,37,39,45,2686,-8.020575523,5.036203384,0.900219858,0.585817754,-0.43260181,0.547447205,-54,-7,-17,29,184
1695163132228573000,-9.216479301,-3.241749048,-1.608903527,-1.770509958,-0.091796324,-0.337208271,28,43,39,41,2686,-8.050502777,4.999093056,0.89184016,0.509742737,-0.422742724,0.535056651,-51,-4,-18,31,183
1695163132229573000,-9.18296051,-3.282450438,-1.613691926,-1.707758069,-0.112180702,-0.287513018,25,37,37,42,2686,-8.086416245,4.965574265,0.885854602,0.437664628,-0.412350684,0.523998499,-54,-6,-18,31,184
1695163132230573000,-9.147047997,-3.318363667,-1.624465823,-1.641408801,-0.132032156,-0.240615621,27,39,35,40,2686,-8.127118111,4.930858612,0.887051702,0.369583488,-0.401558936,0.513606429,-54,-12,-19,31,184
1695163132393014200,-8.702922821,-3.098097086,-1.640028119,-0.311894357,-0.242880553,0.117376715,24,32,39,38,2686,-9.43315506,6.208165169,2.099714994,-0.168404296,-0.177863702,0.290044397,-55,-3,-20,28,182
1695163132394014200,-8.70771122,-3.057395458,-1.625662923,-0.26592955,-0.228758052,0.111781009,24,37,38,42,2686,-9.50976944,6.459556103,2.211045265,-0.172134757,-0.185324654,0.311494648,-55,-4,-20,25,183
1695163132395014200,-8.717288017,-3.015496969,-1.614889026,-0.223295555,-0.213169977,0.104320064,21,39,37,38,2686,-9.579200745,6.738480568,2.333149672,-0.172800913,-0.197182223,0.341604888,-55,-4,-20,25,184
1695163132396014200,-8.730456352,-2.970007181,-1.601720929,-0.184392035,-0.196249619,0.094993874,22,38,36,39,2686,-9.646238327,7.054515362,2.466027737,-0.171335369,-0.213969365,0.381441027,-51,-3,-19,27,183
1695163132397014200,-8.74601841,-2.926911592,-1.590947032,-0.148952529,-0.177996933,0.083802447,24,34,39,42,2686,-9.715670586,7.404068947,2.622848034,-0.170003071,-0.235952526,0.430470139,-57,-3,-21,28,184
1695163132466979800,-9.447520256,-2.19308877,-1.414973259,-0.072877489,0.241681471,-0.347333819,22,33,39,45,2686,-14.50646782,18.58259583,4.090493679,0.399294019,-1.200546741,2.386837721,-53,5,-17,47,195
1695163132467979800,-9.495404243,-2.182314873,-1.391031146,-0.08753293,0.262998462,-0.372914255,25,38,40,41,2686,-14.97214031,19.30564499,4.006696701,0.448056638,-1.257569671,2.513007402,-58,3,-11,47,196
1695163132468979800,-9.538499832,-2.177526474,-1.37546885,-0.102321595,0.284049004,-0.398094952,26,34,40,44,2686,-15.41387081,19.61270142,3.90254879,0.485361397,-1.316591024,2.638378143,-55,1,-15,47,199
1695163132469979800,-9.579200745,-2.175132275,-1.352723956,-0.116710559,0.304833084,-0.422742724,24,35,40,42,2686,-15.87236023,19.61270142,3.736151695,0.512007654,-1.37121594,2.775073528,-57,-2,-15,50,200
1695163132470979800,-9.623494148,-2.175132275,-1.331176162,-0.130699843,0.325217426,-0.446857601,25,35,36,43,2686,-16.30451393,19.61270142,3.591302633,0.548113346,-1.425840735,2.925758123,-57,3,-13,50,203
1695163132499980600,-10.11071396,-2.336740971,-0.857124209,-0.085934147,0.636578858,-0.836425722,20,33,32,38,2686,-17.83081627,19.61270142,2.145204782,-1.499784112,-1.152983069,4.365588188,-61,-2,62,86,220
1695163132500980600,-10.1143055,-2.334346771,-0.835576415,-0.065416537,0.646038294,-0.854678452,26,34,32,35,2686,-17.7553997,19.61270142,2.054224968,-1.694434881,-1.10062325,4.365588188,-59,-2,67,86,222
1695163132501980600,-10.11550236,-2.330755472,-0.81642276,-0.043433387,0.654831588,-0.87266463,20,32,29,42,2686,-17.67040634,19.61270142,1.952471495,-1.883090258,-1.057722807,4.365588188,-60,-3,68,85,220
1695163132502980600,-10.11550236,-2.329558372,-0.802057564,-0.020117918,0.662825465,-0.890384376,19,32,35,39,2686,-17.60336876,19.61270142,1.877054095,-2.00379777,-1.034940243,4.365588188,-60,-2,74,89,226
1695163132503980600,-10.11310768,-2.322375536,-0.78050977,0.0042634,0.669753432,-0.907837629,19,33,31,39,2686,-17.49921989,19.61270142,1.778891921,-2.175932646,-1.007761121,4.365588188,-60,-4,79,86,221
1695163132538935800,-9.54807663,-1.942894697,-0.444124401,0.492822349,0.699197531,-1.151917338,21,33,31,38,2686,-12.44865131,5.742492676,1.823184609,-3.804551125,-1.624088883,4.365588188,-59,-2,148,112,234
1695163132539935800,-9.498994827,-1.906981707,-0.435744703,0.510941803,0.69599998,-1.158712029,20,33,28,39,2686,-12.06557941,5.109226227,1.837549806,-3.828133106,-1.672318578,4.365588188,-59,-1,153,112,238
1695163132540935800,-9.448717117,-1.869871497,-0.427365005,0.527462482,0.692535996,-1.165107131,20,35,32,39,2686,-11.68370438,4.497508049,1.806425214,-3.840656996,-1.714153051,4.365588188,-59,-2,154,115,236
1695163132541935800,-9.40083313,-1.825578809,-0.415394008,0.542384386,0.688272595,-1.170836091,18,32,33,39,2686,-11.31499767,3.921702385,1.719036818,-3.841722727,-1.752923369,4.365588188,-57,-2,158,106,238
1695163132542935800,-9.354146004,-1.78128612,-0.40940848,0.555574298,0.683476269,-1.176032066,17,34,35,38,2686,-10.94868469,3.38300705,1.59932673,-3.838525295,-1.792759657,4.365588188,-55,-1,158,116,245
1695163132579912300,-8.947132111,-0.954089403,-0.568622887,0.470705956,0.439663082,-1.153782606,17,33,33,39,2686,-2.482787132,-2.157175779,1.127668977,-3.251774788,-2.014189959,3.412318468,-41,3,177,113,249
1695163132580912300,-8.945934296,-0.92895025,-0.578199685,0.451387435,0.421410412,-1.144589663,23,35,37,36,2686,-2.050633669,-2.351106167,1.098938584,-3.209673643,-1.971689105,3.280819178,-47,4,175,112,252
1695163132581912300,-8.942343712,-0.903811157,-0.582988143,0.431269497,0.403290957,-1.134464025,19,32,39,38,2686,-1.623268723,-2.559401512,1.065419793,-3.166240454,-1.926390529,3.147588015,-43,1,177,111,252
1695163132582912300,-8.944737434,-0.876277804,-0.586579442,0.410485446,0.385437965,-1.123272657,21,33,37,39,2686,-1.209071875,-2.778470993,1.025915384,-3.118676901,-1.878826976,3.013957262,-39,6,176,110,253
1695163132583912300,-8.944737434,-0.860715508,-0.591367841,0.389168471,0.367984682,-1.110882044,21,37,41,42,2686,-0.814028561,-2.965218782,0.982819796,-3.066450119,-1.828199029,2.880859137,-41,3,176,111,249
1695163132644851900,-8.947132111,-0.922964752,-0.666785181,-0.02384839,0.166139349,-0.701862156,24,34,40,42,2686,4.468777657,-4.0114851,-0.198718742,-2.61732769,-0.269793272,0.01385605,-33,3,184,104,273
1695163132645851900,-8.950722694,-0.934935749,-0.685938776,-0.042234302,0.159877479,-0.676947892,20,33,41,39,2686,4.425682068,-4.021061897,-0.260968,-2.63198328,-0.119508423,-0.164940268,-31,7,187,109,267
1695163132646851900,-8.953117371,-0.946906745,-0.707486629,-0.060353752,0.153482378,-0.652166963,19,35,44,40,2686,4.344278812,-4.031835556,-0.317231715,-2.644240379,0.037970904,-0.344269514,-31,3,188,108,272
1695163132647851900,-8.961497307,-0.957680702,-0.731428623,-0.078339972,0.14695406,-0.627785623,18,32,39,42,2686,4.223371983,-4.039018154,-0.379480958,-2.653433323,0.201045945,-0.523465574,-34,5,183,109,270
1695163132648851900,-8.967482567,-0.972045898,-0.757764816,-0.096326187,0.140692189,-0.60353756,18,33,41,38,2686,4.058171749,-4.037821293,-0.44651863,-2.658762693,0.368650824,-0.701995432,-35,9,177,111,273
1695163132772844700,-8.851364136,-1.44729495,-1.532289028,-0.462578863,0.01385605,-0.241148531,20,32,39,38,2686,-3.859453201,-1.768117905,-0.605733037,-2.766546488,2.714320183,-3.181428671,-43,21,169,105,258
1695163132773844700,-8.827422142,-1.502361536,-1.555034041,-0.468973964,0.009459418,-0.230090365,19,32,36,35,2686,-4.411316395,-1.693897724,-0.550666392,-2.792127132,2.756154776,-3.237519264,-48,17,169,104,256
1695163132774844700,-8.801085472,-1.55862534,-1.564610839,-0.472038269,0.006128637,-0.219298616,18,34,43,38,2686,-4.960785866,-1.634042621,-0.48243165,-2.815842152,2.791993856,-3.287747145,-48,21,169,104,254
1695163132775844700,-8.774748802,-1.614889026,-1.580173135,-0.471505344,0.003863706,-0.209039822,20,35,44,43,2686,-5.511452198,-1.580173135,-0.40940848,-2.837692022,2.82197094,-3.332912683,-46,24,169,105,258
1695163132776844700,-8.752004623,-1.677138329,-1.590947032,-0.467774898,0.002264931,-0.199313939,18,32,42,30,2686,-6.05852747,-1.52630353,-0.326808542,-2.855944872,2.847551107,-3.373414993,-49,21,164,101,257
1695163132833830600,-8.614337921,-2.403778553,-1.778891921,0.106851459,0.014522205,0.015588055,18,35,47,39,2686,-14.90510273,3.129221678,6.783970356,-2.76894474,3.06818223,-2.993439436,-62,31,139,99,247
1695163132834830600,-8.614337921,-2.41455245,-1.78368032,0.148552835,0.01825268,0.031176111,17,32,47,43,2686,-15.10861015,3.355473757,7.21253252,-2.696733475,3.004097939,-2.828232765,-62,33,137,100,246
1695163132835830600,-8.617929459,-2.425326347,-1.788468719,0.189987749,0.023182238,0.046764165,22,32,48,41,2686,-15.27021885,3.536235809,7.586028099,-2.599075079,2.918297052,-2.638245106,-63,30,136,100,244
1695163132836830600,-8.622717857,-2.431311846,-1.795651317,0.230889738,0.029310873,0.062485453,20,33,44,40,2686,-15.4030962,3.721786499,7.916428089,-2.473837852,2.808647633,-2.422410488,-64,32,129,100,244
1695163132837830600,-8.623914719,-2.440888643,-1.808819413,0.271392047,0.035972435,0.07820674,19,33,48,39,2686,-15.52520084,3.918111086,8.183381081,-2.323019981,2.673551321,-2.183393478,-63,31,128,98,243
1695163132901818100,-8.841787338,-2.774879694,-1.70946002,0.737834632,-0.004929556,0.27525574,20,33,45,38,2686,-14.92305946,5.179855347,6.496666431,4.365588188,-2.702196121,4.365588188,-69,26,66,96,238
1695163132902818100,-8.882488251,-2.815581083,-1.689109325,0.736235797,-0.03011026,0.259401232,18,32,47,40,2686,-14.70997524,5.586869717,6.314706802,4.365588188,-2.861274242,4.365588188,-69,24,61,89,232
1695163132903818100,-8.920795441,-2.857479811,-1.662773132,0.73183918,-0.056889739,0.238217458,20,32,47,40,2686,-14.52562141,5.882553577,6.160281181,4.365588188,-2.948274136,4.365588188,-67,19,51,82,233
1695163132904818100,-8.954314232,-2.906560898,-1.630451322,0.725177646,-0.085667685,0.211837664,22,33,53,44,2686,-14.17846203,6.404489517,5.954379559,4.365588188,-3.048996925,4.365588188,-69,20,36,76,230
1695163132905818100,-8.990227699,-2.959233284,-1.593341231,0.71678406,-0.116977029,0.180261865,24,32,53,42,2686,-13.7534914,7.011419773,5.71974802,4.365588188,-3.111748695,4.365588188,-67,23,30,72,228
1695163132934795400,-8.912415504,-2.503137827,-0.651222885,0.043300152,-0.678946435,-0.335476279,31,33,49,42,2686,-2.04704237,17.98284912,0.55784899,4.365588188,-0.153082699,4.365588188,-65,19,-37,15,193
1695163132935795400,-8.877699852,-2.436100245,-0.509964943,-0.055024505,-0.675882041,-0.342404276,29,32,57,40,2686,-1.55862534,18.17677879,0.620098233,4.365588188,0.0,4.365588188,-70,21,-39,13,194
1695163132936795400,-8.858546257,-2.373851061,-0.366312861,-0.159344569,-0.668554366,-0.348133236,28,32,51,39,2686,-1.098938584,18.36592102,0.725443125,4.365588188,0.155747324,4.365588188,-64,23,-43,14,193
1695163132937795400,-8.845377922,-2.316390038,-0.232237563,-0.268327713,-0.657496214,-0.35266307,31,31,48,39,2686,-0.656011283,18.50717926,0.786495268,4.365588188,0.316690654,4.365588188,-70,19,-43,14,193
1695163132938795400,-8.841787338,-2.266111851,-0.099359371,-0.381174594,-0.645238936,-0.355194479,29,32,49,40,2686,-0.202310041,18.60773468,0.815225661,4.365588188,0.480032146,4.365588188,-67,16,-49,7,190
1695163132981303500,-8.781931877,-2.844311714,0.464475125,-1.903341532,-0.483229697,-0.123771824,33,32,29,31,2686,5.232527733,13.48534107,3.022679567,4.365588188,3.226727486,4.365588188,-70,14,-73,2,185
1695163132982303500,-8.762778282,-2.892195702,0.384269387,-1.948773265,-0.478566617,-0.105519146,33,32,26,30,2686,5.367800236,13.09269238,3.175908566,4.365588188,3.3438375,4.365588188,-70,15,-72,-1,186
1695163132983303500,-8.74003315,-2.942473888,0.290895492,-1.993272543,-0.473104149,-0.087399691,36,32,26,27,2686,5.467159748,12.7120142,3.294421434,4.365588188,3.455485344,4.365588188,-70,12,-76,0,186
1695163132984303500,-8.718485832,-2.993949175,0.198718742,-2.036306143,-0.466709018,-0.069280244,33,30,23,30,2686,5.549759388,12.33013916,3.387795448,4.365588188,3.561271191,4.365588188,-71,13,-78,-1,185
1695163132985303500,-8.693346024,-3.041833162,0.107739076,-2.076675415,-0.459514558,-0.051294025,35,32,24,28,2686,5.612008572,11.93030739,3.491943121,4.365588188,3.6613276,4.365588188,-65,15,-71,-1,185
1695163133062198100,-8.604761124,-4.364629745,-1.473631144,-2.190454721,-0.263797849,0.240882084,36,30,-6,15,2686,4.125209332,2.173935175,5.621585369,0.727975488,4.249410152,4.365588188,-69,12,-81,-1,183
1695163133063198100,-8.591592789,-4.406527996,-1.541865945,-2.157813311,-0.251140893,0.248076573,34,30,-10,13,2686,3.898957491,1.680729628,5.778405666,0.612464011,4.211173058,4.365588188,-71,15,-77,-1,184
1695163133064198100,-8.58680439,-4.438849926,-1.59812963,-2.119975567,-0.239683002,0.253539056,31,32,-11,13,2686,3.645172119,1.175553083,5.934029102,0.519335389,4.168938637,4.203578949,-70,12,-83,2,183
1695163133065198100,-8.585607529,-4.463989258,-1.642422318,-2.08080554,-0.227558956,0.256869823,32,32,-8,13,2686,3.385401249,0.695515573,6.10042572,0.444192976,4.123107433,4.03477478,-72,9,-80,1,183
1695163133066198100,-8.578424454,-4.49271965,-1.673547029,-2.042168617,-0.214635521,0.256736606,31,32,-12,13,2686,3.238157749,0.40940848,6.200982571,0.400226623,4.090198994,3.922727346,-73,13,-88,2,183
1695163133232258400,-8.699332237,-5.299565315,-1.651999116,-0.931552827,-0.082470134,-0.087133229,30,32,-27,6,2686,1.000776291,-1.904587507,8.396465302,0.201045945,2.885788441,1.411451817,-71,11,-81,2,188
1695163133233258400,-8.693346024,-5.305551052,-1.624465823,-0.864271045,-0.083802447,-0.102987751,31,30,-29,7,2686,0.972045898,-1.827973008,8.416815758,0.193052068,2.806249619,1.310062766,-69,11,-81,-1,185
1695163133234258400,-8.690952301,-5.301959515,-1.595735431,-0.796989322,-0.085401222,-0.116444103,31,32,-25,7,2686,0.948103845,-1.74776721,8.413225174,0.182926491,2.724845171,1.210672259,-70,12,-80,-1,183
1695163133235258400,-8.680178642,-5.291185856,-1.569399238,-0.730107188,-0.08726646,-0.128035218,30,32,-24,4,2686,0.92895025,-1.659181833,8.388085365,0.172001526,2.641975403,1.113546729,-70,7,-83,-1,183
1695163133236258400,-8.665813446,-5.272032261,-1.541865945,-0.663491547,-0.088865243,-0.137494639,31,30,-27,6,2686,0.924161851,-1.55982244,8.358158112,0.159211323,2.5575068,1.017753482,-72,11,-88,-1,183
1695163133297222200,-8.315062523,-4.125209332,-1.18752408,0.351996928,-0.046098009,-0.046764165,31,31,-27,2,2686,1.477222443,0.214281052,7.900865555,0.038104136,1.311794877,-0.227825418,-71,9,-92,-82,183
1695163133298222200,-8.310274124,-4.064157486,-1.18991828,0.386770278,-0.039702907,-0.034107197,31,31,-25,4,2686,1.423352957,0.480037451,8.142680168,0.030776417,1.212137818,-0.222629398,-72,7,-92,-81,183
1695163133299222200,-8.305485725,-4.003105164,-1.18991828,0.419545174,-0.032508422,-0.021450229,30,32,-27,6,2686,1.406593442,0.772130072,8.382100105,0.009592649,1.097159266,-0.211304754,-70,7,-95,-83,182
1695163133300222200,-8.300697327,-3.934870481,-1.192312479,0.460047454,-0.021849923,-0.004529862,31,32,-22,6,2686,1.442506552,1.031900883,8.601169586,-0.022382848,0.969923377,-0.195050538,-70,7,-93,-83,183
1695163133301222200,-8.301894188,-3.888183594,-1.192312479,0.488558948,-0.013323124,0.008526799,31,31,-21,3,2686,1.521515131,1.26413846,8.821435928,-0.060486984,0.838690698,-0.175465539,-71,9,-89,-81,183
1695163133360210600,-8.793902397,-4.820724964,-1.351526856,1.013356805,0.169070452,0.349732012,31,32,-22,7,2686,2.609679937,-0.210689753,8.355764389,0.173999995,-1.347234368,-0.172134757,-71,7,-83,-34,179
1695163133361210600,-8.840589523,-4.977545261,-1.368286252,1.056790233,0.182127118,0.380375206,26,31,-19,3,2686,2.67432332,-0.232237563,8.281543732,0.18385911,-1.44502604,-0.169470131,-69,7,-81,-33,173
1695163133362210600,-8.887276649,-5.155913353,-1.381454349,1.103154659,0.19638285,0.412483901,29,31,-22,8,2686,2.776076794,-0.258573771,8.149862289,0.18905513,-1.598641634,-0.166405827,-71,7,-80,-33,172
1695163133363210600,-8.941145897,-5.35104084,-1.393425345,1.152317047,0.211304754,0.445258796,31,29,-25,8,2686,2.880224705,-0.294486821,8.000225067,0.184525266,-1.76184988,-0.16573967,-76,4,-82,-33,172
1695163133364210600,-8.992621422,-5.568912983,-1.405396342,1.204676867,0.227159262,0.479099542,29,31,-21,3,2686,2.979583979,-0.33518824,7.830236435,0.170003071,-1.935583472,-0.169070452,-73,7,-79,-28,169
1695163133423171400,-10.45547867,-10.1789484,-2.432508945,2.202845335,0.740898907,0.91676414,22,30,-20,7,2686,7.710526466,-2.546233416,2.195482969,-0.5662328,-3.960298777,-2.279053688,-66,3,14,127,264
1695163133424171400,-10.54885292,-10.40879154,-2.555810213,2.241882086,0.761549771,0.873197496,24,32,-19,9,2686,8.03494072,-2.437297344,1.855506301,-0.648969352,-3.830797911,-2.521401167,-67,-1,17,128,273
1695163133425171400,-10.64102936,-10.6302557,-2.67432332,2.279986143,0.779269516,0.817506909,20,32,-20,10,2686,8.340201378,-2.310404539,1.517923832,-0.747160852,-3.675982952,-2.772941828,-69,0,24,127,279
1695163133426171400,-10.72961521,-10.83974838,-2.79163909,2.317024469,0.794058144,0.748093367,25,33,-20,7,2686,8.621520042,-2.122459888,1.191115379,-0.854678452,-3.502649307,-3.031143904,-65,-1,35,127,286
1695163133427171400,-10.80862331,-11.0671978,-2.917334795,2.357526779,0.807248056,0.664157748,19,31,-22,7,2686,8.905233383,-1.884236693,0.867898107,-0.979782522,-3.314260244,-3.299205065,-70,-1,40,124,289
1695163133460131200,-13.89355278,-15.98608494,-4.507084846,4.365588188,0.570895851,-1.834594131,16,33,5,13,2686,9.989806175,3.062183857,-4.107253075,-3.503049135,2.05749011,-4.365721226,-67,7,126,102,282
1695163133461131200,-14.05396366,-16.18719864,-4.489128113,4.365588188,0.511474729,-1.919862151,8,35,10,10,2686,9.896432877,3.357867956,-4.016273499,-3.548480749,2.331413507,-4.365721226,-61,13,117,105,284
1695163133462131200,-14.19641876,-16.36556625,-4.477157116,4.365588188,0.44619143,-1.993539095,9,37,15,12,2686,9.834183693,3.68108511,-3.848679304,-3.594179392,2.605736732,-4.365721226,-67,8,119,98,279
1695163133463131200,-14.31732655,-16.51041412,-4.469974518,4.365588188,0.37451303,-2.056424141,8,34,23,14,2686,9.824606895,4.016273499,-3.630806923,-3.636147022,2.879393578,-4.365721226,-66,13,116,98,279
1695163133464131200,-14.40830612,-16.62892723,-4.485537052,4.365588188,0.300169975,-2.10878396,5,41,27,18,2686,9.870096207,4.3897686,-3.329137564,-3.675050497,3.148254156,-4.365721226,-61,17,111,102,278
1695163133494130200,-14.56752014,-14.07551193,-6.38892746,4.365588188,-0.25766921,-1.93998003,8,64,202,75,2686,0.770932972,7.712920666,1.871068597,-4.365721226,4.365588188,-4.365721226,-75,30,89,81,244
1695163133495130200,-14.68244171,-13.7534914,-6.481103897,4.365588188,-0.290444106,-1.897079587,5,69,218,82,2686,0.067037649,7.380126953,2.278082848,-4.365721226,4.365588188,-4.365721226,-76,31,92,81,240
1695163133496130200,-14.77102757,-13.40992355,-6.540958881,4.365588188,-0.333078086,-1.853646278,4,70,233,89,2686,-0.616506934,7.037755966,2.697068214,-4.365721226,4.365588188,-4.365721226,-76,33,94,79,242
1695163133497130200,-14.82130527,-13.05558205,-6.573280811,4.365588188,-0.383039832,-1.810346007,6,79,243,106,2686,-1.278503656,6.681019783,3.137601376,-4.365721226,4.365588188,-4.365721226,-75,32,92,79,244
1695163133498130200,-14.83806515,-12.69046593,-6.587646008,4.365588188,-0.438730478,-1.768644691,3,80,252,118,2686,-1.912967205,6.314706802,3.597288132,-4.365721226,4.365588188,-4.365721226,-76,32,94,79,240
1695163133554869800,-12.6880722,-1.351526856,-6.314706802,4.365588188,-2.695534468,-1.428238869,33,153,480,338,2686,-9.001001358,3.056198359,9.841365814,-3.253773212,3.762450218,-3.016488552,-76,36,92,69,232
1695163133555869800,-12.23317337,-0.843956113,-6.036979675,4.365588188,-2.826367617,-1.455018282,38,155,495,349,2686,-9.147047997,3.017891169,9.959878922,-3.156647682,3.700497627,-2.891384363,-79,33,89,66,231
1695163133556869800,-11.77229023,-0.383072257,-5.742492676,4.365588188,-2.943211317,-1.481264949,40,159,506,360,2686,-9.279925346,2.977189779,10.0604353,-3.06498456,3.637212753,-2.770810127,-78,35,89,66,240
1695163133557869800,-11.3030262,0.031124622,-5.430049419,4.365588188,-3.042202234,-1.506445646,46,165,522,367,2686,-9.40681839,2.93529129,10.14782429,-2.979450226,3.571929693,-2.65423274,-79,35,93,68,231
1695163133558869800,-10.8517189,0.421379507,-5.141548157,4.365588188,-3.124272585,-1.531226635,48,169,533,376,2686,-9.545681953,2.880224705,10.21725559,-2.900044441,3.504114866,-2.543118,-77,34,92,66,230
1695163133644846700,-5.436035156,1.00317049,-1.332373261,3.021018267,-2.122640133,-1.609300137,106,205,620,407,900,-10.10592556,0.938527048,11.31619453,-1.779702902,1.812877536,-1.387603283,-79,35,89,63,228
1695163133645846700,-5.395333767,0.787692368,-1.22583127,2.927756548,-2.038437843,-1.567198992,106,205,619,406,899,-10.0317049,0.840364814,11.32217979,-1.742264867,1.718549848,-1.360157728,-79,41,89,63,226
1695163133646846700,-5.367800236,0.591367841,-1.133654475,2.854079723,-1.963029027,-1.522966385,106,203,617,404,898,-9.949105263,0.733822823,11.31379986,-1.706026077,1.6278193,-1.334977031,-81,36,91,63,226
1695163133647846700,-5.343858242,0.392649084,-1.019929886,2.796923399,-1.895214319,-1.477401257,108,202,619,400,898,-9.85573101,0.621295333,11.28746414,-1.669653893,1.541885138,-1.311661601,-81,38,85,65,228
1695163133648846700,-5.324704647,0.213083953,-0.905008256,2.755621672,-1.833794832,-1.430237293,107,209,617,403,899,-9.751583099,0.502782345,11.24197388,-1.63248229,1.460747361,-1.289678335,-79,40,87,63,228
1695163133735852300,-4.265270233,2.075772762,1.604115129,2.357526779,-1.368950963,-0.820571184,96,209,587,388,871,-8.832210541,-0.152031809,10.25436592,-0.620857537,0.680145502,-0.98844254,-82,-2,83,62,227
1695163133736852300,-4.193444252,2.251746655,1.812410712,2.253606319,-1.341638684,-0.805782497,100,208,587,383,871,-9.022548676,-0.105344877,10.37168217,-0.581021428,0.63218224,-0.980981648,-77,-3,80,62,225
1695163133737852300,-4.13239193,2.393004656,2.025494576,2.140892744,-1.311395049,-0.792192936,96,208,587,384,865,-9.272743225,-0.032321721,10.56321812,-0.527595699,0.552110255,-0.966326177,-82,-6,81,62,228
1695163133738852300,-4.076128483,2.505532026,2.234987259,2.020318508,-1.27835381,-0.779536009,95,208,585,387,862,-9.44512558,0.10295067,10.72482681,-0.485094965,0.464444101,-0.946741164,-83,-9,81,61,226
1695163133739852300,-4.030638695,2.579752445,2.438494444,1.89481473,-1.243180633,-0.767545164,96,209,581,390,860,-9.550470352,0.278924495,10.8565073,-0.453918815,0.367185295,-0.925024509,-79,-5,89,63,225
1695163133766838300,-3.312378168,2.60130024,3.983951569,0.041701376,-1.148852944,-0.740232766,116,199,569,379,836,-5.527014732,-0.319625914,8.263586998,-0.007993874,-0.460713625,-0.398494661,-79,-29,78,59,221
1695163133767838300,-3.205836058,2.450465441,4.193444252,-0.021983154,-1.136196017,-0.721713662,117,203,567,375,830,-5.358223438,-0.310049117,8.087613106,0.033441041,-0.432335377,-0.376511484,-81,-32,79,61,243
1695163133768838300,-3.102885485,2.245761156,4.425682068,-0.078739658,-1.109816194,-0.694267988,117,202,567,380,830,-5.214571476,-0.292092621,7.928399086,0.073410407,-0.404356807,-0.355061263,-78,-29,83,60,228
1695163133769838300,-3.01310277,2.002749681,4.669890404,-0.125503823,-1.07051301,-0.65762943,116,203,563,378,829,-5.086481571,-0.271741897,7.791929245,0.112313934,-0.37704441,-0.334277183,-79,-31,80,62,226
1695163133770838300,-2.938882589,1.725022316,4.921281815,-0.160810098,-1.019485474,-0.613663077,113,203,565,376,827,-4.969165802,-0.240617275,7.671022415,0.149885148,-0.351064324,-0.314026028,-80,-33,80,60,226
1695163133803151000,-3.730166197,-0.833182216,7.188590527,0.5339908,-0.100189894,0.257535994,98,194,535,366,807,-4.430470467,0.907402456,7.165845871,0.248742729,-0.187589586,-0.153215915,-79,-28,79,62,227
1695163133804151000,-3.738545895,-0.756567717,7.201758862,0.535856009,-0.099390499,0.249142408,101,194,535,366,805,-4.437653065,0.916979253,7.218518257,0.242747322,-0.187323123,-0.14695406,-78,-32,81,61,226
1695163133805151000,-3.738545895,-0.673967779,7.21253252,0.52719599,-0.101921894,0.234886676,102,194,533,365,803,-4.45441246,0.913387954,7.266402245,0.239283308,-0.186523736,-0.139093414,-78,-29,81,58,226
1695163133806151000,-3.730166197,-0.591367841,7.234080315,0.507744253,-0.106318533,0.216367543,100,192,528,368,804,-4.479551315,0.902614057,7.309497833,0.238483921,-0.185857579,-0.129767224,-77,-29,81,58,225
1695163133807151000,-3.724180698,-0.506373644,7.260416508,0.476701379,-0.111381322,0.19425115,104,193,532,366,803,-4.509479046,0.885854602,7.344213486,0.241148531,-0.185191423,-0.119375192,-76,-31,77,58,226
1695163133875875300,-3.517082214,-0.951695204,8.060079575,-0.333877474,0.000799387,-0.114045948,105,192,527,369,797,-5.376179695,0.421379507,8.497021675,0.771808565,-0.188921899,0.298571229,-77,-34,79,60,228
1695163133876875300,-3.514688015,-0.994790792,8.072051048,-0.326549739,0.010525269,-0.106185302,105,192,525,367,796,-5.409698963,0.348356336,8.530540466,0.81963861,-0.1931853,0.330280244,-81,-34,78,58,228
1695163133877875300,-3.513490915,-1.033097982,8.07923317,-0.314425707,0.019185297,-0.096326187,105,192,524,368,795,-5.445611954,0.264559299,8.566453934,0.870399654,-0.198248088,0.363321573,-78,-34,77,60,227
1695163133878875300,-3.509899616,-1.055842996,8.080430984,-0.298571229,0.027312404,-0.085401222,106,195,527,365,793,-5.477933407,0.174776718,8.585607529,0.924758077,-0.204243496,0.397961706,-77,-34,80,59,229
1695163133879875300,-3.503914118,-1.067813993,8.081627846,-0.280052066,0.034640122,-0.073410407,104,192,531,368,795,-5.507861137,0.080205753,8.610746384,0.983113289,-0.211571202,0.434600294,-78,-40,77,58,229
1695163133967877000,-3.626018524,-0.543483794,8.02895546,-0.156946406,0.253805518,0.126836136,104,192,522,365,787,-6.066906929,-0.622492433,7.953537941,3.068448544,-0.758751929,1.648336887,-76,-16,68,60,234
1695163133968877000,-3.658340216,-0.493205547,8.021772385,-0.179862171,0.26592955,0.129767224,100,192,519,364,782,-6.066906929,-0.480037451,7.886500359,3.197683096,-0.808447123,1.738134742,-76,-18,62,61,234
1695163133969877000,-3.693056107,-0.436941803,8.012195587,-0.206641659,0.277787149,0.131499231,95,190,520,365,782,-6.071695328,-0.323217243,7.808688641,3.321588039,-0.858142376,1.828065753,-75,-18,63,63,240
1695163133970877000,-3.725377798,-0.374692559,8.000225067,-0.237018377,0.289111793,0.132565081,100,192,518,364,782,-6.077681065,-0.165199921,7.7284832,3.438964605,-0.908903539,1.918130159,-76,-17,62,59,236
1695163133971877000,-3.760093689,-0.311246216,7.970297337,-0.270992339,0.299104154,0.13243185,104,192,517,363,783,-6.074089527,0.001197101,7.647080421,3.548614264,-0.959131658,2.008594275,-76,-16,62,60,235
1695163134028183900,-3.912125587,1.640028119,5.766434669,-1.774107218,0.23635222,-0.064750381,95,187,475,351,768,-4.912901878,1.978807688,4.633977413,4.253273964,-1.840189815,3.117344618,-69,-18,23,73,232
1695163134029183900,-3.916913986,1.731007814,5.576095581,-1.89734602,0.222229704,-0.07714089,95,186,473,353,766,-4.825513363,1.948880196,4.388571739,4.25633812,-1.9145329,3.113080978,-73,-16,18,72,230
1695163134030183900,-3.921702385,1.82198751,5.373785496,-2.024715185,0.20824042,-0.089264929,91,185,466,350,765,-4.732139587,1.909375906,4.137180328,4.25873661,-1.993938804,3.101356745,-71,-17,14,72,231
1695163134031183900,-3.925293684,1.906981707,5.169081688,-2.156880617,0.193718225,-0.100856051,92,182,463,348,760,-4.624400616,1.867477298,3.891774893,4.260735035,-2.078807116,3.082038164,-70,-18,14,74,231
1695163134032183900,-3.927687883,1.983596087,4.948814869,-2.293975592,0.17866309,-0.111647777,89,180,450,346,759,-4.509479046,1.82079041,3.649960518,4.262733459,-2.167805433,3.054725885,-61,-16,14,78,232
1695163134129125200,-3.49433732,1.624465823,1.383848548,-4.365721226,0.446990818,0.233154669,64,156,291,210,535,-1.939303398,0.944512546,2.04704237,3.90540719,-3.655731916,1.686441064,-63,-16,11,64,214
1695163134130125200,-3.49553442,1.454477549,1.261744261,-4.365721226,0.49495405,0.280052066,61,149,281,206,517,-1.878251195,0.910993755,1.982398987,3.843588114,-3.686241865,1.58625114,-63,-18,8,72,215
1695163134131125200,-3.493140221,1.256955862,1.144428372,-4.365721226,0.546114862,0.329214364,62,149,266,195,501,-1.830367208,0.866701007,1.885433793,3.786565065,-3.717418194,1.487393618,-63,-18,6,63,214
1695163134132125200,-3.505111217,1.052251697,1.039083481,-4.365721226,0.602738142,0.38024193,62,145,250,182,483,-1.795651317,0.869095206,1.825578809,3.732606411,-3.747395277,1.381874442,-60,-16,4,63,212
1695163134133125200,-3.53384161,0.843956113,0.912190855,-4.365721226,0.66695559,0.432068914,56,146,237,180,466,-1.765723705,0.85353291,1.792060018,3.689839125,-3.764049053,1.308330774,-62,-17,7,64,215
1695163134172100900,-5.20020628,-1.839944005,-0.070628949,-4.365721226,2.002332211,1.68337667,32,82,80,77,2686,-2.93648839,2.021903276,0.010773907,2.722846746,-4.086868286,-1.304067373,-63,-14,-12,42,200
1695163134173100900,-5.340266705,-1.918952703,-0.138863698,-4.365721226,2.00846076,1.725611091,31,81,75,68,2686,-3.092111588,2.266111851,-0.126892686,2.688606501,-4.117777824,-1.466209888,-58,-15,-8,38,199
1695163134174100900,-5.497087002,-2.001552582,-0.198718742,-4.365721226,2.003131866,1.765580416,33,74,69,68,2686,-3.259705544,2.534262419,-0.275333196,2.653433323,-4.150685787,-1.631416559,-60,-15,-22,36,200
1695163134175100900,-5.664681435,-2.067393064,-0.264559299,-4.365721226,1.985411882,1.803018332,31,73,64,68,2686,-3.441664934,2.849100113,-0.411802679,2.611332178,-4.183993816,-1.798355341,-60,-14,-15,34,200
1695163134176100900,-5.843049049,-2.138022184,-0.331596941,-4.365721226,1.954102516,1.836459398,30,69,58,62,2686,-3.624821424,3.192667961,-0.538695395,2.567898989,-4.217567921,-1.969823837,-60,-17,-14,36,201
1695163134222126700,-8.609549522,-3.031059265,-1.623268723,-4.365721226,0.686407328,2.759352207,28,45,11,42,2686,-4.765658379,8.07923317,0.270544797,0.66588974,-3.515972376,-4.365721226,-47,-12,-27,31,200
1695163134223126700,-8.730456352,-2.983175278,-1.704671621,-4.365721226,0.639509916,2.817174673,26,39,10,38,2686,-4.766855717,8.236053467,0.420182407,0.522266448,-3.36741972,-4.365721226,-46,-13,-25,29,200
1695163134224126700,-8.859743118,-2.918531895,-1.787271619,-4.365721226,0.59634304,2.87393117,25,38,10,40,2686,-4.795586109,8.418013573,0.568622887,0.378776401,-3.209673643,-4.365721226,-47,-13,-29,26,200
1695163134225126700,-9.004592896,-2.856282711,-1.875856996,-4.365721226,0.55730629,2.928555965,25,39,8,40,2686,-4.855441093,8.608352661,0.713472128,0.236618683,-3.042335272,-4.365721226,-48,-12,-27,31,199
1695163134226126700,-9.17098999,-2.796427488,-1.975216389,-4.365721226,0.522000015,2.981182098,25,46,7,31,2686,-4.93804121,8.809465408,0.85592711,0.0955268,-2.86966753,-4.365721226,-47,-12,-29,29,199
1695163134289236300,-14.07431507,-2.794033289,-4.005499363,-4.365721226,-0.075275652,3.398329258,20,35,-6,30,2686,-7.627926826,8.263586998,2.170343876,-1.973421097,0.657096446,-4.365721226,-49,-8,-35,21,198
1695163134290236300,-14.27542782,-2.831143618,-4.060565948,-4.365721226,-0.109782539,3.394731998,24,38,-5,31,2686,-7.797914982,8.006210327,2.158372879,-1.987676859,0.820304751,-4.365721226,-51,-12,-36,19,192
1695163134291236300,-14.46935844,-2.865859509,-4.118026733,-4.365721226,-0.142557427,3.38966918,21,35,-1,31,2686,-7.979874134,7.736862659,2.142810583,-1.989408851,0.976851463,-4.365721226,-53,-13,-36,21,196
1695163134292236300,-14.6465292,-2.922123194,-4.16231966,-4.365721226,-0.174799383,3.383407354,18,34,0,28,2686,-8.165425301,7.463923931,2.126051188,-1.977817774,1.126869917,-4.365721226,-50,-9,-37,20,196
1695163134293236300,-14.83327675,-2.953247786,-4.210203648,-4.365721226,-0.20464319,3.377678394,21,35,-5,32,2686,-8.361749649,7.190984726,2.105700493,-1.953569651,1.270892859,-4.365721226,-49,-15,-35,17,196
1695163134403816400,-18.21748161,-6.239289761,-3.362656355,-4.365721226,-0.84974885,3.309597254,17,34,-5,27,2686,-14.57590008,3.371036053,1.886630893,0.58128792,2.974653959,-4.194386005,-49,-9,-41,20,196
1695163134404816400,-18.30008125,-6.527791023,-3.23576355,-4.365721226,-0.896646261,3.33517766,18,35,-5,29,2686,-14.97812557,3.353079557,1.928529501,0.770609498,3.029944897,-4.154150009,-51,-17,-41,17,197
1695163134405816400,-18.36951256,-6.815094948,-3.101688385,-4.365721226,-0.943810105,3.364754915,16,34,-7,29,2686,-15.38154888,3.34230566,1.963245392,0.9583323,3.084836245,-4.119243622,-55,-12,-38,18,196
1695163134406816400,-18.42338181,-7.092822552,-2.97359848,-4.365721226,-0.990707517,3.397263288,16,41,-6,30,2686,-15.79454899,3.347094059,1.977610588,1.148586512,3.13772893,-4.088200569,-51,-13,-37,16,196
1695163134407816400,-18.45809746,-7.369352818,-2.847903013,-4.365721226,-1.037871361,3.43230319,16,39,-6,30,2686,-16.21473122,3.386598349,1.988384485,1.34110558,3.187024593,-4.06088829,-50,-15,-37,22,198
1695163134517745800,-16.24106789,-8.577227592,-2.37863946,0.124704443,-1.703894258,3.824536085,16,38,-6,28,2686,-19.61330032,9.823410034,1.528697729,3.522234201,3.30653286,-4.365721226,-56,-7,-40,16,203
1695163134518745800,-16.01721001,-8.467094421,-2.385822058,0.388102591,-1.704027653,3.79749012,8,41,-7,29,2686,-19.61330032,10.24838066,1.461660147,3.490925074,3.222197533,-4.365721226,-59,-8,-34,16,200
1695163134519745800,-15.79335117,-8.348581314,-2.385822058,0.64150846,-1.698431849,3.76524806,16,39,-9,28,2686,-19.61330032,10.52491093,1.420958757,3.459215879,3.163176298,-4.365721226,-55,-5,-35,16,198
1695163134520745800,-15.56829643,-8.219294548,-2.383427858,0.883989275,-1.686973929,3.727676868,9,39,-5,26,2686,-19.61330032,10.92234802,1.357512355,3.394598722,3.07177949,-4.365721226,-60,-8,-39,16,200
1695163134521745800,-15.33605862,-8.07923317,-2.381033659,1.115145445,-1.669254184,3.684776306,16,35,-5,26,2686,-19.61330032,11.29225254,1.286883354,3.312395096,2.97678566,-4.365721226,-58,-6,-39,16,198
1695163134631683600,-11.80341434,-3.907337189,-1.59812963,2.87899375,-0.441395104,2.049496174,8,36,3,29,2686,-11.877635,10.41118622,0.584185243,-0.430603355,1.031609416,-2.96679306,-58,-13,-37,15,189
1695163134632683600,-11.68370438,-3.648763418,-1.552639842,2.833162308,-0.35266307,1.929055095,2,34,-1,31,2686,-11.50892735,9.977835655,0.507570744,-0.608333826,0.954468608,-2.707924843,-57,-13,-34,16,192
1695163134633683600,-11.57117653,-3.396175146,-1.509544134,2.775073528,-0.2648637,1.807281852,9,37,-3,28,2686,-11.19528675,9.549273491,0.420182407,-0.769010723,0.879192948,-2.441062689,-57,-9,-34,15,192
1695163134634683600,-11.46702862,-3.151966572,-1.472434044,2.704727411,-0.178796321,1.684176087,6,36,3,26,2686,-11.01572227,9.263166428,0.354341865,-0.867468596,0.829231262,-2.259735107,-60,-9,-34,16,184
1695163134635683600,-11.37245846,-2.918531895,-1.441309452,2.621591091,-0.0955268,1.561736584,16,32,5,28,2686,-10.7918644,8.815450668,0.256179571,-0.999634027,0.754621744,-1.983813167,-58,-11,-33,16,190
1695163134676653400,-9.985017776,-0.645237386,-1.284489155,-0.29923737,0.822702944,-0.401425719,7,37,4,29,2686,-10.33696556,2.893392801,0.104147777,-0.181061253,-0.606068909,2.283050537,-55,-14,-27,25,189
1695163134677653400,-9.929951668,-0.642843127,-1.303642869,-0.473770291,0.834427297,-0.479099542,16,35,5,30,2686,-10.32260036,2.800018787,0.152031809,-0.017852986,-0.646304727,2.392833233,-57,-14,-27,24,187
1695163134678653400,-9.871294022,-0.644040287,-1.320402265,-0.644972384,0.842421114,-0.553575814,6,37,10,31,2686,-10.30105305,2.736572504,0.199915841,0.150018379,-0.68094486,2.488226652,-57,-11,-27,25,189
1695163134679653400,-9.815030098,-0.651222885,-1.340752959,-0.812177658,0.847483873,-0.624854505,18,35,9,29,2686,-10.26753426,2.700659513,0.245405674,0.320421129,-0.710122526,2.569097996,-55,-9,-22,26,192
1695163134680653400,-9.768342972,-0.660799682,-1.364694953,-0.976052046,0.849349201,-0.692535996,9,37,10,32,2686,-10.22324085,2.686294317,0.288501292,0.492689133,-0.733704388,2.635313988,-54,-13,-25,24,187
1695163134708637100,-9.202114105,-1.800439715,-1.909375906,-2.96745944,0.434067398,-1.399727345,10,35,14,35,2686,-8.77834034,4.437653065,0.518344641,2.754955769,-0.629517615,2.008327723,-57,-11,-23,31,189
1695163134709637100,-9.184157372,-1.881842494,-1.9309237,-3.001699686,0.395030618,-1.409186721,10,35,12,35,2686,-8.730456352,4.563348293,0.523133099,2.774007797,-0.618725896,1.929721355,-55,-12,-23,31,186
1695163134710637100,-9.168595314,-1.962048292,-1.957259893,-3.029278517,0.355460972,-1.415981531,17,34,17,33,2686,-8.686163902,4.680664539,0.537498295,2.781202316,-0.608866811,1.852580309,-56,-13,-19,31,186
1695163134711637100,-9.155426979,-2.043451071,-1.982398987,-3.050329208,0.314825416,-1.420511484,10,32,13,35,2686,-8.641871452,4.797980309,0.55665189,2.776672125,-0.599673808,1.7783705,-54,-13,-17,31,188
1695163134712637100,-9.142259598,-2.122459888,-2.006340981,-3.064318657,0.273656964,-1.422909617,8,33,11,35,2686,-8.598775864,4.911705017,0.581790984,2.759885311,-0.590880513,1.706825376,-55,-15,-20,31,186
1695163134740615700,-8.941145897,-3.064578056,-2.219424963,-2.353796244,-0.476168454,-1.196416616,9,32,23,44,2686,-8.371326447,5.980715752,0.663193882,0.754621744,-0.546514511,0.928888202,-57,-13,-21,27,186
1695163134741615700,-8.926780701,-3.064578056,-2.224213362,-2.284249783,-0.504546702,-1.180961728,16,38,23,41,2686,-8.394071579,5.9412117,0.626083732,0.616860628,-0.547047496,0.909436405,-58,-12,-17,31,185
1695163134742615700,-8.912415504,-3.060986757,-2.224213362,-2.214169979,-0.530660033,-1.165906668,16,34,23,42,2686,-8.420407295,5.894524574,0.586579442,0.482696772,-0.54798007,0.89131701,-47,-13,-20,33,186
1695163134743615700,-8.898050308,-3.056198359,-2.227804661,-2.143823862,-0.554375172,-1.151251078,16,32,27,43,2686,-8.456320763,5.835866451,0.536301196,0.352929562,-0.549179137,0.874663055,-55,-13,-21,30,189
1695163134744615700,-8.887276649,-3.05021286,-2.23019886,-2.073344469,-0.575825453,-1.137528419,10,38,25,38,2686,-8.493430138,5.771223068,0.486022949,0.227558956,-0.550911188,0.859075069,-55,-12,-22,30,190
1695163134794561000,-8.904036522,-2.551021814,-1.786074519,-1.026280165,-0.407687575,-0.972987771,10,36,27,40,2686,-9.058462143,4.175487995,-0.087388359,-1.111415029,-0.504813194,0.802585006,-55,-13,-19,29,186
1695163134795561000,-8.916007042,-2.527079821,-1.753752708,-0.991373599,-0.36984992,-0.971388996,16,37,22,40,2686,-9.06205368,4.121618271,-0.095768064,-1.124071956,-0.498950988,0.808313906,-49,-12,-19,32,188
1695163134796561000,-8.930372238,-2.506729126,-1.717839718,-0.957399666,-0.329747319,-0.970856011,16,39,26,38,2686,-9.065644264,4.037821293,-0.110133275,-1.139393568,-0.489758044,0.817640126,-58,-16,-22,31,187
1695163134797561000,-8.948328972,-2.48996973,-1.677138329,-0.924491584,-0.28777948,-0.971122503,16,37,26,42,2686,-9.06803894,3.956418276,-0.113724582,-1.150718212,-0.479765713,0.82789892,-56,-14,-19,30,186
1695163134798561000,-8.965087891,-2.468421936,-1.643619418,-0.89238286,-0.24461256,-0.97232157,16,35,24,40,2686,-9.076418877,3.871424198,-0.123301387,-1.158445597,-0.46950686,0.838957131,-56,-15,-25,30,184
1695163134891856700,-9.465476036,-2.224213362,-1.170764685,-0.336408883,0.630849898,-1.081704497,16,33,23,38,2686,-9.223662376,2.394201756,0.086191259,-0.624454796,-0.158678412,1.149519086,-55,-12,-20,31,185
1695163134892856700,-9.502586365,-2.220622063,-1.140837073,-0.305232793,0.668421149,-1.087699771,10,39,24,41,2686,-9.229647636,2.358288765,0.106541976,-0.574359894,-0.141491577,1.161509991,-53,-12,-13,29,185
1695163134893856700,-9.540893555,-2.221819162,-1.11689508,-0.273257256,0.704793274,-1.093162298,17,37,25,41,2686,-9.230844498,2.328361034,0.1316811,-0.524264932,-0.124704443,1.172568083,-55,-9,-18,31,185
1695163134894856700,-9.578003883,-2.226607561,-1.088164687,-0.240482375,0.739433408,-1.098624825,8,37,25,42,2686,-9.239224434,2.303221941,0.14963761,-0.474303216,-0.108450226,1.182427287,-55,-15,-17,30,188
1695163134895856700,-9.613917351,-2.233790159,-1.058237195,-0.206774876,0.772208273,-1.103820801,9,39,27,40,2686,-9.244012833,2.282871246,0.16639702,-0.424607962,-0.092995405,1.190954089,-57,-15,-23,31,187
1695163134949828100,-10.0364933,-2.179920673,-0.666785181,0.601539016,1.06118679,-1.1661731,16,32,26,41,2686,-9.24760437,2.549824715,0.398634583,0.217300147,-0.02917764,1.102888227,-57,-13,-18,31,185
1695163134950828100,-10.04008484,-2.157175779,-0.657208383,0.647104144,1.060520649,-1.167372108,16,37,23,39,2686,-9.240421295,2.583343744,0.40821138,0.22596018,-0.036238898,1.089032173,-56,-13,-18,30,185
1695163134951828100,-10.03769016,-2.134430885,-0.642843127,0.692136347,1.058388948,-1.168437958,6,34,22,39,2686,-9.229647636,2.615665436,0.412999779,0.231422648,-0.043699846,1.075042844,-57,-16,-16,31,185
1695163134952828100,-10.0364933,-2.110488892,-0.628477931,0.736635566,1.05545783,-1.169104099,16,37,26,42,2686,-9.222464561,2.647987127,0.416591108,0.233954057,-0.051693719,1.060787082,-53,-11,-17,31,185
1695163134953828100,-10.02931118,-2.091335297,-0.614112735,0.78020215,1.051061273,-1.169370532,7,38,25,39,2686,-9.214085579,2.679111719,0.426167905,0.233287901,-0.059820827,1.046264887,-59,-12,-18,30,188
1695163135015807300,-9.797073364,-1.48799634,-0.366312861,1.330447078,0.834027529,-1.086234331,10,34,26,39,2686,-8.779537201,2.972401381,0.347159237,-0.143490046,-0.188122496,0.747560501,-57,-13,-18,31,186
