timestamp,left_data_Ac_X,left_data_Ac_Y,left_data_Ac_Z,left_data_Gy_X,left_data_Gy_Y,left_data_Gy_Z,left_data_flex_1,left_data_flex_2,left_data_flex_3,left_data_flex_4,left_data_flex_5,right_data_Ac_X,right_data_Ac_Y,right_data_Ac_Z,right_data_Gy_X,right_data_Gy_Y,right_data_Gy_Z,right_data_flex_1,right_data_flex_2,right_data_flex_3,right_data_flex_4,right_data_flex_5
1695162580299452200,-9.11233139,-1.817199111,-1.043871999,-0.022249617,0.006261868,0.018652374,-2,21,-13,18,11,-8.874108315,3.677493811,0.59256494,0.122705974,0.005062787,-0.1854579,-47,-17,-15,33,186
1695162580300452200,-9.113529205,-1.812410712,-1.045069098,-0.021183766,0.007061256,0.018385911,-1,22,-12,24,11,-8.875306129,3.684676409,0.59256494,0.122705974,0.002531394,-0.184658498,-44,-17,-9,34,181
1695162580301452200,-9.114726067,-1.807622313,-1.04147768,-0.020384381,0.007727412,0.017986218,-1,22,-9,19,11,-8.870517731,3.694253206,0.59615624,0.122572735,-0.001199081,-0.183326185,-47,-17,-17,36,183
1695162580302452200,-9.114726067,-1.800439715,-1.04147768,-0.019718224,0.008393568,0.017453292,-2,25,-12,23,11,-8.871714592,3.702632904,0.59615624,0.12230628,-0.005595712,-0.181727409,-44,-16,-6,38,183
1695162580303452200,-9.114726067,-1.796848416,-1.042674899,-0.019318528,0.008926493,0.016920367,-1,26,-13,22,12,-8.872911453,3.711012602,0.597353339,0.122173049,-0.008127105,-0.180528328,-45,-18,-9,35,185
1695162580370409500,-9.14465332,-1.758541107,-1.010353088,-0.038770292,0.019052068,0.006661562,-2,26,-9,22,11,-8.856152534,3.766079187,0.573411286,0.148153126,-0.068214394,-0.156013787,-45,-15,-7,36,183
1695162580371409500,-9.148244858,-1.759738207,-1.009155989,-0.039303213,0.019851454,0.006794794,-2,22,-11,24,12,-8.85495472,3.768473387,0.568622887,0.150817752,-0.071678407,-0.15428178,-45,-17,-5,38,183
1695162580372409500,-9.153033257,-1.760935307,-1.011550188,-0.039169986,0.020784073,0.006928025,-1,19,-10,22,11,-8.850166321,3.772064686,0.571017087,0.153482378,-0.07500919,-0.152549773,-45,-17,-7,36,183
1695162580373409500,-9.156624794,-1.759738207,-1.012747288,-0.039036751,0.021316998,0.007194487,1,28,-9,24,11,-8.844181061,3.776853085,0.568622887,0.156013787,-0.078606427,-0.150684536,-46,-16,-8,33,183
1695162580374409500,-9.160215378,-1.759738207,-1.011550188,-0.038503829,0.021983154,0.007327718,-1,23,-8,19,15,-8.8429842,3.778050184,0.566228688,0.15787901,-0.081004597,-0.149352223,-45,-14,-8,38,183
1695162580408386600,-9.30386734,-1.754949808,-0.916979253,-0.011058193,0.021450229,0.025447167,-2,26,-9,23,12,-8.765172005,3.854664803,0.471657723,0.195983157,-0.135229707,-0.111248083,-45,-16,-7,37,183
1695162580409386600,-9.30386734,-1.757344007,-0.910993755,-0.009725881,0.021183766,0.02691271,-2,25,-13,19,11,-8.760383606,3.858256102,0.464475125,0.197315469,-0.137361407,-0.109116383,-45,-18,-11,34,183
1695162580410386600,-9.308655739,-1.756146908,-0.896628559,-0.008393568,0.021050537,0.028111791,-2,26,-11,24,12,-8.760383606,3.8630445,0.458489627,0.198514536,-0.139226645,-0.107117914,-45,-15,-7,44,184
1695162580411386600,-9.312247276,-1.758541107,-0.885854602,-0.007194487,0.020917306,0.029444104,-2,25,-17,26,14,-8.754398346,3.8654387,0.454898328,0.199180692,-0.140292495,-0.105652377,-44,-15,-7,38,183
1695162580412386600,-9.312247276,-1.759738207,-0.877474904,-0.005728943,0.020784073,0.030776417,-1,25,-8,22,12,-8.74601841,3.869029999,0.447715729,0.200379789,-0.14175804,-0.103653908,-45,-16,-9,34,183
1695162580444366200,-9.240421295,-1.824381709,-0.697909772,0.005062787,-0.006261868,0.030509954,-1,21,-13,20,13,-8.653841972,3.904942989,0.324414343,0.222096488,-0.162675351,-0.057955589,-44,-15,-8,38,183
1695162580445366200,-9.235632896,-1.82079041,-0.694318473,0.003064318,-0.009592649,0.02797856,-1,25,-16,24,12,-8.650250435,3.907337189,0.319625914,0.222496167,-0.163075045,-0.055557426,-46,-15,-7,40,183
1695162580446366200,-9.226056099,-1.82198751,-0.685938776,0.000532925,-0.013189893,0.025047474,-1,24,-13,22,11,-8.65144825,3.912125587,0.312443316,0.222895861,-0.163607955,-0.053292494,-44,-15,-7,37,183
1695162580447366200,-9.223662376,-1.818396211,-0.681150377,-0.002398162,-0.016920367,0.022116385,-1,23,-11,23,8,-8.650250435,3.914519787,0.306457818,0.223162323,-0.16414088,-0.051160797,-44,-13,-8,38,183
1695162580448366200,-9.218873978,-1.818396211,-0.677559078,-0.005728943,-0.020650841,0.018918836,-3,25,-9,23,11,-8.65144825,3.919308186,0.301669419,0.223295555,-0.164540574,-0.049029093,-44,-17,-9,38,183
1695162580482368700,-9.156624794,-1.720233917,-0.741005421,-0.108983152,-0.075275652,-0.054358348,-1,19,-12,24,12,-8.635885239,3.963600874,0.197521642,0.201179162,-0.150551304,-0.009592649,-45,-14,-9,36,183
1695162580483368700,-9.155426979,-1.722628117,-0.746990919,-0.113379791,-0.076075032,-0.056756508,-1,23,-12,20,11,-8.639476776,3.962403774,0.191536129,0.200379789,-0.149618685,-0.007194487,-44,-21,-12,36,183
1695162580484368700,-9.153033257,-1.721431017,-0.750582218,-0.117376715,-0.076607957,-0.059021436,-2,25,-12,18,13,-8.640673637,3.963600874,0.189141929,0.199580401,-0.148686066,-0.004796324,-45,-18,-9,34,183
1695162580485368700,-9.149441719,-1.719036818,-0.760159016,-0.120574266,-0.076874427,-0.061019909,0,25,-12,20,14,-8.637083054,3.963600874,0.181959331,0.199313939,-0.147620216,-0.0021317,-45,-15,-7,38,183
1695162580486368700,-9.147047997,-1.716642618,-0.764947414,-0.122439511,-0.076874427,-0.062218986,-3,21,-12,15,13,-8.637083054,3.967192173,0.177170932,0.198914245,-0.146554366,0.000666156,-50,-15,-9,38,183
1695162580518348000,-9.17098999,-1.655590534,-0.858321309,-0.111647777,-0.065283306,-0.062218986,-2,25,-11,20,14,-8.596381187,3.950432777,0.134075299,0.200113311,-0.110848397,0.068880551,-44,-16,-9,40,183
1695162580519348000,-9.17098999,-1.650802016,-0.865503907,-0.111114852,-0.064883612,-0.062352221,-1,29,-13,18,9,-8.596381187,3.945644379,0.135272399,0.201312408,-0.108450226,0.072877489,-44,-14,-5,36,184
1695162580520348000,-9.168595314,-1.643619418,-0.873883605,-0.111114852,-0.064750381,-0.06261868,-1,22,-11,22,11,-8.595184326,3.938461781,0.135272399,0.202378258,-0.105918832,0.076874427,-45,-18,-7,40,183
1695162580521348000,-9.167398453,-1.634042621,-0.877474904,-0.111514546,-0.064483918,-0.063018374,-3,20,-17,20,10,-8.598775864,3.933673382,0.135272399,0.203710571,-0.103520676,0.080871366,-45,-16,-5,38,183
1695162580522348000,-9.161413193,-1.629254222,-0.876277804,-0.112047479,-0.064084224,-0.063684531,-1,25,-8,20,11,-8.596381187,3.928884983,0.132878199,0.204776406,-0.100989282,0.084868304,-45,-13,-8,41,183
1695162580560299500,-9.063250542,-1.586158633,-0.918176353,-0.142157733,-0.041434918,-0.072211333,-4,23,-11,22,11,-8.58680439,3.839102507,0.178368032,0.185591117,-0.072078094,0.131499231,-45,-15,-9,39,184
1695162580561299500,-9.060855865,-1.586158633,-0.920570552,-0.142157733,-0.039836142,-0.071678407,-1,22,-13,19,10,-8.589199066,3.831919909,0.174776718,0.183992341,-0.07194487,0.132298619,-47,-15,-15,36,184
1695162580562299500,-9.054870605,-1.587355733,-0.914585054,-0.142024502,-0.038104136,-0.071145482,-2,25,-10,21,14,-8.59278965,3.821146011,0.16879122,0.181727409,-0.07194487,0.133630931,-46,-18,-8,44,183
1695162580563299500,-9.052476883,-1.588552833,-0.916979253,-0.141891271,-0.03650536,-0.070346095,-2,21,-15,20,10,-8.590395927,3.810372114,0.173579618,0.17972894,-0.07194487,0.134963244,-44,-16,-7,40,185
1695162580564299500,-9.053673744,-1.588552833,-0.924161851,-0.141225114,-0.034773353,-0.069280244,-1,25,-12,23,13,-8.589199066,3.804386616,0.179565132,0.177863702,-0.071811639,0.136428788,-44,-17,-7,40,183
1695162580597282000,-9.030928612,-1.590947032,-0.885854602,-0.120307811,-0.012390506,-0.039702907,-1,22,-15,26,13,-8.614337921,3.67988801,0.216675252,0.17866309,-0.064084224,0.146287903,-44,-15,-5,36,183
1695162580598282000,-9.02973175,-1.589749932,-0.882263303,-0.120174579,-0.01185758,-0.038237367,-1,22,-12,24,12,-8.616731644,3.67988801,0.216675252,0.178130165,-0.062751912,0.145888209,-45,-17,-5,40,183
1695162580599282000,-9.033323288,-1.587355733,-0.876277804,-0.120307811,-0.010924961,-0.037038282,-3,23,-13,23,11,-8.620323181,3.67869091,0.222660765,0.177064329,-0.061286367,0.145222053,-44,-17,-7,36,183
1695162580600282000,-9.03571701,-1.588552833,-0.873883605,-0.120441042,-0.010392036,-0.036238898,-3,21,-15,18,10,-8.62511158,3.677493811,0.222660765,0.175998464,-0.059820827,0.144422665,-44,-15,-6,36,183
1695162580601282000,-9.033323288,-1.588552833,-0.872686505,-0.120840736,-0.009859112,-0.034906585,-4,23,-15,19,10,-8.626308441,3.67988801,0.226252064,0.17506586,-0.058754977,0.14388974,-44,-15,-8,35,183
1695162580635280700,-9.065644264,-1.647210717,-0.830788016,-0.127369061,0.004796324,-0.018519141,-1,23,-12,20,10,-8.646659851,3.623624325,0.307654917,0.139626339,-0.029843798,0.115378261,-46,-15,-9,26,183
1695162580636280700,-9.066842079,-1.648407817,-0.827196658,-0.12723583,0.005728943,-0.017453292,-2,21,-12,22,8,-8.646659851,3.621230125,0.308852017,0.138294026,-0.028777948,0.113646246,-49,-17,-7,40,183
1695162580637280700,-9.071630478,-1.648407817,-0.823605359,-0.126836136,0.006794794,-0.016653905,-3,21,-16,17,14,-8.643068314,3.622427225,0.319625914,0.137228176,-0.027578866,0.11191424,-46,-21,-11,37,183
1695162580638280700,-9.075222015,-1.650802016,-0.822408259,-0.126702905,0.007727412,-0.015721286,-1,23,-11,23,9,-8.643068314,3.620033026,0.323217243,0.136295557,-0.02691271,0.110049009,-45,-18,-6,38,183
1695162580639280700,-9.078812599,-1.650802016,-0.821211159,-0.126702905,0.008660031,-0.01505513,-1,22,-12,24,11,-8.643068314,3.616441727,0.326808542,0.135229707,-0.025980091,0.108316995,-49,-14,-5,38,184
1695162580674254800,-9.105149269,-1.680729628,-0.78050977,-0.136828482,0.010924961,-0.002264931,-1,19,-13,19,13,-8.647856712,3.578134537,0.407014281,0.108716697,-0.019052068,0.062218986,-47,-17,-7,36,183
1695162580675254800,-9.109937668,-1.683123827,-0.776918471,-0.137761101,0.010392036,-0.001732006,-1,22,-15,23,11,-8.650250435,3.574543238,0.407014281,0.107517615,-0.018652374,0.059287902,-44,-15,-9,36,184
1695162580676254800,-9.111134529,-1.684320927,-0.778115571,-0.138826951,0.010258805,-0.000932619,-1,27,-9,22,14,-8.655038834,3.576937437,0.403422982,0.106318533,-0.018652374,0.056090351,-47,-18,-8,38,183
1695162580677254800,-9.11233139,-1.685518026,-0.773327172,-0.13975957,0.009859112,-0.000399694,-3,22,-12,16,10,-8.65743351,3.574543238,0.405817181,0.105252676,-0.018385911,0.053026035,-49,-18,-12,40,185
1695162580678254800,-9.114726067,-1.693897724,-0.775721371,-0.140558958,0.009859112,0.000133231,-1,22,-12,19,12,-8.65743351,3.572149038,0.407014281,0.104320064,-0.018119449,0.049828485,-44,-13,-7,38,184
1695162580713213100,-9.153033257,-1.765723705,-0.762553215,-0.140692189,0.01398928,0.01612098,0,25,-9,22,13,-8.686163902,3.636792421,0.441730201,0.09246248,-0.017586524,-0.003996937,-46,-16,-4,40,183
1695162580714213100,-9.153033257,-1.766920805,-0.766144514,-0.140558958,0.01385605,0.016520673,-2,22,-16,23,9,-8.686163902,3.646369219,0.440533102,0.090863705,-0.017586524,-0.006261868,-44,-15,-9,40,184
1695162580715213100,-9.15063858,-1.768117905,-0.763750315,-0.140825421,0.013323124,0.01718683,-1,21,-12,20,11,-8.687360764,3.653551817,0.435744703,0.089398161,-0.017586524,-0.008393568,-44,-18,-8,38,185
1695162580716213100,-9.153033257,-1.765723705,-0.762553215,-0.140825421,0.01292343,0.017719755,-1,21,-12,20,13,-8.68975544,3.660734415,0.429759204,0.08753293,-0.017719755,-0.010258805,-45,-15,-6,41,184
1695162580717213100,-9.155426979,-1.770512104,-0.764947414,-0.140825421,0.012390506,0.018119449,-3,23,-12,19,13,-8.686163902,3.663128614,0.423773706,0.085667685,-0.017852986,-0.011990812,-46,-18,-8,37,183
1695162580751190000,-9.137471199,-1.8602947,-0.74459672,-0.122039817,0.016787136,0.033840735,-1,23,-15,27,13,-8.68975544,3.744531393,0.41060558,0.064084224,-0.016920367,-0.033174578,-45,-16,-5,42,189
1695162580752190000,-9.136273384,-1.861491799,-0.74220252,-0.119908117,0.01718683,0.034506891,-3,25,-15,20,12,-8.690952301,3.748122692,0.40821138,0.063684531,-0.017053599,-0.033707503,-44,-16,-5,36,185
1695162580753190000,-9.139864922,-1.866280198,-0.74220252,-0.117909648,0.017586524,0.034773353,-1,21,-16,19,9,-8.688557625,3.749319792,0.40821138,0.063418068,-0.017053599,-0.034107197,-45,-18,-5,36,184
1695162580754190000,-9.141061783,-1.867477298,-0.741005421,-0.115777947,0.017586524,0.035173047,-3,25,-8,22,14,-8.684967041,3.751713991,0.407014281,0.063151613,-0.01718683,-0.034506891,-45,-16,-8,37,183
1695162580755190000,-9.135076523,-1.872265697,-0.738611221,-0.113779478,0.017852986,0.03543951,-4,21,-13,19,8,-8.684967041,3.75650239,0.405817181,0.062751912,-0.017320061,-0.034906585,-44,-17,-11,40,183
1695162580791168500,-9.137471199,-1.911770105,-0.735019922,-0.105119444,0.002797856,0.023049004,-3,28,-11,18,10,-8.711302757,3.822343111,0.395043284,0.04969525,-0.027179174,-0.034640122,-42,-17,-8,37,185
1695162580792168500,-9.142259598,-1.912967205,-0.748188019,-0.105652377,0.001998469,0.021716693,-1,21,-13,24,12,-8.712499619,3.823540211,0.392649084,0.049029093,-0.027312404,-0.03437366,-48,-19,-8,40,183
1695162580793168500,-9.142259598,-1.914164305,-0.749385118,-0.105652377,0.00106585,0.020384381,-6,18,-8,19,7,-8.714894295,3.82713151,0.390254885,0.048362937,-0.027845331,-0.033973966,-45,-14,-5,32,182
1695162580794168500,-9.142259598,-1.918952703,-0.758961916,-0.106052071,0.000266462,0.019052068,-1,27,-9,23,12,-8.716091156,3.831919909,0.387860686,0.047830015,-0.028245023,-0.033574272,-44,-16,-6,37,183
1695162580795168500,-9.145850182,-1.918952703,-0.768538773,-0.106185302,-0.000399694,0.017852986,-1,22,-13,22,14,-8.713697433,3.833117008,0.385466486,0.047430322,-0.028644716,-0.033174578,-44,-17,-6,40,183
1695162580836166800,-9.192537308,-1.912967205,-0.870292306,-0.11191424,-0.005329249,-0.015588055,-6,17,-13,18,8,-8.694543839,3.889380693,0.33399114,0.055424199,-0.033307809,-0.004529862,-44,-15,-8,38,171
1695162580837166800,-9.186552048,-1.915361404,-0.877474904,-0.112447165,-0.004663093,-0.017320061,-2,17,-15,14,8,-8.694543839,3.890577793,0.33279404,0.056356817,-0.033707503,-0.002264931,-44,-17,-5,38,183
1695162580838166800,-9.184157372,-1.916558504,-0.882263303,-0.112447165,-0.003996937,-0.019185297,-4,22,-18,16,8,-8.693346024,3.891774893,0.33279404,0.056889739,-0.033973966,-0.000799387,-45,-16,-7,40,186
1695162580839166800,-9.180566788,-1.917755604,-0.883460402,-0.112447165,-0.003064318,-0.020784073,-4,19,-19,16,10,-8.692149162,3.890577793,0.33279404,0.057822358,-0.034506891,0.001598775,-46,-15,-11,37,184
1695162580840166800,-9.174580574,-1.921346903,-0.885854602,-0.112047479,-0.001998469,-0.022516079,-4,18,-15,16,7,-8.68975544,3.892971992,0.33279404,0.058621746,-0.034773353,0.004130168,-44,-17,-6,34,183
1695162580881119100,-9.142259598,-1.853112102,-0.900219858,-0.079405814,0.02051761,-0.047430322,-7,19,-22,15,8,-8.644265175,3.896563292,0.328005642,0.059421133,-0.036638591,0.049428791,-44,-16,-9,38,184
1695162580882119100,-9.13866806,-1.849520802,-0.896628559,-0.07794027,0.021183766,-0.04769678,-2,18,-16,18,7,-8.638279915,3.892971992,0.326808542,0.058888208,-0.036372125,0.05142726,-44,-17,-8,40,185
1695162580883119100,-9.133879662,-1.844732404,-0.89184016,-0.076607957,0.021983154,-0.047963247,-7,18,-17,18,8,-8.629899979,3.891774893,0.319625914,0.058621746,-0.035972435,0.053692192,-44,-17,-8,38,183
1695162580884119100,-9.131484985,-1.838746905,-0.89184016,-0.075275652,0.022649311,-0.048229709,-4,23,-17,16,9,-8.623914719,3.888183594,0.317231715,0.05808882,-0.035705972,0.055690661,-44,-15,-5,37,184
1695162580885119100,-9.133879662,-1.833958507,-0.89184016,-0.074609496,0.023182238,-0.048229709,-5,17,-21,16,9,-8.621520042,3.884592295,0.318428814,0.05768913,-0.035173047,0.057955589,-46,-15,-11,37,183
1695162580920095200,-9.129091263,-1.766920805,-0.864306808,-0.057555895,0.028245023,-0.042234302,-7,20,-17,15,8,-8.589199066,3.790021181,0.307654917,0.055557426,-0.037304748,0.08233691,-45,-15,-7,38,184
1695162580921095200,-9.1326828,-1.763329506,-0.861912608,-0.056756508,0.028111791,-0.041701376,-8,17,-15,19,7,-8.593987465,3.788824081,0.308852017,0.055157732,-0.037304748,0.082203679,-45,-14,-7,37,184
1695162580922095200,-9.133879662,-1.760935307,-0.858321309,-0.056223582,0.02797856,-0.041301683,-6,19,-16,17,9,-8.601169586,3.787626982,0.305260718,0.054491576,-0.037304748,0.082203679,-45,-17,-5,37,183
1695162580923095200,-9.137471199,-1.758541107,-0.859518409,-0.055690661,0.027845331,-0.040901989,-1,18,-15,16,7,-8.609549522,3.785232782,0.306457818,0.053558957,-0.03757121,0.081803977,-44,-16,-6,37,186
1695162580924095200,-9.139864922,-1.754949808,-0.860715508,-0.05489127,0.027845331,-0.040635526,-8,17,-17,13,9,-8.616731644,3.785232782,0.305260718,0.052759573,-0.037704438,0.081537522,-45,-16,-8,42,184
1695162580960072500,-9.156624794,-1.725022316,-0.841561913,-0.051826954,0.032774884,-0.033307809,-4,22,-19,16,12,-8.670601845,3.787626982,0.245405674,0.02904441,-0.023715161,0.07274425,-44,-13,-7,40,183
1695162580961072500,-9.159018517,-1.729810715,-0.846350312,-0.051560488,0.033041347,-0.032908116,-8,17,-16,19,9,-8.668207169,3.788824081,0.241814375,0.028511487,-0.022382848,0.073143952,-45,-15,-8,40,186
1695162580962072500,-9.161413193,-1.729810715,-0.847547412,-0.051160797,0.033041347,-0.032641653,-4,21,-13,17,9,-8.667010307,3.791218281,0.243011475,0.027845331,-0.020784073,0.073543645,-44,-16,-6,34,183
1695162580963072500,-9.160215378,-1.731007814,-0.843956113,-0.050894335,0.033041347,-0.032241959,-7,18,-17,21,8,-8.665813446,3.79480958,0.241814375,0.027445635,-0.019851454,0.073943339,-44,-17,-7,36,180
1695162580964072500,-9.159018517,-1.733402014,-0.843956113,-0.050627869,0.033041347,-0.031975497,-6,20,-16,19,8,-8.661025047,3.797203779,0.241814375,0.02691271,-0.018119449,0.074875958,-44,-17,-7,40,184
1695162581009066900,-9.162610054,-1.704671621,-0.808043063,-0.049828485,0.031709034,-0.029310873,-5,18,-18,17,9,-8.658630371,3.776853085,0.350750536,0.007061256,0.005196018,0.093928024,-44,-15,-13,38,184
1695162581010066900,-9.161413193,-1.705868721,-0.806845963,-0.050361406,0.031575806,-0.02917764,-4,21,-19,14,9,-8.65743351,3.770867586,0.353144765,0.005862175,0.005062787,0.094460949,-45,-16,-5,39,185
1695162581011066900,-9.162610054,-1.704671621,-0.800860465,-0.050894335,0.031442571,-0.029310873,-6,21,-17,14,8,-8.658630371,3.769670486,0.365115762,0.004529862,0.004796324,0.094993874,-44,-16,-8,38,184
1695162581012066900,-9.160215378,-1.704671621,-0.796072066,-0.05142726,0.031442571,-0.029310873,-5,18,-17,17,7,-8.65743351,3.766079187,0.37110126,0.00319755,0.004396631,0.095393561,-46,-15,-5,41,184
1695162581013066900,-9.156624794,-1.707065821,-0.794874966,-0.051960181,0.031176111,-0.02904441,-1,17,-19,16,10,-8.656236649,3.762487888,0.375889659,0.001865237,0.0042634,0.095660031,-45,-17,-10,41,186
1695162581048045200,-9.192537308,-1.67234993,-0.784101069,-0.076607957,0.023448698,-0.033041347,-4,21,-16,14,11,-8.693346024,3.646369219,0.384269387,0.009725881,-0.021050537,0.096059717,-44,-14,-7,37,183
1695162581049045200,-9.192537308,-1.673547029,-0.78050977,-0.078473203,0.022915773,-0.033574272,-2,17,-16,16,10,-8.694543839,3.643975019,0.381875157,0.011457887,-0.022116385,0.094993874,-45,-16,-7,38,188
1695162581050045200,-9.193734169,-1.674744129,-0.77931267,-0.080071971,0.022249617,-0.034107197,-3,21,-19,16,9,-8.694543839,3.643975019,0.381875157,0.013056661,-0.022915773,0.093928024,-45,-14,-4,40,200
1695162581051045200,-9.194931984,-1.67234993,-0.77931267,-0.081670754,0.021716693,-0.034640122,-3,11,-20,19,7,-8.696937561,3.646369219,0.381875157,0.014655436,-0.023182238,0.092862174,-45,-16,-8,35,183
1695162581052045200,-9.198522568,-1.67115283,-0.776918471,-0.083269522,0.021183766,-0.035039816,-3,21,-15,15,11,-8.70172596,3.649960518,0.381875157,0.01612098,-0.02358193,0.091529861,-46,-16,-8,36,185
1695162581087997600,-9.270348549,-1.641225219,-0.762553215,-0.116310872,0.012656967,-0.047030624,-2,17,-15,17,9,-8.712499619,3.697844505,0.381875157,0.013456355,-0.028378254,0.068614088,-44,-15,-8,20,183
1695162581088997600,-9.276334763,-1.632845521,-0.764947414,-0.118842266,0.012257273,-0.047963247,-2,17,-16,14,7,-8.713697433,3.699041605,0.378283858,0.01385605,-0.029843798,0.068614088,-44,-15,-5,40,184
1695162581089997600,-9.28591156,-1.626860023,-0.770932972,-0.121773355,0.011591119,-0.048762634,-7,19,-17,16,9,-8.712499619,3.695450306,0.37349546,0.014522205,-0.031442571,0.068880551,-44,-18,-5,41,182
1695162581090997600,-9.290699959,-1.622071624,-0.770932972,-0.124704443,0.011058193,-0.049428791,-4,19,-20,16,9,-8.716091156,3.691859007,0.368707061,0.015321592,-0.033041347,0.069013782,-44,-7,-4,41,185
1695162581091997600,-9.29788208,-1.618480325,-0.770932972,-0.127901986,0.010258805,-0.050361406,-5,19,-16,18,9,-8.722076416,3.691859007,0.359130263,0.016387442,-0.034773353,0.069546707,-44,-16,-4,40,184
1695162581126000500,-9.36252594,-1.570596337,-0.733822823,-0.206774876,-0.017986218,-0.073543645,-2,22,-17,14,13,-8.74003315,3.697844505,0.289698392,0.053292494,-0.053558957,0.086333841,-42,-17,-5,37,186
1695162581127000500,-9.358934402,-1.564610839,-0.731428623,-0.212503821,-0.02051761,-0.075808577,-3,22,-17,16,11,-8.742427826,3.700238705,0.290895492,0.053958651,-0.0528928,0.086467072,-45,-17,-5,41,182
1695162581128000500,-9.349357605,-1.55862534,-0.730231524,-0.218366012,-0.022915773,-0.078073502,-2,18,-25,22,9,-8.743624687,3.701435804,0.289698392,0.054358348,-0.052226644,0.086866774,-45,-16,-8,40,184
1695162581129000500,-9.348160744,-1.553836942,-0.726640224,-0.224361405,-0.025447167,-0.080604896,-2,23,-17,14,11,-8.74601841,3.703830004,0.289698392,0.054491576,-0.051560488,0.086733535,-44,-18,-8,41,185
1695162581130000500,-9.339780807,-1.551442742,-0.730231524,-0.230756521,-0.028111791,-0.083402753,-5,21,-12,17,13,-8.748413086,3.702632904,0.287304193,0.054758042,-0.050761104,0.086467072,-44,-17,-5,37,185
1695162581159956100,-9.255983353,-1.478419542,-0.754173517,-0.368117899,-0.071012251,-0.143756509,-2,21,-11,20,9,-8.70172596,3.647566319,0.289698392,0.051027562,-0.038903523,0.069280244,-44,-17,-9,42,185
1695162581160956100,-9.25957489,-1.473631144,-0.750582218,-0.37451303,-0.073277183,-0.146287903,-6,23,-14,18,11,-8.699332237,3.646369219,0.29568392,0.050627869,-0.039036751,0.068081163,-44,-18,-9,51,186
1695162581161956100,-9.261969566,-1.471236944,-0.755370617,-0.378509969,-0.074609496,-0.14801991,-6,21,-15,21,9,-8.692149162,3.643975019,0.300472319,0.050228179,-0.039436448,0.066882081,-45,-15,-5,41,185
1695162581162956100,-9.264363289,-1.467645645,-0.760159016,-0.384771824,-0.076741189,-0.150418073,-3,25,-16,14,7,-8.68975544,3.64038372,0.299275219,0.049961712,-0.039702907,0.065549769,-43,-16,-8,40,186
1695162581163956100,-9.269151688,-1.468842745,-0.766144514,-0.390767217,-0.079006128,-0.152683005,-4,21,-13,20,9,-8.686163902,3.636792421,0.304063618,0.049961712,-0.03996937,0.064217456,-44,-17,-8,36,184
1695162581219923400,-8.962694168,-2.437297344,-1.074996591,-0.162009194,-0.01718683,-0.186656967,-6,17,-19,14,9,-8.723274231,3.7169981,0.374692559,0.061286367,-0.035839204,0.029444104,-44,-17,-5,37,184
1695162581220923400,-8.963891029,-2.424129248,-1.073799491,-0.15481469,-0.013056661,-0.187056661,-3,19,-12,16,7,-8.720879555,3.7193923,0.368707061,0.061419602,-0.036638591,0.029577335,-44,-15,-8,38,184
1695162581221923400,-8.962694168,-2.410961151,-1.072602391,-0.14748697,-0.009326187,-0.187056661,-4,20,-15,16,8,-8.724471092,3.7193923,0.36990416,0.061419602,-0.037437979,0.029710567,-44,-17,-3,37,185
1695162581222923400,-8.963891029,-2.398990154,-1.074996591,-0.139892802,-0.005728943,-0.187456369,-6,20,-17,18,8,-8.719682693,3.715801001,0.37229836,0.061552834,-0.038370594,0.029977029,-44,-16,-6,36,184
1695162581223923400,-8.962694168,-2.388216257,-1.07858789,-0.132298619,-0.002531394,-0.187589586,-3,21,-19,17,5,-8.716091156,3.711012602,0.37349546,0.061819296,-0.039303213,0.030243492,-43,-17,-5,37,184
1695162581294879400,-8.931569099,-2.149993181,-1.034295082,0.014122511,0.038237367,-0.190120965,-3,19,-21,17,11,-8.694543839,3.696647406,0.326808542,0.065150075,-0.051160797,0.032241959,-44,-13,-7,42,186
1695162581295879400,-8.927978516,-2.141613483,-1.029506683,0.022782542,0.04103522,-0.188788652,-2,19,-13,19,9,-8.68975544,3.696647406,0.324414343,0.064750381,-0.051160797,0.032108728,-44,-15,-7,35,183
1695162581296879400,-8.920795441,-2.132036686,-1.019929886,0.031709034,0.043833077,-0.187189892,-6,17,-17,15,11,-8.686163902,3.699041605,0.324414343,0.064217456,-0.051027562,0.031575806,-46,-15,-7,38,185
1695162581297879400,-8.914810181,-2.118868589,-1.015141487,0.040768761,0.046630934,-0.185591117,-4,19,-16,15,8,-8.683769226,3.703830004,0.323217243,0.063284837,-0.050894335,0.031042879,-45,-16,-6,40,184
1695162581298879400,-8.907627106,-2.108094692,-1.006761789,0.049961712,0.04969525,-0.183592647,-4,23,-12,18,8,-8.681375504,3.701435804,0.324414343,0.062485453,-0.050894335,0.030643184,-44,-15,-7,41,185
1695162581374834100,-8.875306129,-1.873462796,-0.866701007,0.195050538,0.101921894,-0.116977029,-7,17,-16,18,9,-8.68975544,3.708618402,0.266953498,0.050094947,-0.0528928,0.018918836,-44,-16,-4,40,184
1695162581375834100,-8.878896713,-1.861491799,-0.858321309,0.199447155,0.103520676,-0.112580396,-4,21,-17,18,10,-8.687360764,3.711012602,0.271741897,0.049428791,-0.052093416,0.018119449,-44,-16,-5,40,186
1695162581376834100,-8.880094528,-1.849520802,-0.842759013,0.203843787,0.104986221,-0.108316995,-5,20,-16,17,8,-8.690952301,3.715801001,0.276530296,0.048762634,-0.051160797,0.017053599,-44,-14,-8,42,188
1695162581377834100,-8.884882927,-1.839944005,-0.840364814,0.207441032,0.106318533,-0.104053594,-8,21,-17,19,9,-8.686163902,3.721786499,0.278924495,0.047963247,-0.050094947,0.01612098,-44,-17,-5,38,184
1695162581378834100,-8.892065048,-1.832761407,-0.825999558,0.210771829,0.107384384,-0.099923424,-5,19,-13,16,9,-8.686163902,3.726574898,0.274136096,0.046897396,-0.049162328,0.015188362,-44,-14,-5,40,187
1695162581444793600,-9.02374649,-1.74657011,-0.719457626,0.224494636,0.110049009,-0.027712099,-2,19,-17,19,8,-8.664615631,3.775655985,0.244208574,0.028245023,-0.042900458,0.022116385,-44,-13,-8,41,183
1695162581445793600,-9.027337074,-1.74657011,-0.714669228,0.223562017,0.109516084,-0.024781011,-4,18,-17,19,9,-8.66341877,3.769670486,0.240617275,0.02917764,-0.043699846,0.023981623,-44,-13,-5,37,186
1695162581446793600,-9.033323288,-1.74657011,-0.709880829,0.222629398,0.108716697,-0.021716693,-3,19,-12,15,11,-8.667010307,3.769670486,0.232237563,0.030509954,-0.044499233,0.026113322,-48,-17,-6,44,186
1695162581447793600,-9.041702271,-1.752555609,-0.707486629,0.221563548,0.108183771,-0.018918836,-3,19,-15,16,10,-8.66341877,3.768473387,0.228646263,0.031975497,-0.045431852,0.028378254,-44,-13,-3,42,184
1695162581448793600,-9.046490669,-1.753752708,-0.702698171,0.220630929,0.107650839,-0.01718683,-3,10,-19,15,9,-8.66341877,3.769670486,0.228646263,0.033041347,-0.045964777,0.029710567,-44,-13,-7,41,184
1695162581491766600,-9.15063858,-1.799242616,-0.629675031,0.186923429,0.109116383,0.016254211,-4,23,-17,20,11,-8.66940403,3.75769949,0.222660765,0.053825419,-0.043966308,0.063284837,-44,-16,-4,41,185
1695162581492766600,-9.155426979,-1.805228114,-0.629675031,0.184658498,0.109915771,0.017320061,-1,21,-18,22,14,-8.670601845,3.75650239,0.22146365,0.052759573,-0.043033689,0.063950993,-44,-12,-3,42,189
1695162581493766600,-9.157821655,-1.807622313,-0.627280831,0.182393566,0.110581927,0.018119449,-2,23,-13,22,13,-8.674192429,3.751713991,0.222660765,0.051560488,-0.041967839,0.064750381,-44,-13,-5,40,193
1695162581494766600,-9.162610054,-1.810016513,-0.624886632,0.180128634,0.111114852,0.018918836,-5,19,-13,24,9,-8.672995567,3.748122692,0.220266551,0.050228179,-0.040901989,0.065416537,-41,-15,-2,41,188
1695162581495766600,-9.165003777,-1.811213613,-0.623689532,0.177996933,0.111781009,0.019718224,-2,23,-16,20,12,-8.671798706,3.748122692,0.223857865,0.048895866,-0.040102605,0.065949462,-44,-13,-7,41,187
1695162581528745800,-9.174580574,-1.8590976,-0.525527298,0.144022971,0.102987751,0.035306279,-1,23,-16,23,13,-8.661025047,3.663128614,0.248996973,0.036905054,-0.030509954,0.073943339,-44,-13,-4,37,184
1695162581529745800,-9.178172112,-1.863885999,-0.52073884,0.143223584,0.101255737,0.036638591,-1,23,-11,20,12,-8.66341877,3.658340216,0.248996973,0.037437979,-0.030776417,0.074209802,-44,-13,-4,37,186
1695162581530745800,-9.18296051,-1.866280198,-0.517147541,0.142424196,0.099390499,0.038370594,-4,21,-11,22,11,-8.665813446,3.654748917,0.252588272,0.038237367,-0.030909648,0.074476264,-44,-16,-7,41,186
1695162581531745800,-9.186552048,-1.873462796,-0.512359142,0.14175804,0.097525269,0.039836142,-1,25,-12,23,11,-8.670601845,3.649960518,0.258573771,0.038903523,-0.031176111,0.07474272,-44,-14,-5,40,186
1695162581532745800,-9.18894577,-1.877054095,-0.509964943,0.141358346,0.0955268,0.041434918,-1,22,-13,23,12,-8.672995567,3.653551817,0.25977087,0.039436448,-0.031575806,0.074875958,-44,-13,-8,42,182
1695162581569722600,-9.21528244,-1.928529501,-0.48482585,0.134830013,0.058754977,0.075275652,-1,25,-12,19,11,-8.705317497,3.616441727,0.288501292,0.042900458,-0.037038282,0.06981317,-45,-14,-5,41,185
1695162581570722600,-9.218873978,-1.9309237,-0.488417149,0.133364469,0.056490045,0.076741189,-1,26,-10,22,12,-8.705317497,3.617638826,0.287304193,0.043300152,-0.037171517,0.069413476,-44,-11,-3,42,183
1695162581571722600,-9.220070839,-1.9309237,-0.493205547,0.131765693,0.054225113,0.078473203,-3,18,-15,22,11,-8.704120636,3.618835926,0.292092621,0.043566614,-0.037437979,0.069013782,-47,-12,-6,40,184
1695162581572722600,-9.223662376,-1.9321208,-0.492008448,0.130033687,0.051826954,0.07993874,-1,18,-12,23,13,-8.70771122,3.618835926,0.292092621,0.044099543,-0.037437979,0.068480857,-44,-14,-4,40,184
1695162581573722600,-9.226056099,-1.935712099,-0.490811348,0.128035218,0.049295556,0.081137821,-1,19,-11,22,11,-8.711302757,3.617638826,0.289698392,0.044499233,-0.03757121,0.0678147,-43,-12,-5,37,183
1695162581602705300,-9.234436035,-2.019509077,-0.571017087,0.095660031,0.005329249,0.087799385,-1,27,-16,19,11,-8.719682693,3.628412724,0.311246216,0.047830015,-0.036238898,0.058621746,-44,-13,-5,40,186
1695162581603705300,-9.234436035,-2.024297476,-0.579396784,0.095127106,0.003597243,0.08753293,0,25,-12,20,14,-8.718485832,3.629609823,0.313640416,0.048096478,-0.03650536,0.058355279,-44,-12,-5,38,185
1695162581604705300,-9.230844498,-2.031480074,-0.581790984,0.094727404,0.001865237,0.08726646,-1,19,-11,19,10,-8.724471092,3.624821424,0.310049117,0.048229709,-0.03650536,0.05808882,-44,-17,-2,40,184
1695162581605705300,-9.232041359,-2.036268473,-0.584185243,0.094594181,0.000399694,0.08726646,-1,19,-9,23,11,-8.723274231,3.624821424,0.305260718,0.048362937,-0.036638591,0.05768913,-45,-15,-7,40,183
1695162581606705300,-9.230844498,-2.04584527,-0.588973641,0.094594181,-0.000932619,0.087133229,-1,23,-9,22,12,-8.724471092,3.624821424,0.306457818,0.048762634,-0.037038282,0.057289433,-43,-13,-5,42,183
1695162581638683100,-9.191340446,-2.079364061,-0.689530075,0.118442573,-0.009725881,0.076874427,-1,22,-13,23,12,-8.726864815,3.639186621,0.322020143,0.055290964,-0.040768761,0.048762634,-44,-15,-5,37,185
1695162581639683100,-9.191340446,-2.079364061,-0.696712673,0.119375192,-0.010525269,0.075542115,-4,25,-16,22,11,-8.724471092,3.64277792,0.317231715,0.055024505,-0.040635526,0.048096478,-43,-13,-2,40,188
1695162581640683100,-9.190143585,-2.073378563,-0.700303972,0.120174579,-0.011324655,0.073810108,-2,20,-12,25,10,-8.723274231,3.646369219,0.316034615,0.054624807,-0.040635526,0.047430322,-44,-15,-4,44,185
1695162581641683100,-9.187748909,-2.072181463,-0.703895271,0.120707504,-0.012257273,0.072211333,-2,20,-16,23,13,-8.720879555,3.645172119,0.319625914,0.054358348,-0.040635526,0.046630934,-44,-12,-4,42,186
1695162581642683100,-9.184157372,-2.068590164,-0.713472128,0.120973967,-0.012790199,0.070479326,-1,21,-13,22,11,-8.719682693,3.643975019,0.322020143,0.054091886,-0.040502299,0.045964777,-44,-12,-7,42,184
1695162581671668100,-9.070432663,-2.001552582,-0.725443125,-0.039436448,0.03543951,-0.056490045,-4,26,-13,19,12,-8.706514359,3.64277792,0.306457818,0.058888208,-0.047430322,0.040635526,-44,-13,-7,41,185
1695162581672668100,-9.069235802,-2.002749681,-0.718260527,-0.039036751,0.035306279,-0.056889739,-1,25,-18,23,10,-8.705317497,3.645172119,0.304063618,0.059820827,-0.048229709,0.040502299,-44,-11,-5,38,183
1695162581673668100,-9.06803894,-2.002749681,-0.715866327,-0.038503829,0.03543951,-0.057289433,-1,23,-13,19,8,-8.702922821,3.645172119,0.306457818,0.060620211,-0.048895866,0.040502299,-42,-15,-4,42,186
1695162581674668100,-9.0740242,-2.001552582,-0.712275028,-0.037970904,0.03543951,-0.057555895,-4,18,-15,18,10,-8.702922821,3.643975019,0.301669419,0.061552834,-0.049562022,0.040502299,-44,-12,-3,43,181
1695162581675668100,-9.080010414,-2.005143881,-0.708683729,-0.037304748,0.03543951,-0.05768913,-3,21,-18,18,12,-8.699332237,3.64158082,0.299275219,0.062485453,-0.050228179,0.040635526,-44,-15,-7,40,188
1695162581706643400,-9.084798813,-1.893813491,-0.726640224,-0.071145482,-0.003330781,-0.031975497,-1,22,-13,24,12,-8.711302757,3.592499733,0.246602774,0.069946401,-0.019851454,0.044632465,-45,-15,-4,40,183
1695162581707643400,-9.087192535,-1.891419291,-0.730231524,-0.071411945,-0.003330781,-0.031709034,-2,27,-11,24,11,-8.706514359,3.590105534,0.248996973,0.071278714,-0.020650841,0.043966308,-43,-12,-8,40,185
1695162581708643400,-9.090784073,-1.890222192,-0.731428623,-0.071811639,-0.002931087,-0.031442571,-2,22,-12,23,11,-8.70771122,3.590105534,0.253785372,0.072611026,-0.021050537,0.043433387,-45,-16,-9,40,183
1695162581709643400,-9.091980934,-1.887827992,-0.731428623,-0.072078094,-0.002664625,-0.031176111,-2,27,-15,24,11,-8.70771122,3.591302633,0.252588272,0.074076563,-0.021450229,0.042900458,-44,-11,-4,40,187
1695162581710643400,-9.090784073,-1.886630893,-0.727837324,-0.072344564,-0.001998469,-0.030776417,-3,27,-15,18,14,-8.705317497,3.591302633,0.252588272,0.074875958,-0.021716693,0.042633995,-44,-13,-7,40,184
1695162581741647100,-9.126696587,-1.829170108,-0.671573579,-0.048629403,0.0063951,-0.007061256,-6,21,-16,15,11,-8.674192429,3.648763418,0.209492654,0.048895866,-0.02691271,0.024381317,-41,-12,-5,38,186
1695162581742647100,-9.130288124,-1.831564307,-0.673967779,-0.048229709,0.006261868,-0.0063951,-3,21,-16,18,11,-8.672995567,3.648763418,0.211886853,0.049162328,-0.027179174,0.02358193,-43,-15,-5,38,184
1695162581743647100,-9.129091263,-1.833958507,-0.677559078,-0.047830015,0.006261868,-0.005862175,-7,23,-16,18,12,-8.675390244,3.648763418,0.211886853,0.049428791,-0.027312404,0.022915773,-44,-16,-8,37,186
1695162581744647100,-9.130288124,-1.830367208,-0.679953277,-0.04729709,0.006261868,-0.005329249,-4,18,-17,19,9,-8.676587105,3.648763418,0.209492654,0.04969525,-0.027045943,0.022116385,-44,-13,-6,37,184
1695162581745647100,-9.131484985,-1.830367208,-0.679953277,-0.046897396,0.005995406,-0.004529862,-7,19,-16,18,12,-8.678980827,3.652354717,0.210689753,0.049828485,-0.026779478,0.021316998,-44,-15,-7,41,186
1695162581776603900,-9.1326828,-1.8590976,-0.738611221,-0.055424199,0.002264931,-0.000532925,-3,21,-16,18,11,-8.698134422,3.637989521,0.210689753,0.043566614,-0.015987748,0.027578866,-44,-11,-5,42,184
1695162581777603900,-9.136273384,-1.8590976,-0.74220252,-0.055690661,0.0021317,-0.000666156,-6,21,-17,18,9,-8.699332237,3.64277792,0.209492654,0.043966308,-0.015588055,0.027845331,-44,-13,-5,41,184
1695162581778603900,-9.133879662,-1.8579005,-0.748188019,-0.05595712,0.001998469,-0.000666156,-4,21,-13,16,8,-8.700529099,3.643975019,0.210689753,0.044366002,-0.015454824,0.02797856,-44,-13,-8,37,183
1695162581779603900,-9.136273384,-1.862688899,-0.757764816,-0.056223582,0.001732006,-0.000799387,-4,18,-18,16,11,-8.70172596,3.645172119,0.208295554,0.044765696,-0.015188362,0.028245023,-44,-11,-5,42,186
1695162581780603900,-9.137471199,-1.865083098,-0.760159016,-0.056623276,0.001598775,-0.000799387,-7,10,-15,17,12,-8.705317497,3.646369219,0.207098454,0.044898927,-0.014655436,0.028644716,-44,-14,-5,39,184
1695162581812586100,-9.133879662,-1.942894697,-0.766144514,-0.065949462,0.005462481,-0.007327718,-8,17,-21,13,3,-8.726864815,3.665522814,0.349553436,0.086866774,-0.029710567,0.018119449,-55,-23,-17,31,177
1695162581813586100,-9.127894402,-1.941697598,-0.762553215,-0.065683,0.005329249,-0.007327718,-12,9,-21,14,4,-8.72806263,3.669114113,0.343567938,0.087799385,-0.030509954,0.018119449,-55,-22,-18,28,176
1695162581814586100,-9.129091263,-1.938106298,-0.761356115,-0.065283306,0.005062787,-0.007327718,-12,7,-23,13,3,-8.72806263,3.670311213,0.337582439,0.088465542,-0.031442571,0.018119449,-54,-23,-20,31,177
1695162581815586100,-9.126696587,-1.939303398,-0.764947414,-0.064883612,0.004929556,-0.007327718,-11,17,-23,13,3,-8.729259491,3.672705412,0.337582439,0.088732004,-0.032108728,0.017986218,-53,-23,-18,31,177
1695162581816586100,-9.126696587,-1.936909199,-0.762553215,-0.06461715,0.005196018,-0.007327718,-12,9,-23,13,3,-8.730456352,3.676296711,0.337582439,0.089131698,-0.032908116,0.018119449,-53,-25,-18,31,176
1695162581847563100,-9.153033257,-1.889025092,-0.646434486,-0.02904441,-0.020117918,-0.020650841,-15,17,-22,15,4,-8.677783966,3.600879431,0.345962137,0.067681469,-0.033574272,0.066615619,-58,-24,-19,29,174
1695162581848563100,-9.151836395,-1.884236693,-0.648828685,-0.029577335,-0.020117918,-0.021050537,-10,17,-24,13,3,-8.681375504,3.593696833,0.349553436,0.069413476,-0.03437366,0.0678147,-57,-24,-17,28,173
1695162581849563100,-9.151836395,-1.880645394,-0.650025785,-0.030243492,-0.020384381,-0.021183766,-12,17,-23,13,4,-8.686163902,3.586514235,0.353144765,0.07087902,-0.035039816,0.068614088,-57,-25,-18,29,172
1695162581850563100,-9.147047997,-1.872265697,-0.652419984,-0.030909648,-0.02051761,-0.02158346,-10,17,-22,13,1,-8.687360764,3.576937437,0.355538964,0.072078094,-0.035572741,0.069413476,-57,-25,-19,29,172
1695162581851563100,-9.143456459,-1.865083098,-0.659602582,-0.031709034,-0.021050537,-0.022116385,-13,5,-21,13,2,-8.692149162,3.573346138,0.360327363,0.07301072,-0.036238898,0.069946401,-57,-26,-20,30,172
1695162581929519300,-9.027337074,-1.551442742,-1.079784989,-0.058355279,0.009592649,-0.046098009,-10,10,-23,14,6,-8.462306023,10.91277122,0.512359142,-0.045565084,-0.768344522,3.437632561,-44,-18,-6,42,184
1695162581930519300,-9.02973175,-1.552639842,-1.084573388,-0.059554365,0.009459418,-0.042367533,-7,19,-23,14,3,-8.400056839,10.9343195,0.533906996,-0.039303213,-0.770076573,3.469741106,-44,-16,-8,49,184
1695162581931519300,-9.027337074,-1.553836942,-1.090558887,-0.060620211,0.009192956,-0.038370594,-8,10,-22,14,5,-8.335412979,10.97262669,0.550666392,-0.034107197,-0.771009147,3.502249718,-44,-15,-8,50,182
1695162581932519300,-9.024943352,-1.557428241,-1.092953086,-0.061686065,0.009059724,-0.034640122,-8,17,-22,14,5,-8.203732491,11.09712505,0.575805485,-0.02904441,-0.772607923,3.578457832,-44,-18,-5,46,184
1695162581933519300,-9.024943352,-1.55982244,-1.092953086,-0.062751912,0.009059724,-0.030776417,-4,17,-21,14,7,-8.151060104,11.16296577,0.59256494,-0.030243492,-0.773274124,3.611099482,-43,-17,-5,44,183
1695162581978489200,-8.999804497,-1.880645394,-1.097741485,-0.06261868,0.019718224,0.14388974,-3,26,-17,25,14,-6.9084692,11.76031876,0.724246025,-0.327748835,-0.787263393,4.210107327,-44,-19,-1,59,183
1695162581979489200,-9.005789757,-1.884236693,-1.101332784,-0.061419602,0.019318528,0.146021441,-3,22,-15,22,13,-6.776787758,11.64180565,0.709880829,-0.34799999,-0.791526794,4.227293968,-43,-17,-2,60,183
1695162581980489200,-9.014169693,-1.885433793,-1.098938584,-0.060620211,0.018652374,0.148286372,-4,20,-13,19,14,-6.617573261,11.49935055,0.745793819,-0.351330757,-0.791393518,4.248211384,-42,-20,1,64,184
1695162581981489200,-9.024943352,-1.889025092,-1.094150186,-0.06008729,0.017852986,0.150418073,-3,23,-20,20,11,-6.460753441,11.40118885,0.823605359,-0.347200602,-0.785931051,4.268862247,-44,-16,0,63,186
1695162581982489200,-9.033323288,-1.889025092,-1.097741485,-0.059820827,0.017453292,0.151750386,-3,21,-18,19,11,-6.312312603,11.34731865,0.906205356,-0.341604888,-0.776871383,4.286048889,-42,-16,1,63,185
1695162582018465400,-9.145850182,-2.00993228,-1.108515382,-0.113646246,0.00319755,0.143623278,-3,17,-17,16,8,-3.852270603,10.52251625,1.134851575,-0.195849925,-0.229690656,4.102722645,-44,-18,29,74,204
1695162582019465400,-9.149441719,-2.020706177,-1.110909581,-0.117909648,0.002664625,0.140425727,-6,22,-12,14,9,-3.810372114,10.54166985,1.097741485,-0.189321592,-0.20157887,4.083404541,-42,-21,31,74,212
1695162582020465400,-9.154230118,-2.033874273,-1.113303781,-0.121640123,0.002264931,0.13656202,-5,18,-17,18,9,-3.740940094,10.56680965,1.027112484,-0.18385911,-0.160676882,4.050896168,-44,-19,35,77,215
1695162582021465400,-9.154230118,-2.04464817,-1.113303781,-0.124171518,0.001998469,0.133897394,-7,22,-18,20,10,-3.672705412,10.60511684,0.995987892,-0.181860641,-0.122705974,4.014257431,-40,-17,45,76,217
1695162582022465400,-9.154230118,-2.056619167,-1.118092179,-0.127901986,0.001998469,0.129767224,-6,21,-20,15,9,-3.600879431,10.60990524,0.942118347,-0.189588055,-0.086333841,3.972555876,-42,-17,52,79,217
1695162582060441200,-9.200917244,-2.176329374,-1.159990668,-0.160543635,0.012656967,0.018652374,-7,17,-20,20,9,-1.787271619,10.41118622,1.066616893,-0.654565096,0.345735073,2.998502254,-23,-17,136,116,286
1695162582061441200,-9.197325706,-2.178723574,-1.157596469,-0.160810098,0.014522205,0.01185758,-1,18,-20,22,9,-1.67234993,10.42435455,1.124077678,-0.727042913,0.346800923,2.94494319,-19,-18,139,116,288
1695162582062441200,-9.196128845,-2.181117773,-1.162384868,-0.161209792,0.016520673,0.005196018,-4,21,-19,14,11,-1.556231141,10.43512821,1.200692177,-0.806581914,0.346800923,2.891784191,-18,-18,140,117,288
1695162582063441200,-9.194931984,-2.183511972,-1.163581967,-0.161343038,0.01825268,-0.001465544,-4,21,-12,15,8,-1.446097851,10.43393135,1.30124867,-0.894647777,0.345735073,2.839823961,-19,-16,143,122,289
1695162582064441200,-9.18894577,-2.183511972,-1.165976286,-0.161609486,0.020251149,-0.008260337,-4,17,-21,18,8,-1.33835876,10.44350815,1.41257906,-0.991506934,0.343736589,2.788396597,-13,-19,143,121,293
1695162582095423600,-9.111134529,-2.079364061,-1.113303781,-0.182926491,0.03996937,-0.147220522,-2,21,-19,19,9,0.845153213,8.062474251,2.221819162,-3.173701286,0.432468593,1.767711997,30,-14,158,127,288
1695162582096423600,-9.113529205,-2.072181463,-1.110909581,-0.18385911,0.03996937,-0.151750386,-4,17,-21,20,12,0.9648633,7.8733325,2.275688648,-3.253107071,0.448989272,1.727343082,30,-8,157,130,287
1695162582097423600,-9.113529205,-2.061407566,-1.109712481,-0.185058191,0.03996937,-0.155880541,-3,21,-17,16,11,1.072602391,7.69855547,2.331952572,-3.326517582,0.468707502,1.685375214,30,-12,158,129,288
1695162582098423600,-9.111134529,-2.055422068,-1.11569798,-0.186257273,0.039836142,-0.160143942,-6,23,-19,18,8,1.170764685,7.526173115,2.382230759,-3.393266439,0.492289424,1.642607927,32,-5,158,127,284
1695162582099423600,-9.111134529,-2.04704237,-1.110909581,-0.187056661,0.039836142,-0.164007664,-7,25,-17,18,9,1.26294136,7.353790283,2.41694665,-3.453220606,0.518402755,1.599307895,26,-8,157,128,287
1695162582132402700,-8.992621422,-1.9309237,-1.127668977,-0.206908107,0.04276723,-0.20411025,-4,19,-20,16,8,2.516305923,3.943250179,3.034650564,-3.418447018,0.952070415,0.561036766,26,3,158,127,274
1695162582133402700,-8.990227699,-1.927332401,-1.126471877,-0.208373666,0.043566614,-0.2051761,-4,18,-20,15,9,2.591723442,3.791218281,3.08373189,-3.36062479,0.989375174,0.492022961,21,7,156,127,269
1695162582134402700,-8.989029884,-1.920149803,-1.130063176,-0.209839195,0.044499233,-0.20624195,-4,18,-19,22,13,2.664746523,3.649960518,3.131615877,-3.297739506,1.028411984,0.423941821,20,3,158,127,272
1695162582135402700,-8.986636162,-1.918952703,-1.130063176,-0.211571202,0.045431852,-0.207041353,-4,22,-18,16,7,2.729389906,3.506308317,3.167528868,-3.229658604,1.06838131,0.356926501,20,7,159,127,272
1695162582136402700,-8.985439301,-1.915361404,-1.134851575,-0.213303223,0.04623124,-0.208107188,-3,28,-22,16,6,2.78924489,3.362656355,3.209427357,-3.156647682,1.107551336,0.292842269,20,8,158,128,270
1695162582172381700,-8.884882927,-1.887827992,-1.164779186,-0.231022969,0.052626338,-0.213169977,-7,21,-22,17,9,3.026270866,2.555810213,5.152322292,-1.829797745,1.107817769,-0.266862184,8,15,156,126,265
1695162582173381700,-8.875306129,-1.887827992,-1.169567585,-0.230756521,0.053292494,-0.213169977,-6,19,-19,14,9,2.97599268,2.589329243,5.245696068,-1.806482315,1.055591106,-0.26339817,7,13,154,127,262
1695162582174381700,-8.864531517,-1.887827992,-1.175553083,-0.230490044,0.053825419,-0.213436455,-6,19,-19,19,7,2.928108692,2.613271236,5.322310448,-1.787430406,0.997369051,-0.259401232,10,12,151,126,264
1695162582175381700,-8.852560997,-1.884236693,-1.173158884,-0.229957119,0.054624807,-0.213569671,-3,20,-18,17,6,2.885013103,2.619256735,5.394136429,-1.77224195,0.933817804,-0.254604906,11,13,157,128,264
1695162582176381700,-8.844181061,-1.879448295,-1.170764685,-0.229823887,0.055557426,-0.213702917,-1,18,-18,17,10,2.857479811,2.612074137,5.470750809,-1.759185314,0.866269529,-0.249675348,10,15,156,127,263
1695162582216351800,-8.844181061,-1.763329506,-1.231816769,-0.272591114,0.058621746,-0.217033699,-6,19,-17,18,11,3.399766445,1.835155606,6.569689274,-1.275555849,0.108183771,-0.400226623,22,15,158,127,266
1695162582217351800,-8.853757858,-1.764526606,-1.235408068,-0.276454836,0.058222052,-0.215967834,-6,19,-21,16,9,3.414131641,1.826775908,6.611588001,-1.232788682,0.110049009,-0.424741209,22,15,158,128,265
1695162582218351800,-8.860940933,-1.763329506,-1.235408068,-0.280318528,0.057822358,-0.215301678,-4,17,-19,19,9,3.41892004,1.823184609,6.653486729,-1.191353798,0.113513015,-0.449921876,22,15,157,127,264
1695162582219351800,-8.870517731,-1.764526606,-1.240196466,-0.283782542,0.057555895,-0.214235827,-3,17,-20,18,8,3.414131641,1.82079041,6.696582317,-1.150984645,0.119108729,-0.475901991,23,14,158,128,264
1695162582220351800,-8.877699852,-1.766920805,-1.241393566,-0.287113339,0.057022974,-0.213036761,-6,19,-18,18,9,3.399766445,1.823184609,6.743268967,-1.111947894,0.126836136,-0.502148569,21,13,158,128,265
1695162582258327200,-8.920795441,-1.758541107,-1.395819545,-0.352529854,0.042234302,-0.202511474,-8,19,-19,18,5,2.146401882,1.443703651,6.771999359,-0.379042894,0.332278699,-0.97232157,23,15,159,122,273
1695162582259327200,-8.917203903,-1.754949808,-1.405396342,-0.358125567,0.042500768,-0.203044415,-4,25,-13,20,8,2.027888775,1.431732655,6.734889507,-0.302035213,0.349332303,-0.983246505,22,16,158,126,273
1695162582260327200,-8.917203903,-1.752555609,-1.422155857,-0.363987744,0.04276723,-0.20357734,-6,23,-13,18,9,1.902193308,1.443703651,6.703764915,-0.219831541,0.368650824,-0.991906583,23,16,158,127,275
1695162582261327200,-8.918401718,-1.74896431,-1.429338455,-0.369983137,0.043699846,-0.20411025,-6,17,-17,16,10,1.771709204,1.474828243,6.672640324,-0.1334977,0.389701396,-0.998701394,20,13,159,127,272
1695162582262327200,-8.920795441,-1.742978811,-1.442506552,-0.375978559,0.044499233,-0.204509944,-4,18,-17,19,9,1.628057122,1.538274646,6.64869833,-0.045032158,0.412483901,-1.004030585,23,13,157,127,273
1695162582305304400,-9.045293808,-1.732204914,-1.550245643,-0.44619143,0.072477795,-0.189588055,-2,22,-18,18,12,-3.08133769,5.861005783,7.396886349,0.377977014,0.594611049,-1.125271082,21,14,153,126,266
1695162582306304400,-9.052476883,-1.729810715,-1.547851443,-0.446324646,0.07274425,-0.186257273,-4,19,-20,15,14,-3.307589531,6.090848923,7.460332394,0.308963239,0.560770333,-1.123272657,22,19,155,126,268
1695162582307304400,-9.063250542,-1.734599113,-1.549048543,-0.445924938,0.07301072,-0.182526797,-8,19,-17,15,12,-3.445256233,6.230909824,7.495048523,0.260866761,0.536122501,-1.120075107,23,20,156,127,266
1695162582308304400,-9.072827339,-1.736993313,-1.552639842,-0.444992334,0.073143952,-0.178529859,-7,19,-19,19,7,-3.637989521,6.410475254,7.538144112,0.187589586,0.496819288,-1.112347603,23,17,157,126,267
1695162582309304400,-9.076418877,-1.738190413,-1.55862534,-0.443526804,0.073143952,-0.174133226,-8,17,-19,18,9,-3.810372114,6.557718277,7.566874504,0.114578865,0.45445177,-1.100756526,21,21,152,126,266
1695162582353274500,-9.117119789,-1.780089021,-1.56221664,-0.358658493,0.080871366,-0.044765696,-4,18,-17,19,11,-3.624821424,7.000645638,7.845798969,-0.084335379,-0.065150075,-0.452719748,25,19,157,126,263
1695162582354274500,-9.118317604,-1.78128612,-1.564610839,-0.351996928,0.081537522,-0.035972435,-6,21,-19,16,7,-3.529053211,7.013813972,7.884106159,-0.058488514,-0.055690661,-0.417413473,23,19,152,125,265
1695162582355274500,-9.118317604,-1.789665818,-1.56221664,-0.345335364,0.08233691,-0.027045943,-4,22,-19,22,9,-3.433285236,7.028179169,7.923610687,-0.035039816,-0.045032158,-0.383173048,25,20,153,126,262
1695162582356274500,-9.114726067,-1.795651317,-1.555034041,-0.33867383,0.083003066,-0.01825268,-1,21,-20,16,8,-3.347094059,7.036558628,7.961917877,-0.014255743,-0.034240428,-0.349998444,26,16,153,126,265
1695162582357274500,-9.113529205,-1.800439715,-1.547851443,-0.33187899,0.083935678,-0.009459418,-4,22,-17,19,8,-3.258508444,7.035361767,7.991845131,0.003996937,-0.023981623,-0.318422645,23,17,151,126,265
1695162582409242700,-9.075222015,-1.909375906,-1.431732655,-0.243946403,0.07993874,0.12337213,-6,19,-20,20,9,-1.023521185,5.694608688,8.449137688,0.112313934,-0.006794794,0.041434918,29,17,145,126,260
1695162582410242700,-9.071630478,-1.915361404,-1.420958757,-0.243679941,0.077540584,0.127369061,-6,21,-19,17,8,-0.93134445,5.61919117,8.474276543,0.120041348,-0.010125575,0.049961712,26,16,152,127,263
1695162582411242700,-9.075222015,-1.921346903,-1.406593442,-0.244212866,0.074875958,0.130833074,-1,19,-21,17,9,-0.841561913,5.550956726,8.494627953,0.12723583,-0.012257273,0.057422664,25,16,149,125,261
1695162582412242700,-9.077615738,-1.924938202,-1.397016644,-0.245012254,0.07194487,0.133897394,-2,25,-19,18,12,-0.758961916,5.488707542,8.512583733,0.133897394,-0.013456355,0.063684531,26,15,149,125,260
1695162582413242700,-9.078812599,-1.926135302,-1.392228246,-0.246344566,0.068747319,0.136428788,-6,19,-20,17,10,-0.687135875,5.434837818,8.530540466,0.139493108,-0.01385605,0.068747319,31,18,148,127,263
1695162582457215400,-9.206902504,-1.953668594,-1.413776159,-0.338540584,-0.003863706,0.136695251,-2,21,-21,20,10,-0.217872351,4.680664539,8.497021675,0.104852989,0.005062787,0.013456355,26,19,147,125,260
1695162582458215400,-9.210494041,-1.957259893,-1.41138196,-0.343603373,-0.006261868,0.136828482,-6,18,-21,-2,9,-0.227449164,4.639962673,8.476671219,0.105785601,0.005196018,0.006661562,25,19,147,124,262
1695162582459215400,-9.210494041,-1.957259893,-1.419761658,-0.348399699,-0.008393568,0.136961713,-5,19,-16,20,9,-0.240617275,4.598064423,8.452729225,0.107517615,0.005196018,-0.000133231,25,15,151,125,261
1695162582460215400,-9.212887764,-1.963245392,-1.425747156,-0.352796346,-0.010258805,0.137494639,-6,18,-19,18,8,-0.252588272,4.56933403,8.435969353,0.109249614,0.004929556,-0.004663093,25,15,147,126,258
1695162582461215400,-9.214085579,-1.966836691,-1.428141356,-0.356926501,-0.01185758,0.138160795,-6,17,-16,18,10,-0.275333196,4.525041103,8.414422035,0.112313934,0.003996937,-0.011591119,28,14,149,126,261
1695162582498191900,-9.117119789,-2.126051188,-1.479616642,-0.298437983,-0.027045943,0.215967834,-8,18,-20,14,7,-0.509964943,4.005499363,7.691372871,0.217166916,-0.045698319,-0.114312403,22,19,147,127,260
1695162582499191900,-9.10634613,-2.139219284,-1.478419542,-0.28671363,-0.027445635,0.223961711,-7,17,-20,16,9,-0.507570744,3.982754469,7.647080421,0.224094957,-0.045698319,-0.118309341,21,12,147,125,257
1695162582500191900,-9.095572472,-2.148796082,-1.471236944,-0.274056673,-0.028245023,0.23222205,-4,19,-20,18,11,-0.502782345,3.961206675,7.595604897,0.231422648,-0.045298621,-0.122173049,20,16,148,125,257
1695162582501191900,-9.084798813,-2.161964178,-1.460463047,-0.260600299,-0.028911179,0.240748852,-10,19,-19,15,7,-0.503979445,3.934870481,7.54532671,0.239150077,-0.043966308,-0.12616998,21,19,145,127,257
1695162582502191900,-9.0740242,-2.176329374,-1.453280449,-0.246611029,-0.029843798,0.249275655,-4,17,-19,18,8,-0.503979445,3.904942989,7.496245384,0.247543648,-0.042633995,-0.129767224,19,13,147,125,257
1695162582549163400,-8.908824921,-2.361880064,-1.319205165,0.047030624,-0.069013782,0.399826974,-4,19,-21,15,7,-0.918176353,3.300406933,6.533776283,0.65656352,-0.149352223,-0.17506586,-8,16,133,120,256
1695162582550163400,-8.902838707,-2.370259762,-1.310825467,0.059954058,-0.07274425,0.405289441,-11,17,-20,18,7,-0.919373453,3.295618534,6.50983429,0.675882041,-0.159611031,-0.173733547,-9,15,132,116,256
1695162582551163400,-8.901641846,-2.381033659,-1.302445769,0.072078094,-0.077007659,0.410485446,-8,20,-20,18,8,-0.920570552,3.293224335,6.477512836,0.703061283,-0.175199077,-0.170935676,-12,17,129,116,254
1695162582552163400,-8.900444984,-2.387019157,-1.289277673,0.083535992,-0.081404284,0.415281773,-4,21,-20,15,11,-0.919373453,3.301604033,6.443994045,0.727842271,-0.190387443,-0.167338446,-11,20,132,116,256
1695162582553163400,-8.898050308,-2.390610456,-1.280897856,0.094327718,-0.086067379,0.419545174,-6,18,-21,16,9,-0.919373453,3.313575268,6.415263653,0.749692142,-0.205042884,-0.163474724,-11,17,128,115,252
1695162582590138100,-9.054870605,-2.366668463,-1.325190663,0.12337213,-0.19838132,0.385970891,-10,17,-23,16,12,-0.169988319,3.587711334,5.436035156,0.703460932,-0.161209792,-0.141091883,-22,13,79,93,256
1695162582591138100,-9.071630478,-2.360682964,-1.344344258,0.115511484,-0.203843787,0.378643185,-8,17,-20,14,8,-0.137666598,3.563769341,5.365406036,0.692269564,-0.133364469,-0.13762787,-22,9,78,88,252
1695162582592138100,-9.087192535,-2.355894566,-1.357512355,0.106718227,-0.209173039,0.370782524,-6,17,-21,14,10,-0.114921682,3.525461912,5.291185856,0.683742702,-0.103787132,-0.133364469,-23,13,71,84,253
1695162582593138100,-9.099164009,-2.348711967,-1.373074651,0.097258806,-0.214102611,0.362388968,-7,21,-18,18,11,-0.098162271,3.49673152,5.224148273,0.677880526,-0.072611026,-0.128035218,-21,13,66,85,252
1695162582594138100,-9.113529205,-2.345120668,-1.388636947,0.086999997,-0.218898922,0.353595704,-6,20,-22,19,2,-0.086191259,3.476380825,5.157110691,0.673350692,-0.039303213,-0.122439511,-19,12,62,81,253
1695162582640110000,-9.198522568,-2.412158251,-1.720233917,-0.091130167,-0.249009192,0.151617154,-6,20,-21,16,8,-0.381875157,3.452438831,4.887762547,0.722912669,1.205609441,-0.073810108,-33,14,-6,44,233
1695162582641110000,-9.191340446,-2.41574955,-1.738190413,-0.095260337,-0.246877491,0.140692189,-7,17,-20,16,8,-0.438138902,3.434482336,4.768052578,0.752489984,1.280352235,-0.072344564,-35,14,-2,42,226
1695162582642110000,-9.18296051,-2.421735048,-1.756146908,-0.098591112,-0.24461256,0.129500762,-8,12,-21,16,8,-0.526724398,3.508702517,4.807557106,0.777271032,1.351897359,-0.078739658,-31,17,-2,41,224
1695162582643110000,-9.172186852,-2.426523447,-1.769315004,-0.101255737,-0.242081165,0.118709028,-8,19,-20,19,1,-0.574608386,3.568557739,4.851849556,0.777803957,1.409719825,-0.090197548,-33,15,-4,38,225
1695162582644110000,-9.162610054,-2.428917646,-1.787271619,-0.102987751,-0.23941654,0.10778407,-10,19,-20,22,8,-0.661996782,3.627215624,4.844666958,0.764347613,1.504047513,-0.117643185,-34,17,-3,40,222
1695162582686084900,-8.923190117,-2.274491549,-1.981201887,-0.080338441,-0.1672052,-0.073543645,-3,17,-22,14,11,-3.490746021,4.411316395,4.617218018,0.58275342,2.370983362,-1.488326192,-39,13,-36,31,209
1695162582687084900,-8.913613319,-2.263717651,-1.989581585,-0.077007659,-0.162408888,-0.080604896,-5,18,-23,16,11,-3.593696833,4.41849947,4.638765812,0.558505356,2.399894238,-1.590914249,-38,16,-39,31,208
1695162582688084900,-8.906430244,-2.246958256,-1.996764183,-0.073410407,-0.157745793,-0.086999997,-9,18,-22,15,9,-3.677493811,4.404133797,4.669890404,0.538387418,2.427872896,-1.692036748,-39,15,-36,31,208
1695162582689084900,-8.899248123,-2.23259306,-2.001552582,-0.069679938,-0.152949467,-0.093128636,-6,17,-19,16,7,-3.75650239,4.395754337,4.726154327,0.516937196,2.455585003,-1.791160822,-39,13,-39,31,206
1695162582690084900,-8.888473511,-2.217030764,-2.011129379,-0.065816231,-0.148286372,-0.098857582,-6,18,-19,14,10,-3.815160513,4.38617754,4.786009312,0.494820833,2.484895706,-1.888952494,-41,14,-43,26,205
1695162582730058200,-9.107542992,-1.938106298,-2.057816267,-0.009592649,-0.061952524,-0.124571204,-12,17,-21,18,9,-5.844246387,4.280832767,4.727351189,0.268727422,2.836626291,-3.396730423,-42,15,-46,16,202
1695162582731058200,-9.136273384,-1.934514999,-2.061407566,-0.006128637,-0.059287902,-0.122173049,-8,18,-19,18,7,-6.028599739,4.308365822,4.692635536,0.26806125,2.820238829,-3.459748745,-43,10,-48,17,200
1695162582732058200,-9.165003777,-1.929726601,-2.057816267,-0.002531394,-0.057022974,-0.119508423,-7,17,-23,14,7,-6.212953568,4.333505154,4.671087742,0.266595691,2.799987555,-3.52116847,-42,16,-45,20,200
1695162582733058200,-9.194931984,-1.926135302,-2.056619167,0.001465544,-0.055157732,-0.116843797,-5,19,-20,16,5,-6.329071999,4.340687752,4.657919407,0.266862184,2.784266472,-3.560471535,-43,11,-49,18,198
1695162582734058200,-9.222464561,-1.922544003,-2.062604666,0.005728943,-0.053692192,-0.113912709,-5,17,-19,16,8,-6.497863293,4.344278812,4.639962673,0.268460959,2.758686066,-3.616828442,-43,3,-49,24,198
1695162582783032000,-9.28591156,-1.796848416,-2.223016262,0.038503829,-0.019318528,-0.102321595,-4,17,-23,18,9,-8.884882927,2.984372377,4.225766182,0.725577295,2.034307718,-3.862240314,-44,10,-49,15,197
1695162582784032000,-9.267954826,-1.794454217,-2.224213362,0.034240428,-0.013323124,-0.105385914,-7,17,-17,18,8,-9.046490669,2.912546396,4.131195068,0.794058144,1.987410426,-3.835593939,-42,5,-54,14,196
1695162582785032000,-9.246406555,-1.794454217,-2.225410461,0.029977029,-0.006128637,-0.108450226,-8,17,-17,15,11,-9.18894577,2.845508814,4.01747036,0.868401229,1.938781023,-3.80828166,-43,8,-49,15,200
1695162582786032000,-9.22725296,-1.793257117,-2.225410461,0.026246555,0.002664625,-0.111647777,-6,18,-17,19,5,-9.352949142,2.782062292,3.910928488,0.946341515,1.888019919,-3.780303001,-42,9,-47,14,198
1695162582787032000,-9.211690903,-1.790862918,-2.224213362,0.023049004,0.012390506,-0.114845328,-4,17,-21,14,9,-9.540893555,2.726995707,3.79600668,1.030543685,1.835393667,-3.748860836,-43,11,-47,9,197
1695162582829001100,-8.998606682,-1.887827992,-2.031480074,0.038903523,0.160277188,-0.200113311,-4,18,-16,17,9,-13.3847847,2.829946518,1.012747288,3.32332015,0.690004587,-3.012891293,-39,9,-43,15,197
1695162582830001100,-8.985439301,-1.890222192,-2.018311977,0.046098009,0.16467382,-0.204909652,-4,17,-18,16,9,-13.60265732,2.887407303,0.872686505,3.467209816,0.643773377,-2.973987579,-41,8,-44,15,198
1695162582831001100,-8.975862503,-1.890222192,-2.003946781,0.053825419,0.168803975,-0.209306285,-4,19,-21,18,8,-13.74990082,2.923320293,0.77931267,3.562470198,0.614595711,-2.949606419,-41,8,-41,15,194
1695162582832001100,-8.961497307,-1.890222192,-1.984793186,0.061952524,0.173200607,-0.213702917,-4,21,-20,15,9,-13.97615242,2.977189779,0.641646028,3.70755887,0.574093461,-2.913234234,-39,4,-43,16,197
1695162582833001100,-8.949525833,-1.890222192,-1.965639591,0.070346095,0.17759724,-0.217833072,-4,22,-23,14,8,-14.2047987,3.053804159,0.513556242,3.855312347,0.538520634,-2.879393578,-42,3,-41,15,194
1695162582868984800,-8.838195801,-1.678335428,-1.675941229,0.2290245,0.232621744,-0.237018377,-5,21,-17,21,9,-18.06305504,7.742848396,0.246602774,4.365588188,0.925690591,-3.04526639,-39,4,-35,14,196
1695162582869984800,-8.838195801,-1.663970232,-1.660378933,0.235552832,0.232355282,-0.234353751,-8,20,-19,18,7,-18.13966942,8.186972618,0.272938997,4.365588188,0.968191385,-3.103222132,-39,7,-36,13,199
1695162582870984800,-8.83699894,-1.648407817,-1.643619418,0.24154824,0.231822357,-0.231555894,-7,21,-21,14,3,-18.18875122,8.629899979,0.300472319,4.365588188,1.004297137,-3.165840626,-39,7,-36,15,198
1695162582871984800,-8.834604263,-1.634042621,-1.625662923,0.247277185,0.231022969,-0.228091896,-7,21,-19,16,8,-18.19832802,8.935160637,0.323217243,4.365588188,1.024415016,-3.209673643,-42,7,-36,12,195
1695162582872984800,-8.832210541,-1.624465823,-1.607706428,0.252606452,0.229690656,-0.224494636,-4,22,-20,19,7,-18.18515968,9.364919662,0.338779539,4.365588188,1.05079484,-3.280952454,-42,3,-38,15,196
1695162582922950100,-8.774748802,-1.368286252,-1.419761658,0.260733545,0.184525266,-0.114578865,-2,18,-19,13,8,-13.14536476,13.01966858,1.55982244,2.123572588,0.867202163,-3.310263395,-42,4,-35,14,194
1695162582923950100,-8.77834034,-1.364694953,-1.41257906,0.25660339,0.181061253,-0.107117914,-4,18,-18,17,8,-12.76109505,12.81496429,1.577778935,1.783033729,0.858542085,-3.203811646,-41,2,-35,13,193
1695162582924950100,-8.780735016,-1.361103654,-1.408987641,0.252073497,0.177464008,-0.099790201,-10,17,-22,16,9,-12.39717674,12.58751583,1.583764434,1.447957039,0.851081192,-3.084303141,-43,4,-36,15,194
1695162582925950100,-8.783128738,-1.358709455,-1.41138196,0.247277185,0.173733547,-0.092196018,-4,19,-17,16,9,-12.06079102,12.33253288,1.565807939,1.116078019,0.844419599,-2.955335379,-40,2,-36,15,196
1695162582926950100,-8.787917137,-1.351526856,-1.407790542,0.242214397,0.170003071,-0.084335379,-3,10,-18,17,11,-11.75672722,12.0488205,1.52630353,0.791260302,0.837225139,-2.816641808,-42,3,-36,13,196
1695162582961927800,-9.005789757,-1.492784739,-1.395819545,0.189454809,0.086200617,0.070479326,-5,17,-21,16,9,-10.13824749,5.309142113,0.531512797,-2.078407288,0.439130157,0.085667685,-41,2,-34,21,195
1695162582962927800,-9.020154953,-1.502361536,-1.399410844,0.189588055,0.081937209,0.07794027,-4,17,-16,16,11,-10.13226128,5.017049789,0.526724398,-2.033908129,0.402225107,0.202511474,-39,3,-33,21,196
1695162582963927800,-9.033323288,-1.513135433,-1.398213744,0.189854518,0.077807046,0.085267991,-10,19,-15,17,9,-10.12867069,4.747702122,0.524330199,-1.972621799,0.365852982,0.31216079,-39,-2,-33,20,189
1695162582964927800,-9.046490669,-1.52390933,-1.399410844,0.189987749,0.073810108,0.092196018,-10,19,-19,14,9,-10.11789608,4.486733913,0.521935999,-1.895480752,0.330280244,0.414082706,-42,-3,-34,16,194
1695162582965927800,-9.054870605,-1.529894829,-1.401805043,0.190254211,0.071278714,0.096725874,-6,19,-20,20,10,-10.10233402,4.242525578,0.525527298,-1.802885056,0.295640111,0.508143961,-41,-2,-32,20,193
1695162583004900300,-8.905233383,-1.704671621,-1.398213744,0.174399704,0.036905054,0.150284842,-10,20,-19,16,9,-9.561244011,3.289633036,0.808043063,1.028545141,-0.127901986,0.991373599,-33,-1,-29,26,192
1695162583005900300,-8.877699852,-1.70946002,-1.398213744,0.172534451,0.036238898,0.14748697,-11,17,-17,15,1,-9.550470352,3.373430252,0.848744512,1.147254229,-0.135096475,0.973120987,-41,-3,-27,28,190
1695162583006900300,-8.85495472,-1.713051319,-1.398213744,0.170802444,0.035572741,0.144022971,-6,20,-20,15,7,-9.540893555,3.464409828,0.882263303,1.256637096,-0.141491577,0.95366919,-39,-3,-31,26,193
1695162583007900300,-8.829815865,-1.716642618,-1.397016644,0.169070452,0.035306279,0.140026033,-6,17,-17,18,6,-9.534908295,3.560178041,0.918176353,1.356427312,-0.147220522,0.933284819,-35,-2,-25,27,193
1695162583008900300,-8.802282333,-1.719036818,-1.392228246,0.167071983,0.034773353,0.135496169,-4,17,-16,16,13,-9.526528358,3.667917013,0.951695204,1.445692182,-0.152549773,0.911967814,-43,-2,-30,25,194
1695162583048874900,-8.403648376,-1.590947032,-1.45088625,0.122039817,0.029310873,0.053159267,-4,21,-20,20,8,-9.473855972,5.475539207,1.072602391,1.403990865,-0.333078086,0.489225119,-41,-2,-28,25,193
1695162583049874900,-8.39526844,-1.584961534,-1.455674648,0.124437973,0.029577335,0.05489127,-4,21,-20,16,11,-9.475052834,5.527014732,1.053448796,1.341372132,-0.347467095,0.47163859,-41,-5,-28,24,192
1695162583050874900,-8.386888504,-1.578976035,-1.466448545,0.128035218,0.029977029,0.057822358,-3,17,-20,16,10,-9.479841232,5.57250452,1.029506683,1.275955677,-0.36198926,0.455384374,-39,-2,-27,31,192
1695162583051874900,-8.377311707,-1.575384736,-1.467645645,0.132831544,0.030509954,0.061952524,-6,17,-19,16,8,-9.479841232,5.598840714,1.017535686,1.231323123,-0.371581942,0.44512558,-41,-2,-29,27,189
1695162583052874900,-8.373720169,-1.572990537,-1.473631144,0.13869372,0.031042879,0.067148544,-8,17,-20,14,9,-9.472659111,5.631162167,0.999579191,1.162575841,-0.385837674,0.430603355,-41,-2,-27,26,192
1695162583091850400,-8.889671326,-1.44849205,-1.659181833,0.352529854,0.041301683,0.33973965,-7,19,-21,18,8,-9.042900085,5.175066948,0.622492433,0.054491576,-0.478166908,0.437664628,-40,-3,-25,28,192
1695162583092850400,-8.937555313,-1.459265947,-1.666364431,0.366785586,0.040635526,0.361722827,-4,21,-20,20,9,-9.020154953,5.121197224,0.610521436,0.021450229,-0.470173031,0.454584986,-38,-2,-25,26,192
1695162583093850400,-8.989029884,-1.472434044,-1.67234993,0.381441027,0.03996937,0.384105653,-4,17,-20,16,7,-8.996212959,5.067327976,0.603338838,-0.009326187,-0.46124655,0.472837657,-39,-4,-28,26,192
1695162583094850400,-9.038111687,-1.48560214,-1.679532528,0.396629393,0.039303213,0.406488538,-6,20,-13,18,9,-8.968679428,5.009867191,0.598550439,-0.037437979,-0.451653898,0.492156208,-38,-2,-31,28,189
1695162583095850400,-9.090784073,-1.501164436,-1.679532528,0.412483901,0.038503829,0.429271042,-4,21,-20,18,11,-8.939949036,4.950012207,0.591367841,-0.062352221,-0.440595686,0.512673795,-38,-2,-21,29,194
1695162583132827200,-9.783905029,-1.946485996,-1.711854219,0.708790183,0.03956968,0.748093367,-1,17,-21,15,9,-8.765172005,4.034229755,0.648828685,-0.15481469,-0.152150065,0.923692167,-39,-3,-28,29,191
1695162583133827200,-9.8054533,-1.976413488,-1.713051319,0.719581902,0.039169986,0.75368911,-1,19,-22,19,7,-8.77235508,4.001908302,0.665588081,-0.149485439,-0.138826951,0.939813137,-38,-5,-23,29,190
1695162583134827200,-9.823410034,-2.00753808,-1.70826292,0.729574263,0.038903523,0.757419586,-6,17,-20,18,10,-8.780735016,3.97796607,0.678756177,-0.144689128,-0.126303226,0.954868257,-39,-3,-25,26,190
1695162583135827200,-9.836577415,-2.038662672,-1.704671621,0.738767207,0.038503829,0.75941807,-4,18,-19,17,9,-8.789113998,3.952826977,0.688332975,-0.140692189,-0.114179172,0.968591094,-39,-3,-25,28,188
1695162583136827200,-9.848548889,-2.068590164,-1.702277422,0.747294068,0.038104136,0.75941807,-4,19,-19,18,10,-8.793902397,3.925293684,0.697909772,-0.136029094,-0.102987751,0.981647789,-42,-5,-21,29,192
1695162583174804100,-9.582792282,-2.37624526,-1.543063045,0.762082696,0.084868304,0.458981633,-6,22,-17,19,13,-8.966285706,3.738545895,0.940921247,-0.238883615,-0.005196018,1.030410409,-41,-3,-22,29,191
1695162583175804100,-9.557653427,-2.381033659,-1.52510643,0.751823902,0.091130167,0.429937184,-8,22,-19,17,11,-8.972270966,3.734954596,0.950498104,-0.247943342,-0.004130168,1.025480866,-40,-2,-21,31,189
1695162583176804100,-9.531316757,-2.382230759,-1.509544134,0.740499258,0.0976585,0.400359869,-3,22,-19,20,8,-8.980650902,3.727771997,0.9660604,-0.262065858,-0.002797856,1.01748693,-41,-4,-20,31,195
1695162583177804100,-9.508571625,-2.37863946,-1.493981838,0.727842271,0.104453288,0.370249629,-2,19,-17,18,9,-8.986636162,3.7181952,0.980425596,-0.276588053,-0.001732006,1.008293986,-43,-2,-23,28,189
1695162583178804100,-9.479841232,-2.365471363,-1.477222443,0.714252651,0.111381322,0.33973965,-5,18,-19,13,7,-8.997409821,3.711012602,0.990002394,-0.29137671,-0.000799387,0.99883461,-41,-4,-23,27,193
1695162583219777200,-9.254786491,-2.112883091,-1.15161097,0.366652369,0.207973972,-0.25447166,-4,18,-21,15,9,-8.986636162,3.514688015,1.063025594,-0.530260324,0.019851454,0.74009949,-37,-3,-17,29,189
1695162583220777200,-9.258378029,-2.094926596,-1.134851575,0.348799407,0.206908107,-0.282849908,-7,18,-19,18,11,-8.979453087,3.509899616,1.065419793,-0.539852977,0.021983154,0.725843847,-35,-2,-19,28,192
1695162583221777200,-9.260771751,-2.079364061,-1.11689508,0.331346095,0.2051761,-0.310562044,-4,19,-21,16,9,-8.968679428,3.506308317,1.070208192,-0.549312413,0.024248086,0.711721301,-34,-4,-18,30,193
1695162583222777200,-9.26556015,-2.061407566,-1.106121182,0.314425707,0.202911183,-0.337208271,-7,19,-19,18,8,-8.960299492,3.503914118,1.07619369,-0.558905005,0.02691271,0.697732031,-39,-2,-21,30,193
1695162583223777200,-9.269151688,-2.043451071,-1.089361787,0.298038274,0.199713632,-0.363188356,-6,21,-20,14,11,-8.954314232,3.500322819,1.083376288,-0.568364441,0.029843798,0.684408903,-37,-5,-17,31,193
1695162583263752600,-9.279925346,-1.557428241,-1.069011092,0.054358348,0.105918832,-0.671085775,-10,17,-17,15,11,-8.767566681,3.330334663,1.148019671,-0.700796306,0.097525269,0.516537488,-37,-2,-19,31,193
1695162583264752600,-9.276334763,-1.528697729,-1.074996591,0.040901989,0.101388969,-0.677880526,-4,18,-19,16,9,-8.759186745,3.315969467,1.145625472,-0.702528298,0.100189894,0.511607945,-40,-2,-20,29,193
1695162583265752600,-9.269151688,-1.499967337,-1.080982089,0.027312404,0.096992344,-0.683343053,-7,19,-19,16,9,-8.752004623,3.303998232,1.148019671,-0.703727424,0.102454826,0.506944835,-39,-4,-16,31,192
1695162583266752600,-9.263166428,-1.468842745,-1.084573388,0.013456355,0.092995405,-0.687606394,-4,17,-18,23,10,-8.741230011,3.289633036,1.146822572,-0.704260349,0.104719758,0.502548277,-35,-9,-19,30,193
1695162583267752600,-9.260771751,-1.437718153,-1.090558887,-0.000666156,0.088865243,-0.691070437,-4,17,-17,15,8,-8.731653214,3.27167654,1.139639974,-0.704127073,0.106584989,0.4981516,-38,-3,-19,31,192
1695162583309725700,-9.117119789,-1.150413871,-1.231816769,-0.233421117,0.030776417,-0.607267976,-3,21,-20,16,11,-8.68975544,3.002328873,1.131260276,-0.591679931,0.098191425,0.42327565,-40,-5,-19,31,190
1695162583310725700,-9.10634613,-1.149216771,-1.237802267,-0.240482375,0.027578866,-0.59780854,-4,17,-17,18,11,-8.68975544,2.993949175,1.126471877,-0.582886636,0.096192956,0.418212861,-35,-3,-18,30,193
1695162583311725700,-9.096769333,-1.148019671,-1.250970364,-0.247010723,0.024381317,-0.588082671,-5,19,-19,20,12,-8.690952301,2.987963676,1.120486379,-0.574093461,0.094194487,0.412617147,-35,-3,-19,30,193
1695162583312725700,-9.089587212,-1.149216771,-1.259350061,-0.253139347,0.020917306,-0.57809037,-4,18,-18,20,10,-8.687360764,2.980781078,1.119289279,-0.565300167,0.092329249,0.406754971,-35,-3,-21,31,194
1695162583313725700,-9.080010414,-1.145625472,-1.261744261,-0.258335382,0.01718683,-0.567565084,-6,23,-15,18,9,-8.683769226,2.97479558,1.121683478,-0.55943799,0.090996936,0.402758032,-35,-5,-19,31,192
1695162583354700400,-8.926780701,-1.218648672,-1.380257249,-0.253272593,-0.070612557,-0.34227106,-6,21,-16,18,9,-8.535328865,2.908955097,1.083376288,-0.416747332,0.07301072,0.23222205,-38,-8,-16,31,192
1695162583355700400,-8.917203903,-1.22822547,-1.389834046,-0.248209804,-0.074609496,-0.330147028,-4,19,-13,23,12,-8.523358345,2.910152197,1.07858789,-0.411817759,0.073810108,0.220897391,-38,-2,-23,31,189
1695162583356700400,-8.908824921,-1.231816769,-1.397016644,-0.242880553,-0.078739658,-0.318422645,-3,21,-18,16,9,-8.514978409,2.914940596,1.07858789,-0.407421142,0.07474272,0.209439516,-39,3,-18,32,190
1695162583357700400,-8.898050308,-1.236605167,-1.399410844,-0.237418056,-0.082603365,-0.306565106,-7,20,-16,19,9,-8.505401611,2.918531895,1.07858789,-0.40355742,0.075941809,0.197581932,-37,-2,-12,31,194
1695162583358700400,-8.888473511,-1.237802267,-1.407790542,-0.23222205,-0.086067379,-0.295107216,-2,21,-15,16,11,-8.497021675,2.922123194,1.071405292,-0.39996019,0.07714089,0.185724348,-34,-4,-18,31,190
1695162583604412500,-8.834604263,-1.177947283,-1.534683347,-0.208373666,-0.115245022,-0.129900455,-5,20,-17,18,12,-8.456320763,3.035847664,1.07619369,-0.375312388,0.128168449,-0.057555895,-37,-4,-17,32,192
1695162583605412500,-8.839392662,-1.176750183,-1.539471745,-0.212903515,-0.115644716,-0.124171518,-6,19,-20,18,11,-8.458714485,3.045424461,1.067813993,-0.375045955,0.130699843,-0.070346095,-35,-4,-19,31,193
1695162583606412500,-8.852560997,-1.177947283,-1.545457244,-0.217833072,-0.115911178,-0.118309341,-2,22,-17,18,11,-8.459911346,3.052607059,1.063025594,-0.37451303,0.133231238,-0.083269522,-34,-2,-17,31,192
1695162583607412500,-8.857349396,-1.179144382,-1.550245643,-0.223295555,-0.116310872,-0.113246553,-3,18,-20,18,10,-8.459911346,3.055001259,1.058237195,-0.373846859,0.135362938,-0.095926493,-34,-3,-19,31,193
1695162583608412500,-8.865729332,-1.180341482,-1.553836942,-0.2290245,-0.116444103,-0.10805054,-6,19,-16,20,10,-8.463502884,3.063380957,1.053448796,-0.373047471,0.137361407,-0.108316995,-35,-5,-21,31,196
1695162583645389400,-8.962694168,-1.221042871,-1.643619418,-0.357059717,-0.126303226,-0.035705972,-4,21,-15,17,11,-8.616731644,3.205836058,0.974440098,-0.316157728,0.155081168,-0.29710567,-37,-3,-17,31,194
1695162583646389400,-8.965087891,-1.221042871,-1.651999116,-0.363721281,-0.126836136,-0.032774884,-3,19,-21,18,9,-8.632294655,3.214215755,0.974440098,-0.310295552,0.156546697,-0.304566622,-35,-2,-17,31,192
1695162583647389400,-8.965087891,-1.223437071,-1.659181833,-0.370649308,-0.127369061,-0.029843798,-4,21,-16,18,11,-8.646659851,3.222595453,0.970848799,-0.304033697,0.15787901,-0.311894357,-35,-4,-17,31,192
1695162583648389400,-8.965087891,-1.224634171,-1.663970232,-0.377710581,-0.127768755,-0.02691271,-3,21,-16,19,8,-8.659827232,3.230975151,0.973242998,-0.297771841,0.159344569,-0.318822354,-40,-3,-16,31,195
1695162583649389400,-8.965087891,-1.22583127,-1.667561531,-0.384771824,-0.128035218,-0.024114855,-6,19,-18,19,10,-8.674192429,3.240551949,0.968454599,-0.291110277,0.160543635,-0.325350702,-33,-3,-18,31,192
1695162583690363400,-8.948328972,-1.278503656,-1.790862918,-0.50281471,-0.106185302,0.040502299,-7,21,-21,19,10,-8.826224327,3.606864929,1.058237195,-0.194917306,0.188522205,-0.412084222,-35,-2,-19,31,190
1695162583691363400,-8.951920509,-1.285686255,-1.798045516,-0.506145477,-0.103254206,0.045032158,-4,20,-14,18,8,-8.825027466,3.626018524,1.069011092,-0.19425115,0.189987749,-0.413416535,-33,-5,-18,31,191
1695162583692363400,-8.950722694,-1.294066072,-1.798045516,-0.509209812,-0.100056656,0.04969525,-4,19,-17,18,10,-8.825027466,3.637989521,1.071405292,-0.19425115,0.190653905,-0.414215922,-34,-2,-19,31,192
1695162583693363400,-8.951920509,-1.30005157,-1.800439715,-0.511874437,-0.097125575,0.054358348,-3,19,-18,17,8,-8.825027466,3.658340216,1.07619369,-0.194384381,0.191986218,-0.414882064,-37,-2,-17,32,193
1695162583694363400,-8.954314232,-1.308431268,-1.802833915,-0.514272571,-0.094061248,0.059287902,-4,25,-17,15,11,-8.827422142,3.676296711,1.07619369,-0.194917306,0.1931853,-0.41501531,-35,-3,-17,31,190
1695162583732339900,-9.03571701,-1.397016644,-1.768117905,-0.546248078,-0.046497703,0.15787901,-4,20,-17,20,10,-8.84896946,3.849876404,1.110909581,-0.221163854,0.171601832,-0.341604888,-38,-4,-16,30,190
1695162583733339900,-9.039308548,-1.404199243,-1.754949808,-0.549445629,-0.043699846,0.162941799,-6,19,-17,14,5,-8.84896946,3.851073503,1.110909581,-0.221030638,0.169203669,-0.334676892,-41,-2,-17,32,189
1695162583734339900,-9.041702271,-1.416170359,-1.739387512,-0.553176105,-0.040502299,0.16827105,-6,17,-19,15,9,-8.845377922,3.854664803,1.11569798,-0.220497698,0.1672052,-0.327615619,-33,-2,-17,30,192
1695162583735339900,-9.040505409,-1.424550056,-1.717839718,-0.557039797,-0.036638591,0.17346707,-4,22,-20,17,8,-8.845377922,3.860650301,1.120486379,-0.219565079,0.165073514,-0.320287883,-35,-5,-16,31,194
1695162583736339900,-9.041702271,-1.432929754,-1.687912226,-0.561702907,-0.031842265,0.178529859,-8,11,-19,14,9,-8.841787338,3.860650301,1.119289279,-0.218366012,0.162542105,-0.312960178,-37,-4,-17,30,188
1695162583781312900,-9.373299599,-0.994790792,-1.113303781,-1.119009137,0.021183766,0.088465542,-4,19,-21,15,9,-8.720879555,3.906140089,1.18752408,-0.189854518,0.13656202,-0.159611031,-35,-7,-19,31,192
1695162583782312900,-9.379284859,-0.945709646,-1.138442874,-1.190421104,0.000133231,0.068081163,-8,17,-22,16,8,-8.718485832,3.904942989,1.193509579,-0.188788652,0.135229707,-0.151350692,-31,-3,-15,31,192
1695162583783312900,-9.380482674,-0.900219858,-1.167173386,-1.266762614,-0.022649311,0.047030624,-6,18,-20,17,9,-8.717288017,3.90374589,1.199495077,-0.18798928,0.133630931,-0.142957121,-34,-3,-17,31,193
1695162583784312900,-9.384073257,-0.860715508,-1.195903778,-1.347101092,-0.046630934,0.025047474,-6,18,-20,18,9,-8.718485832,3.90135169,1.205480576,-0.186790213,0.13243185,-0.134696782,-35,-3,-17,30,194
1695162583785312900,-9.384073257,-0.833182216,-1.229422569,-1.430903554,-0.071411945,0.002797856,-6,19,-23,15,11,-8.717288017,3.900154591,1.207874775,-0.18599081,0.131099537,-0.126569673,-34,-3,-18,31,189
1695162583817293900,-9.041702271,-2.219424963,-1.640028119,-2.457583427,-0.2311562,-0.138560489,-6,18,-18,16,9,-8.845377922,3.846285105,1.276109457,-0.149218991,0.070745789,0.019584993,-35,-3,-13,31,194
1695162583818293900,-9.036913872,-2.318784237,-1.657984734,-2.441595554,-0.218366012,-0.130166918,-6,17,-18,16,8,-8.85495472,3.840299606,1.276109457,-0.145355284,0.065016843,0.027045943,-34,-4,-17,31,193
1695162583819293900,-9.034520149,-2.419340849,-1.67234993,-2.416947842,-0.205575794,-0.120973967,-2,17,-21,19,7,-8.863334656,3.839102507,1.276109457,-0.141491577,0.059154671,0.034506891,-35,-5,-15,31,193
1695162583820293900,-9.030928612,-2.522291422,-1.695094824,-2.383773327,-0.193318531,-0.110981621,-6,21,-17,17,8,-8.870517731,3.834314108,1.271321058,-0.137361407,0.053159267,0.042101074,-34,-4,-17,31,190
1695162583821293900,-9.028534889,-2.618059635,-1.716642618,-2.342338324,-0.181460962,-0.100323126,-6,19,-22,14,8,-8.878896713,3.830722809,1.271321058,-0.133098006,0.046764165,0.049828485,-39,-2,-18,31,192
1695162583856269200,-9.105149269,-3.309983969,-1.764526606,-0.722379804,-0.156280249,0.181727409,-1,19,-21,19,9,-8.959102631,3.742137194,1.213860273,-0.052759573,-0.049828485,0.206908107,-34,-2,-17,31,193
1695162583857269200,-9.10036087,-3.27407074,-1.764526606,-0.636445642,-0.161875948,0.192785591,-2,18,-13,22,10,-8.961497307,3.733757496,1.210268974,-0.048762634,-0.052226644,0.214768767,-35,-2,-14,31,196
1695162583858269200,-9.09437561,-3.23576355,-1.766920805,-0.554375172,-0.167071983,0.203044415,-3,19,-16,22,11,-8.966285706,3.727771997,1.198297977,-0.044898927,-0.054491576,0.22236295,-31,-5,-16,31,192
1695162583859269200,-9.088389397,-3.19625926,-1.769315004,-0.476035208,-0.172001526,0.212104142,-8,19,-19,19,9,-8.972270966,3.720589399,1.192312479,-0.04103522,-0.056490045,0.229690656,-35,-4,-17,31,192
1695162583860269200,-9.078812599,-3.153163671,-1.762132406,-0.401825428,-0.176531389,0.219964772,-7,21,-20,16,9,-8.974664688,3.711012602,1.185129881,-0.037437979,-0.058355279,0.236751899,-37,-4,-17,30,193
1695162583921232500,-8.937555313,-2.363077164,-1.720233917,0.252206743,-0.175199077,0.223961711,-7,21,-13,20,12,-8.920795441,3.568557739,1.164779186,-0.000133231,-0.08020521,0.325750381,-38,-4,-17,31,192
1695162583922232500,-8.933963776,-2.334346771,-1.711854219,0.257802457,-0.171601832,0.220231235,-4,20,-17,20,10,-8.912415504,3.561375141,1.165976286,-0.00106585,-0.08020521,0.327748835,-35,-5,-19,31,195
1695162583923232500,-8.926780701,-2.309207439,-1.713051319,0.261932611,-0.167871356,0.216234297,-5,19,-19,22,9,-8.904036522,3.552995205,1.162384868,-0.0021317,-0.080071971,0.32934764,-34,-2,-16,31,191
1695162583924232500,-8.921992302,-2.286462545,-1.71065712,0.264197558,-0.16414088,0.212104142,-6,22,-18,20,7,-8.895656586,3.544615507,1.161187768,-0.003464012,-0.080071971,0.330813169,-37,-4,-17,31,189
1695162583925232500,-8.923190117,-2.262520552,-1.705868721,0.264996946,-0.160543635,0.207973972,-6,19,-16,16,8,-8.889671326,3.537432909,1.157596469,-0.004663093,-0.07993874,0.331612557,-35,-3,-17,30,192
1695162584001795400,-8.955511093,-2.096123695,-1.70826292,0.161875948,-0.118309341,0.129500762,-3,21,-19,19,11,-9.108740807,4.586093426,1.240196466,0.107650839,0.030376723,0.222096488,-38,-5,-18,29,189
1695162584002795400,-8.956708908,-2.094926596,-1.70946002,0.155880541,-0.117643185,0.125903517,-6,23,-22,18,13,-9.1326828,4.742913723,1.26294136,0.116577335,0.038637057,0.219431862,-35,-7,-16,31,190
1695162584003795400,-8.957905769,-2.099714994,-1.715445518,0.150018379,-0.11711026,0.122572735,-7,19,-20,20,9,-9.159018517,4.922478676,1.283292055,0.124171518,0.046364475,0.220231235,-37,-4,-16,30,193
1695162584004795400,-8.960299492,-2.105700493,-1.720233917,0.144555897,-0.116577335,0.119375192,-4,25,-16,20,11,-9.187748909,5.124788761,1.310825467,0.129767224,0.0528928,0.224228173,-38,-2,-17,31,189
1695162584005795400,-8.962694168,-2.110488892,-1.725022316,0.139626339,-0.116177641,0.116177641,-8,19,-12,22,11,-9.217676163,5.342660904,1.343147159,0.134030625,0.057156201,0.232621744,-37,-4,-15,31,192
1695162584038773800,-8.960299492,-2.187103271,-1.89860189,0.122572735,-0.094594181,0.059287902,-7,17,-16,16,8,-9.862914085,9.270348549,1.959654093,-0.266329229,-0.507744253,1.306865215,-38,-3,-18,30,193
1695162584039773800,-8.960299492,-2.189497471,-1.906981707,0.125104129,-0.091529861,0.056356817,-6,19,-17,19,9,-9.891644478,9.346963882,1.97042799,-0.276588053,-0.555041373,1.396130085,-35,-5,-13,31,194
1695162584040773800,-8.959102631,-2.19428587,-1.917755604,0.127901986,-0.08833231,0.053159267,-3,19,-21,17,8,-9.919178009,9.417592049,1.982398987,-0.281650841,-0.601405799,1.484728932,-31,-5,-15,31,192
1695162584041773800,-8.956708908,-2.19428587,-1.926135302,0.130566612,-0.084735066,0.04969525,-7,21,-20,16,8,-9.943120003,9.478644371,1.995567083,-0.281384379,-0.64617151,1.571862102,-38,-3,-17,31,192
1695162584042773800,-8.953117371,-2.197877169,-1.934514999,0.133364469,-0.081137821,0.046098009,-7,20,-21,17,9,-9.962273598,9.531316757,2.014720678,-0.276055127,-0.688938737,1.657130122,-39,-5,-18,31,193
1695162584087749100,-9.003395081,-2.170343876,-2.000355482,0.146421134,0.007460949,-0.060486984,-3,20,-17,15,11,-9.707290649,10.79904652,2.493561029,0.198514536,-1.154981613,2.904174566,-35,-5,-13,37,191
1695162584088749100,-9.010578156,-2.163161278,-1.999158382,0.144689128,0.01292343,-0.068614088,-4,17,-17,26,9,-9.695320129,10.9199543,2.52947402,0.206108719,-1.17803061,2.962929487,-34,-4,-13,42,194
1695162584089749100,-9.020154953,-2.160767078,-1.996764183,0.143090352,0.01825268,-0.076874427,-7,18,-19,18,8,-9.685743332,11.04086113,2.553416014,0.209839195,-1.202678323,3.021284819,-33,-7,-13,37,194
1695162584090749100,-9.030928612,-2.15478158,-1.988384485,0.141225114,0.02358193,-0.085401222,-2,21,-17,20,8,-9.673771858,11.16176796,2.589329243,0.209705979,-1.229058146,3.079373837,-37,-7,-13,40,193
1695162584091749100,-9.041702271,-2.148796082,-1.985990286,0.139093414,0.028644716,-0.094194487,-6,19,-17,16,9,-9.667786598,11.26711273,2.622848034,0.207041353,-1.257169962,3.138128757,-35,-4,-15,40,193
1695162584253504300,-9.174580574,-1.977610588,-1.895010591,0.063950993,0.105785601,-0.25766921,-8,18,-10,19,10,-8.918401718,11.58554173,2.955641985,0.056223582,-1.849782586,4.028379917,-38,-7,-4,58,192
1695162584254504300,-9.172186852,-1.97162509,-1.891419291,0.059021436,0.109649308,-0.265796334,-3,19,-20,19,11,-8.852560997,11.58434486,3.005920172,0.071811639,-1.873231292,4.059289455,-35,-6,-2,62,196
1695162584255504300,-9.173383713,-1.968033791,-1.889025092,0.054225113,0.113379791,-0.273923427,-3,17,-17,22,11,-8.780735016,11.57596493,3.055001259,0.084868304,-1.894548297,4.085802555,-34,-6,-3,63,182
1695162584256504300,-9.174580574,-1.960851192,-1.884236693,0.049562022,0.117509954,-0.281650841,-7,17,-22,18,9,-8.705317497,11.54603767,3.106476784,0.100456357,-1.913866758,4.110450268,-37,-7,-3,64,194
1695162584257504300,-9.17098999,-1.953668594,-1.878251195,0.044898927,0.121373661,-0.289111793,-3,19,-22,20,12,-8.653841972,11.52329254,3.145981073,0.112713635,-1.925324678,4.126437664,-36,-6,-3,64,194
1695162584402418600,-9.127894402,-1.853112102,-1.723825216,0.022649311,0.195050538,-0.38277334,-4,21,-22,15,9,-6.931213856,10.9893856,2.929305792,0.435532928,-1.730007648,4.365588188,-39,-5,16,96,216
1695162584403418600,-9.125499725,-1.847126603,-1.71065712,0.025447167,0.197315469,-0.38490504,-5,17,-22,22,9,-6.817489147,10.91636276,2.942473888,0.442327708,-1.722679973,4.365588188,-38,-4,23,101,218
1695162584404418600,-9.123106003,-1.842338204,-1.698686123,0.028777948,0.199180692,-0.386770278,-4,21,-21,18,8,-6.690596581,10.84214211,2.983175278,0.447257251,-1.715751886,4.365588188,-40,-5,25,104,221
1695162584405418600,-9.124302864,-1.842338204,-1.687912226,0.032508422,0.201045945,-0.388369083,-6,17,-21,18,4,-6.543353081,10.78587818,3.046621561,0.450987756,-1.705759645,4.365588188,-42,-5,25,100,222
1695162584406418600,-9.123106003,-1.835155606,-1.680729628,0.03650536,0.202777937,-0.389701396,-7,19,-18,18,9,-6.381744862,10.72243214,3.130418777,0.452719748,-1.691903591,4.365588188,-38,-3,30,109,224
1695162584484373300,-9.078812599,-1.689109325,-1.502361536,0.149885148,0.201978564,-0.345468611,-5,21,-19,18,8,-3.90254879,9.647436142,3.581725836,-0.342670739,-1.032808542,3.959099531,-30,-5,94,132,259
1695162584485373300,-9.075222015,-1.680729628,-1.495178938,0.155081168,0.200513005,-0.33973965,-8,17,-17,15,7,-3.772064686,9.557653427,3.618835926,-0.413416535,-1.008427262,3.909271002,-27,-5,96,136,261
1695162584486373300,-9.070432663,-1.674744129,-1.491587639,0.158545166,0.199713632,-0.335742712,-3,17,-18,16,10,-3.649960518,9.453505516,3.64158082,-0.484029084,-0.984712064,3.861840725,-21,-4,98,134,262
1695162584487373300,-9.064447403,-1.665167332,-1.480813742,0.163474724,0.19838132,-0.32934764,-4,21,-20,19,8,-3.518279314,9.367314339,3.660734415,-0.554375172,-0.960464001,3.816408873,-25,-5,104,137,264
1695162584488373300,-9.057265282,-1.653196216,-1.476025343,0.168004602,0.196782529,-0.322952509,-2,19,-16,19,13,-3.386598349,9.272743225,3.663128614,-0.619924963,-0.933551252,3.771643162,-17,-8,106,136,264
1695162584572320800,-8.984241486,-1.55862534,-1.312022567,0.180528328,0.15681316,-0.190254211,-1,17,-18,15,9,-1.557428241,7.635109425,3.90374589,-1.28341651,-0.474036753,2.936416626,25,-3,129,145,273
1695162584573320800,-8.983044624,-1.56221664,-1.307234168,0.177996933,0.154015318,-0.184125587,-6,18,-19,18,8,-1.510741234,7.594407558,3.943250179,-1.30273509,-0.464577317,2.902842283,20,-2,130,144,269
1695162584574320800,-8.985439301,-1.568202138,-1.297657371,0.175199077,0.151084229,-0.178263396,-6,18,-19,18,10,-1.434126854,7.538144112,4.000710964,-1.332845211,-0.447124034,2.850482464,29,-2,132,145,272
1695162584575320800,-8.990227699,-1.572990537,-1.291671872,0.172267988,0.14801991,-0.172667682,-4,17,-12,22,12,-1.347935557,7.484274387,4.041412354,-1.365087271,-0.427672267,2.796790123,26,-3,129,144,266
1695162584576320800,-8.992621422,-1.578976035,-1.285686255,0.168803975,0.145088822,-0.167338446,-6,20,-19,15,8,-1.250970364,7.431602001,4.052186489,-1.398395061,-0.406488538,2.74203229,33,-2,132,144,270
1695162584656298200,-9.014169693,-1.67234993,-1.286883354,0.089931086,0.071145482,-0.123505361,-6,19,-21,19,11,0.426167905,5.972336292,3.746925592,-1.541218996,-0.117909648,1.923992276,45,0,138,143,264
1695162584657298200,-9.011775017,-1.680729628,-1.286883354,0.085534461,0.0678147,-0.123238891,-6,20,-20,14,5,0.48123455,5.924452305,3.742137194,-1.534957051,-0.116444103,1.906539083,47,7,135,143,264
1695162584658298200,-9.008183479,-1.686715126,-1.289277673,0.081004597,0.064883612,-0.123105668,-5,17,-21,20,11,0.566228688,5.839457989,3.750516891,-1.522833109,-0.114445634,1.878560543,46,4,137,140,265
1695162584659298200,-9.008183479,-1.692700624,-1.291671872,0.076607957,0.062218986,-0.123105668,-8,20,-20,18,9,0.647631586,5.748478413,3.780444384,-1.507111788,-0.110315464,1.849516153,52,8,135,142,264
1695162584660298200,-9.008183479,-1.697489023,-1.295263171,0.072211333,0.059820827,-0.123105668,-4,18,-17,19,8,0.725443125,5.670666695,3.813963413,-1.493122578,-0.103920363,1.81740725,47,4,136,143,265
1695162584735226800,-8.973467827,-1.70826292,-1.341950059,0.0,0.047963247,-0.135229707,-1,17,-21,18,12,2.494758129,4.467580318,3.918111086,-1.480998516,0.219565079,0.789128661,46,12,135,137,260
1695162584736226800,-8.971074104,-1.704671621,-1.33955586,-0.004529862,0.047563553,-0.136428788,-5,21,-17,18,8,2.570175409,4.303577423,3.896563292,-1.468607903,0.231555894,0.742630899,45,12,137,138,262
1695162584737226800,-8.971074104,-1.704671621,-1.344344258,-0.009059724,0.04729709,-0.137494639,-4,19,-17,17,10,2.63601613,4.135983467,3.871424198,-1.449822307,0.239949465,0.70066309,47,5,135,142,261
1695162584738226800,-8.966285706,-1.703474522,-1.341950059,-0.013722817,0.047163859,-0.138560489,-8,19,-20,16,9,2.67671752,4.027047157,3.855861902,-1.433434844,0.243013784,0.6752159,46,14,136,138,260
1695162584739226800,-8.962694168,-1.704671621,-1.33835876,-0.018385911,0.046764165,-0.139626339,-7,19,-16,19,8,2.728192806,3.881000996,3.82593441,-1.403591037,0.243546709,0.640309334,50,14,137,143,263
1695162584786202300,-8.961497307,-1.641225219,-1.331176162,-0.128834605,0.013189893,-0.158545166,-4,18,-20,17,12,4.934449673,3.043030262,4.897339344,-0.723978519,-0.044632465,0.205309346,45,13,140,141,259
1695162584787202300,-8.962694168,-1.63763392,-1.332373261,-0.136029094,0.009992342,-0.159211323,-7,18,-17,17,7,5.012261391,3.043030262,4.952406406,-0.720914245,-0.046497703,0.194517612,49,15,137,141,260
1695162584788202300,-8.962694168,-1.630451322,-1.335964561,-0.143356815,0.006528331,-0.160010725,-6,18,-15,16,11,5.111620426,3.044227362,5.027823448,-0.717983186,-0.04729709,0.176398173,51,12,139,141,261
1695162584789202300,-8.960299492,-1.626860023,-1.340752959,-0.150551304,0.003330781,-0.160410419,-5,18,-18,16,9,5.195417881,3.043030262,5.105635166,-0.71784991,-0.046630934,0.155614093,53,16,137,143,258
1695162584790202300,-8.959102631,-1.624465823,-1.343147159,-0.15787901,0.000532925,-0.160543635,-4,20,-19,18,11,5.27442646,3.040636063,5.177461147,-0.720514536,-0.044499233,0.131232768,49,14,141,141,261
1695162584835170100,-8.896853447,-1.545457244,-1.459265947,-0.300836146,-0.050494641,-0.142157733,-5,21,-17,17,9,6.323086739,2.094926596,5.953182697,-0.479232758,0.274456352,-0.658562064,20,16,142,138,259
1695162584836170100,-8.890868187,-1.541865945,-1.470039845,-0.307897419,-0.053159267,-0.139892802,-6,20,-17,17,8,6.274005413,2.066195965,5.975927353,-0.440329254,0.294174582,-0.699730456,49,17,142,140,258
1695162584837170100,-8.889671326,-1.540668845,-1.477222443,-0.314825416,-0.055823889,-0.137361407,-4,17,-20,20,9,6.217741966,2.04584527,6.004657745,-0.400493115,0.311494648,-0.738900423,43,16,141,137,256
1695162584838170100,-8.884882927,-1.531091928,-1.484405041,-0.321620196,-0.058488514,-0.134963244,-6,19,-13,18,12,6.148310184,2.037465572,6.035782337,-0.360656947,0.326283306,-0.775938749,43,17,140,141,254
1695162584839170100,-8.883685112,-1.528697729,-1.497573137,-0.328148544,-0.06115314,-0.132032156,-4,18,-21,18,11,6.065710068,2.042253971,6.065710068,-0.32148698,0.338807046,-0.810578883,44,17,142,141,260
1695162584877145900,-8.834604263,-1.59693253,-1.648407817,-0.383039832,-0.075542115,-0.023981623,-3,12,-20,18,9,3.229778051,3.399766445,5.953182697,0.037038282,0.356793284,-1.443826914,43,19,142,137,260
1695162584878145900,-8.835801125,-1.600523829,-1.654393315,-0.381574243,-0.075675346,-0.016254211,-4,21,-19,18,8,3.015496969,3.49433732,5.908889771,0.059820827,0.374646246,-1.473271132,44,17,143,138,256
1695162584879145900,-8.83699894,-1.604115129,-1.662773132,-0.380108714,-0.075941809,-0.008393568,-4,17,-19,18,8,2.779668093,3.60566783,5.865794182,0.086200617,0.393431842,-1.500983119,42,17,141,137,260
1695162584880145900,-8.83699894,-1.607706428,-1.668758631,-0.378509969,-0.076474734,-0.000399694,-6,19,-17,18,8,2.52947402,3.734954596,5.822698593,0.115245022,0.412084222,-1.526430368,43,21,142,136,258
1695162584881145900,-8.833407402,-1.616086125,-1.680729628,-0.376378268,-0.076874427,0.007460949,-9,17,-21,19,9,2.279279947,3.883395195,5.791574001,0.145754978,0.43007046,-1.548679948,45,13,141,138,258
1695162584917123100,-8.943540573,-1.685518026,-1.800439715,-0.331612557,-0.088065848,0.162009194,-8,11,-20,19,10,-2.274491549,8.864531517,6.155492783,0.103787132,0.281251162,-1.207474709,48,18,137,136,258
1695162584918123100,-8.955511093,-1.693897724,-1.807622313,-0.328947932,-0.087799385,0.171202138,-8,17,-19,18,11,-2.41694665,9.046490669,6.204573631,0.06461715,0.262465537,-1.171901941,47,19,137,137,257
1695162584919123100,-8.963891029,-1.702277422,-1.816002011,-0.326016843,-0.08753293,0.180261865,-8,21,-19,18,8,-2.551021814,9.212887764,6.24168396,0.027045943,0.24567841,-1.135663152,46,18,137,134,257
1695162584920123100,-8.975862503,-1.71065712,-1.817199111,-0.323085755,-0.087133229,0.189454809,-5,17,-18,18,10,-2.664746523,9.350554466,6.260837555,-0.008127105,0.229557425,-1.098225117,50,17,135,138,258
1695162584921123100,-8.987833023,-1.721431017,-1.82079041,-0.319888234,-0.086600304,0.198647782,-5,17,-21,18,8,-2.761711597,9.47146225,6.275202751,-0.040102605,0.213969365,-1.059454799,51,20,132,136,258
1695162584955100500,-9.060855865,-1.957259893,-1.811213613,-0.235686064,-0.07087902,0.358125567,2,17,-17,22,10,-1.962048292,9.567230225,6.28597641,-0.079139359,0.04276723,-0.233021438,51,15,131,133,256
1695162584956100500,-9.06205368,-1.97162509,-1.812410712,-0.231022969,-0.069946401,0.364653885,-8,9,-19,20,8,-1.830367208,9.484629631,6.296750546,-0.06461715,0.036905054,-0.193451747,47,15,131,133,256
1695162584957100500,-9.06205368,-1.981201887,-1.811213613,-0.227958649,-0.069546707,0.368917316,-5,21,-17,19,10,-1.740584612,9.429563522,6.308721542,-0.055157732,0.033307809,-0.16773814,52,20,132,136,254
1695162584958100500,-9.06205368,-1.996764183,-1.807622313,-0.223295555,-0.069013782,0.374912739,-7,17,-21,18,9,-1.595735431,9.33618927,6.336254597,-0.041834611,0.028644716,-0.130300149,52,17,131,133,264
1695162584959100500,-9.06205368,-2.00993228,-1.800439715,-0.218765706,-0.068214394,0.380508423,-8,23,-20,16,7,-1.446097851,9.241618156,6.361393929,-0.029843798,0.024914242,-0.094594181,47,14,136,132,256
1695162584992080000,-9.059659004,-2.303221941,-1.744175911,-0.166805506,-0.067681469,0.401558936,-4,19,-18,17,11,0.591367841,7.101202011,6.540958881,0.075542115,0.051027562,0.229823887,52,14,131,130,253
1695162584993080000,-9.054870605,-2.313995838,-1.741781712,-0.166938737,-0.067947932,0.396362931,-4,17,-23,19,9,0.648828685,7.025784969,6.555324078,0.074209802,0.050627869,0.231289431,52,15,131,136,256
1695162584994080000,-9.051279068,-2.325966835,-1.741781712,-0.167471662,-0.068081163,0.390367538,-7,25,-17,18,11,0.684741676,6.977900982,6.563704014,0.072611026,0.049828485,0.231955588,52,15,132,133,256
1695162584995080000,-9.045293808,-2.334346771,-1.745373011,-0.16827105,-0.068081163,0.38383922,-6,19,-19,22,11,0.737414122,6.9084692,6.575675011,0.069013782,0.048096478,0.232088804,52,14,133,130,254
1695162584996080000,-9.040505409,-2.346317768,-1.744175911,-0.169736609,-0.068081163,0.376511484,-3,23,-17,18,9,0.78170687,6.83784008,6.582857609,0.064350687,0.045831546,0.231689125,49,17,132,133,256
1695162585031058100,-9.046490669,-2.387019157,-1.751358509,-0.284049004,-0.039169986,0.144689128,-4,22,-18,17,11,0.991199493,5.864596844,6.464344501,-0.06261868,0.057022974,0.108983152,58,14,129,131,256
1695162585032058100,-9.050082207,-2.381033659,-1.753752708,-0.293241978,-0.037304748,0.12936753,-6,23,-17,20,11,0.960074902,5.829881191,6.439205647,-0.063284837,0.062485453,0.100189894,53,17,130,132,256
1695162585033058100,-9.051279068,-2.37744236,-1.751358509,-0.3028346,-0.035306279,0.114179172,-3,17,-18,16,9,0.924161851,5.7963624,6.414066315,-0.063018374,0.068081163,0.091663092,54,16,128,130,257
1695162585034058100,-9.052476883,-2.372653961,-1.750161409,-0.312294006,-0.033307809,0.098857582,-6,18,-19,18,9,0.883460402,5.765237808,6.380547523,-0.061552834,0.073277183,0.083402753,52,13,126,127,253
1695162585035058100,-9.053673744,-2.363077164,-1.754949808,-0.321620196,-0.03130934,0.083802447,-5,17,-20,17,11,0.839167714,5.736507416,6.350619793,-0.059421133,0.07794027,0.075408876,52,15,126,129,256
1695162585071036100,-9.026140213,-2.23019886,-1.838746905,-0.410085768,-0.0063951,-0.104719758,-6,19,-16,15,11,0.177170932,5.184643745,5.816712856,0.074343033,0.114978559,-0.002531394,52,11,126,126,256
1695162585072036100,-9.017760277,-2.226607561,-1.837549806,-0.406754971,-0.004796324,-0.107117914,-8,22,-21,15,11,0.156820208,5.140350819,5.787982464,0.083935678,0.11817611,-0.004130168,52,4,126,126,254
1695162585073036100,-9.005789757,-2.220622063,-1.838746905,-0.402491599,-0.003064318,-0.108583458,-2,20,-17,16,11,0.143652096,5.092466831,5.761646271,0.093661562,0.121107198,-0.006261868,48,10,126,126,252
1695162585074036100,-8.997409821,-2.217030764,-1.838746905,-0.399027556,-0.001998469,-0.108849928,-1,18,-21,20,11,0.136469498,5.043385983,5.734113216,0.103787132,0.124038287,-0.008793262,49,9,126,127,256
1695162585075036100,-8.986636162,-2.212242365,-1.837549806,-0.39316541,-0.000266462,-0.108583458,-3,10,-21,19,11,0.134075299,4.995501995,5.710171223,0.114712104,0.127502292,-0.01185758,47,5,125,127,256
1695162585106015300,-8.783128738,-2.224213362,-1.726219416,-0.143223584,0.01398928,0.039169986,-6,21,-19,18,9,0.675164878,4.437653065,5.09126997,0.36198926,0.199580401,-0.089531392,25,-2,116,114,252
1695162585107015300,-8.779537201,-2.23259306,-1.720233917,-0.126969382,0.012656967,0.050361406,-4,18,-19,24,9,0.683544576,4.432864666,5.063736439,0.366252691,0.204776406,-0.095393561,29,1,113,115,250
1695162585108015300,-8.775946617,-2.238578558,-1.714248419,-0.110848397,0.011191424,0.061286367,-5,21,-20,20,7,0.688332975,4.429273129,5.050568581,0.36878407,0.211304754,-0.103120975,26,-2,113,114,252
1695162585109015300,-8.775946617,-2.244564056,-1.705868721,-0.094727404,0.009192956,0.072078094,-7,19,-21,22,9,0.688332975,4.425682068,5.038597584,0.369050533,0.219698325,-0.11298009,25,-2,110,116,251
1695162585110015300,-8.774748802,-2.254140854,-1.699883223,-0.078872897,0.007194487,0.082603365,-6,22,-20,18,9,0.690727174,4.410119534,5.027823448,0.367052078,0.229957119,-0.124837674,26,-1,109,114,250
1695162585142996200,-8.864531517,-2.293645144,-1.742978811,0.0678147,-0.052759573,0.151217461,-3,18,-19,17,11,1.261744261,3.943250179,5.106832027,0.275655419,0.880791724,-0.419811636,8,-2,55,85,240
1695162585143996200,-8.865729332,-2.292448044,-1.753752708,0.065816231,-0.054758042,0.147620216,-8,19,-21,18,7,1.250970364,3.916913986,5.061342239,0.28205052,0.92968756,-0.432068914,6,-1,51,80,244
1695162585144996200,-8.876502991,-2.296039343,-1.769315004,0.062885143,-0.056490045,0.14282389,-6,18,-19,22,7,1.229422569,3.897760391,5.019443989,0.291110277,0.977917254,-0.442993879,10,-1,47,82,241
1695162585145996200,-8.883685112,-2.297236443,-1.78248322,0.059021436,-0.057955589,0.137361407,-1,18,-19,18,10,1.193509579,3.872621298,4.964377403,0.302701384,1.025747299,-0.452986211,5,-2,44,79,240
1695162585146996200,-8.893261909,-2.297236443,-1.790862918,0.054091886,-0.059021436,0.131366,-3,20,-19,17,7,1.15520227,3.852270603,4.902127743,0.316290945,1.072644711,-0.460980088,5,-2,39,76,238
1695162585233141500,-9.021351814,-2.303221941,-1.991975784,-0.110848397,-0.010924961,-0.069013782,-6,21,-20,16,7,-0.675164878,4.175487995,4.065354347,0.790993869,1.890551329,-0.724111736,-12,-1,-2,56,223
1695162585234141500,-9.017760277,-2.304419041,-1.997961283,-0.118975498,-0.004529862,-0.081537522,-8,17,-21,15,5,-0.831985116,4.266467571,4.068945885,0.817640126,1.93998003,-0.765813112,-13,-2,-2,52,220
1695162585235141500,-9.018958092,-2.30801034,-1.995567083,-0.12616998,0.0021317,-0.094061248,-7,20,-22,16,7,-0.991199493,4.378994942,4.101267338,0.837624788,1.992606401,-0.812977076,-16,-1,-2,49,221
1695162585236141500,-9.022548676,-2.30801034,-1.995567083,-0.132831544,0.008793262,-0.106451757,-6,19,-21,19,7,-1.159990668,4.487931252,4.143166065,0.852546692,2.046698332,-0.864937186,-14,0,-2,52,220
1695162585237141500,-9.022548676,-2.30681324,-1.997961283,-0.138560489,0.015588055,-0.118575804,-4,10,-22,17,12,-1.326387763,4.606443882,4.173093796,0.862672329,2.101189852,-0.922759533,-13,-1,-2,49,218
1695162585307090800,-9.02374649,-2.200271368,-1.934514999,-0.112846859,0.100722812,-0.278719753,-3,18,-23,19,7,-3.262099743,5.339069843,3.958812475,0.264464021,2.749759674,-2.457583427,-25,1,-15,49,212
1695162585308090800,-9.021351814,-2.183511972,-1.922544003,-0.107251145,0.10285452,-0.283382833,-7,17,-23,16,8,-3.363853455,5.349843502,3.925293684,0.226226643,2.775739431,-2.535390615,-25,4,-16,43,211
1695162585309090800,-9.018958092,-2.164358377,-1.915361404,-0.10178867,0.104719758,-0.287646264,-6,17,-20,14,9,-3.435679436,5.361814499,3.906140089,0.20464319,2.791327715,-2.586284876,-26,5,-20,43,210
1695162585310090800,-9.016563416,-2.149993181,-1.910573006,-0.096059717,0.106584989,-0.29137671,-4,19,-20,19,9,-3.568557739,5.394136429,3.870227098,0.176131696,2.813177824,-2.661960363,-25,-1,-19,40,210
1695162585311090800,-9.012971878,-2.138022184,-1.904587507,-0.090730481,0.108450226,-0.294840723,-3,19,-16,19,7,-3.725377798,5.455188751,3.849876404,0.147886679,2.83556056,-2.738168478,-25,1,-17,38,208
1695162585384071500,-9.054870605,-1.868674397,-1.762132406,-0.03757121,0.123505361,-0.300569683,-8,19,-20,15,8,-6.73129797,7.575253963,4.526238441,-0.954468608,3.170370579,-4.182128429,-34,-1,-33,25,200
1695162585385071500,-9.056067467,-1.8579005,-1.756146908,-0.038370594,0.122173049,-0.299503833,-4,17,-19,16,7,-6.779181957,7.544129372,4.557363033,-1.071312428,3.181162357,-4.231823921,-35,1,-31,28,201
1695162585386071500,-9.053673744,-1.851915002,-1.745373011,-0.039303213,0.120707504,-0.298571229,-6,19,-19,18,9,-6.825869083,7.496245384,4.582501888,-1.189355254,3.189289331,-4.274991035,-37,4,-32,24,201
1695162585387071500,-9.053673744,-1.844732404,-1.739387512,-0.040502299,0.119375192,-0.297372133,-4,20,-21,16,11,-6.865373611,7.420828342,4.595670223,-1.308730483,3.195018291,-4.312428951,-35,3,-31,24,201
1695162585388071500,-9.054870605,-1.836352706,-1.733402014,-0.041967839,0.118042871,-0.295906603,-4,21,-21,18,8,-6.896498203,7.315483093,4.599261284,-1.427173138,3.199015141,-4.343738079,-38,7,-31,26,202
1695162585475994100,-9.097966194,-1.653196216,-1.770512104,-0.084601834,0.068880551,-0.255803972,-5,19,-15,16,8,-9.005789757,2.645592928,2.741360903,-1.47407043,2.590681553,-3.826800823,-40,-1,-34,17,200
1695162585476994100,-9.102754593,-1.648407817,-1.777694821,-0.085667685,0.066349156,-0.251007646,-4,20,-16,17,9,-9.184157372,2.425326347,2.625242233,-1.310728908,2.518470287,-3.753257275,-34,2,-33,21,201
1695162585477994100,-9.109937668,-1.646013618,-1.78248322,-0.086600304,0.064084224,-0.245545179,-5,21,-15,15,11,-9.343372345,2.23139596,2.524685621,-1.135529757,2.443460941,-3.674384356,-34,3,-31,24,197
1695162585478994100,-9.117119789,-1.646013618,-1.788468719,-0.086866774,0.062085759,-0.239549771,-6,17,-20,15,7,-9.503783226,2.043451071,2.424129248,-0.951803982,2.366586447,-3.591248035,-33,-2,-34,22,199
1695162585479994100,-9.121908188,-1.644816518,-1.798045516,-0.086733535,0.060353752,-0.233154669,-4,17,-18,21,8,-9.660603523,1.851915002,2.318784237,-0.75515461,2.287846804,-3.505713701,-35,7,-32,24,198
1695162585566944900,-9.115922928,-1.654393315,-1.877054095,0.000266462,0.070612557,-0.065949462,-6,17,-15,16,10,-12.19007778,1.605312228,0.344765037,3.725411892,0.826699853,-1.511774898,-33,7,-27,24,198
1695162585567944900,-9.108740807,-1.660378933,-1.873462796,0.007460949,0.072611026,-0.057156201,-7,17,-21,18,11,-12.35168648,1.742978811,0.318428814,3.936849833,0.787796319,-1.423709035,-31,1,-29,20,198
1695162585568944900,-9.103952408,-1.661576033,-1.865083098,0.014522205,0.07500919,-0.048762634,-4,20,-20,16,10,-12.52885723,1.865083098,0.289698392,4.14189291,0.754888177,-1.340173125,-33,-1,-25,22,198
1695162585569944900,-9.095572472,-1.663970232,-1.8602947,0.021450229,0.077407345,-0.040502299,-7,22,-17,17,7,-12.72518158,2.006340981,0.272938997,4.343871593,0.728908122,-1.260367513,-31,1,-24,22,198
1695162585570944900,-9.093177795,-1.668758631,-1.848323703,0.028378254,0.079672284,-0.032508422,-6,21,-20,18,7,-12.86284828,2.111685991,0.266953498,4.365588188,0.71571821,-1.210672259,-35,-1,-31,22,197
1695162585658894700,-9.034520149,-1.771709204,-1.660378933,0.159744263,0.092862174,0.088998467,-2,19,-17,14,9,-17.49562836,8.295908928,1.207874775,4.365588188,1.407721281,-1.722146988,-35,-2,-23,28,200
1695162585659894700,-9.022548676,-1.777694821,-1.647210717,0.167871356,0.091663092,0.094594181,-6,21,-20,15,7,-17.617733,8.73404789,1.268926859,4.365588188,1.431036711,-1.850848317,-34,0,-20,25,200
1695162585660894700,-9.014169693,-1.78248322,-1.634042621,0.175865233,0.090597242,0.100323126,-1,18,-21,23,8,-17.70392418,9.157821655,1.332373261,4.365588188,1.44609189,-1.983280301,-35,-2,-19,22,199
1695162585661894700,-9.002198219,-1.786074519,-1.611297727,0.183992341,0.089797854,0.105652377,-4,25,-18,20,8,-17.74941444,9.569623947,1.397016644,4.365588188,1.453153133,-2.118643284,-34,-2,-23,24,200
1695162585662894700,-8.990227699,-1.792060018,-1.594538331,0.192119434,0.088865243,0.111248083,-6,22,-17,17,11,-17.76377869,9.969455719,1.461660147,4.365588188,1.451954126,-2.256004572,-38,0,-21,21,199
1695162585736844900,-8.859743118,-1.770512104,-1.45088625,0.292975485,0.065416537,0.197581932,-4,22,-20,17,11,-13.31176186,12.38041687,2.285265446,0.578889728,0.757952571,-3.382341623,-36,3,-24,22,199
1695162585737844900,-8.857349396,-1.770512104,-1.442506552,0.29603982,0.063151613,0.202777937,-4,19,-20,19,9,-12.98136139,12.13501167,2.272097349,0.235019907,0.739833057,-3.321454763,-29,1,-20,25,197
1695162585738844900,-8.859743118,-1.774103403,-1.441309452,0.299104154,0.060620211,0.208107188,-6,19,-23,22,8,-12.77186871,11.96502304,2.255337954,0.010392036,0.729707539,-3.274157524,-38,0,-20,20,199
1695162585739844900,-8.860940933,-1.776497602,-1.437718153,0.302301675,0.057955589,0.213436455,-3,19,-20,18,7,-12.47379112,11.68729591,2.221819162,-0.317756504,0.717183769,-3.194485426,-34,3,-22,24,197
1695162585740844900,-8.863334656,-1.776497602,-1.434126854,0.305499226,0.055024505,0.219032168,-8,19,-21,17,8,-12.19965458,11.38083744,2.169146776,-0.633248091,0.706658483,-3.104154825,-39,0,-21,24,195
1695162585813826300,-8.971074104,-1.934514999,-1.419761658,0.426606447,-0.004529862,0.345202148,-1,21,-17,18,11,-10.53807831,3.937264681,0.762553215,-2.527529716,0.348799407,-0.595543683,-34,1,-20,26,197
1695162585814826300,-8.989029884,-1.941697598,-1.422155857,0.435399711,-0.006794794,0.351996928,-6,19,-21,18,10,-10.52610779,3.64038372,0.719457626,-2.402692318,0.310828477,-0.476834595,-35,0,-13,21,198
1695162585815826300,-9.006986618,-1.946485996,-1.428141356,0.444326192,-0.009326187,0.358924955,-4,21,-20,17,8,-10.49378586,3.337517262,0.687135875,-2.256937027,0.272324651,-0.36198926,-35,1,-20,26,196
1695162585816826300,-9.027337074,-1.952471495,-1.432929754,0.453252673,-0.011724349,0.365586549,-4,17,-19,20,12,-10.45308495,3.05140996,0.664390981,-2.091197491,0.234886676,-0.250474721,-34,-1,-19,28,198
1695162585817826300,-9.046490669,-1.963245392,-1.438915253,0.461912692,-0.014255743,0.371981621,-4,17,-17,18,12,-10.40759468,2.803610086,0.647631586,-1.910136342,0.198514536,-0.143223584,-35,-1,-19,26,197
1695162585888764200,-9.415198326,-2.167949677,-1.462857246,0.61965853,-0.07194487,0.437664628,-7,21,-19,19,10,-9.364919662,2.703053713,0.810437262,2.056024551,-0.331745774,0.948206723,-31,0,-19,29,197
1695162585889764200,-9.421183586,-2.175132275,-1.461660147,0.62645334,-0.075142421,0.436465532,-4,21,-19,16,7,-9.314641953,2.835932016,0.833182216,2.199914217,-0.349865228,0.973787129,-35,-1,-17,30,192
1695162585890764200,-9.423578262,-2.181117773,-1.460463047,0.632715166,-0.07794027,0.434600294,-8,19,-22,18,8,-9.277531624,2.985569477,0.863109708,2.33061409,-0.367052078,0.997502267,-36,-2,-17,31,197
1695162585891764200,-9.423578262,-2.189497471,-1.462857246,0.638710558,-0.080471672,0.431935668,-4,21,-19,20,7,-9.240421295,3.145981073,0.888248801,2.447057962,-0.383705974,1.018819332,-35,-2,-17,31,196
1695162585892764200,-9.417592049,-2.190694571,-1.467645645,0.643906593,-0.082736596,0.428471655,-7,21,-20,16,8,-9.203310966,3.302801132,0.916979253,2.54924655,-0.400093406,1.037738085,-34,-2,-18,31,197
1695162585970710400,-9.076418877,-1.877054095,-1.508347034,0.505212903,-0.085667685,0.203310877,-4,21,-21,15,13,-9.066842079,5.716156483,1.171961784,2.330214262,-0.717450202,1.076908112,-35,-1,-16,26,196
1695162585971710400,-9.054870605,-1.8579005,-1.507149935,0.484295547,-0.083535992,0.186257273,-4,17,-19,18,12,-9.0740242,5.781997204,1.171961784,2.234287977,-0.736369014,1.063584924,-33,0,-19,31,197
1695162585972710400,-9.044096947,-1.845929503,-1.505952835,0.470039815,-0.081937209,0.175199077,-7,17,-19,14,8,-9.083600998,5.84065485,1.167173386,2.133698225,-0.75515461,1.04972899,-35,-1,-17,33,197
1695162585973710400,-9.026140213,-1.824381709,-1.509544134,0.447656959,-0.079272583,0.158545166,-3,19,-19,18,9,-9.091980934,5.889736176,1.15400517,2.029111862,-0.773673773,1.035473228,-36,-1,-16,32,197
1695162585974710400,-9.010578156,-1.810016513,-1.509544134,0.424874425,-0.076474734,0.142557427,-7,19,-21,19,8,-9.10036087,5.930437565,1.143231273,1.92132771,-0.79166007,1.020551324,-35,-2,-17,31,195
1695162586054663500,-8.809465408,-1.722628117,-1.556231141,0.137228176,-0.030776417,-0.016254211,-4,17,-18,16,11,-9.278728485,5.284003258,0.729034424,0.018652374,-0.931286395,0.833894312,-33,-1,-17,31,197
1695162586055663500,-8.798690796,-1.727416515,-1.56221664,0.135895863,-0.028911179,-0.014255743,-7,19,-20,18,10,-9.276334763,5.202600479,0.70628953,-0.045698319,-0.926756501,0.833894312,-35,-1,-15,29,193
1695162586056663500,-8.787917137,-1.728613615,-1.55862534,0.136029094,-0.02691271,-0.011058193,-6,21,-16,19,8,-9.271546364,5.120000362,0.678756177,-0.104719758,-0.921160758,0.835093379,-33,-1,-19,31,196
1695162586057663500,-8.781931877,-1.733402014,-1.563413739,0.137894332,-0.025047474,-0.006661562,-4,18,-17,18,9,-9.264363289,5.035006046,0.654814184,-0.15841195,-0.914499223,0.837358356,-32,-2,-18,30,197
1695162586058663500,-8.77834034,-1.738190413,-1.571793437,0.140958652,-0.023049004,-0.001332312,-6,19,-21,15,11,-9.25358963,4.948814869,0.638054729,-0.206774876,-0.906905055,0.841088772,-34,-1,-17,31,194
1695162586134617100,-8.716091156,-1.842338204,-1.63523972,0.389035225,-0.013722817,0.191719756,-4,23,-21,18,11,-9.057265282,3.643975019,0.501585245,-0.275655419,-0.592079639,1.093562007,-31,-2,-15,29,194
1695162586135617100,-8.720879555,-1.843535304,-1.63643682,0.39889431,-0.01398928,0.197981626,-7,18,-20,16,11,-9.051279068,3.60207653,0.506373644,-0.249808565,-0.570629418,1.111947894,-34,-1,-15,31,196
1695162586136617100,-8.725667953,-1.841141105,-1.63643682,0.41288361,-0.014255743,0.206774876,-4,20,-18,17,7,-9.046490669,3.563769341,0.517147541,-0.222629398,-0.548912704,1.130067348,-31,-1,-17,30,197
1695162586137617100,-8.732851028,-1.838746905,-1.640028119,0.426073521,-0.014388974,0.215168446,-7,21,-17,18,9,-9.042900085,3.530250311,0.526724398,-0.194384381,-0.52719599,1.148053527,-33,-2,-17,31,194
1695162586138617100,-8.741230011,-1.837549806,-1.643619418,0.438064337,-0.014655436,0.222496167,-6,21,-19,20,11,-9.044096947,3.49553442,0.537498295,-0.16520673,-0.505879045,1.165906668,-36,-1,-16,31,196
1695162586214570700,-9.042900085,-1.847126603,-1.721431017,0.484961689,-0.008260337,0.255404294,-4,21,-17,16,8,-9.051279068,3.315969467,0.806845963,0.25766921,-0.23222205,1.377211213,-33,-3,-16,31,194
1695162586215570700,-9.058462143,-1.8579005,-1.727416515,0.482830018,-0.006128637,0.252206743,-7,21,-15,22,10,-9.054870605,3.326743364,0.823605359,0.262998462,-0.226892799,1.379476309,-32,-2,-13,31,196
1695162586216570700,-9.071630478,-1.869871497,-1.733402014,0.480698317,-0.003464012,0.248875946,-6,21,-21,18,11,-9.054870605,3.331531763,0.836773515,0.265529871,-0.222762644,1.380408883,-31,-2,-12,32,195
1695162586217570700,-9.081207275,-1.877054095,-1.736993313,0.478699833,-0.000399694,0.245278716,-7,18,-13,22,10,-9.048885345,3.331531763,0.849941611,0.267261863,-0.219165385,1.380408883,-29,-2,-17,31,194
1695162586218570700,-9.093177795,-1.884236693,-1.735796213,0.476834595,0.002797856,0.241281778,-4,21,-17,16,8,-9.044096947,3.327940464,0.866701007,0.268327713,-0.215701386,1.380009174,-35,-2,-15,32,196
1695162586287534300,-9.244012833,-1.968033791,-1.717839718,0.440595686,0.079006128,0.112047479,-3,19,-13,20,12,-8.777143478,3.219004154,1.104924083,0.038237367,-0.159344569,1.200147033,-35,-3,-12,33,196
1695162586288534300,-9.246406555,-1.97042799,-1.707065821,0.43833077,0.082736596,0.102454826,-1,20,-21,20,9,-8.757989883,3.199850559,1.103726983,0.020917306,-0.157079637,1.183359861,-33,-2,-12,31,194
1695162586289534300,-9.24760437,-1.97042799,-1.698686123,0.435932606,0.086467072,0.092995405,-4,22,-19,20,9,-8.738836288,3.184288263,1.108515382,0.003730475,-0.154947937,1.166039824,-34,-2,-16,31,196
1695162586290534300,-9.24760437,-1.972822189,-1.693897724,0.433800906,0.090064317,0.08313629,-6,17,-18,18,10,-8.717288017,3.173514366,1.113303781,-0.013589587,-0.152683005,1.148053527,-33,-2,-15,31,192
1695162586291534300,-9.24760437,-1.97162509,-1.686715126,0.431535989,0.093928024,0.073277183,-6,19,-19,16,9,-8.704120636,3.16034627,1.113303781,-0.024914242,-0.151217461,1.135663152,-31,-2,-15,31,196
1695162586364486400,-9.129091263,-1.910573006,-1.507149935,0.406888187,0.130433381,-0.093395106,-4,24,-16,19,11,-8.421604156,2.880224705,1.243787766,-0.225826949,-0.032241959,0.714519143,-32,-1,-13,34,195
1695162586365486400,-9.118317604,-1.904587507,-1.489193439,0.406088829,0.131366,-0.101122513,-2,25,-17,16,10,-8.408436775,2.871845007,1.253364563,-0.2311562,-0.022915773,0.691203654,-34,-2,-12,31,192
1695162586366486400,-9.114726067,-1.89620769,-1.484405041,0.405422658,0.131632462,-0.106185302,-4,20,-16,20,12,-8.397662163,2.863465309,1.259350061,-0.236085743,-0.013722817,0.667888165,-31,-2,-13,35,194
1695162586367486400,-9.107542992,-1.887827992,-1.480813742,0.404223561,0.132165387,-0.113646246,-2,21,-21,19,10,-8.38928318,2.853888512,1.273715258,-0.240748852,-0.0042634,0.644572735,-33,-2,-15,32,194
1695162586368486400,-9.101557732,-1.881842494,-1.471236944,0.402624816,0.132964775,-0.120840736,-4,18,-21,19,14,-8.379706383,2.844311714,1.284489155,-0.245012254,0.005196018,0.621257305,-33,-2,-15,31,192
1695162586450435600,-9.009381294,-1.649604917,-1.373074651,0.310828477,0.126702905,-0.233287901,-4,21,-20,18,9,-8.343792915,2.755726099,1.432929754,-0.260467082,0.121373661,0.193984687,-29,-1,-16,31,193
1695162586451435600,-9.005789757,-1.640028119,-1.368286252,0.304033697,0.125370592,-0.237551302,-1,21,-19,20,13,-8.344989777,2.760514498,1.446097851,-0.258068919,0.123905048,0.171735078,-33,-2,-13,33,194
1695162586452435600,-9.002198219,-1.631648421,-1.369483352,0.297238916,0.124171518,-0.241681471,-4,21,-18,19,11,-8.35097599,2.764105797,1.44968915,-0.255404294,0.125903517,0.149352223,-35,-2,-14,34,193
1695162586453435600,-8.996212959,-1.625662923,-1.365892053,0.290843785,0.122705974,-0.245411947,-1,25,-19,22,11,-8.35696125,2.768894196,1.459265947,-0.252606452,0.127502292,0.126702905,-31,-2,-15,31,193
1695162586454435600,-8.991424561,-1.617283225,-1.368286252,0.284448713,0.121240422,-0.248875946,-3,25,-16,22,12,-8.360552788,2.774879694,1.465251446,-0.249408886,0.128967836,0.104186833,-33,-2,-13,32,192
1695162586518398100,-8.929175377,-1.505952835,-1.37786305,0.190920368,0.083003066,-0.268993855,-5,17,-18,22,11,-8.378508568,3.086126089,1.532289028,-0.203710571,0.119108729,-0.304566622,-38,-2,-17,31,193
1695162586519398100,-8.924386978,-1.501164436,-1.379060149,0.186790213,0.081137821,-0.268327713,-3,20,-16,19,13,-8.376114845,3.104082584,1.532289028,-0.202245027,0.116310872,-0.322686076,-33,-2,-13,32,190
1695162586520398100,-8.921992302,-1.496376038,-1.385045648,0.182926491,0.079539053,-0.267128646,-3,19,-24,17,11,-8.374917984,3.12203908,1.52630353,-0.200513005,0.113379791,-0.340672255,-38,-4,-12,31,194
1695162586521398100,-8.919598579,-1.490390539,-1.388636947,0.178929552,0.077673815,-0.26592955,-6,22,-17,19,12,-8.374917984,3.132812977,1.521515131,-0.199713632,0.111248083,-0.352396637,-29,-2,-15,30,189
1695162586522398100,-8.916007042,-1.48679924,-1.387439847,0.176264927,0.076474734,-0.265263379,-1,20,-20,18,12,-8.376114845,3.150769472,1.510741234,-0.197981626,0.10805054,-0.369583488,-36,-2,-17,33,193
1695162586558375800,-8.961497307,-1.403002143,-1.428141356,0.100589581,0.047563553,-0.227292493,-6,17,-20,19,9,-8.43357563,3.611653328,1.398213744,-0.152283311,0.07301072,-0.62538743,-31,-2,-12,32,196
1695162586559375800,-8.966285706,-1.399410844,-1.432929754,0.096326187,0.045964777,-0.224761114,-6,22,-19,20,8,-8.438364029,3.633201122,1.389834046,-0.150551304,0.07500919,-0.634846866,-31,-4,-14,31,197
1695162586560375800,-8.969876289,-1.397016644,-1.437718153,0.09352833,0.045032158,-0.223162323,-4,17,-18,17,13,-8.441955566,3.654748917,1.385045648,-0.148686066,0.077007659,-0.643773377,-33,-2,-13,34,194
1695162586561375800,-8.977059364,-1.392228246,-1.440112352,0.089264929,0.043433387,-0.220764175,-2,18,-19,22,10,-8.447940826,3.67869091,1.379060149,-0.146820813,0.079139359,-0.652166963,-34,-2,-15,31,194
1695162586562375800,-8.981847763,-1.389834046,-1.44729495,0.085001536,0.041967839,-0.218366012,-3,19,-18,18,8,-8.453926086,3.701435804,1.371877551,-0.14495559,0.081404284,-0.66016084,-32,-2,-16,31,190
1695162586595376300,-9.059659004,-1.33835876,-1.545457244,-0.021183766,0.026113322,-0.184125587,-4,23,-17,19,8,-8.603564262,3.994725466,1.270123959,-0.073943339,0.107251145,-0.714385927,-31,-2,-13,33,196
1695162586596376300,-9.059659004,-1.331176162,-1.550245643,-0.028245023,0.026113322,-0.183059722,-3,21,-17,20,8,-8.610746384,4.0090909,1.26533556,-0.067947932,0.107251145,-0.712387443,-34,-2,-12,31,196
1695162586597376300,-9.06205368,-1.329979062,-1.553836942,-0.035039816,0.026246555,-0.182127118,-3,22,-17,18,12,-8.615534782,4.024652958,1.255758762,-0.061552834,0.106984682,-0.709989309,-28,-2,-14,31,195
1695162586598376300,-9.066842079,-1.327584863,-1.56101954,-0.042101074,0.026379786,-0.181194484,-4,21,-13,22,11,-8.620323181,4.039018154,1.252167463,-0.055157732,0.106984682,-0.707324684,-34,-2,-15,32,196
1695162586599376300,-9.070432663,-1.326387763,-1.565807939,-0.049162328,0.026646247,-0.180128634,-3,21,-16,15,13,-8.62511158,4.052186489,1.254561663,-0.048762634,0.106718227,-0.703993857,-35,-2,-14,26,194
1695162586631355200,-9.093177795,-1.325190663,-1.605312228,-0.174799383,0.039702907,-0.162275642,-7,19,-20,16,9,-8.753201485,4.313154221,1.295263171,0.050494641,0.109649308,-0.583686054,-35,-2,-15,31,194
1695162586632355200,-9.093177795,-1.327584863,-1.604115129,-0.179862171,0.040635526,-0.160410419,-3,18,-21,18,11,-8.759186745,4.321534157,1.297657371,0.053292494,0.108983152,-0.574626327,-33,-2,-14,31,194
1695162586633355200,-9.085995674,-1.327584863,-1.604115129,-0.184658498,0.041701376,-0.158545166,-2,21,-21,19,14,-8.762778282,4.333505154,1.295263171,0.055690661,0.108183771,-0.565300167,-35,-5,-15,31,194
1695162586634355200,-9.082404137,-1.328781962,-1.606509328,-0.187722817,0.042500768,-0.1573461,-7,19,-16,15,13,-8.762778282,4.343081951,1.291671872,0.05808882,0.106984682,-0.555574298,-35,-2,-15,31,194
1695162586635355200,-9.077615738,-1.329979062,-1.607706428,-0.192252681,0.043566614,-0.155480847,-3,21,-16,22,12,-8.762778282,4.351461411,1.294066072,0.06008729,0.105385914,-0.545715153,-30,-5,-15,31,196
1695162586665335700,-8.991424561,-1.328781962,-1.528697729,-0.253672272,0.062885143,-0.107251145,-6,21,-15,23,13,-8.763975143,4.452018261,1.312022567,0.055557426,0.050894335,-0.31322667,-35,-2,-17,31,194
1695162586666335700,-8.989029884,-1.328781962,-1.52630353,-0.256203681,0.063284837,-0.103653908,-4,25,-16,19,12,-8.765172005,4.449624062,1.310825467,0.053425729,0.048362937,-0.299637049,-34,-2,-11,30,196
1695162586667335700,-8.986636162,-1.327584863,-1.520318031,-0.258601815,0.063551299,-0.099923424,-6,21,-17,18,12,-8.760383606,4.446032524,1.315613866,0.051160797,0.045698319,-0.286180705,-31,-2,-14,31,191
1695162586668335700,-8.980650902,-1.328781962,-1.515529633,-0.261000007,0.063817769,-0.095793262,-6,11,-16,15,9,-8.756793022,4.443638325,1.318008065,0.048629403,0.043566614,-0.272857577,-37,-1,-13,31,194
