timestamp,EMG_s0,EMG_s1,EMG_s2,EMG_s3,EMG_s4,EMG_s5,EMG_s6,EMG_s7
1.6951625805403185e+18,0.0,2.0,-1.0,-2.0,0.0,-1.0,0.0,-1.0
1.6951625805403185e+18,1.0,0.0,1.0,0.0,1.0,-2.0,1.0,-2.0
1.6951625805453105e+18,-2.0,-1.0,-2.0,1.0,-3.0,-1.0,0.0,-1.0
1.6951625805453105e+18,0.0,-2.0,0.0,0.0,-1.0,-3.0,-2.0,0.0
1.6951625805453105e+18,0.0,0.0,1.0,-2.0,0.0,-1.0,-1.0,-1.0
1.6951625805463124e+18,0.0,1.0,0.0,-2.0,-1.0,0.0,-2.0,-1.0
1.6951625805463124e+18,0.0,0.0,-1.0,-2.0,1.0,-1.0,0.0,0.0
1.6951625805463124e+18,0.0,-1.0,0.0,-1.0,2.0,1.0,0.0,2.0
1.6951625805503314e+18,-1.0,-2.0,0.0,-1.0,1.0,-2.0,0.0,0.0
1.6951625805513088e+18,-1.0,-2.0,-1.0,-1.0,-2.0,-1.0,0.0,-2.0
1.6951625805513088e+18,0.0,-1.0,1.0,0.0,0.0,-2.0,-2.0,-1.0
1.6951625805513088e+18,-1.0,-1.0,-1.0,-1.0,-2.0,0.0,0.0,-1.0
1.6951625805742943e+18,-1.0,-1.0,-1.0,-1.0,-2.0,-3.0,-1.0,0.0
1.6951625805752932e+18,-1.0,0.0,-1.0,-1.0,0.0,0.0,-1.0,0.0
1.6951625805752932e+18,-1.0,-1.0,-2.0,1.0,-1.0,0.0,0.0,0.0
1.6951625805752932e+18,0.0,-1.0,0.0,-1.0,-1.0,-1.0,1.0,-1.0
1.6951625806002816e+18,-1.0,0.0,-2.0,1.0,-2.0,0.0,1.0,0.0
1.6951625806002816e+18,0.0,-2.0,0.0,-2.0,-2.0,0.0,0.0,-1.0
1.6951625806112722e+18,0.0,0.0,-2.0,-3.0,-1.0,1.0,0.0,-1.0
1.6951625806112722e+18,-2.0,0.0,-2.0,-2.0,-2.0,-1.0,0.0,-1.0
1.6951625806132723e+18,-1.0,-1.0,-2.0,-1.0,-1.0,0.0,-2.0,0.0
1.6951625806132723e+18,0.0,-1.0,0.0,-2.0,0.0,-2.0,-1.0,0.0
1.6951625806182707e+18,-2.0,-2.0,-1.0,0.0,-1.0,-1.0,-1.0,0.0
1.69516258061927e+18,-1.0,-1.0,-1.0,-1.0,-2.0,-1.0,-1.0,0.0
1.695162580626267e+18,0.0,-1.0,-1.0,0.0,1.0,-1.0,-1.0,0.0
1.695162580626267e+18,0.0,-1.0,-3.0,0.0,-1.0,-1.0,-1.0,2.0
1.695162580649275e+18,1.0,-1.0,-1.0,-1.0,-1.0,-1.0,-1.0,-2.0
1.695162580649275e+18,-1.0,-2.0,-1.0,-1.0,0.0,-1.0,-1.0,0.0
1.695162580650252e+18,-1.0,0.0,-1.0,-1.0,-1.0,0.0,0.0,-2.0
1.695162580650252e+18,0.0,-2.0,-1.0,-2.0,-1.0,-2.0,-1.0,-1.0
1.6951625806622428e+18,0.0,0.0,0.0,0.0,-1.0,0.0,-1.0,-2.0
1.6951625806622428e+18,-1.0,0.0,-3.0,-1.0,-2.0,-3.0,-3.0,-3.0
1.6951625806962237e+18,-1.0,-1.0,-1.0,-1.0,1.0,0.0,0.0,1.0
1.6951625806962237e+18,0.0,1.0,1.0,-1.0,0.0,-1.0,-1.0,-2.0
1.6951625806972234e+18,-1.0,-2.0,-1.0,-1.0,-2.0,-1.0,-1.0,-2.0
1.6951625806972234e+18,-1.0,-2.0,-1.0,-2.0,0.0,0.0,0.0,0.0
1.6951625807012447e+18,-1.0,0.0,-1.0,1.0,-2.0,-1.0,-2.0,-1.0
1.6951625807012447e+18,-1.0,-2.0,0.0,0.0,0.0,0.0,-2.0,0.0
1.6951625807022218e+18,-2.0,-2.0,-2.0,1.0,0.0,-1.0,0.0,1.0
1.6951625807022218e+18,1.0,1.0,0.0,-2.0,1.0,1.0,0.0,0.0
1.6951625807072205e+18,0.0,0.0,-1.0,-3.0,1.0,-1.0,0.0,-2.0
1.6951625807082194e+18,0.0,1.0,1.0,-1.0,0.0,-1.0,-1.0,0.0
1.695162580723208e+18,0.0,1.0,0.0,-3.0,1.0,-1.0,0.0,0.0
1.695162580723208e+18,0.0,-3.0,-2.0,-2.0,1.0,-1.0,-2.0,-1.0
1.6951625807302047e+18,0.0,-3.0,0.0,-1.0,-2.0,-2.0,-3.0,-2.0
1.6951625807302047e+18,-1.0,0.0,-2.0,0.0,-3.0,0.0,1.0,-1.0
1.6951625807372237e+18,1.0,-1.0,2.0,-1.0,-3.0,-1.0,0.0,-1.0
1.6951625807372237e+18,1.0,-1.0,-1.0,0.0,-2.0,-2.0,0.0,0.0
1.6951625807541916e+18,0.0,0.0,-1.0,-1.0,0.0,-1.0,1.0,0.0
1.6951625807541916e+18,1.0,-1.0,-1.0,-2.0,1.0,-2.0,1.0,-1.0
1.6951625807691894e+18,-2.0,0.0,-3.0,-1.0,0.0,0.0,-1.0,-1.0
1.6951625807691894e+18,0.0,-2.0,-2.0,0.0,-3.0,0.0,1.0,0.0
1.6951625807701827e+18,-1.0,0.0,-1.0,-1.0,-1.0,0.0,-2.0,0.0
1.6951625807701827e+18,-2.0,0.0,-1.0,-1.0,1.0,1.0,-2.0,0.0
1.6951625807931686e+18,0.0,0.0,0.0,0.0,-1.0,0.0,0.0,-2.0
1.6951625807931686e+18,1.0,0.0,1.0,-1.0,0.0,-2.0,-1.0,-2.0
1.6951625807941714e+18,-1.0,0.0,0.0,0.0,-1.0,-1.0,1.0,1.0
1.6951625807941714e+18,-2.0,-2.0,-1.0,-3.0,-4.0,-3.0,-1.0,-1.0
1.6951625808051615e+18,0.0,-3.0,0.0,0.0,-2.0,0.0,0.0,-1.0
1.6951625808051615e+18,0.0,-2.0,0.0,2.0,1.0,0.0,2.0,0.0
1.6951625808141573e+18,-1.0,-2.0,-2.0,-3.0,-3.0,0.0,1.0,0.0
1.6951625808141573e+18,1.0,-1.0,1.0,-1.0,-4.0,-2.0,0.0,-2.0
1.6951625808381527e+18,-2.0,-1.0,0.0,-3.0,2.0,0.0,-1.0,1.0
1.6951625808381527e+18,-2.0,0.0,-1.0,2.0,-1.0,-3.0,-2.0,0.0
1.6951625808391457e+18,-2.0,1.0,-1.0,-1.0,0.0,0.0,-2.0,-1.0
1.6951625808391457e+18,-1.0,-2.0,-1.0,0.0,0.0,-1.0,-1.0,-1.0
1.6951625808513252e+18,-2.0,0.0,0.0,6.0,1.0,-2.0,-3.0,-3.0
1.6951625808513252e+18,-1.0,1.0,1.0,-8.0,-1.0,0.0,1.0,-1.0
1.6951625808531346e+18,-1.0,-1.0,-5.0,-14.0,-7.0,-5.0,-3.0,-2.0
1.6951625808531346e+18,-2.0,-1.0,3.0,-2.0,-13.0,-7.0,-7.0,-5.0
1.6951625808651272e+18,1.0,-1.0,-3.0,5.0,10.0,-5.0,1.0,-1.0
1.6951625808651272e+18,-1.0,0.0,-3.0,7.0,7.0,11.0,-1.0,0.0
1.6951625808811218e+18,-1.0,-1.0,2.0,8.0,2.0,3.0,1.0,0.0
1.6951625808841196e+18,-1.0,-2.0,-5.0,-4.0,-7.0,-2.0,-1.0,-1.0
1.695162580889116e+18,-3.0,-2.0,-2.0,-4.0,-4.0,-3.0,-5.0,-1.0
1.695162580889116e+18,-4.0,-3.0,-4.0,-5.0,-9.0,-10.0,-4.0,-3.0
1.695162580890138e+18,0.0,-2.0,-3.0,-1.0,0.0,0.0,0.0,-4.0
1.6951625808911135e+18,-1.0,-3.0,-2.0,-1.0,-1.0,0.0,0.0,-1.0
1.695162580911125e+18,-1.0,0.0,1.0,-2.0,-5.0,-3.0,1.0,-1.0
1.695162580911125e+18,-1.0,-1.0,-1.0,-1.0,-2.0,-1.0,-1.0,-2.0
1.6951625809130998e+18,-1.0,-1.0,0.0,-1.0,-4.0,0.0,-3.0,-3.0
1.6951625809130998e+18,-1.0,-1.0,-1.0,4.0,4.0,1.0,0.0,0.0
1.6951625809250972e+18,-1.0,-1.0,-1.0,-4.0,0.0,-1.0,-1.0,-2.0
1.6951625809250972e+18,-2.0,-2.0,-1.0,-1.0,0.0,1.0,1.0,0.0
1.6951625809340882e+18,-1.0,-1.0,0.0,2.0,0.0,0.0,0.0,-2.0
1.6951625809340882e+18,-1.0,-1.0,-2.0,1.0,8.0,-2.0,1.0,0.0
1.6951625809480799e+18,0.0,-3.0,-2.0,-6.0,-3.0,-2.0,-2.0,-1.0
1.6951625809480799e+18,-1.0,-2.0,-1.0,0.0,-7.0,-5.0,-4.0,-3.0
1.6951625809620956e+18,-1.0,-1.0,1.0,2.0,3.0,1.0,-1.0,-1.0
1.6951625809620956e+18,0.0,1.0,0.0,-1.0,-3.0,0.0,-1.0,0.0
1.6951625809710702e+18,-1.0,-1.0,-1.0,-2.0,-2.0,0.0,-3.0,1.0
1.6951625809720763e+18,-2.0,-1.0,-1.0,4.0,5.0,0.0,0.0,-2.0
1.695162580977064e+18,-1.0,-1.0,-1.0,8.0,5.0,-6.0,-1.0,-1.0
1.6951625809780636e+18,-1.0,0.0,4.0,-5.0,-9.0,-5.0,-2.0,-1.0
1.6951625809850596e+18,0.0,-1.0,-6.0,-5.0,-8.0,11.0,0.0,-1.0
1.6951625809850596e+18,0.0,0.0,-1.0,3.0,19.0,1.0,1.0,-2.0
1.6951625809940536e+18,-1.0,0.0,-3.0,-5.0,-6.0,-2.0,-2.0,-1.0
1.6951625809940536e+18,-2.0,-1.0,-2.0,1.0,8.0,7.0,-1.0,-3.0
1.695162581011046e+18,-3.0,0.0,2.0,-1.0,-10.0,-10.0,0.0,1.0
1.695162581011046e+18,-1.0,-1.0,-3.0,-8.0,-11.0,1.0,-2.0,1.0
1.6951625810150472e+18,0.0,-1.0,-2.0,1.0,6.0,-1.0,0.0,-1.0
1.6951625810150472e+18,-1.0,0.0,-1.0,5.0,-1.0,-3.0,-1.0,-1.0
1.695162581031034e+18,3.0,1.0,1.0,-6.0,0.0,3.0,0.0,0.0
1.6951625810320333e+18,1.0,1.0,0.0,-3.0,-5.0,-3.0,-3.0,-1.0
1.6951625810330314e+18,1.0,0.0,0.0,-12.0,-7.0,-2.0,0.0,1.0
1.6951625810330314e+18,-1.0,0.0,1.0,4.0,5.0,2.0,0.0,2.0
1.695162581045024e+18,-1.0,0.0,2.0,5.0,4.0,1.0,-1.0,-2.0
1.695162581045024e+18,-1.0,0.0,0.0,1.0,3.0,0.0,2.0,0.0
1.695162581054022e+18,0.0,-3.0,1.0,8.0,13.0,1.0,-1.0,0.0
1.695162581054022e+18,0.0,-1.0,-4.0,-10.0,-9.0,-1.0,-1.0,1.0
1.695162581068011e+18,-1.0,-1.0,-1.0,8.0,2.0,-3.0,0.0,0.0
1.695162581068011e+18,-1.0,-2.0,-4.0,-16.0,-9.0,-5.0,-2.0,-3.0
1.6951625810750075e+18,-1.0,2.0,4.0,1.0,-6.0,0.0,-2.0,0.0
1.6951625810750075e+18,-2.0,-1.0,-1.0,1.0,10.0,3.0,2.0,1.0
1.6951625810910044e+18,0.0,-2.0,-3.0,-4.0,-11.0,-5.0,-3.0,-2.0
1.6951625810919977e+18,-1.0,-1.0,0.0,0.0,15.0,6.0,1.0,0.0
1.6951625810929974e+18,-2.0,-3.0,-2.0,-6.0,-14.0,-8.0,-4.0,-3.0
1.6951625810929974e+18,-1.0,-1.0,1.0,-2.0,-7.0,-8.0,-1.0,0.0
1.6951625811139845e+18,2.0,2.0,2.0,3.0,12.0,9.0,3.0,1.0
1.6951625811139845e+18,-1.0,0.0,1.0,-7.0,-10.0,-1.0,2.0,1.0
1.6951625811149883e+18,-2.0,-2.0,-1.0,4.0,8.0,15.0,2.0,1.0
1.6951625811149883e+18,2.0,0.0,-2.0,3.0,-11.0,-5.0,-2.0,0.0
1.6951625811289838e+18,-1.0,0.0,-2.0,-4.0,-10.0,-12.0,-5.0,4.0
1.6951625811289838e+18,1.0,0.0,1.0,-7.0,6.0,2.0,-1.0,-18.0
1.6951625811519631e+18,-2.0,1.0,0.0,3.0,-5.0,-5.0,-1.0,1.0
1.6951625811519631e+18,-1.0,1.0,1.0,-10.0,-7.0,5.0,2.0,-1.0
1.6951625811529649e+18,-2.0,-5.0,-6.0,2.0,8.0,5.0,4.0,-7.0
1.6951625811529649e+18,1.0,6.0,5.0,6.0,-16.0,-8.0,-7.0,-3.0
1.6951625811539648e+18,0.0,-15.0,-1.0,6.0,8.0,2.0,2.0,22.0
1.6951625811539648e+18,0.0,1.0,-2.0,4.0,16.0,5.0,-3.0,-8.0
1.695162581180946e+18,0.0,5.0,11.0,-10.0,-9.0,0.0,8.0,5.0
1.695162581180946e+18,-4.0,-3.0,-7.0,16.0,-8.0,-5.0,-7.0,-29.0
1.6951625811829453e+18,-5.0,-2.0,-4.0,-23.0,-24.0,-12.0,-13.0,-28.0
1.6951625811829453e+18,-7.0,2.0,28.0,25.0,22.0,-4.0,-21.0,22.0
1.6951625811879665e+18,4.0,-14.0,-38.0,-22.0,-1.0,-3.0,-5.0,10.0
1.6951625811879665e+18,3.0,-7.0,4.0,2.0,16.0,17.0,9.0,-9.0
1.6951625812029373e+18,2.0,19.0,-4.0,6.0,0.0,4.0,16.0,25.0
1.6951625812029373e+18,-6.0,-12.0,-8.0,-17.0,-11.0,-7.0,-11.0,-22.0
1.695162581209953e+18,4.0,-7.0,7.0,4.0,-11.0,-11.0,-16.0,11.0
1.6951625812109307e+18,3.0,6.0,7.0,-1.0,-6.0,-6.0,17.0,11.0
1.6951625812189304e+18,-11.0,-4.0,-18.0,12.0,7.0,3.0,-8.0,-5.0
1.6951625812189304e+18,7.0,5.0,-1.0,-16.0,-7.0,-4.0,10.0,-13.0
1.6951625812748933e+18,-11.0,1.0,33.0,10.0,6.0,3.0,-1.0,14.0
1.6951625812748933e+18,-4.0,2.0,-14.0,-2.0,-2.0,-2.0,-32.0,11.0
1.6951625812898844e+18,-3.0,-1.0,9.0,-13.0,-3.0,11.0,16.0,-39.0
1.6951625812958817e+18,7.0,8.0,18.0,15.0,10.0,0.0,7.0,14.0
1.6951625812958817e+18,-7.0,-12.0,-42.0,-8.0,-10.0,-5.0,-22.0,-108.0
1.6951625812968806e+18,18.0,9.0,16.0,3.0,13.0,-3.0,44.0,103.0
1.6951625812968806e+18,-9.0,-26.0,-12.0,3.0,-3.0,-5.0,-25.0,-20.0
1.6951625812968806e+18,-5.0,12.0,-17.0,-13.0,-7.0,5.0,16.0,27.0
1.6951625813128714e+18,-3.0,-19.0,19.0,8.0,9.0,8.0,0.0,-5.0
1.6951625813138716e+18,9.0,1.0,22.0,5.0,-3.0,-3.0,-12.0,30.0
1.6951625813138716e+18,-12.0,6.0,36.0,3.0,4.0,1.0,-4.0,-21.0
1.6951625813138716e+18,-7.0,1.0,-28.0,-7.0,-8.0,1.0,2.0,-27.0
1.6951625813138716e+18,5.0,-1.0,8.0,-4.0,-6.0,-8.0,-3.0,23.0
1.6951625813138716e+18,-3.0,-5.0,21.0,5.0,-6.0,-4.0,-1.0,-24.0
1.6951625813318605e+18,10.0,20.0,-62.0,7.0,16.0,8.0,9.0,27.0
1.69516258133286e+18,-23.0,-49.0,11.0,-7.0,-3.0,1.0,5.0,-77.0
1.69516258133286e+18,17.0,35.0,21.0,-2.0,-6.0,-7.0,6.0,85.0
1.69516258133286e+18,-2.0,-16.0,15.0,3.0,4.0,6.0,-12.0,17.0
1.6951625813338609e+18,3.0,6.0,-15.0,4.0,-7.0,-7.0,12.0,15.0
1.6951625813338609e+18,2.0,5.0,-23.0,-1.0,-3.0,-6.0,-6.0,-19.0
1.6951625813348588e+18,-5.0,4.0,-13.0,-5.0,-1.0,4.0,-11.0,-37.0
1.6951625813348588e+18,-4.0,-12.0,-26.0,-14.0,-13.0,-6.0,9.0,-1.0
1.695162581358847e+18,-9.0,-1.0,7.0,8.0,7.0,1.0,4.0,-4.0
1.695162581358847e+18,14.0,29.0,49.0,9.0,0.0,-8.0,-26.0,2.0
1.695162581358847e+18,-11.0,-26.0,-1.0,0.0,8.0,0.0,10.0,8.0
1.695162581358847e+18,0.0,1.0,-40.0,2.0,-3.0,-2.0,-10.0,7.0
1.6951625813838308e+18,3.0,4.0,25.0,-2.0,0.0,7.0,21.0,-13.0
1.6951625813838308e+18,-8.0,5.0,-27.0,-4.0,-4.0,-3.0,-11.0,15.0
1.6951625813858296e+18,4.0,3.0,-6.0,-2.0,-1.0,-5.0,5.0,-6.0
1.6951625813858296e+18,3.0,-6.0,26.0,7.0,15.0,0.0,-12.0,33.0
1.6951625813968236e+18,5.0,12.0,-34.0,0.0,2.0,-2.0,3.0,-8.0
1.6951625813978235e+18,-11.0,-6.0,59.0,0.0,-3.0,4.0,8.0,2.0
1.6951625813978235e+18,14.0,12.0,17.0,-3.0,-4.0,-1.0,1.0,29.0
1.6951625813978235e+18,-14.0,-46.0,-47.0,-13.0,-10.0,-14.0,-16.0,-34.0
1.6951625814138135e+18,-2.0,0.0,12.0,0.0,2.0,-3.0,-6.0,4.0
1.6951625814138135e+18,1.0,1.0,-31.0,2.0,3.0,7.0,2.0,7.0
1.6951625814158124e+18,-3.0,21.0,39.0,7.0,1.0,1.0,15.0,-30.0
1.6951625814158124e+18,-9.0,15.0,20.0,0.0,0.0,1.0,-7.0,-22.0
1.695162581427808e+18,13.0,27.0,15.0,-10.0,-12.0,-9.0,-33.0,20.0
1.695162581427808e+18,-15.0,-36.0,-8.0,11.0,13.0,4.0,13.0,13.0
1.6951625814437975e+18,-1.0,-13.0,-34.0,-6.0,0.0,2.0,20.0,2.0
1.6951625814437975e+18,0.0,12.0,-7.0,-8.0,-7.0,0.0,-21.0,21.0
1.6951625814507924e+18,1.0,-21.0,7.0,1.0,5.0,6.0,18.0,11.0
1.6951625814517926e+18,-5.0,21.0,-12.0,-3.0,-10.0,-2.0,0.0,-35.0
1.6951625814647846e+18,-1.0,2.0,11.0,0.0,5.0,-1.0,-24.0,6.0
1.6951625814657846e+18,1.0,-16.0,48.0,7.0,10.0,4.0,10.0,-5.0
1.695162581481775e+18,-3.0,0.0,-9.0,1.0,-10.0,-6.0,-5.0,-9.0
1.695162581481775e+18,-5.0,-14.0,-54.0,-6.0,-7.0,-5.0,-6.0,9.0
1.6951625814827766e+18,4.0,12.0,79.0,4.0,4.0,4.0,9.0,-15.0
1.6951625814837747e+18,1.0,-4.0,-48.0,-11.0,-3.0,-4.0,1.0,-22.0
1.6951625814967667e+18,-8.0,-4.0,14.0,-9.0,0.0,0.0,-6.0,21.0
1.6951625814967667e+18,11.0,17.0,-1.0,8.0,0.0,0.0,2.0,-14.0
1.6951625814977654e+18,-2.0,-24.0,-29.0,-6.0,5.0,5.0,-2.0,4.0
1.6951625814977654e+18,8.0,20.0,7.0,0.0,-6.0,-3.0,-8.0,-8.0
1.6951625815187548e+18,3.0,7.0,27.0,-4.0,-15.0,-9.0,-9.0,31.0
1.6951625815187548e+18,0.0,-11.0,-28.0,1.0,7.0,3.0,0.0,-8.0
1.6951625815197545e+18,-1.0,6.0,-27.0,-4.0,-3.0,-5.0,-12.0,-10.0
1.6951625815207526e+18,-2.0,6.0,-16.0,2.0,3.0,7.0,23.0,-9.0
1.695162581533746e+18,-2.0,-19.0,-14.0,11.0,7.0,2.0,-3.0,7.0
1.695162581533746e+18,6.0,11.0,19.0,-17.0,-14.0,-8.0,-14.0,5.0
1.6951625815347443e+18,-2.0,-21.0,-69.0,-1.0,5.0,2.0,-6.0,-38.0
1.6951625815347443e+18,3.0,20.0,11.0,4.0,-4.0,-1.0,13.0,9.0
1.6951625815557322e+18,-4.0,-16.0,-24.0,2.0,2.0,4.0,9.0,-6.0
1.6951625815567316e+18,1.0,-11.0,-11.0,1.0,5.0,3.0,-1.0,4.0
1.6951625815577395e+18,1.0,9.0,-12.0,-1.0,0.0,0.0,-2.0,2.0
1.6951625815587313e+18,-6.0,1.0,23.0,-3.0,-3.0,0.0,13.0,-15.0
1.695162581570724e+18,-1.0,-25.0,-7.0,-3.0,0.0,1.0,-6.0,8.0
1.6951625815717233e+18,6.0,25.0,-10.0,-8.0,-10.0,-3.0,-10.0,17.0
1.6951625815727255e+18,-9.0,-15.0,27.0,6.0,14.0,-4.0,-4.0,-10.0
1.6951625815727255e+18,0.0,-7.0,3.0,17.0,8.0,4.0,2.0,-3.0
1.6951625815927342e+18,3.0,27.0,17.0,-20.0,-7.0,-1.0,16.0,23.0
1.6951625815927342e+18,-5.0,-12.0,14.0,2.0,5.0,-1.0,-7.0,-4.0
1.6951625816097085e+18,7.0,-3.0,-12.0,-10.0,-15.0,-7.0,-7.0,6.0
1.6951625816097085e+18,1.0,1.0,-45.0,-7.0,-6.0,-3.0,-4.0,-7.0
1.695162581610703e+18,-7.0,-3.0,7.0,10.0,8.0,5.0,12.0,-20.0
1.695162581610703e+18,2.0,10.0,15.0,-3.0,5.0,0.0,4.0,14.0
1.6951625816167004e+18,0.0,4.0,43.0,-6.0,-6.0,-2.0,-9.0,14.0
1.6951625816167004e+18,-1.0,-13.0,-8.0,5.0,5.0,1.0,3.0,14.0
1.6951625816316882e+18,6.0,9.0,9.0,14.0,2.0,4.0,7.0,-25.0
1.6951625816316882e+18,1.0,1.0,8.0,6.0,3.0,0.0,-1.0,13.0
1.6951625816326907e+18,4.0,-5.0,-20.0,-9.0,-9.0,-6.0,4.0,5.0
1.6951625816326907e+18,-3.0,10.0,28.0,-10.0,-3.0,0.0,-3.0,5.0
1.6951625816536768e+18,-3.0,3.0,17.0,-2.0,-1.0,-2.0,-9.0,-28.0
1.6951625816536768e+18,-1.0,-2.0,12.0,3.0,-1.0,-3.0,5.0,-10.0
1.6951625816596718e+18,0.0,-11.0,18.0,9.0,0.0,-1.0,-8.0,-1.0
1.6951625816596718e+18,-2.0,-2.0,-24.0,-18.0,-6.0,-3.0,3.0,4.0
1.6951625816836618e+18,-4.0,7.0,14.0,4.0,4.0,1.0,4.0,-24.0
1.6951625816836618e+18,6.0,-14.0,-6.0,-5.0,-5.0,-6.0,-8.0,-2.0
1.6951625816856594e+18,4.0,-4.0,-24.0,9.0,6.0,3.0,-7.0,10.0
1.6951625816856594e+18,-2.0,2.0,5.0,6.0,-8.0,-4.0,-4.0,-2.0
1.6951625816986534e+18,-1.0,-4.0,-18.0,-16.0,-6.0,1.0,-2.0,-3.0
1.6951625816986534e+18,-3.0,8.0,-15.0,8.0,18.0,7.0,14.0,-11.0
1.695162581700649e+18,-8.0,-23.0,44.0,1.0,-3.0,-2.0,-5.0,-3.0
1.695162581700649e+18,2.0,-7.0,-20.0,0.0,4.0,0.0,-4.0,0.0
1.695162581713641e+18,-8.0,-3.0,35.0,7.0,-1.0,1.0,0.0,-12.0
1.695162581713641e+18,1.0,-19.0,-17.0,-9.0,-13.0,-9.0,-6.0,-2.0
1.6951625817196613e+18,0.0,3.0,16.0,3.0,6.0,2.0,3.0,-2.0
1.6951625817196613e+18,-6.0,-7.0,-21.0,10.0,3.0,0.0,2.0,4.0
1.6951625817386273e+18,13.0,5.0,15.0,-15.0,-5.0,-1.0,-5.0,18.0
1.695162581743626e+18,-6.0,-2.0,24.0,4.0,-11.0,-3.0,0.0,-10.0
1.6951625817596155e+18,-9.0,-1.0,-58.0,-8.0,7.0,1.0,1.0,-5.0
1.6951625817596155e+18,-2.0,-8.0,-31.0,-14.0,-13.0,1.0,1.0,-14.0
1.6951625817596155e+18,-2.0,-7.0,-3.0,9.0,15.0,-2.0,-2.0,20.0
1.6951625817606234e+18,-13.0,-20.0,-14.0,-9.0,-2.0,3.0,-13.0,-22.0
1.695162581761638e+18,12.0,20.0,14.0,-11.0,-20.0,-1.0,18.0,8.0
1.695162581761638e+18,0.0,-2.0,-2.0,25.0,25.0,4.0,-12.0,13.0
1.6951625817736105e+18,3.0,1.0,-55.0,-11.0,-7.0,-4.0,-2.0,5.0
1.6951625817746097e+18,-6.0,-1.0,-14.0,-1.0,-4.0,-5.0,1.0,-9.0
1.6951625817985933e+18,-10.0,-14.0,17.0,5.0,2.0,4.0,4.0,-22.0
1.6951625817985933e+18,0.0,-3.0,24.0,-3.0,-4.0,-1.0,1.0,19.0
1.6951625817995953e+18,3.0,17.0,-33.0,1.0,-1.0,-1.0,-6.0,-3.0
1.6951625817995953e+18,-1.0,-10.0,15.0,-5.0,1.0,1.0,8.0,1.0
1.695162581814589e+18,-3.0,3.0,-21.0,-6.0,-7.0,-4.0,-6.0,-10.0
1.695162581814589e+18,-1.0,2.0,22.0,1.0,2.0,2.0,13.0,14.0
1.6951625818185828e+18,-1.0,-3.0,-7.0,-2.0,-3.0,-3.0,-13.0,8.0
1.6951625818185828e+18,4.0,14.0,12.0,-5.0,-3.0,2.0,1.0,10.0
1.6951625818205804e+18,-1.0,-1.0,59.0,8.0,-8.0,-5.0,-5.0,18.0
1.6951625818205804e+18,3.0,3.0,-3.0,-5.0,5.0,-1.0,4.0,-8.0
1.6951625818325734e+18,-2.0,0.0,-5.0,-5.0,-7.0,-6.0,-1.0,-3.0
1.6951625818325734e+18,-4.0,-19.0,3.0,5.0,10.0,4.0,-2.0,-3.0
1.6951625818495877e+18,0.0,22.0,13.0,6.0,0.0,-3.0,-8.0,-9.0
1.6951625818495877e+18,4.0,12.0,31.0,-2.0,-1.0,8.0,6.0,-3.0
1.695162581871551e+18,-3.0,-18.0,0.0,-3.0,-7.0,-8.0,-1.0,9.0
1.695162581871551e+18,8.0,10.0,29.0,13.0,11.0,7.0,9.0,18.0
1.695162581872553e+18,-10.0,-5.0,-32.0,-15.0,-13.0,-8.0,-20.0,-19.0
1.695162581872553e+18,-1.0,-18.0,0.0,-2.0,-2.0,-2.0,-2.0,-17.0
1.6951625818885417e+18,-5.0,-5.0,-21.0,-13.0,-9.0,-6.0,-10.0,-8.0
1.6951625818895414e+18,-4.0,6.0,-4.0,-2.0,-9.0,-4.0,-6.0,0.0
1.6951625818895414e+18,-3.0,0.0,-14.0,6.0,9.0,1.0,6.0,2.0
1.6951625818905405e+18,2.0,10.0,-44.0,-10.0,-6.0,-1.0,-3.0,-9.0
1.69516258190853e+18,-3.0,-6.0,-18.0,14.0,5.0,2.0,3.0,-8.0
1.69516258190853e+18,0.0,-1.0,-9.0,-1.0,0.0,-3.0,-5.0,-3.0
1.6951625819105316e+18,3.0,0.0,24.0,6.0,2.0,1.0,6.0,14.0
1.6951625819105316e+18,1.0,5.0,-10.0,-11.0,-6.0,-7.0,-11.0,-10.0
1.6951625819235236e+18,0.0,4.0,22.0,5.0,10.0,7.0,8.0,-3.0
1.6951625819245212e+18,3.0,16.0,19.0,3.0,-3.0,-4.0,0.0,2.0
1.69516258192552e+18,3.0,8.0,9.0,4.0,0.0,3.0,12.0,3.0
1.69516258192552e+18,1.0,-9.0,-19.0,9.0,3.0,-5.0,-10.0,7.0
1.6951625819385134e+18,0.0,0.0,10.0,-8.0,2.0,7.0,4.0,1.0
1.6951625819395128e+18,-2.0,-4.0,-7.0,-13.0,-7.0,-5.0,-4.0,-5.0
1.6951625819435154e+18,4.0,17.0,13.0,6.0,5.0,-2.0,3.0,2.0
1.6951625819435154e+18,-1.0,-13.0,-9.0,6.0,-2.0,7.0,4.0,-2.0
1.6951625819615045e+18,-4.0,-6.0,0.0,6.0,2.0,-1.0,-4.0,-2.0
1.6951625819624998e+18,4.0,8.0,-1.0,-7.0,-5.0,1.0,7.0,20.0
1.6951625819624998e+18,-2.0,-7.0,-19.0,6.0,8.0,2.0,-5.0,-44.0
1.6951625819624998e+18,4.0,12.0,-6.0,-6.0,-3.0,-2.0,7.0,10.0
1.6951625819834888e+18,2.0,-4.0,31.0,1.0,1.0,-3.0,-6.0,4.0
1.6951625819834888e+18,0.0,0.0,-17.0,0.0,-5.0,0.0,0.0,1.0
1.695162581985486e+18,-6.0,-5.0,-22.0,-3.0,2.0,-2.0,-3.0,5.0
1.695162581985486e+18,2.0,0.0,17.0,6.0,3.0,-1.0,-2.0,-6.0
1.6951625819984796e+18,-1.0,11.0,9.0,-2.0,-4.0,0.0,4.0,-2.0
1.6951625819984796e+18,2.0,-9.0,9.0,1.0,-2.0,-4.0,-1.0,-7.0
1.6951625820004767e+18,0.0,2.0,-10.0,-2.0,-3.0,1.0,-2.0,3.0
1.6951625820004767e+18,-5.0,-8.0,10.0,-2.0,-2.0,-4.0,-5.0,0.0
1.6951625820144924e+18,1.0,6.0,-3.0,-4.0,-6.0,-3.0,0.0,0.0
1.695162582017472e+18,-5.0,-3.0,-7.0,1.0,2.0,0.0,0.0,-4.0
1.6951625820214707e+18,-2.0,-9.0,-16.0,-4.0,0.0,-2.0,-3.0,6.0
1.6951625820214707e+18,-3.0,4.0,21.0,-2.0,-3.0,-2.0,1.0,2.0
1.6951625820364562e+18,-1.0,-6.0,0.0,1.0,0.0,-2.0,2.0,-3.0
1.6951625820374584e+18,-2.0,1.0,-13.0,3.0,1.0,-1.0,-4.0,-10.0
1.6951625820374584e+18,1.0,-12.0,-3.0,-6.0,-1.0,0.0,1.0,11.0
1.695162582038458e+18,0.0,3.0,-10.0,-4.0,-5.0,-3.0,-2.0,1.0
1.695162582073435e+18,-2.0,-6.0,9.0,3.0,2.0,1.0,1.0,-1.0
1.6951625820744356e+18,-3.0,-1.0,2.0,0.0,2.0,2.0,1.0,-6.0
1.6951625820744356e+18,-1.0,-2.0,-6.0,-4.0,-4.0,-2.0,-3.0,6.0
1.6951625820744356e+18,-4.0,4.0,12.0,0.0,0.0,-3.0,-1.0,0.0
1.6951625820874278e+18,-2.0,-2.0,-4.0,0.0,-3.0,-4.0,-4.0,-2.0
1.6951625820874278e+18,-1.0,0.0,-2.0,-3.0,-1.0,-1.0,-2.0,0.0
1.6951625821124127e+18,-1.0,0.0,0.0,2.0,0.0,1.0,-1.0,-1.0
1.6951625821124127e+18,0.0,0.0,4.0,2.0,-1.0,0.0,-3.0,-3.0
1.695162582114414e+18,-1.0,-3.0,-5.0,-1.0,-1.0,-1.0,1.0,-2.0
1.695162582114414e+18,-1.0,1.0,3.0,-4.0,-1.0,-1.0,-1.0,-1.0
1.6951625821154135e+18,9.0,-1.0,-5.0,-2.0,-1.0,-1.0,-2.0,1.0
1.6951625821154135e+18,-5.0,0.0,10.0,11.0,0.0,-2.0,0.0,-2.0
1.6951625821194102e+18,0.0,0.0,-4.0,-2.0,0.0,-1.0,-1.0,1.0
1.6951625821194102e+18,1.0,0.0,1.0,-2.0,0.0,2.0,0.0,-2.0
1.6951625821204083e+18,-2.0,-6.0,-13.0,-14.0,-5.0,-1.0,0.0,0.0
1.6951625821204083e+18,-2.0,-1.0,13.0,15.0,1.0,-2.0,-2.0,-1.0
1.695162582149399e+18,-1.0,-3.0,-8.0,-10.0,-3.0,-1.0,0.0,-3.0
1.695162582149399e+18,1.0,1.0,1.0,9.0,4.0,-1.0,1.0,-1.0
1.695162582149399e+18,-4.0,-1.0,-1.0,-23.0,-5.0,-1.0,0.0,0.0
1.695162582149399e+18,-1.0,0.0,4.0,2.0,0.0,1.0,-1.0,1.0
1.6951625821673874e+18,-3.0,-3.0,-12.0,-5.0,1.0,0.0,-1.0,0.0
1.6951625821743782e+18,-3.0,-1.0,-1.0,-3.0,1.0,1.0,-2.0,-1.0
1.6951625821743782e+18,0.0,1.0,-2.0,2.0,0.0,-1.0,1.0,3.0
1.6951625821743782e+18,3.0,-2.0,1.0,-3.0,-1.0,-1.0,-1.0,0.0
1.6951625821863708e+18,1.0,-1.0,2.0,5.0,-3.0,-3.0,-2.0,-1.0
1.6951625821863708e+18,-1.0,0.0,-3.0,0.0,1.0,1.0,-3.0,1.0
1.6951625821863708e+18,-3.0,0.0,4.0,12.0,2.0,-2.0,-2.0,-2.0
1.6951625821873705e+18,-1.0,-1.0,-2.0,-12.0,-5.0,0.0,-1.0,-1.0
1.6951625822003625e+18,0.0,-2.0,2.0,14.0,0.0,3.0,2.0,0.0
1.6951625822003625e+18,-3.0,0.0,3.0,-1.0,-1.0,-2.0,-2.0,-2.0
1.6951625822013627e+18,-2.0,1.0,-4.0,-4.0,0.0,0.0,-2.0,0.0
1.6951625822013627e+18,0.0,-1.0,-2.0,-7.0,-1.0,1.0,0.0,-1.0
1.6951625822253486e+18,-1.0,1.0,-8.0,-10.0,-1.0,0.0,0.0,-1.0
1.6951625822253486e+18,5.0,-3.0,0.0,-6.0,-2.0,-1.0,0.0,-2.0
1.695162582226348e+18,-1.0,0.0,8.0,19.0,2.0,0.0,-1.0,-1.0
1.695162582226348e+18,1.0,-1.0,-4.0,-7.0,1.0,-1.0,1.0,1.0
1.6951625822383406e+18,-1.0,-2.0,2.0,5.0,0.0,-1.0,-1.0,1.0
1.6951625822383406e+18,-2.0,-3.0,-1.0,-3.0,-2.0,0.0,-1.0,-2.0
1.6951625822383406e+18,0.0,1.0,-2.0,-2.0,-3.0,-1.0,-1.0,-1.0
1.6951625822393426e+18,-2.0,0.0,-3.0,0.0,-2.0,0.0,-3.0,1.0
1.695162582277321e+18,0.0,0.0,0.0,0.0,0.0,-2.0,1.0,0.0
1.695162582277321e+18,0.0,-2.0,1.0,-1.0,-2.0,-1.0,0.0,-3.0
1.6951625822783247e+18,1.0,-1.0,1.0,2.0,0.0,0.0,-3.0,0.0
1.6951625822783247e+18,-1.0,1.0,0.0,3.0,-1.0,0.0,-1.0,-2.0
1.6951625822793175e+18,-1.0,-3.0,-8.0,-7.0,-2.0,0.0,-1.0,0.0
1.6951625822803172e+18,-3.0,0.0,5.0,0.0,-2.0,-2.0,-2.0,-1.0
1.695162582283316e+18,0.0,-2.0,-9.0,-1.0,0.0,-1.0,-2.0,-1.0
1.695162582283316e+18,0.0,2.0,4.0,-1.0,-2.0,-3.0,1.0,0.0
1.6951625823033037e+18,-2.0,-3.0,-3.0,2.0,0.0,0.0,-1.0,-1.0
1.6951625823033037e+18,0.0,-1.0,0.0,0.0,-1.0,-1.0,1.0,1.0
1.6951625823033037e+18,-1.0,0.0,1.0,0.0,-2.0,-2.0,-2.0,-2.0
1.6951625823073062e+18,-2.0,-1.0,-3.0,-4.0,1.0,0.0,0.0,-1.0
1.6951625823282913e+18,0.0,1.0,3.0,2.0,2.0,2.0,2.0,-1.0
1.6951625823292892e+18,-3.0,-1.0,-5.0,-2.0,-1.0,-1.0,-1.0,1.0
1.6951625823292892e+18,-2.0,0.0,-3.0,-4.0,-3.0,-2.0,-1.0,-1.0
1.6951625823302886e+18,-2.0,0.0,19.0,0.0,-3.0,-2.0,-1.0,-2.0
1.6951625823352852e+18,1.0,-2.0,-10.0,0.0,-2.0,0.0,0.0,0.0
1.6951625823362852e+18,-1.0,-1.0,-1.0,1.0,0.0,-2.0,0.0,-1.0
1.6951625823362852e+18,0.0,0.0,-2.0,-2.0,-1.0,2.0,-1.0,0.0
1.6951625823362852e+18,0.0,-3.0,-5.0,0.0,0.0,2.0,0.0,-1.0
1.6951625823772644e+18,-1.0,-1.0,4.0,0.0,-4.0,-1.0,-1.0,-1.0
1.6951625823772644e+18,1.0,0.0,-6.0,-9.0,4.0,1.0,0.0,0.0
1.6951625823772644e+18,-2.0,-4.0,5.0,9.0,0.0,-2.0,-3.0,-1.0
1.695162582378262e+18,0.0,3.0,-2.0,-1.0,-2.0,-2.0,-2.0,-1.0
1.6951625823882547e+18,-1.0,-2.0,-11.0,-3.0,-1.0,-1.0,-2.0,0.0
1.6951625823892557e+18,-1.0,2.0,12.0,0.0,-2.0,-1.0,-1.0,-2.0
1.6951625823892557e+18,-1.0,0.0,4.0,-1.0,-1.0,0.0,0.0,-2.0
1.6951625823902543e+18,-1.0,0.0,-4.0,-2.0,-1.0,0.0,-1.0,0.0
1.6951625824092447e+18,-3.0,-5.0,-5.0,-2.0,-2.0,-2.0,-1.0,-2.0
1.6951625824112428e+18,-2.0,0.0,-2.0,1.0,-1.0,-1.0,0.0,0.0
1.6951625824122432e+18,-2.0,-1.0,3.0,-2.0,1.0,0.0,0.0,-1.0
1.6951625824122432e+18,0.0,-1.0,-3.0,1.0,1.0,-1.0,-2.0,-1.0
1.6951625824182387e+18,1.0,1.0,0.0,-3.0,-1.0,-1.0,-2.0,-1.0
1.6951625824182387e+18,0.0,-3.0,-1.0,1.0,0.0,1.0,-1.0,0.0
1.6951625824192402e+18,0.0,-1.0,-1.0,-1.0,-3.0,1.0,1.0,-2.0
1.6951625824192402e+18,0.0,-1.0,-7.0,-4.0,2.0,2.0,0.0,0.0
1.6951625824422252e+18,0.0,2.0,9.0,0.0,-2.0,-3.0,-2.0,0.0
1.6951625824422252e+18,-2.0,-2.0,-4.0,3.0,-2.0,-2.0,-1.0,-1.0
1.6951625824422252e+18,-1.0,1.0,-2.0,-1.0,-1.0,-2.0,0.0,0.0
1.695162582443225e+18,0.0,-1.0,2.0,-3.0,-2.0,-3.0,-2.0,-1.0
1.6951625824592156e+18,-1.0,0.0,2.0,2.0,-1.0,-2.0,-2.0,1.0
1.6951625824592156e+18,0.0,1.0,-1.0,-1.0,-2.0,-1.0,0.0,0.0
1.6951625824602143e+18,-1.0,-1.0,-4.0,-1.0,1.0,-1.0,-1.0,0.0
1.6951625824602143e+18,-1.0,-2.0,-2.0,1.0,1.0,-1.0,1.0,0.0
1.6951625824782034e+18,1.0,1.0,3.0,1.0,0.0,-1.0,1.0,0.0
1.6951625824782034e+18,-2.0,-2.0,-2.0,0.0,0.0,0.0,-1.0,-2.0
1.6951625824782034e+18,-2.0,0.0,3.0,-2.0,-1.0,1.0,1.0,1.0
1.6951625824792036e+18,0.0,-1.0,-2.0,-1.0,-3.0,-1.0,-1.0,0.0
1.6951625825001923e+18,0.0,0.0,2.0,-1.0,1.0,1.0,-1.0,-1.0
1.6951625825011914e+18,-2.0,0.0,-2.0,0.0,-1.0,0.0,0.0,0.0
1.6951625825021919e+18,-2.0,-1.0,-2.0,-1.0,0.0,-3.0,0.0,0.0
1.6951625825021919e+18,-1.0,-3.0,-1.0,-1.0,-3.0,-2.0,1.0,-1.0
1.6951625825161838e+18,-1.0,-1.0,-1.0,-2.0,-1.0,0.0,0.0,-1.0
1.6951625825161838e+18,0.0,-2.0,-2.0,0.0,0.0,-2.0,-1.0,-2.0
1.6951625825161838e+18,0.0,-2.0,-1.0,0.0,1.0,-1.0,-1.0,1.0
1.6951625825161838e+18,-1.0,-2.0,-2.0,-3.0,0.0,-2.0,-1.0,-3.0
1.6951625825381696e+18,-1.0,-1.0,1.0,1.0,-1.0,-2.0,-2.0,-1.0
1.6951625825381696e+18,-1.0,-4.0,-2.0,-1.0,0.0,1.0,-1.0,0.0
1.6951625825391708e+18,-2.0,-1.0,-1.0,-3.0,-1.0,0.0,0.0,-1.0
1.6951625825391708e+18,0.0,-1.0,-1.0,1.0,-1.0,-1.0,-3.0,-1.0
1.695162582569152e+18,-2.0,0.0,-1.0,-2.0,0.0,-2.0,-1.0,0.0
1.695162582569152e+18,-1.0,-1.0,-1.0,-1.0,-1.0,0.0,-3.0,-1.0
1.695162582569152e+18,0.0,0.0,-2.0,-1.0,-1.0,0.0,0.0,-1.0
1.695162582569152e+18,1.0,-2.0,-3.0,-3.0,0.0,-1.0,-1.0,-1.0
1.6951625825751508e+18,-1.0,0.0,1.0,1.0,-1.0,-1.0,0.0,-2.0
1.6951625825761477e+18,1.0,0.0,-3.0,1.0,-2.0,-2.0,-2.0,0.0
1.6951625825761477e+18,0.0,-2.0,-2.0,-1.0,-1.0,-1.0,-2.0,-2.0
1.6951625825761477e+18,-2.0,-2.0,-1.0,0.0,-1.0,0.0,0.0,-1.0
1.6951625825981404e+18,-1.0,0.0,-1.0,0.0,-2.0,-1.0,0.0,-1.0
1.6951625825981404e+18,-1.0,0.0,0.0,-1.0,-1.0,0.0,0.0,0.0
1.6951625825991352e+18,0.0,0.0,0.0,1.0,-3.0,-1.0,0.0,-1.0
1.6951625825991352e+18,0.0,0.0,-1.0,1.0,1.0,-1.0,-1.0,-2.0
1.6951625826291164e+18,-1.0,-1.0,0.0,-2.0,-3.0,-1.0,-1.0,-1.0
1.6951625826291164e+18,-1.0,0.0,-3.0,-1.0,0.0,-1.0,-1.0,-1.0
1.6951625826301169e+18,0.0,-2.0,-2.0,-3.0,0.0,-2.0,-1.0,-2.0
1.6951625826301169e+18,0.0,1.0,-1.0,-2.0,0.0,0.0,-1.0,2.0
1.6951625826511058e+18,0.0,-1.0,-1.0,-2.0,0.0,1.0,-1.0,0.0
1.6951625826511058e+18,0.0,1.0,-2.0,0.0,-2.0,0.0,-1.0,0.0
1.6951625826521047e+18,-1.0,0.0,0.0,1.0,-2.0,-1.0,-2.0,0.0
1.6951625826521047e+18,-2.0,-2.0,-1.0,0.0,0.0,-1.0,-2.0,-1.0
1.6951625826581018e+18,-1.0,0.0,1.0,-2.0,0.0,0.0,-2.0,0.0
1.6951625826581018e+18,-2.0,-1.0,0.0,1.0,0.0,-1.0,-2.0,-1.0
1.6951625826591004e+18,0.0,-2.0,0.0,-1.0,0.0,-1.0,1.0,-1.0
1.6951625826591004e+18,0.0,-1.0,-1.0,1.0,-4.0,0.0,0.0,0.0
1.6951625826830935e+18,0.0,0.0,-1.0,-1.0,-1.0,0.0,-1.0,-1.0
1.695162582688086e+18,0.0,-1.0,0.0,-2.0,-1.0,0.0,-1.0,-1.0
1.695162582688086e+18,-1.0,1.0,0.0,-2.0,1.0,-1.0,-1.0,0.0
1.6951625826890852e+18,-2.0,0.0,-1.0,-1.0,0.0,1.0,1.0,0.0
1.695162582705074e+18,-2.0,-1.0,-1.0,1.0,1.0,-1.0,0.0,-1.0
1.695162582705074e+18,-1.0,0.0,-1.0,-1.0,-1.0,-1.0,0.0,0.0
1.6951625827060726e+18,0.0,0.0,-1.0,-3.0,-2.0,-1.0,-1.0,-1.0
1.6951625827060726e+18,1.0,-1.0,0.0,1.0,-2.0,-1.0,-2.0,-2.0
1.6951625827180654e+18,-1.0,0.0,-1.0,-1.0,-1.0,0.0,-2.0,1.0
1.6951625827180654e+18,-1.0,-2.0,-1.0,-3.0,0.0,1.0,0.0,-2.0
1.6951625827190659e+18,-1.0,-1.0,-2.0,-1.0,0.0,0.0,-1.0,0.0
1.6951625827190659e+18,-1.0,-1.0,-1.0,0.0,-1.0,-2.0,1.0,-1.0
1.6951625827410537e+18,-1.0,0.0,-1.0,-2.0,-1.0,0.0,0.0,-2.0
1.6951625827410537e+18,-1.0,-1.0,-1.0,-1.0,-1.0,-2.0,0.0,-2.0
1.695162582742053e+18,-1.0,0.0,0.0,-1.0,0.0,0.0,-1.0,-1.0
1.695162582742053e+18,0.0,0.0,0.0,-2.0,-2.0,0.0,-1.0,-3.0
1.6951625827560468e+18,-1.0,-1.0,-1.0,0.0,0.0,-1.0,0.0,0.0
1.6951625827560468e+18,0.0,-1.0,-1.0,-2.0,-3.0,-2.0,-1.0,-1.0
1.6951625827630418e+18,-2.0,-1.0,-1.0,0.0,0.0,-1.0,-2.0,0.0
1.6951625827640407e+18,-1.0,-1.0,-1.0,-1.0,0.0,-2.0,0.0,2.0
1.695162582785029e+18,1.0,-2.0,-1.0,-2.0,-1.0,0.0,-1.0,-2.0
1.695162582785029e+18,0.0,0.0,-1.0,0.0,-1.0,0.0,0.0,-1.0
1.695162582785029e+18,0.0,-1.0,-3.0,0.0,-3.0,-1.0,0.0,0.0
1.695162582785029e+18,-2.0,-1.0,0.0,-2.0,0.0,0.0,-2.0,-1.0
1.695162582817009e+18,-1.0,-2.0,-1.0,0.0,-1.0,2.0,-1.0,-2.0
1.695162582817009e+18,0.0,-2.0,0.0,-1.0,1.0,-2.0,-1.0,0.0
1.695162582818012e+18,-1.0,-1.0,-1.0,0.0,-1.0,-1.0,-1.0,-1.0
1.695162582818012e+18,-2.0,0.0,-2.0,-1.0,0.0,0.0,0.0,1.0
1.695162582819009e+18,-1.0,0.0,-2.0,-2.0,-2.0,-1.0,0.0,-1.0
1.6951625828200084e+18,-1.0,0.0,0.0,1.0,-1.0,-1.0,1.0,0.0
1.6951625828310024e+18,0.0,-1.0,-1.0,-2.0,0.0,0.0,1.0,-1.0
1.6951625828310024e+18,-1.0,-1.0,-2.0,0.0,-2.0,1.0,-2.0,-2.0
1.6951625828459932e+18,-2.0,-2.0,-1.0,-1.0,-1.0,0.0,-1.0,-1.0
1.6951625828459932e+18,0.0,-1.0,-1.0,0.0,0.0,-1.0,0.0,-2.0
1.6951625828469978e+18,-3.0,0.0,-1.0,-2.0,-1.0,-1.0,0.0,0.0
1.6951625828469978e+18,0.0,-1.0,-2.0,0.0,-1.0,-3.0,0.0,-1.0
1.6951625828599872e+18,1.0,-1.0,0.0,-2.0,-2.0,-2.0,0.0,-1.0
1.6951625828609876e+18,0.0,-1.0,-1.0,-2.0,-1.0,0.0,0.0,0.0
1.6951625828709816e+18,1.0,-1.0,0.0,-2.0,-1.0,1.0,-1.0,-2.0
1.6951625828709816e+18,0.0,1.0,-1.0,-1.0,-1.0,-2.0,-2.0,-1.0
1.6951625828829788e+18,-2.0,-1.0,-1.0,0.0,0.0,-1.0,-2.0,-2.0
1.6951625828829788e+18,-2.0,0.0,-1.0,0.0,-1.0,-1.0,-1.0,0.0
1.6951625828839718e+18,-2.0,-1.0,-2.0,2.0,1.0,0.0,-2.0,0.0
1.6951625828839718e+18,-1.0,-1.0,-1.0,-1.0,-1.0,-2.0,-1.0,0.0
1.6951625829089577e+18,-1.0,0.0,0.0,0.0,-1.0,-3.0,0.0,0.0
1.6951625829099594e+18,-1.0,-1.0,0.0,0.0,-2.0,-2.0,-2.0,-2.0
1.6951625829099594e+18,0.0,-2.0,-1.0,-1.0,-1.0,0.0,-2.0,-1.0
1.6951625829099594e+18,1.0,0.0,1.0,-3.0,0.0,0.0,-2.0,-1.0
1.695162582927947e+18,-1.0,-1.0,0.0,-2.0,-1.0,-1.0,-1.0,0.0
1.695162582927947e+18,-2.0,1.0,-1.0,-1.0,-1.0,0.0,0.0,0.0
1.695162582935943e+18,-1.0,-1.0,0.0,-2.0,-1.0,-2.0,0.0,0.0
1.695162582935943e+18,-2.0,0.0,-2.0,0.0,1.0,-1.0,-1.0,0.0
1.6951625829379412e+18,1.0,0.0,0.0,-1.0,-1.0,1.0,-1.0,0.0
1.6951625829379412e+18,-2.0,-2.0,-2.0,-1.0,-1.0,1.0,0.0,0.0
1.6951625829419382e+18,0.0,0.0,-1.0,-2.0,1.0,-1.0,-1.0,-2.0
1.6951625829429407e+18,-2.0,0.0,-2.0,-1.0,-2.0,0.0,0.0,-1.0
1.6951625829599347e+18,-2.0,0.0,-2.0,2.0,0.0,-1.0,0.0,-2.0
1.6951625829629276e+18,0.0,0.0,0.0,-2.0,1.0,-1.0,0.0,0.0
1.6951625829629276e+18,-1.0,0.0,1.0,0.0,-2.0,-2.0,-2.0,1.0
1.6951625829639286e+18,-2.0,-1.0,0.0,0.0,-1.0,1.0,2.0,0.0
1.6951625829809157e+18,1.0,-1.0,0.0,0.0,0.0,0.0,-1.0,1.0
1.6951625829809157e+18,-2.0,-1.0,0.0,0.0,-1.0,-1.0,-2.0,-1.0
1.6951625829819164e+18,-1.0,-1.0,-2.0,-1.0,-1.0,-2.0,-1.0,-1.0
1.6951625829819164e+18,0.0,-1.0,1.0,-1.0,-2.0,-1.0,0.0,-2.0
1.6951625829959066e+18,0.0,0.0,-1.0,-2.0,-1.0,0.0,-1.0,-1.0
1.6951625829959066e+18,-2.0,0.0,-2.0,0.0,0.0,-1.0,0.0,1.0
1.695162583005925e+18,0.0,-1.0,-1.0,0.0,-1.0,-1.0,-1.0,0.0
1.6951625830069025e+18,-2.0,-1.0,0.0,0.0,0.0,-2.0,-1.0,-2.0
1.6951625830178964e+18,-1.0,0.0,0.0,-1.0,2.0,-2.0,0.0,1.0
1.6951625830178964e+18,1.0,-1.0,-2.0,1.0,-1.0,0.0,0.0,0.0
1.6951625830188943e+18,1.0,-1.0,0.0,0.0,-2.0,1.0,0.0,1.0
1.6951625830188943e+18,-1.0,0.0,-2.0,-1.0,1.0,1.0,-2.0,1.0
1.695162583050876e+18,-2.0,0.0,-1.0,-2.0,-2.0,-1.0,0.0,0.0
1.695162583050876e+18,-2.0,0.0,-1.0,-1.0,-2.0,-1.0,-1.0,-2.0
1.695162583050876e+18,-1.0,0.0,-3.0,0.0,-1.0,0.0,0.0,-1.0
1.695162583050876e+18,1.0,-1.0,0.0,-1.0,-1.0,-1.0,0.0,-1.0
1.695162583054873e+18,-2.0,-1.0,-1.0,0.0,0.0,-1.0,0.0,-2.0
1.695162583054873e+18,1.0,-1.0,1.0,-1.0,-2.0,0.0,-3.0,-1.0
1.6951625830628687e+18,-2.0,-1.0,1.0,-1.0,2.0,-2.0,0.0,-1.0
1.6951625830628687e+18,1.0,-1.0,0.0,-2.0,-1.0,-1.0,0.0,-1.0
1.6951625830778621e+18,1.0,-1.0,-1.0,0.0,-1.0,0.0,-2.0,0.0
1.6951625830778621e+18,2.0,-1.0,0.0,-1.0,0.0,-1.0,1.0,-3.0
1.6951625830788603e+18,-2.0,0.0,-1.0,-1.0,-2.0,-1.0,-1.0,-1.0
1.6951625830788603e+18,0.0,-1.0,-2.0,0.0,-1.0,0.0,-2.0,-2.0
1.6951625831008468e+18,-1.0,-1.0,-1.0,-1.0,0.0,-1.0,0.0,-1.0
1.6951625831008468e+18,-1.0,-2.0,0.0,-2.0,-1.0,0.0,-2.0,1.0
1.6951625831008468e+18,0.0,0.0,-2.0,0.0,-1.0,-1.0,-2.0,-1.0
1.6951625831018493e+18,-1.0,-1.0,-1.0,-2.0,-1.0,0.0,0.0,0.0
1.6951625831148398e+18,-1.0,-2.0,-1.0,0.0,-3.0,0.0,1.0,-2.0
1.6951625831158418e+18,-1.0,-1.0,-1.0,0.0,-1.0,-1.0,-2.0,-2.0
1.6951625831218345e+18,-2.0,-1.0,0.0,0.0,0.0,0.0,1.0,0.0
1.695162583122836e+18,-2.0,-1.0,-2.0,0.0,0.0,-1.0,-2.0,1.0
1.695162583137826e+18,0.0,-1.0,-2.0,1.0,-2.0,-1.0,-1.0,0.0
1.695162583137826e+18,-3.0,1.0,-3.0,0.0,1.0,-1.0,0.0,-1.0
1.695162583138825e+18,0.0,0.0,-1.0,-1.0,-1.0,0.0,0.0,0.0
1.695162583138825e+18,0.0,-2.0,1.0,0.0,0.0,-1.0,-1.0,-2.0
1.6951625831608138e+18,0.0,-1.0,0.0,-1.0,-2.0,0.0,-1.0,0.0
1.6951625831608138e+18,0.0,0.0,-1.0,0.0,0.0,-1.0,-1.0,0.0
1.6951625831608138e+18,0.0,0.0,-1.0,-1.0,-2.0,-1.0,-1.0,-1.0
1.6951625831618125e+18,-1.0,-2.0,-1.0,-1.0,-2.0,0.0,0.0,-1.0
1.695162583184799e+18,-1.0,0.0,-1.0,-1.0,0.0,-1.0,0.0,0.0
1.695162583184799e+18,0.0,-2.0,0.0,0.0,-1.0,0.0,-2.0,0.0
1.695162583184799e+18,-1.0,-1.0,0.0,-2.0,-1.0,1.0,0.0,-1.0
1.6951625831857987e+18,-1.0,-1.0,0.0,0.0,-3.0,0.0,0.0,-1.0
1.69516258319979e+18,0.0,0.0,-1.0,-1.0,-1.0,-1.0,-1.0,0.0
1.69516258319979e+18,0.0,-1.0,-3.0,-1.0,0.0,-1.0,1.0,-2.0
1.69516258319979e+18,0.0,-1.0,-1.0,-1.0,0.0,-1.0,-1.0,-1.0
1.6951625832007913e+18,-1.0,0.0,-2.0,-2.0,0.0,-2.0,-1.0,-2.0
1.6951625832207785e+18,0.0,-1.0,0.0,-1.0,0.0,-2.0,-1.0,0.0
1.6951625832217787e+18,0.0,0.0,-1.0,-1.0,0.0,-1.0,-3.0,0.0
1.695162583227775e+18,1.0,-2.0,1.0,-1.0,0.0,-1.0,-3.0,-1.0
1.695162583227775e+18,0.0,0.0,0.0,1.0,0.0,-2.0,-1.0,-1.0
1.6951625832347725e+18,0.0,0.0,-1.0,-1.0,1.0,-1.0,-1.0,-1.0
1.6951625832347725e+18,-1.0,0.0,-2.0,-1.0,-2.0,0.0,0.0,-1.0
1.6951625832427663e+18,-1.0,-1.0,-1.0,-1.0,-3.0,0.0,-1.0,-2.0
1.6951625832427663e+18,-2.0,-1.0,-1.0,-2.0,-1.0,0.0,-1.0,1.0
1.6951625832657544e+18,-1.0,-1.0,0.0,0.0,-1.0,-1.0,1.0,-1.0
1.6951625832657544e+18,1.0,-1.0,0.0,-1.0,0.0,-1.0,0.0,-3.0
1.6951625832657544e+18,-2.0,-1.0,0.0,0.0,-2.0,0.0,-1.0,-2.0
1.6951625832667538e+18,0.0,-1.0,-1.0,1.0,-2.0,-2.0,-1.0,0.0
1.6951625832807437e+18,-2.0,0.0,0.0,0.0,-1.0,0.0,-1.0,-1.0
1.6951625832807437e+18,-1.0,-2.0,0.0,0.0,-1.0,0.0,-2.0,1.0
1.6951625832807437e+18,-1.0,0.0,-2.0,1.0,0.0,-1.0,-1.0,-1.0
1.695162583281744e+18,-2.0,-2.0,-1.0,-1.0,0.0,-1.0,1.0,0.0
1.695162583311727e+18,-1.0,-1.0,-2.0,-2.0,0.0,-2.0,-2.0,-1.0
1.695162583311727e+18,-1.0,0.0,0.0,1.0,-1.0,-2.0,-1.0,-2.0
1.6951625833197222e+18,-2.0,0.0,-3.0,0.0,0.0,0.0,0.0,-2.0
1.6951625833197222e+18,-1.0,0.0,-2.0,1.0,-1.0,0.0,-1.0,0.0
1.6951625833207214e+18,-2.0,-4.0,-1.0,1.0,-1.0,-1.0,0.0,-1.0
1.6951625833207214e+18,1.0,0.0,0.0,-1.0,-1.0,-2.0,-1.0,0.0
1.6951625833217234e+18,-2.0,0.0,-2.0,0.0,0.0,1.0,-1.0,1.0
1.6951625833217234e+18,0.0,-1.0,0.0,0.0,-4.0,-2.0,-2.0,-1.0
1.6951625833497047e+18,-2.0,1.0,-1.0,0.0,-3.0,0.0,-1.0,-1.0
1.6951625833557015e+18,-2.0,-1.0,-1.0,-1.0,0.0,-1.0,0.0,-1.0
1.6951625833567012e+18,0.0,-2.0,0.0,-1.0,0.0,-1.0,2.0,-1.0
1.6951625833567012e+18,-1.0,0.0,-1.0,-2.0,1.0,-1.0,0.0,-1.0
1.6951625833706918e+18,0.0,-1.0,1.0,-2.0,-2.0,0.0,-2.0,-2.0
1.6951625833716974e+18,0.0,-1.0,-1.0,-1.0,-2.0,1.0,-1.0,-2.0
1.6951625833716974e+18,-1.0,0.0,-2.0,-1.0,0.0,-2.0,-1.0,-2.0
1.6951625833716974e+18,0.0,0.0,0.0,0.0,-1.0,1.0,0.0,0.0
1.695162583377689e+18,0.0,-1.0,-1.0,-1.0,0.0,0.0,-1.0,-2.0
1.695162583377689e+18,-2.0,-1.0,-1.0,-1.0,-1.0,0.0,-1.0,1.0
1.6951625833786883e+18,-1.0,-2.0,-1.0,0.0,-3.0,-1.0,-2.0,-1.0
1.6951625833786883e+18,0.0,-1.0,-1.0,-2.0,0.0,-2.0,-1.0,-1.0
1.6951625834006769e+18,0.0,-1.0,-2.0,0.0,-1.0,-1.0,-2.0,-1.0
1.6951625834006769e+18,-1.0,-1.0,1.0,-1.0,1.0,-3.0,0.0,0.0
1.6951625834006769e+18,1.0,-1.0,0.0,0.0,0.0,-1.0,0.0,-1.0
1.6951625834016755e+18,-1.0,1.0,-1.0,0.0,-1.0,0.0,-1.0,-2.0
1.6951625834226621e+18,2.0,0.0,-2.0,-1.0,0.0,0.0,1.0,-1.0
1.6951625834236636e+18,-1.0,0.0,0.0,0.0,-2.0,-1.0,0.0,0.0
1.6951625834236636e+18,-1.0,0.0,-2.0,-1.0,0.0,-2.0,-1.0,0.0
1.6951625834236636e+18,-1.0,-1.0,0.0,-1.0,0.0,0.0,-1.0,0.0
1.695162583437654e+18,-1.0,-1.0,0.0,-1.0,0.0,0.0,-1.0,-2.0
1.695162583437654e+18,-1.0,-1.0,-2.0,0.0,-1.0,-1.0,0.0,-1.0
1.6951625834386555e+18,-1.0,-1.0,-1.0,-1.0,-3.0,1.0,0.0,0.0
1.6951625834386555e+18,0.0,-2.0,-2.0,-2.0,-1.0,-1.0,-1.0,-1.0
1.695162583461641e+18,-1.0,0.0,-1.0,0.0,-1.0,-2.0,-1.0,0.0
1.695162583461641e+18,1.0,-2.0,-1.0,0.0,0.0,0.0,-2.0,0.0
1.6951625834626406e+18,-1.0,-2.0,0.0,-1.0,-1.0,-1.0,-1.0,2.0
1.6951625834626406e+18,-1.0,-2.0,0.0,0.0,1.0,0.0,-1.0,-2.0
1.6951625834826289e+18,-1.0,-1.0,-2.0,-1.0,-2.0,0.0,0.0,-1.0
1.6951625834826289e+18,-1.0,-2.0,1.0,0.0,0.0,-1.0,-1.0,-1.0
1.695162583483628e+18,-2.0,-1.0,0.0,-1.0,-1.0,-1.0,-2.0,-1.0
1.695162583483628e+18,-1.0,0.0,0.0,-2.0,-1.0,0.0,0.0,0.0
1.695162583497646e+18,-2.0,0.0,-1.0,-1.0,0.0,0.0,0.0,0.0
1.6951625834986225e+18,1.0,0.0,-1.0,0.0,-2.0,-1.0,-2.0,-1.0
1.6951625834986225e+18,-1.0,-2.0,1.0,0.0,-2.0,-1.0,-2.0,-3.0
1.6951625834986225e+18,-1.0,-2.0,-3.0,-1.0,-1.0,-2.0,-1.0,-2.0
1.695162583527626e+18,0.0,0.0,-1.0,-2.0,-1.0,-1.0,-3.0,-1.0
1.695162583527626e+18,-1.0,0.0,-1.0,1.0,0.0,-2.0,-1.0,-2.0
1.6951625835355976e+18,1.0,0.0,-2.0,-2.0,-1.0,-2.0,-1.0,0.0
1.6951625835355976e+18,-1.0,0.0,-1.0,0.0,-1.0,-2.0,-2.0,0.0
1.6951625835435948e+18,0.0,0.0,-1.0,-1.0,1.0,-2.0,-2.0,1.0
1.6951625835435948e+18,-1.0,-1.0,-2.0,-3.0,0.0,-1.0,0.0,-1.0
1.6951625835435948e+18,-2.0,-1.0,0.0,0.0,1.0,-1.0,-1.0,-3.0
1.6951625835435948e+18,1.0,-1.0,0.0,-2.0,-1.0,-1.0,0.0,0.0
1.695162583560443e+18,-1.0,-1.0,0.0,0.0,-3.0,1.0,0.0,1.0
1.695162583561444e+18,0.0,-1.0,-1.0,-2.0,0.0,-1.0,0.0,-2.0
1.695162583561444e+18,0.0,-1.0,0.0,0.0,-1.0,0.0,-1.0,0.0
1.695162583561444e+18,-1.0,-1.0,0.0,0.0,-1.0,0.0,-1.0,-1.0
1.6951625835804278e+18,1.0,-1.0,-1.0,0.0,0.0,-1.0,-1.0,0.0
1.6951625835804278e+18,-1.0,-1.0,-2.0,-1.0,-2.0,-2.0,-1.0,-1.0
1.695162583588425e+18,-1.0,-2.0,-2.0,-3.0,-2.0,-2.0,0.0,-1.0
1.695162583588425e+18,-1.0,0.0,-1.0,0.0,-1.0,0.0,2.0,-2.0
1.6951625836054141e+18,-1.0,-1.0,0.0,1.0,1.0,-1.0,0.0,-2.0
1.6951625836054141e+18,0.0,0.0,-2.0,0.0,-2.0,-1.0,-1.0,0.0
1.6951625836064143e+18,0.0,-2.0,2.0,-1.0,2.0,-1.0,-3.0,-2.0
1.6951625836064143e+18,-2.0,-2.0,-1.0,-3.0,-3.0,-1.0,-2.0,-1.0
1.695162583617407e+18,-3.0,-2.0,-2.0,-1.0,1.0,-1.0,0.0,-1.0
1.695162583618407e+18,-2.0,-2.0,-1.0,-1.0,-1.0,-1.0,-3.0,0.0
1.6951625836254026e+18,0.0,0.0,-2.0,-2.0,0.0,1.0,-1.0,-1.0
1.6951625836254026e+18,0.0,0.0,-1.0,0.0,1.0,-1.0,0.0,0.0
1.6951625836493893e+18,-1.0,0.0,0.0,0.0,-1.0,-3.0,-2.0,-1.0
1.6951625836493893e+18,-2.0,-4.0,-1.0,-1.0,-2.0,0.0,1.0,2.0
1.6951625836493893e+18,1.0,1.0,-1.0,0.0,-1.0,1.0,-1.0,1.0
1.695162583650389e+18,-1.0,0.0,-1.0,0.0,2.0,2.0,0.0,0.0
1.6951625836633807e+18,-1.0,3.0,1.0,0.0,0.0,-1.0,0.0,0.0
1.6951625836633807e+18,2.0,1.0,2.0,-1.0,2.0,0.0,1.0,0.0
1.6951625836633807e+18,0.0,1.0,1.0,0.0,-1.0,-2.0,1.0,-1.0
1.6951625836633807e+18,2.0,0.0,0.0,1.0,0.0,0.0,-1.0,0.0
1.6951625836783741e+18,1.0,-2.0,1.0,-1.0,-3.0,0.0,0.0,0.0
1.6951625836783741e+18,-2.0,0.0,-1.0,-1.0,-1.0,1.0,0.0,0.0
1.6951625836783741e+18,-2.0,0.0,-1.0,-1.0,1.0,0.0,1.0,-1.0
1.6951625836793715e+18,-1.0,1.0,0.0,-1.0,-1.0,-3.0,-2.0,1.0
1.6951625837003594e+18,2.0,1.0,-1.0,-2.0,1.0,0.0,0.0,-2.0
1.6951625837003594e+18,1.0,0.0,-1.0,-1.0,-1.0,-1.0,-1.0,0.0
1.6951625837013596e+18,0.0,0.0,0.0,-1.0,0.0,0.0,1.0,1.0
1.6951625837013596e+18,-1.0,0.0,0.0,-1.0,0.0,2.0,-1.0,-1.0
1.695162583731342e+18,-1.0,0.0,0.0,-3.0,-2.0,1.0,-1.0,-2.0
1.695162583735341e+18,0.0,0.0,1.0,-1.0,1.0,0.0,-1.0,-1.0
1.695162583735341e+18,-1.0,0.0,1.0,1.0,-1.0,-3.0,-1.0,-2.0
1.695162583735341e+18,-1.0,-2.0,-1.0,0.0,-2.0,-3.0,0.0,-1.0
1.6951625837463324e+18,0.0,-2.0,1.0,1.0,-1.0,0.0,0.0,-1.0
1.6951625837463324e+18,-2.0,1.0,-1.0,-1.0,1.0,2.0,0.0,0.0
1.695162583747333e+18,-2.0,-2.0,0.0,-1.0,-1.0,-1.0,0.0,0.0
1.695162583747333e+18,-1.0,-1.0,-1.0,-1.0,-1.0,-3.0,0.0,-2.0
1.695162583760325e+18,1.0,1.0,-2.0,-1.0,0.0,-2.0,-1.0,1.0
1.6951625837613248e+18,0.0,-1.0,-1.0,-2.0,-1.0,-1.0,-2.0,-2.0
1.6951625837613248e+18,-2.0,-1.0,0.0,0.0,0.0,-1.0,1.0,1.0
1.6951625837613248e+18,1.0,1.0,0.0,0.0,-1.0,0.0,-1.0,-1.0
1.6951625837833132e+18,0.0,-1.0,-2.0,-3.0,0.0,-1.0,-1.0,-1.0
1.6951625837833132e+18,-1.0,1.0,1.0,-1.0,-1.0,-1.0,-1.0,0.0
1.6951625837843128e+18,1.0,0.0,-1.0,-1.0,0.0,1.0,-2.0,1.0
1.6951625837843128e+18,-1.0,0.0,-2.0,1.0,0.0,2.0,0.0,-1.0
1.6951625838062986e+18,-2.0,-1.0,-1.0,-1.0,-1.0,-1.0,-1.0,-2.0
1.6951625838062986e+18,1.0,-1.0,-1.0,-1.0,-1.0,0.0,-1.0,0.0
1.6951625838072988e+18,-1.0,0.0,-1.0,-3.0,0.0,0.0,-2.0,-1.0
1.6951625838072988e+18,-2.0,-1.0,-1.0,1.0,0.0,-2.0,-1.0,0.0
1.6951625838282852e+18,0.0,-2.0,0.0,-1.0,-2.0,-1.0,-1.0,1.0
1.695162583829287e+18,-1.0,0.0,-1.0,0.0,-1.0,-2.0,-1.0,-2.0
1.695162583829287e+18,0.0,1.0,-2.0,-1.0,-1.0,0.0,-1.0,0.0
1.695162583829287e+18,-1.0,-2.0,1.0,-2.0,-1.0,0.0,0.0,-1.0
1.6951625838432796e+18,-1.0,0.0,-1.0,-2.0,-3.0,-2.0,-1.0,0.0
1.6951625838432796e+18,-1.0,-2.0,-1.0,0.0,-2.0,-1.0,1.0,-1.0
1.6951625838442803e+18,-1.0,-1.0,-2.0,-1.0,0.0,1.0,-1.0,-2.0
1.6951625838442803e+18,-1.0,0.0,0.0,-1.0,0.0,2.0,-2.0,-2.0
1.6951625838582702e+18,0.0,-1.0,0.0,-1.0,-1.0,-1.0,0.0,-2.0
1.6951625838592704e+18,-1.0,0.0,-3.0,-1.0,1.0,-2.0,-2.0,0.0
1.6951625838592704e+18,1.0,-2.0,-2.0,1.0,-1.0,-1.0,0.0,-2.0
1.6951625838592704e+18,-1.0,0.0,0.0,-2.0,-1.0,-2.0,-2.0,0.0
1.6951625838812567e+18,0.0,-1.0,-2.0,1.0,-2.0,-1.0,1.0,-2.0
1.6951625838812567e+18,0.0,0.0,3.0,0.0,0.0,-1.0,-1.0,0.0
1.6951625838822566e+18,-1.0,1.0,-8.0,-3.0,-3.0,-1.0,-1.0,-3.0
1.6951625838822566e+18,0.0,-2.0,4.0,0.0,0.0,0.0,-1.0,-1.0
1.6951625839032443e+18,-1.0,1.0,-3.0,0.0,0.0,1.0,-2.0,-1.0
1.6951625839032443e+18,0.0,2.0,2.0,-4.0,-7.0,0.0,-1.0,0.0
1.6951625839032443e+18,-1.0,-1.0,1.0,6.0,8.0,-1.0,-1.0,-1.0
1.6951625839042432e+18,1.0,-1.0,-7.0,-19.0,-16.0,-4.0,1.0,0.0
1.6951625839212342e+18,-2.0,-6.0,1.0,8.0,15.0,2.0,-2.0,-1.0
1.695162583922233e+18,1.0,3.0,4.0,8.0,3.0,-1.0,-2.0,-1.0
1.695162583922233e+18,0.0,-1.0,-2.0,7.0,6.0,0.0,1.0,-1.0
1.695162583922233e+18,0.0,5.0,5.0,-3.0,-5.0,-3.0,-3.0,-2.0
1.695162583940237e+18,1.0,-8.0,-25.0,-14.0,-9.0,1.0,0.0,3.0
1.6951625839412457e+18,-2.0,0.0,-2.0,-9.0,-18.0,-12.0,-1.0,-1.0
1.6951625839412457e+18,0.0,-3.0,2.0,8.0,34.0,16.0,4.0,1.0
1.6951625839412457e+18,1.0,-1.0,-1.0,6.0,8.0,12.0,4.0,3.0
1.6951625839645568e+18,0.0,2.0,6.0,-4.0,-1.0,-2.0,-1.0,0.0
1.6951625839645568e+18,-1.0,-3.0,-1.0,-1.0,1.0,-2.0,-2.0,-1.0
1.6951625839655565e+18,-2.0,-1.0,-7.0,-18.0,-24.0,-14.0,-4.0,-2.0
1.6951625839655565e+18,-1.0,-1.0,1.0,3.0,0.0,-6.0,-2.0,-3.0
1.695162583978549e+18,-1.0,2.0,6.0,3.0,1.0,1.0,-3.0,-3.0
1.695162583978549e+18,0.0,-3.0,-6.0,-6.0,-3.0,-2.0,-1.0,-2.0
1.695162583978549e+18,-2.0,3.0,9.0,2.0,-7.0,-2.0,-2.0,0.0
1.695162583978549e+18,-1.0,-2.0,-4.0,-2.0,2.0,1.0,-1.0,1.0
1.6951625840037962e+18,-1.0,0.0,3.0,4.0,1.0,-3.0,-1.0,-2.0
1.6951625840037962e+18,-3.0,-3.0,-6.0,-1.0,-4.0,-1.0,1.0,-3.0
1.695162584004797e+18,0.0,1.0,3.0,-11.0,-7.0,5.0,1.0,0.0
1.695162584004797e+18,-2.0,0.0,-1.0,3.0,5.0,-1.0,-2.0,-2.0
1.695162584029783e+18,-1.0,-1.0,-4.0,-3.0,-5.0,-5.0,-1.0,-1.0
1.6951625840307804e+18,0.0,-3.0,1.0,6.0,11.0,6.0,3.0,1.0
1.695162584047771e+18,-1.0,-1.0,7.0,5.0,-4.0,-3.0,-1.0,-2.0
1.695162584047771e+18,-2.0,-3.0,-3.0,-7.0,-16.0,-7.0,-5.0,-5.0
1.6951625840487703e+18,1.0,-1.0,-1.0,6.0,7.0,-3.0,-1.0,-1.0
1.695162584049771e+18,1.0,0.0,6.0,1.0,7.0,-4.0,1.0,3.0
1.695162584049771e+18,-1.0,-2.0,-8.0,0.0,-1.0,9.0,1.0,0.0
1.6951625840507712e+18,0.0,1.0,-1.0,-15.0,3.0,5.0,3.0,0.0
1.6951625840697585e+18,-2.0,-1.0,-7.0,-1.0,4.0,11.0,2.0,3.0
1.6951625840707576e+18,-1.0,1.0,19.0,-5.0,-26.0,-11.0,-3.0,-1.0
1.6951625840707576e+18,-2.0,-5.0,-4.0,6.0,18.0,-5.0,-3.0,-1.0
1.6951625840707576e+18,-1.0,-3.0,3.0,16.0,16.0,-1.0,-3.0,0.0
1.695162584083755e+18,-2.0,-1.0,-9.0,-6.0,-23.0,-10.0,-3.0,-2.0
1.6951625840907492e+18,1.0,3.0,2.0,1.0,8.0,4.0,1.0,0.0
1.6951625840907492e+18,0.0,-2.0,0.0,-13.0,-18.0,2.0,-1.0,0.0
1.6951625840907492e+18,-2.0,-3.0,-6.0,-8.0,-1.0,-2.0,-1.0,-4.0
1.6951625840977475e+18,0.0,7.0,17.0,5.0,-2.0,-2.0,-2.0,-3.0
1.6951625840977475e+18,-2.0,-7.0,-22.0,0.0,5.0,-2.0,1.0,3.0
1.6951625841057608e+18,0.0,6.0,-2.0,-3.0,-6.0,-6.0,-3.0,4.0
1.6951625841057608e+18,-3.0,-4.0,-4.0,-5.0,-3.0,-1.0,3.0,-16.0
1.6951625841205407e+18,1.0,-8.0,3.0,1.0,5.0,4.0,-1.0,4.0
1.6951625841205407e+18,-7.0,4.0,-2.0,0.0,-7.0,1.0,-5.0,-3.0
1.6951625841215406e+18,6.0,-5.0,-2.0,10.0,13.0,2.0,8.0,11.0
1.6951625841215406e+18,-3.0,-3.0,-5.0,21.0,-3.0,1.0,2.0,-2.0
1.6951625841434998e+18,-4.0,11.0,13.0,-15.0,3.0,0.0,4.0,-5.0
1.6951625841434998e+18,3.0,-23.0,-1.0,-6.0,-10.0,-6.0,-7.0,-4.0
1.6951625841434998e+18,1.0,23.0,0.0,-1.0,-2.0,2.0,1.0,50.0
1.6951625841434998e+18,0.0,1.0,-1.0,2.0,-8.0,-14.0,-10.0,-47.0
1.695162584158935e+18,-4.0,-3.0,-10.0,-4.0,-3.0,-9.0,-22.0,12.0
1.695162584158935e+18,-3.0,1.0,7.0,3.0,18.0,19.0,10.0,0.0
1.6951625841659167e+18,3.0,-4.0,2.0,-16.0,-20.0,-10.0,-2.0,-14.0
1.6951625841659167e+18,-1.0,-2.0,-7.0,-5.0,-25.0,0.0,7.0,12.0
1.6951625841805878e+18,-9.0,-2.0,7.0,14.0,32.0,5.0,4.0,-13.0
1.695162584181588e+18,-2.0,-1.0,-18.0,-17.0,-9.0,-6.0,-3.0,-31.0
1.695162584181588e+18,4.0,1.0,5.0,17.0,22.0,12.0,-2.0,16.0
1.6951625841825866e+18,7.0,2.0,4.0,-7.0,-13.0,-3.0,5.0,18.0
1.6951625842055409e+18,-9.0,-27.0,-8.0,-7.0,-14.0,-7.0,-2.0,1.0
1.6951625842055409e+18,3.0,8.0,20.0,-11.0,-9.0,-4.0,-5.0,5.0
1.6951625842055409e+18,-4.0,-4.0,-24.0,9.0,-4.0,-5.0,0.0,-11.0
1.6951625842065395e+18,-10.0,0.0,7.0,-8.0,5.0,-1.0,-14.0,11.0
1.695162584218528e+18,15.0,7.0,7.0,-4.0,-3.0,5.0,-1.0,-13.0
1.695162584218528e+18,-5.0,-3.0,-6.0,9.0,3.0,2.0,22.0,25.0
1.6951625842355174e+18,-5.0,-3.0,11.0,-4.0,-5.0,0.0,-4.0,-17.0
1.6951625842355174e+18,5.0,-1.0,0.0,0.0,-1.0,-5.0,-17.0,11.0
1.6951625842525087e+18,-5.0,-2.0,-2.0,-9.0,-15.0,-11.0,-5.0,-9.0
1.6951625842535078e+18,2.0,11.0,-15.0,11.0,21.0,14.0,4.0,3.0
1.6951625842734979e+18,-5.0,-9.0,3.0,5.0,3.0,-2.0,6.0,-49.0
1.6951625842745006e+18,-3.0,-3.0,-8.0,-1.0,4.0,0.0,0.0,19.0
1.695162584275495e+18,4.0,-8.0,-8.0,3.0,4.0,8.0,8.0,18.0
1.695162584276496e+18,4.0,11.0,1.0,-24.0,-29.0,-9.0,4.0,0.0
1.6951625842775014e+18,-3.0,3.0,22.0,13.0,5.0,-6.0,-28.0,16.0
1.6951625842775014e+18,-2.0,-7.0,-26.0,2.0,17.0,9.0,6.0,-16.0
1.6951625842884867e+18,2.0,-7.0,-12.0,-6.0,-16.0,-6.0,4.0,1.0
1.6951625842884867e+18,-2.0,5.0,35.0,15.0,6.0,-9.0,-21.0,-15.0
1.6951625842894858e+18,-1.0,5.0,-5.0,-7.0,-11.0,-2.0,10.0,-10.0
1.6951625842894858e+18,-5.0,-9.0,-3.0,-7.0,-1.0,-6.0,4.0,-2.0
1.695162584316506e+18,4.0,13.0,29.0,10.0,3.0,16.0,7.0,7.0
1.695162584317479e+18,-2.0,-9.0,-48.0,-13.0,0.0,-3.0,0.0,28.0
1.6951625843254666e+18,4.0,9.0,28.0,-5.0,-2.0,-4.0,-7.0,-34.0
1.6951625843264689e+18,-2.0,-10.0,19.0,1.0,-1.0,-1.0,1.0,15.0
1.695162584327468e+18,-1.0,1.0,-5.0,-2.0,3.0,2.0,4.0,-6.0
1.695162584327468e+18,-1.0,1.0,21.0,11.0,4.0,7.0,5.0,-1.0
1.6951625843284782e+18,-3.0,-6.0,-6.0,-4.0,-7.0,-7.0,-3.0,-7.0
1.6951625843284782e+18,6.0,20.0,11.0,1.0,-2.0,0.0,4.0,-25.0
1.6951625843464538e+18,-7.0,-17.0,-29.0,-4.0,-7.0,-4.0,-20.0,26.0
1.6951625843474542e+18,-2.0,7.0,-8.0,9.0,15.0,8.0,-4.0,-11.0
1.695162584348454e+18,8.0,-21.0,21.0,0.0,0.0,3.0,10.0,27.0
1.695162584348454e+18,2.0,4.0,1.0,9.0,5.0,6.0,5.0,1.0
1.6951625843714399e+18,-1.0,18.0,5.0,-29.0,-24.0,-13.0,-7.0,-18.0
1.6951625843714399e+18,-3.0,-13.0,-24.0,18.0,21.0,5.0,2.0,-2.0
1.695162584399425e+18,-4.0,12.0,-17.0,-10.0,-8.0,-1.0,1.0,4.0
1.6951625844014246e+18,0.0,-1.0,25.0,-1.0,-2.0,0.0,4.0,3.0
1.695162584402422e+18,1.0,0.0,-5.0,8.0,13.0,1.0,2.0,-15.0
1.695162584402422e+18,-2.0,-15.0,-41.0,-10.0,-12.0,-9.0,-18.0,6.0
1.695162584402422e+18,-4.0,0.0,-5.0,-4.0,-3.0,-3.0,1.0,8.0
1.695162584402422e+18,7.0,-17.0,-20.0,-7.0,0.0,1.0,-5.0,13.0
1.695162584403426e+18,-7.0,2.0,34.0,-2.0,-11.0,-5.0,2.0,-18.0
1.6951625844054226e+18,1.0,12.0,-4.0,-5.0,-6.0,-3.0,0.0,-4.0
1.6951625844094182e+18,7.0,-8.0,-43.0,8.0,10.0,3.0,0.0,-23.0
1.6951625844104172e+18,-12.0,-20.0,-26.0,-8.0,-10.0,-7.0,4.0,25.0
1.695162584420411e+18,6.0,15.0,9.0,-1.0,5.0,-2.0,-6.0,9.0
1.6951625844214118e+18,1.0,5.0,10.0,22.0,9.0,8.0,3.0,-8.0
1.6951625844214118e+18,-1.0,2.0,-33.0,-7.0,5.0,9.0,11.0,1.0
1.6951625844214118e+18,4.0,7.0,37.0,2.0,0.0,-7.0,-6.0,3.0
1.695162584445396e+18,-20.0,-4.0,-2.0,-1.0,1.0,3.0,8.0,-5.0
1.6951625844463956e+18,-4.0,-9.0,-8.0,-2.0,-16.0,-8.0,-7.0,0.0
1.6951625844463956e+18,-3.0,-1.0,14.0,4.0,9.0,0.0,1.0,6.0
1.6951625844473946e+18,2.0,2.0,11.0,-5.0,-2.0,2.0,-5.0,-16.0
1.695162584475379e+18,-4.0,-10.0,-35.0,19.0,15.0,4.0,-2.0,13.0
1.695162584485376e+18,3.0,21.0,77.0,-14.0,-17.0,-5.0,4.0,-16.0
1.695162584485376e+18,-5.0,-2.0,-15.0,5.0,-8.0,-8.0,-11.0,11.0
1.695162584485376e+18,-5.0,-3.0,-3.0,1.0,7.0,6.0,4.0,-16.0
1.6951625844863764e+18,1.0,9.0,79.0,11.0,2.0,0.0,-10.0,-1.0
1.6951625844863764e+18,1.0,-9.0,-14.0,-9.0,-6.0,-2.0,11.0,-1.0
1.6951625844973665e+18,-10.0,-7.0,-3.0,-11.0,-8.0,-3.0,-6.0,-3.0
1.6951625844973665e+18,10.0,9.0,-78.0,8.0,10.0,1.0,-3.0,5.0
1.695162584508361e+18,1.0,10.0,27.0,-19.0,-12.0,-4.0,4.0,-4.0
1.69516258450936e+18,3.0,-16.0,-22.0,3.0,3.0,3.0,-1.0,-6.0
1.6951625845353697e+18,-1.0,20.0,28.0,-5.0,-11.0,-7.0,1.0,13.0
1.6951625845353697e+18,-6.0,-15.0,-34.0,4.0,3.0,2.0,-4.0,-2.0
1.695162584537346e+18,6.0,-6.0,-15.0,15.0,9.0,7.0,8.0,5.0
1.695162584537346e+18,5.0,-5.0,-3.0,4.0,4.0,-1.0,-3.0,3.0
1.695162584537346e+18,-3.0,-13.0,-44.0,0.0,15.0,9.0,6.0,-7.0
1.695162584537346e+18,-3.0,5.0,56.0,1.0,-3.0,2.0,4.0,-15.0
1.6951625845503357e+18,13.0,9.0,-28.0,-1.0,-4.0,-1.0,0.0,7.0
1.6951625845503357e+18,-12.0,-4.0,9.0,-6.0,-2.0,-2.0,-5.0,-2.0
1.6951625845513393e+18,9.0,6.0,-9.0,1.0,1.0,-1.0,-9.0,1.0
1.6951625845513393e+18,-3.0,19.0,11.0,-5.0,-6.0,-1.0,8.0,6.0
1.695162584578321e+18,0.0,-2.0,11.0,-14.0,-10.0,-2.0,5.0,-9.0
1.695162584578321e+18,-3.0,4.0,-34.0,-4.0,7.0,0.0,-9.0,22.0
1.6951625845943112e+18,-3.0,-7.0,38.0,-2.0,-9.0,-4.0,-6.0,-5.0
1.6951625845943112e+18,-5.0,-35.0,-57.0,-3.0,0.0,2.0,2.0,6.0
1.6951625846023068e+18,0.0,6.0,-28.0,6.0,3.0,3.0,3.0,-9.0
1.6951625846033068e+18,-7.0,-23.0,15.0,-7.0,3.0,-4.0,-3.0,-6.0
1.6951625846033068e+18,-1.0,3.0,23.0,-2.0,-12.0,-2.0,1.0,0.0
1.6951625846043052e+18,7.0,10.0,3.0,4.0,0.0,-2.0,-2.0,2.0
1.6951625846053046e+18,-3.0,-11.0,-36.0,15.0,9.0,7.0,5.0,-5.0
1.6951625846053046e+18,0.0,2.0,28.0,-5.0,-4.0,2.0,0.0,-3.0
1.6951625846083044e+18,0.0,-28.0,-20.0,-1.0,6.0,0.0,-11.0,1.0
1.6951625846093028e+18,7.0,16.0,22.0,-3.0,-16.0,-4.0,1.0,-11.0
1.6951625846232952e+18,1.0,4.0,-6.0,8.0,19.0,0.0,2.0,18.0
1.6951625846242944e+18,0.0,21.0,1.0,-6.0,-7.0,-4.0,-10.0,0.0
1.6951625846242944e+18,-7.0,4.0,-15.0,-3.0,-2.0,-3.0,3.0,-8.0
1.6951625846253043e+18,2.0,-4.0,8.0,0.0,0.0,2.0,-1.0,9.0
1.6951625846462815e+18,-8.0,-7.0,-18.0,-15.0,-7.0,0.0,4.0,-32.0
1.695162584656276e+18,-10.0,1.0,9.0,-2.0,-6.0,-3.0,0.0,31.0
1.695162584656276e+18,17.0,-4.0,0.0,-7.0,-7.0,-5.0,-8.0,32.0
1.6951625846572764e+18,-15.0,0.0,-8.0,-1.0,2.0,0.0,-7.0,-26.0
1.6951625846612764e+18,18.0,0.0,-13.0,-3.0,-8.0,-4.0,-4.0,5.0
1.6951625846612764e+18,3.0,15.0,39.0,14.0,17.0,14.0,28.0,-14.0
1.6951625846622715e+18,-1.0,6.0,-12.0,-8.0,-9.0,-4.0,-12.0,12.0
1.6951625846622715e+18,-3.0,-11.0,13.0,9.0,7.0,-2.0,-4.0,11.0
1.6951625846832602e+18,-6.0,4.0,-11.0,-20.0,-14.0,-5.0,-4.0,-4.0
1.6951625846842596e+18,-4.0,-14.0,7.0,13.0,10.0,4.0,2.0,-5.0
1.6951625846842596e+18,-5.0,-5.0,4.0,-14.0,-23.0,-9.0,3.0,-9.0
1.6951625846842596e+18,-1.0,16.0,13.0,7.0,34.0,10.0,0.0,-9.0
1.6951625847062467e+18,-4.0,5.0,16.0,11.0,-6.0,-1.0,-2.0,1.0
1.6951625847072458e+18,5.0,-26.0,-10.0,-18.0,-9.0,-6.0,-4.0,15.0
1.6951625847082463e+18,-3.0,-9.0,-9.0,8.0,-7.0,-3.0,3.0,-18.0
1.6951625847082463e+18,-3.0,-2.0,-19.0,-17.0,-14.0,-8.0,-7.0,2.0
1.6951625847332306e+18,2.0,-17.0,20.0,16.0,33.0,20.0,7.0,19.0
1.695162584737233e+18,-4.0,6.0,26.0,4.0,-3.0,0.0,1.0,-39.0
1.695162584737233e+18,-3.0,-8.0,-7.0,3.0,8.0,-1.0,-2.0,6.0
1.695162584737233e+18,5.0,7.0,39.0,-4.0,-23.0,-7.0,-1.0,16.0
1.6951625847582193e+18,8.0,8.0,-20.0,9.0,2.0,-4.0,9.0,1.0
1.6951625847592182e+18,-7.0,31.0,-3.0,-11.0,5.0,1.0,-18.0,-16.0
1.6951625847592182e+18,-6.0,-9.0,-15.0,-9.0,-3.0,2.0,-1.0,-10.0
1.695162584760215e+18,2.0,9.0,19.0,9.0,3.0,2.0,6.0,3.0
1.6951625847742072e+18,-5.0,-11.0,11.0,1.0,0.0,-3.0,-3.0,4.0
1.6951625847742072e+18,7.0,4.0,-18.0,3.0,-6.0,-5.0,1.0,-1.0
1.6951625847742072e+18,2.0,1.0,-4.0,4.0,8.0,5.0,8.0,-5.0
1.6951625847752084e+18,-3.0,4.0,-39.0,-14.0,-4.0,2.0,4.0,6.0
1.6951625847802035e+18,0.0,-9.0,13.0,3.0,-15.0,-10.0,-12.0,13.0
1.6951625847812032e+18,0.0,-9.0,-36.0,1.0,7.0,-1.0,-3.0,-1.0
1.6951625847812032e+18,-1.0,-1.0,35.0,-7.0,-9.0,-1.0,-2.0,1.0
1.6951625847812032e+18,3.0,-8.0,-4.0,-4.0,5.0,6.0,-1.0,0.0
1.6951625848111875e+18,-4.0,23.0,6.0,-1.0,-13.0,-4.0,-1.0,-12.0
1.6951625848111875e+18,6.0,1.0,-27.0,-2.0,-1.0,0.0,0.0,3.0
1.6951625848121846e+18,-8.0,3.0,-1.0,4.0,8.0,2.0,4.0,11.0
1.6951625848121846e+18,4.0,-1.0,-12.0,-11.0,-11.0,-6.0,-3.0,-12.0
1.6951625848251807e+18,-10.0,-4.0,0.0,2.0,-4.0,-6.0,-6.0,1.0
1.6951625848251807e+18,-2.0,-10.0,28.0,2.0,-6.0,-2.0,2.0,2.0
1.6951625848501637e+18,0.0,24.0,17.0,-3.0,0.0,2.0,-1.0,-8.0
1.6951625848501637e+18,1.0,-20.0,-27.0,-2.0,-5.0,-5.0,0.0,2.0
1.6951625848511634e+18,5.0,-2.0,11.0,0.0,12.0,3.0,2.0,6.0
1.6951625848521654e+18,4.0,1.0,17.0,-4.0,-11.0,-6.0,-4.0,7.0
1.6951625848521654e+18,-1.0,3.0,2.0,9.0,15.0,8.0,4.0,-8.0
1.6951625848521654e+18,-6.0,5.0,36.0,18.0,12.0,3.0,-6.0,-9.0
1.695162584887141e+18,3.0,1.0,-3.0,0.0,-3.0,-1.0,2.0,-9.0
1.6951625848881426e+18,-7.0,-5.0,-22.0,-8.0,-3.0,-4.0,0.0,2.0
1.6951625848881426e+18,-2.0,-3.0,-26.0,-2.0,-6.0,1.0,10.0,-11.0
1.6951625848881426e+18,5.0,16.0,29.0,7.0,12.0,2.0,-13.0,15.0
1.6951625848901404e+18,-2.0,-5.0,10.0,4.0,1.0,1.0,4.0,-1.0
1.6951625848901404e+18,4.0,5.0,46.0,-2.0,-2.0,-2.0,-6.0,4.0
1.6951625848931384e+18,2.0,-2.0,15.0,15.0,13.0,1.0,-1.0,-3.0
1.6951625848931384e+18,-5.0,-4.0,-26.0,-3.0,-3.0,-1.0,4.0,1.0
1.695162584902133e+18,-5.0,-11.0,-30.0,-12.0,-5.0,-3.0,-6.0,-4.0
1.695162584902133e+18,5.0,-5.0,-6.0,-6.0,-13.0,-3.0,0.0,-4.0
1.6951625849031332e+18,-6.0,1.0,13.0,2.0,9.0,0.0,-1.0,4.0
1.6951625849031332e+18,-1.0,-11.0,-16.0,5.0,5.0,6.0,9.0,-3.0
1.695162584939112e+18,-6.0,2.0,5.0,-10.0,-5.0,-5.0,-17.0,-10.0
1.695162584939112e+18,0.0,14.0,-4.0,-2.0,-2.0,0.0,-2.0,-3.0
1.695162584939112e+18,4.0,2.0,10.0,-2.0,-6.0,0.0,3.0,-6.0
1.6951625849401147e+18,-5.0,-9.0,-28.0,-6.0,-1.0,1.0,-4.0,2.0
1.6951625849620982e+18,0.0,-14.0,-7.0,-7.0,-14.0,-4.0,-1.0,-4.0
1.6951625849620982e+18,2.0,-12.0,3.0,14.0,18.0,3.0,8.0,2.0
1.695162584963098e+18,-2.0,4.0,0.0,3.0,6.0,4.0,0.0,-2.0
1.695162584963098e+18,2.0,4.0,11.0,-2.0,-8.0,-4.0,3.0,7.0
1.695162584965104e+18,2.0,-1.0,-14.0,-7.0,-2.0,-3.0,0.0,2.0
1.695162584965104e+18,-4.0,-4.0,3.0,0.0,-1.0,-1.0,-3.0,-5.0
1.6951625849750912e+18,-2.0,-4.0,-20.0,-9.0,-6.0,0.0,-1.0,-3.0
1.6951625849760968e+18,-2.0,5.0,16.0,2.0,-2.0,-2.0,-5.0,-13.0
1.6951625849830897e+18,-4.0,-5.0,12.0,-5.0,-3.0,-2.0,1.0,3.0
1.6951625849830897e+18,-1.0,-5.0,-16.0,0.0,-3.0,0.0,0.0,1.0
1.695162584984087e+18,-1.0,0.0,-6.0,1.0,1.0,-1.0,-1.0,0.0
1.695162584984087e+18,0.0,-7.0,19.0,-4.0,-4.0,0.0,0.0,13.0
1.69516258501407e+18,-1.0,7.0,-4.0,-2.0,1.0,-3.0,1.0,-3.0
1.69516258501407e+18,0.0,-1.0,-10.0,1.0,2.0,2.0,-5.0,2.0
1.6951625850150738e+18,3.0,-2.0,7.0,-3.0,-4.0,-3.0,3.0,28.0
1.6951625850160694e+18,-4.0,-5.0,-15.0,-1.0,-3.0,-3.0,-4.0,-23.0
1.6951625850520474e+18,-2.0,-1.0,37.0,2.0,3.0,2.0,1.0,3.0
1.6951625850530473e+18,-2.0,-2.0,-17.0,0.0,-3.0,-1.0,-1.0,-5.0
1.6951625850530473e+18,2.0,1.0,-3.0,-1.0,-3.0,1.0,0.0,5.0
1.6951625850540467e+18,-1.0,3.0,0.0,-2.0,-2.0,-1.0,1.0,-3.0
1.6951625850550482e+18,1.0,-6.0,-11.0,-2.0,1.0,-2.0,-2.0,0.0
1.6951625850550482e+18,-2.0,1.0,-4.0,-1.0,0.0,-1.0,0.0,7.0
1.695162585072036e+18,-1.0,-8.0,1.0,-2.0,-3.0,-3.0,-3.0,-11.0
1.695162585072036e+18,1.0,1.0,2.0,1.0,0.0,0.0,1.0,1.0
1.6951625850730363e+18,2.0,4.0,-4.0,1.0,1.0,-1.0,0.0,-3.0
1.6951625850730363e+18,0.0,-4.0,-5.0,0.0,1.0,1.0,2.0,2.0
1.6951625850730363e+18,-1.0,1.0,-5.0,-2.0,-1.0,-2.0,-4.0,-5.0
1.6951625850730363e+18,0.0,1.0,3.0,0.0,0.0,1.0,0.0,-2.0
1.695162585090028e+18,1.0,-2.0,-7.0,0.0,-1.0,1.0,0.0,5.0
1.695162585091026e+18,-2.0,-5.0,-2.0,1.0,2.0,1.0,0.0,-1.0
1.695162585091026e+18,1.0,-2.0,-10.0,-2.0,-2.0,-1.0,-1.0,-4.0
1.695162585091026e+18,-3.0,0.0,1.0,-1.0,-3.0,-2.0,-1.0,1.0
1.6951625851030252e+18,1.0,-1.0,-4.0,-2.0,2.0,2.0,0.0,-2.0
1.695162585108016e+18,0.0,3.0,-1.0,4.0,1.0,-2.0,-2.0,0.0
1.695162585118009e+18,1.0,-1.0,10.0,7.0,-1.0,-2.0,-1.0,-5.0
1.695162585118009e+18,-1.0,-4.0,-7.0,-8.0,-2.0,-2.0,-3.0,0.0
1.6951625851260127e+18,1.0,2.0,-10.0,-6.0,-1.0,0.0,-1.0,-2.0
1.6951625851260127e+18,-1.0,-1.0,-5.0,0.0,-1.0,-2.0,0.0,-2.0
1.6951625851260127e+18,1.0,-3.0,6.0,7.0,1.0,-1.0,-1.0,1.0
1.6951625851260127e+18,1.0,2.0,3.0,0.0,0.0,-1.0,-1.0,-2.0
1.6951625851449966e+18,-1.0,1.0,-3.0,-5.0,-2.0,-1.0,-1.0,0.0
1.6951625851459968e+18,-2.0,0.0,0.0,-3.0,-1.0,0.0,1.0,2.0
1.6951625851559877e+18,-1.0,-1.0,0.0,2.0,-2.0,-1.0,0.0,-2.0
1.6951625851559877e+18,0.0,0.0,5.0,1.0,0.0,1.0,1.0,2.0
1.6951625851626084e+18,-2.0,-1.0,-1.0,2.0,-2.0,-3.0,-3.0,-3.0
1.69516258516358e+18,0.0,-1.0,-4.0,-4.0,1.0,0.0,1.0,0.0
1.69516258516358e+18,-3.0,-1.0,1.0,-4.0,-1.0,0.0,0.0,-1.0
1.69516258516358e+18,-1.0,0.0,-3.0,-2.0,-1.0,-1.0,-2.0,-2.0
1.6951625852001787e+18,-1.0,-1.0,0.0,1.0,0.0,1.0,-2.0,0.0
1.6951625852011538e+18,1.0,0.0,-3.0,-2.0,-3.0,0.0,-2.0,-2.0
1.6951625852171443e+18,0.0,0.0,-3.0,-7.0,-3.0,-2.0,-3.0,-3.0
1.6951625852171443e+18,-1.0,0.0,3.0,-1.0,1.0,-1.0,-1.0,-2.0
1.6951625852271498e+18,-1.0,-2.0,1.0,0.0,0.0,0.0,2.0,-2.0
1.6951625852321613e+18,0.0,-1.0,3.0,-1.0,-3.0,-1.0,-1.0,-1.0
1.6951625852331354e+18,-2.0,0.0,-13.0,-3.0,0.0,0.0,-1.0,-2.0
1.6951625852341348e+18,-1.0,-2.0,5.0,3.0,0.0,-1.0,-1.0,0.0
1.6951625852361393e+18,0.0,1.0,-1.0,3.0,-1.0,-1.0,-2.0,0.0
1.6951625852371415e+18,0.0,0.0,-4.0,-1.0,-1.0,1.0,-1.0,-1.0
1.6951625852371415e+18,0.0,-2.0,3.0,-3.0,-1.0,0.0,0.0,0.0
1.6951625852371415e+18,-1.0,0.0,-1.0,0.0,0.0,-2.0,-1.0,0.0
1.6951625852461274e+18,-2.0,0.0,-3.0,0.0,-2.0,-2.0,-1.0,-1.0
1.6951625852461274e+18,-2.0,-3.0,-1.0,0.0,0.0,-2.0,-2.0,-1.0
1.6951625852461274e+18,1.0,-1.0,1.0,-2.0,-1.0,0.0,0.0,-2.0
1.6951625852471352e+18,0.0,0.0,0.0,1.0,-1.0,0.0,0.0,0.0
1.6951625852691154e+18,0.0,-1.0,1.0,-2.0,-1.0,-2.0,0.0,-2.0
1.6951625852691154e+18,-1.0,-1.0,-1.0,-2.0,-2.0,-1.0,-1.0,1.0
1.6951625852701207e+18,-2.0,1.0,0.0,-1.0,0.0,0.0,0.0,-1.0
1.6951625852701207e+18,-1.0,-1.0,0.0,1.0,0.0,-1.0,1.0,-1.0
1.6951625852841078e+18,0.0,0.0,-2.0,-1.0,0.0,0.0,0.0,0.0
1.6951625852841078e+18,-1.0,0.0,-2.0,-1.0,-3.0,-2.0,-2.0,-2.0
1.6951625852841078e+18,0.0,-2.0,-2.0,-2.0,0.0,-1.0,-3.0,0.0
1.69516258528511e+18,-1.0,-2.0,2.0,2.0,4.0,4.0,2.0,-1.0
1.6951625853060946e+18,-2.0,-3.0,-1.0,-1.0,-2.0,0.0,0.0,0.0
1.6951625853080922e+18,-2.0,0.0,-2.0,2.0,1.0,0.0,0.0,0.0
1.6951625853080922e+18,0.0,1.0,0.0,-1.0,1.0,0.0,0.0,-2.0
1.6951625853090924e+18,-2.0,-1.0,-2.0,-2.0,-2.0,-1.0,-1.0,-1.0
1.6951625853200873e+18,0.0,-1.0,0.0,-2.0,0.0,0.0,-1.0,0.0
1.6951625853200873e+18,1.0,0.0,-1.0,-2.0,-2.0,0.0,-1.0,-2.0
1.6951625853280794e+18,-1.0,-1.0,1.0,-2.0,0.0,-3.0,0.0,-1.0
1.6951625853280794e+18,0.0,-2.0,-2.0,0.0,0.0,-2.0,0.0,1.0
1.6951625853430712e+18,-1.0,-2.0,-1.0,1.0,0.0,1.0,0.0,-3.0
1.6951625853440717e+18,0.0,-1.0,-1.0,-2.0,1.0,-1.0,-1.0,0.0
1.6951625853440717e+18,-1.0,-2.0,0.0,0.0,-3.0,-2.0,0.0,0.0
1.6951625853440717e+18,-1.0,0.0,-2.0,-1.0,-2.0,-1.0,-2.0,-1.0
1.69516258536606e+18,0.0,0.0,-4.0,0.0,-1.0,0.0,0.0,-1.0
1.6951625853670587e+18,0.0,-2.0,2.0,-2.0,-1.0,-1.0,-1.0,-2.0
1.6951625853670587e+18,0.0,-1.0,8.0,-2.0,-2.0,0.0,-1.0,0.0
1.6951625853670587e+18,0.0,-2.0,-16.0,-3.0,-2.0,-3.0,-2.0,-1.0
1.6951625854050355e+18,-1.0,-1.0,3.0,-2.0,-1.0,-2.0,-1.0,-1.0
1.6951625854060403e+18,1.0,1.0,-1.0,0.0,-1.0,0.0,-1.0,0.0
1.6951625854060403e+18,0.0,-3.0,-6.0,-2.0,0.0,-1.0,1.0,-1.0
1.6951625854060403e+18,-1.0,2.0,7.0,-1.0,-1.0,-1.0,-1.0,-1.0
1.6951625854080358e+18,0.0,1.0,-3.0,1.0,3.0,0.0,0.0,0.0
1.6951625854080358e+18,0.0,-2.0,-4.0,-1.0,1.0,-2.0,1.0,-1.0
1.6951625854190292e+18,1.0,0.0,-1.0,0.0,1.0,-2.0,-3.0,0.0
1.6951625854190292e+18,0.0,0.0,3.0,0.0,-4.0,-3.0,-3.0,-1.0
1.6951625854270241e+18,1.0,-1.0,-2.0,-2.0,-2.0,-1.0,-1.0,-2.0
1.6951625854280282e+18,-2.0,0.0,1.0,0.0,2.0,2.0,1.0,0.0
1.6951625854280282e+18,-1.0,0.0,-2.0,-1.0,-1.0,1.0,-1.0,-1.0
1.6951625854290273e+18,-2.0,-2.0,-1.0,-1.0,-1.0,0.0,0.0,-1.0
1.6951625854490115e+18,-1.0,0.0,1.0,1.0,-1.0,-3.0,-1.0,-2.0
1.6951625854500155e+18,1.0,-4.0,-3.0,0.0,-1.0,-2.0,0.0,0.0
1.6951625854500155e+18,-1.0,4.0,5.0,0.0,-2.0,1.0,-1.0,-1.0
1.6951625854510136e+18,-1.0,2.0,5.0,0.0,-2.0,0.0,0.0,0.0
1.6951625854790195e+18,-1.0,0.0,-5.0,-3.0,-2.0,0.0,-2.0,1.0
1.6951625854790195e+18,-1.0,-1.0,-4.0,1.0,-1.0,0.0,-2.0,0.0
1.695162585479994e+18,-1.0,-2.0,-3.0,0.0,0.0,-2.0,-1.0,0.0
1.695162585479994e+18,1.0,0.0,0.0,-1.0,-2.0,-1.0,-1.0,0.0
1.6951625854859894e+18,-2.0,0.0,0.0,0.0,0.0,0.0,-1.0,0.0
1.6951625854859894e+18,-1.0,1.0,1.0,0.0,-2.0,0.0,-1.0,1.0
1.6951625854859894e+18,-1.0,0.0,-1.0,-1.0,0.0,1.0,0.0,0.0
1.695162585486989e+18,-2.0,-1.0,0.0,-1.0,-1.0,-1.0,1.0,-1.0
1.6951625855089766e+18,-1.0,-1.0,-2.0,-1.0,0.0,-1.0,-1.0,-3.0
1.6951625855089766e+18,-2.0,-1.0,-2.0,-3.0,-1.0,1.0,0.0,-1.0
1.6951625855099766e+18,-1.0,0.0,1.0,-2.0,0.0,-1.0,0.0,-2.0
1.6951625855099766e+18,0.0,-1.0,-1.0,0.0,1.0,-1.0,-2.0,0.0
1.695162585534963e+18,1.0,0.0,1.0,0.0,0.0,0.0,0.0,-1.0
1.695162585534963e+18,-2.0,1.0,1.0,0.0,0.0,-2.0,0.0,-1.0
1.6951625855359636e+18,-1.0,-1.0,1.0,1.0,0.0,-1.0,0.0,0.0
1.6951625855359636e+18,0.0,-2.0,-2.0,-1.0,-1.0,-2.0,-1.0,1.0
1.6951625855479565e+18,-2.0,0.0,-1.0,0.0,-2.0,0.0,-1.0,-1.0
1.6951625855489544e+18,0.0,-1.0,1.0,0.0,-2.0,-2.0,-1.0,-2.0
1.6951625855489544e+18,-3.0,-2.0,-4.0,-1.0,-1.0,-1.0,-2.0,-2.0
1.6951625855489544e+18,0.0,0.0,1.0,-1.0,-2.0,-1.0,0.0,-1.0
1.695162585570945e+18,-1.0,0.0,1.0,0.0,-1.0,-1.0,0.0,-2.0
1.695162585570945e+18,-1.0,-1.0,-1.0,-1.0,-3.0,0.0,-1.0,0.0
1.695162585570945e+18,0.0,-2.0,-3.0,0.0,-1.0,0.0,0.0,0.0
1.695162585570945e+18,0.0,-1.0,0.0,-2.0,0.0,0.0,-1.0,-1.0
1.69516258559193e+18,0.0,-2.0,-1.0,-1.0,-1.0,1.0,-1.0,-1.0
1.69516258559193e+18,-2.0,-2.0,-3.0,0.0,-2.0,0.0,-1.0,0.0
1.6951625855929288e+18,0.0,-1.0,-2.0,-2.0,0.0,-1.0,-1.0,-1.0
1.6951625855929288e+18,-1.0,-1.0,-1.0,-1.0,1.0,-1.0,0.0,0.0
1.695162585605922e+18,0.0,0.0,-2.0,0.0,-2.0,0.0,-2.0,0.0
1.6951625856069217e+18,0.0,-2.0,-1.0,-1.0,0.0,-2.0,-2.0,0.0
1.695162585607921e+18,-2.0,-1.0,-1.0,-2.0,-2.0,0.0,1.0,-1.0
1.695162585607921e+18,-1.0,-1.0,-1.0,-2.0,-2.0,-1.0,1.0,-1.0
1.6951625856289083e+18,-1.0,-1.0,-1.0,-1.0,-1.0,-1.0,1.0,-1.0
1.6951625856299082e+18,0.0,0.0,0.0,-1.0,1.0,-1.0,-1.0,-1.0
1.6951625856299082e+18,-1.0,-1.0,0.0,0.0,-2.0,0.0,-2.0,-1.0
1.6951625856309076e+18,-2.0,0.0,0.0,1.0,0.0,-1.0,-1.0,-1.0
1.6951625856429002e+18,-2.0,0.0,-1.0,-2.0,-1.0,-2.0,-1.0,0.0
1.6951625856438994e+18,-1.0,-1.0,-1.0,0.0,-1.0,0.0,0.0,-1.0
1.6951625856438994e+18,-1.0,-1.0,-1.0,-2.0,-1.0,-2.0,-1.0,-1.0
1.6951625856549187e+18,1.0,-2.0,0.0,0.0,0.0,1.0,1.0,-1.0
1.6951625856818788e+18,0.0,-2.0,0.0,-3.0,-1.0,-1.0,-1.0,-1.0
1.6951625856818788e+18,-1.0,0.0,0.0,-2.0,0.0,0.0,-1.0,0.0
1.6951625856828777e+18,0.0,-1.0,-2.0,-1.0,0.0,0.0,-1.0,-2.0
1.695162585683883e+18,-1.0,-1.0,-1.0,-2.0,-1.0,0.0,0.0,0.0
1.6951625857128614e+18,0.0,0.0,-1.0,-1.0,-1.0,-1.0,0.0,1.0
1.6951625857138606e+18,0.0,0.0,-2.0,-1.0,-1.0,-2.0,-2.0,-1.0
1.6951625857168584e+18,0.0,0.0,-1.0,0.0,-2.0,-1.0,-1.0,0.0
1.6951625857168584e+18,0.0,0.0,0.0,-1.0,0.0,0.0,0.0,0.0
1.6951625857178593e+18,-2.0,-3.0,0.0,-1.0,0.0,-1.0,0.0,0.0
1.6951625857178593e+18,0.0,-2.0,0.0,0.0,0.0,0.0,-1.0,-1.0
1.6951625857188575e+18,1.0,1.0,0.0,-1.0,-1.0,0.0,0.0,0.0
1.6951625857188575e+18,-1.0,0.0,-2.0,1.0,-3.0,0.0,-2.0,-1.0
1.695162585736847e+18,0.0,-1.0,0.0,-1.0,-2.0,-1.0,-1.0,-1.0
1.6951625857378463e+18,0.0,0.0,1.0,1.0,-1.0,-2.0,1.0,-1.0
1.6951625857378463e+18,-2.0,-2.0,0.0,0.0,-2.0,-1.0,0.0,-1.0
1.6951625857378463e+18,-1.0,0.0,0.0,0.0,-1.0,1.0,-1.0,-2.0
1.695162585756838e+18,0.0,0.0,0.0,-1.0,0.0,0.0,-1.0,0.0
1.6951625857588347e+18,-1.0,-1.0,0.0,-2.0,-2.0,-2.0,-1.0,0.0
1.6951625857588347e+18,-1.0,-1.0,-2.0,0.0,0.0,-2.0,0.0,-1.0
1.6951625857588347e+18,0.0,-2.0,-2.0,-1.0,-1.0,-2.0,-2.0,-2.0
1.695162585762856e+18,-1.0,0.0,-1.0,3.0,-2.0,-2.0,-1.0,-2.0
1.695162585763836e+18,0.0,-2.0,-1.0,-1.0,-2.0,1.0,0.0,-1.0
1.6951625857648312e+18,0.0,-1.0,1.0,0.0,-1.0,-1.0,-1.0,1.0
1.6951625857648312e+18,-1.0,-3.0,-1.0,-1.0,1.0,-1.0,0.0,1.0
1.695162585785818e+18,-1.0,-1.0,1.0,0.0,-1.0,1.0,0.0,-1.0
1.695162585785818e+18,0.0,1.0,-1.0,0.0,0.0,-2.0,0.0,0.0
1.6951625857938145e+18,0.0,-1.0,-1.0,-1.0,0.0,0.0,-1.0,0.0
1.6951625857938145e+18,0.0,0.0,-1.0,0.0,-1.0,0.0,-1.0,-3.0
1.695162585813808e+18,0.0,0.0,-1.0,-2.0,-3.0,-2.0,0.0,-1.0
1.695162585813808e+18,-2.0,-1.0,-2.0,-3.0,-1.0,-2.0,-1.0,0.0
1.695162585813808e+18,-1.0,-3.0,-1.0,-1.0,0.0,-1.0,2.0,0.0
1.6951625858148078e+18,0.0,0.0,0.0,-2.0,1.0,0.0,-1.0,-1.0
1.6951625858237972e+18,0.0,-1.0,-1.0,-1.0,0.0,-1.0,0.0,0.0
1.6951625858248008e+18,0.0,-2.0,1.0,-1.0,-1.0,0.0,-1.0,-2.0
1.6951625858248008e+18,-1.0,-1.0,-1.0,-2.0,-1.0,-2.0,0.0,-1.0
1.695162585825801e+18,-2.0,0.0,-1.0,-1.0,-2.0,0.0,-1.0,-2.0
1.6951625858457838e+18,1.0,-1.0,0.0,0.0,0.0,-2.0,0.0,-1.0
1.6951625858457838e+18,-1.0,0.0,0.0,0.0,-1.0,-1.0,-1.0,-1.0
1.6951625858467835e+18,-1.0,2.0,-1.0,-1.0,0.0,-3.0,-1.0,-1.0
1.6951625858467835e+18,0.0,0.0,0.0,0.0,-1.0,0.0,-1.0,0.0
1.6951625858697743e+18,-2.0,-1.0,-1.0,0.0,-1.0,1.0,-2.0,-1.0
1.6951625858697743e+18,-1.0,1.0,0.0,-1.0,0.0,1.0,-1.0,1.0
1.6951625858707712e+18,0.0,-1.0,0.0,-1.0,-1.0,-1.0,1.0,0.0
1.6951625858707712e+18,-1.0,0.0,-1.0,0.0,0.0,1.0,-1.0,1.0
1.6951625858887647e+18,-2.0,-1.0,-2.0,-2.0,-1.0,-1.0,0.0,0.0
1.6951625858887647e+18,-1.0,-2.0,-2.0,-1.0,0.0,0.0,0.0,-2.0
1.6951625858897595e+18,-1.0,0.0,-1.0,-1.0,0.0,0.0,0.0,0.0
1.6951625858897595e+18,-1.0,-1.0,-2.0,0.0,0.0,-1.0,0.0,1.0
1.6951625859217418e+18,-1.0,-2.0,-1.0,-1.0,-2.0,-1.0,1.0,0.0
1.6951625859227423e+18,0.0,-1.0,-2.0,0.0,-1.0,0.0,0.0,-2.0
1.6951625859257444e+18,-1.0,-1.0,-1.0,-2.0,0.0,-1.0,-1.0,-1.0
1.695162585926741e+18,2.0,-1.0,1.0,0.0,-1.0,-2.0,1.0,-1.0
1.695162585936733e+18,1.0,0.0,-2.0,0.0,-1.0,-1.0,-2.0,-2.0
1.695162585936733e+18,-1.0,1.0,-2.0,0.0,-1.0,-1.0,-1.0,-1.0
1.6951625859377362e+18,-1.0,-1.0,-1.0,-1.0,-2.0,0.0,-2.0,-1.0
1.6951625859377362e+18,-2.0,-2.0,-1.0,-1.0,-2.0,-2.0,-1.0,-1.0
1.695162585942733e+18,0.0,-3.0,-1.0,-1.0,0.0,-3.0,-2.0,-1.0
1.695162585943729e+18,-1.0,1.0,1.0,-2.0,-1.0,-1.0,0.0,-1.0
1.6951625859507238e+18,0.0,-1.0,-2.0,-1.0,-1.0,0.0,-1.0,-3.0
1.6951625859517274e+18,0.0,0.0,-1.0,-1.0,0.0,0.0,-1.0,-1.0
1.6951625859697388e+18,0.0,-2.0,0.0,0.0,1.0,1.0,0.0,1.0
1.695162585970721e+18,-3.0,-3.0,-2.0,-2.0,-1.0,-4.0,1.0,-1.0
1.695162585973712e+18,0.0,1.0,-1.0,-1.0,-1.0,0.0,0.0,-1.0
1.695162585973712e+18,2.0,1.0,0.0,0.0,-1.0,-3.0,-1.0,0.0
1.6951625859887222e+18,-1.0,1.0,0.0,0.0,0.0,0.0,-1.0,-1.0
1.6951625859897027e+18,-1.0,0.0,1.0,-2.0,0.0,-1.0,-3.0,-1.0
1.6951625859897027e+18,-1.0,-3.0,0.0,0.0,1.0,0.0,-1.0,0.0
1.6951625859907077e+18,-1.0,-1.0,-1.0,0.0,0.0,1.0,-2.0,-1.0
1.6951625860116895e+18,1.0,-1.0,-1.0,-2.0,-2.0,-1.0,-1.0,1.0
1.6951625860116895e+18,0.0,-3.0,0.0,1.0,-1.0,0.0,-1.0,-1.0
1.695162586012693e+18,0.0,0.0,1.0,-2.0,0.0,0.0,1.0,0.0
1.695162586012693e+18,-1.0,-1.0,0.0,-2.0,0.0,-1.0,-1.0,-1.0
1.6951625860366748e+18,0.0,0.0,0.0,-1.0,0.0,-1.0,-1.0,-1.0
1.6951625860426724e+18,-1.0,-1.0,-1.0,0.0,-2.0,-1.0,0.0,-1.0
1.6951625860516672e+18,-1.0,0.0,0.0,0.0,-1.0,-3.0,-2.0,-1.0
1.6951625860536663e+18,-2.0,-1.0,-2.0,-1.0,-1.0,0.0,-1.0,0.0
1.6951625860546665e+18,0.0,-1.0,-2.0,-1.0,0.0,-1.0,0.0,-3.0
1.6951625860546665e+18,0.0,1.0,-3.0,-1.0,0.0,-1.0,-2.0,0.0
1.6951625860546665e+18,1.0,0.0,-2.0,-2.0,-1.0,-2.0,-1.0,-1.0
1.6951625860546665e+18,0.0,-3.0,2.0,-1.0,-1.0,-2.0,3.0,0.0
1.6951625860626604e+18,-1.0,-1.0,1.0,-1.0,-2.0,0.0,0.0,-2.0
1.6951625860636608e+18,0.0,-1.0,-1.0,0.0,-1.0,-1.0,0.0,-1.0
1.6951625860706552e+18,0.0,-2.0,0.0,-1.0,1.0,-2.0,-1.0,-1.0
1.6951625860716557e+18,0.0,-1.0,1.0,0.0,-1.0,-2.0,-1.0,-1.0
1.6951625860856466e+18,-2.0,-1.0,-2.0,-1.0,1.0,-1.0,-1.0,0.0
1.6951625860866468e+18,-1.0,-1.0,0.0,-2.0,-1.0,0.0,0.0,-2.0
1.6951625860866468e+18,-2.0,-1.0,0.0,-1.0,-1.0,0.0,-1.0,1.0
1.6951625860866468e+18,-1.0,0.0,0.0,-1.0,-1.0,-2.0,1.0,-2.0
1.695162586110633e+18,0.0,-1.0,1.0,1.0,-1.0,0.0,-1.0,-2.0
1.6951625861116326e+18,1.0,0.0,-2.0,-1.0,-2.0,0.0,-1.0,-2.0
1.6951625861116326e+18,0.0,1.0,-1.0,0.0,-1.0,-1.0,-2.0,0.0
1.6951625861116326e+18,0.0,0.0,-1.0,2.0,0.0,-1.0,-3.0,-1.0
1.6951625861286282e+18,-2.0,0.0,-2.0,-1.0,-1.0,0.0,-1.0,1.0
1.6951625861356188e+18,-2.0,0.0,-1.0,0.0,-1.0,-1.0,-1.0,-2.0
1.6951625861356188e+18,-1.0,1.0,-1.0,-2.0,-1.0,0.0,0.0,-1.0
1.6951625861366208e+18,0.0,-1.0,-3.0,0.0,-1.0,-1.0,-2.0,-2.0
1.695162586145612e+18,0.0,-1.0,-1.0,-1.0,-2.0,0.0,0.0,-1.0
1.6951625861466148e+18,-2.0,-1.0,-1.0,0.0,-1.0,-1.0,1.0,0.0
1.6951625861466148e+18,-1.0,-1.0,-2.0,-2.0,-1.0,-1.0,-2.0,-1.0
1.6951625861466148e+18,-1.0,-2.0,0.0,-1.0,-2.0,-1.0,0.0,1.0
1.6951625861685985e+18,-1.0,-2.0,-2.0,1.0,-1.0,-1.0,-2.0,-2.0
1.6951625861685985e+18,0.0,-1.0,-2.0,0.0,1.0,-1.0,0.0,-1.0
1.695162586169599e+18,0.0,-1.0,-1.0,-2.0,-2.0,-1.0,-1.0,-1.0
1.695162586169599e+18,-2.0,-1.0,-1.0,-1.0,-1.0,-1.0,-1.0,0.0
1.6951625861825923e+18,-1.0,-2.0,1.0,-2.0,0.0,-3.0,1.0,1.0
1.6951625861825923e+18,-1.0,0.0,0.0,-1.0,-1.0,-1.0,-1.0,0.0
1.6951625862025807e+18,0.0,0.0,-2.0,0.0,-2.0,0.0,-2.0,0.0
1.6951625862135744e+18,-2.0,-1.0,-1.0,-3.0,-1.0,-1.0,-1.0,-2.0
1.6951625862145787e+18,-1.0,-2.0,-1.0,0.0,1.0,-2.0,-3.0,-1.0
1.6951625862145787e+18,-1.0,-2.0,0.0,0.0,0.0,-1.0,-1.0,0.0
1.695162586215574e+18,-1.0,-1.0,0.0,1.0,-1.0,0.0,-2.0,0.0
1.695162586215574e+18,-1.0,-1.0,-1.0,0.0,0.0,-2.0,0.0,-1.0
1.6951625862365642e+18,-2.0,-1.0,2.0,-2.0,-1.0,0.0,-1.0,0.0
1.6951625862365642e+18,-1.0,0.0,-1.0,-1.0,0.0,0.0,1.0,-1.0
1.6951625862375596e+18,-2.0,-2.0,-1.0,-2.0,-1.0,-1.0,-1.0,-1.0
1.6951625862375596e+18,0.0,1.0,1.0,-1.0,-1.0,1.0,-2.0,-2.0
1.6951625862585475e+18,-2.0,0.0,-2.0,0.0,0.0,0.0,0.0,0.0
1.6951625862595581e+18,3.0,-1.0,-3.0,-2.0,-2.0,0.0,-1.0,1.0
1.6951625862595581e+18,0.0,-1.0,-2.0,0.0,0.0,0.0,0.0,-2.0
1.6951625862595581e+18,-2.0,-1.0,-3.0,0.0,-1.0,-1.0,1.0,-1.0
1.695162586266543e+18,2.0,0.0,2.0,-1.0,0.0,-1.0,0.0,-3.0
1.695162586266543e+18,-1.0,-1.0,0.0,-2.0,0.0,-1.0,0.0,0.0
1.6951625862675453e+18,-1.0,-1.0,0.0,0.0,-2.0,-3.0,-1.0,-1.0
1.6951625862675453e+18,0.0,-1.0,-2.0,1.0,-1.0,-2.0,-1.0,-2.0
1.6951625862905303e+18,0.0,0.0,-2.0,1.0,-1.0,-2.0,-1.0,1.0
1.6951625862915343e+18,-1.0,-1.0,1.0,0.0,0.0,0.0,1.0,-1.0
1.69516258629253e+18,0.0,0.0,-2.0,-1.0,-1.0,-1.0,2.0,0.0
1.69516258629253e+18,1.0,0.0,-3.0,-1.0,-2.0,-3.0,-1.0,-1.0
1.6951625863115182e+18,-2.0,-1.0,-2.0,-2.0,-1.0,-2.0,0.0,-2.0
1.695162586312519e+18,-1.0,-2.0,-1.0,-1.0,0.0,0.0,-2.0,-1.0
1.695162586312519e+18,0.0,-1.0,-1.0,-2.0,-1.0,0.0,0.0,0.0
1.695162586312519e+18,-2.0,-1.0,-2.0,-2.0,-1.0,1.0,1.0,0.0
1.6951625863255347e+18,1.0,0.0,-1.0,-1.0,-1.0,-1.0,0.0,-1.0
1.6951625863265085e+18,0.0,-1.0,-1.0,3.0,-1.0,-3.0,-2.0,0.0
1.6951625863265085e+18,-1.0,1.0,0.0,0.0,0.0,0.0,-1.0,-1.0
1.6951625863265085e+18,-2.0,-1.0,-1.0,-1.0,0.0,0.0,-1.0,0.0
1.6951625863514952e+18,0.0,0.0,-1.0,0.0,-2.0,-1.0,-1.0,0.0
1.6951625863544934e+18,0.0,1.0,0.0,-2.0,-1.0,0.0,-1.0,-1.0
1.6951625863624886e+18,0.0,0.0,-2.0,-1.0,-1.0,-1.0,0.0,-1.0
1.6951625863624886e+18,0.0,1.0,-1.0,-2.0,-1.0,-1.0,-1.0,0.0
1.6951625863784783e+18,-1.0,-2.0,-1.0,-3.0,-3.0,0.0,-1.0,-1.0
1.6951625863794831e+18,1.0,0.0,-1.0,-1.0,-1.0,1.0,1.0,-3.0
1.6951625863794831e+18,0.0,-2.0,0.0,1.0,0.0,0.0,-1.0,0.0
1.6951625863804844e+18,0.0,-2.0,-2.0,-1.0,1.0,1.0,-1.0,0.0
1.6951625863864755e+18,0.0,0.0,0.0,-1.0,1.0,-2.0,-1.0,-2.0
1.6951625863864755e+18,0.0,0.0,-1.0,0.0,-2.0,-1.0,-1.0,-1.0
1.695162586387478e+18,-2.0,-2.0,-1.0,-1.0,1.0,-1.0,-1.0,0.0
1.695162586387478e+18,-1.0,-1.0,0.0,0.0,-1.0,0.0,-2.0,-2.0
1.6951625864344527e+18,-2.0,0.0,-1.0,0.0,-1.0,0.0,-1.0,-1.0
1.695162586449438e+18,-1.0,0.0,-1.0,-1.0,-1.0,-3.0,-3.0,-1.0
1.6951625864504392e+18,0.0,-1.0,0.0,0.0,-1.0,1.0,0.0,-2.0
1.6951625864504392e+18,0.0,0.0,1.0,1.0,-1.0,0.0,0.0,0.0
1.6951625864504392e+18,-2.0,0.0,-1.0,-2.0,-1.0,0.0,-1.0,1.0
1.6951625864504392e+18,0.0,0.0,-2.0,-2.0,-1.0,0.0,-2.0,-1.0
1.6951625864524388e+18,0.0,-2.0,-2.0,-2.0,0.0,-2.0,0.0,0.0
1.6951625864534362e+18,-1.0,-1.0,-1.0,0.0,0.0,0.0,0.0,-2.0
1.695162586455436e+18,-1.0,-2.0,-1.0,0.0,-1.0,0.0,-1.0,-3.0
1.6951625864564362e+18,-1.0,0.0,-2.0,-1.0,0.0,-2.0,0.0,0.0
1.6951625864564362e+18,-2.0,-2.0,0.0,0.0,1.0,-1.0,0.0,-2.0
1.695162586457435e+18,-1.0,-2.0,2.0,-1.0,0.0,-3.0,0.0,0.0
1.6951625864764227e+18,0.0,-1.0,-2.0,0.0,0.0,0.0,1.0,0.0
1.6951625864764227e+18,-1.0,-2.0,-2.0,0.0,-1.0,1.0,0.0,0.0
1.6951625864774236e+18,1.0,0.0,-2.0,-1.0,0.0,-1.0,-1.0,-1.0
1.6951625864774236e+18,0.0,-1.0,0.0,0.0,-2.0,0.0,-1.0,-2.0
1.6951625864924142e+18,0.0,0.0,-1.0,-1.0,-1.0,-2.0,1.0,-1.0
1.6951625864924142e+18,-1.0,0.0,-1.0,-3.0,-1.0,-1.0,-1.0,1.0
1.6951625864934144e+18,-2.0,0.0,-1.0,0.0,0.0,-1.0,-1.0,-1.0
1.6951625864934144e+18,0.0,-1.0,-1.0,0.0,-2.0,1.0,0.0,-1.0
1.695162586507413e+18,0.0,-1.0,0.0,-1.0,-3.0,-1.0,-2.0,-2.0
1.6951625865084042e+18,0.0,0.0,0.0,-1.0,0.0,-1.0,-1.0,-2.0
1.6951625865084042e+18,1.0,1.0,-1.0,-2.0,-1.0,0.0,0.0,-1.0
1.6951625865084042e+18,-1.0,0.0,-1.0,-1.0,1.0,0.0,-2.0,-2.0
1.6951625865363876e+18,-1.0,-1.0,-2.0,-1.0,1.0,1.0,-1.0,1.0
1.6951625865363876e+18,0.0,-2.0,-3.0,-1.0,0.0,0.0,1.0,0.0
1.695162586537387e+18,0.0,-2.0,-1.0,1.0,-2.0,-2.0,-2.0,0.0
1.695162586537387e+18,0.0,-1.0,0.0,-1.0,-1.0,-1.0,-2.0,-1.0
1.695162586551383e+18,0.0,0.0,0.0,1.0,-1.0,-2.0,-1.0,0.0
1.695162586551383e+18,-1.0,-1.0,-1.0,-1.0,-1.0,-2.0,0.0,0.0
1.695162586552379e+18,-1.0,0.0,-1.0,-3.0,-2.0,1.0,1.0,-1.0
1.695162586552379e+18,-1.0,-2.0,-2.0,0.0,0.0,-1.0,-1.0,0.0
1.695162586566395e+18,0.0,0.0,-1.0,-2.0,-2.0,-2.0,-1.0,-1.0
1.695162586567373e+18,0.0,0.0,1.0,0.0,1.0,0.0,-1.0,0.0
1.695162586567373e+18,-1.0,-2.0,0.0,-1.0,-1.0,-2.0,-2.0,-1.0
1.695162586567373e+18,0.0,1.0,-2.0,-1.0,0.0,-2.0,0.0,0.0
1.6951625865883812e+18,-1.0,-1.0,0.0,-2.0,0.0,0.0,-1.0,-2.0
1.695162586589358e+18,-1.0,0.0,0.0,0.0,0.0,1.0,-1.0,0.0
1.695162586589358e+18,-1.0,0.0,0.0,-3.0,0.0,0.0,-1.0,0.0
1.6951625865903572e+18,-1.0,-1.0,0.0,1.0,-3.0,0.0,-1.0,-1.0
1.695162586618366e+18,-2.0,-1.0,-1.0,1.0,-1.0,-1.0,-1.0,0.0
1.6951625866193444e+18,0.0,0.0,0.0,-1.0,0.0,-1.0,0.0,-1.0
1.6951625866193444e+18,-1.0,-2.0,-1.0,0.0,-1.0,0.0,0.0,-1.0
1.6951625866193444e+18,-1.0,-1.0,-3.0,-2.0,0.0,-1.0,1.0,0.0
1.6951625866333558e+18,0.0,-1.0,-1.0,0.0,1.0,-1.0,-1.0,-2.0
1.6951625866333558e+18,0.0,-1.0,-1.0,-1.0,-3.0,-2.0,-1.0,0.0
1.6951625866343337e+18,-1.0,0.0,-1.0,1.0,0.0,-1.0,-2.0,-1.0
1.6951625866343337e+18,-1.0,0.0,1.0,0.0,-1.0,-2.0,-1.0,-2.0
1.6951625866483274e+18,-2.0,0.0,0.0,0.0,-1.0,-1.0,-2.0,0.0
1.6951625866483274e+18,-1.0,-2.0,2.0,0.0,-3.0,0.0,-2.0,0.0
1.6951625866553188e+18,-2.0,-2.0,-3.0,-3.0,1.0,2.0,2.0,0.0
1.6951625866563226e+18,-1.0,-1.0,0.0,0.0,0.0,1.0,1.0,1.0
1.6951625866713124e+18,-1.0,-1.0,1.0,1.0,1.0,3.0,0.0,2.0
1.6951625866713124e+18,1.0,1.0,2.0,2.0,0.0,-1.0,-1.0,0.0
1.6951625866713124e+18,2.0,1.0,1.0,1.0,-1.0,0.0,-2.0,0.0
1.69516258667231e+18,2.0,-1.0,-1.0,-1.0,-1.0,-1.0,-1.0,1.0
1.695162586693297e+18,-2.0,-1.0,-1.0,-2.0,2.0,0.0,-1.0,0.0
1.695162586693297e+18,0.0,-2.0,-1.0,-2.0,0.0,0.0,0.0,0.0
1.6951625866942968e+18,-1.0,-1.0,1.0,-1.0,-1.0,-1.0,-1.0,0.0
1.6951625866942968e+18,0.0,0.0,-1.0,-2.0,0.0,0.0,0.0,-1.0
1.6951625867352745e+18,-1.0,1.0,-1.0,-1.0,-1.0,1.0,0.0,0.0
1.6951625867382746e+18,-1.0,-1.0,-1.0,-2.0,0.0,-1.0,-1.0,-1.0
1.6951625867382746e+18,0.0,0.0,0.0,1.0,-2.0,0.0,0.0,0.0
1.6951625867392735e+18,-2.0,-1.0,1.0,0.0,1.0,-1.0,-1.0,0.0
1.6951625867392735e+18,0.0,0.0,0.0,1.0,0.0,-1.0,2.0,-1.0
1.695162586740272e+18,-1.0,-1.0,0.0,1.0,-1.0,-1.0,1.0,0.0
1.695162586740272e+18,0.0,0.0,-1.0,0.0,-1.0,-1.0,-1.0,1.0
1.695162586740272e+18,0.0,-1.0,-1.0,-2.0,-2.0,-1.0,0.0,0.0
1.6951625867452682e+18,-1.0,-1.0,-1.0,-2.0,-1.0,0.0,-3.0,-1.0
1.6951625867452682e+18,1.0,-1.0,-1.0,-2.0,0.0,-1.0,0.0,0.0
1.6951625867462682e+18,0.0,-2.0,-1.0,-2.0,0.0,-3.0,-2.0,0.0
1.6951625867462682e+18,-1.0,2.0,-1.0,-1.0,-2.0,-1.0,0.0,-1.0
1.6951625867687155e+18,1.0,1.0,-1.0,-1.0,0.0,-1.0,2.0,0.0
1.6951625867687155e+18,-2.0,-1.0,0.0,1.0,2.0,0.0,1.0,0.0
1.6951625867697206e+18,0.0,-3.0,-2.0,1.0,1.0,0.0,-1.0,-2.0
1.6951625867697206e+18,1.0,0.0,0.0,-3.0,0.0,-1.0,-1.0,-1.0
1.6951625867914312e+18,1.0,0.0,-1.0,0.0,-3.0,1.0,0.0,0.0
1.6951625867914312e+18,-2.0,-1.0,-1.0,8.0,2.0,-1.0,-1.0,-2.0
1.6951625867914312e+18,-2.0,4.0,2.0,-5.0,0.0,0.0,-2.0,0.0
1.6951625867924367e+18,-4.0,-4.0,-5.0,-9.0,-6.0,-3.0,-3.0,-2.0
1.6951625868145623e+18,1.0,0.0,-1.0,4.0,4.0,-2.0,0.0,-1.0
1.6951625868155556e+18,-1.0,2.0,0.0,-7.0,-6.0,2.0,3.0,1.0
1.6951625868155556e+18,-1.0,1.0,2.0,-4.0,-17.0,-8.0,-2.0,-2.0
1.695162586816563e+18,0.0,-1.0,-7.0,11.0,23.0,6.0,1.0,-1.0
1.6951625868285478e+18,-2.0,-3.0,-4.0,-15.0,-9.0,-5.0,-2.0,-1.0
1.6951625868295475e+18,0.0,3.0,8.0,17.0,10.0,-3.0,-2.0,-3.0
1.6951625868295475e+18,0.0,1.0,-2.0,0.0,-10.0,-3.0,1.0,1.0
1.6951625868305567e+18,0.0,-1.0,-1.0,-18.0,-10.0,1.0,-2.0,-2.0
1.6951625868535347e+18,2.0,2.0,5.0,11.0,3.0,-8.0,-1.0,-1.0
1.6951625868545334e+18,-2.0,-2.0,-5.0,-9.0,-7.0,5.0,1.0,-1.0
1.695162586855533e+18,2.0,1.0,2.0,2.0,5.0,9.0,1.0,-1.0
1.695162586855533e+18,1.0,1.0,1.0,14.0,20.0,3.0,0.0,2.0
1.695162586867526e+18,0.0,-3.0,-2.0,-9.0,-7.0,-2.0,0.0,-1.0
1.695162586868526e+18,-3.0,-1.0,1.0,-9.0,-8.0,-8.0,-4.0,-3.0
1.695162586869528e+18,-2.0,-3.0,-3.0,10.0,-6.0,-10.0,-5.0,-3.0
1.6951625868705247e+18,-2.0,1.0,-1.0,-2.0,0.0,-3.0,1.0,1.0
1.6951625868975089e+18,-1.0,-2.0,-4.0,-3.0,12.0,9.0,2.0,-1.0
1.6951625869185004e+18,3.0,0.0,1.0,-2.0,-2.0,1.0,0.0,1.0
1.6951625869205102e+18,-1.0,-3.0,-6.0,-17.0,-6.0,2.0,0.0,-1.0
1.6951625869205102e+18,1.0,-1.0,-1.0,5.0,-1.0,1.0,0.0,-1.0
1.6951625869205102e+18,-1.0,-1.0,5.0,18.0,-4.0,-12.0,-2.0,0.0
1.6951625869215153e+18,-2.0,-4.0,-8.0,-15.0,-1.0,6.0,0.0,-3.0
1.6951625869215153e+18,-2.0,0.0,4.0,2.0,2.0,-3.0,-1.0,2.0
1.6951625869215153e+18,-1.0,-1.0,-3.0,-14.0,-8.0,-3.0,-1.0,-1.0
1.6951625869254979e+18,0.0,2.0,10.0,3.0,3.0,8.0,0.0,0.0
1.695162586926495e+18,-1.0,-3.0,-7.0,-3.0,-11.0,-17.0,-5.0,-6.0
1.6951625869344893e+18,0.0,-1.0,0.0,3.0,7.0,7.0,5.0,5.0
1.6951625869364874e+18,0.0,-2.0,5.0,2.0,-2.0,8.0,-8.0,2.0
1.6951625869484795e+18,1.0,2.0,-4.0,3.0,6.0,10.0,5.0,0.0
1.6951625869494797e+18,-6.0,-9.0,-1.0,8.0,8.0,4.0,-3.0,-5.0
1.695162586958485e+18,-2.0,-2.0,-1.0,-11.0,-11.0,-12.0,0.0,2.0
1.6951625869604726e+18,-2.0,-1.0,-1.0,-11.0,-34.0,-11.0,-2.0,-4.0
1.6951625869724667e+18,-1.0,-2.0,-4.0,-17.0,11.0,-3.0,-1.0,2.0
1.6951625869734674e+18,1.0,4.0,3.0,21.0,9.0,1.0,1.0,-4.0
1.695162586974466e+18,5.0,9.0,7.0,2.0,2.0,-4.0,-4.0,-6.0
1.6951625869754642e+18,-2.0,-7.0,-1.0,14.0,19.0,7.0,5.0,10.0
1.6951625869934548e+18,0.0,3.0,-2.0,-14.0,-8.0,-5.0,-6.0,-5.0
1.6951625869944538e+18,-2.0,3.0,8.0,-12.0,-9.0,4.0,11.0,5.0
1.6951625870104448e+18,-5.0,-4.0,-19.0,11.0,13.0,0.0,2.0,-18.0
1.6951625870114435e+18,0.0,-13.0,4.0,-2.0,7.0,11.0,4.0,7.0
1.6951625870124426e+18,7.0,13.0,11.0,14.0,-2.0,-5.0,-10.0,24.0
1.6951625870134505e+18,1.0,-8.0,-10.0,22.0,19.0,8.0,3.0,-10.0
1.6951625870144415e+18,-10.0,-7.0,0.0,-3.0,8.0,-1.0,1.0,-7.0
1.6951625870144415e+18,-2.0,14.0,14.0,20.0,20.0,-8.0,-9.0,-12.0
1.6951625870334313e+18,-2.0,-13.0,-22.0,-17.0,-30.0,-8.0,16.0,-9.0
1.6951625870344297e+18,3.0,3.0,7.0,16.0,12.0,1.0,-11.0,28.0
1.6951625870354304e+18,-1.0,-11.0,-10.0,-6.0,7.0,4.0,-12.0,-15.0
1.6951625870354304e+18,-3.0,14.0,8.0,-1.0,1.0,0.0,6.0,-9.0
1.6951625870454239e+18,0.0,-12.0,2.0,3.0,4.0,3.0,-3.0,13.0
1.695162587046424e+18,-2.0,2.0,-5.0,-20.0,-20.0,-12.0,13.0,-1.0
1.695162587069411e+18,3.0,2.0,-7.0,-5.0,-7.0,2.0,17.0,15.0
1.69516258707041e+18,-3.0,-9.0,10.0,9.0,8.0,16.0,1.0,-16.0
1.6951625871003914e+18,-6.0,-10.0,1.0,-11.0,-7.0,-5.0,-14.0,-51.0
1.6951625871003914e+18,-1.0,1.0,-6.0,1.0,19.0,-10.0,-41.0,2.0
1.6951625871013908e+18,2.0,-11.0,-7.0,-12.0,-21.0,-8.0,-1.0,37.0
1.6951625871013908e+18,6.0,10.0,4.0,-8.0,-16.0,-9.0,26.0,21.0
1.6951625871013908e+18,6.0,11.0,-7.0,-3.0,-10.0,1.0,2.0,38.0
1.6951625871023898e+18,-3.0,-9.0,2.0,6.0,12.0,7.0,4.0,-31.0
1.695162587103389e+18,2.0,6.0,4.0,4.0,6.0,6.0,-3.0,-8.0
1.695162587103389e+18,-1.0,2.0,-3.0,2.0,-6.0,-4.0,4.0,-9.0
1.6951625871043886e+18,-10.0,-3.0,4.0,-6.0,-8.0,-3.0,-4.0,-21.0
1.695162587105388e+18,3.0,6.0,-22.0,-14.0,-15.0,-6.0,-2.0,13.0
1.6951625871203791e+18,-1.0,-11.0,13.0,7.0,6.0,4.0,7.0,2.0
1.6951625871213804e+18,-1.0,0.0,4.0,-2.0,0.0,1.0,-5.0,-2.0
1.695162587128374e+18,4.0,4.0,17.0,4.0,2.0,1.0,15.0,17.0
1.695162587128374e+18,-4.0,-6.0,-17.0,-16.0,-23.0,-21.0,-28.0,-37.0
1.695162587128374e+18,2.0,2.0,18.0,15.0,16.0,15.0,2.0,11.0
1.695162587128374e+18,3.0,-11.0,-14.0,-9.0,-9.0,-7.0,-2.0,-14.0
1.6951625871583585e+18,-9.0,5.0,16.0,7.0,10.0,5.0,-10.0,2.0
1.6951625871593564e+18,0.0,5.0,14.0,0.0,-6.0,1.0,10.0,19.0
1.6951625871593564e+18,1.0,1.0,-9.0,-18.0,-21.0,-6.0,0.0,-2.0
1.6951625871593564e+18,-7.0,-16.0,-25.0,-3.0,-2.0,-5.0,-20.0,-2.0
1.6951625871743485e+18,9.0,12.0,-9.0,1.0,15.0,4.0,7.0,5.0
1.695162587175348e+18,-1.0,-4.0,23.0,-1.0,-6.0,5.0,14.0,-2.0
1.695162587180345e+18,-8.0,18.0,12.0,0.0,-9.0,-4.0,-1.0,-22.0
1.695162587180345e+18,3.0,-16.0,-19.0,0.0,-9.0,-17.0,-24.0,-1.0
1.6951625871963372e+18,1.0,-3.0,-16.0,-1.0,6.0,7.0,2.0,17.0
1.6951625871963372e+18,-2.0,1.0,-19.0,-2.0,-4.0,0.0,-2.0,4.0
1.6951625871973356e+18,1.0,13.0,25.0,0.0,1.0,-2.0,11.0,-34.0
1.6951625871973356e+18,-4.0,-1.0,-13.0,1.0,5.0,7.0,7.0,5.0
1.6951625872113285e+18,-1.0,-2.0,-5.0,-1.0,-8.0,-11.0,-9.0,19.0
1.6951625872113285e+18,2.0,-13.0,2.0,-5.0,1.0,10.0,10.0,9.0
1.6951625872123261e+18,5.0,-4.0,-5.0,7.0,10.0,2.0,-6.0,-6.0
1.6951625872123261e+18,-8.0,11.0,9.0,-9.0,-7.0,-4.0,12.0,7.0
1.6951625872333158e+18,4.0,-6.0,-56.0,-6.0,4.0,3.0,-21.0,-23.0
1.6951625872343137e+18,-4.0,1.0,-4.0,3.0,0.0,-2.0,10.0,11.0
1.6951625872343137e+18,-1.0,2.0,-18.0,-6.0,-8.0,-7.0,-2.0,30.0
1.6951625872353157e+18,10.0,-10.0,9.0,4.0,1.0,-1.0,-2.0,4.0
1.6951625872573033e+18,6.0,5.0,-16.0,-6.0,-6.0,-5.0,10.0,-6.0
1.6951625872583032e+18,-5.0,7.0,9.0,-7.0,-7.0,2.0,7.0,-16.0
1.6951625872583032e+18,4.0,-14.0,-7.0,15.0,14.0,-3.0,-14.0,20.0
1.6951625872583032e+18,0.0,4.0,-14.0,-11.0,-4.0,3.0,5.0,1.0
1.6951625872712947e+18,-10.0,14.0,16.0,5.0,-5.0,-2.0,3.0,-12.0
1.6951625872712947e+18,1.0,-10.0,-29.0,-10.0,-4.0,2.0,-7.0,-9.0
1.6951625872722924e+18,2.0,-13.0,0.0,9.0,3.0,-4.0,-6.0,-3.0
1.6951625872722924e+18,0.0,9.0,-36.0,-9.0,-1.0,4.0,9.0,21.0
1.6951625873102697e+18,-10.0,-8.0,61.0,5.0,2.0,-2.0,-16.0,-26.0
1.6951625873102697e+18,-1.0,-4.0,-10.0,-2.0,-8.0,-3.0,3.0,21.0
1.6951625873102697e+18,-6.0,14.0,-8.0,-7.0,0.0,-2.0,0.0,-2.0
1.6951625873112717e+18,9.0,-5.0,-28.0,5.0,-4.0,-6.0,-11.0,14.0
1.695162587312272e+18,-5.0,-6.0,23.0,-3.0,-7.0,-5.0,1.0,-15.0
1.695162587312272e+18,0.0,0.0,-4.0,3.0,5.0,2.0,0.0,3.0
1.69516258731527e+18,-5.0,-3.0,30.0,-5.0,-2.0,0.0,0.0,-2.0
1.69516258731527e+18,7.0,10.0,-5.0,-3.0,0.0,1.0,5.0,-1.0
1.6951625873462746e+18,-3.0,-24.0,25.0,7.0,0.0,0.0,-3.0,-9.0
1.695162587347252e+18,2.0,4.0,-9.0,-11.0,-4.0,-2.0,-7.0,-27.0
1.695162587347252e+18,0.0,-2.0,2.0,9.0,11.0,5.0,-1.0,7.0
1.695162587347252e+18,-7.0,11.0,24.0,1.0,1.0,-3.0,-9.0,-16.0
1.695162587370235e+18,2.0,5.0,2.0,6.0,2.0,3.0,10.0,16.0
1.695162587370235e+18,1.0,-2.0,-34.0,2.0,1.0,2.0,-2.0,-8.0
1.695162587371235e+18,-5.0,18.0,-17.0,-13.0,-12.0,-6.0,-3.0,-21.0
1.695162587371235e+18,-3.0,-8.0,3.0,1.0,7.0,5.0,4.0,14.0
1.6951625873752325e+18,2.0,5.0,3.0,2.0,1.0,-2.0,-4.0,1.0
1.6951625873752325e+18,3.0,-2.0,14.0,4.0,4.0,-3.0,-4.0,7.0
1.6951625873832284e+18,-6.0,-16.0,-4.0,-10.0,-17.0,0.0,8.0,-14.0
1.6951625873832284e+18,-1.0,-10.0,17.0,26.0,27.0,2.0,-7.0,13.0
1.6951625873992238e+18,8.0,21.0,1.0,-2.0,-2.0,3.0,10.0,2.0
1.6951625873992238e+18,-9.0,-13.0,26.0,9.0,8.0,1.0,-3.0,8.0
1.6951625873992238e+18,4.0,-5.0,-21.0,-27.0,-13.0,-1.0,5.0,-2.0
1.6951625874002214e+18,-7.0,11.0,27.0,-2.0,1.0,0.0,-3.0,-12.0
1.6951625874142113e+18,0.0,-27.0,-14.0,3.0,-2.0,-2.0,6.0,19.0
1.6951625874142113e+18,-4.0,1.0,6.0,-1.0,5.0,-1.0,-2.0,-7.0
1.6951625874152164e+18,7.0,8.0,45.0,13.0,-3.0,-1.0,-8.0,20.0
1.6951625874152164e+18,1.0,-8.0,-37.0,-6.0,-11.0,-4.0,2.0,-15.0
1.695162587436197e+18,-1.0,-6.0,-12.0,-6.0,6.0,2.0,-3.0,4.0
1.695162587437198e+18,4.0,49.0,-13.0,-11.0,-12.0,-5.0,-1.0,7.0
1.695162587437198e+18,-9.0,-19.0,-16.0,7.0,8.0,0.0,-3.0,-16.0
1.695162587437198e+18,7.0,-5.0,-2.0,-7.0,-8.0,-3.0,-3.0,-5.0
1.695162587451191e+18,-2.0,-3.0,-2.0,2.0,0.0,-1.0,-7.0,-17.0
1.695162587451191e+18,14.0,9.0,18.0,2.0,-3.0,2.0,12.0,28.0
1.6951625874521887e+18,-2.0,3.0,-46.0,-4.0,3.0,-3.0,-3.0,-4.0
1.6951625874521887e+18,-11.0,18.0,11.0,-2.0,-7.0,-2.0,-2.0,-12.0
1.6951625874741814e+18,-4.0,3.0,-37.0,-1.0,0.0,0.0,-5.0,-9.0
1.6951625874741814e+18,-6.0,2.0,84.0,7.0,4.0,-3.0,-4.0,-14.0
1.6951625874741814e+18,10.0,5.0,11.0,2.0,4.0,-2.0,0.0,16.0
1.6951625874741814e+18,-1.0,0.0,-2.0,-1.0,-11.0,-6.0,-2.0,-6.0
1.6951625874871923e+18,5.0,-4.0,6.0,-2.0,6.0,4.0,9.0,11.0
1.6951625874871923e+18,-3.0,2.0,-2.0,3.0,3.0,-2.0,-2.0,1.0
1.6951625874961656e+18,-2.0,-11.0,-23.0,9.0,1.0,3.0,-3.0,-3.0
1.6951625874961656e+18,0.0,-5.0,2.0,1.0,8.0,3.0,-2.0,-7.0
1.6951625875111785e+18,-8.0,1.0,-21.0,-5.0,-8.0,-2.0,-1.0,-8.0
1.6951625875121544e+18,-2.0,-13.0,-17.0,2.0,6.0,2.0,-4.0,-12.0
1.6951625875131538e+18,-5.0,6.0,-1.0,-6.0,-4.0,-1.0,-5.0,7.0
1.6951625875131538e+18,4.0,-27.0,5.0,8.0,3.0,4.0,10.0,12.0
1.6951625875341417e+18,-3.0,30.0,1.0,-4.0,-14.0,-10.0,-7.0,-7.0
1.6951625875341417e+18,-2.0,-21.0,-50.0,-1.0,11.0,-2.0,-6.0,-14.0
1.6951625875351442e+18,-1.0,15.0,-1.0,-4.0,-4.0,-1.0,4.0,7.0
1.6951625875351442e+18,-12.0,-38.0,-23.0,-8.0,-9.0,2.0,3.0,-15.0
1.695162587547137e+18,10.0,21.0,15.0,12.0,16.0,1.0,1.0,35.0
1.6951625875481354e+18,0.0,-13.0,28.0,-9.0,-7.0,-2.0,2.0,-12.0
1.695162587562126e+18,-7.0,-11.0,-6.0,3.0,2.0,2.0,-8.0,-17.0
1.695162587563126e+18,-3.0,11.0,7.0,-2.0,-2.0,-1.0,-3.0,14.0
1.695162587571121e+18,-1.0,-2.0,-7.0,5.0,12.0,3.0,6.0,-13.0
1.695162587572122e+18,-3.0,-2.0,0.0,5.0,-5.0,2.0,4.0,10.0
1.6951625875761252e+18,2.0,-14.0,10.0,-6.0,3.0,0.0,2.0,1.0
1.695162587577118e+18,1.0,23.0,19.0,3.0,5.0,0.0,-1.0,-2.0
1.6951625875941115e+18,-9.0,-25.0,-18.0,-8.0,-14.0,-5.0,-7.0,-15.0
1.6951625875941115e+18,-1.0,3.0,-7.0,-16.0,-34.0,-9.0,-4.0,6.0
1.695162587600104e+18,2.0,-1.0,9.0,8.0,42.0,15.0,9.0,0.0
1.695162587600104e+18,-1.0,4.0,13.0,2.0,-6.0,-5.0,-10.0,-17.0
1.6951625876240906e+18,0.0,5.0,-6.0,-2.0,4.0,5.0,9.0,10.0
1.6951625876240906e+18,-4.0,2.0,-65.0,-6.0,-10.0,-6.0,-8.0,-5.0
1.6951625876250898e+18,2.0,-2.0,2.0,1.0,-9.0,-3.0,-8.0,-11.0
1.6951625876260897e+18,-1.0,-5.0,9.0,-7.0,-6.0,-7.0,-1.0,16.0
1.695162587639083e+18,-8.0,-37.0,-16.0,1.0,11.0,8.0,5.0,-28.0
1.695162587639083e+18,1.0,-2.0,3.0,-4.0,-4.0,-3.0,-3.0,-4.0
1.6951625876450783e+18,-5.0,2.0,2.0,4.0,1.0,-1.0,2.0,-14.0
1.6951625876460782e+18,7.0,14.0,-10.0,-7.0,-1.0,-1.0,-4.0,17.0
1.6951625876530737e+18,-1.0,-3.0,-18.0,-2.0,-24.0,-12.0,-2.0,0.0
1.695162587654073e+18,-3.0,0.0,19.0,8.0,32.0,12.0,2.0,-4.0
1.6951625876600704e+18,2.0,-11.0,-3.0,8.0,-3.0,-3.0,-3.0,-5.0
1.6951625876600704e+18,-3.0,-3.0,-9.0,4.0,11.0,4.0,-1.0,-11.0
1.695162587667066e+18,-4.0,-7.0,11.0,-10.0,-17.0,-9.0,-3.0,10.0
1.695162587667066e+18,4.0,1.0,-5.0,-7.0,-4.0,0.0,8.0,13.0
1.6951625876760604e+18,1.0,12.0,6.0,-1.0,4.0,6.0,11.0,-3.0
1.6951625876760604e+18,-3.0,9.0,5.0,-2.0,-15.0,-9.0,-5.0,-4.0
1.6951625876990508e+18,3.0,0.0,37.0,8.0,5.0,-2.0,-6.0,10.0
1.6951625876990508e+18,1.0,19.0,-17.0,21.0,16.0,6.0,-8.0,-3.0
1.6951625877000484e+18,-3.0,-29.0,-22.0,-13.0,-5.0,-5.0,5.0,4.0
1.6951625877000484e+18,-2.0,-12.0,14.0,-9.0,-16.0,-1.0,0.0,-8.0
1.6951625877140398e+18,1.0,-1.0,-7.0,-5.0,5.0,3.0,-6.0,-6.0
1.6951625877140398e+18,1.0,6.0,32.0,14.0,0.0,-1.0,2.0,5.0
1.6951625877150408e+18,0.0,7.0,-12.0,-1.0,4.0,2.0,-1.0,8.0
1.6951625877150408e+18,-3.0,0.0,-19.0,12.0,19.0,2.0,5.0,-8.0
1.6951625877273206e+18,-2.0,7.0,26.0,-23.0,-18.0,-7.0,-8.0,7.0
1.6951625877273206e+18,-1.0,-6.0,-7.0,-18.0,-8.0,-2.0,4.0,-2.0
1.6951625877365522e+18,-1.0,7.0,22.0,14.0,3.0,-2.0,-10.0,-20.0
1.6951625877365522e+18,-3.0,-9.0,-4.0,-5.0,-3.0,-1.0,3.0,-2.0
1.695162587752545e+18,-2.0,3.0,10.0,7.0,2.0,-1.0,-4.0,-14.0
1.6951625877575636e+18,-4.0,-20.0,-5.0,-3.0,2.0,2.0,9.0,-1.0
1.6951625877575636e+18,5.0,11.0,6.0,-1.0,-6.0,-7.0,-15.0,8.0
1.695162587758563e+18,1.0,1.0,-3.0,0.0,1.0,1.0,2.0,0.0
1.6951625877735304e+18,0.0,7.0,-8.0,-4.0,-2.0,0.0,2.0,-10.0
1.6951625877735304e+18,0.0,-2.0,5.0,-1.0,-7.0,0.0,0.0,-1.0
1.6951625877755297e+18,-2.0,-2.0,-3.0,0.0,-3.0,-1.0,-3.0,11.0
1.6951625877755297e+18,-1.0,-1.0,-1.0,-6.0,-5.0,-2.0,-5.0,-3.0
1.6951625877876628e+18,2.0,0.0,-9.0,-4.0,0.0,0.0,1.0,4.0
1.6951625877876628e+18,-3.0,4.0,35.0,14.0,11.0,3.0,0.0,-12.0
1.6951625878136486e+18,-2.0,1.0,0.0,-1.0,-10.0,-6.0,-2.0,-1.0
1.6951625878136486e+18,2.0,-1.0,-8.0,-20.0,-8.0,-4.0,-4.0,5.0
1.6951625878146486e+18,-3.0,-3.0,10.0,2.0,-4.0,3.0,6.0,2.0
1.6951625878146486e+18,2.0,-1.0,-19.0,-2.0,10.0,-2.0,-2.0,5.0
1.6951625878176456e+18,1.0,9.0,1.0,-4.0,-12.0,-4.0,0.0,-1.0
1.6951625878176456e+18,-1.0,0.0,7.0,1.0,3.0,1.0,0.0,-2.0
1.6951625878416343e+18,1.0,1.0,-11.0,5.0,6.0,1.0,0.0,1.0
1.6951625878416343e+18,-1.0,-4.0,13.0,-5.0,-12.0,-2.0,-4.0,3.0
1.6951625878426552e+18,2.0,13.0,10.0,3.0,5.0,1.0,1.0,3.0
1.6951625878426552e+18,-2.0,-10.0,-3.0,-4.0,2.0,-1.0,1.0,-1.0
1.6951625878638502e+18,0.0,1.0,-7.0,5.0,2.0,1.0,-1.0,-2.0
1.6951625878638502e+18,0.0,0.0,0.0,3.0,-4.0,-5.0,-3.0,1.0
1.6951625878648714e+18,0.0,-2.0,-9.0,-6.0,2.0,0.0,3.0,1.0
1.6951625878658468e+18,0.0,6.0,-1.0,6.0,3.0,3.0,1.0,0.0
1.6951625878708672e+18,0.0,0.0,5.0,2.0,6.0,1.0,1.0,0.0
1.6951625878708672e+18,-2.0,-4.0,19.0,-6.0,-7.0,-3.0,-3.0,2.0
1.6951625878798413e+18,-2.0,-8.0,-15.0,-6.0,-5.0,-2.0,3.0,2.0
1.6951625878798413e+18,0.0,5.0,0.0,2.0,0.0,-1.0,-1.0,-1.0
1.695162587901543e+18,1.0,4.0,4.0,4.0,3.0,-1.0,-2.0,-2.0
1.695162587901543e+18,0.0,1.0,-14.0,-3.0,1.0,1.0,3.0,3.0
1.6951625879025472e+18,-1.0,-1.0,4.0,-3.0,-2.0,-1.0,-1.0,-1.0
1.6951625879025472e+18,-2.0,1.0,8.0,7.0,0.0,-1.0,0.0,-1.0
1.695162587915525e+18,-3.0,-1.0,7.0,2.0,1.0,-3.0,0.0,0.0
1.695162587915525e+18,0.0,0.0,8.0,-4.0,-1.0,-1.0,-1.0,1.0
1.6951625879235756e+18,-1.0,-6.0,-3.0,-3.0,-4.0,-2.0,0.0,0.0
1.6951625879245757e+18,1.0,4.0,4.0,-11.0,-5.0,-3.0,-3.0,-3.0
1.6951625879311534e+18,0.0,-7.0,-14.0,4.0,3.0,4.0,2.0,0.0
1.6951625879311534e+18,0.0,0.0,-11.0,5.0,-1.0,0.0,-2.0,-2.0
1.6951625879331205e+18,-1.0,-4.0,-10.0,-3.0,-3.0,0.0,0.0,1.0
1.6951625879331205e+18,2.0,1.0,7.0,0.0,-5.0,-2.0,-2.0,1.0
1.6951625879551094e+18,-3.0,-7.0,-12.0,-14.0,0.0,-3.0,-2.0,-2.0
1.6951625879561085e+18,0.0,4.0,0.0,1.0,2.0,1.0,1.0,1.0
1.6951625879611077e+18,0.0,-3.0,6.0,7.0,-4.0,-1.0,-1.0,-1.0
1.6951625879621066e+18,-1.0,-3.0,-4.0,-5.0,1.0,0.0,1.0,0.0
1.6951625879762163e+18,0.0,0.0,-4.0,-2.0,-3.0,-3.0,-3.0,-1.0
1.6951625879762163e+18,1.0,-1.0,-2.0,-7.0,-3.0,-1.0,-2.0,0.0
1.695162587978218e+18,-3.0,1.0,-7.0,-7.0,4.0,3.0,3.0,1.0
1.695162587978218e+18,-1.0,-2.0,-7.0,0.0,-6.0,-5.0,-4.0,0.0
1.6951625879913997e+18,-2.0,0.0,16.0,28.0,4.0,-1.0,-1.0,-2.0
1.6951625879913997e+18,0.0,-1.0,0.0,-14.0,-4.0,-2.0,0.0,0.0
1.6951625879924027e+18,-1.0,-1.0,-4.0,2.0,-3.0,-1.0,-2.0,-2.0
1.6951625879933996e+18,-1.0,-1.0,7.0,10.0,3.0,3.0,0.0,0.0
1.6951625880136556e+18,-2.0,0.0,7.0,6.0,-3.0,-1.0,-2.0,-2.0
1.6951625880136556e+18,0.0,-2.0,-17.0,-6.0,0.0,0.0,0.0,0.0
1.6951625880156552e+18,0.0,-1.0,-3.0,-24.0,-6.0,-1.0,-1.0,0.0
1.6951625880156552e+18,0.0,-1.0,-15.0,-3.0,-1.0,0.0,0.0,0.0
1.695162588028651e+18,-2.0,-3.0,5.0,1.0,-2.0,-3.0,-2.0,-3.0
1.695162588028651e+18,-2.0,0.0,12.0,10.0,3.0,1.0,1.0,-1.0
1.6951625880436424e+18,-1.0,-1.0,-6.0,5.0,0.0,-1.0,-2.0,1.0
1.6951625880436424e+18,-4.0,-6.0,-20.0,-24.0,-5.0,-3.0,-2.0,-3.0
1.6951625880515082e+18,2.0,2.0,0.0,2.0,-1.0,1.0,0.0,0.0
1.6951625880515082e+18,-3.0,-5.0,-1.0,0.0,-4.0,-3.0,-5.0,-3.0
1.695162588052506e+18,-3.0,-1.0,7.0,-3.0,-4.0,-3.0,0.0,-2.0
1.695162588052506e+18,1.0,2.0,11.0,0.0,3.0,1.0,0.0,1.0
1.6951625880916436e+18,1.0,-1.0,-24.0,-13.0,-1.0,1.0,0.0,0.0
1.6951625880926436e+18,-1.0,0.0,11.0,20.0,3.0,1.0,-1.0,0.0
1.6951625880926436e+18,0.0,0.0,3.0,-3.0,2.0,0.0,1.0,0.0
1.695162588093649e+18,-1.0,-1.0,-2.0,3.0,-2.0,0.0,-1.0,-1.0
1.695162588110633e+18,0.0,-1.0,1.0,-12.0,1.0,1.0,-1.0,-1.0
1.695162588110633e+18,-1.0,-1.0,0.0,2.0,-1.0,-1.0,0.0,-2.0
1.6951625881126328e+18,-2.0,1.0,3.0,8.0,1.0,0.0,-2.0,-1.0
1.6951625881126328e+18,-1.0,3.0,-2.0,-4.0,0.0,0.0,-1.0,-1.0
1.695162588126623e+18,-1.0,-1.0,-1.0,3.0,-2.0,-2.0,-1.0,0.0
1.6951625881276227e+18,-2.0,0.0,6.0,6.0,3.0,0.0,1.0,0.0
1.6951625881286228e+18,-1.0,-6.0,-7.0,-11.0,0.0,-2.0,-1.0,-1.0
1.6951625881286228e+18,-1.0,-1.0,7.0,14.0,-1.0,-2.0,-2.0,-1.0
1.6951625881596068e+18,-2.0,-2.0,-7.0,-4.0,-3.0,-2.0,-3.0,0.0
1.6951625881596068e+18,-1.0,-1.0,-8.0,-8.0,0.0,0.0,0.0,-1.0
1.6951625881606072e+18,0.0,2.0,7.0,0.0,0.0,0.0,0.0,0.0
1.6951625881606072e+18,-1.0,1.0,10.0,5.0,1.0,-2.0,-1.0,-2.0
1.695162588161603e+18,-2.0,-2.0,-12.0,-4.0,-2.0,-1.0,0.0,0.0
1.695162588161603e+18,-1.0,-3.0,-1.0,-2.0,1.0,-1.0,0.0,-2.0
1.695162588162603e+18,-1.0,-1.0,3.0,4.0,1.0,0.0,0.0,0.0
1.695162588162603e+18,0.0,-1.0,0.0,1.0,0.0,-3.0,-1.0,0.0
1.695162588170597e+18,-1.0,-2.0,0.0,-4.0,0.0,-1.0,-1.0,-1.0
1.695162588170597e+18,0.0,0.0,-3.0,-8.0,-3.0,0.0,-1.0,1.0
1.695162588180593e+18,1.0,-1.0,-8.0,10.0,1.0,-1.0,-1.0,-2.0
1.6951625881815962e+18,-1.0,0.0,-1.0,3.0,2.0,2.0,-1.0,0.0
1.695162588208576e+18,-1.0,-2.0,-3.0,-5.0,4.0,1.0,2.0,0.0
1.695162588208576e+18,0.0,1.0,1.0,-2.0,-5.0,-3.0,-2.0,-1.0
1.6951625882185705e+18,-1.0,-7.0,0.0,3.0,2.0,2.0,-3.0,-1.0
1.6951625882195727e+18,0.0,0.0,-2.0,-5.0,-6.0,-2.0,-1.0,-1.0
1.6951625882195727e+18,1.0,0.0,-1.0,-5.0,-2.0,-2.0,1.0,0.0
1.6951625882195727e+18,-2.0,-2.0,-3.0,0.0,-1.0,-2.0,-2.0,1.0
1.6951625882225674e+18,-1.0,1.0,3.0,2.0,2.0,0.0,-1.0,-1.0
1.6951625882235684e+18,-1.0,0.0,-1.0,-1.0,1.0,1.0,0.0,0.0
1.6951625882305628e+18,-1.0,-1.0,1.0,-1.0,-1.0,-2.0,-2.0,-2.0
1.695162588231565e+18,0.0,-1.0,-5.0,-6.0,-4.0,-2.0,1.0,0.0
1.6951625882375583e+18,1.0,1.0,-3.0,2.0,-7.0,-2.0,-1.0,-1.0
1.695162588238559e+18,-1.0,0.0,4.0,-3.0,2.0,-3.0,-1.0,0.0
1.695162588253551e+18,0.0,2.0,8.0,0.0,-3.0,0.0,-2.0,-1.0
1.6951625882545482e+18,-2.0,-3.0,-10.0,4.0,-1.0,-1.0,0.0,-2.0
1.6951625882555497e+18,-2.0,-1.0,3.0,1.0,4.0,5.0,1.0,-2.0
1.6951625882555497e+18,0.0,-1.0,-3.0,1.0,2.0,0.0,0.0,0.0
1.6951625882755374e+18,-2.0,-1.0,0.0,-2.0,-2.0,-1.0,0.0,0.0
1.6951625882765363e+18,0.0,-1.0,-2.0,-7.0,-3.0,-2.0,-1.0,-1.0
1.6951625882825316e+18,-1.0,0.0,-2.0,-3.0,-4.0,-4.0,-1.0,-1.0
1.6951625882825316e+18,-1.0,1.0,11.0,7.0,0.0,1.0,0.0,0.0
1.6951625882965245e+18,-2.0,-4.0,-14.0,-13.0,0.0,-2.0,-1.0,-2.0
1.6951625882965245e+18,-1.0,1.0,3.0,4.0,-2.0,0.0,-1.0,-1.0
1.6951625883055204e+18,-1.0,0.0,-2.0,-6.0,-8.0,-5.0,-1.0,-1.0
1.6951625883055204e+18,1.0,-1.0,0.0,3.0,1.0,-7.0,1.0,-2.0
1.695162588313517e+18,0.0,0.0,-3.0,6.0,6.0,18.0,0.0,0.0
1.695162588313517e+18,0.0,-1.0,-1.0,-2.0,10.0,3.0,2.0,0.0
1.6951625883195126e+18,-1.0,-1.0,5.0,2.0,-1.0,-2.0,-4.0,-2.0
1.6951625883195126e+18,-1.0,-1.0,-2.0,-4.0,-7.0,-5.0,0.0,-2.0
1.6951625883365012e+18,0.0,0.0,-2.0,3.0,-6.0,-7.0,-1.0,0.0
1.6951625883365012e+18,-1.0,-1.0,-2.0,-5.0,0.0,0.0,0.0,-1.0
1.6951625883375037e+18,0.0,1.0,2.0,0.0,-2.0,0.0,-1.0,-2.0
1.6951625883384996e+18,0.0,-3.0,-4.0,0.0,-2.0,-1.0,-1.0,-2.0
1.6951625883494956e+18,1.0,0.0,0.0,-1.0,-1.0,-1.0,-1.0,-1.0
1.6951625883504932e+18,0.0,-1.0,2.0,2.0,-1.0,1.0,-1.0,0.0
1.6951625883644895e+18,-1.0,-1.0,-1.0,-2.0,1.0,-3.0,-1.0,0.0
1.6951625883654866e+18,-3.0,-1.0,-4.0,-2.0,-2.0,3.0,-2.0,0.0
1.6951625883734802e+18,-2.0,-1.0,4.0,1.0,1.0,-2.0,-1.0,0.0
1.6951625883744837e+18,-1.0,-1.0,0.0,-2.0,-1.0,-1.0,-1.0,-1.0
1.6951625883754793e+18,0.0,-1.0,1.0,-2.0,-1.0,-1.0,0.0,0.0
1.6951625883754793e+18,-1.0,-1.0,-6.0,-3.0,0.0,2.0,-1.0,0.0
1.6951625883964667e+18,1.0,1.0,0.0,1.0,0.0,-4.0,0.0,0.0
1.6951625883964667e+18,1.0,-2.0,0.0,-1.0,-1.0,-1.0,-1.0,0.0
1.6951625883984663e+18,-2.0,0.0,-1.0,1.0,0.0,1.0,-1.0,-1.0
1.6951625883984663e+18,0.0,-1.0,-2.0,-1.0,-1.0,1.0,-1.0,0.0
1.695162588410482e+18,-2.0,1.0,1.0,0.0,-1.0,-4.0,0.0,-1.0
1.695162588410482e+18,-1.0,0.0,-1.0,1.0,-2.0,1.0,0.0,0.0
1.6951625884204767e+18,1.0,0.0,0.0,-3.0,0.0,0.0,-1.0,0.0
1.6951625884264502e+18,-2.0,1.0,-2.0,-2.0,-1.0,0.0,-1.0,-1.0
1.695162588433448e+18,1.0,-1.0,1.0,2.0,-1.0,-1.0,-2.0,-1.0
1.695162588433448e+18,-2.0,-2.0,-1.0,-1.0,-2.0,-1.0,0.0,-2.0
1.695162588435445e+18,-1.0,0.0,0.0,2.0,-2.0,0.0,0.0,-1.0
1.695162588435445e+18,-2.0,-1.0,-1.0,-2.0,-1.0,0.0,-1.0,-3.0
1.6951625884575066e+18,-2.0,1.0,-2.0,-2.0,-2.0,0.0,-1.0,0.0
1.6951625884575066e+18,-1.0,-2.0,0.0,-1.0,-1.0,-1.0,-2.0,0.0
1.6951625884585062e+18,0.0,-1.0,-1.0,-1.0,0.0,-2.0,-1.0,0.0
1.6951625884585062e+18,0.0,0.0,-2.0,-1.0,0.0,-2.0,-2.0,0.0
1.6951625884703565e+18,-1.0,-3.0,1.0,1.0,0.0,-1.0,-1.0,-1.0
1.6951625884703565e+18,-1.0,0.0,-2.0,0.0,-2.0,-1.0,-1.0,-1.0
1.6951625884793544e+18,0.0,-1.0,0.0,-1.0,-3.0,0.0,0.0,0.0
1.6951625884793544e+18,0.0,-2.0,-2.0,-2.0,-1.0,0.0,1.0,-1.0
1.6951625884974687e+18,0.0,1.0,0.0,0.0,0.0,-1.0,0.0,-1.0
1.6951625884974687e+18,-3.0,-1.0,1.0,0.0,-1.0,-1.0,1.0,-2.0
1.695162588498471e+18,-2.0,-1.0,0.0,-2.0,0.0,-1.0,1.0,-1.0
1.695162588498471e+18,-1.0,-1.0,0.0,-1.0,-4.0,0.0,0.0,-1.0
1.6951625885320996e+18,0.0,-1.0,-3.0,-1.0,-3.0,-2.0,-1.0,0.0
1.6951625885320996e+18,0.0,-1.0,-2.0,-2.0,-1.0,0.0,-3.0,0.0
1.695162588533102e+18,-2.0,-1.0,-1.0,-1.0,1.0,-3.0,-2.0,0.0
1.695162588533102e+18,-2.0,-1.0,0.0,0.0,1.0,-1.0,-2.0,0.0
1.695162588534335e+18,-1.0,-1.0,-1.0,0.0,0.0,1.0,-1.0,-1.0
1.695162588534335e+18,-1.0,-1.0,-1.0,0.0,-1.0,-1.0,-1.0,-1.0
1.6951625885384558e+18,1.0,0.0,-1.0,-1.0,-2.0,0.0,-2.0,0.0
1.6951625885394668e+18,1.0,0.0,-1.0,-2.0,-1.0,-2.0,1.0,0.0
1.6951625885540977e+18,1.0,-2.0,0.0,-1.0,-1.0,-1.0,-1.0,-2.0
1.6951625885540977e+18,1.0,1.0,1.0,0.0,1.0,-1.0,-2.0,1.0
1.6951625885551022e+18,-2.0,-1.0,0.0,0.0,1.0,-1.0,-1.0,-1.0
1.695162588556102e+18,0.0,-1.0,-1.0,0.0,-1.0,-1.0,-2.0,0.0
1.695162588585479e+18,-1.0,0.0,1.0,-1.0,-1.0,0.0,0.0,-1.0
1.695162588585479e+18,-1.0,0.0,0.0,1.0,-1.0,-1.0,-2.0,0.0
1.6951625885864778e+18,0.0,0.0,0.0,-1.0,0.0,-1.0,-2.0,0.0
1.6951625885864778e+18,-1.0,0.0,-1.0,0.0,-2.0,0.0,-2.0,-1.0
1.6951625885904796e+18,0.0,-2.0,-1.0,-2.0,0.0,-1.0,0.0,-1.0
1.695162588591475e+18,0.0,0.0,1.0,-4.0,-1.0,1.0,0.0,-1.0
1.6951625886004713e+18,0.0,-2.0,0.0,-1.0,-1.0,-1.0,-1.0,0.0
1.6951625886004713e+18,-2.0,-1.0,-2.0,-2.0,-2.0,-2.0,-2.0,-3.0
1.6951625886214574e+18,-1.0,-1.0,1.0,0.0,1.0,-2.0,0.0,-1.0
1.6951625886224579e+18,-2.0,-2.0,-2.0,-1.0,0.0,-2.0,-2.0,-1.0
1.6951625886234573e+18,-1.0,-1.0,-3.0,-1.0,0.0,0.0,-1.0,-2.0
1.6951625886234573e+18,-2.0,-3.0,-1.0,-1.0,1.0,1.0,-1.0,-2.0
1.6951625886453002e+18,-2.0,-2.0,-3.0,-2.0,-2.0,-1.0,-3.0,-1.0
1.6951625886453002e+18,0.0,-1.0,0.0,-1.0,-2.0,-1.0,1.0,0.0
1.6951625886462748e+18,-1.0,0.0,-1.0,0.0,-1.0,0.0,1.0,-1.0
1.6951625886462748e+18,0.0,0.0,-1.0,0.0,0.0,0.0,0.0,-1.0
1.6951625886502725e+18,-2.0,-2.0,-1.0,-3.0,1.0,0.0,0.0,-2.0
1.695162588651282e+18,0.0,0.0,1.0,3.0,0.0,-1.0,-1.0,-1.0
1.6951625886592668e+18,0.0,-2.0,-2.0,-1.0,-1.0,-2.0,0.0,-1.0
1.6951625886592668e+18,0.0,-1.0,-1.0,-2.0,0.0,0.0,1.0,-1.0
1.6951625886742692e+18,-1.0,0.0,0.0,-2.0,-1.0,0.0,-1.0,-1.0
1.6951625886752614e+18,-1.0,1.0,0.0,-3.0,0.0,-1.0,-2.0,1.0
1.6951625886752614e+18,-1.0,0.0,-2.0,-2.0,-1.0,-1.0,0.0,1.0
1.6951625886752614e+18,-1.0,-1.0,1.0,0.0,0.0,0.0,0.0,1.0
1.6951625886969024e+18,-1.0,-1.0,0.0,-1.0,0.0,-2.0,-1.0,-1.0
1.6951625886969024e+18,-1.0,-2.0,-2.0,0.0,-1.0,-1.0,0.0,-1.0
1.695162588697899e+18,-3.0,-1.0,-1.0,-1.0,-2.0,0.0,-1.0,0.0
1.6951625886988956e+18,1.0,-1.0,-1.0,-2.0,-1.0,-1.0,-1.0,1.0
1.6951625887097595e+18,-1.0,-1.0,-2.0,-1.0,-2.0,0.0,-1.0,-1.0
1.6951625887107704e+18,0.0,0.0,0.0,-1.0,0.0,-3.0,1.0,-1.0
1.6951625887396526e+18,1.0,-1.0,-1.0,-2.0,-1.0,-2.0,-1.0,0.0
1.6951625887406495e+18,0.0,-2.0,0.0,0.0,-2.0,0.0,0.0,-1.0
1.695162588741649e+18,0.0,1.0,0.0,1.0,-1.0,-1.0,2.0,1.0
1.695162588741649e+18,0.0,-1.0,-2.0,-2.0,1.0,-1.0,-1.0,-1.0
1.695162588741649e+18,0.0,0.0,0.0,0.0,-1.0,1.0,-1.0,0.0
1.695162588741649e+18,0.0,-1.0,-2.0,-1.0,0.0,-2.0,-2.0,0.0
1.6951625887566408e+18,0.0,-1.0,-1.0,-2.0,0.0,-1.0,-1.0,-3.0
1.6951625887576397e+18,-1.0,-1.0,0.0,-2.0,-2.0,-1.0,-1.0,0.0
1.6951625887586386e+18,-1.0,1.0,1.0,1.0,0.0,0.0,0.0,-1.0
1.6951625887586386e+18,-1.0,-2.0,0.0,-2.0,-1.0,0.0,-2.0,-1.0
1.6951625887696573e+18,-1.0,0.0,0.0,1.0,0.0,0.0,-1.0,-1.0
1.695162588770637e+18,-1.0,-1.0,-1.0,-2.0,-1.0,-1.0,-1.0,-1.0
1.6951625887786276e+18,-1.0,-2.0,0.0,0.0,-1.0,0.0,-2.0,0.0
1.695162588779635e+18,-1.0,1.0,-3.0,-1.0,0.0,1.0,0.0,-2.0
1.695162588793619e+18,0.0,-1.0,-1.0,-1.0,0.0,-2.0,0.0,0.0
1.6951625887946235e+18,2.0,-1.0,-2.0,0.0,-3.0,-1.0,0.0,-1.0
1.6951625887956173e+18,0.0,-1.0,-1.0,-1.0,0.0,-2.0,-1.0,0.0
1.6951625887956173e+18,0.0,0.0,0.0,-1.0,1.0,-1.0,-1.0,-1.0
1.695162588816606e+18,-1.0,-2.0,-2.0,-1.0,-1.0,0.0,0.0,-1.0
1.695162588816606e+18,0.0,0.0,-1.0,0.0,0.0,0.0,-1.0,0.0
1.695162588823602e+18,-1.0,-2.0,1.0,-2.0,0.0,-1.0,-1.0,0.0
1.6951625888246019e+18,-1.0,0.0,1.0,1.0,-1.0,-1.0,-2.0,1.0
1.6951625888295974e+18,0.0,-1.0,1.0,0.0,-2.0,0.0,-2.0,0.0
1.695162588830601e+18,-2.0,0.0,-1.0,1.0,-1.0,-1.0,0.0,-1.0
1.6951625888395927e+18,1.0,0.0,0.0,0.0,-1.0,-2.0,1.0,0.0
1.6951625888405972e+18,-1.0,-2.0,0.0,-1.0,-3.0,-1.0,-1.0,-1.0
1.6951625888526093e+18,1.0,-1.0,0.0,-1.0,-1.0,-2.0,0.0,-1.0
1.695162588853609e+18,0.0,-2.0,-1.0,-1.0,0.0,1.0,-1.0,-1.0
1.6951625888615393e+18,0.0,-2.0,1.0,-1.0,0.0,0.0,0.0,-2.0
1.6951625888615393e+18,-2.0,-1.0,-1.0,0.0,-2.0,-2.0,0.0,-1.0
1.6951625888764165e+18,-1.0,-1.0,-1.0,-1.0,-1.0,1.0,-1.0,-1.0
1.6951625888774118e+18,-1.0,-1.0,-1.0,-2.0,0.0,-4.0,-1.0,0.0
1.6951625888784118e+18,0.0,0.0,-3.0,-2.0,-1.0,1.0,0.0,-1.0
1.6951625888784118e+18,-1.0,-1.0,-1.0,-1.0,0.0,0.0,-1.0,-1.0
1.6951625888903337e+18,-2.0,1.0,-2.0,-1.0,0.0,-1.0,-2.0,0.0
1.695162588891333e+18,-1.0,0.0,0.0,1.0,-1.0,0.0,-1.0,-4.0
1.69516258889938e+18,0.0,-2.0,-1.0,-2.0,-1.0,-2.0,-1.0,-1.0
1.69516258889938e+18,1.0,-2.0,-1.0,0.0,-2.0,0.0,0.0,0.0
1.695162588921542e+18,0.0,-1.0,-1.0,1.0,0.0,0.0,-1.0,-1.0
1.6951625889225508e+18,-1.0,-3.0,-3.0,-1.0,0.0,0.0,0.0,1.0
1.6951625889235543e+18,-1.0,-1.0,0.0,0.0,-1.0,1.0,-2.0,0.0
1.6951625889235543e+18,0.0,0.0,0.0,-1.0,-1.0,-1.0,0.0,-1.0
1.6951625889362214e+18,-2.0,-2.0,0.0,-1.0,-3.0,-1.0,0.0,1.0
1.6951625889372278e+18,-1.0,0.0,-1.0,1.0,0.0,-1.0,-1.0,0.0
1.6951625889382336e+18,-1.0,-1.0,0.0,0.0,-2.0,-1.0,0.0,-1.0
1.6951625889382336e+18,0.0,1.0,-2.0,-4.0,-2.0,-1.0,0.0,-1.0
1.6951625889505864e+18,0.0,-1.0,-1.0,-1.0,-2.0,-1.0,0.0,-1.0
1.6951625889515878e+18,-2.0,1.0,2.0,6.0,1.0,-1.0,-2.0,-1.0
1.695162588965578e+18,-2.0,-2.0,-2.0,-3.0,-1.0,-2.0,-1.0,2.0
1.6951625889665802e+18,-1.0,0.0,-1.0,0.0,-1.0,-1.0,-1.0,-1.0
1.695162588975572e+18,0.0,1.0,0.0,-3.0,0.0,0.0,-2.0,0.0
1.6951625889765722e+18,-1.0,-1.0,-1.0,-3.0,-2.0,-1.0,2.0,0.0
1.6951625889885642e+18,-1.0,-1.0,0.0,2.0,1.0,-1.0,-1.0,-2.0
1.6951625889895995e+18,-1.0,-2.0,-1.0,-2.0,2.0,-1.0,0.0,-1.0
1.6951625889955594e+18,0.0,-1.0,-1.0,-1.0,-1.0,-1.0,-2.0,-1.0
1.6951625889965676e+18,-1.0,-2.0,0.0,-4.0,-2.0,-2.0,-2.0,-1.0
1.695162589004555e+18,-2.0,1.0,-1.0,-2.0,-1.0,-2.0,-2.0,0.0
1.6951625890055567e+18,-1.0,0.0,-1.0,1.0,-1.0,0.0,-1.0,-1.0
1.6951625890105523e+18,-2.0,-1.0,0.0,-1.0,-2.0,-2.0,-1.0,-1.0
1.6951625890115505e+18,1.0,-1.0,-1.0,-1.0,1.0,1.0,1.0,0.0
1.6951625890195484e+18,1.0,1.0,-1.0,-2.0,-1.0,1.0,0.0,-1.0
1.6951625890195484e+18,0.0,-1.0,0.0,-1.0,1.0,-1.0,0.0,0.0
1.6951625890425336e+18,0.0,-2.0,0.0,-1.0,0.0,0.0,-2.0,-1.0
1.695162589050531e+18,-1.0,-1.0,-1.0,-2.0,-2.0,0.0,0.0,-1.0
1.6951625890515333e+18,0.0,-1.0,-1.0,0.0,-2.0,0.0,-1.0,0.0
1.6951625890515333e+18,-1.0,-1.0,-1.0,-1.0,-1.0,-1.0,-1.0,-1.0
1.6951625890585303e+18,0.0,-1.0,-1.0,0.0,-1.0,-1.0,-1.0,-2.0
1.6951625890605325e+18,-1.0,-2.0,-2.0,-3.0,-1.0,-1.0,-3.0,-1.0
1.6951625890615237e+18,-1.0,-1.0,0.0,-1.0,-1.0,-1.0,-2.0,0.0
1.6951625890615237e+18,-1.0,-1.0,0.0,-1.0,-2.0,-1.0,1.0,0.0
1.6951625890705242e+18,0.0,0.0,-2.0,1.0,-1.0,-1.0,-1.0,-1.0
1.6951625890715228e+18,0.0,-1.0,-1.0,-1.0,1.0,-2.0,-1.0,-1.0
1.695162589086508e+18,-2.0,0.0,-2.0,0.0,-2.0,-1.0,-1.0,-2.0
1.6951625890875064e+18,-1.0,-2.0,1.0,-1.0,0.0,-1.0,-2.0,0.0
1.6951625891014986e+18,-2.0,-1.0,0.0,-3.0,-1.0,0.0,-1.0,0.0
1.6951625891024978e+18,-2.0,-2.0,-1.0,-1.0,-1.0,-1.0,1.0,-1.0
1.6951625891034977e+18,0.0,-2.0,0.0,-1.0,1.0,-1.0,0.0,-1.0
1.6951625891034977e+18,-1.0,0.0,-3.0,-3.0,-1.0,-2.0,0.0,-1.0
1.6951625891164887e+18,-1.0,-1.0,-1.0,5.0,-2.0,0.0,0.0,1.0
1.6951625891164887e+18,-1.0,0.0,0.0,-1.0,0.0,0.0,-1.0,-1.0
1.6951625891174884e+18,-1.0,-1.0,1.0,-2.0,-2.0,0.0,0.0,-1.0
1.6951625891174884e+18,-2.0,-1.0,-2.0,-2.0,-2.0,0.0,-1.0,-1.0
1.6951625891394826e+18,0.0,-2.0,0.0,-3.0,1.0,-1.0,0.0,1.0
1.6951625891394826e+18,-1.0,-1.0,-1.0,0.0,-2.0,-1.0,-2.0,-1.0
1.6951625891404754e+18,-1.0,-1.0,-2.0,-1.0,-1.0,-1.0,-1.0,-2.0
1.6951625891404754e+18,0.0,-2.0,-1.0,1.0,-1.0,-2.0,-2.0,0.0
1.6951625891534912e+18,0.0,0.0,-2.0,0.0,-1.0,1.0,-3.0,0.0
1.6951625891534912e+18,-1.0,0.0,-1.0,-1.0,-1.0,-1.0,0.0,-1.0
1.6951625891554675e+18,-1.0,0.0,0.0,-3.0,-1.0,0.0,0.0,2.0
1.6951625891554675e+18,-1.0,0.0,-1.0,-1.0,-1.0,-1.0,-1.0,-1.0
1.6951625891764572e+18,0.0,-1.0,-1.0,-2.0,0.0,-1.0,-1.0,-2.0
1.6951625891764572e+18,0.0,0.0,-1.0,-1.0,0.0,-1.0,0.0,-2.0
1.6951625891774538e+18,1.0,0.0,0.0,-1.0,-2.0,0.0,2.0,-1.0
1.6951625891774538e+18,-2.0,-1.0,0.0,-1.0,1.0,0.0,1.0,-1.0
1.695162589205439e+18,-2.0,-2.0,0.0,-2.0,1.0,-3.0,0.0,-1.0
1.695162589205439e+18,0.0,-1.0,-1.0,0.0,-1.0,-1.0,0.0,1.0
1.6951625892064407e+18,-1.0,0.0,-2.0,1.0,0.0,-2.0,-1.0,0.0
1.6951625892064407e+18,1.0,-1.0,-1.0,0.0,-1.0,-1.0,-1.0,-2.0
1.6951625892134564e+18,0.0,-1.0,-2.0,-2.0,-3.0,-2.0,2.0,-1.0
1.6951625892134564e+18,0.0,0.0,-1.0,-1.0,0.0,0.0,-2.0,-2.0
1.695162589215434e+18,0.0,0.0,0.0,1.0,-1.0,0.0,-1.0,1.0
1.695162589215434e+18,0.0,-1.0,-1.0,-1.0,-1.0,0.0,-4.0,-3.0
1.6951625892364227e+18,-3.0,-1.0,-2.0,2.0,-2.0,-1.0,-2.0,-2.0
1.6951625892424197e+18,-1.0,-2.0,0.0,-1.0,-1.0,0.0,1.0,0.0
1.6951625892424197e+18,-1.0,-1.0,-1.0,-1.0,0.0,0.0,-2.0,0.0
1.6951625892424197e+18,0.0,-1.0,1.0,0.0,-1.0,0.0,-1.0,0.0
1.6951625892584064e+18,-1.0,0.0,0.0,-1.0,-1.0,0.0,1.0,0.0
1.6951625892584064e+18,-1.0,0.0,1.0,-1.0,-2.0,0.0,0.0,-3.0
1.6951625892604065e+18,-2.0,-1.0,-1.0,-1.0,1.0,-2.0,-2.0,-1.0
1.6951625892604065e+18,-2.0,-2.0,1.0,-1.0,1.0,-1.0,0.0,0.0
1.6951625892754222e+18,0.0,0.0,-1.0,0.0,-1.0,0.0,-2.0,-1.0
1.695162589276421e+18,-2.0,-1.0,-2.0,0.0,0.0,-2.0,-1.0,1.0
1.69516258927942e+18,0.0,0.0,-1.0,0.0,-1.0,-1.0,0.0,-2.0
1.6951625892803945e+18,0.0,-1.0,-1.0,-1.0,-1.0,-1.0,-1.0,1.0
1.6951625893023813e+18,-1.0,0.0,0.0,-1.0,-1.0,0.0,-1.0,0.0
1.6951625893033815e+18,-1.0,0.0,-1.0,-1.0,-1.0,-1.0,-2.0,-1.0
1.6951625893114025e+18,0.0,-1.0,-1.0,-1.0,-1.0,-1.0,0.0,-1.0
1.6951625893114025e+18,0.0,1.0,-2.0,0.0,1.0,0.0,0.0,0.0
1.6951625893183972e+18,2.0,-1.0,0.0,-1.0,0.0,0.0,0.0,0.0
1.6951625893193777e+18,-1.0,-1.0,-1.0,0.0,-3.0,-2.0,-1.0,1.0
1.6951625893203825e+18,-1.0,-1.0,-1.0,-1.0,0.0,-2.0,-1.0,-1.0
1.6951625893203825e+18,-1.0,0.0,-2.0,-2.0,-1.0,0.0,0.0,0.0
1.6951625893333647e+18,0.0,-1.0,0.0,-1.0,0.0,-1.0,-2.0,0.0
1.6951625893333647e+18,-1.0,-1.0,-1.0,-2.0,-1.0,0.0,-1.0,-1.0
1.6951625893393618e+18,0.0,0.0,-1.0,-2.0,0.0,-1.0,-1.0,1.0
1.6951625893403628e+18,-1.0,0.0,0.0,2.0,-1.0,0.0,0.0,-1.0
1.6951625893553523e+18,-1.0,0.0,-1.0,-1.0,-2.0,-2.0,0.0,-1.0
1.6951625893553523e+18,-1.0,0.0,-2.0,0.0,-1.0,0.0,-2.0,-1.0
1.6951625893643497e+18,0.0,-2.0,-2.0,-1.0,0.0,0.0,0.0,-2.0
1.6951625893643497e+18,0.0,0.0,-1.0,-2.0,-1.0,-1.0,0.0,0.0
1.695162589395329e+18,0.0,-1.0,-1.0,1.0,-1.0,0.0,-1.0,1.0
1.695162589395329e+18,0.0,-1.0,0.0,1.0,-1.0,-3.0,-1.0,0.0
1.6951625893963295e+18,-1.0,0.0,-1.0,-1.0,-1.0,0.0,-1.0,0.0
1.6951625893973312e+18,0.0,-1.0,-1.0,-1.0,-1.0,0.0,1.0,0.0
1.6951625893973312e+18,0.0,-1.0,0.0,-1.0,-1.0,-1.0,-1.0,-1.0
1.6951625893973312e+18,0.0,-1.0,0.0,-1.0,-1.0,-1.0,-2.0,0.0
1.6951625894015493e+18,0.0,-1.0,-1.0,0.0,-3.0,0.0,-2.0,-1.0
1.6951625894015493e+18,-2.0,-1.0,0.0,1.0,-2.0,-1.0,-2.0,0.0
1.6951625894162084e+18,-2.0,-1.0,-3.0,-2.0,0.0,0.0,0.0,-1.0
1.6951625894162084e+18,0.0,-1.0,-1.0,-1.0,-1.0,0.0,0.0,-2.0
1.695162589418226e+18,-2.0,0.0,-1.0,-2.0,0.0,0.0,0.0,0.0
1.695162589418226e+18,-1.0,0.0,-2.0,0.0,1.0,-1.0,-1.0,0.0
1.6951625894392645e+18,0.0,-2.0,-1.0,0.0,-1.0,-1.0,1.0,-1.0
1.6951625894392645e+18,-1.0,-2.0,-1.0,-1.0,0.0,-2.0,-1.0,-1.0
1.6951625894402447e+18,-1.0,-1.0,-1.0,-1.0,0.0,-2.0,-1.0,-1.0
1.6951625894402447e+18,-1.0,-1.0,-1.0,-2.0,-2.0,0.0,-2.0,-1.0
1.6951625894534925e+18,-2.0,0.0,-1.0,0.0,0.0,1.0,-2.0,-1.0
1.6951625894534925e+18,-1.0,0.0,0.0,0.0,2.0,-1.0,0.0,0.0
1.6951625894768586e+18,-1.0,-1.0,-1.0,-2.0,-3.0,-1.0,0.0,0.0
1.6951625894768586e+18,-1.0,0.0,-1.0,0.0,-2.0,-2.0,-1.0,0.0
1.6951625894778755e+18,-1.0,-1.0,0.0,0.0,1.0,-1.0,0.0,-1.0
1.6951625894778755e+18,-1.0,-1.0,1.0,0.0,-1.0,2.0,0.0,0.0
1.6951625894792883e+18,-1.0,-1.0,0.0,-1.0,-1.0,-1.0,-2.0,0.0
1.6951625894792883e+18,0.0,-1.0,0.0,-1.0,-1.0,-1.0,-1.0,-1.0
1.6951625894987482e+18,-1.0,-1.0,-2.0,-2.0,-1.0,-2.0,1.0,0.0
1.6951625894987482e+18,-2.0,-1.0,1.0,-1.0,-1.0,0.0,0.0,-1.0
1.6951625895055363e+18,0.0,0.0,-1.0,0.0,-1.0,1.0,-2.0,-2.0
1.6951625895055363e+18,-1.0,-1.0,-1.0,-1.0,-2.0,-1.0,1.0,-2.0
1.695162589512607e+18,-1.0,1.0,-1.0,-1.0,-3.0,-1.0,-1.0,-1.0
1.6951625895135764e+18,0.0,-1.0,-2.0,0.0,-1.0,-1.0,-3.0,0.0
1.695162589527151e+18,-1.0,-1.0,-1.0,-1.0,-1.0,0.0,1.0,-2.0
1.695162589528165e+18,-2.0,0.0,-3.0,-2.0,0.0,-2.0,-1.0,-1.0
1.6951625895461542e+18,-1.0,-1.0,0.0,-1.0,0.0,-1.0,-3.0,0.0
1.695162589551154e+18,-1.0,-1.0,0.0,-1.0,-1.0,0.0,1.0,0.0
1.6951625895521539e+18,0.0,-1.0,1.0,-1.0,0.0,-3.0,-2.0,-1.0
1.6951625895521539e+18,0.0,-1.0,0.0,-2.0,0.0,-1.0,1.0,-2.0
1.6951625895591485e+18,0.0,-1.0,0.0,0.0,-1.0,-2.0,0.0,-1.0
1.6951625895601564e+18,-1.0,-1.0,-1.0,0.0,-1.0,1.0,-1.0,0.0
1.6951625895611456e+18,0.0,0.0,-1.0,0.0,0.0,1.0,-2.0,-1.0
1.6951625895611456e+18,1.0,-1.0,0.0,0.0,0.0,0.0,-1.0,1.0
1.6951625895731405e+18,0.0,-1.0,-2.0,-2.0,0.0,-2.0,0.0,-1.0
1.6951625895731405e+18,0.0,-1.0,-2.0,-1.0,-1.0,-2.0,-1.0,-2.0
1.6951625895801357e+18,-1.0,-1.0,-1.0,-1.0,-2.0,-1.0,-2.0,0.0
1.6951625895801357e+18,-2.0,-1.0,-1.0,0.0,-1.0,-2.0,-2.0,-2.0
1.695162589596129e+18,-2.0,-1.0,-2.0,-3.0,-1.0,-1.0,0.0,0.0
1.6951625895971254e+18,-1.0,0.0,-2.0,-4.0,0.0,0.0,0.0,0.0
1.695162589598125e+18,0.0,-1.0,-2.0,-1.0,-1.0,0.0,1.0,-2.0
1.695162589598125e+18,-1.0,-1.0,-1.0,-1.0,0.0,0.0,-2.0,-1.0
1.695162589619121e+18,-1.0,-2.0,-1.0,0.0,-2.0,1.0,-2.0,-1.0
1.695162589619121e+18,-1.0,0.0,0.0,0.0,-1.0,-3.0,-1.0,-1.0
1.6951625896201116e+18,1.0,-1.0,0.0,1.0,1.0,-1.0,0.0,1.0
1.6951625896201116e+18,0.0,-3.0,0.0,-1.0,-2.0,1.0,0.0,0.0
1.695162589635105e+18,-2.0,-1.0,-1.0,-1.0,2.0,-1.0,0.0,-2.0
1.695162589636106e+18,-1.0,-1.0,-1.0,0.0,-2.0,-2.0,-2.0,-1.0
1.695162589640102e+18,-1.0,-2.0,0.0,0.0,0.0,0.0,0.0,-1.0
1.695162589640102e+18,0.0,-1.0,0.0,-1.0,-2.0,-1.0,-2.0,1.0
1.6951625896711066e+18,-1.0,-1.0,-1.0,-1.0,-2.0,-1.0,0.0,-2.0
1.6951625896720837e+18,-2.0,0.0,-2.0,2.0,-2.0,0.0,0.0,1.0
1.695162589673082e+18,-2.0,-1.0,0.0,-2.0,1.0,0.0,2.0,1.0
1.695162589673082e+18,-1.0,-1.0,0.0,0.0,1.0,1.0,1.0,0.0
1.695162589679078e+18,0.0,1.0,2.0,0.0,0.0,1.0,-1.0,-1.0
1.695162589679078e+18,2.0,1.0,2.0,3.0,3.0,0.0,2.0,0.0
1.6951625896801006e+18,1.0,2.0,-1.0,-2.0,-3.0,-1.0,0.0,-1.0
1.6951625896801006e+18,1.0,1.0,4.0,1.0,2.0,-1.0,1.0,-2.0
1.6951625896920722e+18,-1.0,0.0,-9.0,-2.0,-1.0,0.0,-2.0,0.0
1.69516258969307e+18,-1.0,0.0,1.0,-3.0,0.0,-2.0,0.0,1.0
1.6951625897090634e+18,0.0,0.0,0.0,0.0,-1.0,-1.0,0.0,-1.0
1.6951625897090634e+18,0.0,1.0,0.0,-1.0,-1.0,-1.0,-1.0,0.0
1.69516258971608e+18,0.0,0.0,3.0,0.0,1.0,0.0,0.0,-1.0
1.69516258971608e+18,-1.0,-1.0,-1.0,-3.0,-3.0,-1.0,-1.0,0.0
1.6951625897180557e+18,-1.0,-2.0,-1.0,0.0,-1.0,-2.0,-5.0,-1.0
1.6951625897180557e+18,0.0,1.0,-1.0,1.0,2.0,0.0,0.0,-1.0
1.6951625897465556e+18,1.0,0.0,3.0,3.0,2.0,0.0,3.0,1.0
1.6951625897465556e+18,-1.0,0.0,-2.0,-2.0,-2.0,-1.0,-1.0,-2.0
1.6951625897475569e+18,-1.0,-4.0,-3.0,-10.0,-12.0,-4.0,-1.0,-1.0
1.6951625897475569e+18,-3.0,-2.0,2.0,-1.0,-7.0,-5.0,-2.0,-3.0
1.6951625897525545e+18,0.0,3.0,6.0,19.0,24.0,10.0,1.0,1.0
1.6951625897525545e+18,-1.0,-1.0,-1.0,-1.0,-6.0,-4.0,0.0,-2.0
1.6951625897615565e+18,2.0,-1.0,-9.0,-10.0,2.0,1.0,1.0,0.0
1.6951625897615565e+18,0.0,4.0,9.0,-5.0,-8.0,-5.0,-3.0,0.0
1.695162589783727e+18,-1.0,-1.0,-6.0,-9.0,-10.0,-3.0,-1.0,-2.0
1.695162589783727e+18,-2.0,-1.0,17.0,-6.0,-5.0,2.0,-4.0,-1.0
1.6951625897857472e+18,-1.0,-2.0,-2.0,19.0,28.0,8.0,2.0,1.0
1.6951625897857472e+18,0.0,-2.0,-6.0,3.0,2.0,-6.0,0.0,2.0
1.695162589798721e+18,-2.0,-2.0,-1.0,-12.0,-13.0,10.0,-2.0,-1.0
1.695162589798721e+18,-1.0,-1.0,-7.0,11.0,19.0,0.0,0.0,1.0
1.6951625897996954e+18,-2.0,1.0,5.0,3.0,-16.0,-7.0,-2.0,-2.0
1.6951625898006991e+18,0.0,0.0,-1.0,-4.0,6.0,3.0,-2.0,-1.0
1.695162589814567e+18,-2.0,-2.0,2.0,5.0,3.0,-1.0,0.0,1.0
1.6951625898195581e+18,0.0,-2.0,-3.0,-8.0,-9.0,1.0,-1.0,-4.0
1.6951625898215396e+18,-1.0,0.0,3.0,1.0,-13.0,-15.0,-2.0,-1.0
1.6951625898215396e+18,-1.0,1.0,-8.0,-2.0,-8.0,7.0,0.0,-1.0
1.6951625898371082e+18,1.0,-2.0,1.0,-2.0,11.0,5.0,-3.0,-2.0
1.6951625898371082e+18,-1.0,-1.0,-5.0,11.0,-4.0,1.0,2.0,0.0
1.6951625898428477e+18,-2.0,-2.0,2.0,-9.0,-1.0,-6.0,-2.0,0.0
1.6951625898428477e+18,-2.0,-1.0,-11.0,1.0,0.0,-1.0,-1.0,-2.0
1.6951625898579436e+18,-1.0,-2.0,-2.0,6.0,-3.0,-3.0,0.0,-2.0
1.6951625898579436e+18,0.0,-1.0,-6.0,-13.0,-9.0,2.0,-3.0,-2.0
1.695162589865982e+18,-2.0,-1.0,9.0,7.0,1.0,7.0,0.0,-1.0
1.6951625898669793e+18,0.0,-2.0,-2.0,9.0,21.0,0.0,0.0,3.0
1.6951625898719785e+18,-3.0,-1.0,-4.0,-20.0,-19.0,-8.0,-1.0,-10.0
1.6951625898729805e+18,0.0,3.0,1.0,6.0,-3.0,-9.0,-2.0,8.0
1.6951625898839706e+18,1.0,-7.0,0.0,-4.0,-5.0,-4.0,5.0,25.0
1.695162589884992e+18,-2.0,1.0,-12.0,-6.0,-3.0,9.0,-6.0,-30.0
1.6951625898959852e+18,-2.0,-6.0,-3.0,13.0,27.0,9.0,-1.0,9.0
1.6951625898959852e+18,-2.0,1.0,8.0,-5.0,-8.0,-6.0,-1.0,-19.0
1.6951625898979615e+18,1.0,2.0,-17.0,-1.0,-11.0,-11.0,0.0,3.0
1.6951625898979615e+18,2.0,5.0,8.0,13.0,11.0,10.0,9.0,11.0
1.6951625899187082e+18,-1.0,-3.0,0.0,-11.0,-17.0,-5.0,-6.0,-4.0
1.6951625899187082e+18,0.0,-1.0,-3.0,-8.0,-19.0,-22.0,-6.0,0.0
1.6951625899203328e+18,-2.0,0.0,3.0,9.0,7.0,8.0,-3.0,-3.0
1.6951625899203328e+18,-1.0,-7.0,-9.0,1.0,16.0,2.0,3.0,0.0
1.6951625899324122e+18,2.0,6.0,6.0,-12.0,-16.0,4.0,5.0,1.0
1.6951625899324122e+18,-1.0,2.0,44.0,-7.0,0.0,5.0,6.0,0.0
1.6951625899514017e+18,-3.0,-4.0,-43.0,19.0,22.0,-6.0,-9.0,-5.0
1.6951625899523994e+18,-2.0,-7.0,3.0,-3.0,-16.0,-9.0,-4.0,-10.0
1.6951625899564137e+18,-5.0,-8.0,-16.0,-2.0,0.0,3.0,-2.0,2.0
1.6951625899564137e+18,0.0,4.0,2.0,1.0,18.0,14.0,18.0,-1.0
1.6951625899573957e+18,-2.0,-1.0,8.0,0.0,-4.0,4.0,-11.0,-15.0
1.6951625899573957e+18,9.0,1.0,-18.0,15.0,10.0,-3.0,-4.0,36.0
1.6951625899784115e+18,0.0,-4.0,1.0,-2.0,-2.0,-8.0,4.0,-18.0
1.6951625899794145e+18,-10.0,-5.0,-19.0,-7.0,-8.0,-6.0,-11.0,-16.0
1.6951625899804137e+18,-4.0,10.0,5.0,-11.0,-12.0,-5.0,-7.0,-1.0
1.6951625899804137e+18,-1.0,-6.0,1.0,-16.0,-21.0,3.0,-9.0,19.0
1.6951625899924933e+18,5.0,17.0,-4.0,16.0,14.0,-14.0,10.0,10.0
1.6951625899924933e+18,0.0,-16.0,34.0,8.0,11.0,16.0,-5.0,0.0
1.6951625900089085e+18,-3.0,-8.0,-28.0,-5.0,13.0,15.0,25.0,-16.0
1.6951625900089085e+18,-1.0,1.0,-6.0,-13.0,-11.0,-4.0,-13.0,-1.0
1.6951625900328965e+18,3.0,4.0,4.0,-9.0,-8.0,-6.0,-11.0,-1.0
1.695162590033902e+18,1.0,11.0,-9.0,11.0,8.0,-3.0,1.0,-7.0
1.6951625900348972e+18,1.0,-12.0,2.0,-10.0,1.0,0.0,12.0,43.0
1.695162590037926e+18,-8.0,-9.0,20.0,11.0,-5.0,-2.0,2.0,-48.0
1.6951625900518856e+18,-3.0,-2.0,-30.0,-17.0,-3.0,-1.0,-2.0,21.0
1.6951625900528906e+18,0.0,-1.0,10.0,6.0,5.0,0.0,-16.0,0.0
1.6951625900538908e+18,7.0,10.0,11.0,-12.0,-15.0,-8.0,-6.0,8.0
1.6951625900558848e+18,-5.0,7.0,-8.0,15.0,11.0,2.0,14.0,1.0
1.6951625900928622e+18,1.0,0.0,22.0,-9.0,-20.0,-5.0,8.0,-1.0
1.6951625900938737e+18,-6.0,-20.0,-65.0,-18.0,8.0,-3.0,-29.0,-11.0
1.695162590095861e+18,8.0,19.0,25.0,1.0,-9.0,3.0,0.0,33.0
1.6951625900968717e+18,-11.0,-4.0,-26.0,-8.0,-3.0,-4.0,-2.0,-23.0
1.6951625900968717e+18,-10.0,-8.0,13.0,10.0,5.0,-5.0,-14.0,-22.0
1.6951625900978665e+18,10.0,7.0,6.0,-5.0,-6.0,7.0,27.0,33.0
1.695162590101857e+18,-1.0,4.0,-5.0,-9.0,-11.0,-1.0,0.0,-25.0
1.6951625901028613e+18,2.0,-9.0,-11.0,-5.0,8.0,1.0,-7.0,22.0
1.6951625901038559e+18,-4.0,-7.0,-12.0,19.0,6.0,3.0,16.0,-18.0
1.6951625901048548e+18,2.0,9.0,27.0,-2.0,-11.0,2.0,-1.0,16.0
1.6951625901058555e+18,3.0,-3.0,-15.0,4.0,17.0,5.0,0.0,4.0
1.6951625901058555e+18,1.0,6.0,27.0,-12.0,-15.0,-10.0,2.0,8.0
1.6951625901238446e+18,-6.0,-13.0,-13.0,-1.0,5.0,-5.0,3.0,-10.0
1.6951625901238446e+18,1.0,-6.0,-4.0,1.0,-7.0,-3.0,-11.0,11.0
1.6951625901248443e+18,-1.0,-1.0,12.0,9.0,13.0,7.0,-4.0,-4.0
1.6951625901258445e+18,0.0,-3.0,-31.0,-3.0,-3.0,-2.0,9.0,-8.0
1.695162590142832e+18,4.0,7.0,28.0,-21.0,-14.0,-4.0,-8.0,-5.0
1.695162590142832e+18,-4.0,-3.0,-66.0,4.0,9.0,2.0,0.0,-8.0
1.6951625901618245e+18,3.0,7.0,33.0,-4.0,3.0,3.0,11.0,17.0
1.6951625901618245e+18,-9.0,-30.0,14.0,3.0,-11.0,-6.0,-18.0,-20.0
1.6951625901618245e+18,9.0,32.0,-18.0,12.0,33.0,9.0,-3.0,-5.0
1.6951625901628214e+18,-4.0,-27.0,-12.0,1.0,-10.0,-8.0,4.0,-9.0
1.695162590172815e+18,2.0,20.0,49.0,-1.0,-8.0,2.0,-3.0,10.0
1.695162590172815e+18,-1.0,2.0,-17.0,6.0,14.0,6.0,10.0,-4.0
1.6951625901978007e+18,0.0,1.0,-2.0,5.0,-4.0,4.0,-4.0,-5.0
1.6951625901978007e+18,0.0,6.0,0.0,-4.0,1.0,-5.0,-11.0,2.0
1.6951625901998026e+18,-1.0,5.0,-52.0,-7.0,-8.0,-5.0,-1.0,4.0
1.6951625901998026e+18,-20.0,-29.0,15.0,-3.0,-1.0,2.0,5.0,-47.0
1.6951625902008077e+18,18.0,17.0,-31.0,7.0,0.0,1.0,9.0,33.0
1.6951625902008077e+18,4.0,-14.0,-31.0,-11.0,1.0,-1.0,9.0,-9.0
1.6951625902117926e+18,-3.0,-8.0,5.0,4.0,-1.0,-4.0,-25.0,11.0
1.6951625902247862e+18,13.0,24.0,-2.0,-6.0,-4.0,-2.0,2.0,12.0
1.6951625902267843e+18,-24.0,-10.0,39.0,2.0,-2.0,-3.0,-5.0,-8.0
1.6951625902267843e+18,-9.0,2.0,-5.0,18.0,3.0,3.0,12.0,-18.0
1.695162590228784e+18,0.0,-18.0,19.0,-15.0,4.0,-2.0,1.0,-25.0
1.695162590228784e+18,2.0,10.0,9.0,-3.0,-6.0,-3.0,-5.0,16.0
1.6951625902487767e+18,0.0,-9.0,19.0,-11.0,-6.0,-2.0,0.0,31.0
1.695162590249775e+18,14.0,12.0,5.0,2.0,-3.0,-1.0,0.0,7.0
1.6951625902507738e+18,-15.0,-28.0,-28.0,-2.0,-6.0,-3.0,1.0,-27.0
1.6951625902507738e+18,2.0,19.0,51.0,3.0,6.0,2.0,1.0,9.0
1.6951625902637632e+18,4.0,-10.0,-49.0,-11.0,-8.0,-6.0,-16.0,1.0
1.6951625902647626e+18,7.0,14.0,2.0,-1.0,-7.0,-2.0,-3.0,11.0
1.6951625902657636e+18,-3.0,2.0,2.0,-5.0,-1.0,-7.0,-3.0,-8.0
1.6951625902657636e+18,0.0,2.0,31.0,5.0,-2.0,3.0,11.0,3.0
1.695162590289749e+18,1.0,-5.0,7.0,-3.0,-2.0,2.0,-1.0,15.0
1.6951625902917478e+18,-3.0,8.0,-13.0,-2.0,1.0,-5.0,-6.0,2.0
1.695162590292751e+18,-6.0,0.0,8.0,8.0,1.0,4.0,13.0,-16.0
1.695162590292751e+18,1.0,5.0,5.0,-7.0,-11.0,-6.0,-18.0,0.0
1.6951625903017418e+18,-1.0,4.0,20.0,6.0,-3.0,-1.0,-5.0,-10.0
1.6951625903027415e+18,-3.0,1.0,47.0,2.0,5.0,5.0,7.0,9.0
1.6951625903317233e+18,-4.0,-5.0,-37.0,-3.0,3.0,3.0,6.0,-3.0
1.6951625903317233e+18,14.0,-3.0,-33.0,-5.0,-6.0,-4.0,-6.0,13.0
1.6951625903327235e+18,-6.0,-11.0,15.0,17.0,19.0,4.0,-1.0,-3.0
1.6951625903327235e+18,0.0,25.0,38.0,-23.0,-12.0,-4.0,-1.0,-5.0
1.6951625903527165e+18,-6.0,-20.0,-30.0,4.0,-1.0,-1.0,-3.0,-19.0
1.6951625903537114e+18,1.0,2.0,5.0,7.0,5.0,2.0,-1.0,4.0
1.6951625903537114e+18,1.0,-7.0,-25.0,-8.0,-4.0,0.0,1.0,-6.0
1.6951625903537114e+18,-5.0,-5.0,-3.0,7.0,4.0,1.0,0.0,-8.0
1.6951625903537114e+18,0.0,0.0,13.0,-9.0,-2.0,1.0,4.0,4.0
1.6951625903537114e+18,-3.0,2.0,-14.0,3.0,-3.0,0.0,-3.0,-14.0
1.6951625903617062e+18,0.0,0.0,-8.0,-4.0,-14.0,-8.0,1.0,2.0
1.695162590362706e+18,-2.0,-13.0,-1.0,12.0,21.0,2.0,-12.0,9.0
1.6951625903637281e+18,3.0,1.0,4.0,-1.0,-6.0,-1.0,-10.0,0.0
1.6951625903637281e+18,7.0,3.0,0.0,2.0,4.0,2.0,3.0,6.0
1.6951625903747218e+18,-6.0,0.0,-5.0,-7.0,-11.0,-4.0,-9.0,-18.0
1.6951625903757046e+18,-10.0,-19.0,-32.0,-22.0,-15.0,-5.0,3.0,-16.0
1.69516259039169e+18,3.0,11.0,36.0,11.0,9.0,0.0,-3.0,-3.0
1.69516259039169e+18,2.0,9.0,-19.0,9.0,12.0,8.0,5.0,18.0
1.6951625903976855e+18,-4.0,-10.0,10.0,4.0,-7.0,-2.0,-2.0,-9.0
1.6951625903986857e+18,5.0,-7.0,-17.0,2.0,0.0,0.0,1.0,10.0
1.6951625904156997e+18,3.0,4.0,19.0,-4.0,-10.0,-4.0,13.0,15.0
1.6951625904156997e+18,-9.0,-4.0,-5.0,-5.0,-1.0,-1.0,-10.0,-7.0
1.695162590421673e+18,6.0,2.0,13.0,7.0,6.0,-1.0,-3.0,19.0
1.695162590422677e+18,-4.0,5.0,-5.0,-5.0,-3.0,0.0,1.0,-13.0
1.6951625904236764e+18,-3.0,-4.0,-7.0,-4.0,0.0,-2.0,-6.0,-1.0
1.6951625904236764e+18,8.0,12.0,17.0,-14.0,-7.0,-4.0,7.0,-3.0
1.695162590435666e+18,-2.0,2.0,-8.0,2.0,2.0,1.0,8.0,-7.0
1.695162590435666e+18,-2.0,-7.0,23.0,-5.0,-3.0,-2.0,-5.0,12.0
1.6951625904516582e+18,2.0,3.0,-2.0,10.0,-1.0,-3.0,-4.0,-19.0
1.6951625904516582e+18,-6.0,-2.0,-3.0,8.0,16.0,5.0,0.0,13.0
1.6951625904576755e+18,3.0,-14.0,3.0,-13.0,-9.0,-2.0,1.0,7.0
1.6951625904586583e+18,6.0,21.0,38.0,16.0,-10.0,-8.0,4.0,-3.0
1.695162590466647e+18,-6.0,-4.0,-15.0,-10.0,24.0,9.0,-3.0,-11.0
1.695162590466647e+18,-2.0,-15.0,-30.0,0.0,-9.0,-1.0,4.0,-6.0
1.695162590488637e+18,-6.0,3.0,17.0,4.0,-3.0,-1.0,-7.0,5.0
1.6951625904906353e+18,3.0,-2.0,-6.0,3.0,-3.0,1.0,0.0,0.0
1.6951625904906353e+18,-2.0,-3.0,40.0,11.0,-10.0,-7.0,-2.0,-2.0
1.695162590491633e+18,2.0,3.0,14.0,-15.0,-3.0,-6.0,-5.0,-2.0
1.6951625904956316e+18,-9.0,-5.0,-16.0,4.0,9.0,5.0,4.0,-10.0
1.6951625904956316e+18,-7.0,-13.0,6.0,-6.0,-7.0,-6.0,-5.0,1.0
1.6951625905036268e+18,3.0,4.0,-50.0,-4.0,-10.0,-11.0,-5.0,-3.0
1.6951625905046257e+18,-10.0,13.0,39.0,-8.0,-4.0,6.0,8.0,5.0
1.6951625905186166e+18,5.0,1.0,3.0,1.0,3.0,3.0,-3.0,9.0
1.6951625905186166e+18,4.0,-5.0,-25.0,3.0,4.0,-3.0,-13.0,0.0
1.695162590524613e+18,-3.0,-7.0,-4.0,-2.0,5.0,6.0,1.0,-1.0
1.69516259052562e+18,2.0,-1.0,7.0,0.0,-4.0,-9.0,-1.0,0.0
1.6951625905416044e+18,-1.0,0.0,-22.0,-8.0,-4.0,-1.0,5.0,-11.0
