timestamp,left_data_Ac_X,left_data_Ac_Y,left_data_Ac_Z,left_data_Gy_X,left_data_Gy_Y,left_data_Gy_Z,left_data_flex_1,left_data_flex_2,left_data_flex_3,left_data_flex_4,left_data_flex_5,right_data_Ac_X,right_data_Ac_Y,right_data_Ac_Z,right_data_Gy_X,right_data_Gy_Y,right_data_Gy_Z,right_data_flex_1,right_data_flex_2,right_data_flex_3,right_data_flex_4,right_data_flex_5
1695162413199551300,-8.968679428,-1.601720929,-1.256955862,-0.09659265,0.052759573,-0.203177631,-6,0,20,29,24,-8.620323181,3.754108191,1.211466074,0.033574272,-0.042234302,0.013189893,-44,-18,-19,31,177
1695162413200551300,-8.959102631,-1.610100627,-1.242590666,-0.099656969,0.056889739,-0.20357734,-4,0,17,32,25,-8.622717857,3.752911091,1.204283476,0.033973966,-0.041834611,0.013589587,-41,-19,-17,32,180
1695162413201551300,-8.961497307,-1.613691926,-1.236605167,-0.100856051,0.059954058,-0.203177631,-8,-1,19,30,25,-8.620323181,3.752911091,1.199495077,0.03437366,-0.041301683,0.01385605,-41,-19,-13,33,178
1695162413202551300,-8.965087891,-1.613691926,-1.235408068,-0.100989282,0.062085759,-0.202644721,-2,0,19,30,23,-8.623914719,3.752911091,1.194706678,0.034773353,-0.040901989,0.014255743,-42,-18,-13,31,178
1695162413203551300,-8.966285706,-1.614889026,-1.229422569,-0.100989282,0.064217456,-0.201978564,-3,0,15,30,27,-8.626308441,3.751713991,1.192312479,0.035173047,-0.040235836,0.014522205,-41,-18,-13,31,176
1695162413270517500,-8.957905769,-1.502361536,-1.168370485,-0.077807046,0.071012251,-0.150817752,-6,-1,20,31,27,-8.661025047,3.774458885,1.162384868,0.039303213,-0.023981623,0.02917764,-43,-20,-15,32,181
1695162413271517500,-8.955511093,-1.497573137,-1.164779186,-0.07820674,0.07087902,-0.146421134,-6,-1,19,31,25,-8.661025047,3.772064686,1.156399369,0.039303213,-0.023448698,0.030376723,-44,-19,-14,31,179
1695162413272517500,-8.950722694,-1.489193439,-1.162384868,-0.078872897,0.07087902,-0.141624808,-5,-1,15,29,25,-8.665813446,3.769670486,1.15520227,0.03956968,-0.023049004,0.031442571,-43,-19,-15,31,178
1695162413273517500,-8.950722694,-1.483207941,-1.161187768,-0.079805516,0.071012251,-0.136961713,-6,0,15,28,27,-8.665813446,3.764882088,1.157596469,0.03996937,-0.022516079,0.032508422,-44,-20,-19,31,178
1695162413274517500,-8.944737434,-1.477222443,-1.161187768,-0.080871366,0.071145482,-0.131898925,-5,-2,15,30,25,-8.66940403,3.763684988,1.158793569,0.040502299,-0.022249617,0.033707503,-44,-21,-16,31,177
1695162413311514300,-8.930372238,-1.52390933,-1.100135684,-0.08020521,0.061019909,-0.004929556,-6,-2,17,30,23,-8.668207169,3.708618402,1.213860273,0.060753446,-0.023715161,0.057156201,-43,-17,-16,31,181
1695162413312514300,-8.929175377,-1.532289028,-1.094150186,-0.077807046,0.059421133,0.002931087,-7,0,16,33,27,-8.667010307,3.703830004,1.218648672,0.061819296,-0.02384839,0.057822358,-43,-17,-14,32,181
1695162413313514300,-8.931569099,-1.539471745,-1.091755986,-0.075408876,0.057822358,0.010924961,-6,0,17,33,22,-8.667010307,3.699041605,1.221042871,0.062751912,-0.02358193,0.058888208,-41,-18,-8,31,180
1695162413314514300,-8.935160637,-1.544260144,-1.091755986,-0.07274425,0.056090351,0.018785605,-6,-2,12,28,26,-8.667010307,3.694253206,1.223437071,0.063684531,-0.023315467,0.059421133,-42,-19,-13,31,180
1695162413315514300,-8.941145897,-1.551442742,-1.089361787,-0.070212863,0.054225113,0.026779478,-4,0,16,31,23,-8.664615631,3.685873508,1.221042871,0.064217456,-0.023049004,0.060220521,-43,-20,-14,31,177
1695162413347469400,-8.983044624,-1.685518026,-1.069011092,-0.029843798,0.028245023,0.151750386,-4,-1,15,31,25,-8.668207169,3.621230125,1.250970364,0.060620211,-0.011324655,0.053159267,-44,-21,-17,32,179
1695162413348469400,-8.986636162,-1.690306425,-1.069011092,-0.028777948,0.027312404,0.157079637,-6,1,17,32,25,-8.671798706,3.623624325,1.249773264,0.060220521,-0.01079173,0.051960181,-33,-19,-16,31,178
1695162413349469400,-8.989029884,-1.698686123,-1.066616893,-0.027845331,0.026246555,0.162275642,-8,-1,14,30,26,-8.678980827,3.623624325,1.249773264,0.06008729,-0.010125575,0.050627869,-43,-19,-15,31,174
1695162413350469400,-8.991424561,-1.70946002,-1.070208192,-0.026779478,0.025180703,0.167338446,-3,0,16,32,25,-8.681375504,3.621230125,1.249773264,0.059820827,-0.009725881,0.049295556,-42,-18,-7,31,180
1695162413351469400,-8.996212959,-1.720233917,-1.073799491,-0.025846859,0.023981623,0.172134757,-4,0,21,32,25,-8.681375504,3.618835926,1.254561663,0.059287902,-0.009592649,0.048229709,-44,-19,-16,31,181
1695162413385473500,-9.090784073,-1.868674397,-1.090558887,-0.024114855,0.000666156,0.218765706,-7,-2,15,30,23,-8.70172596,3.587711334,1.278503656,0.068347625,-0.012257273,0.041168455,-42,-27,-16,32,180
1695162413386473500,-9.096769333,-1.878251195,-1.090558887,-0.024647778,-0.000399694,0.219431862,-6,-2,13,34,23,-8.704120636,3.588908434,1.278503656,0.068880551,-0.012124043,0.040502299,-41,-19,-20,31,183
1695162413387473500,-9.102754593,-1.886630893,-1.095347285,-0.025447167,-0.001465544,0.220098019,-6,-5,13,30,23,-8.702922821,3.587711334,1.279700756,0.069147013,-0.011990812,0.040102605,-39,-18,-17,32,179
1695162413388473500,-9.107542992,-1.892616391,-1.089361787,-0.026113322,-0.0021317,0.220364481,-4,0,16,34,25,-8.704120636,3.586514235,1.285686255,0.069546707,-0.01185758,0.039702907,-43,-19,-16,32,178
1695162413389473500,-9.113529205,-1.904587507,-1.091755986,-0.026779478,-0.002931087,0.220497698,-8,-4,15,29,24,-8.702922821,3.585317135,1.286883354,0.069679938,-0.011591119,0.039303213,-44,-19,-17,31,180
1695162413423452400,-9.175778389,-2.084152699,-1.131260276,-0.018119449,-0.007327718,0.192252681,-2,0,20,35,28,-8.718485832,3.558980942,1.329979062,0.069147013,-0.016787136,0.020917306,-41,-20,-14,31,176
1695162413424452400,-9.173383713,-2.087743998,-1.128866076,-0.017453292,-0.007727412,0.188522205,-3,0,20,33,25,-8.718485832,3.555389643,1.325190663,0.069546707,-0.017320061,0.020251149,-42,-18,-12,33,181
1695162413425452400,-9.175778389,-2.092532396,-1.128866076,-0.017320061,-0.008127105,0.184392035,-1,3,20,35,30,-8.717288017,3.551798105,1.329979062,0.070346095,-0.017986218,0.019318528,-41,-18,-9,31,180
1695162413426452400,-9.17697525,-2.088941097,-1.128866076,-0.017320061,-0.008660031,0.180395097,-1,0,21,38,27,-8.719682693,3.552995205,1.334767461,0.071145482,-0.019052068,0.018519141,-42,-18,-13,33,181
1695162413427452400,-9.180566788,-2.087743998,-1.132457376,-0.017586524,-0.009059724,0.175998464,-4,0,21,32,31,-8.722076416,3.555389643,1.33955586,0.072211333,-0.019984685,0.017453292,-39,-19,-13,32,181
1695162413462404500,-9.139864922,-2.124854088,-1.167173386,-0.046764165,-0.003597243,0.084601834,-4,1,20,32,26,-8.702922821,3.60566783,1.353921056,0.081537522,-0.034240428,-0.004529862,-41,-20,-13,34,180
1695162413463404500,-9.136273384,-2.124854088,-1.170764685,-0.048496172,-0.003064318,0.079539053,-5,0,21,30,27,-8.702922821,3.611653328,1.353921056,0.080871366,-0.03437366,-0.005995406,-43,-17,-21,33,182
1695162413464404500,-9.1326828,-2.127248287,-1.169567585,-0.050228179,-0.002664625,0.074609496,-4,0,21,32,27,-8.706514359,3.615244627,1.357512355,0.080071971,-0.034773353,-0.007327718,-43,-19,-13,33,180
1695162413465404500,-9.131484985,-2.128445387,-1.168370485,-0.051826954,-0.0021317,0.069546707,-1,1,21,33,26,-8.70172596,3.616441727,1.357512355,0.079272583,-0.034906585,-0.008926493,-43,-19,-12,31,181
1695162413466404500,-9.131484985,-2.127248287,-1.169567585,-0.052759573,-0.001865237,0.066082694,-8,-1,20,33,28,-8.700529099,3.620033026,1.357512355,0.078339972,-0.035039816,-0.010392036,-39,-19,-12,36,178
1695162413499385200,-9.160215378,-2.093729496,-1.174355984,-0.087932616,0.004130168,-0.017719755,-2,0,21,34,29,-8.681375504,3.67869091,1.333570361,0.064350687,-0.039836142,-0.03237519,-44,-21,-16,25,178
1695162413500385200,-9.156624794,-2.096123695,-1.169567585,-0.090064317,0.004396631,-0.021716693,-5,0,20,35,29,-8.678980827,3.67988801,1.332373261,0.064350687,-0.040369064,-0.032774884,-42,-25,-15,31,178
1695162413501385200,-9.155426979,-2.097320795,-1.170764685,-0.092196018,0.004529862,-0.025313934,-3,0,22,31,27,-8.674192429,3.684676409,1.327584863,0.064217456,-0.040901989,-0.033174578,-41,-21,-15,33,180
1695162413502385200,-9.153033257,-2.093729496,-1.173158884,-0.094061248,0.004796324,-0.02917764,-2,0,21,30,29,-8.674192429,3.684676409,1.325190663,0.064483918,-0.041301683,-0.033441041,-39,-17,-16,34,180
1695162413503385200,-9.149441719,-2.087743998,-1.176750183,-0.095793262,0.005062787,-0.032774884,-4,0,21,36,27,-8.672995567,3.689464808,1.325190663,0.06461715,-0.041701376,-0.033707503,-43,-19,-16,31,181
1695162413536387500,-9.11233139,-2.043451071,-1.224634171,-0.096725874,0.009725881,-0.081803977,-3,1,23,34,24,-8.66940403,3.776853085,1.29885447,0.073543645,-0.048496172,-0.028644716,-41,-19,-13,33,183
1695162413537387500,-9.107542992,-2.042253971,-1.224634171,-0.095260337,0.010525269,-0.083402753,-1,1,22,35,27,-8.671798706,3.782838583,1.30005157,0.073676877,-0.048629403,-0.02797856,-41,-18,-11,33,178
1695162413538387500,-9.105149269,-2.041056871,-1.223437071,-0.093794793,0.011324655,-0.084868304,-2,0,20,36,28,-8.676587105,3.788824081,1.296460271,0.073676877,-0.048362937,-0.027712099,-39,-18,-15,32,180
1695162413539387500,-9.101557732,-2.042253971,-1.218648672,-0.092196018,0.012257273,-0.086200617,-2,0,17,30,27,-8.681375504,3.79361248,1.29885447,0.073676877,-0.048362937,-0.027312404,-41,-19,-13,32,180
1695162413540387500,-9.097966194,-2.038662672,-1.216254473,-0.09033078,0.013189893,-0.087399691,-2,0,21,33,28,-8.686163902,3.799597979,1.296460271,0.073543645,-0.048229709,-0.026779478,-43,-19,-12,31,177
1695162413574340400,-9.090784073,-1.963245392,-1.179144382,-0.063418068,0.027179174,-0.104986221,-5,1,16,32,26,-8.66940403,3.8630445,1.276109457,0.064350687,-0.041434918,-0.010258805,-44,-19,-16,31,178
1695162413575340400,-9.090784073,-1.959654093,-1.179144382,-0.062352221,0.027712099,-0.105918832,-1,1,19,34,25,-8.665813446,3.861847401,1.274912357,0.064084224,-0.041168455,-0.009059724,-41,-20,-13,33,181
1695162413576340400,-9.088389397,-1.954865694,-1.179144382,-0.061552834,0.02797856,-0.106851459,-1,-1,20,34,27,-8.664615631,3.860650301,1.273715258,0.063817769,-0.04103522,-0.007460949,-43,-23,-16,32,178
1695162413577340400,-9.088389397,-1.951274395,-1.180341482,-0.060620211,0.028378254,-0.107917301,-3,1,21,32,25,-8.667010307,3.859453201,1.274912357,0.063418068,-0.040901989,-0.006128637,-40,-18,-15,31,178
1695162413578340400,-9.089587212,-1.946485996,-1.180341482,-0.059820827,0.028644716,-0.108583458,-1,0,21,34,27,-8.664615631,3.860650301,1.271321058,0.063018374,-0.04103522,-0.004796324,-43,-18,-12,32,178
1695162413616316700,-9.066842079,-1.875856996,-1.133654475,-0.054624807,0.025846859,-0.117509954,-5,0,16,36,24,-8.66940403,3.896563292,1.292868972,0.037704438,-0.026779478,0.008127105,-43,-18,-13,32,180
1695162413617316700,-9.06205368,-1.869871497,-1.132457376,-0.054624807,0.025580399,-0.117909648,-4,1,15,32,20,-8.66940403,3.897760391,1.296460271,0.035572741,-0.026246555,0.008526799,-44,-20,-15,32,178
1695162413618316700,-9.06205368,-1.863885999,-1.138442874,-0.054358348,0.025580399,-0.11817611,-5,3,20,34,27,-8.671798706,3.895366192,1.294066072,0.033307809,-0.025846859,0.009059724,-41,-16,-13,34,177
1695162413619316700,-9.060855865,-1.8579005,-1.142034173,-0.054091886,0.025846859,-0.118442573,-2,0,19,33,28,-8.672995567,3.891774893,1.290474772,0.03130934,-0.025980091,0.009459418,-43,-16,-12,31,181
1695162413620316700,-9.056067467,-1.856703401,-1.140837073,-0.053825419,0.025846859,-0.118709028,-4,1,19,30,27,-8.675390244,3.891774893,1.291671872,0.03011026,-0.026246555,0.009992342,-43,-18,-12,32,178
1695162413654295900,-8.993818283,-1.774103403,-1.157596469,-0.057955589,0.027179174,-0.112180702,-4,0,23,35,28,-8.610746384,3.860650301,1.322796464,0.030643184,-0.046764165,0.04769678,-43,-18,-12,31,181
1695162413655295900,-8.990227699,-1.776497602,-1.156399369,-0.059421133,0.02691271,-0.111781009,-3,0,12,33,29,-8.607154846,3.857059002,1.316810966,0.031442571,-0.046364475,0.049961712,-50,-19,-12,32,176
1695162413656295900,-8.986636162,-1.775300503,-1.15400517,-0.060753446,0.026379786,-0.111114852,-2,3,20,33,27,-8.609549522,3.853467703,1.314416766,0.032241959,-0.045964777,0.05249311,-35,-18,-9,34,181
1695162413657295900,-8.981847763,-1.772906303,-1.15161097,-0.062085759,0.025980091,-0.110448696,-3,0,22,32,29,-8.61314106,3.852270603,1.312022567,0.032908116,-0.045565084,0.054624807,-41,-18,-11,33,183
1695162413658295900,-8.979453087,-1.769315004,-1.15280807,-0.063684531,0.025580399,-0.109649308,-3,1,19,30,27,-8.614337921,3.848679304,1.310825467,0.033441041,-0.04516539,0.057022974,-41,-18,-15,42,181
1695162413695271200,-8.981847763,-1.740584612,-1.182735682,-0.083935678,0.014122511,-0.086333841,-1,1,23,33,28,-8.65743351,3.785232782,1.278503656,0.007460949,-0.019318528,0.080738127,-38,-18,-12,33,180
1695162413696271200,-8.981847763,-1.736993313,-1.185129881,-0.084735066,0.013722817,-0.084335379,-4,0,21,33,28,-8.662221909,3.774458885,1.278503656,0.006128637,-0.018119449,0.081537522,-39,-17,-14,32,178
1695162413697271200,-8.981847763,-1.736993313,-1.18991828,-0.085667685,0.013056661,-0.081803977,-5,1,20,39,27,-8.667010307,3.768473387,1.282094955,0.004796324,-0.016920367,0.08207044,-42,-18,-15,31,182
1695162413698271200,-8.981847763,-1.739387512,-1.194706678,-0.086600304,0.012656967,-0.079272583,-1,2,20,31,27,-8.667010307,3.760093689,1.284489155,0.003863706,-0.015987748,0.082736596,-43,-18,-15,32,180
1695162413699271200,-8.981847763,-1.738190413,-1.200692177,-0.08753293,0.012124043,-0.076874427,-2,1,20,31,27,-8.66940403,3.75530529,1.282094955,0.003330781,-0.015321592,0.08313629,-42,-17,-13,33,178
1695162413738265200,-9.036913872,-1.768117905,-1.26653266,-0.089797854,0.012790199,-0.021983154,-1,0,20,31,30,-8.668207169,3.672705412,1.306037068,0.006261868,-0.010258805,0.092862174,-43,-18,-13,32,178
1695162413739265200,-9.03571701,-1.771709204,-1.274912357,-0.088998467,0.013456355,-0.019185297,-1,1,20,32,27,-8.665813446,3.665522814,1.308431268,0.006261868,-0.010392036,0.09352833,-35,-18,-12,34,181
1695162413740265200,-9.034520149,-1.775300503,-1.277306557,-0.088199086,0.014122511,-0.016387442,-2,0,21,31,28,-8.664615631,3.665522814,1.309628367,0.006261868,-0.010658499,0.094061248,-40,-18,-11,33,181
1695162413741265200,-9.034520149,-1.780089021,-1.279700756,-0.08726646,0.014655436,-0.013589587,-1,0,21,34,28,-8.667010307,3.663128614,1.309628367,0.006128637,-0.010924961,0.094327718,-42,-18,-11,32,180
1695162413742265200,-9.034520149,-1.780089021,-1.285686255,-0.086333841,0.01505513,-0.011058193,-3,1,19,34,28,-8.664615631,3.659537315,1.309628367,0.006128637,-0.010924961,0.094727404,-37,-18,-14,32,182
1695162413779226000,-9.059659004,-1.8590976,-1.289277673,-0.063284837,0.02571363,0.028378254,-1,1,23,30,28,-8.683769226,3.568557739,1.322796464,0.011457887,-0.008526799,0.08726646,-43,-18,-13,32,178
1695162413780226000,-9.060855865,-1.866280198,-1.294066072,-0.061819296,0.026246555,0.029977029,-2,0,19,36,27,-8.683769226,3.558980942,1.326387763,0.011724349,-0.008660031,0.086067379,-42,-19,-15,31,178
1695162413781226000,-9.060855865,-1.871068597,-1.291671872,-0.060486984,0.027045943,0.031442571,-1,1,21,35,28,-8.682572365,3.551798105,1.323993564,0.011990812,-0.008793262,0.08513476,-39,-21,-13,34,181
1695162413782226000,-9.059659004,-1.874659896,-1.295263171,-0.058888208,0.027712099,0.032774884,-1,1,15,32,28,-8.683769226,3.548206806,1.332373261,0.012124043,-0.009192956,0.083935678,-41,-18,-9,34,183
1695162413783226000,-9.053673744,-1.880645394,-1.296460271,-0.057422664,0.028245023,0.034240428,-1,0,20,34,27,-8.683769226,3.544615507,1.332373261,0.012257273,-0.009459418,0.082869835,-35,-18,-9,35,182
1695162413817226500,-9.053673744,-1.941697598,-1.243787766,-0.036905054,0.037304748,0.049428791,-3,0,19,35,28,-8.694543839,3.514688015,1.321599364,0.021450229,-0.014122511,0.060353752,-41,-16,-7,30,182
1695162413818226500,-9.056067467,-1.942894697,-1.240196466,-0.035972435,0.037837673,0.049562022,-3,1,20,35,27,-8.6957407,3.513490915,1.316810966,0.021983154,-0.01398928,0.058754977,-43,-19,-13,32,183
1695162413819226500,-9.059659004,-1.946485996,-1.237802267,-0.035173047,0.038503829,0.04969525,-3,3,20,33,29,-8.693346024,3.512293816,1.313219666,0.022649311,-0.01385605,0.057289433,-42,-19,-16,31,178
1695162413820226500,-9.059659004,-1.951274395,-1.235408068,-0.034240428,0.039036751,0.04969525,-3,0,20,35,27,-8.6957407,3.515885115,1.309628367,0.023182238,-0.013589587,0.055823889,-40,-22,-9,32,182
1695162413821226500,-9.060855865,-1.953668594,-1.231816769,-0.033307809,0.039436448,0.049562022,-3,2,16,34,25,-8.696937561,3.517082214,1.314416766,0.023448698,-0.013589587,0.054358348,-40,-19,-12,34,174
1695162413854182200,-9.085995674,-1.959654093,-1.230619669,-0.043433387,0.03650536,0.034773353,-2,3,19,33,27,-8.686163902,3.551798105,1.283292055,0.026779478,-0.014122511,0.032908116,-42,-18,-13,32,180
1695162413855182200,-9.088389397,-1.965639591,-1.230619669,-0.044632465,0.036372125,0.033973966,-6,5,22,32,27,-8.680178642,3.549403906,1.289277673,0.027578866,-0.014122511,0.03237519,-41,-18,-15,31,178
1695162413856182200,-9.089587212,-1.966836691,-1.22822547,-0.045698319,0.036238898,0.033174578,-2,0,19,38,31,-8.682572365,3.549403906,1.290474772,0.028511487,-0.014122511,0.031975497,-44,-19,-11,34,180
1695162413857182200,-9.090784073,-1.972822189,-1.22702837,-0.046630934,0.036238898,0.03237519,-2,0,20,34,26,-8.681375504,3.548206806,1.288080573,0.029444104,-0.014122511,0.031575806,-39,-18,-13,34,181
1695162413858182200,-9.091980934,-1.977610588,-1.229422569,-0.04769678,0.036238898,0.032108728,-1,1,23,34,27,-8.677783966,3.550601006,1.282094955,0.030643184,-0.014255743,0.03130934,-43,-19,-11,34,183
1695162413910148600,-9.078812599,-2.005143881,-1.210268974,-0.044366002,0.040369064,0.021450229,-5,1,23,31,27,-8.674192429,3.572149038,1.272518158,0.055290964,-0.023981623,0.034107197,-43,-18,-15,31,182
1695162413911148600,-9.082404137,-2.005143881,-1.206677675,-0.044232771,0.03996937,0.020384381,-3,0,19,32,25,-8.677783966,3.570951939,1.278503656,0.056223582,-0.024914242,0.033840735,-41,-18,-9,33,182
1695162413912148600,-9.082404137,-2.002749681,-1.209071875,-0.044232771,0.039303213,0.019052068,-3,2,23,35,29,-8.681375504,3.570951939,1.277306557,0.056889739,-0.025980091,0.033707503,-42,-18,-16,31,178
1695162413913148600,-9.082404137,-2.001552582,-1.210268974,-0.044366002,0.038637057,0.017852986,-3,1,19,33,28,-8.684967041,3.570951939,1.280897856,0.057555895,-0.027045943,0.033441041,-41,-18,-11,36,180
1695162413914148600,-9.082404137,-2.002749681,-1.209071875,-0.044765696,0.037970904,0.016787136,-4,0,21,33,27,-8.686163902,3.572149038,1.277306557,0.05808882,-0.028245023,0.032641653,-41,-19,-13,32,178
1695162413950130500,-9.077615738,-1.996764183,-1.174355984,-0.047963247,0.023715161,0.000666156,-2,0,20,34,29,-8.683769226,3.568557739,1.26653266,0.025447167,-0.068214394,-0.002664625,-43,-18,1,32,180
1695162413951130500,-9.076418877,-1.991975784,-1.174355984,-0.04769678,0.023182238,0.000266462,-3,0,22,38,27,-8.678980827,3.56496644,1.261744261,0.025313934,-0.069280244,-0.002931087,-40,-18,-12,33,180
1695162413952130500,-9.078812599,-1.993172884,-1.171961784,-0.047563553,0.022249617,-0.000399694,-2,0,24,32,27,-8.676587105,3.561375141,1.255758762,0.025447167,-0.071145482,-0.003064318,-39,-21,-13,31,179
1695162413953130500,-9.082404137,-1.993172884,-1.173158884,-0.047430322,0.021183766,-0.000932619,-1,1,22,38,29,-8.671798706,3.555389643,1.250970364,0.026246555,-0.072611026,-0.003330781,-41,-15,-13,31,178
1695162413954130500,-9.081207275,-1.989581585,-1.180341482,-0.04729709,0.020384381,-0.001598775,-3,1,17,35,29,-8.66940403,3.552995205,1.248576164,0.027445635,-0.073277183,-0.003330781,-44,-19,-9,34,182
1695162413988121700,-9.084798813,-1.975216389,-1.230619669,-0.067415006,0.006528331,-0.014522205,-2,0,19,36,25,-8.693346024,3.590105534,1.22702837,0.095260337,-0.02571363,0.019185297,-39,-18,-13,32,180
1695162413989121700,-9.083600998,-1.977610588,-1.235408068,-0.068347625,0.005995406,-0.015321592,-2,-1,14,34,30,-8.700529099,3.599682331,1.234210968,0.096326187,-0.022249617,0.020917306,-41,-17,-11,32,181
1695162413990121700,-9.083600998,-1.981201887,-1.237802267,-0.069013782,0.005462481,-0.015721286,-2,1,21,34,30,-8.704120636,3.609259129,1.237802267,0.097258806,-0.019185297,0.022782542,-42,-18,-18,32,183
1695162413991121700,-9.082404137,-1.987187386,-1.241393566,-0.069413476,0.004929556,-0.016254211,-4,1,21,34,26,-8.711302757,3.616441727,1.241393566,0.097924963,-0.016387442,0.024514547,-39,-17,-14,34,181
1695162413992121700,-9.078812599,-1.988384485,-1.237802267,-0.069546707,0.004529862,-0.016653905,-6,2,20,34,27,-8.716091156,3.627215624,1.244984865,0.098191425,-0.01385605,0.026379786,-42,-18,-14,33,180
1695162414027081900,-9.064447403,-1.989581585,-1.30124867,-0.050627869,-0.000532925,-0.016920367,-2,3,20,30,27,-8.77834034,3.651157618,1.334767461,0.097791731,-0.006661562,0.050228179,-39,-32,-12,33,182
1695162414028081900,-9.059659004,-1.984793186,-1.303642869,-0.050094947,-0.000399694,-0.016787136,-2,0,20,34,28,-8.779537201,3.648763418,1.335964561,0.098990813,-0.007194487,0.051027562,-39,-20,-15,31,179
1695162414029081900,-9.057265282,-1.981201887,-1.308431268,-0.049961712,-0.000532925,-0.016520673,-1,0,21,35,28,-8.779537201,3.647566319,1.335964561,0.100456357,-0.007594181,0.051560488,-44,-20,-17,31,180
1695162414030081900,-9.056067467,-1.981201887,-1.30124867,-0.049828485,-0.000532925,-0.016254211,-1,0,25,35,28,-8.780735016,3.645172119,1.341950059,0.101655439,-0.008127105,0.051960181,-43,-22,-12,31,180
1695162414031081900,-9.052476883,-1.981201887,-1.296460271,-0.049828485,-0.000133231,-0.01612098,-1,1,20,34,27,-8.781931877,3.647566319,1.340752959,0.102721281,-0.008793262,0.05249311,-45,-17,-13,32,181
1695162414066062000,-9.047688484,-1.972822189,-1.310825467,-0.054225113,0.000266462,-0.019451762,-1,0,20,29,28,-8.763975143,3.694253206,1.371877551,0.109516084,-0.021183766,0.055690661,-43,-18,-13,32,181
1695162414067062000,-9.045293808,-1.972822189,-1.313219666,-0.054358348,0.0,-0.019718224,-5,0,20,34,25,-8.763975143,3.695450306,1.371877551,0.108983152,-0.021983154,0.055557426,-39,-19,-16,36,175
1695162414068062000,-9.045293808,-1.97162509,-1.313219666,-0.054358348,-0.000266462,-0.019851454,-2,1,23,34,29,-8.760383606,3.694253206,1.37427175,0.108316995,-0.022782542,0.055557426,-42,-17,-11,34,178
1695162414069062000,-9.045293808,-1.97162509,-1.314416766,-0.054358348,-0.000532925,-0.020117918,-2,0,20,38,29,-8.759186745,3.694253206,1.37546885,0.107517615,-0.02358193,0.055557426,-40,-18,-13,34,180
1695162414070062000,-9.046490669,-1.96923089,-1.309628367,-0.054624807,-0.000799387,-0.020384381,-3,0,21,34,27,-8.756793022,3.695450306,1.37427175,0.106984682,-0.024647778,0.055690661,-43,-17,-12,31,183
1695162414562855700,-9.050082207,-1.853112102,-1.230619669,-0.066082694,0.017320061,-0.015987748,-3,1,18,35,27,-8.672995567,3.706224203,1.192312479,0.067681469,-0.043699846,0.027578866,-40,-18,-9,33,180
1695162414563855700,-9.047688484,-1.851915002,-1.230619669,-0.066615619,0.016520673,-0.015454824,-1,1,22,32,26,-8.675390244,3.707421303,1.18752408,0.0678147,-0.043033689,0.027578866,-38,-18,-13,34,178
1695162414564855700,-9.047688484,-1.851915002,-1.235408068,-0.067148544,0.015854517,-0.014921899,-1,0,21,34,27,-8.677783966,3.712209702,1.185129881,0.067947932,-0.042367533,0.027712099,-41,-18,-11,37,181
1695162414565855700,-9.048885345,-1.850717902,-1.236605167,-0.067415006,0.015321592,-0.014255743,-2,0,24,36,27,-8.675390244,3.711012602,1.185129881,0.068081163,-0.041568145,0.027712099,-40,-18,-13,34,181
1695162414566855700,-9.050082207,-1.847126603,-1.237802267,-0.0678147,0.014655436,-0.013456355,-2,2,22,32,30,-8.676587105,3.712209702,1.185129881,0.068347625,-0.041168455,0.027712099,-43,-19,-15,33,179
1695162414612830600,-9.046490669,-1.849520802,-1.22702837,-0.069679938,0.008793262,0.007727412,-1,0,24,34,28,-8.66940403,3.728969097,1.205480576,0.066482387,-0.028777948,0.028911179,-39,-18,-12,32,181
1695162414613830600,-9.044096947,-1.849520802,-1.22702837,-0.069946401,0.007727412,0.009059724,-4,2,22,35,27,-8.664615631,3.726574898,1.205480576,0.065816231,-0.02797856,0.028644716,-40,-18,-12,33,180
1695162414614830600,-9.045293808,-1.854309201,-1.22822547,-0.070745789,0.006928025,0.010258805,-1,1,20,34,29,-8.66341877,3.727771997,1.206677675,0.065150075,-0.027312404,0.028245023,-39,-19,-13,31,178
1695162414615830600,-9.044096947,-1.854309201,-1.229422569,-0.071012251,0.006128637,0.011058193,-2,0,20,34,28,-8.66341877,3.727771997,1.209071875,0.064350687,-0.026646247,0.027845331,-42,-18,-15,31,178
1695162414616830600,-9.045293808,-1.855506301,-1.235408068,-0.071678407,0.004929556,0.012124043,-4,0,17,33,26,-8.66341877,3.730166197,1.209071875,0.063418068,-0.025846859,0.027312404,-43,-18,-15,35,177
1695162414660805300,-9.033323288,-1.939303398,-1.277306557,-0.062485453,-0.004796324,0.039036751,-4,1,22,34,28,-8.634688377,3.687070608,1.200692177,0.044499233,-0.018519141,0.021183766,-44,-18,-13,35,183
1695162414661805300,-9.032125473,-1.941697598,-1.279700756,-0.060486984,-0.004396631,0.040369064,-1,9,20,38,28,-8.635885239,3.689464808,1.197100878,0.044366002,-0.018519141,0.021183766,-39,-19,-12,34,181
1695162414662805300,-9.030928612,-1.947683096,-1.284489155,-0.058754977,-0.003863706,0.041701376,-3,0,20,31,29,-8.634688377,3.691859007,1.18991828,0.044232771,-0.018652374,0.021183766,-41,-17,-11,34,180
1695162414663805300,-9.034520149,-1.951274395,-1.288080573,-0.056756508,-0.003597243,0.04276723,-2,0,24,35,27,-8.639476776,3.695450306,1.18872118,0.044366002,-0.018785605,0.021050537,-37,-16,-12,32,179
1695162414664805300,-9.033323288,-1.954865694,-1.286883354,-0.05489127,-0.003464012,0.043699846,-2,0,21,38,28,-8.643068314,3.700238705,1.18991828,0.044499233,-0.018918836,0.021050537,-41,-18,-13,32,180
1695162414696807000,-9.024943352,-1.984793186,-1.328781962,-0.060620211,-0.013722817,0.038637057,-2,3,21,36,24,-8.655038834,3.702632904,1.149216771,0.051826954,-0.018785605,0.031575806,-42,-17,-9,33,181
1695162414697807000,-9.021351814,-1.989581585,-1.332373261,-0.061019909,-0.01385605,0.037704438,-2,5,20,35,26,-8.659827232,3.701435804,1.148019671,0.052093416,-0.01825268,0.032508422,-41,-18,-14,34,181
1695162414698807000,-9.02374649,-1.997961283,-1.33955586,-0.061419602,-0.01385605,0.036638591,0,0,20,32,20,-8.659827232,3.699041605,1.148019671,0.05249311,-0.017719755,0.033574272,-43,-19,-11,33,181
1695162414699807000,-9.027337074,-2.000355482,-1.343147159,-0.061419602,-0.01398928,0.035572741,-3,1,19,34,31,-8.661025047,3.697844505,1.15161097,0.052626338,-0.017053599,0.034773353,-39,-17,-12,33,180
1695162414700807000,-9.028534889,-2.003946781,-1.346738458,-0.061552834,-0.01385605,0.034506891,-2,1,20,34,27,-8.66341877,3.697844505,1.146822572,0.053026035,-0.016387442,0.035839204,-37,-18,-8,31,178
1695162414751753600,-9.047688484,-1.987187386,-1.418564558,-0.065683,-0.002531394,0.003996937,-1,3,19,31,28,-8.706514359,3.651157618,1.15520227,0.061686065,-0.009326187,0.055424199,-41,-17,-15,31,180
1695162414752753600,-9.047688484,-1.982398987,-1.418564558,-0.066882081,-0.001332312,0.0021317,-1,0,22,30,28,-8.711302757,3.645172119,1.157596469,0.062485453,-0.009592649,0.056090351,-41,-18,-11,35,180
1695162414753753600,-9.045293808,-1.980004787,-1.417367458,-0.068214394,-0.000133231,0.000266462,-1,1,17,32,28,-8.710105896,3.64038372,1.158793569,0.063418068,-0.009859112,0.056756508,-42,-16,-13,37,180
1695162414754753600,-9.040505409,-1.980004787,-1.414973259,-0.069546707,0.00106585,-0.001332312,-8,0,23,32,24,-8.708909035,3.635595322,1.167173386,0.064217456,-0.009992342,0.057289433,-37,-16,-9,31,178
1695162414755753600,-9.040505409,-1.978807688,-1.41257906,-0.071012251,0.0021317,-0.002797856,-3,0,20,29,25,-8.708909035,3.634398222,1.169567585,0.064883612,-0.010258805,0.05768913,-39,-19,-13,32,181
1695162414788730900,-9.038111687,-1.958456993,-1.386242747,-0.064084224,0.017852986,-0.011724349,-6,0,16,35,25,-8.725667953,3.579331636,1.210268974,0.076341502,-0.011591119,0.057555895,-41,-17,-10,33,179
1695162414789730900,-9.040505409,-1.956062794,-1.389834046,-0.062352221,0.017986218,-0.011457887,-6,-1,21,29,25,-8.731653214,3.575740337,1.211466074,0.076607957,-0.011724349,0.057022974,-43,-17,-12,35,172
1695162414790730900,-9.042900085,-1.952471495,-1.391031146,-0.060886677,0.01825268,-0.011191424,-7,-1,19,32,25,-8.730456352,3.572149038,1.210268974,0.077007659,-0.01185758,0.056623276,-42,-17,-12,34,182
1695162414791730900,-9.041702271,-1.946485996,-1.394622445,-0.059687596,0.018385911,-0.01079173,-5,0,20,31,27,-8.730456352,3.56736064,1.216254473,0.077407345,-0.012257273,0.055823889,-39,-18,-11,34,181
1695162414792730900,-9.045293808,-1.941697598,-1.397016644,-0.058355279,0.018519141,-0.010392036,-10,-3,15,32,23,-8.72806263,3.562572241,1.221042871,0.07794027,-0.012523737,0.055290964,-38,-18,-13,32,178
1695162414827707600,-9.056067467,-1.926135302,-1.37546885,-0.042500768,0.032241959,0.007727412,-4,1,15,29,23,-8.723274231,3.542221308,1.230619669,0.090197548,-0.025447167,0.039169986,-43,-19,-14,32,180
1695162414828707600,-9.060855865,-1.929726601,-1.37427175,-0.040635526,0.033041347,0.008660031,-1,0,19,30,24,-8.722076416,3.541024208,1.22583127,0.090730481,-0.025846859,0.037970904,-41,-18,-12,32,181
1695162414829707600,-9.06205368,-1.934514999,-1.371877551,-0.038770292,0.034107197,0.009592649,-12,-3,17,29,25,-8.720879555,3.538630009,1.224634171,0.091263399,-0.026379786,0.037038282,-39,-17,-14,36,183
1695162414830707600,-9.06803894,-1.935712099,-1.371877551,-0.03650536,0.034906585,0.010658499,-7,0,21,35,24,-8.717288017,3.541024208,1.22702837,0.091663092,-0.026779478,0.035972435,-38,-18,-9,32,180
1695162414831707600,-9.069235802,-1.939303398,-1.37427175,-0.034240428,0.035972435,0.011591119,-4,0,20,32,25,-8.716091156,3.542221308,1.22822547,0.091929555,-0.027312404,0.034906585,-39,-18,-14,31,181
1695162414868707700,-9.087192535,-1.924938202,-1.323993564,0.00319755,0.046897396,0.019851454,-5,0,17,32,24,-8.70771122,3.570951939,1.229422569,0.085667685,-0.024647778,0.008526799,-43,-18,-11,33,181
1695162414869707700,-9.089587212,-1.926135302,-1.319205165,0.003996937,0.04729709,0.019718224,-3,0,19,31,24,-8.702922821,3.575740337,1.22702837,0.084868304,-0.023981623,0.007061256,-38,-19,-16,32,174
1695162414870707700,-9.084798813,-1.927332401,-1.312022567,0.004929556,0.04769678,0.019584993,-4,0,19,29,25,-8.699332237,3.581725836,1.22583127,0.084202148,-0.02358193,0.005462481,-39,-19,-12,32,178
1695162414871707700,-9.087192535,-1.926135302,-1.308431268,0.005728943,0.048229709,0.019451762,-4,-1,16,31,28,-8.70172596,3.585317135,1.224634171,0.083535992,-0.023315467,0.003996937,-41,-18,-13,32,180
1695162414872707700,-9.085995674,-1.926135302,-1.303642869,0.006528331,0.048762634,0.019318528,-6,-3,19,32,24,-8.702922821,3.586514235,1.223437071,0.082869835,-0.023049004,0.002531394,-42,-19,-15,36,182
1695162414912683900,-9.089587212,-1.928529501,-1.201889277,0.027845331,0.054624807,0.014388974,-8,0,19,28,25,-8.678980827,3.657143116,1.211466074,0.080338441,-0.024114855,-0.011724349,-44,-20,-13,33,179
1695162414913683900,-9.09437561,-1.924938202,-1.192312479,0.028911179,0.054091886,0.01398928,-5,0,17,32,20,-8.677783966,3.663128614,1.213860273,0.080471672,-0.024248086,-0.012124043,-40,-17,-11,33,181
1695162414914683900,-9.09437561,-1.926135302,-1.193509579,0.029977029,0.053425729,0.013456355,-7,-2,19,32,25,-8.675390244,3.670311213,1.212663174,0.080471672,-0.024114855,-0.012257273,-39,-18,-12,32,179
1695162414915683900,-9.091980934,-1.924938202,-1.18991828,0.030909648,0.052626338,0.013189893,-4,0,19,31,27,-8.674192429,3.676296711,1.211466074,0.080471672,-0.023981623,-0.012390506,-42,-18,-11,36,181
1695162414916683900,-9.09437561,-1.921346903,-1.18872118,0.031575806,0.051826954,0.012790199,-6,-2,17,32,24,-8.675390244,3.67988801,1.213860273,0.08020521,-0.023715161,-0.012790199,-43,-18,-11,34,181
1695162414945663900,-9.080010414,-1.875856996,-1.113303781,0.037970904,0.027712099,0.011058193,-2,-2,15,30,26,-8.653841972,3.760093689,1.191115379,0.07301072,-0.022915773,-0.005595712,-44,-19,-7,32,180
1695162414946663900,-9.076418877,-1.875856996,-1.109712481,0.038503829,0.026246555,0.011324655,-6,0,22,30,25,-8.653841972,3.766079187,1.186326981,0.073543645,-0.022516079,-0.004929556,-43,-18,-13,32,181
1695162414947663900,-9.0740242,-1.875856996,-1.107318282,0.038637057,0.024914242,0.011457887,-5,-1,12,34,25,-8.658630371,3.766079187,1.18991828,0.074076563,-0.022116385,-0.0042634,-42,-19,-12,34,178
1695162414948663900,-9.077615738,-1.872265697,-1.110909581,0.039036751,0.023448698,0.011457887,-6,0,16,33,25,-8.664615631,3.768473387,1.193509579,0.074609496,-0.021849923,-0.003996937,-39,-22,-11,32,182
1695162414949663900,-9.076418877,-1.868674397,-1.118092179,0.039303213,0.021983154,0.011724349,-4,0,21,31,28,-8.665813446,3.776853085,1.18991828,0.07500919,-0.02158346,-0.003730475,-42,-18,-13,32,180
1695162414983618600,-9.070432663,-1.832761407,-1.132457376,0.031442571,-0.003996937,0.01292343,-5,0,17,32,29,-8.705317497,3.846285105,1.173158884,0.061019909,-0.020117918,0.006261868,-41,-17,-11,33,182
1695162414984618600,-9.070432663,-1.832761407,-1.138442874,0.030643184,-0.005462481,0.012790199,-5,0,13,34,23,-8.705317497,3.849876404,1.175553083,0.059554365,-0.019052068,0.006794794,-42,-18,-9,34,181
1695162414985618600,-9.072827339,-1.832761407,-1.136048675,0.029977029,-0.006528331,0.012790199,-5,-1,20,35,24,-8.704120636,3.857059002,1.180341482,0.057955589,-0.017719755,0.007460949,-41,-18,-13,33,182
1695162414986618600,-9.070432663,-1.833958507,-1.140837073,0.029444104,-0.007860643,0.01292343,-4,-2,17,29,24,-8.705317497,3.859453201,1.183932781,0.056623276,-0.016254211,0.007993874,-41,-18,-13,32,179
1695162414987618600,-9.072827339,-1.836352706,-1.145625472,0.028777948,-0.009192956,0.013056661,-5,0,16,32,27,-8.70771122,3.860650301,1.18872118,0.055024505,-0.014655436,0.008660031,-42,-18,-12,33,182
1695162415016602000,-9.052476883,-1.829170108,-1.222239971,0.030509954,-0.025313934,0.015721286,-2,0,19,35,26,-8.68975544,3.846285105,1.209071875,0.033574272,-0.016920367,0.037837673,-39,-18,-11,34,181
1695162415017602000,-9.047688484,-1.827973008,-1.230619669,0.030509954,-0.025580399,0.015721286,-6,0,17,31,21,-8.687360764,3.842693806,1.206677675,0.033840735,-0.018385911,0.03996937,-43,-16,-11,33,179
1695162415018602000,-9.045293808,-1.824381709,-1.236605167,0.030509954,-0.025846859,0.015721286,-3,0,18,31,25,-8.684967041,3.835511208,1.207874775,0.034107197,-0.019984685,0.042234302,-41,-17,-15,36,180
1695162415019602000,-9.042900085,-1.825578809,-1.240196466,0.030376723,-0.026113322,0.015721286,-2,0,20,35,27,-8.682572365,3.834314108,1.205480576,0.034906585,-0.02158346,0.044499233,-43,-17,-11,32,180
1695162415020602000,-9.044096947,-1.82079041,-1.246181965,0.03011026,-0.026379786,0.015854517,-2,1,14,34,27,-8.683769226,3.82713151,1.199495077,0.035839204,-0.023315467,0.046764165,-39,-18,-9,33,181
1695162415055579000,-9.045293808,-1.823184609,-1.37427175,-0.094993874,0.01505513,-0.010258805,-4,0,19,30,24,-8.66341877,3.786429882,1.138442874,0.048229709,-0.033707503,0.07820674,-41,-19,-13,33,173
1695162415056579000,-9.045293808,-1.824381709,-1.37427175,-0.093794793,0.015854517,-0.009592649,-7,-2,15,29,25,-8.662221909,3.784035683,1.133654475,0.046897396,-0.032908116,0.079006128,-43,-21,-15,34,181
1695162415057579000,-9.045293808,-1.826775908,-1.37427175,-0.09272895,0.016653905,-0.008926493,-6,-1,15,31,24,-8.65743351,3.782838583,1.130063176,0.045431852,-0.031975497,0.080071971,-42,-18,-12,33,181
1695162415058579000,-9.045293808,-1.827973008,-1.37786305,-0.091529861,0.017719755,-0.008393568,-4,0,20,32,24,-8.662221909,3.781641483,1.126471877,0.043833077,-0.030909648,0.081004597,-41,-21,-15,31,178
1695162415059579000,-9.047688484,-1.830367208,-1.37786305,-0.09033078,0.018652374,-0.007727412,-7,0,19,29,21,-8.664615631,3.780444384,1.124077678,0.04276723,-0.030243492,0.081803977,-39,-18,-14,32,178
1695162415094555500,-9.108740807,-1.928529501,-1.150413871,0.02358193,-0.004796324,0.000932619,-3,0,20,34,28,-8.667010307,3.633201122,1.170764685,0.081271052,-0.046764165,0.025980091,-38,-17,-7,33,182
1695162415095555500,-9.107542992,-1.927332401,-1.150413871,0.024647778,-0.004396631,0.000666156,-3,6,23,30,28,-8.662221909,3.633201122,1.173158884,0.08207044,-0.047030624,0.025047474,-39,-17,-12,34,182
1695162415096555500,-9.108740807,-1.929726601,-1.150413871,0.025180703,-0.004130168,0.000266462,-3,2,21,35,27,-8.658630371,3.633201122,1.168370485,0.082736596,-0.047163859,0.024114855,-38,-18,-11,33,182
1695162415097555500,-9.111134529,-1.9321208,-1.150413871,0.026246555,-0.003597243,-0.000266462,-1,4,23,31,27,-8.658630371,3.634398222,1.167173386,0.083402753,-0.04729709,0.023315467,-35,-18,-11,32,182
1695162415098555500,-9.109937668,-1.935712099,-1.148019671,0.02691271,-0.00319755,-0.000932619,-3,0,23,34,29,-8.656236649,3.636792421,1.169567585,0.083802447,-0.047163859,0.022516079,-33,-18,-12,34,182
1695162415139529300,-9.059659004,-1.835155606,-1.237802267,-0.042234302,0.008127105,-0.011724349,-1,3,21,33,25,-8.710105896,3.669114113,1.219845772,0.049029093,-0.013589587,0.031842265,-23,-16,-12,34,181
1695162415140529300,-9.056067467,-1.835155606,-1.234210968,-0.042900458,0.007327718,-0.011591119,-1,2,23,32,28,-8.712499619,3.669114113,1.221042871,0.048362937,-0.013589587,0.031176111,-25,-17,-9,36,182
1695162415141529300,-9.054870605,-1.838746905,-1.229422569,-0.043566614,0.006794794,-0.01185758,-3,2,22,34,26,-8.711302757,3.669114113,1.223437071,0.047830015,-0.013722817,0.030776417,-26,-17,-7,34,180
1695162415142529300,-9.057265282,-1.837549806,-1.230619669,-0.044232771,0.006261868,-0.011990812,-1,1,24,32,29,-8.710105896,3.667917013,1.22822547,0.047430322,-0.013722817,0.03011026,-24,-18,-16,31,181
1695162415143529300,-9.056067467,-1.839944005,-1.233013868,-0.044632465,0.006128637,-0.012257273,-2,2,23,35,27,-8.710105896,3.667917013,1.236605167,0.047030624,-0.014122511,0.029444104,-23,-18,-13,31,180
1695162415178513100,-9.069235802,-1.843535304,-1.254561663,-0.038237367,0.030776417,-0.003996937,-4,7,26,34,32,-8.690952301,3.598485231,1.246181965,0.06461715,-0.031442571,0.001598775,-24,-18,-13,36,181
1695162415179513100,-9.072827339,-1.844732404,-1.252167463,-0.038637057,0.030509954,-0.003597243,-2,1,25,34,27,-8.690952301,3.60327363,1.246181965,0.064350687,-0.030909648,0.000799387,-29,-18,-13,33,182
1695162415180513100,-9.076418877,-1.844732404,-1.252167463,-0.038903523,0.030509954,-0.00319755,-2,0,25,31,27,-8.690952301,3.611653328,1.247379065,0.064084224,-0.029977029,0.000266462,-25,-18,-12,38,181
1695162415181513100,-9.075222015,-1.849520802,-1.252167463,-0.038903523,0.030376723,-0.002797856,-1,2,21,32,27,-8.693346024,3.620033026,1.248576164,0.063684531,-0.029310873,-0.000266462,-25,-18,-13,34,172
1695162415182513100,-9.076418877,-1.853112102,-1.253364563,-0.039036751,0.030376723,-0.002797856,-5,0,25,34,29,-8.693346024,3.623624325,1.246181965,0.063418068,-0.028911179,-0.000799387,-25,-17,-9,33,180
1695162415221484000,-9.065644264,-1.914164305,-1.212663174,-0.005329249,0.033041347,0.029977029,-13,-7,10,24,19,-7.366958618,10.48540592,3.608062029,-0.32615009,-1.626353741,3.838791609,-38,-28,-14,46,172
1695162415222484000,-9.070432663,-1.916558504,-1.206677675,-0.001998469,0.033441041,0.03237519,-12,-7,9,27,16,-7.297526836,10.46984386,3.60327363,-0.326816231,-1.633281827,3.847185135,-37,-29,-13,48,170
1695162415223484000,-9.0740242,-1.922544003,-1.204283476,0.001332312,0.033973966,0.03437366,-14,-6,11,26,16,-7.225700855,10.44231033,3.617638826,-0.326549739,-1.639810085,3.855578899,-37,-31,-12,48,172
1695162415224484000,-9.080010414,-1.9309237,-1.201889277,0.004130168,0.034240428,0.036238898,-14,-7,11,26,15,-7.146692276,10.42076302,3.64158082,-0.324950993,-1.645539045,3.863972425,-39,-29,-13,48,173
1695162415225484000,-9.089587212,-1.940500498,-1.203086376,0.006794794,0.034773353,0.037970904,-11,-7,8,24,16,-7.072471619,10.41477776,3.669114113,-0.324151605,-1.650468588,3.87169981,-37,-32,-14,48,171
1695162415271453000,-9.178172112,-2.11527729,-1.218648672,0.045032158,0.009592649,0.002797856,-6,-3,14,29,23,-5.451597214,10.31900978,4.084507942,-0.54544872,-1.647271037,3.870900393,-37,-30,-3,50,173
1695162415272453000,-9.180566788,-2.120065689,-1.221042871,0.043433387,0.010258805,0.000133231,-4,0,17,31,23,-5.371391296,10.30703831,4.080916882,-0.559171498,-1.646871328,3.867170095,-38,-30,-5,49,172
1695162415273453000,-9.184157372,-2.123656988,-1.222239971,0.041967839,0.010658499,-0.002664625,-7,0,16,34,25,-5.294776917,10.28429317,4.090493679,-0.571828485,-1.648070455,3.862906694,-37,-31,-3,51,172
1695162415274453000,-9.186552048,-2.128445387,-1.221042871,0.040635526,0.011058193,-0.005728943,-6,0,17,32,26,-5.216965675,10.26154804,4.100070477,-0.583153129,-1.649402738,3.8577106,-38,-31,-2,53,174
1695162415275453000,-9.190143585,-2.132036686,-1.217451572,0.039303213,0.011457887,-0.008926493,-10,0,21,31,16,-5.137956619,10.24478912,4.113238335,-0.592079639,-1.649802446,3.851715326,-34,-27,-3,53,172
1695162415306433500,-9.206902504,-2.026691675,-1.159990668,-0.011191424,0.008393568,-0.109782539,-1,-1,15,29,24,-3.199850559,9.759963036,4.529829502,-0.68307656,-1.577457786,3.758453131,-35,-31,0,73,183
1695162415307433500,-9.208099365,-2.014720678,-1.150413871,-0.015854517,0.007860643,-0.114978559,-4,0,15,32,23,-3.087323189,9.822212219,4.596867085,-0.698398173,-1.577457786,3.737935543,-35,-30,-2,76,182
1695162415308433500,-9.204508781,-2.003946781,-1.149216771,-0.020650841,0.007194487,-0.119908117,-2,-1,12,30,21,-2.953247786,9.798270226,4.649539471,-0.721580386,-1.578656912,3.712488651,-38,-29,1,77,183
1695162415309433500,-9.200917244,-1.990778685,-1.146822572,-0.02571363,0.006661562,-0.124837674,-4,0,15,30,24,-2.774879694,9.743204117,4.710591793,-0.747027516,-1.578257322,3.688373804,-34,-29,1,79,185
1695162415310433500,-9.199720383,-1.975216389,-1.140837073,-0.03237519,0.005595712,-0.131366,-5,0,15,30,23,-2.592920542,9.689333916,4.771644115,-0.77340734,-1.574260235,3.664791584,-35,-28,0,78,191
1695162415340416800,-9.042900085,-1.738190413,-1.096544385,-0.09352833,-0.010525269,-0.175199077,-4,0,16,31,24,-0.038307227,7.404068947,3.775655985,-1.0658499,-0.653632462,3.224595547,-42,-26,57,101,241
1695162415341416800,-9.030928612,-1.722628117,-1.100135684,-0.095793262,-0.011457887,-0.175199077,-4,0,20,30,23,0.007182605,7.311892033,3.742137194,-1.080372095,-0.608067393,3.189422846,-43,-28,62,102,244
1695162415342416800,-9.020154953,-1.705868721,-1.100135684,-0.098191425,-0.012656967,-0.17506586,-4,0,14,31,25,0.038307227,7.21253252,3.699041605,-1.094361424,-0.566366017,3.150785685,-41,-27,62,105,246
1695162415343416800,-9.010578156,-1.690306425,-1.101332784,-0.100589581,-0.014122511,-0.17453292,-7,0,17,28,23,0.067037649,7.098807812,3.655946016,-1.11101532,-0.527995408,3.108018398,-43,-27,69,108,247
1695162415344416800,-9.004592896,-1.677138329,-1.104924083,-0.102987751,-0.015721286,-0.173733547,-4,-1,17,31,24,0.093373865,6.973112583,3.600879431,-1.12966764,-0.496552825,3.06205368,-42,-28,73,106,248
1695162415384390600,-8.799888611,-1.502361536,-1.169567585,-0.117643185,-0.038104136,-0.105519146,-6,0,15,31,25,1.543063045,4.691438198,3.49673152,-1.494588137,-0.543983161,1.976085782,-39,-21,114,126,269
1695162415385390600,-8.792705536,-1.499967337,-1.181538582,-0.115511484,-0.038237367,-0.099390499,-7,-2,20,31,20,1.641225219,4.565742493,3.573346138,-1.511508346,-0.538920343,1.914932609,-37,-20,117,127,269
1695162415386390600,-8.787917137,-1.499967337,-1.183932781,-0.113113321,-0.037970904,-0.093128636,-5,0,17,31,21,1.740584612,4.444835663,3.635595322,-1.52922821,-0.530393541,1.847384334,-34,-18,119,127,270
1695162415387390600,-8.783128738,-1.498770237,-1.194706678,-0.110848397,-0.037704438,-0.086733535,-6,0,15,31,23,1.839944005,4.284423828,3.673902512,-1.546947956,-0.518402755,1.77477324,-40,-20,120,127,268
1695162415388390600,-8.780735016,-1.497573137,-1.199495077,-0.108450226,-0.037304748,-0.08020521,-2,0,13,32,24,1.918952703,4.103661537,3.67869091,-1.560937166,-0.504413486,1.700829983,-33,-18,123,127,269
1695162415423379400,-8.829815865,-1.552639842,-1.320402265,-0.094860643,-0.032908116,0.022915773,-5,1,15,30,24,3.8654387,1.715445518,3.542221308,-1.122073531,-0.088598773,0.116710559,-21,-9,131,130,267
1695162415424379400,-8.83699894,-1.55862534,-1.329979062,-0.096725874,-0.032774884,0.026246555,-12,-2,15,29,21,3.987542868,1.63643682,3.561375141,-1.085301638,-0.043833077,0.030376723,-23,-8,131,127,264
1695162415425379400,-8.84896946,-1.565807939,-1.333570361,-0.098591112,-0.032508422,0.029444104,-4,0,15,29,24,4.098873138,1.549048543,3.585317135,-1.046664596,0.00106585,-0.051027562,-19,-7,130,130,266
1695162415426379400,-8.858546257,-1.572990537,-1.343147159,-0.100856051,-0.032641653,0.032241959,-6,2,15,29,25,4.195838451,1.460463047,3.60566783,-1.005762577,0.044765696,-0.127102599,-19,-8,131,130,264
1695162415427379400,-8.866926193,-1.576581836,-1.351526856,-0.103653908,-0.032641653,0.035039816,-6,0,12,30,20,4.27724123,1.370680451,3.615244627,-0.962462485,0.086999997,-0.197715163,-19,-8,129,130,263
1695162415462368500,-8.960299492,-1.778891921,-1.531091928,-0.176531389,-0.003730475,0.037970904,-4,0,17,34,23,5.24449873,1.762132406,4.708197594,-0.033840735,0.332678407,-0.587949455,-24,-3,141,132,260
1695162415463368500,-8.962694168,-1.789665818,-1.543063045,-0.180261865,0.0,0.036372125,-7,0,19,34,25,5.292382717,1.889025092,4.79678297,-0.027179174,0.335076571,-0.591413498,-26,-4,139,134,258
1695162415464368500,-8.963891029,-1.800439715,-1.552639842,-0.183992341,0.003730475,0.034640122,-3,0,16,32,27,5.325901508,2.00993228,4.879383087,-0.027312404,0.338274121,-0.596209764,-25,-3,139,134,259
1695162415465368500,-8.971074104,-1.813607812,-1.563413739,-0.187589586,0.007727412,0.032641653,-7,-2,17,32,25,5.3570261,2.11647439,4.948814869,-0.03437366,0.340672255,-0.601805508,-26,-2,141,133,256
1695162415466368500,-8.975862503,-1.82198751,-1.569399238,-0.190920368,0.011591119,0.030776417,-5,-2,20,34,29,5.386953831,2.213439465,5.009867191,-0.048096478,0.342670739,-0.609133244,-25,-3,141,132,256
1695162415503321500,-9.026140213,-1.936909199,-1.529894829,-0.221297085,0.075542115,0.000133231,-8,-1,16,34,25,6.10042572,2.197877169,5.935225964,-0.362522215,0.146554366,-0.925957143,-15,7,156,143,264
1695162415504321500,-9.02973175,-1.938106298,-1.520318031,-0.221963242,0.07794027,-0.000666156,-1,-1,16,32,25,6.222530365,2.201468468,6.045359135,-0.367185295,0.130433381,-0.953003049,-17,8,155,140,264
1695162415505321500,-9.034520149,-1.940500498,-1.515529633,-0.222496167,0.08020521,-0.001332312,-4,0,13,33,23,6.311115742,2.201468468,6.124367714,-0.371981621,0.120174579,-0.973787129,-17,11,156,140,264
1695162415506321500,-9.03571701,-1.942894697,-1.513135433,-0.223029092,0.082470134,-0.001865237,-8,-1,15,30,27,6.39491272,2.196680069,6.202179432,-0.377444088,0.111514546,-0.995503783,-17,9,155,143,264
1695162415507321500,-9.033323288,-1.944091797,-1.507149935,-0.223562017,0.084468603,-0.002398162,-2,0,17,31,25,6.4715271,2.183511972,6.275202751,-0.383039832,0.103653908,-1.018153071,-18,9,156,143,264
1695162415539302900,-9.016563416,-2.023100376,-1.344344258,-0.229290962,0.10258805,0.006528331,-10,0,19,32,27,7.382521152,1.607706428,7.454347134,-0.389701396,0.078339972,-1.725877523,-18,8,157,144,254
1695162415540302900,-9.014169693,-2.030282974,-1.333570361,-0.228225112,0.10285452,0.007860643,-6,0,15,30,24,7.377732754,1.576581836,7.479485989,-0.390367538,0.077807046,-1.774373651,-18,9,158,145,257
1695162415541302900,-9.011775017,-2.041056871,-1.331176162,-0.226892799,0.10285452,0.009059724,-6,-1,14,30,24,7.369352818,1.528697729,7.490260124,-0.388901979,0.076075032,-1.839124084,-15,9,152,142,255
1695162415542302900,-9.006986618,-2.04704237,-1.320402265,-0.225160792,0.10258805,0.010525269,-4,0,21,29,23,7.362170219,1.484405041,7.491456985,-0.385304749,0.073810108,-1.887087345,-15,11,158,144,253
1695162415543302900,-9.008183479,-2.056619167,-1.312022567,-0.223162323,0.10258805,0.011990812,-6,1,17,29,24,7.352593422,1.435323954,7.491456985,-0.37917611,0.071411945,-1.934384346,-17,11,156,144,256
1695162415578280000,-9.063250542,-2.26850605,-1.255758762,-0.120041348,0.094460949,0.049562022,-5,0,17,31,25,3.512293816,2.834734917,6.50384903,0.605136335,0.371315449,-2.598941803,-15,12,156,143,256
1695162415579280000,-9.065644264,-2.278082848,-1.253364563,-0.110981621,0.094061248,0.051826954,-3,0,18,33,24,3.060986757,3.34230566,6.494272232,0.662159264,0.390101075,-2.613064289,-20,9,158,144,258
1695162415580280000,-9.065644264,-2.285265446,-1.248576164,-0.101255737,0.093794793,0.054225113,-8,0,17,34,24,2.557007313,3.920505285,6.517016888,0.700529873,0.404356807,-2.624788761,-17,12,155,143,258
1695162415581280000,-9.069235802,-2.294842243,-1.244984865,-0.091396637,0.093794793,0.056623276,-3,-1,15,30,25,2.017114878,4.568136692,6.558915615,0.719315469,0.415947944,-2.634248257,-12,11,155,142,257
1695162415582280000,-9.069235802,-2.309207439,-1.240196466,-0.081137821,0.093794793,0.059021436,-5,0,19,35,20,1.432929754,5.32111311,6.604405403,0.712787151,0.422875971,-2.642908096,-18,10,155,144,256
1695162415613260400,-9.064447403,-2.434903145,-1.136048675,0.112313934,0.097525269,0.093261868,-2,0,15,31,27,-5.554547787,11.97340298,6.803123951,-0.677480876,-0.319488525,-2.002598763,-19,14,142,140,254
1695162415614260400,-9.070432663,-2.439691544,-1.127668977,0.120174579,0.096992344,0.09352833,-4,-1,13,31,23,-5.650316238,12.07156467,6.833051682,-0.670952559,-0.367052078,-1.918263316,-18,14,142,139,253
1695162415615260400,-9.077615738,-2.443282843,-1.11450088,0.127768755,0.096459419,0.09352833,-4,-1,15,30,25,-5.700594425,12.18528938,6.897695065,-0.649235845,-0.421543658,-1.800620198,-19,14,142,137,248
1695162415616260400,-9.088389397,-2.446874142,-1.106121182,0.134830013,0.096059717,0.093128636,-4,1,13,35,23,-5.698200226,12.2607069,6.949170589,-0.625254214,-0.453785598,-1.708157778,-19,15,142,137,252
1695162415617260400,-9.10036087,-2.448071241,-1.092953086,0.141358346,0.095127106,0.092329249,-7,1,16,30,27,-5.665878296,12.33013916,6.998251438,-0.595277131,-0.477900445,-1.61276412,-19,16,140,138,254
1695162415648239400,-9.378087997,-2.275688648,-0.969651699,0.087799385,0.038104136,-0.010658499,-7,0,13,30,27,-1.509544134,10.22683239,6.665457726,0.433800906,-0.251140893,-0.055424199,-18,11,141,136,253
1695162415649239400,-9.392453194,-2.248155355,-0.970848799,0.071545176,0.032108728,-0.022249617,-4,-1,19,29,23,-1.274912357,10.05923843,6.630741596,0.474569678,-0.236885145,-0.009592649,-20,11,141,138,253
1695162415650239400,-9.409213066,-2.218227863,-0.970848799,0.053558957,0.02571363,-0.034240428,-6,-1,16,30,23,-1.046266198,9.904812813,6.600813866,0.510941803,-0.224627867,0.032774884,-18,9,142,137,247
1695162415651239400,-9.424775124,-2.19189167,-0.972045898,0.034107197,0.019185297,-0.046897396,-5,0,19,32,25,-0.828393817,9.761159897,6.569689274,0.542117953,-0.21450229,0.071411945,-15,11,142,137,253
1695162415652239400,-9.436745644,-2.161964178,-0.975637197,0.013323124,0.012390506,-0.060353752,-5,-2,20,30,24,-0.615309834,9.62469101,6.537367821,0.567964792,-0.206508413,0.106584989,-14,15,143,140,253
1695162415686218200,-9.390059471,-1.795651317,-1.219845772,-0.4264732,-0.103920363,-0.260733545,-5,0,15,30,25,1.941697598,7.433996201,6.435614109,0.233687595,-0.20411025,0.263531387,-13,12,143,138,252
1695162415687218200,-9.36252594,-1.790862918,-1.240196466,-0.440062791,-0.106451757,-0.263664633,-6,-1,17,32,24,1.995567083,7.317877293,6.421248913,0.212637067,-0.198114842,0.255137831,-12,13,143,136,252
1695162415688218200,-9.33618927,-1.788468719,-1.258152962,-0.451520681,-0.108316995,-0.265263379,-6,0,17,30,25,2.043451071,7.20654726,6.411672115,0.194384381,-0.191320062,0.246078104,-12,13,141,139,250
1695162415689218200,-9.305065155,-1.784877419,-1.279700756,-0.460846871,-0.109649308,-0.265663087,-2,0,16,30,27,2.088941097,7.101202011,6.403292656,0.179196015,-0.183192953,0.236751899,-12,9,136,137,252
1695162415690218200,-9.272743225,-1.78128612,-1.289277673,-0.467774898,-0.110049009,-0.264996946,-3,-1,15,31,23,2.114080191,7.032967567,6.404489517,0.170669213,-0.177464008,0.230223581,-12,11,142,138,252
1695162415729194800,-8.809465408,-1.928529501,-1.383848548,-0.20624195,-0.057289433,-0.041434918,-1,0,15,32,28,1.807622313,6.319495201,6.301538944,0.083935678,-0.009326187,0.020650841,-12,12,141,137,251
1695162415730194800,-8.802282333,-1.944091797,-1.369483352,-0.176931083,-0.054225113,-0.022516079,-1,1,18,29,25,1.777694821,6.301538944,6.282385349,0.079539053,-0.004796324,0.009592649,-12,12,140,136,251
1695162415731194800,-8.791508675,-1.960851192,-1.361103654,-0.147220522,-0.051160797,-0.003597243,-6,0,20,32,19,1.758541107,6.287173748,6.268020153,0.076474734,-0.001598775,0.002264931,-13,7,139,133,250
1695162415732194800,-8.780735016,-1.977610588,-1.358709455,-0.11711026,-0.048496172,0.014921899,-3,0,16,34,25,1.731007814,6.263231754,6.239289761,0.072078094,0.00319755,-0.008526799,-12,10,140,136,250
1695162415733194800,-8.768763542,-1.989581585,-1.349132657,-0.086866774,-0.046364475,0.032908116,-4,0,20,34,29,1.704671621,6.239289761,6.211756229,0.067548238,0.008260337,-0.019185297,-12,8,139,135,248
1695162415773166500,-8.851364136,-1.909375906,-1.321599364,0.19784838,-0.067415006,0.1672052,-6,-2,19,34,25,1.48679924,5.523423195,5.497087002,0.108716697,0.244479313,-0.221297085,-12,13,141,134,249
1695162415774166500,-8.863334656,-1.89620769,-1.326387763,0.189987749,-0.070479326,0.163474724,-6,0,16,30,26,1.476025343,5.481524944,5.445611954,0.119774885,0.268327713,-0.233421117,-13,9,139,132,252
1695162415775166500,-8.876502991,-1.887827992,-1.327584863,0.179862171,-0.073277183,0.158811629,-8,-2,19,36,25,1.464054346,5.439626217,5.392939091,0.131898925,0.29244259,-0.245411947,-12,9,140,131,249
1695162415776166500,-8.892065048,-1.877054095,-1.335964561,0.167871356,-0.075808577,0.153349161,-6,0,19,32,26,1.454477549,5.396530628,5.342660904,0.145088822,0.3168239,-0.257535994,-14,10,137,132,251
1695162415777166500,-8.908824921,-1.865083098,-1.341950059,0.154148534,-0.077807046,0.147220522,-6,-4,15,33,24,1.444900751,5.349843502,5.297171116,0.159344569,0.341471672,-0.269926488,-12,9,141,128,249
1695162415812147200,-9.1326828,-1.918952703,-1.505952835,-0.160143942,-0.065283306,0.014388974,-2,0,16,35,24,0.942118347,5.133168221,4.604049683,0.346800923,0.775139332,-0.46124655,-12,7,136,128,253
1695162415813147200,-9.135076523,-1.9309237,-1.514332533,-0.169070452,-0.063151613,0.010525269,-4,0,16,31,25,0.906205356,5.146336555,4.582501888,0.341071963,0.791793287,-0.464977026,-7,4,137,127,250
1695162415814147200,-9.135076523,-1.941697598,-1.521515131,-0.176398173,-0.060886677,0.007327718,-6,0,19,34,29,0.869095206,5.155913353,4.557363033,0.334810108,0.808047473,-0.468041331,-12,3,131,127,248
1695162415815147200,-9.133879662,-1.950077295,-1.52390933,-0.182260334,-0.058621746,0.004796324,-7,0,21,32,23,0.831985116,5.16788435,4.528632641,0.327882051,0.823902011,-0.470039815,-12,2,136,127,252
1695162415816147200,-9.130288124,-1.960851192,-1.52510643,-0.186523736,-0.05595712,0.003064318,-8,1,21,30,24,0.784101069,5.173870087,4.504690647,0.319488525,0.838957131,-0.471905053,-12,2,131,128,252
1695162415848147300,-8.991424561,-2.043451071,-1.564610839,-0.08726646,-0.000932619,0.029577335,-2,0,19,38,25,-0.244208574,4.957194805,3.975571871,0.207307816,1.157779455,-0.537055135,-12,1,94,108,255
1695162415849147300,-8.973467827,-2.037465572,-1.556231141,-0.07194487,0.004529862,0.03437366,-8,0,21,31,25,-0.318428814,4.971560001,3.960009575,0.203310877,1.181228161,-0.548779488,-15,2,85,104,252
1695162415850147300,-8.965087891,-2.032677174,-1.553836942,-0.064883612,0.007327718,0.036638591,-7,0,20,30,25,-0.396240383,4.979939461,3.943250179,0.199846849,1.205742717,-0.561169982,-14,3,85,102,250
1695162415851147300,-8.959102631,-2.030282974,-1.550245643,-0.058222052,0.009992342,0.038903523,-3,-7,16,30,21,-0.48243165,4.979939461,3.920505285,0.199980095,1.22999084,-0.572894335,-16,3,85,97,251
1695162415852147300,-8.950722694,-2.029085875,-1.541865945,-0.051960181,0.012656967,0.04103522,-2,-1,19,35,25,-0.574608386,5.001487255,3.906140089,0.199313939,1.253972411,-0.585551262,-13,3,77,97,249
1695162415894097400,-8.882488251,-2.041056871,-1.352723956,0.009059724,0.055290964,0.064084224,-4,-1,15,29,25,-1.673547029,4.923676014,3.547009706,0.106318533,1.725344658,-0.629517615,-23,4,8,66,236
1695162415895097400,-8.886079788,-2.041056871,-1.347935557,0.010392036,0.05595712,0.064217456,-6,0,13,29,23,-1.731007814,4.945223808,3.529053211,0.081937209,1.753989339,-0.618192911,-25,1,8,64,236
1695162415896097400,-8.887276649,-2.041056871,-1.33835876,0.011324655,0.056756508,0.063950993,-9,-1,16,28,21,-1.789665818,4.958391666,3.513490915,0.052759573,1.785431743,-0.610865235,-26,1,0,65,230
1695162415897097400,-8.893261909,-2.038662672,-1.323993564,0.01185758,0.056889739,0.063684531,-8,-2,16,31,24,-1.847126603,4.947618008,3.484760523,0.033174578,1.806482315,-0.606735051,-27,4,1,66,234
1695162415898097400,-8.898050308,-2.036268473,-1.315613866,0.012257273,0.056889739,0.063284837,-8,0,15,30,23,-1.917755604,4.94043541,3.473986626,0.002797856,1.83605969,-0.600073516,-23,12,-1,65,231
1695162415934075100,-8.995016098,-2.041056871,-1.249773264,-0.031442571,0.029577335,0.041967839,-2,0,19,30,17,-3.752911091,5.614402771,4.118026733,-0.952336907,2.528862,-1.039736509,-34,0,-25,49,214
1695162415935075100,-8.999804497,-2.04464817,-1.249773264,-0.034773353,0.027578866,0.040369064,-6,0,16,34,24,-3.853467703,5.656301498,4.19464159,-1.012957096,2.573228359,-1.101156235,-35,5,-25,48,212
1695162415936075100,-9.002198219,-2.04584527,-1.250970364,-0.038237367,0.025580399,0.038370594,-4,-1,16,30,26,-3.952826977,5.68982029,4.236539841,-1.074776411,2.621457815,-1.166972399,-34,3,-29,49,212
1695162415937075100,-9.008183479,-2.049436569,-1.250970364,-0.041701376,0.023715161,0.03650536,-7,0,16,30,23,-4.070142746,5.701791286,4.258087635,-1.137794852,2.666889668,-1.235986233,-34,4,-28,49,212
1695162415938075100,-9.011775017,-2.051830769,-1.254561663,-0.044898927,0.022116385,0.03437366,-3,0,14,31,24,-4.182670593,5.720944881,4.289212227,-1.197615623,2.711389065,-1.30633235,-37,3,-31,47,210
1695162415973075600,-9.06803894,-2.084152699,-1.353921056,-0.075941809,0.02358193,0.004529862,-4,2,19,31,25,-6.958747387,6.983886242,5.328295708,-2.236685991,3.750326157,-2.805450201,-39,5,-36,23,200
1695162415974075600,-9.077615738,-2.090138197,-1.358709455,-0.075142421,0.025580399,0.0042634,-6,0,16,30,24,-7.089231014,7.10000515,5.383362293,-2.333944798,3.801620007,-2.883656979,-42,4,-35,22,202
1695162415975075600,-9.082404137,-2.084152699,-1.362300754,-0.073810108,0.027712099,0.003996937,-1,0,19,31,19,-7.207744122,7.199364662,5.428852558,-2.43919754,3.851448536,-2.959332228,-38,5,-35,22,200
1695162415976075600,-9.087192535,-2.085349798,-1.358709455,-0.072078094,0.029577335,0.003863706,-6,1,15,30,25,-7.305906296,7.266402245,5.475539207,-2.552577257,3.90034461,-3.031676769,-45,4,-39,20,200
1695162415977075600,-9.097966194,-2.088941097,-1.356315255,-0.070079632,0.03130934,0.003996937,-1,-1,21,29,25,-7.371747017,7.290344238,5.506663799,-2.66862154,3.950039864,-3.098159075,-42,3,-37,18,196
1695162416014031300,-9.199720383,-2.015917778,-1.302445769,-0.02358193,0.033973966,0.008926493,-3,0,20,29,24,-8.392873764,2.224213362,3.879803896,-3.097493172,4.365588188,-2.730840683,-42,-2,-36,14,194
1695162416015031300,-9.208099365,-2.00873518,-1.297657371,-0.023182238,0.033707503,0.009192956,-7,-1,19,31,27,-8.51019001,1.814804912,3.720589399,-2.930287838,4.365588188,-2.623722792,-44,1,-35,18,196
1695162416016031300,-9.212887764,-2.006340981,-1.288080573,-0.023049004,0.033707503,0.009459418,-5,0,19,30,27,-8.616731644,1.435323954,3.56616354,-2.745762825,4.365588188,-2.508078098,-42,4,-35,17,194
1695162416017031300,-9.2212677,-2.005143881,-1.282094955,-0.023049004,0.033574272,0.009592649,-2,-1,17,35,25,-8.696937561,1.201889277,3.470395327,-2.615062714,4.365588188,-2.426407337,-44,0,-35,15,196
1695162416018031300,-9.22725296,-2.00753808,-1.274912357,-0.023315467,0.033840735,0.009992342,-3,-2,19,31,27,-8.826224327,0.845153213,3.337517262,-2.405223608,4.365588188,-2.302369118,-42,5,-34,15,196
1695162416054008300,-9.29189682,-1.97162509,-1.164779186,-0.042900458,0.018385911,-0.008260337,-4,0,15,30,25,-11.43710136,-0.724246025,1.308431268,3.198482275,2.764148474,0.150684536,-43,-2,-34,16,193
1695162416055008300,-9.282320023,-1.964442492,-1.159990668,-0.043833077,0.016653905,-0.009992342,-7,0,16,31,26,-11.58673954,-0.537498295,1.233013868,3.447624683,2.632782698,0.229157731,-39,-1,-35,16,194
1695162416056008300,-9.275136948,-1.962048292,-1.15280807,-0.044632465,0.01505513,-0.011724349,-4,-2,20,30,27,-11.73637676,-0.337582439,1.163581967,3.688107014,2.49981761,0.299637049,-44,-2,-34,15,194
1695162416057008300,-9.269151688,-1.962048292,-1.15400517,-0.04516539,0.01385605,-0.013056661,-8,0,19,31,28,-11.88960552,-0.122104287,1.097741485,3.91793108,2.364721298,0.361456335,-44,-1,-34,16,193
1695162416058008300,-9.254786491,-1.959654093,-1.157596469,-0.045831546,0.012523737,-0.014655436,-5,-2,17,31,25,-12.04762268,0.10295067,1.029506683,4.13589716,2.228292465,0.414349139,-39,0,-34,17,192
1695162416095984500,-9.028534889,-1.893813491,-1.072602391,-0.013056661,0.012390506,-0.021316998,-4,0,15,34,23,-15.02840424,4.961983204,0.654814184,4.365588188,-0.090863705,-0.063817769,-41,-1,-29,20,194
1695162416096984500,-9.018958092,-1.891419291,-1.072602391,-0.008393568,0.012390506,-0.019718224,-4,0,19,32,24,-15.14571953,5.299565315,0.691924274,4.365588188,-0.179329246,-0.155081168,-44,-1,-28,25,194
1695162416097984500,-9.009381294,-1.887827992,-1.059434295,-0.00319755,0.012257273,-0.017719755,-3,0,13,34,31,-15.24627686,5.6491189,0.735019922,4.365588188,-0.262998462,-0.251407355,-45,-2,-27,21,193
1695162416098984500,-9.001001358,-1.886630893,-1.052251697,0.001998469,0.012124043,-0.015454824,-3,0,20,30,25,-15.33007336,5.996278286,0.770932972,4.365588188,-0.342937201,-0.352396637,-40,0,-29,24,192
1695162416099984500,-8.991424561,-1.878251195,-1.046266198,0.007460949,0.011724349,-0.013056661,-4,0,19,30,23,-15.38992882,6.338648796,0.794874966,4.365588188,-0.41967839,-0.458981633,-41,4,-28,24,194
1695162416130985300,-8.998606682,-1.816002011,-0.960074902,0.095260337,-0.02158346,0.060886677,-5,0,19,35,24,-13.35365963,10.66975975,2.015917778,2.096659899,-0.881324649,-2.44239521,-42,-2,-23,22,195
1695162416131985300,-9.004592896,-1.817199111,-0.961272001,0.09739203,-0.024381317,0.064883612,-5,0,17,31,27,-13.12501335,10.67574501,2.070984364,1.814476252,-0.829497695,-2.498085737,-39,-1,-25,21,192
1695162416132985300,-9.016563416,-1.82079041,-0.961272001,0.099257268,-0.027179174,0.068480857,-4,0,19,33,25,-12.96819305,10.65898609,2.102109194,1.626353741,-0.790727437,-2.530727386,-43,-2,-23,22,192
1695162416133985300,-9.02973175,-1.825578809,-0.960074902,0.100722812,-0.030376723,0.071811639,-8,0,16,30,25,-12.73116779,10.60751057,2.148796082,1.345502377,-0.726376712,-2.572029114,-41,0,-25,23,193
1695162416134985300,-9.040505409,-1.830367208,-0.954089403,0.102055125,-0.033574272,0.07500919,-8,-2,15,35,24,-12.49414158,10.52610779,2.190694571,1.068114877,-0.654964805,-2.604404211,-43,-2,-25,24,193
1695162416167939800,-9.212887764,-1.917755604,-1.067813993,0.049295556,-0.090730481,0.067015313,-2,0,15,32,25,-10.12986755,5.795165062,1.644816518,-2.113047361,1.101289392,-1.565200567,-39,-1,-25,18,192
1695162416168939800,-9.216479301,-1.922544003,-1.082179189,0.043166921,-0.092329249,0.063551299,-4,2,13,32,27,-10.13465595,5.509057999,1.600523829,-2.12343955,1.158978581,-1.458215952,-37,-2,-27,20,192
1695162416169939800,-9.220070839,-1.928529501,-1.090558887,0.036638591,-0.093661562,0.059554365,-2,0,20,30,26,-10.13704967,5.234921932,1.56101954,-2.118376732,1.210805535,-1.3504318,-41,-3,-29,19,188
1695162416170939800,-9.220070839,-1.938106298,-1.101332784,0.030509954,-0.094727404,0.055690661,-3,0,18,32,24,-10.14542961,4.967968464,1.513135433,-2.098125458,1.256370544,-1.242647767,-40,-1,-28,20,193
1695162416171939800,-9.218873978,-1.945288897,-1.106121182,0.024381317,-0.095393561,0.051294025,-2,0,18,31,26,-10.16338634,4.711789131,1.458068848,-2.063885212,1.296073556,-1.135263324,-41,0,-27,20,189
1695162416209921600,-9.059659004,-1.965639591,-1.224634171,-0.018119449,-0.060886677,-0.02797856,-7,0,19,30,25,-10.14183807,2.317587137,0.782903969,0.41967839,0.967125535,0.32934764,-35,1,-25,22,192
1695162416210921600,-9.047688484,-1.963245392,-1.230619669,-0.015854517,-0.057822358,-0.029577335,-4,-2,21,31,25,-10.12268448,2.33913517,0.762553215,0.571695268,0.90277487,0.367585003,-38,-1,-24,19,192
1695162416211921600,-9.038111687,-1.958456993,-1.236605167,-0.013189893,-0.054758042,-0.030509954,-2,0,19,30,23,-10.08318043,2.348711967,0.748188019,0.724378288,0.836026073,0.404223561,-40,-2,-27,25,193
1695162416212921600,-9.026140213,-1.952471495,-1.233013868,-0.009992342,-0.051960181,-0.030909648,-5,-1,16,30,23,-10.0364933,2.367865562,0.749385118,0.874396622,0.768211305,0.43939665,-38,-2,-28,22,190
1695162416213921600,-9.012971878,-1.946485996,-1.231816769,-0.006261868,-0.049162328,-0.030776417,-5,1,15,30,28,-9.981427193,2.406172752,0.754173517,1.020018339,0.700529873,0.47270444,-37,-2,-33,24,192
1695162416258889600,-8.795100212,-1.826775908,-1.170764685,0.133364469,-0.028378254,0.042234302,-5,0,19,32,27,-9.069235802,4.203021049,1.079784989,2.227093458,-0.44512558,0.806448698,-37,-2,-22,31,187
1695162416259889600,-8.786720276,-1.82079041,-1.174355984,0.141225114,-0.028644716,0.049029093,-4,-2,23,32,25,-9.039308548,4.298789024,1.089361787,2.208441019,-0.489358336,0.808447123,-41,-5,-24,29,190
1695162416260889600,-8.781931877,-1.82079041,-1.177947283,0.148952529,-0.029444104,0.056090351,-8,0,19,34,25,-9.014169693,4.388571739,1.097741485,2.18366003,-0.531459451,0.808713615,-41,-2,-23,31,189
1695162416261889600,-8.77834034,-1.817199111,-1.186326981,0.156413481,-0.03011026,0.063151613,-5,0,21,32,27,-8.993818283,4.472368717,1.098938584,2.15288353,-0.571295559,0.806981623,-40,-3,-23,31,189
1695162416262889600,-8.777143478,-1.813607812,-1.18991828,0.163607955,-0.030909648,0.070212863,-5,0,17,29,23,-8.978256226,4.557363033,1.102529883,2.116111755,-0.608866811,0.80351758,-42,4,-25,32,189
1695162416306862500,-8.870517731,-1.916558504,-1.320402265,0.238483921,-0.038770292,0.157079637,-4,1,14,29,25,-9.014169693,5.250484467,0.963666201,0.893981636,-0.878260314,0.500949442,-39,-3,-17,31,192
1695162416307862500,-8.881291389,-1.927332401,-1.331176162,0.239949465,-0.037837673,0.15841195,-6,0,20,30,24,-9.021351814,5.231330872,0.956483603,0.829364479,-0.871199071,0.483229697,-38,-2,-15,34,186
1695162416308862500,-8.888473511,-1.934514999,-1.331176162,0.240748852,-0.037171517,0.159211323,-4,0,16,34,27,-9.027337074,5.208585739,0.952892303,0.767811656,-0.862405777,0.467108727,-39,-2,-17,33,189
1695162416309862500,-8.898050308,-1.942894697,-1.333570361,0.242081165,-0.036105666,0.160010725,-4,0,16,32,24,-9.030928612,5.191826344,0.952892303,0.728375196,-0.855344534,0.457116395,-37,-8,-17,34,192
1695162416310862500,-8.911218643,-1.958456993,-1.343147159,0.243413478,-0.034773353,0.160676882,-4,0,16,29,23,-9.040505409,5.16189909,0.955286503,0.671751857,-0.842820823,0.443393588,-38,-2,-15,31,189
1695162416346837800,-9.169792175,-2.15358448,-1.474828243,0.278986216,0.018652374,0.109915771,-7,-3,19,31,25,-9.10036087,4.289212227,0.778115571,0.181327716,-0.46124655,0.543849885,-40,-3,-18,31,189
1695162416347837800,-9.186552048,-2.151190281,-1.476025343,0.280451775,0.022382848,0.104453288,-8,0,19,35,23,-9.108740807,4.248510838,0.769735873,0.183725879,-0.443660021,0.564767241,-39,-4,-15,30,189
1695162416348837800,-9.200917244,-2.15597868,-1.478419542,0.281917304,0.026646247,0.099124044,-6,-4,16,28,26,-9.114726067,4.204218388,0.766144514,0.187722817,-0.427139342,0.586084247,-39,-2,-15,32,186
1695162416349837800,-9.212887764,-2.157175779,-1.476025343,0.2831164,0.030643184,0.093661562,-6,-1,19,29,21,-9.121908188,4.180276394,0.766144514,0.191586524,-0.416614085,0.600739658,-39,-5,-14,31,190
1695162416350837800,-9.220070839,-2.15597868,-1.477222443,0.283782542,0.034906585,0.087932616,-5,1,13,34,27,-9.135076523,4.145560265,0.767341673,0.19838132,-0.401425719,0.622856021,-42,-5,-17,31,183
1695162416388837600,-9.338583946,-2.104503393,-1.307234168,0.272058189,0.117243491,-0.016920367,-2,-1,16,33,23,-9.518148422,3.938461781,1.023521185,0.299903542,-0.278719753,0.982846856,-43,-5,-15,31,188
1695162416389837600,-9.338583946,-2.098517895,-1.294066072,0.270725876,0.120707504,-0.022249617,-4,-1,15,31,22,-9.543288231,3.94205308,1.051054597,0.288978547,-0.279385895,0.999634027,-41,-4,-20,31,192
1695162416390837600,-9.33618927,-2.097320795,-1.282094955,0.270059735,0.122839205,-0.025846859,-6,-1,17,30,23,-9.555258751,3.944447279,1.065419793,0.282716691,-0.280185282,1.007494569,-38,-3,-15,32,189
1695162416391837600,-9.331400871,-2.092532396,-1.26533556,0.269260317,0.126036748,-0.031176111,-8,0,19,30,24,-9.578003883,3.943250179,1.089361787,0.267928004,-0.281650841,1.022416592,-37,-1,-17,31,189
1695162416392837600,-9.327810287,-2.084152699,-1.252167463,0.268194497,0.128967836,-0.036771823,-4,-1,17,29,24,-9.595960617,3.93965888,1.107318282,0.255404294,-0.283782542,1.032941818,-38,-5,-18,32,188
1695162416445781200,-9.175778389,-1.873462796,-0.973242998,0.217833072,0.141358346,-0.137494639,-6,2,17,32,26,-9.446322441,3.444059134,1.028309584,-0.013056661,-0.412617147,1.14898622,-40,-4,-12,33,188
1695162416446781200,-9.166201591,-1.863885999,-0.951695204,0.213969365,0.140958652,-0.141225114,-2,0,15,31,24,-9.424775124,3.403357744,1.012747288,-0.02051761,-0.423142403,1.152716637,-41,-5,-2,32,189
1695162416447781200,-9.160215378,-1.8579005,-0.937329948,0.210105672,0.140558958,-0.144689128,-1,0,13,30,27,-9.404424667,3.363853455,0.991199493,-0.02691271,-0.433934122,1.156313896,-36,-7,-13,32,186
1695162416448781200,-9.151836395,-1.847126603,-0.921767652,0.206375197,0.140159264,-0.147886679,-5,-1,16,30,23,-9.384073257,3.318363667,0.974440098,-0.032508422,-0.444592625,1.159644723,-37,-2,-11,35,192
1695162416449781200,-9.145850182,-1.839944005,-0.905008256,0.202777937,0.139626339,-0.150684536,-6,0,13,31,21,-9.3685112,3.289633036,0.961272001,-0.037704438,-0.45551762,1.162575841,-37,-5,-16,34,190
1695162416490758700,-9.097966194,-1.643619418,-0.776918471,0.12936753,0.089797854,-0.182127118,-6,1,17,26,24,-8.547300339,2.798821688,0.878672004,-0.040768761,-0.567298651,1.097292423,-39,-9,-8,36,189
1695162416491758700,-9.085995674,-1.629254222,-0.775721371,0.122572735,0.085534461,-0.184258804,-4,-1,19,30,23,-8.489839554,2.785653591,0.877474904,-0.039036751,-0.564767241,1.085035205,-39,-3,-18,41,190
1695162416492758700,-9.081207275,-1.616086125,-0.778115571,0.115378261,0.081004597,-0.186523736,-12,0,15,30,23,-8.432378769,2.770091295,0.869095206,-0.036905054,-0.561436415,1.072111845,-37,-4,-11,41,190
1695162416493758700,-9.078812599,-1.608903527,-0.77931267,0.110182241,0.078073502,-0.18798928,-7,-1,15,31,21,-8.376114845,2.756923199,0.866701007,-0.034506891,-0.55730629,1.058388948,-39,-5,-9,40,190
1695162416494758700,-9.072827339,-1.59812963,-0.782903969,0.102188364,0.073676877,-0.190653905,-8,0,15,30,23,-8.321047783,2.746149302,0.859518409,-0.031709034,-0.552509964,1.044133186,-34,-5,-8,40,188
1695162416530734800,-9.018958092,-1.496376038,-0.933738649,-0.025846859,0.037437979,-0.220231235,-1,-2,18,30,24,-7.966706276,2.509123325,0.709880829,0.022249617,-0.408486992,0.676015317,-37,-8,-7,43,192
1695162416531734800,-9.005789757,-1.497573137,-0.944512546,-0.027845331,0.039036751,-0.219431862,-6,-2,17,31,22,-7.978677273,2.507926226,0.700303972,0.024781011,-0.399560481,0.651633978,-41,-8,-9,41,189
1695162416532734800,-8.989029884,-1.498770237,-0.956483603,-0.02904441,0.040635526,-0.218366012,-6,-1,16,34,23,-7.995436668,2.509123325,0.695515573,0.026646247,-0.390767217,0.626719773,-35,-5,-5,40,192
1695162416533734800,-8.969876289,-1.498770237,-0.9660604,-0.029444104,0.042500768,-0.217033699,-8,-1,16,31,27,-8.009801865,2.510320425,0.691924274,0.028378254,-0.381840736,0.601139367,-37,-5,-7,36,187
1695162416534734800,-8.947132111,-1.498770237,-0.975637197,-0.029310873,0.044765696,-0.215301678,-8,-3,21,31,24,-8.026560783,2.512714624,0.688332975,0.029843798,-0.372647762,0.574626327,-37,-5,-5,42,189
1695162416571708600,-8.711302757,-1.458068848,-1.043871999,0.048762634,0.086733535,-0.182526797,-6,0,13,36,27,-8.283937454,2.833537817,0.642843127,-0.0063951,-0.159611031,-0.063684531,-35,-5,-7,42,188
1695162416572708600,-8.72806263,-1.446097851,-1.036689281,0.053958651,0.086999997,-0.180528328,-4,-3,16,30,21,-8.282740593,2.850297213,0.636857629,-0.009326187,-0.146154657,-0.098990813,-35,-8,-7,40,188
1695162416573708600,-8.744821548,-1.438915253,-1.035492182,0.059021436,0.086467072,-0.178529859,-6,0,17,30,26,-8.28034687,2.867056608,0.63206923,-0.01185758,-0.132565081,-0.133630931,-37,-6,-7,39,189
1695162416574708600,-8.763975143,-1.426944256,-1.035492182,0.063950993,0.086067379,-0.176264927,-6,-2,16,29,24,-8.276755333,2.881421804,0.618901134,-0.01398928,-0.118709028,-0.167871356,-38,-5,-4,42,188
1695162416575708600,-8.786720276,-1.420958757,-1.030703783,0.068747319,0.08513476,-0.173733547,-7,-1,17,31,24,-8.275558472,2.893392801,0.616506934,-0.015188362,-0.109382853,-0.190254211,-35,-4,-3,41,192
1695162416609688500,-9.151836395,-1.205480576,-1.019929886,0.108450226,0.040901989,-0.072477795,-6,-3,18,31,25,-8.142680168,3.384204149,0.644040287,-0.019851454,0.175199077,-0.671218991,-37,-2,-4,37,192
1695162416610688500,-9.168595314,-1.18991828,-1.024718285,0.104852989,0.037970904,-0.065283306,-6,0,14,32,23,-8.137891769,3.412934542,0.651222885,-0.021050537,0.189987749,-0.687206745,-38,-5,-6,40,189
1695162416611688500,-9.186552048,-1.177947283,-1.030703783,0.100323126,0.034773353,-0.057955589,-6,3,21,28,24,-8.133103371,3.440467834,0.671573579,-0.023049004,0.204243496,-0.702261865,-35,-5,-4,44,189
1695162416612688500,-9.202114105,-1.164779186,-1.031900883,0.094860643,0.031442571,-0.050761104,-8,0,19,31,23,-8.130708694,3.470395327,0.689530075,-0.025180703,0.218366012,-0.716517627,-38,-4,-4,38,192
1695162416613688500,-9.218873978,-1.15161097,-1.035492182,0.088199086,0.028111791,-0.043566614,4,0,13,32,25,-8.130708694,3.488351822,0.697909772,-0.02691271,0.227825418,-0.725444078,-35,-8,-7,40,187
1695162416647665300,-9.232041359,-1.057040095,-1.163581967,-0.213969365,-0.023715161,0.042500768,-4,0,19,31,23,-8.422801971,3.950432777,0.897825658,-0.162675351,0.4243415,-0.872398198,-37,-5,-7,38,188
1695162416648665300,-9.211690903,-1.065419793,-1.171961784,-0.23635222,-0.025180703,0.044232771,-7,0,19,31,23,-8.447940826,3.975571871,0.912190855,-0.17346707,0.431669205,-0.876661539,-38,-6,-8,40,190
1695162416649665300,-9.187748909,-1.07619369,-1.181538582,-0.258335382,-0.02691271,0.045565084,-9,0,15,30,23,-8.469488144,3.999513865,0.925358951,-0.184525266,0.438863724,-0.880525291,-39,-8,-6,41,188
1695162416650665300,-9.173383713,-1.083376288,-1.185129881,-0.273124039,-0.02797856,0.046497703,-4,0,15,29,24,-8.488641739,4.023456097,0.943315446,-0.195983157,0.445658505,-0.883989275,-37,-5,-6,41,188
1695162416651665300,-9.154230118,-1.091755986,-1.18872118,-0.294840723,-0.029444104,0.04769678,-6,-2,16,34,24,-8.503006935,4.045003891,0.955286503,-0.207441032,0.452453285,-0.887453258,-34,-3,-8,36,188
1695162416719141000,-8.870517731,-1.501164436,-1.254561663,-0.480032146,0.000133231,0.0955268,-5,1,19,31,27,-8.865729332,4.352658749,1.236605167,-0.432868302,0.572627902,-0.861872911,-37,-7,-3,37,188
1695162416720141000,-8.864531517,-1.514332533,-1.255758762,-0.477500767,0.001998469,0.099257268,-8,0,11,31,25,-8.884882927,4.361038208,1.252167463,-0.442860663,0.578623295,-0.855211318,-37,-2,-7,34,188
1695162416721141000,-8.859743118,-1.52510643,-1.253364563,-0.474303216,0.003730475,0.103254206,-2,0,21,32,24,-8.902838707,4.365826607,1.267729759,-0.452719748,0.584485412,-0.848016858,-43,-9,-8,36,183
1695162416722141000,-8.851364136,-1.534683347,-1.244984865,-0.47057274,0.005196018,0.107117914,-3,1,15,30,24,-8.917203903,4.374206543,1.291671872,-0.462179184,0.590480864,-0.84042269,-37,-5,-12,35,187
1695162416723141000,-8.851364136,-1.540668845,-1.240196466,-0.466709018,0.006528331,0.110715166,-6,0,15,35,24,-8.937555313,4.382586002,1.313219666,-0.471238881,0.596209764,-0.832295537,-35,-9,-9,36,187
1695162416768113100,-8.846575737,-1.550245643,-1.149216771,-0.465243489,-0.003064318,0.1672052,-4,-1,17,30,25,-9.166201591,4.431667328,1.655590534,-0.574759543,0.651101053,-0.61499542,-37,-1,-4,35,189
1695162416769113100,-8.84896946,-1.550245643,-1.144428372,-0.470705956,-0.005329249,0.168937206,-7,0,15,30,25,-9.168595314,4.426878929,1.67234993,-0.57809037,0.648569643,-0.600339949,-37,-9,-9,33,186
1695162416770113100,-8.85495472,-1.551442742,-1.146822572,-0.476434916,-0.007993874,0.170535982,-7,1,18,29,25,-9.172186852,4.41849947,1.683123827,-0.581021428,0.645238936,-0.585551262,-34,-3,-15,34,190
1695162416771113100,-8.858546257,-1.553836942,-1.148019671,-0.482563555,-0.01079173,0.171868294,-7,0,16,31,25,-9.180566788,4.408922195,1.699883223,-0.583552837,0.640975475,-0.570229709,-39,-6,-8,32,189
1695162416772113100,-8.863334656,-1.553836942,-1.142034173,-0.488958627,-0.013722817,0.173333839,-7,-1,19,30,20,-9.184157372,4.400542736,1.707065821,-0.586084247,0.635646224,-0.554241955,-35,-4,-9,33,186
1695162416826081200,-9.024943352,-1.568202138,-1.215057373,-0.615528286,-0.098324656,0.213569671,-10,0,16,29,25,-9.203310966,4.118026733,1.704671621,-0.544116378,0.357592642,-0.219964772,-37,-7,-6,33,188
1695162416827081200,-9.034520149,-1.568202138,-1.230619669,-0.622189879,-0.102188364,0.217166916,-6,0,20,29,23,-9.197325706,4.108449936,1.696291924,-0.537721276,0.335875928,-0.203177631,-35,-9,-8,33,189
1695162416828081200,-9.046490669,-1.567005038,-1.242590666,-0.628584981,-0.105918832,0.221030638,-4,0,19,32,25,-9.192537308,4.098873138,1.686715126,-0.531326175,0.314026028,-0.186523736,-37,-5,-11,33,188
1695162416829081200,-9.052476883,-1.564610839,-1.249773264,-0.632848382,-0.108316995,0.223695248,-6,0,12,30,23,-9.18894577,4.08570528,1.677138329,-0.524931073,0.292176098,-0.170269519,-34,-9,-7,34,187
1695162416830081200,-9.064447403,-1.564610839,-1.258152962,-0.639110267,-0.111647777,0.227958649,-4,0,15,32,24,-9.18296051,4.080916882,1.675941229,-0.518669248,0.270326167,-0.154415011,-35,-8,-7,35,188
1695162416876051100,-9.294290543,-1.786074519,-1.510741234,-0.68201071,-0.131632462,0.332278699,-3,-1,19,31,24,-9.011775017,3.921702385,1.420958757,-0.431003064,-0.050094947,0.069946401,-39,-7,-8,36,189
1695162416877051100,-9.309853554,-1.811213613,-1.52630353,-0.679346085,-0.130566612,0.33760795,-6,0,21,31,20,-9.003395081,3.913322687,1.395819545,-0.425274134,-0.060486984,0.07820674,-35,-12,-7,36,188
1695162416878051100,-9.323021889,-1.833958507,-1.541865945,-0.675748825,-0.129101068,0.342670739,-6,0,20,31,23,-8.997409821,3.898957491,1.368286252,-0.419145465,-0.070212863,0.085934147,-34,-6,-9,37,189
1695162416879051100,-9.334992409,-1.854309201,-1.55862534,-0.67161864,-0.127369061,0.347600311,-2,-3,16,32,24,-8.993818283,3.891774893,1.33955586,-0.412350684,-0.079405814,0.093261868,-38,-8,-9,32,188
1695162416880051100,-9.343372345,-1.878251195,-1.577778935,-0.667088807,-0.125370592,0.351996928,-6,-5,15,32,25,-8.986636162,3.883395195,1.307234168,-0.404889733,-0.087799385,0.100456357,-39,-11,-9,33,187
1695162416929020100,-9.313444138,-2.189497471,-1.663970232,-0.581154704,-0.033707503,0.328015327,-8,0,19,31,25,-9.084798813,4.246116638,0.809240162,-0.040369064,-0.119908117,0.157612562,-41,-7,-13,31,186
1695162416930020100,-9.309853554,-2.208651066,-1.663970232,-0.579022944,-0.027179174,0.322153151,-2,0,15,31,25,-9.118317604,4.329913616,0.797269166,-0.007993874,-0.115378261,0.158145472,-38,-9,-9,34,187
1695162416931020100,-9.301473618,-2.226607561,-1.659181833,-0.576891303,-0.02051761,0.316024512,-7,0,16,30,28,-9.156624794,4.423287868,0.797269166,0.024781011,-0.109516084,0.158811629,-38,-9,-9,34,188
1695162416932020100,-9.301473618,-2.244564056,-1.651999116,-0.574626327,-0.014122511,0.309762627,-8,0,15,29,24,-9.197325706,4.53102684,0.791283667,0.056356817,-0.103254206,0.160143942,-39,-11,-12,37,189
1695162416933020100,-9.296685219,-2.261323452,-1.642422318,-0.571961701,-0.007594181,0.303234309,-2,0,21,29,23,-9.241618156,4.653131008,0.792480767,0.086733535,-0.096326187,0.161742732,-40,-8,-9,37,189
1695162416977992600,-9.332598686,-2.408566952,-1.368286252,-0.47057274,0.073676877,0.168404296,-2,0,15,28,24,-9.670180321,9.193734169,1.610100627,-0.075408876,0.010924961,0.651234269,-37,-9,-5,31,188
1695162416978992600,-9.337387085,-2.402581453,-1.349132657,-0.466042876,0.07474272,0.162142411,-6,-2,17,32,25,-9.664195061,9.428366661,1.632845521,-0.123105668,0.003064318,0.70852375,-39,-8,-9,31,186
1695162416979992600,-9.342175484,-2.393004656,-1.333570361,-0.462445647,0.075542115,0.155880541,-6,-1,16,30,24,-9.652224541,9.63067627,1.649604917,-0.171202138,-0.007860643,0.769277155,-40,-11,-9,32,188
1695162416980992600,-9.348160744,-2.389413357,-1.314416766,-0.458981633,0.075808577,0.149885148,-7,0,15,30,19,-9.640253067,9.804255486,1.66995573,-0.220497698,-0.021716693,0.83362788,-35,-5,-9,32,187
1695162416981992600,-9.349357605,-2.385822058,-1.296460271,-0.456450224,0.075941809,0.14388974,-3,0,16,32,24,-9.634267807,9.957485199,1.690306425,-0.269526809,-0.038104136,0.901842296,-38,-3,-12,31,186
1695162417023966400,-9.769539833,-2.290053844,-1.194706678,-0.508943319,0.03011026,0.030376723,-6,-2,14,32,26,-10.55364132,11.41315937,1.662773132,-0.685474753,-0.660027564,2.455185175,-35,-8,-10,31,188
1695162417024966400,-9.813833237,-2.293645144,-1.197100878,-0.515871346,0.025447167,0.023715161,-8,0,15,28,23,-10.6111021,11.48738003,1.678335428,-0.687206745,-0.698531389,2.528728962,-39,-8,-15,31,187
1695162417025966400,-9.850942612,-2.293645144,-1.195903778,-0.522932589,0.021050537,0.017320061,-4,-3,19,32,24,-10.66377449,11.56519127,1.690306425,-0.68920517,-0.737168431,2.60080719,-34,-7,-13,32,187
1695162417026966400,-9.88206768,-2.292448044,-1.195903778,-0.529993892,0.01718683,0.010924961,-6,0,15,30,23,-10.71165848,11.64659405,1.70826292,-0.692535996,-0.775938749,2.671153307,-38,-7,-12,31,188
1695162417027966400,-9.908403397,-2.297236443,-1.191115379,-0.537188351,0.013722817,0.004130168,-4,-6,13,30,26,-10.75235939,11.7256031,1.731007814,-0.697332263,-0.814575791,2.740033865,-40,-8,-11,31,188
1695162417077935400,-9.172186852,-2.468421936,-1.074996591,-0.617660046,0.061819296,-0.168137819,-6,0,19,30,23,-11.42752457,13.12621117,1.620874524,-0.945542097,-1.540952563,3.902209759,-38,-7,-13,37,188
1695162417078935400,-9.126696587,-2.474407434,-1.066616893,-0.620191395,0.066482387,-0.183459431,-2,1,18,34,23,-11.4406929,13.18008041,1.616086125,-0.956467032,-1.583320141,3.960298777,-35,-7,-8,34,189
1695162417079935400,-9.089587212,-2.480392933,-1.059434295,-0.622323155,0.070745789,-0.199047476,-1,0,19,32,20,-11.45386124,13.23155594,1.612494826,-0.966592669,-1.625954151,4.01865387,-35,-7,-10,31,192
1695162417080935400,-9.060855865,-2.485181332,-1.049857497,-0.624588013,0.07474272,-0.214768767,-10,-2,13,29,24,-11.46583176,13.27824306,1.611297727,-0.97445327,-1.66938746,4.077675343,-38,-11,-13,33,189
1695162417081935400,-9.032125473,-2.485181332,-1.039083481,-0.626320064,0.07794027,-0.230889738,-3,0,5,34,21,-11.47540855,13.32612705,1.617283225,-0.980715096,-1.712820888,4.137229919,-39,-9,-11,34,189
1695162417130905000,-9.423578262,-2.313995838,-0.727837324,-0.520134747,0.026246555,-0.46697551,-5,0,15,30,25,-10.77390766,12.61265469,2.254140854,-0.766079664,-2.268661499,4.365588188,-33,-7,-2,52,192
1695162417131905000,-9.459490776,-2.281674147,-0.725443125,-0.51107502,0.015854517,-0.473903507,-4,0,16,33,21,-10.7332058,12.55399704,2.290053844,-0.743963242,-2.275856018,4.365588188,-35,-8,-2,56,193
1695162417132905000,-9.491812706,-2.245761156,-0.721851826,-0.502415001,0.005062787,-0.480165392,-6,0,15,29,32,-10.66377449,12.48935318,2.366668463,-0.705459356,-2.285315514,4.365588188,-37,-8,-1,60,194
1695162417133905000,-9.52173996,-2.206256866,-0.720654726,-0.49495405,-0.006261868,-0.485894322,-6,0,19,35,24,-10.58476543,12.44386292,2.461239338,-0.671485424,-2.293575764,4.365588188,-34,-9,-2,57,192
1695162417134905000,-9.555258751,-2.160767078,-0.725443125,-0.488425732,-0.017852986,-0.49135682,-6,0,16,31,25,-10.51653099,12.37084007,2.56778121,-0.639110267,-2.301702976,4.365588188,-39,-9,-2,60,193
1695162417171882000,-9.376891136,-1.458068848,-0.963666201,-0.651500762,-0.147620216,-0.541318536,-8,0,16,34,24,-7.486668587,10.12747288,3.883395195,-0.296572745,-2.140093565,4.365588188,-32,-11,12,110,231
1695162417172882000,-9.337387085,-1.444900751,-0.975637197,-0.670153141,-0.147087291,-0.543050528,-6,0,14,32,25,-7.264008045,9.88206768,3.79600668,-0.250341505,-2.073744297,4.365588188,-30,-12,14,113,235
1695162417173882000,-9.29788208,-1.440112352,-0.986411095,-0.688405812,-0.145488501,-0.544649303,-4,0,21,34,24,-7.157465935,9.746794701,3.733757496,-0.222762644,-2.03817153,4.365588188,-30,-13,21,116,240
1695162417174882000,-9.258378029,-1.436521053,-0.991199493,-0.705992341,-0.143490046,-0.546114862,-1,-1,16,32,24,-6.988674641,9.570821762,3.665522814,-0.180261865,-1.984612584,4.365588188,-29,-9,25,121,241
1695162417175882000,-9.220070839,-1.436521053,-0.997184992,-0.723045945,-0.140825421,-0.547580421,-10,-1,16,31,26,-6.819883347,9.41280365,3.593696833,-0.140558958,-1.928255796,4.365588188,-27,-12,29,122,247
1695162417221852500,-8.894459724,-1.715445518,-1.021126986,-0.747294068,-0.11817611,-0.515205204,-7,0,15,31,25,-2.78924489,7.050923824,3.451241732,0.260333836,-0.913433373,4.365588188,-12,-15,83,148,299
1695162417222852500,-8.895656586,-1.723825216,-1.015141487,-0.73077333,-0.12337213,-0.51000917,-7,0,15,31,24,-2.555810213,6.968324184,3.507505417,0.249808565,-0.860673785,4.365588188,-11,-16,88,146,301
1695162417223852500,-8.898050308,-1.729810715,-1.013944387,-0.712920368,-0.12936753,-0.50428021,-6,0,14,32,24,-2.226607561,6.868964672,3.542221308,0.233554363,-0.788196027,4.365588188,-9,-11,94,149,308
1695162417224852500,-8.896853447,-1.736993313,-1.012747288,-0.694001555,-0.136029094,-0.498018384,-6,0,15,30,23,-2.078166962,6.815094948,3.557783842,0.22489433,-0.751290977,4.365588188,-12,-18,93,147,306
1695162417225852500,-8.892065048,-1.741781712,-1.001973391,-0.673750401,-0.143356815,-0.49135682,-5,0,19,30,21,-1.855506301,6.752845764,3.558980942,0.211704448,-0.694800973,4.365588188,-11,-11,95,152,307
1695162417271824700,-9.142259598,-1.367089152,-1.157596469,-0.360790193,-0.292975485,-0.313359886,-7,0,16,31,15,0.901416957,5.412093163,3.64277792,-0.395163864,0.119908117,2.78399992,11,-4,116,156,309
1695162417272824700,-9.179368973,-1.341950059,-1.170764685,-0.359324634,-0.298304737,-0.303367525,-3,0,17,31,22,1.048660398,5.349843502,3.669114113,-0.436732024,0.15481469,2.680745602,13,-3,116,156,309
1695162417273824700,-9.211690903,-1.313219666,-1.185129881,-0.359857589,-0.303234309,-0.293641627,-6,0,16,30,23,1.195903778,5.278017521,3.689464808,-0.476434916,0.192519143,2.574826956,13,-3,116,156,308
1695162417274824700,-9.24760437,-1.282094955,-1.200692177,-0.362255752,-0.30749771,-0.284049004,-7,-2,15,37,23,1.362300754,5.208585739,3.701435804,-0.514938712,0.23222205,2.466376543,15,-2,117,154,305
1695162417275824700,-9.284713745,-1.254561663,-1.216254473,-0.366519153,-0.311894357,-0.274989277,-7,-2,14,31,23,1.517923832,5.122394562,3.706224203,-0.55264318,0.273523748,2.355794668,13,-2,116,152,302
1695162417343785400,-9.775525093,-1.161187768,-1.600523829,-0.691070437,-0.347200602,-0.19425115,-6,0,16,30,25,2.8969841,3.464409828,3.670311213,-0.564900458,0.692935646,0.98737669,5,7,104,148,289
1695162417344785400,-9.776722908,-1.176750183,-1.620874524,-0.7131868,-0.345735073,-0.194917306,-6,0,16,28,23,2.890998602,3.450044632,3.701435804,-0.540652335,0.67055279,0.967125535,6,8,106,146,288
1695162417345785400,-9.773131371,-1.198297977,-1.640028119,-0.734503806,-0.343869835,-0.196249619,-2,0,16,31,23,2.877830505,3.465606928,3.744531393,-0.517336905,0.644439518,0.949139357,5,10,108,143,285
1695162417346785400,-9.767146111,-1.218648672,-1.656787634,-0.755287945,-0.341338426,-0.198248088,-7,0,15,29,24,2.865859509,3.514688015,3.804386616,-0.495753467,0.614595711,0.931686044,6,12,109,146,288
1695162417347785400,-9.758766174,-1.236605167,-1.675941229,-0.775139332,-0.338274121,-0.200646251,-7,-2,16,28,23,2.855085611,3.585317135,3.873818398,-0.476568133,0.582353771,0.91463244,5,11,105,144,285
1695162417404748000,-9.327810287,-1.545457244,-1.814804912,-0.94221133,-0.191852987,-0.316424191,-7,-1,19,29,23,3.353079557,5.492298603,4.542997837,-0.911434889,0.15841195,0.337741196,7,11,105,142,279
1695162417405748000,-9.30386734,-1.555034041,-1.804031014,-0.940079629,-0.18079479,-0.322153151,-4,0,19,31,23,3.415328741,5.468356609,4.560954094,-0.949539006,0.174399704,0.280318528,9,13,108,143,277
1695162417406748000,-9.281123161,-1.565807939,-1.798045516,-0.937148511,-0.169869825,-0.32721591,-1,-2,19,30,25,3.479972124,5.403713226,4.553771496,-0.984712064,0.201978564,0.225560486,9,15,111,142,277
1695162417407748000,-9.255983353,-1.575384736,-1.786074519,-0.93288517,-0.159344569,-0.331745774,-3,-3,19,30,21,3.527856112,5.355829239,4.485537052,-1.011758089,0.237151608,0.170003071,7,16,108,143,276
1695162417408748000,-9.228450775,-1.586158633,-1.775300503,-0.927555919,-0.148819283,-0.335742712,-4,1,17,31,25,3.544615507,5.287594318,4.365826607,-1.031609416,0.27379021,0.110848397,5,16,110,143,275
1695162417466713300,-8.744821548,-1.532289028,-1.350329757,-0.684941769,-0.037437979,-0.343203664,-8,-1,21,31,25,4.042609692,3.743334293,4.134786129,-0.360923439,0.194650844,-0.201179162,5,14,108,143,267
1695162417467713300,-8.730456352,-1.509544134,-1.326387763,-0.672018409,-0.036771823,-0.340805531,-2,0,21,34,23,4.108449936,3.770867586,4.231751442,-0.335742712,0.155081168,-0.192119434,5,15,109,142,268
1695162417468713300,-8.720879555,-1.484405041,-1.312022567,-0.659894347,-0.036771823,-0.337874413,-3,-3,17,30,21,4.183867455,3.800795317,4.339490414,-0.319621742,0.115111791,-0.186257273,-5,15,105,138,267
1695162417469713300,-8.712499619,-1.458068848,-1.303642869,-0.649102569,-0.037171517,-0.334810108,-7,0,21,31,27,4.279635429,3.82713151,4.452018261,-0.312560499,0.076208271,-0.183459431,5,11,109,142,263
1695162417470713300,-8.706514359,-1.430535555,-1.291671872,-0.639776468,-0.038237367,-0.331479341,-7,-2,16,31,23,4.380191803,3.848679304,4.57172823,-0.315091878,0.039036751,-0.183725879,5,14,110,143,267
1695162417559473100,-8.798690796,-1.027112484,-1.088164687,-0.693601847,-0.119508423,-0.206508413,-3,2,23,32,27,5.470750809,1.827973008,4.656722069,-0.56983,-0.163874418,-0.838024497,11,14,117,143,266
1695162417560473100,-8.805873871,-1.006761789,-1.086967587,-0.706258774,-0.125770286,-0.197981626,-2,2,23,35,28,5.45997715,1.70826292,4.618414879,-0.504146993,-0.153882071,-0.873197496,11,16,116,143,268
1695162417561473100,-8.815450668,-0.991199493,-1.091755986,-0.719848394,-0.132032156,-0.189721286,-1,2,21,33,24,5.426458359,1.625662923,4.593276024,-0.430736601,-0.144555897,-0.903574288,14,15,115,144,266
1695162417562473100,-8.828619003,-0.979228497,-1.098938584,-0.734104156,-0.138294026,-0.181594178,-5,2,19,30,27,5.392939091,1.589749932,4.583699226,-0.378909618,-0.138826951,-0.921560466,11,14,113,142,265
1695162417563473100,-8.840589523,-0.969651699,-1.106121182,-0.74902606,-0.144822344,-0.173067391,-2,0,19,33,27,5.330689907,1.572990537,4.568136692,-0.29710567,-0.131232768,-0.946208298,9,13,115,144,264
1695162417601861500,-8.809465408,-1.086967587,-1.343147159,-1.044666171,-0.221563548,-0.02051761,-4,0,17,31,27,2.254140854,5.852625847,5.433640957,-0.034107197,-0.042234302,-1.635280252,8,14,110,143,263
1695162417602861500,-8.799888611,-1.110909581,-1.357512355,-1.052926421,-0.220897391,-0.012257273,-4,3,19,35,26,2.118868589,6.021417141,5.401319027,-0.081271052,-0.028378254,-1.662059665,13,11,111,143,263
1695162417603861500,-8.792705536,-1.134851575,-1.37546885,-1.060387492,-0.219964772,-0.003863706,-3,1,22,35,30,2.037465572,6.120776653,5.378573895,-0.111381322,-0.018519141,-1.676448703,13,15,113,144,265
1695162417604861500,-8.786720276,-1.157596469,-1.391031146,-1.066382766,-0.218232766,0.004529862,-1,0,19,34,26,1.916558504,6.251260757,5.335478306,-0.153082699,-0.003064318,-1.69123733,13,15,115,143,266
1695162417605861500,-8.780735016,-1.179144382,-1.41138196,-1.071179152,-0.216500759,0.012790199,-1,1,20,31,27,1.794454217,6.358999729,5.28280592,-0.188788652,0.013189893,-1.697232842,13,17,109,142,262
1695162417711563000,-8.823830605,-1.532289028,-1.507149935,-0.967125535,-0.156946406,0.180261865,-2,0,21,36,27,-0.752976418,9.241618156,5.330689907,0.242214397,0.103920363,-0.880258799,10,17,105,137,261
1695162417712563000,-8.828619003,-1.547851443,-1.493981838,-0.952470124,-0.152683005,0.190920368,-2,5,23,33,27,-0.756567717,9.340977669,5.376179695,0.246078104,0.104053594,-0.828431845,10,14,105,137,260
1695162417713563000,-8.834604263,-1.567005038,-1.482010841,-0.93648243,-0.148286372,0.20157887,-1,0,20,38,28,-0.74339962,9.408015251,5.408501625,0.245278716,0.10285452,-0.777137816,10,15,101,140,264
1695162417714563000,-8.840589523,-1.584961534,-1.472434044,-0.920228124,-0.14388974,0.212370604,-2,0,21,31,28,-0.720654726,9.43914032,5.438429356,0.240882084,0.099923424,-0.726243496,14,16,101,141,261
1695162417715563000,-8.84896946,-1.602918029,-1.454477549,-0.903307796,-0.139359877,0.223162323,-3,3,21,35,27,-0.683544576,9.440337181,5.462371349,0.233820826,0.095793262,-0.675748825,17,12,103,141,268
1695162417757554900,-9.044096947,-1.768117905,-1.260547161,-0.606601834,-0.100056656,0.371049017,-6,2,19,32,25,1.289277673,6.937199593,5.367800236,0.357992321,-0.05808882,0.028911179,10,15,103,137,263
1695162417758554900,-9.053673744,-1.771709204,-1.244984865,-0.59634304,-0.099790201,0.375312388,-2,0,24,30,29,1.382651448,6.812700748,5.370194435,0.377977014,-0.054225113,0.041168455,9,14,99,137,261
1695162417759554900,-9.063250542,-1.771709204,-1.233013868,-0.587016821,-0.099523738,0.379575789,-2,0,15,31,25,1.441309452,6.732495308,5.368997097,0.391033709,-0.050494641,0.047563553,9,12,105,138,259
1695162417760554900,-9.0740242,-1.776497602,-1.217451572,-0.578490078,-0.099390499,0.383173048,-4,0,19,32,27,1.522712231,6.6163764,5.3570261,0.409819305,-0.043966308,0.05489127,9,15,101,137,261
1695162417761554900,-9.084798813,-1.780089021,-1.209071875,-0.570762634,-0.099124044,0.386503845,-5,2,17,34,25,1.602918029,6.50744009,5.337872505,0.427805513,-0.037038282,0.059021436,9,19,103,138,258
1695162417805212900,-9.282320023,-1.810016513,-1.073799491,-0.586883605,-0.122572735,0.36984992,-1,0,21,31,30,2.245761156,5.772420406,4.843470097,0.452852994,0.105119444,-0.148419604,14,14,101,136,261
1695162417806212900,-9.290699959,-1.813607812,-1.072602391,-0.594744265,-0.124704443,0.365453273,-1,0,21,34,28,2.242169857,5.780799866,4.807557106,0.434467077,0.10805054,-0.167071983,13,9,99,134,259
1695162417807212900,-9.299078941,-1.818396211,-1.072602391,-0.603137791,-0.126836136,0.361323118,-1,0,19,34,27,2.239775658,5.786785603,4.771644115,0.414615631,0.110448696,-0.1854579,14,15,103,136,260
1695162417808212900,-9.305065155,-1.82079041,-1.072602391,-0.611797869,-0.128834605,0.356793284,-2,3,20,36,27,2.237381458,5.787982464,4.735731125,0.39423123,0.112713635,-0.203044415,9,15,100,138,258
1695162417809212900,-9.311050415,-1.825578809,-1.070208192,-0.620990813,-0.130699843,0.351863712,-1,2,23,32,28,2.234987259,5.786785603,4.699818134,0.37344715,0.114978559,-0.219831541,13,14,100,138,259
1695162417867460300,-9.340977669,-2.04464817,-1.158793569,-0.739033639,-0.155880541,0.256070435,-2,4,23,34,27,1.513135433,5.434837818,4.056974888,0.132831544,0.225560486,-0.459914237,15,13,103,136,258
1695162417868460300,-9.338583946,-2.061407566,-1.164779186,-0.737035215,-0.156147003,0.252339959,-1,3,19,36,29,1.454477549,5.406107426,4.033032894,0.123905048,0.233820826,-0.472571194,10,12,104,137,257
1695162417869460300,-9.337387085,-2.080561161,-1.164779186,-0.734104156,-0.156013787,0.249009192,-4,1,18,38,24,1.394622445,5.368997097,4.013879299,0.114712104,0.241947934,-0.485761106,13,16,103,130,256
1695162417870460300,-9.333795547,-2.094926596,-1.168370485,-0.729707539,-0.156013787,0.245811626,-4,1,24,36,26,1.329979062,5.330689907,3.997119665,0.105519146,0.250208259,-0.499350697,10,12,105,137,258
1695162417871460300,-9.329007149,-2.108094692,-1.171961784,-0.724111736,-0.155880541,0.243013784,-1,2,17,32,27,1.256955862,5.279214859,3.983951569,0.09659265,0.258335382,-0.513872921,7,13,106,136,260
1695162418034611900,-9.369708061,-2.327163935,-1.159990668,-0.473770291,-0.107917301,0.208906576,-2,3,17,35,30,0.256179571,3.846285105,3.490746021,0.15841195,0.356926501,-0.893981636,11,3,108,134,253
1695162418035611900,-9.375694275,-2.328361034,-1.15161097,-0.457915753,-0.103520676,0.205575794,-2,0,22,34,27,0.220266551,3.79480958,3.454833031,0.170269519,0.358791709,-0.917696834,11,3,106,131,256
1695162418036611900,-9.382876396,-2.327163935,-1.140837073,-0.442327708,-0.099257268,0.201845318,-4,0,19,34,29,0.191536129,3.75650239,3.416525841,0.181061253,0.360790193,-0.94221133,10,3,105,130,256
1695162418037611900,-9.387664795,-2.321178436,-1.131260276,-0.427405834,-0.094993874,0.197581932,-3,3,20,34,25,0.169988319,3.7193923,3.371036053,0.191320062,0.36305514,-0.96765852,19,4,108,134,251
1695162418038611900,-9.390059471,-2.318784237,-1.124077678,-0.413416535,-0.090597242,0.192652375,-3,0,21,32,23,0.165199921,3.689464808,3.321954966,0.200779468,0.365852982,-0.993238926,8,-2,102,131,254
1695162418069568700,-9.087192535,-2.218227863,-0.81881696,-0.309629381,-0.037171517,0.007860643,-7,1,20,35,28,-0.238223076,3.412934542,3.064578056,0.106984682,0.54438287,-1.543883562,17,-1,78,112,250
1695162418070568700,-9.069235802,-2.211045265,-0.805648863,-0.309762627,-0.035972435,-0.005595712,-2,0,20,34,28,-0.293289721,3.391386747,3.130418777,0.086467072,0.578623295,-1.577591062,14,-3,72,111,249
1695162418071568700,-9.053673744,-2.201468468,-0.790086567,-0.310029089,-0.035173047,-0.019052068,-2,3,19,35,27,-0.356736064,3.375824451,3.185485363,0.065683,0.616860628,-1.611165404,16,1,68,110,250
1695162418072568700,-9.040505409,-2.19428587,-0.78170687,-0.310695261,-0.034640122,-0.032774884,-2,2,23,38,28,-0.459686726,3.368641853,3.23336935,0.035306279,0.67161864,-1.656064391,11,-1,63,105,248
1695162418073568700,-9.028534889,-2.185906172,-0.772130072,-0.311627865,-0.034506891,-0.046630934,-1,0,19,36,26,-0.542286694,3.367444754,3.250128746,0.013456355,0.715052068,-1.690304756,17,-1,62,100,247
1695162418105547700,-9.059659004,-1.826775908,-0.597353339,-0.435666144,-0.048895866,-0.300169975,-3,0,20,32,27,-3.173514366,4.256890774,3.506308317,-0.143090352,1.52603054,-2.266929626,-10,-1,1,58,226
1695162418106547700,-9.065644264,-1.801636815,-0.602141738,-0.450721264,-0.049562022,-0.313759565,-2,1,20,33,29,-3.333925962,4.377797604,3.552995205,-0.163341507,1.579589486,-2.297173023,-12,-2,-1,62,226
1695162418107547700,-9.070432663,-1.772906303,-0.608127236,-0.466575801,-0.050228179,-0.327082694,-5,1,20,34,25,-3.509899616,4.46039772,3.580528736,-0.186923429,1.633681417,-2.332879066,-10,-2,-2,53,224
1695162418108547700,-9.077615738,-1.74896431,-0.615309834,-0.483229697,-0.051160797,-0.340672255,-3,3,21,32,27,-3.676296711,4.542997837,3.629609823,-0.217699856,1.691370487,-2.370316982,-11,1,-2,61,226
1695162418109547700,-9.084798813,-1.731007814,-0.617704034,-0.50068301,-0.051960181,-0.354395092,-3,2,20,32,28,-3.851073503,4.619612217,3.648763418,-0.259667695,1.751990795,-2.409087181,-12,-1,-4,62,225
1695162418148207400,-9.095572472,-1.620874524,-0.610521436,-0.800586522,-0.047963247,-0.572627902,-3,0,20,38,29,-8.033743858,6.02620554,4.013879299,-1.311794877,2.700730562,-3.501450062,-24,4,-31,38,210
1695162418149207400,-9.082404137,-1.620874524,-0.602141738,-0.809646249,-0.045298621,-0.58128792,-3,2,20,32,29,-8.251616478,6.046556473,3.969586372,-1.388935685,2.7316401,-3.57605958,-27,4,-32,37,210
1695162418150207400,-9.071630478,-1.618480325,-0.591367841,-0.818439543,-0.041834611,-0.589681447,-6,0,21,36,27,-8.438364029,6.035782337,3.916913986,-1.465676785,2.756687641,-3.649203539,-25,-2,-33,38,210
1695162418151207400,-9.065644264,-1.614889026,-0.572214186,-0.826566637,-0.038104136,-0.597542107,-1,1,21,35,27,-8.601169586,5.993884087,3.885789394,-1.536156178,2.780535936,-3.72221446,-26,4,-32,34,209
1695162418152207400,-9.058462143,-1.611297727,-0.550666392,-0.834960163,-0.033840735,-0.605136335,-4,4,23,31,28,-8.757989883,5.919663906,3.857059002,-1.599574327,2.805849791,-3.791095018,-27,0,-31,36,210
1695162418212575600,-9.246406555,-1.742978811,-0.136469498,-0.999500751,-0.06008729,-0.656030655,-2,1,16,31,28,-11.93389797,3.171120167,2.758120298,-1.418379784,3.362623215,-4.242882252,-30,0,-34,28,204
1695162418213575600,-9.29788208,-1.795651317,-0.081402861,-0.99310565,-0.081271052,-0.647370577,-2,1,16,34,27,-12.20563984,3.031059265,2.652775526,-1.325517535,3.385405779,-4.229825497,-30,1,-33,26,205
1695162418214575600,-9.345766068,-1.842338204,-0.025139118,-0.981514513,-0.105519146,-0.637378275,-1,1,15,35,28,-12.4917469,2.887407303,2.543839216,-1.223728895,3.40472436,-4.215303421,-30,-1,-34,26,202
1695162418215575600,-9.387664795,-1.877054095,0.031124622,-0.96406126,-0.13243185,-0.627252638,-1,1,15,32,27,-12.68328381,2.792836189,2.463633537,-1.150318503,3.416049004,-4.205044746,-27,2,-33,28,208
1695162418216575600,-9.421183586,-1.910573006,0.08379706,-0.941811681,-0.161076576,-0.617660046,-1,5,16,39,29,-12.98614979,2.644395828,2.336740971,-1.031609416,3.430571079,-4.189322948,-27,0,-33,30,206
1695162418284649800,-8.65743351,-1.547851443,0.305260718,-0.540652335,-0.35159725,-0.570096493,-1,2,15,39,27,-19.61330032,3.884592295,0.714669228,2.840756416,3.333578825,-4.353730202,-30,3,-34,22,208
1695162418285649800,-8.63109684,-1.531091928,0.284909993,-0.543183744,-0.335476279,-0.56663245,-1,1,15,30,27,-19.61330032,4.222174644,0.713472128,3.056191444,3.328915596,-4.365721226,-35,-1,-34,25,209
1695162418286649800,-8.603564262,-1.531091928,0.257376671,-0.54798007,-0.317356825,-0.561436415,-1,1,17,34,27,-19.61330032,4.594472885,0.74339962,3.259502172,3.320921898,-4.365721226,-30,4,-33,22,209
1695162418287649800,-8.58680439,-1.522712231,0.229843363,-0.555840731,-0.29817152,-0.55477488,-1,0,13,32,27,-19.61330032,4.849455357,0.766144514,3.385672092,3.313594103,-4.365721226,-29,1,-32,22,208
1695162418288649800,-8.578424454,-1.519120932,0.20350714,-0.5662328,-0.27738744,-0.547580421,-1,2,13,34,27,-19.61330032,5.231330872,0.803254664,3.566200733,3.30040431,-4.365721226,-33,3,-31,24,210
1695162418374834000,-8.846575737,-1.982398987,-0.14963761,-0.577823877,0.026779478,-0.341471672,-3,1,12,32,26,-17.83799934,11.22641182,0.608127236,3.973088741,2.070813179,-4.365721226,-35,2,-32,20,204
1695162418375834000,-8.856152534,-2.000355482,-0.156820208,-0.556506872,0.032774884,-0.331612557,-1,5,15,30,31,-17.44175911,11.26711273,0.650025785,3.854912519,1.978350639,-4.363323212,-35,3,-33,13,203
1695162418376834000,-8.863334656,-2.011129379,-0.161608621,-0.5339908,0.038104136,-0.321620196,-4,0,16,34,25,-17.02397156,11.27788734,0.711077929,3.726477623,1.890284777,-4.243548393,-34,1,-30,22,204
1695162418377834000,-8.858546257,-2.020706177,-0.16639702,-0.510542154,0.043033689,-0.311627865,-1,0,16,32,27,-16.60498619,11.23598862,0.790086567,3.588583469,1.809147,-4.110316753,-37,4,-31,21,201
1695162418378834000,-8.853757858,-2.023100376,-0.169988319,-0.486160785,0.04769678,-0.301635504,-2,0,13,31,28,-16.19078827,11.1462059,0.865503907,3.443627834,1.734937191,-3.962430239,-33,0,-32,24,201
1695162418469779300,-8.68975544,-1.651999116,-0.349553436,-0.205442563,0.132565081,-0.094727404,-1,0,10,34,25,-13.07712936,7.035361767,1.276109457,1.06838131,0.974719763,-0.029444104,-32,3,-29,21,202
1695162418470779300,-8.677783966,-1.646013618,-0.360327363,-0.199980095,0.13975957,-0.080471672,-2,4,13,29,27,-13.10107136,6.818686485,1.30124867,1.029610991,0.951137781,0.143356815,-31,-1,-27,25,202
1695162418471779300,-8.668207169,-1.640028119,-0.36990416,-0.194650844,0.147620216,-0.065416537,-2,3,17,34,29,-13.12501335,6.612784863,1.318008065,1.002298594,0.927022934,0.304699838,-35,-2,-31,19,198
1695162418472779300,-8.659827232,-1.638831019,-0.375889659,-0.189321592,0.156147003,-0.049428791,-1,0,16,31,27,-13.14536476,6.421248913,1.334767461,0.986577332,0.902508378,0.454718202,-34,1,-28,24,201
1695162418473779300,-8.650250435,-1.644816518,-0.381875157,-0.183992341,0.165339977,-0.033041347,1,3,17,32,30,-13.15972996,6.242880821,1.352723956,0.98018223,0.877327681,0.592879057,-35,-2,-28,25,201
1695162418518489100,-8.882488251,-2.147598982,-0.403422982,0.138294026,0.353595704,0.385571182,-1,0,13,32,27,-11.26950741,5.231330872,1.418564558,2.127569675,0.479099542,1.031875968,-31,-2,-29,31,200
1695162418519489100,-8.916007042,-2.182314873,-0.398634583,0.172401235,0.361189902,0.410085768,-1,2,16,31,27,-11.12346077,5.27682066,1.41138196,2.190721273,0.45192036,0.974852979,-34,-1,-25,29,199
1695162418520489100,-8.956708908,-2.215833664,-0.395043284,0.207707509,0.368384391,0.434067398,-1,3,14,38,30,-10.98579407,5.329493046,1.400607944,2.248676777,0.422476262,0.915964782,-37,-2,-24,31,200
1695162418521489100,-8.985439301,-2.238578558,-0.391451985,0.231955588,0.372781008,0.44978866,-1,1,16,35,29,-10.84453678,5.383362293,1.391031146,2.300503731,0.390367538,0.855744243,-35,-1,-27,29,197
1695162418522489100,-9.028534889,-2.26850605,-0.383072257,0.269393563,0.37917611,0.473370582,-3,-1,12,33,26,-10.70806694,5.448006153,1.379060149,2.345402718,0.355860651,0.795390487,-34,-1,-23,31,198
1695162418576593300,-10.25556278,-3.001131773,-0.37349546,0.828565061,0.230356812,0.439263374,-1,3,12,30,30,-9.038111687,6.550535679,1.276109457,1.738401175,-0.536921918,0.221430331,-35,-2,-24,31,189
1695162418577593300,-10.29027843,-3.065775394,-0.363918662,0.836558938,0.207174569,0.405955583,-1,5,17,32,27,-9.005789757,6.567295074,1.236605167,1.651134729,-0.587949455,0.221163854,-37,-1,-21,31,198
1695162418578593300,-10.32858658,-3.113659382,-0.355538964,0.841355324,0.181993872,0.377577305,-3,3,15,31,26,-8.983044624,6.573280811,1.192312479,1.563335299,-0.638177633,0.223029092,-34,-2,-21,31,197
1695162418579593300,-10.35252857,-3.161543369,-0.345962137,0.844019949,0.156679943,0.35372895,-1,0,13,30,27,-8.971074104,6.573280811,1.148019671,1.474869728,-0.687339962,0.226093426,-34,-2,-25,36,198
1695162418580593300,-10.36569595,-3.217807055,-0.330399841,0.845219016,0.13243185,0.336408883,-4,0,15,29,27,-8.972270966,6.563704014,1.095347285,1.386271119,-0.736502349,0.230490044,-34,-2,-22,31,194
1695162418635449100,-9.124302864,-3.142389774,-0.417788208,1.560804009,0.210638598,0.759151578,-1,1,20,30,27,-10.22922707,5.416881561,0.089782566,0.408753455,-1.435566545,0.544915795,-35,-2,-24,31,197
1695162418636449100,-9.03571701,-3.105279684,-0.451307029,1.633281827,0.240482375,0.779003024,-2,0,17,30,25,-10.29506683,5.3570261,0.064643443,0.399826974,-1.454618692,0.570229709,-33,-2,-21,28,196
1695162418637449100,-8.947132111,-3.065775394,-0.48123455,1.706159234,0.272191435,0.797921896,-2,1,16,28,27,-10.35133076,5.298368454,0.039504327,0.394497722,-1.470872879,0.595943332,-39,-3,-20,31,198
1695162418638449100,-8.858546257,-3.026270866,-0.512359142,1.778637052,0.305366009,0.815241933,-2,0,15,32,23,-10.39322948,5.240907669,0.023942016,0.392632455,-1.484196067,0.622323155,-35,1,-21,30,197
1695162418639449100,-8.77834034,-2.987963676,-0.536301196,1.850448728,0.339339972,0.831629395,-6,0,17,32,27,-10.42195988,5.185841084,0.01316811,0.393698305,-1.494588137,0.649235845,-34,-3,-21,30,198
1695162418780297700,-8.197746277,-2.610877037,-0.579396784,2.810912609,0.567431867,1.044399738,-4,0,15,30,25,-8.774748802,4.349067211,0.468066424,0.779269516,-1.100490093,1.244646311,-33,-2,-19,34,196
1695162418781297700,-8.183381081,-2.584540844,-0.566228688,2.839823961,0.553575814,1.044666171,-4,0,19,31,27,-8.644265175,4.308365822,0.507570744,0.806448698,-1.053059697,1.281418085,-34,-2,-18,34,198
1695162418782297700,-8.175002098,-2.555810213,-0.55784899,2.867402554,0.53758806,1.043866754,-7,1,16,30,19,-8.519766808,4.265270233,0.543483794,0.832695246,-1.004297137,1.317923427,-38,-2,-17,32,196
1695162418783297700,-8.173804283,-2.527079821,-0.554257691,2.893915653,0.519735038,1.042534471,-2,0,19,30,26,-8.408436775,4.223371983,0.577002585,0.858408868,-0.954601824,1.354828477,-33,-2,-18,31,194
1695162418784297700,-8.176198959,-2.49236393,-0.55904609,2.919363022,0.500283301,1.040802479,-3,0,19,29,28,-8.305485725,4.183867455,0.609324336,0.882790208,-0.904373705,1.391866803,-33,-2,-17,32,196
1695162418928204100,-8.956708908,-1.473631144,-0.696712673,2.927090406,0.023315467,0.883456349,-4,0,19,35,28,-8.498218536,3.8654387,1.467645645,0.935416579,-0.110848397,1.927989364,-31,-3,-16,34,194
1695162418929204100,-9.030928612,-1.432929754,-0.694318473,2.900044441,-0.000799387,0.877327681,-2,0,19,33,28,-8.604761124,3.875015497,1.521515131,0.909303188,-0.08313629,1.935849905,-34,-2,-21,32,197
1695162418930204100,-9.10036087,-1.393425345,-0.697909772,2.8707335,-0.023448698,0.872531414,-2,1,15,30,25,-8.720879555,3.884592295,1.572990537,0.880392075,-0.057156201,1.940779448,-34,-3,-17,36,196
1695162418931204100,-9.167398453,-1.353921056,-0.695515573,2.839157581,-0.044499233,0.868800879,-4,0,14,31,25,-8.838195801,3.895366192,1.613691926,0.848816216,-0.033174578,1.942511439,-32,-3,-17,36,195
1695162418932204100,-9.238027573,-1.322796464,-0.699106872,2.805583477,-0.064084224,0.866402745,-1,1,15,33,25,-8.954314232,3.906140089,1.654393315,0.814709067,-0.011058193,1.940779448,-33,-2,-16,32,197
1695162419068148400,-9.307458878,-1.453280449,-0.788889468,1.951304793,-0.242081165,0.864271045,-5,0,15,29,27,-10.14542961,3.772064686,2.19308877,-0.021050537,0.102454826,1.38054204,-35,-4,-15,32,194
1695162419069148400,-9.233239174,-1.495178938,-0.811634362,1.883090258,-0.25300613,0.852013826,-1,0,15,29,29,-10.10233402,3.734954596,2.200271368,-0.059687596,0.094460949,1.331912756,-34,-2,-17,37,196
1695162419070148400,-9.179368973,-1.522712231,-0.829590917,1.83206284,-0.261666149,0.840822339,-4,1,19,34,27,-10.0460701,3.696647406,2.212242365,-0.096192956,0.08513476,1.282750368,-34,-3,-18,34,195
1695162419071148400,-9.125499725,-1.551442742,-0.852335811,1.781168461,-0.27059263,0.82789892,-2,3,16,30,25,-9.979032516,3.652354717,2.227804661,-0.130300149,0.075408876,1.233321667,-37,-5,-13,37,196
1695162419072148400,-9.071630478,-1.580173135,-0.873883605,1.730540514,-0.279785603,0.813376725,-5,0,16,31,30,-9.904812813,3.60327363,2.23139596,-0.161742732,0.064750381,1.183626413,-33,-2,-16,36,196
1695162419145080100,-9.181763649,-1.902193308,-1.381454349,1.014422655,-0.504813194,0.326949447,-1,0,20,32,27,-8.157045364,2.586935043,2.579752445,-0.249941811,-0.098191425,0.47989893,-33,-4,-16,34,192
1695162419146080100,-9.25358963,-1.906981707,-1.419761658,0.992439508,-0.521733522,0.301102608,-3,0,19,30,27,-8.091204643,2.548627615,2.618059635,-0.233820826,-0.097258806,0.456317008,-30,-2,-15,36,191
1695162419147080100,-9.325415611,-1.912967205,-1.454477549,0.972454786,-0.538787127,0.276721269,-1,0,19,30,27,-8.024167061,2.515108824,2.649184227,-0.21663399,-0.095127106,0.433267981,-33,-3,-17,33,192
1695162419148080100,-9.404424667,-1.915361404,-1.48679924,0.954202175,-0.555973947,0.254205197,-1,1,16,32,27,-7.959523678,2.479195833,2.680308819,-0.197981626,-0.091929555,0.411018372,-34,-5,-16,36,194
1695162419149080100,-9.482235909,-1.918952703,-1.528697729,0.938214421,-0.573294044,0.233021438,-2,0,19,34,25,-7.894880295,2.45166254,2.716221809,-0.178796321,-0.087799385,0.389168471,-32,-3,-16,35,194
1695162419221040700,-10.49977112,-1.9321208,-2.373851061,0.949405789,-0.777404308,0.11817611,-1,5,21,31,29,-7.796717644,2.711433411,2.841917515,0.196915776,-0.088199086,-0.106052071,-31,-2,-16,36,193
1695162419222040700,-10.49019432,-1.923741102,-2.41455245,0.956333816,-0.775272548,0.121373661,-4,2,20,29,21,-7.846996307,2.759317398,2.817975283,0.209173039,-0.104320064,-0.137761101,-31,-2,-17,34,193
1695162419223040700,-10.47463226,-1.920149803,-2.45405674,0.962595701,-0.771142364,0.124571204,-1,1,20,31,25,-7.894880295,2.804807186,2.783259392,0.220231235,-0.122972436,-0.169603363,-33,-3,-18,37,192
1695162419224040700,-10.45188713,-1.914164305,-2.49236393,0.968058169,-0.765413463,0.127768755,-4,2,21,30,26,-7.941566944,2.847903013,2.746149302,0.229957119,-0.14388974,-0.200779468,-21,-5,-15,34,194
1695162419225040700,-10.42435455,-1.911770105,-2.52827692,0.97232157,-0.758219004,0.130566612,-1,0,15,30,25,-7.987056732,2.888604403,2.706645012,0.238084227,-0.167471662,-0.231555894,-35,-2,-15,37,195
1695162419296992700,-9.220070839,-1.8602947,-2.875436306,0.744096458,-0.401292503,0.017986218,-3,3,20,30,28,-8.706514359,3.575740337,1.987187386,0.334810108,-0.738500774,-0.597142458,-34,-4,-18,33,196
1695162419297992700,-9.166201591,-1.872265697,-2.879027605,0.721180677,-0.376777947,-0.000666156,-2,0,22,30,25,-8.725667953,3.622427225,1.956062794,0.346534461,-0.755820811,-0.609666169,-37,-4,-17,34,193
1695162419298992700,-9.121908188,-1.887827992,-2.880224705,0.698264897,-0.35266307,-0.020650841,-3,0,17,36,26,-8.743624687,3.666719913,1.924938202,0.359324634,-0.770875931,-0.622189879,-35,-3,-15,36,192
1695162419299992700,-9.081207275,-1.900996208,-2.883816004,0.676015317,-0.329214364,-0.041701376,-2,1,21,30,24,-8.761581421,3.714603901,1.89620769,0.372647762,-0.783932626,-0.634980083,-34,-3,-17,32,193
1695162419300992700,-9.048885345,-1.916558504,-2.881421804,0.654298604,-0.306165397,-0.063551299,-1,0,21,35,24,-8.77834034,3.769670486,1.873462796,0.386770278,-0.794724345,-0.647503793,-35,-4,-21,32,190
1695162419377951100,-8.396465302,-2.142810583,-2.879027605,0.498551309,-0.015987748,-0.484828472,-2,0,21,30,28,-8.595184326,4.9763484,1.918952703,0.608067393,-0.61286366,-0.78846246,-38,-4,-18,37,194
1695162419378951100,-8.391676903,-2.127248287,-2.887407303,0.504679918,-0.006261868,-0.505212903,-4,1,16,34,25,-8.55448246,5.01465559,1.940500498,0.607934177,-0.588615596,-0.779269516,-31,-3,-15,35,193
1695162419379951100,-8.386888504,-2.112883091,-2.889801502,0.511607945,0.003064318,-0.524931073,-6,2,18,32,25,-8.500613213,5.060145378,1.96923089,0.605535984,-0.555174589,-0.763415039,-35,-1,-15,34,192
1695162419380951100,-8.386888504,-2.094926596,-2.893392801,0.519735038,0.012390506,-0.54438287,-2,0,19,34,27,-8.473079681,5.078101635,1.989581585,0.60353756,-0.538120985,-0.753955603,-33,-3,-16,32,196
1695162419381951100,-8.394071579,-2.073378563,-2.8993783,0.528395116,0.021849923,-0.563301682,-6,3,22,31,27,-8.426392555,5.102043629,2.019509077,0.599807084,-0.511874437,-0.737834632,-35,-6,-16,34,194
1695162419452903300,-8.82263279,-1.432929754,-2.82276392,0.69599998,0.241281778,-0.771941781,-1,1,22,32,28,-7.643488884,5.033809185,2.208651066,0.602205217,-0.136695251,-0.226226643,-35,-6,-17,31,193
1695162419453903300,-8.85495472,-1.393425345,-2.811989784,0.697865248,0.254338443,-0.775006115,-3,0,24,30,25,-7.617152691,5.026626587,2.209848166,0.613396645,-0.131499231,-0.199580401,-31,-4,-17,32,196
1695162419454903300,-8.876502991,-1.369483352,-2.809595585,0.698398173,0.262998462,-0.776338398,-3,0,24,30,27,-7.592013359,5.02064085,2.213439465,0.62538743,-0.128168449,-0.17346707,-38,-6,-19,32,194
1695162419455903300,-8.906430244,-1.334767461,-2.808398485,0.698264897,0.275655419,-0.777670741,-4,0,21,28,26,-7.565677166,5.01465559,2.214636564,0.637911141,-0.126436442,-0.148286372,-38,-2,-18,33,194
1695162419456903300,-8.933963776,-1.30005157,-2.800018787,0.696932614,0.288312376,-0.777937174,-2,1,24,33,26,-7.544129372,5.009867191,2.209848166,0.650967836,-0.126569673,-0.123505361,-35,-2,-16,31,193
1695162419546854400,-9.452308655,-0.987608194,-2.687491417,0.575425744,0.473370582,-0.661493123,-3,1,24,28,27,-7.331045628,5.009867191,2.049436569,0.857343078,-0.379842281,0.257269531,-34,-2,-19,33,194
1695162419547854400,-9.47744751,-0.993593693,-2.683900118,0.569563508,0.479499221,-0.651500762,-2,1,24,31,28,-7.329848289,5.023035049,2.036268473,0.860673785,-0.398228168,0.269393563,-34,-2,-18,31,196
1695162419548854400,-9.502586365,-0.995987892,-2.681505919,0.564367533,0.485228181,-0.641375184,-2,0,25,32,27,-7.333439827,5.045780182,2.025494576,0.863205194,-0.415947944,0.280318528,-35,-5,-18,34,195
1695162419549854400,-9.522936821,-1.001973391,-2.67432332,0.559970915,0.490557432,-0.631249607,-4,3,25,32,27,-7.332242489,5.066130638,2.012326479,0.86480397,-0.433267981,0.290177643,-34,-4,-18,31,193
1695162419550854400,-9.540893555,-1.011550188,-2.664746523,0.556506872,0.495753467,-0.620591104,-1,2,23,35,27,-7.332242489,5.085284233,2.002749681,0.866003036,-0.44978866,0.298704445,-30,-2,-16,32,192
1695162419626804400,-9.605537415,-1.171961784,-2.595314741,0.573693693,0.583686054,-0.475768775,-3,0,25,32,25,-7.39209795,5.530605793,1.726219416,0.762215912,-0.525996923,0.310961694,-32,-4,-20,36,194
1695162419627804400,-9.595960617,-1.183932781,-2.592920542,0.57449311,0.589281797,-0.473637074,-3,0,24,31,26,-7.39808321,5.552153587,1.721431017,0.749692142,-0.516537488,0.309496164,-35,-4,-17,33,193
1695162419628804400,-9.582792282,-1.192312479,-2.589329243,0.575425744,0.595543683,-0.471771836,-2,0,21,30,27,-7.401674747,5.571307182,1.717839718,0.736369014,-0.506012261,0.308163851,-33,-4,-19,35,193
1695162419629804400,-9.569623947,-1.200692177,-2.577358246,0.576358318,0.602338433,-0.470439523,-5,0,18,34,25,-7.399280548,5.592854977,1.716642618,0.722246528,-0.494421154,0.307231247,-37,-3,-17,30,194
1695162419630804400,-9.556455612,-1.218648672,-2.564189911,0.577424169,0.609532893,-0.46950686,-6,0,25,29,28,-7.399280548,5.61320591,1.719036818,0.707058191,-0.481764168,0.306698322,-34,-3,-18,33,194
1695162419700760800,-9.537302017,-1.388636947,-2.23259306,0.665756524,0.781401217,-0.514006138,-2,0,24,30,27,-7.5836339,5.766434669,1.868674397,0.350531399,-0.127901986,0.384372145,-33,-3,-17,32,196
1695162419701760800,-9.550470352,-1.383848548,-2.209848166,0.672284842,0.787796319,-0.518535972,-2,-11,25,34,26,-7.600393295,5.759252071,1.885433793,0.334277183,-0.108183771,0.393698305,-33,-3,-14,33,192
1695162419702760800,-9.563638687,-1.37786305,-2.184709072,0.678413451,0.793658495,-0.523065865,-2,1,23,31,25,-7.614758492,5.749675274,1.908178806,0.318822354,-0.089131698,0.40355742,-33,-2,-20,31,190
1695162419703760800,-9.575610161,-1.371877551,-2.161964178,0.684408903,0.79885453,-0.527862132,-1,1,20,32,25,-7.626729488,5.744886875,1.920149803,0.308830023,-0.076607957,0.4103522,-35,-2,-17,31,194
1695162419704760800,-9.58638382,-1.365892053,-2.142810583,0.690137804,0.803251147,-0.532525241,-4,2,20,34,27,-7.641094685,5.735310078,1.941697598,0.294041336,-0.058488514,0.420877486,-32,-2,-19,35,196
1695162419775718500,-9.747992516,-1.054645896,-1.760935307,0.699464023,0.823768795,-0.608600259,-2,0,25,32,27,-7.894880295,5.309142113,2.360682964,0.080871366,0.113646246,0.65656352,-31,-4,-15,32,194
1695162419776718500,-9.744400978,-1.033097982,-1.733402014,0.692535996,0.824168444,-0.610598803,-1,0,24,30,26,-7.91403389,5.28041172,2.37744236,0.073810108,0.114578865,0.667222023,-34,-3,-19,32,195
1695162419777718500,-9.740809441,-1.013944387,-1.703474522,0.684808552,0.824568152,-0.612330794,-1,0,23,34,26,-7.933187485,5.249287128,2.396595955,0.067148544,0.115111791,0.677214384,-44,-4,-9,31,195
1695162419778718500,-9.740809441,-0.999579191,-1.67115283,0.67628181,0.82536757,-0.61392951,-1,0,25,35,28,-7.95234108,5.224148273,2.418143749,0.060886677,0.115245022,0.68667376,-32,-3,-17,32,194
1695162419779718500,-9.738415718,-0.992396593,-1.647210717,0.670286357,0.826300144,-0.614462495,-1,1,25,38,27,-7.969100475,5.19781208,2.438494444,0.055290964,0.114978559,0.695600271,-32,-2,-16,33,196
1695162419861669200,-9.569623947,-0.739808321,-0.976834297,0.350931078,0.856277168,-0.5662328,-1,4,24,29,28,-8.50420475,5.013458252,2.620453835,0.019984685,0.08313629,0.702928066,-35,-3,-19,31,192
1695162419862669200,-9.555258751,-0.717063427,-0.952892303,0.319355279,0.850281775,-0.561303198,-1,0,24,34,27,-8.526948929,5.018246651,2.622848034,0.021450229,0.08020521,0.698664606,-35,-3,-19,34,192
