timestamp,EMG_s0,EMG_s1,EMG_s2,EMG_s3,EMG_s4,EMG_s5,EMG_s6,EMG_s7
1.6951631290712748e+18,-1.0,-1.0,0.0,-2.0,-1.0,-1.0,-1.0,-1.0
1.6951631290712748e+18,-1.0,-1.0,-2.0,-2.0,-1.0,1.0,-1.0,-2.0
1.6951631290722737e+18,-1.0,1.0,-1.0,-2.0,1.0,0.0,-1.0,-2.0
1.6951631290722737e+18,0.0,0.0,-1.0,-2.0,-2.0,-2.0,-1.0,-1.0
1.6951631290802916e+18,-1.0,-3.0,0.0,0.0,-1.0,-2.0,0.0,0.0
1.6951631290802916e+18,1.0,0.0,1.0,-1.0,-1.0,-1.0,-1.0,-1.0
1.6951631290802916e+18,0.0,0.0,-2.0,0.0,0.0,-1.0,0.0,-1.0
1.6951631290802916e+18,-1.0,-2.0,-2.0,-1.0,-2.0,-1.0,-2.0,-2.0
1.6951631290822715e+18,1.0,-1.0,0.0,-2.0,-2.0,-1.0,1.0,1.0
1.6951631290822715e+18,0.0,0.0,0.0,-1.0,0.0,0.0,-1.0,0.0
1.6951631290892634e+18,-1.0,0.0,-1.0,-2.0,-1.0,-1.0,-1.0,-1.0
1.6951631290892634e+18,-2.0,-1.0,0.0,-1.0,-1.0,-2.0,-2.0,0.0
1.6951631290992824e+18,-1.0,-1.0,0.0,-1.0,0.0,-1.0,-3.0,-2.0
1.6951631290992824e+18,-2.0,0.0,0.0,-2.0,1.0,0.0,0.0,-1.0
1.695163129113273e+18,-1.0,0.0,-1.0,-2.0,-2.0,3.0,-1.0,-1.0
1.695163129113273e+18,-1.0,-1.0,-2.0,-1.0,0.0,0.0,1.0,-1.0
1.6951631291282417e+18,0.0,-1.0,-1.0,-2.0,-1.0,-1.0,-2.0,-1.0
1.6951631291282417e+18,-2.0,0.0,-1.0,-1.0,0.0,-1.0,-3.0,-1.0
1.695163129130241e+18,0.0,-1.0,-2.0,0.0,1.0,-1.0,0.0,-2.0
1.695163129130241e+18,0.0,0.0,-1.0,-1.0,-3.0,-2.0,-1.0,0.0
1.695163129158247e+18,-1.0,-1.0,-1.0,1.0,-1.0,-2.0,1.0,-1.0
1.695163129158247e+18,0.0,0.0,-1.0,0.0,-1.0,-1.0,1.0,0.0
1.6951631291602235e+18,0.0,-1.0,1.0,-1.0,-2.0,-1.0,-1.0,0.0
1.6951631291602235e+18,0.0,-1.0,-2.0,0.0,-1.0,0.0,-1.0,1.0
1.695163129168242e+18,0.0,-1.0,0.0,-1.0,-3.0,0.0,-1.0,1.0
1.695163129168242e+18,0.0,-1.0,-1.0,1.0,-1.0,0.0,-2.0,0.0
1.69516312917022e+18,0.0,-1.0,-1.0,-1.0,-1.0,-2.0,-1.0,-1.0
1.69516312917022e+18,-2.0,-1.0,0.0,0.0,0.0,-1.0,0.0,-2.0
1.6951631291872077e+18,-2.0,-2.0,-1.0,0.0,0.0,1.0,1.0,-1.0
1.6951631291872077e+18,0.0,0.0,-1.0,0.0,0.0,-1.0,1.0,-2.0
1.6951631292201917e+18,-2.0,-2.0,-4.0,0.0,-2.0,1.0,-2.0,-2.0
1.6951631292201917e+18,-1.0,-2.0,-1.0,0.0,-1.0,-1.0,-1.0,-1.0
1.6951631292211886e+18,1.0,0.0,-1.0,-1.0,1.0,-2.0,-1.0,1.0
1.6951631292211886e+18,-1.0,-1.0,-1.0,0.0,-2.0,-1.0,-1.0,0.0
1.695163129225186e+18,0.0,1.0,1.0,0.0,-1.0,0.0,0.0,0.0
1.6951631292261855e+18,-2.0,1.0,1.0,-2.0,1.0,0.0,1.0,-1.0
1.695163129227185e+18,0.0,0.0,-2.0,-4.0,0.0,0.0,0.0,-1.0
1.695163129227185e+18,-1.0,-3.0,-1.0,-1.0,-1.0,-1.0,-1.0,0.0
1.6951631292321823e+18,1.0,0.0,1.0,-2.0,0.0,-2.0,0.0,1.0
1.6951631292321823e+18,-1.0,-1.0,-2.0,0.0,0.0,0.0,-1.0,0.0
1.6951631292481766e+18,-2.0,-2.0,1.0,0.0,-2.0,0.0,-1.0,-1.0
1.6951631292481766e+18,0.0,1.0,-3.0,-1.0,-1.0,1.0,-1.0,0.0
1.695163129254169e+18,-1.0,-1.0,0.0,-1.0,-1.0,0.0,1.0,-1.0
1.695163129254169e+18,0.0,-1.0,-2.0,-1.0,-1.0,-1.0,0.0,0.0
1.6951631292631647e+18,-1.0,-2.0,-2.0,-2.0,1.0,-2.0,-1.0,0.0
1.6951631292631647e+18,-2.0,0.0,-1.0,-2.0,-1.0,-2.0,-2.0,-1.0
1.6951631292811546e+18,-1.0,0.0,-1.0,-1.0,-1.0,-1.0,-1.0,-1.0
1.6951631292811546e+18,-1.0,1.0,-1.0,0.0,-1.0,-1.0,-3.0,0.0
1.6951631292921697e+18,0.0,-2.0,-1.0,-1.0,-2.0,0.0,0.0,0.0
1.6951631292931474e+18,0.0,0.0,0.0,0.0,-2.0,0.0,-1.0,0.0
1.6951631292931474e+18,-1.0,0.0,0.0,0.0,0.0,-1.0,0.0,-2.0
1.6951631292931474e+18,0.0,-1.0,-1.0,-1.0,-2.0,0.0,0.0,-1.0
1.6951631293231293e+18,-2.0,0.0,0.0,0.0,0.0,0.0,-1.0,-2.0
1.6951631293231293e+18,-1.0,-3.0,0.0,-1.0,1.0,-1.0,-1.0,-2.0
1.695163129324131e+18,-3.0,-1.0,-1.0,1.0,-1.0,-1.0,1.0,0.0
1.695163129324131e+18,0.0,-3.0,-1.0,-1.0,-1.0,-1.0,1.0,-2.0
1.695163129348119e+18,0.0,-1.0,-3.0,-1.0,-1.0,0.0,0.0,-2.0
1.695163129348119e+18,0.0,-1.0,-1.0,0.0,-1.0,0.0,2.0,0.0
1.6951631293491208e+18,0.0,-1.0,-2.0,0.0,-2.0,-1.0,-3.0,-1.0
1.6951631293491208e+18,-1.0,0.0,0.0,-1.0,-4.0,-5.0,-2.0,-1.0
1.6951631293521137e+18,0.0,1.0,-1.0,-1.0,-4.0,-2.0,-2.0,-1.0
1.6951631293531144e+18,-1.0,0.0,-3.0,-1.0,-4.0,-1.0,-3.0,-2.0
1.6951631293531144e+18,0.0,-3.0,-2.0,-1.0,-1.0,0.0,-4.0,-1.0
1.6951631293531144e+18,-2.0,-1.0,-2.0,-2.0,-2.0,-1.0,-1.0,-1.0
1.695163129383097e+18,-2.0,-2.0,-1.0,0.0,0.0,-3.0,0.0,-2.0
1.695163129383097e+18,-2.0,-1.0,-1.0,-1.0,-2.0,-1.0,-2.0,-1.0
1.695163129391098e+18,-2.0,-1.0,-3.0,-2.0,0.0,0.0,0.0,-2.0
1.695163129391098e+18,-2.0,-2.0,-3.0,0.0,2.0,-2.0,-2.0,-1.0
1.695163129392093e+18,-2.0,-1.0,-1.0,1.0,0.0,-2.0,-1.0,1.0
1.6951631293930934e+18,-3.0,-2.0,-2.0,-1.0,-1.0,-1.0,-2.0,-1.0
1.6951631293970908e+18,-2.0,0.0,-1.0,0.0,-2.0,-2.0,-1.0,-2.0
1.6951631293980905e+18,-1.0,0.0,-3.0,-1.0,1.0,1.0,-1.0,-2.0
1.695163129413088e+18,-3.0,0.0,-1.0,-1.0,-2.0,-1.0,-2.0,-2.0
1.695163129413088e+18,-2.0,0.0,-2.0,-2.0,2.0,-2.0,0.0,0.0
1.695163129413088e+18,-1.0,-1.0,-1.0,-2.0,-1.0,-1.0,-1.0,-1.0
1.695163129413088e+18,-1.0,-2.0,-2.0,1.0,-2.0,1.0,-1.0,-1.0
1.6951631294350656e+18,1.0,-1.0,-2.0,1.0,-1.0,0.0,-2.0,-1.0
1.6951631294350656e+18,-1.0,-2.0,0.0,-2.0,0.0,-1.0,-1.0,-2.0
1.695163129436066e+18,-1.0,0.0,-2.0,-1.0,-1.0,-1.0,-1.0,-2.0
1.695163129436066e+18,0.0,-1.0,-1.0,0.0,-1.0,-1.0,0.0,-2.0
1.6951631294490575e+18,-1.0,-1.0,-2.0,-2.0,0.0,-1.0,-1.0,-1.0
1.6951631294490575e+18,0.0,0.0,-2.0,-2.0,2.0,-1.0,0.0,-1.0
1.6951631294570537e+18,-1.0,-1.0,-1.0,0.0,0.0,0.0,-2.0,0.0
1.695163129458054e+18,-2.0,-2.0,-2.0,-3.0,0.0,0.0,-1.0,-1.0
1.6951631294800402e+18,1.0,-1.0,-1.0,1.0,-1.0,-2.0,-1.0,-3.0
1.6951631294800402e+18,-1.0,-1.0,-2.0,1.0,-1.0,-2.0,-1.0,-2.0
1.6951631294810396e+18,0.0,-2.0,1.0,1.0,1.0,-1.0,-1.0,1.0
1.6951631294810396e+18,0.0,0.0,-1.0,0.0,-1.0,0.0,-1.0,-1.0
1.6951631294950313e+18,0.0,-2.0,-1.0,1.0,-2.0,0.0,1.0,0.0
1.6951631294950313e+18,0.0,0.0,0.0,1.0,2.0,2.0,2.0,0.0
1.6951631294960317e+18,-1.0,0.0,1.0,0.0,1.0,0.0,2.0,-1.0
1.6951631294960317e+18,0.0,0.0,1.0,-2.0,2.0,0.0,2.0,0.0
1.6951631295120233e+18,-1.0,0.0,1.0,-3.0,-1.0,0.0,0.0,0.0
1.6951631295120233e+18,1.0,1.0,1.0,-2.0,-2.0,0.0,-1.0,0.0
1.6951631295250145e+18,1.0,-1.0,-2.0,-2.0,-1.0,-2.0,0.0,-1.0
1.6951631295250145e+18,-1.0,-1.0,1.0,0.0,0.0,-1.0,-2.0,0.0
1.695163129534012e+18,-1.0,0.0,-2.0,-1.0,0.0,0.0,0.0,-2.0
1.6951631295350095e+18,1.0,0.0,-1.0,-1.0,-1.0,-3.0,1.0,2.0
1.6951631295350095e+18,0.0,0.0,1.0,-2.0,0.0,0.0,-1.0,-2.0
1.6951631295350095e+18,-1.0,-1.0,0.0,-1.0,-1.0,-1.0,-1.0,0.0
1.6951631295550016e+18,0.0,-2.0,-1.0,0.0,1.0,0.0,-1.0,1.0
1.6951631295550016e+18,-2.0,-1.0,0.0,-1.0,0.0,0.0,-1.0,0.0
1.695163129555997e+18,0.0,0.0,0.0,-1.0,-1.0,0.0,0.0,1.0
1.695163129555997e+18,-1.0,0.0,1.0,0.0,0.0,1.0,0.0,1.0
1.69516312956899e+18,-1.0,-2.0,0.0,-1.0,-2.0,0.0,-1.0,1.0
1.69516312956899e+18,-1.0,0.0,-1.0,-3.0,0.0,-1.0,0.0,-1.0
1.6951631295769859e+18,0.0,-1.0,-1.0,-1.0,-2.0,-2.0,0.0,-1.0
1.6951631295769859e+18,0.0,-2.0,-3.0,-1.0,-1.0,-2.0,-2.0,-1.0
1.6951631295919762e+18,0.0,1.0,0.0,0.0,-1.0,-1.0,0.0,-1.0
1.6951631295919762e+18,0.0,-1.0,0.0,1.0,-2.0,0.0,0.0,-2.0
1.6951631296009713e+18,-1.0,-2.0,-2.0,-2.0,0.0,-1.0,-1.0,0.0
1.6951631296019702e+18,-1.0,1.0,0.0,0.0,0.0,0.0,0.0,-1.0
1.6951631296149847e+18,-1.0,0.0,-2.0,-2.0,2.0,-1.0,0.0,-2.0
1.6951631296149847e+18,-1.0,-1.0,-2.0,1.0,-2.0,-1.0,-1.0,-2.0
1.695163129615963e+18,2.0,0.0,-1.0,0.0,-2.0,0.0,-2.0,0.0
1.695163129615963e+18,-1.0,-1.0,-1.0,0.0,-3.0,-1.0,-1.0,-1.0
1.6951631296289567e+18,-1.0,-1.0,1.0,-1.0,0.0,-1.0,-1.0,-1.0
1.6951631296299556e+18,-3.0,-1.0,-1.0,-1.0,0.0,1.0,-1.0,0.0
1.695163129637951e+18,0.0,-1.0,-1.0,0.0,2.0,-1.0,0.0,-1.0
1.695163129637951e+18,-1.0,0.0,-3.0,0.0,-1.0,-2.0,0.0,-1.0
1.6951631296519416e+18,0.0,0.0,0.0,-3.0,-1.0,0.0,-1.0,0.0
1.6951631296529416e+18,0.0,-1.0,0.0,-1.0,0.0,-1.0,-2.0,1.0
1.6951631296529416e+18,-3.0,-2.0,-2.0,-1.0,-2.0,-1.0,-1.0,0.0
1.6951631296529416e+18,-1.0,-1.0,-2.0,-2.0,0.0,1.0,0.0,1.0
1.6951631296749279e+18,-2.0,-1.0,-2.0,-2.0,-2.0,0.0,0.0,-3.0
1.6951631296749279e+18,-1.0,0.0,-2.0,0.0,-3.0,0.0,0.0,0.0
1.695163129675928e+18,0.0,0.0,-3.0,-2.0,-1.0,-2.0,-2.0,-1.0
1.695163129675928e+18,-2.0,0.0,-1.0,-2.0,-1.0,0.0,-1.0,-1.0
1.6951631297149056e+18,0.0,-1.0,-3.0,3.0,3.0,3.0,2.0,1.0
1.6951631297149056e+18,-1.0,0.0,5.0,-1.0,-4.0,0.0,-2.0,-1.0
1.6951631297149056e+18,-2.0,-1.0,2.0,-3.0,-6.0,-3.0,-2.0,-4.0
1.6951631297149056e+18,0.0,-2.0,4.0,9.0,12.0,-1.0,2.0,2.0
1.6951631297169052e+18,0.0,-5.0,-16.0,1.0,-1.0,-1.0,-4.0,-1.0
1.6951631297169052e+18,1.0,-2.0,1.0,-3.0,-3.0,4.0,1.0,-3.0
1.6951631297189253e+18,-2.0,0.0,-8.0,-12.0,-9.0,-3.0,-3.0,-2.0
1.6951631297189253e+18,0.0,2.0,3.0,5.0,9.0,0.0,-2.0,-4.0
1.6951631297348936e+18,-1.0,-1.0,-5.0,8.0,10.0,2.0,1.0,-1.0
1.6951631297348936e+18,-2.0,2.0,-9.0,1.0,-8.0,-3.0,-1.0,-2.0
1.6951631297429059e+18,-4.0,-13.0,-4.0,3.0,1.0,-3.0,-1.0,-1.0
1.6951631297429059e+18,-1.0,11.0,34.0,0.0,7.0,4.0,1.0,0.0
1.6951631297578847e+18,-5.0,-18.0,-36.0,-11.0,-12.0,-10.0,-4.0,-3.0
1.6951631297578847e+18,0.0,-2.0,3.0,3.0,7.0,-1.0,-2.0,1.0
1.6951631297578847e+18,-1.0,0.0,-4.0,2.0,3.0,7.0,3.0,0.0
1.6951631297578847e+18,-2.0,-4.0,-11.0,-10.0,-14.0,-6.0,-3.0,-2.0
1.6951631297748746e+18,1.0,6.0,17.0,4.0,1.0,-1.0,-1.0,-1.0
1.6951631297748746e+18,-2.0,-2.0,-3.0,-4.0,-5.0,-5.0,-2.0,-2.0
1.6951631297748746e+18,-1.0,-1.0,-8.0,-2.0,-1.0,-4.0,-2.0,-1.0
1.6951631297748746e+18,-2.0,-7.0,-5.0,-3.0,-4.0,-1.0,-4.0,-3.0
1.6951631298048617e+18,-2.0,3.0,16.0,-5.0,-7.0,1.0,2.0,-1.0
1.6951631298048617e+18,-1.0,-4.0,-6.0,-1.0,-5.0,-8.0,-2.0,-2.0
1.695163129805857e+18,0.0,3.0,12.0,-7.0,-4.0,3.0,-1.0,-2.0
1.695163129805857e+18,-1.0,-5.0,-30.0,9.0,2.0,2.0,0.0,0.0
1.69516312981687e+18,0.0,1.0,1.0,3.0,1.0,0.0,-1.0,1.0
1.6951631298178496e+18,-2.0,-1.0,0.0,-1.0,11.0,4.0,3.0,0.0
1.695163129824843e+18,3.0,10.0,9.0,3.0,-2.0,-2.0,-1.0,-4.0
1.695163129824843e+18,-3.0,-1.0,0.0,-4.0,-7.0,-3.0,-2.0,1.0
1.6951631298498284e+18,-4.0,-5.0,-14.0,-1.0,4.0,3.0,0.0,-2.0
1.6951631298498284e+18,1.0,0.0,1.0,-5.0,-5.0,-2.0,-1.0,-1.0
1.6951631298508283e+18,-2.0,-8.0,-5.0,11.0,-4.0,-5.0,-4.0,-3.0
1.6951631298508283e+18,1.0,3.0,-10.0,-9.0,-7.0,-5.0,-3.0,-3.0
1.6951631298548247e+18,0.0,7.0,38.0,-5.0,-4.0,-3.0,-2.0,-2.0
1.6951631298548247e+18,-2.0,4.0,-10.0,-5.0,-12.0,-3.0,-1.0,-4.0
1.6951631298558264e+18,-1.0,-6.0,8.0,25.0,37.0,8.0,3.0,7.0
1.6951631298558264e+18,-7.0,-11.0,3.0,4.0,-3.0,0.0,3.0,-1.0
1.6951631298778125e+18,7.0,-3.0,6.0,-9.0,2.0,4.0,2.0,12.0
1.6951631298778125e+18,-10.0,-9.0,-1.0,-29.0,-30.0,-10.0,-8.0,-8.0
1.6951631298778125e+18,9.0,9.0,-9.0,17.0,21.0,11.0,6.0,-1.0
1.695163129878812e+18,8.0,15.0,4.0,-6.0,1.0,13.0,2.0,2.0
1.695163129891805e+18,3.0,8.0,-6.0,4.0,0.0,-4.0,3.0,10.0
1.695163129891805e+18,4.0,4.0,10.0,12.0,11.0,1.0,-1.0,-12.0
1.6951631299077962e+18,-9.0,-14.0,-6.0,-14.0,-14.0,-8.0,4.0,7.0
1.6951631299077962e+18,0.0,-8.0,4.0,-4.0,-1.0,-1.0,-7.0,0.0
1.6951631299227868e+18,0.0,1.0,-6.0,-7.0,-16.0,-5.0,-4.0,-3.0
1.695163129923786e+18,12.0,27.0,4.0,4.0,6.0,1.0,0.0,-11.0
1.695163129923786e+18,-8.0,-24.0,6.0,-7.0,-2.0,-1.0,-2.0,6.0
1.6951631299247882e+18,-4.0,-1.0,-7.0,0.0,-1.0,-4.0,27.0,4.0
1.6951631299537713e+18,1.0,20.0,-12.0,-5.0,2.0,10.0,-12.0,-87.0
1.6951631299537713e+18,-2.0,-6.0,14.0,12.0,12.0,-3.0,-2.0,32.0
1.6951631299537713e+18,4.0,13.0,-16.0,-12.0,-13.0,-3.0,-39.0,74.0
1.6951631299547692e+18,2.0,-26.0,-1.0,-6.0,-7.0,-12.0,-51.0,26.0
1.6951631299617649e+18,-4.0,-19.0,-9.0,0.0,-4.0,-14.0,-12.0,16.0
1.6951631299617649e+18,1.0,17.0,-9.0,4.0,7.0,8.0,19.0,-37.0
1.695163129962765e+18,-9.0,8.0,22.0,-6.0,-10.0,3.0,18.0,-56.0
1.695163129962765e+18,-4.0,-13.0,-28.0,-1.0,8.0,6.0,20.0,1.0
1.6951631299937462e+18,-8.0,1.0,20.0,2.0,-2.0,1.0,11.0,8.0
1.6951631299937462e+18,-1.0,-1.0,-12.0,0.0,9.0,-1.0,-36.0,-67.0
1.6951631299937462e+18,3.0,0.0,-4.0,6.0,4.0,-2.0,16.0,33.0
1.6951631299937462e+18,2.0,-1.0,0.0,-4.0,-4.0,-3.0,-10.0,20.0
1.695163129997744e+18,0.0,25.0,23.0,6.0,4.0,10.0,80.0,-22.0
1.695163129997744e+18,-10.0,-36.0,3.0,-5.0,-6.0,-7.0,-70.0,-48.0
1.6951631300057395e+18,13.0,25.0,-13.0,-11.0,-10.0,-9.0,-2.0,81.0
1.6951631300137364e+18,-3.0,-1.0,5.0,8.0,6.0,4.0,17.0,-79.0
1.6951631300137364e+18,-1.0,-9.0,10.0,2.0,-4.0,-5.0,-12.0,65.0
1.6951631300137364e+18,-1.0,1.0,-4.0,0.0,3.0,2.0,29.0,8.0
1.6951631300197315e+18,-8.0,3.0,-2.0,1.0,1.0,-3.0,3.0,-75.0
1.6951631300197315e+18,-2.0,-2.0,15.0,3.0,0.0,0.0,-18.0,40.0
1.6951631300367214e+18,1.0,-1.0,-21.0,-6.0,-1.0,-1.0,-13.0,-5.0
1.6951631300367214e+18,1.0,-29.0,26.0,4.0,1.0,2.0,25.0,25.0
1.6951631300367214e+18,-5.0,9.0,8.0,-1.0,-2.0,-2.0,-10.0,-19.0
1.6951631300377206e+18,1.0,-5.0,-60.0,-11.0,-7.0,-3.0,9.0,-14.0
1.6951631300657042e+18,-9.0,-13.0,7.0,-2.0,2.0,-1.0,9.0,-32.0
1.6951631300657042e+18,-2.0,13.0,25.0,4.0,5.0,7.0,-14.0,5.0
1.695163130066705e+18,6.0,-4.0,-28.0,-5.0,-4.0,-3.0,-2.0,2.0
1.695163130066705e+18,12.0,1.0,16.0,-4.0,-9.0,-2.0,-3.0,78.0
1.6951631300717018e+18,0.0,2.0,-29.0,-4.0,-2.0,-7.0,-42.0,13.0
1.6951631300717018e+18,4.0,3.0,-3.0,0.0,-1.0,3.0,26.0,34.0
1.6951631300816968e+18,-6.0,-24.0,3.0,3.0,-1.0,0.0,-2.0,-41.0
1.6951631300816968e+18,0.0,36.0,44.0,6.0,2.0,1.0,9.0,-34.0
1.6951631300956887e+18,-3.0,-27.0,-29.0,0.0,3.0,-1.0,1.0,33.0
1.695163130096692e+18,2.0,26.0,-3.0,-1.0,-2.0,2.0,17.0,1.0
1.695163130096692e+18,-6.0,8.0,43.0,1.0,-1.0,3.0,4.0,-27.0
1.695163130096692e+18,-3.0,-11.0,-23.0,-5.0,-2.0,-6.0,-12.0,-20.0
1.6951631301256707e+18,3.0,4.0,20.0,1.0,0.0,4.0,-1.0,-10.0
1.6951631301256707e+18,-5.0,-21.0,-21.0,-4.0,-4.0,-5.0,-5.0,-19.0
1.6951631301476603e+18,2.0,24.0,10.0,-2.0,-2.0,1.0,9.0,24.0
1.6951631301476603e+18,6.0,15.0,-8.0,-1.0,-5.0,-9.0,-24.0,33.0
1.6951631301486802e+18,-12.0,-31.0,19.0,13.0,12.0,9.0,1.0,-26.0
1.6951631301486802e+18,20.0,72.0,-65.0,-23.0,-13.0,-4.0,5.0,15.0
1.6951631301486802e+18,27.0,3.0,-20.0,6.0,6.0,6.0,43.0,19.0
1.6951631301486802e+18,-22.0,-28.0,41.0,12.0,4.0,-6.0,-32.0,-41.0
1.695163130154676e+18,11.0,3.0,-45.0,-7.0,-2.0,-5.0,-17.0,34.0
1.6951631301556595e+18,-11.0,15.0,33.0,5.0,0.0,-2.0,5.0,0.0
1.6951631301556595e+18,-19.0,-61.0,-20.0,1.0,7.0,14.0,10.0,1.0
1.6951631301556595e+18,24.0,26.0,-4.0,-3.0,-3.0,-2.0,2.0,-4.0
1.6951631301796419e+18,-5.0,-24.0,19.0,0.0,1.0,-1.0,-2.0,-17.0
1.6951631301796419e+18,5.0,-2.0,4.0,3.0,-1.0,-4.0,-7.0,38.0
1.6951631301796419e+18,-10.0,-18.0,-5.0,-6.0,-7.0,-4.0,-8.0,-23.0
1.6951631301806413e+18,-3.0,-4.0,-16.0,-4.0,1.0,7.0,16.0,-2.0
1.6951631301996508e+18,6.0,26.0,3.0,-2.0,-4.0,-6.0,-11.0,4.0
1.6951631301996508e+18,-5.0,-30.0,-5.0,-1.0,4.0,7.0,25.0,-5.0
1.6951631302096228e+18,0.0,4.0,21.0,1.0,0.0,-11.0,-44.0,22.0
1.6951631302096228e+18,-10.0,2.0,-4.0,-12.0,-15.0,-2.0,10.0,-35.0
1.6951631302236142e+18,13.0,13.0,-1.0,6.0,-1.0,-3.0,7.0,28.0
1.6951631302236142e+18,-9.0,-16.0,-25.0,10.0,29.0,10.0,8.0,0.0
1.6951631302236142e+18,2.0,24.0,28.0,-3.0,-13.0,-7.0,-6.0,-12.0
1.6951631302236142e+18,-9.0,-39.0,-28.0,-10.0,-5.0,-2.0,1.0,-15.0
1.6951631302406052e+18,-4.0,20.0,-5.0,2.0,-4.0,7.0,11.0,-20.0
1.6951631302406052e+18,-12.0,-42.0,3.0,13.0,19.0,17.0,22.0,6.0
1.6951631302406052e+18,11.0,11.0,48.0,-4.0,-1.0,-16.0,-39.0,40.0
1.6951631302406052e+18,1.0,33.0,-7.0,-2.0,-20.0,-6.0,-6.0,-10.0
1.6951631302595932e+18,0.0,1.0,-24.0,-21.0,1.0,-7.0,10.0,4.0
1.6951631302595932e+18,-1.0,-25.0,-30.0,17.0,0.0,10.0,4.0,15.0
1.6951631302715901e+18,-8.0,-7.0,-30.0,-19.0,1.0,1.0,-3.0,-47.0
1.6951631302715901e+18,-1.0,2.0,22.0,6.0,-5.0,3.0,16.0,4.0
1.6951631302825825e+18,0.0,2.0,21.0,17.0,10.0,-8.0,-6.0,11.0
1.6951631302825825e+18,-5.0,6.0,-5.0,-20.0,-9.0,-11.0,-17.0,-29.0
1.6951631302895762e+18,-9.0,-1.0,-13.0,6.0,-1.0,5.0,1.0,-23.0
1.695163130290578e+18,22.0,-5.0,18.0,4.0,13.0,10.0,12.0,73.0
1.6951631303035717e+18,-8.0,3.0,-4.0,3.0,-13.0,-1.0,0.0,-34.0
1.6951631303035717e+18,4.0,-4.0,20.0,-11.0,17.0,11.0,-2.0,31.0
1.6951631303035717e+18,-5.0,6.0,-12.0,16.0,14.0,1.0,4.0,-22.0
1.6951631303035717e+18,-7.0,0.0,3.0,-3.0,-22.0,-12.0,-1.0,-15.0
1.695163130328555e+18,-1.0,3.0,17.0,7.0,35.0,8.0,-8.0,-1.0
1.695163130330553e+18,-5.0,-5.0,-44.0,-9.0,-23.0,-20.0,-11.0,1.0
1.695163130330553e+18,2.0,-2.0,18.0,-8.0,-9.0,7.0,8.0,18.0
1.695163130330553e+18,-10.0,-7.0,-28.0,12.0,3.0,-3.0,-7.0,-24.0
1.6951631303435459e+18,-1.0,-3.0,34.0,-9.0,-2.0,0.0,7.0,8.0
1.6951631303435459e+18,1.0,13.0,28.0,-7.0,-23.0,-22.0,-24.0,16.0
1.6951631303455452e+18,4.0,-6.0,-19.0,15.0,18.0,14.0,15.0,32.0
1.6951631303455452e+18,-5.0,1.0,-8.0,-6.0,13.0,0.0,-2.0,-30.0
1.6951631303575526e+18,-1.0,-7.0,-11.0,4.0,32.0,18.0,0.0,-9.0
1.6951631303575526e+18,0.0,0.0,13.0,-2.0,-36.0,-16.0,-5.0,1.0
1.6951631303585403e+18,-2.0,6.0,-3.0,-10.0,-6.0,-8.0,-1.0,0.0
1.6951631303585403e+18,-2.0,1.0,11.0,-6.0,-4.0,14.0,9.0,5.0
1.6951631303915192e+18,-3.0,-6.0,-11.0,-1.0,-1.0,-3.0,-7.0,-6.0
1.6951631303915192e+18,0.0,1.0,13.0,15.0,-4.0,-6.0,-2.0,-9.0
1.6951631303915192e+18,-1.0,-1.0,-16.0,-11.0,-35.0,-20.0,-6.0,-9.0
1.695163130393518e+18,-3.0,-3.0,0.0,1.0,40.0,20.0,2.0,-10.0
1.6951631304195077e+18,3.0,-3.0,-7.0,-16.0,-23.0,-2.0,0.0,-2.0
1.6951631304195077e+18,3.0,4.0,5.0,16.0,11.0,-4.0,-10.0,5.0
1.6951631304195077e+18,-2.0,-1.0,-14.0,-5.0,-17.0,-9.0,7.0,-13.0
1.6951631304195077e+18,0.0,3.0,6.0,18.0,2.0,-3.0,1.0,7.0
1.6951631304394934e+18,0.0,3.0,-11.0,-61.0,-31.0,-10.0,-5.0,5.0
1.6951631304404928e+18,1.0,-3.0,9.0,-11.0,-16.0,-1.0,2.0,-4.0
1.6951631304794675e+18,0.0,1.0,7.0,26.0,26.0,14.0,-4.0,-8.0
1.6951631304794675e+18,7.0,15.0,7.0,6.0,8.0,6.0,9.0,5.0
1.6951631304814692e+18,-11.0,-16.0,-5.0,42.0,12.0,-2.0,-6.0,-5.0
1.6951631304814692e+18,7.0,14.0,-7.0,-28.0,-13.0,-3.0,0.0,-6.0
1.6951631304814692e+18,-7.0,-15.0,1.0,-33.0,3.0,-5.0,-8.0,-10.0
1.6951631304824663e+18,-2.0,-6.0,-23.0,-32.0,-41.0,-17.0,6.0,7.0
1.695163130516447e+18,-8.0,-19.0,-3.0,-25.0,-17.0,-9.0,-4.0,-10.0
1.695163130516447e+18,2.0,-8.0,2.0,13.0,28.0,17.0,4.0,5.0
1.6951631305624238e+18,2.0,7.0,2.0,8.0,1.0,-2.0,-11.0,-5.0
1.6951631305624238e+18,-1.0,4.0,13.0,37.0,13.0,5.0,1.0,5.0
1.695163130563423e+18,-7.0,-12.0,-5.0,-11.0,-6.0,-7.0,-7.0,-12.0
1.695163130563423e+18,4.0,9.0,0.0,27.0,19.0,2.0,21.0,6.0
1.6951631305924032e+18,-1.0,-2.0,-8.0,-32.0,-1.0,-1.0,-15.0,3.0
1.6951631305924032e+18,-3.0,1.0,-1.0,15.0,-3.0,-3.0,-8.0,-6.0
1.6951631305924032e+18,2.0,2.0,-7.0,-7.0,14.0,18.0,38.0,6.0
1.6951631305924032e+18,6.0,12.0,16.0,39.0,-7.0,3.0,8.0,3.0
1.6951631305944018e+18,-5.0,-6.0,-36.0,-38.0,-25.0,-4.0,8.0,2.0
1.6951631305944018e+18,-2.0,-15.0,7.0,-20.0,-10.0,2.0,-1.0,-1.0
1.6951631305984005e+18,-5.0,13.0,13.0,18.0,7.0,-11.0,-4.0,-2.0
1.6951631305993997e+18,2.0,-21.0,6.0,-7.0,-5.0,-8.0,-28.0,-3.0
1.6951631306003994e+18,1.0,-8.0,17.0,11.0,5.0,37.0,44.0,12.0
1.6951631306003994e+18,0.0,8.0,12.0,19.0,17.0,8.0,18.0,1.0
1.6951631306013993e+18,4.0,48.0,-34.0,-31.0,-23.0,-12.0,-14.0,-4.0
1.6951631306013993e+18,-4.0,13.0,-1.0,34.0,9.0,-11.0,-16.0,-10.0
1.6951631306203878e+18,-1.0,3.0,-1.0,-36.0,-11.0,-14.0,-9.0,-3.0
1.6951631306203878e+18,-4.0,-1.0,11.0,30.0,2.0,4.0,-1.0,-2.0
1.6951631306213878e+18,1.0,11.0,2.0,-21.0,-37.0,-8.0,-5.0,-5.0
1.6951631306213878e+18,-1.0,-2.0,-11.0,20.0,79.0,27.0,14.0,6.0
1.6951631306423747e+18,2.0,9.0,29.0,42.0,10.0,-2.0,-10.0,8.0
1.6951631306423747e+18,1.0,13.0,-28.0,-27.0,-37.0,-9.0,4.0,-19.0
1.6951631306433766e+18,-2.0,-25.0,19.0,7.0,29.0,5.0,-9.0,0.0
1.6951631306433766e+18,-4.0,-29.0,-14.0,-18.0,-16.0,-2.0,5.0,6.0
1.6951631306653834e+18,-1.0,-9.0,7.0,3.0,-11.0,0.0,2.0,-2.0
1.6951631306663736e+18,3.0,22.0,-10.0,-18.0,4.0,0.0,-3.0,2.0
1.6951631306663736e+18,-3.0,-25.0,16.0,22.0,8.0,4.0,7.0,9.0
1.6951631306663736e+18,-1.0,1.0,12.0,27.0,4.0,11.0,8.0,-5.0
1.6951631306803538e+18,-1.0,-1.0,-13.0,-12.0,22.0,-5.0,-12.0,-9.0
1.6951631306803538e+18,-2.0,26.0,-14.0,-14.0,-12.0,-6.0,1.0,2.0
1.6951631306803538e+18,2.0,-23.0,-6.0,-11.0,-7.0,2.0,0.0,-3.0
1.6951631306813568e+18,1.0,7.0,15.0,10.0,-14.0,-4.0,6.0,2.0
1.6951631307023396e+18,0.0,-1.0,-14.0,-26.0,-36.0,-6.0,-10.0,-6.0
1.6951631307023396e+18,1.0,-5.0,1.0,18.0,29.0,5.0,7.0,10.0
1.695163130703344e+18,3.0,6.0,4.0,0.0,-5.0,4.0,-4.0,-4.0
1.695163130703344e+18,-4.0,-3.0,23.0,6.0,-3.0,3.0,4.0,-2.0
1.6951631307503232e+18,2.0,5.0,-16.0,-15.0,-17.0,-13.0,-5.0,-3.0
1.6951631307513121e+18,-6.0,-21.0,-1.0,5.0,18.0,9.0,4.0,0.0
1.6951631307573084e+18,-1.0,4.0,-6.0,-4.0,-3.0,-7.0,-3.0,-2.0
1.6951631307573084e+18,0.0,3.0,11.0,-18.0,-11.0,2.0,1.0,0.0
1.695163130758311e+18,2.0,9.0,6.0,31.0,22.0,1.0,2.0,0.0
1.695163130758311e+18,-4.0,-11.0,-1.0,-5.0,-3.0,6.0,6.0,1.0
1.6951631307593093e+18,-2.0,-4.0,0.0,4.0,-12.0,-7.0,-3.0,-2.0
1.6951631307593093e+18,0.0,1.0,-14.0,-10.0,15.0,3.0,1.0,-1.0
1.695163130795287e+18,1.0,-4.0,-1.0,-3.0,0.0,0.0,0.0,9.0
1.695163130795287e+18,1.0,-5.0,-5.0,-3.0,-8.0,-8.0,-5.0,-22.0
1.6951631307962893e+18,-1.0,3.0,1.0,-14.0,-11.0,1.0,-1.0,14.0
1.6951631307962893e+18,-3.0,-11.0,-9.0,-7.0,-9.0,-4.0,-2.0,-2.0
1.6951631308022828e+18,1.0,-1.0,-1.0,12.0,19.0,1.0,0.0,-1.0
1.6951631308022828e+18,-1.0,14.0,47.0,-5.0,-18.0,-5.0,-4.0,-2.0
1.6951631308022828e+18,5.0,3.0,-44.0,-5.0,4.0,6.0,4.0,-3.0
1.6951631308032858e+18,-3.0,-16.0,3.0,-6.0,-3.0,-6.0,-6.0,12.0
1.6951631308043041e+18,6.0,12.0,-18.0,0.0,2.0,-1.0,0.0,13.0
1.6951631308043041e+18,-8.0,-39.0,-14.0,-2.0,8.0,11.0,2.0,-51.0
1.69516313080828e+18,-10.0,9.0,0.0,0.0,4.0,-4.0,2.0,56.0
1.6951631308132785e+18,-3.0,-17.0,16.0,4.0,-4.0,-1.0,21.0,-71.0
1.6951631308306158e+18,-17.0,18.0,37.0,-2.0,-4.0,-13.0,-40.0,63.0
1.6951631308306158e+18,20.0,13.0,-42.0,-7.0,-3.0,3.0,19.0,-1.0
1.6951631308315587e+18,-2.0,-3.0,-5.0,7.0,15.0,10.0,-21.0,-99.0
1.6951631308315587e+18,6.0,-32.0,-9.0,-5.0,-13.0,-14.0,-32.0,108.0
1.695163130836552e+18,13.0,-39.0,-32.0,-8.0,-14.0,-6.0,15.0,-54.0
1.6951631308375547e+18,0.0,18.0,55.0,-6.0,-13.0,-25.0,1.0,26.0
1.695163130853543e+18,-8.0,0.0,-46.0,5.0,16.0,15.0,5.0,-40.0
1.695163130855542e+18,-54.0,-28.0,18.0,8.0,10.0,18.0,-3.0,-5.0
1.695163130868556e+18,-15.0,-10.0,-10.0,-10.0,-11.0,-22.0,-61.0,-57.0
1.695163130868556e+18,36.0,-39.0,3.0,3.0,2.0,-2.0,-24.0,20.0
1.6951631308695342e+18,-52.0,78.0,40.0,5.0,-8.0,-7.0,35.0,-32.0
1.6951631308695342e+18,82.0,31.0,-21.0,-2.0,4.0,7.0,40.0,44.0
1.695163130882545e+18,-65.0,-60.0,-39.0,3.0,5.0,6.0,16.0,-28.0
1.695163130882545e+18,21.0,-19.0,-50.0,-7.0,3.0,6.0,43.0,-46.0
1.6951631308835438e+18,-14.0,-79.0,18.0,-6.0,-13.0,-21.0,-75.0,7.0
1.6951631308835438e+18,20.0,48.0,19.0,10.0,-1.0,6.0,10.0,91.0
1.6951631308995354e+18,-14.0,124.0,12.0,-5.0,-2.0,3.0,8.0,-44.0
1.6951631308995354e+18,-23.0,-69.0,-21.0,-4.0,4.0,15.0,27.0,-77.0
1.6951631309135263e+18,-8.0,-34.0,14.0,4.0,7.0,-2.0,27.0,27.0
1.695163130914527e+18,-13.0,21.0,-40.0,-2.0,-5.0,-11.0,-35.0,-47.0
1.6951631309285169e+18,54.0,54.0,90.0,10.0,1.0,2.0,1.0,-1.0
1.6951631309295178e+18,-43.0,-46.0,-23.0,-3.0,2.0,10.0,1.0,-23.0
1.6951631309295178e+18,-7.0,17.0,-73.0,-12.0,-6.0,-1.0,-11.0,59.0
1.6951631309295178e+18,-3.0,-25.0,23.0,-16.0,-15.0,-12.0,-16.0,-10.0
1.6951631309428818e+18,84.0,56.0,-12.0,0.0,-2.0,5.0,27.0,26.0
1.6951631309428818e+18,-27.0,11.0,20.0,-6.0,-4.0,0.0,9.0,-64.0
1.6951631309428818e+18,15.0,-18.0,79.0,-6.0,-1.0,15.0,31.0,-5.0
1.6951631309428818e+18,0.0,-45.0,-80.0,-24.0,-28.0,-38.0,-83.0,52.0
1.6951631309738135e+18,-23.0,-22.0,42.0,24.0,37.0,10.0,-15.0,45.0
1.6951631309738135e+18,9.0,10.0,101.0,-28.0,-25.0,-5.0,47.0,21.0
1.6951631309738135e+18,5.0,5.0,-86.0,-2.0,-10.0,-22.0,-75.0,-13.0
1.6951631309748168e+18,-1.0,44.0,40.0,5.0,-1.0,10.0,45.0,-80.0
1.6951631309898196e+18,-13.0,-68.0,-51.0,18.0,52.0,37.0,8.0,26.0
1.6951631309898196e+18,27.0,55.0,-36.0,29.0,35.0,12.0,-26.0,92.0
1.6951631309908278e+18,-14.0,4.0,69.0,-3.0,-14.0,-4.0,17.0,-29.0
1.6951631309908278e+18,-26.0,-19.0,-17.0,-4.0,-2.0,4.0,27.0,-57.0
1.6951631310095636e+18,16.0,-36.0,-5.0,-18.0,-27.0,-15.0,8.0,10.0
1.6951631310105592e+18,-59.0,48.0,5.0,-8.0,-12.0,-8.0,-21.0,83.0
1.695163131018248e+18,55.0,-27.0,-10.0,14.0,17.0,11.0,5.0,-86.0
1.695163131018248e+18,-1.0,17.0,-68.0,-6.0,-5.0,-14.0,6.0,108.0
1.695163131020253e+18,-8.0,12.0,74.0,-3.0,-11.0,13.0,53.0,-38.0
1.695163131020253e+18,6.0,-37.0,-56.0,-5.0,1.0,-3.0,-29.0,-9.0
1.695163131024248e+18,-19.0,26.0,14.0,-4.0,-8.0,-11.0,-9.0,-25.0
1.695163131024248e+18,-35.0,10.0,114.0,13.0,6.0,-3.0,-12.0,-59.0
1.6951631310482486e+18,-16.0,-13.0,-81.0,-11.0,-9.0,12.0,35.0,-54.0
1.695163131049253e+18,-11.0,20.0,-31.0,-20.0,-10.0,-15.0,-25.0,16.0
1.695163131049253e+18,21.0,-5.0,12.0,-5.0,2.0,2.0,21.0,30.0
1.695163131049253e+18,33.0,7.0,-25.0,-1.0,4.0,5.0,-1.0,-42.0
1.695163131063247e+18,-22.0,-16.0,34.0,4.0,-5.0,-8.0,-23.0,47.0
1.695163131064253e+18,30.0,13.0,1.0,1.0,-16.0,-30.0,-37.0,-14.0
1.695163131064253e+18,8.0,-1.0,32.0,11.0,8.0,28.0,32.0,25.0
1.695163131064253e+18,15.0,9.0,-4.0,8.0,13.0,11.0,22.0,-41.0
1.695163131097262e+18,-29.0,1.0,15.0,-9.0,-6.0,-7.0,-29.0,-24.0
1.6951631310982356e+18,-4.0,-22.0,-7.0,10.0,7.0,-1.0,10.0,56.0
1.6951631311102193e+18,17.0,32.0,0.0,-8.0,-7.0,-23.0,-40.0,-12.0
1.6951631311112212e+18,57.0,8.0,19.0,-5.0,-8.0,0.0,19.0,67.0
1.695163131112218e+18,-13.0,-7.0,-38.0,0.0,-6.0,-6.0,4.0,-5.0
1.6951631311132193e+18,23.0,0.0,27.0,11.0,10.0,7.0,-10.0,-26.0
1.6951631311132193e+18,1.0,-8.0,-26.0,-15.0,-19.0,-15.0,-4.0,17.0
1.6951631311142177e+18,-19.0,30.0,14.0,16.0,33.0,25.0,11.0,-16.0
1.6951631311461998e+18,-18.0,-10.0,6.0,-6.0,-15.0,-10.0,4.0,-8.0
1.695163131147205e+18,13.0,17.0,46.0,-5.0,-4.0,3.0,3.0,5.0
1.695163131147205e+18,6.0,-20.0,9.0,24.0,18.0,9.0,8.0,9.0
1.695163131147205e+18,19.0,-48.0,29.0,-1.0,-16.0,-17.0,-15.0,-3.0
1.6951631311641894e+18,31.0,1.0,5.0,2.0,5.0,2.0,-8.0,29.0
1.6951631311641894e+18,-24.0,-8.0,21.0,8.0,0.0,-3.0,-8.0,8.0
1.6951631311651894e+18,-12.0,-14.0,-6.0,-1.0,3.0,6.0,10.0,0.0
1.6951631311661883e+18,-24.0,8.0,-45.0,-4.0,0.0,0.0,8.0,-68.0
1.6951631311691868e+18,13.0,-24.0,31.0,-2.0,-6.0,-6.0,-35.0,17.0
1.6951631311691868e+18,40.0,13.0,-42.0,6.0,-3.0,-2.0,11.0,89.0
1.6951631311691868e+18,11.0,12.0,-17.0,-8.0,3.0,7.0,34.0,7.0
1.6951631311701855e+18,-53.0,-1.0,8.0,5.0,5.0,4.0,-30.0,-24.0
1.6951631311831775e+18,51.0,22.0,18.0,0.0,0.0,1.0,4.0,-17.0
1.6951631311841772e+18,-36.0,15.0,-16.0,-13.0,-6.0,-1.0,4.0,-52.0
1.6951631311851812e+18,-34.0,-1.0,2.0,15.0,11.0,-5.0,-9.0,24.0
1.6951631311851812e+18,14.0,-26.0,-24.0,-12.0,-4.0,-3.0,-26.0,-17.0
1.6951631312181668e+18,-30.0,15.0,-27.0,-17.0,-10.0,3.0,23.0,-17.0
1.6951631312181668e+18,24.0,3.0,-1.0,5.0,0.0,8.0,22.0,10.0
1.6951631312191718e+18,-2.0,13.0,19.0,-5.0,0.0,-7.0,1.0,5.0
1.6951631312191718e+18,-20.0,1.0,8.0,12.0,8.0,1.0,-7.0,-5.0
1.6951631312211564e+18,-20.0,-10.0,-27.0,-6.0,-9.0,-14.0,-22.0,-8.0
1.69516313122319e+18,1.0,13.0,-27.0,-21.0,-18.0,-5.0,-4.0,-9.0
1.695163131224165e+18,8.0,-17.0,11.0,24.0,25.0,10.0,-2.0,7.0
1.695163131224165e+18,-9.0,27.0,-26.0,-5.0,-5.0,-6.0,-24.0,28.0
1.6951631312431434e+18,16.0,-27.0,-45.0,-6.0,-3.0,1.0,4.0,-36.0
1.6951631312431434e+18,-25.0,16.0,34.0,4.0,-3.0,-2.0,5.0,-1.0
1.6951631312441426e+18,2.0,5.0,48.0,-4.0,-2.0,5.0,8.0,12.0
1.695163131245145e+18,4.0,-11.0,-1.0,-2.0,-6.0,-9.0,-21.0,4.0
1.6951631312661302e+18,-6.0,-7.0,-14.0,13.0,16.0,5.0,-6.0,3.0
1.6951631312671299e+18,2.0,-10.0,-7.0,-21.0,-18.0,-9.0,-1.0,-16.0
1.6951631312681298e+18,13.0,32.0,-10.0,-10.0,-8.0,1.0,-5.0,-4.0
1.6951631312681298e+18,-2.0,-14.0,-8.0,1.0,-3.0,7.0,39.0,15.0
1.6951631312891172e+18,13.0,31.0,22.0,2.0,7.0,3.0,2.0,10.0
1.6951631312891172e+18,-19.0,-15.0,-14.0,6.0,7.0,-9.0,-34.0,-45.0
1.6951631312901166e+18,16.0,14.0,-4.0,-6.0,-2.0,5.0,7.0,62.0
1.6951631312901166e+18,7.0,0.0,-13.0,-7.0,-4.0,0.0,8.0,-8.0
1.69516313130311e+18,-13.0,5.0,-18.0,-14.0,-15.0,-16.0,-3.0,-6.0
1.6951631313041083e+18,12.0,-3.0,-6.0,18.0,17.0,22.0,43.0,29.0
1.6951631313041083e+18,3.0,-4.0,0.0,-9.0,-13.0,-12.0,-16.0,-24.0
1.6951631313051167e+18,-5.0,17.0,5.0,-7.0,-4.0,-6.0,-21.0,-3.0
1.695163131343086e+18,-8.0,-5.0,-33.0,3.0,1.0,2.0,17.0,7.0
1.695163131343086e+18,-6.0,-21.0,30.0,5.0,7.0,5.0,-11.0,-2.0
1.6951631313440878e+18,-21.0,17.0,-7.0,0.0,-2.0,-5.0,2.0,3.0
1.6951631313450854e+18,-11.0,-2.0,31.0,1.0,1.0,5.0,17.0,-8.0
1.6951631313460861e+18,-4.0,1.0,4.0,8.0,-1.0,-2.0,-9.0,3.0
1.6951631313460861e+18,9.0,-7.0,-57.0,-11.0,-4.0,2.0,-1.0,-30.0
1.6951631313560786e+18,1.0,-1.0,15.0,-3.0,-1.0,-6.0,-14.0,12.0
1.6951631313570788e+18,1.0,14.0,3.0,-5.0,-15.0,0.0,18.0,11.0
1.695163131380065e+18,-6.0,-6.0,18.0,3.0,14.0,-5.0,0.0,1.0
1.695163131380065e+18,4.0,6.0,47.0,10.0,1.0,-1.0,-5.0,7.0
1.6951631313810652e+18,-3.0,-13.0,-50.0,-9.0,3.0,6.0,5.0,-22.0
1.6951631313810652e+18,-6.0,1.0,10.0,5.0,5.0,-1.0,-2.0,0.0
1.6951631313940567e+18,5.0,-12.0,-2.0,-2.0,-7.0,0.0,8.0,3.0
1.6951631313940567e+18,2.0,-1.0,18.0,-13.0,-5.0,-3.0,-10.0,6.0
1.6951631313950572e+18,3.0,1.0,-8.0,0.0,-6.0,-5.0,-5.0,-7.0
1.6951631313950572e+18,-1.0,-2.0,-1.0,-1.0,-7.0,-4.0,6.0,-25.0
1.6951631314000591e+18,4.0,-2.0,27.0,4.0,8.0,5.0,-8.0,8.0
1.6951631314010522e+18,-3.0,22.0,2.0,-2.0,0.0,-4.0,-5.0,6.0
1.6951631314020582e+18,7.0,-15.0,-16.0,0.0,0.0,2.0,7.0,20.0
1.6951631314020582e+18,4.0,-1.0,6.0,3.0,5.0,-3.0,-3.0,1.0
1.6951631314250401e+18,2.0,-12.0,-8.0,-6.0,-18.0,-4.0,1.0,0.0
1.6951631314250401e+18,-19.0,-7.0,-12.0,5.0,19.0,0.0,-5.0,-15.0
1.6951631314260388e+18,-2.0,1.0,8.0,-7.0,-12.0,9.0,1.0,-15.0
1.6951631314260388e+18,3.0,1.0,-2.0,2.0,-10.0,-14.0,-1.0,1.0
1.6951631314540214e+18,2.0,8.0,0.0,-4.0,14.0,9.0,0.0,9.0
1.6951631314540214e+18,-1.0,-4.0,1.0,-3.0,-9.0,-6.0,-8.0,-5.0
1.6951631314540214e+18,-2.0,-8.0,-8.0,-5.0,0.0,-6.0,1.0,-1.0
1.6951631314540214e+18,-5.0,-11.0,-15.0,6.0,9.0,10.0,2.0,-4.0
1.6951631314690132e+18,2.0,1.0,-13.0,-14.0,-21.0,-10.0,-6.0,4.0
1.69516313147401e+18,-1.0,0.0,-8.0,3.0,2.0,-2.0,2.0,3.0
1.6951631314750103e+18,-3.0,-6.0,5.0,3.0,4.0,0.0,2.0,-6.0
1.6951631314750103e+18,1.0,0.0,-5.0,-7.0,-7.0,-3.0,-3.0,-1.0
1.695163131483004e+18,-3.0,2.0,5.0,-1.0,3.0,1.0,0.0,4.0
1.695163131483004e+18,-2.0,-12.0,-30.0,3.0,-3.0,-1.0,0.0,-3.0
1.695163131483004e+18,2.0,0.0,-4.0,2.0,-4.0,-2.0,-2.0,-2.0
1.695163131483004e+18,-1.0,-1.0,6.0,-6.0,2.0,-1.0,-1.0,-1.0
1.6951631315129887e+18,-2.0,-6.0,-3.0,3.0,-1.0,-9.0,0.0,3.0
1.6951631315129887e+18,-1.0,-3.0,5.0,4.0,4.0,4.0,-2.0,-5.0
1.6951631315139855e+18,0.0,-1.0,1.0,-2.0,-3.0,6.0,1.0,-3.0
1.6951631315139855e+18,0.0,-2.0,-1.0,2.0,7.0,5.0,6.0,0.0
1.6951631315279782e+18,-2.0,3.0,3.0,1.0,-2.0,0.0,1.0,0.0
1.6951631315289774e+18,0.0,1.0,4.0,-3.0,-9.0,-9.0,-6.0,-4.0
1.6951631315289774e+18,-3.0,-3.0,-14.0,1.0,6.0,-3.0,-3.0,-2.0
1.6951631315289774e+18,-2.0,1.0,12.0,2.0,3.0,8.0,1.0,-1.0
1.6951631315419694e+18,3.0,2.0,-7.0,-3.0,-3.0,1.0,1.0,3.0
1.6951631315429706e+18,2.0,-1.0,6.0,-1.0,-4.0,-6.0,-4.0,-2.0
1.6951631315429706e+18,-2.0,-3.0,-7.0,0.0,1.0,-2.0,0.0,-3.0
1.6951631315429706e+18,-2.0,-1.0,-2.0,-2.0,-4.0,-1.0,1.0,-1.0
1.6951631315749514e+18,-1.0,2.0,3.0,-1.0,-3.0,-4.0,0.0,1.0
1.6951631315749514e+18,-3.0,-5.0,2.0,1.0,-1.0,1.0,1.0,0.0
1.6951631315749514e+18,-3.0,-1.0,4.0,-3.0,-5.0,-6.0,-2.0,-6.0
1.695163131575952e+18,0.0,-3.0,-6.0,-3.0,-1.0,-3.0,0.0,-1.0
1.69516313157995e+18,1.0,4.0,4.0,0.0,4.0,8.0,1.0,2.0
1.69516313157995e+18,-1.0,-2.0,-3.0,-1.0,-6.0,-3.0,-1.0,-1.0
1.695163131580948e+18,-2.0,-1.0,1.0,0.0,-1.0,-7.0,-4.0,-2.0
1.695163131580948e+18,1.0,1.0,3.0,1.0,7.0,13.0,3.0,3.0
1.6951631316179256e+18,-2.0,-6.0,-9.0,2.0,2.0,-2.0,-2.0,1.0
1.6951631316179256e+18,-2.0,1.0,2.0,1.0,1.0,3.0,-2.0,-2.0
1.695163131618928e+18,-1.0,1.0,7.0,3.0,-2.0,-4.0,-3.0,-1.0
1.695163131618928e+18,-2.0,-1.0,-4.0,0.0,-1.0,-2.0,0.0,-2.0
1.695163131632917e+18,0.0,0.0,-5.0,-2.0,-3.0,-1.0,0.0,1.0
1.695163131632917e+18,-1.0,0.0,15.0,5.0,0.0,1.0,-2.0,-2.0
1.6951631316339195e+18,0.0,-3.0,-19.0,-9.0,-3.0,-3.0,-2.0,-1.0
1.6951631316339195e+18,-2.0,-2.0,5.0,4.0,0.0,-5.0,-4.0,-2.0
1.6951631316559043e+18,0.0,2.0,9.0,4.0,1.0,2.0,0.0,0.0
1.6951631316559043e+18,0.0,1.0,-6.0,-1.0,2.0,3.0,2.0,0.0
1.6951631316559043e+18,-3.0,-7.0,-17.0,-11.0,-2.0,-3.0,0.0,-2.0
1.695163131656904e+18,-1.0,-3.0,-4.0,-1.0,0.0,3.0,-1.0,1.0
1.6951631316619016e+18,-3.0,-1.0,-2.0,-4.0,-3.0,-6.0,-3.0,-2.0
1.6951631316619016e+18,0.0,1.0,8.0,2.0,0.0,-2.0,1.0,0.0
1.6951631316698964e+18,1.0,0.0,13.0,6.0,2.0,3.0,1.0,-1.0
1.6951631316698964e+18,-6.0,-2.0,-8.0,-2.0,1.0,-3.0,-1.0,0.0
1.6951631316858875e+18,1.0,1.0,8.0,2.0,-3.0,0.0,0.0,-1.0
1.6951631316858875e+18,0.0,2.0,-2.0,10.0,2.0,-1.0,0.0,1.0
1.6951631316868872e+18,-4.0,-2.0,-4.0,-14.0,1.0,2.0,0.0,6.0
1.6951631316868872e+18,7.0,5.0,0.0,4.0,-3.0,-3.0,-5.0,-14.0
1.6951631317188692e+18,-3.0,-6.0,-2.0,6.0,-3.0,-2.0,1.0,1.0
1.6951631317188692e+18,0.0,-2.0,-7.0,-9.0,3.0,3.0,2.0,-3.0
1.6951631317248648e+18,0.0,1.0,0.0,4.0,3.0,4.0,-2.0,-4.0
1.6951631317268662e+18,1.0,1.0,9.0,2.0,2.0,-3.0,-1.0,3.0
1.6951631317308644e+18,3.0,-4.0,-6.0,-11.0,-2.0,8.0,3.0,8.0
1.6951631317308644e+18,-4.0,1.0,-9.0,2.0,-3.0,-6.0,-1.0,-9.0
1.6951631317318615e+18,-1.0,-1.0,3.0,-1.0,-2.0,-4.0,0.0,-3.0
1.6951631317318615e+18,-4.0,-2.0,4.0,-2.0,-3.0,1.0,1.0,5.0
1.6951631317378575e+18,-1.0,0.0,-3.0,0.0,-3.0,-5.0,-4.0,-3.0
1.6951631317378575e+18,1.0,0.0,7.0,0.0,3.0,1.0,1.0,5.0
1.6951631317388572e+18,-2.0,-3.0,-7.0,0.0,1.0,-2.0,0.0,-3.0
1.6951631317388572e+18,-2.0,-1.0,-2.0,-2.0,-4.0,-1.0,1.0,-1.0
1.6951631317478572e+18,-1.0,2.0,3.0,-1.0,-3.0,-4.0,0.0,1.0
1.6951631317478572e+18,-3.0,-5.0,2.0,1.0,-1.0,1.0,1.0,0.0
1.6951631317488512e+18,-3.0,-1.0,4.0,-3.0,-5.0,-6.0,-2.0,-6.0
1.6951631317488512e+18,0.0,-3.0,-6.0,-3.0,-1.0,-3.0,0.0,-1.0
1.6951631317628442e+18,-3.0,-2.0,-11.0,-11.0,-3.0,-3.0,-2.0,-5.0
1.6951631317628442e+18,0.0,-3.0,14.0,2.0,-2.0,2.0,-1.0,0.0
1.6951631317638436e+18,-1.0,3.0,3.0,4.0,1.0,-2.0,-3.0,-3.0
1.6951631317638436e+18,-2.0,-5.0,-20.0,-16.0,-8.0,-8.0,-4.0,-2.0
1.695163131774842e+18,-2.0,3.0,25.0,18.0,5.0,2.0,1.0,0.0
1.695163131774842e+18,1.0,-2.0,-21.0,-12.0,2.0,5.0,1.0,1.0
1.6951631317898499e+18,-1.0,-1.0,12.0,10.0,-1.0,-3.0,-2.0,-1.0
1.6951631317898499e+18,-2.0,-3.0,-3.0,-5.0,-3.0,1.0,-1.0,2.0
1.6951631317968246e+18,-1.0,-1.0,0.0,-5.0,0.0,-3.0,-3.0,-2.0
1.6951631317968246e+18,-1.0,-1.0,-3.0,-2.0,-6.0,-7.0,-2.0,0.0
1.6951631318048425e+18,-1.0,-1.0,6.0,4.0,-1.0,-4.0,-2.0,-1.0
1.6951631318048425e+18,0.0,1.0,-5.0,-2.0,5.0,7.0,1.0,1.0
1.6951631318118185e+18,-1.0,-1.0,-5.0,1.0,0.0,3.0,0.0,-2.0
1.6951631318118185e+18,1.0,-3.0,1.0,-2.0,2.0,-1.0,0.0,-1.0
1.695163131818834e+18,1.0,0.0,-1.0,-3.0,-3.0,-1.0,0.0,0.0
1.6951631318198113e+18,-2.0,-2.0,0.0,-1.0,-2.0,-4.0,-2.0,-2.0
1.695163131850793e+18,-1.0,0.0,-2.0,-1.0,0.0,-1.0,-4.0,-1.0
1.695163131850793e+18,-1.0,0.0,0.0,-2.0,-1.0,0.0,-1.0,0.0
1.6951631318517926e+18,-2.0,-1.0,2.0,1.0,-1.0,0.0,-2.0,0.0
1.6951631318517926e+18,0.0,-1.0,-4.0,2.0,0.0,0.0,-1.0,0.0
1.6951631318567892e+18,-1.0,-1.0,-3.0,-2.0,1.0,0.0,2.0,-1.0
1.6951631318567892e+18,1.0,-1.0,-1.0,-2.0,-1.0,-3.0,-2.0,-1.0
1.6951631318647854e+18,0.0,1.0,0.0,-2.0,0.0,1.0,0.0,-1.0
1.6951631318657848e+18,1.0,-1.0,1.0,1.0,0.0,0.0,1.0,0.0
1.695163131887794e+18,-1.0,-2.0,-2.0,-2.0,-2.0,0.0,-1.0,-1.0
1.6951631318887726e+18,1.0,-1.0,-1.0,-2.0,-2.0,-1.0,-1.0,1.0
1.6951631318887726e+18,0.0,1.0,2.0,2.0,0.0,1.0,0.0,-1.0
1.6951631318887726e+18,0.0,0.0,0.0,-2.0,-3.0,0.0,0.0,-2.0
1.6951631318937905e+18,-1.0,-2.0,-2.0,-3.0,-2.0,-3.0,-1.0,-2.0
1.6951631318947684e+18,-1.0,2.0,-1.0,-1.0,-1.0,1.0,0.0,-3.0
1.6951631319017859e+18,0.0,-1.0,2.0,1.0,0.0,0.0,1.0,-1.0
1.6951631319017859e+18,0.0,-2.0,-1.0,-2.0,-1.0,-3.0,-1.0,-3.0
1.69516313191776e+18,0.0,1.0,-3.0,-2.0,-1.0,0.0,-2.0,0.0
1.69516313191776e+18,-1.0,-3.0,-1.0,0.0,0.0,0.0,0.0,-1.0
1.6951631319367468e+18,1.0,-1.0,1.0,0.0,-3.0,0.0,-1.0,1.0
1.6951631319367468e+18,0.0,-1.0,-2.0,-2.0,-1.0,-2.0,0.0,-1.0
1.6951631319397647e+18,0.0,0.0,-2.0,-2.0,-1.0,0.0,0.0,-1.0
1.6951631319407434e+18,-1.0,-2.0,-1.0,1.0,-1.0,-1.0,-2.0,-2.0
1.6951631319407434e+18,-1.0,-2.0,0.0,0.0,1.0,-2.0,-1.0,-1.0
1.6951631319407434e+18,-2.0,-2.0,-3.0,1.0,-1.0,0.0,-2.0,-1.0
1.6951631319547336e+18,-1.0,0.0,0.0,-1.0,-1.0,-1.0,-1.0,-3.0
1.6951631319547336e+18,-3.0,-1.0,-1.0,-2.0,-2.0,0.0,-2.0,-2.0
1.6951631319617306e+18,-1.0,-2.0,-3.0,-1.0,0.0,-2.0,-2.0,-1.0
1.695163131962729e+18,-1.0,-1.0,-1.0,0.0,-1.0,0.0,-1.0,-1.0
1.6951631319767201e+18,0.0,-3.0,-2.0,-2.0,-2.0,-2.0,-3.0,-2.0
1.6951631319767201e+18,-2.0,0.0,-1.0,-2.0,-1.0,-1.0,-2.0,0.0
1.6951631319927117e+18,-1.0,0.0,1.0,-1.0,-1.0,0.0,1.0,-2.0
1.6951631319927117e+18,-2.0,-2.0,-1.0,1.0,0.0,-1.0,0.0,-1.0
1.6951631320027062e+18,0.0,-1.0,-1.0,-2.0,0.0,-2.0,0.0,0.0
1.6951631320047073e+18,-1.0,-1.0,0.0,0.0,-1.0,0.0,0.0,0.0
1.6951631320047073e+18,0.0,0.0,0.0,0.0,-1.0,0.0,-1.0,0.0
1.6951631320047073e+18,-1.0,-1.0,-2.0,-2.0,0.0,0.0,0.0,1.0
1.6951631320146995e+18,0.0,0.0,0.0,-1.0,0.0,-1.0,0.0,0.0
1.6951631320146995e+18,0.0,0.0,-1.0,-1.0,-2.0,-3.0,0.0,0.0
1.6951631320216978e+18,-1.0,1.0,0.0,-2.0,-1.0,0.0,-1.0,-2.0
1.6951631320216978e+18,-1.0,-1.0,-2.0,-2.0,0.0,-1.0,-1.0,-1.0
1.6951631320366894e+18,-2.0,-1.0,-1.0,0.0,1.0,-1.0,0.0,-3.0
1.6951631320366894e+18,0.0,0.0,1.0,0.0,0.0,0.0,0.0,1.0
1.695163132052677e+18,-1.0,-1.0,-1.0,0.0,1.0,-1.0,-2.0,-2.0
1.695163132052677e+18,0.0,-1.0,1.0,-1.0,-3.0,-1.0,-2.0,0.0
1.695163132067671e+18,-1.0,0.0,-2.0,-2.0,-1.0,-1.0,-1.0,1.0
1.6951631320686684e+18,0.0,0.0,0.0,0.0,0.0,-1.0,-1.0,-2.0
1.6951631320696686e+18,0.0,-1.0,0.0,0.0,-2.0,-1.0,1.0,0.0
1.6951631320696686e+18,1.0,1.0,-1.0,0.0,-1.0,0.0,-1.0,-2.0
1.695163132074665e+18,-1.0,-1.0,0.0,0.0,2.0,0.0,1.0,0.0
1.695163132074665e+18,0.0,0.0,-2.0,-1.0,0.0,0.0,0.0,0.0
1.6951631320836595e+18,0.0,0.0,-1.0,0.0,0.0,-2.0,-1.0,1.0
1.6951631320846595e+18,1.0,0.0,-1.0,-3.0,-2.0,1.0,-1.0,-1.0
1.6951631321136433e+18,0.0,0.0,0.0,1.0,-2.0,-1.0,-1.0,-2.0
1.6951631321136433e+18,1.0,-2.0,-1.0,0.0,0.0,-1.0,-1.0,-1.0
1.6951631321136433e+18,-1.0,-1.0,-1.0,2.0,0.0,0.0,-1.0,-2.0
1.6951631321146417e+18,-2.0,0.0,-1.0,1.0,0.0,-2.0,0.0,-1.0
1.695163132128635e+18,0.0,-2.0,-2.0,-2.0,-2.0,0.0,0.0,-1.0
1.695163132128635e+18,-1.0,-1.0,-1.0,-1.0,0.0,0.0,0.0,1.0
1.695163132128635e+18,0.0,-2.0,-1.0,1.0,-3.0,0.0,0.0,1.0
1.6951631321296369e+18,-2.0,-2.0,-2.0,1.0,-1.0,-3.0,0.0,-1.0
1.6951631321356524e+18,-2.0,0.0,0.0,0.0,-1.0,-1.0,-2.0,-1.0
1.6951631321356524e+18,0.0,0.0,-2.0,-2.0,-1.0,0.0,0.0,-2.0
1.695163132141628e+18,-2.0,-1.0,-1.0,-2.0,-1.0,-1.0,-1.0,-1.0
1.695163132141628e+18,-1.0,-1.0,-1.0,-1.0,0.0,1.0,0.0,-1.0
1.69516313217463e+18,1.0,0.0,1.0,0.0,-1.0,-1.0,1.0,-1.0
1.69516313217463e+18,1.0,-2.0,1.0,0.0,0.0,0.0,-1.0,1.0
1.6951631321756083e+18,-1.0,0.0,0.0,-1.0,0.0,0.0,0.0,0.0
1.6951631321756083e+18,0.0,0.0,-1.0,0.0,0.0,0.0,-2.0,-2.0
1.695163132179606e+18,0.0,-1.0,-3.0,0.0,1.0,-1.0,-1.0,-1.0
1.695163132179606e+18,-2.0,0.0,-1.0,-1.0,1.0,-1.0,-1.0,0.0
1.6951631321886083e+18,-1.0,-1.0,-1.0,-3.0,1.0,1.0,-1.0,-1.0
1.6951631321896018e+18,-1.0,0.0,0.0,-2.0,-2.0,0.0,0.0,1.0
1.695163132194596e+18,1.0,0.0,0.0,0.0,-2.0,-1.0,-2.0,1.0
1.695163132194596e+18,-1.0,-2.0,-1.0,0.0,-2.0,0.0,1.0,-1.0
1.6951631322015946e+18,0.0,-2.0,-1.0,-1.0,0.0,0.0,0.0,1.0
1.6951631322015946e+18,1.0,-1.0,0.0,-1.0,-1.0,-1.0,-1.0,-1.0
1.6951631322335526e+18,0.0,0.0,1.0,-1.0,-1.0,0.0,0.0,-1.0
1.6951631322335526e+18,0.0,-1.0,0.0,-1.0,-2.0,0.0,-1.0,0.0
1.6951631322335526e+18,0.0,0.0,0.0,0.0,-1.0,1.0,-1.0,0.0
1.6951631322335526e+18,-2.0,-1.0,1.0,0.0,0.0,0.0,1.0,0.0
1.6951631322398804e+18,-1.0,-1.0,-2.0,0.0,-1.0,-1.0,-1.0,0.0
1.6951631322398804e+18,0.0,0.0,0.0,0.0,0.0,-2.0,0.0,-1.0
1.6951631322408863e+18,0.0,-1.0,-2.0,-2.0,-1.0,-2.0,2.0,0.0
1.6951631322408863e+18,-1.0,-1.0,-4.0,-1.0,0.0,0.0,-1.0,-1.0
1.695163132255898e+18,1.0,2.0,10.0,-1.0,-1.0,0.0,1.0,0.0
1.695163132255898e+18,-2.0,-1.0,-14.0,-2.0,1.0,1.0,-1.0,1.0
1.695163132261893e+18,2.0,-2.0,3.0,0.0,-2.0,0.0,-1.0,-1.0
1.6951631322628887e+18,1.0,-1.0,-1.0,-4.0,-6.0,-5.0,-2.0,-1.0
1.6951631322858867e+18,-1.0,7.0,16.0,-1.0,-3.0,-4.0,0.0,-1.0
1.6951631322858867e+18,0.0,-12.0,-22.0,-6.0,-4.0,0.0,2.0,0.0
1.695163132286875e+18,-2.0,-1.0,-25.0,-7.0,-9.0,-9.0,-2.0,-2.0
1.695163132286875e+18,-1.0,-1.0,-5.0,23.0,40.0,19.0,4.0,0.0
1.6951631323009037e+18,-3.0,-8.0,19.0,-2.0,-2.0,0.0,-3.0,-3.0
1.6951631323009037e+18,0.0,4.0,6.0,0.0,-1.0,-4.0,-5.0,-1.0
1.6951631323018975e+18,-1.0,0.0,-2.0,-9.0,-24.0,-11.0,0.0,-1.0
1.6951631323018975e+18,0.0,0.0,25.0,-11.0,-10.0,-1.0,1.0,1.0
1.6951631323148892e+18,-2.0,3.0,-17.0,14.0,24.0,8.0,-3.0,-5.0
1.6951631323148892e+18,-1.0,-6.0,5.0,-6.0,-7.0,-5.0,-2.0,9.0
1.6951631323228943e+18,-2.0,8.0,2.0,-6.0,-9.0,-15.0,-2.0,-14.0
1.6951631323228943e+18,-4.0,-12.0,5.0,-3.0,-28.0,15.0,-3.0,4.0
1.695163132345824e+18,-1.0,4.0,3.0,-9.0,-2.0,-5.0,1.0,-3.0
1.6951631323468314e+18,3.0,-22.0,-25.0,4.0,0.0,-21.0,-6.0,0.0
1.6951631323468314e+18,-2.0,9.0,21.0,9.0,20.0,21.0,5.0,24.0
1.6951631323478239e+18,-1.0,-2.0,19.0,-11.0,-11.0,-69.0,-7.0,-30.0
1.69516313236485e+18,-13.0,-10.0,-47.0,-21.0,-36.0,61.0,-7.0,15.0
1.69516313236485e+18,-9.0,3.0,11.0,-4.0,-16.0,7.0,-19.0,-33.0
1.6951631323748106e+18,6.0,0.0,-21.0,-14.0,-64.0,-92.0,-21.0,9.0
1.6951631323897987e+18,16.0,-3.0,-4.0,15.0,-13.0,-16.0,29.0,22.0
1.6951631323917972e+18,8.0,32.0,24.0,33.0,98.0,72.0,70.0,48.0
1.6951631323917972e+18,8.0,8.0,12.0,37.0,31.0,2.0,53.0,-33.0
1.6951631323928049e+18,0.0,-2.0,2.0,9.0,33.0,-58.0,-42.0,0.0
1.6951631323928049e+18,-13.0,-5.0,-18.0,-27.0,-78.0,-65.0,-94.0,10.0
1.695163132407014e+18,-14.0,-28.0,-14.0,-37.0,-105.0,-128.0,6.0,-25.0
1.695163132407014e+18,2.0,14.0,-5.0,-13.0,-64.0,13.0,-11.0,-12.0
1.695163132407014e+18,-14.0,-46.0,-10.0,7.0,54.0,110.0,51.0,-20.0
1.6951631324080146e+18,9.0,14.0,-16.0,-6.0,28.0,16.0,-10.0,61.0
1.695163132421007e+18,13.0,4.0,-5.0,-9.0,-29.0,-37.0,-79.0,-58.0
1.695163132422011e+18,-4.0,2.0,5.0,-5.0,8.0,-80.0,-7.0,13.0
1.695163132422011e+18,-2.0,12.0,4.0,13.0,51.0,66.0,-8.0,10.0
1.695163132423007e+18,-3.0,6.0,33.0,4.0,-5.0,-47.0,19.0,-9.0
1.6951631324429937e+18,11.0,-2.0,-27.0,8.0,-5.0,60.0,32.0,19.0
1.6951631324429937e+18,6.0,-5.0,-4.0,2.0,76.0,61.0,24.0,-21.0
1.695163132443993e+18,-7.0,5.0,37.0,2.0,-61.0,-77.0,-11.0,17.0
1.695163132443993e+18,1.0,-2.0,10.0,17.0,52.0,64.0,21.0,-39.0
1.6951631324569892e+18,-17.0,-17.0,-21.0,-8.0,-49.0,-50.0,14.0,40.0
1.6951631324569892e+18,-5.0,3.0,4.0,-13.0,-46.0,-50.0,-19.0,-2.0
1.69516313246998e+18,-2.0,-7.0,4.0,-3.0,23.0,52.0,5.0,-55.0
1.69516313246998e+18,-1.0,-5.0,-14.0,-3.0,-25.0,-41.0,-12.0,58.0
1.6951631324809705e+18,-10.0,6.0,27.0,2.0,-12.0,-15.0,-30.0,-24.0
1.695163132481972e+18,12.0,-2.0,-12.0,-4.0,15.0,30.0,-11.0,45.0
1.695163132481972e+18,-4.0,-5.0,-16.0,-1.0,1.0,5.0,33.0,-16.0
1.695163132481972e+18,0.0,5.0,-15.0,-7.0,-26.0,-21.0,8.0,-35.0
1.6951631324939648e+18,-2.0,10.0,-21.0,3.0,28.0,13.0,-2.0,-35.0
1.6951631324939648e+18,-1.0,-20.0,58.0,5.0,18.0,37.0,86.0,13.0
1.6951631325019587e+18,14.0,18.0,-52.0,-13.0,-38.0,-58.0,-100.0,36.0
1.695163132502959e+18,-21.0,-34.0,-8.0,1.0,15.0,40.0,54.0,10.0
1.6951631325189489e+18,-20.0,-13.0,-6.0,1.0,20.0,-3.0,-90.0,55.0
1.6951631325189489e+18,-2.0,23.0,10.0,7.0,-16.0,-18.0,-8.0,-20.0
1.6951631325489544e+18,-20.0,3.0,-3.0,-7.0,-23.0,-17.0,26.0,-38.0
1.6951631325489544e+18,24.0,20.0,3.0,1.0,21.0,35.0,11.0,-6.0
1.6951631325509304e+18,-17.0,-27.0,-10.0,3.0,13.0,9.0,34.0,-43.0
1.6951631325509304e+18,-15.0,-12.0,24.0,-4.0,-23.0,-31.0,-29.0,0.0
1.6951631325639245e+18,10.0,6.0,0.0,4.0,8.0,14.0,8.0,12.0
1.6951631325639245e+18,-13.0,28.0,-27.0,-5.0,13.0,23.0,11.0,-27.0
1.6951631325649231e+18,24.0,-14.0,54.0,-3.0,-15.0,-27.0,-20.0,-4.0
1.6951631325659236e+18,-14.0,-36.0,-12.0,10.0,7.0,4.0,-20.0,8.0
1.6951631325659236e+18,8.0,12.0,24.0,-2.0,7.0,21.0,45.0,14.0
1.6951631325669225e+18,19.0,-15.0,34.0,9.0,-5.0,-11.0,-30.0,24.0
1.695163132594906e+18,18.0,18.0,2.0,4.0,1.0,-7.0,8.0,-8.0
1.695163132594906e+18,5.0,10.0,-32.0,-11.0,-6.0,2.0,-15.0,11.0
1.6951631325959066e+18,-11.0,-19.0,16.0,1.0,-5.0,1.0,13.0,-16.0
1.6951631325959066e+18,-24.0,-1.0,-8.0,-3.0,-6.0,-10.0,-5.0,-1.0
1.6951631326082002e+18,2.0,-32.0,-3.0,13.0,17.0,14.0,9.0,15.0
1.6951631326082002e+18,0.0,-13.0,-19.0,2.0,5.0,5.0,-6.0,-8.0
1.695163132609205e+18,10.0,3.0,11.0,1.0,-9.0,-8.0,16.0,19.0
1.695163132609205e+18,-22.0,22.0,-21.0,-8.0,-8.0,-10.0,-37.0,-77.0
1.695163132621907e+18,46.0,4.0,16.0,2.0,3.0,-5.0,-9.0,51.0
1.695163132621907e+18,-14.0,32.0,-9.0,-9.0,-4.0,16.0,40.0,15.0
1.6951631326298301e+18,-12.0,-30.0,16.0,9.0,3.0,-4.0,-8.0,-10.0
1.6951631326298301e+18,-9.0,-18.0,-17.0,-1.0,7.0,17.0,18.0,-37.0
1.695163132653825e+18,8.0,27.0,17.0,-1.0,-4.0,-13.0,-36.0,9.0
1.695163132653825e+18,4.0,-2.0,-21.0,-6.0,-12.0,-13.0,-17.0,6.0
1.695163132654816e+18,18.0,11.0,8.0,1.0,1.0,0.0,5.0,0.0
1.695163132654816e+18,7.0,-3.0,33.0,8.0,10.0,10.0,7.0,-6.0
1.6951631326848978e+18,-7.0,17.0,-23.0,-5.0,0.0,6.0,24.0,-18.0
1.6951631326848978e+18,22.0,27.0,16.0,-1.0,-6.0,-8.0,-13.0,5.0
1.6951631326858967e+18,-27.0,-23.0,-21.0,0.0,4.0,6.0,-8.0,-9.0
1.6951631326858967e+18,16.0,6.0,-3.0,-3.0,-5.0,-7.0,3.0,2.0
1.6951631326868966e+18,-2.0,-4.0,-12.0,-1.0,4.0,4.0,14.0,15.0
1.6951631326878958e+18,-6.0,-10.0,18.0,1.0,-3.0,-2.0,-10.0,-11.0
1.6951631327068874e+18,7.0,17.0,-2.0,-5.0,1.0,-2.0,1.0,12.0
1.695163132707886e+18,-1.0,4.0,-14.0,-3.0,-8.0,-9.0,-11.0,17.0
1.6951631327298816e+18,-18.0,-2.0,5.0,-2.0,-7.0,9.0,46.0,-34.0
1.6951631327318743e+18,-5.0,-2.0,-8.0,5.0,9.0,-8.0,-41.0,25.0
1.6951631327318743e+18,13.0,11.0,-2.0,-2.0,-12.0,-5.0,-3.0,16.0
1.6951631327318743e+18,2.0,-2.0,34.0,7.0,12.0,4.0,0.0,15.0
1.69516313273287e+18,-8.0,11.0,-65.0,-13.0,1.0,5.0,9.0,-18.0
1.69516313273287e+18,-6.0,-11.0,23.0,-3.0,-18.0,-8.0,6.0,-25.0
1.6951631327348675e+18,8.0,12.0,-9.0,0.0,11.0,3.0,-15.0,5.0
1.6951631327358687e+18,-5.0,-17.0,-32.0,-12.0,-13.0,1.0,7.0,1.0
1.6951631327418624e+18,-8.0,-21.0,46.0,21.0,10.0,2.0,-3.0,-30.0
1.6951631327418624e+18,3.0,19.0,-11.0,-20.0,-20.0,-15.0,-14.0,20.0
1.6951631327578545e+18,-5.0,-8.0,-2.0,11.0,12.0,8.0,1.0,22.0
1.6951631327578545e+18,0.0,6.0,-7.0,6.0,6.0,-2.0,-5.0,-7.0
1.6951631327878413e+18,-1.0,6.0,1.0,-14.0,-22.0,-4.0,2.0,-6.0
1.6951631327888366e+18,0.0,4.0,9.0,-6.0,-5.0,-4.0,7.0,-9.0
1.695163132796831e+18,4.0,-2.0,15.0,11.0,22.0,14.0,4.0,-4.0
1.695163132797832e+18,1.0,-4.0,-7.0,-16.0,-31.0,-12.0,-1.0,4.0
1.6951631327998305e+18,-1.0,1.0,-14.0,1.0,-55.0,-36.0,-9.0,2.0
1.6951631328008333e+18,-1.0,-17.0,11.0,-3.0,55.0,47.0,7.0,4.0
1.6951631328008333e+18,-2.0,7.0,20.0,27.0,4.0,-1.0,2.0,-9.0
1.6951631328018289e+18,3.0,4.0,-13.0,-8.0,-33.0,-2.0,4.0,6.0
1.695163132810823e+18,-4.0,-5.0,18.0,0.0,-30.0,-14.0,-10.0,5.0
1.695163132810823e+18,3.0,7.0,-1.0,-90.0,-12.0,-25.0,-4.0,-8.0
1.695163132811824e+18,0.0,1.0,-23.0,33.0,24.0,22.0,0.0,-7.0
1.695163132811824e+18,-4.0,-3.0,28.0,40.0,4.0,-34.0,-8.0,3.0
1.695163132824815e+18,-2.0,5.0,1.0,-22.0,-2.0,26.0,-1.0,4.0
1.695163132824815e+18,-3.0,-10.0,-18.0,-2.0,-43.0,-7.0,3.0,-7.0
1.6951631328258148e+18,0.0,-3.0,-3.0,-22.0,-5.0,1.0,1.0,-2.0
1.6951631328258148e+18,0.0,-1.0,0.0,-9.0,-11.0,-13.0,-11.0,4.0
1.6951631328558013e+18,0.0,-1.0,-9.0,-16.0,-13.0,-31.0,4.0,0.0
1.6951631328558013e+18,2.0,-1.0,-6.0,43.0,43.0,50.0,10.0,-1.0
1.6951631328567985e+18,-1.0,4.0,9.0,-20.0,-31.0,-20.0,-9.0,-2.0
1.6951631328567985e+18,-6.0,-9.0,2.0,23.0,32.0,18.0,5.0,0.0
1.6951631328708588e+18,2.0,5.0,-2.0,-6.0,45.0,-13.0,-30.0,-4.0
1.6951631328708588e+18,0.0,1.0,-10.0,-3.0,-21.0,4.0,-3.0,-1.0
1.695163132871837e+18,-12.0,-24.0,-27.0,-25.0,-36.0,-47.0,14.0,-7.0
1.695163132871837e+18,9.0,20.0,25.0,-5.0,-11.0,33.0,14.0,3.0
1.6951631329038374e+18,-6.0,-17.0,-18.0,25.0,64.0,60.0,50.0,11.0
1.6951631329048248e+18,2.0,7.0,6.0,10.0,-36.0,-28.0,-19.0,-5.0
1.6951631329048248e+18,2.0,6.0,0.0,29.0,54.0,20.0,2.0,3.0
1.6951631329048248e+18,-2.0,-2.0,-1.0,-13.0,-14.0,-43.0,-37.0,-7.0
1.6951631329158103e+18,-10.0,-22.0,-13.0,-23.0,-19.0,10.0,18.0,-1.0
1.6951631329158103e+18,0.0,-4.0,-16.0,-4.0,5.0,10.0,40.0,6.0
1.6951631329168084e+18,-6.0,-10.0,-7.0,13.0,-16.0,-22.0,-29.0,-12.0
1.6951631329168084e+18,-2.0,-12.0,-11.0,4.0,42.0,28.0,20.0,1.0
1.6951631329218268e+18,11.0,22.0,40.0,45.0,18.0,10.0,-20.0,3.0
1.6951631329218268e+18,-7.0,-2.0,-4.0,16.0,-16.0,-38.0,-27.0,-12.0
1.6951631329467914e+18,0.0,-2.0,-9.0,-36.0,-31.0,-4.0,4.0,-3.0
1.6951631329477921e+18,2.0,7.0,7.0,27.0,4.0,1.0,-3.0,3.0
1.6951631329487916e+18,4.0,6.0,2.0,-44.0,-30.0,-3.0,-20.0,-1.0
1.6951631329497902e+18,-2.0,-11.0,-12.0,30.0,45.0,-5.0,5.0,-1.0
1.6951631329497902e+18,-2.0,11.0,23.0,13.0,-3.0,-15.0,-63.0,-18.0
1.6951631329497902e+18,5.0,0.0,-10.0,-17.0,3.0,32.0,40.0,20.0
1.6951631329973125e+18,-1.0,6.0,7.0,9.0,-1.0,2.0,54.0,7.0
1.6951631329973125e+18,1.0,-2.0,9.0,19.0,21.0,17.0,-3.0,2.0
1.6951631330071444e+18,6.0,6.0,-29.0,-60.0,-9.0,8.0,15.0,0.0
1.6951631330071444e+18,-13.0,-19.0,-2.0,1.0,2.0,-33.0,-49.0,-21.0
1.695163133009148e+18,4.0,2.0,1.0,-9.0,-10.0,12.0,35.0,16.0
1.695163133009148e+18,-1.0,5.0,1.0,-12.0,-13.0,-25.0,-71.0,-14.0
1.695163133009148e+18,0.0,6.0,7.0,34.0,48.0,36.0,82.0,25.0
1.695163133009148e+18,6.0,-14.0,23.0,-8.0,-15.0,-4.0,-41.0,3.0
1.6951631330141466e+18,-8.0,2.0,-6.0,27.0,14.0,-1.0,-10.0,-13.0
1.6951631330141466e+18,13.0,5.0,1.0,-23.0,-25.0,-20.0,-84.0,-8.0
1.695163133052182e+18,-4.0,-14.0,15.0,39.0,11.0,0.0,-11.0,10.0
1.695163133052182e+18,-4.0,-11.0,-3.0,-11.0,-23.0,14.0,63.0,18.0
1.6951631330531845e+18,-8.0,29.0,-7.0,18.0,11.0,-21.0,-79.0,-24.0
1.6951631330531845e+18,3.0,4.0,-19.0,-17.0,5.0,13.0,31.0,5.0
1.6951631330541837e+18,2.0,-1.0,-21.0,-37.0,-10.0,-17.0,-28.0,-7.0
1.6951631330541837e+18,-1.0,8.0,4.0,25.0,6.0,5.0,20.0,-4.0
1.6951631330571804e+18,6.0,6.0,-6.0,-20.0,-30.0,-15.0,0.0,-3.0
1.6951631330571804e+18,-11.0,-37.0,6.0,25.0,29.0,19.0,8.0,1.0
1.6951631330731935e+18,5.0,11.0,14.0,-15.0,-22.0,-18.0,-22.0,-8.0
1.6951631330731935e+18,-5.0,-6.0,-12.0,-8.0,15.0,4.0,18.0,9.0
1.6951631330741722e+18,-2.0,-52.0,31.0,11.0,-11.0,2.0,-7.0,-4.0
1.6951631330741722e+18,6.0,-8.0,-10.0,-19.0,-23.0,-6.0,-5.0,-6.0
1.6951631330882893e+18,-12.0,3.0,-20.0,5.0,18.0,0.0,-6.0,-5.0
1.6951631330882893e+18,8.0,35.0,-4.0,13.0,4.0,8.0,16.0,11.0
1.6951631330892943e+18,-13.0,-16.0,3.0,-15.0,-36.0,-36.0,-55.0,-24.0
1.6951631330892943e+18,5.0,13.0,-18.0,-11.0,2.0,8.0,19.0,6.0
1.695163133119345e+18,3.0,12.0,-6.0,-1.0,21.0,11.0,8.0,5.0
1.695163133119345e+18,-4.0,-3.0,11.0,17.0,12.0,9.0,4.0,-15.0
1.695163133119345e+18,-8.0,-48.0,-12.0,-10.0,4.0,-11.0,-25.0,0.0
1.695163133119345e+18,-3.0,17.0,0.0,-3.0,-12.0,0.0,-7.0,2.0
1.6951631331256e+18,1.0,2.0,2.0,-1.0,-8.0,4.0,20.0,-3.0
1.6951631331265984e+18,-8.0,-10.0,-1.0,1.0,-1.0,2.0,25.0,18.0
1.6951631331265984e+18,8.0,5.0,-5.0,-5.0,11.0,22.0,10.0,-12.0
1.6951631331265984e+18,-5.0,15.0,0.0,6.0,3.0,-6.0,6.0,-1.0
1.695163133149313e+18,-2.0,-20.0,3.0,-5.0,-10.0,-11.0,-18.0,0.0
1.695163133149313e+18,-6.0,-8.0,0.0,15.0,4.0,-11.0,-4.0,-22.0
1.6951631331503101e+18,3.0,-18.0,11.0,-6.0,-3.0,3.0,4.0,15.0
1.6951631331513236e+18,11.0,8.0,-6.0,5.0,7.0,8.0,-12.0,13.0
1.695163133196284e+18,-5.0,17.0,2.0,6.0,6.0,3.0,-5.0,-28.0
1.6951631331972833e+18,-4.0,-16.0,-3.0,-9.0,-8.0,1.0,2.0,27.0
1.6951631331972833e+18,4.0,13.0,-6.0,-6.0,-2.0,-7.0,5.0,-17.0
1.6951631331982812e+18,-6.0,-5.0,4.0,8.0,3.0,-3.0,-6.0,4.0
1.6951631331992804e+18,6.0,-7.0,-2.0,-8.0,-11.0,-11.0,-15.0,7.0
1.6951631331992804e+18,1.0,-4.0,5.0,-2.0,-1.0,-4.0,-3.0,-17.0
1.6951631332112742e+18,1.0,-2.0,-3.0,3.0,-21.0,-3.0,3.0,15.0
1.695163133212275e+18,-3.0,0.0,8.0,-4.0,12.0,1.0,5.0,-1.0
1.695163133213273e+18,-3.0,-21.0,11.0,9.0,6.0,6.0,4.0,2.0
1.695163133213273e+18,-1.0,4.0,-4.0,-15.0,5.0,0.0,-6.0,0.0
1.6951631332372618e+18,-6.0,-10.0,9.0,17.0,-15.0,-9.0,-3.0,-1.0
1.6951631332382582e+18,-2.0,-10.0,4.0,40.0,16.0,0.0,8.0,-5.0
1.695163133254251e+18,0.0,22.0,-21.0,-34.0,-11.0,-4.0,-14.0,-4.0
1.6951631332552481e+18,-2.0,-11.0,8.0,12.0,-1.0,-2.0,1.0,-3.0
1.6951631332562524e+18,5.0,5.0,-6.0,-7.0,27.0,9.0,1.0,7.0
1.6951631332562524e+18,-1.0,4.0,3.0,-9.0,-20.0,-9.0,-2.0,-10.0
1.6951631332572472e+18,0.0,-12.0,1.0,17.0,11.0,4.0,0.0,8.0
1.6951631332572472e+18,2.0,5.0,-3.0,-9.0,-9.0,-5.0,-3.0,-3.0
1.6951631332942318e+18,-1.0,12.0,-8.0,-13.0,-5.0,2.0,3.0,-2.0
1.695163133295225e+18,-1.0,1.0,-1.0,2.0,0.0,-1.0,0.0,-1.0
1.6951631332972288e+18,1.0,-2.0,4.0,1.0,-3.0,-5.0,-6.0,-2.0
1.6951631332972288e+18,-1.0,-2.0,0.0,0.0,-4.0,-3.0,-2.0,-3.0
1.6951631332982239e+18,5.0,8.0,5.0,3.0,13.0,2.0,0.0,3.0
1.6951631332982239e+18,1.0,-4.0,-17.0,-5.0,5.0,3.0,1.0,2.0
1.695163133299223e+18,-4.0,-6.0,-12.0,-7.0,-1.0,-2.0,1.0,0.0
1.695163133299223e+18,4.0,19.0,13.0,4.0,-3.0,-2.0,-16.0,-6.0
1.6951631333372055e+18,15.0,-9.0,30.0,2.0,-4.0,-7.0,-30.0,83.0
1.695163133338201e+18,-7.0,4.0,-7.0,2.0,19.0,7.0,-18.0,-45.0
1.6951631333391997e+18,31.0,50.0,-26.0,1.0,-2.0,5.0,25.0,6.0
1.6951631333391997e+18,19.0,-72.0,18.0,-15.0,-14.0,1.0,6.0,6.0
1.6951631333391997e+18,-34.0,1.0,22.0,8.0,-3.0,-10.0,-31.0,-2.0
1.6951631333402053e+18,-15.0,-37.0,-17.0,-7.0,-2.0,10.0,37.0,87.0
1.6951631333432005e+18,38.0,-10.0,-11.0,-3.0,-1.0,-14.0,-59.0,56.0
1.695163133344197e+18,-29.0,10.0,-21.0,-8.0,-6.0,-7.0,-4.0,-18.0
1.6951631333522007e+18,28.0,7.0,24.0,10.0,11.0,11.0,33.0,-80.0
1.6951631333531973e+18,52.0,57.0,-28.0,-5.0,-6.0,-15.0,-19.0,-26.0
1.6951631333541957e+18,-35.0,49.0,80.0,14.0,14.0,21.0,24.0,-42.0
1.695163133357194e+18,-55.0,-43.0,-58.0,-19.0,-15.0,-7.0,16.0,-29.0
1.695163133365185e+18,17.0,-8.0,2.0,3.0,-3.0,-12.0,-31.0,-83.0
1.695163133365185e+18,-27.0,-34.0,12.0,-6.0,3.0,-2.0,-25.0,34.0
1.6951631333731837e+18,5.0,-57.0,-93.0,-15.0,-10.0,-8.0,-6.0,120.0
1.695163133374186e+18,42.0,70.0,46.0,12.0,1.0,0.0,-21.0,-31.0
1.6951631333881966e+18,-30.0,15.0,7.0,6.0,1.0,9.0,44.0,-58.0
1.6951631333891722e+18,-30.0,-14.0,0.0,-8.0,-9.0,0.0,37.0,-39.0
1.6951631333901706e+18,33.0,-33.0,58.0,6.0,-4.0,-9.0,-15.0,-79.0
1.6951631333901706e+18,29.0,-2.0,-80.0,-3.0,16.0,18.0,10.0,127.0
1.695163133411158e+18,-47.0,-1.0,48.0,-5.0,-4.0,-3.0,27.0,-4.0
1.695163133411158e+18,83.0,50.0,-39.0,-1.0,-4.0,-3.0,3.0,3.0
1.6951631334121628e+18,-33.0,69.0,-15.0,-1.0,-1.0,4.0,4.0,38.0
1.6951631334131615e+18,-1.0,-15.0,29.0,-3.0,-14.0,-21.0,-26.0,-42.0
1.6951631334251758e+18,6.0,-10.0,-48.0,6.0,11.0,7.0,30.0,-55.0
1.6951631334251758e+18,-64.0,-39.0,0.0,0.0,0.0,-11.0,-63.0,-36.0
1.6951631334411402e+18,93.0,41.0,-7.0,-2.0,8.0,-2.0,11.0,33.0
1.6951631334411402e+18,-3.0,35.0,26.0,-1.0,-2.0,12.0,20.0,-26.0
1.6951631334551342e+18,-23.0,17.0,-46.0,-6.0,-7.0,-6.0,1.0,32.0
1.6951631334551342e+18,-7.0,-42.0,42.0,11.0,3.0,8.0,53.0,29.0
1.695163133473122e+18,-41.0,0.0,-11.0,-16.0,7.0,5.0,-17.0,-27.0
1.695163133473122e+18,-7.0,9.0,101.0,37.0,20.0,-3.0,-15.0,-18.0
1.695163133473122e+18,27.0,-1.0,-41.0,-7.0,-14.0,-5.0,-29.0,13.0
1.6951631334741274e+18,-42.0,-21.0,27.0,17.0,19.0,2.0,1.0,-78.0
1.6951631334851146e+18,-6.0,-11.0,26.0,11.0,-9.0,1.0,-8.0,60.0
1.6951631334851146e+18,-4.0,-8.0,-37.0,-26.0,-11.0,-9.0,-8.0,-30.0
1.6951631334861143e+18,-3.0,-37.0,-25.0,-6.0,8.0,9.0,33.0,36.0
1.6951631334861143e+18,4.0,20.0,8.0,-9.0,-13.0,-7.0,-26.0,-39.0
1.6951631334961308e+18,-3.0,6.0,-11.0,2.0,-2.0,5.0,15.0,15.0
1.695163133497111e+18,19.0,29.0,16.0,-1.0,-10.0,-8.0,-4.0,-5.0
1.6951631335157443e+18,16.0,-28.0,-24.0,1.0,8.0,4.0,19.0,46.0
1.6951631335157443e+18,7.0,24.0,28.0,-4.0,0.0,10.0,28.0,-82.0
1.6951631335173716e+18,-23.0,-42.0,9.0,2.0,1.0,-4.0,-6.0,45.0
1.6951631335173716e+18,-4.0,28.0,2.0,2.0,-2.0,9.0,22.0,8.0
1.695163133530894e+18,0.0,-8.0,26.0,2.0,4.0,-1.0,-11.0,38.0
1.695163133530894e+18,8.0,-11.0,23.0,-3.0,-1.0,4.0,-4.0,14.0
1.6951631335328847e+18,-21.0,-18.0,-88.0,-1.0,-7.0,-8.0,-4.0,-80.0
1.6951631335328847e+18,23.0,-13.0,22.0,-26.0,-14.0,-13.0,-13.0,-2.0
1.6951631335608684e+18,-6.0,27.0,4.0,5.0,-4.0,-7.0,-19.0,-18.0
1.6951631335618685e+18,13.0,21.0,-24.0,6.0,5.0,7.0,-8.0,65.0
1.6951631335628675e+18,-14.0,-18.0,33.0,0.0,3.0,-6.0,-11.0,-58.0
1.6951631335628675e+18,8.0,8.0,-27.0,-6.0,0.0,-1.0,-18.0,27.0
1.6951631335688635e+18,-22.0,-29.0,-1.0,2.0,1.0,-4.0,-3.0,-11.0
1.6951631335688635e+18,6.0,-7.0,-83.0,-3.0,-10.0,3.0,13.0,0.0
1.6951631335698627e+18,-77.0,-7.0,33.0,-10.0,5.0,7.0,8.0,-61.0
1.695163133570863e+18,-3.0,20.0,6.0,13.0,6.0,-2.0,4.0,17.0
1.6951631335988472e+18,52.0,6.0,4.0,-15.0,-6.0,1.0,-6.0,10.0
1.6951631335988472e+18,-24.0,-20.0,35.0,0.0,-3.0,-3.0,13.0,41.0
1.6951631335998461e+18,2.0,23.0,-18.0,8.0,-4.0,-2.0,1.0,-40.0
1.69516313360085e+18,-24.0,-21.0,-15.0,-4.0,8.0,10.0,-1.0,-7.0
1.6951631336048435e+18,6.0,6.0,-15.0,9.0,-4.0,-5.0,-20.0,-27.0
1.6951631336048435e+18,-2.0,-6.0,-12.0,1.0,-3.0,-3.0,-2.0,10.0
1.6951631336138388e+18,22.0,-10.0,-20.0,-9.0,-1.0,0.0,-5.0,-15.0
1.6951631336138388e+18,-2.0,-9.0,-23.0,-2.0,0.0,-1.0,9.0,29.0
1.6951631336438223e+18,22.0,6.0,-20.0,5.0,1.0,7.0,23.0,-11.0
1.6951631336458483e+18,19.0,39.0,-20.0,-5.0,-2.0,-5.0,-24.0,38.0
1.6951631336468475e+18,13.0,-50.0,51.0,5.0,6.0,3.0,28.0,23.0
1.6951631336468475e+18,-29.0,-10.0,3.0,-6.0,-7.0,-8.0,-30.0,-11.0
1.6951631336748915e+18,-72.0,-20.0,19.0,6.0,8.0,5.0,15.0,-17.0
1.695163133675902e+18,10.0,-3.0,-23.0,-8.0,0.0,-9.0,-30.0,-4.0
1.695163133676897e+18,-49.0,26.0,17.0,-1.0,-10.0,0.0,12.0,-14.0
1.69516313367789e+18,42.0,29.0,38.0,4.0,-11.0,2.0,11.0,-49.0
1.69516313367789e+18,-56.0,-5.0,36.0,4.0,5.0,-8.0,-50.0,55.0
1.6951631336788887e+18,1.0,-11.0,-15.0,-2.0,5.0,4.0,5.0,-17.0
1.6951631336908828e+18,14.0,-11.0,65.0,10.0,0.0,-5.0,-8.0,-17.0
1.6951631336908828e+18,-37.0,-19.0,-20.0,-3.0,-3.0,6.0,29.0,-19.0
1.6951631336918925e+18,5.0,37.0,-37.0,-24.0,-20.0,-26.0,-42.0,-30.0
1.6951631336918925e+18,28.0,-5.0,-2.0,-1.0,3.0,11.0,22.0,9.0
1.6951631337018747e+18,17.0,6.0,-10.0,-1.0,-2.0,4.0,30.0,44.0
1.6951631337018747e+18,1.0,-18.0,5.0,10.0,6.0,-7.0,-23.0,-39.0
1.6951631337188672e+18,47.0,11.0,14.0,-19.0,-10.0,-2.0,-19.0,31.0
1.6951631337198653e+18,-29.0,2.0,-24.0,-4.0,-4.0,-5.0,11.0,32.0
1.6951631337218678e+18,18.0,-1.0,14.0,-8.0,-11.0,-2.0,15.0,-24.0
1.6951631337218678e+18,-8.0,-11.0,-3.0,9.0,13.0,-2.0,-7.0,8.0
1.6951631337248627e+18,-31.0,22.0,-3.0,7.0,4.0,6.0,0.0,-33.0
1.6951631337248627e+18,9.0,-17.0,20.0,0.0,1.0,15.0,34.0,14.0
1.6951631337388628e+18,-26.0,-1.0,-51.0,-9.0,-11.0,-17.0,-38.0,-11.0
1.6951631337388628e+18,16.0,9.0,26.0,1.0,-5.0,-3.0,1.0,10.0
1.69516313374787e+18,-6.0,-6.0,-6.0,10.0,10.0,8.0,17.0,4.0
1.6951631337488507e+18,-15.0,-14.0,21.0,-11.0,-9.0,-12.0,-35.0,2.0
1.6951631337498465e+18,31.0,26.0,-20.0,-5.0,-5.0,-6.0,-13.0,-3.0
1.6951631337498465e+18,18.0,4.0,-22.0,10.0,11.0,-2.0,-5.0,21.0
1.6951631337778332e+18,29.0,-4.0,-14.0,-17.0,-16.0,3.0,-5.0,8.0
1.6951631337778332e+18,-5.0,23.0,16.0,5.0,0.0,6.0,31.0,4.0
1.6951631337798328e+18,-2.0,-6.0,-37.0,2.0,8.0,-2.0,-31.0,-23.0
1.6951631337798328e+18,4.0,-19.0,-56.0,-2.0,1.0,-2.0,-6.0,43.0
1.6951631337931807e+18,-12.0,3.0,27.0,10.0,7.0,-1.0,23.0,4.0
1.6951631337931807e+18,4.0,1.0,-11.0,-3.0,-8.0,-11.0,-17.0,-17.0
1.69516313379516e+18,14.0,-21.0,4.0,3.0,4.0,9.0,21.0,-1.0
1.69516313379516e+18,-9.0,24.0,44.0,-4.0,-1.0,-1.0,2.0,-22.0
1.6951631338156605e+18,8.0,2.0,-15.0,-1.0,-8.0,-2.0,2.0,-14.0
1.6951631338166633e+18,4.0,-16.0,12.0,3.0,9.0,4.0,4.0,32.0
1.6951631338216796e+18,-5.0,3.0,-9.0,-3.0,3.0,2.0,-7.0,-14.0
1.6951631338216796e+18,-25.0,-19.0,-29.0,-9.0,-9.0,-6.0,17.0,0.0
1.6951631338382195e+18,4.0,-9.0,0.0,-2.0,-3.0,-3.0,-5.0,1.0
1.6951631338382195e+18,-9.0,6.0,32.0,16.0,15.0,3.0,12.0,-101.0
1.695163133840228e+18,5.0,21.0,25.0,-2.0,-7.0,-12.0,-32.0,72.0
1.695163133840228e+18,0.0,-26.0,-36.0,3.0,20.0,10.0,-5.0,21.0
1.6951631338448223e+18,1.0,1.0,18.0,-2.0,-5.0,-2.0,5.0,-4.0
1.6951631338448223e+18,3.0,4.0,-15.0,-13.0,-8.0,-6.0,-7.0,-5.0
1.695163133853339e+18,-5.0,-9.0,-32.0,-4.0,-2.0,4.0,15.0,-21.0
1.695163133853339e+18,8.0,13.0,32.0,-1.0,-10.0,-4.0,-8.0,2.0
1.6951631338898678e+18,-4.0,-7.0,-5.0,-3.0,2.0,-2.0,-2.0,16.0
1.6951631338898678e+18,-12.0,0.0,-10.0,3.0,0.0,-6.0,-11.0,-17.0
1.69516313390808e+18,-9.0,-10.0,-18.0,0.0,-3.0,-11.0,8.0,-33.0
1.69516313390808e+18,-2.0,17.0,-2.0,-27.0,-21.0,5.0,-1.0,4.0
1.6951631339090798e+18,15.0,-14.0,-3.0,29.0,36.0,24.0,12.0,17.0
1.6951631339090798e+18,7.0,14.0,31.0,6.0,1.0,-4.0,-12.0,8.0
1.69516313392188e+18,-8.0,-16.0,-5.0,-4.0,0.0,-2.0,7.0,-6.0
1.69516313392188e+18,6.0,3.0,7.0,19.0,8.0,2.0,0.0,-9.0
1.69516313392188e+18,4.0,2.0,-6.0,-19.0,-16.0,-1.0,-2.0,-5.0
1.69516313392188e+18,-1.0,2.0,27.0,21.0,33.0,14.0,5.0,9.0
1.6951631339238825e+18,-2.0,2.0,-24.0,-16.0,-20.0,-16.0,-6.0,4.0
1.6951631339238825e+18,-6.0,-1.0,-4.0,-6.0,5.0,3.0,2.0,-10.0
1.695163133942886e+18,3.0,2.0,0.0,19.0,9.0,6.0,-3.0,8.0
1.695163133942886e+18,0.0,-5.0,-7.0,-9.0,-27.0,-11.0,-4.0,9.0
1.6951631339528827e+18,-3.0,0.0,3.0,7.0,10.0,12.0,7.0,-4.0
1.6951631339528827e+18,-2.0,3.0,-14.0,-9.0,-11.0,-12.0,-7.0,0.0
1.695163133953882e+18,4.0,5.0,8.0,-11.0,-5.0,-2.0,0.0,-1.0
1.695163133953882e+18,4.0,-3.0,-5.0,6.0,13.0,1.0,2.0,2.0
1.69516313395688e+18,2.0,5.0,17.0,-5.0,-9.0,5.0,2.0,-2.0
1.69516313395688e+18,-9.0,-21.0,-19.0,-4.0,-3.0,-3.0,0.0,3.0
1.6951631339728758e+18,1.0,5.0,12.0,8.0,10.0,6.0,-1.0,0.0
1.6951631339728758e+18,-2.0,2.0,-14.0,-17.0,-26.0,-11.0,-7.0,-7.0
1.6951631339748774e+18,-1.0,2.0,6.0,19.0,31.0,13.0,6.0,7.0
1.6951631339748774e+18,4.0,2.0,6.0,0.0,-1.0,4.0,1.0,3.0
1.6951631340032028e+18,1.0,-2.0,-1.0,-3.0,-4.0,-9.0,-2.0,-5.0
1.6951631340032028e+18,0.0,0.0,-3.0,-11.0,-11.0,-6.0,-3.0,2.0
1.6951631340052004e+18,0.0,2.0,-2.0,0.0,1.0,4.0,3.0,0.0
1.6951631340052004e+18,0.0,0.0,-2.0,4.0,0.0,-5.0,-2.0,-4.0
1.695163134010217e+18,-1.0,0.0,19.0,-2.0,-4.0,-5.0,-3.0,0.0
1.695163134011195e+18,0.0,-1.0,-7.0,-1.0,1.0,2.0,3.0,3.0
1.6951631340122168e+18,-2.0,0.0,9.0,1.0,-3.0,1.0,0.0,1.0
1.6951631340122168e+18,2.0,5.0,-1.0,2.0,4.0,0.0,1.0,-2.0
1.6951631340551695e+18,-1.0,-12.0,-15.0,-11.0,-10.0,-5.0,-1.0,0.0
1.6951631340551695e+18,-2.0,0.0,6.0,2.0,-4.0,-2.0,-2.0,1.0
1.6951631340551695e+18,-4.0,0.0,-5.0,-3.0,-1.0,1.0,2.0,-3.0
1.695163134056169e+18,-1.0,-1.0,12.0,-15.0,-6.0,-3.0,0.0,-1.0
1.695163134056169e+18,0.0,4.0,-10.0,15.0,8.0,2.0,-1.0,1.0
1.695163134056169e+18,-6.0,-6.0,6.0,8.0,-8.0,-7.0,-6.0,-3.0
1.695163134056169e+18,0.0,-1.0,-2.0,-6.0,-3.0,0.0,-2.0,0.0
1.695163134056169e+18,-19.0,-4.0,3.0,0.0,2.0,1.0,-2.0,-10.0
1.6951631340971448e+18,4.0,0.0,-1.0,-13.0,-4.0,-4.0,1.0,-2.0
1.6951631340971448e+18,0.0,-1.0,-8.0,4.0,2.0,0.0,0.0,0.0
1.6951631340971448e+18,5.0,-2.0,8.0,4.0,0.0,1.0,1.0,15.0
1.6951631340971448e+18,-8.0,0.0,-6.0,-10.0,-5.0,0.0,-2.0,-5.0
1.6951631340971448e+18,-12.0,1.0,6.0,3.0,0.0,-1.0,-1.0,0.0
1.6951631340981448e+18,-3.0,-3.0,-4.0,-5.0,-3.0,-1.0,0.0,1.0
1.6951631340981448e+18,1.0,-1.0,-3.0,0.0,-1.0,1.0,1.0,3.0
1.6951631340981448e+18,8.0,2.0,7.0,5.0,1.0,-1.0,1.0,5.0
1.695163134127129e+18,-1.0,-4.0,-1.0,-10.0,-5.0,-4.0,-6.0,-3.0
1.695163134128129e+18,0.0,0.0,-14.0,-11.0,-2.0,-1.0,-2.0,-3.0
1.695163134128129e+18,-4.0,-3.0,-8.0,2.0,-4.0,0.0,0.0,-4.0
1.695163134128129e+18,1.0,-1.0,3.0,7.0,-2.0,-4.0,-1.0,-1.0
1.6951631341311278e+18,0.0,0.0,-2.0,-2.0,-2.0,1.0,-1.0,-1.0
1.6951631341311278e+18,2.0,1.0,1.0,-4.0,1.0,-1.0,-1.0,1.0
1.6951631341321257e+18,-1.0,-2.0,1.0,4.0,2.0,0.0,-2.0,-3.0
1.6951631341321257e+18,3.0,-1.0,8.0,8.0,0.0,0.0,1.0,1.0
1.6951631341531128e+18,2.0,-1.0,-14.0,-7.0,-3.0,-3.0,0.0,2.0
1.6951631341531128e+18,-1.0,-1.0,3.0,-2.0,0.0,1.0,1.0,0.0
1.6951631341551124e+18,0.0,2.0,0.0,-5.0,-2.0,0.0,0.0,-1.0
1.6951631341551124e+18,1.0,0.0,4.0,3.0,0.0,-1.0,0.0,0.0
1.6951631341671058e+18,-1.0,-1.0,4.0,-2.0,-3.0,-2.0,-3.0,1.0
1.6951631341671058e+18,1.0,-1.0,-2.0,-1.0,-3.0,-3.0,0.0,0.0
1.695163134182836e+18,-3.0,0.0,-1.0,-2.0,-3.0,-3.0,-4.0,-5.0
1.6951631341838372e+18,-3.0,-1.0,2.0,5.0,6.0,5.0,2.0,2.0
1.695163134198155e+18,6.0,0.0,1.0,0.0,2.0,-3.0,1.0,1.0
1.695163134198155e+18,-1.0,0.0,-5.0,-4.0,-1.0,7.0,3.0,-1.0
1.6951631341991593e+18,-1.0,0.0,2.0,-1.0,0.0,2.0,-3.0,-1.0
1.6951631342001597e+18,1.0,-2.0,-4.0,-7.0,-5.0,-13.0,-5.0,-1.0
1.6951631342131528e+18,0.0,-2.0,-1.0,1.0,3.0,14.0,5.0,2.0
1.6951631342131528e+18,-2.0,0.0,5.0,7.0,0.0,-3.0,-1.0,-2.0
1.695163134215132e+18,-3.0,-1.0,2.0,5.0,0.0,-4.0,-2.0,-2.0
1.695163134215132e+18,1.0,0.0,-5.0,-3.0,-2.0,1.0,-1.0,0.0
1.6951631342271283e+18,0.0,-2.0,-1.0,2.0,-2.0,-11.0,-2.0,-2.0
1.6951631342271283e+18,1.0,-4.0,-7.0,-9.0,-1.0,3.0,-2.0,-1.0
1.6951631342416108e+18,-2.0,1.0,0.0,4.0,-1.0,1.0,1.0,-2.0
1.6951631342416108e+18,-1.0,-1.0,-2.0,-2.0,0.0,-3.0,-1.0,-3.0
1.6951631342509e+18,-1.0,-2.0,3.0,-1.0,-5.0,-5.0,-4.0,0.0
1.6951631342509e+18,-1.0,-2.0,-3.0,-1.0,2.0,0.0,0.0,0.0
1.6951631342518902e+18,-2.0,-1.0,3.0,2.0,1.0,5.0,4.0,2.0
1.6951631342518902e+18,1.0,-1.0,-9.0,-4.0,4.0,2.0,-1.0,1.0
1.69516313427321e+18,-1.0,-1.0,-1.0,1.0,0.0,0.0,-1.0,-1.0
1.69516313427321e+18,0.0,0.0,1.0,-1.0,-4.0,-5.0,-4.0,-1.0
1.6951631342752236e+18,-3.0,-1.0,-5.0,-7.0,-5.0,-5.0,-5.0,-2.0
1.6951631342752236e+18,0.0,1.0,13.0,4.0,-1.0,5.0,2.0,1.0
1.6951631342892165e+18,-1.0,0.0,-13.0,-1.0,2.0,-5.0,-3.0,-2.0
1.6951631342892165e+18,1.0,-2.0,-1.0,0.0,1.0,6.0,1.0,0.0
1.695163134295212e+18,-1.0,-3.0,-3.0,-3.0,-1.0,0.0,0.0,-1.0
1.6951631342962117e+18,-1.0,0.0,3.0,-2.0,-3.0,-4.0,-1.0,-2.0
1.6951631343109002e+18,0.0,0.0,3.0,1.0,-1.0,1.0,-1.0,-3.0
1.6951631343109002e+18,0.0,1.0,3.0,0.0,-2.0,-6.0,0.0,0.0
1.6951631343128814e+18,1.0,0.0,-3.0,-4.0,1.0,-1.0,0.0,0.0
1.6951631343128814e+18,1.0,-2.0,-4.0,-1.0,1.0,2.0,0.0,2.0
1.6951631343338194e+18,-2.0,-1.0,-8.0,-1.0,0.0,0.0,1.0,0.0
1.6951631343338194e+18,-1.0,0.0,18.0,2.0,-1.0,-2.0,0.0,-1.0
1.6951631343348326e+18,1.0,0.0,-4.0,-5.0,-2.0,-1.0,-1.0,-2.0
1.6951631343348326e+18,0.0,0.0,5.0,9.0,-1.0,-3.0,-2.0,0.0
1.6951631343478456e+18,-1.0,1.0,-2.0,1.0,1.0,1.0,0.0,0.0
1.6951631343478456e+18,-1.0,0.0,-5.0,-1.0,-2.0,1.0,0.0,1.0
1.695163134355872e+18,0.0,-1.0,-2.0,-4.0,3.0,0.0,1.0,0.0
1.6951631343568453e+18,0.0,0.0,-2.0,-2.0,-3.0,1.0,0.0,-1.0
1.6951631343778273e+18,-1.0,-3.0,6.0,1.0,-3.0,1.0,0.0,0.0
1.6951631343788398e+18,-1.0,-1.0,-4.0,-1.0,1.0,-2.0,-1.0,1.0
1.6951631343858222e+18,-1.0,-1.0,2.0,-2.0,3.0,-1.0,-1.0,0.0
1.6951631343868221e+18,0.0,1.0,-5.0,-2.0,-2.0,0.0,1.0,-1.0
1.6951631344038205e+18,-1.0,0.0,6.0,1.0,-1.0,-1.0,-2.0,-1.0
1.6951631344048215e+18,-1.0,-1.0,-4.0,-2.0,0.0,-1.0,-2.0,0.0
1.6951631344048215e+18,0.0,-1.0,-3.0,1.0,0.0,-1.0,0.0,0.0
1.6951631344048215e+18,-1.0,-1.0,1.0,-1.0,-2.0,-1.0,-1.0,1.0
1.6951631344068188e+18,-2.0,0.0,1.0,-1.0,0.0,-2.0,0.0,0.0
1.6951631344078164e+18,0.0,-1.0,-1.0,1.0,0.0,-1.0,-1.0,-1.0
1.6951631344158134e+18,-2.0,-1.0,1.0,-1.0,-1.0,2.0,-1.0,-1.0
1.6951631344168064e+18,0.0,-2.0,-1.0,0.0,-1.0,-1.0,-2.0,-2.0
1.695163134430796e+18,1.0,0.0,2.0,1.0,1.0,-1.0,-1.0,-1.0
1.695163134431798e+18,0.0,-1.0,-3.0,1.0,-1.0,-1.0,0.0,0.0
1.6951631344327954e+18,-3.0,0.0,0.0,-1.0,0.0,-2.0,-1.0,-3.0
1.6951631344327954e+18,0.0,-2.0,-3.0,-4.0,1.0,1.0,-1.0,0.0
1.6951631344527839e+18,-3.0,-1.0,-3.0,-1.0,-2.0,-1.0,-2.0,-2.0
1.6951631344537933e+18,-1.0,-2.0,-3.0,-2.0,-1.0,-1.0,-1.0,-1.0
1.695163134465778e+18,-1.0,-2.0,-2.0,-3.0,-1.0,0.0,-2.0,0.0
1.6951631344667779e+18,-1.0,-1.0,-2.0,-1.0,-1.0,-1.0,-1.0,-2.0
1.6951631344687803e+18,-1.0,-2.0,2.0,-1.0,0.0,-1.0,0.0,0.0
1.6951631344687803e+18,0.0,-1.0,-3.0,-1.0,-1.0,-2.0,-2.0,-2.0
1.695163134475778e+18,-1.0,-1.0,-1.0,-1.0,-2.0,-1.0,-1.0,1.0
1.6951631344767713e+18,-1.0,-1.0,-2.0,-2.0,-2.0,-1.0,0.0,0.0
1.695163134490761e+18,0.0,-2.0,0.0,-1.0,-2.0,1.0,-2.0,-4.0
1.6951631344917668e+18,1.0,0.0,-1.0,0.0,0.0,0.0,-1.0,-2.0
1.6951631344927608e+18,-2.0,-1.0,0.0,-1.0,2.0,-1.0,0.0,0.0
1.6951631344927608e+18,-1.0,-2.0,-2.0,-1.0,1.0,0.0,0.0,-1.0
1.695163134517756e+18,-2.0,-1.0,0.0,-3.0,1.0,-1.0,-2.0,0.0
1.695163134517756e+18,0.0,-2.0,-2.0,0.0,0.0,0.0,0.0,-2.0
1.695163134518756e+18,-1.0,0.0,2.0,-1.0,-1.0,-2.0,-1.0,0.0
1.695163134518756e+18,-1.0,0.0,-1.0,-1.0,-1.0,0.0,-1.0,-1.0
1.6951631345277412e+18,-1.0,-1.0,2.0,0.0,-2.0,0.0,-1.0,-2.0
1.6951631345277412e+18,-1.0,-2.0,-2.0,-3.0,-2.0,-1.0,-1.0,0.0
1.6951631345367365e+18,0.0,0.0,0.0,0.0,-1.0,0.0,0.0,-2.0
1.6951631345377357e+18,0.0,0.0,-1.0,1.0,-1.0,0.0,-2.0,-1.0
1.6951631345507622e+18,0.0,0.0,-1.0,1.0,-3.0,0.0,0.0,-1.0
1.695163134551728e+18,-2.0,1.0,0.0,-1.0,-1.0,0.0,-2.0,-1.0
1.6951631345537275e+18,0.0,-1.0,-1.0,0.0,-1.0,-1.0,0.0,-1.0
1.6951631345537275e+18,-3.0,-1.0,0.0,-1.0,-1.0,0.0,0.0,-1.0
1.6951631345737155e+18,-2.0,0.0,-2.0,-1.0,0.0,0.0,1.0,0.0
1.6951631345747139e+18,0.0,-1.0,-1.0,-1.0,0.0,-1.0,0.0,0.0
1.6951631345757148e+18,-1.0,0.0,-1.0,-1.0,0.0,-2.0,-1.0,0.0
1.6951631345767145e+18,-1.0,-2.0,-1.0,-1.0,-2.0,-2.0,0.0,-1.0
1.695163134587708e+18,1.0,-1.0,0.0,-1.0,0.0,0.0,0.0,0.0
1.695163134587708e+18,-1.0,-1.0,0.0,-1.0,0.0,0.0,0.0,0.0
1.6951631345967022e+18,0.0,0.0,0.0,1.0,-1.0,-2.0,0.0,-1.0
1.6951631345977047e+18,0.0,-1.0,-1.0,1.0,1.0,1.0,0.0,-1.0
1.6951631346126935e+18,0.0,2.0,-2.0,-1.0,-1.0,-2.0,-2.0,-3.0
1.6951631346136924e+18,-3.0,-1.0,-3.0,-1.0,-1.0,-1.0,-1.0,-3.0
1.69516313461769e+18,0.0,-2.0,-2.0,-2.0,-1.0,-2.0,0.0,-1.0
1.69516313461769e+18,-1.0,-1.0,-1.0,-1.0,0.0,-2.0,0.0,-1.0
1.6951631346406753e+18,0.0,5.0,-3.0,-3.0,-3.0,-3.0,-1.0,-1.0
1.6951631346406753e+18,-2.0,-6.0,1.0,0.0,1.0,1.0,0.0,1.0
1.6951631346476716e+18,-4.0,1.0,-2.0,0.0,-1.0,0.0,-2.0,-4.0
1.6951631346476716e+18,-2.0,0.0,-2.0,0.0,-1.0,-2.0,-1.0,0.0
1.6951631346556695e+18,-3.0,-1.0,0.0,-3.0,0.0,-1.0,0.0,1.0
1.6951631346556695e+18,0.0,1.0,-1.0,-1.0,-2.0,-1.0,-1.0,-4.0
1.6951631346566653e+18,0.0,-1.0,0.0,-1.0,0.0,0.0,-1.0,0.0
1.695163134657667e+18,-2.0,-5.0,3.0,0.0,-1.0,1.0,-1.0,1.0
1.6951631346696573e+18,-1.0,1.0,-2.0,1.0,0.0,-1.0,-2.0,-1.0
1.6951631346706627e+18,1.0,0.0,0.0,2.0,2.0,-2.0,-1.0,0.0
1.6951631346786552e+18,7.0,10.0,-3.0,-6.0,-5.0,-3.0,-2.0,0.0
1.6951631346796529e+18,-3.0,-2.0,0.0,2.0,3.0,1.0,0.0,-2.0
1.6951631346936438e+18,1.0,-1.0,-5.0,-3.0,-4.0,-1.0,-2.0,1.0
1.6951631346936438e+18,2.0,1.0,6.0,1.0,-2.0,1.0,0.0,1.0
1.6951631346946445e+18,-5.0,-8.0,1.0,3.0,2.0,1.0,1.0,-2.0
1.6951631346946445e+18,2.0,2.0,-2.0,-5.0,-1.0,-1.0,-1.0,-2.0
1.6951631347106442e+18,1.0,1.0,-1.0,-3.0,-2.0,-2.0,-2.0,-1.0
1.6951631347106442e+18,-4.0,-5.0,6.0,3.0,2.0,0.0,-1.0,0.0
1.6951631347156424e+18,-4.0,-8.0,8.0,7.0,5.0,2.0,2.0,0.0
1.6951631347156424e+18,-2.0,29.0,-28.0,-12.0,-10.0,-6.0,-4.0,-4.0
1.695163134729625e+18,-4.0,-20.0,10.0,7.0,7.0,3.0,2.0,-2.0
1.695163134729625e+18,-1.0,11.0,-13.0,-6.0,-5.0,-1.0,-3.0,-1.0
1.6951631347366208e+18,-1.0,-6.0,5.0,4.0,1.0,-1.0,0.0,0.0
1.6951631347366208e+18,6.0,15.0,-9.0,-8.0,-6.0,-4.0,-2.0,0.0
1.6951631347536125e+18,1.0,0.0,3.0,0.0,-2.0,-1.0,-1.0,-1.0
1.6951631347536125e+18,0.0,28.0,-23.0,-12.0,-8.0,-5.0,-5.0,-5.0
1.6951631347546107e+18,3.0,-4.0,5.0,-1.0,-2.0,0.0,-1.0,2.0
1.6951631347546107e+18,-1.0,4.0,-3.0,-2.0,0.0,0.0,-2.0,-1.0
1.695163134766848e+18,-1.0,7.0,-1.0,0.0,-2.0,0.0,-2.0,0.0
1.695163134766848e+18,1.0,-7.0,6.0,1.0,0.0,0.0,0.0,0.0
1.6951631347965532e+18,-1.0,1.0,-6.0,-3.0,-2.0,-2.0,-2.0,-2.0
1.6951631347975516e+18,0.0,-14.0,7.0,4.0,1.0,1.0,2.0,1.0
1.6951631347975516e+18,-3.0,0.0,-1.0,-2.0,0.0,-2.0,0.0,-1.0
1.6951631347975516e+18,-5.0,-21.0,10.0,6.0,5.0,3.0,1.0,-1.0
1.6951631347975516e+18,-2.0,8.0,-5.0,-4.0,-3.0,-3.0,-1.0,0.0
1.6951631347975516e+18,-1.0,-12.0,8.0,4.0,1.0,1.0,0.0,0.0
1.6951631348125517e+18,-1.0,-6.0,0.0,1.0,2.0,2.0,0.0,0.0
1.6951631348125517e+18,-1.0,-4.0,-2.0,0.0,-2.0,-1.0,0.0,0.0
1.6951631348208878e+18,-1.0,-4.0,-3.0,-3.0,-1.0,-1.0,-1.0,-2.0
1.6951631348208878e+18,-2.0,-21.0,15.0,3.0,3.0,2.0,2.0,-1.0
1.6951631348268442e+18,0.0,3.0,-1.0,-2.0,0.0,0.0,-2.0,0.0
1.6951631348268442e+18,-1.0,-1.0,0.0,-2.0,-2.0,-2.0,0.0,0.0
1.6951631348438922e+18,1.0,0.0,-3.0,-1.0,0.0,1.0,-1.0,0.0
1.6951631348438922e+18,-1.0,0.0,-3.0,0.0,0.0,-1.0,0.0,-1.0
1.6951631348508877e+18,-1.0,2.0,-2.0,0.0,-1.0,-2.0,0.0,-2.0
1.6951631348508877e+18,0.0,-6.0,3.0,0.0,-1.0,-1.0,-1.0,1.0
1.695163134856878e+18,-3.0,-3.0,0.0,1.0,0.0,0.0,1.0,-1.0
1.6951631348579108e+18,-1.0,-3.0,-1.0,2.0,1.0,0.0,-3.0,-1.0
1.695163134873869e+18,-3.0,-7.0,2.0,-4.0,-3.0,-1.0,1.0,0.0
1.695163134873869e+18,0.0,2.0,-1.0,-2.0,-1.0,-1.0,-2.0,-1.0
1.695163134875868e+18,0.0,0.0,-3.0,-1.0,-1.0,-3.0,-1.0,0.0
1.695163134875868e+18,0.0,-2.0,0.0,-1.0,-1.0,-1.0,0.0,0.0
1.6951631349028503e+18,-2.0,-1.0,-1.0,0.0,-3.0,-1.0,-1.0,-1.0
1.6951631349038505e+18,1.0,1.0,-2.0,-2.0,-2.0,-2.0,-2.0,-4.0
1.6951631349048494e+18,-1.0,1.0,0.0,-1.0,-2.0,0.0,-2.0,0.0
1.6951631349048494e+18,-1.0,-3.0,1.0,1.0,-2.0,1.0,-1.0,0.0
1.6951631349098698e+18,1.0,0.0,-2.0,0.0,-1.0,-1.0,0.0,-1.0
1.6951631349098698e+18,-1.0,-3.0,0.0,0.0,-2.0,-1.0,0.0,1.0
1.695163134924839e+18,0.0,-1.0,-1.0,-3.0,0.0,-2.0,0.0,-1.0
1.695163134924839e+18,-2.0,-2.0,0.0,-3.0,-1.0,0.0,0.0,0.0
1.6951631349338345e+18,1.0,1.0,-4.0,-1.0,0.0,-1.0,0.0,-1.0
1.6951631349338345e+18,-1.0,4.0,-5.0,-3.0,0.0,-1.0,-2.0,-1.0
1.6951631349348326e+18,-1.0,-1.0,-1.0,-2.0,1.0,-2.0,-1.0,-1.0
1.6951631349348326e+18,-1.0,-1.0,-2.0,0.0,-2.0,-2.0,-1.0,0.0
1.6951631349558208e+18,0.0,-2.0,0.0,-2.0,-1.0,0.0,1.0,-1.0
1.6951631349558208e+18,-1.0,-3.0,1.0,-1.0,0.0,-1.0,-1.0,0.0
1.6951631349578202e+18,-3.0,1.0,0.0,-2.0,-2.0,-1.0,0.0,-1.0
1.6951631349578202e+18,-1.0,-1.0,1.0,0.0,0.0,1.0,0.0,-2.0
1.6951631349718126e+18,2.0,6.0,-4.0,-2.0,-2.0,0.0,-1.0,0.0
1.6951631349718126e+18,1.0,-2.0,0.0,0.0,1.0,-1.0,2.0,0.0
1.6951631349768084e+18,0.0,-1.0,-1.0,-2.0,-1.0,-1.0,-1.0,-1.0
1.6951631349778094e+18,-1.0,-2.0,1.0,-1.0,-1.0,-2.0,0.0,-1.0
1.6951631349938e+18,-2.0,0.0,-2.0,-1.0,-1.0,-2.0,-3.0,-1.0
1.6951631349938e+18,0.0,-1.0,0.0,-1.0,0.0,-1.0,-1.0,0.0
1.695163134995799e+18,-1.0,-2.0,-2.0,0.0,1.0,0.0,-2.0,0.0
1.695163134995799e+18,0.0,-1.0,-2.0,-2.0,1.0,0.0,1.0,1.0
1.6951631350167903e+18,-1.0,-4.0,-1.0,-1.0,-1.0,-1.0,0.0,0.0
1.6951631350167903e+18,-1.0,-1.0,-1.0,-1.0,-1.0,0.0,0.0,0.0
1.695163135017786e+18,0.0,0.0,-3.0,-1.0,-1.0,0.0,0.0,-2.0
1.695163135017786e+18,-1.0,-2.0,1.0,2.0,0.0,-1.0,-2.0,-2.0
1.695163135029779e+18,-2.0,0.0,0.0,0.0,-1.0,2.0,0.0,0.0
1.6951631350307832e+18,-2.0,-3.0,1.0,-1.0,-1.0,0.0,0.0,-1.0
1.6951631350387743e+18,-1.0,-1.0,-1.0,-1.0,-3.0,0.0,0.0,0.0
1.6951631350387743e+18,-1.0,-1.0,-2.0,1.0,0.0,-1.0,-2.0,1.0
1.6951631350607606e+18,0.0,-2.0,-1.0,0.0,-1.0,1.0,-1.0,-1.0
1.6951631350607606e+18,0.0,-2.0,-1.0,1.0,0.0,0.0,-1.0,-1.0
1.6951631350627602e+18,1.0,4.0,-3.0,-1.0,-2.0,0.0,-1.0,-1.0
1.6951631350627602e+18,0.0,0.0,1.0,-1.0,-1.0,-2.0,-2.0,0.0
1.6951631350767562e+18,0.0,-2.0,0.0,1.0,0.0,-2.0,-1.0,1.0
1.6951631350767562e+18,1.0,-1.0,0.0,-2.0,0.0,-1.0,-2.0,-2.0
1.6951631350777516e+18,0.0,0.0,0.0,0.0,0.0,-1.0,1.0,-1.0
1.6951631350787548e+18,0.0,0.0,0.0,-1.0,-1.0,0.0,-1.0,-1.0
1.6951631350897454e+18,-2.0,1.0,0.0,-2.0,-1.0,0.0,-1.0,-1.0
1.6951631350897454e+18,-1.0,0.0,-2.0,-3.0,-2.0,-1.0,-2.0,0.0
1.6951631351058831e+18,0.0,-1.0,0.0,-2.0,-2.0,-2.0,0.0,0.0
1.6951631351058831e+18,-1.0,0.0,-1.0,0.0,1.0,0.0,2.0,-1.0
1.6951631351133117e+18,0.0,-3.0,0.0,-2.0,0.0,0.0,0.0,-2.0
1.6951631351133117e+18,-2.0,-1.0,0.0,1.0,-1.0,-1.0,0.0,0.0
1.6951631351198177e+18,-2.0,-6.0,1.0,1.0,0.0,-1.0,-1.0,1.0
1.6951631351198177e+18,-2.0,-3.0,1.0,0.0,0.0,1.0,-1.0,1.0
1.695163135135894e+18,2.0,0.0,-1.0,-2.0,-1.0,-1.0,-2.0,-1.0
1.695163135135894e+18,-1.0,0.0,-2.0,-1.0,-1.0,-2.0,0.0,-2.0
1.6951631351378952e+18,-1.0,-2.0,-1.0,1.0,1.0,-1.0,0.0,-1.0
1.6951631351378952e+18,-2.0,0.0,-1.0,0.0,-1.0,0.0,0.0,0.0
1.695163135149883e+18,-1.0,-3.0,-2.0,1.0,-1.0,-2.0,0.0,-1.0
1.695163135150887e+18,0.0,-2.0,1.0,-1.0,-1.0,0.0,-1.0,0.0
1.6951631351579052e+18,0.0,0.0,-1.0,-3.0,-1.0,0.0,-2.0,-1.0
1.6951631351588823e+18,-1.0,-1.0,0.0,0.0,0.0,-1.0,-1.0,0.0
1.695163135180872e+18,0.0,0.0,0.0,0.0,-1.0,-2.0,-1.0,-1.0
1.6951631351889016e+18,0.0,0.0,-1.0,-1.0,0.0,0.0,0.0,-1.0
1.6951631351899018e+18,1.0,-1.0,-1.0,-2.0,0.0,0.0,-1.0,-1.0
1.6951631351899018e+18,0.0,0.0,-2.0,-2.0,-1.0,-1.0,-1.0,-1.0
1.695163135195863e+18,-1.0,0.0,0.0,-1.0,-2.0,0.0,0.0,2.0
1.6951631351968622e+18,0.0,0.0,1.0,-1.0,-1.0,-1.0,-1.0,1.0
1.695163135203858e+18,0.0,0.0,0.0,-1.0,-2.0,-1.0,-1.0,0.0
1.695163135203858e+18,-2.0,1.0,-2.0,-2.0,-1.0,-3.0,-1.0,-1.0
1.695163135209855e+18,-1.0,0.0,-3.0,-3.0,2.0,0.0,0.0,-1.0
1.695163135209855e+18,-1.0,-1.0,-2.0,0.0,1.0,-1.0,0.0,0.0
1.6951631352188498e+18,-1.0,-1.0,-1.0,0.0,-1.0,0.0,0.0,-1.0
1.6951631352198487e+18,1.0,0.0,0.0,-3.0,-1.0,0.0,0.0,2.0
1.6951631352338412e+18,-1.0,-3.0,0.0,-2.0,0.0,1.0,-2.0,0.0
1.6951631352348398e+18,-1.0,-1.0,0.0,-1.0,-1.0,0.0,-1.0,-1.0
1.6951631352358403e+18,1.0,0.0,0.0,-1.0,0.0,-1.0,0.0,1.0
1.6951631352358403e+18,0.0,-1.0,-1.0,-1.0,-1.0,-2.0,-2.0,0.0
1.6951631352638234e+18,0.0,0.0,-2.0,0.0,0.0,0.0,0.0,0.0
1.695163135264827e+18,-1.0,-1.0,-1.0,-1.0,-1.0,0.0,-2.0,0.0
1.6951631352668234e+18,-1.0,0.0,-1.0,-3.0,-1.0,1.0,0.0,-2.0
1.6951631352668234e+18,0.0,0.0,-1.0,-1.0,0.0,1.0,0.0,-1.0
1.6951631352698202e+18,-1.0,1.0,1.0,0.0,0.0,1.0,0.0,-1.0
1.6951631352708262e+18,1.0,-2.0,-1.0,1.0,2.0,-1.0,-1.0,0.0
1.6951631352788152e+18,-1.0,-1.0,-1.0,0.0,-1.0,-2.0,0.0,0.0
1.6951631352788152e+18,-1.0,-2.0,-1.0,-1.0,-3.0,0.0,-1.0,-1.0
1.6951631353028367e+18,-1.0,-1.0,-1.0,0.0,-1.0,-2.0,-1.0,-3.0
1.695163135309833e+18,0.0,0.0,0.0,-1.0,-1.0,0.0,0.0,-1.0
1.6951631353118047e+18,-2.0,0.0,1.0,0.0,0.0,-2.0,-2.0,0.0
1.6951631353118047e+18,-1.0,-3.0,-12.0,1.0,1.0,-1.0,-1.0,0.0
1.6951631353237916e+18,0.0,-4.0,1.0,2.0,4.0,1.0,0.0,0.0
1.695163135324791e+18,0.0,3.0,1.0,-4.0,-5.0,-1.0,-2.0,0.0
1.6951631353257925e+18,0.0,0.0,0.0,-2.0,1.0,3.0,0.0,-1.0
1.6951631353257925e+18,-1.0,1.0,1.0,-1.0,1.0,0.0,-1.0,-2.0
1.6951631353307858e+18,-2.0,-1.0,-2.0,0.0,-3.0,-2.0,1.0,-1.0
1.6951631353317865e+18,0.0,-2.0,-2.0,0.0,0.0,0.0,0.0,0.0
1.6951631353387825e+18,0.0,-1.0,-2.0,-2.0,-3.0,-1.0,-3.0,-1.0
1.6951631353397796e+18,0.0,-1.0,1.0,-2.0,0.0,-1.0,-2.0,-2.0
1.6951631353537718e+18,0.0,0.0,-1.0,-1.0,-1.0,-1.0,-2.0,0.0
1.695163135354771e+18,-1.0,-1.0,3.0,-1.0,-2.0,-1.0,-1.0,-1.0
1.6951631353557716e+18,-2.0,0.0,-1.0,1.0,-2.0,-1.0,-2.0,-2.0
1.6951631353557716e+18,0.0,0.0,-1.0,1.0,-2.0,-2.0,0.0,-3.0
1.6951631353757576e+18,-1.0,0.0,-1.0,-2.0,-3.0,-1.0,-2.0,-4.0
1.6951631353767583e+18,-2.0,-3.0,-4.0,-2.0,-1.0,-1.0,-1.0,-1.0
1.6951631353777577e+18,-1.0,-2.0,-2.0,1.0,-2.0,-1.0,0.0,1.0
1.6951631353777577e+18,-1.0,-1.0,2.0,-1.0,0.0,0.0,0.0,0.0
1.69516313538975e+18,-1.0,0.0,-1.0,0.0,-2.0,0.0,-2.0,0.0
1.69516313538975e+18,-1.0,0.0,-3.0,0.0,0.0,-4.0,-1.0,-2.0
1.6951631354017436e+18,-1.0,-1.0,-1.0,0.0,0.0,-1.0,0.0,-1.0
1.6951631354057405e+18,0.0,0.0,0.0,-2.0,-1.0,-1.0,1.0,0.0
1.695163135412736e+18,-1.0,0.0,0.0,-1.0,-1.0,-1.0,1.0,-1.0
1.695163135412736e+18,0.0,-1.0,-1.0,1.0,0.0,0.0,-1.0,-2.0
1.6951631354187318e+18,0.0,-3.0,-1.0,-2.0,-1.0,-2.0,-1.0,1.0
1.695163135419733e+18,-1.0,0.0,0.0,0.0,-3.0,-1.0,-1.0,0.0
1.695163135435723e+18,0.0,0.0,1.0,-2.0,-2.0,-1.0,-2.0,-1.0
1.6951631354387226e+18,-1.0,0.0,0.0,1.0,0.0,-2.0,-2.0,-1.0
1.6951631354387226e+18,-2.0,-1.0,0.0,-1.0,-1.0,-2.0,0.0,-1.0
1.695163135439722e+18,1.0,-1.0,1.0,-1.0,-1.0,-1.0,-1.0,-2.0
1.6951631354497147e+18,-1.0,0.0,-3.0,-1.0,-1.0,-2.0,-1.0,-1.0
1.6951631354497147e+18,0.0,-1.0,1.0,0.0,0.0,0.0,0.0,-1.0
1.695163135458712e+18,0.0,0.0,-1.0,1.0,1.0,-2.0,1.0,-2.0
1.695163135458712e+18,0.0,-1.0,0.0,1.0,0.0,1.0,-1.0,0.0
1.6951631354737024e+18,0.0,-1.0,0.0,1.0,0.0,-1.0,-1.0,0.0
1.6951631354747018e+18,1.0,-1.0,0.0,1.0,-1.0,-2.0,0.0,-1.0
1.6951631354767004e+18,0.0,-1.0,-3.0,-2.0,1.0,0.0,0.0,0.0
1.6951631354767004e+18,-1.0,-3.0,-2.0,-1.0,1.0,-1.0,1.0,0.0
1.6951631355076828e+18,-1.0,-1.0,1.0,-2.0,0.0,-2.0,-1.0,-1.0
1.6951631355076828e+18,1.0,0.0,-1.0,-2.0,-1.0,-1.0,-2.0,-1.0
1.6951631355076828e+18,-2.0,0.0,0.0,-1.0,-2.0,0.0,0.0,-1.0
1.6951631355076828e+18,-1.0,1.0,-1.0,-2.0,-2.0,-1.0,0.0,-2.0
1.6951631355096806e+18,0.0,0.0,-1.0,1.0,-2.0,-2.0,-2.0,-1.0
1.6951631355096806e+18,-2.0,-1.0,-1.0,0.0,-1.0,0.0,0.0,1.0
1.6951631355186755e+18,-1.0,-1.0,0.0,0.0,-1.0,0.0,-2.0,-1.0
1.6951631355186755e+18,-1.0,-1.0,0.0,2.0,-2.0,0.0,-1.0,-1.0
1.695163135540892e+18,1.0,-1.0,0.0,-1.0,1.0,0.0,-1.0,0.0
1.695163135540892e+18,-1.0,-1.0,-1.0,-2.0,-2.0,0.0,0.0,0.0
1.695163135542887e+18,0.0,0.0,-2.0,-2.0,0.0,1.0,-2.0,0.0
1.695163135542887e+18,-1.0,-1.0,-1.0,-2.0,-1.0,0.0,-1.0,1.0
1.695163135554822e+18,0.0,-1.0,-1.0,-1.0,-1.0,0.0,0.0,0.0
1.695163135554822e+18,-1.0,-1.0,-1.0,2.0,2.0,2.0,0.0,-1.0
1.695163135563556e+18,-1.0,-2.0,-5.0,-4.0,-4.0,-3.0,0.0,0.0
1.695163135563556e+18,-2.0,1.0,15.0,7.0,2.0,-3.0,0.0,-1.0
1.6951631355695537e+18,-1.0,-3.0,-7.0,-3.0,-1.0,-1.0,-2.0,-2.0
1.6951631355695537e+18,-1.0,2.0,19.0,-3.0,-10.0,-2.0,-1.0,-1.0
1.6951631355815462e+18,-2.0,-3.0,-14.0,7.0,1.0,1.0,-4.0,-4.0
1.6951631355825472e+18,0.0,-2.0,-5.0,-7.0,-3.0,-10.0,-2.0,-1.0
1.695163135593539e+18,-2.0,-8.0,-7.0,10.0,16.0,-3.0,1.0,-1.0
1.695163135593539e+18,1.0,-2.0,21.0,-7.0,-3.0,20.0,1.0,0.0
1.695163135594539e+18,1.0,-2.0,-7.0,-8.0,3.0,-4.0,0.0,2.0
1.695163135594539e+18,-1.0,2.0,4.0,5.0,4.0,12.0,3.0,2.0
1.6951631356157435e+18,-2.0,-3.0,2.0,-2.0,-12.0,-11.0,-4.0,-1.0
1.6951631356157435e+18,-4.0,4.0,-19.0,-9.0,2.0,-8.0,3.0,6.0
1.6951631356177518e+18,0.0,8.0,32.0,-1.0,-9.0,-1.0,-3.0,-29.0
1.6951631356177518e+18,-6.0,-18.0,-9.0,-24.0,-27.0,-15.0,-13.0,27.0
1.6951631356289618e+18,2.0,15.0,-22.0,-6.0,7.0,1.0,3.0,-26.0
1.6951631356299617e+18,1.0,-3.0,19.0,25.0,8.0,-10.0,-12.0,18.0
1.6951631356379566e+18,-4.0,-25.0,-9.0,15.0,-14.0,-1.0,8.0,11.0
1.6951631356379566e+18,3.0,25.0,22.0,5.0,47.0,33.0,9.0,-8.0
1.6951631356619459e+18,-7.0,-12.0,13.0,-10.0,-27.0,1.0,13.0,-4.0
1.6951631356629448e+18,5.0,2.0,-46.0,0.0,5.0,5.0,-4.0,18.0
1.6951631356629448e+18,4.0,2.0,-22.0,-7.0,31.0,4.0,-5.0,-12.0
1.6951631356629448e+18,-2.0,6.0,7.0,5.0,-28.0,-21.0,2.0,-21.0
1.695163135675936e+18,4.0,7.0,21.0,1.0,0.0,2.0,4.0,16.0
1.695163135675936e+18,-2.0,-12.0,-37.0,-19.0,-19.0,-36.0,-23.0,55.0
1.6951631356779387e+18,2.0,-8.0,-16.0,0.0,-3.0,11.0,-2.0,-24.0
1.6951631356779387e+18,0.0,-2.0,8.0,-2.0,2.0,9.0,-1.0,-5.0
1.6951631356889508e+18,2.0,-2.0,19.0,6.0,5.0,-17.0,16.0,17.0
1.6951631356899305e+18,-6.0,1.0,-28.0,-4.0,1.0,22.0,13.0,-34.0
1.6951631357089395e+18,-6.0,-12.0,-10.0,-23.0,-27.0,-3.0,-14.0,11.0
1.6951631357169172e+18,1.0,13.0,-3.0,4.0,5.0,-60.0,-10.0,-20.0
1.6951631357169172e+18,3.0,-1.0,-11.0,13.0,-16.0,-23.0,11.0,8.0
1.695163135717921e+18,-4.0,-10.0,22.0,-2.0,37.0,89.0,13.0,2.0
1.695163135717921e+18,-2.0,13.0,8.0,12.0,28.0,4.0,-41.0,-5.0
1.695163135717921e+18,5.0,8.0,-4.0,-3.0,-33.0,48.0,35.0,-2.0
1.695163135735903e+18,3.0,-10.0,-3.0,3.0,29.0,-37.0,-45.0,6.0
1.6951631357369016e+18,-11.0,-7.0,-11.0,2.0,-20.0,-47.0,5.0,-63.0
1.6951631357379013e+18,6.0,7.0,-20.0,-16.0,-3.0,1.0,35.0,43.0
1.6951631357379013e+18,-6.0,-14.0,13.0,-2.0,-34.0,-33.0,-20.0,-18.0
1.695163135749894e+18,0.0,20.0,33.0,-14.0,-26.0,-1.0,-17.0,28.0
1.695163135749894e+18,-1.0,-15.0,4.0,4.0,24.0,12.0,-16.0,-12.0
1.6951631357808765e+18,9.0,-4.0,20.0,7.0,8.0,27.0,14.0,-5.0
1.6951631357818765e+18,2.0,-5.0,-40.0,-1.0,-19.0,-3.0,13.0,25.0
1.6951631357818765e+18,-16.0,-2.0,-6.0,3.0,1.0,-1.0,-3.0,-29.0
1.6951631357818765e+18,-11.0,26.0,0.0,3.0,58.0,49.0,4.0,-43.0
1.6951631357838753e+18,-7.0,-22.0,1.0,-10.0,-14.0,-33.0,7.0,19.0
1.6951631357838753e+18,9.0,0.0,-9.0,8.0,-19.0,-6.0,-13.0,40.0
1.6951631358032243e+18,0.0,-20.0,-6.0,8.0,16.0,84.0,27.0,10.0
1.6951631358032243e+18,13.0,16.0,6.0,2.0,-24.0,-66.0,-12.0,11.0
1.695163135805183e+18,-12.0,13.0,-2.0,4.0,21.0,3.0,17.0,19.0
1.695163135805183e+18,4.0,-4.0,-13.0,-12.0,7.0,-17.0,-15.0,-19.0
1.6951631358095636e+18,1.0,3.0,-13.0,-18.0,-36.0,-26.0,-34.0,6.0
1.6951631358095636e+18,-18.0,-9.0,-12.0,-3.0,-20.0,-7.0,6.0,-18.0
1.6951631358186045e+18,1.0,-2.0,20.0,4.0,2.0,6.0,9.0,1.0
1.6951631358186045e+18,-7.0,1.0,13.0,-1.0,4.0,1.0,-4.0,10.0
1.695163135834596e+18,-4.0,5.0,-11.0,3.0,16.0,7.0,3.0,-49.0
1.6951631358355968e+18,35.0,-3.0,35.0,1.0,-1.0,6.0,-6.0,21.0
1.695163135847583e+18,-34.0,-7.0,-16.0,2.0,-12.0,-13.0,13.0,-38.0
1.695163135848583e+18,-4.0,-4.0,-7.0,2.0,20.0,12.0,-11.0,-10.0
1.6951631358635745e+18,-1.0,-13.0,-7.0,3.0,15.0,17.0,5.0,37.0
1.6951631358635745e+18,4.0,10.0,11.0,-8.0,-19.0,-23.0,1.0,19.0
1.6951631358645786e+18,14.0,4.0,17.0,1.0,-17.0,-14.0,-22.0,-7.0
1.6951631358645786e+18,19.0,-4.0,14.0,7.0,19.0,21.0,44.0,-12.0
1.695163135878566e+18,9.0,-14.0,-38.0,-6.0,0.0,-4.0,-6.0,33.0
1.695163135878566e+18,-20.0,-28.0,16.0,9.0,-6.0,-1.0,-3.0,-30.0
1.6951631358795656e+18,3.0,3.0,-21.0,2.0,4.0,-1.0,-8.0,14.0
1.6951631358795656e+18,32.0,37.0,-12.0,-17.0,-6.0,-5.0,-12.0,-27.0
1.6951631359079035e+18,-37.0,6.0,3.0,1.0,1.0,-8.0,-22.0,-18.0
1.6951631359088801e+18,13.0,-10.0,20.0,0.0,-12.0,-8.0,12.0,47.0
1.6951631359098796e+18,0.0,11.0,-15.0,-2.0,-1.0,4.0,-1.0,-9.0
1.6951631359098796e+18,-23.0,-56.0,8.0,13.0,28.0,20.0,4.0,3.0
1.6951631359258714e+18,5.0,-18.0,7.0,0.0,-3.0,-17.0,-56.0,-43.0
1.695163135926894e+18,-36.0,-38.0,5.0,10.0,8.0,34.0,82.0,41.0
1.695163135926894e+18,41.0,48.0,9.0,-6.0,-9.0,-9.0,-9.0,15.0
1.6951631359278715e+18,-17.0,-6.0,-6.0,1.0,5.0,5.0,2.0,4.0
1.6951631359378678e+18,2.0,14.0,-2.0,-5.0,1.0,9.0,-6.0,-12.0
1.6951631359388636e+18,-2.0,39.0,-44.0,-7.0,-8.0,-22.0,-10.0,-20.0
1.6951631359398623e+18,22.0,-25.0,29.0,9.0,2.0,12.0,22.0,54.0
1.6951631359398623e+18,-6.0,2.0,-3.0,2.0,7.0,21.0,55.0,-6.0
1.69516313595186e+18,0.0,-17.0,-11.0,-4.0,-1.0,-6.0,28.0,-35.0
1.69516313595186e+18,8.0,42.0,-5.0,-9.0,-16.0,-23.0,-48.0,-29.0
1.695163135960902e+18,-8.0,-18.0,-6.0,0.0,1.0,2.0,3.0,36.0
1.695163135960902e+18,-12.0,8.0,-9.0,-6.0,-14.0,-20.0,-37.0,4.0
1.6951631359838825e+18,-1.0,23.0,-5.0,-4.0,-1.0,2.0,21.0,-10.0
1.6951631359848827e+18,-3.0,-15.0,15.0,-6.0,-14.0,-12.0,-13.0,-23.0
1.6951631359858906e+18,-11.0,-17.0,10.0,-3.0,-1.0,-2.0,-16.0,-20.0
1.6951631359858906e+18,1.0,27.0,4.0,7.0,-5.0,-9.0,-11.0,5.0
1.6951631360008732e+18,-2.0,-53.0,-46.0,-3.0,12.0,16.0,24.0,1.0
1.6951631360008732e+18,6.0,12.0,14.0,0.0,-4.0,-2.0,-31.0,7.0
1.695163136004879e+18,-3.0,-8.0,-27.0,-6.0,-16.0,-15.0,-12.0,-8.0
1.695163136004879e+18,0.0,13.0,21.0,-22.0,-26.0,-15.0,-7.0,-5.0
1.695163136012823e+18,4.0,30.0,47.0,15.0,25.0,3.0,16.0,10.0
1.695163136012823e+18,10.0,-16.0,-40.0,-2.0,7.0,11.0,4.0,11.0
1.695163136020892e+18,-11.0,3.0,-10.0,-19.0,-62.0,-23.0,-5.0,-28.0
1.695163136020892e+18,-3.0,-4.0,3.0,11.0,50.0,8.0,-5.0,3.0
1.6951631360509002e+18,5.0,-9.0,-27.0,-45.0,-114.0,-44.0,-9.0,11.0
1.6951631360519014e+18,-3.0,-12.0,18.0,71.0,106.0,77.0,22.0,5.0
1.6951631360598208e+18,-1.0,13.0,8.0,-29.0,-22.0,-3.0,-1.0,-16.0
1.6951631360598208e+18,-4.0,-20.0,-29.0,-5.0,-27.0,-24.0,-10.0,3.0
1.6951631360608307e+18,1.0,9.0,9.0,28.0,-4.0,7.0,0.0,8.0
1.6951631360608307e+18,9.0,11.0,17.0,-5.0,15.0,17.0,10.0,1.0
1.6951631360618368e+18,-7.0,-3.0,-24.0,-3.0,14.0,2.0,-2.0,-11.0
1.6951631360618368e+18,5.0,-5.0,9.0,-9.0,-17.0,-2.0,-7.0,5.0
1.6951631360723884e+18,3.0,11.0,23.0,17.0,62.0,4.0,4.0,3.0
1.695163136073389e+18,-5.0,-4.0,9.0,36.0,-45.0,-37.0,-12.0,-8.0
1.6951631360813842e+18,-5.0,0.0,5.0,19.0,26.0,10.0,-5.0,-8.0
1.6951631360823928e+18,0.0,-2.0,0.0,-44.0,-16.0,-4.0,-3.0,0.0
1.6951631360953746e+18,3.0,-3.0,-27.0,-20.0,-24.0,1.0,4.0,2.0
1.6951631360953746e+18,2.0,3.0,15.0,-3.0,-12.0,-13.0,2.0,3.0
1.6951631361115648e+18,-9.0,-14.0,-6.0,-18.0,-27.0,-5.0,-5.0,-12.0
1.6951631361125655e+18,-2.0,1.0,14.0,31.0,46.0,1.0,-5.0,-2.0
1.6951631361267553e+18,-4.0,-2.0,8.0,34.0,38.0,23.0,1.0,-1.0
1.6951631361267553e+18,2.0,-8.0,-17.0,14.0,57.0,5.0,-5.0,3.0
1.695163136127755e+18,14.0,33.0,10.0,-12.0,-4.0,6.0,16.0,6.0
1.695163136127755e+18,-7.0,-17.0,-6.0,18.0,-35.0,-4.0,-6.0,-5.0
1.6951631361417457e+18,-6.0,-8.0,11.0,2.0,13.0,13.0,-3.0,0.0
1.6951631361417457e+18,2.0,11.0,-11.0,-30.0,-32.0,-41.0,-50.0,-13.0
