timestamp,EMG_s0,EMG_s1,EMG_s2,EMG_s3,EMG_s4,EMG_s5,EMG_s6,EMG_s7
1.6951623553076972e+18,0.0,-1.0,-4.0,-5.0,-4.0,-1.0,1.0,-1.0
1.6951623553076972e+18,-1.0,-1.0,5.0,2.0,1.0,0.0,0.0,0.0
1.6951623553076972e+18,-1.0,-5.0,-5.0,1.0,2.0,0.0,-2.0,-1.0
1.6951623553086948e+18,-2.0,2.0,4.0,-2.0,-5.0,-1.0,-1.0,-1.0
1.6951623553086948e+18,0.0,-2.0,-2.0,-5.0,-6.0,-2.0,-1.0,-1.0
1.6951623553086948e+18,0.0,10.0,11.0,5.0,1.0,-1.0,-1.0,-1.0
1.6951623553086948e+18,-2.0,-17.0,-30.0,-20.0,-8.0,-1.0,1.0,0.0
1.6951623553086948e+18,0.0,0.0,4.0,7.0,8.0,3.0,2.0,1.0
1.6951623553106954e+18,-1.0,0.0,-4.0,4.0,1.0,-1.0,0.0,-2.0
1.6951623553116946e+18,-1.0,-8.0,4.0,0.0,-7.0,-6.0,-5.0,-2.0
1.6951623553116946e+18,1.0,6.0,0.0,8.0,5.0,4.0,2.0,8.0
1.6951623553116946e+18,0.0,0.0,0.0,-27.0,-13.0,-4.0,-3.0,-11.0
1.695162355326685e+18,-4.0,-4.0,3.0,9.0,-8.0,-5.0,-1.0,-6.0
1.695162355326685e+18,-2.0,-2.0,-18.0,-35.0,-25.0,-5.0,-3.0,13.0
1.6951623553357005e+18,-3.0,-5.0,5.0,49.0,59.0,6.0,-4.0,-17.0
1.6951623553357005e+18,0.0,-1.0,-5.0,1.0,0.0,-1.0,-2.0,9.0
1.6951623553496717e+18,-3.0,2.0,13.0,11.0,14.0,0.0,-1.0,-4.0
1.6951623553496717e+18,-3.0,-2.0,-7.0,2.0,-3.0,0.0,6.0,-2.0
1.695162355366661e+18,3.0,7.0,-10.0,-15.0,-18.0,-5.0,-1.0,9.0
1.695162355366661e+18,-3.0,-9.0,5.0,5.0,-5.0,-4.0,-3.0,-4.0
1.6951623553726605e+18,1.0,-2.0,-4.0,-2.0,6.0,1.0,-2.0,-3.0
1.6951623553726605e+18,2.0,3.0,-2.0,1.0,-5.0,-3.0,0.0,-2.0
1.69516235538765e+18,-3.0,-3.0,7.0,-14.0,-10.0,5.0,3.0,1.0
1.69516235538765e+18,-1.0,9.0,5.0,11.0,7.0,1.0,5.0,-14.0
1.695162355427628e+18,-1.0,2.0,0.0,2.0,-1.0,-3.0,-2.0,-2.0
1.695162355427628e+18,-3.0,-1.0,-3.0,-10.0,-4.0,-1.0,0.0,-1.0
1.6951623554286262e+18,0.0,8.0,1.0,4.0,4.0,2.0,1.0,-1.0
1.6951623554286262e+18,3.0,-3.0,-4.0,-2.0,1.0,2.0,1.0,-1.0
1.6951623554326239e+18,0.0,-3.0,-2.0,-2.0,-7.0,-1.0,-2.0,-1.0
1.6951623554326239e+18,-2.0,-1.0,-5.0,7.0,7.0,0.0,0.0,-2.0
1.6951623554326239e+18,0.0,-5.0,0.0,-3.0,-1.0,0.0,0.0,-1.0
1.6951623554336233e+18,-1.0,6.0,9.0,3.0,-1.0,0.0,0.0,0.0
1.6951623554336233e+18,-2.0,-2.0,-5.0,-4.0,-1.0,0.0,0.0,-1.0
1.695162355434624e+18,1.0,0.0,1.0,0.0,-7.0,-3.0,-3.0,-1.0
1.695162355447619e+18,-2.0,0.0,-1.0,0.0,-1.0,-2.0,0.0,-1.0
1.695162355447619e+18,-2.0,-2.0,-3.0,-6.0,-5.0,-3.0,-4.0,-1.0
1.6951623554536115e+18,1.0,-3.0,-3.0,-2.0,-1.0,-1.0,2.0,2.0
1.6951623554536115e+18,-1.0,1.0,14.0,-2.0,-5.0,-2.0,-2.0,-1.0
1.6951623554636065e+18,-1.0,-4.0,-20.0,-5.0,-4.0,2.0,4.0,2.0
1.6951623554636065e+18,2.0,4.0,23.0,13.0,3.0,0.0,-2.0,0.0
1.6951623554686075e+18,-2.0,-1.0,-22.0,7.0,18.0,4.0,-2.0,-2.0
1.6951623554686075e+18,2.0,1.0,4.0,-3.0,1.0,1.0,3.0,2.0
1.6951623555005875e+18,1.0,12.0,25.0,-1.0,-4.0,0.0,1.0,5.0
1.6951623555005875e+18,-3.0,-19.0,-28.0,-20.0,-11.0,-4.0,-6.0,-12.0
1.695162355501589e+18,-4.0,0.0,7.0,1.0,4.0,0.0,-3.0,-15.0
1.695162355501589e+18,-1.0,-5.0,-22.0,-2.0,-4.0,-4.0,-6.0,3.0
1.6951623555056056e+18,-2.0,0.0,17.0,3.0,-2.0,-3.0,-5.0,-2.0
1.695162355506581e+18,0.0,10.0,4.0,7.0,2.0,0.0,1.0,5.0
1.6951623555215762e+18,-3.0,-15.0,1.0,-8.0,-10.0,-3.0,1.0,1.0
1.6951623555226002e+18,-4.0,0.0,-7.0,6.0,8.0,-1.0,1.0,-10.0
1.6951623555295685e+18,-1.0,-8.0,-10.0,-1.0,-2.0,-1.0,-2.0,2.0
1.6951623555295685e+18,-1.0,6.0,-7.0,-9.0,-14.0,-10.0,-2.0,-2.0
1.6951623555295685e+18,-1.0,-5.0,11.0,6.0,10.0,6.0,2.0,-1.0
1.695162355530573e+18,-1.0,1.0,-7.0,-6.0,-6.0,5.0,2.0,2.0
1.695162355559551e+18,-3.0,-3.0,-8.0,5.0,-3.0,-2.0,-2.0,-2.0
1.6951623555605527e+18,-2.0,-3.0,4.0,11.0,12.0,3.0,0.0,-1.0
1.6951623555605527e+18,5.0,15.0,-4.0,-13.0,-14.0,-5.0,-2.0,-3.0
1.6951623555615506e+18,0.0,-9.0,16.0,11.0,2.0,-4.0,-3.0,1.0
1.695162355575556e+18,1.0,-7.0,-8.0,-8.0,-8.0,-5.0,-3.0,-4.0
1.695162355575556e+18,-5.0,-1.0,-14.0,-2.0,6.0,3.0,1.0,-4.0
1.6951623555765422e+18,-3.0,1.0,1.0,-1.0,-2.0,4.0,5.0,5.0
1.6951623555765422e+18,-1.0,-9.0,0.0,-6.0,2.0,0.0,-1.0,0.0
1.6951623555975288e+18,2.0,1.0,2.0,-17.0,-17.0,-6.0,0.0,9.0
1.6951623555975288e+18,-5.0,-11.0,-26.0,5.0,6.0,0.0,-3.0,-23.0
1.6951623555985293e+18,-1.0,3.0,2.0,0.0,-9.0,-7.0,-4.0,10.0
1.6951623555985293e+18,9.0,10.0,-11.0,-3.0,2.0,-2.0,-4.0,-4.0
1.6951623556145226e+18,-1.0,-13.0,-1.0,-4.0,0.0,0.0,-1.0,3.0
1.6951623556145226e+18,0.0,1.0,-1.0,3.0,3.0,-1.0,1.0,5.0
1.6951623556145226e+18,-2.0,-4.0,5.0,-9.0,-11.0,-5.0,-3.0,-7.0
1.6951623556145226e+18,-8.0,0.0,1.0,2.0,12.0,9.0,8.0,-6.0
1.695162355636507e+18,-1.0,7.0,-15.0,8.0,10.0,0.0,3.0,0.0
1.695162355636507e+18,-1.0,-1.0,11.0,-7.0,-11.0,3.0,-6.0,0.0
1.695162355637507e+18,0.0,-1.0,-13.0,1.0,9.0,2.0,-1.0,0.0
1.695162355637507e+18,0.0,-9.0,0.0,-10.0,-38.0,-17.0,-1.0,6.0
1.695162355657498e+18,-3.0,2.0,6.0,8.0,29.0,13.0,6.0,-4.0
1.695162355657498e+18,-1.0,-2.0,-1.0,-1.0,-7.0,-2.0,2.0,4.0
1.695162355657498e+18,0.0,-1.0,13.0,6.0,9.0,1.0,-2.0,-3.0
1.695162355658497e+18,-1.0,3.0,-21.0,-3.0,1.0,1.0,-1.0,-3.0
1.695162355673486e+18,0.0,1.0,39.0,1.0,-2.0,-3.0,-2.0,-5.0
1.695162355673486e+18,0.0,1.0,-20.0,0.0,-14.0,-3.0,-2.0,1.0
1.695162355673486e+18,1.0,-2.0,-35.0,-13.0,-1.0,-1.0,-1.0,-2.0
1.6951623556744883e+18,-1.0,-8.0,-8.0,8.0,7.0,-1.0,-1.0,-5.0
1.6951623556864806e+18,-4.0,-4.0,1.0,16.0,23.0,8.0,-1.0,6.0
1.6951623556864806e+18,4.0,7.0,32.0,-3.0,-2.0,-1.0,4.0,13.0
1.6951623557314563e+18,-6.0,-7.0,-20.0,8.0,-8.0,-5.0,-3.0,-18.0
1.6951623557334528e+18,4.0,14.0,18.0,-9.0,5.0,11.0,12.0,1.0
1.6951623557334528e+18,-4.0,-3.0,-15.0,2.0,-6.0,-9.0,-18.0,-42.0
1.6951623557344543e+18,6.0,9.0,-3.0,-6.0,0.0,3.0,9.0,74.0
1.6951623557344543e+18,4.0,-20.0,2.0,-2.0,6.0,5.0,17.0,25.0
1.6951623557344543e+18,-12.0,-10.0,-6.0,-10.0,-18.0,-17.0,-35.0,-29.0
1.695162355749443e+18,6.0,18.0,44.0,7.0,0.0,-2.0,-7.0,-13.0
1.6951623557504448e+18,-2.0,-7.0,-21.0,1.0,-1.0,4.0,14.0,-16.0
1.6951623557504448e+18,-4.0,6.0,7.0,9.0,29.0,17.0,-3.0,-7.0
1.6951623557504448e+18,6.0,13.0,12.0,2.0,2.0,6.0,11.0,21.0
1.6951623557614356e+18,-1.0,-5.0,13.0,-12.0,-17.0,-4.0,2.0,7.0
1.6951623557614356e+18,-1.0,-5.0,-69.0,8.0,7.0,-3.0,0.0,-16.0
1.695162355778426e+18,3.0,9.0,20.0,-8.0,-14.0,-6.0,-3.0,7.0
1.6951623557794273e+18,-6.0,-12.0,-14.0,1.0,4.0,0.0,-10.0,-23.0
1.69516235578942e+18,-1.0,18.0,-14.0,-6.0,-3.0,3.0,10.0,-7.0
1.69516235578942e+18,-4.0,-19.0,-6.0,-12.0,-6.0,-2.0,28.0,-7.0
1.69516235578942e+18,-16.0,-8.0,-2.0,4.0,-7.0,-10.0,-31.0,6.0
1.69516235578942e+18,14.0,-4.0,21.0,4.0,4.0,1.0,-12.0,69.0
1.69516235579142e+18,0.0,-9.0,-58.0,-1.0,-16.0,-8.0,-3.0,7.0
1.6951623557924214e+18,1.0,4.0,51.0,-4.0,5.0,-1.0,2.0,-22.0
1.6951623557934188e+18,-10.0,-17.0,-14.0,0.0,-3.0,-2.0,1.0,-49.0
1.6951623557934188e+18,3.0,18.0,4.0,-3.0,-7.0,-2.0,9.0,21.0
1.6951623558303974e+18,-4.0,-16.0,4.0,4.0,2.0,3.0,7.0,8.0
1.6951623558303974e+18,-2.0,13.0,40.0,9.0,17.0,0.0,-14.0,-25.0
1.6951623558303974e+18,6.0,6.0,-9.0,-3.0,-11.0,-5.0,-2.0,9.0
1.6951623558303974e+18,2.0,-11.0,-28.0,2.0,11.0,6.0,9.0,-5.0
1.6951623558303974e+18,1.0,19.0,7.0,-7.0,-5.0,-1.0,5.0,-21.0
1.6951623558303974e+18,-10.0,-33.0,-22.0,0.0,-2.0,-1.0,-20.0,-30.0
1.6951623558303974e+18,7.0,30.0,41.0,1.0,-5.0,-1.0,-1.0,53.0
1.6951623558303974e+18,-8.0,-37.0,-26.0,0.0,9.0,4.0,6.0,-9.0
1.6951623558513843e+18,3.0,6.0,-9.0,0.0,2.0,2.0,6.0,-1.0
1.6951623558513843e+18,4.0,10.0,11.0,-1.0,-4.0,-2.0,-8.0,10.0
1.6951623558523853e+18,2.0,10.0,16.0,0.0,-7.0,0.0,5.0,-14.0
1.6951623558523853e+18,2.0,17.0,48.0,0.0,-4.0,-2.0,5.0,-10.0
1.6951623558773696e+18,-6.0,-10.0,37.0,10.0,16.0,10.0,27.0,-36.0
1.6951623558773696e+18,-10.0,4.0,7.0,-9.0,-15.0,-11.0,-40.0,28.0
1.6951623558773696e+18,11.0,-6.0,17.0,3.0,-10.0,-6.0,-5.0,20.0
1.695162355878369e+18,-4.0,11.0,-1.0,-4.0,-1.0,-5.0,2.0,-14.0
1.6951623558893627e+18,1.0,-4.0,-27.0,17.0,37.0,12.0,-10.0,9.0
1.6951623558893627e+18,2.0,2.0,37.0,5.0,-2.0,0.0,12.0,-16.0
1.6951623558903619e+18,-5.0,-14.0,-34.0,-10.0,3.0,1.0,4.0,-10.0
1.6951623558903619e+18,2.0,15.0,22.0,0.0,-14.0,-3.0,-5.0,-3.0
1.695162355915348e+18,-11.0,2.0,-27.0,-15.0,-15.0,-6.0,-8.0,-14.0
1.695162355915348e+18,11.0,12.0,72.0,12.0,13.0,6.0,6.0,44.0
1.695162355915348e+18,2.0,16.0,-16.0,4.0,3.0,-3.0,-7.0,-26.0
1.695162355915348e+18,-2.0,-30.0,28.0,2.0,-5.0,-3.0,0.0,-3.0
1.6951623559433324e+18,2.0,1.0,29.0,-1.0,-10.0,-3.0,1.0,21.0
1.6951623559433324e+18,-3.0,-8.0,-113.0,-9.0,7.0,3.0,7.0,0.0
1.6951623559503276e+18,-3.0,-11.0,-5.0,-1.0,0.0,-4.0,-13.0,-13.0
1.695162355951328e+18,1.0,14.0,67.0,3.0,1.0,5.0,14.0,-35.0
1.6951623559523267e+18,4.0,-9.0,-39.0,-19.0,-8.0,-11.0,-27.0,17.0
1.6951623559523267e+18,-4.0,-11.0,15.0,5.0,-10.0,-5.0,-6.0,-8.0
1.695162355953326e+18,6.0,25.0,-29.0,-6.0,11.0,11.0,27.0,-15.0
1.695162355953326e+18,-9.0,-6.0,-31.0,3.0,10.0,2.0,-19.0,-9.0
1.6951623560034125e+18,8.0,-21.0,12.0,-5.0,-13.0,-3.0,3.0,44.0
1.6951623560034125e+18,1.0,16.0,-16.0,-4.0,-2.0,2.0,5.0,-15.0
1.6951623560044147e+18,-11.0,-21.0,-78.0,1.0,5.0,-1.0,4.0,4.0
1.6951623560044147e+18,-7.0,-3.0,0.0,-11.0,-13.0,-8.0,5.0,-32.0
1.6951623560064113e+18,4.0,3.0,100.0,-6.0,-9.0,-14.0,-23.0,17.0
1.6951623560064113e+18,-4.0,17.0,-16.0,-2.0,6.0,4.0,-4.0,-1.0
1.6951623560188173e+18,1.0,-7.0,18.0,-16.0,-16.0,1.0,15.0,3.0
1.6951623560198208e+18,-3.0,-31.0,-33.0,25.0,23.0,5.0,2.0,29.0
1.6951623560208223e+18,2.0,26.0,45.0,4.0,-6.0,-2.0,-3.0,-19.0
1.6951623560208223e+18,8.0,-10.0,9.0,-2.0,5.0,11.0,16.0,12.0
1.6951623560208223e+18,-1.0,15.0,-6.0,19.0,12.0,5.0,-2.0,5.0
1.6951623560208223e+18,3.0,21.0,-20.0,-5.0,-6.0,-3.0,-9.0,5.0
1.6951623560398377e+18,-5.0,-53.0,-113.0,-12.0,-8.0,1.0,3.0,-5.0
1.6951623560398377e+18,-3.0,8.0,-16.0,2.0,4.0,-2.0,-14.0,-6.0
1.6951623560408548e+18,7.0,12.0,5.0,-9.0,-4.0,3.0,11.0,9.0
1.6951623560408548e+18,5.0,-1.0,4.0,1.0,-5.0,-8.0,-7.0,10.0
1.695162356062478e+18,-4.0,-1.0,-70.0,-2.0,6.0,2.0,3.0,-2.0
1.695162356062478e+18,2.0,-12.0,47.0,7.0,-7.0,-3.0,6.0,-12.0
1.695162356062478e+18,-5.0,-25.0,-53.0,-11.0,-3.0,-2.0,-11.0,-6.0
1.6951623560634775e+18,2.0,29.0,-46.0,-3.0,2.0,1.0,-3.0,-12.0
1.6951623560795146e+18,-1.0,9.0,-30.0,-2.0,-1.0,2.0,12.0,8.0
1.6951623560795146e+18,-11.0,-32.0,60.0,5.0,-1.0,-3.0,-5.0,-13.0
1.6951623560795146e+18,-2.0,-1.0,21.0,13.0,8.0,3.0,-2.0,45.0
1.6951623560795146e+18,-5.0,2.0,6.0,-14.0,-6.0,-7.0,-3.0,-8.0
1.6951623561539172e+18,-3.0,-17.0,-36.0,2.0,2.0,3.0,-3.0,-28.0
1.6951623561539172e+18,2.0,55.0,-24.0,-12.0,-12.0,-10.0,-12.0,-10.0
1.6951623561539172e+18,3.0,-37.0,39.0,14.0,9.0,3.0,11.0,-5.0
1.6951623561549166e+18,-21.0,-3.0,-3.0,-2.0,-4.0,-4.0,-11.0,17.0
1.6951623561559155e+18,2.0,17.0,40.0,-1.0,1.0,0.0,1.0,5.0
1.6951623561559155e+18,0.0,-9.0,-72.0,-12.0,-2.0,-3.0,2.0,0.0
1.6951623561699085e+18,10.0,-4.0,82.0,6.0,-8.0,-6.0,-6.0,-5.0
1.6951623561699085e+18,-10.0,-1.0,-108.0,-8.0,2.0,4.0,3.0,5.0
1.6951623561709082e+18,5.0,-24.0,42.0,20.0,-2.0,-1.0,0.0,-1.0
1.6951623561709082e+18,-6.0,9.0,107.0,8.0,5.0,3.0,-4.0,8.0
1.695162356174905e+18,18.0,23.0,-37.0,0.0,-1.0,-5.0,-10.0,35.0
1.695162356174905e+18,-7.0,1.0,54.0,11.0,2.0,-1.0,17.0,-3.0
1.6951623561898993e+18,-9.0,20.0,68.0,-16.0,-18.0,-9.0,-24.0,-20.0
1.6951623561898993e+18,18.0,16.0,2.0,-9.0,-11.0,-6.0,12.0,17.0
1.6951623561918968e+18,-21.0,-52.0,-6.0,7.0,15.0,10.0,16.0,-30.0
1.6951623561918968e+18,-4.0,-28.0,-33.0,-8.0,-10.0,-16.0,-39.0,3.0
1.6951623562048896e+18,-43.0,-4.0,-28.0,11.0,-1.0,-2.0,2.0,36.0
1.6951623562048896e+18,4.0,10.0,57.0,16.0,4.0,3.0,6.0,20.0
1.6951623562288753e+18,12.0,23.0,-50.0,-19.0,3.0,5.0,6.0,-3.0
1.6951623562288753e+18,7.0,9.0,16.0,9.0,1.0,4.0,13.0,-6.0
1.6951623562298742e+18,1.0,-55.0,51.0,8.0,9.0,4.0,3.0,11.0
1.6951623562298742e+18,-23.0,0.0,17.0,2.0,-14.0,-9.0,-3.0,-21.0
1.6951623562348718e+18,-7.0,8.0,42.0,20.0,19.0,13.0,6.0,25.0
1.695162356235873e+18,-18.0,-30.0,-53.0,-15.0,-2.0,1.0,2.0,-21.0
1.695162356235873e+18,4.0,6.0,-26.0,-4.0,4.0,-7.0,-6.0,-11.0
1.695162356235873e+18,12.0,18.0,10.0,-3.0,-17.0,-6.0,-5.0,-7.0
1.6951623562649254e+18,16.0,9.0,45.0,0.0,-3.0,-8.0,-6.0,7.0
1.695162356265544e+18,-5.0,-34.0,-47.0,2.0,15.0,17.0,25.0,4.0
1.695162356265544e+18,19.0,78.0,-24.0,27.0,28.0,9.0,-16.0,0.0
1.695162356265544e+18,-13.0,-66.0,-46.0,-26.0,-9.0,-7.0,-6.0,-20.0
1.6951623562835374e+18,7.0,43.0,31.0,-5.0,-4.0,6.0,10.0,29.0
1.6951623562835374e+18,14.0,-36.0,17.0,13.0,2.0,-6.0,-7.0,21.0
1.6951623562835374e+18,-5.0,-4.0,-20.0,-9.0,-9.0,0.0,12.0,-36.0
1.6951623562835374e+18,15.0,-5.0,11.0,0.0,-1.0,-5.0,-6.0,-1.0
1.695162356294531e+18,5.0,-14.0,-28.0,0.0,-3.0,-3.0,-4.0,-1.0
1.6951623562955325e+18,0.0,21.0,-29.0,-12.0,-8.0,0.0,7.0,-2.0
1.6951623562955325e+18,9.0,-19.0,-28.0,-11.0,-7.0,-5.0,-3.0,-7.0
1.6951623562955325e+18,-11.0,-6.0,27.0,3.0,3.0,3.0,-3.0,-5.0
1.695162356317517e+18,9.0,-4.0,16.0,1.0,-13.0,-11.0,-9.0,-12.0
1.695162356317517e+18,11.0,47.0,5.0,-6.0,1.0,-1.0,-5.0,2.0
1.6951623563185244e+18,-3.0,-39.0,-57.0,0.0,6.0,3.0,-1.0,13.0
1.6951623563185244e+18,6.0,21.0,-29.0,-9.0,-8.0,-3.0,2.0,-9.0
1.6951623563391104e+18,-9.0,-9.0,-29.0,-8.0,10.0,4.0,-2.0,-11.0
1.6951623563391104e+18,-8.0,-12.0,-21.0,-2.0,-2.0,-6.0,-8.0,9.0
1.6951623563563162e+18,11.0,33.0,-36.0,-16.0,-13.0,-8.0,-5.0,3.0
1.6951623563563162e+18,-10.0,-4.0,-15.0,2.0,2.0,5.0,6.0,-12.0
1.6951623563579208e+18,-3.0,-10.0,-9.0,-1.0,-7.0,-10.0,-6.0,-1.0
1.6951623563579208e+18,0.0,5.0,32.0,6.0,2.0,3.0,1.0,4.0
1.695162356358818e+18,0.0,-8.0,42.0,8.0,7.0,2.0,-1.0,5.0
1.695162356358818e+18,-4.0,15.0,15.0,0.0,-7.0,-3.0,-4.0,-34.0
1.6951623563935882e+18,0.0,-20.0,-33.0,-5.0,14.0,5.0,0.0,34.0
1.6951623563945843e+18,20.0,21.0,-30.0,0.0,-8.0,-1.0,2.0,-1.0
1.6951623563945843e+18,4.0,4.0,58.0,-4.0,-9.0,-2.0,3.0,16.0
1.6951623563945843e+18,-2.0,4.0,24.0,0.0,1.0,1.0,4.0,-8.0
1.6951623563990843e+18,-2.0,0.0,-1.0,12.0,0.0,2.0,1.0,-13.0
1.695162356400097e+18,-6.0,-15.0,31.0,11.0,5.0,0.0,-8.0,6.0
1.6951623564078548e+18,1.0,24.0,18.0,17.0,8.0,1.0,-4.0,-10.0
1.6951623564078548e+18,6.0,-9.0,-47.0,-21.0,-1.0,2.0,-3.0,6.0
1.695162356447491e+18,0.0,-9.0,-4.0,-4.0,-6.0,2.0,2.0,5.0
1.695162356447491e+18,-10.0,-18.0,61.0,1.0,-2.0,-3.0,-1.0,-6.0
1.6951623564484915e+18,1.0,9.0,-64.0,-4.0,-2.0,5.0,2.0,-11.0
1.6951623564484915e+18,-1.0,-28.0,43.0,14.0,4.0,0.0,2.0,-4.0
1.6951623564484915e+18,-19.0,-4.0,18.0,0.0,-4.0,0.0,12.0,22.0
1.695162356449523e+18,-3.0,0.0,-31.0,0.0,7.0,1.0,-17.0,-25.0
1.6951623564535816e+18,0.0,-5.0,-23.0,-9.0,-6.0,-5.0,6.0,13.0
1.6951623564535816e+18,1.0,25.0,-10.0,4.0,7.0,-1.0,-11.0,-4.0
1.6951623564792092e+18,-1.0,-16.0,-5.0,-3.0,-2.0,2.0,3.0,3.0
1.6951623564792092e+18,-7.0,9.0,5.0,0.0,-3.0,-4.0,2.0,0.0
1.695162356488159e+18,-3.0,-20.0,50.0,2.0,0.0,3.0,7.0,-10.0
1.695162356488159e+18,4.0,-15.0,-45.0,0.0,6.0,2.0,-6.0,10.0
1.6951623564931628e+18,0.0,19.0,12.0,-3.0,-10.0,-9.0,-12.0,-19.0
1.6951623564941573e+18,0.0,7.0,-47.0,-5.0,0.0,2.0,6.0,9.0
1.695162356498154e+18,4.0,23.0,19.0,-2.0,-3.0,-5.0,-5.0,-30.0
1.695162356498154e+18,-2.0,-1.0,-8.0,-5.0,-1.0,1.0,7.0,41.0
1.6951623564991598e+18,-4.0,-5.0,36.0,1.0,-4.0,-5.0,-9.0,-10.0
1.6951623564991598e+18,7.0,18.0,-32.0,-5.0,-1.0,1.0,0.0,-2.0
1.6951623565061486e+18,2.0,1.0,-1.0,-3.0,-3.0,-2.0,-2.0,0.0
1.6951623565061486e+18,-5.0,1.0,11.0,-3.0,-2.0,-1.0,-2.0,7.0
1.6951623565221414e+18,4.0,-2.0,-36.0,-3.0,-4.0,-4.0,-3.0,-4.0
1.6951623565221414e+18,-2.0,-7.0,-25.0,0.0,2.0,3.0,4.0,3.0
1.695162356523139e+18,-3.0,2.0,2.0,-5.0,-2.0,0.0,-1.0,0.0
1.695162356523139e+18,-1.0,-1.0,61.0,6.0,1.0,-1.0,1.0,-4.0
1.695162356561862e+18,1.0,23.0,4.0,-4.0,-2.0,-3.0,-3.0,-4.0
1.6951623565628618e+18,-1.0,-6.0,32.0,-1.0,-3.0,-1.0,1.0,-4.0
1.695162356563861e+18,-2.0,-12.0,-22.0,-2.0,1.0,3.0,0.0,5.0
1.6951623565648612e+18,3.0,8.0,2.0,2.0,1.0,-1.0,1.0,-4.0
1.6951623565648612e+18,-3.0,4.0,3.0,-3.0,-4.0,-3.0,-1.0,-6.0
1.6951623565648612e+18,-2.0,-6.0,19.0,1.0,0.0,-1.0,1.0,-3.0
1.6951623565668608e+18,3.0,10.0,-21.0,-6.0,-4.0,-1.0,-4.0,1.0
1.6951623565668608e+18,3.0,5.0,-21.0,1.0,2.0,0.0,0.0,-14.0
1.695162356585851e+18,-1.0,7.0,1.0,-1.0,0.0,-2.0,-1.0,0.0
1.695162356585851e+18,-5.0,-19.0,-22.0,1.0,1.0,1.0,2.0,3.0
1.6951623565868524e+18,-5.0,1.0,-3.0,-1.0,-2.0,-2.0,1.0,0.0
1.695162356587847e+18,2.0,-2.0,4.0,-1.0,-1.0,0.0,1.0,3.0
1.695162356602844e+18,-5.0,-5.0,7.0,-2.0,-1.0,0.0,0.0,-6.0
1.695162356602844e+18,-6.0,1.0,8.0,0.0,1.0,1.0,-2.0,-3.0
1.6951623566168292e+18,4.0,6.0,8.0,-3.0,-1.0,-2.0,-1.0,5.0
1.6951623566168292e+18,4.0,2.0,27.0,0.0,-2.0,0.0,0.0,-5.0
1.695162356676815e+18,3.0,1.0,-3.0,-1.0,-2.0,-1.0,-1.0,1.0
1.695162356676815e+18,19.0,3.0,-15.0,-3.0,1.0,0.0,3.0,9.0
1.6951623566872916e+18,-11.0,-3.0,10.0,0.0,-2.0,0.0,0.0,-12.0
1.6951623566872916e+18,6.0,2.0,-14.0,-1.0,0.0,1.0,-1.0,2.0
1.6951623566882757e+18,4.0,-1.0,1.0,-11.0,-5.0,-3.0,0.0,5.0
1.6951623566882757e+18,6.0,1.0,5.0,1.0,0.0,-2.0,-1.0,-4.0
1.695162356715554e+18,-18.0,-9.0,-4.0,2.0,-1.0,-2.0,-4.0,-18.0
1.695162356715554e+18,11.0,-2.0,-15.0,-2.0,2.0,1.0,0.0,7.0
1.6951623567165586e+18,-4.0,2.0,0.0,15.0,2.0,0.0,-2.0,1.0
1.6951623567165586e+18,-6.0,-3.0,7.0,3.0,-2.0,-2.0,-2.0,-3.0
1.6951623567165586e+18,3.0,1.0,-2.0,4.0,-1.0,1.0,1.0,2.0
1.695162356717553e+18,-4.0,1.0,-12.0,-7.0,-2.0,-1.0,-1.0,-5.0
1.6951623567295457e+18,4.0,-1.0,-4.0,-9.0,-3.0,-2.0,0.0,3.0
1.6951623567295457e+18,-4.0,-2.0,4.0,-1.0,0.0,1.0,0.0,-3.0
1.6951623567385155e+18,-4.0,0.0,1.0,0.0,0.0,0.0,-2.0,-3.0
1.6951623567385155e+18,-4.0,1.0,1.0,1.0,0.0,1.0,-1.0,-1.0
1.6951623567401733e+18,0.0,-2.0,-5.0,-3.0,-1.0,0.0,-1.0,-1.0
1.6951623567401733e+18,-2.0,-1.0,-4.0,4.0,2.0,-1.0,-1.0,-1.0
1.695162356741181e+18,-4.0,-3.0,1.0,-1.0,-1.0,-1.0,-2.0,-2.0
1.695162356741181e+18,-3.0,-3.0,5.0,0.0,-3.0,-2.0,-3.0,-1.0
1.6951623567998034e+18,0.0,0.0,-4.0,-4.0,-1.0,-1.0,0.0,3.0
1.6951623568008013e+18,-1.0,0.0,-7.0,-2.0,-2.0,-3.0,-1.0,-3.0
1.6951623568008013e+18,0.0,1.0,5.0,1.0,-1.0,0.0,-1.0,-1.0
1.6951623568018002e+18,-1.0,-1.0,0.0,-3.0,0.0,1.0,0.0,-1.0
1.695162356812765e+18,0.0,1.0,1.0,1.0,-1.0,-1.0,-1.0,3.0
1.6951623568137623e+18,-3.0,0.0,-2.0,2.0,-1.0,-1.0,0.0,0.0
1.6951623568137623e+18,2.0,-1.0,4.0,-1.0,-1.0,-3.0,-1.0,-2.0
1.6951623568137623e+18,-2.0,-1.0,-4.0,-2.0,0.0,-3.0,0.0,0.0
1.6951623568147625e+18,-1.0,-2.0,1.0,0.0,-1.0,0.0,-1.0,-1.0
1.6951623568147625e+18,-2.0,-2.0,0.0,-1.0,-2.0,0.0,-1.0,-2.0
1.69516235682076e+18,-2.0,-2.0,-1.0,-1.0,1.0,-1.0,-1.0,-2.0
1.69516235682076e+18,-1.0,-1.0,-1.0,0.0,-3.0,-1.0,0.0,0.0
1.6951623568217582e+18,1.0,0.0,-3.0,-2.0,-1.0,-2.0,1.0,0.0
1.6951623568227597e+18,-3.0,-1.0,-3.0,-1.0,1.0,-1.0,0.0,-2.0
1.6951623568345446e+18,-1.0,-3.0,-3.0,-1.0,-2.0,1.0,0.0,-1.0
1.6951623568345446e+18,-1.0,-1.0,-3.0,-1.0,-1.0,-1.0,0.0,-1.0
1.6951623568504123e+18,1.0,-1.0,-1.0,0.0,-1.0,1.0,-2.0,0.0
1.6951623568504123e+18,-2.0,-2.0,-2.0,-1.0,-1.0,0.0,-2.0,-1.0
1.6951623568584256e+18,0.0,-1.0,-5.0,2.0,1.0,-3.0,-1.0,0.0
1.6951623568584256e+18,-1.0,-1.0,4.0,-3.0,-1.0,-2.0,-1.0,-1.0
1.6951623568594301e+18,2.0,5.0,18.0,-1.0,-3.0,-2.0,0.0,0.0
1.6951623568594301e+18,-5.0,-6.0,-15.0,-4.0,-1.0,-3.0,-1.0,-1.0
1.695162356887843e+18,0.0,-1.0,0.0,0.0,-2.0,-1.0,-1.0,-1.0
1.695162356887843e+18,-2.0,1.0,3.0,0.0,1.0,0.0,-1.0,0.0
1.6951623568888463e+18,2.0,-1.0,-12.0,0.0,1.0,1.0,0.0,-1.0
1.6951623568898414e+18,-1.0,-4.0,4.0,2.0,-1.0,-1.0,-2.0,0.0
1.6951623568938383e+18,-2.0,5.0,20.0,-4.0,-5.0,-3.0,-3.0,-3.0
1.6951623568938383e+18,-1.0,-12.0,-38.0,-3.0,2.0,0.0,-1.0,-1.0
1.695162356909649e+18,-1.0,11.0,11.0,1.0,-3.0,-1.0,-1.0,-1.0
1.695162356909649e+18,-1.0,-1.0,13.0,2.0,3.0,0.0,1.0,1.0
1.695162356963154e+18,-1.0,-4.0,-9.0,-2.0,-1.0,-2.0,-1.0,-2.0
1.695162356963154e+18,1.0,0.0,8.0,-2.0,-2.0,-1.0,-1.0,-1.0
1.695162356970102e+18,0.0,-1.0,-7.0,-3.0,-1.0,-1.0,-2.0,0.0
1.6951623569711007e+18,0.0,2.0,-11.0,1.0,-1.0,1.0,-1.0,-1.0
1.6951623569720996e+18,-2.0,-1.0,6.0,1.0,0.0,0.0,-1.0,0.0
1.6951623569731057e+18,-1.0,3.0,6.0,-3.0,-3.0,-3.0,0.0,-1.0
1.695162356987093e+18,-2.0,-6.0,-7.0,-3.0,0.0,-2.0,1.0,1.0
1.695162356988091e+18,-1.0,5.0,9.0,-1.0,-2.0,-1.0,0.0,-1.0
1.695162356988091e+18,0.0,0.0,-8.0,0.0,-2.0,-1.0,1.0,0.0
1.6951623569890898e+18,0.0,-1.0,7.0,0.0,-1.0,0.0,-1.0,1.0
1.6951623570010834e+18,0.0,-1.0,-1.0,-2.0,-1.0,0.0,-1.0,0.0
1.695162357002084e+18,0.0,-2.0,-6.0,-1.0,0.0,0.0,-1.0,0.0
1.695162357002084e+18,-2.0,1.0,-5.0,-1.0,-1.0,-1.0,-1.0,-1.0
1.695162357003082e+18,1.0,2.0,5.0,0.0,0.0,-1.0,-3.0,-2.0
1.6951623570040832e+18,-2.0,-4.0,-3.0,-1.0,-1.0,-1.0,-2.0,0.0
1.6951623570040832e+18,-1.0,0.0,-4.0,-4.0,-2.0,-2.0,1.0,-2.0
1.6951623570320645e+18,-1.0,0.0,1.0,-1.0,1.0,-1.0,0.0,0.0
1.6951623570320645e+18,-1.0,-3.0,-2.0,1.0,-1.0,0.0,0.0,-1.0
1.6951623570330647e+18,0.0,-3.0,-5.0,-2.0,-1.0,0.0,0.0,-1.0
1.6951623570330647e+18,-2.0,-1.0,1.0,0.0,0.0,-1.0,-1.0,0.0
1.6951623570450573e+18,0.0,0.0,-2.0,-2.0,-1.0,0.0,1.0,-2.0
1.6951623570450573e+18,-1.0,0.0,-1.0,1.0,0.0,-1.0,0.0,-2.0
1.6951623570470577e+18,-1.0,-2.0,1.0,2.0,0.0,-1.0,-1.0,1.0
1.6951623570470577e+18,-1.0,0.0,-4.0,-2.0,-1.0,-1.0,-1.0,1.0
1.6951623570610488e+18,0.0,-1.0,-1.0,-1.0,-1.0,-1.0,0.0,-2.0
1.6951623570610488e+18,0.0,0.0,0.0,-1.0,-1.0,0.0,0.0,1.0
1.6951623570620475e+18,-1.0,-1.0,-1.0,0.0,-4.0,-1.0,0.0,-2.0
1.6951623570620475e+18,-1.0,-1.0,-2.0,1.0,0.0,-1.0,0.0,-2.0
1.6951623570730412e+18,-2.0,0.0,-2.0,-1.0,1.0,-1.0,-2.0,1.0
1.6951623570740398e+18,-3.0,0.0,-1.0,-2.0,-1.0,-2.0,0.0,0.0
1.6951623571060224e+18,-2.0,-1.0,0.0,-1.0,0.0,-1.0,-1.0,1.0
1.6951623571080238e+18,1.0,-2.0,-1.0,-1.0,-1.0,0.0,-2.0,0.0
1.6951623571080238e+18,0.0,-1.0,-1.0,-1.0,-1.0,0.0,-1.0,0.0
1.6951623571080238e+18,1.0,0.0,1.0,0.0,-1.0,1.0,-2.0,-1.0
1.6951623571080238e+18,0.0,-1.0,-3.0,-1.0,0.0,0.0,0.0,-1.0
1.6951623571080238e+18,0.0,-1.0,-2.0,0.0,-3.0,0.0,0.0,-1.0
1.695162357120013e+18,1.0,-2.0,0.0,0.0,-2.0,-1.0,1.0,-2.0
1.695162357120013e+18,-2.0,-4.0,-1.0,-1.0,-1.0,-1.0,-2.0,-1.0
1.695162357121013e+18,-1.0,-2.0,-3.0,1.0,-1.0,-1.0,-2.0,-2.0
1.695162357122013e+18,0.0,-1.0,0.0,0.0,-1.0,-1.0,1.0,0.0
1.695162357134007e+18,-1.0,0.0,0.0,0.0,-2.0,0.0,0.0,-1.0
1.695162357134007e+18,0.0,1.0,-1.0,-2.0,0.0,0.0,-1.0,0.0
1.695162357153995e+18,-1.0,-1.0,0.0,-1.0,-1.0,-1.0,-2.0,-1.0
1.695162357153995e+18,0.0,-1.0,1.0,0.0,0.0,0.0,-3.0,-2.0
1.695162357164989e+18,-1.0,0.0,-1.0,-1.0,1.0,-1.0,-1.0,-1.0
1.695162357164989e+18,-2.0,-1.0,-1.0,1.0,0.0,-2.0,0.0,0.0
1.695162357164989e+18,-1.0,-1.0,0.0,-1.0,-1.0,-1.0,-2.0,-1.0
1.695162357164989e+18,0.0,1.0,1.0,0.0,-1.0,0.0,0.0,-2.0
1.6951623571799798e+18,-1.0,-2.0,-2.0,0.0,-3.0,0.0,-1.0,-3.0
1.6951623571809797e+18,-1.0,0.0,-1.0,-1.0,-1.0,2.0,-1.0,-2.0
1.695162357181978e+18,0.0,-1.0,0.0,-2.0,0.0,0.0,0.0,1.0
1.695162357181978e+18,-1.0,-2.0,1.0,-1.0,0.0,-1.0,-1.0,0.0
1.6951623572119619e+18,-1.0,-1.0,-1.0,-1.0,-2.0,1.0,0.0,0.0
1.6951623572119619e+18,-1.0,-1.0,1.0,0.0,0.0,-2.0,0.0,-1.0
1.6951623572169595e+18,1.0,1.0,-2.0,0.0,0.0,-1.0,-2.0,0.0
1.695162357217958e+18,0.0,-1.0,-1.0,-1.0,-2.0,-1.0,-2.0,0.0
1.695162357217958e+18,0.0,-2.0,0.0,-1.0,2.0,-1.0,-1.0,0.0
1.695162357217958e+18,1.0,-1.0,-1.0,0.0,0.0,-1.0,0.0,0.0
1.6951623572239547e+18,-1.0,-2.0,-5.0,-2.0,0.0,0.0,0.0,-2.0
1.6951623572239547e+18,-2.0,1.0,9.0,0.0,0.0,-1.0,0.0,-1.0
1.6951623572399452e+18,-1.0,2.0,0.0,-1.0,1.0,1.0,-1.0,-1.0
1.6951623572399452e+18,-2.0,-1.0,1.0,0.0,0.0,0.0,0.0,0.0
1.695162357240944e+18,-2.0,-2.0,-7.0,-2.0,0.0,-1.0,0.0,-1.0
1.6951623572419436e+18,-2.0,0.0,1.0,-2.0,0.0,0.0,0.0,-1.0
1.6951623572639322e+18,-1.0,-3.0,0.0,0.0,-1.0,-2.0,-1.0,-1.0
1.6951623572669317e+18,-1.0,2.0,9.0,3.0,0.0,-1.0,0.0,-3.0
1.6951623572679337e+18,0.0,-1.0,-9.0,-5.0,0.0,-1.0,-1.0,1.0
1.6951623572679337e+18,-3.0,-5.0,0.0,0.0,-1.0,-1.0,-1.0,-1.0
1.6951623572769244e+18,0.0,-1.0,-6.0,0.0,0.0,-1.0,-2.0,0.0
1.6951623572779238e+18,0.0,2.0,3.0,-1.0,-1.0,-2.0,-1.0,0.0
1.695162357283921e+18,1.0,3.0,9.0,5.0,-1.0,0.0,-1.0,0.0
1.695162357283921e+18,-3.0,-9.0,-12.0,-5.0,-3.0,-1.0,-2.0,-1.0
1.6951623572999104e+18,-2.0,-2.0,-1.0,-2.0,-1.0,-1.0,-1.0,-1.0
1.6951623572999104e+18,1.0,1.0,5.0,2.0,-1.0,1.0,-1.0,0.0
1.6951623573019098e+18,2.0,3.0,5.0,1.0,-1.0,1.0,1.0,1.0
1.6951623573019098e+18,0.0,0.0,-5.0,0.0,-2.0,-1.0,-1.0,-1.0
1.6951623573218988e+18,-2.0,1.0,12.0,0.0,-1.0,1.0,-1.0,-1.0
1.6951623573229007e+18,-1.0,-11.0,-8.0,1.0,2.0,3.0,2.0,1.0
1.6951623573238968e+18,-2.0,1.0,-2.0,-4.0,0.0,-2.0,-1.0,0.0
1.6951623573238968e+18,1.0,4.0,-1.0,0.0,-2.0,0.0,0.0,1.0
1.6951623573368914e+18,0.0,-2.0,2.0,-3.0,0.0,0.0,-2.0,-2.0
1.6951623573368914e+18,-1.0,3.0,15.0,1.0,-2.0,-3.0,-1.0,-1.0
1.6951623573588772e+18,-1.0,-3.0,-3.0,3.0,-1.0,-1.0,-2.0,-3.0
1.6951623573588772e+18,-1.0,-2.0,6.0,-3.0,0.0,-1.0,0.0,-1.0
1.6951623573618755e+18,1.0,6.0,1.0,2.0,1.0,0.0,0.0,2.0
1.6951623573618755e+18,-3.0,-3.0,-14.0,-5.0,-3.0,-3.0,-1.0,-1.0
1.6951623573618755e+18,-1.0,-4.0,-13.0,-4.0,-1.0,-1.0,1.0,0.0
1.6951623573618755e+18,0.0,3.0,6.0,2.0,0.0,2.0,0.0,0.0
1.6951623573898583e+18,0.0,-4.0,-8.0,-4.0,-2.0,-2.0,-2.0,0.0
1.6951623573898583e+18,-1.0,3.0,-13.0,-4.0,-3.0,-2.0,-1.0,-3.0
1.6951623573908585e+18,-3.0,-10.0,5.0,-1.0,-2.0,-3.0,1.0,-2.0
1.6951623573918582e+18,-2.0,2.0,-1.0,-1.0,-1.0,-3.0,-2.0,0.0
1.6951623574078495e+18,-1.0,0.0,3.0,1.0,1.0,-1.0,0.0,0.0
1.6951623574078495e+18,-2.0,-4.0,-6.0,-2.0,-1.0,-1.0,-2.0,-1.0
1.6951623574078495e+18,1.0,2.0,-5.0,0.0,1.0,1.0,0.0,-1.0
1.6951623574078495e+18,1.0,3.0,11.0,0.0,0.0,-2.0,0.0,0.0
1.6951623574348603e+18,-1.0,-1.0,-7.0,1.0,0.0,-2.0,0.0,1.0
1.6951623574348603e+18,-3.0,0.0,-1.0,-1.0,0.0,-2.0,0.0,-2.0
1.695162357436834e+18,0.0,-2.0,5.0,-1.0,-2.0,-1.0,0.0,0.0
1.695162357436834e+18,2.0,-2.0,-8.0,-1.0,0.0,1.0,0.0,-1.0
1.695162357451824e+18,-1.0,2.0,6.0,1.0,0.0,-2.0,1.0,0.0
1.695162357451824e+18,2.0,5.0,13.0,1.0,-1.0,1.0,-3.0,0.0
1.695162357451824e+18,-3.0,-5.0,-9.0,-2.0,-1.0,-1.0,-1.0,-1.0
1.695162357451824e+18,0.0,0.0,0.0,-1.0,1.0,-2.0,-1.0,0.0
1.6951623574648394e+18,0.0,-4.0,-5.0,-3.0,-1.0,0.0,0.0,0.0
1.6951623574648394e+18,0.0,2.0,9.0,-2.0,-1.0,1.0,-1.0,1.0
1.6951623574668173e+18,-1.0,3.0,10.0,0.0,-2.0,0.0,-1.0,-1.0
1.6951623574668173e+18,-2.0,-1.0,-14.0,-3.0,-2.0,0.0,-1.0,-2.0
1.6951623574878031e+18,-2.0,-4.0,-7.0,-2.0,-2.0,-2.0,-1.0,-1.0
1.6951623574878031e+18,-1.0,2.0,-3.0,-1.0,0.0,0.0,0.0,0.0
1.6951623574888054e+18,-2.0,1.0,17.0,-1.0,0.0,0.0,-3.0,0.0
1.6951623574888054e+18,-2.0,-6.0,-8.0,1.0,0.0,0.0,-1.0,0.0
1.695162357502794e+18,0.0,1.0,-2.0,-1.0,-1.0,-1.0,1.0,-2.0
1.695162357502794e+18,-1.0,-4.0,-9.0,-2.0,0.0,-1.0,-1.0,-1.0
1.695162357503794e+18,1.0,0.0,-8.0,-1.0,-1.0,-1.0,-1.0,-2.0
1.695162357503794e+18,-1.0,0.0,4.0,-3.0,-1.0,-2.0,-2.0,0.0
1.695162357515786e+18,0.0,-1.0,-2.0,0.0,0.0,-1.0,-2.0,0.0
1.695162357515786e+18,0.0,-3.0,-4.0,-2.0,-1.0,-2.0,1.0,-1.0
1.695162357524783e+18,1.0,-1.0,-2.0,1.0,-1.0,0.0,-1.0,-1.0
1.695162357524783e+18,1.0,5.0,12.0,1.0,0.0,-1.0,1.0,0.0
1.6951623575397757e+18,0.0,-5.0,-12.0,-1.0,-2.0,0.0,-2.0,-2.0
1.6951623575397757e+18,-1.0,-2.0,4.0,-1.0,-1.0,0.0,-3.0,0.0
1.6951623575417743e+18,-1.0,2.0,-11.0,-3.0,-1.0,0.0,-2.0,1.0
1.6951623575417743e+18,-1.0,-5.0,-2.0,1.0,-2.0,-1.0,0.0,1.0
1.6951623575637622e+18,0.0,5.0,4.0,0.0,-1.0,0.0,0.0,-1.0
1.6951623575647619e+18,0.0,0.0,5.0,2.0,0.0,0.0,0.0,-1.0
1.6951623575697577e+18,0.0,-1.0,-7.0,-2.0,1.0,-1.0,0.0,-1.0
1.6951623575707558e+18,-1.0,-1.0,-5.0,-1.0,-1.0,0.0,0.0,0.0
1.695162357576752e+18,-1.0,-2.0,4.0,0.0,0.0,0.0,0.0,0.0
1.695162357576752e+18,0.0,-1.0,7.0,1.0,0.0,0.0,0.0,-1.0
1.695162357590767e+18,-1.0,-3.0,-20.0,0.0,-1.0,0.0,-1.0,-1.0
1.6951623575917463e+18,0.0,-2.0,0.0,-1.0,0.0,-1.0,-2.0,-2.0
1.6951623576017385e+18,-1.0,-3.0,0.0,0.0,-2.0,-1.0,-2.0,0.0
1.6951623576037396e+18,0.0,-3.0,-7.0,-1.0,0.0,0.0,0.0,-2.0
1.6951623576067382e+18,0.0,3.0,13.0,-1.0,1.0,-3.0,-1.0,-2.0
1.6951623576067382e+18,-1.0,-3.0,-2.0,-1.0,-2.0,-2.0,1.0,-2.0
1.6951623576297452e+18,0.0,-1.0,-3.0,0.0,-1.0,0.0,0.0,-1.0
1.6951623576297452e+18,-1.0,-1.0,-1.0,-1.0,-1.0,0.0,-2.0,-1.0
1.695162357631724e+18,-1.0,0.0,2.0,-2.0,-1.0,1.0,-2.0,0.0
1.695162357631724e+18,-1.0,-1.0,0.0,0.0,-2.0,-2.0,-1.0,-2.0
1.695162357644713e+18,-1.0,1.0,9.0,0.0,-2.0,-1.0,0.0,-1.0
1.695162357644713e+18,-2.0,-2.0,-17.0,-2.0,-1.0,-2.0,0.0,-1.0
1.6951623576467118e+18,-1.0,-1.0,5.0,1.0,1.0,-1.0,2.0,0.0
1.6951623576467118e+18,-1.0,0.0,-3.0,-3.0,1.0,-1.0,-1.0,0.0
1.695162357667705e+18,0.0,0.0,-12.0,-1.0,0.0,-3.0,0.0,1.0
1.695162357667705e+18,0.0,1.0,16.0,1.0,-3.0,-1.0,-2.0,-1.0
1.695162357668708e+18,0.0,-2.0,0.0,1.0,-2.0,0.0,0.0,0.0
1.695162357668708e+18,-1.0,0.0,0.0,0.0,0.0,1.0,-1.0,0.0
1.695162357691688e+18,-1.0,-1.0,-2.0,-1.0,1.0,-1.0,1.0,-1.0
1.695162357691688e+18,-2.0,-3.0,-7.0,-2.0,-1.0,-3.0,-2.0,-1.0
1.695162357691688e+18,0.0,0.0,4.0,-1.0,-1.0,-1.0,0.0,-1.0
1.6951623576926886e+18,-2.0,0.0,-1.0,0.0,0.0,-2.0,0.0,-1.0
1.695162357704678e+18,-1.0,0.0,1.0,0.0,-2.0,-1.0,-2.0,-2.0
1.695162357704678e+18,0.0,-2.0,-7.0,-3.0,-2.0,-2.0,0.0,0.0
1.6951623577066775e+18,0.0,-1.0,1.0,-1.0,-2.0,1.0,0.0,-1.0
1.6951623577066775e+18,-1.0,-2.0,-3.0,-2.0,0.0,-1.0,-1.0,-2.0
1.695162357728671e+18,-2.0,0.0,-1.0,-1.0,-1.0,-1.0,0.0,-1.0
1.695162357728671e+18,0.0,0.0,-2.0,-1.0,0.0,-1.0,0.0,0.0
1.6951623577296648e+18,-1.0,-1.0,1.0,0.0,-2.0,-2.0,-3.0,1.0
1.6951623577296648e+18,0.0,0.0,-2.0,-1.0,-1.0,-1.0,0.0,-1.0
1.695162357742659e+18,-1.0,-3.0,3.0,0.0,0.0,0.0,0.0,-1.0
1.695162357742659e+18,0.0,0.0,-8.0,-3.0,-3.0,0.0,2.0,-2.0
1.6951623577446577e+18,-1.0,-2.0,2.0,0.0,0.0,0.0,-1.0,0.0
1.6951623577446577e+18,-1.0,1.0,-1.0,0.0,-1.0,0.0,-1.0,-1.0
1.69516235775665e+18,-1.0,-1.0,-4.0,-1.0,-1.0,0.0,-3.0,-1.0
1.69516235775665e+18,-1.0,-1.0,-1.0,0.0,-1.0,-1.0,-1.0,-2.0
1.6951623577646474e+18,-1.0,-2.0,-1.0,-1.0,1.0,0.0,0.0,1.0
1.6951623577656453e+18,0.0,-3.0,-1.0,-2.0,-1.0,0.0,0.0,0.0
1.695162357780638e+18,0.0,2.0,8.0,0.0,1.0,1.0,0.0,-1.0
1.695162357780638e+18,-2.0,-2.0,-13.0,-3.0,0.0,-1.0,-1.0,-2.0
1.6951623577816348e+18,-2.0,-1.0,5.0,-2.0,-1.0,-2.0,0.0,-1.0
1.6951623577816348e+18,0.0,-1.0,-1.0,2.0,0.0,-2.0,1.0,-1.0
1.6951623578176161e+18,-2.0,0.0,-1.0,-2.0,-1.0,-1.0,-2.0,-1.0
1.6951623578186158e+18,-1.0,-2.0,2.0,0.0,1.0,0.0,-1.0,-1.0
1.6951623578196145e+18,1.0,0.0,-3.0,0.0,1.0,-1.0,1.0,-2.0
1.6951623578196145e+18,-1.0,-2.0,-1.0,-1.0,-2.0,0.0,-1.0,-1.0
1.6951623578206136e+18,0.0,-1.0,-1.0,-2.0,0.0,1.0,-1.0,-2.0
1.6951623578206136e+18,-2.0,0.0,1.0,-1.0,1.0,0.0,-1.0,-1.0
1.6951623578246103e+18,-2.0,1.0,0.0,-2.0,-2.0,2.0,-2.0,-1.0
1.6951623578246103e+18,-1.0,0.0,3.0,-2.0,0.0,-1.0,-2.0,-1.0
1.6951623578546176e+18,1.0,0.0,-3.0,-1.0,-2.0,-3.0,0.0,-1.0
1.6951623578546176e+18,0.0,0.0,0.0,0.0,-1.0,-3.0,-1.0,1.0
1.6951623578565942e+18,1.0,-2.0,-1.0,-1.0,-1.0,0.0,-1.0,-2.0
1.6951623578565942e+18,0.0,-1.0,-3.0,-2.0,0.0,0.0,-1.0,0.0
1.695162357868609e+18,-1.0,-3.0,-1.0,-3.0,1.0,0.0,-1.0,0.0
1.6951623578695841e+18,0.0,-1.0,1.0,1.0,0.0,1.0,0.0,-1.0
1.6951623578775798e+18,-1.0,0.0,1.0,-1.0,-1.0,-3.0,-1.0,0.0
1.695162357878579e+18,-1.0,0.0,-2.0,-2.0,-1.0,-1.0,-1.0,-1.0
1.6951623578925711e+18,-2.0,-1.0,-2.0,-1.0,-1.0,-2.0,-2.0,-2.0
1.6951623578935777e+18,0.0,0.0,0.0,1.0,-1.0,0.0,-1.0,-1.0
1.69516235789457e+18,-1.0,0.0,-3.0,0.0,-1.0,-2.0,0.0,-1.0
1.69516235789457e+18,-1.0,-1.0,-2.0,-1.0,-2.0,0.0,-2.0,0.0
1.6951623578995686e+18,0.0,-1.0,0.0,1.0,-1.0,0.0,-1.0,0.0
1.6951623579005688e+18,-1.0,0.0,0.0,1.0,-1.0,-1.0,1.0,0.0
1.695162357901569e+18,-1.0,1.0,0.0,0.0,-1.0,-2.0,0.0,0.0
1.695162357901569e+18,-2.0,-1.0,-1.0,0.0,0.0,-1.0,2.0,0.0
1.6951623579305495e+18,0.0,0.0,0.0,0.0,-1.0,0.0,-2.0,-1.0
1.6951623579305495e+18,-2.0,0.0,1.0,0.0,0.0,-1.0,-1.0,2.0
1.6951623579315548e+18,1.0,-1.0,0.0,0.0,-1.0,0.0,1.0,0.0
1.6951623579315548e+18,0.0,0.0,1.0,-1.0,-1.0,-1.0,-1.0,-1.0
1.6951623579355482e+18,1.0,-1.0,-2.0,-2.0,0.0,-2.0,-1.0,-2.0
1.6951623579365476e+18,-2.0,-1.0,0.0,-2.0,-1.0,-1.0,0.0,1.0
1.695162357945541e+18,-1.0,-2.0,-2.0,-1.0,-2.0,-1.0,-1.0,-2.0
1.6951623579465405e+18,1.0,0.0,1.0,-1.0,-1.0,-1.0,-1.0,-1.0
1.69516235796953e+18,-1.0,-3.0,0.0,-1.0,-2.0,-1.0,-1.0,-1.0
1.6951623579725266e+18,0.0,-2.0,-1.0,-1.0,-2.0,0.0,-1.0,-1.0
1.6951623579725266e+18,-2.0,-3.0,-1.0,-1.0,0.0,-1.0,-1.0,-1.0
1.6951623579735296e+18,-1.0,-1.0,-3.0,-1.0,-2.0,-2.0,0.0,0.0
1.6951623579895176e+18,-1.0,-3.0,0.0,0.0,-2.0,0.0,-1.0,0.0
1.6951623579905152e+18,0.0,0.0,0.0,-1.0,0.0,0.0,0.0,0.0
1.6951623579915187e+18,-1.0,1.0,1.0,0.0,-1.0,0.0,-1.0,0.0
1.6951623579915187e+18,0.0,0.0,-2.0,0.0,-1.0,-1.0,-1.0,-1.0
1.695162358004511e+18,-2.0,1.0,-1.0,1.0,0.0,-2.0,0.0,0.0
1.6951623580055066e+18,0.0,-2.0,0.0,-1.0,0.0,-2.0,-1.0,-1.0
1.6951623580065298e+18,-1.0,-2.0,-1.0,-1.0,-1.0,0.0,-2.0,-1.0
1.6951623580065298e+18,-2.0,-1.0,1.0,-1.0,-1.0,-1.0,-1.0,-1.0
1.6951623580194998e+18,-1.0,0.0,-2.0,-2.0,-3.0,-2.0,-1.0,0.0
1.6951623580194998e+18,-1.0,-1.0,-1.0,-2.0,-2.0,0.0,-2.0,0.0
1.6951623580434852e+18,-1.0,0.0,0.0,-2.0,1.0,-1.0,1.0,-1.0
1.6951623580434852e+18,0.0,-2.0,0.0,0.0,1.0,-1.0,-2.0,-1.0
1.6951623580444846e+18,-2.0,-2.0,-2.0,-1.0,1.0,0.0,0.0,0.0
1.6951623580444846e+18,-2.0,-1.0,-2.0,-1.0,-1.0,-1.0,-1.0,0.0
1.6951623580454868e+18,1.0,-2.0,-2.0,-1.0,0.0,0.0,1.0,-1.0
1.6951623580454868e+18,-1.0,-2.0,-1.0,1.0,-2.0,-1.0,0.0,1.0
1.695162358056478e+18,-1.0,-1.0,-1.0,-1.0,0.0,0.0,-1.0,-1.0
1.695162358056478e+18,0.0,-2.0,0.0,-1.0,-2.0,-1.0,-1.0,0.0
1.695162358065472e+18,-1.0,-1.0,0.0,-1.0,-1.0,0.0,-1.0,-3.0
1.695162358065472e+18,0.0,0.0,-2.0,-2.0,-1.0,0.0,0.0,-1.0
1.6951623580947254e+18,0.0,1.0,-1.0,1.0,-2.0,0.0,-1.0,-1.0
1.6951623580947254e+18,0.0,1.0,-1.0,-1.0,-1.0,-1.0,1.0,-1.0
1.6951623580967237e+18,-1.0,-1.0,-1.0,-2.0,0.0,-1.0,-1.0,1.0
1.6951623580967237e+18,-2.0,-1.0,0.0,-2.0,0.0,0.0,0.0,0.0
1.695162358102721e+18,-1.0,-2.0,0.0,0.0,-1.0,0.0,-1.0,-2.0
1.695162358102721e+18,0.0,-2.0,0.0,0.0,0.0,-2.0,-1.0,0.0
1.6951623581037194e+18,-1.0,-2.0,-1.0,0.0,-1.0,-2.0,-1.0,-1.0
1.6951623581047188e+18,0.0,-1.0,-2.0,-1.0,0.0,-1.0,-1.0,-1.0
1.69516235812372e+18,0.0,-1.0,1.0,-2.0,-1.0,-1.0,0.0,1.0
1.69516235812372e+18,-1.0,-1.0,-1.0,0.0,-1.0,-2.0,-1.0,-2.0
1.6951623581257075e+18,1.0,0.0,-3.0,-1.0,-2.0,-1.0,-1.0,-2.0
1.6951623581257075e+18,-1.0,0.0,-2.0,-2.0,-3.0,0.0,1.0,1.0
1.6951623581646858e+18,-1.0,-1.0,1.0,0.0,-1.0,0.0,-1.0,-1.0
1.6951623581656845e+18,0.0,0.0,-1.0,-1.0,0.0,-1.0,-2.0,-1.0
1.6951623581656845e+18,-2.0,-1.0,1.0,-2.0,-1.0,1.0,-1.0,1.0
1.6951623581656845e+18,-1.0,-1.0,1.0,-2.0,-1.0,0.0,0.0,-3.0
1.6951623581656845e+18,-1.0,0.0,0.0,1.0,-1.0,-1.0,0.0,0.0
1.6951623581656845e+18,0.0,0.0,0.0,-1.0,0.0,-1.0,-1.0,-2.0
1.6951623581666834e+18,-2.0,-1.0,-1.0,-1.0,0.0,0.0,-1.0,-1.0
1.6951623581676877e+18,1.0,-1.0,1.0,1.0,1.0,-1.0,-2.0,1.0
1.695162358186675e+18,-1.0,-1.0,-3.0,-2.0,0.0,-1.0,0.0,0.0
1.695162358186675e+18,1.0,0.0,-1.0,-2.0,0.0,-2.0,0.0,-3.0
1.6951623581876728e+18,0.0,-1.0,-1.0,0.0,-4.0,-1.0,-1.0,0.0
1.6951623581876728e+18,-1.0,1.0,0.0,0.0,-1.0,-1.0,-1.0,-1.0
1.6951623581996644e+18,0.0,1.0,-2.0,-1.0,-2.0,0.0,0.0,-2.0
1.6951623581996644e+18,-2.0,-2.0,-1.0,1.0,1.0,0.0,-1.0,0.0
1.695162358206664e+18,-2.0,0.0,-2.0,-1.0,-1.0,-1.0,0.0,-2.0
1.695162358206664e+18,-1.0,-2.0,-2.0,-1.0,-2.0,-1.0,-1.0,0.0
1.6951623582226511e+18,0.0,-1.0,0.0,-1.0,0.0,-2.0,0.0,0.0
1.6951623582226511e+18,-2.0,-1.0,1.0,0.0,-2.0,-1.0,0.0,1.0
1.6951623582236518e+18,-1.0,2.0,-1.0,0.0,0.0,0.0,0.0,0.0
1.69516235822465e+18,-1.0,-1.0,-1.0,0.0,0.0,-1.0,-1.0,0.0
1.6951623582446387e+18,-2.0,-1.0,1.0,-1.0,0.0,0.0,-2.0,0.0
1.6951623582456392e+18,0.0,-3.0,-2.0,-1.0,-2.0,1.0,-2.0,0.0
1.6951623582466383e+18,-1.0,2.0,-1.0,1.0,0.0,0.0,-2.0,-1.0
1.6951623582466383e+18,0.0,-1.0,-1.0,-2.0,1.0,0.0,0.0,-1.0
1.6951623582606305e+18,-1.0,1.0,-2.0,0.0,0.0,-2.0,0.0,-2.0
1.6951623582636288e+18,-1.0,1.0,1.0,-2.0,0.0,-1.0,0.0,-2.0
1.69516235828264e+18,-1.0,-2.0,0.0,-1.0,0.0,0.0,0.0,0.0
1.6951623582836157e+18,0.0,-2.0,-1.0,-1.0,-2.0,-1.0,0.0,-1.0
1.6951623582836157e+18,-1.0,-1.0,0.0,-1.0,-1.0,-1.0,-2.0,-1.0
1.6951623582836157e+18,0.0,-2.0,0.0,0.0,1.0,-1.0,-2.0,0.0
1.6951623582856148e+18,-2.0,-2.0,-1.0,-1.0,-1.0,0.0,-2.0,0.0
1.6951623582856148e+18,-1.0,-1.0,-1.0,0.0,1.0,0.0,0.0,-2.0
1.6951623583116004e+18,1.0,0.0,-1.0,-1.0,-1.0,0.0,0.0,-1.0
1.6951623583116004e+18,1.0,-1.0,-1.0,0.0,-1.0,0.0,-1.0,0.0
1.6951623583215951e+18,0.0,0.0,-1.0,0.0,0.0,-1.0,-1.0,0.0
1.6951623583215951e+18,-1.0,-1.0,-2.0,-1.0,-2.0,-1.0,-2.0,-1.0
1.6951623583225943e+18,0.0,-1.0,0.0,-3.0,-1.0,0.0,-1.0,0.0
1.6951623583225943e+18,-2.0,-1.0,-1.0,-2.0,0.0,0.0,0.0,-1.0
1.6951623583265938e+18,0.0,-2.0,0.0,-1.0,0.0,-2.0,0.0,-2.0
1.6951623583265938e+18,-1.0,0.0,1.0,-1.0,0.0,-1.0,-1.0,-1.0
1.6951623583575834e+18,-2.0,-2.0,-1.0,0.0,0.0,-1.0,-1.0,-2.0
1.6951623583575834e+18,-1.0,1.0,-1.0,-2.0,-3.0,-2.0,0.0,0.0
1.6951623583585759e+18,0.0,0.0,-2.0,-1.0,-1.0,-2.0,1.0,0.0
1.695162358359573e+18,-1.0,0.0,-1.0,0.0,0.0,-2.0,-1.0,0.0
1.69516235836557e+18,0.0,-2.0,0.0,-1.0,-2.0,0.0,-1.0,0.0
1.69516235836557e+18,1.0,-1.0,-3.0,-1.0,-1.0,1.0,0.0,-3.0
1.6951623583715684e+18,-2.0,-2.0,-1.0,1.0,-2.0,1.0,-1.0,-1.0
1.6951623583715684e+18,-1.0,-1.0,-1.0,0.0,-2.0,-3.0,-1.0,-2.0
1.6951623583875569e+18,-1.0,0.0,-1.0,-1.0,1.0,0.0,-1.0,0.0
1.6951623583875569e+18,-1.0,0.0,2.0,0.0,0.0,-1.0,0.0,-1.0
1.6951623583985746e+18,0.0,1.0,0.0,-1.0,-2.0,-2.0,-1.0,-1.0
1.6951623583985746e+18,0.0,0.0,0.0,-1.0,-1.0,0.0,-2.0,0.0
1.6951623584035474e+18,0.0,0.0,-1.0,1.0,1.0,-2.0,-1.0,-2.0
1.6951623584035474e+18,1.0,-1.0,0.0,-1.0,-1.0,-1.0,-2.0,-3.0
1.6951623584055478e+18,0.0,-1.0,-1.0,-3.0,-1.0,0.0,0.0,-1.0
1.6951623584055478e+18,-2.0,-2.0,0.0,0.0,-1.0,1.0,0.0,0.0
1.6951623584245348e+18,0.0,-1.0,-1.0,-1.0,-1.0,-1.0,1.0,0.0
1.695162358425535e+18,0.0,-1.0,-1.0,2.0,1.0,0.0,-3.0,-1.0
1.695162358426538e+18,0.0,-1.0,-1.0,-2.0,0.0,-1.0,-2.0,-1.0
1.695162358426538e+18,-1.0,-1.0,-2.0,-1.0,-1.0,0.0,-2.0,0.0
1.6951623584385513e+18,-2.0,-2.0,0.0,-1.0,-2.0,0.0,-1.0,0.0
1.6951623584395284e+18,-2.0,-2.0,0.0,-2.0,-2.0,0.0,1.0,1.0
1.695162358447546e+18,1.0,-1.0,0.0,0.0,-1.0,-1.0,0.0,1.0
1.695162358447546e+18,-1.0,-1.0,-1.0,-1.0,-1.0,0.0,-1.0,-1.0
1.6951623584625157e+18,-1.0,1.0,-1.0,-1.0,1.0,1.0,1.0,0.0
1.6951623584625157e+18,0.0,-2.0,0.0,-1.0,-2.0,-1.0,-3.0,-1.0
1.6951623584645125e+18,-1.0,-1.0,0.0,-2.0,-1.0,-1.0,-2.0,-1.0
1.6951623584645125e+18,-1.0,-2.0,0.0,-2.0,-2.0,0.0,0.0,0.0
1.6951623584845012e+18,0.0,0.0,0.0,1.0,-2.0,-1.0,-1.0,-1.0
1.6951623584855017e+18,0.0,-1.0,-3.0,0.0,0.0,-1.0,-2.0,-1.0
1.6951623584865004e+18,0.0,-1.0,-1.0,-3.0,-1.0,-1.0,0.0,-1.0
1.6951623584865004e+18,0.0,0.0,0.0,0.0,-2.0,0.0,1.0,-1.0
1.6951623584985165e+18,0.0,-1.0,0.0,0.0,-1.0,-2.0,-1.0,-2.0
1.6951623584985165e+18,-1.0,-1.0,0.0,-1.0,-2.0,0.0,-1.0,-3.0
1.6951623585154842e+18,-1.0,0.0,-1.0,0.0,0.0,-3.0,-3.0,-3.0
1.6951623585154842e+18,0.0,-1.0,-1.0,-4.0,-1.0,-4.0,1.0,-3.0
1.6951623585234788e+18,-1.0,-2.0,-1.0,-1.0,-2.0,-1.0,-3.0,-3.0
1.6951623585234788e+18,-2.0,-2.0,-2.0,-1.0,1.0,-3.0,2.0,0.0
1.6951623585244805e+18,-2.0,-2.0,-2.0,-1.0,-2.0,-1.0,-1.0,-2.0
1.6951623585244805e+18,-2.0,-1.0,-1.0,-1.0,-1.0,-1.0,-1.0,-2.0
1.695162358552464e+18,-3.0,-2.0,-2.0,-1.0,-1.0,-1.0,0.0,-2.0
1.695162358552464e+18,0.0,-2.0,-1.0,-1.0,-2.0,-1.0,-2.0,-1.0
1.6951623585534612e+18,-4.0,-3.0,-2.0,-1.0,-2.0,-1.0,0.0,-1.0
1.6951623585544612e+18,-1.0,-3.0,-3.0,1.0,0.0,-1.0,-1.0,-1.0
1.695162358563461e+18,0.0,-1.0,-1.0,-2.0,-2.0,0.0,-3.0,0.0
1.695162358563461e+18,-2.0,-2.0,-1.0,0.0,-1.0,-1.0,-1.0,-1.0
1.695162358574473e+18,0.0,0.0,-1.0,-1.0,-1.0,0.0,-2.0,-2.0
1.6951623585754496e+18,0.0,0.0,-1.0,-2.0,-1.0,0.0,-3.0,-1.0
1.6951623585974377e+18,0.0,-2.0,-3.0,-1.0,1.0,1.0,1.0,-1.0
1.6951623585974377e+18,-3.0,-1.0,-2.0,0.0,1.0,-2.0,1.0,0.0
1.6951623585994358e+18,0.0,-2.0,0.0,0.0,0.0,0.0,0.0,0.0
1.6951623586004355e+18,0.0,0.0,-1.0,-1.0,2.0,-1.0,0.0,-2.0
1.69516235860843e+18,-1.0,1.0,-3.0,0.0,0.0,-3.0,1.0,-1.0
1.6951623586114294e+18,-2.0,-1.0,0.0,-1.0,-5.0,-2.0,-1.0,-2.0
1.6951623586114294e+18,-1.0,4.0,-3.0,-1.0,-3.0,0.0,-1.0,0.0
1.6951623586114294e+18,0.0,-1.0,7.0,2.0,-2.0,-1.0,1.0,-2.0
1.695162358619425e+18,-2.0,-3.0,1.0,2.0,2.0,0.0,-1.0,-1.0
1.695162358619425e+18,-2.0,-5.0,14.0,-3.0,2.0,0.0,0.0,-1.0
1.6951623586274194e+18,-2.0,-9.0,-58.0,-5.0,-2.0,-2.0,0.0,0.0
1.6951623586274194e+18,0.0,11.0,44.0,5.0,-2.0,0.0,-1.0,-1.0
1.6951623586554048e+18,-1.0,-3.0,-11.0,-3.0,-8.0,-1.0,0.0,-2.0
1.6951623586564035e+18,2.0,-2.0,-8.0,-3.0,-9.0,-6.0,-3.0,-1.0
1.6951623586564035e+18,-2.0,-9.0,17.0,11.0,28.0,8.0,1.0,-1.0
1.695162358657404e+18,-1.0,-2.0,-8.0,-1.0,-10.0,-4.0,-2.0,-1.0
1.695162358664398e+18,-3.0,1.0,15.0,-8.0,-9.0,-6.0,-2.0,-3.0
1.6951623586653975e+18,-2.0,0.0,-29.0,-1.0,23.0,10.0,0.0,0.0
1.6951623586663967e+18,1.0,1.0,10.0,-2.0,-13.0,-7.0,-3.0,6.0
1.6951623586673981e+18,0.0,-5.0,-17.0,-1.0,0.0,1.0,3.0,-7.0
1.6951623586793902e+18,-4.0,-1.0,14.0,1.0,5.0,-2.0,-8.0,-6.0
1.6951623586803917e+18,-2.0,0.0,-13.0,-7.0,-16.0,-8.0,-5.0,-5.0
1.6951623586873848e+18,-1.0,-1.0,25.0,-3.0,-1.0,1.0,-2.0,-1.0
1.6951623586873848e+18,-3.0,-10.0,-48.0,-7.0,-1.0,-2.0,-1.0,8.0
1.6951623587033772e+18,-2.0,5.0,15.0,-2.0,-3.0,1.0,13.0,11.0
1.6951623587033772e+18,-5.0,10.0,-4.0,6.0,2.0,0.0,1.0,-31.0
1.6951623587043994e+18,-2.0,-7.0,21.0,-3.0,-2.0,-5.0,-8.0,16.0
1.6951623587043994e+18,1.0,8.0,10.0,3.0,3.0,-7.0,-32.0,-4.0
1.6951623587253637e+18,1.0,-17.0,-19.0,-4.0,-1.0,0.0,5.0,11.0
1.695162358726367e+18,3.0,-3.0,1.0,4.0,1.0,1.0,0.0,25.0
1.6951623587273638e+18,-3.0,5.0,1.0,-2.0,-8.0,-3.0,-4.0,-33.0
1.6951623587273638e+18,-1.0,3.0,8.0,-4.0,-5.0,2.0,16.0,-1.0
1.6951623587433533e+18,4.0,7.0,-12.0,-1.0,5.0,2.0,12.0,32.0
1.69516235874438e+18,-5.0,-2.0,12.0,2.0,-3.0,3.0,-9.0,-36.0
1.6951623587653407e+18,2.0,1.0,-2.0,-3.0,-5.0,-3.0,3.0,-8.0
1.6951623587653407e+18,-1.0,-5.0,-13.0,-4.0,1.0,-1.0,-3.0,-9.0
1.6951623587653407e+18,1.0,3.0,-6.0,7.0,4.0,0.0,2.0,15.0
1.6951623587653407e+18,1.0,-6.0,9.0,-1.0,-2.0,0.0,9.0,5.0
1.695162358768339e+18,-1.0,5.0,-1.0,-4.0,-2.0,0.0,-1.0,4.0
1.695162358769339e+18,-1.0,-1.0,2.0,1.0,1.0,2.0,5.0,4.0
1.6951623587923484e+18,1.0,2.0,0.0,-1.0,-5.0,0.0,-1.0,-18.0
1.6951623587923484e+18,2.0,-4.0,-1.0,6.0,5.0,2.0,24.0,37.0
1.6951623587943242e+18,-6.0,-3.0,13.0,5.0,2.0,4.0,-8.0,-45.0
1.6951623587943242e+18,-1.0,-9.0,-21.0,-2.0,-1.0,-7.0,-15.0,14.0
1.695162358798321e+18,2.0,-2.0,12.0,-1.0,-6.0,-9.0,-25.0,3.0
1.695162358798321e+18,6.0,18.0,1.0,-5.0,-2.0,-3.0,-1.0,35.0
1.6951623588153116e+18,5.0,10.0,-24.0,5.0,3.0,6.0,25.0,-1.0
1.6951623588153116e+18,-3.0,-12.0,42.0,-2.0,-10.0,0.0,4.0,-54.0
1.695162358829304e+18,-10.0,-18.0,-8.0,1.0,1.0,4.0,-11.0,-15.0
1.695162358830305e+18,-3.0,14.0,8.0,-8.0,-1.0,-5.0,-15.0,11.0
1.6951623588313047e+18,2.0,0.0,-7.0,-1.0,-5.0,-4.0,8.0,24.0
1.6951623588313047e+18,3.0,4.0,8.0,-2.0,0.0,2.0,9.0,2.0
1.6951623588522929e+18,-1.0,5.0,-6.0,2.0,7.0,4.0,-8.0,-22.0
1.6951623588522929e+18,1.0,-5.0,-4.0,0.0,-1.0,2.0,3.0,7.0
1.6951623588542894e+18,2.0,5.0,20.0,-2.0,-4.0,-2.0,2.0,-4.0
1.6951623588542894e+18,-5.0,-3.0,-11.0,8.0,3.0,-1.0,-7.0,1.0
1.6951623588752773e+18,3.0,8.0,-10.0,4.0,4.0,3.0,21.0,-8.0
1.6951623588752773e+18,-5.0,-15.0,0.0,0.0,-1.0,3.0,1.0,-3.0
1.6951623588772774e+18,-1.0,-12.0,-15.0,-1.0,-1.0,-3.0,-20.0,6.0
1.6951623588772774e+18,-1.0,6.0,3.0,-12.0,-7.0,-9.0,-8.0,27.0
1.6951623588822728e+18,-1.0,-8.0,7.0,0.0,-10.0,-2.0,-8.0,-27.0
1.6951623588822728e+18,2.0,6.0,-14.0,-5.0,4.0,1.0,9.0,-5.0
1.695162358884273e+18,-1.0,20.0,31.0,2.0,-1.0,7.0,3.0,-5.0
1.695162358885275e+18,-2.0,-21.0,-15.0,-1.0,5.0,-6.0,-14.0,10.0
1.6951623589052598e+18,-1.0,-2.0,-27.0,-3.0,0.0,0.0,6.0,10.0
1.6951623589052598e+18,-3.0,3.0,15.0,6.0,12.0,3.0,-2.0,-11.0
1.6951623589142554e+18,-3.0,-10.0,-10.0,-6.0,-7.0,-2.0,7.0,4.0
1.6951623589142554e+18,3.0,26.0,12.0,-19.0,-23.0,-6.0,2.0,4.0
1.6951623589272484e+18,-4.0,12.0,-22.0,10.0,10.0,-9.0,-9.0,-13.0
1.6951623589272484e+18,-4.0,-44.0,9.0,15.0,28.0,15.0,-3.0,8.0
1.6951623589292465e+18,-3.0,1.0,10.0,-4.0,-1.0,-3.0,-1.0,-6.0
1.6951623589292465e+18,0.0,-5.0,-10.0,-5.0,-2.0,1.0,-1.0,9.0
1.6951623589422397e+18,-3.0,-6.0,-26.0,-12.0,-15.0,-20.0,23.0,12.0
1.6951623589422397e+18,0.0,4.0,-9.0,3.0,-7.0,5.0,-35.0,-47.0
1.6951623589492452e+18,8.0,-1.0,2.0,6.0,17.0,9.0,3.0,35.0
1.6951623589552343e+18,-1.0,6.0,5.0,0.0,0.0,2.0,6.0,-2.0
1.6951623589652257e+18,-2.0,-14.0,38.0,-4.0,-6.0,-5.0,-5.0,-3.0
1.6951623589652257e+18,2.0,7.0,-1.0,-5.0,-12.0,-10.0,10.0,-14.0
1.6951623589662487e+18,-8.0,-13.0,-50.0,-8.0,-13.0,-3.0,-8.0,10.0
1.6951623589662487e+18,4.0,3.0,48.0,15.0,24.0,8.0,4.0,-5.0
1.695162358995209e+18,1.0,0.0,17.0,6.0,10.0,10.0,2.0,3.0
1.695162358995209e+18,1.0,17.0,7.0,-8.0,-15.0,-9.0,10.0,-4.0
1.6951623589962084e+18,-11.0,-23.0,-22.0,-10.0,-12.0,-9.0,-6.0,-18.0
1.6951623589962084e+18,4.0,16.0,-24.0,6.0,5.0,3.0,5.0,-20.0
1.6951623590022065e+18,13.0,13.0,21.0,3.0,1.0,0.0,-17.0,24.0
1.6951623590022065e+18,-1.0,-15.0,20.0,-9.0,-14.0,-12.0,-2.0,8.0
1.6951623590082253e+18,-2.0,0.0,-12.0,2.0,-5.0,-5.0,-5.0,1.0
1.695162359009201e+18,-4.0,3.0,-8.0,2.0,5.0,6.0,15.0,-9.0
1.6951623590311905e+18,0.0,0.0,-17.0,15.0,24.0,10.0,0.0,1.0
1.6951623590311905e+18,0.0,2.0,-22.0,-7.0,0.0,-2.0,0.0,13.0
1.6951623590401828e+18,-2.0,-4.0,23.0,9.0,2.0,-4.0,-4.0,-2.0
1.6951623590411845e+18,-3.0,-9.0,-20.0,-6.0,-6.0,-3.0,1.0,2.0
1.6951623590411845e+18,-1.0,12.0,16.0,2.0,-4.0,1.0,-5.0,-8.0
1.695162359042183e+18,-5.0,-5.0,-7.0,-9.0,-7.0,-4.0,2.0,17.0
1.6951623590551747e+18,-3.0,10.0,-4.0,1.0,7.0,3.0,11.0,-15.0
1.6951623590551747e+18,2.0,-8.0,14.0,1.0,-1.0,-5.0,-18.0,28.0
1.6951623590741642e+18,9.0,4.0,4.0,-3.0,-7.0,-2.0,-7.0,-4.0
1.6951623590741642e+18,-13.0,-5.0,-13.0,-3.0,3.0,3.0,1.0,-8.0
1.6951623590761636e+18,2.0,-6.0,-2.0,3.0,0.0,0.0,1.0,-1.0
1.6951623590771663e+18,-4.0,-1.0,-8.0,0.0,-4.0,0.0,4.0,-13.0
1.6951623590841628e+18,-6.0,-6.0,-2.0,-5.0,-6.0,-3.0,-3.0,-5.0
1.6951623590841628e+18,3.0,-8.0,-10.0,1.0,-3.0,-2.0,-2.0,1.0
1.6951623590921536e+18,3.0,6.0,22.0,0.0,0.0,-2.0,-7.0,5.0
1.6951623590931533e+18,0.0,1.0,-20.0,-2.0,1.0,1.0,0.0,3.0
1.6951623591091436e+18,-4.0,-15.0,-21.0,5.0,3.0,4.0,8.0,0.0
1.6951623591111442e+18,-5.0,3.0,33.0,-6.0,-7.0,-7.0,-14.0,-15.0
1.6951623591111442e+18,1.0,-10.0,-36.0,0.0,2.0,-2.0,3.0,4.0
1.6951623591111442e+18,-6.0,-19.0,34.0,1.0,4.0,3.0,7.0,3.0
1.6951623591211604e+18,-3.0,10.0,0.0,-4.0,-5.0,-2.0,-1.0,-6.0
1.6951623591221376e+18,2.0,-4.0,14.0,0.0,1.0,3.0,5.0,0.0
1.6951623591301335e+18,5.0,0.0,4.0,-6.0,-2.0,0.0,7.0,21.0
1.6951623591301335e+18,-3.0,5.0,-22.0,5.0,-4.0,-6.0,-6.0,-17.0
1.695162359159115e+18,-2.0,3.0,5.0,1.0,-3.0,2.0,-3.0,22.0
1.695162359159115e+18,4.0,-5.0,-3.0,-2.0,4.0,-1.0,3.0,-4.0
1.695162359170109e+18,3.0,1.0,0.0,17.0,2.0,-3.0,-10.0,-6.0
1.695162359170109e+18,-4.0,-4.0,-24.0,-26.0,-8.0,-3.0,7.0,-11.0
1.695162359170109e+18,1.0,-2.0,4.0,-8.0,-3.0,-4.0,-2.0,-6.0
1.69516235917111e+18,8.0,21.0,-7.0,5.0,7.0,5.0,-2.0,-6.0
1.6951623591731077e+18,-7.0,-13.0,-4.0,-10.0,-8.0,-2.0,-3.0,9.0
1.695162359174109e+18,0.0,-1.0,10.0,8.0,-5.0,-4.0,3.0,-7.0
1.6951623591821033e+18,-5.0,-4.0,9.0,4.0,15.0,8.0,-1.0,-14.0
1.6951623591821033e+18,-5.0,-12.0,-45.0,-10.0,-15.0,-3.0,0.0,2.0
1.6951623592060874e+18,8.0,25.0,18.0,2.0,2.0,-1.0,1.0,3.0
1.6951623592060874e+18,-9.0,-15.0,-4.0,-2.0,-2.0,1.0,-6.0,-22.0
1.6951623592060874e+18,1.0,-1.0,0.0,-9.0,-7.0,-4.0,-8.0,8.0
1.6951623592070904e+18,-4.0,-6.0,-9.0,8.0,3.0,2.0,3.0,1.0
1.6951623592080888e+18,-7.0,14.0,-18.0,-4.0,1.0,4.0,0.0,-23.0
1.6951623592080888e+18,8.0,-14.0,9.0,10.0,1.0,-4.0,-5.0,25.0
1.6951623592270774e+18,-3.0,2.0,-9.0,-13.0,-9.0,-1.0,3.0,-10.0
1.6951623592280758e+18,-6.0,-4.0,14.0,10.0,3.0,-1.0,1.0,-11.0
1.6951623592430676e+18,13.0,2.0,-10.0,-8.0,-4.0,-6.0,-4.0,13.0
1.6951623592430676e+18,31.0,23.0,-12.0,0.0,3.0,1.0,6.0,29.0
1.6951623592430676e+18,-15.0,-19.0,21.0,-3.0,-2.0,-4.0,-2.0,-1.0
1.6951623592440668e+18,1.0,-10.0,0.0,4.0,-2.0,1.0,-5.0,6.0
1.6951623592820452e+18,-3.0,9.0,-33.0,-10.0,-5.0,-3.0,0.0,-9.0
1.6951623592820452e+18,2.0,-16.0,29.0,3.0,7.0,1.0,-1.0,4.0
1.6951623592820452e+18,-3.0,-28.0,6.0,15.0,2.0,3.0,10.0,22.0
1.6951623592820452e+18,-11.0,16.0,-25.0,0.0,-8.0,-6.0,-2.0,-23.0
1.6951623592830477e+18,-18.0,-22.0,18.0,-11.0,4.0,2.0,-3.0,-17.0
1.6951623592830477e+18,24.0,23.0,-40.0,-41.0,-25.0,-6.0,0.0,26.0
1.6951623592950405e+18,-2.0,-13.0,7.0,12.0,6.0,-1.0,3.0,-15.0
1.6951623592950405e+18,10.0,4.0,20.0,-7.0,-1.0,-7.0,-23.0,7.0
1.6951623592960374e+18,-8.0,-8.0,27.0,17.0,8.0,4.0,-9.0,9.0
1.69516235929704e+18,-33.0,6.0,-7.0,8.0,-14.0,-2.0,7.0,-7.0
1.6951623593170524e+18,-4.0,21.0,-3.0,-10.0,6.0,5.0,17.0,-36.0
1.6951623593170524e+18,0.0,1.0,17.0,-11.0,-5.0,-8.0,-17.0,12.0
1.6951623593190244e+18,7.0,4.0,7.0,12.0,5.0,13.0,34.0,-19.0
1.6951623593190244e+18,-4.0,6.0,68.0,-16.0,-26.0,-4.0,-1.0,1.0
1.6951623593330184e+18,-2.0,40.0,-46.0,3.0,6.0,2.0,-4.0,-8.0
1.6951623593330184e+18,6.0,-24.0,20.0,21.0,22.0,7.0,10.0,38.0
1.6951623593340388e+18,-5.0,-16.0,-9.0,-15.0,-8.0,-9.0,-19.0,-5.0
1.6951623593340388e+18,1.0,-7.0,35.0,4.0,5.0,0.0,11.0,12.0
1.6951623593550026e+18,5.0,-24.0,1.0,4.0,-4.0,-1.0,-25.0,-22.0
1.6951623593550026e+18,2.0,24.0,10.0,-15.0,-17.0,-3.0,9.0,-2.0
1.6951623593560036e+18,10.0,15.0,14.0,14.0,8.0,3.0,-5.0,26.0
1.6951623593570017e+18,-4.0,-13.0,48.0,27.0,17.0,6.0,4.0,-19.0
1.6951623593609997e+18,4.0,-8.0,-12.0,-8.0,-5.0,-1.0,9.0,25.0
1.6951623593609997e+18,5.0,2.0,-19.0,-4.0,1.0,-5.0,-16.0,-22.0
1.6951623593700183e+18,19.0,-5.0,-5.0,2.0,-7.0,-2.0,4.0,14.0
1.6951623593700183e+18,-19.0,9.0,-28.0,12.0,13.0,4.0,-9.0,-22.0
1.6951623593849859e+18,-11.0,-9.0,26.0,-28.0,-14.0,-7.0,1.0,-14.0
1.6951623593849859e+18,3.0,-2.0,-26.0,-9.0,-9.0,-6.0,-6.0,0.0
1.6951623593949832e+18,-11.0,-13.0,27.0,2.0,-4.0,-2.0,8.0,-2.0
1.6951623593959828e+18,-10.0,-11.0,-34.0,39.0,30.0,7.0,0.0,3.0
1.6951623594069724e+18,14.0,28.0,-8.0,-21.0,-14.0,-6.0,-4.0,7.0
1.6951623594079757e+18,3.0,17.0,-22.0,3.0,-2.0,-1.0,11.0,-12.0
1.6951623594089743e+18,2.0,2.0,51.0,-9.0,-7.0,-6.0,-16.0,27.0
1.6951623594099745e+18,4.0,-6.0,-35.0,10.0,10.0,2.0,4.0,-2.0
1.69516235942996e+18,1.0,0.0,30.0,-16.0,-3.0,-1.0,-3.0,15.0
1.6951623594329585e+18,-8.0,-14.0,-27.0,2.0,-8.0,-1.0,1.0,-13.0
1.6951623594359565e+18,-2.0,15.0,-58.0,-3.0,7.0,0.0,-7.0,-12.0
1.6951623594359565e+18,8.0,7.0,22.0,-5.0,-7.0,-2.0,-5.0,-3.0
1.6951623594449528e+18,-1.0,8.0,-59.0,6.0,-2.0,-3.0,-5.0,-10.0
1.6951623594449528e+18,14.0,4.0,36.0,-1.0,2.0,4.0,12.0,28.0
1.6951623594459502e+18,-17.0,-6.0,4.0,-16.0,-2.0,-1.0,3.0,-12.0
1.6951623594469522e+18,7.0,2.0,-7.0,7.0,2.0,-3.0,-15.0,4.0
1.6951623594989202e+18,8.0,6.0,-24.0,-2.0,0.0,1.0,1.0,13.0
1.6951623594989202e+18,-2.0,-12.0,5.0,12.0,2.0,3.0,8.0,22.0
1.69516235949992e+18,-9.0,9.0,-13.0,-13.0,-5.0,2.0,0.0,-25.0
1.6951623595009198e+18,1.0,-2.0,-41.0,-10.0,-1.0,-1.0,10.0,-9.0
1.6951623595009198e+18,7.0,0.0,26.0,13.0,-1.0,-7.0,-11.0,32.0
1.6951623595019195e+18,-23.0,2.0,5.0,-2.0,6.0,5.0,0.0,-31.0
1.6951623595139126e+18,22.0,0.0,-27.0,-2.0,-6.0,-6.0,-3.0,-5.0
1.6951623595139126e+18,-8.0,6.0,-7.0,-15.0,-11.0,-4.0,-1.0,-3.0
1.6951623595139126e+18,2.0,-10.0,-27.0,3.0,-8.0,1.0,0.0,-6.0
1.6951623595149125e+18,-5.0,-8.0,6.0,-3.0,5.0,2.0,8.0,-7.0
1.6951623595608858e+18,-9.0,-17.0,-28.0,5.0,1.0,-6.0,-9.0,-1.0
1.6951623595638853e+18,5.0,-4.0,-19.0,-10.0,-3.0,-5.0,-11.0,0.0
1.695162359564883e+18,-3.0,-2.0,6.0,16.0,3.0,3.0,0.0,-7.0
1.695162359564883e+18,-2.0,9.0,38.0,-8.0,-6.0,-5.0,-10.0,-2.0
1.695162359564883e+18,6.0,4.0,20.0,0.0,-1.0,0.0,7.0,1.0
1.695162359564883e+18,0.0,-9.0,9.0,0.0,-1.0,-1.0,-8.0,-19.0
1.6951623595738772e+18,-4.0,-5.0,0.0,-11.0,-3.0,-2.0,-1.0,2.0
1.6951623595738772e+18,-4.0,7.0,-13.0,1.0,-2.0,-2.0,0.0,-1.0
1.695162359575877e+18,-4.0,-6.0,16.0,2.0,0.0,1.0,6.0,-2.0
1.695162359575877e+18,2.0,-8.0,18.0,6.0,1.0,-2.0,-9.0,-9.0
1.695162359596864e+18,-1.0,5.0,-4.0,-4.0,1.0,1.0,4.0,4.0
1.695162359596864e+18,-5.0,-15.0,10.0,-1.0,-1.0,-1.0,-4.0,-2.0
1.695162359603871e+18,0.0,-4.0,-22.0,0.0,1.0,2.0,15.0,3.0
1.6951623596048594e+18,9.0,-1.0,4.0,-7.0,1.0,-8.0,-19.0,6.0
1.6951623596048594e+18,-8.0,-13.0,30.0,3.0,-6.0,-2.0,0.0,-4.0
1.6951623596048594e+18,-2.0,6.0,-2.0,-6.0,1.0,-2.0,-4.0,-2.0
1.6951623596178524e+18,-3.0,-4.0,-7.0,-2.0,0.0,0.0,-2.0,-4.0
1.6951623596188544e+18,-2.0,9.0,6.0,4.0,-1.0,1.0,8.0,-4.0
1.6951623596188544e+18,3.0,-11.0,-8.0,-1.0,1.0,3.0,5.0,-1.0
1.6951623596188544e+18,-3.0,-4.0,-16.0,-6.0,-2.0,-1.0,-9.0,-25.0
1.6951623596248714e+18,2.0,2.0,28.0,9.0,4.0,2.0,-1.0,8.0
1.6951623596248714e+18,-2.0,6.0,-15.0,-12.0,-7.0,-2.0,1.0,2.0
1.695162359626854e+18,-1.0,5.0,4.0,3.0,2.0,2.0,16.0,-19.0
1.695162359626854e+18,0.0,13.0,3.0,0.0,1.0,-3.0,-23.0,-10.0
1.6951623596478351e+18,-5.0,-7.0,8.0,4.0,1.0,-1.0,-6.0,-7.0
1.6951623596478351e+18,-7.0,-24.0,-4.0,5.0,-1.0,4.0,4.0,0.0
1.6951623596488348e+18,5.0,4.0,-35.0,-3.0,2.0,-1.0,-6.0,16.0
1.6951623596498355e+18,-4.0,-1.0,3.0,-7.0,-2.0,3.0,18.0,5.0
1.6951623596698458e+18,2.0,6.0,12.0,0.0,-4.0,-7.0,-16.0,-8.0
1.6951623596698458e+18,3.0,4.0,3.0,4.0,2.0,3.0,6.0,5.0
1.6951623596718213e+18,-6.0,-6.0,10.0,-6.0,-6.0,-1.0,-1.0,5.0
1.6951623596718213e+18,1.0,-7.0,-9.0,2.0,2.0,2.0,6.0,10.0
1.6951623596868132e+18,-2.0,3.0,1.0,-1.0,-1.0,-1.0,-5.0,-5.0
1.6951623596868132e+18,0.0,-5.0,-10.0,-1.0,-1.0,-1.0,6.0,-1.0
1.6951623596878134e+18,-1.0,5.0,1.0,3.0,0.0,-3.0,-5.0,-2.0
1.6951623596878134e+18,0.0,-1.0,-9.0,-3.0,-1.0,0.0,0.0,4.0
1.6951623597148206e+18,-3.0,1.0,14.0,-1.0,0.0,0.0,-1.0,-8.0
1.6951623597148206e+18,2.0,1.0,-13.0,-3.0,1.0,0.0,-1.0,4.0
1.695162359716796e+18,-2.0,-6.0,-2.0,2.0,1.0,-2.0,-4.0,-3.0
1.695162359716796e+18,0.0,4.0,11.0,1.0,-1.0,0.0,-1.0,3.0
1.6951623597207951e+18,-2.0,-6.0,-2.0,0.0,-2.0,-2.0,4.0,5.0
1.6951623597207951e+18,0.0,2.0,-4.0,0.0,-1.0,-1.0,-4.0,-5.0
1.6951623597377838e+18,-1.0,0.0,2.0,1.0,0.0,-1.0,-6.0,-1.0
1.6951623597377838e+18,6.0,5.0,13.0,-1.0,-2.0,-1.0,4.0,9.0
1.6951623597825654e+18,-5.0,-19.0,-10.0,-5.0,-3.0,-1.0,-1.0,-4.0
1.6951623597825654e+18,-3.0,-1.0,4.0,0.0,1.0,1.0,-2.0,-6.0
1.6951623597935688e+18,-3.0,-7.0,-52.0,-2.0,-1.0,-1.0,-2.0,-5.0
1.6951623597975805e+18,-8.0,-1.0,28.0,2.0,-2.0,0.0,1.0,2.0
1.6951623597975805e+18,6.0,7.0,-4.0,-1.0,2.0,0.0,-1.0,3.0
1.6951623597975805e+18,3.0,2.0,1.0,1.0,0.0,0.0,-2.0,-7.0
1.6951623597985797e+18,-4.0,2.0,13.0,-2.0,-1.0,-1.0,1.0,0.0
1.6951623597985797e+18,-1.0,0.0,-5.0,0.0,-1.0,0.0,1.0,1.0
1.6951623597985797e+18,0.0,3.0,10.0,5.0,0.0,-2.0,-1.0,6.0
1.6951623597985797e+18,3.0,0.0,-6.0,1.0,0.0,-2.0,-1.0,-2.0
1.6951623598288148e+18,-7.0,-1.0,10.0,0.0,-2.0,1.0,0.0,-3.0
1.6951623598288148e+18,6.0,-5.0,-14.0,-10.0,-1.0,1.0,2.0,2.0
1.6951623598304177e+18,0.0,4.0,2.0,-2.0,-1.0,0.0,-1.0,1.0
1.6951623598304177e+18,-2.0,-3.0,7.0,11.0,2.0,1.0,1.0,1.0
1.6951623598314355e+18,1.0,-2.0,-3.0,2.0,1.0,-2.0,0.0,5.0
1.6951623598314355e+18,-5.0,0.0,0.0,-8.0,0.0,-2.0,1.0,1.0
1.6951623598354304e+18,-1.0,2.0,1.0,2.0,1.0,0.0,-2.0,-2.0
1.6951623598354304e+18,0.0,-4.0,-3.0,-2.0,0.0,0.0,2.0,4.0
1.695162359850044e+18,0.0,1.0,-3.0,-3.0,0.0,-2.0,0.0,-3.0
1.695162359850044e+18,-4.0,-2.0,-4.0,0.0,-2.0,1.0,-1.0,2.0
1.695162359852045e+18,1.0,1.0,10.0,0.0,-1.0,-1.0,-1.0,-3.0
1.695162359852045e+18,-1.0,-4.0,-6.0,-2.0,-3.0,-1.0,0.0,0.0
1.6951623598647444e+18,1.0,1.0,-2.0,-1.0,1.0,-1.0,1.0,-1.0
1.6951623598647444e+18,-1.0,0.0,-1.0,1.0,-1.0,-1.0,-3.0,-2.0
1.695162359866716e+18,-2.0,0.0,4.0,0.0,-2.0,-1.0,-2.0,-2.0
1.695162359866716e+18,-1.0,-2.0,-2.0,-3.0,-1.0,1.0,-1.0,1.0
1.6951623598874706e+18,-3.0,-1.0,-3.0,-1.0,-2.0,1.0,-1.0,-1.0
1.6951623598874706e+18,-1.0,-1.0,1.0,1.0,-1.0,-1.0,-1.0,0.0
1.6951623598884782e+18,1.0,1.0,1.0,-2.0,-2.0,-2.0,-1.0,-3.0
1.6951623598894769e+18,-2.0,-2.0,-2.0,-3.0,0.0,0.0,-2.0,-1.0
1.6951623599055383e+18,-1.0,0.0,-2.0,-4.0,0.0,0.0,0.0,-3.0
1.6951623599075382e+18,-3.0,0.0,0.0,5.0,0.0,0.0,0.0,0.0
1.6951623599105357e+18,-2.0,0.0,0.0,-1.0,-1.0,-1.0,-2.0,1.0
1.6951623599105357e+18,1.0,-1.0,-2.0,-5.0,0.0,-1.0,-1.0,1.0
1.695162359924527e+18,-1.0,0.0,-2.0,-2.0,-3.0,-1.0,-1.0,1.0
1.695162359924527e+18,-1.0,0.0,1.0,3.0,1.0,-2.0,-1.0,0.0
1.6951623599565082e+18,0.0,0.0,0.0,-2.0,-3.0,0.0,-2.0,-2.0
1.6951623599615058e+18,0.0,-1.0,-4.0,-1.0,0.0,-1.0,-1.0,0.0
1.6951623599675026e+18,-2.0,-1.0,-1.0,1.0,0.0,-2.0,-1.0,-1.0
1.6951623599675026e+18,6.0,-1.0,-1.0,0.0,-2.0,-1.0,0.0,-1.0
1.6951623599675026e+18,-3.0,-2.0,1.0,-3.0,-1.0,-2.0,-1.0,-2.0
1.6951623599675026e+18,1.0,-2.0,-2.0,-2.0,-1.0,-2.0,1.0,0.0
1.6951623599675026e+18,0.0,-1.0,1.0,-2.0,0.0,-2.0,-2.0,-1.0
1.6951623599675026e+18,-2.0,-1.0,0.0,-1.0,-1.0,-1.0,0.0,0.0
1.6951623599774976e+18,0.0,0.0,1.0,0.0,0.0,0.0,0.0,-2.0
1.695162359978496e+18,0.0,0.0,-2.0,0.0,-1.0,-1.0,-1.0,0.0
1.6951623599904886e+18,0.0,-1.0,0.0,-1.0,-3.0,0.0,0.0,-2.0
1.6951623599904886e+18,-3.0,-2.0,-1.0,-1.0,0.0,-1.0,-1.0,-1.0
1.6951623599914883e+18,-1.0,-2.0,-1.0,-3.0,-1.0,0.0,-1.0,-1.0
1.6951623599914883e+18,-3.0,-2.0,-1.0,-2.0,0.0,-1.0,-1.0,-2.0
1.6951623600074788e+18,-2.0,-1.0,0.0,0.0,-1.0,-1.0,0.0,-2.0
1.6951623600074788e+18,0.0,-1.0,0.0,0.0,-1.0,0.0,-1.0,-1.0
1.6951623600134756e+18,-1.0,0.0,1.0,-2.0,-2.0,-2.0,1.0,0.0
1.6951623600134756e+18,0.0,-1.0,-2.0,-1.0,-1.0,-1.0,0.0,-1.0
1.695162360034464e+18,-3.0,-1.0,0.0,-1.0,-1.0,-2.0,0.0,0.0
1.6951623600354642e+18,-1.0,0.0,-1.0,-1.0,-1.0,-1.0,-1.0,0.0
1.6951623600364626e+18,-1.0,-1.0,0.0,-2.0,1.0,2.0,-2.0,-1.0
1.6951623600364626e+18,0.0,0.0,-1.0,-1.0,0.0,-2.0,0.0,0.0
1.6951623600524529e+18,-1.0,-1.0,0.0,0.0,-2.0,2.0,2.0,-2.0
1.6951623600524529e+18,-2.0,0.0,-1.0,-1.0,-1.0,-1.0,1.0,0.0
1.695162360053453e+18,-1.0,1.0,0.0,-1.0,-1.0,-1.0,-1.0,-2.0
1.6951623600544517e+18,-1.0,0.0,-1.0,-2.0,-1.0,-2.0,-2.0,0.0
1.69516236007644e+18,0.0,0.0,-1.0,-1.0,-1.0,-1.0,-1.0,1.0
1.69516236007644e+18,-1.0,-1.0,-1.0,-2.0,-1.0,0.0,-2.0,-3.0
1.69516236007744e+18,1.0,0.0,-1.0,1.0,0.0,0.0,1.0,1.0
1.6951623600784387e+18,-2.0,-1.0,-1.0,-1.0,-2.0,-1.0,-2.0,-1.0
1.6951623600894313e+18,-1.0,0.0,-1.0,-1.0,1.0,-2.0,-1.0,-1.0
1.6951623600894313e+18,-1.0,-1.0,0.0,0.0,0.0,-2.0,-1.0,0.0
1.6951623600964275e+18,-1.0,-2.0,0.0,0.0,-1.0,-1.0,0.0,-2.0
1.6951623600964275e+18,0.0,-1.0,-1.0,-1.0,-2.0,0.0,0.0,-1.0
1.6951623601044237e+18,-3.0,-2.0,-2.0,0.0,-1.0,-1.0,-1.0,-1.0
1.6951623601044237e+18,0.0,-1.0,0.0,-1.0,-1.0,-1.0,-1.0,-2.0
1.6951623601144174e+18,-1.0,-2.0,-1.0,-1.0,1.0,-1.0,-2.0,-2.0
1.6951623601144174e+18,-1.0,0.0,-1.0,-2.0,0.0,0.0,-1.0,-1.0
1.69516236012741e+18,0.0,0.0,-2.0,-1.0,-1.0,-1.0,-1.0,1.0
1.69516236012741e+18,-2.0,-1.0,0.0,-1.0,0.0,0.0,-1.0,-2.0
1.69516236012841e+18,0.0,-2.0,-1.0,-2.0,-2.0,-2.0,0.0,-1.0
1.6951623601294098e+18,-1.0,-1.0,0.0,-1.0,1.0,-1.0,0.0,0.0
1.6951623601495652e+18,0.0,0.0,-1.0,0.0,-2.0,-2.0,-1.0,-1.0
1.6951623601505628e+18,-2.0,-1.0,-3.0,-1.0,0.0,-1.0,-2.0,0.0
1.6951623601515648e+18,1.0,-1.0,0.0,-1.0,-1.0,-2.0,-2.0,0.0
1.6951623601515648e+18,1.0,-1.0,-2.0,-2.0,-1.0,0.0,-1.0,0.0
1.6951623601645545e+18,-2.0,-1.0,0.0,-2.0,-1.0,1.0,0.0,-3.0
1.6951623601645545e+18,-1.0,-1.0,-1.0,1.0,-1.0,0.0,0.0,0.0
1.695162360170575e+18,-1.0,-1.0,0.0,0.0,0.0,-1.0,-1.0,-2.0
1.6951623601715507e+18,-1.0,-1.0,0.0,0.0,0.0,0.0,0.0,0.0
1.6951623601873664e+18,0.0,0.0,1.0,-1.0,0.0,-2.0,-1.0,-1.0
1.6951623601873664e+18,-2.0,-1.0,-2.0,0.0,0.0,0.0,1.0,-2.0
1.695162360189379e+18,-1.0,0.0,-2.0,-1.0,-1.0,-1.0,-3.0,0.0
1.695162360189379e+18,-1.0,0.0,0.0,-1.0,-1.0,0.0,-1.0,0.0
1.6951623602103347e+18,0.0,-1.0,-1.0,0.0,-2.0,0.0,-2.0,-1.0
1.6951623602103347e+18,-1.0,-1.0,0.0,0.0,-3.0,-1.0,-2.0,-2.0
1.695162360211345e+18,0.0,-1.0,-1.0,1.0,2.0,-1.0,-1.0,-1.0
1.695162360211345e+18,-1.0,-1.0,0.0,0.0,0.0,-1.0,0.0,-2.0
1.6951623602233838e+18,-1.0,-2.0,-1.0,-1.0,-1.0,-1.0,0.0,-1.0
1.6951623602233838e+18,0.0,-1.0,0.0,-2.0,-1.0,-1.0,0.0,0.0
1.69516236023958e+18,-2.0,-1.0,-1.0,0.0,-2.0,-1.0,0.0,0.0
1.6951623602405783e+18,-1.0,0.0,1.0,0.0,0.0,-2.0,-1.0,-2.0
1.695162360262567e+18,0.0,-1.0,-1.0,-1.0,-2.0,-2.0,1.0,-1.0
1.695162360262567e+18,-1.0,1.0,-1.0,0.0,-1.0,-1.0,-1.0,-1.0
1.6951623602635638e+18,0.0,1.0,-1.0,0.0,1.0,-1.0,-1.0,0.0
1.6951623602645637e+18,1.0,-2.0,0.0,-1.0,0.0,-1.0,0.0,0.0
1.695162360278009e+18,-1.0,-1.0,-1.0,0.0,-2.0,-1.0,-1.0,0.0
1.695162360278009e+18,0.0,1.0,-1.0,-1.0,-1.0,0.0,0.0,-1.0
1.6951623602791096e+18,-1.0,-2.0,0.0,-1.0,-2.0,-1.0,0.0,-1.0
1.6951623602791096e+18,-1.0,-1.0,-3.0,-1.0,-2.0,-2.0,-1.0,-3.0
1.6951623602835907e+18,0.0,1.0,1.0,0.0,-1.0,2.0,-2.0,0.0
1.6951623602835907e+18,-1.0,-1.0,0.0,0.0,-1.0,-1.0,-2.0,1.0
1.6951623602925824e+18,-1.0,-1.0,-2.0,0.0,-1.0,0.0,-1.0,0.0
1.6951623602925824e+18,-1.0,-1.0,1.0,0.0,-1.0,0.0,-3.0,-1.0
1.6951623603173376e+18,-1.0,-1.0,-2.0,-1.0,1.0,-2.0,-1.0,-1.0
1.695162360320359e+18,-1.0,-1.0,-1.0,-1.0,1.0,0.0,0.0,-3.0
1.6951623603213358e+18,-1.0,-1.0,0.0,-1.0,-2.0,1.0,0.0,-1.0
1.6951623603213358e+18,-1.0,-1.0,-2.0,0.0,0.0,1.0,-1.0,0.0
1.695162360329354e+18,-1.0,-1.0,-3.0,0.0,-2.0,0.0,-1.0,-1.0
1.6951623603303342e+18,-1.0,0.0,0.0,-1.0,0.0,-1.0,-2.0,0.0
1.6951623603532733e+18,0.0,-1.0,-1.0,-1.0,1.0,1.0,0.0,-2.0
1.6951623603532733e+18,-1.0,0.0,-1.0,-2.0,-1.0,-1.0,0.0,0.0
1.6951623603542728e+18,0.0,0.0,-1.0,1.0,-2.0,-2.0,-3.0,0.0
1.6951623603542728e+18,0.0,0.0,-1.0,0.0,-1.0,-1.0,-1.0,0.0
1.6951623603552758e+18,0.0,0.0,1.0,-1.0,-1.0,-3.0,0.0,1.0
1.6951623603552758e+18,-2.0,0.0,0.0,1.0,1.0,-1.0,-2.0,-1.0
1.6951623603682647e+18,0.0,-1.0,-1.0,-2.0,0.0,-1.0,0.0,-2.0
1.6951623603682647e+18,0.0,-2.0,0.0,-2.0,0.0,1.0,0.0,-1.0
1.695162360369264e+18,1.0,-1.0,-1.0,-2.0,-2.0,1.0,-1.0,0.0
1.695162360369264e+18,-1.0,-1.0,0.0,-1.0,-2.0,0.0,-1.0,-1.0
1.6951623603899512e+18,-2.0,-1.0,0.0,-1.0,0.0,0.0,1.0,-2.0
1.6951623603899512e+18,-2.0,-1.0,-1.0,-2.0,-1.0,0.0,-2.0,-2.0
1.6951623603919537e+18,-1.0,-1.0,0.0,-2.0,-1.0,0.0,-1.0,-3.0
1.6951623603919537e+18,0.0,0.0,0.0,-1.0,0.0,-1.0,0.0,-1.0
1.6951623604035935e+18,-2.0,-1.0,-1.0,-1.0,0.0,-1.0,-2.0,0.0
1.6951623604035935e+18,0.0,-1.0,-3.0,-2.0,-1.0,-2.0,0.0,-2.0
1.6951623604122842e+18,-1.0,0.0,1.0,-1.0,0.0,-1.0,-1.0,0.0
1.6951623604122842e+18,0.0,-1.0,-1.0,-1.0,-2.0,0.0,0.0,0.0
1.695162360430298e+18,0.0,3.0,-1.0,1.0,-1.0,0.0,-1.0,0.0
1.6951623604312755e+18,0.0,0.0,-2.0,1.0,-1.0,-2.0,-1.0,-1.0
1.6951623604312755e+18,-1.0,-1.0,-1.0,0.0,0.0,-2.0,0.0,-2.0
1.6951623604312755e+18,-2.0,-2.0,1.0,0.0,0.0,-1.0,-2.0,-1.0
1.6951623604579226e+18,0.0,-2.0,1.0,0.0,-1.0,1.0,1.0,-1.0
1.6951623604579226e+18,0.0,-2.0,-2.0,-1.0,0.0,2.0,-1.0,0.0
1.6951623604589238e+18,-1.0,-2.0,-1.0,1.0,-1.0,0.0,-1.0,0.0
1.6951623604589238e+18,0.0,-1.0,-2.0,-2.0,-1.0,-1.0,-1.0,0.0
1.6951623604639186e+18,0.0,0.0,-1.0,-2.0,-2.0,-1.0,-1.0,0.0
1.6951623604639186e+18,0.0,1.0,1.0,-1.0,-1.0,-2.0,-1.0,0.0
1.6951623604802245e+18,0.0,-3.0,-2.0,0.0,-1.0,0.0,0.0,-1.0
1.6951623604802245e+18,0.0,1.0,4.0,0.0,-1.0,-2.0,0.0,-1.0
1.695162360494656e+18,0.0,-2.0,-2.0,-1.0,0.0,0.0,-1.0,-3.0
1.6951623604955446e+18,0.0,0.0,1.0,0.0,-3.0,-1.0,-1.0,0.0
1.6951623604967964e+18,-1.0,0.0,-1.0,-2.0,-1.0,-1.0,0.0,-2.0
1.6951623604967964e+18,-1.0,-1.0,-2.0,0.0,-3.0,2.0,-1.0,0.0
1.6951623605181353e+18,-1.0,-1.0,-2.0,-2.0,0.0,0.0,0.0,2.0
1.6951623605181353e+18,0.0,-2.0,0.0,0.0,-1.0,0.0,0.0,-1.0
1.6951623605191286e+18,0.0,0.0,-1.0,-1.0,0.0,0.0,-1.0,0.0
1.6951623605191286e+18,-2.0,-1.0,-2.0,0.0,-1.0,0.0,0.0,-2.0
1.6951623605236193e+18,-1.0,0.0,2.0,0.0,-2.0,-1.0,-1.0,-1.0
1.6951623605236193e+18,-1.0,0.0,-2.0,0.0,0.0,0.0,0.0,0.0
1.69516236053243e+18,-2.0,-1.0,-2.0,-1.0,0.0,-1.0,-2.0,1.0
1.69516236053243e+18,1.0,-2.0,-1.0,-1.0,0.0,-1.0,1.0,0.0
1.6951623605473347e+18,0.0,-1.0,-2.0,0.0,1.0,-1.0,-1.0,0.0
1.6951623605483525e+18,-2.0,0.0,-1.0,-1.0,0.0,0.0,0.0,-1.0
1.6951623605493501e+18,1.0,-1.0,-2.0,0.0,-3.0,-1.0,0.0,-1.0
1.6951623605493501e+18,0.0,1.0,0.0,-2.0,2.0,0.0,-1.0,0.0
1.6951623605943844e+18,-1.0,-2.0,-1.0,-2.0,0.0,-1.0,-2.0,-1.0
1.6951623605943844e+18,0.0,-1.0,0.0,-1.0,0.0,-2.0,0.0,1.0
1.695162360595408e+18,-2.0,-1.0,0.0,-1.0,0.0,-2.0,-1.0,-1.0
1.695162360595408e+18,2.0,0.0,-1.0,-1.0,-1.0,-1.0,-1.0,1.0
1.6951623605963827e+18,1.0,4.0,-4.0,-3.0,-1.0,-1.0,0.0,-1.0
1.6951623605963827e+18,-2.0,-11.0,6.0,4.0,3.0,3.0,2.0,-1.0
1.6951623606103754e+18,-1.0,-1.0,-3.0,-1.0,0.0,1.0,-3.0,-1.0
1.6951623606103754e+18,1.0,0.0,-1.0,-2.0,-1.0,-2.0,0.0,-1.0
1.6951623606103754e+18,-4.0,-9.0,5.0,3.0,5.0,2.0,1.0,-1.0
1.6951623606113746e+18,0.0,1.0,2.0,0.0,-1.0,-2.0,0.0,1.0
1.6951623606303642e+18,0.0,2.0,3.0,0.0,-1.0,-1.0,-3.0,-1.0
1.6951623606303642e+18,-2.0,-3.0,-9.0,-1.0,1.0,1.0,-1.0,-2.0
1.695162360631363e+18,-1.0,1.0,-1.0,-3.0,-5.0,-1.0,1.0,-1.0
1.695162360631363e+18,0.0,1.0,-2.0,-1.0,-1.0,0.0,-2.0,-1.0
1.6951623606333614e+18,-1.0,-3.0,-1.0,1.0,-2.0,-1.0,1.0,0.0
1.6951623606333614e+18,1.0,-1.0,1.0,0.0,-3.0,-2.0,-1.0,-2.0
1.695162360649352e+18,2.0,-7.0,4.0,1.0,1.0,-2.0,0.0,1.0
1.695162360649352e+18,0.0,3.0,-3.0,-1.0,1.0,-2.0,-1.0,-1.0
1.6951623606583598e+18,1.0,3.0,-1.0,-2.0,-1.0,0.0,-2.0,0.0
1.6951623606583598e+18,-1.0,-2.0,-2.0,0.0,-1.0,-1.0,-1.0,0.0
1.6951623606673661e+18,-2.0,1.0,-2.0,-2.0,-2.0,1.0,0.0,-3.0
1.6951623606673661e+18,-4.0,-5.0,-1.0,0.0,-1.0,0.0,-1.0,0.0
1.695162360669343e+18,0.0,-3.0,-1.0,-1.0,-1.0,0.0,0.0,0.0
1.695162360669343e+18,-2.0,1.0,0.0,-2.0,-1.0,-1.0,0.0,0.0
1.6951623606899492e+18,-1.0,-1.0,-1.0,-2.0,-2.0,-1.0,-1.0,-1.0
1.6951623606899492e+18,0.0,1.0,-2.0,-2.0,-3.0,-1.0,-2.0,-1.0
1.6951623606919524e+18,-2.0,2.0,0.0,0.0,0.0,0.0,0.0,0.0
1.6951623606919524e+18,-1.0,-1.0,1.0,0.0,-1.0,1.0,0.0,-1.0
1.6951623607039475e+18,1.0,4.0,-2.0,-2.0,-1.0,0.0,-2.0,-1.0
1.6951623607039475e+18,-1.0,0.0,-3.0,-2.0,-1.0,0.0,-1.0,-1.0
1.695162360719959e+18,0.0,-1.0,-2.0,-2.0,-2.0,-1.0,0.0,-1.0
1.695162360719959e+18,0.0,-2.0,0.0,-1.0,-1.0,1.0,-1.0,-1.0
1.6951623607430659e+18,0.0,2.0,-2.0,0.0,-2.0,-3.0,-2.0,-1.0
1.6951623607430659e+18,-1.0,0.0,-1.0,0.0,0.0,-1.0,-2.0,-2.0
1.6951623607440627e+18,-1.0,-2.0,0.0,-2.0,1.0,0.0,-1.0,-1.0
1.6951623607440627e+18,-2.0,1.0,-1.0,-2.0,1.0,-2.0,0.0,0.0
1.6951623607570575e+18,-1.0,1.0,0.0,-1.0,1.0,-2.0,0.0,-1.0
1.6951623607580567e+18,2.0,-2.0,-1.0,-2.0,-1.0,-1.0,0.0,-1.0
1.6951623607600535e+18,-1.0,-1.0,0.0,0.0,0.0,-3.0,-1.0,0.0
1.6951623607600535e+18,-2.0,1.0,0.0,0.0,0.0,-2.0,-1.0,0.0
1.6951623607800425e+18,-1.0,-1.0,-3.0,0.0,-1.0,-1.0,-2.0,-1.0
1.6951623607810414e+18,-2.0,-1.0,-1.0,-1.0,-1.0,-1.0,-1.0,0.0
1.6951623607810414e+18,-1.0,-1.0,-1.0,0.0,-1.0,0.0,0.0,0.0
1.6951623607820406e+18,0.0,-2.0,0.0,0.0,-1.0,0.0,1.0,0.0
1.6951623607950323e+18,-2.0,-2.0,0.0,-1.0,-2.0,-1.0,0.0,0.0
1.6951623607950323e+18,0.0,0.0,-3.0,-1.0,0.0,-1.0,0.0,-1.0
1.6951623607960328e+18,0.0,-1.0,-3.0,-1.0,-2.0,0.0,0.0,-3.0
1.695162360797036e+18,0.0,-1.0,0.0,-1.0,-1.0,0.0,-2.0,-1.0
1.6951623608104586e+18,-1.0,0.0,-1.0,0.0,-2.0,0.0,0.0,-1.0
1.6951623608104586e+18,0.0,1.0,0.0,-1.0,-2.0,-2.0,-2.0,-1.0
1.6951623608114895e+18,-2.0,-2.0,0.0,0.0,0.0,-2.0,-2.0,-1.0
1.6951623608114895e+18,-2.0,-1.0,-1.0,0.0,-1.0,-2.0,0.0,-2.0
1.695162360832462e+18,-1.0,-1.0,-2.0,0.0,0.0,0.0,-2.0,-1.0
1.695162360832462e+18,0.0,0.0,0.0,1.0,-1.0,-1.0,0.0,0.0
1.6951623608344586e+18,0.0,-1.0,-1.0,-1.0,-1.0,-2.0,-1.0,0.0
1.6951623608344586e+18,2.0,0.0,-1.0,-1.0,-1.0,0.0,-2.0,-1.0
1.695162360856343e+18,-2.0,-1.0,-2.0,-3.0,-1.0,0.0,-2.0,0.0
1.695162360856343e+18,-1.0,-1.0,-1.0,0.0,-2.0,1.0,-2.0,-1.0
1.6951623608705649e+18,-1.0,0.0,0.0,-1.0,-1.0,0.0,-1.0,-2.0
1.6951623608705649e+18,-1.0,-2.0,-2.0,0.0,-1.0,-1.0,0.0,0.0
1.6951623608715384e+18,-1.0,0.0,-1.0,-1.0,-2.0,0.0,-1.0,0.0
1.6951623608715384e+18,-1.0,-1.0,0.0,0.0,0.0,0.0,-1.0,-2.0
1.695162360873546e+18,-1.0,-1.0,0.0,-2.0,0.0,-1.0,0.0,-1.0
1.695162360873546e+18,-1.0,0.0,0.0,-1.0,-2.0,1.0,0.0,-1.0
1.695162360890535e+18,-2.0,-1.0,0.0,-1.0,0.0,-1.0,0.0,0.0
1.695162360890535e+18,-2.0,-1.0,2.0,1.0,-2.0,0.0,-2.0,-2.0
1.6951623608985272e+18,-1.0,-1.0,-7.0,0.0,-2.0,-2.0,-2.0,-1.0
1.6951623608985272e+18,-1.0,0.0,0.0,0.0,-2.0,-1.0,-1.0,-1.0
1.6951623609065252e+18,0.0,0.0,0.0,0.0,0.0,-1.0,-1.0,0.0
1.6951623609065252e+18,0.0,0.0,1.0,-2.0,0.0,-1.0,0.0,-1.0
1.6951623609304312e+18,-1.0,0.0,-1.0,1.0,0.0,1.0,1.0,0.0
1.6951623609304312e+18,-1.0,0.0,-1.0,-2.0,-1.0,-1.0,-2.0,0.0
1.6951623609314335e+18,-1.0,-2.0,0.0,-1.0,0.0,0.0,1.0,-2.0
1.6951623609314335e+18,-1.0,-2.0,-2.0,1.0,-3.0,1.0,0.0,-2.0
1.6951623609324332e+18,-1.0,-1.0,0.0,-2.0,0.0,-1.0,-3.0,-2.0
1.695162360933434e+18,0.0,0.0,-1.0,-1.0,0.0,-1.0,-1.0,-2.0
1.6951623609474363e+18,0.0,-2.0,0.0,0.0,3.0,0.0,-1.0,-1.0
1.6951623609494262e+18,2.0,0.0,-2.0,-1.0,0.0,0.0,-1.0,1.0
1.695162360960417e+18,-2.0,0.0,-2.0,0.0,0.0,0.0,-2.0,0.0
1.695162360960417e+18,-2.0,-2.0,1.0,-1.0,-1.0,0.0,0.0,-1.0
1.6951623609824056e+18,0.0,1.0,-1.0,-3.0,-3.0,-3.0,-3.0,-1.0
1.6951623609834045e+18,1.0,-2.0,-3.0,-1.0,0.0,-1.0,-1.0,-2.0
1.6951623609844037e+18,-1.0,-1.0,-1.0,0.0,1.0,-1.0,0.0,-1.0
1.6951623609844037e+18,0.0,-1.0,-2.0,-2.0,0.0,0.0,0.0,0.0
1.6951623609963963e+18,1.0,0.0,0.0,0.0,-1.0,0.0,-1.0,1.0
1.6951623609963963e+18,-1.0,0.0,-2.0,-2.0,-2.0,-1.0,-2.0,-2.0
1.6951623609963963e+18,0.0,-1.0,1.0,-1.0,-3.0,-1.0,-1.0,0.0
1.6951623609973988e+18,0.0,0.0,-1.0,0.0,1.0,-1.0,-1.0,-1.0
1.695162361004394e+18,-2.0,-1.0,-2.0,-2.0,-1.0,0.0,0.0,1.0
1.695162361004394e+18,-1.0,-1.0,0.0,2.0,-1.0,-3.0,-2.0,0.0
1.6951623610123904e+18,0.0,0.0,2.0,-1.0,-1.0,-1.0,0.0,-1.0
1.6951623610123904e+18,-1.0,-2.0,-2.0,0.0,0.0,0.0,0.0,-1.0
1.6951623610345764e+18,0.0,-1.0,0.0,-1.0,1.0,0.0,0.0,-2.0
1.6951623610355758e+18,0.0,-1.0,-1.0,0.0,0.0,0.0,0.0,-1.0
1.6951623610365862e+18,-1.0,-3.0,-1.0,0.0,0.0,-2.0,-2.0,-2.0
1.6951623610365862e+18,-1.0,0.0,0.0,1.0,-1.0,-1.0,0.0,0.0
1.6951623610496133e+18,-2.0,1.0,-1.0,0.0,-1.0,-2.0,0.0,-2.0
1.6951623610496133e+18,-1.0,-1.0,-1.0,-1.0,-1.0,-1.0,-1.0,1.0
1.6951623610516104e+18,1.0,0.0,-1.0,-2.0,0.0,0.0,-1.0,0.0
1.6951623610516104e+18,2.0,-1.0,-1.0,-1.0,-2.0,-1.0,0.0,0.0
1.6951623610725985e+18,-2.0,-2.0,-1.0,-1.0,-2.0,0.0,-2.0,0.0
1.6951623610725985e+18,-3.0,-1.0,0.0,-1.0,-2.0,-1.0,0.0,-1.0
1.6951623610736215e+18,0.0,-1.0,0.0,0.0,-1.0,-2.0,0.0,-2.0
1.6951623610736215e+18,-2.0,-1.0,0.0,0.0,0.0,-1.0,-1.0,-1.0
1.6951623610948928e+18,1.0,0.0,-1.0,-1.0,-1.0,-2.0,-1.0,0.0
1.6951623610955474e+18,0.0,-2.0,-1.0,-1.0,0.0,0.0,-2.0,-2.0
1.695162361096556e+18,-1.0,-1.0,1.0,0.0,-3.0,0.0,1.0,0.0
1.695162361096556e+18,-1.0,-1.0,0.0,-1.0,0.0,0.0,0.0,-2.0
1.6951623611107978e+18,0.0,-2.0,-1.0,-1.0,1.0,-1.0,1.0,-2.0
1.6951623611107978e+18,-1.0,-2.0,-3.0,-1.0,0.0,-1.0,-2.0,-1.0
1.6951623611117972e+18,0.0,-1.0,-1.0,-2.0,0.0,0.0,-1.0,-1.0
1.6951623611117972e+18,-2.0,0.0,-2.0,-1.0,-2.0,0.0,-1.0,0.0
1.6951623611327875e+18,0.0,-1.0,-1.0,-1.0,0.0,1.0,-1.0,0.0
1.6951623611327875e+18,1.0,-1.0,-1.0,-1.0,2.0,-2.0,-1.0,-1.0
1.6951623611347848e+18,0.0,-2.0,-2.0,0.0,-1.0,2.0,-2.0,1.0
1.6951623611347848e+18,0.0,-1.0,0.0,-3.0,-1.0,-2.0,0.0,-2.0
1.695162361146794e+18,-1.0,-1.0,1.0,0.0,-2.0,-2.0,0.0,0.0
1.695162361146794e+18,-1.0,-2.0,0.0,-2.0,0.0,-1.0,1.0,0.0
1.6951623611537728e+18,0.0,-1.0,-1.0,0.0,-1.0,-2.0,-1.0,0.0
1.6951623611537728e+18,1.0,1.0,-1.0,-2.0,-1.0,-1.0,-1.0,-2.0
1.695162361178309e+18,0.0,-2.0,-4.0,-1.0,-1.0,-1.0,-1.0,-1.0
1.695162361178309e+18,0.0,1.0,2.0,1.0,-1.0,-1.0,0.0,-1.0
1.6951623611793068e+18,-2.0,1.0,1.0,-1.0,-1.0,-1.0,-1.0,-2.0
1.6951623611793068e+18,-3.0,-2.0,-1.0,1.0,-1.0,0.0,-1.0,0.0
1.6951623611933847e+18,-1.0,-1.0,1.0,0.0,0.0,-1.0,-1.0,0.0
1.6951623611953823e+18,-1.0,-2.0,-3.0,-1.0,-1.0,-1.0,0.0,1.0
1.6951623611964017e+18,-1.0,0.0,-2.0,0.0,0.0,0.0,-1.0,0.0
1.6951623611964017e+18,0.0,-1.0,1.0,-2.0,-2.0,-1.0,-2.0,-1.0
1.6951623612103805e+18,0.0,-1.0,-2.0,-1.0,0.0,0.0,-1.0,-1.0
1.695162361212373e+18,-1.0,-1.0,0.0,0.0,1.0,0.0,0.0,0.0
1.695162361216372e+18,-1.0,0.0,1.0,-1.0,-2.0,-2.0,-1.0,0.0
1.695162361216372e+18,0.0,-1.0,-1.0,0.0,-1.0,-1.0,0.0,0.0
1.6951623612303626e+18,0.0,-2.0,0.0,-1.0,-1.0,-1.0,-1.0,-2.0
1.6951623612323615e+18,0.0,0.0,-1.0,-1.0,-2.0,0.0,0.0,-2.0
1.69516236123336e+18,-1.0,-2.0,0.0,-2.0,3.0,-1.0,-1.0,1.0
1.69516236123336e+18,-2.0,0.0,0.0,-1.0,-1.0,1.0,-1.0,0.0
1.6951623612523494e+18,0.0,1.0,0.0,-1.0,-2.0,-1.0,-1.0,0.0
1.6951623612533494e+18,0.0,0.0,0.0,-3.0,-1.0,0.0,-1.0,-2.0
1.695162361261345e+18,0.0,-1.0,-2.0,-2.0,0.0,-1.0,0.0,-2.0
1.6951623612623424e+18,0.0,-1.0,0.0,0.0,-1.0,-1.0,-3.0,-1.0
1.6951623612673395e+18,-1.0,0.0,0.0,-1.0,-2.0,-2.0,-1.0,-1.0
1.6951623612673395e+18,-1.0,-2.0,-2.0,1.0,-1.0,-1.0,-1.0,0.0
1.6951623612743375e+18,0.0,-2.0,0.0,1.0,-1.0,0.0,-1.0,0.0
1.6951623612743375e+18,-1.0,-1.0,-2.0,2.0,1.0,-2.0,0.0,0.0
1.6951623612903268e+18,0.0,1.0,1.0,-1.0,-1.0,0.0,-1.0,-1.0
1.6951623612903268e+18,-1.0,-1.0,0.0,-1.0,0.0,-2.0,0.0,-1.0
1.6951623612923267e+18,0.0,-1.0,-1.0,-1.0,-1.0,1.0,-1.0,0.0
1.6951623612923267e+18,0.0,-1.0,-2.0,-2.0,1.0,-1.0,-1.0,-1.0
1.6951623613203103e+18,-2.0,-1.0,-1.0,-2.0,-2.0,-1.0,-1.0,-1.0
1.6951623613213094e+18,-1.0,0.0,-1.0,-1.0,-2.0,-2.0,-1.0,-2.0
1.6951623613213094e+18,0.0,0.0,-1.0,-1.0,1.0,-1.0,-1.0,-2.0
1.6951623613213094e+18,0.0,1.0,-1.0,-2.0,0.0,-2.0,0.0,-1.0
1.6951623613263104e+18,0.0,0.0,0.0,0.0,0.0,0.0,-2.0,-1.0
1.695162361327305e+18,0.0,0.0,0.0,-1.0,-3.0,-1.0,0.0,0.0
1.6951623613353e+18,0.0,0.0,-1.0,-1.0,0.0,-3.0,0.0,0.0
1.6951623613353e+18,-2.0,-1.0,0.0,-2.0,-1.0,0.0,0.0,-3.0
1.6951623613612854e+18,0.0,-1.0,-1.0,1.0,0.0,0.0,0.0,-1.0
1.6951623613622845e+18,-1.0,-2.0,-2.0,0.0,0.0,-1.0,-1.0,0.0
1.6951623613622845e+18,-2.0,-1.0,0.0,0.0,0.0,-1.0,-2.0,-2.0
1.6951623613622845e+18,0.0,0.0,-2.0,-2.0,0.0,-2.0,-1.0,-1.0
1.69516236137228e+18,-1.0,0.0,-2.0,-2.0,0.0,-2.0,0.0,-2.0
1.69516236137228e+18,-2.0,0.0,0.0,-2.0,1.0,-1.0,0.0,-1.0
1.6951623613742781e+18,0.0,1.0,0.0,-2.0,-1.0,-1.0,1.0,0.0
1.6951623613742781e+18,0.0,-1.0,0.0,-2.0,-1.0,1.0,-1.0,2.0
1.695162361395266e+18,0.0,-3.0,-2.0,0.0,0.0,0.0,-3.0,-1.0
1.695162361395266e+18,1.0,0.0,0.0,0.0,-2.0,0.0,-1.0,-1.0
1.6951623613962657e+18,-2.0,-1.0,0.0,0.0,-2.0,0.0,-3.0,-1.0
1.6951623613962657e+18,0.0,0.0,1.0,-1.0,-2.0,-2.0,1.0,-1.0
1.6951623614102572e+18,0.0,0.0,1.0,-1.0,-1.0,-1.0,0.0,0.0
1.6951623614102572e+18,-1.0,-1.0,-2.0,-2.0,0.0,-1.0,-1.0,0.0
1.6951623614112579e+18,0.0,0.0,0.0,0.0,1.0,0.0,-1.0,-1.0
1.6951623614122557e+18,-1.0,0.0,1.0,-1.0,0.0,-1.0,0.0,-1.0
1.6951623614342456e+18,-1.0,-1.0,-3.0,-1.0,0.0,-1.0,0.0,0.0
1.6951623614342456e+18,-2.0,-1.0,1.0,-1.0,0.0,0.0,0.0,0.0
1.695162361435244e+18,-1.0,-1.0,-1.0,-2.0,-2.0,0.0,0.0,-1.0
1.695162361435244e+18,-1.0,-3.0,2.0,3.0,1.0,-2.0,-2.0,-2.0
1.6951623614462354e+18,-2.0,-1.0,-2.0,9.0,4.0,0.0,-1.0,0.0
1.6951623614472353e+18,-1.0,-1.0,-2.0,-12.0,-4.0,-3.0,-1.0,0.0
1.6951623614532316e+18,0.0,-2.0,-2.0,-5.0,-3.0,-1.0,-1.0,0.0
1.6951623614532316e+18,-1.0,-1.0,-3.0,-2.0,-1.0,0.0,-1.0,1.0
1.6951623614762194e+18,0.0,-1.0,0.0,-1.0,-1.0,-2.0,-1.0,0.0
1.6951623614772196e+18,-1.0,0.0,-2.0,6.0,2.0,0.0,-1.0,-1.0
1.6951623614852137e+18,-2.0,0.0,-1.0,1.0,-2.0,-1.0,0.0,-1.0
1.6951623614852137e+18,1.0,0.0,0.0,-1.0,-1.0,0.0,-1.0,-3.0
1.6951623614922127e+18,-1.0,-1.0,-1.0,-1.0,-1.0,-1.0,0.0,-1.0
1.6951623614932096e+18,-1.0,-1.0,-1.0,-2.0,-2.0,2.0,-1.0,0.0
1.6951623614942088e+18,0.0,-1.0,1.0,-2.0,-1.0,-1.0,-2.0,-1.0
1.6951623614942088e+18,-1.0,-1.0,-2.0,-1.0,1.0,0.0,-1.0,1.0
1.6951623615072023e+18,-1.0,0.0,-1.0,-4.0,-1.0,0.0,-1.0,-1.0
1.695162361516199e+18,0.0,-2.0,2.0,1.0,1.0,0.0,-1.0,-3.0
1.695162361516199e+18,-1.0,0.0,-3.0,0.0,-2.0,-3.0,0.0,-3.0
1.695162361516199e+18,-1.0,-1.0,-1.0,-1.0,-3.0,-2.0,-2.0,-3.0
1.6951623615301878e+18,-1.0,-3.0,-3.0,-2.0,-2.0,-4.0,-2.0,-2.0
1.6951623615301878e+18,-4.0,-5.0,1.0,-1.0,-3.0,-3.0,-2.0,-1.0
1.6951623615311964e+18,-1.0,-3.0,-3.0,1.0,-2.0,-2.0,-1.0,-2.0
1.6951623615311964e+18,-1.0,-1.0,-2.0,-2.0,-3.0,0.0,-1.0,0.0
1.6951623615521759e+18,-1.0,0.0,-2.0,-4.0,-3.0,-1.0,-1.0,-2.0
1.6951623615521759e+18,-1.0,6.0,2.0,3.0,1.0,1.0,2.0,0.0
1.6951623615541752e+18,-2.0,-7.0,11.0,-4.0,-5.0,0.0,-2.0,-2.0
1.6951623615541752e+18,2.0,5.0,34.0,4.0,-9.0,-7.0,-1.0,-2.0
1.6951623615661673e+18,-3.0,-12.0,-79.0,-11.0,5.0,-2.0,-3.0,-3.0
1.6951623615661673e+18,-1.0,3.0,-1.0,-4.0,-13.0,-4.0,-3.0,-1.0
1.695162361575162e+18,0.0,-2.0,-4.0,5.0,10.0,3.0,2.0,1.0
1.695162361575162e+18,-4.0,-1.0,-7.0,1.0,4.0,3.0,1.0,-2.0
1.6951623615901532e+18,-1.0,4.0,36.0,-3.0,-8.0,0.0,-2.0,-1.0
1.6951623615901532e+18,-4.0,-10.0,-12.0,-4.0,0.0,-4.0,-3.0,-2.0
1.6951623615911772e+18,-2.0,-2.0,-10.0,10.0,9.0,-4.0,0.0,-3.0
1.6951623615921536e+18,0.0,-4.0,-17.0,-2.0,-4.0,8.0,3.0,1.0
1.6951623616121418e+18,-1.0,2.0,11.0,3.0,-1.0,-2.0,-2.0,-3.0
1.6951623616121418e+18,-2.0,-2.0,-5.0,-5.0,-13.0,-14.0,-4.0,-1.0
1.6951623616141402e+18,-3.0,-1.0,-3.0,-5.0,-17.0,-9.0,-4.0,-4.0
1.6951623616141402e+18,2.0,2.0,18.0,10.0,29.0,18.0,6.0,2.0
1.695162361626134e+18,-1.0,-4.0,-16.0,-4.0,-4.0,-4.0,-2.0,-1.0
1.695162361626134e+18,1.0,13.0,30.0,-4.0,-3.0,-6.0,-4.0,-3.0
1.6951623616511237e+18,0.0,-11.0,-19.0,2.0,-3.0,2.0,6.0,3.0
1.6951623616511237e+18,0.0,3.0,12.0,5.0,17.0,8.0,-2.0,0.0
1.6951623616511237e+18,0.0,6.0,5.0,5.0,-14.0,-5.0,-2.0,0.0
1.6951623616521216e+18,-2.0,-8.0,11.0,-5.0,18.0,5.0,-2.0,-2.0
1.6951623616531174e+18,-2.0,-2.0,-20.0,-2.0,3.0,12.0,2.0,0.0
1.6951623616531174e+18,-1.0,-3.0,-18.0,-12.0,-18.0,-11.0,-1.0,3.0
1.6951623616741056e+18,-1.0,6.0,33.0,1.0,-2.0,-3.0,-2.0,7.0
1.6951623616761075e+18,0.0,4.0,-22.0,-3.0,-8.0,-6.0,-3.0,-16.0
1.695162361677105e+18,0.0,-1.0,-2.0,-9.0,-10.0,-17.0,-3.0,-3.0
1.695162361677105e+18,-4.0,-11.0,-6.0,-4.0,-24.0,-6.0,-7.0,9.0
1.6951623616860987e+18,-1.0,3.0,7.0,-5.0,-6.0,-13.0,3.0,-16.0
1.6951623616860987e+18,1.0,-1.0,9.0,18.0,37.0,40.0,-3.0,13.0
1.6951623617020892e+18,5.0,11.0,5.0,6.0,31.0,16.0,19.0,0.0
1.6951623617020892e+18,-6.0,-7.0,-18.0,-8.0,-1.0,-4.0,-17.0,-26.0
1.6951623617100854e+18,3.0,-8.0,-11.0,1.0,-7.0,-10.0,1.0,33.0
1.6951623617100854e+18,2.0,13.0,17.0,-2.0,-24.0,-16.0,19.0,-30.0
1.695162361711086e+18,-7.0,-26.0,-3.0,-1.0,12.0,17.0,-41.0,-5.0
1.695162361712085e+18,6.0,8.0,12.0,-9.0,-14.0,-18.0,-3.0,31.0
1.6951623617320996e+18,-6.0,-13.0,-12.0,-4.0,-16.0,-11.0,-6.0,-44.0
1.695162361733074e+18,-5.0,-2.0,-12.0,-4.0,0.0,-3.0,1.0,28.0
1.6951623617340726e+18,-2.0,7.0,3.0,0.0,-3.0,-4.0,22.0,0.0
1.6951623617340726e+18,1.0,3.0,-9.0,1.0,1.0,7.0,8.0,-14.0
1.695162361746064e+18,-4.0,-5.0,-5.0,-12.0,-4.0,7.0,-5.0,-1.0
1.695162361746064e+18,1.0,0.0,6.0,-9.0,-28.0,-24.0,9.0,14.0
1.6951623617630559e+18,-7.0,-4.0,3.0,13.0,8.0,-10.0,-18.0,-58.0
1.6951623617630559e+18,7.0,11.0,-3.0,14.0,49.0,53.0,3.0,44.0
1.6951623617700508e+18,1.0,-2.0,-6.0,1.0,-1.0,15.0,10.0,20.0
1.6951623617700508e+18,-3.0,-27.0,23.0,-6.0,2.0,-18.0,-3.0,-14.0
1.6951623617710508e+18,-5.0,27.0,-30.0,-8.0,-16.0,-8.0,-34.0,-4.0
1.6951623617720522e+18,-9.0,-25.0,6.0,5.0,-5.0,-8.0,12.0,-49.0
1.695162361793038e+18,7.0,31.0,-2.0,-1.0,-5.0,-13.0,-2.0,15.0
1.695162361793038e+18,7.0,-2.0,-8.0,-1.0,-10.0,13.0,-10.0,58.0
1.695162361794061e+18,2.0,-6.0,6.0,-5.0,-10.0,-18.0,22.0,25.0
1.695162361794061e+18,1.0,0.0,16.0,-7.0,-8.0,-4.0,-11.0,-19.0
1.695162361815027e+18,0.0,13.0,34.0,9.0,16.0,7.0,-6.0,13.0
1.695162361815027e+18,-3.0,-14.0,-56.0,5.0,5.0,-7.0,6.0,-25.0
1.6951623618160246e+18,0.0,2.0,55.0,-9.0,-3.0,8.0,0.0,-6.0
1.6951623618170248e+18,-4.0,4.0,-50.0,-4.0,-21.0,-13.0,0.0,-5.0
1.6951623618310162e+18,-2.0,-13.0,5.0,14.0,30.0,13.0,13.0,4.0
1.6951623618310162e+18,-3.0,14.0,43.0,0.0,-2.0,-2.0,-11.0,-16.0
1.6951623618320174e+18,4.0,6.0,-36.0,6.0,-1.0,2.0,1.0,11.0
1.6951623618320174e+18,-10.0,-10.0,6.0,-23.0,-12.0,-7.0,2.0,-4.0
1.6951623618520028e+18,-1.0,16.0,35.0,-1.0,-11.0,-4.0,-15.0,-6.0
1.695162361853003e+18,0.0,-11.0,-73.0,9.0,25.0,21.0,11.0,-2.0
1.6951623618540027e+18,3.0,-12.0,20.0,-8.0,-12.0,-3.0,4.0,0.0
1.6951623618540027e+18,9.0,20.0,5.0,-2.0,-16.0,-26.0,-9.0,20.0
1.6951623618660221e+18,-8.0,-21.0,-30.0,5.0,13.0,8.0,24.0,14.0
1.6951623618660221e+18,-9.0,1.0,-2.0,-5.0,6.0,13.0,-13.0,-12.0
1.6951623618749908e+18,-2.0,1.0,-11.0,-10.0,-14.0,-7.0,-24.0,-2.0
1.6951623618749908e+18,-3.0,-13.0,-17.0,14.0,11.0,-3.0,8.0,-17.0
1.6951623618900055e+18,5.0,0.0,-13.0,-1.0,7.0,7.0,-6.0,10.0
1.6951623618900055e+18,-5.0,-1.0,22.0,-2.0,-5.0,2.0,8.0,-8.0
1.6951623619049733e+18,0.0,-2.0,-37.0,-5.0,-5.0,-6.0,7.0,5.0
1.6951623619049733e+18,-2.0,5.0,36.0,-3.0,-10.0,-6.0,-2.0,7.0
1.6951623619199665e+18,-8.0,-6.0,-2.0,-3.0,4.0,5.0,-3.0,-37.0
1.6951623619199665e+18,1.0,-6.0,2.0,-1.0,-2.0,-3.0,-1.0,11.0
1.6951623619209661e+18,2.0,7.0,2.0,-1.0,7.0,4.0,4.0,6.0
1.6951623619219643e+18,0.0,-6.0,11.0,2.0,1.0,-5.0,-9.0,0.0
1.695162361925964e+18,1.0,12.0,0.0,-3.0,-8.0,-6.0,2.0,-11.0
1.695162361925964e+18,2.0,-15.0,-53.0,5.0,12.0,10.0,-4.0,-7.0
1.6951623619349798e+18,-3.0,7.0,84.0,7.0,0.0,2.0,26.0,4.0
1.6951623619349798e+18,5.0,-2.0,-30.0,4.0,5.0,2.0,-15.0,30.0
1.6951623619489477e+18,4.0,2.0,4.0,-2.0,-3.0,-6.0,-17.0,-12.0
1.6951623619499482e+18,-5.0,-11.0,-1.0,-1.0,-13.0,-8.0,-7.0,-8.0
1.6951623619559434e+18,3.0,6.0,23.0,1.0,5.0,5.0,12.0,2.0
1.6951623619559434e+18,-4.0,13.0,14.0,-4.0,-2.0,-1.0,13.0,2.0
1.6951623619799304e+18,-3.0,-18.0,-67.0,-3.0,8.0,4.0,1.0,-4.0
1.6951623619799304e+18,1.0,14.0,64.0,13.0,9.0,-4.0,-15.0,-2.0
1.6951623619809303e+18,-4.0,-25.0,-86.0,-8.0,-4.0,1.0,0.0,3.0
1.695162361981931e+18,2.0,3.0,4.0,4.0,3.0,-3.0,-1.0,-27.0
1.6951623619859556e+18,-4.0,1.0,38.0,-9.0,-6.0,-1.0,10.0,-7.0
1.6951623619859556e+18,-6.0,4.0,-21.0,-11.0,-11.0,-3.0,-9.0,20.0
1.695162361994922e+18,7.0,8.0,19.0,8.0,8.0,0.0,-5.0,-6.0
1.6951623619959235e+18,-13.0,-11.0,15.0,-6.0,-4.0,-3.0,-2.0,-21.0
1.6951623620169116e+18,2.0,0.0,-30.0,-2.0,0.0,0.0,0.0,21.0
1.695162362017909e+18,13.0,13.0,-3.0,7.0,2.0,-4.0,-4.0,6.0
1.6951623620189115e+18,-8.0,-15.0,29.0,-2.0,-5.0,-5.0,-8.0,-4.0
1.6951623620189115e+18,0.0,12.0,-6.0,-7.0,-4.0,-2.0,-1.0,-3.0
1.6951623620329006e+18,-5.0,-22.0,-39.0,-1.0,3.0,1.0,4.0,-16.0
1.6951623620329006e+18,-5.0,14.0,59.0,5.0,-5.0,-2.0,13.0,23.0
1.6951623620339026e+18,-4.0,-17.0,-20.0,1.0,4.0,1.0,-20.0,-23.0
1.6951623620349005e+18,0.0,2.0,-55.0,-6.0,1.0,3.0,9.0,16.0
1.6951623620767698e+18,9.0,17.0,78.0,-1.0,-4.0,-3.0,-16.0,-1.0
1.6951623620777784e+18,-12.0,-8.0,-3.0,-4.0,0.0,-2.0,0.0,-6.0
1.6951623620937585e+18,12.0,10.0,-67.0,-9.0,-7.0,-2.0,5.0,6.0
1.6951623620937585e+18,-8.0,7.0,54.0,2.0,-7.0,-7.0,-5.0,-14.0
1.6951623620947576e+18,-4.0,5.0,29.0,12.0,7.0,-3.0,-6.0,9.0
1.6951623620947576e+18,4.0,7.0,-4.0,1.0,-5.0,1.0,1.0,-11.0
1.6951623620947576e+18,-6.0,6.0,26.0,7.0,8.0,-1.0,4.0,0.0
1.6951623620947576e+18,0.0,-9.0,-26.0,-1.0,0.0,0.0,-10.0,-31.0
1.6951623621077501e+18,9.0,11.0,28.0,-2.0,-6.0,-3.0,1.0,39.0
1.6951623621077501e+18,7.0,-14.0,-15.0,5.0,9.0,6.0,11.0,-10.0
1.6951623621087498e+18,-4.0,6.0,-27.0,-5.0,-6.0,-1.0,2.0,9.0
1.6951623621097544e+18,11.0,-6.0,51.0,9.0,3.0,0.0,0.0,25.0
1.6951623621465265e+18,-12.0,-19.0,-9.0,-12.0,-5.0,-3.0,-5.0,-20.0
1.6951623621465265e+18,2.0,14.0,13.0,10.0,-8.0,-1.0,1.0,-20.0
1.6951623621475264e+18,5.0,-3.0,0.0,-9.0,-5.0,-3.0,2.0,9.0
1.6951623621485263e+18,0.0,11.0,47.0,13.0,11.0,5.0,0.0,1.0
1.6951623621525248e+18,-10.0,-6.0,-45.0,-3.0,-9.0,-4.0,2.0,-4.0
1.6951623621525248e+18,0.0,8.0,-9.0,-7.0,4.0,3.0,0.0,0.0
1.6951623621685148e+18,1.0,-4.0,15.0,-11.0,-5.0,-1.0,15.0,-2.0
1.6951623621695135e+18,-5.0,-33.0,-39.0,-14.0,-13.0,-11.0,-24.0,24.0
1.695162362183529e+18,8.0,24.0,-3.0,13.0,0.0,-4.0,-10.0,-3.0
1.695162362184509e+18,-14.0,-45.0,-8.0,-2.0,2.0,8.0,1.0,-3.0
1.695162362185506e+18,-8.0,14.0,4.0,4.0,6.0,1.0,1.0,4.0
1.695162362185506e+18,9.0,5.0,-18.0,-4.0,-4.0,-4.0,8.0,-11.0
1.695162362186504e+18,3.0,-19.0,11.0,-3.0,-8.0,-2.0,2.0,0.0
1.695162362186504e+18,7.0,23.0,30.0,7.0,19.0,3.0,7.0,7.0
1.6951623622751977e+18,-3.0,-34.0,-15.0,-2.0,-2.0,3.0,3.0,-17.0
1.6951623622751977e+18,-9.0,-12.0,-27.0,11.0,11.0,6.0,-1.0,32.0
1.6951623622751977e+18,25.0,-10.0,-4.0,-2.0,-10.0,-5.0,-1.0,9.0
1.6951623622761974e+18,-36.0,12.0,29.0,-20.0,-9.0,-6.0,-4.0,-42.0
1.6951623623101778e+18,0.0,25.0,12.0,5.0,1.0,1.0,0.0,19.0
1.6951623623101778e+18,11.0,-9.0,-35.0,-4.0,-3.0,0.0,11.0,-18.0
1.6951623623101778e+18,0.0,10.0,8.0,8.0,5.0,5.0,5.0,28.0
1.695162362311178e+18,14.0,-5.0,-33.0,-7.0,-2.0,-4.0,-7.0,-10.0
1.6951623623331876e+18,-14.0,-23.0,28.0,3.0,2.0,-6.0,-7.0,-24.0
1.6951623623341632e+18,2.0,-16.0,-50.0,-18.0,-8.0,3.0,-2.0,-47.0
1.6951623623351657e+18,-7.0,-18.0,30.0,27.0,17.0,11.0,6.0,6.0
1.6951623623351657e+18,16.0,13.0,-19.0,1.0,-1.0,-3.0,-1.0,11.0
1.6951623623361667e+18,-11.0,26.0,23.0,14.0,0.0,-5.0,-5.0,-9.0
1.6951623623361667e+18,7.0,28.0,6.0,-20.0,1.0,-4.0,-8.0,5.0
1.695162362379138e+18,-7.0,6.0,-18.0,-13.0,-9.0,-4.0,-8.0,-30.0
1.695162362379138e+18,4.0,4.0,-45.0,-4.0,0.0,4.0,-2.0,0.0
1.6951623623861338e+18,1.0,-12.0,-47.0,-6.0,-2.0,-3.0,-5.0,-15.0
1.695162362387137e+18,4.0,0.0,4.0,17.0,10.0,1.0,3.0,24.0
1.695162362388133e+18,11.0,8.0,-2.0,-14.0,-8.0,-6.0,-13.0,-6.0
1.695162362388133e+18,-9.0,-4.0,-5.0,3.0,-5.0,3.0,5.0,-7.0
1.695162362388133e+18,-8.0,-6.0,-9.0,0.0,5.0,2.0,2.0,0.0
1.6951623623891346e+18,-1.0,-18.0,-25.0,4.0,-3.0,-2.0,1.0,-6.0
1.6951623624291085e+18,2.0,-1.0,4.0,-17.0,-3.0,-3.0,-3.0,11.0
1.6951623624291085e+18,-11.0,2.0,23.0,9.0,-4.0,3.0,1.0,1.0
1.6951623624381036e+18,-4.0,-4.0,17.0,7.0,-2.0,-7.0,0.0,8.0
1.6951623624381036e+18,-2.0,-4.0,-39.0,11.0,4.0,0.0,-7.0,4.0
1.6951623624451013e+18,-1.0,0.0,-23.0,-7.0,2.0,2.0,8.0,8.0
1.6951623624461018e+18,-4.0,2.0,-11.0,-9.0,-9.0,-7.0,-11.0,-4.0
1.695162362447101e+18,8.0,0.0,15.0,-4.0,1.0,2.0,2.0,14.0
1.695162362447101e+18,2.0,10.0,5.0,-1.0,2.0,2.0,-1.0,-17.0
1.6951623624480978e+18,-3.0,-5.0,-23.0,3.0,3.0,1.0,-1.0,0.0
1.6951623624480978e+18,3.0,-9.0,-6.0,0.0,-9.0,-2.0,4.0,9.0
1.6951623624900739e+18,-1.0,9.0,16.0,2.0,1.0,-2.0,-3.0,-5.0
1.6951623624900739e+18,-5.0,-16.0,-41.0,-11.0,-4.0,-4.0,-5.0,-9.0
1.695162362500069e+18,5.0,-3.0,-8.0,-5.0,-5.0,-3.0,0.0,5.0
1.695162362500069e+18,-9.0,-8.0,7.0,3.0,1.0,3.0,4.0,-4.0
1.6951623625010685e+18,-1.0,11.0,40.0,-4.0,-2.0,-3.0,-4.0,1.0
1.6951623625010685e+18,4.0,10.0,12.0,5.0,2.0,-1.0,0.0,-4.0
1.6951623625373294e+18,-1.0,-18.0,-36.0,1.0,4.0,0.0,2.0,4.0
1.6951623625373294e+18,-2.0,-14.0,-12.0,-2.0,0.0,1.0,1.0,2.0
1.69516236253831e+18,4.0,2.0,14.0,2.0,1.0,0.0,-4.0,6.0
1.69516236253831e+18,-3.0,4.0,-17.0,-2.0,0.0,0.0,3.0,-2.0
1.6951623625687987e+18,3.0,6.0,12.0,0.0,-1.0,-2.0,-2.0,7.0
1.6951623625727985e+18,-5.0,-17.0,-5.0,3.0,0.0,1.0,-1.0,1.0
1.6951623625727985e+18,8.0,-6.0,-10.0,-3.0,0.0,4.0,2.0,7.0
1.6951623625738033e+18,3.0,3.0,-12.0,-1.0,-1.0,-2.0,0.0,-5.0
1.6951623625738033e+18,-9.0,-2.0,44.0,5.0,0.0,-2.0,-6.0,-7.0
1.6951623625738033e+18,7.0,9.0,-8.0,-3.0,1.0,0.0,1.0,3.0
1.6951623625738033e+18,2.0,1.0,14.0,1.0,-2.0,-1.0,0.0,5.0
1.6951623625747963e+18,-1.0,4.0,-5.0,0.0,0.0,-1.0,0.0,-2.0
1.6951623625757952e+18,6.0,-2.0,3.0,2.0,-2.0,0.0,0.0,4.0
1.695162362576794e+18,5.0,15.0,23.0,-1.0,-2.0,-1.0,-4.0,-1.0
1.6951623626475587e+18,-1.0,-6.0,-13.0,-1.0,1.0,0.0,0.0,3.0
1.695162362648565e+18,-2.0,4.0,13.0,-1.0,-2.0,0.0,-1.0,-2.0
1.6951623626815416e+18,-2.0,-1.0,-22.0,0.0,1.0,1.0,-1.0,0.0
1.6951623627085243e+18,4.0,8.0,6.0,-1.0,1.0,-1.0,-1.0,-2.0
1.6951623627095247e+18,1.0,2.0,2.0,1.0,0.0,1.0,-1.0,4.0
1.695162362710522e+18,-9.0,-5.0,-23.0,-1.0,0.0,1.0,-1.0,-12.0
1.695162362710522e+18,-10.0,-2.0,-8.0,-1.0,1.0,1.0,0.0,-4.0
1.6951623627125212e+18,1.0,-4.0,-9.0,-2.0,-3.0,-2.0,-3.0,-3.0
1.6951623627135206e+18,3.0,0.0,-9.0,-2.0,-2.0,-2.0,0.0,3.0
1.6951623627135206e+18,6.0,2.0,11.0,-3.0,-1.0,-1.0,-1.0,3.0
1.6951623627135206e+18,2.0,2.0,-11.0,-1.0,-2.0,1.0,1.0,2.0
1.6951623627135206e+18,5.0,-1.0,12.0,3.0,-1.0,0.0,-3.0,-3.0
1.6951623627155197e+18,-3.0,-1.0,-26.0,4.0,1.0,-2.0,0.0,3.0
1.6951623627165192e+18,-1.0,7.0,7.0,4.0,-1.0,0.0,0.0,-11.0
1.6951623627235182e+18,-4.0,-8.0,-13.0,1.0,1.0,-1.0,-1.0,0.0
1.6951623627245153e+18,-4.0,-1.0,11.0,5.0,2.0,-1.0,-1.0,-5.0
1.6951623627275136e+18,5.0,-1.0,-1.0,-8.0,-3.0,-1.0,-1.0,3.0
1.6951623627275136e+18,4.0,-1.0,-5.0,-4.0,1.0,-1.0,1.0,8.0
1.6951623627285133e+18,-4.0,-3.0,-20.0,-4.0,-2.0,-1.0,0.0,1.0
1.6951623627285133e+18,-4.0,-1.0,-15.0,-3.0,-1.0,-3.0,-3.0,-1.0
1.6951623627375048e+18,6.0,1.0,5.0,2.0,0.0,-2.0,-2.0,-4.0
1.6951623627375048e+18,-3.0,-4.0,-2.0,-3.0,-3.0,-1.0,-1.0,3.0
1.6951623627405064e+18,-6.0,3.0,13.0,1.0,-1.0,0.0,-4.0,-21.0
1.695162362742503e+18,2.0,-8.0,-10.0,-3.0,-1.0,1.0,0.0,3.0
1.695162362759494e+18,-2.0,1.0,2.0,0.0,0.0,2.0,0.0,0.0
1.6951623627604918e+18,0.0,-3.0,-1.0,-3.0,-1.0,-3.0,-1.0,3.0
1.695162362761492e+18,2.0,2.0,5.0,-1.0,-2.0,-2.0,0.0,4.0
1.695162362761492e+18,0.0,0.0,0.0,3.0,1.0,-2.0,0.0,-2.0
1.6951623627754898e+18,2.0,0.0,-2.0,-3.0,-1.0,-2.0,-1.0,-3.0
1.6951623627754898e+18,1.0,-3.0,-3.0,-1.0,0.0,1.0,0.0,3.0
1.6951623627764836e+18,-3.0,0.0,-2.0,0.0,-1.0,0.0,-1.0,4.0
1.6951623627764836e+18,0.0,0.0,-1.0,1.0,1.0,0.0,-1.0,-1.0
1.6951623627884756e+18,-4.0,0.0,3.0,-1.0,0.0,0.0,-1.0,1.0
1.6951623627884756e+18,2.0,1.0,1.0,1.0,-1.0,-1.0,0.0,0.0
1.695162362813462e+18,-3.0,1.0,1.0,0.0,1.0,0.0,1.0,3.0
1.695162362814461e+18,3.0,0.0,2.0,-2.0,0.0,0.0,-1.0,-1.0
1.695162362814461e+18,-3.0,-2.0,2.0,0.0,1.0,1.0,0.0,-2.0
1.695162362814461e+18,1.0,-2.0,-1.0,-1.0,-2.0,-2.0,-1.0,1.0
1.6951623628264548e+18,-1.0,0.0,0.0,-1.0,-1.0,0.0,-1.0,0.0
1.6951623628264548e+18,2.0,0.0,-3.0,-1.0,-3.0,-2.0,-2.0,2.0
1.6951623628344517e+18,-3.0,-1.0,0.0,-1.0,1.0,0.0,-2.0,-2.0
1.6951623628344517e+18,-1.0,-2.0,0.0,0.0,0.0,-1.0,-1.0,-2.0
1.6951623628423593e+18,-1.0,1.0,0.0,-3.0,-3.0,0.0,2.0,2.0
1.6951623628423593e+18,1.0,-1.0,0.0,-3.0,-2.0,-1.0,-1.0,0.0
1.695162362848358e+18,0.0,-1.0,2.0,0.0,-1.0,0.0,-1.0,-1.0
1.695162362848358e+18,4.0,-1.0,-1.0,0.0,-1.0,-1.0,-1.0,1.0
1.6951623628603492e+18,0.0,-1.0,1.0,-2.0,-1.0,-2.0,-1.0,1.0
1.6951623628603492e+18,-3.0,0.0,0.0,0.0,1.0,0.0,-1.0,0.0
1.6951623628796416e+18,-2.0,-1.0,0.0,-1.0,-2.0,-1.0,-1.0,-2.0
1.6951623628803702e+18,1.0,-2.0,-2.0,-1.0,-1.0,0.0,0.0,1.0
1.6951623628863741e+18,-3.0,0.0,0.0,1.0,0.0,-1.0,0.0,-2.0
1.6951623628863741e+18,8.0,0.0,1.0,-1.0,-1.0,0.0,0.0,1.0
1.6951623629267126e+18,0.0,-1.0,-4.0,1.0,-1.0,-1.0,-1.0,-2.0
1.6951623629267126e+18,-2.0,-1.0,3.0,-2.0,-3.0,0.0,-1.0,1.0
1.695162362927876e+18,0.0,0.0,1.0,0.0,0.0,-1.0,-1.0,0.0
1.695162362927876e+18,-2.0,-1.0,-2.0,0.0,-1.0,0.0,-2.0,-1.0
1.6951623629288812e+18,-1.0,-2.0,2.0,0.0,-1.0,0.0,0.0,-2.0
1.6951623629288812e+18,-1.0,-1.0,-2.0,-3.0,0.0,-1.0,-1.0,-1.0
1.695162362942545e+18,-3.0,-1.0,-2.0,-1.0,0.0,0.0,-1.0,-2.0
1.695162362942545e+18,-1.0,-1.0,1.0,-2.0,0.0,0.0,-1.0,0.0
1.695162362942545e+18,1.0,0.0,2.0,-2.0,-2.0,-1.0,-1.0,1.0
1.695162362943546e+18,-2.0,0.0,-2.0,0.0,-2.0,1.0,1.0,-2.0
1.6951623629556045e+18,0.0,0.0,0.0,0.0,-2.0,-1.0,-1.0,-1.0
1.6951623629556045e+18,-2.0,-1.0,-3.0,0.0,0.0,0.0,0.0,-1.0
1.6951623629565852e+18,-2.0,-2.0,-1.0,1.0,1.0,-1.0,0.0,0.0
1.6951623629565852e+18,-1.0,-2.0,-2.0,0.0,0.0,-2.0,-1.0,0.0
1.6951623629575875e+18,0.0,-1.0,-1.0,0.0,-2.0,-1.0,-1.0,0.0
1.695162362958582e+18,1.0,-1.0,-2.0,1.0,-2.0,0.0,0.0,-1.0
1.6951623629784594e+18,-1.0,0.0,-1.0,-2.0,0.0,-2.0,-2.0,0.0
1.6951623629784594e+18,-2.0,0.0,-1.0,0.0,-2.0,-2.0,-3.0,-2.0
1.695162362979459e+18,1.0,-1.0,-2.0,-3.0,-1.0,0.0,-1.0,-1.0
1.695162362979459e+18,-2.0,0.0,0.0,-2.0,0.0,-3.0,0.0,-2.0
1.6951623629925834e+18,0.0,2.0,1.0,0.0,1.0,-3.0,0.0,0.0
1.6951623629925834e+18,-1.0,-2.0,-1.0,-1.0,-1.0,-1.0,-2.0,0.0
1.6951623629995786e+18,-3.0,0.0,1.0,0.0,-1.0,-1.0,1.0,0.0
1.6951623629995786e+18,0.0,0.0,-3.0,-1.0,-2.0,0.0,-1.0,-1.0
1.6951623630155702e+18,-2.0,-1.0,0.0,-1.0,-2.0,-1.0,-1.0,-1.0
1.6951623630165693e+18,0.0,0.0,0.0,0.0,-1.0,1.0,-1.0,0.0
1.6951623630185697e+18,-1.0,0.0,-1.0,0.0,-2.0,-1.0,0.0,-1.0
1.6951623630195676e+18,-1.0,-2.0,-1.0,-2.0,-1.0,-2.0,-2.0,-2.0
1.695162363037564e+18,-2.0,-1.0,-2.0,-2.0,0.0,-2.0,-1.0,-1.0
1.6951623630385636e+18,-1.0,-2.0,0.0,-1.0,1.0,-2.0,-1.0,-2.0
1.6951623630395566e+18,-1.0,0.0,0.0,-1.0,0.0,1.0,-1.0,-1.0
1.6951623630395566e+18,-2.0,0.0,0.0,1.0,-1.0,0.0,-2.0,-2.0
1.6951623630525494e+18,1.0,-1.0,-2.0,0.0,-1.0,0.0,0.0,-1.0
1.695162363053549e+18,-2.0,0.0,-1.0,-2.0,-1.0,0.0,0.0,0.0
1.6951623630595456e+18,0.0,-1.0,1.0,-1.0,0.0,-1.0,-1.0,-1.0
1.6951623630595456e+18,-1.0,0.0,0.0,-1.0,1.0,0.0,1.0,-1.0
1.6951623630905298e+18,-1.0,-2.0,0.0,-2.0,-2.0,1.0,-2.0,0.0
1.695162363091528e+18,0.0,-1.0,-3.0,-1.0,0.0,0.0,0.0,-1.0
1.6951623630925297e+18,0.0,-1.0,-1.0,0.0,0.0,-1.0,-1.0,0.0
1.6951623630935268e+18,-1.0,1.0,-1.0,-1.0,-1.0,0.0,-1.0,2.0
1.6951623631055186e+18,0.0,0.0,0.0,1.0,-3.0,1.0,-1.0,-2.0
1.6951623631065178e+18,0.0,0.0,-2.0,1.0,-1.0,-3.0,1.0,0.0
1.6951623631075182e+18,0.0,2.0,-1.0,0.0,0.0,-2.0,-1.0,0.0
1.6951623631085215e+18,0.0,-2.0,-1.0,-2.0,-1.0,-1.0,1.0,1.0
1.6951623631205097e+18,0.0,-1.0,-1.0,-2.0,0.0,0.0,0.0,0.0
1.69516236312151e+18,-2.0,-1.0,0.0,-1.0,1.0,0.0,-2.0,-1.0
1.6951623631225103e+18,-1.0,-1.0,0.0,-1.0,0.0,1.0,-2.0,-1.0
1.6951623631235082e+18,-1.0,-1.0,0.0,-1.0,0.0,-1.0,0.0,-2.0
1.6951623631504927e+18,-1.0,0.0,-2.0,0.0,-2.0,-3.0,-1.0,-1.0
1.6951623631514934e+18,2.0,-2.0,0.0,0.0,-2.0,-2.0,-2.0,0.0
1.6951623631524982e+18,-1.0,-1.0,-1.0,-1.0,0.0,-1.0,-1.0,0.0
1.695162363153491e+18,-2.0,-2.0,-1.0,-2.0,-1.0,-1.0,-2.0,-1.0
1.6951623631654838e+18,-1.0,-1.0,0.0,0.0,-1.0,-1.0,-2.0,-2.0
1.6951623631664916e+18,-1.0,0.0,0.0,0.0,0.0,0.0,-1.0,0.0
1.6951623631674885e+18,-1.0,-2.0,-1.0,-2.0,1.0,-3.0,1.0,-2.0
1.6951623631674885e+18,1.0,-1.0,-1.0,-1.0,-1.0,-1.0,0.0,-1.0
1.695162363180476e+18,-2.0,-1.0,1.0,-1.0,-1.0,0.0,-1.0,-2.0
1.6951623631814766e+18,0.0,1.0,0.0,1.0,-2.0,0.0,0.0,-1.0
1.6951623631824745e+18,0.0,-1.0,-1.0,1.0,-2.0,0.0,-1.0,0.0
1.6951623631824745e+18,1.0,-1.0,-2.0,1.0,0.0,0.0,-1.0,-2.0
1.6951623632024632e+18,-1.0,0.0,-2.0,-2.0,0.0,0.0,-2.0,1.0
1.6951623632044623e+18,-1.0,-1.0,0.0,-1.0,-1.0,-1.0,1.0,1.0
1.6951623632054618e+18,-2.0,0.0,0.0,-2.0,-2.0,0.0,0.0,0.0
1.6951623632054618e+18,-1.0,0.0,-1.0,-1.0,0.0,-1.0,0.0,0.0
1.695162363220453e+18,-1.0,0.0,0.0,0.0,0.0,-1.0,1.0,-2.0
1.6951623632394424e+18,-1.0,-2.0,-1.0,-3.0,-2.0,0.0,-1.0,-2.0
1.6951623632394424e+18,0.0,-1.0,0.0,-2.0,-2.0,0.0,-1.0,-1.0
1.6951623632394424e+18,0.0,-1.0,1.0,-1.0,-1.0,-1.0,-1.0,-1.0
1.6951623632404431e+18,-1.0,-1.0,1.0,-1.0,0.0,-1.0,-2.0,-1.0
1.695162363241443e+18,-1.0,-2.0,1.0,-1.0,-2.0,0.0,-1.0,0.0
1.6951623632434424e+18,0.0,1.0,-1.0,0.0,-1.0,-2.0,0.0,0.0
1.6951623632464407e+18,-2.0,0.0,0.0,1.0,-2.0,-2.0,-1.0,-1.0
1.695162363256432e+18,0.0,-1.0,-1.0,-1.0,0.0,-1.0,2.0,1.0
1.6951623632584394e+18,-2.0,-1.0,0.0,-1.0,0.0,-1.0,-1.0,-1.0
1.695162363259433e+18,0.0,-1.0,-1.0,-2.0,0.0,-2.0,-2.0,0.0
1.6951623632604303e+18,-1.0,0.0,-1.0,-1.0,0.0,0.0,0.0,-2.0
1.695162363281418e+18,-1.0,-1.0,-2.0,-1.0,0.0,-1.0,-2.0,0.0
1.695162363282418e+18,0.0,0.0,0.0,-1.0,0.0,-1.0,-2.0,1.0
1.6951623632944174e+18,-1.0,0.0,-2.0,1.0,-1.0,-2.0,-1.0,-2.0
1.695162363295411e+18,0.0,-1.0,0.0,-2.0,-1.0,0.0,-2.0,0.0
1.69516236329641e+18,-2.0,-1.0,-2.0,-1.0,-1.0,-1.0,0.0,-2.0
1.69516236329741e+18,-2.0,-1.0,-1.0,-1.0,0.0,-1.0,-2.0,0.0
1.6951623633143985e+18,-1.0,-2.0,0.0,-1.0,0.0,0.0,-1.0,-1.0
1.6951623633143985e+18,-1.0,-2.0,0.0,-1.0,0.0,1.0,0.0,-1.0
1.6951623633303885e+18,-1.0,0.0,1.0,0.0,-1.0,-2.0,-1.0,-1.0
1.6951623633303885e+18,-1.0,0.0,0.0,-2.0,0.0,0.0,0.0,-3.0
1.6951623633323878e+18,-1.0,-3.0,-1.0,-2.0,-2.0,-1.0,0.0,0.0
1.6951623633333878e+18,-2.0,0.0,-1.0,0.0,-1.0,-2.0,-2.0,-1.0
1.695162363337385e+18,0.0,-2.0,-2.0,-1.0,-2.0,1.0,-1.0,-1.0
1.6951623633383846e+18,0.0,-1.0,-1.0,-2.0,-1.0,-1.0,0.0,0.0
1.695162363339385e+18,0.0,0.0,0.0,-1.0,-2.0,-1.0,-1.0,-1.0
1.695162363339385e+18,1.0,0.0,-2.0,-1.0,-2.0,-2.0,-1.0,0.0
1.695162363371365e+18,-1.0,0.0,-2.0,1.0,0.0,-1.0,-3.0,-1.0
1.695162363371365e+18,1.0,-1.0,-2.0,-1.0,-1.0,-2.0,0.0,-2.0
1.695162363372364e+18,-1.0,-1.0,0.0,-1.0,1.0,0.0,-1.0,0.0
1.695162363372364e+18,-1.0,-1.0,0.0,-3.0,-2.0,1.0,-1.0,-1.0
1.6951623633823585e+18,-1.0,-1.0,1.0,-1.0,-1.0,0.0,0.0,-2.0
1.69516236338336e+18,0.0,0.0,-1.0,1.0,-1.0,-1.0,0.0,0.0
1.6951623633843581e+18,-1.0,0.0,-1.0,-1.0,-2.0,-3.0,1.0,0.0
1.6951623633843581e+18,-1.0,-2.0,0.0,-1.0,0.0,-2.0,0.0,0.0
1.69516236339735e+18,1.0,0.0,0.0,-1.0,-1.0,-1.0,-1.0,1.0
1.6951623633983498e+18,-3.0,-2.0,-1.0,-2.0,1.0,1.0,-3.0,-1.0
1.6951623633993485e+18,-1.0,-2.0,0.0,-1.0,-1.0,0.0,-1.0,0.0
1.6951623634003512e+18,-1.0,-1.0,-2.0,3.0,-1.0,-1.0,-1.0,0.0
1.6951623634273556e+18,-1.0,-1.0,-1.0,0.0,0.0,-1.0,-1.0,-1.0
1.6951623634273556e+18,-1.0,1.0,-1.0,0.0,-1.0,-1.0,-1.0,0.0
1.6951623634293312e+18,0.0,0.0,-1.0,1.0,-1.0,-2.0,-2.0,-3.0
1.6951623634293312e+18,0.0,-2.0,0.0,-1.0,-2.0,1.0,0.0,-1.0
1.695162363435328e+18,-1.0,-1.0,-1.0,-2.0,0.0,-1.0,-2.0,-2.0
1.695162363435328e+18,1.0,-1.0,0.0,-2.0,0.0,-2.0,0.0,1.0
1.695162363436327e+18,-1.0,-1.0,-1.0,-2.0,0.0,1.0,-1.0,-2.0
1.695162363436327e+18,-1.0,1.0,0.0,1.0,-1.0,-1.0,0.0,0.0
1.6951623634573386e+18,-1.0,-1.0,-4.0,-1.0,-1.0,0.0,0.0,0.0
1.6951623634573386e+18,-1.0,1.0,5.0,0.0,-1.0,-1.0,0.0,-2.0
1.6951623634593203e+18,-2.0,0.0,-2.0,-3.0,0.0,-1.0,0.0,1.0
1.6951623634593203e+18,0.0,-1.0,0.0,-1.0,0.0,-1.0,1.0,-1.0
1.69516236347131e+18,-2.0,-1.0,0.0,-1.0,1.0,-1.0,1.0,0.0
1.69516236347131e+18,-2.0,-2.0,-3.0,0.0,-1.0,-1.0,-2.0,0.0
1.6951623634823014e+18,0.0,0.0,0.0,0.0,1.0,1.0,-2.0,0.0
1.6951623634833032e+18,-2.0,-1.0,-1.0,-2.0,1.0,0.0,-3.0,-1.0
1.6951623634962954e+18,-1.0,1.0,0.0,0.0,-2.0,-1.0,-1.0,-1.0
1.6951623634962954e+18,-1.0,-2.0,-1.0,0.0,-1.0,0.0,0.0,0.0
1.6951623634972928e+18,0.0,-1.0,0.0,0.0,-2.0,-2.0,-2.0,-1.0
1.6951623634972928e+18,1.0,0.0,-3.0,-1.0,-2.0,0.0,-1.0,0.0
1.6951623635182833e+18,-2.0,-1.0,1.0,-2.0,0.0,-1.0,0.0,-1.0
1.6951623635192845e+18,-2.0,-1.0,-3.0,0.0,-1.0,-1.0,-1.0,-3.0
1.6951623635192845e+18,-2.0,-2.0,0.0,1.0,-1.0,-1.0,1.0,0.0
1.6951623635192845e+18,0.0,-1.0,0.0,0.0,0.0,-1.0,0.0,0.0
1.695162363531296e+18,0.0,-1.0,0.0,0.0,-2.0,1.0,1.0,0.0
1.695162363531296e+18,-1.0,-2.0,-3.0,-1.0,-2.0,-2.0,-1.0,-1.0
1.6951623635502674e+18,0.0,0.0,-2.0,0.0,0.0,-3.0,1.0,0.0
1.6951623635552614e+18,-1.0,0.0,1.0,-2.0,-1.0,-2.0,-2.0,-2.0
1.6951623635552614e+18,-1.0,-1.0,-1.0,-1.0,-3.0,-1.0,0.0,-1.0
1.6951623635562588e+18,-2.0,0.0,1.0,0.0,0.0,1.0,-1.0,-2.0
1.6951623635572585e+18,-2.0,-2.0,0.0,0.0,0.0,0.0,0.0,-2.0
1.6951623635572585e+18,1.0,-1.0,-1.0,-1.0,1.0,-2.0,1.0,-1.0
1.6951623635850383e+18,1.0,-1.0,-1.0,0.0,1.0,-2.0,-3.0,-1.0
1.6951623635850383e+18,1.0,-2.0,-1.0,-1.0,0.0,-1.0,0.0,0.0
1.69516236358604e+18,0.0,-1.0,0.0,-2.0,-2.0,0.0,0.0,0.0
1.6951623635870372e+18,-1.0,0.0,0.0,-1.0,0.0,-1.0,1.0,-1.0
1.6951623636069732e+18,0.0,-2.0,1.0,0.0,0.0,-2.0,-1.0,-1.0
1.6951623636079496e+18,0.0,0.0,-2.0,0.0,-2.0,-1.0,-2.0,-2.0
1.695162363608949e+18,-1.0,0.0,0.0,-1.0,0.0,0.0,0.0,-1.0
1.6951623636099538e+18,0.0,-2.0,1.0,-1.0,0.0,1.0,-1.0,0.0
1.6951623636229445e+18,-3.0,-1.0,0.0,-1.0,1.0,1.0,-2.0,-1.0
1.6951623636229445e+18,-2.0,1.0,-1.0,-1.0,0.0,-1.0,-2.0,0.0
1.6951623636239396e+18,0.0,0.0,0.0,0.0,-1.0,-1.0,-2.0,-2.0
1.6951623636239396e+18,-1.0,0.0,-1.0,0.0,0.0,-2.0,-1.0,0.0
1.695162363644916e+18,-1.0,0.0,1.0,0.0,0.0,-1.0,0.0,0.0
1.6951623636455475e+18,-2.0,-1.0,0.0,-2.0,0.0,-1.0,-1.0,1.0
1.695162363646574e+18,0.0,-1.0,-4.0,0.0,0.0,0.0,-2.0,-2.0
1.695162363646574e+18,-2.0,0.0,0.0,0.0,-1.0,0.0,-2.0,2.0
1.695162363660185e+18,-1.0,-1.0,-1.0,-1.0,-1.0,1.0,0.0,-2.0
1.695162363660185e+18,1.0,2.0,-1.0,0.0,-3.0,1.0,1.0,-2.0
1.6951623636611845e+18,0.0,-1.0,-1.0,0.0,0.0,-1.0,-1.0,0.0
1.6951623636611845e+18,0.0,1.0,-1.0,0.0,-1.0,-2.0,-1.0,1.0
1.6951623636850903e+18,-1.0,-3.0,-2.0,-1.0,1.0,-3.0,-1.0,-2.0
1.6951623636901e+18,0.0,-1.0,-2.0,-2.0,0.0,1.0,-1.0,0.0
1.6951623636901e+18,-1.0,-3.0,-1.0,0.0,-1.0,-3.0,-1.0,0.0
1.6951623636901e+18,-1.0,-1.0,-2.0,-1.0,-2.0,1.0,-1.0,-3.0
1.695162363722067e+18,0.0,0.0,-1.0,0.0,-1.0,-2.0,-3.0,-2.0
1.695162363722067e+18,-1.0,-1.0,-1.0,0.0,1.0,-2.0,0.0,-2.0
1.6951623637230671e+18,0.0,0.0,0.0,0.0,0.0,0.0,-2.0,0.0
1.6951623637230671e+18,-1.0,-1.0,-1.0,-2.0,0.0,-1.0,-1.0,0.0
1.695162363724067e+18,0.0,0.0,0.0,-1.0,-3.0,1.0,-2.0,0.0
1.695162363724067e+18,-2.0,-1.0,-1.0,0.0,-1.0,-2.0,-2.0,1.0
1.695162363736062e+18,-1.0,-1.0,1.0,-2.0,-2.0,-1.0,0.0,0.0
1.695162363736062e+18,0.0,0.0,-2.0,-1.0,-2.0,-2.0,0.0,-1.0
1.695162363737063e+18,-1.0,-1.0,1.0,-2.0,-1.0,-1.0,-1.0,-2.0
1.695162363737063e+18,-1.0,-1.0,1.0,-3.0,-1.0,-1.0,-1.0,-2.0
1.6951623637610458e+18,-1.0,-1.0,0.0,-1.0,-1.0,-1.0,0.0,0.0
1.695162363762046e+18,-1.0,0.0,0.0,-1.0,-2.0,0.0,1.0,-2.0
1.6951623637630477e+18,-1.0,0.0,-1.0,0.0,-2.0,0.0,0.0,-1.0
1.6951623637630477e+18,-2.0,0.0,-3.0,1.0,-1.0,1.0,-1.0,-3.0
1.6951623637630477e+18,-1.0,0.0,-2.0,0.0,1.0,0.0,0.0,-1.0
1.6951623637640443e+18,-2.0,-1.0,1.0,-1.0,0.0,0.0,-1.0,-3.0
1.6951623637710392e+18,0.0,-2.0,-2.0,0.0,-1.0,-1.0,-2.0,-1.0
1.6951623637710392e+18,-1.0,-2.0,-1.0,-2.0,-2.0,-2.0,0.0,-2.0
1.6951623637800612e+18,-1.0,-2.0,-1.0,-1.0,-1.0,0.0,-1.0,-2.0
1.6951623637800612e+18,0.0,0.0,-1.0,-1.0,0.0,-1.0,0.0,-1.0
1.6951623637942664e+18,-2.0,-3.0,1.0,0.0,1.0,-1.0,0.0,0.0
1.6951623637942664e+18,0.0,-1.0,0.0,-1.0,-1.0,-1.0,0.0,1.0
1.6951623638090972e+18,-2.0,-2.0,-1.0,-1.0,-1.0,0.0,-2.0,0.0
1.6951623638090972e+18,0.0,0.0,-2.0,-2.0,-1.0,-1.0,-2.0,-1.0
1.6951623638165632e+18,0.0,0.0,-2.0,-3.0,-1.0,-1.0,0.0,-1.0
1.6951623638165632e+18,-2.0,0.0,-1.0,0.0,1.0,-2.0,0.0,-1.0
1.695162363833211e+18,1.0,0.0,0.0,0.0,-2.0,-2.0,1.0,-1.0
1.695162363833211e+18,-2.0,-1.0,0.0,0.0,0.0,-1.0,0.0,-1.0
1.6951623638342108e+18,0.0,1.0,-2.0,-1.0,0.0,-2.0,0.0,-2.0
1.6951623638342108e+18,1.0,-1.0,-3.0,-2.0,-2.0,-1.0,0.0,0.0
1.6951623638482043e+18,-1.0,-1.0,0.0,-1.0,0.0,0.0,0.0,-1.0
1.6951623638492086e+18,-1.0,1.0,0.0,-1.0,-1.0,0.0,-1.0,0.0
1.6951623638711908e+18,-1.0,-1.0,-2.0,-1.0,-2.0,0.0,-2.0,1.0
1.6951623638902116e+18,0.0,-1.0,-1.0,-2.0,1.0,-2.0,-2.0,0.0
1.695162363891181e+18,-1.0,-1.0,-1.0,-2.0,0.0,0.0,-2.0,-1.0
1.695162363892179e+18,-1.0,-1.0,-2.0,-1.0,0.0,-1.0,-1.0,-2.0
1.6951623638931776e+18,-1.0,-1.0,0.0,-1.0,0.0,0.0,0.0,1.0
1.6951623638931776e+18,-1.0,0.0,1.0,-1.0,-2.0,0.0,0.0,0.0
1.6951623638941783e+18,0.0,-1.0,-1.0,-1.0,0.0,0.0,-1.0,0.0
1.6951623638951762e+18,-1.0,-1.0,-1.0,0.0,0.0,-3.0,0.0,1.0
1.695162363901174e+18,-1.0,-1.0,0.0,-1.0,-2.0,1.0,-1.0,-2.0
1.695162363901174e+18,-1.0,-1.0,0.0,-2.0,1.0,1.0,0.0,-3.0
1.6951623639021727e+18,0.0,-1.0,-1.0,-1.0,0.0,-2.0,-1.0,-2.0
1.6951623639021727e+18,0.0,-2.0,0.0,2.0,-1.0,0.0,-3.0,2.0
1.695162363923161e+18,-1.0,1.0,-2.0,1.0,-1.0,1.0,1.0,-1.0
1.6951623639241618e+18,1.0,0.0,-3.0,1.0,0.0,0.0,-2.0,0.0
1.6951623639241618e+18,0.0,0.0,0.0,0.0,-1.0,0.0,0.0,-1.0
1.6951623639251604e+18,0.0,-2.0,0.0,-1.0,-1.0,0.0,1.0,-2.0
1.6951623639381524e+18,1.0,-2.0,-1.0,-1.0,0.0,-3.0,0.0,0.0
1.695162363939151e+18,-1.0,0.0,0.0,0.0,-1.0,0.0,-1.0,-1.0
1.6951623639401508e+18,-1.0,0.0,-1.0,-1.0,0.0,-1.0,0.0,-2.0
1.69516236394115e+18,-1.0,0.0,-2.0,-1.0,-3.0,-1.0,-1.0,0.0
1.6951623639611392e+18,0.0,1.0,0.0,-1.0,0.0,-1.0,-1.0,-1.0
1.6951623639611392e+18,0.0,-2.0,-1.0,-2.0,0.0,0.0,0.0,-1.0
1.6951623639621391e+18,-2.0,-1.0,-1.0,0.0,0.0,0.0,0.0,1.0
1.6951623639631442e+18,-1.0,0.0,0.0,-2.0,1.0,-1.0,0.0,0.0
1.6951623639751316e+18,-1.0,-1.0,0.0,-1.0,-1.0,0.0,0.0,1.0
1.6951623639761303e+18,-1.0,-1.0,-2.0,0.0,-1.0,-1.0,-2.0,-1.0
1.695162363983126e+18,-1.0,-1.0,0.0,0.0,-1.0,-2.0,0.0,-3.0
1.695162363983126e+18,-1.0,-2.0,0.0,-1.0,-1.0,0.0,1.0,0.0
1.6951623640051261e+18,-1.0,-2.0,0.0,0.0,-2.0,0.0,-1.0,-1.0
1.695162364013116e+18,-1.0,-1.0,0.0,0.0,-1.0,0.0,0.0,0.0
1.695162364014114e+18,0.0,-1.0,-1.0,1.0,-1.0,0.0,-1.0,2.0
1.695162364014114e+18,0.0,-1.0,0.0,0.0,-2.0,-1.0,-1.0,-1.0
1.6951623640350968e+18,-3.0,-1.0,0.0,-2.0,1.0,-1.0,-1.0,0.0
1.6951623640361006e+18,0.0,-1.0,-1.0,-1.0,-1.0,-1.0,0.0,-1.0
1.6951623640460902e+18,0.0,-1.0,-2.0,-1.0,-1.0,1.0,-1.0,-1.0
1.69516236404709e+18,0.0,1.0,-2.0,-1.0,-1.0,0.0,-2.0,-1.0
1.69516236404709e+18,-1.0,-2.0,0.0,-1.0,-3.0,-1.0,0.0,-2.0
1.6951623640480893e+18,0.0,0.0,0.0,0.0,-1.0,-3.0,0.0,-1.0
1.6951623640490885e+18,0.0,-1.0,0.0,0.0,-2.0,-1.0,-1.0,-1.0
1.6951623640490885e+18,-1.0,-1.0,-1.0,-1.0,-1.0,-2.0,2.0,-2.0
1.6951623640650783e+18,0.0,-1.0,-2.0,0.0,0.0,-1.0,0.0,-1.0
1.695162364066079e+18,-2.0,-1.0,-2.0,1.0,-1.0,0.0,0.0,-2.0
1.6951623640670781e+18,0.0,0.0,0.0,0.0,-1.0,-1.0,1.0,-1.0
1.6951623640680773e+18,-1.0,-1.0,-1.0,-1.0,-1.0,-1.0,-2.0,-2.0
1.6951623640800707e+18,-1.0,0.0,-1.0,1.0,-3.0,-3.0,-1.0,1.0
1.695162364081076e+18,-1.0,0.0,0.0,-2.0,-1.0,-1.0,0.0,-1.0
1.6951623640820708e+18,-2.0,-1.0,-1.0,-1.0,-1.0,0.0,-1.0,-1.0
1.6951623640820708e+18,0.0,-1.0,0.0,0.0,-2.0,0.0,0.0,-1.0
1.6951623640940675e+18,1.0,0.0,-1.0,-1.0,1.0,0.0,-3.0,0.0
1.6951623640950697e+18,-1.0,1.0,1.0,-2.0,0.0,-1.0,-2.0,0.0
1.6951623641030584e+18,0.0,-1.0,-1.0,-2.0,-2.0,-1.0,-1.0,0.0
1.6951623641040579e+18,0.0,-2.0,-1.0,-2.0,0.0,0.0,-1.0,-2.0
1.6951623641360415e+18,-1.0,-1.0,1.0,0.0,0.0,-1.0,1.0,0.0
1.695162364139044e+18,-1.0,-1.0,0.0,-1.0,0.0,-1.0,-1.0,0.0
1.695162364141038e+18,0.0,-1.0,0.0,-2.0,1.0,1.0,0.0,-2.0
1.6951623641450383e+18,-2.0,0.0,-1.0,0.0,0.0,0.0,-1.0,0.0
1.6951623641450383e+18,-1.0,-1.0,-2.0,-1.0,-1.0,-1.0,-1.0,-4.0
1.6951623641460342e+18,0.0,-2.0,-1.0,1.0,-1.0,0.0,0.0,0.0
1.6951623641460342e+18,0.0,0.0,-1.0,0.0,0.0,-1.0,0.0,0.0
1.6951623641470395e+18,1.0,0.0,-2.0,-1.0,0.0,-1.0,0.0,-3.0
1.6951623641550295e+18,-2.0,0.0,0.0,-2.0,0.0,1.0,-1.0,-2.0
1.6951623641560402e+18,0.0,-1.0,-1.0,-1.0,-1.0,0.0,0.0,0.0
1.6951623641800154e+18,-1.0,0.0,-2.0,-1.0,-1.0,-1.0,-1.0,-1.0
1.6951623641810132e+18,0.0,-1.0,-1.0,-2.0,-2.0,0.0,1.0,0.0
1.6951623641810132e+18,-2.0,0.0,-1.0,-2.0,0.0,-1.0,-1.0,-2.0
1.6951623641820122e+18,-1.0,0.0,1.0,-2.0,-1.0,0.0,-1.0,-1.0
1.6951623642010012e+18,0.0,0.0,0.0,1.0,0.0,0.0,-1.0,-1.0
1.6951623642030042e+18,-2.0,-1.0,-2.0,1.0,0.0,-1.0,-2.0,-2.0
1.6951623642040003e+18,2.0,-2.0,-1.0,1.0,2.0,0.0,1.0,0.0
1.6951623642040003e+18,-1.0,-2.0,-3.0,0.0,-1.0,0.0,0.0,1.0
1.6951623642049994e+18,-2.0,0.0,0.0,-1.0,-2.0,-2.0,-2.0,-1.0
1.6951623642049994e+18,-1.0,1.0,0.0,-2.0,-2.0,-1.0,-1.0,-1.0
1.6951623642139942e+18,0.0,0.0,0.0,-2.0,1.0,-2.0,-2.0,1.0
1.6951623642149998e+18,-1.0,-1.0,-2.0,-2.0,-1.0,-2.0,-2.0,0.0
1.6951623642229885e+18,-2.0,-2.0,-2.0,1.0,-2.0,0.0,-1.0,1.0
1.6951623642229885e+18,-3.0,1.0,-2.0,-1.0,0.0,-2.0,-1.0,-1.0
1.6951623642409792e+18,0.0,2.0,1.0,-1.0,0.0,1.0,-1.0,-1.0
1.695162364253978e+18,-2.0,-3.0,-4.0,0.0,-1.0,0.0,-1.0,-1.0
1.6951623642569754e+18,0.0,0.0,0.0,-1.0,0.0,-1.0,0.0,-2.0
1.6951623642569754e+18,-1.0,-2.0,3.0,1.0,0.0,-1.0,0.0,0.0
1.6951623642709635e+18,0.0,-1.0,-5.0,-1.0,-2.0,-1.0,0.0,-1.0
1.6951623642719606e+18,-1.0,1.0,4.0,0.0,-1.0,-1.0,-1.0,-2.0
1.6951623642729636e+18,0.0,-1.0,-1.0,-1.0,0.0,-1.0,-2.0,-1.0
1.6951623642759634e+18,-2.0,-1.0,1.0,2.0,0.0,2.0,-2.0,0.0
1.69516236429195e+18,0.0,-1.0,-2.0,-3.0,-1.0,0.0,0.0,-1.0
1.6951623642929577e+18,0.0,1.0,-1.0,-1.0,-1.0,-1.0,0.0,-1.0
1.695162364293948e+18,-2.0,0.0,1.0,-1.0,-1.0,-1.0,0.0,-1.0
1.695162364294955e+18,-1.0,0.0,-2.0,0.0,-2.0,-1.0,-1.0,0.0
1.6951623642979448e+18,-1.0,-2.0,-1.0,1.0,-1.0,0.0,-1.0,0.0
1.6951623642979448e+18,-1.0,-1.0,-2.0,-4.0,-2.0,0.0,-1.0,-2.0
1.6951623642989501e+18,0.0,0.0,-1.0,-2.0,1.0,0.0,-1.0,0.0
1.6951623642999519e+18,2.0,0.0,-1.0,-2.0,1.0,-1.0,-1.0,-1.0
1.6951623643279283e+18,-2.0,0.0,-1.0,1.0,-1.0,-1.0,-1.0,-1.0
1.6951623643279283e+18,0.0,0.0,1.0,0.0,-1.0,-2.0,0.0,-1.0
1.6951623643289308e+18,-2.0,0.0,-2.0,-2.0,-1.0,-2.0,-1.0,-1.0
1.6951623643289308e+18,-2.0,-1.0,-1.0,0.0,-1.0,-2.0,-2.0,0.0
1.6951623643519145e+18,-1.0,0.0,0.0,1.0,-1.0,-1.0,1.0,-1.0
1.6951623643629322e+18,1.0,-1.0,-1.0,0.0,1.0,-2.0,-2.0,-2.0
1.695162364363911e+18,0.0,0.0,-1.0,-1.0,0.0,-1.0,0.0,-1.0
1.6951623643649116e+18,1.0,-1.0,-1.0,0.0,-2.0,-1.0,0.0,-1.0
1.6951623643649116e+18,-1.0,-2.0,-1.0,-1.0,-1.0,0.0,-1.0,-2.0
1.6951623643649116e+18,0.0,0.0,0.0,0.0,0.0,-1.0,1.0,-2.0
1.695162364365906e+18,-1.0,-2.0,-1.0,-2.0,-2.0,0.0,-1.0,-1.0
1.6951623643669105e+18,0.0,-1.0,-1.0,-1.0,-1.0,-1.0,-1.0,-1.0
1.695162364379901e+18,-1.0,-1.0,1.0,-1.0,-1.0,-2.0,-1.0,-1.0
1.695162364380902e+18,-2.0,0.0,-1.0,0.0,-2.0,0.0,0.0,0.0
1.6951623643818972e+18,1.0,-1.0,-1.0,-1.0,-3.0,-1.0,-1.0,0.0
1.6951623643818972e+18,-3.0,-2.0,0.0,-2.0,0.0,0.0,0.0,-1.0
1.6951623644038843e+18,0.0,-1.0,-1.0,0.0,-2.0,-1.0,-2.0,-1.0
1.6951623644038843e+18,-1.0,0.0,-1.0,1.0,1.0,0.0,-1.0,-3.0
1.6951623644048842e+18,0.0,-3.0,0.0,0.0,0.0,-2.0,0.0,0.0
1.6951623644048842e+18,0.0,0.0,0.0,0.0,0.0,0.0,-1.0,-1.0
1.6951623644178772e+18,-2.0,-1.0,0.0,-3.0,0.0,-2.0,0.0,0.0
1.6951623644178772e+18,-1.0,-2.0,0.0,-2.0,-1.0,1.0,-1.0,0.0
1.695162364419876e+18,-1.0,1.0,-1.0,2.0,-1.0,-1.0,-1.0,-2.0
1.695162364419876e+18,0.0,-1.0,-2.0,-3.0,-1.0,-1.0,-2.0,-1.0
1.6951623644408635e+18,1.0,0.0,1.0,1.0,-1.0,-1.0,-1.0,-1.0
1.695162364441863e+18,-1.0,0.0,1.0,1.0,-1.0,-1.0,0.0,0.0
1.695162364441863e+18,0.0,-1.0,-3.0,-3.0,0.0,0.0,-1.0,0.0
1.695162364441863e+18,0.0,-2.0,-1.0,-2.0,0.0,0.0,-2.0,-1.0
1.6951623644538765e+18,-1.0,-1.0,-1.0,0.0,-2.0,-3.0,-1.0,0.0
1.6951623644538765e+18,0.0,-1.0,0.0,-1.0,-1.0,-1.0,-1.0,-1.0
1.6951623644798415e+18,-1.0,0.0,0.0,0.0,-1.0,1.0,1.0,-1.0
1.6951623644798415e+18,-1.0,-1.0,-2.0,-1.0,0.0,-1.0,0.0,-1.0
1.69516236448084e+18,0.0,1.0,1.0,-2.0,0.0,1.0,0.0,-2.0
1.69516236448084e+18,0.0,-2.0,-1.0,-1.0,-1.0,0.0,-1.0,-1.0
1.6951623644838392e+18,-1.0,-1.0,2.0,1.0,1.0,-2.0,0.0,0.0
1.6951623644848417e+18,-1.0,-2.0,-1.0,0.0,-2.0,-1.0,-1.0,-2.0
1.6951623645158198e+18,-1.0,-1.0,0.0,0.0,-1.0,-1.0,-2.0,-1.0
1.6951623645168202e+18,-2.0,-1.0,-2.0,-2.0,-1.0,-2.0,-1.0,-1.0
1.6951623645178202e+18,0.0,-1.0,0.0,0.0,1.0,-1.0,0.0,-2.0
1.6951623645188183e+18,0.0,-2.0,0.0,-1.0,-1.0,-3.0,-1.0,-1.0
1.6951623645188183e+18,-1.0,-2.0,-1.0,0.0,-3.0,-1.0,-1.0,-1.0
1.6951623645198285e+18,0.0,1.0,-1.0,-2.0,1.0,0.0,-1.0,-1.0
1.695162364537809e+18,0.0,-2.0,-1.0,-2.0,-1.0,-1.0,-2.0,-1.0
1.695162364538807e+18,-1.0,-1.0,-1.0,-1.0,-2.0,0.0,0.0,-1.0
1.6951623645448038e+18,-1.0,-1.0,-2.0,0.0,-2.0,-1.0,-1.0,0.0
1.695162364545803e+18,0.0,-1.0,0.0,0.0,-2.0,-1.0,1.0,-1.0
1.6951623645468024e+18,-1.0,0.0,1.0,0.0,-1.0,0.0,-1.0,-1.0
1.6951623645468024e+18,-1.0,-1.0,-2.0,0.0,0.0,-2.0,0.0,0.0
1.6951623645597957e+18,0.0,-2.0,-1.0,-2.0,-1.0,0.0,-2.0,-2.0
1.6951623645607982e+18,1.0,-2.0,0.0,0.0,-1.0,-1.0,-2.0,1.0
1.6951623645617943e+18,-1.0,0.0,-1.0,-2.0,-3.0,-2.0,-1.0,1.0
1.6951623645617943e+18,0.0,-3.0,0.0,0.0,-1.0,0.0,-1.0,-1.0
1.69516236458978e+18,-1.0,-1.0,0.0,-1.0,1.0,-2.0,1.0,-1.0
1.69516236458978e+18,-2.0,0.0,-4.0,-2.0,0.0,-2.0,-1.0,-1.0
1.6951623645917773e+18,0.0,0.0,-3.0,1.0,-1.0,-2.0,0.0,-2.0
1.6951623645917773e+18,-1.0,0.0,0.0,-2.0,1.0,1.0,0.0,0.0
1.6951623645977772e+18,0.0,0.0,-1.0,-3.0,0.0,0.0,0.0,0.0
1.6951623645977772e+18,-1.0,-1.0,0.0,-1.0,1.0,-1.0,0.0,0.0
1.6951623646037696e+18,-1.0,-1.0,-2.0,0.0,1.0,-1.0,-2.0,-1.0
1.6951623646037696e+18,0.0,0.0,0.0,-1.0,-2.0,-1.0,-1.0,-1.0
1.6951623646217674e+18,0.0,0.0,0.0,0.0,-2.0,-1.0,-1.0,0.0
1.6951623646217674e+18,1.0,-2.0,1.0,-2.0,-1.0,0.0,0.0,1.0
1.6951623646227845e+18,0.0,-1.0,-1.0,-1.0,0.0,-1.0,0.0,-1.0
1.6951623646227845e+18,0.0,0.0,0.0,0.0,0.0,-3.0,1.0,-1.0
1.6951623646427515e+18,-2.0,0.0,-1.0,-1.0,-1.0,0.0,-1.0,0.0
1.6951623646507684e+18,-3.0,0.0,0.0,1.0,-1.0,-1.0,0.0,-2.0
1.6951623646507684e+18,0.0,0.0,0.0,-1.0,-2.0,-1.0,1.0,-2.0
1.6951623646517484e+18,-1.0,0.0,-3.0,-1.0,1.0,-1.0,0.0,-1.0
1.6951623646577393e+18,0.0,1.0,-1.0,-1.0,-1.0,-2.0,-2.0,0.0
1.6951623646577393e+18,-1.0,1.0,2.0,-1.0,-2.0,-1.0,0.0,-3.0
1.6951623646597379e+18,0.0,-1.0,-7.0,-2.0,-2.0,-1.0,-2.0,0.0
1.6951623646597379e+18,0.0,0.0,1.0,-1.0,-1.0,-1.0,1.0,3.0
1.6951623646797256e+18,1.0,-2.0,-1.0,-2.0,3.0,2.0,0.0,0.0
1.6951623646807306e+18,1.0,0.0,1.0,0.0,1.0,0.0,0.0,2.0
1.695162364681728e+18,0.0,0.0,4.0,2.0,2.0,0.0,1.0,-1.0
1.695162364682727e+18,3.0,1.0,2.0,-1.0,-1.0,0.0,-2.0,0.0
1.6951623647027133e+18,0.0,0.0,-1.0,-3.0,-1.0,-1.0,-1.0,-1.0
1.6951623647027133e+18,0.0,-1.0,0.0,-1.0,-1.0,1.0,1.0,-1.0
1.6951623647037164e+18,-1.0,-1.0,1.0,-3.0,0.0,0.0,-2.0,-1.0
1.695162364704717e+18,-1.0,1.0,0.0,-3.0,-1.0,-1.0,1.0,0.0
1.6951623647197066e+18,0.0,0.0,1.0,-1.0,-2.0,-1.0,-1.0,-2.0
1.6951623647207273e+18,1.0,-2.0,-2.0,0.0,-1.0,0.0,-1.0,0.0
1.6951623647207273e+18,-1.0,-1.0,1.0,-1.0,0.0,-1.0,-1.0,1.0
1.6951623647227254e+18,1.0,0.0,-1.0,1.0,2.0,-1.0,-2.0,1.0
1.6951623647406927e+18,-1.0,0.0,1.0,0.0,1.0,-1.0,0.0,-1.0
1.6951623647406927e+18,-1.0,0.0,-2.0,-2.0,-1.0,1.0,-2.0,-2.0
1.6951623647426908e+18,-1.0,-2.0,1.0,-2.0,1.0,0.0,-2.0,1.0
1.6951623647426908e+18,2.0,-1.0,0.0,-1.0,-1.0,0.0,-1.0,-3.0
1.6951623647536842e+18,-2.0,0.0,0.0,-1.0,0.0,-1.0,1.0,0.0
1.6951623647546844e+18,1.0,1.0,-2.0,-2.0,0.0,-1.0,0.0,1.0
1.695162364762678e+18,0.0,0.0,1.0,-1.0,-3.0,0.0,-1.0,0.0
1.695162364762678e+18,-1.0,0.0,0.0,0.0,-1.0,-1.0,0.0,-3.0
1.69516236477867e+18,0.0,-2.0,-12.0,-1.0,1.0,1.0,-1.0,-2.0
1.695162364794661e+18,0.0,-1.0,1.0,-3.0,-5.0,-2.0,-5.0,-3.0
1.6951623647956618e+18,1.0,0.0,1.0,4.0,5.0,2.0,4.0,2.0
1.6951623647976676e+18,1.0,3.0,3.0,3.0,2.0,0.0,1.0,2.0
1.6951623648156524e+18,-1.0,-6.0,-11.0,-8.0,-8.0,-6.0,-1.0,0.0
1.6951623648166482e+18,-1.0,-1.0,7.0,-11.0,-12.0,-2.0,-3.0,-1.0
1.6951623648186473e+18,3.0,6.0,4.0,27.0,38.0,11.0,5.0,3.0
1.6951623648196465e+18,-2.0,-5.0,4.0,0.0,-10.0,-1.0,-1.0,-1.0
1.6951623648206495e+18,2.0,1.0,1.0,-3.0,-2.0,-8.0,-2.0,-1.0
1.6951623648206495e+18,0.0,1.0,-6.0,0.0,4.0,0.0,-3.0,-1.0
1.695162364822645e+18,-1.0,0.0,2.0,0.0,3.0,7.0,1.0,-1.0
1.6951623648236436e+18,-2.0,-1.0,-1.0,10.0,14.0,6.0,4.0,1.0
1.6951623648366405e+18,-3.0,0.0,0.0,-7.0,-12.0,8.0,0.0,-1.0
1.6951623648376366e+18,-2.0,-4.0,-6.0,-20.0,-2.0,-14.0,-1.0,-2.0
1.69516236485163e+18,-2.0,0.0,3.0,8.0,-23.0,-2.0,-4.0,0.0
1.69516236485163e+18,-1.0,-2.0,-7.0,-6.0,0.0,-13.0,-4.0,-2.0
1.695162364876614e+18,1.0,0.0,2.0,2.0,-11.0,-4.0,-1.0,-2.0
1.6951623648796137e+18,-1.0,-4.0,1.0,6.0,12.0,8.0,6.0,3.0
1.6951623648826115e+18,-3.0,-3.0,-6.0,-14.0,-6.0,-4.0,-2.0,-4.0
1.6951623648836096e+18,-5.0,-1.0,-5.0,-3.0,-12.0,-1.0,-7.0,-3.0
1.69516236488461e+18,1.0,-2.0,1.0,-3.0,1.0,-4.0,-3.0,2.0
1.69516236488461e+18,-2.0,3.0,7.0,-1.0,-3.0,-2.0,2.0,-4.0
1.6951623648866127e+18,5.0,13.0,7.0,3.0,-5.0,-8.0,4.0,7.0
1.6951623648866127e+18,-8.0,-16.0,-15.0,-9.0,-3.0,7.0,-8.0,-12.0
1.6951623649045972e+18,0.0,13.0,17.0,0.0,11.0,11.0,-3.0,6.0
1.6951623649045972e+18,-1.0,-10.0,-15.0,-1.0,-10.0,-18.0,-7.0,-18.0
1.6951623649056005e+18,-3.0,-8.0,-9.0,-5.0,-6.0,-5.0,-4.0,4.0
1.6951623649056005e+18,5.0,13.0,12.0,-7.0,6.0,11.0,7.0,10.0
1.6951623649195894e+18,0.0,-5.0,-2.0,-6.0,-7.0,-5.0,18.0,6.0
1.6951623649205885e+18,-2.0,12.0,6.0,12.0,16.0,12.0,-10.0,-4.0
1.6951623649205885e+18,3.0,-14.0,12.0,-8.0,-9.0,-2.0,-1.0,9.0
1.6951623649205885e+18,-2.0,0.0,-39.0,8.0,7.0,-11.0,-11.0,-17.0
1.6951623649485727e+18,-2.0,-5.0,0.0,1.0,-21.0,-15.0,-10.0,-1.0
1.6951623649555756e+18,-1.0,-6.0,2.0,-3.0,4.0,10.0,8.0,16.0
1.6951623649565693e+18,0.0,3.0,-10.0,-11.0,-2.0,-5.0,-15.0,-14.0
1.6951623649565693e+18,3.0,8.0,13.0,0.0,2.0,-7.0,10.0,24.0
1.6951623649565693e+18,-4.0,-8.0,1.0,2.0,-14.0,-3.0,-6.0,-58.0
1.6951623649565693e+18,1.0,3.0,-3.0,2.0,-3.0,0.0,11.0,19.0
1.6951623649715843e+18,-1.0,1.0,-3.0,0.0,9.0,13.0,11.0,-16.0
1.6951623649725583e+18,-8.0,0.0,4.0,-3.0,-1.0,19.0,-2.0,-6.0
1.6951623649945454e+18,5.0,-1.0,-1.0,7.0,12.0,-13.0,-7.0,30.0
1.6951623649955456e+18,-2.0,-21.0,-8.0,3.0,-14.0,-20.0,-26.0,2.0
1.6951623649955456e+18,2.0,5.0,6.0,-21.0,-7.0,-4.0,-8.0,6.0
1.6951623649955456e+18,11.0,18.0,-13.0,1.0,-19.0,-3.0,18.0,1.0
1.695162365018532e+18,-18.0,-11.0,17.0,8.0,16.0,-9.0,7.0,-13.0
1.6951623650195336e+18,7.0,19.0,24.0,-21.0,-21.0,22.0,12.0,12.0
1.6951623650195336e+18,-9.0,-6.0,-43.0,-1.0,6.0,0.0,-8.0,-9.0
1.6951623650195336e+18,1.0,-17.0,11.0,5.0,11.0,-4.0,-3.0,-8.0
1.6951623650205302e+18,5.0,6.0,-5.0,-11.0,-6.0,12.0,5.0,3.0
1.6951623650205302e+18,-8.0,-16.0,-7.0,20.0,21.0,-1.0,8.0,-7.0
1.695162365031527e+18,-4.0,1.0,5.0,-10.0,-23.0,-5.0,6.0,-3.0
1.6951623650325253e+18,1.0,-7.0,2.0,-12.0,-17.0,-16.0,-19.0,-28.0
1.695162365047514e+18,-1.0,-1.0,-19.0,2.0,7.0,14.0,3.0,38.0
1.695162365047514e+18,-1.0,8.0,42.0,3.0,6.0,-1.0,2.0,-21.0
1.6951623650485148e+18,2.0,-16.0,-63.0,-4.0,-13.0,-10.0,-7.0,10.0
1.6951623650485148e+18,-2.0,-2.0,5.0,0.0,6.0,2.0,-1.0,-4.0
1.6951623650695258e+18,4.0,12.0,12.0,11.0,3.0,-2.0,-8.0,-8.0
1.6951623650705083e+18,1.0,7.0,-21.0,0.0,-2.0,2.0,11.0,9.0
1.6951623650705083e+18,-4.0,-2.0,36.0,2.0,7.0,4.0,-5.0,-17.0
1.6951623650705083e+18,1.0,4.0,-3.0,7.0,0.0,-3.0,6.0,11.0
1.695162365084499e+18,-3.0,-16.0,-3.0,-15.0,-3.0,-3.0,-8.0,2.0
1.695162365084499e+18,-3.0,8.0,-1.0,-6.0,-10.0,1.0,-6.0,-12.0
1.695162365084499e+18,-1.0,-1.0,6.0,13.0,2.0,-3.0,3.0,4.0
1.6951623650854984e+18,-4.0,1.0,5.0,-7.0,-6.0,-8.0,-6.0,2.0
1.695162365124474e+18,3.0,4.0,-29.0,4.0,0.0,6.0,15.0,-9.0
1.695162365124474e+18,0.0,-9.0,4.0,7.0,9.0,6.0,-11.0,-3.0
1.6951623651254707e+18,-1.0,-8.0,21.0,-3.0,-5.0,-4.0,16.0,19.0
1.6951623651254707e+18,-2.0,3.0,-3.0,-3.0,-6.0,-6.0,-24.0,-4.0
1.6951623651294917e+18,1.0,9.0,3.0,6.0,6.0,7.0,6.0,-16.0
1.6951623651364872e+18,-1.0,-13.0,-34.0,-5.0,-4.0,-6.0,-4.0,14.0
1.6951623651374664e+18,-2.0,-3.0,-19.0,3.0,-2.0,-4.0,2.0,11.0
1.6951623651374664e+18,1.0,3.0,19.0,6.0,2.0,-6.0,19.0,-18.0
1.695162365144459e+18,-4.0,-3.0,14.0,3.0,11.0,24.0,-1.0,20.0
1.695162365144459e+18,8.0,26.0,-8.0,-8.0,-10.0,-8.0,-6.0,-8.0
1.695162365145461e+18,-4.0,-17.0,15.0,0.0,7.0,-5.0,-5.0,-12.0
1.695162365145461e+18,-5.0,1.0,-4.0,3.0,6.0,6.0,5.0,-7.0
1.6951623651604529e+18,1.0,-6.0,-5.0,1.0,-3.0,-16.0,-4.0,4.0
1.6951623651604529e+18,-1.0,-7.0,-2.0,-7.0,-18.0,8.0,22.0,-7.0
1.6951623651614523e+18,3.0,11.0,29.0,6.0,24.0,4.0,-17.0,2.0
1.6951623651614523e+18,3.0,-1.0,-2.0,2.0,0.0,-4.0,4.0,6.0
1.6951623651834378e+18,0.0,6.0,2.0,-5.0,-8.0,-3.0,-12.0,2.0
1.6951623651834378e+18,-2.0,-11.0,-14.0,8.0,6.0,-3.0,-6.0,-1.0
1.6951623651834378e+18,0.0,24.0,28.0,1.0,-2.0,-1.0,6.0,0.0
1.6951623651844372e+18,-7.0,-10.0,-1.0,1.0,0.0,4.0,-5.0,-5.0
1.6951623652154353e+18,0.0,-13.0,-9.0,-5.0,-2.0,-4.0,0.0,-3.0
1.6951623652164224e+18,-2.0,-6.0,1.0,4.0,4.0,-3.0,-1.0,16.0
1.6951623652164224e+18,2.0,16.0,12.0,-4.0,-4.0,4.0,15.0,-2.0
1.6951623652164224e+18,-4.0,-11.0,-12.0,-6.0,-4.0,1.0,-6.0,-23.0
1.6951623652194412e+18,-3.0,-7.0,7.0,3.0,4.0,-1.0,-24.0,12.0
1.6951623652194412e+18,-4.0,8.0,1.0,-2.0,0.0,-6.0,7.0,-20.0
1.6951623652194412e+18,0.0,-11.0,-26.0,-1.0,-2.0,2.0,0.0,11.0
1.6951623652204206e+18,12.0,16.0,18.0,-1.0,-4.0,3.0,-3.0,8.0
1.6951623652583944e+18,1.0,-4.0,-19.0,0.0,-3.0,-4.0,6.0,-2.0
1.6951623652583944e+18,2.0,-1.0,33.0,4.0,11.0,3.0,-7.0,-9.0
1.6951623652743852e+18,-1.0,-7.0,-10.0,-7.0,-6.0,-1.0,13.0,-19.0
1.6951623652743852e+18,-4.0,-2.0,-3.0,-3.0,-8.0,1.0,8.0,-4.0
1.6951623652753864e+18,-1.0,-12.0,-29.0,1.0,10.0,1.0,-6.0,-12.0
1.6951623652763837e+18,3.0,5.0,13.0,2.0,11.0,2.0,-6.0,23.0
1.6951623652763837e+18,3.0,3.0,2.0,13.0,-17.0,-12.0,-8.0,3.0
1.695162365277386e+18,4.0,-16.0,9.0,-2.0,22.0,11.0,6.0,16.0
1.6951623653113664e+18,-8.0,6.0,-6.0,-21.0,-17.0,-5.0,11.0,4.0
1.6951623653113664e+18,-2.0,6.0,2.0,1.0,-1.0,-5.0,-15.0,-50.0
1.6951623653123635e+18,-6.0,-15.0,-26.0,-2.0,2.0,1.0,-3.0,-1.0
1.6951623653123635e+18,1.0,0.0,-32.0,1.0,-4.0,-2.0,-4.0,12.0
1.6951623653133655e+18,2.0,5.0,38.0,10.0,5.0,0.0,6.0,23.0
1.6951623653133655e+18,-9.0,3.0,39.0,0.0,-8.0,-4.0,-2.0,8.0
1.695162365317361e+18,0.0,-8.0,-30.0,-9.0,-6.0,-4.0,-3.0,-6.0
1.695162365317361e+18,-5.0,15.0,59.0,7.0,1.0,1.0,1.0,-4.0
1.6951623653643333e+18,1.0,0.0,-39.0,-4.0,-1.0,4.0,2.0,-18.0
1.695162365365333e+18,-2.0,-4.0,-11.0,3.0,4.0,0.0,16.0,39.0
1.695162365365333e+18,-4.0,-31.0,-30.0,-6.0,2.0,-1.0,-15.0,-26.0
1.695162365366336e+18,1.0,13.0,16.0,-7.0,-7.0,-3.0,-15.0,25.0
1.6951623653883208e+18,-13.0,1.0,-16.0,-1.0,3.0,-4.0,-14.0,-29.0
1.6951623653883208e+18,24.0,10.0,26.0,12.0,-3.0,-1.0,3.0,9.0
1.695162365394322e+18,-8.0,-13.0,-13.0,-11.0,1.0,2.0,4.0,14.0
1.695162365394322e+18,2.0,-13.0,-57.0,-5.0,-1.0,-4.0,5.0,31.0
1.6951623653963174e+18,16.0,12.0,-17.0,-3.0,-1.0,2.0,11.0,34.0
1.6951623653963174e+18,-1.0,-21.0,-20.0,17.0,5.0,-3.0,-6.0,-19.0
1.6951623654003187e+18,-11.0,-2.0,8.0,4.0,0.0,0.0,3.0,-3.0
1.6951623654013125e+18,-3.0,-14.0,-13.0,-7.0,-1.0,3.0,1.0,-4.0
1.6951623654013125e+18,9.0,14.0,-2.0,-4.0,-5.0,-7.0,-9.0,7.0
1.6951623654013125e+18,-6.0,-18.0,99.0,3.0,-15.0,-4.0,0.0,-3.0
1.695162365431295e+18,-2.0,6.0,-30.0,21.0,30.0,14.0,18.0,13.0
1.695162365431295e+18,-7.0,1.0,-53.0,-13.0,-9.0,-3.0,-16.0,-1.0
1.6951623654532846e+18,-3.0,-37.0,-37.0,18.0,21.0,12.0,4.0,-16.0
1.6951623654532846e+18,0.0,9.0,85.0,9.0,0.0,2.0,0.0,-7.0
1.6951623654542874e+18,2.0,13.0,80.0,-4.0,-11.0,-7.0,10.0,22.0
1.6951623654542874e+18,5.0,-42.0,1.0,-12.0,-4.0,-1.0,-1.0,-6.0
1.695162365476344e+18,-8.0,-12.0,3.0,14.0,2.0,2.0,1.0,1.0
1.695162365476344e+18,12.0,10.0,-80.0,3.0,0.0,-1.0,-4.0,-21.0
1.6951623654773448e+18,1.0,18.0,65.0,-18.0,-10.0,-4.0,-2.0,12.0
1.6951623654783562e+18,-58.0,-41.0,34.0,17.0,6.0,3.0,0.0,-19.0
1.6951623654783562e+18,16.0,7.0,-27.0,0.0,0.0,2.0,4.0,-34.0
1.695162365479367e+18,-14.0,28.0,-40.0,-20.0,-4.0,-2.0,15.0,20.0
1.6951623654914212e+18,-3.0,-20.0,50.0,19.0,-2.0,-7.0,-32.0,25.0
1.6951623654914212e+18,4.0,40.0,22.0,3.0,2.0,-3.0,-6.0,-29.0
1.6951623654924186e+18,2.0,5.0,-27.0,-24.0,-2.0,3.0,3.0,21.0
1.6951623654924186e+18,-9.0,13.0,-46.0,-1.0,-7.0,-4.0,-11.0,-30.0
1.6951623655042348e+18,7.0,-6.0,-4.0,-5.0,-3.0,-4.0,5.0,15.0
1.6951623655042348e+18,13.0,32.0,5.0,-12.0,-4.0,3.0,10.0,-1.0
1.695162365511402e+18,-7.0,-17.0,46.0,27.0,9.0,-3.0,-11.0,5.0
1.6951623655124024e+18,5.0,-14.0,75.0,-10.0,-10.0,-5.0,-5.0,12.0
1.6951623655193953e+18,-3.0,39.0,42.0,18.0,18.0,14.0,16.0,-58.0
1.6951623655193953e+18,7.0,-16.0,-9.0,0.0,1.0,-1.0,-17.0,46.0
1.6951623655203948e+18,10.0,45.0,15.0,3.0,-12.0,-9.0,12.0,-3.0
1.6951623655203948e+18,-7.0,-15.0,-54.0,-28.0,-13.0,-5.0,-19.0,4.0
1.6951623655571459e+18,-26.0,-44.0,2.0,12.0,12.0,10.0,-10.0,-6.0
1.6951623655581645e+18,10.0,33.0,31.0,-9.0,-4.0,-14.0,4.0,-16.0
1.6951623655581645e+18,-18.0,12.0,3.0,-9.0,-6.0,-9.0,-5.0,-2.0
1.6951623655591532e+18,-5.0,8.0,31.0,25.0,-9.0,12.0,0.0,-11.0
1.6951623655645755e+18,24.0,24.0,-128.0,-27.0,-17.0,-5.0,11.0,50.0
1.6951623655645755e+18,-2.0,0.0,26.0,-6.0,11.0,9.0,-5.0,-18.0
1.6951623655645755e+18,0.0,-54.0,12.0,-3.0,10.0,9.0,13.0,4.0
1.695162365565595e+18,4.0,-4.0,-32.0,9.0,4.0,-7.0,3.0,-10.0
1.695162365589454e+18,-25.0,-23.0,34.0,-5.0,-7.0,-2.0,-4.0,-26.0
1.6951623655914537e+18,-1.0,0.0,7.0,-8.0,-12.0,-6.0,6.0,12.0
1.695162365592452e+18,-9.0,2.0,38.0,14.0,10.0,1.0,0.0,3.0
1.6951623655934513e+18,-2.0,-12.0,9.0,-12.0,-3.0,-4.0,1.0,-13.0
1.6951623656044465e+18,17.0,6.0,2.0,-3.0,-6.0,-5.0,-14.0,-18.0
1.6951623656044465e+18,4.0,-19.0,-6.0,2.0,-3.0,2.0,6.0,24.0
1.6951623656054446e+18,-3.0,13.0,-16.0,-5.0,-19.0,-6.0,-5.0,-18.0
