timestamp,left_data_Ac_X,left_data_Ac_Y,left_data_Ac_Z,left_data_Gy_X,left_data_Gy_Y,left_data_Gy_Z,left_data_flex_1,left_data_flex_2,left_data_flex_3,left_data_flex_4,left_data_flex_5,right_data_Ac_X,right_data_Ac_Y,right_data_Ac_Z,right_data_Gy_X,right_data_Gy_Y,right_data_Gy_Z,right_data_flex_1,right_data_flex_2,right_data_flex_3,right_data_flex_4,right_data_flex_5
1695162355087581800,-8.847772598,-1.080982089,-0.488417149,-0.073410407,0.000133231,-0.001598775,-1,1,26,28,14,-8.731653214,3.709815502,0.769735873,-0.078606427,0.051160797,-0.036238898,-44,-8,-2,33,180
1695162355088581800,-8.835801125,-1.082179189,-0.490811348,-0.082869835,-0.005462481,0.013722817,-3,2,26,34,11,-8.735244751,3.7181952,0.773327172,-0.07714089,0.049428791,-0.033840735,-42,-11,-2,36,177
1695162355089581800,-8.823830605,-1.085770488,-0.494402647,-0.092196018,-0.011191424,0.028777948,-4,3,26,31,14,-8.736441612,3.7193923,0.778115571,-0.076341502,0.048496172,-0.032641653,-41,-15,-2,33,181
1695162355090581800,-8.81664753,-1.091755986,-0.499191046,-0.101655439,-0.016653905,0.043699846,-5,1,26,31,14,-8.738836288,3.721786499,0.784101069,-0.074875958,0.047030624,-0.030776417,-43,-8,-2,37,178
1695162355091581800,-8.81066227,-1.094150186,-0.500388145,-0.111114852,-0.022249617,0.058754977,-1,5,26,33,14,-8.738836288,3.722983599,0.788889468,-0.073277183,0.045431852,-0.028777948,-44,-12,-1,36,177
1695162355149784300,-8.825027466,-1.276109457,-0.603338838,-0.248209804,-0.116977029,0.337874413,-7,0,24,34,9,-8.779537201,3.724180698,0.81642276,-0.016920367,0.01079173,0.020784073,-41,-9,-3,35,178
1695162355150784300,-8.83699894,-1.278503656,-0.616506934,-0.253272593,-0.121640123,0.351730466,-5,0,25,32,11,-8.77834034,3.724180698,0.821211159,-0.014255743,0.009192956,0.022915773,-44,-12,-2,36,177
1695162355151784300,-8.850166321,-1.284489155,-0.627280831,-0.258335382,-0.126036748,0.365586549,-6,0,24,28,12,-8.77834034,3.721786499,0.822408259,-0.012523737,0.008127105,0.024248086,-44,-12,-2,31,178
1695162355152784300,-8.860940933,-1.288080573,-0.639251828,-0.26339817,-0.130566612,0.379309326,-12,0,26,29,11,-8.775946617,3.720589399,0.823605359,-0.010258805,0.006794794,0.026246555,-44,-12,-2,34,176
1695162355153784300,-8.877699852,-1.292868972,-0.651222885,-0.268460959,-0.135096475,0.392898917,-6,0,25,31,13,-8.769960403,3.721786499,0.827196658,-0.008127105,0.005595712,0.027845331,-43,-11,-2,34,180
1695162355190761200,-9.153033257,-1.446097851,-0.810437262,-0.356127113,-0.194517612,0.626186788,-8,0,20,31,13,-8.749609947,3.731363297,0.851138711,-0.002264931,-0.008660031,0.03650536,-43,-8,0,36,182
1695162355191761200,-9.167398453,-1.459265947,-0.82001406,-0.359324634,-0.196249619,0.637644708,-5,0,24,30,9,-8.752004623,3.730166197,0.85473001,-0.002931087,-0.009326187,0.036105666,-44,-14,-3,36,176
1695162355192761200,-9.185355186,-1.471236944,-0.829590917,-0.362388968,-0.19784838,0.648569643,-7,1,24,31,14,-8.753201485,3.730166197,0.85592711,-0.003464012,-0.009992342,0.035705972,-44,-14,-1,32,178
1695162355193761200,-9.199720383,-1.480813742,-0.840364814,-0.365320057,-0.199047476,0.659494638,-7,0,25,31,9,-8.749609947,3.730166197,0.85473001,-0.004130168,-0.01079173,0.035173047,-43,-12,-2,33,178
1695162355194761200,-9.21528244,-1.48679924,-0.85473001,-0.368117899,-0.200379789,0.670019925,-5,0,26,30,8,-8.744821548,3.732560396,0.85473001,-0.004529862,-0.01185758,0.034773353,-44,-14,-3,32,174
1695162355229739000,-9.372102737,-1.759738207,-0.968454599,-0.379575789,-0.201312408,0.822303176,-7,0,24,33,11,-8.705317497,3.711012602,0.839167714,0.007327718,-0.029710567,0.032241959,-44,-13,-2,32,177
1695162355230739000,-9.375694275,-1.769315004,-0.973242998,-0.378243476,-0.200513005,0.825900435,-1,0,23,35,12,-8.710105896,3.712209702,0.833182216,0.008926493,-0.031176111,0.032508422,-44,-11,-2,36,178
1695162355231739000,-9.376891136,-1.787271619,-0.976834297,-0.375712097,-0.199180692,0.83109647,-4,0,23,32,13,-8.710105896,3.709815502,0.835576415,0.010658499,-0.032774884,0.032908116,-44,-9,-2,33,176
1695162355232739000,-9.379284859,-1.806425214,-0.974440098,-0.372914255,-0.197715163,0.836292505,-12,1,24,31,10,-8.708909035,3.711012602,0.828393817,0.012523737,-0.034107197,0.033441041,-44,-9,-2,36,176
1695162355233739000,-9.384073257,-1.82198751,-0.979228497,-0.36984992,-0.196116373,0.840955555,-8,0,24,31,11,-8.708909035,3.711012602,0.828393817,0.014522205,-0.03543951,0.033707503,-44,-13,-2,34,177
1695162355266717500,-9.417592049,-2.118868589,-1.007958889,-0.270859122,-0.160010725,0.879725873,-8,1,24,33,11,-8.620323181,3.725377798,0.804451764,0.045298621,-0.033840735,0.03237519,-42,-7,-2,31,178
1695162355267717500,-9.419986725,-2.133233786,-1.007958889,-0.2648637,-0.158012256,0.878660023,-8,-1,25,34,9,-8.610746384,3.721786499,0.797269166,0.047163859,-0.034773353,0.032774884,-44,-12,-3,36,180
1695162355268717500,-9.423578262,-2.145204782,-1.001973391,-0.259267986,-0.155880541,0.877194464,-3,2,24,32,13,-8.601169586,3.7181952,0.782903969,0.049295556,-0.03650536,0.033174578,-43,-9,-2,35,178
1695162355269717500,-9.424775124,-2.160767078,-0.997184992,-0.253672272,-0.15428178,0.875462472,-9,1,26,32,12,-8.591592789,3.713406801,0.775721371,0.051826954,-0.038770292,0.033840735,-44,-13,-1,31,176
1695162355270717500,-9.425971985,-2.173935175,-0.995987892,-0.248476252,-0.152416542,0.873197496,-6,0,23,34,13,-8.585607529,3.708618402,0.764947414,0.054758042,-0.041568145,0.034640122,-45,-13,-2,34,177
1695162355305694800,-9.422380447,-2.383427858,-1.009155989,-0.190254211,-0.129500762,0.743030608,-8,0,25,30,12,-8.437167168,3.68108511,0.506373644,0.137761101,-0.09352833,0.054358348,-44,-12,-2,37,178
1695162355306694800,-9.421183586,-2.394201756,-1.006761789,-0.189188361,-0.128301695,0.731039822,-15,-11,20,30,10,-8.435969353,3.690661907,0.497993946,0.138160795,-0.088865243,0.0528928,-43,-11,-1,36,176
1695162355307694800,-9.418789864,-2.402581453,-1.006761789,-0.188522205,-0.127635539,0.722779453,-7,0,25,31,11,-8.43357563,3.697844505,0.488417149,0.13762787,-0.083535992,0.051160797,-42,-12,-2,36,177
1695162355308694800,-9.418789864,-2.410961151,-1.010353088,-0.187856048,-0.126569673,0.710122526,-7,0,22,29,13,-8.435969353,3.706224203,0.478840351,0.136162326,-0.077540584,0.048762634,-43,-11,-2,36,177
1695162355309694800,-9.419986725,-2.420537949,-1.017535686,-0.187056661,-0.125503823,0.696799397,-8,1,25,30,10,-8.437167168,3.713406801,0.470460624,0.133897394,-0.071145482,0.046497703,-43,-12,-1,34,180
1695162355346672100,-9.36252594,-2.536656618,-1.079784989,-0.202644721,-0.075275652,0.391699851,-9,0,23,32,13,-8.595184326,3.8630445,0.439336002,-0.001332312,0.051027562,-0.020650841,-43,-13,-2,33,180
1695162355347672100,-9.360131264,-2.542642117,-1.080982089,-0.203444093,-0.072877489,0.379709035,-7,0,23,29,9,-8.603564262,3.870227098,0.447715729,-0.010658499,0.057022974,-0.023448698,-43,-9,-2,36,178
1695162355348672100,-9.357737541,-2.547430515,-1.082179189,-0.204376727,-0.069280244,0.361856043,-6,0,25,29,13,-8.609549522,3.876212597,0.454898328,-0.019851454,0.062751912,-0.025846859,-41,-9,-1,37,180
1695162355349672100,-9.352949142,-2.552218914,-1.084573388,-0.205042884,-0.065816231,0.343869835,-3,0,23,29,12,-8.61314106,3.881000996,0.463278025,-0.02904441,0.068214394,-0.028245023,-43,-15,0,40,180
1695162355350672100,-9.348160744,-2.558204412,-1.085770488,-0.205442563,-0.062085759,0.325750381,-11,0,25,28,10,-8.617929459,3.884592295,0.472854823,-0.038104136,0.073676877,-0.030376723,-44,-13,-2,36,179
1695162355383650100,-9.278728485,-2.591723442,-1.090558887,-0.152283311,0.001732006,-0.008660031,-7,0,20,28,11,-8.726864815,3.768473387,0.577002585,-0.076474734,0.09739203,-0.004396631,-44,-9,-2,38,182
1695162355384650100,-9.276334763,-2.583343744,-1.088164687,-0.146421134,0.005196018,-0.024647778,-8,0,23,30,12,-8.74601841,3.754108191,0.572214186,-0.067548238,0.092196018,0.000666156,-44,-11,-2,34,178
1695162355385650100,-9.273940086,-2.577358246,-1.085770488,-0.140292495,0.008660031,-0.040369064,-2,0,24,31,12,-8.763975143,3.742137194,0.562637389,-0.057555895,0.086467072,0.006128637,-43,-11,-2,37,177
1695162355386650100,-9.275136948,-2.573766708,-1.083376288,-0.133764163,0.011724349,-0.055690661,-6,0,21,29,8,-8.779537201,3.730166197,0.553060591,-0.046764165,0.080071971,0.011724349,-43,-11,-1,36,179
1695162355387650100,-9.269151688,-2.564189911,-1.084573388,-0.127369061,0.015188362,-0.070612557,-6,1,21,30,9,-8.790311813,3.7169981,0.548272192,-0.035173047,0.073143952,0.01718683,-46,-11,1,34,183
1695162355419654100,-9.28591156,-2.313995838,-1.059434295,-0.012523737,0.065949462,-0.301235855,-8,0,20,28,10,-8.774748802,3.833117008,0.645237386,0.145088822,0.03543951,0.086333841,-43,-14,-2,34,180
1695162355420654100,-9.284713745,-2.299630642,-1.055842996,-0.008260337,0.067947932,-0.311761081,-6,0,26,30,-2,-8.765172005,3.839102507,0.642843127,0.145222053,0.037038282,0.087399691,-43,-12,-2,37,177
1695162355421654100,-9.28591156,-2.285265446,-1.054645896,-0.004396631,0.069946401,-0.322153151,-8,0,23,31,12,-8.755595207,3.846285105,0.640448928,0.144555897,0.038903523,0.088865243,-44,-13,-2,38,177
1695162355422654100,-9.282320023,-2.26970315,-1.057040095,-0.000932619,0.071811639,-0.332278699,-7,1,16,29,11,-8.749609947,3.847482204,0.646434486,0.143356815,0.040502299,0.09033078,-44,-15,-1,37,179
1695162355423654100,-9.287108421,-2.255337954,-1.054645896,0.002531394,0.073543645,-0.342404276,-6,0,22,29,10,-8.742427826,3.848679304,0.651222885,0.141491577,0.041701376,0.091796324,-43,-9,-2,34,177
1695162355460606200,-9.295488358,-2.017114878,-1.037886381,0.034506891,0.112447165,-0.503480852,-4,0,21,30,12,-8.643068314,3.849876404,0.774524271,0.02797856,0.057422664,0.109516084,-41,-8,-2,37,180
1695162355461606200,-9.294290543,-2.011129379,-1.035492182,0.036771823,0.114845328,-0.510142446,-8,-2,19,30,9,-8.652645111,3.843890905,0.787692368,0.017986218,0.060353752,0.108183771,-39,-7,1,38,181
1695162355462606200,-9.296685219,-2.002749681,-1.035492182,0.039169986,0.117643185,-0.516670763,-8,1,20,30,11,-8.658630371,3.835511208,0.797269166,0.007727412,0.063284837,0.106451757,-41,-11,-2,40,177
1695162355463606200,-9.301473618,-1.989581585,-1.035492182,0.041301683,0.120707504,-0.523065865,-9,1,19,28,10,-8.671798706,3.830722809,0.812831461,-0.002398162,0.066482387,0.104320064,-39,-8,0,38,181
1695162355464606200,-9.305065155,-1.981201887,-1.036689281,0.043699846,0.123505361,-0.529194474,-7,-2,23,29,12,-8.686163902,3.823540211,0.827196658,-0.012790199,0.069413476,0.101655439,-42,-9,0,40,179
1695162355496587500,-9.321824074,-1.82198751,-0.985213995,0.113246553,0.166405827,-0.598341525,-10,0,21,32,11,-8.847772598,3.585317135,0.93134445,-0.106318533,0.050494641,0.034773353,-44,-12,-2,36,178
1695162355497587500,-9.320627213,-1.814804912,-0.984016895,0.117376715,0.16773814,-0.599673808,-8,-1,24,30,11,-8.845377922,3.578134537,0.933738649,-0.10258805,0.045698319,0.032641653,-43,-13,-2,36,180
1695162355498587500,-9.323021889,-1.805228114,-0.982819796,0.121773355,0.168670759,-0.600739658,-10,0,19,29,9,-8.835801125,3.569754839,0.932541549,-0.096326187,0.039436448,0.030243492,-45,-13,-1,37,180
1695162355499587500,-9.326612473,-1.799242616,-0.979228497,0.126303226,0.169736609,-0.601539016,-4,0,23,29,12,-8.831012726,3.56496644,0.93014735,-0.09272895,0.036238898,0.02917764,-41,-11,-1,42,180
1695162355500587500,-9.32421875,-1.789665818,-0.978031397,0.130566612,0.170935676,-0.602071941,-10,-1,21,30,8,-8.82263279,3.557783842,0.932541549,-0.086866774,0.03130934,0.028111791,-44,-12,-2,37,180
1695162355535563400,-9.276334763,-1.63763392,-0.896628559,0.207574263,0.182127118,-0.58381933,-11,0,25,30,16,-8.77834034,3.64038372,0.89184016,-0.016387442,-0.034640122,0.019584993,-44,-12,8,37,178
1695162355536563400,-9.276334763,-1.630451322,-0.89184016,0.210771829,0.182526797,-0.581554353,-6,1,24,29,9,-8.783128738,3.645172119,0.894234359,-0.019851454,-0.035039816,0.016920367,-42,-11,-1,40,178
1695162355537563400,-9.276334763,-1.618480325,-0.887051702,0.213969365,0.182793275,-0.578889728,-10,1,23,31,11,-8.790311813,3.653551817,0.895431459,-0.024114855,-0.035039816,0.01398928,-44,-9,-2,37,181
1695162355538563400,-9.273940086,-1.611297727,-0.878672004,0.217033699,0.183059722,-0.576225102,-8,0,26,29,12,-8.796297073,3.663128614,0.894234359,-0.029310873,-0.034906585,0.010392036,-43,-12,-2,36,177
1695162355539563400,-9.270348549,-1.601720929,-0.876277804,0.219964772,0.183192953,-0.57342726,-10,0,16,27,13,-8.803479195,3.667917013,0.896628559,-0.035039816,-0.034506891,0.006661562,-43,-8,-1,40,181
1695162355574564500,-9.257181168,-1.455674648,-0.798466265,0.233687595,0.172534451,-0.510808587,-8,-1,24,29,11,-8.84896946,3.690661907,0.841561913,-0.156546697,-0.031975497,-0.062085759,-38,-7,-1,36,180
1695162355575564500,-9.254786491,-1.44968915,-0.792480767,0.232621744,0.171202138,-0.506678402,-7,0,23,32,11,-8.84896946,3.683479309,0.837970614,-0.156679943,-0.033574272,-0.062485453,-43,-12,-1,35,178
1695162355576564500,-9.251194954,-1.438915253,-0.788889468,0.231555894,0.170269519,-0.502281785,-11,1,15,28,12,-8.845377922,3.676296711,0.829590917,-0.155880541,-0.035572741,-0.062218986,-42,-4,-2,38,180
1695162355577564500,-9.249998093,-1.430535555,-0.785298169,0.230356812,0.169336915,-0.498018384,-12,1,22,32,9,-8.845377922,3.670311213,0.821211159,-0.153882071,-0.037970904,-0.061819296,-44,-9,0,40,181
1695162355578564500,-9.248801231,-1.425747156,-0.78050977,0.2290245,0.168137819,-0.493621737,-10,-1,23,26,8,-8.845377922,3.664325714,0.81881696,-0.150817752,-0.040235836,-0.061019909,-41,-9,-2,40,178
1695162355611519900,-9.15063858,-1.371877551,-0.685938776,0.204243496,0.144689128,-0.391433388,-12,0,22,30,10,-8.795100212,3.673902512,0.691924274,0.011324655,-0.11924196,0.005862175,-41,-11,-1,35,180
1695162355612519900,-9.14465332,-1.365892053,-0.679953277,0.201978564,0.142157733,-0.385038286,-7,2,24,29,13,-8.787917137,3.67869091,0.683544576,0.019451762,-0.12337213,0.010125575,-44,-8,-1,40,180
1695162355613519900,-9.137471199,-1.362300754,-0.676361978,0.199846849,0.139493108,-0.378643185,-12,-3,24,28,11,-8.779537201,3.682282209,0.678756177,0.027045943,-0.127369061,0.014255743,-41,-8,-2,37,182
1695162355614519900,-9.131484985,-1.357512355,-0.672770679,0.197315469,0.136828482,-0.372248113,-10,0,24,31,11,-8.775946617,3.683479309,0.671573579,0.034240428,-0.130966306,0.01825268,-43,-9,-1,37,184
1695162355615519900,-9.129091263,-1.350329757,-0.666785181,0.194650844,0.134030625,-0.365719765,-8,0,24,30,10,-8.77235508,3.688267708,0.66798228,0.040901989,-0.134163857,0.022249617,-41,-11,-1,40,182
1695162355653498200,-8.975862503,-1.272518158,-0.629675031,0.126303226,0.077807046,-0.230223581,-8,0,23,28,11,-8.610746384,3.725377798,0.521935999,0.044099543,-0.128301695,0.044099543,-42,-6,1,39,178
1695162355654498200,-8.968679428,-1.268926859,-0.626083732,0.121506892,0.074609496,-0.221963242,-11,-1,23,28,11,-8.597578049,3.725377798,0.515950441,0.038770292,-0.124837674,0.04276723,-42,-7,-2,37,179
1695162355655498200,-8.968679428,-1.26533556,-0.628477931,0.116710559,0.071278714,-0.213436455,-4,0,26,24,12,-8.589199066,3.725377798,0.509964943,0.035039816,-0.12230628,0.041967839,-37,-7,1,42,180
1695162355656498200,-8.966285706,-1.261744261,-0.634463429,0.11191424,0.0678147,-0.20464319,-6,1,24,29,13,-8.579621315,3.722983599,0.501585245,0.029577335,-0.118575804,0.040635526,-42,-12,-2,36,180
1695162355657498200,-8.963891029,-1.254561663,-0.635660529,0.106984682,0.064350687,-0.195716694,-8,0,26,29,13,-8.574832916,3.7193923,0.501585245,0.023981623,-0.114445634,0.039169986,-41,-9,-2,41,176
1695162355693473300,-8.901641846,-1.230619669,-0.658405483,-0.005462481,-0.005595712,-0.008127105,-4,0,24,28,12,-8.529343605,3.654748917,0.48482585,-0.033174578,-0.044099543,0.013189893,-44,-11,1,40,176
1695162355694473300,-8.895656586,-1.234210968,-0.661996782,-0.011724349,-0.009326187,0.003464012,-4,0,24,29,9,-8.528146744,3.652354717,0.488417149,-0.032241959,-0.041967839,0.012790199,-42,-8,0,37,182
1695162355695473300,-8.896853447,-1.236605167,-0.664390981,-0.018119449,-0.013056661,0.015188362,-8,1,26,29,12,-8.528146744,3.652354717,0.489614248,-0.031442571,-0.040768761,0.012656967,-43,-7,0,37,180
1695162355696473300,-8.896853447,-1.243787766,-0.67037648,-0.024248086,-0.016787136,0.026779478,-11,1,25,30,11,-8.528146744,3.657143116,0.493205547,-0.029977029,-0.039169986,0.012656967,-43,-13,1,38,182
1695162355697473300,-8.896853447,-1.252167463,-0.677559078,-0.03011026,-0.020384381,0.038770292,-8,-1,22,30,12,-8.531737328,3.661931515,0.497993946,-0.028378254,-0.037837673,0.012790199,-42,-8,-2,38,181
1695162355732450800,-8.920795441,-1.37666595,-0.770932972,-0.113513015,-0.08313629,0.249808565,-4,1,21,29,10,-8.420407295,3.749319792,0.566228688,0.027578866,-0.026113322,0.051027562,-36,-12,1,38,183
1695162355733450800,-8.925583839,-1.385045648,-0.778115571,-0.117509954,-0.085800916,0.26020062,-4,-1,24,29,9,-8.403648376,3.752911091,0.567425787,0.030643184,-0.024114855,0.05489127,-43,-4,-2,40,178
1695162355734450800,-8.929175377,-1.389834046,-0.782903969,-0.121506892,-0.088465542,0.270725876,-7,0,25,31,11,-8.382100105,3.75530529,0.571017087,0.033707503,-0.021983154,0.059154671,-41,-9,-2,40,181
1695162355735450800,-8.937555313,-1.395819545,-0.782903969,-0.125637069,-0.090730481,0.2809847,-7,0,25,29,11,-8.361749649,3.75650239,0.575805485,0.036771823,-0.020251149,0.063817769,-41,-9,-1,38,181
1695162355736450800,-8.943540573,-1.406593442,-0.787692368,-0.129633993,-0.092995405,0.291243494,-7,1,20,30,9,-8.341399193,3.752911091,0.579396784,0.040369064,-0.018652374,0.069013782,-44,-7,-2,37,181
1695162355787420000,-9.064447403,-1.570596337,-0.876277804,-0.207041353,-0.125104129,0.444992334,-5,0,24,28,8,-8.334216118,3.465606928,0.348356336,0.229690656,-0.067548238,0.228091896,-42,-9,-1,39,181
1695162355788420000,-9.076418877,-1.577778935,-0.879869103,-0.211038291,-0.126702905,0.45085454,-10,0,26,29,14,-8.342596054,3.453635931,0.347159237,0.243813157,-0.067548238,0.23528637,-39,-7,-1,36,182
1695162355789420000,-9.083600998,-1.589749932,-0.882263303,-0.21503523,-0.128168449,0.45658344,-8,2,23,29,11,-8.348581314,3.447650433,0.344765037,0.253139347,-0.066882081,0.23941654,-42,-3,-2,41,180
1695162355790420000,-9.091980934,-1.59693253,-0.882263303,-0.219032168,-0.129234299,0.462045938,-7,1,21,30,12,-8.36294651,3.438073635,0.343567938,0.266595691,-0.065416537,0.245012254,-42,-7,-2,39,177
1695162355791420000,-9.101557732,-1.606509328,-0.887051702,-0.222895861,-0.130433381,0.467108727,-12,0,20,27,9,-8.373720169,3.432088137,0.339976639,0.279252678,-0.063018374,0.249941811,-43,-9,-1,38,177
1695162355828397600,-9.20929718,-1.800439715,-0.9648633,-0.284315467,-0.130033687,0.51573813,-6,0,25,30,9,-8.63109684,3.479972124,0.411802679,0.324284822,0.052626338,0.156679943,-39,-13,-2,40,181
1695162355829397600,-9.214085579,-1.814804912,-0.969651699,-0.286447167,-0.128967836,0.515604913,-11,-1,23,29,10,-8.632294655,3.49433732,0.421379507,0.315491587,0.05808882,0.145355284,-42,-8,-1,38,171
1695162355830397600,-9.217676163,-1.825578809,-0.973242998,-0.288312376,-0.127901986,0.515338421,-11,0,22,29,9,-8.634688377,3.502717018,0.434547603,0.305499226,0.063284837,0.134030625,-41,-5,-2,40,180
1695162355831397600,-9.218873978,-1.835155606,-0.975637197,-0.290044397,-0.126702905,0.514938712,-4,-1,19,30,12,-8.634688377,3.513490915,0.441730201,0.294707507,0.068880551,0.122839205,-44,-8,0,40,180
1695162355832397600,-9.22725296,-1.847126603,-0.985213995,-0.291509956,-0.125503823,0.514272571,-13,0,22,30,13,-8.63109684,3.524264812,0.448912829,0.283382833,0.074076563,0.111381322,-41,-7,0,42,182
1695162355865376100,-9.299078941,-2.025494576,-1.025915384,-0.279252678,-0.089531392,0.465376705,-6,0,21,29,13,-8.65743351,3.677493811,0.588973641,0.031042879,0.170802444,-0.067681469,-43,-11,-2,38,180
1695162355866376100,-9.301473618,-2.032677174,-1.028309584,-0.27738744,-0.086999997,0.460846871,-10,0,23,30,12,-8.670601845,3.68108511,0.600944638,0.019718224,0.175199077,-0.07474272,-43,-2,-1,40,180
1695162355867376100,-9.30386734,-2.042253971,-1.031900883,-0.275388956,-0.084468603,0.456317008,-7,-2,21,30,9,-8.680178642,3.684676409,0.600944638,0.012390506,0.178263396,-0.079272583,-41,-8,4,37,180
1695162355868376100,-9.306262016,-2.04823947,-1.031900883,-0.273390502,-0.081937209,0.451653898,-11,-3,21,30,12,-8.693346024,3.688267708,0.602141738,0.001998469,0.182660028,-0.086067379,-40,-6,-1,38,181
1695162355869376100,-9.306262016,-2.056619167,-1.031900883,-0.271258801,-0.079405814,0.446724325,-7,-1,22,29,11,-8.710105896,3.689464808,0.604535937,-0.007860643,0.186923429,-0.092329249,-44,-13,-2,40,178
1695162355912347200,-9.266757965,-2.15597868,-1.016338587,-0.239683002,-0.038237367,0.329614073,-13,0,21,30,10,-9.009381294,3.786429882,0.718260527,-0.100589581,0.208373666,-0.183992341,-41,-9,-2,37,179
1695162355913347200,-9.264363289,-2.158372879,-1.018732786,-0.238217458,-0.036372125,0.322286367,-12,-1,21,30,9,-9.016563416,3.799597979,0.724246025,-0.103653908,0.207307816,-0.187456369,-42,-7,0,41,182
1695162355914347200,-9.25957489,-2.161964178,-1.015141487,-0.236751899,-0.034506891,0.314958632,-12,0,23,28,9,-9.02374649,3.810372114,0.737414122,-0.106984682,0.206375197,-0.190787122,-39,-9,-1,38,181
1695162355915347200,-9.257181168,-2.161964178,-1.016338587,-0.235153139,-0.032641653,0.307764143,-8,-2,25,30,12,-9.027337074,3.82593441,0.745793819,-0.110581927,0.2051761,-0.193984687,-41,-9,1,40,180
1695162355916347200,-9.252392769,-2.165555477,-1.012747288,-0.233554363,-0.030776417,0.300436467,-7,-1,21,27,11,-9.02973175,3.840299606,0.757764816,-0.114445634,0.20411025,-0.197049007,-43,-11,-2,40,172
1695162355962319600,-9.194931984,-2.169146776,-0.991199493,-0.20624195,-0.000133231,0.171868294,-12,0,21,30,9,-8.969876289,4.070142746,0.864306808,-0.238084227,0.178796321,-0.222629398,-39,-11,-2,41,181
1695162355963319600,-9.191340446,-2.169146776,-0.994790792,-0.204776406,0.001332312,0.165872887,-11,3,21,29,13,-8.961497307,4.072536945,0.865503907,-0.24514547,0.176531389,-0.221430331,-43,-9,-2,37,180
1695162355964319600,-9.190143585,-2.170343876,-0.993593693,-0.203177631,0.002931087,0.160143942,-6,0,23,29,14,-8.956708908,4.076128483,0.872686505,-0.25194028,0.174133226,-0.219831541,-44,-9,-1,37,176
1695162355965319600,-9.187748909,-2.171540976,-0.991199493,-0.201179162,0.004396631,0.154415011,-11,1,23,28,11,-8.950722694,4.082113743,0.875080705,-0.258335382,0.171468601,-0.217966303,-42,-7,-2,37,181
1695162355966319600,-9.185355186,-2.173935175,-0.985213995,-0.199313939,0.005862175,0.148686066,-11,0,26,30,14,-8.944737434,4.08570528,0.877474904,-0.2648637,0.168670759,-0.215834603,-44,-9,-1,38,181
1695162356542863700,-9.131484985,-1.529894829,-0.883460402,0.033307809,0.070079632,-0.350664616,-7,0,23,27,13,-8.710105896,3.592499733,0.217872351,-0.071678407,-0.038637057,0.261000007,-42,-8,-1,36,180
1695162356543863700,-9.133879662,-1.52510643,-0.881066203,0.031575806,0.069147013,-0.348266453,-6,-1,24,29,12,-8.714894295,3.586514235,0.220266551,-0.073543645,-0.035572741,0.261399686,-37,-8,-1,42,181
1695162356544863700,-9.135076523,-1.521515131,-0.879869103,0.030243492,0.068480857,-0.346667677,-12,0,21,28,11,-8.716091156,3.575740337,0.227449164,-0.075675346,-0.032241959,0.261399686,-41,-9,0,38,180
1695162356545863700,-9.133879662,-1.516726732,-0.877474904,0.028111791,0.067281775,-0.344003052,-7,-1,22,28,12,-8.714894295,3.569754839,0.233434662,-0.077407345,-0.028777948,0.26126644,-41,-8,3,36,181
1695162356546863700,-9.131484985,-1.511938334,-0.873883605,0.026246555,0.066082694,-0.341338426,-14,0,22,30,11,-8.710105896,3.561375141,0.239420176,-0.079272583,-0.025313934,0.261000007,-41,-12,-1,43,182
1695162357037064100,-9.172186852,-1.435323954,-0.905008256,-0.021450229,0.040235836,-0.277920365,-8,0,23,31,10,-8.661025047,3.347094059,0.316034615,-0.046897396,0.008526799,0.237284839,-47,-9,-2,43,182
1695162357038064100,-9.169792175,-1.437718153,-0.907402456,-0.025047474,0.038770292,-0.274189889,-7,-5,24,29,7,-8.653841972,3.34350276,0.325611442,-0.042367533,0.008393568,0.235153139,-41,-9,-1,40,178
1695162357039064100,-9.168595314,-1.434126854,-0.910993755,-0.028777948,0.037837673,-0.270326167,-12,-1,22,30,12,-8.650250435,3.341108561,0.336385339,-0.037837673,0.008393568,0.233021438,-42,-9,-2,38,179
1695162357040064100,-9.17098999,-1.430535555,-0.913387954,-0.032774884,0.036905054,-0.266329229,-8,0,20,29,13,-8.649053574,3.336320162,0.343567938,-0.033441041,0.007993874,0.230889738,-43,-10,-2,38,180
1695162357041064100,-9.167398453,-1.431732655,-0.907402456,-0.036638591,0.035972435,-0.262598753,-10,-3,23,29,12,-8.644265175,3.332728863,0.349553436,-0.029310873,0.007860643,0.228624806,-43,-6,1,41,180
1695162357106020100,-9.091980934,-1.405396342,-0.92775315,-0.104320064,0.023182238,-0.189454809,-3,0,21,30,12,-8.622717857,3.307589531,0.500388145,0.008793262,0.009059724,0.163341507,-43,-8,0,42,179
1695162357107020100,-9.087192535,-1.407790542,-0.92895025,-0.107117914,0.022249617,-0.185191423,-6,-1,22,30,11,-8.62511158,3.303998232,0.501585245,0.010525269,0.008393568,0.158944875,-41,-9,0,40,176
1695162357108020100,-9.083600998,-1.41138196,-0.93014735,-0.109649308,0.021316998,-0.181194484,-10,0,23,29,12,-8.622717857,3.299209833,0.509964943,0.012390506,0.007860643,0.154415011,-42,-8,-2,38,182
1695162357109020100,-9.080010414,-1.407790542,-0.933738649,-0.112180702,0.020650841,-0.176931083,-8,-2,26,28,9,-8.621520042,3.295618534,0.511162043,0.014522205,0.007194487,0.150018379,-39,-7,2,36,180
1695162357110020100,-9.078812599,-1.406593442,-0.938527048,-0.114712104,0.020251149,-0.172534451,-11,0,21,28,10,-8.620323181,3.293224335,0.509964943,0.016920367,0.006261868,0.145754978,-42,-3,0,41,181
1695162357160988900,-9.033323288,-1.437718153,-0.93134445,-0.135629401,0.018519141,-0.061819296,-12,0,21,28,12,-8.652645111,3.361459255,0.523133099,0.066615619,-0.012390506,0.060486984,-42,-9,1,42,180
1695162357161988900,-9.033323288,-1.442506552,-0.93134445,-0.135096475,0.018519141,-0.054225113,-6,0,23,27,9,-8.652645111,3.368641853,0.525527298,0.066882081,-0.01185758,0.055690661,-42,-5,-1,41,182
1695162357162988900,-9.034520149,-1.44729495,-0.93134445,-0.134297088,0.01825268,-0.046364475,-11,0,19,27,13,-8.655038834,3.375824451,0.525527298,0.066482387,-0.011457887,0.050761104,-40,-9,0,40,182
1695162357163988900,-9.03571701,-1.44968915,-0.924161851,-0.133231238,0.018119449,-0.038370594,-12,-2,23,29,9,-8.655038834,3.386598349,0.526724398,0.065949462,-0.010924961,0.045964777,-43,-9,-2,42,181
1695162357164988900,-9.034520149,-1.455674648,-0.920570552,-0.132165387,0.017719755,-0.030243492,-11,0,22,29,8,-8.65144825,3.396175146,0.525527298,0.065150075,-0.009992342,0.041168455,-41,-11,0,38,180
1695162357216959000,-9.038111687,-1.521515131,-0.884657502,-0.121107198,-0.007194487,0.111248083,-8,0,21,28,10,-8.640673637,3.463212729,0.526724398,0.03956968,0.005862175,-0.027712099,-41,-10,-2,40,182
1695162357217959000,-9.039308548,-1.52510643,-0.883460402,-0.122173049,-0.008793262,0.117909648,-8,0,23,29,12,-8.640673637,3.460818529,0.523133099,0.040635526,0.006128637,-0.029843798,-39,-8,0,40,180
1695162357218959000,-9.042900085,-1.528697729,-0.884657502,-0.12337213,-0.010525269,0.124704443,-12,0,21,30,11,-8.640673637,3.459621429,0.51954174,0.042101074,0.006261868,-0.031975497,-39,-9,-1,44,180
1695162357219959000,-9.047688484,-1.535880446,-0.883460402,-0.124837674,-0.01185758,0.131366,-11,0,24,30,12,-8.641871452,3.460818529,0.514753342,0.043966308,0.0063951,-0.033840735,-43,-7,-1,40,183
1695162357220959000,-9.050082207,-1.546654344,-0.878672004,-0.126303226,-0.013189893,0.138027564,-10,0,26,29,13,-8.644265175,3.460818529,0.512359142,0.045831546,0.006528331,-0.035839204,-44,-15,-2,37,180
1695162357265928600,-9.1326828,-1.717839718,-0.85592711,-0.152016848,-0.038104136,0.234620214,-11,-5,21,27,11,-8.678980827,3.555389643,0.555454791,0.093794793,0.000932619,-0.072078094,-43,-7,1,42,183
1695162357266928600,-9.136273384,-1.723825216,-0.858321309,-0.153082699,-0.040102605,0.237817764,-8,0,23,29,11,-8.682572365,3.563769341,0.555454791,0.094594181,0.000932619,-0.074209802,-43,-11,-1,41,181
1695162357267928600,-9.141061783,-1.728613615,-0.85592711,-0.154148534,-0.041834611,0.241015315,-12,0,23,28,12,-8.683769226,3.568557739,0.55904609,0.095393561,0.000799387,-0.076341502,-44,-11,-1,38,178
1695162357268928600,-9.145850182,-1.738190413,-0.85592711,-0.15534763,-0.043699846,0.243813157,-10,0,25,29,8,-8.678980827,3.576937437,0.562637389,0.095926493,0.000799387,-0.078606427,-40,-12,5,41,180
1695162357269928600,-9.15063858,-1.740584612,-0.85353291,-0.15681316,-0.045698319,0.246078104,-8,0,22,30,9,-8.678980827,3.582922935,0.563834488,0.096192956,0.000799387,-0.080604896,-42,-13,-2,41,180
1695162357312903400,-9.222464561,-1.829170108,-0.908599555,-0.199180692,-0.078339972,0.262731999,-7,0,23,29,10,-8.714894295,3.675099611,0.588973641,0.110715166,0.006128637,-0.112713635,-44,-7,0,40,182
1695162357313903400,-9.22725296,-1.842338204,-0.909796655,-0.200513005,-0.078872897,0.263664633,-14,-2,22,24,7,-8.718485832,3.685873508,0.59256494,0.112313934,0.005995406,-0.113912709,-44,-12,0,38,181
1695162357314903400,-9.232041359,-1.848323703,-0.913387954,-0.20157887,-0.079272583,0.264597237,-8,0,23,29,12,-8.724471092,3.690661907,0.59615624,0.113912709,0.005728943,-0.114978559,-42,-11,1,38,183
1695162357315903400,-9.235632896,-1.853112102,-0.907402456,-0.202111781,-0.079539053,0.265796334,-8,-2,19,27,8,-8.72806263,3.700238705,0.604535937,0.115378261,0.005595712,-0.116044402,-42,-12,-1,39,178
1695162357316903400,-9.240421295,-1.866280198,-0.906205356,-0.202511474,-0.079805516,0.266862184,-11,-1,21,28,9,-8.732851028,3.707421303,0.606930137,0.116843797,0.005329249,-0.116977029,-39,-8,-2,40,182
1695162357359875400,-9.313444138,-1.886630893,-0.973242998,-0.21610108,-0.113779478,0.264597237,-12,0,21,29,9,-8.774748802,3.883395195,0.683544576,0.107117914,-0.001465544,-0.115111791,-40,-11,-2,38,180
1695162357360875400,-9.314641953,-1.881842494,-0.987608194,-0.221297085,-0.117776416,0.261133224,-11,0,24,29,11,-8.777143478,3.888183594,0.694318473,0.105652377,-0.002264931,-0.113779478,-41,-9,0,42,181
1695162357361875400,-9.313444138,-1.879448295,-0.994790792,-0.227159262,-0.121640123,0.257269531,-11,1,22,30,12,-8.7843256,3.895366192,0.696712673,0.104453288,-0.00319755,-0.112180702,-41,-7,0,41,182
1695162357362875400,-9.308655739,-1.873462796,-1.007958889,-0.233421117,-0.125104129,0.25300613,-6,0,21,29,13,-8.789113998,3.897760391,0.700303972,0.103254206,-0.0042634,-0.110315464,-43,-12,0,42,180
1695162357363875400,-9.307458878,-1.874659896,-1.019929886,-0.240082696,-0.128168449,0.248476252,-7,1,20,29,12,-8.796297073,3.904942989,0.699106872,0.102454826,-0.005062787,-0.108183771,-41,-7,1,38,181
1695162357406848100,-9.108740807,-2.039859772,-1.127668977,-0.294174582,-0.083669223,0.177064329,-11,-1,21,29,10,-8.945934296,3.97676897,0.650025785,0.131232768,-0.033307809,-0.048096478,-44,-11,-2,41,183
1695162357407848100,-9.108740807,-2.04704237,-1.138442874,-0.290044397,-0.079006128,0.174266458,-6,0,25,27,14,-8.951920509,3.982754469,0.650025785,0.134030625,-0.034240428,-0.043699846,-42,-9,1,42,180
1695162357408848100,-9.108740807,-2.051830769,-1.144428372,-0.287113339,-0.076075032,0.172267988,-11,-3,22,28,11,-8.957905769,3.991134167,0.645237386,0.136828482,-0.034640122,-0.039436448,-39,-5,1,42,179
1695162357409848100,-9.109937668,-2.059013367,-1.149216771,-0.282450229,-0.072078094,0.169470131,-8,0,21,29,9,-8.963891029,4.000710964,0.646434486,0.139493108,-0.034906585,-0.034906585,-39,-7,2,36,181
1695162357410848100,-9.109937668,-2.064998865,-1.150413871,-0.277120978,-0.068614088,0.166405827,-10,-1,19,29,11,-8.963891029,4.004302502,0.644040287,0.141225114,-0.034906585,-0.031842265,-44,-8,-1,41,177
1695162357445825000,-9.105149269,-2.109291792,-1.086967587,-0.140292495,-0.029310873,0.114978559,-10,0,24,27,11,-8.644265175,4.019864559,0.664390981,0.17506586,-0.000799387,0.083935678,-42,-9,1,41,183
1695162357446825000,-9.102754593,-2.106897593,-1.07739079,-0.135096475,-0.028378254,0.111248083,-11,0,21,32,7,-8.61912632,4.019864559,0.66917938,0.175332308,0.002398162,0.090996936,-33,-8,1,41,182
1695162357447825000,-9.097966194,-2.102109194,-1.07619369,-0.130566612,-0.027312404,0.107517615,-16,0,21,30,9,-8.595184326,4.01747036,0.679953277,0.175332308,0.005595712,0.097924963,-39,-9,-2,41,181
1695162357448825000,-9.095572472,-2.100912094,-1.069011092,-0.126303226,-0.026379786,0.103387438,-11,-1,22,30,10,-8.568847656,4.01747036,0.690727174,0.174666151,0.008793262,0.104852989,-38,-8,-1,42,183
1695162357449825000,-9.090784073,-2.098517895,-1.060631394,-0.122705974,-0.025180703,0.099124044,-10,0,23,27,13,-8.540117264,4.013879299,0.702698171,0.173600301,0.012124043,0.111381322,-43,-9,1,38,182
1695162357482806900,-9.180566788,-1.845929503,-1.167173386,-0.20411025,-0.050894335,-0.035039816,-11,2,19,29,11,-8.321047783,3.890577793,0.848744512,0.033840735,0.053425729,0.17453292,-39,-7,0,40,181
1695162357483806900,-9.184157372,-1.841141105,-1.167173386,-0.213569671,-0.051560488,-0.041301683,-8,0,22,28,14,-8.322244644,3.875015497,0.852335811,0.022116385,0.054624807,0.173333839,-43,-12,-2,36,182
1695162357484806900,-9.185355186,-1.838746905,-1.169567585,-0.222496167,-0.05142726,-0.046764165,-8,-1,24,28,10,-8.323442459,3.8630445,0.859518409,0.010392036,0.056356817,0.171735078,-42,-3,0,40,181
1695162357485806900,-9.191340446,-1.838746905,-1.174355984,-0.230756521,-0.050494641,-0.051693719,-6,0,22,29,13,-8.327033043,3.847482204,0.860715508,-0.001199081,0.057822358,0.169736609,-41,-12,-2,41,180
1695162357486806900,-9.192537308,-1.842338204,-1.177947283,-0.235819295,-0.049428791,-0.054624807,-4,1,26,32,14,-8.329427719,3.831919909,0.861912608,-0.012656967,0.059421133,0.167338446,-43,-13,-1,34,180
1695162357522780800,-9.001001358,-1.963245392,-1.210268974,-0.191453278,0.042101074,-0.058488514,-4,2,24,31,13,-8.388085365,3.624821424,0.757764816,-0.122572735,0.092595711,0.102321595,-33,-5,2,40,182
1695162357523780800,-8.986636162,-1.960851192,-1.215057373,-0.183059722,0.045698319,-0.058754977,-2,2,26,35,13,-8.38928318,3.630806923,0.752976418,-0.122839205,0.094327718,0.100056656,-42,-5,-1,44,181
1695162357524780800,-8.977059364,-1.959654093,-1.218648672,-0.174932614,0.048895866,-0.059421133,-7,0,24,30,14,-8.392873764,3.633201122,0.750582218,-0.122839205,0.096192956,0.098058186,-44,-6,0,41,178
1695162357525780800,-8.968679428,-1.954865694,-1.223437071,-0.166805506,0.052093416,-0.060486984,-7,2,26,30,14,-8.396465302,3.635595322,0.74339962,-0.122705974,0.097791731,0.096326187,-43,-8,1,37,180
1695162357526780800,-8.955511093,-1.957259893,-1.223437071,-0.158944875,0.055424199,-0.061552834,-4,4,24,34,13,-8.397662163,3.64158082,0.730231524,-0.122439511,0.099656969,0.094860643,-41,-9,-2,44,181
1695162357561762800,-8.888473511,-1.515529633,-0.975637197,-0.251807034,-0.009459418,-0.103520676,-7,1,26,32,14,-8.498218536,3.780444384,0.678756177,-0.154681474,0.127901986,0.105652377,-42,-10,-2,42,182
1695162357562762800,-8.899248123,-1.517923832,-0.978031397,-0.25087443,-0.007993874,-0.098990813,-6,1,26,32,14,-8.506598473,3.786429882,0.677559078,-0.160010725,0.129767224,0.106584989,-44,-17,-1,38,182
1695162357563762800,-8.910021782,-1.521515131,-0.978031397,-0.249808565,-0.006528331,-0.094327718,-5,1,26,31,13,-8.513781548,3.788824081,0.672770679,-0.16573967,0.131632462,0.107650839,-39,-8,-2,45,182
1695162357564762800,-8.918401718,-1.52510643,-0.980425596,-0.248476252,-0.004796324,-0.089398161,-8,0,28,32,14,-8.524555206,3.79241538,0.66917938,-0.171601832,0.133764163,0.108450226,-43,-9,1,40,182
1695162357565762800,-8.929175377,-1.52390933,-0.982819796,-0.247010723,-0.003064318,-0.084202148,-3,4,26,34,14,-8.535328865,3.79600668,0.666785181,-0.177863702,0.135762632,0.109116383,-42,-9,3,41,179
1695162357604736700,-9.446322441,-2.088941097,-0.217872351,-0.056623276,0.078339972,-0.390500784,-6,0,20,28,11,-9.036913872,3.919308186,0.452504128,-0.074609496,0.09659265,0.267528325,-39,-7,0,42,180
1695162357605736700,-9.434351921,-2.118868589,-0.222660765,-0.075408876,0.07087902,-0.392898917,-6,-1,23,31,11,-9.02973175,3.904942989,0.458489627,-0.065816231,0.091929555,0.27632159,-42,-5,3,41,183
1695162357606736700,-9.418789864,-2.149993181,-0.225054964,-0.091263399,0.064883612,-0.393565059,-12,1,24,30,12,-9.017760277,3.886986494,0.472854823,-0.05249311,0.084868304,0.289111793,-41,-11,1,44,181
1695162357607736700,-9.402029991,-2.183511972,-0.231040463,-0.104320064,0.060353752,-0.392499238,-5,0,24,29,11,-9.003395081,3.867832899,0.478840351,-0.039036751,0.077540584,0.301502287,-38,-13,-2,42,180
1695162357608736700,-9.381679535,-2.209848166,-0.229843363,-0.114445634,0.057555895,-0.389834613,-6,0,23,32,14,-8.989029884,3.852270603,0.495599747,-0.02571363,0.06981317,0.313493103,-42,-8,-1,37,181
1695162357643712300,-9.21528244,-1.868674397,-0.946906745,-0.171601832,-0.058488514,-0.087799385,-10,-1,23,29,11,-8.706514359,3.743334293,0.553060591,-0.068214394,0.033707503,-0.016520673,-43,-8,0,44,181
1695162357644712300,-9.211690903,-1.862688899,-0.951695204,-0.171335369,-0.055690661,-0.092862174,-8,0,22,27,8,-8.702922821,3.745728493,0.551863492,-0.068880551,0.033174578,-0.015721286,-44,-9,3,43,180
1695162357645712300,-9.206902504,-1.856703401,-0.960074902,-0.171202138,-0.0528928,-0.097791731,-8,0,22,26,11,-8.70172596,3.748122692,0.550666392,-0.069413476,0.032641653,-0.014788668,-44,-12,0,44,182
1695162357646712300,-9.206902504,-1.850717902,-0.9648633,-0.170935676,-0.050361406,-0.102454826,-10,-1,24,27,9,-8.700529099,3.750516891,0.548272192,-0.069946401,0.031975497,-0.01398928,-41,-9,0,46,182
1695162357647712300,-9.208099365,-1.845929503,-0.969651699,-0.170935676,-0.047830015,-0.106851459,-10,0,25,30,4,-8.699332237,3.752911091,0.543483794,-0.070346095,0.031176111,-0.01292343,-44,-9,-1,43,181
1695162357690687600,-9.101557732,-1.832761407,-1.019929886,-0.015987748,0.027712099,-0.042101074,-16,-9,13,22,3,-8.680178642,3.703830004,0.772130072,0.082470134,-0.034506891,0.069280244,-44,-11,-2,40,182
1695162357691687600,-9.101557732,-1.832761407,-1.023521185,-0.015188362,0.02797856,-0.041834611,-18,-5,15,22,0,-8.677783966,3.699041605,0.773327172,0.083669223,-0.034640122,0.069946401,-44,-7,1,40,181
1695162357692687600,-9.099164009,-1.830367208,-1.025915384,-0.014122511,0.028378254,-0.041301683,-17,-6,13,20,4,-8.677783966,3.699041605,0.773327172,0.084335379,-0.034773353,0.070346095,-45,-8,-2,43,178
1695162357693687600,-9.096769333,-1.830367208,-1.024718285,-0.013456355,0.028644716,-0.040901989,-19,-7,13,20,0,-8.682572365,3.701435804,0.774524271,0.085267991,-0.034640122,0.07087902,-44,-9,-2,43,180
1695162357694687600,-9.096769333,-1.831564307,-1.021126986,-0.012124043,0.02904441,-0.040235836,-17,-7,13,20,2,-8.683769226,3.699041605,0.776918471,0.085934147,-0.034906585,0.071278714,-44,-7,0,44,182
1695162357727682300,-9.09437561,-1.764526606,-1.325190663,-0.28671363,0.079272583,-0.106185302,-15,17,16,24,9,0.666785181,6.373364925,3.062183857,-0.643773377,0.363321573,1.30846405,51,-16,143,93,249
1695162357728682300,-9.096769333,-1.753752708,-1.325190663,-0.289511472,0.078606427,-0.106584989,-14,-3,14,24,3,0.730231524,6.372167587,3.053804159,-0.634846866,0.364787132,1.264497638,52,-13,145,90,247
1695162357729682300,-9.102754593,-1.74776721,-1.332373261,-0.292575806,0.077807046,-0.107117914,-16,-6,16,24,1,0.802057564,6.364984989,3.065775394,-0.62645334,0.363188356,1.224261761,52,-13,143,92,248
1695162357730682300,-9.10634613,-1.741781712,-1.334767461,-0.295906603,0.077274114,-0.10778407,-12,-1,15,24,1,0.869095206,6.363788128,3.107673883,-0.620191395,0.360790193,1.188289404,52,-15,142,90,246
1695162357731682300,-9.10634613,-1.736993313,-1.341950059,-0.299637049,0.076341502,-0.108716697,-16,-4,15,23,5,0.921767652,6.38892746,3.16034627,-0.614462495,0.359857589,1.155781031,52,-16,142,88,247
1695162357771638200,-9.008183479,-1.818396211,-1.274912357,-0.309096456,0.107917301,0.03956968,-4,1,25,34,14,3.448847532,5.035006046,4.211400986,-0.402891248,0.910635531,0.108183771,46,-3,145,92,230
1695162357772638200,-9.015366554,-1.836352706,-1.273715258,-0.305232793,0.109249614,0.045698319,-5,3,24,32,9,3.471592426,5.025429249,4.250905037,-0.386237353,0.909836173,0.119375192,47,-2,147,93,228
1695162357773638200,-9.028534889,-1.847126603,-1.268926859,-0.302301675,0.109915771,0.049828485,-2,3,25,32,13,3.499125719,5.017049789,4.298789024,-0.360923439,0.905173004,0.140026033,47,-2,145,90,229
1695162357774638200,-9.038111687,-1.855506301,-1.26413846,-0.299104154,0.110049009,0.053558957,-4,5,26,31,12,3.521870613,5.019443989,4.34787035,-0.335742712,0.895313919,0.163474724,46,-3,143,90,229
1695162357775638200,-9.045293808,-1.865083098,-1.256955862,-0.29603982,0.109915771,0.057022974,-4,5,26,32,14,3.53503871,5.027823448,4.388571739,-0.310828477,0.880392075,0.188921899,47,-2,144,92,226
1695162357812614800,-9.186552048,-1.938106298,-1.230619669,-0.294574291,0.06461715,0.062085759,-4,3,25,31,14,1.404199243,2.958036184,5.267243862,0.025447167,0.122839205,-1.000699759,42,-2,137,79,215
1695162357813614800,-9.18894577,-1.944091797,-1.234210968,-0.298571229,0.062885143,0.060220521,-7,3,26,32,14,1.37546885,2.888604403,5.214571476,0.029577335,0.134297088,-1.044266462,46,-2,135,81,214
1695162357814614800,-9.187748909,-1.948880196,-1.235408068,-0.302168459,0.061286367,0.058355279,-7,2,27,32,14,1.33835876,2.82396102,5.164293289,0.033041347,0.146021441,-1.088366032,45,-2,137,81,215
1695162357815614800,-9.185355186,-1.953668594,-1.235408068,-0.305632442,0.060220521,0.056756508,-3,2,26,30,13,1.30005157,2.760514498,5.111620426,0.035705972,0.157612562,-1.132998466,45,-2,137,80,215
1695162357816614800,-9.184157372,-1.959654093,-1.241393566,-0.308830023,0.059287902,0.055024505,-6,0,26,30,14,1.26294136,2.694674015,5.061342239,0.03757121,0.169070452,-1.178430319,43,-2,136,81,215
1695162357851592700,-9.082404137,-2.187103271,-1.222239971,-0.226493105,0.069946401,0.057955589,-3,1,25,30,14,-0.089782566,1.89620769,4.145560265,0.030776417,0.297771841,-1.942644715,23,-2,131,78,215
1695162357852592700,-9.071630478,-2.195482969,-1.221042871,-0.214768767,0.070212863,0.059820827,-6,3,26,34,14,-0.191536129,1.878251195,4.095282078,0.028911179,0.294041336,-1.975419521,20,-3,129,78,215
1695162357853592700,-9.058462143,-2.197877169,-1.219845772,-0.202777937,0.070479326,0.061686065,-4,5,26,33,16,-0.294486821,1.8602947,4.054580688,0.027045943,0.289111793,-2.007128716,20,-5,129,76,214
1695162357854592700,-9.045293808,-2.203862667,-1.212663174,-0.190520674,0.070745789,0.063817769,-4,1,25,31,14,-0.401028782,1.844732404,4.019864559,0.024514547,0.2831164,-2.03817153,20,-2,129,77,215
1695162357855592700,-9.036913872,-2.208651066,-1.203086376,-0.178263396,0.07087902,0.065683,-5,2,26,34,13,-0.512359142,1.829170108,3.993528366,0.020917306,0.275921881,-2.068148613,17,-3,128,78,212
1695162357885598100,-9.147047997,-2.207453966,-1.019929886,-0.021050537,0.058488514,0.080871366,-10,1,26,29,10,-3.045424461,1.849520802,3.314772367,-0.20824042,0.318022966,-2.541785717,-12,-2,77,59,206
1695162357886598100,-9.168595314,-2.197877169,-1.010353088,-0.019984685,0.054491576,0.078339972,-6,3,23,33,13,-3.174711466,1.869871497,3.258508444,-0.221030638,0.345735073,-2.559638739,-13,-3,75,58,205
1695162357887598100,-9.18894577,-2.189497471,-1.00556469,-0.019984685,0.049828485,0.074875958,-6,0,26,33,12,-3.303998232,1.875856996,3.207033157,-0.231422648,0.375845343,-2.575759649,-12,-2,68,54,203
1695162357888598100,-9.20929718,-2.177526474,-1.006761789,-0.021183766,0.044099543,0.070745789,-4,2,21,31,13,-3.434482336,1.872265697,3.153163671,-0.240482375,0.4082205,-2.589215994,-14,-5,62,52,202
1695162357889598100,-9.228450775,-2.165555477,-1.007958889,-0.023715161,0.038104136,0.065949462,-2,1,26,30,13,-3.56616354,1.873462796,3.098097086,-0.24567841,0.44152835,-2.601073503,-18,-4,61,48,199
1695162357926549400,-9.476250648,-1.74896431,-1.240196466,-0.289644688,-0.101655439,-0.119641654,-3,1,26,30,14,-6.147112846,1.148019671,3.594893932,-0.03237519,1.631816268,-2.364055157,-42,-3,-19,12,182
1695162357927549400,-9.47146225,-1.727416515,-1.26653266,-0.313359886,-0.107251145,-0.130966306,-4,2,25,34,13,-6.367379189,1.146822572,3.657143116,-0.032774884,1.694434881,-2.346468687,-43,-4,-23,10,182
1695162357928549400,-9.464279175,-1.70946002,-1.292868972,-0.337075025,-0.112580396,-0.141624808,-8,1,24,36,12,-6.597222805,1.130063176,3.701435804,-0.045431852,1.760650754,-2.332612514,-42,-2,-23,10,182
1695162357929549400,-9.457097054,-1.693897724,-1.322796464,-0.360523731,-0.117243491,-0.151617154,-2,0,26,34,14,-6.764816761,1.092953086,3.691859007,-0.052226644,1.803951025,-2.324352026,-42,-2,-27,10,182
1695162357930549400,-9.44512558,-1.678335428,-1.351526856,-0.383439511,-0.121506892,-0.160943344,-6,3,26,31,13,-7.006631374,1.052251697,3.700238705,-0.052759573,1.86217308,-2.308764219,-44,-3,-29,9,179
1695162357972528700,-8.890868187,-1.82198751,-1.581370234,-0.419944882,-0.068880551,-0.097125575,-7,3,24,35,13,-13.58470058,2.276885748,4.027047157,-0.260333836,2.405223608,-2.892716646,-51,-2,-59,-2,182
1695162357973528700,-8.865729332,-1.824381709,-1.586158633,-0.398494661,-0.06115314,-0.081803977,-7,3,26,31,13,-13.91749477,2.436100245,3.986345768,-0.293241978,2.445059538,-2.968525171,-49,-1,-49,-1,183
1695162357974528700,-8.841787338,-1.831564307,-1.580173135,-0.375845343,-0.053292494,-0.065816231,-4,2,26,31,11,-14.24071217,2.573766708,3.933673382,-0.323352218,2.484362841,-3.047797918,-48,-2,-56,-1,183
1695162357975528700,-8.82263279,-1.838746905,-1.577778935,-0.352130175,-0.045698319,-0.049029093,-4,1,26,35,13,-14.55076122,2.719813108,3.866635799,-0.356260329,2.521800995,-3.128669024,-50,-2,-57,0,183
1695162357976528700,-8.803479195,-1.845929503,-1.575384736,-0.327748835,-0.038503829,-0.03130934,-7,2,26,34,11,-14.84524727,2.873042107,3.779247284,-0.390900433,2.556307793,-3.21193862,-48,1,-60,-1,183
1695162358015499800,-8.767566681,-1.980004787,-1.407790542,0.117376715,-0.030509954,0.261532933,-6,5,26,32,14,-16.566679,5.110423565,1.407790542,-0.43939665,2.474370718,-4.365721226,-47,-1,-61,-2,182
1695162358016499800,-8.77235508,-1.978807688,-1.403002143,0.132698312,-0.03757121,0.268993855,-7,2,26,32,14,-16.48168373,5.175066948,1.399410844,-0.4103522,2.449456215,-4.365721226,-49,-1,-56,-2,183
1695162358017499800,-8.780735016,-1.976413488,-1.401805043,0.146554366,-0.04516539,0.275655419,-2,2,26,34,14,-16.39429665,5.233725071,1.401805043,-0.381574243,2.427473068,-4.365721226,-46,0,-57,-1,183
1695162358018499800,-8.790311813,-1.97162509,-1.401805043,0.158678412,-0.053026035,0.281117916,-6,2,27,35,12,-16.30451393,5.295974255,1.401805043,-0.351330757,2.407621622,-4.365721226,-47,0,-57,-1,183
1695162358019499800,-8.799888611,-1.968033791,-1.403002143,0.169203669,-0.061419602,0.285781026,-8,3,26,30,13,-16.2039566,5.335478306,1.403002143,-0.320021451,2.389369011,-4.346269608,-48,2,-59,-1,183
1695162358074730500,-9.233239174,-2.030282974,-1.789665818,-0.057555895,-0.125104129,0.153882071,-7,1,25,32,14,-14.65969658,3.227383852,0.883460402,4.078074932,1.103820801,-0.591280222,-41,-2,-37,10,188
1695162358075730500,-9.234436035,-2.038662672,-1.790862918,-0.060220521,-0.124437973,0.148286372,-1,2,26,32,14,-14.61181259,3.38300705,0.942118347,4.152418137,1.08197093,-0.578756511,-41,-2,-39,12,186
1695162358076730500,-9.236829758,-2.043451071,-1.802833915,-0.062352221,-0.123771824,0.142690659,-1,0,25,29,13,-14.56752014,3.550601006,1.006761789,4.214636803,1.062252641,-0.571428835,-43,-2,-37,8,188
1695162358077730500,-9.235632896,-2.04584527,-1.812410712,-0.064217456,-0.123238891,0.136961713,-8,0,25,32,12,-14.52083302,3.727771997,1.085770488,4.264065742,1.045332313,-0.56876421,-44,-1,-37,12,186
1695162358078730500,-9.239224434,-2.053027868,-1.823184609,-0.065949462,-0.122572735,0.131232768,-4,1,25,31,12,-14.46935844,3.914519787,1.175553083,4.300437927,1.031476259,-0.571162283,-41,-2,-38,10,189
1695162358122709800,-9.119514465,-2.086546898,-1.960851192,-0.058222052,-0.070612557,0.020650841,-7,0,26,31,14,-13.31056404,6.780379295,2.547430515,2.825568199,1.077441096,-1.199747324,-42,-2,-39,5,184
1695162358123709800,-9.117119789,-2.087743998,-1.960851192,-0.055157732,-0.065150075,0.014522205,-6,0,26,31,14,-13.07473564,6.913257599,2.559401512,2.397362947,1.051594138,-1.345502377,-39,-2,-39,9,185
1695162358124709800,-9.117119789,-2.086546898,-1.958456993,-0.051693719,-0.059287902,0.008260337,-1,3,25,35,12,-12.9969244,6.939593792,2.552218914,2.25786972,1.040269494,-1.39306581,-43,-2,-39,10,188
1695162358125709800,-9.115922928,-2.086546898,-1.957259893,-0.047963247,-0.053425729,0.002264931,-7,0,26,32,14,-12.91911221,6.956353188,2.545036316,2.12130785,1.027745843,-1.439563632,-40,-1,-36,9,186
1695162358126709800,-9.11233139,-2.088941097,-1.954865694,-0.043699846,-0.047030624,-0.003597243,-8,0,26,30,9,-12.82095051,6.968324184,2.52827692,1.945309281,1.00922668,-1.500316978,-41,-1,-34,13,186
1695162358164683400,-9.139864922,-2.038662672,-1.777694821,0.052359879,0.041701376,-0.079006128,-4,3,25,34,13,-11.27070427,6.986280441,1.814804912,0.353462487,0.505479336,-1.97009027,-44,-2,-37,6,184
1695162358165683400,-9.143456459,-2.027888775,-1.764526606,0.053692192,0.042633995,-0.083402753,-6,0,25,32,12,-11.16895103,6.993463039,1.78248322,0.300836146,0.469373643,-1.965560555,-41,-1,-34,10,185
1695162358166683400,-9.147047997,-2.018311977,-1.759738207,0.053958651,0.043033689,-0.08833231,-6,2,23,30,14,-11.06839466,7.004237175,1.751358509,0.248875946,0.433134764,-1.95716691,-42,-2,-35,10,183
1695162358167683400,-9.148244858,-2.00873518,-1.74657011,0.053159267,0.043166921,-0.09352833,-8,3,26,33,13,-10.9343195,7.012616634,1.71065712,0.181061253,0.385437965,-1.940113425,-42,-2,-35,9,185
1695162358168683400,-9.153033257,-2.000355482,-1.738190413,0.051560488,0.042900458,-0.099124044,-6,2,26,31,13,-10.83615685,7.013813972,1.681926727,0.131898925,0.350264937,-1.922926545,-44,-2,-34,10,186
1695162358217651700,-9.083600998,-1.772906303,-1.711854219,-0.144289434,0.022649311,-0.269926488,-8,3,25,34,11,-9.48941803,5.518634796,1.268926859,-0.465776414,-0.186523736,-0.600473166,-43,-2,-34,13,186
1695162358218651700,-9.083600998,-1.760935307,-1.715445518,-0.160943344,0.023715161,-0.281117916,-6,2,23,30,14,-9.47744751,5.342660904,1.213860273,-0.415947944,-0.212104142,-0.495220512,-42,-2,-34,12,185
1695162358219651700,-9.083600998,-1.753752708,-1.714248419,-0.177863702,0.024914242,-0.292176098,-4,1,23,32,14,-9.478644371,5.221754074,1.173158884,-0.370382845,-0.231689125,-0.415814698,-41,-2,-34,11,184
1695162358220651700,-9.084798813,-1.744175911,-1.719036818,-0.19478406,0.026513018,-0.303101093,-6,0,24,32,14,-9.484629631,5.103240967,1.127668977,-0.318156213,-0.251540571,-0.336408883,-43,-5,-36,13,185
1695162358221651700,-9.083600998,-1.736993313,-1.721431017,-0.211171508,0.028777948,-0.313759565,-6,1,25,33,13,-9.495404243,4.988319397,1.07858789,-0.259001523,-0.272191435,-0.256736606,-42,-3,-34,10,185
1695162358261628500,-9.012971878,-1.646013618,-1.760935307,-0.41861257,0.103254206,-0.457915753,-11,1,25,29,9,-9.769539833,4.297592163,1.00436759,1.352297187,-0.601272583,1.157379866,-42,-5,-34,13,183
1695162358262628500,-8.999804497,-1.63523972,-1.760935307,-0.424874425,0.106318533,-0.463777959,-4,0,25,35,13,-9.771934509,4.320336819,1.022324085,1.414515972,-0.613663077,1.219865203,-39,-2,-34,15,184
1695162358263628500,-8.985439301,-1.624465823,-1.769315004,-0.430869848,0.109382853,-0.469373643,-4,0,26,30,12,-9.769539833,4.338293552,1.036689281,1.471805573,-0.626186788,1.280751824,-39,0,-32,15,184
1695162358264628500,-8.969876289,-1.611297727,-1.769315004,-0.436465532,0.112047479,-0.474836111,-6,0,25,34,13,-9.765948296,4.356249809,1.043871999,1.524564981,-0.639243484,1.340039849,-42,-2,-32,13,185
1695162358265628500,-8.954314232,-1.595735431,-1.766920805,-0.441927999,0.114845328,-0.47989893,-4,1,25,32,14,-9.752780914,4.3897686,1.055842996,1.645272493,-0.678679943,1.489658475,-41,-3,-33,15,186
1695162358304612400,-8.74601841,-1.288080573,-1.812410712,-0.518535972,0.171068922,-0.504813194,-6,3,24,30,12,-9.58039856,4.000710964,1.145625472,1.870833158,-1.054924965,2.308630943,-42,-3,-31,18,184
1695162358305612400,-8.743624687,-1.272518158,-1.812410712,-0.519601822,0.17453292,-0.500150084,-6,2,24,31,11,-9.576807022,3.957615376,1.157596469,1.858575821,-1.071845293,2.341139317,-40,-2,-29,16,186
1695162358306612400,-8.741230011,-1.261744261,-1.812410712,-0.519601822,0.178130165,-0.494554371,-5,5,24,32,13,-9.578003883,3.914519787,1.169567585,1.844586492,-1.087966323,2.372049093,-40,-3,-31,20,186
1695162358307612400,-8.744821548,-1.246181965,-1.816002011,-0.518669248,0.181594178,-0.488026023,-2,3,26,30,11,-9.579200745,3.870227098,1.182735682,1.828998446,-1.103154659,2.401226759,-39,-3,-33,17,184
1695162358308612400,-8.752004623,-1.230619669,-1.816002011,-0.517070413,0.18492496,-0.480565071,-2,0,26,29,14,-9.58039856,3.82713151,1.203086376,1.811944842,-1.117810011,2.42813921,-39,-3,-31,21,183
1695162358352577700,-8.81066227,-1.085770488,-1.78128612,-0.340539038,0.219565079,-0.153882071,-6,1,26,31,12,-9.43315506,3.145981073,1.528697729,1.334977031,-1.176032066,2.526996851,-40,-5,-21,26,182
1695162358353577700,-8.795100212,-1.090558887,-1.769315004,-0.322952509,0.220497698,-0.12616998,-7,1,26,31,14,-9.410409927,3.131615877,1.543063045,1.30206883,-1.168704391,2.508610964,-35,-6,-19,19,184
1695162358354577700,-8.774748802,-1.096544385,-1.753752708,-0.304300129,0.221163854,-0.097258806,-2,1,28,33,14,-9.388861656,3.11964488,1.56221664,1.267828465,-1.160044432,2.488093376,-37,-5,-20,28,184
1695162358355577700,-8.757989883,-1.106121182,-1.74776721,-0.284848392,0.221696794,-0.067548238,-6,0,26,29,11,-9.363722801,3.107673883,1.581370234,1.23212254,-1.150185347,2.465310812,-19,-5,-19,29,183
1695162358356577700,-8.741230011,-1.11689508,-1.734599113,-0.264330775,0.221963242,-0.037171517,-5,0,26,31,11,-9.337387085,3.094505787,1.59932673,1.195483923,-1.138860583,2.440663099,-38,-4,-25,26,186
1695162358397550200,-8.507795334,-1.387439847,-1.601720929,0.281650841,0.176531389,0.591946423,-6,0,26,30,13,-8.649053574,2.865859509,2.027888775,0.44405973,-0.613529861,1.768378258,-41,7,-17,32,184
1695162358398550200,-8.51019001,-1.401805043,-1.59812963,0.315891296,0.171868294,0.62645334,-4,0,26,32,10,-8.615534782,2.856282711,2.050633669,0.405955583,-0.573027551,1.730807066,-35,-3,-15,31,183
1695162358399550200,-8.514978409,-1.41257906,-1.593341231,0.349598765,0.1672052,0.660826921,-11,0,26,29,13,-8.589199066,2.843114614,2.075772762,0.368384391,-0.531725883,1.694035172,-39,-4,-16,31,186
1695162358400550200,-8.51617527,-1.423352957,-1.587355733,0.383039832,0.162675351,0.694934189,-6,0,26,30,13,-8.561665535,2.827552319,2.105700493,0.331612557,-0.489491582,1.658062816,-38,-9,-19,29,183
1695162358401550200,-8.525752068,-1.429338455,-1.583764434,0.41608116,0.158278719,0.728508472,-6,1,27,31,13,-8.534132004,2.811989784,2.138022184,0.295506895,-0.446591109,1.623022914,-41,-2,-18,31,186
1695162358436527500,-8.870517731,-1.725022316,-1.441309452,0.836425722,0.114578865,1.247977018,-8,0,26,30,12,-8.626308441,2.56897831,2.723404408,-0.286580414,0.227558956,1.047996998,-40,-8,-19,30,183
1695162358437527500,-8.900444984,-1.760935307,-1.431732655,0.852413476,0.112447165,1.270892859,-8,1,26,34,13,-8.645462036,2.542642117,2.766499996,-0.310162336,0.251274139,1.020817757,-35,-3,-16,30,184
1695162358438527500,-8.927978516,-1.796848416,-1.420958757,0.868134797,0.110182241,1.292875886,-6,1,26,30,14,-8.670601845,2.522291422,2.804807186,-0.332811654,0.273390502,0.993905008,-36,-8,-18,31,184
1695162358439527500,-8.954314232,-1.835155606,-1.414973259,0.883989275,0.10778407,1.313793302,-8,2,26,31,9,-8.693346024,2.499546528,2.850297213,-0.3547948,0.294307798,0.967258751,-38,-5,-16,28,183
1695162358440527500,-8.981847763,-1.875856996,-1.413776159,0.899710536,0.104986221,1.334177613,-12,2,26,30,14,-8.714894295,2.473210335,2.882618904,-0.375578851,0.31322667,0.940745831,-31,-5,-17,26,183
1695162358478526500,-9.393650055,-2.596511841,-1.419761658,1.199747324,0.041301683,1.450355291,-2,2,25,34,13,-8.893261909,1.695094824,2.667140722,-0.42540735,0.258601815,0.58128792,-39,-7,-19,27,180
1695162358479526500,-9.418789864,-2.624045134,-1.428141356,1.214669228,0.037304748,1.440229654,-5,0,25,30,10,-8.872911453,1.654393315,2.633621931,-0.402624816,0.238483921,0.571029067,-36,-3,-16,29,184
1695162358480526500,-9.440337181,-2.644395828,-1.436521053,1.22892499,0.033307809,1.428905129,-4,0,25,30,13,-8.850166321,1.620874524,2.606088638,-0.377177656,0.217833072,0.561436415,-38,-5,-18,28,184
1695162358481526500,-9.463082314,-2.656366825,-1.437718153,1.241581917,0.02904441,1.415981531,-8,1,24,29,12,-8.831012726,1.593341231,2.580949545,-0.35013172,0.196915776,0.551977038,-37,-6,-20,28,183
1695162358482526500,-9.481039047,-2.670732021,-1.438915253,1.25330627,0.025047474,1.401459336,-5,-2,23,29,14,-8.808267593,1.55982244,2.548627615,-0.322019905,0.175332308,0.54225117,-39,-3,-18,29,184
1695162358522477300,-9.946710587,-2.667140722,-1.462857246,1.242248178,-0.010125575,0.938747287,-5,1,23,30,12,-8.279149055,1.63763392,2.208651066,0.427672267,-0.10805054,0.311361402,-38,-5,-18,29,184
1695162358523477300,-9.99100399,-2.652775526,-1.466448545,1.229591012,-0.013456355,0.905439496,-10,3,24,30,13,-8.24802494,1.684320927,2.196680069,0.461113334,-0.110182241,0.291776419,-34,-5,-16,29,183
1695162358524477300,-10.02811337,-2.646790028,-1.470039845,1.215468526,-0.016787136,0.871731997,-6,0,23,29,11,-8.218097687,1.732204914,2.175132275,0.493222058,-0.111514546,0.271392047,-37,-6,-18,29,184
1695162358525477300,-10.05923843,-2.634819031,-1.470039845,1.200946331,-0.019984685,0.838157713,-12,0,23,31,12,-8.192957878,1.778891921,2.15597868,0.523332298,-0.112313934,0.250208259,-39,-9,-20,28,183
1695162358526477300,-10.0855751,-2.626439333,-1.470039845,1.185358286,-0.023049004,0.804050565,-7,-1,23,30,11,-8.171410561,1.825578809,2.144007683,0.550777912,-0.11191424,0.227958649,-37,-9,-17,28,184
1695162358560479400,-9.721655846,-2.536656618,-1.484405041,0.868800879,-0.017586524,0.217966303,-8,-3,17,28,11,-7.848193169,2.659958124,1.714248419,0.687206745,-0.02384839,-0.322286367,-41,-7,-19,28,183
1695162358561479400,-9.689333916,-2.540247917,-1.476025343,0.857476294,-0.014388974,0.190920368,-11,1,22,29,11,-7.846996307,2.687491417,1.689109325,0.679745793,-0.019185297,-0.352130175,-39,-7,-17,29,183
1695162358562479400,-9.662998199,-2.547430515,-1.467645645,0.847483873,-0.011191424,0.16467382,-11,0,22,28,11,-7.846996307,2.71382761,1.665167332,0.671218991,-0.014655436,-0.381574243,-37,-7,-17,29,183
1695162358563479400,-9.63666153,-2.553416014,-1.462857246,0.839223564,-0.007993874,0.139359877,-11,0,21,30,11,-7.848193169,2.740163803,1.640028119,0.661892772,-0.010658499,-0.410618693,-39,-7,-14,31,183
1695162358564479400,-9.611522675,-2.555810213,-1.453280449,0.832029104,-0.005062787,0.114712104,-12,0,20,29,10,-7.849390507,2.767697096,1.617283225,0.651767194,-0.006528331,-0.439263374,-40,-7,-18,31,185
1695162358609427700,-9.45111084,-2.401384354,-1.33955586,0.844819248,-0.032641653,-0.23941654,-11,-1,19,24,8,-7.961917877,3.320757866,1.29885447,0.367984682,0.116444103,-0.940212846,-37,-7,-17,31,183
1695162358610427700,-9.452308655,-2.389413357,-1.328781962,0.84974885,-0.039303213,-0.252473205,-8,-1,20,27,9,-7.976283073,3.359065056,1.284489155,0.35159725,0.128168449,-0.965660036,-40,-5,-19,30,183
1695162358611427700,-9.449913979,-2.37863946,-1.322796464,0.855211318,-0.046364475,-0.265263379,-9,0,22,27,9,-7.993042469,3.394978046,1.276109457,0.335209787,0.140292495,-0.990973949,-36,-8,-17,31,183
1695162358612427700,-9.45111084,-2.367865562,-1.319205165,0.860807002,-0.053958651,-0.277787149,-8,0,23,29,8,-8.012195587,3.428496838,1.268926859,0.318822354,0.152549773,-1.015888214,-40,-4,-17,31,183
1695162358613427700,-9.453505516,-2.355894566,-1.314416766,0.866669238,-0.061686065,-0.289511472,-7,-2,22,28,10,-8.031349182,3.460818529,1.26413846,0.302701384,0.165339977,-1.04040277,-39,-4,-17,31,183
1695162358654401500,-9.731232643,-1.966836691,-1.382651448,0.927555919,-0.261799395,-0.461912692,-12,0,15,28,8,-8.48385334,4.216189384,1.26533556,-0.020917306,0.45338589,-1.373347521,-34,-8,-15,30,184
1695162358655401500,-9.746794701,-1.9333179,-1.397016644,0.922226667,-0.274189889,-0.471105665,-8,0,23,28,9,-8.512583733,4.255693436,1.26533556,-0.036905054,0.469240427,-1.381608009,-39,-9,-18,31,182
1695162358656401500,-9.761159897,-1.899798989,-1.414973259,0.915032208,-0.286580414,-0.480431855,-12,0,24,30,9,-8.541314125,4.292803764,1.26533556,-0.05249311,0.485094965,-1.388669252,-38,-18,-17,31,180
1695162358657401500,-9.777919769,-1.873462796,-1.430535555,0.906505346,-0.298704445,-0.490024507,-10,-1,23,28,7,-8.576030731,4.326322556,1.26294136,-0.067681469,0.500283301,-1.394664526,-41,-8,-18,30,183
1695162358658401500,-9.794678688,-1.841141105,-1.443703651,0.896246552,-0.310828477,-0.500016868,-12,0,21,30,9,-8.608352661,4.359841347,1.26294136,-0.082203679,0.515071988,-1.399327755,-35,-6,-20,28,179
1695162358697380600,-9.713275909,-1.41257906,-1.89620769,0.479632467,-0.454185307,-0.727575779,-4,0,23,30,11,-9.841365814,4.915296078,1.233013868,-0.274323106,0.658428729,-1.257436395,-37,-7,-18,25,183
1695162358698380600,-9.694122314,-1.407790542,-1.918952703,0.452320069,-0.454851478,-0.741032183,-3,0,21,32,12,-9.916783333,4.952406406,1.243787766,-0.2831164,0.659627855,-1.241581917,-35,-7,-20,28,183
1695162358699380600,-9.676166534,-1.403002143,-1.942894697,0.425274134,-0.454584986,-0.754621744,-8,0,25,30,11,-9.982624054,4.994304657,1.26294136,-0.292176098,0.660960138,-1.22532773,-39,-7,-16,30,183
1695162358700380600,-9.657012939,-1.399410844,-1.960851192,0.399027556,-0.45338589,-0.768078089,-13,0,21,27,10,-10.03888798,5.033809185,1.279700756,-0.301901996,0.663225114,-1.208940268,-35,-6,-20,28,183
1695162358701380600,-9.639056206,-1.397016644,-1.974019289,0.373313934,-0.451387435,-0.781534433,-12,0,23,30,9,-10.0855751,5.073313236,1.308431268,-0.31216079,0.665756524,-1.192552924,-36,-8,-19,27,184
1695162358741352900,-9.52772522,-1.431732655,-2.152387381,0.067281775,-0.316157728,-1.004297137,-11,-2,24,29,9,-9.147047997,5.336675644,1.18872118,-0.517203629,0.640709043,-0.784465492,-35,-8,-20,29,183
1695162358742352900,-9.549273491,-1.425747156,-2.161964178,0.057955589,-0.308430314,-1.015621662,-11,-1,20,35,7,-9.064447403,5.313930511,1.162384868,-0.522399664,0.628052056,-0.749825478,-38,-5,-19,26,182
1695162358743352900,-9.563638687,-1.413776159,-2.169146776,0.04969525,-0.300836146,-1.027212858,-11,0,19,24,11,-8.984241486,5.288791656,1.139639974,-0.52719599,0.614062786,-0.712787151,-39,-8,-18,28,184
1695162358744352900,-9.578003883,-1.405396342,-2.172738075,0.041568145,-0.29350841,-1.038803935,-11,0,25,29,9,-8.905233383,5.261258125,1.11450088,-0.531459451,0.599140882,-0.673750401,-37,-5,-18,26,184
1695162358745352900,-9.588777542,-1.395819545,-2.177526474,0.033973966,-0.286447167,-1.049995422,-10,-3,24,30,8,-8.83699894,5.23611927,1.100135684,-0.535323083,0.583019912,-0.632848382,-39,-9,-18,29,183
1695162358786346700,-9.544485092,-1.163581967,-2.252943754,-0.044232771,-0.201978564,-1.212137818,-15,0,23,26,8,-8.759186745,4.60764122,0.901416957,-0.536122501,0.219298616,0.191053599,-38,-9,-20,24,183
1695162358787346700,-9.52772522,-1.145625472,-2.255337954,-0.045298621,-0.198248088,-1.217866778,-8,-1,20,30,5,-8.807070732,4.57531929,0.881066203,-0.529993892,0.200379789,0.221563548,-35,-6,-17,28,183
1695162358788346700,-9.507374763,-1.124077678,-2.260126352,-0.046098009,-0.194117904,-1.223728895,-10,0,21,26,8,-8.857349396,4.545392036,0.864306808,-0.523065865,0.181594178,0.250208259,-35,-3,-13,29,183
1695162358789346700,-9.487024307,-1.107318282,-2.263717651,-0.047030624,-0.189721286,-1.22892499,-7,-1,23,29,7,-8.899248123,4.515464306,0.843956113,-0.516004622,0.163474724,0.276987731,-33,-4,-17,25,183
1695162358790346700,-9.464279175,-1.085770488,-2.26730895,-0.048096478,-0.185324654,-1.233721256,-12,0,24,29,12,-8.939949036,4.486733913,0.81761986,-0.50854367,0.145888209,0.302168459,-37,-5,-19,27,185
1695162358828304800,-9.020154953,-0.640448928,-2.214636564,-0.147353753,-0.03956968,-1.236252666,-6,0,25,29,9,-9.536105156,4.474762917,0.457292527,-0.447124034,-0.052759573,0.49495405,-39,-9,-18,30,182
1695162358829304800,-8.997409821,-0.618901134,-2.203862667,-0.158944875,-0.029577335,-1.22999084,-7,0,26,34,8,-9.52772522,4.489128113,0.44651863,-0.452453285,-0.05249311,0.494554371,-34,-4,-18,29,183
1695162358830304800,-8.929175377,-0.55784899,-2.175132275,-0.195983157,-0.000133231,-1.207075119,-6,-1,24,31,8,-9.512163162,4.502296448,0.434547603,-0.458581924,-0.051160797,0.493754983,-40,-12,-18,21,183
1695162358831304800,-8.911218643,-0.542286694,-2.160767078,-0.209439516,0.009459418,-1.197882175,-11,-1,25,29,7,-9.488221169,4.516661644,0.417788208,-0.465509921,-0.048229709,0.492555887,-44,-4,-19,25,183
1695162358832304800,-8.880094528,-0.51954174,-2.149993181,-0.228091896,0.02158346,-1.184692144,-10,0,23,28,9,-9.463082314,4.535815239,0.404620081,-0.473237365,-0.044232771,0.491223574,-37,-7,-17,30,183
1695162358868279500,-8.440757751,-0.379480958,-1.980004787,-0.48562786,0.122039817,-0.889718235,-7,-1,24,28,9,-8.572439194,4.49870491,0.198718742,-0.738900423,0.142557427,0.592879057,-38,-7,-19,31,183
1695162358869279500,-8.418013573,-0.387860686,-1.965639591,-0.494820833,0.123638593,-0.868134797,-7,0,26,27,9,-8.54251194,4.478354454,0.197521642,-0.751424193,0.151750386,0.607534468,-44,-7,-17,29,182
1695162358870279500,-8.397662163,-0.392649084,-1.954865694,-0.502947927,0.125104129,-0.845885158,-8,-1,26,28,8,-8.525752068,4.458003521,0.18674773,-0.764214396,0.160943344,0.622589588,-35,-7,-18,30,177
1695162358871279500,-8.376114845,-0.390254885,-1.936909199,-0.510542154,0.126303226,-0.822969377,-10,0,23,26,12,-8.518569946,4.429273129,0.165199921,-0.776738167,0.168004602,0.637911141,-37,-7,-19,29,183
1695162358872279500,-8.359354973,-0.392649084,-1.927332401,-0.514938712,0.126836136,-0.807248056,-10,-1,27,29,8,-8.518569946,4.399345398,0.14844051,-0.788862169,0.173866764,0.653232813,-37,-7,-18,30,182
1695162358912264600,-8.036137581,-0.486022949,-1.634042621,-0.521200597,0.081803977,-0.255404294,-7,-3,28,26,13,-8.950722694,3.881000996,0.010773907,-0.93901372,0.157612562,0.87159878,-37,-12,-17,31,183
1695162358913264600,-8.031349182,-0.487220049,-1.620874524,-0.517470121,0.076474734,-0.219831541,-5,-1,26,29,12,-8.975862503,3.8642416,0.005985504,-0.944742739,0.153349161,0.87519604,-35,-8,-17,31,183
1695162358914264600,-8.032546997,-0.487220049,-1.610100627,-0.513339996,0.07087902,-0.183725879,-8,1,26,29,13,-8.999804497,3.846285105,0.003591303,-0.950738132,0.148952529,0.878127098,-42,-7,-19,31,183
1695162358915264600,-8.03494072,-0.492008448,-1.59812963,-0.509343028,0.065016843,-0.147220522,-9,0,29,31,10,-9.018958092,3.829525709,-0.002394202,-0.956600308,0.144555897,0.879592657,-38,-4,-16,31,183
1695162358916264600,-8.038532257,-0.494402647,-1.581370234,-0.505079627,0.058888208,-0.110182241,-8,0,27,29,10,-9.042900085,3.810372114,-0.01316811,-0.962329268,0.140026033,0.880392075,-39,-9,-17,32,183
1695162358952234100,-8.437167168,-0.697909772,-1.392228246,-0.444592625,-0.094327718,0.625120997,-10,0,28,30,9,-9.064447403,3.582922935,-0.243011475,-1.001898885,0.096725874,0.798987746,-38,-7,-16,33,183
1695162358953234100,-8.482656479,-0.707486629,-1.383848548,-0.443393588,-0.104852989,0.662825465,-11,0,27,30,9,-9.041702271,3.574543238,-0.247799873,-0.99990046,0.100456357,0.792326152,-36,-9,-16,33,183
1695162358954234100,-8.529343605,-0.715866327,-1.386242747,-0.442460954,-0.115511484,0.699996889,-8,-1,26,31,9,-9.024943352,3.572149038,-0.252588272,-0.997635543,0.105119444,0.785531402,-38,-12,-15,34,185
1695162358955234100,-8.585607529,-0.727837324,-1.388636947,-0.441927999,-0.126702905,0.736369014,-10,0,27,30,12,-8.999804497,3.570951939,-0.254982471,-0.994970918,0.110715166,0.779003024,-37,-7,-15,31,183
1695162358956234100,-8.647856712,-0.738611221,-1.392228246,-0.442061275,-0.138427258,0.772474706,-8,0,27,30,11,-8.974664688,3.572149038,-0.252588272,-0.991906583,0.117243491,0.772208273,-35,-8,-12,36,183
1695162358988211100,-10.42674828,-0.872686505,-1.717839718,-0.591013789,-0.431935668,1.35722661,-7,0,26,29,12,-8.607154846,3.578134537,-0.14844051,-0.948073506,0.335742712,0.66695559,-37,-12,-12,32,184
1695162358989211100,-10.47463226,-0.908599555,-1.734599113,-0.60460335,-0.443926483,1.385071993,-12,-2,26,29,10,-8.603564262,3.569754839,-0.144849196,-0.947540581,0.343470156,0.664957106,-37,-8,-13,36,183
1695162358990211100,-10.51174259,-0.945709646,-1.756146908,-0.617926478,-0.454718202,1.412384391,-10,0,25,32,12,-8.608352661,3.561375141,-0.143652096,-0.947007596,0.350398153,0.663358331,-37,-7,-16,37,183
1695162358991211100,-10.53807831,-0.987608194,-1.777694821,-0.630849898,-0.464310884,1.439163804,-6,0,26,30,8,-8.61314106,3.554192305,-0.146046311,-0.946474731,0.356127113,0.661892772,-39,-3,-13,34,183
1695162358992211100,-10.55483818,-1.033097982,-1.805228114,-0.643373668,-0.472171485,1.465410352,-7,0,25,30,11,-8.621520042,3.545812607,-0.14844051,-0.945941806,0.361056656,0.660960138,-35,-9,-17,33,183
1695162359031189800,-9.692925453,-2.081758261,-2.060210466,-0.788595676,-0.309895873,1.714952588,-11,-2,26,27,7,-8.789113998,3.277662039,-0.18435353,-0.879059732,0.310695261,0.650301635,-32,-7,-15,38,183
1695162359032189800,-9.628282547,-2.138022184,-2.042253971,-0.787663102,-0.282450229,1.708557367,-7,-1,24,26,8,-8.795100212,3.260902643,-0.181959331,-0.871998489,0.307364464,0.648436427,-34,-7,-16,36,183
1695162359033189800,-9.566033363,-2.188300371,-2.031480074,-0.785131693,-0.253539056,1.699630857,-10,-1,26,31,11,-8.798690796,3.245340347,-0.179565132,-0.863871336,0.304433405,0.646304727,-38,-11,-12,35,184
1695162359034189800,-9.508571625,-2.239775658,-2.013523579,-0.78166765,-0.222895861,1.688306332,-11,-1,26,30,9,-8.802282333,3.23576355,-0.178368032,-0.855611026,0.30176878,0.643906593,-32,-9,-12,36,183
1695162359035189800,-9.458293915,-2.287659645,-1.993172884,-0.776738167,-0.191053599,1.674450278,-7,0,23,28,11,-8.807070732,3.227383852,-0.177170932,-0.848416567,0.29923737,0.640709043,-34,-5,-13,37,183
1695162359073166400,-9.662998199,-2.990357876,-1.297657371,-0.434200615,0.318156213,1.155381322,-8,0,23,26,9,-8.601169586,3.033453465,-0.095768064,-0.47057274,0.335209787,0.476701379,-35,-5,-12,38,183
1695162359074166400,-9.712079048,-2.992752075,-1.270123959,-0.404756516,0.32361868,1.122872829,-12,0,20,29,9,-8.599972725,3.071760893,-0.073023155,-0.437931061,0.345868289,0.45445177,-42,-5,-14,35,183
1695162359075166400,-9.759963036,-2.992752075,-1.243787766,-0.375045955,0.32615009,1.090364456,-6,0,21,29,8,-8.598775864,3.118447781,-0.04309563,-0.403157741,0.358258814,0.429271042,-34,-6,-11,36,183
1695162359076166400,-9.806650162,-2.992752075,-1.221042871,-0.345202148,0.325617135,1.05798924,-11,-1,19,28,9,-8.602366447,3.174711466,-0.020350715,-0.365986198,0.372114837,0.401425719,-35,-12,-15,36,183
1695162359077166400,-9.85573101,-2.986766577,-1.193509579,-0.315225124,0.32255286,1.025880575,-8,0,19,29,7,-8.607154846,3.244143248,0.019153614,-0.326416522,0.387969375,0.371049017,-37,-7,-13,33,183
1695162359109141700,-10.07958889,-2.017114878,-0.858321309,-0.011591119,0.03956968,0.537321568,-12,-2,20,30,9,-8.476671219,7.795520782,2.041056871,-0.081137821,0.610465586,-0.15681316,-33,-7,-12,31,183
1695162359110141700,-10.0604353,-1.838746905,-0.836773515,-0.054358348,0.019584993,0.510408878,-12,0,20,29,8,-8.518569946,8.122329712,2.179920673,-0.143356815,0.593278706,-0.149352223,-37,-6,-16,31,183
1695162359111141700,-10.03290176,-1.662773132,-0.796072066,-0.117509954,0.000799387,0.482963234,-8,-1,20,27,8,-8.576030731,8.42759037,2.318784237,-0.210771829,0.571828485,-0.141091883,-37,-3,-15,33,183
1695162359112141700,-9.99698925,-1.496376038,-0.731428623,-0.201978564,-0.015721286,0.454052061,-8,1,24,30,11,-8.643068314,8.711302757,2.461239338,-0.282183766,0.546514511,-0.130966306,-35,-7,-15,31,184
1695162359113141700,-9.950302124,-1.351526856,-0.654814184,-0.306698322,-0.028911179,0.42327565,-10,0,23,30,10,-8.717288017,8.975862503,2.592920542,-0.356793284,0.51680398,-0.11924196,-35,-7,-16,33,183
1695162359147119600,-9.180566788,-2.613271236,-0.422576606,-2.278120995,-0.012124043,-0.155480847,-10,0,23,28,5,-9.431957245,10.87446404,2.736572504,-1.211471677,-0.519335389,0.312560499,-39,-8,-9,44,183
1695162359148119600,-9.161413193,-2.721010208,-0.465672225,-2.303568125,-0.01079173,-0.171468601,-10,0,23,28,9,-9.39484787,10.84573364,2.656366825,-1.189888239,-0.563834608,0.356260329,-41,-5,-12,41,183
1695162359149119600,-9.154230118,-2.809595585,-0.486022949,-2.317024469,-0.012523737,-0.185857579,-6,0,22,28,8,-9.355342865,10.80862331,2.583343744,-1.162176013,-0.604470134,0.401692182,-38,-4,-5,41,183
1695162359150119600,-9.149441719,-2.8969841,-0.494402647,-2.318490028,-0.014921899,-0.199580401,-12,0,21,28,8,-9.321824074,10.77031612,2.516305923,-1.126470089,-0.639509916,0.449388951,-39,-3,-8,41,182
1695162359151119600,-9.147047997,-2.985569477,-0.507570744,-2.31049633,-0.016387442,-0.211837664,-7,-1,26,28,8,-9.288305283,10.73799419,2.461239338,-1.084502339,-0.667621732,0.498817772,-42,-3,-4,45,183
1695162359190096100,-9.378087997,-3.703830004,-0.982819796,-1.120208263,-0.298837662,-0.127502292,-10,-1,23,28,7,-9.537302017,11.07557678,1.861491799,-0.212104142,-0.65656352,1.343770266,-44,-1,30,60,183
1695162359191096100,-9.376891136,-3.663128614,-0.993593693,-1.032675266,-0.31575802,-0.115777947,-12,-1,20,28,9,-9.572018623,11.07557678,1.823184609,-0.198514536,-0.648169994,1.376811624,-44,-1,31,62,183
1695162359192096100,-9.379284859,-3.610456228,-1.028309584,-0.943676889,-0.330946386,-0.105519146,-10,-1,23,30,7,-9.610325813,11.08635139,1.780089021,-0.18599081,-0.639643133,1.411052108,-44,0,41,63,180
1695162359193096100,-9.388861656,-3.555389643,-1.07858789,-0.855211318,-0.346001506,-0.096326187,-10,0,19,29,8,-9.654618263,11.11268711,1.74896431,-0.176664621,-0.63005054,1.446358323,-44,1,39,63,183
1695162359194096100,-9.40083313,-3.514688015,-1.134851575,-0.769810081,-0.361589581,-0.088065848,-10,0,20,28,9,-9.698910713,11.14022064,1.713051319,-0.174799383,-0.621790171,1.481398106,-44,4,43,63,184
1695162359234093400,-9.136273384,-2.59890604,-1.361103654,0.118042871,-0.448989272,-0.066349156,-13,-1,19,26,11,-12.15296745,11.93270111,1.122880578,-1.00816083,-0.955800891,1.960098028,-43,3,91,88,194
1695162359235093400,-9.124302864,-2.546233416,-1.358709455,0.122439511,-0.441927999,-0.075675346,-11,-5,20,28,7,-12.23317337,11.85608673,1.048660398,-1.060653925,-0.994704425,1.978483915,-41,0,94,84,190
1695162359236093400,-9.11233139,-2.493561029,-1.353921056,0.123238891,-0.433800906,-0.086067379,-7,0,20,26,11,-12.33133602,11.74116516,0.942118347,-1.127535939,-1.048396587,2.010859013,-41,4,94,87,192
1695162359237093400,-9.105149269,-2.445677042,-1.345541358,0.120840736,-0.424741209,-0.097924963,-11,-2,20,29,7,-12.38999367,11.65257931,0.85353291,-1.177231193,-1.091830015,2.040169954,-34,-1,95,89,192
1695162359238093400,-9.096769333,-2.401384354,-1.341950059,0.115511484,-0.415148526,-0.110848397,-11,-2,24,28,8,-12.4175272,11.58913326,0.790086567,-1.208673835,-1.121140838,2.062286377,-31,-1,101,89,193
1695162359274048600,-8.884882927,-2.103306293,-1.11450088,-0.260866761,-0.161209792,-0.477900445,-11,-1,20,32,8,-12.39597893,9.15063858,0.622492433,-1.263298512,-1.529094934,3.362223625,6,1,131,95,224
1695162359275048600,-8.884882927,-2.112883091,-1.095347285,-0.281650841,-0.146421134,-0.499483913,-14,0,23,25,7,-12.43548393,9.056067467,0.588973641,-1.216267943,-1.508577228,3.410719633,8,-2,131,95,228
1695162359276048600,-8.890868187,-2.123656988,-1.082179189,-0.300569683,-0.132298619,-0.520800948,-10,0,20,28,11,-12.45583439,8.975862503,0.561440289,-1.166439533,-1.487127066,3.455085754,11,-2,131,96,230
1695162359277048600,-8.905233383,-2.133233786,-1.073799491,-0.317490041,-0.119908117,-0.541851461,-14,0,21,29,10,-12.45104599,8.920795441,0.545877993,-1.114612579,-1.465143919,3.495854616,14,1,135,95,230
1695162359278048600,-8.919598579,-2.134430885,-1.065419793,-0.33294487,-0.109249614,-0.562635541,-12,-2,23,29,9,-12.4223156,8.872911453,0.55665189,-1.064117908,-1.442761064,3.532359838,15,-2,130,95,230
1695162359315024300,-9.242815971,-2.023100376,-0.991199493,-0.390900433,-0.059954058,-0.89238286,-11,-2,20,28,8,-10.19451046,7.769184589,1.329979062,-0.953935683,-1.104620218,3.998669147,61,0,146,95,246
1695162359316024300,-9.252392769,-1.999158382,-0.990002394,-0.389301687,-0.061286367,-0.905839205,-8,0,23,28,12,-10.01614285,7.606379032,1.362300754,-0.968990803,-1.10528636,4.001067638,59,-1,148,95,242
1695162359317024300,-9.255983353,-1.972822189,-0.992396593,-0.388635516,-0.062218986,-0.918629408,-6,-4,20,27,11,-9.825803757,7.411251545,1.404199243,-0.98018223,-1.10635221,3.99853611,62,-1,145,95,244
1695162359318024300,-9.257181168,-1.945288897,-0.995987892,-0.389035225,-0.063284837,-0.930886626,-10,0,19,30,7,-9.695320129,7.273584843,1.443703651,-0.983379722,-1.107018352,3.998402596,62,-2,149,95,242
1695162359319024300,-9.255983353,-1.915361404,-0.995987892,-0.389967829,-0.064084224,-0.942744255,-15,0,21,26,8,-9.487024307,7.066486359,1.48560214,-0.987776399,-1.107018352,3.996404171,61,0,145,96,242
1695162359353001600,-9.272743225,-1.606509328,-0.843956113,-0.51680398,-0.071678407,-1.040669203,-13,-3,9,30,5,-3.831919909,3.925293684,2.706645012,-0.689338386,-1.00562942,3.53262639,69,-2,151,91,241
1695162359354001600,-9.299078941,-1.628057122,-0.794874966,-0.509476244,-0.08513476,-1.02894485,-10,-2,9,28,8,-3.520673513,3.859453201,2.788047791,-0.689071953,-0.976584971,3.487993956,69,1,149,95,244
1695162359355001600,-9.317035675,-1.648407817,-0.729034424,-0.497352213,-0.101522207,-1.014689088,-12,0,10,28,10,-3.219004154,3.79361248,2.867056608,-0.692935646,-0.946474731,3.44096303,66,-2,153,95,240
1695162359356001600,-9.337387085,-1.67115283,-0.666785181,-0.47989893,-0.120574266,-0.998168409,-10,0,10,29,9,-2.928108692,3.724180698,2.93768549,-0.701595724,-0.915298641,3.391268015,66,-2,151,95,238
1695162359357001600,-9.3685112,-1.699883223,-0.590170741,-0.456849933,-0.142424196,-0.97911638,-8,0,8,27,8,-2.645592928,3.653551817,3.001131773,-0.712787151,-0.883589566,3.339041233,68,0,153,95,239
1695162359393002500,-9.334992409,-0.650025785,0.547075093,0.615928054,-0.788862169,-0.492689133,-8,0,11,28,8,1.953668594,1.895010591,3.611653328,-0.827099502,-0.463777959,2.07867384,51,-2,157,94,227
1695162359394002500,-9.327810287,-0.521935999,0.571017087,0.643906593,-0.80924654,-0.484029084,-5,-2,11,32,8,2.19428587,1.867477298,3.651157618,-0.805516064,-0.448456347,2.013123989,47,2,154,96,222
1695162359395002500,-9.31823349,-0.399831682,0.602141738,0.662425697,-0.825767219,-0.476834595,-7,-3,10,30,9,2.41335535,1.855506301,3.684676409,-0.782067418,-0.431669205,1.949972391,46,2,155,95,225
1695162359396002500,-9.306262016,-0.280121595,0.629675031,0.671352208,-0.838424146,-0.470972449,-6,1,10,30,9,2.606088638,1.849520802,3.7181952,-0.757153153,-0.414482385,1.889485478,47,3,153,95,224
1695162359397002500,-9.299078941,-0.162805721,0.664390981,0.670952559,-0.847217441,-0.466176093,-4,0,10,29,10,2.767697096,1.8590976,3.742137194,-0.731439531,-0.396895856,1.831263423,42,3,158,93,221
1695162359430958500,-9.26556015,0.254982471,1.497573137,-0.323218971,-0.516404271,-0.314692199,-2,0,19,31,11,3.062183857,3.107673883,4.753687382,-0.470439523,-0.105252676,0.749558926,35,9,155,95,220
1695162359431958500,-9.252392769,0.18555063,1.541865945,-0.386503845,-0.488825411,-0.302967817,-3,-5,15,31,7,3.058592558,3.167528868,4.797980309,-0.482163846,-0.091130167,0.687473178,34,5,153,94,218
1695162359432958500,-9.236829758,0.110133275,1.584961534,-0.447124034,-0.461646259,-0.292575806,-3,0,20,34,11,3.065775394,3.213018656,4.825513363,-0.494820833,-0.076874427,0.626053572,31,6,157,96,218
1695162359433958500,-9.21528244,0.027533319,1.614889026,-0.50388056,-0.434866786,-0.283382833,-2,-2,17,35,10,3.077746391,3.23576355,4.848258495,-0.507744253,-0.06261868,0.56516695,30,9,154,95,217
1695162359434958500,-9.18894577,-0.05865794,1.642422318,-0.557439506,-0.409019887,-0.274989277,-4,0,21,29,8,3.090914488,3.245340347,4.865017891,-0.520401239,-0.048229709,0.505346119,31,8,152,94,216
1695162359472940400,-8.480262756,-1.395819545,1.495178938,-1.028678417,-0.031042879,-0.18079479,-4,0,14,29,10,2.165555477,2.651578426,5.240907669,-0.305099547,0.338140905,-0.769543648,19,8,152,93,216
1695162359473940400,-8.456320763,-1.440112352,1.462857246,-1.030143976,-0.006261868,-0.174399704,-3,0,20,32,8,1.878251195,2.863465309,5.245696068,-0.294441044,0.365053594,-0.852946401,18,13,152,90,215
1695162359474940400,-8.435969353,-1.480813742,1.431732655,-1.029744267,0.018785605,-0.167604893,-5,0,13,30,7,1.584961534,3.106476784,5.239710331,-0.289644688,0.38956812,-0.932751954,17,14,149,95,218
1695162359475940400,-8.416815758,-1.52510643,1.403002143,-1.027212858,0.044099543,-0.160543635,-3,0,17,29,7,1.288080573,3.374627352,5.216965675,-0.289911181,0.410618693,-1.007494569,19,8,151,94,217
1695162359476940400,-8.398859978,-1.571793437,1.370680451,-1.023082733,0.069413476,-0.152816221,-2,-2,15,30,11,0.994790792,3.659537315,5.183446884,-0.296306252,0.427405834,-1.076108694,19,11,153,95,216
1695162359507936700,-8.700529099,-2.238578558,0.586579442,-0.798987746,0.356260329,0.148153126,-8,0,12,26,7,-3.651157618,8.47786808,4.975151062,-0.516404271,0.427672267,-1.135796309,7,12,142,91,228
1695162359508936700,-8.717288017,-2.266111851,0.548272192,-0.786330819,0.357459426,0.172667682,-2,0,11,26,10,-3.745728493,8.622717857,5.002684593,-0.500150084,0.422476262,-1.088366032,9,13,142,93,224
1695162359509936700,-8.73404789,-2.294842243,0.503979445,-0.774739683,0.358525276,0.19638285,-6,0,13,30,9,-3.821146011,8.762778282,5.033809185,-0.482830018,0.415947944,-1.036539078,5,9,141,91,220
1695162359510936700,-8.750806808,-2.328361034,0.463278025,-0.764480829,0.358924955,0.218898922,-6,-2,16,28,7,-3.871424198,8.892065048,5.067327976,-0.465110272,0.407554358,-0.981114864,8,13,141,89,224
1695162359511936700,-8.771158218,-2.365471363,0.422576606,-0.755287945,0.358658493,0.240482375,-5,-2,15,28,10,-3.890577793,9.004592896,5.096058369,-0.448189914,0.397561997,-0.923026085,11,13,140,90,225
1695162359561884900,-9.321824074,-3.05140996,-0.377086759,-0.287646264,0.248875946,0.708656967,-5,0,19,28,9,-1.63643682,7.113173485,5.487510204,-0.116444103,0.060353752,0.096859112,7,8,143,90,229
1695162359562884900,-9.35654068,-3.045424461,-0.420182407,-0.248476252,0.240082696,0.731306314,-7,-1,17,30,9,-1.473631144,6.941987991,5.5042696,-0.089264929,0.049162328,0.122972436,7,11,139,86,226
1695162359563884900,-9.39484787,-3.037044764,-0.460883826,-0.209173039,0.231422648,0.752489984,-5,1,17,29,10,-1.319205165,6.783970356,5.509057999,-0.062352221,0.039036751,0.145488501,5,13,135,88,228
1695162359564884900,-9.428366661,-3.01429987,-0.499191046,-0.170802444,0.223162323,0.771808565,-3,0,20,29,12,-1.174355984,6.640318394,5.524620533,-0.035839204,0.029710567,0.164274111,6,12,140,91,226
1695162359565884900,-9.453505516,-2.986766577,-0.537498295,-0.134163857,0.215168446,0.788862169,-5,0,16,29,9,-1.039083481,6.50983429,5.546168327,-0.009992342,0.021316998,0.179329246,7,11,140,94,230
1695162359601861000,-9.319430351,-2.609679937,-0.733822823,0.027179174,0.127901986,0.57342726,-7,-1,13,26,7,0.307654917,5.623979568,5.702988625,0.148686066,0.045032158,0.059954058,5,11,139,91,225
1695162359602861000,-9.306262016,-2.603694439,-0.725443125,0.002931087,0.122439511,0.531059742,-6,-2,10,28,11,0.313640416,5.598840714,5.68982029,0.147353753,0.050761104,0.041834611,9,13,143,90,224
1695162359603861000,-9.301473618,-2.602497339,-0.711077929,-0.022782542,0.116577335,0.48775959,-10,-1,16,30,8,0.316034615,5.57250452,5.673060894,0.146554366,0.056223582,0.023182238,6,12,142,88,224
1695162359604861000,-9.29788208,-2.608482838,-0.708683729,-0.040635526,0.112180702,0.458581924,-4,0,12,28,9,0.313640416,5.549759388,5.662287235,0.146154657,0.061552834,0.004396631,7,10,141,90,222
1695162359605861000,-9.290699959,-2.622848034,-0.70509243,-0.068081163,0.105119444,0.414482385,-4,0,13,28,10,0.312443316,5.531803131,5.644330502,0.145754978,0.06674885,-0.014655436,5,12,143,93,222
1695162359642838000,-9.346963882,-2.535459518,-0.132878199,-0.135496169,-0.14495559,-0.169736609,-7,0,8,27,9,0.412999779,5.285200119,4.957194805,0.041834611,0.180128634,-0.321886688,5,9,145,93,220
1695162359643838000,-9.348160744,-2.480392933,-0.123301387,-0.118709028,-0.156413481,-0.18385911,-7,0,5,29,10,0.417788208,5.246892929,4.915296078,0.028777948,0.193451747,-0.337741196,5,11,147,88,220
1695162359644838000,-9.348160744,-2.440888643,-0.114921682,-0.10778407,-0.163474724,-0.192519143,-8,-2,4,30,10,0.421379507,5.20379734,4.882974148,0.015454824,0.207707509,-0.353595704,8,9,145,92,226
1695162359645838000,-9.350554466,-2.37624526,-0.098162271,-0.092329249,-0.173200607,-0.204243496,-8,0,8,29,9,0.426167905,5.15950489,4.856637955,0.001732006,0.223029092,-0.369983137,6,13,147,91,220
1695162359646838000,-9.355342865,-2.312798738,-0.08379706,-0.078339972,-0.182127118,-0.214768767,-7,0,5,27,11,0.433350503,5.110423565,4.833893299,-0.011990812,0.239816234,-0.386903495,-2,9,145,93,217
1695162359685812200,-9.43315506,-1.413776159,0.198718742,-0.132698312,-0.213969365,-0.222229704,-8,0,6,29,8,0.350750536,4.406527996,4.180276394,-0.188788652,0.591147006,-0.804983199,-2,9,152,95,222
1695162359686812200,-9.435548782,-1.395819545,0.20590134,-0.149352223,-0.211571202,-0.216767237,-7,0,8,28,9,0.347159237,4.407725334,4.143166065,-0.204243496,0.609133244,-0.834560513,-3,9,152,92,216
1695162359687812200,-9.43315506,-1.37427175,0.211886853,-0.166539043,-0.209039822,-0.211171508,-2,0,5,27,8,0.338779539,4.407725334,4.120420933,-0.215701386,0.621257305,-0.854811668,5,11,152,93,224
1695162359688812200,-9.425971985,-1.355118155,0.217872351,-0.184392035,-0.206375197,-0.20570904,-6,-2,3,29,8,0.323217243,4.411316395,4.083311081,-0.23475343,0.639643133,-0.885854542,5,12,149,94,222
1695162359689812200,-9.417592049,-1.33955586,0.217872351,-0.202777937,-0.20411025,-0.200513005,-8,0,-2,29,7,0.305260718,4.417302132,4.05577755,-0.25553751,0.658029079,-0.91783005,-1,10,147,85,230
1695162359727787000,-8.992621422,-1.467645645,0.037110128,-0.619791746,-0.153349161,-0.229957119,-6,-2,-1,29,4,-0.785298169,3.933673382,4.450820923,-0.78379941,1.036672235,-1.482996941,-6,7,155,93,225
1695162359728787000,-8.973467827,-1.505952835,0.034715924,-0.639243484,-0.147353753,-0.236751899,-10,0,1,28,11,-0.847547412,3.906140089,4.446032524,-0.80098623,1.045199156,-1.496852994,-2,7,151,94,226
1695162359729787000,-8.961497307,-1.550245643,0.04309563,-0.656963229,-0.141091883,-0.243546709,-12,-1,0,28,7,-0.945709646,3.8630445,4.428076267,-0.826166868,1.057189822,-1.517104149,-6,8,156,92,227
1695162359730787000,-8.949525833,-1.595735431,0.045489833,-0.672817767,-0.134696782,-0.250474721,-13,-2,-1,28,8,-1.049857497,3.818751812,4.402936935,-0.850414991,1.06838131,-1.536555886,-7,7,153,91,224
1695162359731787000,-8.933963776,-1.638831019,0.047884032,-0.686407328,-0.127635539,-0.257003069,-12,0,-1,28,8,-1.157596469,3.775655985,4.373009205,-0.873464048,1.078506827,-1.555341482,-3,8,156,93,228
1695162359796557000,-9.021351814,-2.141613483,0.124498487,-0.689738154,-0.037437979,-0.331479341,-7,0,-4,27,14,-3.284844637,2.834734917,4.113238335,-1.138460875,1.311395049,-1.807148576,-13,1,151,94,222
1695162359797557000,-9.024943352,-2.151190281,0.129286885,-0.683476269,-0.036905054,-0.332012266,-7,-1,-5,29,8,-3.338714361,2.786850691,4.115632534,-1.139393568,1.328049064,-1.813410401,-13,1,148,95,219
1695162359798557000,-9.027337074,-2.15597868,0.129286885,-0.677214384,-0.036372125,-0.332145482,-8,-2,-5,27,7,-3.451241732,2.692279816,4.102464676,-1.138194442,1.36082387,-1.823003054,-13,2,152,95,225
1695162359799557000,-9.027337074,-2.163161278,0.1316811,-0.670952559,-0.035705972,-0.332145482,-13,0,-5,28,11,-3.536235809,2.612074137,4.089296341,-1.133664608,1.385338426,-1.827532887,-13,0,142,92,222
1695162359800557000,-9.024943352,-2.172738075,0.136469498,-0.66482389,-0.035039816,-0.331212848,-10,0,0,26,11,-3.646369219,2.503137827,4.073734283,-1.123672247,1.417980194,-1.829131722,-17,0,143,95,222
1695162359907534400,-8.938752174,-2.357091665,0.178368032,-0.560770333,0.009059724,-0.240215927,-11,0,-9,29,9,-5.823895454,1.680729628,3.175908566,-0.643906593,1.684042811,-1.542817831,-25,0,74,68,222
1695162359908534400,-8.938752174,-2.360682964,0.180762231,-0.559038281,0.009992342,-0.234353751,-7,1,-5,27,8,-5.918466568,1.663970232,3.23456645,-0.607134759,1.708557367,-1.513640046,-28,0,73,66,221
1695162359909534400,-8.936357498,-2.369062662,0.178368032,-0.557439506,0.010525269,-0.228758052,-10,0,-6,29,12,-6.01782608,1.662773132,3.303998232,-0.570762634,1.738001585,-1.483263373,-26,-1,62,63,222
1695162359910534400,-8.938752174,-2.375048161,0.16879122,-0.556107163,0.01079173,-0.223428801,-8,-3,-5,27,9,-6.120776653,1.665167332,3.374627352,-0.541718245,1.773174644,-1.455151558,-23,1,58,63,220
1695162359911534400,-8.937555313,-2.382230759,0.158017308,-0.554908097,0.010392036,-0.218499228,-10,-1,-5,29,12,-6.191405773,1.649604917,3.409343243,-0.523465574,1.798888206,-1.436232805,-29,1,56,58,221
1695162359968499600,-8.969876289,-2.331952572,-0.128089786,-0.51893568,-0.009326187,-0.157612562,-11,-4,-6,23,11,-9.528923035,1.874659896,2.388216257,0.059421133,2.622257233,-0.995903552,-33,-1,-2,14,210
1695162359969499600,-8.973467827,-2.313995838,-0.132878199,-0.516271055,-0.008793262,-0.154015318,-9,1,-5,29,8,-9.714473724,1.941697598,2.315192938,0.093395106,2.627053738,-1.007228136,-29,2,-2,7,213
1695162359970499600,-8.975862503,-2.300827742,-0.14724341,-0.513606429,-0.007993874,-0.150151595,-11,-4,-6,28,9,-9.878476143,1.987187386,2.239775658,0.12616998,2.625721216,-1.026147008,-30,3,-1,16,212
1695162359971499600,-8.981847763,-2.285265446,-0.158017308,-0.511474729,-0.007061256,-0.146154657,-6,0,-6,30,7,-10.02452278,2.012326479,2.170343876,0.164540574,2.615329266,-1.046531439,-33,3,-2,16,210
1695162359972499600,-8.987833023,-2.272097349,-0.161608621,-0.509209812,-0.0063951,-0.142024502,-12,-1,-6,29,9,-10.15141487,2.069787264,2.15478158,0.206375197,2.601206541,-1.065316916,-34,2,-2,14,212
1695162360034460600,-9.006986618,-2.438494444,0.004788403,-0.538520634,0.020650841,-0.04729709,-7,0,-6,27,9,-13.0855093,3.578134537,2.574964046,0.700130105,2.468508482,-1.775039911,-31,5,-20,18,204
1695162360035460600,-9.005789757,-2.472013235,0.017956512,-0.542650819,0.021183766,-0.041834611,-10,0,-5,29,10,-13.23993587,3.598485231,2.512714624,0.710255742,2.440130234,-1.820205212,-31,4,-19,19,203
1695162360036460600,-9.009381294,-2.509123325,0.035913024,-0.547047496,0.02158346,-0.036771823,-7,0,-5,28,11,-13.38358784,3.612850428,2.437297344,0.72251302,2.406822205,-1.863238811,-31,4,-18,17,193
1695162360037460600,-9.008183479,-2.546233416,0.052672438,-0.551044405,0.021849923,-0.031975497,-8,0,-4,27,7,-13.51526833,3.609259129,2.342726469,0.737701356,2.369251251,-1.904807091,-34,3,-30,16,212
1695162360038460600,-9.005789757,-2.583343744,0.06584055,-0.55477488,0.022249617,-0.027312404,-6,-1,-6,29,9,-13.63497829,3.597288132,2.23019886,0.756486952,2.326217413,-1.944110274,-33,5,-23,17,204
1695162360076436900,-8.960299492,-3.365050554,0.096965171,-0.491756529,0.027845331,0.010924961,-9,0,1,26,9,-14.3281002,3.317166567,0.362721562,1.900676847,1.142324567,-2.059355259,-31,3,-23,17,202
1695162360077436900,-8.961497307,-3.391386747,0.080205753,-0.475901991,0.028777948,0.013323124,-10,0,0,29,9,-14.36401272,3.386598349,0.378283858,1.977417946,1.103687525,-2.034174681,-33,-1,-21,18,204
1695162360078436900,-8.962694168,-3.414131641,0.071826048,-0.458448708,0.03011026,0.015454824,-7,0,4,28,9,-14.39154625,3.465606928,0.389057785,2.048297167,1.071712017,-2.011525154,-31,1,-19,17,202
1695162360079436900,-8.965087891,-3.432088137,0.05865794,-0.439796329,0.03130934,0.017852986,-15,0,-1,26,9,-14.42267132,3.512293816,0.398634583,2.115712166,1.044133186,-1.987543583,-34,-1,-20,16,204
1695162360080436900,-8.972270966,-3.442862034,0.04309563,-0.420344561,0.032241959,0.020384381,-12,0,5,24,9,-14.47175217,3.578134537,0.426167905,2.180595636,1.021617174,-1.960497737,-30,1,-21,16,204
1695162360116415100,-9.042900085,-3.254917145,-0.37349546,-0.118975498,0.08726646,0.043433387,-6,1,10,29,11,-15.10262394,4.739322186,0.991199493,2.779603243,1.384938717,-1.779836059,-33,1,-20,16,202
1695162360117415100,-9.046490669,-3.23456645,-0.396240383,-0.104186833,0.090863705,0.044366002,-8,1,11,27,10,-15.10262394,4.776432514,1.010353088,2.79226017,1.419845223,-1.79555738,-33,-1,-26,14,204
1695162360118415100,-9.050082207,-3.217807055,-0.415394008,-0.089664623,0.094327718,0.045298621,-6,0,11,30,11,-15.10382175,4.802768707,1.024718285,2.803585052,1.454485416,-1.812611103,-33,1,-21,16,201
1695162360119415100,-9.050082207,-3.19745636,-0.428562105,-0.075542115,0.097525269,0.046098009,-6,0,6,27,12,-15.10023022,4.836287498,1.042674899,2.815442562,1.489392042,-1.830197573,-30,1,-22,16,202
1695162360120415100,-9.046490669,-3.181894064,-0.451307029,-0.061686065,0.100722812,0.047030624,-4,0,9,30,12,-15.10262394,4.87579155,1.060631394,2.826234341,1.524298549,-1.849382758,-31,-3,-24,17,199
1695162360159579800,-8.977059364,-2.825158119,-0.560243189,0.114045948,0.135362938,0.062218986,-8,0,10,29,13,-15.1720562,5.877765179,1.325190663,2.757620096,1.82886529,-2.231090307,-31,0,-22,16,202
1695162360160579800,-8.973467827,-2.811989784,-0.549469292,0.11924196,0.137228176,0.06461715,-9,1,11,29,11,-15.13734055,5.9436059,1.328781962,2.732839108,1.819139242,-2.242548227,-29,0,-20,15,201
1695162360161579800,-8.972270966,-2.801215887,-0.539892495,0.124571204,0.13869372,0.067148544,-8,0,13,29,14,-15.11100388,5.984307289,1.333570361,2.715252876,1.811145544,-2.249343157,-34,3,-17,17,204
1695162360162579800,-8.968679428,-2.79044199,-0.529118598,0.129900455,0.13975957,0.069946401,-8,0,13,31,10,-15.06431675,6.044162273,1.33835876,2.686608076,1.797156215,-2.258269548,-30,-2,-20,16,201
1695162360163579800,-8.962694168,-2.785653591,-0.521935999,0.135496169,0.140692189,0.072611026,-3,1,10,28,11,-15.01164436,6.104017258,1.345541358,2.65529871,1.781035185,-2.265863895,-29,1,-19,15,201
1695162360248571400,-8.882488251,-2.630030632,-0.380678058,0.227425739,0.138294026,0.125770286,-7,-2,16,31,8,-13.31415558,6.80791235,1.304839969,1.720148563,1.215735078,-2.069614172,-31,-2,-19,18,202
1695162360249571400,-8.877699852,-2.625242233,-0.383072257,0.230889738,0.136828482,0.128834605,-6,0,23,30,9,-13.20402241,6.821080685,1.321599364,1.660727382,1.182560444,-2.042701483,-33,-1,-21,16,198
1695162360250571400,-8.872911453,-2.619256735,-0.385466486,0.234353751,0.135496169,0.132032156,-7,0,19,29,9,-13.0902977,6.835445881,1.345541358,1.600906491,1.150718212,-2.014989138,-31,-1,-20,17,200
1695162360251571400,-8.865729332,-2.616862535,-0.389057785,0.237817764,0.133897394,0.135229707,-7,0,19,28,8,-12.97058773,6.845022678,1.369483352,1.54108572,1.120474696,-1.986477852,-29,-2,-18,14,201
1695162360252571400,-8.856152534,-2.609679937,-0.396240383,0.24154824,0.132298619,0.138427258,-5,0,20,26,9,-12.89277649,6.851007938,1.383848548,1.501382828,1.101289392,-1.966759443,-31,0,-19,16,198
1695162360319336600,-8.730456352,-2.37863946,-0.608127236,0.372248113,0.139226645,0.23528637,-9,0,24,28,12,-10.76193619,6.459556103,1.714248419,0.587416589,0.81031245,-1.337108731,-33,-2,-18,20,199
1695162360320336600,-8.726864815,-2.355894566,-0.63326633,0.382107198,0.142690659,0.241947934,-12,0,24,28,8,-10.67335129,6.412869453,1.715445518,0.559171498,0.798987746,-1.300603271,-31,-2,-19,18,197
1695162360321336600,-8.724471092,-2.328361034,-0.654814184,0.391433388,0.146554366,0.247810096,-9,0,25,30,10,-10.58955383,6.368576527,1.715445518,0.533457875,0.787130117,-1.263565183,-30,-1,-16,19,200
1695162360322336600,-8.713697433,-2.30681324,-0.673967779,0.400093406,0.150950998,0.253272593,-6,0,20,27,12,-10.50815105,6.3242836,1.716642618,0.509742737,0.774606407,-1.225594163,-31,-2,-16,17,200
1695162360323336600,-8.700529099,-2.282871246,-0.694318473,0.407820851,0.155614093,0.258068919,-7,-1,23,29,10,-10.43273354,6.277596951,1.714248419,0.488026023,0.761150062,-1.187090278,-29,-1,-18,19,200
1695162360365264100,-8.802282333,-1.916558504,-0.980425596,0.367585003,0.239949465,0.207174569,-8,0,23,30,9,-9.526528358,5.331887245,1.659181833,0.433934122,0.383705974,-0.304300129,-34,-2,-17,21,197
1695162360366264100,-8.821435928,-1.903390408,-0.987608194,0.3547948,0.242880553,0.198780999,-6,0,25,28,9,-9.488221169,5.273229122,1.632845521,0.452053577,0.355594188,-0.251274139,-31,-2,-15,19,198
1695162360367264100,-8.841787338,-1.889025092,-0.994790792,0.340938747,0.24567841,0.190120965,-7,1,24,28,11,-9.455899239,5.210979939,1.605312228,0.472837657,0.325883597,-0.19784838,-31,-2,-18,16,198
1695162360368264100,-8.866926193,-1.875856996,-1.00317049,0.326416522,0.247943342,0.181460962,-8,0,26,29,9,-9.421183586,5.146336555,1.568202138,0.496153146,0.29497394,-0.143623278,-32,-2,-17,20,198
1695162360369264100,-8.892065048,-1.8602947,-1.011550188,0.31109494,0.249808565,0.172401235,-8,0,25,30,10,-9.391256332,5.084087372,1.531091928,0.522133231,0.262465537,-0.088732004,-30,-2,-17,21,200
1695162360428296500,-9.473855972,-1.74896431,-1.073799491,-0.034506891,0.217166916,0.020251149,-8,0,22,28,12,-9.22725296,4.35385561,0.937329948,1.33177948,-0.479632467,1.045998454,-33,-2,-14,24,195
1695162360429296500,-9.494206429,-1.751358509,-1.069011092,-0.049961712,0.214635521,0.014921899,-6,1,23,29,7,-9.232041359,4.344278812,0.919373453,1.373347521,-0.51680398,1.104353786,-29,-2,-15,22,196
1695162360430296500,-9.516951561,-1.754949808,-1.067813993,-0.06461715,0.212637067,0.010258805,-15,0,25,30,9,-9.229647636,4.338293552,0.897825658,1.413583398,-0.553042889,1.162176013,-33,-2,-12,26,197
1695162360431296500,-9.530119896,-1.757344007,-1.066616893,-0.073810108,0.211304754,0.007460949,-8,0,24,29,9,-9.228450775,4.335899353,0.881066203,1.453019857,-0.587683022,1.219199181,-34,-3,-15,24,199
1695162360432296500,-9.546878815,-1.760935307,-1.059434295,-0.086467072,0.209705979,0.003730475,-6,-1,24,30,7,-9.22725296,4.332307816,0.865503907,1.490058184,-0.620857537,1.275289416,-29,-2,-16,20,198
1695162360606375300,-9.43315506,-1.947683096,-0.905008256,-0.099124044,0.249808565,0.048096478,-6,0,24,26,9,-9.308655739,4.388571739,0.452504128,1.87616241,-1.021617174,2.097326279,-33,-5,-12,30,196
1695162360607375300,-9.417592049,-1.954865694,-0.896628559,-0.089131698,0.252339959,0.054358348,-10,0,21,29,9,-9.31823349,4.405331135,0.441730201,1.876295567,-1.030943394,2.126636982,-30,-3,-7,30,197
1695162360608375300,-9.398438454,-1.954865694,-0.889445961,-0.07820674,0.254738122,0.060620211,-10,0,24,29,7,-9.325415611,4.420893669,0.429759204,1.873231292,-1.039736509,2.154615641,-35,-7,-12,31,196
1695162360609375300,-9.384073257,-1.954865694,-0.881066203,-0.070745789,0.255937219,0.064750381,-12,0,26,29,7,-9.333795547,4.430470467,0.417788208,1.869767189,-1.045065761,2.172468662,-28,-2,-9,31,193
1695162360610375300,-9.363722801,-1.956062794,-0.872686505,-0.059021436,0.257269531,0.070745789,-8,0,21,30,8,-9.350554466,4.442441463,0.403422982,1.862039685,-1.052127123,2.198315382,-31,-7,-9,30,196
1695162360648373600,-8.906430244,-1.850717902,-0.74459672,0.16573967,0.195716694,0.180128634,-7,-1,23,27,7,-9.657012939,4.566939831,0.362721562,1.221996903,-1.036006093,2.461313963,-31,-4,-3,32,198
1695162360649373600,-8.889671326,-1.844732404,-0.741005421,0.175998464,0.189321592,0.186656967,-6,0,22,28,9,-9.677363396,4.563348293,0.383072257,1.169370532,-1.023615599,2.46464467,-31,-6,-3,31,197
1695162360650373600,-8.872911453,-1.835155606,-0.74339962,0.186523736,0.182660028,0.193584993,-6,0,25,29,8,-9.703699112,4.560954094,0.404620081,1.115411997,-1.010025978,2.466776371,-30,-5,-5,36,195
1695162360651373600,-8.858546257,-1.827973008,-0.739808321,0.19638285,0.175998464,0.201045945,-11,0,24,27,9,-9.727641106,4.560954094,0.423773706,1.059854507,-0.994571209,2.467442513,-29,-4,-5,32,194
1695162360652373600,-8.851364136,-1.823184609,-0.738611221,0.202911183,0.171335369,0.205975503,-8,-2,24,30,11,-9.747992516,4.558559895,0.438138902,1.003364444,-0.977784038,2.466776371,-30,-4,-2,33,198
1695162360711938000,-8.932766914,-1.693897724,-0.787692368,0.319355279,0.017453292,0.397695243,-8,-2,23,30,9,-9.799467087,3.995922565,0.551863492,-0.050361406,-0.520800948,2.270926476,-30,-4,-2,32,196
1695162360712938000,-8.943540573,-1.695094824,-0.805648863,0.322153151,0.007860643,0.410218984,-7,0,25,30,11,-9.798270226,3.945644379,0.542286694,-0.089398161,-0.495486975,2.256803989,-30,-5,-2,32,193
1695162360713938000,-8.956708908,-1.690306425,-0.81881696,0.324551284,-0.001732006,0.422875971,-6,-2,23,29,9,-9.797073364,3.888183594,0.531512797,-0.126036748,-0.470972449,2.243081331,-31,-7,-2,33,199
1695162360714938000,-8.969876289,-1.687912226,-0.833182216,0.326949447,-0.011591119,0.435532928,-10,-1,25,29,8,-9.798270226,3.852270603,0.523133099,-0.149218991,-0.455117911,2.234287977,-27,-7,-2,37,197
1695162360715938000,-8.980650902,-1.689109325,-0.848744512,0.329214364,-0.021183766,0.448056638,-8,0,20,29,8,-9.798270226,3.79600668,0.508767843,-0.181860641,-0.431935668,2.221097946,-28,-6,-2,34,197
1695162360767050900,-9.192537308,-1.921346903,-1.183932781,0.390367538,-0.13656202,0.646970928,-8,-2,23,29,11,-9.691728592,2.698265314,0.195127442,-0.361323118,-0.192385912,2.019652367,-29,-5,-2,35,195
1695162360768050900,-9.208099365,-1.944091797,-1.195903778,0.397961706,-0.137494639,0.656030655,-8,-1,23,29,11,-9.683348656,2.665943623,0.198718742,-0.353196025,-0.186390504,2.007661581,-29,-3,-2,37,196
1695162360769050900,-9.222464561,-1.966836691,-1.205480576,0.406088829,-0.137494639,0.664957106,-6,0,24,27,11,-9.677363396,2.63721323,0.207098454,-0.344136298,-0.180261865,1.994738102,-30,-9,-2,34,194
1695162360770050900,-9.236829758,-1.994369984,-1.219845772,0.414748847,-0.136695251,0.673750401,-6,0,25,26,8,-9.672574997,2.619256735,0.211886853,-0.337874413,-0.175998464,1.985678434,-29,-7,-2,34,194
1695162360771050900,-9.252392769,-2.024297476,-1.230619669,0.424075037,-0.135496169,0.682143927,-8,0,21,28,8,-9.666589737,2.594117641,0.219069451,-0.328015327,-0.169203669,1.971422672,-31,-7,-2,34,194
1695162360844346100,-9.481039047,-2.516305923,-1.333570361,0.71212095,-0.05489127,0.755287945,-4,0,25,32,9,-9.240421295,2.606088638,0.538695395,-0.249275655,0.064350687,1.456750393,-31,-7,0,37,196
1695162360845346100,-9.488221169,-2.536656618,-1.334767461,0.73183918,-0.050228179,0.75368911,-8,0,25,29,9,-9.206902504,2.610877037,0.547075093,-0.253938764,0.078739658,1.419179201,-31,-9,0,37,194
1695162360846346100,-9.48941803,-2.549824715,-1.33716166,0.745162308,-0.047163859,0.752223551,-7,0,24,27,12,-9.174580574,2.612074137,0.554257691,-0.259267986,0.09272895,1.380941868,-31,-5,-2,38,194
1695162360847346100,-9.498994827,-2.56778121,-1.33835876,0.765413463,-0.042367533,0.749425709,-4,0,26,29,11,-9.141061783,2.613271236,0.562637389,-0.265130162,0.106584989,1.342304707,-29,-7,0,38,194
1695162360848346100,-9.508571625,-2.584540844,-1.341950059,0.785531402,-0.037704438,0.745961726,-3,0,24,26,9,-9.114726067,2.616862535,0.573411286,-0.27165848,0.120041348,1.303401232,-30,-5,-2,37,195
1695162360889531000,-9.806650162,-2.681505919,-1.197100878,1.129534483,0.036771823,0.539320052,-3,0,21,29,12,-8.566453934,2.662352324,0.703895271,-0.451120973,0.302568167,0.571695268,-28,-8,-1,37,196
1695162360890531000,-9.828198433,-2.683900118,-1.179144382,1.145255804,0.039436448,0.521067381,-8,0,23,27,9,-8.537723541,2.665943623,0.714669228,-0.461779475,0.310428768,0.534656942,-29,-8,0,41,195
1695162360891531000,-9.844957352,-2.685097218,-1.164779186,1.160577416,0.041967839,0.502548277,-6,-5,15,39,9,-8.512583733,2.670732021,0.727837324,-0.472304761,0.318289429,0.4981516,-31,-7,-1,40,196
1695162360892531000,-9.860519409,-2.680308819,-1.143231273,1.175366044,0.044099543,0.483629376,-7,0,24,29,9,-8.485051155,2.67552042,0.74339962,-0.482563555,0.32615009,0.462179184,-29,-8,-1,40,195
1695162360893531000,-9.873687744,-2.671929121,-1.120486379,1.189754963,0.046098009,0.464310884,-8,0,21,29,10,-8.459911346,2.683900118,0.756567717,-0.492555887,0.33401072,0.426739663,-25,-7,1,36,197
1695162360947422700,-9.736021042,-2.132036686,-0.897825658,1.185758114,0.007194487,0.039702907,-8,-1,25,30,9,-8.263586998,2.883816004,1.012747288,-0.626986206,0.410485446,-0.173866764,-28,-11,-1,37,196
1695162360948422700,-9.715670586,-2.100912094,-0.895431459,1.166972399,0.001998469,0.013456355,-8,0,22,28,11,-8.271966934,2.930502892,1.025915384,-0.632315457,0.411018372,-0.207840726,-31,-8,-1,34,190
1695162360949422700,-9.694122314,-2.069787264,-0.89064306,1.146321654,-0.003464012,-0.012656967,-6,0,20,30,9,-8.276755333,2.979583979,1.036689281,-0.638444126,0.411284834,-0.243013784,-26,-8,-2,37,194
1695162360950422700,-9.674968719,-2.032677174,-0.884657502,1.124071956,-0.008926493,-0.038903523,-8,0,21,29,8,-8.285135269,3.031059265,1.055842996,-0.645238936,0.41141808,-0.278586507,-29,-7,-2,35,194
1695162360951422700,-9.654618263,-1.994369984,-0.877474904,1.100223541,-0.014522205,-0.065016843,-6,0,21,27,9,-8.288725853,3.08373189,1.073799491,-0.653099477,0.411817759,-0.314825416,-29,-5,0,37,194
1695162360994398600,-9.376891136,-1.776497602,-0.798466265,0.614462495,-0.079139359,-0.474303216,-7,-2,19,28,8,-8.358158112,4.265270233,1.55862534,-1.123672247,0.589415014,-0.967125535,-31,-11,-2,33,194
1695162360995398600,-9.364919662,-1.777694821,-0.798466265,0.59780854,-0.081537522,-0.489758044,-8,0,24,30,7,-8.366538048,4.289212227,1.556231141,-1.158845425,0.604203641,-0.992439508,-31,-9,-2,34,192
1695162360996398600,-9.350554466,-1.780089021,-0.796072066,0.582620203,-0.083669223,-0.504013777,-6,0,23,29,10,-8.374917984,4.310760021,1.56101954,-1.193218946,0.618459463,-1.016154647,-30,-8,-3,36,196
1695162360997398600,-9.339780807,-1.78368032,-0.798466265,0.56876421,-0.085934147,-0.517736614,-8,-1,25,29,12,-8.390480042,4.328716755,1.56101954,-1.227059722,0.632049024,-1.038404226,-31,-8,0,32,194
1695162360998398600,-9.329007149,-1.78128612,-0.800860465,0.556240439,-0.087932616,-0.530260324,-10,-1,23,28,11,-8.406042099,4.340687752,1.556231141,-1.26010108,0.644173086,-1.059188366,-31,-10,-2,36,193
1695162361059619200,-9.204508781,-1.683123827,-0.957680702,0.478566617,-0.135762632,-0.631649256,-7,0,23,30,12,-8.700529099,3.930082083,1.124077678,-1.425707459,0.592479289,-1.17230165,-30,-5,-2,32,194
1695162361060619200,-9.206902504,-1.673547029,-0.974440098,0.480431855,-0.139359877,-0.631782591,-8,0,24,30,11,-8.720879555,3.915716887,1.096544385,-1.404657006,0.576891303,-1.165373683,-33,-8,-4,31,192
1695162361061619200,-9.210494041,-1.663970232,-0.986411095,0.482563555,-0.143223584,-0.631516039,-8,0,26,29,7,-8.737639427,3.890577793,1.070208192,-1.381608009,0.559704423,-1.157779455,-31,-7,-2,32,198
1695162361062619200,-9.21528244,-1.656787634,-0.997184992,0.485228181,-0.147087291,-0.630849898,-6,0,21,30,10,-8.752004623,3.859453201,1.046266198,-1.355361342,0.541318536,-1.149252653,-31,-8,-2,33,194
1695162361063619200,-9.222464561,-1.649604917,-1.00556469,0.488159269,-0.150817752,-0.629650831,-8,0,23,27,8,-8.763975143,3.828328609,1.030703783,-1.326716661,0.52253288,-1.139660001,-29,-9,-3,31,194
1695162361127809500,-9.640253067,-1.369483352,-1.229422569,0.527329266,-0.194117904,-0.555307806,-10,0,23,28,10,-8.747216225,3.722983599,0.799663365,-0.528528333,0.192252681,-0.821370602,-29,-9,-2,32,194
1695162361128809500,-9.659406662,-1.346738458,-1.246181965,0.523865223,-0.194517612,-0.549978554,-8,0,23,29,8,-8.743624687,3.736151695,0.798466265,-0.484828472,0.18079479,-0.80098623,-32,-6,-2,31,193
1695162361129809500,-9.677363396,-1.323993564,-1.26533556,0.519468606,-0.194650844,-0.544782579,-8,0,24,27,9,-8.735244751,3.749319792,0.791283667,-0.442061275,0.170269519,-0.780601799,-30,-11,-2,32,193
1695162361130809500,-9.692925453,-1.304839969,-1.276109457,0.514272571,-0.194517612,-0.539986193,-10,-1,20,29,13,-8.731653214,3.760093689,0.791283667,-0.400359869,0.160143942,-0.760883629,-30,-5,-2,32,192
1695162361131809500,-9.703699112,-1.282094955,-1.286883354,0.507877529,-0.193851456,-0.535456359,-7,3,21,30,7,-8.729259491,3.767276287,0.790086567,-0.373313934,0.153882071,-0.747693717,-30,-5,-2,32,196
1695162361286326700,-9.452308655,-1.237802267,-1.397016644,0.330946386,-0.115777947,-0.476701379,-8,1,26,27,11,-8.670601845,4.005499363,0.661996782,0.204776406,0.083935678,-0.460713625,-30,-5,-2,31,194
1695162361287326700,-9.417592049,-1.250970364,-1.397016644,0.326549739,-0.107517615,-0.472837657,-8,-2,24,28,9,-8.665813446,4.024652958,0.656011283,0.223428801,0.084601834,-0.450987756,-31,-6,-2,31,194
1695162361288326700,-9.378087997,-1.26533556,-1.393425345,0.323352218,-0.099124044,-0.468574256,-4,0,23,29,11,-8.665813446,4.035427094,0.657208383,0.235153139,0.08513476,-0.444459409,-29,-7,-2,32,194
1695162361289326700,-9.337387085,-1.278503656,-1.386242747,0.321620196,-0.090197548,-0.464044392,-7,0,23,29,11,-8.664615631,4.052186489,0.653617084,0.251540571,0.085934147,-0.434866786,-33,-7,-2,32,193
1695162361290326700,-9.295488358,-1.30005157,-1.379060149,0.320954055,-0.080871366,-0.45911485,-8,0,23,30,9,-8.661025047,4.070142746,0.651222885,0.266862184,0.086999997,-0.42540735,-35,-8,-2,32,193
1695162361359287300,-8.70172596,-1.711854219,-1.11569798,0.57342726,0.058621746,-0.318689138,-8,0,23,31,11,-8.621520042,4.30956316,0.578199685,0.31216079,0.110182241,-0.249542102,-31,-8,-2,33,193
1695162361360287300,-8.68975544,-1.714248419,-1.106121182,0.598075032,0.060220521,-0.311361402,-3,0,20,28,9,-8.626308441,4.310760021,0.573411286,0.305099547,0.110448696,-0.240082696,-30,-7,-3,32,194
1695162361361287300,-8.682572365,-1.716642618,-1.097741485,0.614595711,0.061019909,-0.307098001,-6,0,24,32,11,-8.627506256,4.313154221,0.569819987,0.297771841,0.110581927,-0.230490044,-31,-5,-2,37,194
1695162361362287300,-8.671798706,-1.714248419,-1.084573388,0.639110267,0.061686065,-0.300836146,-8,0,24,29,7,-8.629899979,4.316745758,0.563834488,0.29031086,0.110848397,-0.220897391,-31,-9,-2,31,192
1695162361363287300,-8.658630371,-1.713051319,-1.072602391,0.662825465,0.061552834,-0.295240432,-6,-1,26,29,13,-8.632294655,4.316745758,0.561440289,0.282183766,0.110981621,-0.211437985,-33,-8,-2,31,197
1695162361423247700,-8.511386871,-1.15280807,-1.094150186,0.729574263,0.014388974,-0.309229732,-4,-2,25,32,9,-8.66341877,4.188655853,0.507570744,0.119774885,0.137361407,-0.045831546,-32,-5,-1,33,196
1695162361424247700,-8.514978409,-1.11689508,-1.097741485,0.708656967,0.012523737,-0.315225124,-8,-3,26,29,7,-8.668207169,4.176684856,0.502782345,0.112846859,0.139626339,-0.037038282,-31,-9,-2,31,189
1695162361425247700,-8.517372131,-1.085770488,-1.106121182,0.686007679,0.011191424,-0.321353763,-10,0,24,26,8,-8.670601845,4.161122322,0.497993946,0.106318533,0.14175804,-0.028378254,-31,-9,-3,32,194
1695162361426247700,-8.518569946,-1.052251697,-1.113303781,0.660826921,0.010392036,-0.327748835,-7,0,25,30,9,-8.677783966,4.146757126,0.494402647,0.099923424,0.144022971,-0.019718224,-29,-9,-4,31,196
1695162361427247700,-8.518569946,-1.016338587,-1.119289279,0.633914232,0.010392036,-0.334543616,-4,0,24,32,11,-8.682572365,4.13239193,0.494402647,0.093928024,0.145888209,-0.011324655,-33,-6,-2,32,193
1695162361466226300,-8.609549522,-0.852335811,-1.205480576,-0.031442571,0.130300149,-0.433534473,-8,2,23,29,9,-8.74003315,3.881000996,0.638054729,0.050228179,0.185724348,0.119508423,-29,-8,-9,31,193
1695162361467226300,-8.620323181,-0.870292306,-1.199495077,-0.062085759,0.141091883,-0.435000002,-7,0,23,29,11,-8.74003315,3.877409697,0.647631586,0.049961712,0.187589586,0.122439511,-29,-6,-2,31,188
1695162361468226300,-8.628703117,-0.884657502,-1.199495077,-0.081404284,0.148286372,-0.435266435,-8,-1,23,29,12,-8.744821548,3.871424198,0.66917938,0.049428791,0.19118683,0.127768755,-28,-5,-2,32,192
1695162361469226300,-8.637083054,-0.908599555,-1.200692177,-0.108583458,0.159211323,-0.435532928,-10,0,22,25,9,-8.749609947,3.870227098,0.687135875,0.048762634,0.193851456,0.131232768,-31,-7,-2,33,194
1695162361470226300,-8.647856712,-0.932541549,-1.199495077,-0.133897394,0.170136288,-0.435133219,-5,0,25,30,9,-8.753201485,3.866635799,0.70509243,0.047830015,0.196249619,0.134297088,-29,-8,-2,31,195
1695162361514198700,-8.895656586,-1.335964561,-0.980425596,-0.288578868,0.371848404,-0.328015327,-6,0,22,29,4,-8.811859131,3.867832899,1.070208192,-0.028911179,0.175865233,0.168404296,-30,-6,-2,32,196
1695162361515198700,-8.907627106,-1.334767461,-0.9672575,-0.290577352,0.380641639,-0.320954055,-11,0,23,29,8,-8.811859131,3.870227098,1.090558887,-0.036771823,0.171202138,0.169203669,-32,-8,-2,33,196
1695162361516198700,-8.923190117,-1.33716166,-0.957680702,-0.29350841,0.389168471,-0.314425707,-10,0,23,26,12,-8.81066227,3.871424198,1.102529883,-0.042367533,0.168137819,0.169603363,-29,-7,-2,31,194
1695162361517198700,-8.935160637,-1.33716166,-0.945709646,-0.297372133,0.396762639,-0.308430314,-8,0,21,26,11,-8.811859131,3.872621298,1.11689508,-0.050761104,0.164007664,0.170003071,-32,-7,-2,31,194
1695162361518198700,-8.947132111,-1.333570361,-0.934935749,-0.302568167,0.40355742,-0.3028346,-8,-1,22,29,12,-8.813055992,3.875015497,1.130063176,-0.059554365,0.159877479,0.170003071,-31,-7,-1,33,194
1695162361551174900,-8.966285706,-1.489193439,-0.675164878,-0.657895863,0.459647775,-0.236085743,-9,0,20,28,7,-9.11233139,4.384980202,1.48799634,-0.227558956,0.146554366,0.07820674,-29,-8,-2,33,195
1695162361552174900,-8.957905769,-1.514332533,-0.659602582,-0.685474753,0.463644713,-0.233154669,-8,-1,21,24,9,-9.163806915,4.493916512,1.534683347,-0.23941654,0.152816221,0.06261868,-30,-8,-2,31,193
1695162361553174900,-8.954314232,-1.543063045,-0.648828685,-0.712254226,0.468041331,-0.230090365,-8,0,20,28,11,-9.220070839,4.616020679,1.582567334,-0.252739668,0.160410419,0.045565084,-30,-8,-2,32,194
1695162361554174900,-8.947132111,-1.572990537,-0.63206923,-0.738101065,0.472837657,-0.22702603,-5,0,23,29,10,-9.277531624,4.745307922,1.634042621,-0.266595691,0.168937206,0.027179174,-31,-11,-2,31,194
1695162361555174900,-8.938752174,-1.605312228,-0.612915635,-0.762882054,0.477900445,-0.223961711,-8,1,23,26,9,-9.337387085,4.87579155,1.685518026,-0.279519141,0.178130165,0.008660031,-30,-6,-2,32,193
1695162361608141800,-8.965087891,-2.322375536,-0.306457818,-0.873330772,0.521733522,-0.125903517,-5,-1,15,31,9,-10.53328991,8.797493935,2.278082848,-0.554908097,-0.060353752,0.00319755,-28,-7,-3,29,194
1695162361609141800,-8.971074104,-2.353500366,-0.293289721,-0.857343078,0.516670763,-0.116710559,-8,1,20,29,12,-10.63264942,9.088389397,2.331952572,-0.57809037,-0.094993874,0.036771823,-29,-10,-5,28,190
1695162361610141800,-8.978256226,-2.383427858,-0.278924495,-0.839090347,0.510675371,-0.106718227,-3,0,22,33,8,-10.73081207,9.367314339,2.389413357,-0.604869843,-0.131366,0.073943339,-31,-6,-5,30,194
1695162361611141800,-8.983044624,-2.412158251,-0.265756398,-0.818839192,0.503614068,-0.096192956,-10,0,19,28,9,-10.81341171,9.628282547,2.446874142,-0.633514524,-0.168670759,0.114978559,-34,-8,-3,29,194
1695162361612141800,-8.986636162,-2.438494444,-0.254982471,-0.796589553,0.495753467,-0.085267991,-13,-1,19,28,9,-10.89002609,9.865307808,2.505532026,-0.663358331,-0.207174569,0.161209792,-34,-7,-3,30,190
1695162361674106500,-9.059659004,-2.522291422,-0.123301387,-0.240349159,0.225560486,0.163075045,-12,0,16,28,9,-12.5551939,11.50533581,2.756923199,-1.008293986,-1.349099517,1.839390516,-30,-4,-9,26,192
1695162361675106500,-9.056067467,-2.512714624,-0.122104287,-0.222629398,0.213702917,0.172667682,-5,0,16,28,7,-12.6437788,11.51730728,2.785653591,-0.985511482,-1.42104435,1.942911148,-30,-6,-5,31,195
1695162361676106500,-9.051279068,-2.498349428,-0.117315881,-0.196782529,0.195849925,0.187323123,-6,0,15,28,9,-12.7024374,11.53047562,2.811989784,-0.968457878,-1.467808604,2.01019311,-34,-8,-4,28,196
1695162361677106500,-9.048885345,-2.483984232,-0.111330383,-0.172401235,0.177996933,0.201845318,-6,0,20,29,8,-12.78862858,11.55561447,2.855085611,-0.939813137,-1.535623312,2.108118057,-33,-9,-5,26,193
1695162361678106500,-9.047688484,-2.467224836,-0.106541976,-0.149618685,0.160410419,0.21663399,-8,-4,16,34,12,-12.8640461,11.58434486,2.911349297,-0.907704413,-1.59984076,2.20164609,-31,-6,-2,30,190
1695162361759055900,-9.120711327,-2.273294449,-0.05865794,0.072344564,-0.168137819,0.466176093,-8,0,13,27,13,-14.05516148,12.8053875,2.577358246,-0.277653903,-1.882290959,3.434434891,-32,-9,0,46,194
1695162361760055900,-9.133879662,-2.275688648,-0.053869538,0.080738127,-0.188388973,0.477234304,-6,-1,20,29,11,-14.05875206,12.85805988,2.558204412,-0.2809847,-1.887886643,3.505580425,-34,-5,5,48,194
1695162361761055900,-9.133879662,-2.279279947,-0.046686932,0.087399691,-0.201312408,0.484828472,-11,0,17,28,10,-14.05875206,12.90953541,2.552218914,-0.288445652,-1.893349171,3.581122637,-35,-7,3,49,193
1695162361762055900,-9.141061783,-2.280477047,-0.04309563,0.094727404,-0.221297085,0.497485459,-6,0,16,29,12,-14.04558468,12.96939087,2.547430515,-0.301901996,-1.89734602,3.659062624,-36,-8,7,48,194
1695162361763055900,-9.147047997,-2.281674147,-0.035913024,0.101388969,-0.242081165,0.51000917,-8,-1,17,29,11,-14.01565647,13.02685165,2.552218914,-0.320421129,-1.897612572,3.737802505,-37,-5,9,48,193
1695162361830014700,-9.252392769,-2.102109194,-0.073023155,0.086733535,-0.482696772,0.715851426,-4,0,15,26,9,-13.56315231,12.10029507,2.327163935,-1.426373601,-1.420511484,4.365588188,-31,-6,59,70,196
1695162361831014700,-9.260771751,-2.093729496,-0.077811554,0.074875958,-0.486560494,0.725577295,-12,0,13,23,10,-13.52843666,11.89319706,2.240972757,-1.505246639,-1.429038286,4.365588188,-31,-7,56,70,197
1695162361832014700,-9.269151688,-2.081758261,-0.08499416,0.061819296,-0.489758044,0.73543644,-6,0,15,28,13,-13.48174953,11.65377712,2.157175779,-1.579856038,-1.445692182,4.365588188,-32,-4,61,69,197
1695162361833014700,-9.282320023,-2.068590164,-0.092176765,0.047563553,-0.491889745,0.744762659,-6,-5,13,27,9,-13.41710663,11.39520264,2.090138197,-1.650601745,-1.470872879,4.365588188,-32,-7,58,68,194
1695162361834014700,-9.29189682,-2.055422068,-0.10055647,0.031975497,-0.49348852,0.753955603,-6,0,12,28,11,-13.30098724,11.09473038,2.005143881,-1.720015407,-1.503514528,4.365588188,-29,-9,62,69,196
1695162361887982900,-9.500192642,-2.11527729,-0.379480958,-0.347600311,-0.445791721,0.843087316,-8,0,15,28,11,-9.283516884,5.383362293,1.772906303,-2.253073454,-2.238684654,4.365588188,-5,-12,89,93,197
1695162361888982900,-9.510966301,-2.132036686,-0.399831682,-0.367318511,-0.44152835,0.84295404,-7,1,13,24,12,-8.931569099,5.114014626,1.78248322,-2.239750385,-2.263465643,4.365588188,-1,-8,91,96,197
1695162361889982900,-9.522936821,-2.148796082,-0.417788208,-0.386370599,-0.436998457,0.842421114,-8,0,13,27,14,-8.577227592,4.850652695,1.81959331,-2.221231222,-2.283983231,4.365588188,-1,-9,88,95,195
1695162361890982900,-9.536105156,-2.170343876,-0.434547603,-0.404490054,-0.43260181,0.841088772,-5,1,15,28,11,-8.226476669,4.586093426,1.883039594,-2.197915792,-2.299304724,4.365588188,-4,-8,91,95,193
1695162361891982900,-9.546878815,-2.189497471,-0.452504128,-0.421810091,-0.428071976,0.839489996,-7,1,15,28,12,-7.886500359,4.310760021,1.97042799,-2.169137716,-2.307964802,4.365588188,7,-9,91,95,193
1695162361961941200,-9.621099472,-2.545036316,-0.835576415,-0.543450236,-0.333744258,0.713320017,-10,-2,13,28,10,-2.527079821,2.133233786,3.177105665,-1.083836079,-1.731206775,3.786698341,10,-7,96,98,194
1695162361962941200,-9.61870575,-2.553416014,-0.858321309,-0.540652335,-0.327482402,0.701462448,-4,-2,12,15,12,-2.26730895,2.109291792,3.262099743,-1.041868329,-1.680578828,3.741532803,9,-5,99,98,191
1695162361963941200,-9.61870575,-2.560598612,-0.878672004,-0.537055135,-0.321353763,0.688938737,-7,0,13,29,11,-2.025494576,2.080561161,3.34469986,-1.002831578,-1.629551291,3.696634054,11,-4,100,98,193
1695162361964941200,-9.615114212,-2.570175409,-0.897825658,-0.532658458,-0.315091878,0.676148593,-4,0,13,24,9,-1.806425214,2.053027868,3.41892004,-0.966326177,-1.578656912,3.651335239,11,-6,95,98,194
1695162361965941200,-9.609128952,-2.574964046,-0.918176353,-0.527862132,-0.308696777,0.662825465,-6,0,11,29,11,-1.595735431,2.030282974,3.487154722,-0.931686044,-1.528961658,3.605903625,13,-3,99,104,193
