timestamp,EMG_s0,EMG_s1,EMG_s2,EMG_s3,EMG_s4,EMG_s5,EMG_s6,EMG_s7
1.6951632470301484e+18,-1.0,0.0,0.0,1.0,-1.0,-1.0,-1.0,0.0
1.6951632470301484e+18,-1.0,0.0,0.0,-1.0,-1.0,0.0,0.0,-1.0
1.6951632470361503e+18,-3.0,-3.0,-1.0,1.0,-2.0,-1.0,0.0,0.0
1.6951632470361503e+18,-1.0,-1.0,0.0,0.0,-2.0,-2.0,0.0,-2.0
1.695163247037145e+18,-2.0,-1.0,-1.0,-1.0,0.0,-1.0,-1.0,0.0
1.695163247037145e+18,0.0,-1.0,0.0,1.0,-1.0,0.0,-1.0,-1.0
1.695163247038145e+18,0.0,-1.0,-2.0,-1.0,-2.0,-1.0,-1.0,-1.0
1.695163247038145e+18,-1.0,-2.0,0.0,-2.0,-1.0,1.0,-1.0,0.0
1.6951632470491387e+18,0.0,0.0,-1.0,0.0,1.0,1.0,0.0,-1.0
1.6951632470491387e+18,-1.0,-1.0,-2.0,1.0,-2.0,-1.0,-2.0,-1.0
1.695163247060132e+18,0.0,0.0,0.0,-1.0,-1.0,-1.0,-1.0,0.0
1.695163247060132e+18,-1.0,0.0,-1.0,1.0,-2.0,-1.0,-2.0,0.0
1.6951632470641388e+18,-2.0,-1.0,-1.0,-2.0,-2.0,-1.0,0.0,0.0
1.6951632470641388e+18,0.0,-1.0,0.0,-2.0,-3.0,0.0,-2.0,-1.0
1.6951632470821194e+18,-1.0,0.0,-1.0,-1.0,-1.0,-1.0,-1.0,-2.0
1.6951632470821194e+18,-1.0,-2.0,-2.0,-1.0,0.0,0.0,0.0,-1.0
1.6951632470881178e+18,-1.0,1.0,-1.0,-2.0,0.0,-1.0,-1.0,0.0
1.6951632470881178e+18,-1.0,0.0,0.0,-1.0,0.0,-1.0,0.0,-1.0
1.695163247104106e+18,0.0,-1.0,0.0,-1.0,0.0,-2.0,-1.0,0.0
1.695163247104106e+18,0.0,-1.0,0.0,-1.0,1.0,-4.0,-2.0,-2.0
1.6951632471091034e+18,-1.0,-2.0,0.0,-1.0,-1.0,-1.0,-1.0,0.0
1.6951632471091034e+18,-1.0,-1.0,-3.0,0.0,0.0,-1.0,-1.0,0.0
1.6951632471281016e+18,0.0,0.0,0.0,-1.0,-1.0,0.0,-1.0,-2.0
1.6951632471281016e+18,-1.0,1.0,0.0,0.0,-2.0,-1.0,-2.0,-1.0
1.6951632471710684e+18,-3.0,-1.0,0.0,-2.0,0.0,1.0,-1.0,-1.0
1.6951632471710684e+18,0.0,-3.0,-2.0,0.0,0.0,1.0,0.0,-1.0
1.6951632471710684e+18,0.0,-1.0,-1.0,0.0,0.0,0.0,-2.0,1.0
1.6951632471720704e+18,0.0,-1.0,-2.0,-1.0,-2.0,-2.0,0.0,0.0
1.6951632471720704e+18,0.0,-2.0,-1.0,-1.0,-2.0,-2.0,-2.0,0.0
1.6951632471720704e+18,-1.0,1.0,0.0,0.0,0.0,-2.0,-1.0,-1.0
1.695163247173067e+18,-1.0,-1.0,-1.0,1.0,-2.0,0.0,1.0,-2.0
1.695163247173067e+18,-2.0,0.0,0.0,0.0,-1.0,0.0,-1.0,-1.0
1.6951632471850609e+18,1.0,1.0,-1.0,0.0,0.0,1.0,-1.0,-1.0
1.6951632471850609e+18,-1.0,-1.0,-1.0,-2.0,0.0,0.0,-1.0,1.0
1.6951632471850609e+18,1.0,-1.0,1.0,0.0,-1.0,0.0,0.0,0.0
1.6951632471850609e+18,0.0,-1.0,-2.0,1.0,-2.0,0.0,1.0,2.0
1.695163247193056e+18,0.0,-1.0,0.0,0.0,1.0,1.0,3.0,1.0
1.695163247193056e+18,-1.0,2.0,0.0,-2.0,0.0,1.0,0.0,1.0
1.6951632472060698e+18,1.0,1.0,-1.0,-1.0,1.0,0.0,-2.0,-1.0
1.6951632472060698e+18,1.0,1.0,1.0,0.0,-1.0,0.0,-1.0,-1.0
1.6951632472160468e+18,-1.0,1.0,1.0,-1.0,-1.0,-1.0,0.0,0.0
1.6951632472160468e+18,-3.0,0.0,-1.0,1.0,-1.0,-1.0,-1.0,0.0
1.6951632472290348e+18,1.0,-2.0,-2.0,-2.0,0.0,-1.0,-1.0,-1.0
1.6951632472290348e+18,-1.0,0.0,-1.0,-2.0,-2.0,-1.0,-1.0,-1.0
1.69516324723803e+18,1.0,0.0,0.0,0.0,-2.0,-2.0,-2.0,0.0
1.69516324723803e+18,0.0,0.0,-1.0,-1.0,-1.0,-1.0,0.0,0.0
1.695163247253024e+18,0.0,1.0,0.0,-1.0,-1.0,0.0,-1.0,1.0
1.695163247253024e+18,0.0,-1.0,-1.0,-1.0,1.0,-1.0,-1.0,1.0
1.695163247254043e+18,0.0,0.0,-1.0,-2.0,-3.0,0.0,0.0,-1.0
1.695163247254043e+18,1.0,0.0,0.0,1.0,-2.0,-1.0,0.0,0.0
1.6951632472740083e+18,-1.0,0.0,1.0,1.0,-1.0,-1.0,0.0,0.0
1.6951632472740083e+18,-1.0,0.0,-1.0,-2.0,0.0,-1.0,-1.0,0.0
1.6951632472890025e+18,-1.0,-1.0,2.0,0.0,-1.0,1.0,-2.0,0.0
1.6951632472900027e+18,1.0,-1.0,-1.0,-2.0,0.0,0.0,-1.0,-1.0
1.6951632472900027e+18,-1.0,-1.0,-1.0,-2.0,-2.0,-2.0,-1.0,-1.0
1.6951632472900027e+18,0.0,0.0,1.0,1.0,0.0,-1.0,0.0,-3.0
1.6951632472979953e+18,0.0,0.0,-1.0,-1.0,2.0,-1.0,0.0,0.0
1.6951632472979953e+18,-1.0,-1.0,-1.0,-1.0,-2.0,-2.0,-2.0,-2.0
1.6951632473199836e+18,0.0,-2.0,1.0,1.0,0.0,-1.0,0.0,-1.0
1.6951632473199836e+18,-1.0,0.0,-2.0,0.0,0.0,1.0,-1.0,0.0
1.695163247321983e+18,-1.0,0.0,-1.0,0.0,-1.0,-2.0,0.0,0.0
1.695163247321983e+18,1.0,-1.0,1.0,0.0,1.0,-1.0,-1.0,0.0
1.6951632473379763e+18,-1.0,0.0,-1.0,-3.0,-3.0,1.0,0.0,0.0
1.6951632473379763e+18,-1.0,-2.0,-1.0,-1.0,-1.0,0.0,0.0,1.0
1.6951632473379763e+18,0.0,-1.0,-2.0,-1.0,-1.0,0.0,-1.0,1.0
1.6951632473379763e+18,-2.0,1.0,0.0,-2.0,-1.0,1.0,-1.0,-1.0
1.695163247348966e+18,-2.0,-2.0,-1.0,0.0,-1.0,-1.0,-1.0,0.0
1.695163247348966e+18,-1.0,1.0,0.0,-1.0,-1.0,-1.0,0.0,-2.0
1.6951632473579615e+18,-2.0,-1.0,1.0,-1.0,-2.0,-2.0,0.0,0.0
1.6951632473579615e+18,-1.0,-1.0,-1.0,-2.0,0.0,-1.0,-1.0,0.0
1.6951632473719736e+18,-2.0,0.0,-2.0,0.0,-2.0,-4.0,-1.0,-2.0
1.6951632473719736e+18,-1.0,0.0,-1.0,-2.0,-1.0,0.0,1.0,0.0
1.6951632473789496e+18,0.0,-1.0,-1.0,1.0,1.0,-2.0,-1.0,-2.0
1.695163247387946e+18,-1.0,0.0,-1.0,0.0,-1.0,-1.0,0.0,-1.0
1.6951632474029394e+18,0.0,0.0,-1.0,-2.0,1.0,1.0,0.0,1.0
1.6951632474029394e+18,0.0,-1.0,0.0,-1.0,1.0,0.0,0.0,0.0
1.695163247403938e+18,-2.0,0.0,-1.0,-3.0,0.0,0.0,-1.0,-1.0
1.695163247403938e+18,0.0,0.0,-1.0,-1.0,0.0,0.0,-1.0,-1.0
1.695163247417927e+18,-2.0,0.0,-3.0,0.0,0.0,0.0,-1.0,0.0
1.695163247417927e+18,-1.0,-1.0,-2.0,0.0,-1.0,-1.0,0.0,-3.0
1.6951632474189276e+18,0.0,-1.0,-1.0,0.0,0.0,-1.0,-1.0,-3.0
1.6951632474199258e+18,0.0,0.0,-1.0,-2.0,-2.0,-3.0,-1.0,-1.0
1.6951632474319186e+18,-2.0,-3.0,-1.0,-1.0,-1.0,-1.0,-1.0,-2.0
1.6951632474319186e+18,-3.0,-3.0,-2.0,-2.0,-2.0,-2.0,-3.0,-2.0
1.6951632474389146e+18,-1.0,-2.0,-3.0,-1.0,-2.0,-3.0,-1.0,-2.0
1.6951632474389146e+18,-1.0,-2.0,-2.0,0.0,-2.0,-2.0,-1.0,-1.0
1.6951632474549076e+18,-1.0,-2.0,-2.0,-2.0,-1.0,-2.0,0.0,0.0
1.6951632474549076e+18,-2.0,-2.0,-2.0,-1.0,-1.0,-1.0,-1.0,-2.0
1.6951632474569052e+18,0.0,-2.0,-1.0,-1.0,-2.0,-2.0,-2.0,-2.0
1.6951632474569052e+18,-2.0,-1.0,-2.0,0.0,-1.0,-2.0,-1.0,-1.0
1.6951632474778926e+18,-1.0,-1.0,-1.0,-1.0,-1.0,-2.0,1.0,-1.0
1.6951632474778926e+18,-1.0,-3.0,1.0,-1.0,-2.0,0.0,-3.0,-2.0
1.6951632474798945e+18,0.0,-1.0,-1.0,0.0,-1.0,-1.0,0.0,-1.0
1.6951632474798945e+18,-2.0,-2.0,-1.0,0.0,-2.0,1.0,0.0,-1.0
1.6951632474918845e+18,0.0,-2.0,-1.0,0.0,-1.0,-1.0,-1.0,-3.0
1.6951632474918845e+18,1.0,0.0,0.0,1.0,-1.0,-2.0,-1.0,-2.0
1.695163247505876e+18,0.0,-1.0,-2.0,-2.0,0.0,-2.0,-1.0,-2.0
1.6951632475068764e+18,-1.0,-1.0,-3.0,-1.0,0.0,-1.0,-1.0,0.0
1.6951632475288635e+18,-1.0,-1.0,0.0,0.0,-3.0,-1.0,0.0,-1.0
1.6951632475288635e+18,-2.0,-1.0,-2.0,-1.0,0.0,-1.0,0.0,0.0
1.6951632475288635e+18,-2.0,-2.0,-1.0,0.0,0.0,0.0,0.0,0.0
1.6951632475288635e+18,-1.0,-1.0,-1.0,0.0,0.0,-1.0,-2.0,0.0
1.6951632475288635e+18,-1.0,0.0,0.0,-1.0,-1.0,-1.0,-1.0,-1.0
1.6951632475298634e+18,-1.0,-1.0,0.0,0.0,0.0,0.0,0.0,-1.0
1.6951632475378596e+18,-1.0,-1.0,-2.0,0.0,-1.0,-1.0,1.0,0.0
1.6951632475388585e+18,0.0,-2.0,0.0,-3.0,1.0,-2.0,-1.0,-2.0
1.6951632475518518e+18,0.0,-1.0,-2.0,0.0,0.0,-3.0,-2.0,-1.0
1.6951632475518518e+18,0.0,-2.0,1.0,-1.0,-1.0,1.0,1.0,-1.0
1.6951632475588454e+18,-1.0,-1.0,-1.0,-1.0,-1.0,-1.0,-1.0,0.0
1.6951632475588454e+18,0.0,-1.0,-2.0,-1.0,-2.0,0.0,1.0,2.0
1.6951632475828324e+18,-1.0,0.0,1.0,-1.0,0.0,2.0,1.0,0.0
1.6951632475828324e+18,-1.0,0.0,-1.0,0.0,1.0,1.0,0.0,2.0
1.6951632475908288e+18,-1.0,0.0,1.0,1.0,1.0,2.0,2.0,-1.0
1.6951632475908288e+18,2.0,2.0,3.0,0.0,1.0,-2.0,-2.0,-2.0
1.695163247604819e+18,2.0,1.0,2.0,-1.0,0.0,0.0,0.0,0.0
1.695163247604819e+18,2.0,1.0,0.0,-1.0,-1.0,-3.0,-1.0,-1.0
1.6951632476068186e+18,1.0,1.0,0.0,0.0,-2.0,1.0,0.0,-1.0
1.6951632476068186e+18,-2.0,-2.0,-1.0,0.0,-1.0,-1.0,1.0,-3.0
1.695163247610816e+18,1.0,-1.0,-1.0,0.0,1.0,-1.0,-2.0,-1.0
1.695163247610816e+18,0.0,1.0,-1.0,-1.0,1.0,-1.0,-1.0,0.0
1.6951632476288064e+18,-1.0,-1.0,-2.0,0.0,2.0,-1.0,-1.0,0.0
1.6951632476298058e+18,-1.0,-1.0,0.0,-1.0,0.0,2.0,-1.0,0.0
1.6951632476348032e+18,-1.0,-2.0,0.0,-1.0,-1.0,-2.0,0.0,0.0
1.6951632476358047e+18,-1.0,-1.0,0.0,0.0,0.0,-1.0,-1.0,-1.0
1.6951632476368015e+18,0.0,0.0,0.0,-2.0,-1.0,-1.0,0.0,-2.0
1.6951632476368015e+18,0.0,-2.0,-1.0,0.0,-2.0,1.0,-1.0,1.0
1.6951632476577892e+18,0.0,-1.0,-1.0,-1.0,-1.0,-1.0,0.0,-2.0
1.6951632476577892e+18,-1.0,0.0,1.0,-2.0,-1.0,-2.0,-1.0,0.0
1.6951632476587894e+18,-2.0,0.0,-2.0,-1.0,-2.0,-2.0,0.0,1.0
1.6951632476597888e+18,0.0,-1.0,-1.0,0.0,1.0,0.0,1.0,-4.0
1.6951632476707825e+18,0.0,1.0,0.0,-2.0,-1.0,-1.0,-2.0,-1.0
1.6951632476717837e+18,0.0,0.0,-1.0,-1.0,-1.0,-1.0,0.0,0.0
1.6951632476817764e+18,-1.0,0.0,0.0,-1.0,1.0,-1.0,-2.0,1.0
1.6951632476817764e+18,-3.0,-1.0,-2.0,-3.0,-2.0,0.0,1.0,0.0
1.6951632476947676e+18,0.0,1.0,-1.0,0.0,0.0,0.0,0.0,-1.0
1.6951632476947676e+18,-2.0,-2.0,-1.0,-1.0,-1.0,-2.0,1.0,-2.0
1.6951632476967677e+18,0.0,-2.0,-2.0,-2.0,-1.0,0.0,-2.0,-1.0
1.6951632476967677e+18,1.0,-2.0,1.0,0.0,-1.0,-2.0,0.0,0.0
1.6951632477087598e+18,-1.0,-1.0,-1.0,0.0,0.0,0.0,-2.0,0.0
1.6951632477087598e+18,0.0,-1.0,0.0,-1.0,-1.0,-1.0,-2.0,-2.0
1.695163247717756e+18,-2.0,0.0,-1.0,0.0,-1.0,-1.0,-3.0,0.0
1.695163247718755e+18,-1.0,-1.0,-3.0,-3.0,0.0,-1.0,0.0,1.0
1.6951632477317478e+18,-1.0,0.0,-2.0,-1.0,-1.0,0.0,-1.0,0.0
1.6951632477317478e+18,-1.0,-2.0,-1.0,-1.0,0.0,-1.0,-1.0,0.0
1.6951632477407424e+18,-1.0,-2.0,0.0,0.0,-2.0,1.0,-1.0,0.0
1.6951632477407424e+18,-2.0,1.0,-1.0,0.0,-1.0,-2.0,-2.0,-1.0
1.6951632477547338e+18,-1.0,0.0,-1.0,-1.0,0.0,-1.0,0.0,1.0
1.6951632477557332e+18,1.0,1.0,-1.0,1.0,1.0,0.0,-1.0,-1.0
1.6951632477567368e+18,0.0,-2.0,0.0,-2.0,1.0,0.0,-1.0,-3.0
1.6951632477567368e+18,0.0,-2.0,-2.0,0.0,-1.0,1.0,0.0,0.0
1.6951632477767222e+18,-1.0,-2.0,-1.0,0.0,-2.0,0.0,0.0,-2.0
1.6951632477767222e+18,-1.0,0.0,-1.0,-2.0,-1.0,0.0,-3.0,-2.0
1.6951632477857162e+18,0.0,-1.0,-1.0,-2.0,-3.0,-1.0,0.0,-1.0
1.6951632477857162e+18,2.0,-2.0,-1.0,-1.0,-1.0,-1.0,-2.0,-2.0
1.695163247790736e+18,-1.0,-1.0,-1.0,-1.0,-1.0,-1.0,-2.0,-1.0
1.6951632477917128e+18,-1.0,0.0,-1.0,0.0,-2.0,-2.0,-1.0,-2.0
1.6951632478027072e+18,-1.0,0.0,0.0,-1.0,-2.0,-4.0,-4.0,-4.0
1.6951632478027072e+18,-3.0,-2.0,-4.0,-2.0,-4.0,-3.0,-2.0,-1.0
1.6951632478147054e+18,-2.0,-3.0,-2.0,-1.0,-2.0,-3.0,-1.0,-2.0
1.6951632478157015e+18,-2.0,-1.0,-1.0,-1.0,-2.0,-1.0,-2.0,-1.0
1.6951632478166986e+18,-2.0,0.0,-3.0,0.0,-1.0,-2.0,-3.0,-1.0
1.6951632478166986e+18,-2.0,-1.0,-1.0,0.0,-3.0,-2.0,-1.0,-3.0
1.6951632478456812e+18,-1.0,0.0,-1.0,-1.0,-1.0,-1.0,0.0,-1.0
1.6951632478456812e+18,-2.0,-1.0,-3.0,-1.0,-2.0,0.0,0.0,2.0
1.695163247847681e+18,-2.0,-2.0,-4.0,-1.0,-1.0,-2.0,0.0,-2.0
1.695163247847681e+18,-1.0,1.0,-1.0,0.0,-2.0,-3.0,-2.0,-1.0
1.6951632478606753e+18,-1.0,-2.0,0.0,1.0,-1.0,-1.0,0.0,-2.0
1.6951632478606753e+18,0.0,-2.0,-1.0,-1.0,-2.0,0.0,-1.0,0.0
1.6951632478616722e+18,0.0,-2.0,-2.0,0.0,-1.0,-1.0,0.0,-1.0
1.6951632478616722e+18,0.0,-2.0,-3.0,0.0,1.0,-1.0,-1.0,0.0
1.6951632478746877e+18,0.0,-2.0,-2.0,-2.0,-2.0,0.0,-3.0,-2.0
1.6951632478756644e+18,0.0,-1.0,-1.0,-1.0,-1.0,-2.0,-1.0,-2.0
1.6951632478766643e+18,-1.0,-1.0,-1.0,0.0,-2.0,0.0,1.0,0.0
1.6951632478766643e+18,-1.0,0.0,-1.0,0.0,1.0,-1.0,-1.0,0.0
1.6951632478976515e+18,-2.0,0.0,1.0,-1.0,1.0,0.0,-1.0,0.0
1.6951632478976515e+18,0.0,1.0,-1.0,0.0,-2.0,-1.0,0.0,0.0
1.6951632478996524e+18,-2.0,-1.0,0.0,-1.0,-1.0,-2.0,0.0,-1.0
1.6951632478996524e+18,-2.0,1.0,2.0,0.0,0.0,-2.0,-1.0,-2.0
1.695163247914645e+18,-1.0,-1.0,-2.0,0.0,-1.0,-2.0,-1.0,0.0
1.695163247914645e+18,-1.0,-1.0,-1.0,0.0,-1.0,0.0,-1.0,0.0
1.695163247920639e+18,-1.0,-1.0,0.0,0.0,-1.0,0.0,-2.0,-2.0
1.695163247920639e+18,0.0,1.0,-1.0,-2.0,0.0,0.0,0.0,-1.0
1.6951632479356334e+18,-1.0,0.0,-1.0,-1.0,-1.0,-2.0,1.0,-1.0
1.6951632479356334e+18,-1.0,-1.0,-1.0,1.0,0.0,-1.0,0.0,-2.0
1.6951632479366313e+18,-1.0,-2.0,0.0,-2.0,1.0,0.0,-1.0,-1.0
1.6951632479366313e+18,0.0,-3.0,-2.0,-1.0,0.0,2.0,0.0,0.0
1.6951632479736087e+18,0.0,-1.0,-1.0,-2.0,0.0,0.0,-1.0,-2.0
1.6951632479736087e+18,-1.0,0.0,0.0,-2.0,2.0,-2.0,-1.0,-1.0
1.6951632479766072e+18,0.0,0.0,-2.0,0.0,0.0,0.0,-2.0,0.0
1.6951632479766072e+18,0.0,-1.0,-1.0,0.0,-2.0,-1.0,-1.0,0.0
1.6951632479766072e+18,-2.0,0.0,0.0,-1.0,-2.0,0.0,0.0,0.0
1.6951632479766072e+18,-1.0,-2.0,0.0,-1.0,0.0,1.0,-2.0,1.0
1.6951632479806047e+18,-1.0,-1.0,0.0,-2.0,0.0,0.0,1.0,0.0
1.6951632479806047e+18,0.0,-1.0,-1.0,0.0,1.0,-2.0,-2.0,-1.0
1.6951632480055905e+18,0.0,-1.0,-1.0,0.0,0.0,-1.0,0.0,0.0
1.6951632480055905e+18,-1.0,-2.0,-1.0,-1.0,0.0,-1.0,0.0,-1.0
1.6951632480055905e+18,-1.0,0.0,-1.0,0.0,0.0,-2.0,0.0,-1.0
1.6951632480055905e+18,-2.0,-1.0,0.0,-3.0,-2.0,-2.0,-3.0,0.0
1.6951632480185828e+18,-1.0,-1.0,-1.0,-1.0,-1.0,-2.0,-1.0,-1.0
1.6951632480185828e+18,-1.0,-1.0,-2.0,-2.0,-1.0,0.0,0.0,-1.0
1.695163248019582e+18,1.0,-1.0,0.0,1.0,1.0,0.0,-1.0,0.0
1.695163248019582e+18,0.0,0.0,-1.0,0.0,0.0,2.0,1.0,-1.0
1.6951632480315753e+18,-2.0,1.0,-3.0,0.0,-1.0,-2.0,-1.0,0.0
1.6951632480315753e+18,0.0,-1.0,-1.0,-3.0,-2.0,-2.0,-1.0,-2.0
1.6951632480475666e+18,-1.0,-1.0,-1.0,1.0,-3.0,-2.0,-1.0,-1.0
1.6951632480475666e+18,-1.0,-1.0,0.0,-1.0,-1.0,-1.0,-1.0,0.0
1.695163248054562e+18,1.0,-1.0,-1.0,0.0,-1.0,1.0,-1.0,-1.0
1.695163248055563e+18,-2.0,0.0,-1.0,1.0,1.0,0.0,0.0,-2.0
1.695163248056561e+18,0.0,0.0,-1.0,0.0,2.0,-1.0,1.0,-1.0
1.695163248056561e+18,0.0,-1.0,-2.0,-2.0,-1.0,0.0,-1.0,0.0
1.6951632480775488e+18,-1.0,0.0,-1.0,1.0,-1.0,-1.0,-1.0,-2.0
1.6951632480775488e+18,-2.0,-2.0,-1.0,0.0,-1.0,-2.0,-3.0,-1.0
1.6951632480795482e+18,-2.0,-2.0,-1.0,-2.0,-2.0,1.0,-1.0,0.0
1.6951632480795482e+18,-1.0,0.0,1.0,0.0,-3.0,0.0,-1.0,-1.0
1.6951632480915438e+18,0.0,-1.0,-1.0,-6.0,-2.0,-2.0,-1.0,-1.0
1.6951632480915438e+18,0.0,-2.0,0.0,2.0,1.0,1.0,1.0,-2.0
1.6951632481075318e+18,1.0,-1.0,1.0,0.0,-5.0,1.0,0.0,-1.0
1.6951632481075318e+18,-2.0,-1.0,-1.0,0.0,6.0,0.0,0.0,1.0
1.6951632481385157e+18,-2.0,-1.0,-2.0,-2.0,-3.0,-2.0,0.0,0.0
1.695163248139515e+18,-2.0,0.0,-2.0,-5.0,-4.0,-1.0,0.0,-1.0
1.6951632481405128e+18,-1.0,-1.0,1.0,3.0,-3.0,-2.0,-2.0,-3.0
1.6951632481405128e+18,0.0,-2.0,-2.0,-15.0,-10.0,-4.0,-4.0,-2.0
1.6951632481415127e+18,1.0,1.0,3.0,5.0,1.0,0.0,3.0,-1.0
1.6951632481415127e+18,-2.0,-1.0,-8.0,12.0,11.0,2.0,-1.0,-1.0
1.6951632481455101e+18,-2.0,0.0,-2.0,1.0,-6.0,-3.0,0.0,-1.0
1.6951632481455101e+18,0.0,-4.0,-2.0,4.0,3.0,-2.0,-1.0,0.0
1.6951632481635218e+18,-1.0,-2.0,-1.0,-10.0,-4.0,0.0,-2.0,0.0
1.6951632481645215e+18,1.0,-2.0,-1.0,-9.0,-6.0,-3.0,2.0,1.0
1.6951632481645215e+18,0.0,0.0,4.0,3.0,2.0,1.0,0.0,0.0
1.6951632481645215e+18,-1.0,0.0,-3.0,-1.0,0.0,0.0,1.0,-1.0
1.6951632481734953e+18,-2.0,-2.0,-12.0,3.0,0.0,-5.0,-3.0,-3.0
1.6951632481734953e+18,2.0,1.0,3.0,-20.0,-7.0,-3.0,-2.0,-1.0
1.6951632481824906e+18,0.0,0.0,8.0,3.0,5.0,2.0,-2.0,1.0
1.6951632481824906e+18,0.0,-1.0,-1.0,8.0,6.0,3.0,2.0,-2.0
1.695163248200481e+18,0.0,-1.0,1.0,0.0,3.0,1.0,-4.0,-1.0
1.6951632482014787e+18,-1.0,0.0,0.0,16.0,13.0,5.0,0.0,0.0
1.695163248205476e+18,-2.0,-1.0,-8.0,-13.0,-9.0,-6.0,-1.0,-1.0
1.695163248205476e+18,-1.0,1.0,0.0,-1.0,2.0,1.0,-1.0,0.0
1.695163248220468e+18,0.0,-1.0,0.0,1.0,-6.0,-2.0,-2.0,-1.0
1.695163248220468e+18,-1.0,-2.0,-5.0,-4.0,-8.0,-3.0,-2.0,-1.0
1.695163248221467e+18,1.0,0.0,2.0,-1.0,0.0,-1.0,1.0,0.0
1.695163248221467e+18,-1.0,3.0,0.0,2.0,-5.0,0.0,1.0,2.0
1.69516324825045e+18,-3.0,-6.0,-1.0,11.0,15.0,6.0,1.0,0.0
1.69516324825045e+18,-11.0,6.0,4.0,2.0,-3.0,-1.0,0.0,-3.0
1.6951632482514496e+18,-1.0,-17.0,-5.0,-9.0,6.0,2.0,-2.0,0.0
1.6951632482514496e+18,16.0,-6.0,2.0,5.0,-17.0,-8.0,-1.0,6.0
1.6951632482564692e+18,-2.0,-3.0,-12.0,-25.0,-13.0,-9.0,-8.0,-6.0
1.6951632482574461e+18,6.0,5.0,5.0,10.0,7.0,3.0,0.0,1.0
1.6951632482634445e+18,-7.0,6.0,0.0,-3.0,-3.0,1.0,0.0,-4.0
1.6951632482634445e+18,-3.0,2.0,14.0,-2.0,2.0,2.0,0.0,-4.0
1.6951632482804326e+18,-2.0,-2.0,-10.0,6.0,5.0,2.0,2.0,1.0
1.6951632482804326e+18,-1.0,-1.0,-2.0,-6.0,-3.0,-1.0,0.0,-1.0
1.6951632482814543e+18,-1.0,0.0,-1.0,28.0,4.0,-2.0,-1.0,11.0
1.6951632482814543e+18,0.0,-1.0,5.0,-30.0,-4.0,1.0,12.0,-14.0
1.6951632483104156e+18,-4.0,3.0,1.0,-25.0,-22.0,0.0,1.0,-9.0
1.6951632483104156e+18,1.0,-2.0,0.0,6.0,6.0,-4.0,-22.0,5.0
1.6951632483114148e+18,0.0,1.0,4.0,8.0,-3.0,-4.0,-5.0,-6.0
1.6951632483114148e+18,-2.0,4.0,-7.0,8.0,17.0,1.0,-3.0,-3.0
1.695163248325409e+18,0.0,-3.0,5.0,-1.0,-10.0,-1.0,10.0,-3.0
1.695163248325409e+18,-7.0,6.0,-8.0,-15.0,-14.0,6.0,13.0,17.0
1.6951632483264077e+18,0.0,-25.0,-8.0,2.0,15.0,-1.0,-11.0,-8.0
1.6951632483264077e+18,-8.0,14.0,-7.0,9.0,-7.0,-6.0,-5.0,-1.0
1.695163248340398e+18,4.0,-5.0,28.0,-6.0,3.0,4.0,16.0,38.0
1.695163248340398e+18,16.0,0.0,-2.0,5.0,-2.0,0.0,3.0,-80.0
1.6951632483413998e+18,-13.0,23.0,-10.0,-7.0,-2.0,-4.0,-9.0,47.0
1.6951632483413998e+18,1.0,-26.0,-4.0,-15.0,-4.0,-4.0,-18.0,18.0
1.6951632483653865e+18,-3.0,5.0,-6.0,6.0,-10.0,-6.0,-10.0,-14.0
1.6951632483653865e+18,4.0,13.0,15.0,9.0,21.0,6.0,11.0,22.0
1.6951632483703836e+18,0.0,-15.0,-17.0,-13.0,-26.0,-1.0,21.0,-21.0
1.6951632483703836e+18,-1.0,4.0,-4.0,18.0,30.0,5.0,-9.0,-19.0
1.6951632483773926e+18,-12.0,5.0,-6.0,6.0,-1.0,3.0,-3.0,15.0
1.6951632483773926e+18,6.0,22.0,13.0,-3.0,1.0,-1.0,4.0,2.0
1.6951632483853724e+18,1.0,7.0,11.0,9.0,-16.0,3.0,5.0,-12.0
1.6951632483853724e+18,-3.0,-38.0,-18.0,-18.0,2.0,-1.0,-2.0,8.0
1.695163248400367e+18,9.0,-2.0,-7.0,10.0,6.0,-6.0,-9.0,-8.0
1.695163248400367e+18,-2.0,0.0,-12.0,-10.0,-18.0,-10.0,16.0,26.0
1.6951632484033636e+18,-12.0,0.0,9.0,-17.0,2.0,-3.0,-17.0,-27.0
1.6951632484033636e+18,8.0,4.0,2.0,9.0,-17.0,0.0,19.0,-5.0
1.6951632484223734e+18,4.0,27.0,21.0,15.0,8.0,3.0,9.0,18.0
1.6951632484223734e+18,8.0,11.0,-19.0,1.0,-6.0,-12.0,-45.0,-23.0
1.695163248424351e+18,-1.0,-40.0,4.0,6.0,33.0,18.0,37.0,56.0
1.695163248424351e+18,-11.0,4.0,1.0,-13.0,-16.0,-14.0,-35.0,-8.0
1.695163248437346e+18,0.0,3.0,-5.0,-2.0,-5.0,0.0,10.0,-12.0
1.695163248437346e+18,12.0,21.0,17.0,-10.0,-10.0,-5.0,-3.0,4.0
1.695163248445338e+18,-13.0,73.0,-13.0,-9.0,-26.0,-10.0,-9.0,-22.0
1.695163248445338e+18,23.0,-10.0,2.0,40.0,60.0,27.0,18.0,3.0
1.695163248460329e+18,-28.0,-87.0,-37.0,9.0,5.0,-2.0,-10.0,-19.0
1.695163248460329e+18,2.0,-2.0,9.0,-8.0,-6.0,-1.0,2.0,1.0
1.695163248469347e+18,1.0,17.0,-5.0,-4.0,-9.0,-2.0,10.0,-18.0
1.695163248469347e+18,-15.0,3.0,-3.0,-29.0,-22.0,-13.0,-16.0,-19.0
1.6951632484913124e+18,18.0,23.0,19.0,14.0,9.0,6.0,5.0,20.0
1.6951632484913124e+18,-7.0,-7.0,-6.0,-2.0,9.0,10.0,20.0,14.0
1.6951632484923128e+18,10.0,-25.0,3.0,-5.0,4.0,6.0,1.0,10.0
1.6951632484923128e+18,-17.0,-14.0,10.0,-1.0,-5.0,-12.0,-10.0,-2.0
1.6951632485053066e+18,8.0,-5.0,-8.0,-7.0,-5.0,-6.0,-22.0,33.0
1.6951632485053066e+18,5.0,-18.0,-11.0,0.0,-16.0,-4.0,14.0,6.0
1.6951632485202975e+18,-1.0,7.0,13.0,5.0,2.0,-3.0,-8.0,-23.0
1.6951632485202975e+18,-2.0,5.0,-13.0,-3.0,3.0,2.0,3.0,-33.0
1.695163248521317e+18,7.0,15.0,3.0,-14.0,-6.0,-2.0,0.0,31.0
1.695163248521317e+18,-28.0,-33.0,-13.0,15.0,17.0,4.0,-7.0,22.0
1.695163248526294e+18,13.0,6.0,15.0,-9.0,-3.0,-5.0,17.0,-7.0
1.695163248526294e+18,-13.0,3.0,-19.0,2.0,-9.0,8.0,-11.0,-72.0
1.695163248542282e+18,-23.0,-15.0,2.0,-11.0,-4.0,-2.0,17.0,-19.0
1.695163248542282e+18,3.0,-9.0,-26.0,6.0,-7.0,-11.0,-7.0,19.0
1.6951632485442906e+18,9.0,-41.0,-10.0,-1.0,17.0,-3.0,-44.0,21.0
1.6951632485442906e+18,8.0,43.0,21.0,3.0,-8.0,0.0,16.0,40.0
1.6951632485562742e+18,4.0,14.0,10.0,5.0,9.0,5.0,-2.0,-27.0
1.6951632485562742e+18,-36.0,-43.0,16.0,-2.0,0.0,1.0,6.0,-76.0
1.6951632485692703e+18,-4.0,9.0,-8.0,0.0,-7.0,0.0,19.0,22.0
1.6951632485692703e+18,1.0,13.0,1.0,2.0,-6.0,-7.0,-43.0,-10.0
1.6951632486402363e+18,20.0,-5.0,4.0,-4.0,-3.0,-5.0,2.0,8.0
1.6951632486412262e+18,3.0,-5.0,-10.0,0.0,7.0,4.0,13.0,41.0
1.6951632486422254e+18,22.0,-7.0,1.0,3.0,3.0,-2.0,-7.0,90.0
1.6951632486422254e+18,-3.0,24.0,-9.0,-14.0,-11.0,-3.0,17.0,8.0
1.6951632486482212e+18,11.0,15.0,21.0,15.0,0.0,0.0,1.0,-11.0
1.6951632486482212e+18,-34.0,-20.0,-16.0,0.0,-3.0,-3.0,-13.0,-71.0
1.6951632486502208e+18,-4.0,-4.0,14.0,4.0,9.0,6.0,-9.0,-36.0
1.6951632486502208e+18,5.0,3.0,-34.0,-14.0,-4.0,0.0,23.0,30.0
1.6951632486502208e+18,0.0,40.0,3.0,-1.0,2.0,-4.0,-28.0,-32.0
1.6951632486512223e+18,5.0,-24.0,0.0,-5.0,-7.0,-3.0,-2.0,27.0
1.695163248662214e+18,-14.0,-38.0,-10.0,-14.0,-1.0,-1.0,-7.0,-29.0
1.695163248663214e+18,-2.0,39.0,-4.0,-2.0,6.0,5.0,-3.0,-16.0
1.6951632486642138e+18,5.0,2.0,38.0,-15.0,-9.0,-2.0,1.0,51.0
1.6951632486642138e+18,-5.0,1.0,7.0,7.0,0.0,-3.0,8.0,-25.0
1.6951632486852035e+18,-11.0,-7.0,15.0,6.0,5.0,6.0,12.0,8.0
1.6951632486852035e+18,27.0,35.0,28.0,4.0,-6.0,-8.0,-6.0,27.0
1.6951632486931988e+18,-2.0,-7.0,-55.0,-12.0,3.0,4.0,-8.0,-82.0
1.6951632486931988e+18,-8.0,-24.0,-18.0,1.0,-5.0,0.0,5.0,43.0
1.6951632487001948e+18,-24.0,9.0,16.0,0.0,-16.0,1.0,21.0,-57.0
1.6951632487001948e+18,1.0,9.0,-30.0,-2.0,18.0,1.0,-14.0,36.0
1.6951632487011924e+18,17.0,-18.0,-4.0,-4.0,1.0,-2.0,-14.0,68.0
1.695163248702194e+18,11.0,18.0,5.0,-7.0,-4.0,2.0,19.0,-15.0
1.6951632487441912e+18,-7.0,-22.0,-50.0,3.0,2.0,-1.0,-14.0,-33.0
1.6951632487441912e+18,-9.0,-18.0,17.0,0.0,3.0,10.0,14.0,16.0
1.6951632487621568e+18,12.0,-16.0,-11.0,-18.0,-17.0,-15.0,-19.0,58.0
1.6951632487621568e+18,-8.0,-5.0,25.0,1.0,1.0,-7.0,-12.0,-33.0
1.6951632487631585e+18,6.0,-3.0,10.0,1.0,0.0,5.0,19.0,19.0
1.6951632487631585e+18,-11.0,-6.0,26.0,7.0,-3.0,-6.0,-8.0,-28.0
1.695163248767154e+18,-2.0,1.0,-16.0,20.0,21.0,10.0,14.0,-26.0
1.695163248767154e+18,-8.0,-17.0,28.0,-1.0,-9.0,-3.0,1.0,-27.0
1.695163248767154e+18,5.0,32.0,-6.0,-12.0,4.0,-4.0,-12.0,39.0
1.6951632487681536e+18,4.0,-15.0,-76.0,-10.0,-4.0,2.0,2.0,-42.0
1.6951632487901404e+18,23.0,18.0,-34.0,5.0,8.0,7.0,8.0,27.0
1.6951632487901404e+18,-7.0,-41.0,24.0,-20.0,-21.0,-5.0,4.0,-12.0
1.6951632487911406e+18,-30.0,-12.0,15.0,5.0,-2.0,-5.0,-7.0,-32.0
1.6951632487921418e+18,14.0,13.0,-5.0,3.0,6.0,9.0,24.0,30.0
1.695163248805132e+18,1.0,-14.0,-20.0,4.0,-5.0,-9.0,-27.0,-3.0
1.695163248805132e+18,10.0,34.0,28.0,4.0,4.0,4.0,4.0,15.0
1.695163248814143e+18,-9.0,-15.0,-9.0,1.0,2.0,3.0,6.0,-37.0
1.6951632488161262e+18,-14.0,-19.0,-42.0,-9.0,0.0,2.0,3.0,-19.0
1.695163248820123e+18,17.0,19.0,-1.0,-5.0,3.0,-2.0,-3.0,35.0
1.695163248820123e+18,-4.0,2.0,14.0,-5.0,-8.0,-1.0,16.0,-7.0
1.6951632488211261e+18,5.0,-31.0,0.0,13.0,7.0,-1.0,-20.0,11.0
1.6951632488221248e+18,-3.0,9.0,27.0,-16.0,-4.0,2.0,-1.0,-21.0
1.6951632488421123e+18,-13.0,2.0,4.0,8.0,-22.0,-10.0,-13.0,-38.0
1.6951632488421123e+18,7.0,-14.0,-12.0,-2.0,4.0,-7.0,-2.0,18.0
1.6951632488501066e+18,17.0,15.0,-15.0,-2.0,1.0,6.0,12.0,40.0
1.6951632488501066e+18,4.0,31.0,11.0,4.0,1.0,1.0,13.0,-22.0
1.6951632488561044e+18,-10.0,-19.0,28.0,1.0,4.0,-6.0,-17.0,-38.0
1.6951632488561044e+18,9.0,22.0,45.0,-6.0,-14.0,-6.0,-23.0,34.0
1.695163248865098e+18,-8.0,6.0,28.0,7.0,-4.0,-4.0,1.0,-41.0
1.695163248865098e+18,-6.0,-17.0,-40.0,9.0,12.0,10.0,5.0,8.0
1.695163248881089e+18,20.0,12.0,12.0,-18.0,-8.0,6.0,16.0,44.0
1.695163248881089e+18,14.0,1.0,-16.0,0.0,6.0,-4.0,-15.0,-2.0
1.6951632489240635e+18,1.0,-6.0,-9.0,-1.0,1.0,2.0,25.0,-38.0
1.6951632489240635e+18,5.0,17.0,44.0,6.0,-6.0,-9.0,-27.0,22.0
1.6951632489560453e+18,8.0,-34.0,-10.0,-4.0,-2.0,1.0,8.0,-15.0
1.695163248957046e+18,0.0,7.0,-2.0,16.0,14.0,9.0,1.0,6.0
1.6951632489580444e+18,3.0,6.0,16.0,-9.0,0.0,4.0,11.0,-60.0
1.6951632489580444e+18,-9.0,-38.0,-55.0,1.0,-10.0,-10.0,-7.0,81.0
1.6951632489590444e+18,1.0,10.0,-7.0,5.0,9.0,5.0,15.0,-15.0
1.6951632489590444e+18,1.0,0.0,-50.0,-20.0,-9.0,-15.0,-41.0,29.0
1.6951632489760346e+18,5.0,20.0,36.0,14.0,-1.0,-5.0,-2.0,29.0
1.6951632489770342e+18,-26.0,0.0,-18.0,32.0,5.0,4.0,1.0,-38.0
1.6951632489770342e+18,6.0,11.0,12.0,-9.0,1.0,-1.0,-20.0,-1.0
1.6951632489770342e+18,1.0,-39.0,27.0,19.0,5.0,-7.0,1.0,1.0
1.6951632489950236e+18,1.0,41.0,-25.0,-21.0,-15.0,-7.0,-16.0,15.0
1.6951632489950236e+18,17.0,-54.0,-16.0,-8.0,3.0,7.0,12.0,6.0
1.6951632489950236e+18,-38.0,-6.0,-8.0,1.0,6.0,-3.0,-7.0,-3.0
1.6951632489960225e+18,2.0,5.0,45.0,-18.0,-14.0,-5.0,31.0,-71.0
1.695163249002022e+18,32.0,108.0,-3.0,20.0,14.0,1.0,-3.0,62.0
1.695163249002022e+18,-7.0,-81.0,-29.0,-38.0,-33.0,-22.0,-18.0,28.0
1.695163249002022e+18,3.0,-40.0,23.0,39.0,19.0,13.0,15.0,10.0
1.695163249002022e+18,-18.0,-5.0,11.0,-6.0,0.0,-8.0,-7.0,0.0
1.6951632490110141e+18,-10.0,-56.0,-10.0,14.0,3.0,-1.0,-2.0,-30.0
1.6951632490140124e+18,41.0,74.0,22.0,-7.0,-4.0,2.0,20.0,-28.0
1.695163249039998e+18,-30.0,-32.0,3.0,10.0,6.0,-2.0,11.0,26.0
1.6951632490469957e+18,-19.0,-5.0,-1.0,3.0,-2.0,4.0,-11.0,33.0
1.6951632490469957e+18,3.0,2.0,-66.0,-12.0,-10.0,2.0,12.0,-15.0
1.6951632490469957e+18,2.0,-11.0,28.0,-18.0,-6.0,-14.0,-30.0,1.0
1.695163249047995e+18,7.0,1.0,-62.0,3.0,18.0,17.0,23.0,-22.0
1.695163249047995e+18,10.0,29.0,-2.0,13.0,-13.0,-9.0,10.0,27.0
1.6951632490529902e+18,-18.0,23.0,3.0,-19.0,16.0,4.0,-31.0,6.0
1.6951632490529902e+18,-11.0,27.0,50.0,32.0,9.0,5.0,6.0,6.0
1.6951632490599867e+18,-2.0,-4.0,-20.0,-16.0,-9.0,-4.0,-2.0,-16.0
1.6951632490599867e+18,-15.0,-3.0,13.0,4.0,1.0,-1.0,-6.0,-43.0
1.6951632490659835e+18,4.0,-41.0,1.0,23.0,-5.0,-1.0,10.0,-14.0
1.6951632490659835e+18,-15.0,21.0,41.0,-27.0,-7.0,4.0,12.0,-13.0
1.6951632490829737e+18,-4.0,-16.0,-15.0,-12.0,-11.0,-9.0,-8.0,-5.0
1.6951632490829737e+18,19.0,-6.0,-68.0,-18.0,-5.0,-3.0,-8.0,23.0
1.6951632490839734e+18,-7.0,-11.0,49.0,-9.0,-2.0,-7.0,-3.0,-4.0
1.695163249084973e+18,-4.0,-15.0,33.0,39.0,19.0,6.0,-5.0,-58.0
1.6951632490959647e+18,-3.0,-3.0,-5.0,-1.0,-1.0,-7.0,-18.0,81.0
1.6951632490959647e+18,13.0,-6.0,-11.0,-1.0,18.0,24.0,32.0,51.0
1.6951632491049633e+18,3.0,9.0,-39.0,11.0,3.0,-6.0,-15.0,-24.0
1.695163249105963e+18,-30.0,-27.0,-79.0,-1.0,-4.0,2.0,-5.0,-50.0
1.6951632491279475e+18,8.0,-19.0,-33.0,-25.0,-22.0,-15.0,-11.0,18.0
1.6951632491279475e+18,11.0,21.0,13.0,0.0,10.0,13.0,3.0,-5.0
1.6951632491289472e+18,-13.0,4.0,41.0,14.0,15.0,8.0,12.0,31.0
1.6951632491299492e+18,-4.0,-2.0,-10.0,-13.0,-14.0,-14.0,-12.0,-15.0
1.6951632491429386e+18,-4.0,37.0,6.0,35.0,8.0,3.0,1.0,-67.0
1.6951632491429386e+18,13.0,3.0,-4.0,-59.0,-10.0,-5.0,-10.0,78.0
1.6951632491439442e+18,-10.0,-30.0,-10.0,-5.0,-14.0,-9.0,-12.0,-43.0
1.6951632491439442e+18,-2.0,25.0,58.0,4.0,-13.0,1.0,24.0,3.0
1.695163249172944e+18,13.0,56.0,32.0,14.0,21.0,-3.0,-30.0,41.0
1.695163249172944e+18,-17.0,-66.0,-5.0,23.0,6.0,1.0,10.0,-55.0
1.695163249173943e+18,8.0,24.0,11.0,-23.0,-9.0,-7.0,-5.0,3.0
1.695163249174925e+18,11.0,4.0,-35.0,-16.0,-5.0,-3.0,-19.0,-55.0
1.6951632491794263e+18,5.0,-5.0,19.0,0.0,-7.0,8.0,11.0,41.0
1.6951632491794263e+18,-6.0,27.0,15.0,1.0,-3.0,-5.0,10.0,-49.0
1.6951632491864195e+18,2.0,-16.0,-10.0,1.0,-3.0,-1.0,9.0,64.0
1.6951632491864195e+18,-6.0,4.0,-37.0,5.0,14.0,4.0,-1.0,-2.0
1.6951632492176148e+18,-13.0,-1.0,-1.0,-20.0,-20.0,-8.0,-10.0,-38.0
1.6951632492176148e+18,1.0,9.0,-7.0,3.0,0.0,-2.0,-13.0,-12.0
1.695163249219618e+18,-1.0,-7.0,5.0,-3.0,3.0,8.0,13.0,-10.0
1.695163249219618e+18,4.0,-18.0,-16.0,17.0,6.0,4.0,-6.0,1.0
1.6951632492255898e+18,0.0,5.0,-30.0,-10.0,-8.0,1.0,19.0,-5.0
1.6951632492255898e+18,19.0,5.0,-5.0,-10.0,-2.0,-10.0,-39.0,73.0
1.6951632492309238e+18,-17.0,3.0,-2.0,17.0,-1.0,2.0,11.0,-60.0
1.6951632492318835e+18,24.0,22.0,62.0,-2.0,7.0,-1.0,-14.0,62.0
1.695163249247615e+18,-7.0,11.0,-35.0,-26.0,-15.0,-5.0,3.0,0.0
1.695163249247615e+18,-14.0,-12.0,4.0,-7.0,-8.0,1.0,9.0,-39.0
1.695163249248623e+18,9.0,0.0,-2.0,11.0,6.0,-2.0,-15.0,10.0
1.6951632492496328e+18,-14.0,-13.0,-28.0,3.0,-3.0,-4.0,3.0,-2.0
1.6951632492792625e+18,0.0,-3.0,17.0,27.0,5.0,-1.0,9.0,-16.0
1.6951632492802624e+18,-6.0,-4.0,-25.0,-23.0,3.0,6.0,3.0,1.0
1.6951632492812623e+18,-13.0,2.0,26.0,-12.0,-12.0,-3.0,-6.0,-96.0
1.6951632492822605e+18,-2.0,19.0,-73.0,7.0,29.0,9.0,19.0,124.0
1.6951632492852593e+18,36.0,-5.0,8.0,-3.0,-7.0,-13.0,-29.0,33.0
1.6951632492862592e+18,-3.0,-19.0,12.0,31.0,-1.0,2.0,9.0,-9.0
1.695163249293258e+18,9.0,22.0,-8.0,-8.0,3.0,-1.0,4.0,5.0
1.695163249293258e+18,-7.0,-24.0,54.0,-4.0,-21.0,-10.0,-4.0,-51.0
1.695163249315242e+18,8.0,41.0,4.0,1.0,15.0,9.0,0.0,32.0
1.695163249316249e+18,-3.0,12.0,-24.0,15.0,-2.0,-4.0,5.0,-12.0
1.695163249333232e+18,-2.0,-13.0,22.0,-32.0,-25.0,-13.0,-16.0,23.0
1.6951632493342308e+18,11.0,20.0,24.0,25.0,12.0,5.0,15.0,-9.0
1.6951632493352305e+18,-31.0,-28.0,-33.0,0.0,-6.0,-3.0,-1.0,-18.0
1.6951632493352305e+18,-4.0,11.0,64.0,-4.0,0.0,-1.0,-3.0,-10.0
1.6951632493672115e+18,-15.0,-10.0,10.0,6.0,5.0,4.0,5.0,-39.0
1.695163249368213e+18,8.0,4.0,-12.0,-8.0,-20.0,-3.0,-10.0,11.0
1.695163249368213e+18,0.0,4.0,-8.0,-3.0,6.0,1.0,24.0,-20.0
1.6951632493692124e+18,-1.0,-29.0,-44.0,25.0,8.0,-4.0,-14.0,3.0
1.695163249382213e+18,-5.0,-24.0,2.0,1.0,10.0,6.0,10.0,27.0
1.695163249382213e+18,10.0,22.0,21.0,-15.0,-3.0,-3.0,1.0,27.0
1.695163249394203e+18,-12.0,-24.0,-11.0,-12.0,-7.0,-4.0,-3.0,-37.0
1.6951632493951982e+18,14.0,23.0,-5.0,-2.0,-11.0,-4.0,-4.0,28.0
1.6951632493951982e+18,1.0,-3.0,18.0,-19.0,-9.0,0.0,7.0,8.0
1.695163249396212e+18,-14.0,-24.0,-5.0,31.0,12.0,-6.0,-25.0,-31.0
1.695163249396212e+18,6.0,1.0,9.0,-6.0,-1.0,1.0,8.0,-14.0
1.6951632493972e+18,3.0,9.0,18.0,-5.0,5.0,3.0,8.0,-2.0
1.6951632494131889e+18,4.0,-14.0,-27.0,8.0,-14.0,-4.0,-4.0,27.0
1.6951632494141873e+18,-2.0,12.0,-9.0,-16.0,2.0,2.0,7.0,-10.0
1.6951632494151903e+18,-7.0,-20.0,27.0,8.0,5.0,0.0,-3.0,-17.0
1.6951632494151903e+18,-1.0,16.0,28.0,-4.0,-8.0,-7.0,-13.0,-28.0
1.695163249416187e+18,4.0,4.0,-10.0,5.0,0.0,-3.0,3.0,26.0
1.6951632494181842e+18,-3.0,-54.0,10.0,1.0,-11.0,-1.0,5.0,11.0
1.6951632494231826e+18,2.0,14.0,14.0,-12.0,2.0,6.0,-2.0,-21.0
1.6951632494231826e+18,13.0,6.0,-17.0,-4.0,14.0,6.0,3.0,40.0
1.695163249436173e+18,1.0,-2.0,1.0,11.0,-1.0,-3.0,-1.0,-6.0
1.6951632494371715e+18,-1.0,10.0,10.0,8.0,-2.0,-1.0,0.0,-7.0
1.695163249458159e+18,-1.0,-10.0,2.0,5.0,-2.0,2.0,-2.0,5.0
1.695163249458159e+18,-9.0,-11.0,1.0,-12.0,-5.0,-2.0,1.0,-24.0
1.6951632494601585e+18,4.0,10.0,-16.0,20.0,27.0,5.0,0.0,12.0
1.695163249461158e+18,1.0,2.0,-3.0,-10.0,-1.0,-4.0,-1.0,1.0
1.6951632494661537e+18,-2.0,-13.0,-7.0,3.0,5.0,6.0,-1.0,-2.0
1.6951632494671532e+18,-2.0,8.0,8.0,1.0,-6.0,-3.0,-1.0,-8.0
1.6951632494671532e+18,1.0,0.0,2.0,7.0,-2.0,0.0,0.0,11.0
1.6951632494671532e+18,0.0,1.0,-6.0,-6.0,-4.0,2.0,4.0,3.0
1.6951632494801462e+18,2.0,4.0,4.0,-8.0,-5.0,-2.0,2.0,2.0
1.6951632494801462e+18,-3.0,-8.0,2.0,9.0,12.0,0.0,-1.0,-4.0
1.6951632495121285e+18,1.0,-4.0,-8.0,-8.0,-5.0,-6.0,-5.0,7.0
1.6951632495121285e+18,1.0,6.0,0.0,2.0,8.0,9.0,2.0,-3.0
1.6951632495131264e+18,0.0,-1.0,6.0,-21.0,-11.0,-1.0,-1.0,1.0
1.6951632495131264e+18,-3.0,-5.0,-4.0,6.0,-19.0,-4.0,-1.0,-6.0
1.6951632495261202e+18,-2.0,-1.0,-1.0,5.0,37.0,15.0,6.0,3.0
1.6951632495261202e+18,-1.0,5.0,-9.0,-7.0,-16.0,-7.0,1.0,-2.0
1.6951632495271188e+18,1.0,0.0,11.0,20.0,1.0,1.0,-1.0,1.0
1.6951632495271188e+18,-4.0,-6.0,-11.0,-18.0,-4.0,0.0,0.0,-3.0
1.6951632495281405e+18,0.0,2.0,0.0,8.0,-8.0,-4.0,-2.0,0.0
1.6951632495281405e+18,3.0,3.0,6.0,-4.0,4.0,0.0,-2.0,0.0
1.69516324954711e+18,-2.0,-6.0,-5.0,-5.0,-6.0,-6.0,-3.0,2.0
1.69516324954711e+18,1.0,-1.0,-2.0,-5.0,-3.0,0.0,2.0,-3.0
1.6951632495720924e+18,-1.0,1.0,-4.0,-10.0,-10.0,-4.0,-3.0,1.0
1.6951632495720924e+18,0.0,3.0,2.0,18.0,20.0,7.0,3.0,0.0
1.6951632495731123e+18,3.0,2.0,3.0,4.0,2.0,0.0,-2.0,-2.0
1.6951632495731123e+18,-4.0,0.0,0.0,3.0,-2.0,-4.0,-2.0,-3.0
1.6951632495761144e+18,-3.0,-2.0,-1.0,-3.0,-5.0,2.0,10.0,5.0
1.69516324957709e+18,0.0,-4.0,-12.0,-23.0,-7.0,-2.0,-1.0,0.0
1.6951632495940803e+18,0.0,2.0,11.0,12.0,-6.0,-4.0,-4.0,-2.0
1.6951632495960794e+18,0.0,-1.0,-1.0,-13.0,9.0,4.0,3.0,-1.0
1.6951632495960794e+18,0.0,-7.0,-7.0,-13.0,-13.0,-5.0,-6.0,2.0
1.6951632495960794e+18,-5.0,-3.0,-8.0,11.0,28.0,5.0,2.0,-3.0
1.695163249609072e+18,4.0,2.0,-1.0,-4.0,7.0,6.0,2.0,4.0
1.695163249609072e+18,-4.0,-3.0,8.0,13.0,-3.0,-6.0,-5.0,-4.0
1.695163249611071e+18,0.0,2.0,0.0,-19.0,-27.0,-5.0,-1.0,0.0
1.695163249611071e+18,2.0,5.0,5.0,25.0,21.0,4.0,0.0,0.0
1.6951632496240855e+18,-5.0,-4.0,-15.0,-24.0,-12.0,-7.0,-2.0,-2.0
1.6951632496290614e+18,0.0,-2.0,-2.0,1.0,5.0,4.0,2.0,0.0
1.6951632496290614e+18,-2.0,-1.0,-2.0,-11.0,-3.0,-7.0,-2.0,-5.0
1.69516324963006e+18,1.0,0.0,0.0,-12.0,-16.0,-5.0,-6.0,2.0
1.6951632496462508e+18,2.0,4.0,11.0,17.0,6.0,-2.0,4.0,0.0
1.6951632496462508e+18,-4.0,-2.0,-16.0,-24.0,-7.0,-4.0,-2.0,-3.0
1.6951632496472507e+18,-1.0,5.0,-1.0,0.0,-9.0,-2.0,-2.0,1.0
1.6951632496482499e+18,-3.0,-10.0,7.0,10.0,17.0,8.0,-3.0,-2.0
1.6951632496692375e+18,0.0,-2.0,-5.0,-5.0,-10.0,-5.0,-1.0,-1.0
1.6951632496702367e+18,-1.0,2.0,-1.0,1.0,3.0,-7.0,-10.0,-2.0
1.6951632496702367e+18,0.0,-1.0,1.0,10.0,9.0,3.0,-3.0,-4.0
1.6951632496712353e+18,2.0,8.0,9.0,14.0,-13.0,3.0,6.0,9.0
1.6951632496972193e+18,-2.0,-3.0,-9.0,-10.0,3.0,9.0,12.0,0.0
1.695163249698222e+18,1.0,-2.0,-13.0,-8.0,5.0,4.0,9.0,0.0
1.6951632497342044e+18,0.0,0.0,-2.0,-9.0,1.0,-1.0,0.0,1.0
1.6951632497342044e+18,-4.0,-9.0,12.0,20.0,-11.0,-11.0,-9.0,-6.0
1.6951632497352044e+18,-5.0,-4.0,-5.0,-9.0,-7.0,-9.0,-28.0,-7.0
1.6951632497352044e+18,6.0,13.0,8.0,2.0,14.0,15.0,28.0,5.0
1.6951632497591841e+18,-5.0,-12.0,-14.0,1.0,5.0,3.0,5.0,2.0
1.6951632497591841e+18,-1.0,2.0,17.0,0.0,-11.0,0.0,5.0,-2.0
1.6951632497601833e+18,-2.0,-3.0,-11.0,-19.0,-8.0,-10.0,-11.0,-3.0
1.6951632497601833e+18,2.0,-1.0,5.0,25.0,7.0,-5.0,-11.0,-4.0
1.6951632497601833e+18,-7.0,-8.0,1.0,-1.0,-9.0,-10.0,-7.0,-5.0
1.6951632497611827e+18,-4.0,-5.0,-7.0,-14.0,-10.0,-8.0,-18.0,3.0
1.6951632497721994e+18,-2.0,-4.0,7.0,21.0,12.0,0.0,5.0,-5.0
1.6951632497731768e+18,1.0,5.0,15.0,22.0,-6.0,6.0,-8.0,3.0
1.6951632497731768e+18,7.0,8.0,-4.0,-32.0,7.0,16.0,32.0,7.0
1.6951632497731768e+18,-8.0,-16.0,-20.0,-7.0,-10.0,-8.0,-17.0,-9.0
1.6951632498041582e+18,1.0,6.0,-3.0,-7.0,2.0,3.0,11.0,6.0
1.6951632498041582e+18,-2.0,-5.0,-20.0,-33.0,-17.0,-12.0,-9.0,-6.0
1.6951632498051587e+18,-3.0,-2.0,14.0,19.0,21.0,-2.0,-16.0,1.0
1.6951632498051587e+18,-1.0,3.0,27.0,46.0,-1.0,1.0,7.0,-5.0
1.6951632498061606e+18,0.0,-1.0,-10.0,0.0,-3.0,-2.0,-9.0,6.0
1.6951632498071608e+18,0.0,1.0,-6.0,-5.0,-4.0,3.0,16.0,0.0
1.6951632498091597e+18,1.0,-1.0,-12.0,-26.0,-2.0,2.0,-1.0,-1.0
1.6951632498101578e+18,2.0,6.0,27.0,26.0,11.0,2.0,5.0,4.0
1.6951632498251456e+18,-5.0,-10.0,-7.0,8.0,-6.0,-3.0,6.0,-2.0
1.6951632498251456e+18,0.0,-4.0,-32.0,-51.0,-7.0,-6.0,-2.0,-4.0
1.6951632498271457e+18,3.0,1.0,-12.0,-3.0,-3.0,13.0,3.0,6.0
1.6951632498271457e+18,-3.0,-5.0,6.0,-3.0,2.0,-4.0,-5.0,-4.0
1.6951632498491336e+18,-3.0,-1.0,5.0,12.0,-6.0,0.0,-5.0,-6.0
1.6951632498501548e+18,1.0,4.0,12.0,-4.0,-11.0,-1.0,5.0,2.0
1.6951632498521385e+18,-2.0,-5.0,-8.0,3.0,4.0,-7.0,-11.0,-2.0
1.6951632498521385e+18,-3.0,-2.0,-17.0,-26.0,-3.0,-8.0,-9.0,-5.0
1.6951632498621294e+18,2.0,5.0,-2.0,5.0,1.0,0.0,-6.0,1.0
1.6951632498631255e+18,-3.0,-2.0,16.0,24.0,4.0,-4.0,-10.0,-4.0
1.6951632498841167e+18,1.0,5.0,-3.0,-20.0,-10.0,-10.0,-14.0,-8.0
1.6951632498851208e+18,-1.0,-3.0,-7.0,-5.0,1.0,6.0,27.0,7.0
1.6951632499071022e+18,2.0,10.0,21.0,38.0,-2.0,-6.0,-5.0,-1.0
1.6951632499121193e+18,-3.0,-6.0,-18.0,-17.0,11.0,5.0,-9.0,-1.0
1.6951632499121193e+18,3.0,0.0,4.0,8.0,2.0,4.0,0.0,-3.0
1.6951632499121193e+18,-1.0,2.0,-2.0,6.0,5.0,-2.0,-5.0,-2.0
1.6951632499151132e+18,3.0,-1.0,7.0,-19.0,-3.0,12.0,21.0,9.0
1.6951632499151132e+18,-1.0,-5.0,-1.0,24.0,-7.0,-2.0,4.0,0.0
1.6951632499166705e+18,-4.0,-9.0,-36.0,-42.0,-18.0,-7.0,19.0,5.0
1.6951632499166705e+18,-2.0,-1.0,-9.0,-10.0,0.0,-4.0,-7.0,-6.0
1.6951632499298883e+18,4.0,5.0,3.0,12.0,5.0,0.0,-5.0,1.0
1.6951632499298883e+18,0.0,4.0,9.0,-5.0,3.0,6.0,9.0,3.0
1.6951632499378847e+18,-3.0,-4.0,0.0,6.0,-1.0,-1.0,-4.0,-3.0
1.6951632499378847e+18,1.0,2.0,-4.0,-2.0,-6.0,-11.0,-15.0,-2.0
1.6951632499448837e+18,-4.0,-11.0,-4.0,12.0,9.0,3.0,4.0,1.0
1.695163249945883e+18,1.0,0.0,-10.0,-23.0,-4.0,-4.0,-17.0,0.0
1.6951632499468787e+18,-1.0,3.0,1.0,-3.0,-4.0,-3.0,-3.0,-2.0
1.6951632499468787e+18,0.0,0.0,-8.0,-20.0,-9.0,-1.0,-1.0,0.0
1.695163249958875e+18,-1.0,-7.0,-2.0,13.0,15.0,1.0,6.0,-6.0
1.695163249958875e+18,-1.0,1.0,-2.0,10.0,-1.0,-8.0,-21.0,-9.0
1.6951632499688673e+18,0.0,2.0,7.0,0.0,5.0,8.0,19.0,5.0
1.6951632499688673e+18,1.0,5.0,12.0,6.0,2.0,-3.0,-5.0,-5.0
1.6951632499908541e+18,-3.0,1.0,-3.0,-7.0,-9.0,-6.0,-12.0,-2.0
1.695163249991853e+18,2.0,-6.0,3.0,2.0,-2.0,5.0,2.0,4.0
1.695163249996854e+18,-6.0,4.0,4.0,3.0,2.0,3.0,20.0,-1.0
1.695163249996854e+18,0.0,-14.0,-9.0,-12.0,0.0,3.0,-21.0,8.0
1.6951632500048445e+18,-1.0,-9.0,0.0,7.0,1.0,8.0,11.0,-10.0
1.6951632500058447e+18,-4.0,6.0,-6.0,-9.0,-3.0,-5.0,0.0,-1.0
1.695163250006844e+18,5.0,-7.0,16.0,8.0,-2.0,0.0,-4.0,-1.0
1.695163250006844e+18,-4.0,1.0,-19.0,-22.0,-7.0,-8.0,-11.0,-2.0
1.6951632500358287e+18,-1.0,-20.0,-17.0,13.0,26.0,5.0,0.0,5.0
1.6951632500368276e+18,-1.0,-14.0,16.0,-2.0,1.0,9.0,16.0,7.0
1.6951632500378342e+18,-6.0,-8.0,-23.0,-23.0,-2.0,-12.0,-15.0,-10.0
1.6951632500378342e+18,-4.0,5.0,-10.0,-14.0,-4.0,4.0,13.0,-1.0
1.6951632500418235e+18,3.0,9.0,0.0,-15.0,2.0,10.0,27.0,15.0
1.6951632500428278e+18,5.0,-8.0,21.0,34.0,-2.0,2.0,6.0,-13.0
1.6951632500618135e+18,2.0,0.0,17.0,-1.0,-1.0,-2.0,-12.0,3.0
1.6951632500628134e+18,6.0,4.0,15.0,41.0,8.0,-23.0,-20.0,-17.0
1.6951632500648154e+18,-19.0,-18.0,-25.0,-39.0,-17.0,-9.0,-16.0,-13.0
1.6951632500658112e+18,-14.0,3.0,-18.0,-22.0,-7.0,-3.0,-1.0,-2.0
1.695163250079808e+18,-12.0,9.0,7.0,16.0,-5.0,4.0,0.0,0.0
1.6951632500808033e+18,1.0,-15.0,3.0,-11.0,0.0,-12.0,-25.0,2.0
1.6951632500808033e+18,18.0,30.0,21.0,17.0,1.0,13.0,22.0,-32.0
1.6951632500808033e+18,4.0,12.0,-22.0,-5.0,-3.0,3.0,2.0,10.0
1.6951632500947937e+18,-1.0,-9.0,8.0,8.0,1.0,-8.0,-28.0,-5.0
1.6951632500957934e+18,-6.0,-16.0,-6.0,-2.0,2.0,-7.0,5.0,6.0
1.6951632501117855e+18,3.0,10.0,29.0,17.0,-5.0,0.0,-2.0,14.0
1.6951632501127846e+18,2.0,-3.0,-10.0,-17.0,2.0,6.0,8.0,-2.0
1.6951632501181678e+18,1.0,2.0,-26.0,1.0,-5.0,-15.0,-22.0,-10.0
1.6951632501181678e+18,9.0,6.0,8.0,-32.0,-6.0,11.0,26.0,10.0
1.6951632501261647e+18,-7.0,-17.0,-10.0,9.0,9.0,-5.0,-8.0,-1.0
1.6951632501271657e+18,2.0,10.0,12.0,-14.0,-4.0,-7.0,-19.0,-8.0
1.6951632501281618e+18,3.0,-13.0,11.0,23.0,7.0,14.0,26.0,8.0
1.6951632501281618e+18,0.0,13.0,14.0,18.0,8.0,11.0,5.0,3.0
1.6951632501639903e+18,-5.0,-5.0,-15.0,-36.0,-18.0,-9.0,-20.0,6.0
1.6951632501639903e+18,5.0,-3.0,8.0,12.0,8.0,14.0,28.0,21.0
1.6951632501658342e+18,12.0,5.0,3.0,-3.0,2.0,-9.0,-7.0,4.0
1.6951632501658342e+18,-25.0,-44.0,-8.0,-6.0,-7.0,-6.0,-13.0,-38.0
1.6951632501658342e+18,4.0,11.0,13.0,33.0,-1.0,-7.0,1.0,13.0
1.6951632501668518e+18,-1.0,-1.0,-12.0,-1.0,2.0,3.0,5.0,2.0
1.6951632501778424e+18,8.0,17.0,-5.0,-17.0,-2.0,1.0,-4.0,-2.0
1.6951632501778424e+18,-18.0,3.0,-5.0,9.0,-4.0,8.0,18.0,12.0
1.6951632501928366e+18,8.0,-2.0,-20.0,-6.0,-8.0,-33.0,-43.0,-13.0
1.6951632501928366e+18,0.0,-5.0,14.0,-2.0,-3.0,10.0,15.0,10.0
1.695163250193837e+18,-1.0,15.0,4.0,14.0,9.0,-5.0,0.0,-23.0
1.6951632501948385e+18,13.0,15.0,-5.0,-11.0,-2.0,6.0,3.0,37.0
1.6951632502077327e+18,-7.0,-17.0,8.0,-4.0,-21.0,-15.0,-18.0,-44.0
1.6951632502077327e+18,-13.0,-10.0,-13.0,-10.0,14.0,-11.0,-17.0,-3.0
1.695163250209736e+18,13.0,0.0,8.0,-9.0,10.0,27.0,48.0,30.0
1.695163250209736e+18,20.0,13.0,18.0,38.0,-2.0,-2.0,-6.0,-3.0
1.6951632502218852e+18,0.0,13.0,-19.0,-24.0,-2.0,-2.0,1.0,7.0
1.6951632502218852e+18,-2.0,-19.0,-3.0,-18.0,-25.0,-30.0,-11.0,-18.0
1.695163250228792e+18,-7.0,-3.0,11.0,0.0,-3.0,-16.0,-24.0,-11.0
1.695163250228792e+18,2.0,-8.0,15.0,5.0,10.0,16.0,22.0,2.0
1.695163250244992e+18,-1.0,9.0,0.0,6.0,-22.0,-3.0,-5.0,10.0
1.695163250244992e+18,2.0,10.0,13.0,32.0,39.0,16.0,15.0,0.0
1.6951632502469893e+18,-3.0,-12.0,-18.0,-23.0,-9.0,-8.0,-15.0,13.0
1.6951632502469893e+18,-4.0,16.0,-2.0,0.0,1.0,-3.0,1.0,-11.0
1.6951632502749957e+18,-1.0,22.0,9.0,-28.0,-4.0,-7.0,-7.0,1.0
1.6951632502749957e+18,7.0,7.0,0.0,35.0,-1.0,15.0,14.0,12.0
1.6951632502769728e+18,1.0,6.0,-13.0,7.0,4.0,3.0,18.0,6.0
1.6951632502769728e+18,-23.0,-9.0,-11.0,-24.0,-9.0,-3.0,-9.0,-18.0
1.6951632502809923e+18,-8.0,-9.0,8.0,14.0,9.0,-7.0,26.0,31.0
1.6951632502809923e+18,6.0,-17.0,3.0,10.0,2.0,2.0,10.0,-45.0
1.6951632502980406e+18,-7.0,-16.0,9.0,-33.0,-23.0,13.0,0.0,11.0
1.6951632502980406e+18,9.0,5.0,-2.0,36.0,28.0,-8.0,-19.0,1.0
1.6951632503051005e+18,-5.0,-6.0,-21.0,-22.0,6.0,2.0,13.0,-30.0
1.6951632503051005e+18,-15.0,8.0,24.0,11.0,-5.0,-9.0,-26.0,16.0
1.6951632503070067e+18,-14.0,5.0,-6.0,15.0,0.0,2.0,5.0,-7.0
1.6951632503070067e+18,0.0,-17.0,-4.0,-13.0,-6.0,6.0,12.0,-10.0
1.695163250327735e+18,-2.0,-3.0,-17.0,12.0,2.0,1.0,-10.0,12.0
1.695163250327735e+18,2.0,-20.0,14.0,3.0,6.0,-6.0,9.0,-1.0
1.695163250329738e+18,0.0,9.0,17.0,13.0,1.0,4.0,5.0,-2.0
1.695163250329738e+18,-5.0,5.0,-19.0,-17.0,-4.0,-11.0,-15.0,-1.0
1.6951632503748224e+18,1.0,2.0,4.0,13.0,15.0,15.0,-5.0,-13.0
1.6951632503758236e+18,3.0,27.0,-22.0,-21.0,-19.0,-4.0,21.0,6.0
1.6951632503768218e+18,-1.0,-12.0,-12.0,-12.0,8.0,-9.0,-40.0,6.0
1.6951632503768218e+18,1.0,-15.0,-9.0,19.0,-2.0,-4.0,10.0,0.0
1.6951632503768218e+18,11.0,7.0,29.0,18.0,6.0,0.0,-12.0,-4.0
1.695163250377841e+18,-5.0,-11.0,-10.0,2.0,-10.0,-4.0,-32.0,3.0
1.6951632503908145e+18,6.0,21.0,5.0,20.0,12.0,-13.0,-35.0,-34.0
1.6951632503908145e+18,-1.0,8.0,-37.0,-64.0,-11.0,8.0,11.0,8.0
1.6951632503918129e+18,1.0,5.0,-22.0,-28.0,-3.0,15.0,27.0,9.0
1.6951632503918129e+18,-1.0,-21.0,-6.0,-8.0,-13.0,-20.0,-41.0,-14.0
1.6951632504018086e+18,-19.0,-33.0,25.0,16.0,-1.0,-1.0,3.0,5.0
1.6951632504018086e+18,15.0,14.0,12.0,10.0,1.0,2.0,4.0,6.0
1.6951632504098053e+18,-19.0,-1.0,-26.0,1.0,-1.0,-2.0,3.0,-13.0
1.6951632504108088e+18,8.0,21.0,5.0,-17.0,7.0,26.0,10.0,28.0
1.6951632504118054e+18,-13.0,-3.0,1.0,26.0,-2.0,5.0,26.0,-6.0
1.6951632504118054e+18,1.0,5.0,-21.0,-26.0,-13.0,-3.0,4.0,1.0
1.6951632504247936e+18,4.0,4.0,7.0,-22.0,-19.0,-7.0,-15.0,10.0
1.6951632504247936e+18,8.0,13.0,14.0,50.0,30.0,4.0,11.0,18.0
1.6951632504397862e+18,-7.0,-5.0,6.0,-9.0,3.0,-3.0,-7.0,-41.0
1.6951632504407857e+18,4.0,8.0,-15.0,-11.0,-8.0,-6.0,-3.0,0.0
1.695163250471863e+18,3.0,-14.0,2.0,-7.0,-7.0,4.0,-2.0,17.0
1.695163250471863e+18,-2.0,-11.0,-12.0,-24.0,-6.0,7.0,26.0,19.0
1.6951632504728832e+18,10.0,5.0,-2.0,8.0,5.0,13.0,20.0,-2.0
1.6951632504728832e+18,3.0,18.0,22.0,11.0,-5.0,-12.0,-9.0,6.0
1.695163250473866e+18,-11.0,-44.0,-1.0,12.0,7.0,19.0,-15.0,-22.0
1.695163250473866e+18,10.0,7.0,-5.0,-25.0,-7.0,-4.0,3.0,-5.0
1.6951632505088448e+18,3.0,8.0,-15.0,8.0,1.0,-11.0,-29.0,0.0
1.6951632505088448e+18,-4.0,-4.0,1.0,-3.0,-4.0,-4.0,-28.0,10.0
1.6951632505168492e+18,0.0,7.0,40.0,21.0,6.0,-9.0,1.0,5.0
1.6951632505178568e+18,-2.0,-2.0,-16.0,-10.0,-4.0,-6.0,-17.0,8.0
1.6951632505188557e+18,-8.0,14.0,42.0,38.0,6.0,11.0,4.0,10.0
1.6951632505188557e+18,-10.0,-9.0,-24.0,-19.0,1.0,-12.0,-6.0,-56.0
1.6951632505188557e+18,1.0,8.0,-19.0,-22.0,-9.0,-4.0,7.0,16.0
1.6951632505198876e+18,-7.0,-18.0,9.0,25.0,1.0,4.0,-31.0,-24.0
1.695163250532848e+18,-6.0,0.0,16.0,17.0,-2.0,-18.0,-25.0,-7.0
1.6951632505338473e+18,0.0,24.0,-11.0,-26.0,-13.0,-13.0,-7.0,-5.0
1.6951632505348475e+18,5.0,-15.0,0.0,2.0,-3.0,2.0,15.0,7.0
1.695163250535848e+18,3.0,-4.0,-3.0,13.0,6.0,-4.0,29.0,4.0
1.695163250560838e+18,14.0,2.0,-20.0,-15.0,4.0,8.0,29.0,19.0
1.6951632505618396e+18,-6.0,-17.0,16.0,15.0,1.0,-8.0,30.0,0.0
1.6951632505618396e+18,7.0,-32.0,6.0,-2.0,8.0,18.0,11.0,-2.0
1.695163250562831e+18,0.0,-3.0,19.0,0.0,-2.0,-13.0,-52.0,-17.0
1.695163250568828e+18,-4.0,6.0,-28.0,5.0,-3.0,7.0,26.0,6.0
1.6951632505698268e+18,-2.0,-7.0,9.0,-11.0,-14.0,3.0,10.0,4.0
1.6951632505698268e+18,-1.0,12.0,-23.0,-26.0,13.0,0.0,12.0,-15.0
1.6951632505708344e+18,-8.0,-1.0,3.0,15.0,-7.0,-20.0,-45.0,-28.0
1.6951632505978107e+18,8.0,2.0,25.0,28.0,7.0,8.0,-1.0,7.0
1.695163250598811e+18,12.0,29.0,2.0,0.0,14.0,9.0,1.0,-2.0
1.6951632506008097e+18,-17.0,-41.0,4.0,10.0,-2.0,-6.0,-14.0,-3.0
1.6951632506008097e+18,9.0,10.0,17.0,4.0,-10.0,1.0,17.0,8.0
1.695163250605807e+18,-7.0,-7.0,-22.0,-10.0,5.0,-9.0,9.0,-22.0
1.695163250605807e+18,-9.0,11.0,-11.0,-21.0,-21.0,-12.0,-35.0,-7.0
1.6951632506238065e+18,-1.0,-2.0,-22.0,-35.0,-9.0,-12.0,-9.0,-1.0
1.6951632506247951e+18,8.0,8.0,40.0,41.0,20.0,35.0,55.0,17.0
1.6951632506587973e+18,-4.0,-17.0,-37.0,-17.0,-4.0,-20.0,-43.0,-4.0
1.6951632506597773e+18,1.0,8.0,22.0,18.0,0.0,10.0,12.0,-23.0
1.695163250660778e+18,0.0,30.0,17.0,13.0,-4.0,-1.0,-1.0,10.0
1.695163250660778e+18,-9.0,-14.0,-29.0,-24.0,-3.0,9.0,32.0,-2.0
1.6951632506617733e+18,2.0,-5.0,36.0,26.0,13.0,3.0,2.0,9.0
1.6951632506617733e+18,-8.0,-7.0,-26.0,1.0,-1.0,-2.0,2.0,-13.0
1.695163250677787e+18,13.0,15.0,5.0,-19.0,-12.0,4.0,-15.0,19.0
1.6951632506827612e+18,3.0,3.0,1.0,3.0,-3.0,1.0,4.0,-3.0
1.695163250683761e+18,4.0,-1.0,-17.0,-34.0,-4.0,12.0,12.0,29.0
1.6951632506847606e+18,-1.0,-1.0,5.0,11.0,4.0,-29.0,-38.0,-43.0
1.6951632507047483e+18,0.0,-1.0,9.0,11.0,7.0,21.0,65.0,27.0
1.6951632507047483e+18,-3.0,3.0,-2.0,-12.0,-14.0,-23.0,-53.0,-24.0
1.6951632507057477e+18,13.0,9.0,1.0,-4.0,7.0,21.0,16.0,11.0
1.6951632507057477e+18,10.0,12.0,24.0,-16.0,11.0,6.0,13.0,11.0
1.6951632507187433e+18,-4.0,7.0,-75.0,-25.0,-13.0,0.0,1.0,-7.0
1.6951632507187433e+18,-15.0,-29.0,-11.0,8.0,3.0,6.0,8.0,-10.0
1.6951632507197407e+18,-3.0,15.0,34.0,27.0,-3.0,-14.0,-13.0,-19.0
1.6951632507197407e+18,-5.0,3.0,-4.0,-14.0,5.0,1.0,-14.0,2.0
1.6951632507207388e+18,0.0,0.0,5.0,-11.0,-7.0,-10.0,-15.0,-7.0
1.6951632507207388e+18,1.0,-8.0,10.0,17.0,14.0,18.0,10.0,10.0
1.6951632507257377e+18,-2.0,13.0,25.0,18.0,-21.0,-15.0,-16.0,-8.0
1.6951632507257377e+18,-5.0,-6.0,-50.0,-25.0,17.0,6.0,15.0,36.0
1.6951632507267361e+18,-12.0,-17.0,1.0,-28.0,-14.0,-19.0,-40.0,-28.0
1.6951632507267361e+18,1.0,-2.0,-22.0,1.0,5.0,6.0,13.0,20.0
1.695163250762714e+18,-1.0,11.0,-7.0,-19.0,-4.0,12.0,7.0,-19.0
1.695163250763721e+18,-5.0,-8.0,2.0,25.0,-8.0,-8.0,-20.0,6.0
1.6951632507647132e+18,8.0,28.0,-2.0,-22.0,-7.0,-12.0,-1.0,-17.0
1.6951632507647132e+18,8.0,7.0,36.0,43.0,9.0,25.0,37.0,20.0
1.6951632507657124e+18,-1.0,-5.0,-10.0,-12.0,-1.0,-2.0,7.0,-6.0
1.6951632507657124e+18,-3.0,-22.0,-54.0,-51.0,-19.0,-9.0,-5.0,-4.0
1.6951632507857032e+18,-32.0,-10.0,-9.0,-11.0,4.0,-1.0,9.0,-9.0
1.6951632507867028e+18,9.0,11.0,7.0,5.0,-9.0,-17.0,-8.0,-3.0
1.6951632507867028e+18,2.0,-4.0,10.0,15.0,11.0,24.0,40.0,14.0
1.6951632507867028e+18,-10.0,-8.0,6.0,16.0,-5.0,-6.0,-15.0,-8.0
1.6951632507946964e+18,-4.0,-14.0,-12.0,3.0,-1.0,-13.0,-26.0,-6.0
1.6951632507966953e+18,-6.0,0.0,-23.0,-30.0,0.0,2.0,25.0,21.0
1.6951632508076882e+18,1.0,15.0,7.0,3.0,3.0,-19.0,-34.0,-16.0
1.6951632508076882e+18,5.0,-10.0,-7.0,-12.0,-4.0,35.0,38.0,14.0
1.695163250808689e+18,-2.0,51.0,-1.0,30.0,7.0,5.0,3.0,-3.0
1.6951632508096878e+18,2.0,-27.0,27.0,4.0,-4.0,-1.0,0.0,2.0
1.695163250837671e+18,-9.0,3.0,-7.0,-1.0,11.0,1.0,1.0,1.0
1.695163250837671e+18,-2.0,6.0,13.0,21.0,10.0,-2.0,-1.0,-10.0
1.6951632508386706e+18,11.0,1.0,22.0,18.0,6.0,-1.0,-3.0,8.0
1.6951632508396708e+18,-3.0,12.0,-27.0,-35.0,-14.0,-7.0,-15.0,7.0
1.6951632508446666e+18,3.0,-6.0,2.0,-2.0,-6.0,-7.0,-10.0,2.0
1.6951632508446666e+18,4.0,-7.0,23.0,20.0,8.0,0.0,-2.0,-12.0
1.6951632508516636e+18,0.0,13.0,-30.0,-33.0,-21.0,-8.0,-14.0,-19.0
1.6951632508516636e+18,-5.0,-6.0,8.0,6.0,10.0,7.0,-4.0,13.0
1.6951632508826452e+18,2.0,10.0,-1.0,-4.0,-7.0,-7.0,-5.0,10.0
1.6951632508826452e+18,0.0,5.0,2.0,12.0,-3.0,-6.0,13.0,-1.0
1.6951632508986363e+18,1.0,-11.0,-16.0,-9.0,-4.0,10.0,27.0,18.0
1.6951632508986363e+18,2.0,6.0,-4.0,-13.0,0.0,-4.0,-19.0,-12.0
1.6951632508986363e+18,4.0,15.0,-11.0,-8.0,-14.0,-6.0,-14.0,-9.0
1.6951632508996388e+18,0.0,25.0,12.0,10.0,-12.0,-11.0,-3.0,-1.0
1.6951632509006354e+18,1.0,-8.0,-1.0,-10.0,2.0,2.0,2.0,-1.0
1.6951632509006354e+18,-2.0,-2.0,-13.0,-13.0,-11.0,-9.0,-20.0,-9.0
1.695163250914629e+18,-12.0,-47.0,13.0,38.0,20.0,8.0,7.0,-2.0
1.695163250914629e+18,-4.0,-24.0,23.0,3.0,-1.0,-1.0,2.0,4.0
1.695163250919626e+18,2.0,-14.0,-18.0,-15.0,-3.0,-4.0,-5.0,7.0
1.695163250919626e+18,-4.0,-4.0,-2.0,-14.0,-1.0,-4.0,-6.0,-7.0
1.6951632509276214e+18,2.0,36.0,-15.0,-20.0,-14.0,-9.0,-12.0,-7.0
1.6951632509286195e+18,-9.0,7.0,-19.0,-4.0,7.0,2.0,-3.0,-6.0
1.695163250941611e+18,8.0,6.0,27.0,19.0,-4.0,-2.0,0.0,8.0
1.695163250941611e+18,-3.0,0.0,-26.0,-11.0,8.0,2.0,0.0,-3.0
1.6951632509426337e+18,-4.0,-15.0,-16.0,-26.0,-7.0,-5.0,-2.0,-9.0
1.6951632509426337e+18,3.0,7.0,-5.0,-1.0,-7.0,0.0,5.0,4.0
1.6951632509646203e+18,-1.0,-18.0,27.0,28.0,17.0,2.0,6.0,3.0
1.6951632509655982e+18,0.0,16.0,-26.0,-10.0,-14.0,-7.0,-5.0,-3.0
1.6951632509655982e+18,-5.0,-13.0,7.0,6.0,6.0,1.0,1.0,1.0
1.6951632509655982e+18,3.0,-6.0,-4.0,-11.0,-3.0,-1.0,12.0,-4.0
1.6951632509725944e+18,-1.0,-2.0,13.0,12.0,4.0,-2.0,-2.0,3.0
1.6951632509725944e+18,-3.0,5.0,5.0,15.0,-4.0,-3.0,-5.0,-7.0
1.6951632509885875e+18,-3.0,-14.0,-10.0,-26.0,-6.0,0.0,7.0,-1.0
1.6951632509885875e+18,-3.0,-6.0,-3.0,-6.0,-5.0,1.0,-6.0,1.0
1.6951632509955812e+18,-2.0,-17.0,10.0,30.0,15.0,3.0,-5.0,2.0
1.6951632509955812e+18,-1.0,13.0,9.0,-12.0,-4.0,-1.0,-4.0,1.0
1.6951632510105725e+18,2.0,6.0,-5.0,2.0,3.0,-2.0,-4.0,-2.0
1.6951632510105725e+18,-4.0,2.0,3.0,0.0,3.0,-1.0,-5.0,0.0
1.695163251011595e+18,3.0,-3.0,-2.0,0.0,-5.0,-4.0,-5.0,-1.0
1.695163251011595e+18,1.0,-3.0,-6.0,-5.0,-3.0,-4.0,-1.0,-1.0
1.6951632510255675e+18,-1.0,-11.0,9.0,5.0,0.0,3.0,0.0,0.0
1.6951632510255675e+18,-5.0,11.0,-4.0,2.0,3.0,-4.0,-6.0,-3.0
1.6951632510265828e+18,2.0,-2.0,11.0,3.0,1.0,1.0,-1.0,0.0
1.6951632510275658e+18,-5.0,-5.0,-4.0,-1.0,-2.0,-4.0,-3.0,-3.0
1.6951632510557368e+18,3.0,4.0,14.0,4.0,-1.0,-2.0,0.0,-2.0
1.6951632510557368e+18,0.0,-3.0,-21.0,-3.0,-1.0,-1.0,0.0,0.0
1.6951632510567299e+18,-2.0,1.0,-2.0,-5.0,-4.0,-1.0,-2.0,0.0
1.6951632510567299e+18,2.0,-5.0,-5.0,3.0,3.0,4.0,2.0,1.0
1.6951632510698798e+18,0.0,1.0,6.0,7.0,-2.0,-3.0,-3.0,-1.0
1.6951632510698798e+18,1.0,6.0,1.0,0.0,2.0,2.0,0.0,0.0
1.6951632510718835e+18,-8.0,-28.0,-1.0,0.0,-4.0,0.0,1.0,1.0
1.6951632510718835e+18,0.0,6.0,6.0,9.0,5.0,0.0,-2.0,-3.0
1.6951632510848412e+18,-8.0,-14.0,-12.0,-13.0,-4.0,-1.0,-4.0,-2.0
1.6951632510848412e+18,-3.0,-17.0,4.0,4.0,-5.0,-8.0,-2.0,-1.0
1.6951632511067415e+18,6.0,9.0,-9.0,-5.0,-1.0,7.0,-2.0,-1.0
1.6951632511067415e+18,2.0,-2.0,7.0,7.0,2.0,-6.0,-5.0,-4.0
1.6951632511159032e+18,2.0,10.0,-12.0,2.0,3.0,2.0,0.0,5.0
1.6951632511159032e+18,-2.0,3.0,12.0,-3.0,-2.0,-2.0,0.0,-4.0
1.6951632511169055e+18,1.0,4.0,2.0,4.0,-3.0,-2.0,-2.0,-6.0
1.6951632511178988e+18,-5.0,-8.0,3.0,-8.0,-4.0,2.0,-1.0,-1.0
1.6951632511308915e+18,1.0,0.0,2.0,12.0,5.0,1.0,-1.0,-2.0
1.6951632511318904e+18,-1.0,-8.0,20.0,0.0,-2.0,-1.0,-1.0,4.0
1.6951632511318904e+18,0.0,-7.0,-1.0,-9.0,4.0,2.0,1.0,3.0
1.6951632511328955e+18,2.0,2.0,-13.0,3.0,-3.0,1.0,1.0,-2.0
1.6951632511458816e+18,0.0,-22.0,17.0,-21.0,-5.0,-2.0,-5.0,-5.0
1.6951632511458816e+18,-5.0,9.0,-28.0,3.0,1.0,4.0,3.0,-4.0
1.6951632511588726e+18,3.0,3.0,-8.0,0.0,-1.0,-2.0,2.0,3.0
1.695163251159874e+18,-6.0,0.0,6.0,-4.0,-6.0,-4.0,-5.0,9.0
1.6951632511818962e+18,-5.0,-13.0,-11.0,9.0,2.0,1.0,2.0,-1.0
1.6951632511828613e+18,0.0,-15.0,22.0,3.0,3.0,1.0,-3.0,0.0
1.6951632511848602e+18,3.0,-2.0,-14.0,-7.0,-9.0,-5.0,-2.0,-5.0
1.6951632511848602e+18,-3.0,23.0,0.0,2.0,-1.0,-1.0,1.0,-3.0
1.6951632511908554e+18,1.0,-1.0,-8.0,10.0,0.0,-1.0,2.0,-3.0
1.695163251191863e+18,-3.0,-9.0,-6.0,-10.0,-3.0,-2.0,1.0,10.0
1.695163251192854e+18,10.0,16.0,9.0,3.0,-1.0,-3.0,-2.0,-4.0
1.695163251192854e+18,0.0,-5.0,1.0,-4.0,0.0,-2.0,-3.0,-20.0
1.6951632512138493e+18,-10.0,-29.0,4.0,-4.0,0.0,2.0,0.0,9.0
1.6951632512138493e+18,19.0,14.0,3.0,5.0,0.0,-5.0,-3.0,10.0
1.6951632512198505e+18,-19.0,-1.0,-17.0,-5.0,1.0,-4.0,-2.0,-12.0
1.6951632512198505e+18,-7.0,-8.0,13.0,5.0,2.0,1.0,0.0,-1.0
1.6951632512358298e+18,8.0,17.0,-4.0,0.0,5.0,5.0,18.0,0.0
1.6951632512368292e+18,-7.0,-13.0,-16.0,-6.0,0.0,1.0,-10.0,-8.0
1.695163251237829e+18,-4.0,27.0,35.0,4.0,0.0,4.0,19.0,33.0
1.6951632512388288e+18,-8.0,-58.0,-55.0,-4.0,-3.0,1.0,0.0,-27.0
1.695163251249822e+18,-3.0,31.0,6.0,-2.0,-5.0,-15.0,-43.0,1.0
1.695163251249822e+18,5.0,-39.0,11.0,3.0,-1.0,0.0,4.0,13.0
1.695163251257817e+18,5.0,22.0,-30.0,-1.0,-2.0,-3.0,6.0,14.0
1.6951632512588183e+18,-4.0,0.0,-18.0,-9.0,2.0,11.0,14.0,-25.0
1.695163251263812e+18,8.0,11.0,19.0,13.0,2.0,2.0,6.0,-21.0
1.6951632512648212e+18,-6.0,22.0,-24.0,-15.0,-10.0,-6.0,-12.0,-16.0
1.6951632512728077e+18,-13.0,-10.0,9.0,9.0,2.0,1.0,-9.0,22.0
1.6951632512738081e+18,14.0,-17.0,5.0,-28.0,-15.0,-3.0,4.0,24.0
1.695163251304789e+18,-9.0,3.0,-8.0,4.0,-8.0,-1.0,1.0,-13.0
1.695163251304789e+18,4.0,16.0,-4.0,2.0,10.0,5.0,1.0,2.0
1.695163251305789e+18,1.0,-5.0,-9.0,-4.0,-6.0,-2.0,-3.0,-32.0
1.695163251305789e+18,1.0,6.0,-14.0,5.0,-3.0,-5.0,-2.0,19.0
1.6951632513487885e+18,-6.0,-3.0,13.0,-9.0,-14.0,1.0,16.0,3.0
1.6951632513497784e+18,6.0,4.0,-30.0,2.0,14.0,7.0,23.0,-51.0
1.695163251350763e+18,-5.0,-2.0,49.0,-7.0,-14.0,-16.0,-56.0,24.0
1.695163251351762e+18,-8.0,-12.0,26.0,6.0,-8.0,-10.0,-27.0,18.0
1.695163251351762e+18,28.0,15.0,-31.0,5.0,20.0,13.0,16.0,34.0
1.695163251351762e+18,-32.0,-13.0,3.0,-7.0,-13.0,0.0,28.0,-27.0
1.6951632513797445e+18,11.0,3.0,1.0,5.0,10.0,4.0,-9.0,-42.0
1.6951632513797445e+18,-4.0,14.0,38.0,3.0,-5.0,-7.0,-23.0,-12.0
1.6951632513807442e+18,11.0,3.0,40.0,5.0,0.0,5.0,27.0,3.0
1.6951632513807442e+18,6.0,11.0,20.0,2.0,-3.0,-5.0,-21.0,-63.0
1.6951632513937385e+18,-32.0,-8.0,-43.0,-6.0,-9.0,-10.0,-20.0,29.0
1.6951632513937385e+18,25.0,15.0,4.0,9.0,20.0,12.0,39.0,3.0
1.6951632513937385e+18,-3.0,8.0,-7.0,-2.0,-5.0,-10.0,-56.0,54.0
1.6951632513937385e+18,20.0,-3.0,-28.0,-9.0,-13.0,-3.0,11.0,52.0
1.6951632513957358e+18,-6.0,-13.0,2.0,1.0,4.0,7.0,14.0,-51.0
1.6951632513957358e+18,7.0,16.0,39.0,-5.0,-3.0,0.0,18.0,5.0
1.695163251407729e+18,-3.0,16.0,-6.0,0.0,-5.0,-2.0,8.0,-39.0
1.695163251407729e+18,-5.0,-14.0,-15.0,-8.0,-13.0,-8.0,-18.0,34.0
1.6951632514097293e+18,6.0,2.0,-46.0,-3.0,1.0,7.0,25.0,-26.0
1.6951632514097293e+18,4.0,12.0,6.0,-1.0,-1.0,-5.0,-18.0,41.0
1.6951632514307162e+18,2.0,-41.0,11.0,-3.0,-5.0,-5.0,-9.0,-54.0
1.6951632514367122e+18,17.0,38.0,-4.0,6.0,4.0,-9.0,-23.0,78.0
1.6951632514367122e+18,-10.0,-16.0,55.0,3.0,1.0,-1.0,19.0,-11.0
1.6951632514367122e+18,3.0,52.0,5.0,6.0,2.0,10.0,19.0,-17.0
1.6951632514537034e+18,-21.0,-21.0,-16.0,5.0,8.0,-7.0,-32.0,2.0
1.6951632514537034e+18,-17.0,-11.0,22.0,2.0,4.0,15.0,24.0,-1.0
1.6951632514547028e+18,2.0,2.0,-56.0,6.0,10.0,-4.0,-2.0,-8.0
1.6951632514547028e+18,-6.0,5.0,70.0,-20.0,-18.0,-6.0,11.0,-55.0
1.6951632514696965e+18,-16.0,-27.0,-47.0,-3.0,-15.0,-17.0,-39.0,22.0
1.6951632514717043e+18,8.0,-4.0,17.0,6.0,17.0,6.0,-9.0,-14.0
1.695163251473692e+18,8.0,10.0,-27.0,-7.0,-11.0,-6.0,-21.0,11.0
1.695163251473692e+18,-8.0,-41.0,0.0,-3.0,-12.0,-10.0,-13.0,16.0
1.6951632514976143e+18,-10.0,1.0,-41.0,18.0,40.0,25.0,25.0,-33.0
1.6951632514976143e+18,0.0,-7.0,6.0,-23.0,-15.0,-11.0,-1.0,-1.0
1.695163251499623e+18,3.0,-1.0,13.0,-8.0,-11.0,-10.0,-22.0,-30.0
1.695163251499623e+18,-6.0,-4.0,-55.0,8.0,10.0,9.0,8.0,-1.0
1.6951632515036367e+18,12.0,-6.0,-37.0,-14.0,-9.0,-4.0,20.0,27.0
1.6951632515036367e+18,-22.0,-12.0,43.0,0.0,-13.0,-8.0,-15.0,-2.0
1.695163251530603e+18,17.0,9.0,34.0,7.0,22.0,8.0,16.0,20.0
1.695163251531602e+18,-32.0,-18.0,-61.0,-8.0,-9.0,-15.0,-33.0,-20.0
1.695163251531602e+18,15.0,0.0,56.0,2.0,1.0,3.0,11.0,17.0
1.695163251532601e+18,-14.0,16.0,-49.0,-9.0,-5.0,-6.0,-16.0,8.0
1.6951632515505928e+18,-4.0,-24.0,-5.0,-4.0,0.0,10.0,32.0,-11.0
1.6951632515515927e+18,-25.0,-14.0,-6.0,8.0,7.0,0.0,-23.0,-23.0
1.6951632515515927e+18,-3.0,27.0,55.0,-9.0,-9.0,-2.0,15.0,6.0
1.6951632515515927e+18,13.0,-1.0,-10.0,4.0,0.0,2.0,19.0,-37.0
1.6951632515535877e+18,3.0,2.0,70.0,4.0,-1.0,-5.0,-17.0,37.0
1.6951632515535877e+18,13.0,28.0,-71.0,16.0,7.0,3.0,-1.0,22.0
1.6951632515636042e+18,-13.0,-18.0,26.0,-1.0,-11.0,1.0,23.0,2.0
1.6951632515645888e+18,6.0,-4.0,44.0,9.0,11.0,14.0,10.0,28.0
1.6951632515725773e+18,6.0,1.0,-57.0,0.0,-8.0,-6.0,-6.0,-12.0
1.6951632515725773e+18,4.0,-7.0,54.0,2.0,2.0,-2.0,-12.0,26.0
1.6951632516055588e+18,3.0,-21.0,-32.0,-12.0,-6.0,4.0,11.0,-27.0
1.6951632516055588e+18,-16.0,-21.0,-69.0,-5.0,0.0,-11.0,-40.0,-63.0
1.6951632516065577e+18,-7.0,11.0,53.0,-24.0,-14.0,-7.0,23.0,29.0
1.6951632516065577e+18,46.0,-12.0,-21.0,25.0,25.0,5.0,-13.0,24.0
1.6951632516135557e+18,-9.0,39.0,9.0,15.0,-2.0,-4.0,-3.0,12.0
1.695163251617552e+18,8.0,-6.0,-11.0,-6.0,-5.0,-10.0,14.0,21.0
1.695163251624549e+18,0.0,-26.0,15.0,18.0,7.0,13.0,12.0,-22.0
1.6951632516255475e+18,-23.0,22.0,-16.0,-24.0,-20.0,-7.0,32.0,4.0
1.6951632516255475e+18,16.0,20.0,10.0,1.0,11.0,-1.0,-41.0,5.0
1.6951632516255475e+18,16.0,11.0,8.0,8.0,5.0,4.0,14.0,18.0
1.6951632516405368e+18,-10.0,-7.0,17.0,2.0,-1.0,1.0,1.0,-5.0
1.6951632516405368e+18,-2.0,5.0,49.0,-12.0,-6.0,-1.0,9.0,-15.0
1.695163251655098e+18,7.0,-9.0,-7.0,2.0,6.0,-5.0,-30.0,-9.0
1.695163251655098e+18,-1.0,24.0,48.0,-7.0,-13.0,-4.0,-1.0,6.0
1.6951632516571003e+18,-9.0,19.0,-81.0,14.0,14.0,2.0,-11.0,-13.0
1.6951632516571003e+18,14.0,-25.0,-13.0,0.0,-1.0,-2.0,-16.0,-15.0
1.69516325166983e+18,-22.0,-25.0,-42.0,0.0,22.0,18.0,19.0,-4.0
1.69516325166983e+18,8.0,9.0,41.0,22.0,-2.0,1.0,8.0,-6.0
1.6951632516718295e+18,2.0,-29.0,-18.0,3.0,3.0,-5.0,-21.0,10.0
1.6951632516718295e+18,-8.0,15.0,-100.0,-28.0,-17.0,-6.0,12.0,-16.0
1.6951632516838336e+18,-5.0,10.0,6.0,0.0,4.0,-1.0,-5.0,-17.0
1.6951632516838336e+18,8.0,-10.0,22.0,7.0,-1.0,3.0,25.0,20.0
1.6951632516928348e+18,27.0,12.0,5.0,-5.0,-2.0,-3.0,-7.0,40.0
1.6951632516938565e+18,-3.0,-7.0,-20.0,-4.0,-10.0,-10.0,-35.0,9.0
1.695163251707235e+18,3.0,-4.0,-5.0,-16.0,-17.0,-11.0,6.0,-3.0
1.695163251708235e+18,-18.0,-44.0,27.0,22.0,14.0,3.0,-20.0,-7.0
1.6951632517092342e+18,-26.0,13.0,-2.0,-2.0,-1.0,2.0,0.0,-27.0
1.695163251713254e+18,11.0,15.0,37.0,-17.0,0.0,-7.0,-5.0,4.0
1.6951632517302234e+18,-7.0,-43.0,80.0,27.0,15.0,15.0,5.0,-30.0
1.6951632517302234e+18,-6.0,-2.0,27.0,2.0,8.0,0.0,-21.0,11.0
1.6951632517322273e+18,-5.0,-10.0,-29.0,-26.0,-23.0,-13.0,-16.0,-31.0
1.6951632517322273e+18,-6.0,3.0,14.0,7.0,3.0,4.0,12.0,-2.0
1.695163251744239e+18,-3.0,41.0,6.0,-12.0,-10.0,-8.0,3.0,14.0
1.6951632517448266e+18,4.0,-18.0,-35.0,-4.0,-14.0,-8.0,6.0,0.0
1.6951632517608248e+18,-6.0,-19.0,-15.0,4.0,15.0,9.0,2.0,4.0
1.69516325176183e+18,-6.0,11.0,15.0,-5.0,-1.0,0.0,1.0,20.0
1.69516325176882e+18,18.0,25.0,13.0,-2.0,-12.0,-5.0,3.0,-32.0
1.6951632517698196e+18,-27.0,21.0,21.0,-13.0,0.0,0.0,-16.0,28.0
1.6951632517698196e+18,-10.0,4.0,-11.0,1.0,5.0,5.0,13.0,-10.0
1.695163251770824e+18,4.0,4.0,11.0,6.0,-14.0,-7.0,-13.0,-30.0
1.695163251799834e+18,-31.0,-31.0,-13.0,-4.0,6.0,1.0,7.0,9.0
1.6951632518118031e+18,21.0,39.0,-11.0,-2.0,-16.0,-6.0,5.0,7.0
1.6951632518118031e+18,-31.0,-21.0,47.0,7.0,1.0,-3.0,17.0,11.0
1.6951632518118031e+18,6.0,26.0,-6.0,8.0,3.0,-4.0,-19.0,-14.0
1.6951632518127946e+18,-2.0,-16.0,33.0,-6.0,1.0,-2.0,-8.0,-4.0
1.695163251813795e+18,1.0,-3.0,-25.0,-5.0,1.0,7.0,30.0,-7.0
1.6951632518148004e+18,15.0,45.0,23.0,-3.0,-1.0,1.0,-7.0,23.0
1.6951632518168243e+18,17.0,-40.0,-16.0,10.0,-1.0,-10.0,-20.0,15.0
1.6951632518267868e+18,13.0,15.0,-26.0,-19.0,-11.0,-3.0,3.0,12.0
1.6951632518267868e+18,-22.0,-20.0,-13.0,6.0,10.0,1.0,-5.0,-13.0
1.695163251842784e+18,20.0,-23.0,24.0,5.0,3.0,7.0,21.0,-3.0
1.6951632518437837e+18,-42.0,-4.0,34.0,12.0,12.0,8.0,-6.0,-37.0
1.6951632518507732e+18,27.0,27.0,22.0,-5.0,-10.0,-7.0,-7.0,20.0
1.6951632518517737e+18,17.0,-8.0,-16.0,-22.0,-5.0,-1.0,11.0,10.0
1.6951632518567695e+18,-23.0,18.0,-19.0,7.0,-6.0,-10.0,-20.0,-20.0
1.6951632518567695e+18,-14.0,-52.0,-9.0,21.0,29.0,23.0,46.0,7.0
1.69516325187276e+18,-19.0,-17.0,-32.0,0.0,-10.0,-9.0,-16.0,11.0
1.6951632518737695e+18,-10.0,21.0,11.0,-5.0,-1.0,-7.0,-19.0,-40.0
1.6951632518877586e+18,13.0,-25.0,2.0,-6.0,-11.0,4.0,32.0,27.0
1.6951632518887506e+18,6.0,20.0,25.0,-3.0,4.0,5.0,4.0,16.0
1.695163251889751e+18,-6.0,-9.0,-28.0,0.0,-6.0,-12.0,-14.0,-3.0
1.695163251889751e+18,7.0,-2.0,-15.0,-4.0,2.0,4.0,2.0,-3.0
1.6951632518937482e+18,41.0,24.0,13.0,2.0,5.0,-3.0,-11.0,8.0
1.6951632518947556e+18,-65.0,-53.0,27.0,1.0,7.0,7.0,5.0,-5.0
1.6951632519257367e+18,18.0,-13.0,-78.0,11.0,10.0,8.0,17.0,-17.0
1.6951632519267297e+18,-37.0,-34.0,21.0,-16.0,-9.0,-16.0,-40.0,-18.0
1.6951632519317256e+18,39.0,30.0,9.0,11.0,1.0,8.0,28.0,23.0
1.6951632519327588e+18,35.0,18.0,-46.0,-3.0,2.0,3.0,12.0,9.0
1.6951632519407214e+18,21.0,35.0,-14.0,-4.0,1.0,3.0,20.0,28.0
1.6951632519417219e+18,-20.0,-17.0,25.0,-10.0,-9.0,-18.0,-45.0,-18.0
1.695163251942721e+18,-11.0,-17.0,-34.0,-9.0,-1.0,6.0,3.0,-17.0
1.695163251942721e+18,29.0,6.0,-9.0,-2.0,-4.0,-7.0,-4.0,32.0
1.6951632519477174e+18,-29.0,10.0,38.0,7.0,-3.0,6.0,-12.0,-48.0
1.6951632519477174e+18,24.0,28.0,23.0,12.0,18.0,-1.0,-5.0,12.0
1.69516325196171e+18,21.0,-7.0,-17.0,-1.0,-8.0,-4.0,2.0,16.0
1.6951632519637084e+18,8.0,32.0,-9.0,-5.0,-7.0,-15.0,-12.0,-31.0
1.6951632519787008e+18,-10.0,8.0,-9.0,-16.0,-22.0,-8.0,-10.0,37.0
1.6951632519797105e+18,12.0,15.0,7.0,17.0,20.0,23.0,49.0,2.0
1.6951632519936911e+18,-51.0,-42.0,2.0,-22.0,-11.0,-16.0,-41.0,2.0
1.6951632519946906e+18,48.0,29.0,-25.0,-5.0,-2.0,0.0,3.0,-2.0
1.6951632519956905e+18,-9.0,-35.0,-11.0,1.0,-4.0,4.0,16.0,-9.0
1.6951632519956905e+18,22.0,-22.0,-19.0,-13.0,-6.0,-14.0,-47.0,2.0
1.6951632519966902e+18,-38.0,32.0,-6.0,26.0,8.0,-1.0,4.0,-4.0
1.6951632519976896e+18,0.0,-14.0,25.0,3.0,3.0,2.0,8.0,-11.0
1.6951632520076828e+18,5.0,-20.0,-19.0,-1.0,0.0,-13.0,-26.0,6.0
1.6951632520076828e+18,8.0,31.0,-17.0,-8.0,-8.0,4.0,20.0,2.0
1.6951632520366671e+18,1.0,8.0,9.0,15.0,9.0,8.0,16.0,4.0
1.695163252037667e+18,-6.0,0.0,7.0,-3.0,-7.0,-7.0,-29.0,-7.0
1.695163252037667e+18,9.0,-13.0,23.0,9.0,17.0,13.0,24.0,63.0
1.6951632520386721e+18,22.0,-1.0,25.0,2.0,1.0,14.0,42.0,-18.0
1.6951632520386721e+18,-15.0,11.0,-18.0,-15.0,-13.0,-24.0,-80.0,-10.0
1.6951632520386721e+18,-9.0,33.0,4.0,-1.0,-1.0,6.0,33.0,-5.0
1.6951632520536563e+18,-26.0,27.0,22.0,9.0,-7.0,-11.0,-35.0,-49.0
1.695163252054662e+18,16.0,-16.0,-1.0,-11.0,3.0,4.0,-3.0,32.0
1.695163252054662e+18,31.0,-11.0,-8.0,-7.0,3.0,9.0,24.0,-40.0
1.695163252055656e+18,-32.0,3.0,-12.0,-5.0,-6.0,-12.0,-20.0,0.0
1.695163252067649e+18,3.0,-9.0,1.0,-5.0,9.0,11.0,18.0,-32.0
1.6951632520686487e+18,-11.0,23.0,-8.0,-13.0,-12.0,7.0,33.0,9.0
1.695163252075643e+18,13.0,-14.0,12.0,25.0,6.0,-8.0,-19.0,-40.0
1.695163252075643e+18,-5.0,-51.0,-6.0,-15.0,2.0,9.0,18.0,41.0
1.6951632520906342e+18,31.0,39.0,34.0,2.0,2.0,0.0,0.0,24.0
1.6951632520906342e+18,-12.0,-18.0,-22.0,18.0,5.0,-4.0,2.0,-11.0
1.695163252091634e+18,15.0,-21.0,8.0,0.0,-2.0,9.0,6.0,16.0
1.695163252091634e+18,5.0,18.0,10.0,8.0,4.0,5.0,-5.0,-1.0
1.6951632521206213e+18,-7.0,-12.0,-29.0,-16.0,2.0,1.0,4.0,-5.0
1.6951632521206213e+18,-9.0,-23.0,3.0,16.0,-2.0,-2.0,-10.0,8.0
1.695163252126615e+18,9.0,24.0,9.0,1.0,7.0,3.0,17.0,-5.0
1.695163252127616e+18,34.0,-2.0,-15.0,-19.0,-5.0,-4.0,4.0,22.0
1.695163252127616e+18,-21.0,-26.0,-36.0,4.0,3.0,5.0,3.0,-18.0
1.695163252127616e+18,-26.0,35.0,34.0,13.0,-2.0,-3.0,-9.0,3.0
1.6951632521356086e+18,-22.0,-42.0,-5.0,6.0,1.0,-5.0,2.0,-49.0
1.6951632521356086e+18,-36.0,5.0,-17.0,14.0,-5.0,-12.0,-28.0,8.0
1.6951632521506e+18,51.0,5.0,6.0,-12.0,3.0,15.0,27.0,38.0
1.6951632521506e+18,11.0,-1.0,-11.0,-4.0,-3.0,-2.0,4.0,5.0
1.6951632521515999e+18,-7.0,-4.0,4.0,-14.0,-12.0,-12.0,-47.0,3.0
1.6951632521515999e+18,-21.0,0.0,-34.0,4.0,13.0,17.0,50.0,-16.0
1.6951632521805827e+18,-14.0,4.0,59.0,12.0,-4.0,-7.0,-5.0,2.0
1.6951632521805827e+18,5.0,-23.0,0.0,7.0,7.0,9.0,16.0,11.0
1.6951632521815875e+18,0.0,34.0,-8.0,-13.0,-8.0,-4.0,0.0,-10.0
1.6951632521815875e+18,2.0,-24.0,46.0,-7.0,-14.0,-8.0,-13.0,-7.0
1.6951632521865792e+18,-24.0,-36.0,-40.0,-12.0,-6.0,-3.0,-2.0,-14.0
1.6951632521865792e+18,16.0,13.0,4.0,20.0,17.0,5.0,-3.0,-13.0
1.6951632521955745e+18,4.0,4.0,9.0,-22.0,-7.0,-3.0,21.0,39.0
1.6951632521955745e+18,36.0,23.0,40.0,32.0,7.0,4.0,-20.0,-20.0
1.695163252210566e+18,17.0,-2.0,19.0,14.0,-7.0,-14.0,-26.0,24.0
1.695163252210566e+18,-15.0,12.0,-50.0,-46.0,-9.0,-9.0,-7.0,0.0
1.6951632522115876e+18,-4.0,-50.0,54.0,12.0,14.0,9.0,14.0,-28.0
1.695163252212569e+18,-8.0,6.0,-58.0,7.0,9.0,3.0,-1.0,-17.0
1.6951632522315763e+18,31.0,20.0,20.0,-11.0,-20.0,-8.0,-3.0,37.0
1.6951632522325532e+18,2.0,-15.0,15.0,2.0,-4.0,-13.0,-27.0,-7.0
1.6951632522405522e+18,13.0,10.0,-9.0,-2.0,7.0,8.0,-3.0,-22.0
1.6951632522405522e+18,-31.0,13.0,48.0,-1.0,-12.0,-9.0,-3.0,-9.0
1.695163252256542e+18,-4.0,1.0,-12.0,-6.0,-8.0,-6.0,-12.0,-24.0
1.695163252256542e+18,-1.0,3.0,-49.0,0.0,12.0,8.0,21.0,0.0
1.695163252257539e+18,8.0,1.0,-22.0,9.0,13.0,2.0,-22.0,31.0
1.695163252257539e+18,-28.0,22.0,36.0,-20.0,-11.0,0.0,1.0,0.0
1.6951632522705308e+18,-7.0,-4.0,-66.0,5.0,8.0,2.0,2.0,-20.0
1.6951632522705308e+18,0.0,12.0,19.0,-8.0,-12.0,-4.0,1.0,13.0
1.695163252271533e+18,3.0,17.0,7.0,4.0,1.0,1.0,19.0,0.0
1.695163252271533e+18,1.0,0.0,-54.0,-10.0,-3.0,-2.0,-4.0,22.0
1.6951632523005138e+18,-14.0,-23.0,19.0,8.0,11.0,6.0,8.0,-9.0
1.6951632523005138e+18,-9.0,-23.0,37.0,-2.0,-4.0,-3.0,1.0,-15.0
1.6951632523015196e+18,-40.0,16.0,-37.0,-14.0,-15.0,-12.0,-18.0,5.0
1.6951632523025162e+18,21.0,-3.0,51.0,3.0,-3.0,-1.0,9.0,-6.0
1.6951632523155052e+18,-14.0,13.0,-15.0,-18.0,-10.0,-11.0,-3.0,-5.0
1.6951632523155052e+18,-12.0,-7.0,-27.0,12.0,9.0,10.0,16.0,-17.0
1.695163252316506e+18,-2.0,-11.0,1.0,-22.0,-18.0,-10.0,-31.0,8.0
1.6951632523175068e+18,3.0,-22.0,-5.0,4.0,5.0,-4.0,-9.0,-1.0
1.6951632523394916e+18,-14.0,-2.0,3.0,29.0,16.0,4.0,-4.0,-40.0
1.695163252340492e+18,10.0,-3.0,-1.0,-15.0,-10.0,-2.0,-6.0,-4.0
1.695163252349486e+18,7.0,1.0,7.0,4.0,3.0,5.0,12.0,11.0
1.6951632523504855e+18,6.0,-33.0,-24.0,-1.0,12.0,10.0,11.0,-18.0
1.6951632523524846e+18,-8.0,-13.0,2.0,-17.0,-12.0,-6.0,6.0,1.0
1.6951632523524846e+18,16.0,36.0,69.0,20.0,-9.0,-12.0,-16.0,65.0
1.6951632523544824e+18,11.0,-20.0,3.0,12.0,23.0,17.0,27.0,-1.0
1.6951632523544824e+18,-2.0,-15.0,-16.0,-4.0,-8.0,-11.0,-21.0,-13.0
1.6951632523674762e+18,-16.0,9.0,8.0,10.0,13.0,15.0,37.0,-39.0
1.6951632523674762e+18,7.0,-46.0,0.0,-4.0,-15.0,-14.0,-46.0,5.0
1.695163252381467e+18,11.0,26.0,-17.0,-10.0,-7.0,-6.0,-10.0,25.0
1.695163252387464e+18,-21.0,-18.0,-5.0,-5.0,3.0,9.0,8.0,-3.0
1.6951632523976236e+18,-6.0,5.0,1.0,0.0,-3.0,-4.0,-11.0,-27.0
1.6951632523976236e+18,-4.0,-12.0,-49.0,-12.0,0.0,1.0,1.0,4.0
1.6951632523986301e+18,-1.0,7.0,34.0,27.0,4.0,-5.0,-6.0,-2.0
1.695163252399629e+18,-2.0,-11.0,-9.0,-19.0,-8.0,-1.0,6.0,-14.0
1.6951632524126423e+18,7.0,21.0,-10.0,-18.0,-10.0,-2.0,9.0,17.0
1.6951632524126423e+18,-1.0,-24.0,-5.0,13.0,6.0,-4.0,-13.0,-9.0
1.6951632524146186e+18,17.0,41.0,46.0,5.0,6.0,5.0,11.0,-8.0
1.6951632524146186e+18,13.0,-23.0,-14.0,-2.0,-6.0,-1.0,3.0,19.0
1.695163252427613e+18,2.0,-9.0,-9.0,5.0,6.0,-2.0,-4.0,11.0
1.6951632524286333e+18,21.0,31.0,-22.0,-13.0,3.0,9.0,14.0,-14.0
1.6951632524426028e+18,-7.0,12.0,-7.0,1.0,-8.0,-10.0,-13.0,22.0
1.6951632524426028e+18,6.0,-5.0,-3.0,3.0,4.0,1.0,4.0,-25.0
1.695163252449599e+18,1.0,13.0,-16.0,2.0,6.0,2.0,3.0,-22.0
1.695163252449599e+18,-5.0,-2.0,-21.0,23.0,11.0,4.0,-21.0,18.0
1.6951632524585938e+18,-16.0,-21.0,-31.0,-19.0,-14.0,0.0,13.0,-7.0
1.6951632524585938e+18,6.0,16.0,11.0,6.0,9.0,1.0,-2.0,4.0
1.6951632524885985e+18,-11.0,-13.0,-2.0,8.0,4.0,3.0,-1.0,14.0
1.6951632524895785e+18,-13.0,2.0,-26.0,-12.0,-11.0,-8.0,4.0,-30.0
1.695163252490576e+18,-1.0,15.0,-22.0,-6.0,-2.0,3.0,4.0,-14.0
1.695163252490576e+18,1.0,-40.0,14.0,-7.0,-8.0,-5.0,-11.0,-16.0
1.695163252491575e+18,-1.0,11.0,21.0,1.0,-3.0,-7.0,-12.0,63.0
1.695163252491575e+18,-3.0,8.0,7.0,-1.0,4.0,2.0,10.0,4.0
1.695163252495573e+18,-7.0,-15.0,11.0,8.0,-5.0,-1.0,3.0,-20.0
1.695163252495573e+18,18.0,25.0,-16.0,12.0,21.0,7.0,10.0,12.0
1.69516325251856e+18,-2.0,-7.0,-41.0,-3.0,-9.0,-6.0,-7.0,-4.0
1.6951632525195594e+18,-4.0,11.0,40.0,-3.0,8.0,2.0,-7.0,0.0
1.695163252520559e+18,-11.0,-20.0,-15.0,1.0,-4.0,-1.0,4.0,-8.0
1.695163252520559e+18,0.0,17.0,10.0,-8.0,-15.0,-6.0,3.0,3.0
1.6951632525325512e+18,9.0,8.0,38.0,26.0,34.0,14.0,9.0,-10.0
1.695163252533552e+18,-11.0,-3.0,-38.0,-11.0,-14.0,-7.0,-3.0,0.0
1.6951632525345505e+18,3.0,-4.0,0.0,-14.0,-1.0,-3.0,-2.0,-3.0
1.6951632525345505e+18,-4.0,3.0,-22.0,1.0,-4.0,-3.0,-3.0,10.0
1.6951632525465434e+18,3.0,4.0,7.0,-26.0,-16.0,-5.0,-4.0,7.0
1.6951632525465434e+18,-14.0,-8.0,37.0,6.0,-2.0,0.0,7.0,-37.0
1.6951632525625364e+18,-5.0,0.0,-14.0,-5.0,-13.0,-9.0,-18.0,6.0
1.6951632525625364e+18,7.0,-7.0,-2.0,6.0,16.0,6.0,5.0,33.0
1.69516325257353e+18,-2.0,7.0,-33.0,-3.0,-7.0,-5.0,-6.0,16.0
1.6951632525755264e+18,-7.0,-4.0,0.0,-14.0,-5.0,-2.0,8.0,-13.0
1.6951632525775263e+18,-6.0,-10.0,-8.0,1.0,-3.0,-2.0,-4.0,-45.0
1.6951632525775263e+18,-3.0,18.0,26.0,-2.0,-10.0,-4.0,-9.0,-27.0
1.6951632525995128e+18,13.0,4.0,15.0,14.0,28.0,6.0,6.0,27.0
1.6951632526005148e+18,-8.0,-23.0,3.0,-4.0,-17.0,-6.0,0.0,-5.0
1.6951632526065096e+18,5.0,0.0,-14.0,10.0,4.0,-1.0,10.0,14.0
1.6951632526065096e+18,-8.0,-9.0,-10.0,-28.0,2.0,6.0,-9.0,-20.0
1.6951632526075082e+18,1.0,2.0,4.0,3.0,-3.0,5.0,-2.0,-8.0
1.6951632526075082e+18,-3.0,8.0,-1.0,0.0,-5.0,-3.0,1.0,1.0
1.6951632526304952e+18,-8.0,-8.0,-4.0,-3.0,1.0,6.0,14.0,-5.0
1.6951632526304952e+18,5.0,7.0,-1.0,7.0,-13.0,-16.0,-11.0,33.0
1.6951632526314977e+18,-2.0,0.0,10.0,-15.0,-14.0,-6.0,-9.0,-18.0
1.6951632526314977e+18,2.0,-3.0,7.0,14.0,13.0,8.0,6.0,5.0
1.6951632526334935e+18,1.0,-3.0,0.0,-12.0,-6.0,-5.0,-3.0,3.0
1.6951632526334935e+18,-4.0,6.0,0.0,-2.0,-7.0,-1.0,2.0,5.0
1.695163252660478e+18,1.0,-3.0,8.0,5.0,12.0,1.0,2.0,-5.0
1.695163252660478e+18,3.0,5.0,-10.0,-3.0,2.0,1.0,0.0,2.0
1.6951632526614794e+18,-3.0,-4.0,9.0,-2.0,5.0,3.0,2.0,3.0
1.6951632526614794e+18,-1.0,5.0,5.0,0.0,-5.0,-1.0,0.0,-1.0
1.6951632526754706e+18,-2.0,-5.0,-18.0,0.0,-10.0,-8.0,-7.0,-20.0
1.6951632526754706e+18,-2.0,12.0,24.0,-6.0,-5.0,1.0,2.0,6.0
1.695163252676491e+18,4.0,0.0,0.0,5.0,-2.0,-4.0,0.0,12.0
1.695163252676491e+18,2.0,22.0,33.0,5.0,10.0,5.0,3.0,9.0
1.6951632526904607e+18,-2.0,-22.0,-16.0,-14.0,-11.0,0.0,1.0,-9.0
1.6951632526904607e+18,-8.0,-3.0,-6.0,8.0,3.0,-4.0,-3.0,-13.0
1.69516325269146e+18,3.0,2.0,-11.0,0.0,18.0,5.0,-3.0,8.0
1.69516325269146e+18,0.0,-3.0,-16.0,-2.0,-13.0,-2.0,1.0,11.0
1.6951632527204444e+18,0.0,15.0,27.0,2.0,13.0,0.0,-1.0,-15.0
1.6951632527204444e+18,-1.0,-13.0,-8.0,-4.0,-11.0,-1.0,0.0,2.0
1.695163252721443e+18,-2.0,1.0,11.0,4.0,5.0,-1.0,-1.0,6.0
1.695163252721443e+18,-6.0,-9.0,-16.0,7.0,7.0,1.0,0.0,-4.0
1.69516325273144e+18,0.0,-1.0,28.0,-4.0,-6.0,2.0,1.0,-1.0
1.6951632527324393e+18,1.0,0.0,-11.0,-7.0,5.0,0.0,1.0,5.0
1.6951632527354345e+18,1.0,1.0,1.0,-5.0,-10.0,-4.0,-2.0,3.0
1.6951632527354345e+18,-2.0,0.0,-3.0,9.0,1.0,-2.0,-3.0,-9.0
1.6951632527504266e+18,-3.0,-6.0,3.0,3.0,9.0,3.0,0.0,2.0
1.6951632527504266e+18,2.0,2.0,7.0,-4.0,-26.0,-13.0,-3.0,-1.0
1.6951632527514289e+18,2.0,2.0,-26.0,20.0,58.0,29.0,5.0,2.0
1.6951632527514289e+18,-2.0,-6.0,33.0,-2.0,1.0,-1.0,-2.0,-4.0
1.6951632527804088e+18,3.0,0.0,-3.0,1.0,-3.0,-7.0,-5.0,-2.0
1.6951632527804088e+18,0.0,-1.0,-11.0,1.0,4.0,2.0,1.0,0.0
1.6951632527814103e+18,-4.0,-3.0,1.0,-8.0,-16.0,-15.0,-5.0,0.0
1.6951632527814103e+18,2.0,4.0,6.0,0.0,-10.0,6.0,4.0,3.0
1.6951632527954028e+18,1.0,-8.0,-29.0,-2.0,4.0,6.0,0.0,-1.0
1.6951632527954028e+18,-1.0,-7.0,16.0,-10.0,-4.0,0.0,0.0,-1.0
1.6951632527964004e+18,-2.0,-2.0,0.0,-11.0,-16.0,-12.0,-4.0,2.0
1.6951632527964004e+18,-1.0,1.0,-1.0,14.0,16.0,2.0,0.0,-3.0
1.6951632528103918e+18,-2.0,-3.0,4.0,-6.0,-13.0,-8.0,-3.0,-4.0
1.6951632528103918e+18,1.0,4.0,-16.0,9.0,14.0,1.0,0.0,1.0
1.695163252811392e+18,-2.0,0.0,17.0,-8.0,-14.0,-3.0,0.0,3.0
1.6951632528123942e+18,-1.0,-4.0,-17.0,-8.0,-9.0,-6.0,1.0,-3.0
1.695163252832379e+18,-1.0,3.0,-5.0,-7.0,-18.0,-4.0,-2.0,-1.0
1.695163252832379e+18,-2.0,-11.0,17.0,17.0,25.0,9.0,2.0,0.0
1.6951632528413962e+18,0.0,-2.0,-16.0,-4.0,-13.0,-2.0,-3.0,0.0
1.6951632528413962e+18,-4.0,-3.0,-12.0,-8.0,-8.0,-9.0,-3.0,-4.0
1.695163252855366e+18,-2.0,-1.0,4.0,1.0,6.0,3.0,-2.0,1.0
1.695163252855366e+18,0.0,4.0,-6.0,-4.0,-8.0,-5.0,0.0,-1.0
1.6951632528563674e+18,-2.0,3.0,25.0,7.0,0.0,-2.0,-2.0,-3.0
1.6951632528563674e+18,-1.0,-9.0,-13.0,2.0,9.0,6.0,2.0,1.0
1.6951632528693809e+18,0.0,2.0,-5.0,-10.0,-2.0,-3.0,-1.0,-3.0
1.6951632528693809e+18,-3.0,-3.0,-13.0,13.0,1.0,0.0,0.0,-3.0
1.695163252876355e+18,1.0,5.0,11.0,2.0,10.0,3.0,0.0,2.0
1.695163252876355e+18,-1.0,1.0,-17.0,-10.0,-10.0,-6.0,-1.0,-2.0
1.6951632528993405e+18,-3.0,-3.0,8.0,-10.0,-13.0,-4.0,-1.0,-1.0
1.6951632528993405e+18,1.0,6.0,-2.0,8.0,13.0,3.0,1.0,0.0
1.6951632529083359e+18,-4.0,-12.0,-20.0,-17.0,-5.0,-2.0,-2.0,-3.0
1.6951632529083359e+18,0.0,2.0,0.0,2.0,-2.0,-3.0,-3.0,-2.0
1.6951632529093353e+18,-1.0,-2.0,10.0,6.0,-3.0,-4.0,-3.0,-3.0
1.6951632529093353e+18,0.0,-2.0,-21.0,-21.0,-1.0,4.0,-1.0,0.0
1.6951632529153316e+18,-1.0,-4.0,6.0,13.0,2.0,5.0,1.0,1.0
1.6951632529153316e+18,-2.0,-3.0,-21.0,-3.0,2.0,-4.0,-1.0,-1.0
1.6951632529513114e+18,1.0,-1.0,-1.0,-11.0,0.0,0.0,1.0,1.0
1.695163252952311e+18,1.0,1.0,4.0,4.0,-8.0,-3.0,-1.0,1.0
1.6951632529693005e+18,-1.0,-5.0,-1.0,6.0,-7.0,-8.0,-5.0,-3.0
1.6951632529703017e+18,0.0,1.0,9.0,5.0,4.0,5.0,1.0,-2.0
1.6951632529703017e+18,-3.0,0.0,2.0,0.0,2.0,5.0,1.0,-2.0
1.6951632529703017e+18,1.0,0.0,-4.0,-12.0,-2.0,0.0,-2.0,1.0
1.6951632529823155e+18,0.0,-1.0,5.0,5.0,-4.0,-4.0,-1.0,-1.0
1.6951632529823155e+18,-2.0,-2.0,0.0,-4.0,-6.0,-4.0,-4.0,-3.0
1.6951632529832947e+18,-2.0,-4.0,-7.0,-15.0,-10.0,-8.0,-3.0,-3.0
1.6951632529832947e+18,1.0,3.0,-2.0,-9.0,11.0,5.0,1.0,0.0
1.6951632529922877e+18,-3.0,-4.0,-1.0,12.0,-7.0,-6.0,-3.0,-2.0
1.6951632529922877e+18,1.0,3.0,10.0,7.0,10.0,3.0,1.0,-1.0
1.6951632529922877e+18,0.0,-1.0,-19.0,-13.0,0.0,3.0,0.0,-1.0
1.6951632529932877e+18,0.0,1.0,1.0,7.0,-9.0,-3.0,-1.0,-2.0
1.695163252997286e+18,0.0,-1.0,-8.0,-4.0,4.0,0.0,1.0,0.0
1.6951632529982843e+18,-1.0,0.0,11.0,1.0,1.0,-2.0,-2.0,0.0
1.6951632530142756e+18,-1.0,0.0,4.0,0.0,-1.0,-1.0,-3.0,-2.0
1.6951632530142756e+18,-1.0,-1.0,-3.0,8.0,-1.0,-1.0,0.0,0.0
1.6951632530152758e+18,-1.0,0.0,4.0,-9.0,1.0,1.0,0.0,0.0
1.6951632530162744e+18,1.0,0.0,-9.0,11.0,2.0,1.0,2.0,1.0
1.6951632530352637e+18,-3.0,-3.0,13.0,12.0,-2.0,-6.0,-4.0,-5.0
1.6951632530352637e+18,-2.0,2.0,5.0,-2.0,-4.0,-2.0,-2.0,-2.0
1.69516325304226e+18,0.0,2.0,-2.0,-12.0,2.0,3.0,2.0,1.0
1.69516325304226e+18,0.0,-3.0,11.0,4.0,1.0,0.0,-2.0,-1.0
1.6951632530502548e+18,1.0,-1.0,-6.0,4.0,4.0,0.0,-1.0,1.0
1.6951632530502548e+18,-2.0,-2.0,-5.0,-7.0,-4.0,-3.0,-2.0,-2.0
1.6951632530572503e+18,-1.0,2.0,13.0,23.0,-1.0,-1.0,1.0,-1.0
1.6951632530582546e+18,0.0,0.0,-17.0,-31.0,-1.0,-2.0,0.0,-2.0
1.69516325307624e+18,-2.0,-3.0,-2.0,-9.0,-4.0,-2.0,-2.0,0.0
1.69516325307624e+18,-3.0,2.0,16.0,20.0,-1.0,-3.0,-1.0,-2.0
1.69516325307624e+18,2.0,-2.0,-7.0,-3.0,-1.0,2.0,0.0,1.0
1.6951632530772388e+18,-1.0,-2.0,-1.0,-3.0,-5.0,-3.0,-2.0,1.0
1.6951632530952284e+18,0.0,0.0,-2.0,3.0,1.0,-3.0,0.0,-1.0
1.6951632530952284e+18,-3.0,-2.0,5.0,-2.0,-2.0,6.0,-1.0,-2.0
1.6951632530962304e+18,-1.0,2.0,-8.0,-11.0,-2.0,-1.0,0.0,-1.0
1.695163253097228e+18,2.0,2.0,2.0,3.0,2.0,2.0,1.0,-1.0
1.6951632531082204e+18,-6.0,-9.0,-5.0,-15.0,-10.0,-7.0,-5.0,-4.0
1.6951632531092232e+18,1.0,4.0,4.0,15.0,2.0,-3.0,0.0,2.0
1.6951632531172163e+18,-1.0,-1.0,16.0,4.0,2.0,0.0,-2.0,-1.0
1.6951632531182167e+18,0.0,0.0,-14.0,4.0,2.0,1.0,-1.0,0.0
1.69516325313221e+18,-2.0,0.0,-13.0,-7.0,-1.0,-1.0,-1.0,1.0
1.6951632531332076e+18,0.0,-4.0,0.0,-7.0,1.0,2.0,0.0,0.0
1.6951632531342072e+18,0.0,1.0,-3.0,0.0,-2.0,0.0,-2.0,-1.0
1.6951632531342072e+18,0.0,-2.0,0.0,-9.0,-2.0,-4.0,-1.0,-1.0
1.6951632531762053e+18,1.0,3.0,16.0,22.0,4.0,1.0,-1.0,-1.0
1.695163253177182e+18,0.0,-1.0,-10.0,-14.0,-2.0,-1.0,-2.0,-1.0
1.6951632532031672e+18,-1.0,-2.0,-4.0,-6.0,-2.0,-2.0,-2.0,-1.0
1.6951632532101637e+18,-3.0,-1.0,1.0,-5.0,-5.0,2.0,0.0,-1.0
1.6951632532101637e+18,0.0,1.0,11.0,14.0,4.0,4.0,0.0,-1.0
1.6951632532111626e+18,0.0,-3.0,-14.0,-14.0,-4.0,-4.0,-2.0,-1.0
1.6951632532111626e+18,0.0,1.0,1.0,0.0,1.0,-1.0,-1.0,1.0
1.6951632532111626e+18,-1.0,-4.0,12.0,34.0,-1.0,-4.0,-2.0,-2.0
1.69516325321616e+18,-3.0,-6.0,-19.0,-37.0,-4.0,-3.0,-3.0,-3.0
1.69516325321616e+18,-3.0,1.0,2.0,1.0,-2.0,-1.0,0.0,-1.0
1.69516325321616e+18,3.0,1.0,-4.0,6.0,3.0,3.0,3.0,4.0
1.69516325321616e+18,-2.0,-1.0,10.0,-2.0,-4.0,-1.0,2.0,0.0
1.6951632532181588e+18,-2.0,-1.0,-9.0,-9.0,2.0,-1.0,1.0,0.0
1.6951632532181588e+18,0.0,2.0,5.0,-3.0,4.0,4.0,1.0,0.0
1.6951632532451428e+18,3.0,2.0,4.0,9.0,3.0,1.0,-2.0,0.0
1.6951632532451428e+18,2.0,3.0,9.0,1.0,2.0,-3.0,-4.0,-2.0
1.6951632532471434e+18,0.0,2.0,5.0,10.0,0.0,-7.0,-3.0,-3.0
1.6951632532471434e+18,0.0,-1.0,-4.0,-11.0,1.0,6.0,4.0,1.0
1.695163253259157e+18,1.0,1.0,8.0,16.0,3.0,2.0,1.0,1.0
1.6951632532601344e+18,0.0,-2.0,-19.0,-20.0,-5.0,-1.0,-1.0,0.0
1.6951632532761257e+18,0.0,1.0,7.0,8.0,0.0,0.0,0.0,-2.0
1.6951632532761257e+18,0.0,-1.0,-10.0,-31.0,-10.0,-7.0,-3.0,-2.0
1.695163253277125e+18,-1.0,-2.0,2.0,13.0,3.0,0.0,1.0,-1.0
1.695163253277125e+18,1.0,1.0,7.0,4.0,0.0,-2.0,0.0,1.0
1.695163253278124e+18,-1.0,-3.0,-22.0,-11.0,-3.0,-1.0,-1.0,-1.0
1.695163253278124e+18,-1.0,1.0,10.0,4.0,0.0,-1.0,-1.0,0.0
1.6951632532891185e+18,0.0,5.0,-3.0,1.0,2.0,2.0,1.0,2.0
1.6951632532891185e+18,-2.0,-2.0,-3.0,-19.0,0.0,-3.0,-2.0,-2.0
1.6951632533041096e+18,-1.0,-1.0,0.0,1.0,-2.0,1.0,-1.0,0.0
1.6951632533041096e+18,-2.0,-2.0,-5.0,0.0,-6.0,-4.0,-3.0,-1.0
1.6951632533131052e+18,1.0,1.0,5.0,3.0,2.0,0.0,1.0,0.0
1.6951632533131052e+18,-1.0,2.0,6.0,14.0,0.0,2.0,0.0,0.0
1.6951632533141258e+18,-1.0,-1.0,-8.0,-11.0,2.0,1.0,1.0,1.0
1.6951632533141258e+18,-2.0,-1.0,9.0,13.0,-1.0,-3.0,-2.0,-2.0
1.6951632533402245e+18,-2.0,-1.0,-1.0,-5.0,-3.0,-2.0,-2.0,-1.0
1.69516325334124e+18,-2.0,-2.0,-5.0,-5.0,-4.0,0.0,0.0,-2.0
1.69516325334124e+18,1.0,-2.0,-3.0,-11.0,-2.0,0.0,-1.0,0.0
1.69516325334124e+18,-2.0,1.0,7.0,6.0,1.0,-1.0,0.0,1.0
1.695163253348787e+18,-3.0,-4.0,4.0,5.0,-5.0,-1.0,-3.0,-1.0
1.695163253348787e+18,-1.0,3.0,2.0,4.0,4.0,2.0,2.0,1.0
1.6951632533580644e+18,-1.0,0.0,-5.0,-9.0,-1.0,-1.0,-1.0,0.0
1.6951632533580644e+18,-1.0,-1.0,-6.0,-5.0,0.0,-1.0,-1.0,0.0
1.6951632533728865e+18,0.0,1.0,-1.0,-1.0,-2.0,-3.0,-1.0,0.0
1.6951632533728865e+18,-1.0,-1.0,-2.0,-1.0,-1.0,1.0,-2.0,0.0
1.6951632533738819e+18,-2.0,-2.0,-5.0,-4.0,0.0,0.0,0.0,-3.0
1.6951632533748823e+18,1.0,1.0,1.0,7.0,4.0,1.0,0.0,0.0
1.6951632533954447e+18,0.0,0.0,-3.0,-4.0,0.0,0.0,0.0,-1.0
1.695163253397443e+18,0.0,-2.0,5.0,1.0,1.0,-3.0,-1.0,0.0
1.695163253397443e+18,-1.0,-2.0,-5.0,1.0,0.0,1.0,0.0,1.0
1.6951632533984415e+18,-2.0,-2.0,-2.0,-8.0,-3.0,-4.0,-3.0,-1.0
1.6951632534094354e+18,-1.0,0.0,2.0,3.0,0.0,-1.0,-1.0,-2.0
1.6951632534104348e+18,0.0,0.0,-2.0,5.0,0.0,1.0,-1.0,0.0
1.6951632534184366e+18,-3.0,-3.0,-3.0,-22.0,-4.0,-2.0,-2.0,-3.0
1.695163253419465e+18,0.0,-2.0,2.0,5.0,1.0,0.0,1.0,-1.0
1.6951632534334218e+18,0.0,1.0,7.0,14.0,-1.0,-1.0,1.0,1.0
1.695163253434421e+18,-1.0,-2.0,-3.0,-2.0,0.0,-3.0,-1.0,0.0
1.6951632534354222e+18,2.0,2.0,11.0,11.0,2.0,0.0,1.0,0.0
1.6951632534354222e+18,-2.0,-1.0,-14.0,-2.0,-1.0,0.0,-1.0,1.0
1.6951632534557358e+18,-1.0,-3.0,2.0,0.0,-1.0,-2.0,0.0,-2.0
1.6951632534567286e+18,-2.0,-2.0,-6.0,0.0,-1.0,1.0,-1.0,0.0
1.6951632534577334e+18,-2.0,-3.0,2.0,4.0,-3.0,-3.0,-3.0,-2.0
1.6951632534577334e+18,1.0,0.0,5.0,-1.0,4.0,1.0,2.0,1.0
1.695163253470721e+18,-1.0,0.0,0.0,1.0,1.0,1.0,-1.0,1.0
1.6951632534917087e+18,-1.0,-1.0,-5.0,-6.0,2.0,0.0,-1.0,-1.0
1.695163253492708e+18,-2.0,0.0,0.0,4.0,0.0,-1.0,0.0,0.0
1.695163253492708e+18,0.0,0.0,5.0,-2.0,-1.0,-1.0,-1.0,-2.0
1.6951632534957087e+18,-2.0,-3.0,-15.0,-22.0,-4.0,-2.0,-1.0,0.0
1.6951632534957087e+18,2.0,-1.0,1.0,-1.0,-4.0,-3.0,-1.0,0.0
1.6951632535067023e+18,-2.0,0.0,12.0,6.0,-1.0,0.0,0.0,-1.0
1.6951632535067023e+18,1.0,-2.0,-3.0,23.0,3.0,3.0,1.0,0.0
1.6951632535156938e+18,-2.0,-2.0,-13.0,-17.0,-4.0,-7.0,-3.0,-3.0
1.6951632535166948e+18,0.0,-1.0,-8.0,-12.0,2.0,0.0,-1.0,-1.0
1.695163253521692e+18,1.0,2.0,2.0,1.0,-1.0,0.0,-1.0,2.0
1.695163253521692e+18,-2.0,0.0,4.0,-12.0,-1.0,1.0,2.0,-2.0
1.6951632535286874e+18,2.0,-1.0,-7.0,9.0,2.0,2.0,-1.0,0.0
1.6951632535296858e+18,-2.0,-4.0,1.0,0.0,-3.0,-4.0,-1.0,-3.0
1.6951632535376817e+18,0.0,1.0,1.0,2.0,1.0,1.0,-2.0,0.0
1.6951632535376817e+18,-1.0,-2.0,-7.0,-18.0,-6.0,-3.0,-4.0,-1.0
1.6951632535526725e+18,-1.0,0.0,-3.0,-4.0,2.0,0.0,0.0,-2.0
1.6951632535526725e+18,0.0,1.0,8.0,15.0,2.0,3.0,2.0,0.0
1.6951632535546716e+18,-2.0,-4.0,-7.0,-2.0,-1.0,-1.0,-2.0,-3.0
1.6951632535546716e+18,0.0,1.0,2.0,4.0,1.0,-3.0,-1.0,0.0
1.6951632535826555e+18,-1.0,0.0,4.0,0.0,-2.0,-2.0,0.0,-1.0
1.6951632535836554e+18,-1.0,-1.0,-4.0,-3.0,-1.0,0.0,-2.0,-1.0
1.6951632535996452e+18,-1.0,1.0,2.0,-10.0,-1.0,1.0,0.0,0.0
1.6951632536006456e+18,-3.0,-1.0,-3.0,17.0,3.0,0.0,-1.0,0.0
1.6951632536006456e+18,0.0,2.0,3.0,-1.0,0.0,-1.0,0.0,0.0
1.695163253601649e+18,0.0,-1.0,-1.0,1.0,-1.0,1.0,1.0,0.0
1.6951632536136369e+18,0.0,-1.0,-1.0,0.0,1.0,0.0,0.0,-1.0
1.6951632536136369e+18,0.0,-1.0,-7.0,-14.0,-5.0,-2.0,-1.0,-2.0
1.6951632536136369e+18,-2.0,1.0,5.0,7.0,1.0,-1.0,0.0,-1.0
1.6951632536146378e+18,0.0,0.0,-4.0,-7.0,-2.0,0.0,-1.0,1.0
1.6951632536156357e+18,-1.0,0.0,-1.0,2.0,-1.0,-1.0,-2.0,0.0
1.6951632536156357e+18,-1.0,-2.0,4.0,3.0,0.0,0.0,-2.0,1.0
1.6951632536426222e+18,0.0,-2.0,-7.0,-9.0,-2.0,1.0,-2.0,0.0
1.6951632536426222e+18,-1.0,1.0,11.0,10.0,5.0,1.0,-1.0,-3.0
1.695163253643634e+18,-1.0,-2.0,-14.0,-2.0,-3.0,-1.0,0.0,-1.0
1.6951632536446195e+18,0.0,0.0,-4.0,-5.0,-1.0,-1.0,0.0,0.0
1.6951632536486172e+18,0.0,-1.0,1.0,-1.0,-2.0,1.0,0.0,-1.0
1.6951632536496172e+18,0.0,0.0,4.0,1.0,0.0,-2.0,-2.0,-3.0
1.6951632536636314e+18,1.0,-1.0,-2.0,2.0,1.0,-1.0,2.0,-1.0
1.6951632536636314e+18,0.0,0.0,3.0,-4.0,-1.0,-1.0,-1.0,-3.0
1.695163253692593e+18,-2.0,-2.0,-8.0,-11.0,0.0,1.0,0.0,2.0
1.695163253692593e+18,0.0,1.0,12.0,34.0,1.0,0.0,0.0,0.0
1.6951632536935926e+18,-2.0,0.0,-1.0,-11.0,0.0,-1.0,-1.0,-2.0
1.6951632536935926e+18,1.0,-1.0,-1.0,6.0,0.0,-3.0,-2.0,-1.0
1.6951632536955907e+18,2.0,2.0,8.0,-8.0,-2.0,1.0,-1.0,0.0
1.6951632536955907e+18,-2.0,-3.0,-22.0,-10.0,-2.0,-1.0,0.0,-2.0
1.6951632536970048e+18,-1.0,-2.0,3.0,22.0,0.0,-1.0,0.0,1.0
1.6951632536970048e+18,-3.0,-2.0,-1.0,-25.0,-3.0,-3.0,-3.0,-1.0
1.6951632537175885e+18,2.0,0.0,4.0,14.0,1.0,1.0,-1.0,0.0
1.6951632537175885e+18,-1.0,-1.0,-2.0,-6.0,-1.0,1.0,0.0,0.0
1.6951632537195246e+18,-1.0,-1.0,1.0,-2.0,-1.0,-3.0,0.0,-1.0
1.6951632537195246e+18,1.0,-1.0,-7.0,-4.0,0.0,1.0,0.0,1.0
1.6951632537325363e+18,-3.0,-3.0,-14.0,3.0,-3.0,-3.0,-2.0,-1.0
1.6951632537325363e+18,-2.0,-1.0,2.0,-5.0,-2.0,-1.0,-3.0,-1.0
1.695163253734514e+18,1.0,0.0,-8.0,-4.0,0.0,0.0,-2.0,1.0
1.695163253734514e+18,0.0,1.0,5.0,2.0,-1.0,0.0,0.0,-1.0
1.695163253754886e+18,1.0,0.0,5.0,-3.0,1.0,-1.0,-1.0,-2.0
1.695163253754886e+18,-1.0,-4.0,-19.0,-24.0,-5.0,-3.0,-2.0,1.0
1.6951632537568947e+18,-3.0,-1.0,13.0,18.0,-1.0,-1.0,-3.0,-1.0
1.6951632537568947e+18,-2.0,-1.0,-3.0,-3.0,1.0,-1.0,-1.0,0.0
1.6951632537688072e+18,-1.0,-2.0,1.0,2.0,-1.0,-3.0,0.0,-2.0
1.6951632537688072e+18,0.0,-1.0,-2.0,-6.0,0.0,-1.0,0.0,0.0
1.6951632537858268e+18,0.0,1.0,-3.0,-7.0,-1.0,-1.0,0.0,-1.0
1.6951632537858268e+18,0.0,-1.0,0.0,1.0,0.0,-1.0,-2.0,-2.0
1.695163253792003e+18,-3.0,1.0,9.0,9.0,-1.0,0.0,2.0,0.0
1.695163253792003e+18,0.0,0.0,-4.0,-1.0,4.0,1.0,-1.0,0.0
1.6951632538011653e+18,-2.0,-4.0,-9.0,-8.0,-3.0,-3.0,-3.0,-1.0
1.6951632538011653e+18,-1.0,0.0,-8.0,1.0,0.0,0.0,-1.0,0.0
1.6951632538311396e+18,-2.0,-1.0,1.0,-5.0,-1.0,-1.0,-2.0,-2.0
1.6951632538321393e+18,0.0,-1.0,5.0,6.0,-3.0,-4.0,2.0,-2.0
1.6951632538331382e+18,0.0,0.0,3.0,-2.0,0.0,0.0,-1.0,0.0
1.6951632538341412e+18,-2.0,-1.0,4.0,3.0,-1.0,-1.0,-2.0,-2.0
1.6951632538341412e+18,1.0,-2.0,1.0,0.0,-1.0,-1.0,-1.0,-1.0
1.6951632538351444e+18,-1.0,0.0,6.0,-2.0,1.0,0.0,1.0,0.0
1.6951632538441313e+18,-1.0,-3.0,-3.0,8.0,1.0,0.0,0.0,-2.0
1.6951632538441313e+18,-1.0,0.0,15.0,1.0,0.0,-2.0,0.0,-1.0
1.6951632538521267e+18,0.0,-2.0,-15.0,-4.0,-1.0,-1.0,1.0,0.0
1.6951632538521267e+18,-1.0,0.0,3.0,3.0,-1.0,-1.0,-2.0,-1.0
1.695163253861123e+18,1.0,1.0,-2.0,-2.0,0.0,0.0,0.0,0.0
1.695163253861123e+18,-2.0,-2.0,-1.0,0.0,-1.0,0.0,1.0,0.0
1.6951632538771128e+18,-2.0,-2.0,1.0,0.0,-1.0,-2.0,-2.0,-1.0
1.6951632538771128e+18,0.0,0.0,-1.0,2.0,-1.0,0.0,2.0,-1.0
1.6951632538831204e+18,-2.0,-2.0,0.0,-9.0,0.0,-1.0,0.0,0.0
1.6951632538901053e+18,-2.0,-3.0,-5.0,0.0,-3.0,0.0,-2.0,-2.0
1.6951632538987105e+18,-1.0,0.0,9.0,5.0,1.0,0.0,-2.0,0.0
1.6951632538987105e+18,-1.0,-1.0,-13.0,-5.0,-2.0,-1.0,-2.0,-1.0
1.6951632538997092e+18,1.0,0.0,0.0,-4.0,-1.0,-1.0,2.0,0.0
1.6951632538997092e+18,0.0,0.0,0.0,1.0,-2.0,-1.0,-1.0,-1.0
1.6951632539277632e+18,-1.0,0.0,-2.0,-7.0,-1.0,0.0,-1.0,0.0
1.6951632539277632e+18,-1.0,1.0,5.0,3.0,-2.0,-1.0,-2.0,-1.0
1.6951632539508675e+18,-1.0,0.0,-4.0,-4.0,0.0,-1.0,-2.0,-3.0
1.6951632539518653e+18,-1.0,-1.0,1.0,7.0,0.0,-2.0,-1.0,0.0
1.6951632539518653e+18,2.0,0.0,2.0,1.0,0.0,0.0,-1.0,-1.0
1.6951632539518653e+18,-3.0,-2.0,-10.0,-9.0,-2.0,-2.0,-3.0,-2.0
1.6951632539538642e+18,0.0,-1.0,-1.0,-5.0,0.0,-1.0,1.0,0.0
1.6951632539538642e+18,0.0,0.0,6.0,7.0,2.0,0.0,1.0,1.0
1.6951632539659118e+18,-3.0,-4.0,-14.0,-12.0,-4.0,-2.0,-1.0,-2.0
1.6951632539659118e+18,0.0,0.0,9.0,10.0,2.0,1.0,0.0,-1.0
1.695163253966904e+18,-1.0,0.0,0.0,3.0,-1.0,-1.0,0.0,-1.0
1.695163253966904e+18,-2.0,-1.0,-1.0,-4.0,0.0,1.0,-1.0,-1.0
1.6951632539729027e+18,0.0,0.0,1.0,1.0,1.0,1.0,0.0,1.0
1.6951632539729027e+18,0.0,-3.0,-1.0,1.0,-1.0,-1.0,-1.0,-2.0
1.6951632539800228e+18,-1.0,-1.0,-2.0,-6.0,-1.0,-1.0,-1.0,0.0
1.6951632539800228e+18,-2.0,-1.0,-10.0,0.0,-1.0,-1.0,-2.0,-1.0
1.6951632539958797e+18,-2.0,-2.0,5.0,2.0,-1.0,-2.0,-1.0,-1.0
1.6951632539968796e+18,-1.0,-2.0,1.0,0.0,0.0,0.0,-3.0,0.0
1.6951632539968796e+18,1.0,1.0,0.0,3.0,-2.0,-2.0,-1.0,0.0
1.6951632539978803e+18,1.0,-2.0,-1.0,0.0,1.0,3.0,2.0,0.0
1.695163254020458e+18,0.0,-1.0,-12.0,-6.0,-2.0,-1.0,-2.0,-2.0
1.695163254020458e+18,0.0,0.0,3.0,-1.0,-2.0,-1.0,-1.0,-2.0
1.6951632540214597e+18,0.0,-3.0,-2.0,-2.0,-2.0,0.0,-1.0,-2.0
1.6951632540214597e+18,-1.0,1.0,-2.0,-3.0,-2.0,-2.0,-1.0,0.0
1.6951632540319063e+18,-1.0,-2.0,0.0,2.0,-1.0,-1.0,0.0,0.0
1.6951632540319063e+18,-2.0,0.0,1.0,2.0,0.0,-1.0,1.0,0.0
1.695163254040838e+18,0.0,0.0,1.0,0.0,0.0,1.0,0.0,0.0
1.695163254040838e+18,-2.0,-2.0,-2.0,-4.0,0.0,-2.0,-3.0,-2.0
1.6951632540622572e+18,1.0,-1.0,4.0,3.0,1.0,-1.0,0.0,0.0
1.6951632540622572e+18,-2.0,-1.0,-4.0,-3.0,-1.0,-1.0,-2.0,-1.0
1.6951632540804352e+18,-3.0,-3.0,-1.0,-3.0,-3.0,-1.0,-1.0,-2.0
1.6951632540814354e+18,-1.0,-1.0,2.0,1.0,-2.0,-1.0,-1.0,-1.0
1.6951632540814354e+18,-1.0,0.0,-1.0,-3.0,0.0,-1.0,0.0,-1.0
1.6951632540824333e+18,2.0,-1.0,2.0,-1.0,-1.0,1.0,0.0,-2.0
1.6951632540844332e+18,-1.0,-1.0,0.0,1.0,0.0,1.0,-1.0,-1.0
1.6951632540844332e+18,1.0,0.0,-2.0,-2.0,-2.0,-1.0,-1.0,-2.0
1.695163254091427e+18,-1.0,0.0,0.0,0.0,-1.0,0.0,1.0,0.0
1.695163254092435e+18,0.0,1.0,8.0,1.0,0.0,-1.0,-1.0,-1.0
1.695163254108038e+18,-1.0,1.0,-11.0,-5.0,0.0,-2.0,-1.0,0.0
1.695163254108038e+18,-3.0,-2.0,-2.0,-2.0,-3.0,-4.0,-3.0,-3.0
1.6951632541159086e+18,-1.0,-1.0,-6.0,-4.0,-2.0,0.0,-1.0,-1.0
1.6951632541159086e+18,-2.0,-3.0,5.0,2.0,-2.0,0.0,-2.0,-1.0
1.6951632541219123e+18,-1.0,1.0,3.0,0.0,1.0,0.0,0.0,0.0
1.6951632541219123e+18,-1.0,0.0,-9.0,-5.0,0.0,0.0,1.0,0.0
1.6951632541448238e+18,0.0,-1.0,-3.0,7.0,0.0,-1.0,0.0,-1.0
1.6951632541448238e+18,-1.0,1.0,-2.0,-2.0,-2.0,0.0,0.0,-1.0
1.6951632541543603e+18,0.0,-2.0,0.0,3.0,-2.0,0.0,0.0,-1.0
1.6951632541543603e+18,0.0,-2.0,-2.0,-5.0,0.0,-1.0,-2.0,-1.0
1.6951632541553595e+18,1.0,1.0,6.0,3.0,3.0,1.0,-1.0,0.0
1.6951632541553595e+18,-1.0,0.0,-5.0,-3.0,-1.0,-1.0,-1.0,0.0
