timestamp,left_data_Ac_X,left_data_Ac_Y,left_data_Ac_Z,left_data_Gy_X,left_data_Gy_Y,left_data_Gy_Z,left_data_flex_1,left_data_flex_2,left_data_flex_3,left_data_flex_4,left_data_flex_5,right_data_Ac_X,right_data_Ac_Y,right_data_Ac_Z,right_data_Gy_X,right_data_Gy_Y,right_data_Gy_Z,right_data_flex_1,right_data_flex_2,right_data_flex_3,right_data_flex_4,right_data_flex_5
1695162469126116800,-9.218873978,-1.736993313,-0.800860465,0.756353736,-0.035039816,0.139493108,-2,28,12,26,14,-8.926780701,4.01507616,1.606509328,0.403290957,0.183459431,-1.122872829,-48,-23,-2,31,170
1695162469127116800,-9.194931984,-1.716642618,-0.808043063,0.749292493,-0.043433387,0.136828482,-7,29,9,27,15,-8.911218643,4.033032894,1.614889026,0.397428781,0.188655436,-1.107684493,-47,-22,0,31,171
1695162469128116800,-9.160215378,-1.684320927,-0.810437262,0.734237373,-0.057022974,0.131099537,-6,29,12,27,14,-8.896853447,4.052186489,1.614889026,0.391966313,0.193718225,-1.091696739,-47,-22,-1,31,173
1695162469129116800,-9.130288124,-1.651999116,-0.831985116,0.715052068,-0.070079632,0.124038287,-4,31,14,28,17,-8.882488251,4.068945885,1.611297727,0.386370599,0.198248088,-1.07517612,-49,-23,-2,31,172
1695162469130116800,-9.095572472,-1.629254222,-0.849941611,0.691603363,-0.082736596,0.115245022,-6,30,15,30,14,-8.875306129,4.083311081,1.604115129,0.381174594,0.202378258,-1.058122516,-47,-23,-2,31,171
1695162469188942500,-8.895656586,-1.417367458,-1.104924083,0.19478406,-0.210905045,-0.09246248,-2,29,14,25,15,-9.429563522,4.252102375,1.556231141,0.326283306,0.18905513,-0.668687582,-47,-21,-2,31,173
1695162469189942500,-8.904036522,-1.407790542,-1.126471877,0.160543635,-0.217033699,-0.10778407,-7,31,15,27,15,-9.457097054,4.266467571,1.569399238,0.323218971,0.189588055,-0.656430304,-45,-22,-2,31,172
1695162469190942500,-8.917203903,-1.395819545,-1.149216771,0.126036748,-0.222895861,-0.12337213,-4,31,15,27,15,-9.496601105,4.290409565,1.587355733,0.318156213,0.19118683,-0.638843775,-44,-23,-2,31,173
1695162469191942500,-8.930372238,-1.392228246,-1.173158884,0.091263399,-0.228758052,-0.139226645,-6,29,11,29,15,-9.532513618,4.314351559,1.610100627,0.31216079,0.193718225,-0.621790171,-47,-23,-1,31,170
1695162469192942500,-8.943540573,-1.388636947,-1.197100878,0.056490045,-0.234620214,-0.154681474,-5,26,13,27,15,-9.564835548,4.340687752,1.629254222,0.304833084,0.197182223,-0.605269551,-47,-20,-1,30,172
1695162469230914900,-9.5157547,-1.316810966,-1.552639842,-0.534390509,-0.289511472,-0.428604871,-5,25,10,24,17,-9.504981041,4.593276024,1.82198751,0.031442571,0.306165397,-0.296972424,-50,-20,3,27,170
1695162469231914900,-9.538499832,-1.307234168,-1.555034041,-0.564234257,-0.285781026,-0.442594171,-7,29,15,28,15,-9.459490776,4.580107689,1.82079041,0.018652374,0.307630926,-0.27525574,-48,-21,0,31,174
1695162469232914900,-9.56004715,-1.295263171,-1.556231141,-0.594744265,-0.2809847,-0.456716686,-8,27,15,26,16,-9.410409927,4.564545631,1.82198751,0.006928025,0.308163851,-0.252473205,-46,-20,-1,31,177
1695162469233914900,-9.587580681,-1.278503656,-1.55862534,-0.626186788,-0.274989277,-0.471105665,-7,32,15,28,14,-9.357737541,4.550180435,1.82079041,-0.003863706,0.307630926,-0.228624806,-47,-21,-2,32,172
1695162469234914900,-9.607931137,-1.260547161,-1.555034041,-0.658695281,-0.268327713,-0.485761106,-6,31,14,26,15,-9.305065155,4.53102684,1.818396211,-0.013589587,0.30643183,-0.203843787,-46,-19,-2,31,172
1695162469266892900,-9.496601105,-0.752976418,-1.765723705,-1.60596931,-0.139493108,-0.874929547,-6,31,12,26,15,-8.570044518,3.931279182,1.703474522,0.023182238,0.133364469,0.36771822,-45,-22,-2,31,172
1695162469267892900,-9.470264435,-0.764947414,-1.769315004,-1.668854594,-0.131499231,-0.89704591,-6,28,17,26,15,-8.549694061,3.906140089,1.686715126,0.031709034,0.117243491,0.396362931,-31,-19,-1,31,171
1695162469268892900,-9.442731857,-0.776918471,-1.778891921,-1.730540514,-0.122705974,-0.918229699,-7,30,14,28,14,-8.535328865,3.878606796,1.67234993,0.040369064,0.100456357,0.424474716,-47,-21,-2,31,173
1695162469269892900,-9.416395187,-0.793677866,-1.780089021,-1.79089427,-0.113113321,-0.938480854,-7,31,15,23,14,-8.524555206,3.852270603,1.656787634,0.048895866,0.083269522,0.451653898,-45,-21,-2,31,170
1695162469270892900,-9.390059471,-0.814028561,-1.78128612,-1.849116325,-0.10285452,-0.957932651,-5,29,11,25,16,-8.513781548,3.82473731,1.644816518,0.056756508,0.065816231,0.477900445,-47,-19,-2,31,172
1695162469304895300,-9.093177795,-1.478419542,-1.689109325,-2.359258652,0.139493108,-1.102355242,-6,32,17,29,16,-8.604761124,3.470395327,1.248576164,0.132698312,-0.215434924,0.771542132,-45,-23,-2,31,174
1695162469305895300,-9.087192535,-1.514332533,-1.684320927,-2.349532843,0.148819283,-1.097558975,-5,30,15,30,15,-8.62511158,3.459621429,1.221042871,0.132831544,-0.224361405,0.776338398,-50,-24,-3,31,170
1695162469306895300,-9.084798813,-1.550245643,-1.67115283,-2.336209774,0.156946406,-1.091563582,-5,29,17,27,14,-8.634688377,3.452438831,1.203086376,0.132698312,-0.229957119,0.778869808,-46,-21,-2,31,169
1695162469307895300,-9.082404137,-1.587355733,-1.656787634,-2.319422722,0.16414088,-1.084635496,-8,32,15,29,15,-8.652645111,3.444059134,1.175553083,0.132032156,-0.237817764,0.781800866,-49,-24,-2,31,168
1695162469308895300,-9.083600998,-1.619677424,-1.642422318,-2.299171448,0.170535982,-1.07624197,-10,30,14,29,14,-8.670601845,3.435679436,1.146822572,0.130966306,-0.24461256,0.78379941,-50,-21,-2,31,171
1695162469341853100,-8.999804497,-1.9321208,-1.233013868,-1.461546659,0.173866764,-0.733704388,-8,30,16,29,14,-8.896853447,3.41772294,0.697909772,0.039702907,-0.25194028,0.696666181,-47,-19,-2,33,170
1695162469342853100,-9.001001358,-1.916558504,-1.213860273,-1.407188296,0.168404296,-0.709589601,-7,28,20,29,15,-8.910021782,3.41892004,0.681150377,0.032508422,-0.247010723,0.690004587,-46,-21,-1,33,170
1695162469343853100,-9.003395081,-1.89860189,-1.197100878,-1.353629351,0.162408888,-0.685208261,-4,26,15,30,16,-8.921992302,3.42011714,0.665588081,0.025313934,-0.241814688,0.683609486,-49,-21,-2,31,169
1695162469344853100,-8.999804497,-1.879448295,-1.182735682,-1.301136374,0.156147003,-0.660693705,-4,29,17,29,15,-8.936357498,3.422511339,0.647631586,0.017986218,-0.236485451,0.677480876,-50,-23,-2,31,170
1695162469345853100,-8.998606682,-1.855506301,-1.171961784,-1.249575853,0.149352223,-0.635912716,-10,27,17,27,15,-8.947132111,3.422511339,0.629675031,0.010525269,-0.230889738,0.671885133,-46,-20,-2,31,171
1695162469380830100,-8.899248123,-1.416170359,-0.896628559,-0.66229248,0.037171517,-0.109249614,-8,28,21,29,15,-8.825027466,3.368641853,0.447715729,-0.115378261,-0.061419602,0.621523738,-47,-21,-1,31,170
1695162469381830100,-8.888473511,-1.41018486,-0.881066203,-0.648702919,0.033840735,-0.078073502,-6,30,21,29,14,-8.796297073,3.361459255,0.436941803,-0.120441042,-0.052359879,0.621656954,-46,-23,0,33,173
1695162469382830100,-8.875306129,-1.41138196,-0.873883605,-0.6357795,0.030643184,-0.047163859,-6,29,15,27,15,-8.771158218,3.351882458,0.423773706,-0.125370592,-0.043566614,0.622189879,-45,-21,-2,32,171
1695162469383830100,-8.859743118,-1.417367458,-0.863109708,-0.623921931,0.02691271,-0.01612098,-4,29,17,26,17,-8.743624687,3.337517262,0.416591108,-0.130166918,-0.034906585,0.622856021,-45,-23,-2,31,170
1695162469384830100,-8.847772598,-1.424550056,-0.847547412,-0.612597227,0.023448698,0.014788668,-3,30,18,27,15,-8.717288017,3.320757866,0.403422982,-0.134430319,-0.027179174,0.623788714,-48,-23,-2,34,170
1695162469419805100,-8.713697433,-1.613691926,-0.727837324,-0.451653898,-0.104320064,0.502415001,-6,27,14,29,17,-8.384494781,2.870647907,0.14963761,-0.162142411,0.032641653,0.648569643,-46,-21,-1,36,173
1695162469420805100,-8.713697433,-1.620874524,-0.727837324,-0.445525289,-0.113246553,0.523865223,-8,27,19,29,14,-8.378508568,2.849100113,0.14963761,-0.161609486,0.035572741,0.646038294,-46,-21,-1,40,173
1695162469421805100,-8.714894295,-1.631648421,-0.724246025,-0.439663082,-0.12230628,0.545315444,-3,32,15,26,14,-8.376114845,2.827552319,0.14963761,-0.160943344,0.038370594,0.642840743,-44,-19,-2,38,172
1695162469422805100,-8.713697433,-1.644816518,-0.725443125,-0.434467077,-0.131499231,0.56663245,-4,31,19,27,16,-8.373720169,2.810792685,0.142454997,-0.160543635,0.041434918,0.638710558,-45,-19,-2,34,172
1695162469423805100,-8.714894295,-1.655590534,-0.729034424,-0.429670751,-0.140558958,0.587683022,-7,29,13,27,15,-8.371326447,2.792836189,0.137666598,-0.160143942,0.045032158,0.633381307,-45,-23,3,40,173
1695162469459782300,-8.931569099,-1.985990286,-0.888248801,-0.349332303,-0.291909665,0.939147055,-7,25,15,26,16,-8.349778175,2.679111719,0.124498487,-0.205575794,0.200646251,0.306032151,-45,-21,0,41,172
1695162469460782300,-8.953117371,-2.00873518,-0.906205356,-0.34227106,-0.299370587,0.955134749,-6,30,14,28,19,-8.352172852,2.67552042,0.126892686,-0.211171508,0.213169977,0.279252678,-47,-20,-1,38,173
1695162469461782300,-8.969876289,-2.035071373,-0.921767652,-0.334676892,-0.306565106,0.970989287,-10,30,15,28,14,-8.352172852,2.682703018,0.1316811,-0.217433393,0.226359874,0.251807034,-46,-21,3,41,176
1695162469462782300,-8.989029884,-2.060210466,-0.937329948,-0.326683015,-0.313493103,0.986177683,-7,31,13,27,15,-8.349778175,2.692279816,0.134075299,-0.224094957,0.239683002,0.223695248,-44,-18,3,38,173
1695162469463782300,-9.009381294,-2.087743998,-0.956483603,-0.318022966,-0.320287883,1.000966311,-8,29,19,28,14,-8.348581314,2.701856613,0.132878199,-0.231289431,0.25300613,0.195183769,-44,-23,1,37,172
1695162469497785400,-9.396044731,-2.524685621,-1.327584863,-0.094194487,-0.397428781,1.185491681,-7,32,14,26,16,-8.59278965,2.950853586,0.202310041,-0.483895868,0.51893568,-0.351197541,-45,-23,-2,42,177
1695162469498785400,-9.411606789,-2.547430515,-1.343147159,-0.081404284,-0.397961706,1.188156128,-12,26,20,27,14,-8.639476776,2.959233284,0.195127442,-0.501882076,0.532258809,-0.379309326,-47,-24,1,36,174
1695162469499785400,-9.425971985,-2.570175409,-1.359906554,-0.068880551,-0.397961706,1.190154672,-7,30,12,28,14,-8.684967041,2.97359848,0.191536129,-0.520001531,0.544649303,-0.407421142,-47,-23,0,38,172
1695162469500785400,-9.43914032,-2.591723442,-1.373074651,-0.056623276,-0.397695243,1.191353798,-4,29,19,27,14,-8.72806263,2.986766577,0.187944829,-0.537854493,0.555973947,-0.435399711,-55,-25,-1,41,172
1695162469501785400,-9.449913979,-2.610877037,-1.391031146,-0.044499233,-0.397162348,1.191620231,-6,31,15,29,16,-8.769960403,2.996343374,0.195127442,-0.555707514,0.566898882,-0.462978572,-44,-22,1,41,172
1695162469534763500,-9.482235909,-2.865859509,-1.665167332,0.128701374,-0.341604888,1.024814725,-8,32,9,24,14,-9.299078941,3.377021551,0.330399841,-0.870266438,0.718782485,-0.981114864,-44,-19,7,36,172
1695162469535763500,-9.496601105,-2.869450808,-1.690306425,0.137894332,-0.336808592,0.999500751,-10,28,12,26,14,-9.301473618,3.408146143,0.337582439,-0.886254191,0.725044429,-1.005496144,-47,-23,1,42,173
1695162469536763500,-9.506177902,-2.873042107,-1.719036818,0.144689128,-0.333344579,0.979382813,-9,30,12,23,16,-9.293093681,3.438073635,0.343567938,-0.901975513,0.731173098,-1.029211402,-45,-21,-1,35,174
1695162469537763500,-9.518148422,-2.871845007,-1.735796213,0.150950998,-0.330280244,0.9583323,-10,26,10,28,14,-9.284713745,3.470395327,0.343567938,-0.917297065,0.737035215,-1.052260399,-44,-21,1,39,173
1695162469538763500,-9.537302017,-2.869450808,-1.750161409,0.1573461,-0.327082694,0.936215878,-4,29,12,28,14,-9.272743225,3.505111217,0.342370838,-0.932218969,0.742630899,-1.074509978,-45,-23,-1,41,173
1695162469582712700,-9.825803757,-2.831143618,-1.908178806,0.261399686,-0.229290962,0.475502282,-10,29,16,27,14,-8.517372131,3.934870481,0.416591108,-1.107950926,0.785797834,-1.222929597,-46,-20,-2,36,176
1695162469583712700,-9.81143856,-2.82156682,-1.914164305,0.266062796,-0.221030638,0.45192036,-11,27,15,25,14,-8.475474358,3.944447279,0.422576606,-1.108350754,0.785398185,-1.21240437,-45,-20,0,37,174
1695162469584712700,-9.792284966,-2.811989784,-1.915361404,0.270326167,-0.212503821,0.428071976,-6,32,15,23,14,-8.435969353,3.949235678,0.433350503,-1.107551336,0.784598768,-1.200013757,-44,-21,0,38,173
1695162469585712700,-9.770736694,-2.802412987,-1.921346903,0.274323106,-0.203843787,0.40462327,-8,29,13,26,16,-8.400056839,3.952826977,0.436941803,-1.105419517,0.783399701,-1.186024547,-44,-19,-1,39,171
1695162469586712700,-9.746794701,-2.795230389,-1.923741102,0.278186828,-0.19478406,0.381307811,-8,28,13,27,14,-8.360552788,3.956418276,0.436941803,-1.101955652,0.781934142,-1.170303226,-46,-21,0,38,174
1695162469628709500,-9.240421295,-2.570175409,-1.842338204,0.32615009,0.008260337,-0.022516079,-8,26,12,32,16,-8.328230858,3.928884983,0.572214186,-0.828298628,0.646038294,-0.681744277,-45,-22,1,31,174
1695162469629709500,-9.22725296,-2.559401512,-1.829170108,0.32934764,0.018652374,-0.041568145,-8,30,13,24,14,-8.364143372,3.93965888,0.579396784,-0.810978532,0.630583465,-0.652833045,-48,-22,-1,31,173
1695162469630709500,-9.216479301,-2.547430515,-1.817199111,0.332678407,0.028777948,-0.060220521,-6,29,15,25,14,-8.403648376,3.950432777,0.582988143,-0.79419142,0.614196002,-0.624588013,-44,-21,-2,31,172
1695162469631709500,-9.206902504,-2.533065319,-1.805228114,0.3365421,0.038503829,-0.078473203,-6,29,16,28,16,-8.441955566,3.957615376,0.587776542,-0.778203666,0.59674269,-0.596875966,-44,-22,-2,33,173
1695162469632709500,-9.203310966,-2.522291422,-1.796848416,0.340405822,0.047830015,-0.096326187,-6,29,15,26,15,-8.482656479,3.963600874,0.59495914,-0.763148487,0.577957094,-0.56983,-47,-25,-2,36,174
1695162469677681200,-9.350554466,-2.302024841,-1.648407817,0.474569678,0.121640123,-0.351464033,-4,31,15,28,17,-9.685743332,3.986345768,0.266953498,-0.590081215,0.111381322,-0.190120965,-48,-23,-1,34,174
1695162469678681200,-9.364919662,-2.287659645,-1.647210717,0.484295547,0.120574266,-0.361722827,-7,29,10,26,14,-9.734824181,3.983951569,0.240617275,-0.582486987,0.094594181,-0.18079479,-45,-24,-2,32,174
1695162469679681200,-9.380482674,-2.273294449,-1.643619418,0.494154662,0.119375192,-0.371848404,-10,27,12,27,15,-9.803058624,3.97916317,0.20590134,-0.569963276,0.070479326,-0.167471662,-46,-21,-1,36,171
1695162469680681200,-9.392453194,-2.257732153,-1.641225219,0.504013777,0.118042871,-0.381574243,-6,29,11,25,19,-9.862914085,3.98036027,0.178368032,-0.556506872,0.04729709,-0.154415011,-47,-25,-2,34,170
1695162469681681200,-9.404424667,-2.244564056,-1.642422318,0.513872921,0.116444103,-0.391433388,-8,32,11,23,13,-9.916783333,3.982754469,0.152031809,-0.542384386,0.025846859,-0.142157733,-50,-24,3,34,169
1695162469724654400,-9.540893555,-1.944091797,-1.608903527,0.672018409,0.112580396,-0.523465574,-8,28,11,27,15,-9.518148422,4.134786129,-0.40940848,-0.134030625,-0.162009194,0.091130167,-45,-23,1,37,176
1695162469725654400,-9.544485092,-1.927332401,-1.605312228,0.676947892,0.114712104,-0.528794825,-8,32,12,26,14,-9.470264435,4.144362926,-0.421379507,-0.110581927,-0.161875948,0.110049009,-43,-22,0,36,171
1695162469726654400,-9.54807663,-1.914164305,-1.602918029,0.681344509,0.116843797,-0.534124076,-3,28,12,29,15,-9.423578262,4.153939724,-0.433350503,-0.087666154,-0.160810098,0.130433381,-48,-23,0,37,171
1695162469727654400,-9.551667213,-1.89860189,-1.604115129,0.685474753,0.118975498,-0.539453328,-11,29,16,28,15,-9.379284859,4.16471386,-0.436941803,-0.065816231,-0.158678412,0.152549773,-49,-27,1,31,173
1695162469728654400,-9.55406189,-1.881842494,-1.601720929,0.688938737,0.121506892,-0.544782579,-3,27,11,26,16,-9.334992409,4.174290657,-0.436941803,-0.044765696,-0.155614093,0.176131696,-54,-21,-2,36,172
1695162469769604500,-9.542090416,-1.624465823,-1.483207941,0.681211293,0.146820813,-0.660960138,-4,31,14,27,17,-9.142259598,4.260481834,-0.112527482,0.055157732,0.100189894,0.751290977,-44,-19,2,36,173
1695162469770604500,-9.537302017,-1.610100627,-1.478419542,0.677880526,0.145754978,-0.668287933,-8,29,12,27,15,-9.17098999,4.253299236,-0.088585466,0.044366002,0.115111791,0.77447319,-44,-19,-2,33,164
1695162469771604500,-9.531316757,-1.59812963,-1.472434044,0.674549758,0.144422665,-0.675482392,-6,30,17,29,16,-9.205705643,4.250905037,-0.067037649,0.032108728,0.129500762,0.795923412,-46,-18,-2,33,172
1695162469772604500,-9.522936821,-1.588552833,-1.467645645,0.670952559,0.14282389,-0.682676852,-11,29,16,29,14,-9.238027573,4.247313976,-0.04189853,0.018119449,0.143223584,0.816174567,-46,-23,-1,34,172
1695162469773604500,-9.520543098,-1.572990537,-1.464054346,0.667355299,0.141091883,-0.689871371,-7,28,13,28,14,-9.25957489,4.244919777,-0.02873042,0.007860643,0.152016848,0.829098046,-44,-21,3,33,176
1695162469825572400,-9.307458878,-1.33955586,-1.361103654,0.579555929,0.106318533,-0.798588037,-12,29,15,27,16,-9.734824181,3.991134167,0.177170932,-0.535589576,0.191719756,1.020151615,-48,-21,1,34,176
1695162469826572400,-9.289502144,-1.326387763,-1.349132657,0.573826909,0.105252676,-0.802185297,-6,29,13,27,15,-9.745597839,3.938461781,0.161608621,-0.563168406,0.181194484,1.024415016,-45,-23,1,38,170
1695162469827572400,-9.276334763,-1.310825467,-1.33955586,0.568098009,0.103920363,-0.805382848,-6,25,20,27,14,-9.756371498,3.888183594,0.14724341,-0.588615596,0.169470131,1.028278708,-44,-21,-2,35,173
1695162469828572400,-9.261969566,-1.30005157,-1.332373261,0.562102616,0.102454826,-0.808047473,-11,28,15,27,14,-9.761159897,3.834314108,0.130484,-0.611797869,0.15681316,1.032142401,-44,-23,1,37,176
1695162469829572400,-9.249998093,-1.291671872,-1.328781962,0.556107163,0.100989282,-0.810712099,-6,28,15,28,15,-9.765948296,3.778050184,0.110133275,-0.632315457,0.143223584,1.035872936,-44,-19,1,35,171
1695162469867572900,-9.672574997,-0.859518409,-1.407790542,0.39782849,-0.008926493,-0.819238901,-6,30,19,29,16,-9.411606789,2.749740601,-0.238223076,-0.507211328,-0.162408888,1.083836079,-44,-21,1,36,176
1695162469868572900,-9.698910713,-0.840364814,-1.419761658,0.385837674,-0.017986218,-0.815375149,-12,26,13,29,14,-9.37449646,2.716221809,-0.243011475,-0.479099542,-0.173333839,1.084502339,-44,-17,-2,34,180
1695162469869572900,-9.725247383,-0.81761986,-1.431732655,0.373580426,-0.027179174,-0.810712099,-8,29,19,27,14,-9.338583946,2.685097218,-0.251391172,-0.450055122,-0.183326185,1.084635496,-44,-20,-2,39,172
1695162469870572900,-9.750386238,-0.794874966,-1.440112352,0.361189902,-0.03650536,-0.805116415,-12,29,17,26,14,-9.300276756,2.659958124,-0.264559299,-0.420344561,-0.191986218,1.084235907,-43,-19,1,36,176
1695162469871572900,-9.776722908,-0.773327172,-1.44968915,0.348133236,-0.045565084,-0.798588037,-3,28,21,29,15,-9.261969566,2.63841033,-0.272938997,-0.390500784,-0.199713632,1.08303678,-43,-19,3,38,169
1695162469909527000,-9.495404243,-0.659602582,-1.667561531,0.075542115,-0.130300149,-0.540785611,-6,30,15,26,15,-8.62511158,2.651578426,-0.199915841,0.025846859,-0.162009194,0.898911178,-44,-19,3,41,173
1695162469910527000,-9.435548782,-0.666785181,-1.674744129,0.063284837,-0.12723583,-0.523465574,-6,25,15,27,17,-8.599972725,2.664746523,-0.192733243,0.033441041,-0.152416542,0.880791724,-44,-24,3,41,172
1695162469911527000,-9.37449646,-0.675164878,-1.683123827,0.051693719,-0.123505361,-0.50641191,-5,31,20,29,16,-8.577227592,2.680308819,-0.180762231,0.039036751,-0.142557427,0.861739695,-44,-22,1,41,175
1695162469912527000,-9.307458878,-0.683544576,-1.687912226,0.040901989,-0.118575804,-0.489624798,-4,26,20,24,14,-8.56046772,2.694674015,-0.172382519,0.041834611,-0.135895863,0.848683,-44,-19,3,40,176
1695162469913527000,-9.239224434,-0.695515573,-1.690306425,0.030376723,-0.11298009,-0.472970903,-7,25,16,27,14,-8.535328865,2.711433411,-0.164002821,0.044499233,-0.125770286,0.828565061,-44,-19,2,42,173
1695162469960495200,-8.365341187,-1.055842996,-1.423352957,-0.046630934,0.113113321,-0.193851456,-7,29,21,28,15,-8.372523308,3.040636063,0.04309563,-0.217566609,0.06115314,0.400093406,-44,-20,-1,41,172
1695162469961495200,-8.353369713,-1.073799491,-1.397016644,-0.044765696,0.12723583,-0.179329246,-4,32,23,28,17,-8.382100105,3.05021286,0.051475335,-0.24261409,0.067415006,0.378376722,-44,-24,-1,40,172
1695162469962495200,-8.347384453,-1.095347285,-1.368286252,-0.042234302,0.140692189,-0.16467382,-7,31,23,27,14,-8.392873764,3.057395458,0.053869538,-0.267928004,0.072877489,0.356660008,-45,-21,0,32,174
1695162469963495200,-8.343792915,-1.11569798,-1.33955586,-0.03956968,0.153748855,-0.150151595,-8,27,20,26,17,-8.400056839,3.059789658,0.05865794,-0.292975485,0.077807046,0.335343033,-44,-21,1,41,176
1695162469964495200,-8.346187592,-1.131260276,-1.308431268,-0.036372125,0.166272581,-0.135762632,-8,29,17,29,15,-8.408436775,3.057395458,0.064643443,-0.317490041,0.08207044,0.314425707,-45,-21,4,38,173
1695162470016467600,-8.646659851,-1.347935557,-0.758961916,0.016520673,0.246211335,0.09033078,-3,29,17,26,14,-8.47188282,2.806004286,-0.062249243,-0.507744253,0.068614088,-0.001465544,-44,-20,3,41,176
1695162470017467600,-8.66341877,-1.350329757,-0.738611221,0.01612098,0.241947934,0.098191425,-5,28,17,27,15,-8.468291283,2.79044199,-0.080205753,-0.500416517,0.064750381,-0.014788668,-42,-24,0,40,174
1695162470018467600,-8.678980827,-1.350329757,-0.717063427,0.01505513,0.237018377,0.105519146,-10,31,10,27,14,-8.464699745,2.780865192,-0.094570965,-0.491756529,0.060886677,-0.02797856,-43,-18,0,41,176
1695162470019467600,-8.690952301,-1.356315255,-0.689530075,0.013589587,0.231289431,0.112180702,-7,29,14,28,14,-8.462306023,2.771288395,-0.10055647,-0.481497705,0.057555895,-0.041168455,-44,-19,-1,41,174
1695162470020467600,-8.70172596,-1.359906554,-0.664390981,0.011324655,0.225294024,0.118309341,-7,28,19,27,15,-8.455122948,2.762908697,-0.108936176,-0.470173031,0.054225113,-0.053958651,-44,-25,5,38,176
1695162470068433400,-8.702922821,-1.260547161,-0.391451985,-0.206774876,0.063018374,0.16573967,-8,26,21,28,15,-8.347384453,3.035847664,-0.156820208,-0.24567841,0.074875958,-0.284315467,-46,-20,3,41,176
1695162470069433400,-8.706514359,-1.252167463,-0.384269387,-0.230623275,0.053558957,0.166539043,-8,27,15,28,14,-8.354566574,3.064578056,-0.158017308,-0.241015315,0.077274114,-0.295240432,-44,-22,0,37,173
1695162470070433400,-8.708909035,-1.242590666,-0.385466486,-0.255404294,0.044366002,0.167471662,-8,26,15,29,15,-8.364143372,3.089717388,-0.162805721,-0.237418056,0.079405814,-0.305765688,-44,-20,2,41,176
1695162470071433400,-8.713697433,-1.238999367,-0.377086759,-0.281117916,0.03543951,0.168537512,-6,29,12,24,14,-8.372523308,3.118447781,-0.159214407,-0.23475343,0.081537522,-0.316157728,-45,-20,-1,40,170
1695162470072433400,-8.719682693,-1.233013868,-0.36990416,-0.307630926,0.026779478,0.169869825,-6,29,16,24,16,-8.382100105,3.143586874,-0.159214407,-0.232888207,0.083669223,-0.32615009,-44,-20,0,40,172
1695162470171374700,-9.706093788,-1.720233917,0.839167714,-0.175465539,-1.42743957,-0.06115314,-1,32,-3,25,16,-8.791508675,3.468001127,0.113724582,-0.015588055,0.166672289,-0.099790201,-44,-19,1,41,176
1695162470172374700,-9.679757118,-1.729810715,0.869095206,-0.191986218,-1.430637121,-0.059021436,-1,32,-5,18,15,-8.787917137,3.453635931,0.116118781,-0.010924961,0.163208261,-0.098724343,-44,-23,0,38,172
1695162470173374700,-9.666589737,-1.74657011,0.901416957,-0.207174569,-1.428105593,-0.055024505,-1,27,-3,26,15,-8.787917137,3.436876535,0.119710088,-0.005728943,0.159744263,-0.097791731,-45,-21,4,37,176
1695162470174374700,-9.662998199,-1.772906303,0.924161851,-0.221430331,-1.420378208,-0.048362937,2,29,-2,20,16,-8.787917137,3.422511339,0.119710088,0.000266462,0.156280249,-0.096992344,-44,-20,1,40,176
1695162470175374700,-9.668983459,-1.799242616,0.942118347,-0.236618683,-1.409453273,-0.038637057,-1,31,-6,22,15,-8.7843256,3.406949043,0.123301387,0.006528331,0.152949467,-0.096459419,-44,-20,0,40,174
1695162470245333100,-9.417592049,-2.552218914,1.443703651,-0.567165375,-0.752356768,0.460846871,-1,31,-10,24,14,-8.989029884,3.402160645,0.20590134,0.140825421,0.073943339,-0.130566612,-45,-20,0,40,176
1695162470246333100,-9.398438454,-2.594117641,1.459265947,-0.575159252,-0.707724333,0.490690649,0,30,-12,22,16,-9.002198219,3.409343243,0.20590134,0.145754978,0.069280244,-0.134297088,-44,-20,1,37,177
1695162470247333100,-9.379284859,-2.631227732,1.479616642,-0.58168757,-0.663491547,0.519202113,-4,32,-10,24,16,-9.014169693,3.41892004,0.208295554,0.150551304,0.064084224,-0.138160795,-45,-20,-1,38,172
1695162470248333100,-9.355342865,-2.662352324,1.491587639,-0.587283254,-0.619924963,0.546248078,0,32,-9,23,17,-9.028534889,3.429693937,0.207098454,0.154947937,0.058888208,-0.141891271,-44,-21,3,40,173
1695162470249333100,-9.332598686,-2.686294317,1.496376038,-0.591946423,-0.576624751,0.571961701,0,32,-9,22,19,-9.039308548,3.435679436,0.209492654,0.159477785,0.053825419,-0.145355284,-45,-21,1,40,176
1695162470305305400,-8.787917137,-2.664746523,1.243787766,-0.729307771,0.086866774,0.716650844,-1,32,-11,22,15,-9.1326828,3.586514235,0.156820208,0.277920365,-0.053558957,-0.165339977,-44,-21,-1,43,174
1695162470306305400,-8.753201485,-2.643198729,1.213860273,-0.741698265,0.113513015,0.710255742,-3,32,-9,22,16,-9.129091263,3.598485231,0.154426008,0.286047459,-0.05808882,-0.162941799,-44,-20,2,38,177
1695162470307305400,-8.720879555,-2.619256735,1.180341482,-0.754488528,0.139892802,0.703327715,-1,32,-12,23,15,-9.124302864,3.611653328,0.154426008,0.294307798,-0.062218986,-0.160010725,-44,-19,2,40,174
1695162470308305400,-8.687360764,-2.588132143,1.140837073,-0.768611014,0.166006133,0.695733547,-1,35,-10,19,16,-9.123106003,3.627215624,0.154426008,0.302168459,-0.066215925,-0.15681316,-44,-18,-1,38,174
1695162470309305400,-8.674192429,-2.549824715,1.100135684,-0.785398185,0.19118683,0.68667376,-1,33,-13,22,17,-9.114726067,3.639186621,0.154426008,0.309895873,-0.069946401,-0.153349161,-43,-18,4,41,176
1695162470354269900,-8.659827232,-2.072181463,0.18674773,-1.098891258,0.589015305,0.409686059,-1,54,-7,29,16,-8.925583839,3.816357613,0.225054964,0.369050533,-0.100722812,-0.039702907,-44,-21,-1,37,173
1695162470355269900,-8.686163902,-2.063801765,0.142454997,-1.107817769,0.597275674,0.391033709,0,52,-9,24,16,-8.918401718,3.815160513,0.234631762,0.368117899,-0.102188364,-0.032241959,-45,-23,-1,36,173
1695162470356269900,-8.713697433,-2.062604666,0.10055647,-1.115012288,0.603004575,0.37238133,-1,53,-7,23,16,-8.913613319,3.815160513,0.245405674,0.366918862,-0.103920363,-0.024781011,-47,-22,-1,38,176
1695162470357269900,-8.744821548,-2.061407566,0.05865794,-1.120741129,0.605935633,0.353329241,-3,54,-11,24,23,-8.911218643,3.813963413,0.258573771,0.36518684,-0.105785601,-0.017453292,-44,-19,1,37,172
1695162470358269900,-8.774748802,-2.067393064,0.038307227,-1.123805523,0.607267976,0.33401072,-3,54,-7,23,15,-8.906430244,3.812766314,0.269347697,0.363188356,-0.10778407,-0.010392036,-44,-21,1,37,174
1695162470399244400,-9.502586365,-2.328361034,-0.265756398,-0.873330772,0.228624806,0.061552834,-3,55,-6,27,17,-8.927978516,3.669114113,0.447715729,0.278852999,-0.18798928,0.062218986,-44,-22,1,36,174
1695162470400244400,-9.556455612,-2.322375536,-0.270544797,-0.84974885,0.19118683,0.0528928,-1,59,-7,26,16,-8.937555313,3.655946016,0.450109929,0.27379021,-0.19478406,0.062352221,-44,-21,-1,38,176
1695162470401244400,-9.610325813,-2.312798738,-0.276530296,-0.826300144,0.153349161,0.045032158,-1,57,-9,26,14,-8.948328972,3.64277792,0.457292527,0.268993855,-0.20157887,0.062085759,-44,-20,1,36,172
1695162470402244400,-9.666589737,-2.299630642,-0.277727395,-0.803650856,0.115644716,0.037437979,-2,56,-7,24,15,-8.959102631,3.630806923,0.463278025,0.264464021,-0.208506882,0.061419602,-45,-19,1,36,173
1695162470403244400,-9.725247383,-2.288856745,-0.280121595,-0.781401217,0.078473203,0.03011026,-3,56,-9,27,16,-8.968679428,3.620033026,0.464475125,0.260333836,-0.215967834,0.060353752,-44,-27,5,36,174
1695162470439221800,-9.417592049,-2.525882721,0.10055647,-0.402491599,-0.287912726,0.073143952,-3,54,-8,23,14,-9.135076523,3.523067713,0.417788208,0.273656964,-0.341871351,0.006528331,-44,-21,1,38,178
1695162470440221800,-9.32421875,-2.521094322,0.111330383,-0.384505361,-0.287246555,0.078606427,-5,57,-8,20,14,-9.13866806,3.523067713,0.411802679,0.280052066,-0.34906584,0.004929556,-45,-18,1,38,174
1695162470441221800,-9.228450775,-2.516305923,0.119710088,-0.368117899,-0.284981638,0.08313629,-7,52,-12,19,15,-9.142259598,3.525461912,0.40821138,0.287246555,-0.356393576,0.003330781,-41,-19,0,38,176
1695162470442221800,-9.127894402,-2.507926226,0.119710088,-0.352929562,-0.281384379,0.086733535,-8,53,-8,26,14,-9.143456459,3.526659012,0.397437483,0.294840723,-0.36412096,0.002398162,-45,-18,1,41,176
1695162470443221800,-9.033323288,-2.495955229,0.123301387,-0.339206725,-0.276987731,0.089931086,-6,53,-10,24,14,-9.145850182,3.530250311,0.385466486,0.303101093,-0.371981621,0.0021317,-44,-19,-2,37,176
1695162470476201300,-8.322244644,-2.209848166,0.122104287,-0.336009204,-0.14748697,-0.028378254,-2,51,-7,26,14,-9.051279068,3.677493811,0.195127442,0.517336905,-0.510542154,0.07474272,-44,-18,-1,42,173
1695162470477201300,-8.358158112,-2.208651066,0.1316811,-0.341738135,-0.143623278,-0.040768761,-8,53,-11,23,14,-9.06205368,3.684676409,0.174776718,0.52826184,-0.516404271,0.082203679,-44,-22,5,37,173
1695162470478201300,-8.386888504,-2.208651066,0.136469498,-0.345468611,-0.141358346,-0.048895866,-12,53,-13,22,14,-9.078812599,3.691859007,0.156820208,0.538787127,-0.522133231,0.089664623,-44,-20,0,36,173
1695162470479201300,-8.455122948,-2.218227863,0.150834709,-0.35266307,-0.137761101,-0.064750381,-7,54,-9,26,14,-9.101557732,3.699041605,0.143652096,0.549179137,-0.527995408,0.097525269,-44,-25,-1,40,174
1695162470480201300,-8.507795334,-2.23019886,0.16639702,-0.357192963,-0.136029094,-0.076208271,-4,53,-11,20,14,-9.129091263,3.705027103,0.128089786,0.559304774,-0.5339908,0.105119444,-44,-21,-2,38,170
1695162470511197800,-9.300276756,-2.424129248,0.25977087,-0.183459431,-0.140692189,-0.241814688,-6,49,-6,22,14,-9.072827339,3.823540211,-0.141257897,0.655231237,-0.561436415,0.207973972,-44,-23,0,37,174
1695162470512197800,-9.320627213,-2.401384354,0.246602774,-0.170802444,-0.14282389,-0.249808565,-6,48,-6,24,14,-9.036913872,3.82473731,-0.158017308,0.654698312,-0.557173014,0.213169977,-44,-23,0,37,173
1695162470513197800,-9.337387085,-2.371456861,0.233434662,-0.159211323,-0.144689128,-0.258068919,-1,45,-6,24,14,-8.997409821,3.828328609,-0.174776718,0.653898895,-0.552243471,0.218366012,-44,-21,-1,39,173
1695162470514197800,-9.348160744,-2.343923569,0.223857865,-0.148952529,-0.146554366,-0.266462475,-4,45,-7,26,15,-8.961497307,3.828328609,-0.187944829,0.652699828,-0.546514511,0.223695248,-44,-21,2,41,174
1695162470515197800,-9.357737541,-2.315192938,0.208295554,-0.140159264,-0.14801991,-0.274989277,-2,46,-6,22,15,-8.923190117,3.82713151,-0.191536129,0.651367545,-0.540119469,0.229290962,-44,-21,4,40,176
1695162470544164700,-9.239224434,-1.905784607,0.33518824,-0.178529859,-0.06008729,-0.414615631,-8,42,-6,22,14,-8.406042099,3.714603901,-0.033518825,0.557972431,-0.327082694,0.351330757,-47,-25,-2,38,172
1695162470545164700,-9.226056099,-1.904587507,0.348356336,-0.186124057,-0.049428791,-0.416747332,-3,46,-6,24,14,-8.409633636,3.701435804,-0.016759412,0.549179137,-0.316024512,0.354528338,-44,-20,4,42,176
1695162470546164700,-9.210494041,-1.905784607,0.359130263,-0.193584993,-0.038370594,-0.418212861,-4,44,-4,26,14,-8.418013573,3.691859007,0.003591303,0.539986193,-0.305632442,0.356926501,-46,-20,2,40,176
1695162470547164700,-9.193734169,-1.911770105,0.377086759,-0.200779468,-0.027312404,-0.418879032,-3,44,-6,20,14,-8.432378769,3.68108511,0.026336219,0.530260324,-0.295906603,0.358658493,-44,-20,3,37,170
1695162470548164700,-9.178172112,-1.921346903,0.393846184,-0.207441032,-0.016520673,-0.419012249,-7,42,-6,22,14,-8.446743965,3.670311213,0.050278235,0.520001531,-0.28671363,0.359990805,-44,-21,0,36,172
1695162470581143000,-8.834604263,-1.946485996,0.48482585,-0.191053599,0.056490045,-0.377310872,-4,38,-4,22,14,-8.805873871,3.509899616,0.37110126,0.248343036,-0.220497698,0.273390502,-46,-18,0,40,172
1695162470582143000,-8.821435928,-1.929726601,0.48123455,-0.187589586,0.052093416,-0.377310872,-10,38,-5,20,15,-8.805873871,3.500322819,0.378283858,0.234087273,-0.219431862,0.264597237,-45,-20,3,37,173
1695162470583143000,-8.805873871,-1.908178806,0.470460624,-0.184791744,0.047030624,-0.377710581,-7,41,-5,18,14,-8.802282333,3.488351822,0.379480958,0.220364481,-0.218499228,0.25553751,-45,-21,1,38,169
1695162470584143000,-8.790311813,-1.886630893,0.459686726,-0.182793275,0.041168455,-0.378909618,-8,37,-6,22,15,-8.796297073,3.479972124,0.380678058,0.207441032,-0.217166916,0.246877491,-44,-21,-1,36,172
1695162470585143000,-8.77834034,-1.868674397,0.452504128,-0.181860641,0.034906585,-0.380375206,-6,42,-3,18,14,-8.785523415,3.470395327,0.381875157,0.195317,-0.215834603,0.238217458,-46,-22,1,36,173
1695162470616143700,-8.717288017,-1.502361536,0.270544797,-0.350931078,-0.084868304,-0.424874425,-6,42,0,22,14,-8.359354973,3.228580952,0.365115762,0.193451747,-0.158944875,0.174399704,-44,-24,0,36,173
1695162470617143700,-8.726864815,-1.495178938,0.252588272,-0.365719765,-0.088732004,-0.424874425,-8,39,2,24,14,-8.337807655,3.221398354,0.37229836,0.205575794,-0.155480847,0.176398173,-44,-22,3,38,176
1695162470618143700,-8.74003315,-1.48679924,0.241814375,-0.380508423,-0.091929555,-0.424208283,-5,39,3,23,15,-8.319850922,3.214215755,0.384269387,0.218366012,-0.152150065,0.178396642,-44,-24,3,37,173
1695162470619143700,-8.752004623,-1.483207941,0.226252064,-0.394897372,-0.094993874,-0.423142403,-7,34,4,26,14,-8.301894188,3.211821556,0.395043284,0.231422648,-0.14908576,0.180661559,-45,-20,1,31,170
1695162470620143700,-8.763975143,-1.479616642,0.213083953,-0.409019887,-0.0976585,-0.421676874,-8,37,5,23,14,-8.283937454,3.209427357,0.40940848,0.24514547,-0.146021441,0.183326185,-44,-20,-2,40,176
1695162470689078500,-9.042900085,-1.758541107,0.113724582,-0.4981516,-0.069147013,-0.274589568,-6,33,4,20,14,-8.325836182,3.396175146,0.678756177,0.347600311,-0.122705974,0.209306285,-43,-21,1,36,172
1695162470690078500,-9.047688484,-1.78248322,0.120907187,-0.490424216,-0.060886677,-0.260733545,-7,33,7,24,14,-8.348581314,3.398569345,0.685938776,0.341738135,-0.124171518,0.207973972,-44,-21,0,38,172
1695162470691078500,-9.054870605,-1.807622313,0.124498487,-0.481231242,-0.052093416,-0.24674426,-8,37,8,24,14,-8.367734909,3.399766445,0.688332975,0.335343033,-0.125903517,0.205975503,-44,-21,0,37,173
1695162470692078500,-9.057265282,-1.837549806,0.128089786,-0.47057274,-0.042500768,-0.232355282,-4,38,9,24,14,-8.390480042,3.396175146,0.687135875,0.328415006,-0.127635539,0.203710571,-44,-21,-1,36,174
1695162470693078500,-9.059659004,-1.861491799,0.130484,-0.458715141,-0.032108728,-0.217699856,-10,35,3,22,14,-8.410830498,3.390189648,0.690727174,0.320954055,-0.129500762,0.201179162,-46,-19,-2,42,176
1695162470733052900,-9.148244858,-2.027888775,0.37229836,-0.180928022,0.158012256,0.005462481,-6,36,9,22,14,-8.667010307,3.226186752,0.648828685,0.2669954,-0.132831544,0.09246248,-44,-23,-1,37,176
1695162470734052900,-9.154230118,-2.030282974,0.392649084,-0.16827105,0.164274111,0.013056661,-6,38,8,23,13,-8.668207169,3.227383852,0.648828685,0.271258801,-0.130033687,0.085401222,-44,-20,3,37,174
1695162470735052900,-9.157821655,-2.035071373,0.414196908,-0.156013787,0.170136288,0.020251149,-6,33,5,20,16,-8.66940403,3.230975151,0.641646028,0.275788665,-0.126969382,0.078872897,-45,-20,1,37,173
1695162470736052900,-9.161413193,-2.039859772,0.436941803,-0.144022971,0.175332308,0.02691271,-6,37,6,22,14,-8.665813446,3.23576355,0.63326633,0.280718207,-0.123771824,0.072477795,-45,-20,-2,36,173
1695162470737052900,-9.163806915,-2.039859772,0.456095427,-0.13243185,0.180128634,0.033441041,-4,35,3,18,14,-8.665813446,3.238157749,0.634463429,0.285781026,-0.120441042,0.066215925,-44,-19,0,40,174
1695162470770032900,-9.3685112,-1.993172884,0.766144514,0.056889739,0.162675351,0.09739203,-3,37,5,19,14,-8.56046772,3.438073635,0.766144514,0.368117899,-0.077540584,0.026246555,-44,-23,3,37,173
1695162470771032900,-9.385271072,-1.977610588,0.78050977,0.062751912,0.156679943,0.098990813,-6,35,3,22,14,-8.55448246,3.445256233,0.774524271,0.369183779,-0.076741189,0.026779478,-43,-21,-1,33,173
1695162470772032900,-9.403226852,-1.97042799,0.791283667,0.067947932,0.150950998,0.100589581,-10,37,7,22,14,-8.5484972,3.450044632,0.782903969,0.370116383,-0.076075032,0.027312404,-44,-20,0,37,174
1695162470773032900,-9.418789864,-1.962048292,0.810437262,0.072078094,0.14495559,0.10258805,-6,35,7,24,14,-8.547300339,3.45722723,0.790086567,0.370782524,-0.075675346,0.027712099,-45,-20,0,37,172
1695162470774032900,-9.431957245,-1.956062794,0.824802458,0.075542115,0.138960183,0.104852989,-8,36,-1,25,15,-8.540117264,3.466804028,0.800860465,0.370782524,-0.075408876,0.028245023,-46,-21,0,36,174
1695162470807011600,-9.24760437,-1.33955586,-0.666785181,0.195317,0.254205197,-0.398361385,-7,35,8,24,14,-8.622717857,3.353079557,0.59256494,0.10778407,-0.147087291,0.228358343,-45,-20,0,33,172
1695162470808011600,-9.22725296,-1.362300754,-0.657208383,0.183459431,0.260333836,-0.396096468,-8,36,6,23,14,-8.617929459,3.348291159,0.59256494,0.10778407,-0.14495559,0.226226643,-44,-21,-1,36,173
1695162470809011600,-9.208099365,-1.383848548,-0.645237386,0.172534451,0.266595691,-0.393831551,-4,33,7,23,14,-8.616731644,3.349488258,0.588973641,0.107251145,-0.142557427,0.224094957,-44,-20,-1,36,174
1695162470810011600,-9.186552048,-1.405396342,-0.638054729,0.162542105,0.273257256,-0.391566604,-8,32,7,22,14,-8.621520042,3.348291159,0.585382342,0.106984682,-0.140958652,0.222629398,-44,-20,1,36,173
1695162470811011600,-9.168595314,-1.423352957,-0.623689532,0.153482378,0.280185282,-0.389168471,-7,33,4,23,14,-8.61912632,3.349488258,0.584185243,0.106185302,-0.138427258,0.220231235,-44,-20,0,40,176
1695162470841991200,6.034585476,-4.400542736,7.389703751,-0.142157733,-0.238350689,-0.159211323,31,21,-123,-8,15,-9.168595314,3.699041605,0.858321309,0.025447167,-0.04769678,0.073943339,-41,-19,1,34,172
1695162470842991200,6.036979675,-4.393360138,7.386112213,-0.140692189,-0.23528637,-0.160676882,31,21,-116,-13,14,-9.178172112,3.697844505,0.870292306,0.025846859,-0.048229709,0.076874427,-46,-21,0,33,174
1695162470843991200,6.036979675,-4.384980202,7.384915352,-0.13975957,-0.23222205,-0.162275642,25,22,-117,-5,14,-9.18296051,3.695450306,0.879869103,0.02691271,-0.049162328,0.079805516,-44,-20,1,35,174
1695162470844991200,6.040570736,-4.375403404,7.381323814,-0.138960183,-0.229290962,-0.163607955,26,22,-122,-8,14,-9.184157372,3.687070608,0.894234359,0.028245023,-0.050627869,0.082869835,-44,-21,2,36,174
1695162470845991200,6.047753334,-4.365826607,7.374141216,-0.138427258,-0.226226643,-0.165073514,29,22,-117,-12,15,-9.186552048,3.683479309,0.908599555,0.029977029,-0.05249311,0.085934147,-46,-19,3,37,174
1695162470877970200,-9.279925346,-2.126051188,-0.622492433,0.52466464,-0.009992342,1.084235907,-1,25,3,20,14,-1.997961283,6.567295074,2.659958124,0.099923424,-0.804450214,4.365588188,-18,-24,126,146,247
1695162470878970200,-9.306262016,-2.144007683,-0.618901134,0.529860616,-0.01185758,1.09596014,-1,25,-1,23,14,-1.89620769,6.355408192,2.603694439,0.122439511,-0.750358343,4.365588188,-19,-19,126,148,248
1695162470879970200,-9.325415611,-2.159569979,-0.620098233,0.534790218,-0.013722817,1.106885076,-3,25,1,22,13,-1.793257117,6.161478043,2.559401512,0.140159264,-0.699863672,4.365588188,-16,-20,127,158,250
1695162470880970200,-9.342175484,-2.176329374,-0.626083732,0.539453328,-0.015721286,1.116877437,-2,27,1,18,13,-1.661576033,5.997475147,2.503137827,0.155081168,-0.652699828,4.365588188,-11,-22,129,148,254
1695162470881970200,-9.358934402,-2.188300371,-0.629675031,0.544116378,-0.017852986,1.125937223,0,25,4,19,14,-1.466448545,5.760449409,2.45285964,0.178396642,-0.597542107,4.365588188,-15,-20,130,153,260
1695162470913950500,-9.119514465,-1.70946002,-0.587776542,-0.132565081,-0.049295556,0.003330781,-3,27,-2,16,14,1.341950059,4.12640667,2.886210203,-0.37811026,-0.029444104,2.870200634,9,-23,155,150,305
1695162470914950500,-9.115922928,-1.721431017,-0.590170741,-0.140692189,-0.048229709,0.00106585,-2,23,-1,15,13,1.612494826,4.131195068,2.871845007,-0.506545186,0.034640122,2.699265003,13,-22,158,147,310
1695162470915950500,-9.113529205,-1.735796213,-0.59495914,-0.14801991,-0.047163859,-0.001199081,-3,22,3,15,12,1.827973008,4.109647274,2.871845007,-0.605003059,0.089131698,2.567898989,18,-23,157,150,310
1695162470916950500,-9.109937668,-1.74776721,-0.59615624,-0.154415011,-0.046098009,-0.003597243,-2,26,-1,18,10,2.069787264,4.086902142,2.877830505,-0.703327715,0.149885148,2.43346858,15,-21,158,148,311
1695162470917950500,-9.107542992,-1.760935307,-0.604535937,-0.160143942,-0.045298621,-0.005862175,-4,22,-6,14,12,2.294842243,4.025850296,2.894589901,-0.804849863,0.21663399,2.298505306,18,-27,158,146,314
1695162470949953100,-9.038111687,-1.853112102,-0.650025785,-0.148286372,-0.026513018,-0.037437979,-1,23,0,18,13,3.877409697,2.49116683,2.947262287,-1.876295567,1.608900428,0.314825416,15,-29,156,139,314
1695162470950953100,-9.040505409,-1.851915002,-0.651222885,-0.146154657,-0.024248086,-0.037304748,-1,25,-5,18,14,3.843890905,2.421735048,2.979583979,-1.848317027,1.60596931,0.269526809,14,-27,155,137,318
1695162470951953100,-9.042900085,-1.847126603,-0.647631586,-0.144289434,-0.021983154,-0.037171517,-4,25,0,18,14,3.829525709,2.364274263,3.017891169,-1.817807078,1.590914249,0.231289431,17,-27,155,136,314
1695162470952953100,-9.048885345,-1.841141105,-0.641646028,-0.142557427,-0.019584993,-0.036372125,-2,19,1,16,12,3.811569214,2.333149672,3.056198359,-1.79302609,1.575059772,0.210638598,14,-31,157,136,320
1695162470953953100,-9.051279068,-1.841141105,-0.641646028,-0.141225114,-0.01718683,-0.03543951,-1,25,1,18,13,3.79480958,2.312798738,3.141192675,-1.748393655,1.54574883,0.1854579,18,-23,155,138,317
1695162470985907700,-9.147047997,-1.899798989,-0.565031588,-0.139892802,0.015188362,0.032774884,-2,25,0,17,12,4.355052948,5.522226334,5.61919117,-1.984879017,1.194684505,-0.564634025,21,-12,161,130,312
1695162470986907700,-9.147047997,-1.908178806,-0.565031588,-0.139093414,0.016387442,0.036238898,-2,27,-3,16,13,4.355052948,5.501875401,5.634753704,-2.030044556,1.212271094,-0.614329278,19,-11,160,132,316
1695162470987907700,-9.145850182,-1.917755604,-0.55665189,-0.137894332,0.017320061,0.039303213,-1,25,1,18,14,4.338293552,5.436035156,5.658695698,-2.065484047,1.223862171,-0.655897439,20,-9,160,132,314
1695162470988907700,-9.145850182,-1.927332401,-0.555454791,-0.136828482,0.01825268,0.042234302,-2,22,1,18,13,4.311957359,5.327098846,5.68982029,-2.089332342,1.229591012,-0.686940312,21,-15,158,127,312
1695162470989907700,-9.145850182,-1.938106298,-0.551863492,-0.136029094,0.018918836,0.045032158,-6,21,-1,16,12,4.272452831,5.182249546,5.694608688,-2.099191427,1.228392005,-0.706791699,16,-16,158,130,312
1695162471020888200,-9.097966194,-1.939303398,-0.526724398,-0.202644721,0.000666156,0.013722817,-3,23,-1,22,12,3.888183594,6.221333027,7.325059891,-1.023882151,0.412483901,-0.437264919,21,-2,159,130,309
1695162471021888200,-9.093177795,-1.939303398,-0.524330199,-0.210505351,-0.001199081,0.008660031,-3,22,-3,19,13,3.878606796,6.384139061,7.435193539,-1.044799328,0.401958644,-0.452586502,21,-5,158,128,309
1695162471022888200,-9.093177795,-1.940500498,-0.523133099,-0.21863246,-0.002931087,0.003597243,-1,25,0,18,12,3.875015497,6.518214226,7.533355713,-1.076108694,0.395563543,-0.47270444,21,-2,160,127,308
1695162471023888200,-9.089587212,-1.944091797,-0.52073884,-0.226759583,-0.0042634,-0.001332312,-3,21,-4,18,13,3.870227098,6.621164799,7.61954689,-1.116211295,0.392898917,-0.497485459,21,-2,160,127,308
1695162471024888200,-9.084798813,-1.945288897,-0.523133099,-0.234886676,-0.005595712,-0.006128637,-3,21,-6,13,21,3.8654387,6.690596581,7.686584473,-1.161376715,0.39423123,-0.526929557,22,-3,158,129,308
1695162471056892000,-9.10036087,-1.989581585,-0.55904609,-0.336009204,-0.011324655,-0.059287902,-1,21,-1,15,13,4.297592163,5.078101635,7.931990147,-1.216800928,0.253139347,-0.782999992,7,1,158,130,298
1695162471057892000,-9.10036087,-1.985990286,-0.569819987,-0.338140905,-0.012124043,-0.059687596,-3,21,-6,18,14,4.327519417,5.025429249,7.969100475,-1.18162787,0.204909652,-0.769543648,9,-1,158,127,296
1695162471058892000,-9.099164009,-1.987187386,-0.573411286,-0.340139359,-0.013056661,-0.059954058,-1,27,-4,22,14,4.362235546,4.972756863,8.014590263,-1.148320079,0.153482378,-0.75835222,6,0,158,127,295
1695162471059892000,-9.097966194,-1.990778685,-0.578199685,-0.341871351,-0.014388974,-0.060220521,-1,25,-1,16,13,4.404133797,4.914099216,8.078036308,-1.117277145,0.099523738,-0.749692142,6,3,158,128,295
1695162471060892000,-9.09437561,-1.993172884,-0.586579442,-0.344136298,-0.015721286,-0.059954058,-1,19,-5,17,12,4.461595058,4.854243755,8.146271706,-1.089431763,0.044898927,-0.743963242,11,1,158,125,296
1695162471091871600,-9.075222015,-2.014720678,-0.694318473,-0.338940263,-0.016920367,-0.026246555,-4,21,-3,16,12,3.501519918,2.925714493,7.886500359,-1.103154659,-0.343203664,-1.302601933,15,-2,156,127,295
1695162471092871600,-9.081207275,-2.013523579,-0.700303972,-0.3365421,-0.015588055,-0.022249617,-4,25,-2,20,12,3.331531763,2.889801502,7.812280178,-1.107551336,-0.336675346,-1.336975455,17,-2,156,124,296
1695162471093871600,-9.083600998,-2.012326479,-0.70628953,-0.33401072,-0.014122511,-0.018119449,-2,21,0,18,12,3.046621561,2.846705914,7.688978672,-1.111814737,-0.327082694,-1.385071993,14,1,157,126,298
1695162471094871600,-9.083600998,-2.011129379,-0.708683729,-0.331212848,-0.012390506,-0.013722817,-2,19,-4,14,14,2.721010208,2.82036972,7.539340973,-1.111681461,-0.318822354,-1.427972436,19,-1,155,124,295
1695162471095871600,-9.087192535,-2.012326479,-0.70628953,-0.32828176,-0.010525269,-0.008926493,-1,22,-2,15,14,2.360682964,2.817975283,7.371747017,-1.10635221,-0.314692199,-1.465143919,17,0,156,126,296
1695162471127829600,-9.081207275,-2.096123695,-0.802057564,-0.213036761,0.030243492,0.108716697,-1,21,-1,20,13,-4.246116638,8.175002098,6.827065945,-0.94221133,-0.286447167,-1.198548198,20,-2,140,114,288
1695162471128829600,-9.078812599,-2.103306293,-0.806845963,-0.203977033,0.032774884,0.115511484,-1,25,-6,20,13,-4.450820923,8.327033043,6.839036942,-0.939546704,-0.26233232,-1.14005971,20,-1,139,121,292
1695162471129829600,-9.0740242,-2.111685991,-0.808043063,-0.19478406,0.03543951,0.122439511,-3,19,-1,19,12,-4.626794815,8.438364029,6.842628479,-0.928355217,-0.239150077,-1.076774836,20,-2,138,125,294
1695162471130829600,-9.065644264,-2.11647439,-0.806845963,-0.185591117,0.038237367,0.12936753,-1,25,-4,24,13,-4.772840977,8.503006935,6.845022678,-0.907704413,-0.217300147,-1.008293986,20,0,139,118,293
1695162471131829600,-9.056067467,-2.124854088,-0.806845963,-0.175865233,0.041434918,0.13656202,-1,22,-3,21,9,-4.880579948,8.530540466,6.842628479,-0.877061248,-0.196915776,-0.934750378,20,2,137,121,292
1695162471164829700,-8.977059364,-2.327163935,-0.555454791,0.041434918,0.125637069,0.298038274,-1,25,-3,14,12,-1.391031146,6.417657852,7.286752701,0.24567841,0.018385911,0.359191418,20,-1,138,117,295
1695162471165829700,-8.987833023,-2.335543871,-0.541089594,0.053425729,0.128434911,0.306165397,-4,26,-3,17,14,-1.136048675,6.278793812,7.32745409,0.26592955,0.023981623,0.386237353,20,-2,133,116,295
1695162471166829700,-8.998606682,-2.345120668,-0.527921498,0.065150075,0.130966306,0.314026028,-2,21,-1,18,13,-0.89064306,6.143521786,7.366958618,0.279652387,0.028911179,0.408353746,21,-2,139,116,293
1695162471167829700,-9.015366554,-2.357091665,-0.509964943,0.076208271,0.133098006,0.321087271,-1,21,-6,18,13,-0.654814184,6.010643482,7.404068947,0.287646264,0.032908116,0.425940275,20,-2,137,115,295
1695162471168829700,-9.027337074,-2.365471363,-0.497993946,0.086600304,0.134430319,0.328015327,-1,19,-3,17,13,-0.428562105,5.876567841,7.431602001,0.29031086,0.035839204,0.439130157,21,0,138,113,295
1695162471207781400,-9.373299599,-2.256535053,-0.422576606,-0.010924961,0.043433387,0.257003069,-1,26,-6,18,14,2.217030764,3.992331266,7.860164165,0.104453288,-0.018785605,0.300836146,20,0,141,111,290
1695162471208781400,-9.388861656,-2.248155355,-0.44532153,-0.031709034,0.032908116,0.239549771,-3,26,-6,18,14,2.26730895,3.948038578,7.897274494,0.103920363,-0.019451762,0.283915788,20,0,137,113,292
1695162471209781400,-9.402029991,-2.23259306,-0.466869324,-0.053292494,0.021849923,0.220764175,-1,21,-6,18,14,2.313995838,3.915716887,7.935581684,0.104453288,-0.019718224,0.2669954,20,0,137,114,292
1695162471210781400,-9.411606789,-2.218227863,-0.493205547,-0.075142421,0.010125575,0.200513005,-1,19,-5,22,14,2.353500366,3.891774893,7.969100475,0.105652377,-0.019984685,0.249941811,23,-1,136,112,293
1695162471211781400,-9.418789864,-2.197877169,-0.52073884,-0.09739203,-0.0021317,0.178529859,-2,22,-6,19,12,2.385822058,3.878606796,8.009801865,0.107251145,-0.019851454,0.232888207,20,-1,137,111,294
1695162471242761200,-9.11233139,-1.78248322,-0.969651699,-0.64257431,-0.126836136,-0.275655419,-1,25,-6,19,11,2.19189167,4.0090909,8.353369713,0.162142411,0.019718224,-0.055690661,20,-2,132,110,286
1695162471243761200,-9.080010414,-1.775300503,-0.984016895,-0.67161864,-0.120707504,-0.290177643,-2,22,-4,24,14,2.149993181,4.010287762,8.333019257,0.17346707,0.021983154,-0.068347625,20,-1,132,108,284
1695162471244761200,-9.054870605,-1.776497602,-0.991199493,-0.699064314,-0.113113321,-0.302967817,0,22,-6,19,14,2.110488892,4.007893562,8.315062523,0.186523736,0.023715161,-0.080338441,21,0,135,111,285
1695162471245761200,-9.026140213,-1.78368032,-1.001973391,-0.724777937,-0.104053594,-0.313892812,-4,21,-6,18,13,2.068590164,4.012681961,8.293514252,0.200912714,0.024781011,-0.091529861,21,-2,131,110,285
1695162471246761200,-8.999804497,-1.795651317,-1.006761789,-0.748359859,-0.093128636,-0.322686076,-2,21,-6,16,13,2.021903276,4.022258759,8.265981674,0.216500759,0.025447167,-0.101921894,20,1,136,108,281
1695162471283737700,-8.763975143,-2.290053844,-0.901416957,-0.694134772,0.194650844,-0.136828482,-1,23,-1,16,10,0.902614057,4.478354454,7.497442722,0.443127096,-0.007061256,-0.17453292,20,-2,128,108,279
1695162471284737700,-8.767566681,-2.328361034,-0.888248801,-0.664957106,0.204376727,-0.114578865,-1,19,-4,22,14,0.857124209,4.479551315,7.429207802,0.449522227,-0.007727412,-0.174799383,21,-2,129,105,282
1695162471285737700,-8.771158218,-2.364274263,-0.875080705,-0.633381307,0.213036761,-0.091929555,0,25,-5,22,12,0.81881696,4.474762917,7.363367558,0.456450224,-0.008260337,-0.174399704,23,-1,129,109,279
1695162471286737700,-8.77834034,-2.400187254,-0.85592711,-0.599140882,0.220497698,-0.069013782,-1,26,-5,19,14,0.78170687,4.466383457,7.298723698,0.463378251,-0.008660031,-0.173733547,22,-2,127,105,282
1695162471287737700,-8.791508675,-2.437297344,-0.842759013,-0.562635541,0.226626337,-0.046098009,-1,25,-3,18,14,0.749385118,4.453215122,7.235277653,0.470839173,-0.008793262,-0.172267988,21,-2,126,108,281
1695162471321720200,-9.119514465,-2.651578426,-0.694318473,0.318289429,0.118042871,0.261799395,-3,26,-1,22,14,0.622492433,4.006696701,6.31829834,0.647503793,0.071278714,-0.205575794,10,-6,126,98,283
1695162471322720200,-9.135076523,-2.626439333,-0.697909772,0.353462487,0.105519146,0.267528325,-2,23,-6,20,14,0.640448928,3.981557369,6.28597641,0.654032171,0.084601834,-0.214901984,13,-3,126,98,281
1695162471323720200,-9.149441719,-2.597708941,-0.702698171,0.385704458,0.092595711,0.272191435,-1,22,-6,16,14,0.652419984,3.961206675,6.265625954,0.66016084,0.098857582,-0.226226643,11,-5,126,97,279
1695162471324720200,-9.165003777,-2.561795712,-0.707486629,0.414482385,0.079805516,0.275522202,-1,22,-3,22,14,0.647631586,3.94205308,6.253654957,0.663891256,0.115111791,-0.239949465,13,-3,127,97,280
1695162471325720200,-9.174580574,-2.53067112,-0.713472128,0.439929545,0.067015313,0.277920365,-1,23,-4,23,14,0.645237386,3.918111086,6.234501362,0.66695559,0.133897394,-0.256070435,8,-3,128,101,279
1695162471354700000,-9.311050415,-1.845929503,-0.869095206,0.247543648,-0.076741189,0.126969382,-1,27,-6,22,14,0.621295333,3.690661907,5.640739441,0.696133256,0.619791746,-0.72717613,-5,-11,126,97,280
1695162471355700000,-9.308655739,-1.829170108,-0.882263303,0.208906576,-0.076208271,0.111514546,-1,26,-5,20,16,0.624886632,3.694253206,5.635950565,0.702128649,0.650568187,-0.754088819,-6,-13,127,100,281
1695162471356700000,-9.30386734,-1.818396211,-0.899022758,0.169869825,-0.074476264,0.095926493,0,29,-6,22,14,0.635660529,3.703830004,5.628767967,0.70852375,0.682410419,-0.781534433,-6,-13,127,95,280
1695162471357700000,-9.301473618,-1.811213613,-0.910993755,0.130433381,-0.072078094,0.079539053,-3,25,-6,20,13,0.640448928,3.714603901,5.621585369,0.713053584,0.703993857,-0.800186813,-5,-12,126,96,280
1695162471358700000,-9.296685219,-1.804031014,-0.922964752,0.091130167,-0.068747319,0.063151613,-1,19,-4,22,15,0.641646028,3.727771997,5.615600109,0.719715178,0.737434864,-0.828165412,-7,-12,126,97,280
1695162471391701100,-9.235632896,-2.164358377,-1.040280581,-0.375179172,0.070212863,-0.174399704,-1,25,-1,22,13,-0.208295554,4.16471386,5.378573895,0.803784072,1.42104435,-1.379476309,-15,-13,100,92,277
1695162471392701100,-9.234436035,-2.187103271,-1.039083481,-0.375445634,0.077274114,-0.180928022,-5,25,-6,20,14,-0.326808542,4.189853191,5.354631901,0.808047473,1.447024465,-1.414382815,-17,-14,99,89,278
1695162471393701100,-9.233239174,-2.211045265,-1.036689281,-0.37344715,0.083802447,-0.186790213,0,25,-5,22,14,-0.444124401,4.218583584,5.32111311,0.812977076,1.471139312,-1.450355291,-19,-15,97,88,278
1695162471394701100,-9.230844498,-2.23259306,-1.035492182,-0.36878407,0.09033078,-0.191586524,-1,21,-5,19,12,-0.561440289,4.249708176,5.27682066,0.81963861,1.493522167,-1.487393618,-21,-13,94,89,278
1695162471395701100,-9.230844498,-2.251746655,-1.035492182,-0.361856043,0.096326187,-0.195450217,-1,21,-6,19,14,-0.675164878,4.282029629,5.23611927,0.828032196,1.513506889,-1.525097966,-23,-13,93,85,274
1695162471426655900,-9.246406555,-2.221819162,-0.951695204,-0.003464012,0.131366,-0.166405827,-1,21,-5,16,14,-3.090914488,6.150704384,4.975151062,1.024814725,1.838324666,-2.190188408,-40,-18,16,68,247
1695162471427655900,-9.251194954,-2.201468468,-0.946906745,0.015188362,0.130166918,-0.162275642,-1,25,-4,19,14,-3.210624456,6.276399612,4.975151062,1.022949457,1.863372087,-2.213903427,-39,-13,19,63,244
1695162471428655900,-9.252392769,-2.175132275,-0.942118347,0.032641653,0.128834605,-0.158278719,-1,24,-6,23,14,-3.330334663,6.414066315,4.973954201,1.017753482,1.892150164,-2.235886812,-43,-13,13,63,243
1695162471429655900,-9.252392769,-2.151190281,-0.944512546,0.048629403,0.127369061,-0.154148534,0,29,-6,19,13,-3.451241732,6.550535679,4.954800606,1.008960247,1.925058126,-2.258136272,-41,-13,11,60,233
1695162471430655900,-9.255983353,-2.123656988,-0.937329948,0.063151613,0.125903517,-0.150418073,-3,23,-3,19,12,-3.575740337,6.665457726,4.915296078,1.000566602,1.959431767,-2.280519247,-43,-14,9,60,234
1695162471461637300,-9.18894577,-1.769315004,-0.884657502,0.054624807,0.122705974,-0.129500762,0,22,-1,23,14,-5.120000362,7.462726593,4.544194698,1.13179934,2.471972466,-2.377778053,-65,-11,-31,25,198
1695162471462637300,-9.18296051,-1.768117905,-0.877474904,0.045565084,0.124304749,-0.130433381,-1,22,-6,19,13,-5.158307552,7.514202118,4.633977413,1.128868341,2.483696699,-2.375246525,-64,-13,-31,24,200
1695162471463637300,-9.178172112,-1.766920805,-0.876277804,0.036372125,0.125903517,-0.131232768,-2,26,-4,25,14,-5.207388878,7.541735172,4.738125324,1.119542003,2.494621754,-2.374447346,-61,-11,-34,20,197
1695162471464637300,-9.174580574,-1.764526606,-0.870292306,0.027312404,0.127768755,-0.132298619,-1,21,-4,20,14,-5.23851347,7.550115108,4.872200489,1.110748768,2.509010553,-2.370983362,-68,-12,-33,12,196
1695162471465637300,-9.17098999,-1.765723705,-0.867898107,0.018652374,0.129633993,-0.133364469,-1,22,-4,18,11,-5.269638062,7.566874504,4.9763484,1.097692251,2.528196096,-2.366719723,-66,-9,-36,19,196
1695162471500614300,-9.077615738,-1.89620769,-0.683544576,-0.039169986,0.146820813,-0.149485439,-1,22,-5,20,14,-7.13232708,6.473921299,4.671087742,1.438897371,2.256004572,-2.431470156,-76,-9,-55,2,194
1695162471501614300,-9.071630478,-1.892616391,-0.676361978,-0.036238898,0.146554366,-0.150418073,-1,21,-6,20,14,-7.243657112,6.46314764,4.622006416,1.50418067,2.189122438,-2.440663099,-75,-7,-49,2,191
1695162471502614300,-9.070432663,-1.890222192,-0.673967779,-0.033174578,0.146021441,-0.151617154,-1,26,-5,20,13,-7.362170219,6.472724438,4.586093426,1.571595669,2.119176149,-2.449589729,-77,-13,-58,2,195
1695162471503614300,-9.069235802,-1.886630893,-0.66798228,-0.03011026,0.145222053,-0.152949467,-1,23,-5,20,14,-7.485471725,6.50384903,4.557363033,1.63607955,2.045765638,-2.459182024,-77,-10,-56,1,194
1695162471504614300,-9.065644264,-1.884236693,-0.661996782,-0.02691271,0.144289434,-0.154548228,-1,23,-6,20,14,-7.595604897,6.540958881,4.519055843,1.696033716,1.968091846,-2.469307661,-76,-11,-58,-1,194
1695162471545588500,-9.102754593,-1.732204914,-0.575805485,-0.02384839,0.111114852,-0.201312408,-2,25,-6,14,13,-8.057685852,6.685808182,3.969586372,1.857243538,0.37238133,-2.437332153,-76,-13,-59,-1,193
1695162471546588500,-9.10634613,-1.729810715,-0.572214186,-0.025180703,0.110581927,-0.202378258,0,18,-5,18,13,-8.098387718,6.689399719,3.944447279,1.81740725,0.311627865,-2.431470156,-74,-9,-59,-1,192
1695162471547588500,-9.114726067,-1.725022316,-0.567425787,-0.026646247,0.109915771,-0.203444093,0,25,-3,24,14,-8.127118111,6.68700552,3.930082083,1.788895845,0.272990793,-2.428006172,-75,-9,-57,-3,193
1695162471548588500,-9.123106003,-1.723825216,-0.572214186,-0.027712099,0.109249614,-0.20411025,-1,23,-5,20,13,-8.165425301,6.679822922,3.90374589,1.743597269,0.218099549,-2.423742533,-76,-11,-56,-3,196
1695162471549588500,-9.131484985,-1.722628117,-0.573411286,-0.028378254,0.108183771,-0.20464319,-1,25,-7,18,14,-8.206126213,6.670246124,3.875015497,1.695101142,0.166272581,-2.42054534,-76,-9,-61,-1,188
1695162471589563300,-9.166201591,-1.723825216,-0.586579442,-0.023315467,0.043033689,-0.206641659,-1,27,-4,22,14,-9.276334763,5.896918774,3.055001259,0.787130117,-0.230223581,-2.589082479,-71,-10,-57,-1,187
1695162471590563300,-9.159018517,-1.717839718,-0.588973641,-0.025313934,0.036771823,-0.206774876,-1,26,-6,18,14,-9.32421875,5.797559261,2.997540474,0.764214396,-0.220764175,-2.603871346,-71,-12,-56,-1,187
1695162471591563300,-9.15063858,-1.70946002,-0.588973641,-0.027712099,0.030376723,-0.207041353,-1,22,-6,15,14,-9.372102737,5.694608688,2.93648839,0.745695233,-0.209039822,-2.617993832,-71,-13,-57,-2,186
1695162471592563300,-9.137471199,-1.699883223,-0.587776542,-0.030643184,0.024114855,-0.207441032,-1,26,-6,18,13,-9.424775124,5.582081318,2.881421804,0.732372165,-0.195317,-2.631050587,-71,-11,-56,-2,188
1695162471593563300,-9.124302864,-1.690306425,-0.590170741,-0.033840735,0.01825268,-0.20824042,-1,22,-6,20,13,-9.475052834,5.461174011,2.829946518,0.725177646,-0.179062784,-2.642908096,-69,-15,-56,0,190
1695162471626542100,-8.847772598,-1.527500629,-0.66798228,-0.158145472,0.003464012,-0.223029092,-1,21,-6,17,14,-11.54603767,3.776853085,2.26850605,1.461546659,0.52359879,-2.630517721,-62,-13,-44,1,188
1695162471627542100,-8.8429842,-1.531091928,-0.66917938,-0.16467382,0.008127105,-0.219964772,-1,26,-7,22,13,-11.74595356,3.739742994,2.246958256,1.52816236,0.569563508,-2.629585028,-62,-13,-55,-1,187
1695162471628542100,-8.839392662,-1.534683347,-0.666785181,-0.170402765,0.013189893,-0.215967834,-1,23,-6,23,12,-11.88481712,3.738545895,2.250549555,1.574660063,0.600473166,-2.627986193,-63,-13,-49,0,196
1695162471629542100,-8.840589523,-1.538274646,-0.664390981,-0.175332308,0.018918836,-0.211437985,-1,25,-6,17,14,-12.09430981,3.769670486,2.252943754,1.645139337,0.648702919,-2.626920223,-61,-13,-47,-1,189
1695162471630542100,-8.835801125,-1.541865945,-0.665588081,-0.179462478,0.024381317,-0.205842257,-1,25,-7,18,14,-12.30021095,3.803189516,2.245761156,1.715219021,0.69813168,-2.629585028,-60,-11,-47,-1,189
1695162471660545900,-8.984241486,-1.680729628,-0.691924274,-0.108583458,0.094860643,0.003863706,-1,20,-6,19,14,-15.0296011,6.904877663,1.826775908,2.638378143,1.307131648,-2.972388983,-60,-12,-49,1,188
1695162471661545900,-8.993818283,-1.684320927,-0.699106872,-0.099124044,0.095660031,0.018385911,-1,32,-7,18,14,-14.99608231,7.131129742,1.807622313,2.623056412,1.298205137,-2.982248068,-61,-11,-45,0,192
1695162471662545900,-8.999804497,-1.689109325,-0.702698171,-0.089531392,0.096059717,0.032774884,-1,22,-5,24,14,-14.94221306,7.353790283,1.787271619,2.597342968,1.284748793,-2.987710714,-60,-12,-44,1,188
1695162471663545900,-9.009381294,-1.693897724,-0.707486629,-0.079405814,0.096459419,0.04729709,-1,25,-6,19,13,-14.86918926,7.570465565,1.768117905,2.561104298,1.266496181,-2.988376617,-61,-11,-45,-1,184
1695162471664545900,-9.017760277,-1.701080322,-0.718260527,-0.069013782,0.096725874,0.061552834,-1,25,-6,17,14,-14.76863289,7.773972988,1.74657011,2.514606476,1.244246602,-2.983580351,-61,-13,-49,-1,186
1695162471703498900,-9.172186852,-1.736993313,-0.74459672,0.086600304,0.092062794,0.284848392,2,22,-6,19,14,-10.7918644,8.069656372,1.302445769,0.310295552,0.439796329,-1.526296973,-63,-13,-44,1,186
1695162471704498900,-9.190143585,-1.738190413,-0.745793819,0.090863705,0.09033078,0.293641627,-1,26,-6,22,14,-10.58716011,7.863755703,1.272518158,0.195983157,0.395430326,-1.381474733,-59,-15,-41,5,184
1695162471705498900,-9.208099365,-1.736993313,-0.74339962,0.094594181,0.088065848,0.302168459,-1,23,-6,17,13,-10.41118622,7.648277283,1.238999367,0.089797854,0.352529854,-1.232388973,-60,-13,-43,4,186
1695162471706498900,-9.220070839,-1.740584612,-0.736217022,0.098058186,0.085267991,0.309629381,-1,19,-7,22,14,-10.25316906,7.435193539,1.206677675,-0.008393568,0.310428768,-1.080372095,-66,-15,-48,2,186
1695162471707498900,-9.235632896,-1.74896431,-0.726640224,0.100989282,0.081803977,0.316690654,-3,27,-6,18,13,-10.11909389,7.21253252,1.174355984,-0.0976585,0.269127101,-0.926356792,-61,-11,-40,4,185
1695162471739500800,-9.157821655,-2.030282974,-0.523133099,0.145355284,-0.037038282,0.365719765,-2,23,-6,19,12,-10.12268448,3.75650239,1.124077678,-0.08753293,-0.409153163,1.390134811,-61,-11,-34,10,184
1695162471740500800,-9.130288124,-2.035071373,-0.529118598,0.146820813,-0.042500768,0.363854527,-2,25,-6,19,11,-10.18134308,3.670311213,1.139639974,-0.015854517,-0.434600294,1.450222135,-60,-14,-37,8,196
1695162471741500800,-9.095572472,-2.039859772,-0.536301196,0.147886679,-0.047830015,0.361323118,-1,27,-6,22,13,-10.24000072,3.596091032,1.157596469,0.059421133,-0.458182245,1.503381371,-60,-16,-36,4,188
1695162471742500800,-9.058462143,-2.043451071,-0.538695395,0.148153126,-0.0528928,0.357725888,0,23,-6,20,14,-10.29147625,3.529053211,1.179144382,0.137361407,-0.479632467,1.549212813,-62,-14,-36,12,186
1695162471743500800,-9.017760277,-2.039859772,-0.547075093,0.147753447,-0.05768913,0.353595704,1,22,-7,19,14,-10.34175396,3.476380825,1.198297977,0.217699856,-0.498817772,1.588116288,-61,-15,-38,8,202
1695162471781456400,-8.243236542,-1.769315004,-0.760159016,-0.021183766,-0.082603365,0.173999995,-1,25,-7,24,13,-10.06761837,3.513490915,1.638831019,1.411584973,-0.527728915,1.464211226,-62,-13,-35,12,184
1695162471782456400,-8.231265068,-1.753752708,-0.772130072,-0.034240428,-0.080604896,0.16573967,2,21,-6,22,12,-9.99100399,3.536235809,1.667561531,1.436898947,-0.517336905,1.445159316,-60,-13,-35,12,184
1695162471783456400,-8.226476669,-1.736993313,-0.78050977,-0.046897396,-0.078606427,0.158012256,-1,20,-6,19,14,-9.909601212,3.555389643,1.701080322,1.457150102,-0.506278694,1.427306294,-60,-18,-33,12,185
1695162471784456400,-8.231265068,-1.723825216,-0.790086567,-0.058888208,-0.076874427,0.151617154,-1,25,-6,19,12,-9.827000618,3.578134537,1.733402014,1.472072005,-0.494687587,1.411052108,-60,-16,-35,13,183
1695162471785456400,-8.240841866,-1.71065712,-0.804451764,-0.070212863,-0.075275652,0.146154657,-2,27,-8,18,14,-9.745597839,3.60566783,1.771709204,1.481930971,-0.482297063,1.396529794,-59,-13,-34,13,184
1695162471817434200,-9.162610054,-1.683123827,-1.036689281,-0.103254206,-0.092595711,0.305099547,0,22,-6,18,12,-8.793902397,3.664325714,2.327163935,0.926756501,-0.197715163,1.269960165,-60,-18,-36,13,184
1695162471818434200,-9.216479301,-1.699883223,-1.043871999,-0.094327718,-0.095260337,0.330013782,-1,21,-5,24,14,-8.7843256,3.637989521,2.353500366,0.878926516,-0.190120965,1.256503701,-62,-17,-37,15,185
1695162471819434200,-9.273940086,-1.717839718,-1.057040095,-0.084202148,-0.098058186,0.356260329,-1,25,-6,24,13,-8.774748802,3.612850428,2.372653961,0.830696821,-0.183326185,1.241981626,-62,-16,-36,11,183
1695162471820434200,-9.33020401,-1.738190413,-1.069011092,-0.072877489,-0.101255737,0.383572727,-3,23,-4,16,14,-8.767566681,3.588908434,2.391807556,0.782200634,-0.177730486,1.226127028,-60,-16,-36,8,183
1695162471821434200,-9.387664795,-1.757344007,-1.082179189,-0.060486984,-0.104852989,0.412217438,-1,26,-3,24,14,-8.762778282,3.563769341,2.407369852,0.733304739,-0.17346707,1.208807111,-60,-16,-35,13,183
1695162471861410900,-9.744400978,-2.309207439,-1.367089152,0.3547948,-0.238217458,0.930220544,-1,23,-5,22,14,-8.523358345,3.090914488,2.510320425,-0.179462478,-0.213036761,0.739833057,-59,-15,-34,15,183
1695162471862410900,-9.743204117,-2.322375536,-1.394622445,0.377577305,-0.248209804,0.947673798,-1,22,-3,20,14,-8.498218536,3.064578056,2.505532026,-0.217966303,-0.21556814,0.714385927,-60,-16,-34,15,185
1695162471863410900,-9.740809441,-2.331952572,-1.418564558,0.399027556,-0.257802457,0.963261843,-1,26,-3,18,14,-8.474276543,3.035847664,2.495955229,-0.255004585,-0.217966303,0.689738154,-60,-17,-34,14,184
1695162471864410900,-9.740809441,-2.34033227,-1.437718153,0.418745786,-0.267128646,0.977517605,-2,27,-5,22,14,-8.452729225,3.007117271,2.483984232,-0.290177643,-0.220497698,0.665623307,-59,-16,-34,15,182
1695162471865410900,-9.742006302,-2.351106167,-1.464054346,0.43686524,-0.275921881,0.989641666,-1,22,-5,20,14,-8.429984093,2.978386879,2.472013235,-0.323218971,-0.223295555,0.642174542,-61,-13,-34,14,184
1695162471905382000,-9.786299706,-2.545036316,-1.673547029,0.50281471,-0.310029089,0.896646261,-1,25,-6,19,14,-8.251616478,2.324769735,1.962048292,-0.43113628,-0.247143939,0.347866774,-59,-15,-33,17,184
1695162471906382000,-9.783905029,-2.559401512,-1.678335428,0.495753467,-0.304566622,0.876395106,-1,18,-3,23,13,-8.279149055,2.298433542,1.9309237,-0.411951005,-0.24567841,0.338407338,-60,-17,-34,14,183
1695162471907382000,-9.783905029,-2.574964046,-1.678335428,0.488026023,-0.298437983,0.855211318,-1,23,-6,22,14,-8.316259384,2.285265446,1.89620769,-0.391300142,-0.243946403,0.32934764,-49,-17,-34,13,185
1695162471908382000,-9.779116631,-2.591723442,-1.681926727,0.479499221,-0.291909665,0.832695246,-1,25,-6,20,14,-8.36294651,2.273294449,1.8590976,-0.369983137,-0.242347628,0.320154667,-60,-12,-34,14,183
1695162471909382000,-9.774328232,-2.612074137,-1.690306425,0.470306277,-0.285114855,0.808846831,1,29,-5,24,14,-8.419210434,2.260126352,1.823184609,-0.347866774,-0.241281778,0.31109494,-58,-15,-34,14,183
1695162471948357600,-9.289502144,-2.602497339,-1.721431017,0.20824042,-0.162808567,0.14388974,-1,25,-5,18,13,-9.196128845,3.100491285,1.868674397,-0.17866309,-0.088598773,0.021050537,-58,-18,-34,16,184
1695162471949357600,-9.25957489,-2.577358246,-1.722628117,0.189588055,-0.157212853,0.097924963,-1,23,-6,23,14,-9.153033257,3.16034627,1.873462796,-0.193451747,-0.07087902,-0.002797856,-60,-13,-34,17,183
1695162471950357600,-9.230844498,-2.558204412,-1.721431017,0.169869825,-0.151350692,0.051160797,-1,27,-6,16,11,-9.102754593,3.221398354,1.871068597,-0.210105672,-0.052226644,-0.026246555,-56,-17,-33,16,183
1695162471951357600,-9.204508781,-2.540247917,-1.716642618,0.150151595,-0.145754978,0.004396631,-1,27,-6,16,14,-9.047688484,3.27407074,1.868674397,-0.228358343,-0.033307809,-0.049428791,-55,-16,-34,16,184
1695162471952357600,-9.175778389,-2.517503023,-1.713051319,0.130566612,-0.140692189,-0.042500768,-1,18,-6,20,14,-8.990227699,3.323152065,1.862688899,-0.248343036,-0.014788668,-0.072078094,-59,-14,-35,17,183
1695162471993331100,-9.319430351,-1.9321208,-1.745373011,-0.264464021,-0.094727404,-0.760883629,-1,25,-6,19,13,-8.264783859,3.151966572,1.442506552,-0.53292495,0.084468603,-0.15481469,-60,-18,-34,15,184
1695162471994331100,-9.390059471,-1.886630893,-1.759738207,-0.286580414,-0.0976585,-0.787796319,-2,26,-4,20,10,-8.270770073,3.102885485,1.430535555,-0.527862132,0.073410407,-0.139493108,-58,-19,-34,16,182
1695162471995331100,-9.453505516,-1.844732404,-1.766920805,-0.309096456,-0.100323126,-0.813110292,-1,21,-3,22,12,-8.28034687,3.057395458,1.418564558,-0.520134747,0.061286367,-0.123505361,-60,-17,-35,15,184
1695162471996331100,-9.513360023,-1.813607812,-1.776497602,-0.33187899,-0.10258805,-0.836425722,-2,19,-5,18,13,-8.293514252,3.01070857,1.407790542,-0.509476244,0.048096478,-0.107251145,-55,-18,-34,16,183
1695162471997331100,-9.564835548,-1.78368032,-1.78368032,-0.3547948,-0.104852989,-0.85760951,-1,20,-5,17,13,-8.312667847,2.961627483,1.395819545,-0.496153146,0.033707503,-0.090996936,-59,-13,-34,15,183
1695162472039305800,-9.0740242,-1.739387512,-1.947683096,-0.639243484,-0.04969525,-0.897978544,-1,22,-1,18,13,-8.655038834,2.691082716,1.236605167,0.009459418,-0.207973972,0.044366002,-62,-16,-34,15,183
1695162472040305800,-9.008183479,-1.750161409,-1.957259893,-0.644705951,-0.039702907,-0.890650809,-1,21,-1,19,14,-8.659827232,2.700659513,1.213860273,0.027312404,-0.212637067,0.038637057,-60,-11,-34,14,183
1695162472041305800,-8.944737434,-1.758541107,-1.957259893,-0.648702919,-0.02917764,-0.883323133,-1,20,-1,18,14,-8.65743351,2.704250813,1.206677675,0.047830015,-0.215301678,0.033707503,-57,-12,-34,17,184
1695162472042305800,-8.884882927,-1.768117905,-1.964442492,-0.651633978,-0.018119449,-0.875995398,-1,21,1,17,12,-8.656236649,2.723404408,1.211466074,0.067281775,-0.215301678,0.028511487,-59,-18,-34,16,183
1695162472043305800,-8.827422142,-1.78128612,-1.965639591,-0.653366029,-0.006261868,-0.868800879,-2,22,-5,18,14,-8.658630371,2.7521348,1.213860273,0.084468603,-0.212903515,0.022116385,-59,-19,-36,20,183
1695162472096273700,-8.602366447,-1.792060018,-1.886630893,-0.50641191,0.27845329,-0.79312557,-1,23,3,20,13,-8.520963669,3.38300705,1.44849205,0.135229707,0.067681469,-0.158944875,-57,-15,-34,15,183
1695162472097273700,-8.626308441,-1.796848416,-1.874659896,-0.492022961,0.291643173,-0.787529886,-1,25,-6,19,14,-8.513781548,3.409343243,1.473631144,0.12616998,0.090597242,-0.167871356,-57,-19,-34,14,184
1695162472098273700,-8.655038834,-1.801636815,-1.861491799,-0.476834595,0.30390048,-0.781134784,-3,22,-1,16,14,-8.505401611,3.432088137,1.504755735,0.116710559,0.113513015,-0.176664621,-57,-15,-34,17,183
1695162472099273700,-8.682572365,-1.811213613,-1.845929503,-0.460846871,0.315624803,-0.774206758,-1,26,-1,22,10,-8.499416351,3.452438831,1.529894829,0.106718227,0.135895863,-0.184658498,-58,-15,-33,16,184
1695162472100273700,-8.714894295,-1.82198751,-1.833958507,-0.443660021,0.32615009,-0.766346097,-2,25,0,22,13,-8.497021675,3.468001127,1.555034041,0.096459419,0.157612562,-0.192252681,-56,-13,-32,17,183
1695162472147243100,-9.295488358,-1.960851192,-1.570596337,0.098058186,0.372781008,-0.546114862,-1,23,-3,18,10,-8.645462036,3.651157618,2.158372879,-0.129633993,0.400226623,-0.216767237,-56,-16,-34,15,183
1695162472148243100,-9.307458878,-1.944091797,-1.56101954,0.132165387,0.369316995,-0.534790218,0,25,1,18,14,-8.665813446,3.646369219,2.185906172,-0.142157733,0.402491599,-0.212503821,-57,-18,-34,16,183
1695162472149243100,-9.31823349,-1.924938202,-1.550245643,0.16520673,0.365986198,-0.523998499,-8,27,1,17,14,-8.684967041,3.64158082,2.211045265,-0.154681474,0.403957129,-0.207707509,-59,-16,-34,15,183
1695162472150243100,-9.326612473,-1.904587507,-1.541865945,0.196915776,0.362788647,-0.513606429,-1,22,-5,22,14,-8.705317497,3.635595322,2.23139596,-0.166672289,0.404490054,-0.202378258,-59,-15,-34,15,184
1695162472151243100,-9.333795547,-1.884236693,-1.52630353,0.22702603,0.359724343,-0.503747284,-2,26,-1,22,15,-8.724471092,3.630806923,2.252943754,-0.178529859,0.40355742,-0.196782529,-59,-13,-34,15,183
1695162472183223600,-8.938752174,-1.438915253,-1.268926859,0.420078099,0.35732618,-0.427405834,-2,19,1,19,12,-9.160215378,3.307589531,2.293645144,-0.25660339,0.207707509,-0.039303213,-59,-17,-34,14,183
1695162472184223600,-8.906430244,-1.414973259,-1.254561663,0.410618693,0.359857589,-0.428071976,-1,25,-1,22,14,-9.184157372,3.284844637,2.286462545,-0.250607967,0.191852987,-0.031042879,-60,-15,-33,1,184
1695162472185223600,-8.870517731,-1.391031146,-1.235408068,0.399693698,0.36305514,-0.429271042,-1,26,-3,19,13,-9.20929718,3.266888142,2.274491549,-0.243813157,0.175865233,-0.023315467,-57,-17,-34,15,183
1695162472186223600,-8.835801125,-1.371877551,-1.219845772,0.386903495,0.366652369,-0.430470139,-2,22,-2,22,13,-9.222464561,3.253720045,2.26850605,-0.239016846,0.165073514,-0.01825268,-58,-15,-34,15,183
1695162472187223600,-8.801085472,-1.356315255,-1.198297977,0.372514546,0.370649308,-0.431669205,-1,24,-1,22,14,-9.240421295,3.23456645,2.261323452,-0.2311562,0.148952529,-0.011191424,-58,-16,-34,15,182
1695162472233193500,-8.428787231,-1.343147159,-0.720654726,0.007860643,0.492689133,-0.395963252,-3,23,-1,22,13,-9.428366661,3.345896959,2.11767149,-0.201445624,-0.03130934,0.012124043,-60,-17,-33,15,183
1695162472234193500,-8.426392555,-1.357512355,-0.691924274,-0.007061256,0.496552825,-0.388635516,0,26,3,20,13,-9.436745644,3.367444754,2.11647439,-0.213836133,-0.031176111,0.005995406,-59,-18,-34,14,184
1695162472235193500,-8.425195694,-1.368286252,-0.663193882,-0.020784073,0.499483913,-0.380508423,-1,22,-1,24,14,-9.448717117,3.402160645,2.108094692,-0.232355282,-0.03130934,-0.002398162,-58,-18,-34,14,184
1695162472236193500,-8.425195694,-1.386242747,-0.634463429,-0.033174578,0.501482368,-0.371715158,-1,21,-1,20,13,-9.443928719,3.400963545,2.084152699,-0.249675348,-0.031176111,-0.011457887,-58,-13,-34,14,183
1695162472237193500,-8.425195694,-1.406593442,-0.612915635,-0.044232771,0.502415001,-0.362255752,-1,22,3,22,14,-9.434351921,3.396175146,2.08295536,-0.263797849,-0.029310873,-0.019185297,-60,-17,-34,13,183
1695162472270174200,-8.652645111,-1.552639842,-0.414196908,-0.048096478,0.331745774,-0.071811639,-2,27,1,23,13,-9.141061783,3.317166567,1.8590976,-0.481630921,0.074343033,-0.178263396,-57,-18,-34,14,183
1695162472271174200,-8.683769226,-1.551442742,-0.418985307,-0.044898927,0.314425707,-0.050761104,-3,25,1,20,13,-9.109937668,3.306392431,1.849520802,-0.480165392,0.075408876,-0.181727409,-58,-15,-34,14,184
1695162472272174200,-8.717288017,-1.553836942,-0.417788208,-0.042101074,0.296705961,-0.02917764,0,26,-1,18,14,-9.078812599,3.293224335,1.837549806,-0.477234304,0.075675346,-0.184125587,-60,-18,-34,15,184
1695162472273174200,-8.756793022,-1.549048543,-0.421379507,-0.039836142,0.278586507,-0.007327718,-1,21,3,20,13,-9.042900085,3.283647537,1.823184609,-0.473237365,0.07500919,-0.185857579,-58,-14,-34,14,184
1695162472274174200,-8.793902397,-1.541865945,-0.424970806,-0.038237367,0.259934127,0.014921899,-1,21,1,18,14,-9.005789757,3.270479441,1.813607812,-0.467508405,0.073277183,-0.186523736,-58,-16,-34,16,182
1695162472354558400,-9.728838921,-1.516726732,-0.67037648,-0.121107198,-0.05249311,0.4264732,-1,23,0,18,14,-8.451532364,3.123236179,1.629254222,-0.233954057,-0.066615619,-0.035306279,-60,-16,-34,15,183
1695162472355558400,-9.777919769,-1.532289028,-0.690727174,-0.128568143,-0.065816231,0.446857601,-1,26,-2,21,14,-8.447940826,3.11964488,1.618480325,-0.220497698,-0.075675346,-0.023448698,-60,-15,-32,16,183
1695162472356558400,-9.825803757,-1.549048543,-0.711077929,-0.136029094,-0.079272583,0.46697551,-2,23,-1,22,14,-8.440757751,3.114856482,1.608903527,-0.207174569,-0.084468603,-0.011724349,-56,-15,-34,14,183
1695162472357558400,-9.871294022,-1.56221664,-0.732625723,-0.143356815,-0.092329249,0.48669371,-3,22,1,18,14,-8.434772491,3.113659382,1.595735431,-0.19425115,-0.093261868,-0.000133231,-60,-16,-34,10,183
1695162472358558400,-9.91438961,-1.576581836,-0.752976418,-0.150551304,-0.105119444,0.505879045,-1,27,0,17,14,-8.428787231,3.110068083,1.583764434,-0.181993872,-0.101921894,0.010924961,-55,-17,-34,16,183
1695162472394531500,-9.987412453,-2.031480074,-1.15520227,-0.231689125,-0.267128646,0.721980095,-2,25,-1,22,13,-8.653841972,3.111265182,1.472434044,-0.049961712,-0.157479316,0.131765693,-59,-13,-34,14,183
1695162472395531500,-9.937133789,-2.064998865,-1.167173386,-0.234620214,-0.269393563,0.723045945,0,22,0,19,14,-8.674192429,3.113659382,1.476025343,-0.047830015,-0.153482378,0.132032156,-57,-17,-34,16,183
1695162472396531500,-9.8940382,-2.08295536,-1.181538582,-0.236751899,-0.269926488,0.722113311,-1,29,1,20,14,-8.698134422,3.117250681,1.477222443,-0.045964777,-0.148819283,0.131632462,-59,-18,-34,16,184
1695162472397531500,-9.850942612,-2.105700493,-1.191115379,-0.238883615,-0.269127101,0.720114827,1,22,0,18,14,-8.723274231,3.118447781,1.479616642,-0.044232771,-0.14388974,0.130833074,-60,-13,-34,16,183
1695162472398531500,-9.803058624,-2.127248287,-1.194706678,-0.241015315,-0.267261863,0.716384411,-1,26,-1,18,14,-8.748413086,3.124433279,1.478419542,-0.04276723,-0.138826951,0.129900455,-60,-18,-33,14,183
1695162472430534300,-8.985439301,-2.166752577,-1.218648672,-0.301369071,-0.090730481,0.417280257,-2,29,-3,19,14,-9.046490669,3.211821556,1.659181833,-0.068880551,-0.023049004,0.125770286,-59,-17,-34,14,184
1695162472431534300,-8.963891029,-2.160767078,-1.217451572,-0.306298614,-0.080071971,0.393298626,-2,26,-3,17,12,-9.053673744,3.209427357,1.678335428,-0.072344564,-0.016920367,0.127901986,-58,-17,-34,16,183
1695162472432534300,-8.947132111,-2.157175779,-1.216254473,-0.310961694,-0.070346095,0.369183779,-2,21,-3,18,13,-9.060855865,3.210624456,1.692700624,-0.075941809,-0.010924961,0.130166918,-56,-15,-31,17,183
1695162472433534300,-8.926780701,-2.149993181,-1.207874775,-0.317623258,-0.058888208,0.337741196,-1,26,-1,20,14,-9.070432663,3.214215755,1.703474522,-0.079405814,-0.005196018,0.132565081,-58,-16,-34,18,183
1695162472434534300,-8.914810181,-2.146401882,-1.203086376,-0.322419584,-0.05142726,0.314958632,1,22,-5,19,13,-9.078812599,3.211821556,1.717839718,-0.083269522,0.000133231,0.134963244,-59,-16,-33,14,182
1695162472494116800,-8.821435928,-1.968033791,-1.132457376,-0.386770278,-0.070745789,0.069413476,-1,22,-5,21,16,-9.118317604,3.145981073,2.085349798,-0.177464008,0.050094947,0.156147003,-57,-16,-33,14,183
1695162472495116800,-8.815450668,-1.952471495,-1.140837073,-0.389434904,-0.076874427,0.065016843,-1,23,0,22,14,-9.114726067,3.136404276,2.096123695,-0.183592647,0.049295556,0.156546697,-57,-15,-32,16,183
1695162472496116800,-8.809465408,-1.934514999,-1.142034173,-0.392499238,-0.083402753,0.061552834,-2,25,-3,18,13,-9.105149269,3.130418777,2.108094692,-0.189588055,0.047963247,0.156946406,-59,-16,-33,15,183
1695162472497116800,-8.80467701,-1.916558504,-1.146822572,-0.395963252,-0.090197548,0.058888208,-1,21,-1,22,13,-9.101557732,3.123236179,2.118868589,-0.193451747,0.046764165,0.157212853,-58,-17,-34,12,183
1695162472498116800,-8.796297073,-1.89740479,-1.161187768,-0.399427265,-0.096859112,0.056889739,-1,22,0,19,13,-9.085995674,3.114856482,2.133233786,-0.199180692,0.044765696,0.157479316,-50,-17,-34,15,183
1695162472612108700,-8.875306129,-1.583764434,-1.473631144,-0.562768757,-0.213702917,0.114045948,-1,26,4,22,14,-8.839392662,2.798821688,2.118868589,-0.214635521,-0.05249311,0.178929552,-58,-18,-34,16,183
1695162472613108700,-8.895656586,-1.581370234,-1.490390539,-0.575425744,-0.217833072,0.122705974,-1,23,3,19,14,-8.831012726,2.783259392,2.110488892,-0.207174569,-0.058888208,0.17972894,-59,-18,-34,15,183
1695162472614108700,-8.912415504,-1.583764434,-1.511938334,-0.587816238,-0.221563548,0.132165387,-1,29,4,23,14,-8.820239067,2.767697096,2.106897593,-0.199047476,-0.065016843,0.180395097,-60,-16,-33,15,184
1695162472615108700,-8.933963776,-1.586158633,-1.527500629,-0.600073516,-0.225160792,0.142024502,-1,23,-1,20,14,-8.809465408,2.756923199,2.102109194,-0.190387443,-0.07087902,0.180928022,-57,-18,-32,16,183
1695162472616108700,-8.950722694,-1.590947032,-1.545457244,-0.611931086,-0.228491575,0.152549773,-1,27,0,20,14,-8.799888611,2.746149302,2.088941097,-0.181194484,-0.076075032,0.181460962,-58,-17,-33,16,183
1695162472771685300,-9.284713745,-2.024297476,-1.957259893,-0.67415005,-0.261666149,0.393831551,-1,27,0,22,14,-8.690952301,2.803610086,1.952471495,-0.042500768,-0.111647777,0.151084229,-57,-17,-33,17,183
1695162472772685300,-9.29189682,-2.053027868,-1.978807688,-0.666289389,-0.262598753,0.405022949,-1,27,5,22,12,-8.68975544,2.810792685,1.944091797,-0.04103522,-0.112180702,0.147886679,-57,-14,-34,15,183
1695162472773685300,-9.29788208,-2.085349798,-2.001552582,-0.657229722,-0.263264924,0.415681452,-1,23,5,22,14,-8.688557625,2.815581083,1.938106298,-0.040502299,-0.112447165,0.145888209,-59,-17,-32,15,181
1695162472774685300,-9.299078941,-2.121262789,-2.020706177,-0.64723736,-0.264064312,0.425940275,-1,23,9,19,14,-8.690952301,2.82276392,1.935712099,-0.040369064,-0.113113321,0.142557427,-57,-16,-35,16,182
1695162472775685300,-9.300276756,-2.15597868,-2.038662672,-0.636312425,-0.264464021,0.435532928,-1,27,7,22,13,-8.702922821,2.843114614,1.928529501,-0.043166921,-0.114445634,0.138427258,-58,-16,-34,16,183
1695162472835649300,-9.058462143,-2.560598612,-2.256535053,-0.328548223,-0.185191423,0.434333831,-1,26,9,22,13,-8.927978516,3.256114244,1.89860189,-0.01385605,-0.068747319,0.028378254,-57,-13,-33,16,183
1695162472836649300,-9.046490669,-2.562992811,-2.250549555,-0.311361402,-0.174399704,0.423542112,-1,26,5,22,14,-8.962694168,3.336320162,1.89620769,-0.008260337,-0.058621746,0.015854517,-58,-12,-31,16,183
1695162472837649300,-9.03571701,-2.565387011,-2.252943754,-0.294441044,-0.162808567,0.412217438,-2,25,6,22,13,-8.997409821,3.42131424,1.887827992,-0.001998469,-0.047963247,0.002664625,-57,-18,-34,12,183
1695162472838649300,-9.026140213,-2.570175409,-2.251746655,-0.277920365,-0.150151595,0.399826974,-2,24,7,26,11,-9.027337074,3.511096716,1.892616391,0.005062787,-0.037038282,-0.010525269,-57,-15,-34,16,179
1695162472839649300,-9.015366554,-2.574964046,-2.244564056,-0.261532933,-0.137094945,0.386503845,-3,27,5,20,13,-9.063250542,3.597288132,1.892616391,0.013056661,-0.026113322,-0.023315467,-55,-9,-33,16,184
1695162472879629900,-9.042900085,-2.446874142,-2.020706177,-0.056223582,0.145088822,0.07474272,-2,25,1,24,14,-9.93234539,7.281964302,2.685097218,0.151350692,0.0021317,0.326949447,-58,-13,-31,14,183
1695162472880629900,-9.054870605,-2.428917646,-2.005143881,-0.05249311,0.15534763,0.057822358,-3,25,7,20,14,-9.998186111,7.497442722,2.748543501,0.147753447,-0.022915773,0.388768762,-55,-16,-34,15,183
1695162472881629900,-9.063250542,-2.41574955,-1.991975784,-0.049295556,0.164807037,0.041301683,-1,25,4,22,14,-10.06402683,7.704541206,2.813186884,0.144422665,-0.050494641,0.455117911,-60,-16,-34,14,183
1695162472882629900,-9.076418877,-2.401384354,-1.982398987,-0.046764165,0.173067391,0.024914242,-1,25,7,24,14,-10.12986755,7.908048153,2.867056608,0.140958652,-0.080604896,0.525996923,-56,-13,-33,12,183
1695162472883629900,-9.091980934,-2.390610456,-1.968033791,-0.044765696,0.180528328,0.008793262,-2,23,5,20,13,-10.20049667,8.109161377,2.919728994,0.137894332,-0.113379791,0.60100615,-58,-11,-33,14,185
1695162472918602500,-9.25957489,-2.120065689,-1.684320927,-0.064084224,0.232888207,-0.240349159,-1,21,3,20,14,-11.47301483,10.93072796,3.029862165,0.15787901,-1.0637182,2.247611046,-56,-12,-33,14,183
1695162472919602500,-9.26556015,-2.105700493,-1.675941229,-0.067548238,0.233554363,-0.251274139,-1,23,4,22,13,-11.48378849,11.00015926,3.026270866,0.155747324,-1.117676854,2.33314538,-59,-12,-34,13,183
1695162472920602500,-9.271546364,-2.092532396,-1.67115283,-0.071545176,0.234087273,-0.261932611,-1,21,7,19,14,-11.50174522,11.0671978,3.032256365,0.154947937,-1.168437958,2.417214394,-55,-16,-34,16,183
1695162472921602500,-9.276334763,-2.078166962,-1.666364431,-0.075542115,0.23422052,-0.272324651,-1,25,5,20,14,-11.52329254,11.13543224,3.039438963,0.153615624,-1.218666077,2.50048399,-54,-13,-31,17,184
1695162472922602500,-9.278728485,-2.060210466,-1.656787634,-0.079672284,0.234620214,-0.282183766,-2,23,0,22,14,-11.54005241,11.21324348,3.047818661,0.152549773,-1.268894434,2.582954168,-55,-13,-34,16,184
1695162472957580200,-9.405621529,-1.877054095,-1.516726732,-0.163607955,0.246211335,-0.404889733,-1,26,3,19,10,-11.15219116,12.27267838,3.099294186,0.024114855,-1.817007661,3.879560471,-51,-15,-28,22,182
1695162472958580200,-9.409213066,-1.868674397,-1.509544134,-0.166405827,0.247010723,-0.408353746,-2,21,4,22,13,-11.13423538,12.28824043,3.090914488,0.016520673,-1.828199029,3.939248085,-47,-17,-28,22,183
1695162472959580200,-9.416395187,-1.863885999,-1.505952835,-0.168937206,0.247676879,-0.41141808,-1,19,0,19,11,-11.11149025,12.29662037,3.088520288,0.009059724,-1.839523792,3.998402596,-50,-16,-25,25,183
1695162472960580200,-9.423578262,-1.856703401,-1.501164436,-0.170802444,0.247943342,-0.414482385,-1,19,5,18,12,-11.08395672,12.30380249,3.093308687,0.002398162,-1.85111475,4.057424068,-49,-15,-24,26,184
1695162472961580200,-9.43315506,-1.848323703,-1.498770237,-0.172934145,0.248209804,-0.417413473,-1,27,4,22,12,-11.05642319,12.31218243,3.104082584,-0.003863706,-1.862439513,4.116579056,-51,-17,-27,25,183
1695162472993561000,-9.33020401,-1.775300503,-1.401805043,-0.16827105,0.253539056,-0.43939665,-3,25,4,19,13,-9.293093681,12.05600262,4.455609322,-0.326416522,-2.046565056,4.365588188,-49,-15,4,104,224
1695162472994561000,-9.315838814,-1.777694821,-1.386242747,-0.164274111,0.255271077,-0.43833077,-1,23,7,20,11,-9.0740242,11.89319706,4.486733913,-0.361722827,-2.026980162,4.365588188,-47,-15,9,110,227
1695162472995561000,-9.300276756,-1.78128612,-1.37427175,-0.159611031,0.256869823,-0.436732024,-1,25,6,22,14,-8.844181061,11.6860981,4.477157116,-0.391433388,-2.001799345,4.365588188,-47,-16,17,124,237
1695162472996561000,-9.284713745,-1.78128612,-1.364694953,-0.154415011,0.258601815,-0.43473354,-1,25,3,22,14,-8.591592789,11.50653362,4.467580318,-0.411551297,-1.969557405,4.365588188,-49,-16,29,130,247
1695162472997561000,-9.269151688,-1.778891921,-1.352723956,-0.148419604,0.260333836,-0.432468593,-1,29,-1,20,14,-8.349778175,11.35689545,4.450820923,-0.421676874,-1.926923394,4.365588188,-49,-14,39,141,252
1695162473060884100,-9.004592896,-1.866280198,-1.11689508,0.076075032,0.265396625,-0.33760795,-5,26,5,19,14,-6.567295074,9.625887871,3.34230566,-0.588082671,-0.588882089,4.365588188,-35,-19,280,328,450
1695162473061884100,-8.987833023,-1.873462796,-1.101332784,0.09352833,0.264730483,-0.329480857,-1,25,4,19,12,-6.449979305,9.467870712,3.323152065,-0.638177633,-0.540519118,4.365588188,-38,-18,282,332,454
1695162473062884100,-8.975862503,-1.877054095,-1.084573388,0.111248083,0.263931066,-0.32148698,-2,21,5,26,14,-6.332663536,9.323021889,3.313575268,-0.701329231,-0.492689133,4.365588188,-33,-16,284,333,458
1695162473063884100,-8.959102631,-1.875856996,-1.070208192,0.128834605,0.262865245,-0.313093394,-1,25,3,20,15,-6.205770969,9.169792175,3.269282341,-0.776338398,-0.446324646,4.365588188,-27,-17,282,334,466
1695162473064884100,-8.947132111,-1.874659896,-1.055842996,0.146687597,0.261399686,-0.304833084,-1,25,7,18,13,-6.06451273,9.042900085,3.192667961,-0.847084224,-0.400359869,4.365588188,-28,-16,286,332,470
1695162473105541900,-8.980650902,-1.732204914,-0.851138711,0.372914255,0.148552835,-0.164407358,-2,23,3,22,12,-3.185485363,6.327875137,3.539827108,-2.031776428,-0.009326187,4.180263042,33,-17,260,330,472
1695162473106541900,-8.990227699,-1.722628117,-0.847547412,0.376911163,0.138294026,-0.157745793,-1,22,-4,18,12,-3.150769472,6.20936203,3.560178041,-2.058955669,-0.019718224,4.116045952,37,-16,260,329,473
1695162473107541900,-8.999804497,-1.713051319,-0.842759013,0.380108714,0.127901986,-0.151350692,-4,21,1,19,9,-3.096899986,6.082469463,3.575740337,-2.083070278,-0.034640122,4.050229549,38,-17,256,327,472
1695162473108541900,-9.006986618,-1.702277422,-0.837970614,0.382373661,0.117376715,-0.145088822,-1,21,0,16,12,-3.015496969,5.950788498,3.588908434,-2.102255583,-0.0528928,3.984413385,40,-13,255,325,471
1695162473109541900,-9.015366554,-1.692700624,-0.835576415,0.383705974,0.106584989,-0.138960183,-1,21,-3,20,12,-2.925714493,5.816712856,3.618835926,-2.117311001,-0.07474272,3.919929504,43,-15,254,323,470
1695162473193510600,-9.174580574,-1.551442742,-0.901416957,0.272058189,-0.091396637,-0.055157732,-4,23,-1,18,12,-0.003591303,3.398569345,4.461595058,-2.280119419,-0.519335389,2.967059612,64,-11,226,304,448
1695162473194510600,-9.175778389,-1.546654344,-0.906205356,0.258468598,-0.099923424,-0.0528928,-3,21,0,20,8,0.134075299,3.219004154,4.477157116,-2.257070541,-0.535456359,2.918163776,62,-12,228,304,443
1695162473195510600,-9.17697525,-1.541865945,-0.920570552,0.244745791,-0.108316995,-0.050894335,-2,26,1,19,12,0.266953498,3.052607059,4.502296448,-2.228159189,-0.548246562,2.866203547,65,-9,227,301,442
1695162473196510600,-9.180566788,-1.540668845,-0.93014735,0.230356812,-0.116444103,-0.049162328,-1,22,-2,20,12,0.397437483,2.886210203,4.526238441,-2.193918943,-0.557839215,2.810779572,66,-11,225,300,444
1695162473197510600,-9.18894577,-1.538274646,-0.940921247,0.215301678,-0.124304749,-0.047430322,-2,25,-3,20,14,0.531512797,2.721010208,4.544194698,-2.155415058,-0.563967824,2.751624823,65,-9,225,298,440
1695162473323431800,-9.25358963,-1.648407817,-1.217451572,-0.084468603,-0.218499228,-0.057022974,-1,19,-4,19,13,3.400963545,0.684741676,4.79917717,-1.125004649,0.066349156,1.214136362,50,-5,212,284,421
1695162473324431800,-9.24760437,-1.662773132,-1.231816769,-0.096859112,-0.220497698,-0.059287902,-4,18,0,22,13,3.452438831,0.614112735,4.787206173,-1.061320066,0.106451757,1.14898622,48,-4,215,280,420
1695162473325431800,-9.238027573,-1.679532528,-1.243787766,-0.108316995,-0.22236295,-0.061952524,-2,25,-1,17,14,3.507505417,0.55784899,4.783615112,-0.996569633,0.143090352,1.087166905,45,-5,213,278,417
1695162473326431800,-9.230844498,-1.692700624,-1.256955862,-0.11924196,-0.223961711,-0.064750381,-1,21,-3,15,12,3.56736064,0.515950441,4.787206173,-0.931686044,0.176264927,1.02894485,45,-4,215,280,418
1695162473327431800,-9.2212677,-1.70826292,-1.270123959,-0.129101068,-0.22542727,-0.067681469,-2,21,1,20,13,3.630806923,0.48243165,4.801571369,-0.867202163,0.20624195,0.973920345,41,-8,211,282,416
1695162473390392700,-9.121908188,-1.835155606,-1.432929754,-0.200379789,-0.213969365,-0.144022971,-2,23,2,23,12,5.055356979,0.383072257,5.749675274,-0.06008729,0.379442573,0.442061275,33,-4,206,270,407
1695162473391392700,-9.113529205,-1.837549806,-1.434126854,-0.200379789,-0.211837664,-0.147620216,-2,21,0,22,12,5.13556242,0.411802679,5.805939198,-0.049162328,0.385571182,0.414082706,36,-3,209,271,408
1695162473392392700,-9.103952408,-1.838746905,-1.432929754,-0.200379789,-0.209572732,-0.151084229,-2,21,-1,17,13,5.212177277,0.426167905,5.876567841,-0.041834611,0.391300142,0.383439511,38,-2,208,268,407
1695162473393392700,-9.093177795,-1.836352706,-1.437718153,-0.200246558,-0.207307816,-0.15428178,-1,20,-1,19,14,5.294776917,0.433350503,5.966350555,-0.037704438,0.397695243,0.350931078,37,-4,208,270,406
1695162473394392700,-9.081207275,-1.831564307,-1.438915253,-0.200246558,-0.205042884,-0.1573461,-3,25,0,22,13,5.377377033,0.430956304,6.06211853,-0.036105666,0.405022949,0.3168239,39,-2,207,269,407
1695162473434366900,-8.983044624,-1.666364431,-1.468842745,-0.235686064,-0.196649313,-0.18599081,-2,20,7,17,10,6.617573261,-0.393846184,6.951564789,-0.004929556,0.333344579,-0.393032134,29,-3,203,260,394
1695162473435366900,-8.986636162,-1.656787634,-1.467645645,-0.240882084,-0.198647782,-0.186257273,-3,22,-1,23,12,6.625953197,-0.407014281,6.983886242,0.010924961,0.310961694,-0.428338438,29,-2,201,260,391
1695162473436366900,-8.989029884,-1.649604917,-1.470039845,-0.246477783,-0.200779468,-0.186523736,-3,22,3,22,14,6.624756336,-0.407014281,7.013813972,0.028245023,0.288712084,-0.464177608,34,-5,199,256,392
1695162473437366900,-8.991424561,-1.63763392,-1.476025343,-0.252473205,-0.203177631,-0.186523736,-4,23,-4,20,12,6.615179062,-0.398634583,7.035361767,0.046630934,0.266728938,-0.500283301,29,-3,202,258,391
1695162473438366900,-8.993818283,-1.628057122,-1.483207941,-0.259001523,-0.205575794,-0.186523736,-3,25,0,19,14,6.597222805,-0.379480958,7.049726963,0.066082694,0.24514547,-0.537055135,25,-2,200,258,390
1695162473472347600,-8.898050308,-1.543063045,-1.571793437,-0.44512558,-0.231689125,-0.153615624,-4,21,0,17,12,3.560178041,2.257732153,7.068880558,0.202777937,0.363188356,-1.40452373,26,-7,192,257,389
1695162473473347600,-8.882488251,-1.543063045,-1.587355733,-0.457249612,-0.232488513,-0.152283311,-2,20,3,19,12,3.230975151,2.583343744,7.046135426,0.185058191,0.383173048,-1.440629363,25,-4,192,256,389
1695162473474347600,-8.864531517,-1.546654344,-1.595735431,-0.469373643,-0.233421117,-0.151217461,-2,18,1,19,12,2.8969841,2.924517393,7.022193432,0.165339977,0.401026011,-1.471938729,26,-3,190,255,386
1695162473475347600,-8.84896946,-1.547851443,-1.606509328,-0.481764168,-0.234087273,-0.150418073,0,17,-1,20,12,2.564189911,3.280056238,7.016208172,0.143756509,0.417280257,-1.49805212,27,-8,193,255,388
1695162473476347600,-8.832210541,-1.547851443,-1.618480325,-0.494154662,-0.235153139,-0.149885148,-2,21,0,22,12,2.227804661,3.64158082,7.011419773,0.121107198,0.43260181,-1.518702865,29,-3,193,256,387
1695162473526403500,-8.66940403,-1.602918029,-1.813607812,-0.700263441,-0.205975503,-0.148819283,-4,20,4,18,11,-3.38061285,10.01853657,7.921216488,-0.119908117,0.367451757,-0.926490009,22,-3,189,256,387
1695162473527403500,-8.667010307,-1.602918029,-1.82079041,-0.707990766,-0.202245027,-0.148153126,-1,24,3,20,14,-3.442862034,10.17296314,7.937975883,-0.156147003,0.342670739,-0.866669238,21,-3,191,256,381
1695162473528403500,-8.664615631,-1.604115129,-1.830367208,-0.715584993,-0.198114842,-0.147353753,-2,19,0,18,11,-3.466804028,10.25197124,7.951143742,-0.191586524,0.315225124,-0.805516064,21,-5,190,256,389
1695162473529403500,-8.667010307,-1.606509328,-1.835155606,-0.72251302,-0.193584993,-0.146021441,-3,19,-1,23,11,-3.450044632,10.26154804,7.961917877,-0.223961711,0.286580414,-0.742497683,23,-3,193,257,386
1695162473530403500,-8.665813446,-1.607706428,-1.838746905,-0.729174554,-0.188921899,-0.144422665,-3,17,-1,19,11,-3.399766445,10.21605873,7.965508938,-0.251274139,0.258068919,-0.678013802,23,-4,191,258,386
1695162473589535300,-8.641871452,-1.733402014,-1.889025092,-0.723045945,-0.105918832,-0.043433387,-5,21,-4,14,11,0.766144514,6.106411457,7.541735172,0.309229732,0.055290964,0.234620214,29,-6,193,259,389
1695162473590535300,-8.643068314,-1.740584612,-1.887827992,-0.716117859,-0.10285452,-0.035173047,-5,19,-4,15,11,0.963666201,5.937620163,7.54532671,0.33867383,0.059287902,0.249009192,27,-11,191,257,390
1695162473591535300,-8.645462036,-1.74657011,-1.887827992,-0.708790183,-0.100056656,-0.02691271,-3,17,-3,14,9,1.146822572,5.777208805,7.552509308,0.363321573,0.062751912,0.260733545,30,-8,190,260,386
1695162473592535300,-8.647856712,-1.753752708,-1.892616391,-0.70066309,-0.097125575,-0.01825268,-5,21,-1,14,9,1.314416766,5.633556366,7.562086105,0.383572727,0.065816231,0.269526809,26,-7,194,256,385
1695162473593535300,-8.655038834,-1.758541107,-1.89740479,-0.692003012,-0.094460949,-0.009459418,-7,19,0,17,7,1.476025343,5.49828434,7.575253963,0.398494661,0.068347625,0.275655419,25,-6,192,255,389
1695162473660350300,-8.801085472,-1.855506301,-1.811213613,-0.497885138,-0.050361406,0.184258804,-6,17,-5,15,8,2.782062292,3.969586372,7.739256859,0.284581929,0.053026035,0.113646246,30,-8,191,256,380
1695162473661350300,-8.81066227,-1.853112102,-1.812410712,-0.490823895,-0.049029093,0.193584993,-6,17,-5,18,9,2.764105797,3.952826977,7.753622055,0.283382833,0.054091886,0.099523738,29,-11,190,256,380
1695162473662350300,-8.82263279,-1.850717902,-1.812410712,-0.485094965,-0.047830015,0.202378258,-4,18,-2,13,8,2.744952202,3.94205308,7.77277565,0.282317013,0.056623276,0.084735066,29,-11,190,255,378
1695162473663350300,-8.834604263,-1.849520802,-1.810016513,-0.480165392,-0.046897396,0.210771829,-6,21,-2,19,8,2.724601507,3.936067581,7.794323444,0.281117916,0.060620211,0.069679938,31,-8,190,255,384
1695162473664350300,-8.847772598,-1.844732404,-1.807622313,-0.476434916,-0.04623124,0.218765706,-6,17,-1,15,11,2.693476915,3.93965888,7.817068577,0.279918849,0.066349156,0.054491576,34,-9,190,255,379
1695162473742638500,-9.076418877,-1.772906303,-1.899798989,-0.59887439,-0.043699846,0.266728938,-8,17,-3,14,7,1.423352957,4.19464159,7.61356163,0.234353751,0.182260334,-0.182393566,35,-17,190,255,375
1695162473743638500,-9.081207275,-1.776497602,-1.906981707,-0.611664653,-0.042367533,0.264996946,-1,19,-1,14,10,1.368286252,4.195838451,7.5836339,0.235019907,0.184525266,-0.190787122,37,-18,190,255,375
1695162473744638500,-9.084798813,-1.780089021,-1.917755604,-0.62432158,-0.040768761,0.263131708,-3,21,-6,18,10,1.320402265,4.199429989,7.553706169,0.235952526,0.186656967,-0.198780999,33,-19,190,255,372
1695162473745638500,-9.089587212,-1.78248322,-1.936909199,-0.636712074,-0.039036751,0.261399686,-3,19,-3,14,7,1.274912357,4.20062685,7.517793179,0.237151608,0.188388973,-0.206641659,33,-18,190,255,374
1695162473746638500,-9.088389397,-1.786074519,-1.946485996,-0.648969352,-0.036771823,0.259534448,-5,17,-4,16,8,1.234210968,4.201824188,7.484274387,0.238617152,0.190920368,-0.213969365,33,-18,189,253,375
1695162473797371700,-8.927978516,-2.091335297,-1.966836691,-0.689338386,0.075275652,0.304699838,-6,20,-1,17,9,0.901416957,4.155137062,6.779181957,0.274456352,0.323885113,-0.366385907,15,-19,185,248,349
1695162473798371700,-8.918401718,-2.11647439,-1.952471495,-0.677747309,0.084068909,0.312560499,-7,17,-1,19,10,0.885854602,4.128800869,6.752845764,0.274989277,0.335343033,-0.380508423,15,-21,183,246,350
1695162473799371700,-8.908824921,-2.141613483,-1.939303398,-0.664957106,0.092995405,0.320820838,-4,17,-4,13,7,0.864306808,4.100070477,6.726509571,0.275122523,0.346267998,-0.396096468,6,-21,181,247,344
1695162473800371700,-8.900444984,-2.169146776,-1.924938202,-0.650701404,0.10178867,0.32934764,-4,18,-3,18,9,0.841561913,4.082113743,6.704961777,0.275388956,0.353196025,-0.407287896,10,-20,181,246,343
1695162473801371700,-8.893261909,-2.19189167,-1.909375906,-0.635379791,0.110315464,0.338274121,-4,21,-3,16,8,0.811634362,4.048594952,6.672640324,0.275388956,0.362921923,-0.425274134,9,-18,179,243,343
1695162473890557200,-8.933963776,-2.549824715,-1.641225219,-0.225160792,0.1854579,0.485228181,-7,18,-4,16,11,0.769735873,3.918111086,6.65468359,0.255937219,0.541984677,-0.974719763,-14,-19,138,214,292
1695162473891557200,-8.944737434,-2.559401512,-1.629254222,-0.200912714,0.184392035,0.489624798,-8,21,-4,18,9,0.764947414,3.916913986,6.636727333,0.25766921,0.548512995,-0.994837642,-14,-17,135,207,284
1695162473892557200,-8.956708908,-2.565387011,-1.614889026,-0.176931083,0.183192953,0.493355274,-6,17,-5,13,4,0.751779318,3.920505285,6.612784863,0.261399686,0.558238924,-1.024148583,-17,-18,135,207,282
1695162473893557200,-8.967482567,-2.572569609,-1.601720929,-0.153482378,0.181327716,0.496419609,-6,22,-3,14,11,0.733822823,3.931279182,6.587646008,0.264597237,0.567165375,-1.052260399,-17,-21,130,204,280
1695162473894557200,-8.980650902,-2.579752445,-1.590947032,-0.130699843,0.179062784,0.499084204,-4,25,-5,17,11,0.711077929,3.949235678,6.562506676,0.268460959,0.574892759,-1.079705954,-21,-21,126,200,280
1695162473939529000,-9.271546364,-2.487575531,-1.508347034,0.1334977,0.128701374,0.435399711,-4,10,-1,17,11,0.496796846,4.267664433,6.924031258,0.249275655,0.856010735,-1.590114832,-34,-20,84,153,233
1695162473940529000,-9.288305283,-2.472013235,-1.509544134,0.136695251,0.126436442,0.426606447,-7,21,-3,18,8,0.478840351,4.27724123,6.938396454,0.248343036,0.888918817,-1.621957064,-40,-20,83,150,233
1695162473941529000,-9.30386734,-2.457648039,-1.509544134,0.138960183,0.124704443,0.41754669,-2,17,-1,15,9,0.448912829,4.273650169,6.924031258,0.251140893,0.922892749,-1.653532863,-39,-20,81,147,229
1695162473942529000,-9.313444138,-2.438494444,-1.514332533,0.139892802,0.123105668,0.408087283,-4,18,-3,18,9,0.405817181,4.273650169,6.907271862,0.258468598,0.956866801,-1.682577252,-37,-20,79,143,230
1695162473943529000,-9.327810287,-2.422932148,-1.508347034,0.139226645,0.122039817,0.398228168,-1,19,-1,18,8,0.37229836,4.282029629,6.897695065,0.262865245,0.980715096,-1.70202899,-39,-17,78,144,230
1695162474039499000,-9.346963882,-2.280477047,-1.455674648,-0.067281775,0.162408888,0.193318531,-6,20,-5,15,9,-2.020706177,5.553350925,6.523002625,0.570895851,1.585318565,-2.322220564,-55,-18,25,90,205
1695162474040499000,-9.345766068,-2.292448044,-1.44729495,-0.081004597,0.165872887,0.182660028,-4,23,-1,14,11,-2.080561161,5.625176907,6.537367821,0.562235832,1.603571177,-2.356194496,-57,-17,19,85,210
1695162474041499000,-9.350554466,-2.302024841,-1.438915253,-0.093794793,0.168803975,0.171868294,-7,22,-6,16,11,-2.133233786,5.64552784,6.518214226,0.555041373,1.622223496,-2.389502287,-57,-17,20,84,208
1695162474042499000,-9.352949142,-2.316390038,-1.431732655,-0.105519146,0.171601832,0.161343038,-5,18,-5,15,3,-2.196680069,5.668272495,6.502651691,0.555041373,1.635146976,-2.417747259,-57,-16,16,80,202
1695162474043499000,-9.35654068,-2.330755472,-1.428141356,-0.116044402,0.173866764,0.150950998,-4,18,-2,15,9,-2.252943754,5.713762283,6.50145483,0.55264318,1.645938754,-2.443860769,-59,-16,14,80,206
1695162474109553600,-9.220070839,-2.609679937,-1.296460271,-0.027712099,0.146287903,0.006794794,-1,26,-1,19,11,-3.320757866,5.20020628,5.822698593,0.573960185,1.459415078,-2.801586628,-62,-17,-15,46,208
1695162474110553600,-9.210494041,-2.608482838,-1.283292055,-0.01079173,0.143756509,0.001732006,-3,25,0,19,13,-3.423708439,5.23851347,5.84065485,0.585817754,1.446225047,-2.818107128,-62,-17,-5,43,199
1695162474111553600,-9.202114105,-2.607285738,-1.272518158,0.006528331,0.141358346,-0.002931087,-1,18,-6,15,13,-3.538630009,5.286397457,5.865794182,0.590081215,1.433035254,-2.83809185,-62,-18,-7,43,199
1695162474112553600,-9.193734169,-2.60130024,-1.267729759,0.023981623,0.139093414,-0.007727412,-2,23,0,22,14,-3.666719913,5.31273365,5.895721912,0.595543683,1.419712067,-2.856744051,-64,-15,-8,38,197
1695162474113553600,-9.186552048,-2.60010314,-1.258152962,0.041434918,0.136828482,-0.012390506,-1,22,3,19,13,-3.791218281,5.361814499,5.925649166,0.600206733,1.409053564,-2.873664618,-64,-13,-9,44,196
1695162474175482700,-9.17098999,-2.255337954,-1.18872118,0.222096488,0.09272895,-0.104186833,-2,22,-5,16,12,-4.839878559,4.073734283,5.76404047,0.373980075,1.295274019,-3.090165377,-61,-18,-25,23,194
1695162474176482700,-9.168595314,-2.240972757,-1.183932781,0.222762644,0.089398161,-0.109516084,-1,21,-1,15,11,-4.972756863,3.985148668,5.676652431,0.41141808,1.283150077,-3.099491596,-63,-16,-32,21,196
1695162474177482700,-9.165003777,-2.23139596,-1.177947283,0.222895861,0.086200617,-0.114845328,-4,19,-6,15,12,-5.076904774,3.925293684,5.620388508,0.44152835,1.273290992,-3.105753422,-63,-15,-28,22,196
1695162474178482700,-9.156624794,-2.223016262,-1.173158884,0.222762644,0.082869835,-0.120174579,-3,21,-1,17,11,-5.260061264,3.867832899,5.543774128,0.495486975,1.256637096,-3.114146948,-60,-15,-29,21,197
1695162474179482700,-9.151836395,-2.219424963,-1.177947283,0.222229704,0.079272583,-0.125370592,-3,17,0,19,14,-5.464765549,3.858256102,5.473145008,0.555574298,1.238517523,-3.123739481,-66,-15,-23,20,196
1695162474279612600,-9.137471199,-2.151190281,-1.211466074,0.262865245,-0.005062787,-0.198914245,-3,19,-1,18,11,-7.861361504,5.27682066,5.594052315,0.924891293,0.790327728,-3.289212704,-61,-8,-34,15,192
1695162474280612600,-9.137471199,-2.146401882,-1.210268974,0.268594176,-0.010525269,-0.201045945,1,21,0,18,9,-7.836222172,5.210979939,5.621585369,0.88558805,0.800586522,-3.272026062,-62,-17,-32,15,192
1695162474281612600,-9.137471199,-2.140416384,-1.213860273,0.274189889,-0.015721286,-0.202777937,-1,18,3,18,12,-7.814674377,5.12957716,5.64313364,0.845618665,0.814309359,-3.252307653,-62,-13,-34,16,194
1695162474282612600,-9.1326828,-2.133233786,-1.224634171,0.281917304,-0.022516079,-0.204909652,-2,18,-1,22,13,-7.803900242,5.066130638,5.6491189,0.819372118,0.825101078,-3.238185167,-63,-13,-33,16,194
1695162474283612600,-9.130288124,-2.127248287,-1.231816769,0.287912726,-0.027712099,-0.206508413,-2,23,-1,16,8,-7.799111843,4.957194805,5.641936302,0.780868292,0.843620181,-3.215402603,-61,-16,-32,16,194
1695162474320586600,-9.033323288,-1.965639591,-1.381454349,0.365586549,-0.091263399,-0.222496167,-1,21,-1,17,14,-10.16697788,2.838326216,4.525041103,1.301136374,1.014289379,-2.781068802,-57,-16,-34,16,197
1695162474321586600,-9.03571701,-1.958456993,-1.386242747,0.36771822,-0.093261868,-0.223029092,-4,21,-3,18,14,-10.32738876,2.82156682,4.510675907,1.377744317,1.008960247,-2.766813278,-57,-15,-32,15,194
1695162474322586600,-9.041702271,-1.954865694,-1.388636947,0.36984992,-0.095393561,-0.223428801,-2,21,1,20,11,-10.48540592,2.811989784,4.486733913,1.453819275,1.004030585,-2.753756523,-57,-17,-34,15,192
1695162474323586600,-9.044096947,-1.947683096,-1.395819545,0.371848404,-0.097525269,-0.22382848,-2,22,5,18,11,-10.63624096,2.803610086,4.461595058,1.529361367,0.999634027,-2.741232634,-57,-9,-32,16,197
1695162474324586600,-9.047688484,-1.940500498,-1.403002143,0.373846859,-0.099656969,-0.223961711,-2,24,-1,19,12,-10.78348446,2.800018787,4.436455727,1.604637146,0.995370567,-2.728842258,-56,-13,-30,16,195
1695162474357589400,-9.099164009,-1.853112102,-1.576581836,0.421277195,-0.160543635,-0.217300147,-4,25,-3,18,9,-13.61462784,3.781641483,3.750516891,2.715252876,1.051860571,-2.660228014,-55,-16,-32,15,198
1695162474358589400,-9.103952408,-1.848323703,-1.587355733,0.423408896,-0.164007664,-0.217033699,-1,21,1,17,11,-13.74152088,3.878606796,3.748122692,2.747228384,1.063584924,-2.666223526,-54,-17,-28,15,197
1695162474359589400,-9.109937668,-1.844732404,-1.595735431,0.426073521,-0.16773814,-0.216234297,-2,25,1,18,13,-13.86961079,3.997119665,3.75530529,2.772675276,1.076508403,-2.67288518,-51,-16,-33,14,196
1695162474360589400,-9.123106003,-1.842338204,-1.602918029,0.42793873,-0.170402765,-0.215834603,-2,19,1,16,11,-13.95221043,4.077325344,3.764882088,2.785865068,1.085834622,-2.677947998,-53,-13,-32,16,194
1695162474361589400,-9.135076523,-1.845929503,-1.610100627,0.429404289,-0.172800913,-0.215434924,-6,19,-1,20,11,-14.06473827,4.198232651,3.781641483,2.801320076,1.10062325,-2.686074972,-53,-17,-32,16,194
1695162474419426700,-9.220070839,-1.764526606,-1.798045516,0.423675328,-0.188921899,-0.213836133,-4,18,1,15,11,-14.28620148,6.69299078,3.430891037,1.886820912,1.277954102,-2.628385782,-55,-17,-29,14,194
1695162474420426700,-9.217676163,-1.758541107,-1.812410712,0.421143949,-0.189721286,-0.215434924,-2,23,-6,16,14,-14.17008305,6.757634163,3.349488258,1.79768908,1.251041293,-2.595344543,-51,-16,-33,15,196
1695162474421426700,-9.211690903,-1.752555609,-1.825578809,0.419145465,-0.190120965,-0.216900453,-1,18,3,18,11,-14.04438686,6.804321289,3.277662039,1.7088238,1.222130179,-2.55817318,-59,-13,-34,16,194
1695162474422426700,-9.203310966,-1.74896431,-1.836352706,0.416880548,-0.190520674,-0.218499228,-1,21,-1,18,11,-13.91749477,6.842628479,3.209427357,1.619026065,1.190820813,-2.515672207,-55,-16,-29,15,197
1695162474423426700,-9.197325706,-1.742978811,-1.847126603,0.414882064,-0.190653905,-0.220231235,-6,21,-1,14,13,-13.7774334,6.874950409,3.145981073,1.531493068,1.159111857,-2.468641758,-50,-15,-32,15,197
1695162474534350000,-9.166201591,-1.63643682,-1.958456993,0.367851466,-0.143356815,-0.249675348,-4,23,5,18,12,-11.00614548,5.747281075,2.184709072,0.346534461,0.621124089,-0.911701381,-53,-18,-26,15,193
1695162474535350000,-9.173383713,-1.630451322,-1.960851192,0.365453273,-0.138960183,-0.249542102,-1,20,-2,19,13,-10.88164711,5.620388508,2.15597868,0.332145482,0.602738142,-0.812177658,-53,-15,-28,15,192
1695162474536350000,-9.175778389,-1.622071624,-1.965639591,0.363321573,-0.134830013,-0.249275655,-2,21,1,18,9,-10.75595093,5.493495941,2.114080191,0.32468453,0.586350679,-0.712254226,-51,-13,-29,15,192
1695162474537350000,-9.181763649,-1.614889026,-1.965639591,0.361456335,-0.130833074,-0.248875946,-2,23,2,20,11,-10.68053341,5.408501625,2.085349798,0.323218971,0.576091886,-0.645505369,-49,-15,-28,17,193
1695162474538350000,-9.186552048,-1.610100627,-1.968033791,0.359591126,-0.126836136,-0.248076573,-1,22,3,22,12,-10.57159805,5.28280592,2.043451071,0.326549739,0.561836123,-0.54584837,-50,-17,-26,18,196
1695162474665270500,-9.28591156,-1.529894829,-1.990778685,0.360257268,-0.074609496,-0.204243496,-1,23,3,23,13,-9.599552155,3.98036027,1.479616642,1.142058134,0.27165848,0.846951008,-54,-18,-25,22,190
1695162474666270500,-9.293093681,-1.527500629,-1.991975784,0.361589581,-0.072211333,-0.200646251,-1,23,1,13,14,-9.556455612,3.961206675,1.465251446,1.194951057,0.254205197,0.879459381,-51,-18,-25,24,188
1695162474667270500,-9.29788208,-1.52510643,-1.994369984,0.362655431,-0.069679938,-0.197049007,-1,26,5,19,14,-9.52173996,3.94205308,1.458068848,1.246378303,0.236618683,0.908237338,-51,-16,-23,21,191
1695162474668270500,-9.305065155,-1.522712231,-1.990778685,0.363588065,-0.067281775,-0.193318531,-2,25,1,23,13,-9.496601105,3.928884983,1.453280449,1.279686093,0.224627867,0.925290942,-51,-18,-23,25,189
1695162474669270500,-9.313444138,-1.517923832,-1.993172884,0.364653885,-0.065016843,-0.189321592,-3,25,5,21,11,-9.464279175,3.916913986,1.443703651,1.328448653,0.206641659,0.948073506,-54,-18,-29,24,187
1695162474803189000,-9.071630478,-1.44968915,-1.974019289,0.333078086,0.000932619,-0.127901986,-1,25,4,19,14,-8.839392662,4.305971622,1.291671872,1.729874372,-0.153748855,0.923159301,-54,-17,-23,29,189
1695162474804189000,-9.047688484,-1.444900751,-1.977610588,0.328548223,0.0063951,-0.126836136,-1,22,8,22,14,-8.798690796,4.333505154,1.30124867,1.71455276,-0.171868294,0.907837629,-49,-16,-21,30,192
1695162474805189000,-9.021351814,-1.440112352,-1.983596087,0.323751897,0.011990812,-0.125903517,-1,27,5,18,12,-8.757989883,4.368220806,1.315613866,1.695634007,-0.187722817,0.892516077,-53,-16,-21,30,187
1695162474806189000,-8.992621422,-1.438915253,-1.984793186,0.318689138,0.017719755,-0.124970905,-1,18,3,23,13,-8.723274231,4.408922195,1.327584863,1.672318578,-0.201712102,0.876794755,-48,-18,-18,31,192
1695162474807189000,-8.961497307,-1.434126854,-1.989581585,0.313759565,0.02384839,-0.124437973,-2,23,4,18,13,-8.690952301,4.447229862,1.332373261,1.645405889,-0.214235827,0.860940278,-51,-14,-21,30,188
1695162474878144600,-8.534132004,-1.441309452,-1.891419291,0.264330775,0.158278719,-0.094460949,-1,22,5,24,12,-8.66341877,4.918887615,1.496376038,0.705459356,-0.198248088,0.496286362,-54,-17,-20,29,188
1695162474879144600,-8.51617527,-1.442506552,-1.879448295,0.266595691,0.166272581,-0.089398161,-1,21,6,19,12,-8.686163902,4.921281815,1.502361536,0.651633978,-0.18492496,0.475502282,-47,-13,-15,31,190
1695162474880144600,-8.501810074,-1.441309452,-1.868674397,0.269127101,0.174399704,-0.083802447,-4,25,5,20,13,-8.711302757,4.922478676,1.510741234,0.599007666,-0.171202138,0.455117911,-49,-18,-17,30,188
1695162474881144600,-8.487444878,-1.438915253,-1.863885999,0.272191435,0.182127118,-0.077673815,-3,25,5,22,13,-8.735244751,4.924872875,1.521515131,0.547447205,-0.157079637,0.434866786,-46,-17,-16,31,188
1695162474882144600,-8.470685959,-1.440112352,-1.853112102,0.275655419,0.190120965,-0.070745789,-1,26,3,20,12,-8.756793022,4.924872875,1.532289028,0.49708578,-0.142557427,0.415281773,-53,-18,-16,30,189
1695162474948104900,-8.390480042,-1.584961534,-1.563413739,0.449655443,0.288179159,0.155614093,-1,25,10,22,14,-9.005789757,4.502296448,1.734599113,-0.176664621,0.043300152,0.327082694,-51,-18,-17,31,188
1695162474949104900,-8.392873764,-1.604115129,-1.545457244,0.465110272,0.289644688,0.172001526,-1,25,9,19,13,-9.015366554,4.46279192,1.740584612,-0.197448686,0.044898927,0.342670739,-46,-18,-15,31,189
1695162474950104900,-8.396465302,-1.617283225,-1.52630353,0.480698317,0.290444106,0.188788652,-1,19,7,23,13,-9.028534889,4.417302132,1.74776721,-0.216900453,0.045831546,0.359857589,-47,-17,-17,28,186
1695162474951104900,-8.398859978,-1.630451322,-1.509544134,0.496952504,0.291243494,0.205442563,-1,22,9,25,14,-9.042900085,4.370615005,1.758541107,-0.23475343,0.046098009,0.378909618,-50,-17,-15,30,188
1695162474952104900,-8.402450562,-1.648407817,-1.497573137,0.513473213,0.292042881,0.221963242,-1,22,6,18,14,-9.059659004,4.322731018,1.757344007,-0.251540571,0.045565084,0.39889431,-51,-18,-19,29,187
1695162475100539400,-8.61314106,-1.760935307,-1.303642869,0.742764115,0.280718207,0.445525289,-3,22,4,23,12,-9.257181168,3.416525841,1.97042799,-0.274456352,0.017586524,0.78166765,-47,-19,-20,30,189
1695162475101539400,-8.633491516,-1.764526606,-1.292868972,0.745828509,0.279119462,0.451254189,-1,26,5,23,14,-9.255983353,3.397372246,1.982398987,-0.268727422,0.019451762,0.78846246,-49,-17,-16,29,189
1695162475102539400,-8.656236649,-1.769315004,-1.282094955,0.747427285,0.277520686,0.456450224,-2,25,4,26,14,-9.248801231,3.369838953,1.999158382,-0.260067374,0.022649311,0.797388971,-48,-19,-18,31,187
1695162475103539400,-8.678980827,-1.772906303,-1.274912357,0.74796015,0.275655419,0.460846871,-1,26,8,22,14,-9.241618156,3.34230566,2.014720678,-0.251274139,0.025980091,0.804450214,-48,-18,-18,31,189
1695162475104539400,-8.70172596,-1.774103403,-1.26413846,0.747294068,0.273656964,0.464577317,-2,22,4,22,12,-9.233239174,3.314772367,2.031480074,-0.242081165,0.029977029,0.810179114,-49,-18,-15,26,189
1695162475283054400,-9.06205368,-1.875856996,-1.15400517,0.581820786,0.217433393,0.418879032,-2,25,3,23,14,-8.935160637,3.095702887,2.182314873,-0.075675346,0.07714089,0.674283266,-49,-18,-15,31,192
1695162475284054400,-9.071630478,-1.881842494,-1.15520227,0.566765666,0.21450229,0.410751909,-1,25,1,16,13,-8.923190117,3.094505787,2.184709072,-0.072877489,0.074875958,0.666422606,-44,-18,-17,32,187
1695162475285054400,-9.078812599,-1.886630893,-1.15400517,0.551444113,0.211571202,0.402225107,-1,25,3,19,14,-8.904036522,3.096899986,2.184709072,-0.069413476,0.071278714,0.655098021,-50,-19,-18,31,189
1695162475286054400,-9.087192535,-1.887827992,-1.15280807,0.535722792,0.209039822,0.392765701,-5,22,3,22,13,-8.884882927,3.098097086,2.185906172,-0.066882081,0.066882081,0.644705951,-51,-18,-17,28,189
1695162475287054400,-9.091980934,-1.889025092,-1.15520227,0.519601822,0.20624195,0.38277334,-1,26,1,22,14,-8.864531517,3.099294186,2.190694571,-0.065283306,0.062085759,0.635113299,-49,-17,-18,31,189
1695162475452877000,-9.145850182,-1.800439715,-1.292868972,0.179995403,0.204243496,0.124171518,-1,23,-1,18,14,-8.763975143,2.930502892,1.958456993,-0.088732004,-0.093128636,0.564234257,-46,-18,-17,30,189
1695162475453877000,-9.155426979,-1.798045516,-1.288080573,0.163075045,0.207840726,0.111781009,2,21,3,22,13,-8.762778282,2.905363798,1.9321208,-0.085934147,-0.10178867,0.563301682,-48,-17,-15,31,190
1695162475454877000,-9.163806915,-1.796848416,-1.285686255,0.14695406,0.211437985,0.100456357,-1,23,1,19,14,-8.761581421,2.887407303,1.912967205,-0.081937209,-0.110049009,0.562502325,-48,-18,-15,31,190
1695162475455877000,-9.174580574,-1.796848416,-1.286883354,0.131898925,0.215434924,0.089797854,-1,25,1,22,10,-8.763975143,2.871845007,1.889025092,-0.078073502,-0.118309341,0.561436415,-51,-17,-15,31,189
1695162475456877000,-9.187748909,-1.800439715,-1.288080573,0.117776416,0.219565079,0.080471672,-1,23,0,19,13,-8.763975143,2.852691412,1.865083098,-0.073810108,-0.12616998,0.560370564,-49,-17,-14,31,189
1695162475603790400,-9.452308655,-1.948880196,-1.104924083,0.114179172,0.301369071,0.111514546,-1,21,4,22,13,-8.708909035,2.724601507,1.595735431,0.015987748,-0.205042884,0.469906569,-47,-20,-9,33,192
1695162475604790400,-9.459490776,-1.968033791,-1.084573388,0.127502292,0.302568167,0.123238891,-1,22,1,18,13,-8.696937561,2.726995707,1.59693253,0.017053599,-0.201978564,0.458848417,-49,-17,-12,36,188
1695162475605790400,-9.469067574,-1.987187386,-1.072602391,0.142157733,0.303367525,0.135762632,-1,22,-1,26,14,-8.687360764,2.730587006,1.59693253,0.017453292,-0.197981626,0.446857601,-46,-17,-11,36,192
1695162475606790400,-9.478644371,-2.006340981,-1.060631394,0.158012256,0.303500772,0.148552835,-1,22,5,18,14,-8.675390244,2.737769604,1.601720929,0.016520673,-0.192652375,0.433934122,-49,-15,-17,34,190
1695162475607790400,-9.487024307,-2.025494576,-1.042674899,0.174932614,0.302701384,0.161742732,-1,22,3,22,14,-8.661025047,2.736572504,1.601720929,0.015321592,-0.186656967,0.419811636,-46,-18,-13,34,193
1695162475743710800,-9.510966301,-1.9309237,-0.761356115,0.411284834,0.184658498,0.323885113,-3,27,1,19,13,-8.380903244,2.806004286,1.74657011,-0.09272895,0.040102605,0.015321592,-45,-17,-14,37,189
1695162475744710800,-9.504981041,-1.902193308,-0.729034424,0.384638578,0.175465539,0.320554376,-1,27,4,19,12,-8.371326447,2.809595585,1.758541107,-0.098324656,0.053558957,-0.007993874,-45,-17,-10,38,189
1695162475745710800,-9.498994827,-1.890222192,-0.701501071,0.352929562,0.167071983,0.315624803,-1,21,3,22,14,-8.365341187,2.811989784,1.763329506,-0.102188364,0.062352221,-0.023448698,-46,-16,-9,40,187
1695162475746710800,-9.496601105,-1.891419291,-0.678756177,0.318022966,0.159344569,0.309096456,-2,25,4,19,12,-8.360552788,2.813186884,1.772906303,-0.107517615,0.075275652,-0.046364475,-47,-17,-11,37,188
1695162475747710800,-9.496601105,-1.906981707,-0.659602582,0.281251162,0.152283311,0.301369071,-1,25,1,22,13,-8.359354973,2.817975283,1.78248322,-0.112447165,0.087666154,-0.069013782,-45,-16,-20,40,188
1695162475914610600,-9.448717117,-2.738966703,-0.659602582,0.298837662,-0.044898927,0.108849928,-1,27,7,20,14,-8.428787231,2.954444885,1.866280198,-0.11817611,0.200513005,-0.393831551,-47,-19,-12,40,190
1695162475915610600,-9.430760384,-2.71263051,-0.675164878,0.330147028,-0.055690661,0.100456357,-1,25,4,18,14,-8.440757751,2.968810081,1.868674397,-0.113912709,0.199980095,-0.404889733,-46,-18,-12,34,185
1695162475916610600,-9.416395187,-2.683900118,-0.690727174,0.360124022,-0.065816231,0.092595711,-1,21,5,22,13,-8.457517624,2.989160776,1.867477298,-0.10805054,0.198647782,-0.419012249,-45,-18,-12,35,189
1695162475917610600,-9.402029991,-2.645592928,-0.711077929,0.388102591,-0.07500919,0.084735066,-1,23,3,16,14,-8.463502884,2.999934673,1.869871497,-0.105119444,0.197715163,-0.425673813,-44,-19,-11,36,183
1695162475918610600,-9.384073257,-2.59890604,-0.732625723,0.413150072,-0.08313629,0.07714089,-1,25,5,16,12,-8.479064941,3.015496969,1.874659896,-0.100722812,0.195983157,-0.435266435,-46,-17,-11,36,189
1695162475989568400,-9.205705643,-1.713051319,-0.981622696,0.244212866,-0.119641654,-0.094194487,-2,27,3,19,15,-8.851364136,3.356670856,1.790862918,-0.030776417,0.135895863,-0.562369049,-49,-17,-12,34,189
1695162475990568400,-9.20929718,-1.690306425,-0.984016895,0.211437985,-0.121773355,-0.107251145,-1,27,5,21,13,-8.862137794,3.372233152,1.784877419,-0.028511487,0.132831544,-0.565833032,-44,-18,-13,32,189
1695162475991568400,-9.217676163,-1.679532528,-0.987608194,0.178396642,-0.124437973,-0.120441042,-1,22,6,19,13,-8.875306129,3.393780947,1.775300503,-0.026513018,0.129900455,-0.569030643,-50,-18,-14,35,186
1695162475992568400,-9.222464561,-1.677138329,-0.986411095,0.145754978,-0.127369061,-0.133364469,-1,23,3,27,12,-8.887276649,3.411737442,1.771709204,-0.025047474,0.127635539,-0.571828485,-45,-19,-12,34,188
1695162475993568400,-9.226056099,-1.683123827,-0.986411095,0.113779478,-0.130566612,-0.146287903,-1,23,0,20,13,-8.895656586,3.435679436,1.766920805,-0.023715161,0.125637069,-0.57449311,-46,-17,-13,35,187
1695162476074518900,-9.281123161,-1.740584612,-1.128866076,-0.206375197,-0.230490044,-0.291643173,0,23,3,19,13,-9.051279068,3.842693806,1.843535304,-0.058222052,0.176931083,-0.573960185,-46,-16,-13,34,186
