timestamp,left_data_Ac_X,left_data_Ac_Y,left_data_Ac_Z,left_data_Gy_X,left_data_Gy_Y,left_data_Gy_Z,left_data_flex_1,left_data_flex_2,left_data_flex_3,left_data_flex_4,left_data_flex_5,right_data_Ac_X,right_data_Ac_Y,right_data_Ac_Z,right_data_Gy_X,right_data_Gy_Y,right_data_Gy_Z,right_data_flex_1,right_data_flex_2,right_data_flex_3,right_data_flex_4,right_data_flex_5
1695162524820571000,-9.326612473,-1.70946002,-0.776918471,-0.011724349,0.039036751,-0.050094947,-1,18,13,19,12,-8.676587105,3.841496706,0.283712894,-0.002797856,0.041701376,-0.079006128,-66,-17,-21,36,174
1695162524821571000,-9.338583946,-1.70946002,-0.768538773,-0.01292343,0.036771823,-0.049961712,-1,17,13,25,11,-8.664615631,3.851073503,0.288501292,-0.005462481,0.043433387,-0.080871366,-63,-18,-9,34,173
1695162524822571000,-9.349357605,-1.70826292,-0.763750315,-0.014522205,0.034906585,-0.049961712,-2,22,11,22,9,-8.650250435,3.860650301,0.277727395,-0.008127105,0.045298621,-0.082203679,-66,-18,-19,52,173
1695162524823571000,-9.364919662,-1.704671621,-0.755370617,-0.01612098,0.033174578,-0.049961712,-1,17,15,28,12,-8.635885239,3.867832899,0.275333196,-0.009992342,0.046630934,-0.083003066,-63,-19,-17,35,174
1695162524824571000,-9.380482674,-1.699883223,-0.74339962,-0.017719755,0.031709034,-0.04969525,-1,17,11,26,11,-8.628703117,3.871424198,0.278924495,-0.011324655,0.047563553,-0.083402753,-63,-20,-17,36,174
1695162524887519200,-9.435548782,-1.638831019,-0.627280831,-0.069679938,0.001199081,-0.050494641,-2,18,13,24,13,-8.568847656,3.867832899,0.323217243,-0.03956968,0.051826954,-0.063817769,-61,-12,-17,35,174
1695162524888519200,-9.423578262,-1.631648421,-0.616506934,-0.074209802,-0.002531394,-0.052626338,-3,25,13,24,11,-8.588001251,3.861847401,0.324414343,-0.039702907,0.048629403,-0.063151613,-65,-17,-13,34,172
1695162524889519200,-9.414001465,-1.628057122,-0.612915635,-0.079272583,-0.006128637,-0.055024505,-1,17,11,19,12,-8.604761124,3.859453201,0.324414343,-0.03996937,0.045298621,-0.062885143,-64,-18,-17,34,171
1695162524890519200,-9.402029991,-1.623268723,-0.609324336,-0.084335379,-0.009592649,-0.057422664,-1,18,13,23,9,-8.626308441,3.855861902,0.318428814,-0.040102605,0.041434918,-0.062885143,-66,-16,-17,33,174
1695162524891519200,-9.390059471,-1.618480325,-0.603338838,-0.089531392,-0.013189893,-0.059954058,-3,22,13,26,10,-8.644265175,3.857059002,0.320823014,-0.040369064,0.037171517,-0.063418068,-66,-21,-11,34,166
1695162524929495500,-9.166201591,-1.608903527,-0.478840351,-0.121640123,-0.04769678,-0.043300152,-2,18,12,25,10,-8.712499619,3.885789394,0.134075299,-0.084601834,-0.04276723,-0.096725874,-63,-17,-16,34,176
1695162524930495500,-9.163806915,-1.608903527,-0.477643251,-0.118042871,-0.050228179,-0.037970904,-1,19,12,22,11,-8.718485832,3.881000996,0.113724582,-0.087133229,-0.045298621,-0.098457888,-65,-16,-14,36,176
1695162524931495500,-9.162610054,-1.604115129,-0.471657723,-0.114045948,-0.053159267,-0.03237519,-2,19,12,27,13,-8.722076416,3.881000996,0.094570965,-0.089531392,-0.047830015,-0.100056656,-62,-17,-17,35,176
1695162524932495500,-9.159018517,-1.605312228,-0.469263524,-0.109516084,-0.056356817,-0.026246555,-2,21,15,28,12,-8.724471092,3.885789394,0.076614454,-0.091663092,-0.049961712,-0.101655439,-62,-17,-15,36,173
1695162524933495500,-9.153033257,-1.602918029,-0.470460624,-0.104852989,-0.059687596,-0.019851454,-1,19,13,23,12,-8.726864815,3.889380693,0.062249243,-0.093794793,-0.051693719,-0.103254206,-64,-18,-15,34,174
1695162524967485600,-9.133879662,-1.557428241,-0.554257691,-0.056623276,-0.14748697,0.112713635,0,22,16,26,13,-8.850166321,4.018667698,-0.16879122,-0.165872887,-0.052759573,-0.133098006,-64,-18,-16,33,177
1695162524968485600,-9.133879662,-1.55862534,-0.563834488,-0.05808882,-0.150817752,0.118975498,-1,18,13,26,12,-8.860940933,4.024652958,-0.177170932,-0.171735078,-0.053292494,-0.134163857,-65,-18,-16,36,177
1695162524969485600,-9.133879662,-1.56221664,-0.572214186,-0.059687596,-0.154015318,0.125104129,-1,18,13,22,14,-8.872911453,4.028244495,-0.189141929,-0.177464008,-0.053958651,-0.134696782,-64,-17,-17,36,173
1695162524970485600,-9.135076523,-1.568202138,-0.586579442,-0.061552834,-0.157079637,0.131099537,-1,23,17,26,13,-8.882488251,4.028244495,-0.197521642,-0.183059722,-0.055024505,-0.135096475,-66,-19,-16,37,173
1695162524971485600,-9.136273384,-1.571793437,-0.599747539,-0.063684531,-0.159877479,0.137228176,-4,22,14,26,13,-8.895656586,4.030638695,-0.207098454,-0.18798928,-0.055823889,-0.135229707,-65,-15,-12,37,172
1695162525006454600,-9.229647636,-1.812410712,-0.814028561,-0.084335379,-0.192119434,0.221563548,-2,18,14,22,12,-8.910021782,4.028244495,-0.447715729,-0.145754978,-0.093128636,-0.074609496,-60,-17,-18,36,176
1695162525007454600,-9.241618156,-1.832761407,-0.825999558,-0.082470134,-0.192785591,0.224361405,-1,25,15,23,12,-8.899248123,4.034229755,-0.453701228,-0.136695251,-0.094594181,-0.06674885,-63,-18,-16,38,176
1695162525008454600,-9.25358963,-1.851915002,-0.840364814,-0.080471672,-0.193451747,0.22702603,-11,19,16,24,12,-8.884882927,4.041412354,-0.457292527,-0.127768755,-0.095926493,-0.058222052,-63,-17,-15,36,177
1695162525009454600,-9.26556015,-1.867477298,-0.852335811,-0.07820674,-0.193584993,0.229290962,-3,19,15,23,14,-8.869319916,4.048594952,-0.463278025,-0.118575804,-0.096859112,-0.049295556,-62,-18,-18,36,174
1695162525010454600,-9.276334763,-1.883039594,-0.867898107,-0.075675346,-0.194117904,0.231289431,-1,21,11,24,13,-8.853757858,4.054580688,-0.465672225,-0.109382853,-0.097791731,-0.039702907,-65,-18,-15,38,177
1695162525054448400,-9.313444138,-1.997961283,-1.063025594,-0.073943339,-0.168537512,0.207441032,-1,25,15,22,13,-8.730456352,4.106055737,-0.390254885,0.024114855,-0.083669223,0.202644721,-64,-15,-17,34,174
1695162525055448400,-9.307458878,-2.005143881,-1.063025594,-0.077274114,-0.16520673,0.205042884,-2,23,19,16,14,-8.735244751,4.097676277,-0.381875157,0.028245023,-0.084335379,0.215434924,-63,-15,-15,36,176
1695162525056448400,-9.296685219,-2.00993228,-1.058237195,-0.080738127,-0.161742732,0.202777937,-2,21,17,19,14,-8.741230011,4.089296341,-0.374692559,0.031042879,-0.084868304,0.223695248,-61,-17,-14,36,177
1695162525057448400,-9.284713745,-2.018311977,-1.059434295,-0.083935678,-0.158145472,0.200779468,-2,22,11,23,10,-8.748413086,4.082113743,-0.360327363,0.035039816,-0.086067379,0.235952526,-62,-17,-16,37,177
1695162525058448400,-9.271546364,-2.025494576,-1.060631394,-0.086999997,-0.154548228,0.198647782,-1,23,13,23,12,-8.754398346,4.068945885,-0.351947635,0.039303213,-0.087399691,0.247943342,-67,-19,-15,40,177
1695162525094401100,-8.913613319,-2.190694571,-0.973242998,-0.077540584,-0.109249614,0.150817752,-1,23,13,23,9,-8.910021782,3.769670486,-0.29688102,0.1334977,-0.162275642,0.425007641,-60,-16,-16,37,174
1695162525095401100,-8.906430244,-2.188300371,-0.9672575,-0.075408876,-0.108183771,0.14748697,-1,21,13,24,13,-8.912415504,3.752911091,-0.300472319,0.138294026,-0.16573967,0.430869848,-62,-17,-13,36,178
1695162525096401100,-8.900444984,-2.184709072,-0.9660604,-0.073676877,-0.107384384,0.14388974,-1,23,13,23,14,-8.917203903,3.737348795,-0.301669419,0.14282389,-0.168937206,0.436199099,-63,-18,-15,40,177
1695162525097401100,-8.893261909,-2.181117773,-0.963666201,-0.072078094,-0.106584989,0.140159264,-1,19,15,22,14,-8.921992302,3.724180698,-0.304063618,0.147220522,-0.171868294,0.441128641,-62,-18,-13,36,178
1695162525098401100,-8.888473511,-2.178723574,-0.963666201,-0.07087902,-0.105785601,0.136961713,-1,20,13,20,17,-8.926780701,3.707421303,-0.307654917,0.151350692,-0.174266458,0.445791721,-65,-18,-17,38,176
1695162525134378600,-9.024943352,-2.176329374,-0.993593693,-0.071012251,-0.091929555,0.071411945,-2,19,13,22,12,-8.912415504,3.450044632,-0.305260718,0.189321592,-0.180261865,0.442594171,-62,-17,-13,38,178
1695162525135378600,-9.033323288,-2.175132275,-0.995987892,-0.070079632,-0.090730481,0.067947932,-1,21,13,24,14,-8.907627106,3.440467834,-0.299275219,0.189188361,-0.179595709,0.438064337,-66,-18,-21,36,177
1695162525136378600,-9.040505409,-2.177526474,-0.995987892,-0.069147013,-0.089398161,0.064084224,-1,21,15,24,12,-8.904036522,3.432088137,-0.300472319,0.188788652,-0.178929552,0.433267981,-60,-18,-17,40,177
1695162525137378600,-9.051279068,-2.182314873,-0.995987892,-0.068214394,-0.08833231,0.06008729,-2,17,12,22,13,-8.899248123,3.423708439,-0.29688102,0.188122496,-0.178130165,0.42793873,-60,-19,-13,38,178
1695162525138378600,-9.057265282,-2.185906172,-0.999579191,-0.067281775,-0.087399691,0.057422664,-1,21,11,23,10,-8.894459724,3.415328741,-0.292092621,0.187189892,-0.177197546,0.422476262,-65,-15,-19,35,177
1695162525170357400,-9.133879662,-2.138022184,-0.999579191,-0.05142726,-0.029843798,-0.057289433,-4,18,12,24,13,-8.750806808,3.350685358,-0.134075299,0.131898925,-0.160543635,0.270725876,-64,-16,-15,34,177
1695162525171357400,-9.135076523,-2.134430885,-0.993593693,-0.052226644,-0.026379786,-0.065816231,-4,25,14,22,11,-8.742427826,3.356670856,-0.128089786,0.128035218,-0.160143942,0.26233232,-71,-18,-17,34,173
1695162525172357400,-9.139864922,-2.124854088,-0.990002394,-0.053425729,-0.022915773,-0.074609496,-4,21,13,23,12,-8.732851028,3.360262156,-0.113724582,0.124304749,-0.159744263,0.253805518,-61,-16,-13,36,177
1695162525173357400,-9.142259598,-2.11767149,-0.979228497,-0.05489127,-0.019718224,-0.083402753,-3,19,10,26,11,-8.724471092,3.361459255,-0.105344877,0.120574266,-0.159344569,0.245545179,-62,-4,-13,38,176
1695162525174357400,-9.145850182,-2.114080191,-0.975637197,-0.055823889,-0.017719755,-0.089398161,-1,21,12,22,12,-8.716091156,3.366247654,-0.099359371,0.116977029,-0.159211323,0.237551302,-65,-19,-19,34,177
1695162525210337400,-9.220070839,-1.974019289,-0.866701007,-0.078339972,0.01718683,-0.248209804,-1,21,7,22,14,-8.604761124,3.404554844,0.055066638,0.094327718,-0.184791744,0.119774885,-63,-17,-15,35,176
1695162525211337400,-9.226056099,-1.963245392,-0.85592711,-0.07820674,0.018918836,-0.254604906,-1,19,12,20,11,-8.611943245,3.405751944,0.055066638,0.095926493,-0.188921899,0.115777947,-64,-17,-16,34,174
1695162525212337400,-9.229647636,-1.952471495,-0.851138711,-0.077807046,0.020650841,-0.260866761,0,21,15,24,13,-8.621520042,3.409343243,0.057460841,0.098058186,-0.193718225,0.111647777,-64,-16,-13,35,176
1695162525213337400,-9.235632896,-1.940500498,-0.845153213,-0.077407345,0.021849923,-0.266862184,-1,21,13,26,14,-8.638279915,3.410540342,0.047884032,0.100856051,-0.199580401,0.107650839,-62,-18,-17,35,176
1695162525214337400,-9.239224434,-1.9321208,-0.840364814,-0.077007659,0.023448698,-0.27272436,-1,21,11,24,14,-8.650250435,3.414131641,0.049081136,0.10285452,-0.204243496,0.104986221,-64,-17,-16,36,176
1695162525246338400,-9.218873978,-1.643619418,-0.763750315,-0.080471672,0.048096478,-0.347333819,-1,23,10,22,14,-9.050082207,3.515885115,-0.092176765,0.130833074,-0.302701384,-0.009326187,-63,-18,-15,34,179
1695162525247338400,-9.218873978,-1.631648421,-0.757764816,-0.081404284,0.049428791,-0.348133236,-1,17,13,23,12,-9.058462143,3.529053211,-0.105344877,0.127102599,-0.303367525,-0.016653905,-60,-16,-16,33,178
1695162525248338400,-9.217676163,-1.617283225,-0.749385118,-0.082736596,0.051160797,-0.349199086,-1,19,15,19,13,-9.069235802,3.538630009,-0.117315881,0.123105668,-0.303500772,-0.02358193,-61,-17,-13,31,178
1695162525249338400,-9.212887764,-1.59932673,-0.74220252,-0.084202148,0.053958651,-0.349465549,-1,19,11,24,14,-9.078812599,3.548206806,-0.140060797,0.11924196,-0.302701384,-0.030376723,-63,-18,-13,31,172
1695162525250338400,-9.210494041,-1.587355733,-0.727837324,-0.085401222,0.056356817,-0.348932624,-2,21,11,21,12,-9.089587212,3.558980942,-0.161608621,0.115111791,-0.301369071,-0.036905054,-62,-17,-15,33,177
1695162525282317700,-9.166201591,-1.537077546,-0.466869324,-0.03011026,0.089931086,-0.233954057,-1,21,15,23,14,-8.706514359,3.684676409,-0.214281052,0.029577335,-0.188921899,-0.144156188,-62,-15,-14,33,178
1695162525283317700,-9.166201591,-1.535880446,-0.452504128,-0.02358193,0.089531392,-0.224228173,0,17,12,26,10,-8.659827232,3.691859007,-0.174776718,0.027845331,-0.178796321,-0.145355284,-65,-16,-13,32,177
1695162525284317700,-9.162610054,-1.534683347,-0.434547603,-0.017053599,0.088865243,-0.214235827,-1,18,13,26,13,-8.62511158,3.713406801,-0.155623108,0.025580399,-0.167338446,-0.146554366,-62,-16,-17,31,178
1695162525285317700,-9.157821655,-1.534683347,-0.418985307,-0.01079173,0.087666154,-0.204243496,-2,19,16,23,14,-8.598775864,3.730166197,-0.14963761,0.022516079,-0.156946406,-0.147620216,-65,-18,-14,29,177
1695162525286317700,-9.154230118,-1.532289028,-0.404620081,-0.004663093,0.086200617,-0.194117904,0,19,19,22,14,-8.567650795,3.731363297,-0.142454997,0.019185297,-0.148286372,-0.148552835,-62,-18,-17,31,176
1695162525319272200,-9.088389397,-1.574187636,-0.120907187,0.045032158,0.031176111,-0.026513018,-1,21,13,24,9,-8.359354973,3.726574898,0.293289721,-0.063551299,-0.051693719,-0.152683005,-61,-18,-14,31,180
1695162525320272200,-9.088389397,-1.580173135,-0.104147777,0.043699846,0.027845331,-0.019318528,-6,23,12,22,14,-8.367734909,3.725377798,0.313640416,-0.068347625,-0.050228179,-0.154148534,-62,-17,-17,32,177
1695162525321272200,-9.088389397,-1.586158633,-0.089782566,0.042234302,0.024781011,-0.012257273,-2,20,15,22,13,-8.380903244,3.725377798,0.336385339,-0.073143952,-0.048895866,-0.155747324,-61,-15,-15,33,180
1695162525322272200,-9.087192535,-1.592144132,-0.079008654,0.040369064,0.021450229,-0.005462481,-1,21,13,22,14,-8.390480042,3.725377798,0.355538964,-0.07794027,-0.047830015,-0.157612562,-63,-17,-14,32,178
1695162525323272200,-9.090784073,-1.59693253,-0.067037649,0.038237367,0.018119449,0.001199081,-1,11,10,24,14,-8.409633636,3.724180698,0.375889659,-0.084335379,-0.046897396,-0.160410419,-63,-17,-8,31,178
1695162525363271900,-9.21528244,-1.760935307,0.050278235,-0.008393568,-0.053159267,0.090597242,-1,25,16,22,12,-8.956708908,3.767276287,0.628477931,-0.131499231,-0.048762634,-0.201445624,-61,-17,-17,35,177
1695162525364271900,-9.224859238,-1.772906303,0.052672438,-0.010392036,-0.05768913,0.093128636,-1,23,12,22,12,-8.990227699,3.784035683,0.651222885,-0.130166918,-0.049029093,-0.203044415,-62,-17,-16,34,172
1695162525365271900,-9.22725296,-1.778891921,0.049081136,-0.012523737,-0.062218986,0.095660031,-1,21,15,24,14,-9.017760277,3.798400879,0.673967779,-0.129234299,-0.049162328,-0.204776406,-63,-18,-15,31,176
1695162525366271900,-9.232041359,-1.786074519,0.052672438,-0.014388974,-0.06674885,0.097924963,-1,18,17,22,9,-9.041702271,3.812766314,0.697909772,-0.128568143,-0.049029093,-0.206375197,-67,-17,-16,34,177
1695162525367271900,-9.236829758,-1.792060018,0.055066638,-0.016387442,-0.071278714,0.100189894,-1,21,15,27,14,-9.064447403,3.828328609,0.725443125,-0.128301695,-0.048496172,-0.207840726,-61,-15,-15,32,174
1695162525401226000,-9.255983353,-1.867477298,0.068234749,-0.049828485,-0.144422665,0.125104129,-1,20,9,20,13,-8.949525833,4.05338335,1.246181965,-0.142557427,-0.020384381,-0.158278719,-63,-18,-12,31,170
1695162525402226000,-9.252392769,-1.866280198,0.064643443,-0.05249311,-0.148686066,0.125237361,-1,21,13,24,12,-8.924386978,4.05338335,1.282094955,-0.14175804,-0.019052068,-0.148419604,-63,-18,-14,33,177
1695162525403226000,-9.252392769,-1.866280198,0.053869538,-0.055823889,-0.153082699,0.125370592,-1,17,12,25,14,-8.912415504,4.05338335,1.30005157,-0.141358346,-0.018385911,-0.143090352,-63,-17,-15,31,177
1695162525404226000,-9.251194954,-1.866280198,0.050278235,-0.059154671,-0.157612562,0.125503823,-2,18,13,24,11,-8.893261909,4.056974888,1.334767461,-0.140425727,-0.017053599,-0.135096475,-46,-15,-15,31,178
1695162525405226000,-9.249998093,-1.865083098,0.047884032,-0.063018374,-0.162009194,0.125503823,-2,19,11,24,14,-8.872911453,4.056974888,1.365892053,-0.139493108,-0.015987748,-0.126702905,-60,-18,-13,31,177
1695162525436207900,-9.160215378,-1.915361404,-0.110133275,-0.146287903,-0.225826949,0.115378261,-1,23,13,25,14,-8.4012537,3.952826977,2.166752577,-0.15787901,0.021716693,0.034773353,-62,-15,-17,31,178
1695162525437207900,-9.156624794,-1.917755604,-0.120907187,-0.149352223,-0.227825418,0.114845328,-1,22,12,20,14,-8.36893177,3.936067581,2.19308877,-0.161076576,0.022516079,0.040768761,-60,-17,-13,34,177
1695162525438207900,-9.151836395,-1.917755604,-0.130484,-0.152416542,-0.229557425,0.114312403,-2,20,11,19,12,-8.336610794,3.914519787,2.218227863,-0.164540574,0.022649311,0.046497703,-63,-18,-15,31,181
1695162525439207900,-9.147047997,-1.922544003,-0.144849196,-0.154947937,-0.230889738,0.113779478,-1,20,13,23,14,-8.301894188,3.891774893,2.237381458,-0.167871356,0.022382848,0.051826954,-62,-17,-17,31,178
1695162525440207900,-9.145850182,-1.923741102,-0.156820208,-0.1573461,-0.23222205,0.113246553,-1,17,15,26,11,-8.265981674,3.867832899,2.262520552,-0.171068922,0.021316998,0.057156201,-63,-17,-17,31,176
1695162525477187800,-9.139864922,-1.9309237,-0.360327363,-0.180528328,-0.234353751,0.094061248,-2,19,13,22,14,-8.275558472,3.183091164,2.177526474,-0.055424199,-0.181727409,0.087133229,-62,-17,-19,31,173
1695162525478187800,-9.141061783,-1.935712099,-0.37229836,-0.181194484,-0.232888207,0.09246248,-1,22,11,23,13,-8.313865662,3.154360771,2.15478158,-0.035173047,-0.198114842,0.08207044,-60,-15,-18,31,176
1695162525479187800,-9.14465332,-1.934514999,-0.384269387,-0.182127118,-0.231289431,0.090464011,-4,21,11,20,13,-8.344989777,3.128024578,2.135627985,-0.014122511,-0.214235827,0.075941809,-65,-18,-15,32,178
1695162525480187800,-9.143456459,-1.9333179,-0.396240383,-0.182926491,-0.229823887,0.088732004,-5,17,11,19,12,-8.373720169,3.107673883,2.123656988,0.007860643,-0.229290962,0.068747319,-61,-16,-14,31,177
1695162525481187800,-9.13866806,-1.9321208,-0.41060558,-0.183592647,-0.228225112,0.086733535,-2,19,12,23,14,-8.406042099,3.090914488,2.114080191,0.029977029,-0.243280247,0.060220521,-63,-16,-13,32,177
1695162525537166800,-9.123106003,-1.902193308,-0.547075093,-0.190920368,-0.180928022,0.039036751,-1,21,10,23,12,-8.390480042,3.562572241,2.050633669,0.245811626,-0.288712084,-0.264464021,-61,-17,-16,32,180
1695162525538166800,-9.121908188,-1.89740479,-0.553060591,-0.190653905,-0.177330777,0.036238898,-2,17,17,22,10,-8.349778175,3.594893932,2.042253971,0.242480844,-0.284315467,-0.281517595,-62,-15,-13,34,178
1695162525539166800,-9.120711327,-1.893813491,-0.561440289,-0.190254211,-0.173866764,0.033574272,-2,25,12,22,12,-8.306682587,3.622427225,2.037465572,0.238217458,-0.279918849,-0.297771841,-62,-13,-15,31,179
1695162525540166800,-9.120711327,-1.890222192,-0.569819987,-0.189987749,-0.170003071,0.030776417,-1,21,16,24,13,-8.262390137,3.646369219,2.032677174,0.233421117,-0.275522202,-0.313093394,-62,-18,-16,31,174
1695162525541166800,-9.121908188,-1.887827992,-0.580593884,-0.189721286,-0.166272581,0.028245023,-1,23,11,26,12,-8.219294548,3.671508312,2.026691675,0.228358343,-0.271258801,-0.327482402,-63,-18,-15,34,176
1695162525581123300,-9.17098999,-1.78128612,-0.578199685,-0.170269519,-0.087133229,-0.007860643,0,22,13,24,11,-7.939172745,3.906140089,1.736993313,0.205042884,-0.291776419,-0.439263374,-63,-17,-17,31,177
1695162525582123300,-9.169792175,-1.778891921,-0.569819987,-0.16827105,-0.082470134,-0.009326187,-1,20,13,23,13,-7.970297337,3.921702385,1.717839718,0.210505351,-0.298837662,-0.43939665,-63,-15,-15,40,178
1695162525583123300,-9.17098999,-1.777694821,-0.563834488,-0.166539043,-0.077407345,-0.01079173,-3,18,10,24,13,-8.001421928,3.934870481,1.698686123,0.216234297,-0.306565106,-0.43939665,-64,-16,-17,31,195
1695162525584123300,-9.17098999,-1.775300503,-0.55665189,-0.164940268,-0.072611026,-0.012523737,-2,17,10,19,14,-8.030152321,3.950432777,1.678335428,0.222629398,-0.31429249,-0.439263374,-65,-15,-13,41,177
1695162525585123300,-9.167398453,-1.769315004,-0.551863492,-0.163474724,-0.0678147,-0.014122511,-1,21,12,24,12,-8.062474251,3.964797974,1.655590534,0.2290245,-0.322153151,-0.438996941,-60,-18,-17,31,177
1695162525626096000,-9.070432663,-1.698686123,-0.336385339,-0.181993872,0.02384839,-0.08513476,-1,17,11,24,14,-8.209717751,4.359841347,1.000776291,0.414615631,-0.459381312,-0.413549751,-61,-15,-17,32,177
1695162525627096000,-9.075222015,-1.692700624,-0.318428814,-0.187056661,0.029843798,-0.091663092,-1,20,12,23,13,-8.195352554,4.380191803,0.958877802,0.426339954,-0.463111788,-0.407287896,-61,-17,-17,31,177
1695162525628096000,-9.082404137,-1.684320927,-0.294486821,-0.192785591,0.035972435,-0.098591112,-1,23,10,21,14,-8.179790497,4.400542736,0.920570552,0.438064337,-0.466042876,-0.400359869,-61,-13,-17,29,178
1695162525629096000,-9.093177795,-1.678335428,-0.270544797,-0.199313939,0.041967839,-0.105519146,0,21,12,23,14,-8.166622162,4.41849947,0.882263303,0.449522227,-0.468307823,-0.391833097,-61,-16,-16,32,178
1695162525630096000,-9.105149269,-1.674744129,-0.250194073,-0.20624195,0.047430322,-0.11298009,-1,21,11,24,13,-8.158242226,4.431667328,0.861912608,0.457249612,-0.469107211,-0.385437965,-61,-15,-17,31,172
1695162525671095300,-9.654618263,-1.741781712,0.233434662,-0.35372895,0.068747319,-0.263931066,-1,23,17,22,14,-8.742427826,4.952406406,0.720654726,0.525730491,-0.220764175,-0.094594181,-61,-16,-13,32,178
1695162525672095300,-9.688137054,-1.742978811,0.262165099,-0.361589581,0.063684531,-0.272191435,-1,23,16,25,11,-8.789113998,4.9763484,0.737414122,0.519335389,-0.19784838,-0.083802447,-62,-18,-16,33,178
1695162525673095300,-9.721655846,-1.745373011,0.287304193,-0.369450212,0.057822358,-0.280451775,-1,19,11,20,13,-8.833407402,5.002684593,0.751779318,0.511741161,-0.175199077,-0.073543645,-64,-18,-14,33,178
1695162525674095300,-9.749189377,-1.750161409,0.317231715,-0.376911163,0.052093416,-0.288712084,-1,19,17,20,12,-8.871714592,5.027823448,0.773327172,0.50281471,-0.152683005,-0.064350687,-63,-15,-13,31,178
1695162525675095300,-9.773131371,-1.757344007,0.343567938,-0.38383922,0.046630934,-0.296572745,-1,19,13,20,13,-8.902838707,5.055356979,0.798466265,0.492555887,-0.130566612,-0.055690661,-62,-18,-15,32,178
1695162525713046700,-10.07360363,-1.953668594,0.755370617,-0.390234292,0.017719755,-0.393831551,-1,20,11,22,12,-8.653841972,5.110423565,1.285686255,0.090197548,0.120707504,0.113779478,-62,-16,-13,29,174
1695162525714046700,-10.07240677,-1.96923089,0.77931267,-0.381041348,0.019984685,-0.395430326,-1,21,13,23,13,-8.629899979,5.081693172,1.303642869,0.071811639,0.124704443,0.124437973,-65,-18,-13,32,179
1695162525715046700,-10.06761837,-1.984793186,0.804451764,-0.370516092,0.022116385,-0.396895856,-2,21,16,26,14,-8.604761124,5.048174381,1.320402265,0.05489127,0.127901986,0.135096475,-63,-17,-16,31,178
1695162525716046700,-10.0604353,-1.999158382,0.824802458,-0.359058201,0.024114855,-0.397561997,-1,25,15,19,12,-8.578424454,5.015852451,1.335964561,0.039436448,0.130433381,0.145222053,-63,-18,-21,31,176
1695162525717046700,-10.04726696,-2.005143881,0.849941611,-0.346267998,0.026246555,-0.397961706,-1,21,11,23,14,-8.553285599,4.984727859,1.353921056,0.025580399,0.13243185,0.15534763,-61,-16,-15,34,177
1695162525771037200,-9.091980934,-1.727416515,0.568622887,0.235686064,0.3007029,-0.128035218,-1,19,7,19,11,-8.552088737,3.391386747,1.862688899,-0.148552835,0.10778407,-0.040901989,-63,-17,-16,32,177
1695162525772037200,-9.113529205,-1.716642618,0.574608386,0.229823887,0.289911181,-0.127768755,-2,20,5,22,9,-8.546102524,3.406949043,1.881842494,-0.161875948,0.111248083,-0.055424199,-61,-15,-15,33,180
1695162525773037200,-9.135076523,-1.707065821,0.578199685,0.222895861,0.278719753,-0.127901986,-1,17,8,24,13,-8.54251194,3.414131641,1.895010591,-0.174799383,0.114312403,-0.069679938,-61,-17,-18,31,181
1695162525774037200,-9.156624794,-1.695094824,0.581790984,0.215301678,0.267261863,-0.128301695,-2,18,8,20,13,-8.541314125,3.42131424,1.903390408,-0.187722817,0.116577335,-0.083535992,-62,-18,-15,32,180
1695162525775037200,-9.17697525,-1.684320927,0.582988143,0.206908107,0.255271077,-0.129101068,-4,21,1,20,11,-8.538920403,3.426102638,1.916558504,-0.200246558,0.118309341,-0.097258806,-63,-16,-11,32,180
1695162525820987400,-9.56004715,-1.612494826,0.572214186,-0.033574272,0.081404284,-0.20157887,-1,21,8,24,11,-8.621520042,3.226186752,1.839944005,-0.188388973,0.006661562,-0.274056673,-60,-15,-17,32,178
1695162525821987400,-9.581595421,-1.614889026,0.561440289,-0.048496172,0.077540584,-0.207973972,-2,17,6,17,13,-8.62511158,3.213018656,1.825578809,-0.172134757,-0.00319755,-0.279119462,-63,-17,-18,31,177
1695162525822987400,-9.605537415,-1.617283225,0.560243189,-0.063284837,0.074209802,-0.21450229,-2,18,8,18,13,-8.626308441,3.204638958,1.808819413,-0.154415011,-0.013056661,-0.283782542,-61,-15,-16,31,176
1695162525823987400,-9.62469101,-1.620874524,0.555454791,-0.07794027,0.071545176,-0.221297085,-2,17,6,20,12,-8.627506256,3.193865061,1.789665818,-0.135496169,-0.022516079,-0.288179159,-60,-15,-15,32,177
1695162525824987400,-9.646238327,-1.622071624,0.545877993,-0.092329249,0.069679938,-0.228358343,-1,19,8,23,12,-8.628703117,3.190273762,1.775300503,-0.115644716,-0.031842265,-0.292309314,-62,-15,-17,31,177
1695162525873978600,-9.804255486,-1.690306425,0.494402647,-0.238750383,0.081937209,-0.348266453,-4,19,7,22,13,-8.635885239,3.470395327,1.515529633,0.257136285,-0.117909648,-0.354128659,-64,-17,-16,31,177
1695162525874978600,-9.795876503,-1.689109325,0.494402647,-0.238750383,0.08313629,-0.352529854,-4,21,3,22,13,-8.635885239,3.500322819,1.515529633,0.265796334,-0.117243491,-0.357859105,-63,-18,-15,31,180
1695162525875978600,-9.788693428,-1.686715126,0.495599747,-0.238483921,0.084068909,-0.355194479,-4,18,3,22,12,-8.633491516,3.527856112,1.508347034,0.273257256,-0.116044402,-0.361456335,-62,-15,-12,33,174
1695162525876978600,-9.777919769,-1.685518026,0.495599747,-0.237551302,0.08513476,-0.358924955,-2,22,1,22,10,-8.634688377,3.550601006,1.499967337,0.279252678,-0.114445634,-0.365453273,-60,-16,-17,31,180
1695162525877978600,-9.764751434,-1.685518026,0.495599747,-0.236218989,0.086333841,-0.362255752,-1,19,8,22,13,-8.633491516,3.573346138,1.490390539,0.284182221,-0.112447165,-0.369583488,-64,-18,-14,31,179
1695162525950918400,-9.325415611,-1.578976035,0.531512797,-0.15841195,0.102188364,-0.322286367,-3,18,7,23,8,-8.597578049,3.907337189,1.405396342,0.237950996,-0.05249311,-0.440728962,-65,-17,-15,31,180
1695162525951918400,-9.301473618,-1.575384736,0.529118598,-0.153748855,0.102055125,-0.314558983,-3,18,5,18,9,-8.591592789,3.915716887,1.398213744,0.232754961,-0.050094947,-0.442727417,-62,-17,-16,34,180
1695162525952918400,-9.273940086,-1.568202138,0.529118598,-0.14908576,0.10178867,-0.306298614,-6,18,7,22,8,-8.585607529,3.924096584,1.393425345,0.227425739,-0.047563553,-0.444459409,-61,-16,-16,33,177
1695162525953918400,-9.252392769,-1.56101954,0.531512797,-0.144289434,0.101388969,-0.297505349,-2,20,9,20,11,-8.578424454,3.934870481,1.393425345,0.22236295,-0.045431852,-0.44619143,-61,-18,-16,31,176
1695162525954918400,-9.228450775,-1.553836942,0.535104096,-0.139626339,0.100856051,-0.288445652,-4,21,6,22,12,-8.572439194,3.94205308,1.387439847,0.217300147,-0.043566614,-0.447390497,-66,-16,-17,33,181
1695162526003883000,-8.859743118,-1.502361536,0.492008448,-0.051960181,0.054091886,-0.070346095,-1,17,4,22,12,-8.435969353,4.04739809,1.276109457,0.176131696,-0.01825268,-0.415814698,-61,-18,-17,35,176
1695162526004883000,-8.850166321,-1.498770237,0.48482585,-0.04769678,0.049961712,-0.056889739,-1,21,7,20,14,-8.42759037,4.052186489,1.26653266,0.177330777,-0.01825268,-0.411284834,-62,-18,-17,31,178
1695162526005883000,-8.83699894,-1.498770237,0.474051923,-0.043433387,0.045698319,-0.043566614,-1,17,9,22,11,-8.423998833,4.054580688,1.253364563,0.17866309,-0.018785605,-0.406488538,-65,-16,-16,31,174
1695162526006883000,-8.828619003,-1.502361536,0.466869324,-0.039436448,0.041568145,-0.030243492,-2,21,6,19,12,-8.421604156,4.054580688,1.240196466,0.180395097,-0.019318528,-0.401425719,-61,-17,-15,33,176
1695162526007883000,-8.82263279,-1.499967337,0.458489627,-0.035572741,0.037304748,-0.017053599,-3,21,8,23,9,-8.413225174,4.056974888,1.229422569,0.182393566,-0.019984685,-0.396096468,-62,-15,-15,34,178
1695162526046857000,-8.977059364,-1.546654344,0.300472319,-0.005329249,-0.017586524,0.206108719,-1,19,10,15,7,-8.482656479,4.115632534,0.990002394,0.262865245,-0.030643184,-0.274456352,-63,-18,-15,32,176
1695162526047857000,-8.993818283,-1.550245643,0.290895492,-0.005329249,-0.019718224,0.216500759,-1,18,9,22,9,-8.492233276,4.122815132,0.984016895,0.267794788,-0.029444104,-0.268727422,-61,-19,-15,31,180
1695162526048857000,-9.016563416,-1.557428241,0.281318694,-0.005196018,-0.021983154,0.226759583,0,21,6,18,9,-8.501810074,4.133589268,0.970848799,0.272191435,-0.027845331,-0.263131708,-60,-18,-16,31,177
1695162526049857000,-9.036913872,-1.564610839,0.270544797,-0.005196018,-0.024114855,0.236618683,-1,18,5,19,11,-8.51019001,4.146757126,0.9648633,0.27632159,-0.026513018,-0.257535994,-60,-18,-17,31,177
1695162526050857000,-9.054870605,-1.571793437,0.25977087,-0.005062787,-0.026379786,0.246078104,-2,17,4,22,12,-8.513781548,4.155137062,0.958877802,0.278719753,-0.025447167,-0.254071981,-61,-18,-16,32,177
1695162526091832600,-9.267954826,-1.701080322,0.05865794,0.003064318,-0.065816231,0.357725888,-3,21,5,20,12,-8.687360764,4.440047264,0.873883605,0.229557425,0.028378254,-0.145222053,-65,-17,-12,32,179
1695162526092832600,-9.276334763,-1.705868721,0.047884032,0.003597243,-0.06674885,0.360390514,-4,19,10,23,12,-8.700529099,4.452018261,0.876277804,0.221696794,0.031042879,-0.138027564,-61,-18,-16,34,177
1695162526093832600,-9.28591156,-1.71065712,0.039504327,0.003730475,-0.067681469,0.362788647,-2,19,10,23,11,-8.708909035,4.459200859,0.879869103,0.213303223,0.033973966,-0.130833074,-62,-18,-14,33,177
1695162526094832600,-9.293093681,-1.714248419,0.035913024,0.003730475,-0.068347625,0.364920378,-1,21,8,18,10,-8.716091156,4.471171856,0.877474904,0.204776406,0.036905054,-0.12337213,-60,-13,-15,33,180
1695162526095832600,-9.299078941,-1.720233917,0.027533319,0.003730475,-0.068747319,0.366652369,-1,21,4,17,9,-8.720879555,4.481945515,0.875080705,0.196116373,0.039702907,-0.115511484,-62,-17,-16,32,180
1695162526135805400,-9.404424667,-1.814804912,-0.112527482,-0.018652374,-0.07194487,0.331612557,-1,18,4,19,8,-8.72806263,4.412513733,0.916979253,0.084068909,0.101522207,0.099257268,-66,-19,-12,31,176
1695162526136805400,-9.40681839,-1.818396211,-0.120907187,-0.020917306,-0.072611026,0.325883597,-2,17,8,20,12,-8.732851028,4.400542736,0.920570552,0.084202148,0.10285452,0.114045948,-64,-17,-15,31,177
1695162526137805400,-9.409213066,-1.825578809,-0.135272399,-0.023182238,-0.073543645,0.320021451,-1,19,5,23,13,-8.735244751,4.38617754,0.926556051,0.085001536,0.103520676,0.128967836,-64,-18,-14,32,178
1695162526138805400,-9.411606789,-1.825578809,-0.140060797,-0.02571363,-0.074609496,0.313759565,-7,19,8,23,13,-8.737639427,4.376600742,0.932541549,0.086067379,0.103920363,0.138960183,-66,-15,-15,32,180
1695162526139805400,-9.41280365,-1.825578809,-0.150834709,-0.028245023,-0.075675346,0.306964755,-2,17,9,20,13,-8.743624687,4.362235546,0.936132848,0.088199086,0.103787132,0.153882071,-62,-18,-13,32,179
1695162526176781000,-9.33020401,-1.800439715,-0.317231715,-0.109382853,-0.086333841,0.131898925,-4,20,4,19,12,-8.84896946,4.147954464,1.107318282,0.13869372,0.063950993,0.393964767,-62,-18,-13,32,176
1695162526177781000,-9.321824074,-1.795651317,-0.325611442,-0.115911178,-0.085667685,0.120707504,-1,21,7,18,13,-8.84896946,4.139574528,1.109712481,0.138160795,0.062218986,0.399693698,-60,-15,-16,34,177
1695162526178781000,-9.313444138,-1.790862918,-0.338779539,-0.122572735,-0.084735066,0.109382853,-5,17,9,18,11,-8.846575737,4.12999773,1.11450088,0.137094945,0.059687596,0.407687575,-69,-18,-19,32,177
1695162526179781000,-9.305065155,-1.787271619,-0.348356336,-0.129500762,-0.083669223,0.098191425,-1,19,9,22,12,-8.845377922,4.119224072,1.119289279,0.135229707,0.057422664,0.415281773,-62,-17,-16,32,178
1695162526180781000,-9.294290543,-1.78128612,-0.354341865,-0.136828482,-0.082470134,0.086600304,-4,19,7,19,10,-8.844181061,4.110844135,1.124077678,0.133364469,0.055290964,0.422609508,-59,-16,-16,32,180
1695162526217757800,-9.278728485,-1.56221664,-0.584185243,0.009326187,0.141491577,-0.279519141,-2,20,8,22,12,-8.868123055,3.82473731,1.128866076,0.076474734,0.033441041,0.495753467,-60,-17,-12,31,180
1695162526218757800,-9.266757965,-1.564610839,-0.562637389,0.013056661,0.145488501,-0.278852999,-3,21,9,19,13,-8.869319916,3.806780815,1.130063176,0.075275652,0.032508422,0.49708578,-60,-17,-13,32,179
1695162526219757800,-9.257181168,-1.56221664,-0.551863492,0.016653905,0.148952529,-0.278186828,-2,18,10,23,11,-8.868123055,3.787626982,1.131260276,0.074343033,0.031842265,0.4981516,-62,-18,-17,31,174
1695162526220757800,-9.248801231,-1.56221664,-0.541089594,0.020117918,0.152416542,-0.27738744,-3,19,11,22,13,-8.865729332,3.769670486,1.134851575,0.073543645,0.031042879,0.498950988,-60,-16,-14,32,179
1695162526221757800,-9.242815971,-1.563413739,-0.531512797,0.022382848,0.15428178,-0.276854515,-1,18,9,21,13,-8.865729332,3.752911091,1.128866076,0.073277183,0.030376723,0.49961713,-60,-20,-12,33,180
1695162526254736100,-8.714894295,-1.060631394,-1.514332533,-0.112047479,-0.333078086,0.587816238,-2,20,12,23,12,-8.853757858,3.550601006,1.088164687,0.089264929,-0.004663093,0.477767229,-65,-18,-16,38,176
1695162526255736100,-8.720879555,-1.082179189,-1.513135433,-0.112313934,-0.324018389,0.604203641,-1,21,15,22,13,-8.850166321,3.542221308,1.089361787,0.088998467,-0.007327718,0.474836111,-60,-16,-16,32,180
1695162526256736100,-8.72806263,-1.102529883,-1.505952835,-0.112047479,-0.314958632,0.620058179,-1,20,15,26,14,-8.847772598,3.537432909,1.092953086,0.088732004,-0.009059724,0.472571194,-63,-18,-17,31,177
1695162526257736100,-8.738836288,-1.124077678,-1.507149935,-0.111248083,-0.306165397,0.636179149,-2,19,19,24,13,-8.846575737,3.530250311,1.095347285,0.08833231,-0.011591119,0.469373643,-63,-17,-13,31,177
1695162526258736100,-8.748413086,-1.143231273,-1.508347034,-0.110049009,-0.297638565,0.652166963,-3,18,15,20,13,-8.845377922,3.525461912,1.096544385,0.087399691,-0.014255743,0.46590963,-63,-16,-13,33,174
1695162526292739000,-8.955511093,-1.455674648,-1.861491799,-0.030243492,-0.020650841,0.096992344,-6,20,10,22,12,-8.416815758,4.485537052,1.15280807,0.091529861,-0.095926493,-0.241947934,-63,-17,-31,28,171
1695162526293739000,-8.956708908,-1.460463047,-1.863885999,-0.028777948,-0.019185297,0.097791731,-3,20,13,20,14,-8.422801971,4.502296448,1.163581967,0.088199086,-0.091529861,-0.238084227,-62,-18,-34,22,178
1695162526294739000,-8.957905769,-1.466448545,-1.861491799,-0.027845331,-0.017852986,0.098191425,-2,21,12,26,13,-8.425195694,4.520252705,1.175553083,0.084468603,-0.086866774,-0.23422052,-63,-17,-30,24,177
1695162526295739000,-8.957905769,-1.466448545,-1.855506301,-0.027312404,-0.016653905,0.097924963,-3,23,15,24,14,-8.425195694,4.5370121,1.18991828,0.080338441,-0.081937209,-0.230223581,-65,-17,-32,25,176
1695162526296739000,-8.956708908,-1.465251446,-1.854309201,-0.027312404,-0.015588055,0.097525269,-2,21,11,24,14,-8.421604156,4.553771496,1.209071875,0.075542115,-0.076607957,-0.225826949,-66,-15,-29,24,182
1695162526336692400,-9.923966408,-0.984016895,0.711077929,-0.914366007,0.01825268,-0.326683015,-4,19,5,18,9,-8.402450562,4.296394825,-0.318428814,-0.022382848,0.068081163,-0.122972436,-60,-17,-16,31,178
1695162526337692400,-9.922768593,-0.912190855,0.678756177,-0.981514513,-0.017320061,-0.346800923,-10,17,4,15,9,-8.419210434,4.302380562,-0.314837515,-0.047430322,0.075675346,-0.128035218,-62,-17,-16,31,180
1695162526338692400,-9.915586472,-0.848744512,0.648828685,-1.053859115,-0.055690661,-0.367851466,-7,9,5,18,9,-8.435969353,4.308365822,-0.308852017,-0.072211333,0.08313629,-0.132964775,-63,-15,-18,31,178
1695162526339692400,-9.900024414,-0.785298169,0.611718535,-1.130866766,-0.095926493,-0.389834613,-11,17,5,16,11,-8.450334549,4.30956316,-0.310049117,-0.096059717,0.090464011,-0.137761101,-60,-14,-18,31,179
1695162526340692400,-9.885659218,-0.749385118,0.591367841,-1.184558988,-0.12337213,-0.404889733,-1,30,10,29,17,-8.459911346,4.307168961,-0.314837515,-0.111514546,0.094993874,-0.140558958,-61,-12,-15,31,178
1695162526378668800,-9.141061783,-2.293645144,-1.029506683,-0.020384381,-0.085800916,0.325350702,-11,17,7,19,11,-8.632294655,4.029441357,0.671573579,-0.045698319,-0.104320064,0.640842259,-63,-15,-15,31,176
1695162526379668800,-9.141061783,-2.300827742,-1.033097982,-0.018918836,-0.082470134,0.320021451,-7,17,4,16,9,-8.633491516,4.019864559,0.678756177,-0.045298621,-0.0976585,0.643773377,-70,-21,-16,32,179
1695162526380668800,-9.141061783,-2.30561614,-1.033097982,-0.017986218,-0.080338441,0.316290945,-10,17,7,15,8,-8.634688377,4.007893562,0.683544576,-0.044898927,-0.091396637,0.646704435,-65,-17,-15,33,178
1695162526381668800,-9.139864922,-2.310404539,-1.031900883,-0.016653905,-0.07714089,0.310562044,-8,17,5,15,8,-8.63109684,3.995922565,0.684741676,-0.044499233,-0.085267991,0.649635553,-63,-17,-15,31,177
1695162526382668800,-9.141061783,-2.312798738,-1.028309584,-0.01505513,-0.073810108,0.304433405,-11,9,4,15,9,-8.632294655,3.991134167,0.691924274,-0.044366002,-0.081404284,0.651234269,-67,-19,-17,31,178
1695162526424644800,-9.387664795,-2.695871115,0.004788403,-0.127901986,-0.39316541,0.635246515,-7,17,-2,22,13,-7.829039574,3.400963545,0.575805485,-0.151217461,0.216367543,-0.299770296,-65,-19,-12,34,177
1695162526425644800,-9.351752281,-2.682703018,0.017956512,-0.141624808,-0.37917611,0.60100615,-8,9,0,18,9,-7.839813232,3.412934542,0.590170741,-0.151617154,0.21663399,-0.305632442,-69,-18,-11,34,173
1695162526426644800,-9.314641953,-2.67552042,0.027533319,-0.156546697,-0.362788647,0.567831576,-6,13,0,16,11,-7.852981567,3.433285236,0.609324336,-0.152016848,0.217566609,-0.314692199,-67,-20,-12,32,173
1695162526427644800,-9.278728485,-2.670732021,0.035913024,-0.172134757,-0.344136298,0.535989285,-7,17,-1,18,9,-7.864952564,3.451241732,0.63087213,-0.152416542,0.219565079,-0.324551284,-66,-17,-13,33,176
1695162526428644800,-9.245209694,-2.669534922,0.050278235,-0.18798928,-0.323352218,0.505479336,-9,17,0,16,7,-7.87931776,3.469198227,0.650025785,-0.152283311,0.222629398,-0.334810108,-69,-17,-12,32,176
1695162526468614600,-9.147047997,-1.477222443,-1.419761658,0.089931086,0.217699856,-0.51573813,-7,17,9,18,12,-8.744821548,2.920926094,0.432153404,0.171068922,-0.365586549,0.917430282,-75,-26,-19,31,166
1695162526469614600,-9.14465332,-1.476025343,-1.41018486,0.099923424,0.22382848,-0.511208296,-8,19,10,22,9,-8.736441612,2.907757998,0.439336002,0.174266458,-0.357725888,0.914898872,-76,-29,-21,29,164
1695162526470614600,-9.139864922,-1.471236944,-1.405396342,0.110049009,0.229957119,-0.506278694,-7,17,11,20,8,-8.725667953,2.894589901,0.451307029,0.17759724,-0.349865228,0.911301672,-75,-30,-20,30,167
1695162526471614600,-9.137471199,-1.464054346,-1.393425345,0.119774885,0.235819295,-0.501349151,-7,10,9,20,11,-8.708909035,2.885013103,0.464475125,0.181061253,-0.341604888,0.906638563,-73,-28,-20,29,167
1695162526472614600,-9.1326828,-1.461660147,-1.380257249,0.129633993,0.24154824,-0.495886683,-8,17,8,19,11,-8.694543839,2.877830505,0.471657723,0.183326185,-0.335875928,0.903041363,-71,-25,-19,30,166
1695162526504594400,-9.078812599,-1.826775908,-1.090558887,-0.121107198,-0.009992342,-0.008926493,-4,18,12,18,11,-8.599972725,3.916913986,0.626083732,0.100056656,-0.040369064,0.021983154,-76,-32,-21,28,165
1695162526505594400,-9.077615738,-1.823184609,-1.091755986,-0.121373661,-0.009459418,-0.009459418,-4,18,7,16,8,-8.602366447,3.916913986,0.626083732,0.099790201,-0.039303213,0.022516079,-76,-31,-24,28,165
1695162526506594400,-9.069235802,-1.823184609,-1.092953086,-0.121640123,-0.008926493,-0.009859112,-8,9,7,15,10,-8.603564262,3.919308186,0.63087213,0.099523738,-0.038237367,0.022915773,-76,-28,-20,28,162
1695162526507594400,-9.066842079,-1.825578809,-1.089361787,-0.121906579,-0.008393568,-0.010125575,-7,17,10,17,11,-8.603564262,3.919308186,0.626083732,0.098990813,-0.037304748,0.023315467,-76,-31,-20,28,165
1695162526508594400,-9.066842079,-1.829170108,-1.090558887,-0.122173049,-0.007594181,-0.010658499,-8,17,10,20,8,-8.605957985,3.919308186,0.622492433,0.098724343,-0.036771823,0.02358193,-75,-28,-19,28,165
1695162526545570100,-9.191340446,-1.841141105,-1.118092179,-0.132298619,0.016387442,-0.031176111,-2,22,11,22,14,-9.194931984,6.871358871,1.060631394,-0.230756521,-0.03757121,0.421143949,-67,-19,-7,36,172
1695162526546570100,-9.198522568,-1.836352706,-1.120486379,-0.134430319,0.01718683,-0.032774884,-1,21,15,26,15,-9.224859238,7.003039837,1.022324085,-0.241148531,-0.053558957,0.459248066,-66,-18,-12,35,170
1695162526547570100,-9.200917244,-1.837549806,-1.113303781,-0.137361407,0.017852986,-0.035306279,-3,25,15,28,14,-9.245209694,7.127538681,0.991199493,-0.250075042,-0.071411945,0.500816226,-68,-19,-11,33,172
1695162526548570100,-9.202114105,-1.835155606,-1.11689508,-0.139359877,0.018385911,-0.037171517,-2,22,16,28,14,-9.26556015,7.238868713,0.963666201,-0.257802457,-0.090597242,0.546248078,-65,-19,-12,33,174
1695162526549570100,-9.205705643,-1.837549806,-1.113303781,-0.141624808,0.018785605,-0.039169986,-1,23,12,23,14,-9.283516884,7.343016624,0.938527048,-0.26339817,-0.110848397,0.595943332,-64,-19,-14,31,173
1695162526588570800,-9.162610054,-1.866280198,-1.043871999,-0.146021441,0.032241959,-0.067947932,-1,25,14,29,17,-9.878476143,9.072827339,1.047463298,-0.016254211,-0.441261858,1.971022964,-65,-18,-9,35,172
1695162526589570800,-9.159018517,-1.868674397,-1.039083481,-0.140958652,0.033707503,-0.067015313,-1,20,15,25,14,-9.91438961,9.17697525,1.055842996,-0.00106585,-0.455117911,2.04390049,-64,-20,-11,36,171
1695162526590570800,-9.153033257,-1.868674397,-1.030703783,-0.136695251,0.034906585,-0.065949462,-1,21,12,23,14,-9.947908401,9.282320023,1.055842996,0.013589587,-0.469373643,2.115978479,-67,-21,-12,34,170
1695162526591570800,-9.149441719,-1.868674397,-1.021126986,-0.131765693,0.035705972,-0.064483918,-1,19,15,24,14,-9.985017776,9.390059471,1.064222693,0.026779478,-0.48456201,2.187124014,-67,-20,-12,34,173
1695162526592570800,-9.148244858,-1.871068597,-1.017535686,-0.126702905,0.036238898,-0.062885143,-4,26,11,24,15,-10.01973438,9.497797966,1.066616893,0.03956968,-0.500016868,2.256404161,-67,-19,-13,34,172
1695162526629545800,-9.10036087,-1.835155606,-0.907402456,-0.014122511,0.004529862,0.009326187,-2,25,15,28,14,-9.643844604,10.93312168,1.309628367,0.128834605,-0.818306327,3.338375092,-65,-20,-8,37,174
1695162526630545800,-9.091980934,-1.832761407,-0.905008256,-0.010392036,0.002398162,0.012656967,10,19,12,27,14,-9.564835548,10.95586681,1.323993564,0.128434911,-0.827365994,3.382607937,-64,-21,-8,36,172
1695162526631545800,-9.082404137,-1.833958507,-0.900219858,-0.007061256,0.000266462,0.015987748,-2,23,16,26,16,-9.473855972,10.97621727,1.349132657,0.128035218,-0.83469373,3.424575806,-63,-20,-7,40,176
1695162526632545800,-9.076418877,-1.835155606,-0.899022758,-0.004130168,-0.001865237,0.019185297,0,25,12,26,14,-9.366117477,10.97741508,1.381454349,0.127369061,-0.839623272,3.463612556,-63,-19,-9,48,173
1695162526633545800,-9.070432663,-1.833958507,-0.895431459,-0.001332312,-0.003730475,0.022116385,-1,21,16,24,14,-9.25957489,10.97980881,1.420958757,0.12723583,-0.84148854,3.500784159,-65,-22,-7,39,168
1695162526670498400,-9.075222015,-1.891419291,-0.960074902,0.012390506,-0.023981623,0.041301683,-1,26,16,28,15,-7.24724865,11.41315937,1.59932673,-0.076607957,-0.669487,3.827600241,-60,-18,-2,47,177
1695162526671498400,-9.082404137,-1.89740479,-0.970848799,0.01185758,-0.024914242,0.040635526,-2,17,11,28,15,-7.167042732,11.46224022,1.612494826,-0.100722812,-0.65909493,3.844520569,-59,-19,-2,45,177
1695162526672498400,-9.088389397,-1.905784607,-0.975637197,0.011324655,-0.025980091,0.039836142,-2,26,16,26,14,-7.107187748,11.52688408,1.595735431,-0.143356815,-0.655630887,3.856777906,-60,-18,-1,45,177
1695162526673498400,-9.090784073,-1.914164305,-0.979228497,0.010924961,-0.02691271,0.039036751,-1,25,15,24,14,-6.975506783,11.48498535,1.576581836,-0.174133226,-0.652699828,3.869701385,-60,-20,-1,48,174
1695162526674498400,-9.095572472,-1.917755604,-0.981622696,0.010525269,-0.027712099,0.037970904,0,25,17,30,14,-6.824671745,11.39999104,1.595735431,-0.195183769,-0.645771801,3.885422468,-55,-19,-1,46,176
1695162526710478500,-9.165003777,-1.962048292,-1.067813993,0.001199081,-0.022116385,-0.016520673,-1,19,13,20,14,-4.553771496,10.51413631,1.757344007,-0.419278711,-0.354661554,4.003865242,-53,-18,4,49,177
1695162526711478500,-9.173383713,-1.959654093,-1.07739079,-0.001598775,-0.020917306,-0.023182238,-1,11,14,22,13,-4.463989258,10.48660374,1.759738207,-0.427139342,-0.340139359,4.000267982,-55,-18,3,48,178
1695162526712478500,-9.17697525,-1.960851192,-1.082179189,-0.003863706,-0.019851454,-0.028245023,0,21,12,27,16,-4.376600742,10.46984386,1.765723705,-0.435666144,-0.327748835,3.995871305,-57,-19,4,50,178
1695162526713478500,-9.178172112,-1.957259893,-1.084573388,-0.006261868,-0.018652374,-0.033441041,-1,22,14,22,14,-4.297592163,10.468647,1.775300503,-0.444592625,-0.317623258,3.99027586,-49,-18,3,58,178
1695162526714478500,-9.184157372,-1.957259893,-1.083376288,-0.008793262,-0.017320061,-0.038637057,-1,18,15,26,14,-4.228160381,10.46984386,1.780089021,-0.453918815,-0.309629381,3.98348093,-55,-20,1,53,176
1695162526748478800,-9.190143585,-1.941697598,-1.030703783,-0.040369064,0.021450229,-0.131099537,-2,21,15,25,15,-2.679111719,10.1095171,1.953668594,-0.75368911,-0.473770291,3.744730473,-53,-19,13,68,183
1695162526749478800,-9.191340446,-1.934514999,-1.027112484,-0.041967839,0.022116385,-0.136428788,-1,24,15,26,14,-2.589329243,10.12986755,1.972822189,-0.767545164,-0.478300154,3.706759691,-49,-20,18,78,184
1695162526750478800,-9.194931984,-1.923741102,-1.027112484,-0.044099543,0.022649311,-0.141624808,-1,25,12,26,16,-2.390610456,10.22084713,2.081758261,-0.787529886,-0.480698317,3.600707531,-50,-18,20,79,184
1695162526751478800,-9.203310966,-1.912967205,-1.023521185,-0.046630934,0.022915773,-0.147087291,-3,23,15,27,14,-2.311601639,10.24359226,2.128445387,-0.79419142,-0.479232758,3.558073521,-50,-17,17,82,185
1695162526752478800,-9.212887764,-1.900996208,-1.022324085,-0.049562022,0.022649311,-0.152416542,-1,20,16,27,14,-2.227804661,10.26394272,2.189497471,-0.800586522,-0.476568133,3.51330781,-53,-19,27,86,188
1695162526789433800,-9.047688484,-1.774103403,-0.952892303,-0.128967836,0.014655436,-0.235819295,-1,26,16,27,14,-0.248996973,8.937555313,2.225410461,-0.571029067,-0.050627869,2.974520445,-57,-19,69,127,224
1695162526790433800,-9.039308548,-1.765723705,-0.954089403,-0.131499231,0.01505513,-0.238084227,-1,25,16,28,16,-0.237025961,8.876502991,2.260126352,-0.544915795,-0.028245023,2.936949492,-51,-21,74,127,227
1695162526791433800,-9.032125473,-1.760935307,-0.949300945,-0.133897394,0.015588055,-0.240215927,-1,21,12,27,14,-0.209492654,8.853757858,2.311601639,-0.526130199,-0.003064318,2.896580458,-53,-22,73,127,229
1695162526792433800,-9.027337074,-1.753752708,-0.945709646,-0.136162326,0.015987748,-0.242347628,-1,25,11,26,14,-0.162805721,8.860940933,2.373851061,-0.516937196,0.022782542,2.852747202,-47,-17,79,127,229
1695162526793433800,-9.021351814,-1.745373011,-0.940921247,-0.138294026,0.015987748,-0.243946403,-1,22,15,29,15,-0.118512981,8.851364136,2.420537949,-0.51573813,0.047963247,2.804517746,-46,-18,84,128,232
1695162526849397200,-8.973467827,-1.557428241,-0.968454599,-0.18492496,-0.001998469,-0.22702603,-1,22,16,27,14,1.18991828,7.821856976,2.612074137,-1.492589474,0.258202136,1.948240399,-34,-18,139,145,245
1695162526850397200,-8.971074104,-1.553836942,-0.975637197,-0.188655436,-0.00319755,-0.22236295,-3,21,16,27,15,1.242590666,7.727285862,2.643198729,-1.558805585,0.26126644,1.918263316,-32,-21,138,148,244
1695162526851397200,-8.971074104,-1.550245643,-0.979228497,-0.191053599,-0.003863706,-0.218765706,-1,27,15,26,14,1.290474772,7.630321026,2.668337822,-1.62528789,0.264064312,1.887486935,-33,-17,141,144,241
1695162526852397200,-8.969876289,-1.550245643,-0.986411095,-0.193318531,-0.004529862,-0.214901984,-2,25,15,23,15,1.332373261,7.536946774,2.698265314,-1.690837622,0.267261863,1.85537827,-28,-17,141,144,245
1695162526853397200,-8.968679428,-1.553836942,-0.988805294,-0.19478406,-0.004929556,-0.212237358,-1,22,14,26,17,1.361103654,7.447164536,2.734178305,-1.754522204,0.271258801,1.82100451,-30,-17,143,144,241
1695162526905364400,-9.024943352,-1.52390933,-1.095347285,-0.249808565,-0.026113322,-0.163474724,0,20,15,30,15,2.442085743,5.402516365,3.337517262,-2.327150106,0.488159269,0.897845328,11,-15,151,146,240
1695162526906364400,-9.027337074,-1.52510643,-1.100135684,-0.256070435,-0.027445635,-0.162941799,-1,26,16,30,14,2.499546528,5.316324711,3.374627352,-2.32701683,0.50747782,0.856810093,9,-9,151,150,237
1695162526907364400,-9.024943352,-1.522712231,-1.106121182,-0.262731999,-0.028644716,-0.162408888,1,26,16,28,14,2.549824715,5.243301868,3.388992548,-2.324618816,0.525730491,0.817373693,13,-7,151,148,241
1695162526908364400,-9.022548676,-1.520318031,-1.11569798,-0.269660026,-0.029577335,-0.162275642,0,25,15,27,15,2.59890604,5.153519154,3.399766445,-2.317557335,0.546514511,0.765813112,9,-4,147,152,236
1695162526909364400,-9.026140213,-1.517923832,-1.11689508,-0.276987731,-0.030243492,-0.161875948,-1,23,18,30,14,2.627636433,5.087678432,3.424905539,-2.30982995,0.558238924,0.728108704,15,-6,151,152,240
1695162526947342200,-9.022548676,-1.569399238,-1.221042871,-0.372781008,-0.012390506,-0.15481469,-2,22,15,27,14,3.257311344,3.894169092,4.376600742,-1.899877548,0.348932624,0.374779463,39,-3,157,149,231
1695162526948342200,-9.024943352,-1.571793437,-1.222239971,-0.37451303,-0.011457887,-0.153215915,-1,25,16,24,14,3.296815634,3.869029999,4.430470467,-1.862705946,0.332145482,0.357725888,36,-5,158,148,229
1695162526949342200,-9.027337074,-1.570596337,-1.224634171,-0.375978559,-0.01079173,-0.151617154,-1,25,16,30,14,3.34230566,3.852270603,4.49870491,-1.824202061,0.317756504,0.338807046,37,-2,158,146,231
1695162526950342200,-9.032125473,-1.565807939,-1.224634171,-0.377444088,-0.009725881,-0.149751917,-1,25,13,27,14,3.396175146,3.839102507,4.57531929,-1.784898877,0.30749771,0.317623258,37,-2,157,149,230
1695162526951342200,-9.03571701,-1.56221664,-1.22822547,-0.378776401,-0.009059724,-0.147753447,1,26,17,28,15,3.453635931,3.833117008,4.649539471,-1.745462537,0.301635504,0.294174582,39,-2,157,149,231
1695162526990316500,-9.060855865,-1.59693253,-1.216254473,-0.400892794,-0.001598775,-0.079405814,-1,23,15,28,15,4.765658379,3.519476414,5.665878296,-1.209473133,0.715851426,-0.304699838,20,5,157,145,215
1695162526991316500,-9.060855865,-1.601720929,-1.217451572,-0.401159286,-0.001465544,-0.074875958,-1,23,11,25,14,4.794388771,3.428496838,5.68383503,-1.17230165,0.723445654,-0.306565106,21,9,158,149,217
1695162526992316500,-9.057265282,-1.606509328,-1.216254473,-0.401292503,-0.001332312,-0.070346095,-3,21,16,27,14,4.818330765,3.335123062,5.704185486,-1.130600333,0.725310862,-0.302967817,21,7,156,150,218
1695162526993316500,-9.054870605,-1.614889026,-1.209071875,-0.401292503,-0.00106585,-0.065416537,0,23,19,26,17,4.823119164,3.236960649,5.72573328,-1.084102511,0.721580386,-0.294707507,19,3,156,148,221
1695162526994316500,-9.047688484,-1.619677424,-1.211466074,-0.401159286,-0.001199081,-0.060620211,-3,26,15,24,14,4.814739704,3.148375273,5.747281075,-1.032808542,0.712254226,-0.282583475,20,7,158,148,220
1695162527030293200,-9.001001358,-1.784877419,-1.169567585,-0.356260329,0.002664625,0.051560488,0,23,16,26,14,4.841075897,3.19865346,7.165845871,-0.248609498,0.415548235,-0.348399699,21,8,155,148,217
1695162527031293200,-9.006986618,-1.794454217,-1.173158884,-0.351996928,0.001732006,0.057422664,-2,22,14,28,14,4.815936565,3.187879562,7.181407928,-0.251407355,0.420877486,-0.380375206,21,7,155,148,215
1695162527032293200,-9.011775017,-1.796848416,-1.177947283,-0.348932624,0.001199081,0.061286367,0,21,15,25,15,4.780023575,3.167528868,7.187393665,-0.254871368,0.427139342,-0.414482385,20,4,158,148,217
1695162527033293200,-9.018958092,-1.804031014,-1.185129881,-0.34440276,0.000133231,0.066882081,-1,25,17,25,15,4.726154327,3.137601376,7.175422668,-0.257269531,0.43366769,-0.450321585,20,8,155,149,215
1695162527034293200,-9.024943352,-1.808819413,-1.182735682,-0.33973965,-0.000799387,0.072477795,-1,26,15,27,14,4.661510944,3.099294186,7.153874874,-0.256869823,0.439663082,-0.487626314,24,8,156,145,218
1695162527067276100,-9.229647636,-1.978807688,-1.170764685,-0.231955588,-0.010392036,0.183192953,-1,21,13,29,14,2.991554976,3.626018524,6.858190536,0.268594176,0.478033692,-0.871865213,20,13,152,147,217
1695162527068276100,-9.242815971,-1.990778685,-1.167173386,-0.225160792,-0.010258805,0.189321592,0,22,14,28,14,2.834734917,3.75769949,6.889315605,0.275522202,0.490690649,-0.893981636,19,13,148,143,215
1695162527069276100,-9.249998093,-1.999158382,-1.163581967,-0.218366012,-0.010258805,0.195183769,-2,19,15,24,14,2.667140722,3.90135169,6.919242859,0.276454836,0.504813194,-0.91783005,19,11,153,143,213
1695162527070276100,-9.25957489,-2.00993228,-1.161187768,-0.211837664,-0.010258805,0.201045945,-1,25,19,25,16,2.481590033,4.054580688,6.943184853,0.271125585,0.519735038,-0.943676889,15,12,149,144,217
1695162527071276100,-9.266757965,-2.021903276,-1.156399369,-0.2051761,-0.010258805,0.206908107,-1,26,16,27,14,2.282871246,4.213795185,6.962338448,0.259267986,0.534790218,-0.971388996,19,12,151,145,215
1695162527107248700,-9.320627213,-2.111685991,-1.031900883,-0.147620216,-0.027578866,0.242747322,-1,22,15,24,17,-1.120486379,6.619967937,6.953958988,-0.455784082,0.527062774,-1.22892499,19,16,153,145,216
1695162527108248700,-9.325415611,-2.110488892,-1.025915384,-0.151217461,-0.029444104,0.238750383,-2,25,15,23,14,-1.285686255,6.702567577,6.969521046,-0.468973964,0.512940288,-1.210539103,19,13,153,143,216
1695162527109248700,-9.32421875,-2.106897593,-1.028309584,-0.155747324,-0.031709034,0.23422052,-1,22,11,24,14,-1.456871748,6.793547153,6.992266178,-0.4784334,0.498551309,-1.191886663,9,15,150,144,216
1695162527110248700,-9.323021889,-2.103306293,-1.031900883,-0.161209792,-0.033840735,0.228758052,-3,23,13,26,14,-1.576581836,6.858190536,7.010222435,-0.482430339,0.488692194,-1.17909646,15,16,148,143,215
1695162527111248700,-9.320627213,-2.097320795,-1.033097982,-0.167338446,-0.036238898,0.222895861,-3,25,11,26,14,-1.752555609,6.965929985,7.042544365,-0.485894322,0.473770291,-1.159911156,20,16,148,146,216
1695162527142232400,-9.320627213,-1.968033791,-1.031900883,-0.384505361,-0.065683,0.053825419,-1,22,15,29,14,-2.482787132,7.975085735,7.669825077,-0.641641676,0.158278719,-0.573826909,16,15,149,144,215
1695162527143232400,-9.317035675,-1.960851192,-1.029506683,-0.39782849,-0.06674885,0.045964777,-1,23,15,29,15,-2.37624526,7.831433773,7.648277283,-0.61392951,0.140425727,-0.526529849,10,11,147,143,215
1695162527144232400,-9.313444138,-1.958456993,-1.028309584,-0.410485446,-0.067681469,0.039036751,-1,25,15,26,14,-2.261323452,7.681796074,7.625532627,-0.578490078,0.123505361,-0.478300154,15,16,146,143,215
1695162527145232400,-9.312247276,-1.958456993,-1.029506683,-0.422609508,-0.068614088,0.032641653,-2,26,15,27,14,-2.182314873,7.5812397,7.609970093,-0.550644696,0.112846859,-0.445791721,15,13,151,143,215
1695162527146232400,-9.308655739,-1.954865694,-1.027112484,-0.434200615,-0.069546707,0.026779478,0,25,12,23,14,-2.054224968,7.435193539,7.5812397,-0.503214419,0.098058186,-0.397029072,12,15,147,143,215
1695162527185207000,-9.202114105,-2.057816267,-1.047463298,-0.43260181,-0.076874427,0.044499233,-2,25,12,26,14,0.193930343,6.098031521,7.8757267,0.326683015,0.083003066,0.223029092,13,15,145,143,216
1695162527186207000,-9.192537308,-2.062604666,-1.043871999,-0.420877486,-0.076208271,0.051693719,-2,27,15,29,14,0.274136096,6.052541733,7.898471355,0.328415006,0.090464011,0.229957119,11,13,148,144,216
1695162527187207000,-9.185355186,-2.068590164,-1.045069098,-0.408353746,-0.075542115,0.059421133,-1,23,15,26,14,0.355538964,6.003460884,7.923610687,0.326949447,0.0976585,0.234486982,9,15,148,143,217
1695162527188207000,-9.178172112,-2.073378563,-1.042674899,-0.394897372,-0.074875958,0.067415006,-3,21,11,23,14,0.407014281,5.971138954,7.934384346,0.324418068,0.101655439,0.236618683,8,15,144,143,210
1695162527189207000,-9.17098999,-2.076969862,-1.036689281,-0.380908102,-0.074209802,0.075675346,-3,23,15,29,14,0.475249052,5.925649166,7.953537941,0.31895557,0.106851459,0.238350689,10,16,147,142,215
1695162527225205900,-9.089587212,-2.128445387,-0.946906745,-0.132964775,-0.085401222,0.228491575,-1,22,14,26,14,1.11569798,5.491101742,8.131906509,0.100189894,0.061819296,0.161209792,7,15,145,136,215
1695162527226205900,-9.085995674,-2.129642487,-0.940921247,-0.124437973,-0.086467072,0.233287901,-1,25,16,25,13,1.120486379,5.479130745,8.137891769,0.093661562,0.06261868,0.150151595,10,13,146,142,215
1695162527227205900,-9.081207275,-2.128445387,-0.938527048,-0.116843797,-0.087799385,0.237684533,-1,22,12,24,13,1.125274777,5.469553947,8.139088631,0.088065848,0.064084224,0.138560489,9,14,146,143,214
1695162527228205900,-9.081207275,-2.130839586,-0.936132848,-0.109915771,-0.088998467,0.24154824,-1,25,12,26,14,1.126471877,5.463568211,8.143877029,0.083402753,0.066882081,0.126702905,7,16,147,140,215
1695162527229205900,-9.077615738,-2.132036686,-0.933738649,-0.104053594,-0.09033078,0.244745791,-1,22,15,26,13,1.122880578,5.462371349,8.148665428,0.079405814,0.070079632,0.115111791,7,16,146,143,215
1695162527261159800,-9.093177795,-2.161964178,-0.900219858,-0.118842266,-0.104852989,0.215834603,-2,22,17,26,14,0.735019922,5.474342346,8.037335396,0.086467072,0.045431852,-0.008260337,-2,13,146,142,216
1695162527262159800,-9.095572472,-2.163161278,-0.900219858,-0.124970905,-0.105785601,0.209972441,-2,19,12,23,14,0.697909772,5.471948147,8.013393402,0.089931086,0.039036751,-0.010125575,7,14,147,142,215
1695162527263159800,-9.10036087,-2.166752577,-0.903811157,-0.131232768,-0.106451757,0.20357734,-2,23,14,30,14,0.665588081,5.464765549,7.987056732,0.094194487,0.03237519,-0.011724349,7,16,144,143,215
1695162527264159800,-9.103952408,-2.166752577,-0.910993755,-0.137761101,-0.107251145,0.196915776,-1,26,17,25,14,0.644040287,5.45997715,7.971494675,0.096992344,0.028111791,-0.012523737,6,13,148,140,214
1695162527265159800,-9.108740807,-2.169146776,-0.910993755,-0.144689128,-0.107917301,0.190120965,-1,21,17,24,14,0.614112735,5.448006153,7.937975883,0.101522207,0.021849923,-0.013056661,5,14,144,142,215
1695162527303155000,-9.057265282,-2.262520552,-0.993593693,-0.222229704,-0.095393561,0.071545176,-1,21,16,29,14,-0.003591303,4.930858612,6.873753071,0.231022969,-0.024514547,0.03996937,9,9,143,138,215
1695162527304155000,-9.060855865,-2.262520552,-0.997184992,-0.220364481,-0.092862174,0.066882081,-1,26,11,26,14,-0.025139118,4.876988888,6.806715488,0.239816234,-0.021716693,0.046764165,14,11,144,136,216
1695162527305155000,-9.059659004,-2.263717651,-1.00436759,-0.218232766,-0.090197548,0.062218986,-2,19,16,27,14,-0.044292733,4.823119164,6.742072105,0.249142408,-0.018519141,0.054225113,13,8,144,140,215
1695162527306155000,-9.06205368,-2.263717651,-1.009155989,-0.21556814,-0.08753293,0.05768913,-1,25,13,28,14,-0.056263741,4.786009312,6.697779179,0.255670756,-0.016254211,0.059421133,13,9,142,137,216
1695162527307155000,-9.057265282,-2.262520552,-1.018732786,-0.212370604,-0.08513476,0.053292494,-3,19,17,28,14,-0.06584055,4.728548527,6.629544735,0.26592955,-0.012124043,0.067548238,11,4,142,137,215
1695162527344114900,-9.069235802,-2.133233786,-1.101332784,-0.162142411,-0.049029093,-0.038104136,-1,25,16,27,15,-0.379480958,3.999513865,5.436035156,0.603004575,0.107517615,0.202245027,-3,-2,129,127,215
1695162527345114900,-9.070432663,-2.128445387,-1.101332784,-0.161076576,-0.046764165,-0.043433387,-1,25,17,26,14,-0.395043284,4.0114851,5.371391296,0.619392037,0.111781009,0.203177631,6,-1,128,127,218
1695162527346114900,-9.071630478,-2.120065689,-1.100135684,-0.160010725,-0.044366002,-0.048629403,-3,21,17,26,14,-0.416591108,4.029441357,5.31273365,0.633381307,0.116044402,0.20357734,5,-2,127,127,217
1695162527347114900,-9.071630478,-2.114080191,-1.095347285,-0.159211323,-0.041967839,-0.053558957,-2,20,13,29,15,-0.44651863,4.052186489,5.257667065,0.643906593,0.120574266,0.203177631,-2,-2,127,127,215
1695162527348114900,-9.071630478,-2.110488892,-1.096544385,-0.158145472,-0.03956968,-0.058488514,-1,22,15,26,16,-0.48243165,4.08570528,5.20020628,0.651101053,0.125237361,0.202245027,-3,-2,126,126,215
1695162527411077400,-9.119514465,-1.978807688,-1.04147768,-0.124038287,0.020650841,-0.131499231,-1,23,12,27,14,-0.213083953,4.438849926,4.838681698,0.296839207,0.573960185,0.172001526,-10,25,62,96,215
1695162527412077400,-9.133879662,-1.97042799,-1.039083481,-0.122173049,0.023182238,-0.134430319,-1,21,16,29,14,-0.189141929,4.440047264,4.857835293,0.278320044,0.636712074,0.172934145,-11,-2,58,95,215
1695162527413077400,-9.148244858,-1.960851192,-1.035492182,-0.120574266,0.025313934,-0.137361407,-1,22,17,26,14,-0.175973818,4.438849926,4.86980629,0.267528325,0.680012286,0.173600301,-12,-2,52,92,215
1695162527414077400,-9.163806915,-1.952471495,-1.030703783,-0.119108729,0.027045943,-0.140425727,-2,23,15,24,14,-0.16879122,4.430470467,4.879383087,0.255004585,0.74796015,0.174666151,-12,-2,46,92,215
1695162527415077400,-9.179368973,-1.945288897,-1.024718285,-0.117776416,0.028378254,-0.143356815,-1,27,14,26,16,-0.183156431,4.438849926,4.896142483,0.253405809,0.816574275,0.180661559,-14,-3,41,89,214
1695162527458047800,-9.382876396,-1.843535304,-0.92775315,-0.125770286,0.025580399,-0.209039822,-1,26,15,25,14,-0.806845963,5.179855347,5.553350925,0.149218991,2.364454746,-0.30643183,-27,-1,-7,64,201
1695162527459047800,-9.380482674,-1.844732404,-0.924161851,-0.12616998,0.026246555,-0.211304754,2,25,17,27,14,-0.867898107,5.175066948,5.597643375,0.127768755,2.438131571,-0.367052078,-26,-1,-5,63,199
1695162527460047800,-9.37449646,-1.843535304,-0.920570552,-0.126436442,0.027179174,-0.214901984,-3,25,11,27,15,-0.92775315,5.175066948,5.647922039,0.103920363,2.513140917,-0.428205222,-27,-2,-7,60,200
1695162527461047800,-9.370905876,-1.839944005,-0.913387954,-0.126569673,0.028111791,-0.218232766,-2,25,15,26,14,-0.999579191,5.182249546,5.670666695,0.075542115,2.590681553,-0.492822349,-33,-1,-11,60,198
1695162527462047800,-9.364919662,-1.841141105,-0.912190855,-0.126436442,0.029444104,-0.221430331,-1,23,12,26,14,-1.067813993,5.151124954,5.650316238,0.053958651,2.661560535,-0.560770333,-30,-1,-11,63,200
1695162527499024300,-9.009381294,-1.825578809,-0.798466265,-0.060486984,0.045298621,-0.249542102,-2,23,13,28,14,-2.776076794,4.942829609,6.177040577,-0.240349159,3.637612581,-1.782500744,-42,-1,-24,34,196
1695162527500024300,-8.985439301,-1.825578809,-0.791283667,-0.052759573,0.045032158,-0.247676879,-1,27,17,26,14,-2.912546396,4.896142483,6.156689644,-0.236618683,3.670920372,-1.831796408,-41,0,-25,34,192
1695162527501024300,-8.961497307,-1.823184609,-0.78050977,-0.044765696,0.044632465,-0.245545179,-3,25,18,27,14,-3.052607059,4.850652695,6.133944988,-0.230490044,3.700098038,-1.879892826,-43,0,-31,31,197
1695162527502024300,-8.932766914,-1.82079041,-0.766144514,-0.036372125,0.044099543,-0.24261409,-1,22,15,24,14,-3.189076662,4.806359768,6.107608318,-0.223295555,3.725012064,-1.926790237,-44,-1,-31,33,193
1695162527503024300,-8.906430244,-1.814804912,-0.757764816,-0.027712099,0.043566614,-0.23941654,-1,22,15,28,14,-3.318363667,4.747702122,6.06451273,-0.213169977,3.746329069,-1.972488523,-41,-1,-27,31,190
1695162527542998700,-8.678980827,-1.624465823,-0.694318473,0.135096475,-0.018918836,-0.099390499,-2,25,16,27,14,-5.925649166,4.362235546,4.633977413,0.34227106,2.942944765,-2.584419727,-43,-1,-33,24,190
1695162527543998700,-8.676587105,-1.611297727,-0.700303972,0.139359877,-0.025180703,-0.089531392,-1,21,15,30,15,-6.007051945,4.376600742,4.574122429,0.372647762,2.845153332,-2.607335329,-44,-2,-31,20,193
1695162527544998700,-8.675390244,-1.59812963,-0.702698171,0.142957121,-0.03130934,-0.079272583,-3,20,12,28,16,-6.072892666,4.3897686,4.520252705,0.400226623,2.743763924,-2.627986193,-44,-1,-32,24,192
1695162527545998700,-8.676587105,-1.587355733,-0.712275028,0.145355284,-0.037437979,-0.069013782,-1,26,15,29,14,-6.119579315,4.401739597,4.467580318,0.424607962,2.639444113,-2.646238804,-44,1,-33,17,190
1695162527546998700,-8.678980827,-1.574187636,-0.723048925,0.147220522,-0.043699846,-0.058754977,-1,25,15,25,15,-6.151901245,4.410119534,4.428076267,0.445525289,2.533125639,-2.661960363,-44,-2,-34,20,190
1695162527590971600,-8.863334656,-1.509544134,-1.021126986,0.06261868,-0.125237361,0.114312403,-3,4,14,28,17,-7.547720909,4.285621166,4.999093056,0.368650824,0.994970918,-2.537255526,-44,-2,-33,20,189
1695162527591971600,-8.878896713,-1.519120932,-1.042674899,0.056223582,-0.12616998,0.122173049,-3,21,15,24,14,-7.645883083,4.262876034,5.018246651,0.370782524,0.964993894,-2.530460835,-44,-2,-29,21,186
1695162527592971600,-8.895656586,-1.528697729,-1.059434295,0.049961712,-0.126836136,0.129633993,-1,25,13,22,14,-7.796717644,4.230554581,5.045780182,0.378643185,0.923159301,-2.521001577,-43,-1,-27,21,189
1695162527593971600,-8.912415504,-1.543063045,-1.07858789,0.044232771,-0.126969382,0.137094945,-1,26,15,26,14,-7.953537941,4.205415249,5.070919037,0.393431842,0.885721326,-2.512874365,-44,-3,-32,20,185
1695162527594971600,-8.929175377,-1.56221664,-1.101332784,0.039036751,-0.126569673,0.144156188,-2,21,13,23,14,-8.113949776,4.197035789,5.096058369,0.415548235,0.852679908,-2.506079674,-44,-1,-28,22,187
1695162527633955300,-9.31823349,-1.918952703,-1.382651448,0.072344564,-0.070479326,0.217033699,-1,23,14,26,15,-10.19570827,5.309142113,5.196614742,1.958099604,0.876794755,-2.52593112,-44,-2,-30,20,186
1695162527634955300,-9.331400871,-1.936909199,-1.389834046,0.081004597,-0.065283306,0.216900453,-1,26,16,25,13,-10.19211674,5.361814499,5.143942356,2.062153101,0.889984667,-2.507278681,-42,-2,-29,20,187
1695162527635955300,-9.340977669,-1.959654093,-1.397016644,0.090464011,-0.059954058,0.216767237,-1,25,14,26,16,-10.18253994,5.391742229,5.103240967,2.131166935,0.897978544,-2.49222374,-43,-3,-30,20,185
1695162527636955300,-9.345766068,-1.980004787,-1.399410844,0.100323126,-0.053958651,0.216234297,-1,21,17,26,14,-10.16578007,5.422866821,5.030217648,2.234154701,0.908370614,-2.465577364,-42,-2,-34,22,188
1695162527637955300,-9.348160744,-1.999158382,-1.403002143,0.110981621,-0.047830015,0.215168446,-1,25,16,27,14,-10.14542961,5.443217754,4.950012207,2.336609602,0.917297065,-2.434267998,-42,-3,-29,21,188
1695162527682924100,-9.205705643,-2.129642487,-1.313219666,0.365852982,0.086999997,0.149885148,-1,22,13,26,14,-10.77151299,4.780023575,2.700659513,4.365588188,0.923292518,-1.443027616,-43,-3,-31,21,184
1695162527683924100,-9.193734169,-2.123656988,-1.30124867,0.378643185,0.094194487,0.144822344,-1,19,16,31,15,-10.87925243,4.805162907,2.608482838,4.365588188,0.931286395,-1.41065228,-42,-2,-28,20,188
1695162527684924100,-9.17697525,-2.118868589,-1.283292055,0.390900433,0.100856051,0.140026033,-1,21,15,27,14,-10.99776554,4.83509016,2.516305923,4.365588188,0.93861407,-1.387203693,-41,-2,-28,20,185
1695162527685924100,-9.160215378,-2.109291792,-1.26653266,0.402491599,0.107650839,0.135362938,0,23,12,25,14,-11.12585545,4.857835293,2.438494444,4.365588188,0.947007596,-1.366153121,-39,-4,-28,21,186
1695162527686924100,-9.14465332,-2.096123695,-1.242590666,0.413416535,0.114179172,0.130833074,-1,21,13,23,14,-11.26711273,4.917690277,2.37863946,4.365588188,0.958065867,-1.349366069,-42,-5,-29,26,186
1695162527730890300,-9.118317604,-2.029085875,-0.831985116,0.551310837,0.182793275,0.096459419,-1,22,10,26,14,-14.09825706,8.051700592,1.540668845,4.365588188,0.93648243,-1.898545146,-44,-3,-30,21,185
1695162527731890300,-9.124302864,-2.030282974,-0.809240162,0.556107163,0.182526797,0.096192956,-1,24,13,26,14,-14.19641876,8.246828079,1.504755735,4.365588188,0.902375162,-1.951038361,-41,-3,-28,24,188
1695162527732890300,-9.136273384,-2.027888775,-0.793677866,0.560503781,0.181727409,0.095393561,-1,23,12,23,14,-14.28260994,8.47188282,1.484405041,4.365588188,0.86373812,-1.999667645,-44,-3,-28,21,185
1695162527733890300,-9.148244858,-2.020706177,-0.770932972,0.564234257,0.180395097,0.094460949,-2,21,16,28,14,-14.34964752,8.718485832,1.464054346,4.365588188,0.822436452,-2.04856348,-40,-3,-28,24,185
1695162527734890300,-9.159018517,-2.017114878,-0.751779318,0.567431867,0.178529859,0.093395106,-4,25,13,23,15,-14.39513779,8.955511093,1.434126854,4.365588188,0.777803957,-2.097859144,-44,-5,-29,24,184
1695162527777864300,-9.346963882,-1.800439715,-0.629675031,0.41394946,0.081537522,-0.022516079,-2,22,13,26,15,-12.38640213,11.11149025,1.064222693,2.230024576,-0.249408886,-2.367652416,-43,-5,-26,22,186
1695162527778864300,-9.348160744,-1.786074519,-0.634463429,0.393032134,0.075941809,-0.034640122,-2,25,16,26,14,-12.19127464,11.057621,1.07739079,2.018586397,-0.277120978,-2.332079649,-42,-5,-24,22,185
1695162527779864300,-9.349357605,-1.775300503,-0.640448928,0.371448696,0.070612557,-0.047030624,-1,19,12,24,14,-11.99734497,10.98340034,1.090558887,1.808214307,-0.299903542,-2.290777922,-42,-4,-25,19,186
1695162527780864300,-9.350554466,-1.763329506,-0.653617084,0.349199086,0.065683,-0.059421133,-1,23,17,24,14,-11.87045193,10.92115116,1.097741485,1.669520617,-0.312427253,-2.260001659,-41,-6,-25,21,184
1695162527781864300,-9.351752281,-1.754949808,-0.659602582,0.326549739,0.061019909,-0.072078094,-2,22,12,23,14,-11.68011284,10.80622959,1.106121182,1.464211226,-0.327349156,-2.209107161,-41,-4,-24,20,188
1695162527825837700,-9.282320023,-1.826775908,-0.839167714,0.063817769,0.07194487,-0.259934127,-2,21,13,28,14,-9.504981041,6.136339188,0.599747539,-0.658695281,-0.106451757,-0.39889431,-39,-2,-23,28,184
1695162527826837700,-9.275136948,-1.831564307,-0.845153213,0.064750381,0.075941809,-0.264996946,-2,22,17,24,14,-9.476250648,5.900510311,0.574608386,-0.643373668,-0.091663092,-0.29817152,-42,-3,-24,24,183
1695162527827837700,-9.26556015,-1.839944005,-0.848744512,0.067415006,0.07993874,-0.269127101,-2,30,14,26,13,-9.448717117,5.680243492,0.543483794,-0.617926478,-0.077807046,-0.200646251,-41,-4,-21,25,185
1695162527828837700,-9.258378029,-1.844732404,-0.85592711,0.071678407,0.084068909,-0.272857577,-1,25,12,23,13,-9.427168846,5.471948147,0.524330199,-0.582486987,-0.065150075,-0.106451757,-40,-2,-24,22,185
1695162527829837700,-9.251194954,-1.845929503,-0.863109708,0.077807046,0.088065848,-0.275522202,-6,19,15,27,14,-9.410409927,5.335478306,0.513556242,-0.553176105,-0.057289433,-0.045698319,-39,-4,-29,25,185
1695162527874808700,-9.001001358,-1.711854219,-0.834379315,0.357992321,0.134030625,-0.200246558,-2,21,12,27,14,-8.962694168,3.898957491,0.525527298,1.085434914,0.019185297,0.967924953,-43,-10,-19,31,185
1695162527875808700,-8.989029884,-1.695094824,-0.834379315,0.374113321,0.134696782,-0.191053599,-2,22,13,24,13,-8.954314232,3.916913986,0.531512797,1.133797765,0.015321592,0.977117896,-44,-4,-17,28,183
1695162527876808700,-8.977059364,-1.674744129,-0.835576415,0.389301687,0.135096475,-0.181727409,-2,22,18,26,15,-8.945934296,3.943250179,0.536301196,1.202678323,0.008260337,0.988842309,-41,-4,-17,29,184
1695162527877808700,-8.965087891,-1.653196216,-0.831985116,0.403690636,0.135496169,-0.172134757,-2,26,11,23,14,-8.938752174,3.975571871,0.541089594,1.26583004,0.000399694,0.99776876,-42,-4,-19,30,183
1695162527878808700,-8.951920509,-1.632845521,-0.828393817,0.417280257,0.135629401,-0.162142411,-2,25,11,28,15,-8.931569099,4.0114851,0.542286694,1.322586536,-0.008793262,1.004163861,-39,-8,-18,31,186
1695162527927778800,-8.886079788,-1.356315255,-0.74339962,0.463378251,0.105385914,0.009459418,-1,25,10,28,14,-8.792705536,4.861426353,0.428562105,1.395597219,-0.374912739,0.849215925,-38,-13,-17,33,183
1695162527928778800,-8.884882927,-1.356315255,-0.737414122,0.456450224,0.102987751,0.017320061,-1,21,15,24,14,-8.787917137,4.892550945,0.424970806,1.352963209,-0.395830035,0.836425722,-42,-3,-18,34,186
1695162527929778800,-8.890868187,-1.355118155,-0.735019922,0.449122518,0.100856051,0.024914242,-3,22,12,24,12,-8.785523415,4.926070213,0.417788208,1.306598783,-0.415814698,0.823635519,-42,-5,-13,32,186
1695162527930778800,-8.895656586,-1.356315255,-0.738611221,0.441128641,0.098724343,0.032241959,-2,25,13,26,14,-8.779537201,4.952406406,0.412999779,1.257169962,-0.435000002,0.810845315,-38,-3,-16,31,184
1695162527931778800,-8.899248123,-1.356315255,-0.738611221,0.43579939,0.097258806,0.037038282,-3,23,14,25,14,-8.775946617,4.975151062,0.407014281,1.205076575,-0.452986211,0.798321605,-42,-4,-17,34,185
1695162527969754200,-8.992621422,-1.48560214,-0.812831461,0.263664633,0.053958651,0.103520676,-1,21,19,26,14,-8.622717857,4.744110584,0.232237563,0.116710559,-0.505879045,0.613130212,-43,-6,1,34,187
1695162527970754200,-8.995016098,-1.497573137,-0.81642276,0.255803972,0.0528928,0.104453288,-4,26,13,24,14,-8.614337921,4.704606533,0.220266551,0.076474734,-0.492689133,0.608333826,-38,-5,-13,31,184
1695162527971754200,-8.997409821,-1.507149935,-0.823605359,0.248343036,0.052093416,0.105119444,-1,25,15,26,14,-8.610746384,4.663905144,0.214281052,0.039169986,-0.4784334,0.604336917,-39,-9,-13,31,186
1695162527972754200,-8.996212959,-1.514332533,-0.828393817,0.24154824,0.051693719,0.105519146,-1,20,15,23,14,-8.603564262,4.627991676,0.208295554,0.004529862,-0.463245004,0.600872934,-38,-8,-13,31,183
1695162527973754200,-8.997409821,-1.527500629,-0.837970614,0.235153139,0.051560488,0.105652377,-2,27,15,26,15,-8.601169586,4.593276024,0.197521642,-0.027179174,-0.447257251,0.598208308,-31,-8,-13,32,180
1695162528021724600,-9.070432663,-1.649604917,-0.951695204,0.197715163,0.074476264,0.082736596,-1,22,13,26,14,-8.684967041,3.875015497,0.192733243,-0.181327716,-0.119908117,0.67268455,-40,-4,-11,31,183
1695162528022724600,-9.076418877,-1.650802016,-0.954089403,0.19838132,0.076075032,0.081271052,-2,23,14,26,14,-8.694543839,3.843890905,0.202310041,-0.171868294,-0.107917301,0.681211293,-41,-5,-13,31,183
1695162528023724600,-9.082404137,-1.646013618,-0.948103845,0.199180692,0.077673815,0.080071971,-1,21,13,25,13,-8.705317497,3.817554712,0.210689753,-0.161343038,-0.096992344,0.689871371,-38,-5,-11,33,183
1695162528024724600,-9.091980934,-1.643619418,-0.948103845,0.199980095,0.079272583,0.079006128,-2,26,14,26,14,-8.714894295,3.799597979,0.215478152,-0.153748855,-0.090197548,0.695600271,-22,-7,-12,32,184
1695162528025724600,-9.099164009,-1.641225219,-0.950498104,0.200779468,0.081137821,0.07794027,-3,22,15,23,14,-8.725667953,3.773261786,0.228646263,-0.14175804,-0.080871366,0.704260349,-43,-9,-14,31,184
1695162528069697600,-9.131484985,-1.620874524,-0.939724147,0.217966303,0.105252676,0.0955268,-1,22,15,26,14,-8.856152534,3.460818529,0.438138902,0.132298619,-0.041168455,0.835093379,-41,-5,-9,32,184
1695162528070697600,-9.129091263,-1.622071624,-0.939724147,0.219298616,0.105785601,0.0976585,-1,22,19,26,14,-8.852560997,3.45722723,0.450109929,0.142424196,-0.043300152,0.837358356,-41,-7,-11,32,186
1695162528071697600,-9.124302864,-1.623268723,-0.937329948,0.220630929,0.106052071,0.099790201,-1,23,15,26,15,-8.851364136,3.447650433,0.464475125,0.151483908,-0.045431852,0.838823915,-41,-5,-5,32,189
1695162528072697600,-9.120711327,-1.623268723,-0.939724147,0.221563548,0.106185302,0.10178867,-1,21,19,27,13,-8.846575737,3.442862034,0.476446152,0.159611031,-0.047963247,0.839756489,-38,-6,-9,31,185
1695162528073697600,-9.117119789,-1.626860023,-0.940921247,0.222762644,0.106318533,0.103653908,-1,21,15,24,14,-8.838195801,3.440467834,0.486022949,0.166672289,-0.050361406,0.839889765,-39,-5,-9,34,185
1695162528127666500,-9.096769333,-1.642422318,-0.902614057,0.195450217,0.099257268,0.127502292,-3,31,13,23,14,-8.639476776,3.403357744,0.673967779,0.130433381,-0.053558957,0.715584993,-39,-8,-9,34,185
1695162528128666500,-9.10036087,-1.644816518,-0.900219858,0.191986218,0.098857582,0.127635539,-5,25,13,24,15,-8.639476776,3.414131641,0.685938776,0.122972436,-0.048895866,0.702395082,-35,-5,-9,32,186
1695162528129666500,-9.099164009,-1.649604917,-0.900219858,0.188388973,0.098591112,0.128035218,-1,22,15,27,14,-8.638279915,3.42131424,0.695515573,0.115511484,-0.043699846,0.688539028,-41,-4,-11,32,184
1695162528130666500,-9.102754593,-1.654393315,-0.906205356,0.184658498,0.098191425,0.127901986,-1,21,19,30,15,-8.635885239,3.430891037,0.707486629,0.107517615,-0.038237367,0.673883617,-41,-7,-7,32,183
1695162528131666500,-9.107542992,-1.656787634,-0.916979253,0.180928022,0.097791731,0.127502292,-3,25,14,23,14,-8.634688377,3.444059134,0.714669228,0.098990813,-0.032508422,0.658562064,-39,-7,-8,33,183
1695162528172640800,-9.161413193,-1.728613615,-0.910993755,0.11191424,0.089797854,0.094860643,-1,27,15,24,14,-8.549694061,3.536235809,0.785298169,-0.090996936,0.033307809,0.351996928,-41,-9,-12,33,183
1695162528173640800,-9.165003777,-1.729810715,-0.909796655,0.108983152,0.089931086,0.092329249,-1,22,16,26,14,-8.544905663,3.53264451,0.785298169,-0.095926493,0.03130934,0.34440276,-35,-5,-9,34,184
1695162528174640800,-9.169792175,-1.735796213,-0.914585054,0.106185302,0.090064317,0.089931086,-2,17,18,26,15,-8.538920403,3.526659012,0.78170687,-0.102454826,0.02797856,0.333344579,-41,-9,-13,41,184
1695162528175640800,-9.17697525,-1.740584612,-0.918176353,0.103520676,0.090464011,0.08726646,-2,24,14,25,15,-8.530540466,3.523067713,0.787692368,-0.108183771,0.024114855,0.322819293,-38,-7,-7,32,183
1695162528176640800,-9.18296051,-1.742978811,-0.925358951,0.100856051,0.090730481,0.084601834,0,25,14,26,14,-8.523358345,3.515885115,0.791283667,-0.11298009,0.019451762,0.312560499,-39,-8,-12,36,183
1695162528225608900,-9.232041359,-1.738190413,-0.92775315,0.042633995,0.084735066,0.012656967,-2,22,13,19,12,-8.321047783,3.369838953,0.921767652,-0.024781011,-0.02797856,0.123638593,-35,-5,-12,31,184
1695162528226608900,-9.230844498,-1.735796213,-0.926556051,0.038104136,0.084335379,0.007727412,-2,21,17,22,14,-8.319850922,3.373430252,0.934935749,-0.012656967,-0.026113322,0.111114852,-35,-7,-9,34,183
1695162528227608900,-9.232041359,-1.732204914,-0.924161851,0.033307809,0.084202148,0.002797856,-1,23,18,27,16,-8.319850922,3.38180995,0.943315446,-0.000666156,-0.023981623,0.098191425,-39,-11,-8,32,186
1695162528228608900,-9.230844498,-1.728613615,-0.919373453,0.028644716,0.084068909,-0.001865237,-1,21,12,27,14,-8.321047783,3.391386747,0.949300945,0.011324655,-0.02158346,0.084868304,-38,-6,-9,33,183
1695162528229608900,-9.229647636,-1.727416515,-0.922964752,0.02384839,0.083802447,-0.006661562,-3,22,16,28,14,-8.32463932,3.402160645,0.960074902,0.023049004,-0.019451762,0.071278714,-38,-4,-8,34,183
1695162528271581500,-9.232041359,-1.701080322,-0.918176353,-0.036771823,0.084735066,-0.062085759,-1,26,19,26,15,-8.344989777,3.888183594,0.972045898,0.075142421,-0.02797856,-0.183592647,-37,-8,-9,33,183
1695162528272581500,-9.230844498,-1.695094824,-0.918176353,-0.038237367,0.083535992,-0.063950993,0,27,14,23,15,-8.347384453,3.912125587,0.972045898,0.069280244,-0.030376723,-0.193984687,-41,-7,-9,32,183
1695162528273581500,-9.229647636,-1.692700624,-0.918176353,-0.038770292,0.08313629,-0.064750381,-2,22,15,27,14,-8.349778175,3.932476282,0.968454599,0.063151613,-0.032908116,-0.203977033,-39,-4,-8,31,183
1695162528274581500,-9.22725296,-1.689109325,-0.915782154,-0.03956968,0.082203679,-0.065816231,-1,25,15,27,14,-8.349778175,3.955221176,0.961272001,0.057022974,-0.035306279,-0.213569671,-37,-4,-9,31,184
1695162528275581500,-9.224859238,-1.689109325,-0.918176353,-0.040369064,0.081271052,-0.067015313,-1,22,15,22,14,-8.348581314,3.971980572,0.956483603,0.050761104,-0.037704438,-0.22236295,-35,-7,-11,32,184
1695162528326552300,-9.187748909,-1.606509328,-0.919373453,-0.067281775,0.065283306,-0.067415006,-1,18,13,24,16,-8.413225174,4.187458992,0.760159016,0.021983154,-0.053026035,-0.322952509,-39,-7,-13,32,183
1695162528327552300,-9.187748909,-1.607706428,-0.916979253,-0.069013782,0.064883612,-0.066215925,-2,22,13,28,14,-8.426392555,4.216189384,0.754173517,0.025313934,-0.053026035,-0.325883597,-41,-8,-12,31,183
1695162528328552300,-9.187748909,-1.606509328,-0.909796655,-0.070612557,0.064350687,-0.064883612,-2,27,15,23,14,-8.437167168,4.249708176,0.750582218,0.028777948,-0.053026035,-0.329081148,-37,-2,-9,33,183
1695162528329552300,-9.185355186,-1.610100627,-0.910993755,-0.072211333,0.063950993,-0.063418068,-2,21,10,29,14,-8.449137688,4.291606426,0.74339962,0.031975497,-0.05249311,-0.332545161,-35,-6,-9,32,184
1695162528330552300,-9.181763649,-1.610100627,-0.913387954,-0.073543645,0.063284837,-0.061819296,-1,22,16,25,15,-8.463502884,4.335899353,0.736217022,0.03543951,-0.051960181,-0.336808592,-39,-13,-5,33,179
1695162528378523300,-9.17697525,-1.659181833,-0.905008256,-0.062751912,0.041168455,-0.02691271,-1,21,13,24,14,-8.803479195,6.172252178,0.55904609,0.068747319,-0.053026035,-0.356793284,-41,-9,-11,31,183
1695162528379523300,-9.178172112,-1.655590534,-0.910993755,-0.062085759,0.039436448,-0.025447167,-1,22,13,26,14,-8.814253807,6.338648796,0.573411286,0.070346095,-0.060220521,-0.331479341,-39,-7,-13,33,185
1695162528380523300,-9.184157372,-1.654393315,-0.912190855,-0.061552834,0.038370594,-0.024514547,-3,25,15,27,14,-8.825027466,6.519411087,0.59256494,0.071145482,-0.069013782,-0.3007029,-35,-9,-9,31,183
1695162528381523300,-9.191340446,-1.655590534,-0.914585054,-0.061019909,0.03650536,-0.022915773,-1,23,15,25,14,-8.838195801,6.712144375,0.606930137,0.071012251,-0.079405814,-0.264330775,-43,-8,-12,31,183
1695162528382523300,-9.197325706,-1.654393315,-0.919373453,-0.060753446,0.034506891,-0.021716693,-1,26,16,28,14,-8.847772598,6.903680801,0.627280831,0.069946401,-0.091529861,-0.222895861,-38,-6,-8,31,183
1695162528439485300,-9.230844498,-1.674744129,-0.919373453,-0.066615619,0.007993874,0.009059724,-1,25,17,29,15,-9.1326828,10.53927612,1.082179189,-0.341604888,-0.562635541,1.194151521,-37,-6,-9,37,183
1695162528440485300,-9.223662376,-1.683123827,-0.922964752,-0.065283306,0.007727412,0.011591119,1,21,17,26,14,-9.129091263,10.62666416,1.098938584,-0.373580426,-0.592079639,1.280218959,-35,-7,-9,36,183
1695162528441485300,-9.217676163,-1.686715126,-0.922964752,-0.064217456,0.007594181,0.013456355,-1,25,11,27,14,-9.127894402,10.7044754,1.113303781,-0.403424203,-0.620990813,1.366419554,-35,-8,-5,36,185
1695162528442485300,-9.211690903,-1.693897724,-0.924161851,-0.061952524,0.007594181,0.016653905,-1,21,15,24,13,-9.129091263,10.7679224,1.132457376,-0.430736601,-0.649102569,1.453153133,-36,-7,-6,42,184
1695162528443485300,-9.205705643,-1.701080322,-0.924161851,-0.059421133,0.007594181,0.019718224,-1,23,19,28,14,-9.130288124,10.82777691,1.150413871,-0.456183791,-0.677214384,1.540153146,-38,-8,-8,40,184
1695162528489456700,-9.10036087,-1.804031014,-0.901416957,0.048895866,-0.003597243,0.096192956,-2,19,10,19,14,-8.597578049,11.43949604,1.608903527,-0.098857582,-1.022283316,3.203012228,-31,-7,0,79,208
1695162528490456700,-9.097966194,-1.808819413,-0.900219858,0.05489127,-0.005862175,0.100323126,-3,21,10,24,14,-8.523358345,11.44188976,1.584961534,-0.03650536,-1.003231168,3.28894639,-30,-5,3,80,210
1695162528491456700,-9.095572472,-1.810016513,-0.896628559,0.060753446,-0.007993874,0.104586519,-5,18,13,25,14,-8.470685959,11.45745182,1.546654344,0.038237367,-0.97805047,3.374880552,-31,-7,0,80,214
1695162528492456700,-9.09437561,-1.808819413,-0.900219858,0.066482387,-0.010658499,0.108716697,-5,21,14,22,14,-8.43357563,11.50174522,1.502361536,0.114312403,-0.948739707,3.462280035,-29,-5,7,86,214
1695162528493456700,-9.089587212,-1.811213613,-0.900219858,0.071811639,-0.013189893,0.112713635,-4,19,11,22,13,-8.416815758,11.59392166,1.459265947,0.187456369,-0.915032208,3.546216011,-27,-8,9,82,213
1695162528540427400,-9.080010414,-1.865083098,-0.922964752,0.135629401,-0.050894335,0.170269519,-4,17,10,18,14,-8.127118111,13.42309189,0.9660604,0.825634003,-0.472038269,4.365588188,-18,-4,97,110,264
1695162528541427400,-9.087192535,-1.863885999,-0.926556051,0.136029094,-0.05249311,0.171335369,-6,19,12,22,13,-8.133103371,13.50090313,0.932541549,0.804849863,-0.444725901,4.365588188,-19,-3,103,119,273
1695162528542427400,-9.093177795,-1.862688899,-0.93014735,0.135895863,-0.054358348,0.172001526,-4,11,11,23,14,-8.149862289,13.57751751,0.877474904,0.77234149,-0.423808575,4.365588188,-17,-2,108,121,277
1695162528543427400,-9.10036087,-1.8602947,-0.937329948,0.135229707,-0.056090351,0.172800913,-4,17,15,19,13,-8.159439087,13.63378143,0.803254664,0.730506897,-0.4082205,4.365588188,-14,-3,109,117,279
1695162528544427400,-9.109937668,-1.861491799,-0.939724147,0.134030625,-0.057555895,0.173200607,-8,20,10,26,14,-8.155848503,13.67687702,0.724246025,0.685741186,-0.397162348,4.365588188,-14,-7,110,122,280
1695162528589399900,-9.212887764,-1.928529501,-1.018732786,0.063018374,-0.076341502,0.153082699,-7,19,9,20,13,-6.921637058,12.19845772,0.563834488,-0.283382833,-0.314425707,4.120708942,21,1,151,137,325
1695162528590399900,-9.2212677,-1.940500498,-1.018732786,0.059820827,-0.076741189,0.150284842,-4,19,11,22,12,-6.810306549,12.03804588,0.598550439,-0.309762627,-0.306565106,4.098992348,25,3,150,136,327
1695162528591399900,-9.2212677,-1.953668594,-1.023521185,0.057022974,-0.077007659,0.147087291,-5,21,13,23,14,-6.697779179,11.877635,0.639251828,-0.332811654,-0.298704445,4.07914114,23,-1,151,138,328
1695162528592399900,-9.224859238,-1.972822189,-1.029506683,0.054491576,-0.077007659,0.14388974,-1,19,11,24,15,-6.587646008,11.7208147,0.694318473,-0.352263391,-0.290044397,4.060222149,26,-2,156,140,333
1695162528593399900,-9.222464561,-1.984793186,-1.037886381,0.05249311,-0.076874427,0.140558958,-3,21,11,24,14,-6.524199486,11.62744045,0.738611221,-0.363987744,-0.283915788,4.048098087,29,1,151,140,329
1695162528630375200,-9.186552048,-2.054224968,-1.148019671,0.043433387,-0.052759573,0.022782542,-4,21,10,24,14,-4.624400616,9.807847023,1.592144132,-0.594078064,-0.127102599,3.495055199,38,11,160,144,327
1695162528631375200,-9.185355186,-2.04704237,-1.150413871,0.042633995,-0.050494641,0.013722817,-1,18,10,20,13,-4.483142853,9.727641106,1.608903527,-0.588615596,-0.117509954,3.467609406,41,11,160,144,325
1695162528632375200,-9.184157372,-2.04584527,-1.15161097,0.041834611,-0.048096478,0.004529862,-3,19,12,22,14,-4.38617754,9.667786598,1.620874524,-0.583153129,-0.111248083,3.44988966,41,13,161,145,322
1695162528633375200,-9.178172112,-2.04464817,-1.150413871,0.040768761,-0.045431852,-0.004796324,-6,20,11,27,13,-4.228160381,9.564835548,1.654393315,-0.572761118,-0.101921894,3.424709082,41,11,160,144,328
1695162528634375200,-9.175778389,-2.043451071,-1.148019671,0.039702907,-0.04276723,-0.01398928,-4,21,11,22,14,-4.060565948,9.453505516,1.703474522,-0.560370564,-0.091529861,3.401793242,43,11,161,146,325
1695162528673355000,-9.14465332,-1.944091797,-1.131260276,0.024514547,0.017719755,-0.143090352,-4,17,11,23,12,-1.78128612,8.403648376,2.592920542,-0.385704458,0.461113334,2.966260195,35,19,163,143,321
1695162528674355000,-9.141061783,-1.9333179,-1.128866076,0.024381317,0.019984685,-0.147886679,-6,9,10,18,14,-1.691503525,8.370129585,2.592920542,-0.406754971,0.478966326,2.92695713,35,16,159,144,321
1695162528675355000,-9.136273384,-1.927332401,-1.122880578,0.024514547,0.021716693,-0.152416542,-3,17,9,20,11,-1.586158633,8.322244644,2.603694439,-0.432868302,0.49348852,2.888453245,33,24,163,144,320
1695162528676355000,-9.131484985,-1.920149803,-1.11450088,0.024647778,0.023182238,-0.156946406,-5,19,7,19,14,-1.468842745,8.265981674,2.631227732,-0.463511467,0.505479336,2.852747202,35,23,161,145,320
1695162528677355000,-9.130288124,-1.911770105,-1.108515382,0.024781011,0.024647778,-0.161609486,-4,11,13,22,12,-1.387439847,8.230068207,2.663549423,-0.486160785,0.51320678,2.831030607,33,19,159,143,318
1695162528740934000,-9.078812599,-1.763329506,-1.067813993,0.001998469,0.040502299,-0.213702917,-6,17,10,23,9,0.119710088,7.116764545,2.725798607,-1.014689088,0.536122501,2.418813229,25,25,158,138,315
1695162528741934000,-9.075222015,-1.760935307,-1.061828494,0.000932619,0.041301683,-0.213836133,-4,19,11,18,12,0.207098454,7.055712223,2.723404408,-1.026813149,0.531192958,2.394831657,25,27,158,134,314
1695162528742934000,-9.070432663,-1.757344007,-1.061828494,0.000133231,0.042234302,-0.213836133,-6,18,11,24,11,0.29688102,6.983886242,2.726995707,-1.036539078,0.526663125,2.370983362,25,24,161,138,312
1695162528743934000,-9.065644264,-1.750161409,-1.063025594,-0.000799387,0.043300152,-0.213702917,-6,17,9,19,13,0.385466486,6.903680801,2.735375404,-1.044266462,0.522399664,2.347667456,31,27,159,139,313
1695162528744934000,-9.065644264,-1.750161409,-1.065419793,-0.001332312,0.044232771,-0.213169977,-4,17,10,19,11,0.471657723,6.816292286,2.749740601,-1.050661564,0.517603338,2.324751854,27,22,159,142,311
1695162528808165600,-9.02374649,-1.629254222,-1.025915384,-0.037837673,0.037437979,-0.193584993,-6,19,9,17,13,1.704671621,4.836287498,2.694674015,-0.742630899,0.304966301,1.813543558,25,27,159,138,311
1695162528809165600,-9.020154953,-1.620874524,-1.025915384,-0.043566614,0.036771823,-0.193451747,-4,7,10,18,12,1.790862918,4.778826714,2.728192806,-0.707191408,0.286047459,1.789029002,23,20,158,138,311
1695162528810165600,-9.021351814,-1.613691926,-1.022324085,-0.04969525,0.035839204,-0.193451747,-4,18,10,22,9,1.883039594,4.736927986,2.776076794,-0.671885133,0.267661542,1.766779423,24,25,158,134,311
1695162528811165600,-9.018958092,-1.611297727,-1.027112484,-0.056090351,0.034773353,-0.193584993,-4,21,8,18,11,1.981201887,4.707000732,2.829946518,-0.638843775,0.250741184,1.745995402,26,23,159,133,311
1695162528812165600,-9.018958092,-1.610100627,-1.033097982,-0.06261868,0.034107197,-0.193718225,-6,17,12,23,12,2.079364061,4.690241337,2.877830505,-0.607934177,0.235686064,1.726277113,25,27,160,136,310
1695162528896015200,-9.020154953,-1.606509328,-1.095347285,-0.179462478,0.022116385,-0.207174569,-10,18,11,23,12,3.720589399,4.153939724,3.561375141,-0.449655443,-0.023448698,1.315525293,25,27,158,137,306
1695162528897015200,-9.022548676,-1.606509328,-1.103726983,-0.18385911,0.022116385,-0.207574263,-6,19,11,23,13,3.811569214,4.08809948,3.594893932,-0.448989272,-0.034906585,1.297405839,25,23,158,138,308
1695162528898015200,-9.027337074,-1.605312228,-1.108515382,-0.187856048,0.022116385,-0.207707509,-2,21,11,22,12,3.892971992,4.018667698,3.627215624,-0.447790205,-0.046098009,1.277954102,25,23,161,138,304
1695162528899015200,-9.032125473,-1.59812963,-1.118092179,-0.191719756,0.022116385,-0.207973972,-3,17,11,22,11,3.965995073,3.945644379,3.657143116,-0.445791721,-0.056889739,1.256770372,26,23,158,137,306
1695162528900015200,-9.03571701,-1.593341231,-1.124077678,-0.195583463,0.022249617,-0.208107188,-6,21,15,20,13,4.039018154,3.870227098,3.691859007,-0.442860663,-0.067947932,1.233588099,23,27,159,140,305
1695162528976317300,-9.039308548,-1.577778935,-1.168370485,-0.251274139,0.043433387,-0.183326185,-5,20,12,23,10,5.558139324,2.444479942,4.340687752,-0.407954067,-0.087666154,0.372781008,25,27,164,138,298
1695162528977317300,-9.038111687,-1.580173135,-1.168370485,-0.252339959,0.045431852,-0.180261865,-3,17,9,38,11,5.637147903,2.358288765,4.340687752,-0.391566604,-0.075808577,0.315225124,23,24,163,138,297
1695162528978317300,-9.038111687,-1.583764434,-1.165976286,-0.253272593,0.04729709,-0.177064329,-6,18,4,22,13,5.713762283,2.279279947,4.337096214,-0.370649308,-0.062352221,0.259401232,23,23,161,139,299
1695162528979317300,-9.036913872,-1.583764434,-1.162384868,-0.254071981,0.049295556,-0.173866764,-4,17,11,24,13,5.773617268,2.199074268,4.325125217,-0.344136298,-0.047430322,0.205975503,25,23,161,142,296
1695162528980317300,-9.034520149,-1.586158633,-1.164779186,-0.25447166,0.051027562,-0.170402765,-6,18,8,22,13,5.817910194,2.111685991,4.301183224,-0.311228186,-0.03130934,0.154681474,23,24,159,140,295
1695162529028134600,-9.020154953,-1.618480325,-1.106121182,-0.229957119,0.06115314,-0.089264929,-4,18,12,23,13,4.280832767,4.724956989,4.260481834,0.803251147,0.199313939,-0.539586544,22,24,158,138,299
1695162529029134600,-9.017760277,-1.623268723,-1.104924083,-0.227825418,0.061419602,-0.083535992,-1,21,12,22,14,4.153939724,5.076904774,4.274847031,0.798188388,0.205842257,-0.564634025,22,28,158,137,300
1695162529030134600,-9.018958092,-1.626860023,-1.096544385,-0.225826949,0.061686065,-0.077540584,-3,20,12,23,14,4.021061897,5.439626217,4.292803764,0.781800866,0.210505351,-0.587416589,22,25,158,138,300
1695162529031134600,-9.020154953,-1.631648421,-1.085770488,-0.223695248,0.061952524,-0.071811639,-6,22,13,22,13,3.879803896,5.787982464,4.299986362,0.755021393,0.213169977,-0.607401192,21,27,158,138,298
1695162529032134600,-9.017760277,-1.634042621,-1.082179189,-0.221696794,0.06261868,-0.065816231,-1,18,12,23,14,3.739742994,6.126761913,4.305971622,0.718516052,0.213036761,-0.62432158,21,25,160,137,297
1695162529089211300,-9.111134529,-1.750161409,-0.938527048,-0.207574263,0.059954058,0.037704438,-3,18,15,24,12,2.506729126,9.345766068,3.204638958,0.151350692,0.007460949,-0.391966313,23,27,156,138,302
1695162529090211300,-9.119514465,-1.754949808,-0.933738649,-0.209039822,0.057822358,0.040901989,-4,19,12,23,14,2.541445017,9.43914032,3.191470861,0.170535982,0.01718683,-0.360656947,25,21,158,137,298
1695162529091211300,-9.126696587,-1.760935307,-0.93134445,-0.211171508,0.055557426,0.043833077,-3,20,11,21,14,2.583343744,9.52772522,3.190273762,0.190254211,0.030243492,-0.329614073,26,24,158,136,300
1695162529092211300,-9.136273384,-1.769315004,-0.92775315,-0.213702917,0.0528928,0.046497703,-4,21,10,22,14,2.614468336,9.582792282,3.187879562,0.203177631,0.040635526,-0.309096456,25,24,158,138,300
1695162529093211300,-9.143456459,-1.776497602,-0.920570552,-0.216367543,0.050361406,0.048362937,-4,20,11,20,14,2.655169725,9.659406662,3.191470861,0.221696794,0.058222052,-0.278986216,26,23,156,136,301
1695162529252537700,-9.15063858,-1.617283225,-0.736217022,-0.430869848,0.029710567,0.004663093,-2,18,11,23,10,3.584120035,9.260771751,3.776853085,0.130833074,0.21503523,0.152549773,22,25,158,137,298
1695162529253537700,-9.151836395,-1.59693253,-0.725443125,-0.457249612,0.03011026,-0.001598775,-3,21,11,24,13,3.64277792,9.17098999,3.815160513,0.106185302,0.206108719,0.163607955,25,19,155,137,298
1695162529254537700,-9.155426979,-1.580173135,-0.715866327,-0.485494643,0.030243492,-0.008260337,-1,21,8,18,14,3.691859007,9.069235802,3.846285105,0.081404284,0.195317,0.172934145,26,27,157,137,296
1695162529255537700,-9.160215378,-1.55862534,-0.70628953,-0.515205204,0.029977029,-0.015188362,-4,21,11,26,12,3.739742994,8.960299492,3.884592295,0.057022974,0.182660028,0.18079479,25,21,158,138,298
1695162529256537700,-9.165003777,-1.538274646,-0.70509243,-0.547047496,0.028911179,-0.022516079,-6,23,13,20,12,3.79361248,8.846575737,3.925293684,0.033441041,0.168670759,0.187056661,24,23,158,134,298
1695162529329492200,-9.191340446,-1.830367208,-0.841561913,-1.125803947,-0.109649308,-0.093261868,-4,18,11,24,14,4.517858505,7.044938564,4.554968834,-0.173067391,0.069147013,0.109516084,20,20,158,140,296
1695162529330492200,-9.184157372,-1.880645394,-0.85353291,-1.13393116,-0.116177641,-0.088465542,-4,17,11,22,12,4.521450043,6.977900982,4.565742493,-0.168004602,0.068614088,0.100722812,21,21,158,140,297
1695162529331492200,-9.180566788,-1.917755604,-0.85592711,-1.137128592,-0.120041348,-0.084601834,-5,20,15,23,13,4.521450043,6.919242859,4.580107689,-0.161343038,0.068081163,0.091929555,27,24,159,142,297
1695162529332492200,-9.175778389,-1.97162509,-0.866701007,-1.138460875,-0.125104129,-0.07794027,-2,22,11,23,14,4.522646904,6.868964672,4.598064423,-0.153615624,0.067681469,0.083402753,23,21,158,138,295
1695162529333492200,-9.17098999,-2.021903276,-0.881066203,-1.135663152,-0.129500762,-0.070079632,-7,22,8,23,14,4.521450043,6.824671745,4.616020679,-0.145222053,0.067681469,0.07474272,20,23,158,142,297
1695162529397453200,-9.126696587,-2.510320425,-1.069011092,-0.520667672,-0.143756509,0.191586524,-8,19,13,23,13,4.110844135,6.380547523,4.604049683,-0.012257273,0.035306279,-0.085934147,23,25,158,141,295
1695162529398453200,-9.1326828,-2.503137827,-1.073799491,-0.481364459,-0.143490046,0.205975503,-4,17,10,18,13,4.086902142,6.35660553,4.57771349,-0.010125575,0.033707503,-0.097525269,21,20,158,141,295
1695162529399453200,-9.137471199,-2.49236393,-1.074996591,-0.443660021,-0.143356815,0.220098019,-3,21,10,22,12,4.062960148,6.331466198,4.552574635,-0.007727412,0.032241959,-0.109782539,22,17,148,140,295
1695162529400453200,-9.139864922,-2.486378431,-1.07739079,-0.419411957,-0.143223584,0.229290962,-3,22,12,18,14,4.040215492,6.303933144,4.538209438,-0.005595712,0.030909648,-0.122705974,23,23,156,141,294
1695162529401453200,-9.13866806,-2.475604534,-1.07739079,-0.384372145,-0.143090352,0.242480844,-2,17,11,26,13,4.019864559,6.274005413,4.517858505,-0.002931087,0.029843798,-0.135762632,20,21,158,142,296
1695162529486403500,-9.226056099,-2.274491549,-1.098938584,-0.094327718,-0.14282389,0.311494648,-5,19,12,22,14,3.375824451,5.803544998,4.066551685,0.030376723,0.04276723,-0.413150072,20,13,155,140,292
1695162529487403500,-9.230844498,-2.26850605,-1.102529883,-0.095926493,-0.144289434,0.306165397,-4,10,11,22,12,3.339911461,5.773617268,4.048594952,0.027445635,0.044232771,-0.428604871,20,14,153,137,294
1695162529488403500,-9.236829758,-2.263717651,-1.104924083,-0.098591112,-0.145888209,0.300169975,-6,17,10,20,13,3.302801132,5.736507416,4.034229755,0.02384839,0.045831546,-0.443926483,21,9,152,136,292
1695162529489403500,-9.241618156,-2.258929253,-1.110909581,-0.102188364,-0.147753447,0.293908119,-3,18,11,18,10,3.269282341,5.702988625,4.01507616,0.019851454,0.04769678,-0.459647775,21,11,152,137,295
1695162529490403500,-9.240421295,-2.254140854,-1.119289279,-0.106718227,-0.149751917,0.286846846,-6,12,15,26,13,3.244143248,5.68144083,4.0090909,0.016920367,0.049162328,-0.470306277,21,10,151,136,295
1695162529526379700,-9.163806915,-2.328361034,-1.247379065,-0.177330777,-0.140292495,0.150684536,-4,25,11,26,12,2.632424831,4.689043999,3.508702517,0.110315464,0.193451747,-0.877993882,30,-2,131,132,292
1695162529527379700,-9.159018517,-2.333149672,-1.255758762,-0.176131696,-0.136961713,0.145088822,-4,25,13,26,13,2.60010314,4.659116745,3.475183725,0.129234299,0.205975503,-0.906638563,31,-2,133,132,288
1695162529528379700,-9.157821655,-2.334346771,-1.26294136,-0.174399704,-0.133364469,0.13975957,-6,19,7,20,14,2.564189911,4.627991676,3.450044632,0.148819283,0.218898922,-0.935283303,32,-2,127,128,286
1695162529529379700,-9.156624794,-2.331952572,-1.26294136,-0.173200607,-0.130966306,0.136162326,-3,21,13,22,14,2.546233416,4.617218018,3.436876535,0.161875948,0.227958649,-0.954068959,30,-2,129,129,290
1695162529530379700,-9.153033257,-2.330755472,-1.272518158,-0.170935676,-0.127369061,0.130833074,-4,21,13,22,13,2.518700123,4.611232281,3.41892004,0.181194484,0.242214397,-0.98271364,27,-2,131,129,288
1695162529568355500,-9.124302864,-2.250549555,-1.328781962,-0.110981621,-0.070612557,0.03996937,-3,22,10,20,12,1.359906554,5.301959515,3.576937437,0.281384379,0.612197518,-1.810079575,35,-6,93,112,279
1695162529569355500,-9.121908188,-2.243366957,-1.329979062,-0.107917301,-0.067947932,0.034906585,-3,21,11,22,13,1.294066072,5.355829239,3.60447073,0.266329229,0.638044417,-1.871366024,36,-4,93,113,279
1695162529570355500,-9.119514465,-2.236184359,-1.322796464,-0.104986221,-0.065416537,0.029710567,-2,19,11,22,13,1.229422569,5.42166996,3.647566319,0.247810096,0.664424181,-1.933984637,32,-8,91,108,278
1695162529571355500,-9.113529205,-2.23259306,-1.319205165,-0.102188364,-0.063151613,0.024781011,-3,21,10,24,13,1.177947283,5.477933407,3.690661907,0.22489433,0.691736579,-1.998335361,34,-11,84,107,282
1695162529572355500,-9.109937668,-2.225410461,-1.318008065,-0.099656969,-0.060753446,0.019718224,-4,21,7,23,14,1.127668977,5.528211594,3.738545895,0.198514536,0.720248044,-2.064018488,34,-7,83,108,272
1695162529606334400,-9.027337074,-2.081758261,-1.30005157,-0.071811639,-0.027045943,-0.07087902,-2,25,12,21,13,0.135272399,5.608417511,3.724180698,-0.305499226,1.334843874,-3.118676901,6,-8,40,77,247
1695162529607334400,-9.026140213,-2.070984364,-1.30124867,-0.070745789,-0.024647778,-0.074609496,-2,20,13,23,24,0.059855044,5.588066578,3.705027103,-0.311894357,1.365087271,-3.155448675,-2,-7,30,77,243
1695162529608334400,-9.024943352,-2.068590164,-1.303642869,-0.069546707,-0.022116385,-0.078473203,-4,20,12,24,13,-0.021547815,5.585672379,3.683479309,-0.316557437,1.397862196,-3.189422846,-2,-9,31,78,241
1695162529609334400,-9.018958092,-2.064998865,-1.304839969,-0.068214394,-0.019718224,-0.081937209,-3,21,15,22,13,-0.108936176,5.579687119,3.657143116,-0.318156213,1.430503845,-3.223663092,-7,-7,30,76,244
1695162529610334400,-9.016563416,-2.056619167,-1.304839969,-0.066882081,-0.017320061,-0.085267991,-2,21,11,24,11,-0.20350714,5.57250452,3.645172119,-0.312693715,1.460480809,-3.25457263,-5,-8,28,79,242
1695162529642313500,-8.993818283,-1.905784607,-1.249773264,-0.057822358,0.02691271,-0.133098006,-2,21,13,22,13,-2.586935043,6.10042572,3.766079187,-0.472571194,1.967425704,-3.578058004,-26,-7,5,63,216
1695162529643313500,-8.989029884,-1.893813491,-1.242590666,-0.059687596,0.029710567,-0.135096475,-6,22,10,22,12,-2.746149302,6.145915985,3.774458885,-0.509875953,1.975685954,-3.597643137,-27,-2,5,63,217
1695162529644313500,-8.985439301,-1.884236693,-1.237802267,-0.062218986,0.032641653,-0.137361407,-4,17,9,23,12,-2.910152197,6.196194172,3.784035683,-0.550245047,1.982480764,-3.617228031,-30,-10,1,60,216
1695162529645313500,-8.983044624,-1.875856996,-1.231816769,-0.065150075,0.035572741,-0.139359877,-5,20,11,25,11,-3.08133769,6.251260757,3.790021181,-0.589681447,1.98727715,-3.636147022,-28,-9,5,61,215
1695162529646313500,-8.980650902,-1.861491799,-1.224634171,-0.068747319,0.038637057,-0.141624808,-6,21,13,22,13,-3.19745636,6.300341606,3.803189516,-0.616727412,1.989408851,-3.648537636,-30,-6,3,63,215
1695162529696486200,-9.017760277,-1.830367208,-1.164779186,-0.199980095,0.054358348,-0.18079479,-3,21,12,19,13,-5.731719017,7.098807812,4.264073372,-2.260667801,1.99087441,-4.098992348,-41,-3,-2,46,202
1695162529697486200,-9.018958092,-1.838746905,-1.162384868,-0.202644721,0.053958651,-0.180928022,-2,8,11,20,11,-5.819107056,6.98508358,4.268861771,-2.368718147,1.995271087,-4.122307777,-43,-3,-2,45,206
1695162529698486200,-9.020154953,-1.845929503,-1.163581967,-0.204509944,0.053825419,-0.180528328,-2,18,11,24,13,-5.884947777,6.84382534,4.247313976,-2.470373869,2.001799345,-4.145356655,-41,-2,-1,44,204
1695162529699486200,-9.020154953,-1.855506301,-1.158793569,-0.204776406,0.053558957,-0.179862171,-2,21,12,23,11,-5.948394299,6.673837185,4.228160381,-2.562170029,2.009793282,-4.16667366,-42,-5,-5,44,211
1695162529700486200,-9.020154953,-1.867477298,-1.156399369,-0.204243496,0.053558957,-0.178796321,-4,21,10,22,14,-6.025008678,6.489483833,4.207809448,-2.642108679,2.018852949,-4.183860779,-43,-3,-2,45,204
1695162529763078100,-9.0740242,-1.981201887,-1.149216771,-0.030243492,0.072344564,-0.118975498,-4,19,11,23,14,-8.853757858,3.12084198,3.259705544,-1.79515779,2.18152833,-3.963895798,-41,-4,-5,34,200
1695162529764078100,-9.081207275,-1.978807688,-1.15280807,-0.018119449,0.073410407,-0.115111791,-2,22,11,25,14,-9.060855865,3.035847664,3.207033157,-1.661926508,2.171269417,-3.925925016,-43,-3,-7,34,203
1695162529765078100,-9.085995674,-1.974019289,-1.149216771,-0.005995406,0.074209802,-0.111381322,-4,18,11,22,11,-9.192537308,2.978386879,3.173514366,-1.570396543,2.162609339,-3.898612499,-42,-4,-5,32,202
1695162529766078100,-9.089587212,-1.96923089,-1.145625472,0.005595712,0.075275652,-0.10778407,-4,22,10,18,14,-9.375694275,2.894589901,3.124433279,-1.429171562,2.148220539,-3.854779482,-43,-2,-5,31,199
1695162529767078100,-9.09437561,-1.963245392,-1.146822572,0.016920367,0.076208271,-0.104053594,-6,21,10,24,12,-9.549273491,2.82156682,3.08133769,-1.285947919,2.131833076,-3.808148623,-43,-3,-3,31,202
1695162530014606700,-9.185355186,-1.867477298,-1.092953086,0.147087291,0.094327718,-0.064750381,-4,19,15,20,13,-11.5879364,2.017114878,1.403002143,1.901875973,1.563068867,-2.256271124,-44,-4,-5,32,200
1695162530015606700,-9.186552048,-1.865083098,-1.083376288,0.150684536,0.0955268,-0.063817769,-5,21,10,23,13,-11.68849277,2.021903276,1.278503656,2.080538988,1.526163816,-2.155814648,-43,-4,-7,33,200
1695162530016606700,-9.190143585,-1.866280198,-1.07619369,0.153882071,0.096459419,-0.062885143,-4,18,12,25,11,-11.79264069,2.029085875,1.15400517,2.259068966,1.489258885,-2.055757999,-41,-3,-10,31,201
1695162530017606700,-9.194931984,-1.862688899,-1.067813993,0.157212853,0.097258806,-0.062085759,-1,18,11,20,9,-11.89439392,2.051830769,1.024718285,2.437865019,1.451421142,-1.956634045,-40,-3,-5,32,201
1695162530018606700,-9.191340446,-1.861491799,-1.059434295,0.160410419,0.097924963,-0.061286367,-1,25,11,24,14,-11.99734497,2.086546898,0.888248801,2.613330603,1.4127841,-1.861373663,-43,-2,-8,32,200
1695162530120565900,-9.126696587,-1.861491799,-0.973242998,0.231822357,0.091263399,-0.045431852,-7,23,12,19,12,-15.03079796,4.006696701,-0.639251828,4.365588188,0.981914222,-0.853479326,-38,-7,-4,32,201
1695162530121565900,-9.126696587,-1.8579005,-0.9672575,0.236885145,0.090730481,-0.043433387,-6,17,11,24,13,-15.22712326,4.255693436,-0.654814184,4.365588188,0.982980072,-0.867868245,-39,-7,-3,31,202
1695162530122565900,-9.126696587,-1.855506301,-0.958877802,0.241947934,0.090464011,-0.041168455,-1,18,10,22,14,-15.42823601,4.517858505,-0.66917938,4.365588188,0.985511482,-0.889318526,-41,-7,-2,32,200
1695162530123565900,-9.127894402,-1.855506301,-0.956483603,0.247277185,0.090197548,-0.038770292,-6,17,15,26,14,-15.6185751,4.794388771,-0.681150377,4.365588188,0.989375174,-0.920761108,-37,-4,-3,32,202
1695162530124565900,-9.123106003,-1.848323703,-0.954089403,0.252606452,0.089797854,-0.036372125,-3,19,10,22,13,-15.80173111,5.079298973,-0.672770679,4.365588188,0.993372142,-0.959264934,-35,-4,-2,33,203
1695162530214490600,-9.238027573,-1.798045516,-0.871489406,0.337341517,0.073543645,0.031442571,-2,19,8,23,15,-15.74786186,11.08515358,-0.093373865,4.365588188,0.447124034,-2.392566681,-39,-3,-4,31,201
1695162530215490600,-9.240421295,-1.796848416,-0.867898107,0.340139359,0.071545176,0.035039816,-4,17,10,23,13,-15.52400398,11.24676228,-0.08379706,4.365588188,0.368917316,-2.43986392,-37,-4,-3,31,200
1695162530216490600,-9.246406555,-1.794454217,-0.867898107,0.342670739,0.069546707,0.038370594,-3,18,10,22,14,-15.28937244,11.39161205,-0.071826048,4.365588188,0.288445652,-2.478101015,-39,-4,-4,31,201
1695162530217490600,-9.249998093,-1.792060018,-0.864306808,0.344802469,0.067281775,0.041701376,-6,19,13,27,13,-15.04396629,11.52089882,-0.04309563,4.365588188,0.207840726,-2.507811785,-37,-5,-3,31,201
1695162530218490600,-9.248801231,-1.793257117,-0.857124209,0.346800923,0.065150075,0.044632465,-1,19,10,26,13,-14.78299809,11.62384892,-0.019153614,4.138029099,0.128301695,-2.530594349,-39,-5,-5,30,199
1695162530290452300,-9.137471199,-1.750161409,-0.900219858,0.330013782,0.028511487,0.050761104,-2,21,12,19,14,-10.20528507,8.279149055,0.527921498,-0.760483861,-0.490157723,-1.298604846,-42,-3,-2,32,200
1695162530291452300,-9.124302864,-1.74657011,-0.908599555,0.326683015,0.027312404,0.049295556,-4,17,12,24,12,-10.11071396,7.959523678,0.511162043,-0.905972421,-0.476568133,-1.181894422,-39,-5,-4,31,201
1695162530292452300,-9.107542992,-1.74657011,-0.916979253,0.323352218,0.026246555,0.047830015,-4,18,11,24,14,-10.02811337,7.626729488,0.486022949,-1.033474684,-0.461379766,-1.0658499,-37,-4,-2,31,202
1695162530293452300,-9.088389397,-1.745373011,-0.920570552,0.320021451,0.025313934,0.04623124,-3,19,10,23,14,-9.959878922,7.2915411,0.463278025,-1.140592575,-0.445392013,-0.949938774,-38,-4,-11,31,199
1695162530294452300,-9.069235802,-1.739387512,-0.93014735,0.317090333,0.024781011,0.044898927,-2,21,10,26,14,-9.897629738,6.959944248,0.430956304,-1.227725863,-0.428071976,-0.835093379,-39,-7,-5,31,201
1695162530370426800,-8.80467701,-1.720233917,-1.055842996,0.364387453,0.047030624,0.089664623,-5,17,10,23,14,-9.320627213,2.827552319,0.211886853,0.158012256,-0.074343033,0.679346085,-39,-7,0,36,200
1695162530371426800,-8.796297073,-1.719036818,-1.065419793,0.375445634,0.049029093,0.098724343,-5,17,11,20,14,-9.283516884,2.786850691,0.222660765,0.326283306,-0.059021436,0.715052068,-40,-8,-2,33,197
1695162530372426800,-8.790311813,-1.715445518,-1.067813993,0.387169987,0.051027562,0.108316995,-6,20,11,18,11,-9.246406555,2.767697096,0.228646263,0.49495405,-0.044632465,0.746094942,-33,-5,-2,34,200
1695162530373426800,-8.783128738,-1.714248419,-1.071405292,0.395430326,0.052359879,0.115245022,-2,17,12,24,14,-9.210494041,2.764105797,0.235828862,0.663091898,-0.031442571,0.772741199,-41,-8,-2,35,199
1695162530374426800,-8.77235508,-1.714248419,-1.07858789,0.408486992,0.054624807,0.126036748,-4,18,10,24,10,-9.181763649,2.767697096,0.237025961,0.829497695,-0.019584993,0.795523763,-35,-6,-1,36,198
1695162530461354400,-8.762778282,-1.800439715,-1.109712481,0.751024485,0.078473203,0.43220216,-6,19,11,22,9,-8.832210541,4.359841347,0.603338838,2.732572556,-0.079672284,0.852946401,-39,-5,-2,35,197
1695162530462354400,-8.771158218,-1.808819413,-1.110909581,0.772474706,0.078606427,0.449921876,-3,19,10,20,13,-8.82263279,4.431667328,0.620098233,2.739500761,-0.091130167,0.84974885,-40,-3,-2,40,200
1695162530463354400,-8.774748802,-1.816002011,-1.109712481,0.793924928,0.078739658,0.467508405,-6,20,12,20,13,-8.809465408,4.5370121,0.640448928,2.741899014,-0.109116383,0.844686031,-38,-9,-2,37,197
1695162530464354400,-8.7843256,-1.823184609,-1.108515382,0.8149755,0.078739658,0.484695256,-4,19,11,24,14,-8.792705536,4.635174274,0.657208383,2.735503674,-0.128301695,0.83935678,-38,-7,-2,36,200
1695162530465354400,-8.791508675,-1.830367208,-1.109712481,0.835626304,0.078872897,0.501615584,-6,19,11,23,14,-8.783128738,4.730942726,0.66917938,2.720448494,-0.148552835,0.833894312,-42,-8,-2,34,200
1695162530553314100,-9.064447403,-2.062604666,-1.034295082,1.098624825,0.075275652,0.715318561,-2,21,12,25,12,-8.754398346,5.462371349,0.652419984,1.477267981,-0.601672292,0.693202138,-39,-5,1,38,199
1695162530554314100,-9.084798813,-2.081758261,-1.029506683,1.10635221,0.074609496,0.718782485,-2,21,11,24,13,-8.756793022,5.444414616,0.640448928,1.391333938,-0.620457888,0.68560797,-33,-11,-2,41,201
1695162530555314100,-9.09437561,-2.093729496,-1.028309584,1.11101532,0.073810108,0.72038132,-2,21,11,20,12,-8.755595207,5.418078423,0.63087213,1.307131648,-0.637511492,0.678413451,-33,-5,-1,38,197
1695162530556314100,-9.109937668,-2.109291792,-1.023521185,1.117810011,0.07274425,0.721846879,-4,19,10,23,14,-8.753201485,5.385756493,0.620098233,1.224661589,-0.652966261,0.671485424,-35,-7,1,41,200
1695162530557314100,-9.127894402,-2.124854088,-1.019929886,1.123672247,0.071012251,0.72251302,-4,17,10,24,14,-8.749609947,5.348646641,0.602141738,1.144589663,-0.666555882,0.665090322,-37,-8,-1,41,200
1695162530588299800,-9.3685112,-2.195482969,-1.028309584,1.033341527,0.030376723,0.509742737,-5,17,12,23,12,-8.645462036,4.396951199,0.434547603,0.286047459,-0.586883605,0.64510572,-35,-9,-2,38,200
1695162530589299800,-9.372102737,-2.19428587,-1.029506683,1.01642108,0.030376723,0.489091903,-6,19,12,21,13,-8.643068314,4.35385561,0.440533102,0.274856061,-0.569297075,0.648303211,-37,-5,3,36,198
1695162530590299800,-9.378087997,-2.19428587,-1.030703783,0.998701394,0.030776417,0.467641652,-3,22,10,22,14,-8.639476776,4.310760021,0.442927301,0.266595691,-0.551044405,0.651500762,-38,-4,2,40,200
1695162530591299800,-9.382876396,-2.19308877,-1.029506683,0.986577332,0.03130934,0.453119457,-7,18,11,22,11,-8.637083054,4.27125597,0.452504128,0.260733545,-0.532125592,0.654964805,-41,-9,1,37,192
1695162530592299800,-9.387664795,-2.190694571,-1.023521185,0.96765852,0.03237519,0.430736601,-1,20,11,20,14,-8.637083054,4.231751442,0.458489627,0.257136285,-0.512673795,0.658428729,-37,-11,1,36,198
1695162530625257900,-9.425971985,-2.147598982,-1.048660398,0.616194487,0.084868304,0.001465544,-2,20,9,23,14,-8.714894295,3.869029999,0.778115571,0.387569666,-0.134163857,0.699064314,-41,-9,1,33,199
1695162530626257900,-9.423578262,-2.145204782,-1.047463298,0.602738142,0.087133229,-0.018785605,-6,17,11,19,14,-8.717288017,3.867832899,0.792480767,0.394098014,-0.120174579,0.698931098,-37,-9,-2,36,196
1695162530627257900,-9.419986725,-2.145204782,-1.049857497,0.590214431,0.089264929,-0.038370594,-4,10,10,24,14,-8.723274231,3.8654387,0.811634362,0.399826974,-0.107517615,0.698797822,-37,-8,0,37,198
1695162530628257900,-9.416395187,-2.145204782,-1.049857497,0.579289377,0.091263399,-0.057289433,-3,21,12,23,13,-8.72806263,3.8642416,0.831985116,0.40462327,-0.095793262,0.698398173,-35,-7,-1,40,199
1695162530629257900,-9.41280365,-2.146401882,-1.045069098,0.569430292,0.093128636,-0.075408876,-5,20,11,24,14,-8.72806263,3.8630445,0.842759013,0.407421142,-0.088865243,0.69813168,-38,-9,-2,40,202
1695162530663256600,-9.31823349,-1.948880196,-1.036689281,0.528395116,0.110581927,-0.308830023,-2,18,8,22,14,-8.717288017,3.869029999,1.128866076,0.281251162,-0.059287902,0.652966261,-39,-8,0,41,198
1695162530664256600,-9.309853554,-1.927332401,-1.042674899,0.527862132,0.109782539,-0.3168239,-4,20,11,22,14,-8.720879555,3.858256102,1.136048675,0.267261863,-0.063950993,0.647370577,-35,-8,-1,38,198
1695162530665256600,-9.30386734,-1.906981707,-1.043871999,0.526929557,0.108983152,-0.324551284,-10,17,10,22,14,-8.719682693,3.846285105,1.148019671,0.253272593,-0.068747319,0.64150846,-35,-12,0,38,196
1695162530666256600,-9.294290543,-1.887827992,-1.039083481,0.525597215,0.108183771,-0.33187899,-2,18,13,26,12,-8.718485832,3.836708307,1.15161097,0.239283308,-0.074209802,0.635246515,-37,-13,1,41,199
1695162530667256600,-9.282320023,-1.866280198,-1.042674899,0.523865223,0.107251145,-0.338940263,-7,18,11,22,13,-8.716091156,3.82473731,1.159990668,0.22542727,-0.079672284,0.628718197,-35,-8,-2,37,198
1695162530704234000,-9.155426979,-1.572990537,-1.074996591,0.439130157,0.098457888,-0.418212861,-5,22,11,22,14,-8.621520042,3.549403906,1.126471877,0.035039816,-0.157212853,0.466709018,-37,-6,-2,39,198
1695162530705234000,-9.155426979,-1.55982244,-1.079784989,0.432868302,0.098058186,-0.420611024,-6,19,10,23,14,-8.616731644,3.537432909,1.121683478,0.029577335,-0.158145472,0.456450224,-38,-9,0,38,200
1695162530706234000,-9.151836395,-1.545457244,-1.084573388,0.426606447,0.097791731,-0.422875971,-6,21,11,20,13,-8.609549522,3.525461912,1.11450088,0.024781011,-0.158944875,0.446058184,-37,-7,-1,34,198
1695162530707234000,-9.151836395,-1.533486247,-1.094150186,0.420211345,0.097525269,-0.425007641,-2,17,11,19,12,-8.602366447,3.514688015,1.119289279,0.020251149,-0.159344569,0.435666144,-35,-7,3,38,198
1695162530708234000,-9.154230118,-1.521515131,-1.097741485,0.41394946,0.097125575,-0.426739663,-2,20,9,24,9,-8.599972725,3.511096716,1.119289279,0.016254211,-0.159611031,0.424874425,-37,-9,-2,37,199
1695162530745209700,-9.190143585,-1.364694953,-1.164779186,0.29031086,0.090996936,-0.43220216,-3,22,10,22,11,-8.446743965,3.487154722,1.043871999,0.013323124,-0.136961713,0.218099549,-35,-6,0,41,200
1695162530746209700,-9.191340446,-1.361103654,-1.158793569,0.283649325,0.090730481,-0.431535989,-4,17,10,23,13,-8.437167168,3.490746021,1.040280581,0.014255743,-0.135362938,0.208107188,-37,-8,5,42,200
1695162530747209700,-9.190143585,-1.357512355,-1.158793569,0.277254194,0.090730481,-0.430603355,-6,18,9,19,9,-8.429984093,3.49673152,1.039083481,0.014921899,-0.133764163,0.198248088,-35,-5,1,37,200
1695162530748209700,-9.18894577,-1.353921056,-1.159990668,0.271125585,0.090597242,-0.429537535,-5,12,11,23,13,-8.423998833,3.502717018,1.040280581,0.015454824,-0.13243185,0.191719756,-38,-7,2,40,200
1695162530749209700,-9.186552048,-1.350329757,-1.164779186,0.264996946,0.090730481,-0.428471655,-3,11,9,20,13,-8.414422035,3.509899616,1.040280581,0.01612098,-0.130699843,0.181993872,-33,-8,0,40,199
1695162530780189500,-9.121908188,-1.272518158,-1.18752408,0.161742732,0.102321595,-0.411951005,-5,9,9,20,14,-8.364143372,3.643975019,1.023521185,-0.002531394,-0.099124044,-0.003996937,-38,-9,-1,37,198
1695162530781189500,-9.120711327,-1.271321058,-1.193509579,0.155747324,0.103920363,-0.411018372,-3,17,13,19,10,-8.360552788,3.652354717,1.018732786,-0.004929556,-0.097258806,-0.014522205,-40,-6,3,36,198
1695162530782189500,-9.120711327,-1.26653266,-1.192312479,0.149751917,0.105652377,-0.410085768,-4,21,11,19,10,-8.361749649,3.663128614,1.012747288,-0.007460949,-0.095127106,-0.025180703,-34,-8,3,40,197
1695162530783189500,-9.114726067,-1.258152962,-1.191115379,0.143756509,0.107384384,-0.409419596,-3,17,11,22,14,-8.36294651,3.675099611,1.009155989,-0.010392036,-0.093128636,-0.035839204,-35,-7,-1,41,198
1695162530784189500,-9.113529205,-1.255758762,-1.195903778,0.13762787,0.109116383,-0.408753455,-6,21,10,23,12,-8.359354973,3.685873508,1.00436759,-0.013056661,-0.090863705,-0.046497703,-38,-6,3,40,199
1695162530818157400,-9.063250542,-1.194706678,-1.180341482,0.02917764,0.125237361,-0.390234292,-4,19,9,18,13,-8.384494781,3.949235678,0.905008256,-0.067015313,-0.024647778,-0.203977033,-35,-7,3,38,202
1695162530819157400,-9.058462143,-1.18752408,-1.181538582,0.02384839,0.125770286,-0.388102591,-4,19,10,23,12,-8.388085365,3.955221176,0.897825658,-0.068081163,-0.022782542,-0.206908107,-37,-9,-1,41,198
1695162530820157400,-9.058462143,-1.179144382,-1.176750183,0.018652374,0.126303226,-0.385571182,-1,20,11,22,12,-8.39526844,3.965995073,0.889445961,-0.069413476,-0.019851454,-0.211038291,-37,-10,0,40,197
1695162530821157400,-9.057265282,-1.173158884,-1.171961784,0.013323124,0.126702905,-0.383173048,-3,18,11,22,11,-8.403648376,3.97916317,0.878672004,-0.070479326,-0.017453292,-0.21503523,-37,-5,0,36,197
1695162530822157400,-9.057265282,-1.168370485,-1.167173386,0.008260337,0.12723583,-0.380375206,-3,22,11,19,14,-8.413225174,3.989937067,0.870292306,-0.071012251,-0.015321592,-0.218499228,-31,-7,0,37,198
1695162530854127500,-9.017760277,-1.073799491,-1.090558887,-0.096326187,0.131232768,-0.282450229,-2,21,13,26,13,-8.479064941,4.226963043,0.872686505,-0.068214394,-0.011191424,-0.215967834,-35,-7,1,40,200
1695162530855127500,-9.011775017,-1.069011092,-1.086967587,-0.10258805,0.130966306,-0.27525574,-4,21,10,21,14,-8.480262756,4.235342979,0.871489406,-0.069280244,-0.009459418,-0.213702917,-38,-9,0,40,197
1695162530856127500,-9.008183479,-1.061828494,-1.082179189,-0.109116383,0.130566612,-0.267661542,-3,21,11,20,14,-8.481459618,4.244919777,0.867898107,-0.070212863,-0.007594181,-0.211571202,-34,-7,3,34,198
1695162530857127500,-9.004592896,-1.063025594,-1.072602391,-0.115511484,0.130300149,-0.259934127,-4,19,11,23,13,-8.48385334,4.255693436,0.867898107,-0.071545176,-0.005329249,-0.209306285,-37,-7,-1,36,198
1695162530858127500,-9.003395081,-1.059434295,-1.064222693,-0.122173049,0.129633993,-0.25194028,-3,17,13,20,13,-8.487444878,4.265270233,0.864306808,-0.072877489,-0.002931087,-0.207174569,-35,-8,7,38,198
1695162530943074800,-8.960299492,-1.121683478,-0.940921247,-0.230090365,0.102987751,-0.076075032,-3,21,10,23,14,-8.513781548,4.497508049,0.825999558,-0.081004597,0.085934147,-0.155747324,-35,-9,0,44,198
1695162530944074800,-8.956708908,-1.128866076,-0.937329948,-0.233554363,0.100856051,-0.065150075,-6,17,7,17,14,-8.517372131,4.503493309,0.829590917,-0.080071971,0.090197548,-0.149352223,-37,-7,1,40,199
1695162530945074800,-8.959102631,-1.133654475,-0.925358951,-0.236751899,0.098857582,-0.054091886,-7,18,11,24,14,-8.517372131,4.508281708,0.831985116,-0.079272583,0.09272895,-0.144689128,-35,-6,3,40,197
1695162530946074800,-8.959102631,-1.144428372,-0.919373453,-0.240748852,0.095926493,-0.039169986,-6,19,10,22,12,-8.517372131,4.519055843,0.830788016,-0.078339972,0.09659265,-0.136961713,-39,-8,-2,36,198
1695162530947074800,-8.962694168,-1.15280807,-0.914585054,-0.243413478,0.09352833,-0.027845331,-2,18,12,24,14,-8.518569946,4.527435303,0.836773515,-0.077407345,0.099923424,-0.128701374,-37,-5,3,36,197
