timestamp,EMG_s0,EMG_s1,EMG_s2,EMG_s3,EMG_s4,EMG_s5,EMG_s6,EMG_s7
1.6951637496467643e+18,1.0,0.0,0.0,-1.0,-1.0,0.0,1.0,-2.0
1.6951637496477622e+18,-1.0,-2.0,-3.0,-1.0,-1.0,-1.0,-1.0,-1.0
1.6951637496477622e+18,-2.0,-1.0,-1.0,-1.0,-1.0,-2.0,-3.0,1.0
1.6951637496477622e+18,0.0,0.0,-3.0,-1.0,-1.0,0.0,0.0,-2.0
1.6951637496487603e+18,-2.0,0.0,-2.0,1.0,-1.0,-1.0,-1.0,-1.0
1.6951637496487603e+18,-1.0,0.0,-1.0,1.0,1.0,-1.0,-2.0,0.0
1.6951637496527575e+18,-1.0,-1.0,0.0,1.0,1.0,1.0,0.0,0.0
1.6951637496527575e+18,-2.0,-1.0,0.0,-2.0,0.0,-2.0,-1.0,0.0
1.6951637496547594e+18,0.0,0.0,-1.0,-2.0,-1.0,-1.0,1.0,0.0
1.6951637496547594e+18,-1.0,-2.0,0.0,0.0,-1.0,-1.0,0.0,0.0
1.6951637496747466e+18,0.0,-1.0,0.0,-1.0,-2.0,-3.0,-1.0,0.0
1.6951637496797432e+18,-1.0,-1.0,0.0,-2.0,-1.0,-1.0,0.0,0.0
1.6951637496807437e+18,0.0,-1.0,-1.0,-1.0,-1.0,0.0,0.0,-1.0
1.6951637496807437e+18,-1.0,-1.0,0.0,-1.0,-1.0,0.0,-2.0,-1.0
1.6951637496927345e+18,-1.0,0.0,0.0,0.0,2.0,-1.0,-2.0,0.0
1.6951637496927345e+18,0.0,-1.0,0.0,0.0,-1.0,0.0,1.0,-1.0
1.6951637497057275e+18,-2.0,-1.0,-2.0,-2.0,-2.0,-2.0,0.0,-1.0
1.6951637497057275e+18,0.0,0.0,-3.0,-1.0,0.0,0.0,0.0,-1.0
1.6951637497077263e+18,-1.0,-2.0,-1.0,1.0,0.0,0.0,-1.0,0.0
1.6951637497077263e+18,0.0,-1.0,-2.0,-1.0,-2.0,-2.0,-2.0,-1.0
1.6951637497197197e+18,-1.0,-1.0,-1.0,0.0,1.0,0.0,1.0,-2.0
1.6951637497207206e+18,0.0,-2.0,-1.0,-1.0,-2.0,-2.0,0.0,-1.0
1.6951637497357102e+18,0.0,-1.0,-1.0,-1.0,-1.0,-2.0,-1.0,-1.0
1.6951637497357102e+18,-1.0,0.0,-2.0,-1.0,0.0,1.0,0.0,-1.0
1.6951637497497024e+18,-1.0,-2.0,1.0,-1.0,-1.0,-1.0,-3.0,0.0
1.6951637497497024e+18,-1.0,0.0,-1.0,-2.0,0.0,0.0,-2.0,0.0
1.6951637497507026e+18,-1.0,-1.0,-1.0,-1.0,0.0,0.0,0.0,0.0
1.6951637497507026e+18,1.0,-2.0,0.0,-1.0,-1.0,-2.0,-1.0,-2.0
1.6951637497656934e+18,0.0,0.0,-1.0,1.0,-2.0,0.0,-1.0,-1.0
1.6951637497656934e+18,0.0,-2.0,-3.0,-1.0,-1.0,-1.0,1.0,0.0
1.695163749766693e+18,-1.0,0.0,-2.0,-1.0,0.0,-1.0,0.0,-1.0
1.695163749766693e+18,-2.0,-1.0,0.0,-1.0,-1.0,-2.0,-2.0,-2.0
1.6951637498116677e+18,-1.0,-2.0,0.0,-1.0,0.0,0.0,0.0,0.0
1.6951637498126671e+18,-1.0,-1.0,-2.0,-1.0,-2.0,-2.0,-1.0,0.0
1.6951637498126671e+18,-1.0,-2.0,-2.0,-1.0,-4.0,0.0,0.0,-2.0
1.6951637498126671e+18,0.0,-2.0,0.0,-1.0,0.0,-1.0,0.0,-1.0
1.6951637498136658e+18,-1.0,1.0,-2.0,-2.0,1.0,0.0,0.0,-2.0
1.6951637498136658e+18,1.0,0.0,-1.0,-1.0,0.0,-1.0,0.0,-2.0
1.6951637498246592e+18,0.0,0.0,1.0,0.0,-1.0,-1.0,-1.0,0.0
1.695163749825659e+18,-1.0,-1.0,-2.0,-1.0,-2.0,-1.0,-1.0,-2.0
1.6951637498266586e+18,-2.0,-1.0,-1.0,0.0,-2.0,-2.0,-1.0,-2.0
1.6951637498266586e+18,-1.0,-2.0,-2.0,0.0,-2.0,-1.0,-2.0,-1.0
1.695163749839653e+18,-1.0,-1.0,-4.0,-1.0,1.0,0.0,0.0,-2.0
1.695163749840655e+18,-1.0,-1.0,0.0,-1.0,-1.0,0.0,-1.0,-2.0
1.695163749841672e+18,0.0,-2.0,-1.0,-2.0,0.0,-2.0,-2.0,-2.0
1.695163749841672e+18,-1.0,-3.0,0.0,-2.0,1.0,-1.0,-1.0,0.0
1.695163749857645e+18,-2.0,-1.0,-1.0,1.0,-2.0,0.0,0.0,-2.0
1.695163749857645e+18,-2.0,-1.0,-2.0,0.0,-1.0,-2.0,-1.0,1.0
1.695163749878629e+18,-1.0,-1.0,-1.0,-1.0,-2.0,1.0,-1.0,-2.0
1.695163749878629e+18,-1.0,1.0,-1.0,0.0,-1.0,-1.0,-1.0,-1.0
1.695163749878629e+18,1.0,-2.0,-1.0,0.0,-1.0,-4.0,-1.0,-2.0
1.6951637498796306e+18,-2.0,-2.0,-3.0,0.0,-2.0,-1.0,-1.0,-2.0
1.6951637499026153e+18,0.0,-1.0,-1.0,1.0,-1.0,-1.0,0.0,0.0
1.6951637499026153e+18,0.0,-1.0,-1.0,-1.0,0.0,0.0,0.0,0.0
1.6951637499026153e+18,-3.0,-1.0,0.0,-1.0,0.0,-1.0,-1.0,0.0
1.6951637499026153e+18,-1.0,-1.0,-1.0,-1.0,0.0,-2.0,-1.0,-3.0
1.6951637499056128e+18,-2.0,-2.0,-1.0,-1.0,0.0,-2.0,0.0,1.0
1.6951637499066125e+18,-1.0,-2.0,0.0,-1.0,0.0,0.0,-1.0,-3.0
1.6951637499276035e+18,-1.0,-1.0,0.0,-1.0,0.0,0.0,-1.0,-2.0
1.6951637499276035e+18,-1.0,-1.0,-3.0,-1.0,-1.0,1.0,0.0,-2.0
1.6951637499276035e+18,-1.0,0.0,-1.0,0.0,0.0,0.0,0.0,-2.0
1.6951637499285998e+18,-1.0,-1.0,-3.0,-2.0,-2.0,-3.0,1.0,0.0
1.6951637499365955e+18,0.0,0.0,-1.0,-4.0,1.0,1.0,2.0,1.0
1.6951637499365955e+18,-2.0,0.0,2.0,-1.0,1.0,1.0,0.0,1.0
1.6951637499455903e+18,1.0,0.0,2.0,0.0,0.0,1.0,1.0,1.0
1.6951637499455903e+18,2.0,0.0,1.0,0.0,1.0,0.0,0.0,-1.0
1.6951637499605816e+18,2.0,0.0,1.0,-2.0,1.0,0.0,-1.0,0.0
1.6951637499605816e+18,2.0,0.0,0.0,-1.0,0.0,-1.0,1.0,0.0
1.695163749961581e+18,-1.0,-2.0,-2.0,-1.0,0.0,1.0,0.0,0.0
1.695163749961581e+18,-2.0,0.0,0.0,1.0,0.0,0.0,0.0,-1.0
1.6951637499815724e+18,-1.0,0.0,-1.0,0.0,0.0,0.0,-1.0,-1.0
1.6951637499815724e+18,1.0,0.0,0.0,-1.0,0.0,-1.0,-1.0,0.0
1.6951637499905656e+18,0.0,0.0,0.0,0.0,-2.0,-2.0,0.0,0.0
1.6951637499905656e+18,1.0,1.0,-2.0,0.0,-1.0,0.0,0.0,1.0
1.6951637499965612e+18,-2.0,-1.0,0.0,-1.0,0.0,0.0,-1.0,0.0
1.6951637499965612e+18,0.0,-2.0,-1.0,-1.0,-1.0,-1.0,-2.0,0.0
1.6951637500125517e+18,-1.0,0.0,0.0,-1.0,0.0,-2.0,-1.0,-1.0
1.6951637500125517e+18,-2.0,1.0,-1.0,2.0,-1.0,-1.0,-1.0,-1.0
1.695163750027543e+18,0.0,-1.0,-3.0,-1.0,0.0,-2.0,0.0,-1.0
1.695163750027543e+18,0.0,-1.0,2.0,-1.0,1.0,0.0,-1.0,-2.0
1.6951637500295421e+18,-1.0,1.0,-3.0,-2.0,-1.0,0.0,-2.0,-3.0
1.6951637500295421e+18,-1.0,-3.0,-1.0,-3.0,-2.0,0.0,-1.0,0.0
1.695163750042535e+18,0.0,2.0,-5.0,2.0,2.0,-2.0,-1.0,0.0
1.695163750042535e+18,0.0,-3.0,-3.0,-2.0,-3.0,-1.0,0.0,-1.0
1.6951637500445343e+18,0.0,10.0,10.0,2.0,2.0,0.0,0.0,0.0
1.6951637500445343e+18,-1.0,-6.0,5.0,-2.0,0.0,0.0,-2.0,-2.0
1.6951637500725169e+18,-3.0,-3.0,-4.0,-3.0,-3.0,-2.0,-2.0,-1.0
1.6951637500725169e+18,1.0,-2.0,-4.0,-5.0,-5.0,-2.0,-1.0,-2.0
1.6951637500745185e+18,0.0,-5.0,-2.0,0.0,4.0,0.0,0.0,0.0
1.6951637500745185e+18,0.0,4.0,-5.0,-3.0,-5.0,-2.0,-2.0,-2.0
1.695163750079536e+18,0.0,2.0,-4.0,-10.0,-5.0,-2.0,-2.0,-2.0
1.695163750080514e+18,0.0,-3.0,2.0,6.0,1.0,-1.0,-1.0,0.0
1.6951637500815122e+18,0.0,2.0,-2.0,2.0,6.0,0.0,1.0,1.0
1.6951637500815122e+18,0.0,-5.0,3.0,-1.0,-2.0,2.0,1.0,1.0
1.695163750101501e+18,1.0,-2.0,5.0,3.0,0.0,0.0,0.0,-2.0
1.695163750101501e+18,1.0,5.0,-3.0,-1.0,0.0,-1.0,-1.0,-1.0
1.6951637501104986e+18,0.0,-4.0,-2.0,-3.0,-7.0,-1.0,-1.0,-1.0
1.6951637501104986e+18,-1.0,-3.0,-2.0,2.0,3.0,-1.0,1.0,-1.0
1.695163750132484e+18,-1.0,-1.0,-5.0,-6.0,-8.0,-1.0,-1.0,-1.0
1.695163750132484e+18,-1.0,2.0,8.0,2.0,3.0,0.0,-1.0,1.0
1.695163750134483e+18,0.0,-4.0,-6.0,-1.0,-1.0,-2.0,-2.0,0.0
1.695163750134483e+18,-2.0,2.0,0.0,0.0,-3.0,0.0,-2.0,-2.0
1.6951637501394796e+18,-1.0,-1.0,13.0,1.0,1.0,0.0,1.0,0.0
1.6951637501394796e+18,-2.0,1.0,-5.0,1.0,-2.0,0.0,0.0,-2.0
1.6951637501464755e+18,-1.0,-2.0,3.0,-4.0,-5.0,-3.0,0.0,-1.0
1.6951637501464755e+18,-1.0,-1.0,-2.0,1.0,-1.0,-2.0,-1.0,0.0
1.695163750163466e+18,1.0,-2.0,-5.0,1.0,3.0,-1.0,-1.0,-1.0
1.695163750163466e+18,-1.0,-2.0,1.0,2.0,3.0,2.0,2.0,-1.0
1.695163750164466e+18,-1.0,-2.0,-2.0,-3.0,-8.0,-2.0,-3.0,-1.0
1.695163750164466e+18,0.0,1.0,-3.0,-2.0,-2.0,-3.0,-4.0,-4.0
1.6951637501854528e+18,-1.0,-2.0,8.0,2.0,1.0,-2.0,-1.0,-1.0
1.6951637501854528e+18,-5.0,-4.0,-7.0,-6.0,-6.0,-3.0,-3.0,-1.0
1.695163750186452e+18,-2.0,-4.0,-12.0,-6.0,-4.0,-1.0,-1.0,-4.0
1.695163750186452e+18,0.0,3.0,12.0,-1.0,0.0,0.0,0.0,1.0
1.6951637501994442e+18,0.0,-4.0,-13.0,5.0,0.0,1.0,-1.0,-4.0
1.6951637501994442e+18,-3.0,-2.0,-3.0,-3.0,-2.0,-2.0,0.0,0.0
1.6951637502064407e+18,-3.0,-1.0,0.0,-1.0,-4.0,-4.0,-2.0,-2.0
1.6951637502064407e+18,-2.0,-4.0,-7.0,0.0,-4.0,-6.0,-1.0,-2.0
1.69516375022543e+18,2.0,13.0,-4.0,-1.0,-4.0,5.0,0.0,-1.0
1.69516375022543e+18,-1.0,-6.0,23.0,2.0,6.0,6.0,-1.0,0.0
1.695163750226429e+18,0.0,-3.0,-7.0,1.0,-2.0,-1.0,2.0,0.0
1.695163750226429e+18,-3.0,3.0,-1.0,-9.0,-11.0,-13.0,-5.0,-2.0
1.6951637502454182e+18,-2.0,-6.0,9.0,7.0,0.0,1.0,-1.0,-1.0
1.6951637502454182e+18,0.0,2.0,-5.0,4.0,2.0,9.0,3.0,-1.0
1.695163750246419e+18,0.0,2.0,0.0,-2.0,10.0,6.0,0.0,-1.0
1.695163750246419e+18,-4.0,-9.0,-9.0,13.0,14.0,3.0,5.0,11.0
1.695163750259414e+18,3.0,4.0,-3.0,-26.0,-18.0,-14.0,-10.0,-19.0
1.695163750259414e+18,-8.0,3.0,15.0,-1.0,-19.0,-6.0,12.0,8.0
1.695163750273403e+18,1.0,-21.0,-7.0,4.0,16.0,11.0,-4.0,-38.0
1.6951637502744015e+18,8.0,9.0,-2.0,-1.0,2.0,-2.0,-17.0,52.0
1.695163750290395e+18,-1.0,-7.0,-7.0,9.0,8.0,-4.0,1.0,11.0
1.695163750290395e+18,-3.0,-2.0,-4.0,-4.0,-10.0,-9.0,-8.0,-7.0
1.6951637502913925e+18,-1.0,11.0,3.0,-2.0,-4.0,-1.0,2.0,-2.0
1.6951637502913925e+18,-3.0,1.0,-8.0,-1.0,-2.0,9.0,18.0,-13.0
1.6951637503049121e+18,-3.0,-8.0,38.0,4.0,3.0,0.0,-1.0,0.0
1.6951637503049121e+18,1.0,-1.0,-39.0,-4.0,6.0,-4.0,-2.0,0.0
1.6951637503069115e+18,0.0,5.0,7.0,2.0,-7.0,-5.0,-2.0,2.0
1.6951637503069115e+18,-1.0,-14.0,0.0,0.0,3.0,3.0,-1.0,0.0
1.6951637503187328e+18,-2.0,5.0,1.0,0.0,0.0,0.0,9.0,21.0
1.6951637503187328e+18,2.0,1.0,-1.0,2.0,3.0,3.0,6.0,-26.0
1.695163750328705e+18,-3.0,6.0,7.0,0.0,-1.0,-6.0,-11.0,1.0
1.695163750328705e+18,5.0,9.0,9.0,0.0,0.0,2.0,10.0,3.0
1.6951637503436964e+18,-4.0,-8.0,-10.0,-1.0,9.0,23.0,26.0,-46.0
1.6951637503436964e+18,-16.0,-7.0,-3.0,-3.0,11.0,-1.0,-28.0,-7.0
1.695163750344698e+18,25.0,10.0,-5.0,2.0,-6.0,-11.0,-8.0,87.0
1.695163750344698e+18,-1.0,-1.0,-2.0,-6.0,-10.0,-9.0,20.0,14.0
1.6951637503646876e+18,-3.0,1.0,2.0,-6.0,-14.0,-9.0,-36.0,-11.0
1.6951637503656842e+18,10.0,17.0,-2.0,13.0,18.0,12.0,9.0,-42.0
1.695163750366687e+18,-15.0,-19.0,7.0,-6.0,-7.0,-7.0,-12.0,-27.0
1.695163750366687e+18,-4.0,10.0,-3.0,-1.0,-1.0,-4.0,1.0,5.0
1.695163750378679e+18,1.0,-7.0,-6.0,-2.0,0.0,0.0,9.0,6.0
1.695163750378679e+18,-2.0,-8.0,-5.0,-6.0,-6.0,-3.0,-1.0,11.0
1.6951637503880294e+18,-3.0,8.0,-9.0,1.0,1.0,1.0,7.0,-16.0
1.6951637503880294e+18,-1.0,-11.0,41.0,0.0,0.0,4.0,-11.0,-22.0
1.6951637504098586e+18,2.0,-7.0,-38.0,2.0,6.0,2.0,3.0,6.0
1.6951637504098586e+18,1.0,12.0,32.0,1.0,-3.0,-4.0,3.0,-1.0
1.6951637504118618e+18,0.0,6.0,-5.0,0.0,-10.0,-3.0,-3.0,45.0
1.6951637504118618e+18,0.0,-10.0,-16.0,1.0,4.0,7.0,-5.0,-46.0
1.6951637504418363e+18,-1.0,3.0,-20.0,-3.0,0.0,-3.0,1.0,2.0
1.6951637504418363e+18,2.0,-1.0,9.0,-4.0,-3.0,-3.0,7.0,-9.0
1.6951637504428352e+18,-7.0,-10.0,-3.0,-4.0,-1.0,2.0,10.0,-18.0
1.6951637504438346e+18,0.0,2.0,-9.0,-3.0,-4.0,-2.0,-25.0,46.0
1.6951637504438346e+18,6.0,1.0,22.0,3.0,-3.0,-5.0,-1.0,25.0
1.6951637504438346e+18,1.0,-4.0,-25.0,-1.0,-1.0,3.0,7.0,-3.0
1.6951637504488325e+18,-4.0,-2.0,22.0,-3.0,-1.0,4.0,12.0,-24.0
1.6951637504488325e+18,-13.0,-3.0,-35.0,-1.0,7.0,1.0,-3.0,-30.0
1.695163750463824e+18,1.0,0.0,2.0,2.0,2.0,1.0,2.0,-13.0
1.6951637504648228e+18,8.0,6.0,-3.0,1.0,-5.0,-2.0,-1.0,51.0
1.6951637504658284e+18,0.0,-6.0,2.0,2.0,4.0,6.0,7.0,-19.0
1.6951637504658284e+18,3.0,6.0,-4.0,1.0,-4.0,-9.0,-16.0,12.0
1.6951637504948047e+18,-7.0,-8.0,30.0,2.0,-1.0,-2.0,-5.0,-21.0
1.695163750495805e+18,-3.0,0.0,0.0,-4.0,-4.0,-1.0,-3.0,7.0
1.695163750495805e+18,-1.0,-10.0,-7.0,2.0,3.0,-2.0,-1.0,-2.0
1.6951637504968087e+18,2.0,3.0,-32.0,-6.0,-2.0,5.0,12.0,-14.0
1.6951637504998034e+18,-3.0,3.0,-8.0,9.0,12.0,2.0,18.0,-2.0
1.695163750501801e+18,-5.0,-6.0,40.0,-3.0,-9.0,-11.0,-39.0,6.0
1.695163750523787e+18,3.0,3.0,-4.0,1.0,0.0,0.0,-4.0,7.0
1.695163750523787e+18,-2.0,-3.0,28.0,1.0,0.0,-1.0,5.0,-10.0
1.6951637505247867e+18,2.0,9.0,-21.0,-3.0,-4.0,-2.0,-9.0,3.0
1.6951637505247867e+18,1.0,7.0,-18.0,-8.0,-5.0,1.0,26.0,2.0
1.6951637505257859e+18,-11.0,-19.0,16.0,4.0,14.0,7.0,-6.0,-13.0
1.6951637505257859e+18,5.0,-1.0,14.0,-2.0,-7.0,-4.0,0.0,16.0
1.6951637505597673e+18,2.0,18.0,-30.0,-9.0,-5.0,-4.0,-12.0,22.0
1.6951637505597673e+18,-2.0,-27.0,12.0,13.0,7.0,0.0,-9.0,-17.0
1.6951637505607667e+18,-1.0,0.0,-8.0,-9.0,-7.0,-1.0,5.0,27.0
1.6951637505607667e+18,-3.0,-3.0,-3.0,-1.0,-1.0,-2.0,-1.0,-22.0
1.6951637505607667e+18,-3.0,17.0,-5.0,-5.0,-5.0,-1.0,4.0,-18.0
1.695163750561766e+18,-9.0,4.0,-13.0,-3.0,1.0,9.0,34.0,-27.0
1.6951637505697605e+18,12.0,0.0,-9.0,1.0,-5.0,-18.0,-43.0,62.0
1.6951637505707604e+18,-1.0,-13.0,5.0,1.0,2.0,3.0,3.0,-12.0
1.695163750581754e+18,3.0,3.0,1.0,-1.0,-5.0,-4.0,-10.0,5.0
1.695163750581754e+18,0.0,15.0,12.0,1.0,4.0,7.0,17.0,-7.0
1.6951637505987446e+18,-14.0,-23.0,-40.0,-6.0,-4.0,-1.0,0.0,-46.0
1.6951637505987446e+18,7.0,27.0,9.0,-2.0,-3.0,-3.0,0.0,10.0
1.695163750612736e+18,0.0,-21.0,-1.0,-3.0,0.0,-2.0,-8.0,5.0
1.695163750612736e+18,-4.0,-3.0,-55.0,-3.0,0.0,-3.0,-9.0,2.0
1.695163750613735e+18,2.0,17.0,31.0,5.0,0.0,3.0,11.0,-13.0
1.695163750614736e+18,-5.0,-16.0,-9.0,-3.0,-5.0,1.0,1.0,-28.0
1.6951637506277274e+18,4.0,9.0,17.0,7.0,7.0,-7.0,-13.0,49.0
1.6951637506277274e+18,-3.0,-10.0,0.0,-2.0,-4.0,-1.0,-6.0,-5.0
1.6951637506297262e+18,3.0,3.0,-11.0,-10.0,-5.0,-4.0,-1.0,3.0
1.6951637506297262e+18,0.0,3.0,-1.0,5.0,-5.0,8.0,19.0,-22.0
1.6951637506427182e+18,-11.0,-11.0,36.0,0.0,-5.0,-8.0,-8.0,-14.0
1.6951637506427182e+18,0.0,-20.0,-18.0,0.0,10.0,-6.0,-20.0,63.0
1.6951637506447173e+18,2.0,13.0,-16.0,-2.0,-5.0,0.0,0.0,-26.0
1.6951637506447173e+18,-7.0,1.0,27.0,-6.0,-9.0,-4.0,-4.0,-17.0
1.6951637506766986e+18,1.0,-15.0,12.0,6.0,12.0,11.0,12.0,-3.0
1.6951637506766986e+18,9.0,20.0,13.0,1.0,-9.0,-6.0,12.0,13.0
1.6951637506776988e+18,-4.0,3.0,-6.0,-2.0,9.0,-5.0,-14.0,-15.0
1.6951637506776988e+18,-2.0,-1.0,1.0,2.0,-1.0,-2.0,-4.0,11.0
1.6951637506787003e+18,0.0,7.0,-5.0,3.0,-11.0,-3.0,0.0,-4.0
1.6951637506796982e+18,0.0,-19.0,-32.0,-12.0,0.0,-4.0,-1.0,-12.0
1.6951637506876928e+18,-5.0,4.0,44.0,4.0,6.0,8.0,10.0,4.0
1.6951637506886917e+18,8.0,14.0,-9.0,3.0,4.0,9.0,-4.0,16.0
1.6951637507106788e+18,-3.0,-8.0,19.0,-13.0,-14.0,-11.0,-10.0,-7.0
1.6951637507106788e+18,-5.0,-4.0,-11.0,-21.0,-36.0,-17.0,-7.0,-12.0
1.69516375071168e+18,-6.0,-4.0,-6.0,4.0,-28.0,-17.0,6.0,-3.0
1.69516375071168e+18,-2.0,-1.0,-3.0,33.0,90.0,50.0,9.0,-27.0
1.695163750724671e+18,10.0,11.0,-8.0,-1.0,8.0,1.0,0.0,8.0
1.6951637507256717e+18,-1.0,-20.0,13.0,0.0,11.0,10.0,-4.0,3.0
1.6951637507266714e+18,1.0,9.0,-4.0,-11.0,-32.0,-19.0,-2.0,2.0
1.6951637507266714e+18,-2.0,-4.0,-2.0,-12.0,-29.0,-21.0,0.0,8.0
1.695163750746659e+18,-4.0,-6.0,-12.0,-10.0,-3.0,7.0,7.0,-11.0
1.695163750756656e+18,3.0,15.0,37.0,-14.0,-19.0,-13.0,-13.0,-13.0
1.695163750756656e+18,5.0,-5.0,-19.0,32.0,71.0,35.0,14.0,12.0
1.695163750756656e+18,1.0,4.0,-12.0,3.0,-34.0,-16.0,-6.0,7.0
1.6951637507626488e+18,-6.0,-26.0,-15.0,18.0,47.0,12.0,5.0,-3.0
1.6951637507626488e+18,-2.0,5.0,10.0,0.0,-19.0,-8.0,-7.0,5.0
1.695163750764651e+18,-4.0,1.0,5.0,-7.0,-8.0,-2.0,1.0,-5.0
1.695163750764651e+18,-3.0,-7.0,-15.0,-21.0,-40.0,-24.0,-8.0,8.0
1.695163750783638e+18,-2.0,8.0,5.0,-15.0,18.0,12.0,0.0,-1.0
1.695163750784637e+18,1.0,-2.0,-6.0,52.0,65.0,26.0,6.0,-4.0
1.6951637508036285e+18,1.0,-2.0,11.0,11.0,3.0,11.0,8.0,0.0
1.6951637508036285e+18,-1.0,-1.0,-1.0,49.0,30.0,3.0,-7.0,1.0
1.6951637508156196e+18,-1.0,2.0,-4.0,-34.0,-43.0,-25.0,-2.0,-4.0
1.6951637508156196e+18,-1.0,0.0,0.0,-25.0,-12.0,-4.0,-2.0,-4.0
1.695163750816619e+18,2.0,4.0,-1.0,-3.0,-18.0,5.0,0.0,0.0
1.695163750817619e+18,-2.0,-5.0,4.0,-20.0,-28.0,-21.0,-6.0,7.0
1.69516375083161e+18,-2.0,-1.0,-8.0,-5.0,-33.0,-2.0,3.0,-5.0
1.69516375083161e+18,1.0,5.0,1.0,0.0,-19.0,-4.0,-2.0,0.0
1.69516375083161e+18,0.0,-1.0,-9.0,-19.0,35.0,-2.0,-2.0,0.0
1.6951637508326103e+18,1.0,0.0,9.0,-12.0,16.0,10.0,3.0,4.0
1.695163750859596e+18,-4.0,-2.0,6.0,20.0,-6.0,-11.0,-6.0,-5.0
1.695163750859596e+18,3.0,3.0,-13.0,15.0,-1.0,2.0,1.0,0.0
1.6951637508755866e+18,-4.0,-8.0,-7.0,-20.0,-24.0,-7.0,0.0,-1.0
1.6951637508755866e+18,0.0,-1.0,-3.0,-34.0,2.0,0.0,0.0,2.0
1.6951637508765842e+18,6.0,14.0,-6.0,4.0,-4.0,1.0,3.0,4.0
1.6951637508765842e+18,-3.0,-5.0,29.0,51.0,50.0,14.0,-7.0,-2.0
1.6951637508785833e+18,0.0,-3.0,7.0,14.0,-25.0,-8.0,9.0,0.0
1.6951637508785833e+18,-1.0,-7.0,-16.0,-7.0,4.0,-3.0,-2.0,0.0
1.6951637509055895e+18,1.0,0.0,-9.0,-26.0,-3.0,6.0,4.0,1.0
1.695163750906568e+18,-4.0,-6.0,-10.0,-27.0,-41.0,-22.0,-9.0,-9.0
1.6951637509075668e+18,8.0,17.0,8.0,-6.0,-5.0,-4.0,-2.0,1.0
1.6951637509075668e+18,-2.0,0.0,4.0,-3.0,-15.0,-2.0,1.0,2.0
1.6951637509085665e+18,-5.0,-11.0,-16.0,-7.0,-9.0,-7.0,-8.0,-2.0
1.6951637509085665e+18,6.0,13.0,18.0,26.0,27.0,17.0,15.0,5.0
1.6951637509205588e+18,-4.0,-3.0,2.0,-22.0,-48.0,-25.0,-12.0,-6.0
1.6951637509205588e+18,-7.0,-14.0,4.0,48.0,65.0,17.0,-1.0,-3.0
1.6951637509515412e+18,1.0,13.0,17.0,33.0,31.0,16.0,2.0,3.0
1.6951637509515412e+18,-3.0,-14.0,-23.0,-62.0,11.0,9.0,7.0,0.0
1.6951637509525435e+18,2.0,8.0,9.0,6.0,-10.0,-3.0,-3.0,-3.0
1.695163750953544e+18,-1.0,4.0,2.0,-15.0,-26.0,-8.0,-9.0,4.0
1.695163750953544e+18,-1.0,0.0,3.0,5.0,3.0,-13.0,-17.0,-9.0
1.695163750953544e+18,2.0,1.0,-3.0,24.0,-4.0,0.0,6.0,3.0
1.695163750965535e+18,-3.0,-6.0,-7.0,-15.0,13.0,12.0,15.0,-5.0
1.695163750965535e+18,-1.0,2.0,9.0,5.0,-18.0,-33.0,-73.0,-17.0
1.6951637509665326e+18,1.0,-1.0,-1.0,12.0,21.0,34.0,68.0,24.0
1.6951637509665326e+18,-5.0,-9.0,-15.0,-26.0,-37.0,-27.0,-25.0,-6.0
1.6951637510035118e+18,-5.0,-7.0,-12.0,0.0,20.0,0.0,-39.0,-12.0
1.6951637510035118e+18,1.0,2.0,0.0,-9.0,2.0,42.0,100.0,31.0
1.6951637510045128e+18,-5.0,-4.0,16.0,11.0,-9.0,-8.0,-23.0,-11.0
1.6951637510045128e+18,0.0,2.0,-4.0,-2.0,-2.0,-3.0,12.0,-2.0
1.6951637510055104e+18,1.0,2.0,-1.0,6.0,8.0,-2.0,-5.0,2.0
1.6951637510055104e+18,-5.0,-7.0,-12.0,-37.0,-33.0,-26.0,-33.0,-14.0
1.6951637510514842e+18,1.0,-6.0,-2.0,33.0,24.0,0.0,-10.0,-4.0
1.6951637510514842e+18,-1.0,2.0,5.0,4.0,-8.0,-5.0,-5.0,0.0
1.6951637510514842e+18,0.0,-10.0,5.0,15.0,9.0,-2.0,-6.0,-1.0
1.6951637510514842e+18,4.0,9.0,9.0,-10.0,-9.0,4.0,3.0,1.0
1.695163751056483e+18,-4.0,-5.0,-16.0,-12.0,-12.0,-2.0,6.0,0.0
1.695163751056483e+18,-2.0,0.0,5.0,9.0,7.0,-3.0,-11.0,-7.0
1.6951637510574807e+18,-1.0,-7.0,1.0,2.0,7.0,12.0,20.0,7.0
1.6951637510574807e+18,-1.0,0.0,-8.0,-13.0,-10.0,-4.0,3.0,0.0
1.6951637510774705e+18,0.0,15.0,-9.0,-30.0,-14.0,-10.0,-9.0,-8.0
1.6951637510774705e+18,2.0,-3.0,9.0,11.0,-1.0,6.0,14.0,8.0
1.695163751079468e+18,0.0,3.0,2.0,-8.0,2.0,2.0,10.0,3.0
1.695163751079468e+18,2.0,0.0,4.0,20.0,22.0,10.0,-1.0,0.0
1.6951637510934595e+18,-7.0,-9.0,4.0,-12.0,-25.0,-5.0,3.0,-3.0
1.6951637510934595e+18,-1.0,5.0,14.0,27.0,21.0,0.0,-3.0,-3.0
1.6951637510944594e+18,0.0,-1.0,-5.0,-7.0,6.0,8.0,9.0,4.0
1.6951637510944594e+18,-3.0,-5.0,7.0,14.0,1.0,1.0,-9.0,-7.0
1.6951637511074737e+18,4.0,0.0,0.0,-11.0,-9.0,1.0,-3.0,10.0
1.6951637511074737e+18,-1.0,0.0,-9.0,-18.0,-10.0,6.0,11.0,-10.0
1.6951637511094508e+18,-6.0,-7.0,-4.0,3.0,4.0,-3.0,-3.0,-5.0
1.6951637511094508e+18,2.0,-2.0,1.0,-4.0,-19.0,-19.0,-21.0,-11.0
1.6951637511374566e+18,-5.0,-2.0,-7.0,0.0,24.0,23.0,20.0,9.0
1.6951637511374566e+18,1.0,5.0,2.0,3.0,-13.0,-2.0,2.0,9.0
1.6951637511394332e+18,1.0,-2.0,-4.0,4.0,8.0,3.0,0.0,-1.0
1.6951637511394332e+18,2.0,11.0,-3.0,-10.0,-2.0,0.0,2.0,-1.0
1.6951637511524477e+18,-2.0,-6.0,-4.0,-6.0,-14.0,-18.0,-31.0,-12.0
1.6951637511524477e+18,0.0,-8.0,5.0,13.0,9.0,11.0,26.0,7.0
1.695163751154425e+18,-3.0,-2.0,-17.0,-16.0,-8.0,-2.0,1.0,-1.0
1.695163751154425e+18,2.0,10.0,11.0,13.0,0.0,0.0,10.0,8.0
1.695163751183408e+18,-1.0,-12.0,2.0,0.0,3.0,-9.0,-21.0,-8.0
1.695163751183408e+18,1.0,13.0,-7.0,-13.0,-6.0,3.0,3.0,2.0
1.6951637511844083e+18,-2.0,-16.0,10.0,8.0,0.0,0.0,3.0,2.0
1.6951637511854085e+18,1.0,5.0,-4.0,0.0,8.0,6.0,6.0,-4.0
1.6951637511954017e+18,-2.0,-13.0,8.0,10.0,-3.0,2.0,0.0,4.0
1.6951637511954017e+18,-2.0,-13.0,-8.0,-5.0,-2.0,-3.0,-10.0,-6.0
1.6951637511954017e+18,3.0,12.0,-3.0,-11.0,-7.0,-4.0,-5.0,-2.0
1.6951637511964012e+18,-10.0,-38.0,0.0,-2.0,6.0,0.0,4.0,5.0
1.695163751229382e+18,-1.0,5.0,-4.0,13.0,5.0,2.0,5.0,-3.0
1.695163751229382e+18,-2.0,0.0,-1.0,-12.0,-7.0,-6.0,-6.0,4.0
1.695163751230381e+18,-2.0,-2.0,4.0,4.0,-23.0,-7.0,-6.0,-2.0
1.695163751230381e+18,3.0,14.0,-2.0,18.0,11.0,0.0,-3.0,0.0
1.6951637512313807e+18,2.0,0.0,-9.0,-19.0,1.0,-1.0,2.0,-6.0
1.6951637512313807e+18,-3.0,-5.0,-1.0,2.0,4.0,0.0,-4.0,-4.0
1.6951637512423747e+18,-1.0,6.0,1.0,3.0,-3.0,-3.0,-4.0,1.0
1.6951637512423747e+18,-1.0,10.0,10.0,-7.0,-17.0,-3.0,2.0,-2.0
1.6951637512493704e+18,-3.0,-3.0,-9.0,0.0,-4.0,-3.0,1.0,-3.0
1.6951637512493704e+18,1.0,5.0,-7.0,-3.0,0.0,-5.0,-8.0,-3.0
1.6951637513243274e+18,1.0,-2.0,7.0,-4.0,5.0,-2.0,-3.0,0.0
1.6951637513243274e+18,2.0,2.0,-5.0,9.0,-5.0,-1.0,1.0,-1.0
1.6951637513413396e+18,-1.0,-5.0,-5.0,1.0,5.0,3.0,1.0,0.0
1.6951637513413396e+18,-2.0,-1.0,11.0,-2.0,-1.0,-5.0,-4.0,-2.0
1.6951637513433165e+18,-1.0,-1.0,1.0,-1.0,5.0,3.0,1.0,0.0
1.6951637513433165e+18,-2.0,-5.0,-18.0,2.0,1.0,-1.0,-4.0,-2.0
1.6951637513433165e+18,3.0,10.0,-3.0,1.0,-14.0,-6.0,-1.0,15.0
1.695163751344319e+18,-4.0,-4.0,-13.0,-13.0,-8.0,-6.0,-14.0,-27.0
1.6951637513543124e+18,-3.0,-10.0,-11.0,8.0,14.0,8.0,9.0,10.0
1.6951637513543124e+18,-3.0,1.0,-13.0,-6.0,2.0,0.0,4.0,-10.0
1.6951637513703032e+18,-23.0,-30.0,10.0,-1.0,-9.0,0.0,-7.0,-54.0
1.6951637513703032e+18,12.0,14.0,-38.0,-4.0,2.0,0.0,-6.0,9.0
1.6951637513713024e+18,25.0,14.0,14.0,0.0,-11.0,-9.0,11.0,52.0
1.6951637513713024e+18,-14.0,2.0,-16.0,-1.0,1.0,-6.0,-32.0,-21.0
1.6951637513852956e+18,45.0,9.0,37.0,1.0,2.0,5.0,27.0,67.0
1.6951637513862953e+18,-3.0,-8.0,-43.0,-7.0,1.0,6.0,-1.0,-122.0
1.6951637513872942e+18,-7.0,-15.0,-11.0,-5.0,-4.0,-11.0,-30.0,30.0
1.6951637513872942e+18,-7.0,7.0,-40.0,1.0,6.0,7.0,23.0,33.0
1.6951637513882913e+18,-33.0,-86.0,-21.0,-4.0,0.0,20.0,66.0,-56.0
1.6951637513882913e+18,-3.0,5.0,-23.0,-6.0,-11.0,-12.0,-9.0,-36.0
1.6951637514002834e+18,46.0,26.0,-19.0,-1.0,-3.0,-9.0,-63.0,46.0
1.6951637514002834e+18,-16.0,-13.0,14.0,4.0,0.0,-1.0,0.0,49.0
1.6951637514162775e+18,40.0,25.0,44.0,-1.0,-3.0,-5.0,-9.0,-21.0
1.6951637514162775e+18,-69.0,-44.0,-63.0,-4.0,4.0,8.0,19.0,-25.0
1.6951637514182766e+18,-24.0,37.0,-25.0,-4.0,4.0,3.0,57.0,-46.0
1.6951637514182766e+18,-25.0,-17.0,-13.0,-14.0,-14.0,-14.0,-75.0,-3.0
1.6951637514302664e+18,46.0,77.0,39.0,12.0,-2.0,0.0,-12.0,41.0
1.6951637514302664e+18,39.0,17.0,74.0,1.0,0.0,4.0,3.0,1.0
1.6951637514312663e+18,-19.0,14.0,1.0,-2.0,-8.0,-13.0,-32.0,-14.0
1.6951637514322744e+18,-7.0,-52.0,-30.0,-20.0,-18.0,-3.0,37.0,31.0
1.6951637514602493e+18,-42.0,9.0,5.0,30.0,28.0,6.0,-23.0,-30.0
1.6951637514602493e+18,26.0,15.0,1.0,-4.0,11.0,0.0,-9.0,0.0
1.695163751461249e+18,11.0,22.0,-2.0,3.0,2.0,0.0,5.0,14.0
1.695163751461249e+18,-2.0,5.0,23.0,-7.0,-7.0,5.0,22.0,-21.0
1.6951637514752407e+18,-16.0,-41.0,-10.0,-33.0,-30.0,-20.0,-17.0,8.0
1.6951637514752407e+18,2.0,14.0,38.0,30.0,23.0,16.0,21.0,-26.0
1.6951637514792397e+18,1.0,-65.0,-43.0,-13.0,-13.0,-12.0,-39.0,-65.0
1.6951637514842386e+18,-20.0,-32.0,-9.0,-8.0,-9.0,-14.0,3.0,61.0
1.6951637514902323e+18,41.0,66.0,-21.0,-1.0,17.0,18.0,-6.0,-19.0
1.6951637514902323e+18,-13.0,70.0,34.0,-4.0,-9.0,0.0,-13.0,27.0
1.6951637514972293e+18,-7.0,-58.0,-40.0,-3.0,9.0,5.0,4.0,39.0
1.6951637514972293e+18,23.0,24.0,-7.0,-7.0,-22.0,-12.0,-14.0,-8.0
1.6951637515212163e+18,-37.0,14.0,32.0,4.0,2.0,-17.0,-37.0,-21.0
1.6951637515212163e+18,34.0,9.0,-13.0,-6.0,-3.0,8.0,66.0,-10.0
1.6951637515222372e+18,-37.0,-25.0,-7.0,-3.0,-3.0,-11.0,-55.0,-39.0
1.6951637515222372e+18,19.0,3.0,37.0,7.0,14.0,11.0,-13.0,0.0
1.6951637515422246e+18,11.0,-2.0,-17.0,-7.0,-8.0,-6.0,2.0,84.0
1.6951637515432036e+18,0.0,-41.0,28.0,10.0,8.0,-9.0,-16.0,-2.0
1.695163751544224e+18,-14.0,6.0,-57.0,-5.0,-10.0,7.0,27.0,-45.0
1.695163751544224e+18,12.0,8.0,8.0,22.0,30.0,9.0,0.0,-11.0
1.6951637515511997e+18,-23.0,5.0,-20.0,-6.0,-5.0,3.0,3.0,-11.0
1.6951637515522017e+18,-13.0,-21.0,59.0,1.0,-16.0,-9.0,6.0,0.0
1.6951637515522017e+18,26.0,2.0,-11.0,12.0,0.0,-1.0,10.0,-6.0
1.6951637515522017e+18,-7.0,10.0,-11.0,-14.0,0.0,-1.0,-5.0,35.0
1.6951637515721871e+18,49.0,25.0,-11.0,13.0,8.0,2.0,11.0,-9.0
1.695163751573185e+18,-48.0,-27.0,-74.0,-15.0,-12.0,-3.0,-11.0,2.0
1.6951637515742067e+18,-46.0,-22.0,17.0,2.0,12.0,-3.0,-46.0,-31.0
1.6951637515742067e+18,25.0,3.0,15.0,-1.0,-7.0,7.0,40.0,27.0
1.695163751595172e+18,-28.0,-40.0,-28.0,-7.0,-3.0,-4.0,26.0,11.0
1.695163751595172e+18,28.0,47.0,-21.0,-18.0,-28.0,-13.0,-17.0,36.0
1.6951637515961733e+18,-4.0,-7.0,54.0,23.0,39.0,13.0,9.0,8.0
1.6951637515971725e+18,19.0,-11.0,-20.0,3.0,-4.0,-5.0,-3.0,-10.0
1.6951637516101632e+18,-26.0,-2.0,74.0,-2.0,-7.0,-3.0,10.0,-12.0
1.6951637516101632e+18,14.0,-18.0,-26.0,-6.0,-1.0,8.0,2.0,6.0
1.6951637516111631e+18,-3.0,34.0,31.0,-1.0,-6.0,-4.0,34.0,-8.0
1.6951637516121628e+18,1.0,-17.0,-3.0,2.0,5.0,-1.0,-21.0,27.0
1.6951637516501412e+18,0.0,13.0,5.0,-1.0,-6.0,-3.0,1.0,-27.0
1.6951637516501412e+18,-29.0,-49.0,-8.0,-3.0,3.0,6.0,-8.0,8.0
1.695163751654161e+18,32.0,27.0,0.0,-7.0,-10.0,4.0,18.0,12.0
1.6951637516561595e+18,12.0,11.0,11.0,13.0,16.0,8.0,10.0,-10.0
1.6951637516561595e+18,-26.0,-9.0,-16.0,-6.0,-2.0,1.0,11.0,0.0
1.6951637516561595e+18,4.0,-27.0,20.0,7.0,1.0,-4.0,1.0,5.0
1.6951637516611566e+18,-3.0,22.0,7.0,-8.0,-10.0,-7.0,9.0,-8.0
1.6951637516611566e+18,-40.0,-1.0,-10.0,2.0,-3.0,-6.0,-25.0,11.0
1.6951637516771277e+18,20.0,5.0,9.0,10.0,14.0,22.0,53.0,-7.0
1.6951637516771277e+18,36.0,28.0,-34.0,5.0,-2.0,-6.0,-35.0,34.0
1.6951637516951183e+18,-6.0,-27.0,-12.0,-3.0,9.0,4.0,-5.0,-6.0
1.6951637516951183e+18,-10.0,12.0,36.0,1.0,-4.0,-6.0,9.0,-33.0
1.6951637516951183e+18,-3.0,-3.0,0.0,-4.0,-7.0,-8.0,-6.0,7.0
1.6951637516961144e+18,2.0,10.0,28.0,2.0,5.0,4.0,5.0,-4.0
1.695163751707111e+18,-2.0,23.0,-24.0,3.0,0.0,2.0,10.0,15.0
1.695163751707111e+18,0.0,-16.0,-49.0,-12.0,-12.0,-8.0,-1.0,13.0
1.6951637517081078e+18,3.0,-21.0,-15.0,-5.0,-4.0,-12.0,-30.0,13.0
1.6951637517081078e+18,-6.0,-25.0,13.0,1.0,0.0,1.0,1.0,-26.0
1.695163751723121e+18,-15.0,-4.0,55.0,-10.0,-11.0,-3.0,0.0,-11.0
1.695163751724117e+18,38.0,9.0,-28.0,1.0,6.0,4.0,1.0,13.0
1.6951637517301117e+18,-5.0,13.0,59.0,21.0,21.0,7.0,-6.0,-18.0
1.6951637517301117e+18,-23.0,-7.0,-48.0,-7.0,-10.0,-10.0,-8.0,2.0
1.6951637517310963e+18,15.0,8.0,24.0,2.0,4.0,10.0,11.0,10.0
1.6951637517320963e+18,-4.0,-24.0,30.0,3.0,-1.0,4.0,13.0,-13.0
1.6951637517551027e+18,30.0,8.0,-16.0,-2.0,-8.0,-2.0,-4.0,2.0
1.695163751756081e+18,4.0,13.0,-21.0,-6.0,6.0,-3.0,-3.0,-29.0
1.695163751756081e+18,-21.0,-30.0,-21.0,-3.0,-9.0,-5.0,-4.0,-6.0
1.695163751756081e+18,-6.0,16.0,19.0,5.0,11.0,1.0,-2.0,2.0
1.695163751766074e+18,14.0,5.0,-34.0,-5.0,-2.0,2.0,-20.0,14.0
1.695163751766074e+18,0.0,-10.0,4.0,-4.0,-2.0,-2.0,20.0,-18.0
1.6951637517750692e+18,3.0,6.0,-25.0,-9.0,-11.0,-10.0,-16.0,40.0
1.6951637517750692e+18,-30.0,-4.0,12.0,3.0,7.0,-1.0,-28.0,-34.0
1.6951637517910625e+18,5.0,-9.0,2.0,-6.0,-7.0,-4.0,-5.0,-4.0
1.69516375179206e+18,-13.0,-5.0,-9.0,3.0,2.0,-2.0,-14.0,12.0
1.69516375179206e+18,-2.0,8.0,15.0,1.0,2.0,8.0,18.0,-3.0
1.69516375179206e+18,-4.0,-6.0,7.0,4.0,4.0,5.0,11.0,-2.0
1.695163751828061e+18,-13.0,5.0,-35.0,-5.0,-1.0,-2.0,-5.0,-14.0
1.695163751828061e+18,12.0,-10.0,44.0,4.0,-3.0,-2.0,-3.0,-19.0
1.695163751830038e+18,-6.0,3.0,1.0,2.0,-2.0,-6.0,-20.0,-10.0
1.695163751830038e+18,2.0,11.0,-44.0,1.0,2.0,4.0,7.0,1.0
1.695163751830038e+18,-3.0,-14.0,66.0,5.0,4.0,7.0,13.0,-21.0
1.6951637518310395e+18,6.0,6.0,-21.0,-3.0,-1.0,-10.0,-24.0,21.0
1.695163751835035e+18,7.0,2.0,1.0,3.0,7.0,8.0,5.0,-4.0
1.695163751835035e+18,3.0,6.0,-16.0,-6.0,-5.0,-2.0,6.0,-10.0
1.6951637518500285e+18,-8.0,7.0,6.0,-8.0,-11.0,-11.0,-4.0,1.0
1.6951637518500285e+18,-5.0,-32.0,15.0,6.0,4.0,0.0,3.0,1.0
1.6951637518520253e+18,0.0,8.0,11.0,10.0,9.0,10.0,2.0,4.0
1.6951637518520253e+18,7.0,5.0,5.0,1.0,7.0,4.0,2.0,13.0
1.695163751880032e+18,3.0,-11.0,-23.0,-3.0,-2.0,-2.0,-3.0,5.0
1.695163751880032e+18,-6.0,20.0,4.0,-3.0,-4.0,2.0,12.0,-25.0
1.6951637518820083e+18,6.0,-6.0,-27.0,-13.0,-19.0,-22.0,-32.0,37.0
1.6951637518820083e+18,3.0,1.0,25.0,-2.0,-3.0,-2.0,3.0,7.0
1.695163751893002e+18,-5.0,-10.0,-12.0,2.0,12.0,7.0,0.0,-6.0
1.695163751893002e+18,5.0,4.0,-1.0,4.0,-6.0,1.0,2.0,11.0
1.695163751895001e+18,-3.0,-3.0,4.0,-2.0,1.0,-4.0,3.0,-15.0
1.695163751895001e+18,-4.0,5.0,10.0,1.0,-5.0,-3.0,5.0,-21.0
1.6951637519099965e+18,0.0,-3.0,-8.0,-6.0,-8.0,-4.0,-9.0,25.0
1.6951637519099965e+18,-4.0,3.0,-20.0,-14.0,-11.0,-3.0,0.0,-1.0
1.6951637519119908e+18,-1.0,-3.0,21.0,-5.0,1.0,-4.0,1.0,-4.0
1.6951637519119908e+18,2.0,0.0,11.0,21.0,35.0,16.0,-1.0,-2.0
1.6951637519399744e+18,-3.0,3.0,-43.0,1.0,8.0,9.0,5.0,-3.0
1.6951637519399744e+18,3.0,-5.0,-6.0,-6.0,2.0,4.0,0.0,6.0
1.6951637519419738e+18,-2.0,-1.0,28.0,7.0,4.0,1.0,4.0,-2.0
1.6951637519419738e+18,-5.0,-13.0,-46.0,-15.0,-16.0,-2.0,3.0,-4.0
1.6951637519629665e+18,0.0,1.0,13.0,-3.0,4.0,-8.0,-14.0,-2.0
1.6951637519629665e+18,1.0,3.0,2.0,8.0,0.0,-3.0,0.0,3.0
1.6951637519639718e+18,-1.0,-3.0,-17.0,-19.0,-22.0,-7.0,-3.0,2.0
1.6951637519649828e+18,-4.0,0.0,4.0,11.0,7.0,-1.0,-2.0,-11.0
1.6951637519699574e+18,-2.0,-2.0,-4.0,-13.0,-1.0,-8.0,2.0,1.0
1.6951637519699574e+18,3.0,-12.0,-12.0,16.0,28.0,20.0,2.0,8.0
1.6951637519719565e+18,-4.0,-1.0,-7.0,9.0,-3.0,-6.0,1.0,-5.0
1.6951637519719565e+18,3.0,6.0,18.0,-5.0,-15.0,-5.0,-3.0,-3.0
1.69516375199994e+18,-3.0,-7.0,4.0,-3.0,-12.0,-9.0,-4.0,-1.0
1.6951637520009413e+18,2.0,2.0,-15.0,3.0,7.0,3.0,-1.0,7.0
1.6951637520070016e+18,1.0,-5.0,-4.0,2.0,7.0,4.0,4.0,0.0
1.6951637520070016e+18,-1.0,4.0,5.0,-7.0,-18.0,-14.0,-6.0,-5.0
1.6951637520080102e+18,-2.0,-2.0,-3.0,-2.0,-2.0,-3.0,-3.0,0.0
1.6951637520080102e+18,0.0,2.0,11.0,-2.0,1.0,1.0,1.0,1.0
1.6951637520158787e+18,3.0,1.0,-6.0,8.0,10.0,6.0,2.0,1.0
1.6951637520158787e+18,-2.0,-1.0,-1.0,-8.0,-7.0,-5.0,-3.0,-4.0
1.6951637520298604e+18,1.0,-3.0,-4.0,0.0,-8.0,0.0,1.0,0.0
1.6951637520298604e+18,-1.0,-1.0,8.0,-2.0,-5.0,-2.0,-2.0,0.0
1.6951637520318687e+18,2.0,1.0,-6.0,-7.0,-5.0,-4.0,-2.0,-1.0
1.6951637520318687e+18,-1.0,-1.0,7.0,-2.0,-3.0,-1.0,-1.0,1.0
1.6951637520598966e+18,-5.0,-5.0,-5.0,7.0,7.0,5.0,1.0,-4.0
1.6951637520598966e+18,0.0,3.0,0.0,-8.0,-8.0,-5.0,-1.0,-1.0
1.695163752061873e+18,1.0,2.0,-2.0,2.0,6.0,2.0,0.0,2.0
1.695163752061873e+18,-3.0,-1.0,2.0,-4.0,-3.0,-2.0,0.0,-2.0
1.6951637520668705e+18,-1.0,3.0,8.0,16.0,1.0,4.0,2.0,2.0
1.6951637520668705e+18,-4.0,-1.0,1.0,-3.0,-4.0,-6.0,-6.0,-3.0
1.6951637521038843e+18,2.0,-2.0,-2.0,-4.0,-5.0,0.0,0.0,-1.0
1.6951637521048822e+18,0.0,-1.0,3.0,-3.0,3.0,1.0,0.0,-1.0
1.6951637521228736e+18,-3.0,-4.0,-8.0,-8.0,-7.0,-5.0,-2.0,-1.0
1.6951637521228736e+18,0.0,0.0,3.0,0.0,-1.0,-2.0,1.0,1.0
1.6951637521248724e+18,-1.0,-1.0,2.0,9.0,4.0,2.0,0.0,-1.0
1.6951637521248724e+18,-2.0,-1.0,0.0,-1.0,-3.0,-1.0,-2.0,-2.0
1.6951637521288704e+18,1.0,0.0,-4.0,-2.0,2.0,2.0,-1.0,1.0
1.695163752129869e+18,-1.0,1.0,3.0,0.0,-4.0,-3.0,-2.0,-1.0
1.695163752129869e+18,0.0,-2.0,-5.0,-2.0,-3.0,0.0,-1.0,1.0
1.6951637521308698e+18,0.0,-3.0,-3.0,-2.0,0.0,0.0,-1.0,0.0
1.6951637521318774e+18,0.0,1.0,-1.0,3.0,-3.0,-1.0,1.0,-1.0
1.6951637521318774e+18,1.0,-1.0,6.0,6.0,1.0,-1.0,0.0,0.0
1.6951637521428626e+18,0.0,-1.0,-6.0,-17.0,-5.0,-4.0,-1.0,-2.0
1.6951637521438615e+18,-2.0,-3.0,3.0,2.0,1.0,-1.0,-1.0,-3.0
1.6951637521508577e+18,1.0,2.0,-3.0,-5.0,3.0,0.0,-2.0,0.0
1.6951637521518577e+18,-1.0,-1.0,0.0,-6.0,-1.0,-2.0,0.0,0.0
1.6951637521528566e+18,-1.0,1.0,2.0,6.0,2.0,-1.0,0.0,-1.0
1.6951637521528566e+18,-1.0,-2.0,-5.0,-14.0,-7.0,-3.0,-1.0,-2.0
1.695163752173845e+18,-1.0,-1.0,0.0,2.0,2.0,2.0,2.0,2.0
1.6951637521748457e+18,-1.0,3.0,3.0,7.0,3.0,-3.0,0.0,1.0
1.6951637521748457e+18,-1.0,-2.0,5.0,5.0,1.0,-3.0,-2.0,-2.0
1.6951637521758438e+18,-2.0,-5.0,-4.0,-9.0,-5.0,-3.0,-3.0,-3.0
1.6951637521868375e+18,0.0,1.0,-4.0,-4.0,-5.0,-3.0,-1.0,-3.0
1.695163752187842e+18,0.0,1.0,2.0,3.0,1.0,0.0,0.0,1.0
1.6951637522068593e+18,-1.0,0.0,-9.0,-1.0,3.0,1.0,1.0,0.0
1.6951637522078257e+18,-2.0,0.0,-2.0,-5.0,-3.0,-1.0,-1.0,0.0
1.69516375221383e+18,-2.0,-2.0,-2.0,-4.0,-3.0,-1.0,-1.0,0.0
1.6951637522158277e+18,-2.0,-2.0,-2.0,-3.0,-4.0,-3.0,-3.0,-2.0
1.6951637522198193e+18,1.0,-1.0,-6.0,-5.0,-2.0,-2.0,-3.0,-2.0
1.6951637522198193e+18,-2.0,-1.0,8.0,14.0,5.0,-1.0,1.0,0.0
1.695163752234809e+18,0.0,0.0,-4.0,-2.0,-1.0,5.0,2.0,1.0
1.695163752234809e+18,0.0,0.0,-2.0,-6.0,1.0,-1.0,0.0,-2.0
1.6951637522358223e+18,-1.0,0.0,7.0,9.0,0.0,5.0,0.0,1.0
1.6951637522358223e+18,-1.0,-2.0,-3.0,-1.0,3.0,5.0,1.0,-2.0
1.6951637522468027e+18,-2.0,0.0,-2.0,-1.0,-3.0,-7.0,-4.0,-2.0
1.6951637522478116e+18,-4.0,-2.0,-4.0,-7.0,-4.0,2.0,2.0,0.0
1.695163752263801e+18,-1.0,0.0,4.0,-5.0,-1.0,-3.0,-3.0,-1.0
1.695163752263801e+18,-2.0,0.0,0.0,14.0,2.0,-3.0,-2.0,-3.0
1.6951637522787927e+18,-1.0,0.0,-2.0,-3.0,-3.0,-1.0,-1.0,0.0
1.695163752279784e+18,-1.0,-3.0,-2.0,-3.0,-2.0,-2.0,0.0,-2.0
1.6951637522807867e+18,0.0,0.0,-2.0,-5.0,-3.0,0.0,1.0,0.0
1.6951637522807867e+18,0.0,-1.0,-5.0,-3.0,-2.0,1.0,-2.0,0.0
1.6951637522937774e+18,-1.0,2.0,0.0,-8.0,2.0,0.0,0.0,-1.0
1.6951637522937774e+18,0.0,-2.0,-2.0,6.0,-1.0,-2.0,-2.0,-1.0
1.6951637522947756e+18,-3.0,-2.0,-3.0,-2.0,0.0,0.0,-1.0,-1.0
1.6951637522957755e+18,-1.0,1.0,7.0,6.0,0.0,-1.0,0.0,-1.0
1.6951637523067681e+18,-2.0,-2.0,-2.0,0.0,1.0,0.0,-1.0,0.0
1.6951637523067681e+18,0.0,1.0,1.0,-4.0,-1.0,1.0,1.0,1.0
1.695163752331754e+18,-1.0,-3.0,0.0,0.0,0.0,-1.0,-1.0,-2.0
1.695163752332754e+18,-2.0,-1.0,-3.0,-3.0,-5.0,-5.0,-3.0,-2.0
1.695163752333754e+18,0.0,-3.0,0.0,1.0,0.0,0.0,-2.0,-2.0
1.695163752333754e+18,-1.0,-1.0,1.0,0.0,2.0,1.0,1.0,0.0
1.6951637523367519e+18,-1.0,-2.0,-1.0,1.0,-2.0,-1.0,-1.0,0.0
1.6951637523367519e+18,0.0,0.0,-2.0,-5.0,-1.0,-2.0,-2.0,1.0
1.6951637523527414e+18,1.0,0.0,2.0,1.0,-5.0,-5.0,2.0,-1.0
1.6951637523537423e+18,-1.0,-1.0,-3.0,0.0,-1.0,1.0,-3.0,-3.0
1.6951637523547405e+18,0.0,2.0,3.0,2.0,1.0,-1.0,0.0,0.0
1.6951637523547405e+18,0.0,0.0,-7.0,-2.0,0.0,0.0,-1.0,1.0
1.695163752375729e+18,0.0,0.0,14.0,1.0,-2.0,-1.0,-1.0,-1.0
1.6951637523767286e+18,-1.0,-3.0,-2.0,-2.0,-2.0,-3.0,-2.0,-1.0
1.6951637523767286e+18,1.0,1.0,-3.0,-4.0,-2.0,0.0,0.0,-2.0
1.6951637523777354e+18,2.0,-1.0,-1.0,0.0,-1.0,3.0,1.0,0.0
1.6951637523907213e+18,0.0,0.0,-2.0,-1.0,0.0,0.0,-1.0,1.0
1.6951637523907213e+18,0.0,0.0,0.0,-1.0,-1.0,-2.0,0.0,-1.0
1.6951637523967168e+18,-1.0,-2.0,0.0,1.0,-2.0,0.0,1.0,-1.0
1.6951637523977157e+18,-1.0,-1.0,3.0,-2.0,-1.0,1.0,2.0,1.0
1.6951637524217106e+18,0.0,-2.0,-6.0,-1.0,1.0,1.0,1.0,0.0
1.6951637524366938e+18,-1.0,1.0,2.0,-2.0,-2.0,-1.0,-1.0,-1.0
1.6951637524366938e+18,-1.0,0.0,-5.0,-1.0,-1.0,-2.0,0.0,-1.0
1.695163752437695e+18,-2.0,-2.0,-2.0,-1.0,1.0,-2.0,-2.0,-1.0
1.6951637524387005e+18,-1.0,0.0,-2.0,-1.0,-1.0,-1.0,-1.0,-1.0
1.6951637524397005e+18,-1.0,-2.0,-4.0,0.0,-1.0,0.0,-2.0,-1.0
1.6951637524397005e+18,-1.0,0.0,-1.0,-1.0,0.0,0.0,-2.0,-1.0
1.6951637524397005e+18,-1.0,0.0,2.0,-1.0,0.0,1.0,0.0,-2.0
1.6951637524506867e+18,0.0,1.0,-3.0,0.0,1.0,1.0,-1.0,-1.0
1.6951637524517187e+18,-1.0,0.0,-1.0,-1.0,-1.0,-2.0,-1.0,-1.0
1.695163752463684e+18,0.0,-1.0,-2.0,0.0,-1.0,-1.0,-1.0,-1.0
1.6951637524646838e+18,-1.0,-1.0,-2.0,1.0,-1.0,-1.0,1.0,0.0
1.6951637524806676e+18,-1.0,-1.0,-4.0,1.0,-1.0,0.0,-2.0,-1.0
1.6951637524806676e+18,-1.0,0.0,-2.0,-2.0,0.0,-1.0,-1.0,-1.0
1.695163752481667e+18,-2.0,-1.0,0.0,-1.0,-1.0,-1.0,1.0,0.0
1.695163752481667e+18,-2.0,-1.0,-1.0,-1.0,-1.0,-2.0,-1.0,0.0
1.6951637524946627e+18,-2.0,-1.0,0.0,1.0,-2.0,-3.0,-2.0,0.0
1.695163752496658e+18,1.0,-1.0,-1.0,-1.0,-1.0,-1.0,0.0,0.0
1.695163752496658e+18,1.0,-3.0,1.0,0.0,-1.0,-1.0,-1.0,0.0
1.695163752496658e+18,-2.0,-1.0,2.0,1.0,0.0,-1.0,-1.0,-2.0
1.6951637525086523e+18,-1.0,-2.0,-2.0,0.0,-1.0,0.0,1.0,-2.0
1.6951637525086523e+18,-1.0,-1.0,0.0,0.0,0.0,0.0,-1.0,-1.0
1.6951637525176481e+18,-1.0,-2.0,-2.0,-2.0,-1.0,-1.0,-1.0,-1.0
1.6951637525176481e+18,0.0,0.0,-1.0,-2.0,-1.0,-1.0,-1.0,0.0
1.6951637525326403e+18,0.0,-1.0,-1.0,1.0,1.0,-2.0,0.0,-1.0
1.6951637525326403e+18,0.0,1.0,0.0,-3.0,-1.0,0.0,0.0,0.0
1.695163752534638e+18,0.0,1.0,0.0,2.0,1.0,0.0,0.0,-2.0
1.695163752535638e+18,0.0,-1.0,0.0,-1.0,0.0,-1.0,-2.0,0.0
1.6951637525546255e+18,0.0,-3.0,-1.0,-2.0,-3.0,-1.0,0.0,-1.0
1.695163752555624e+18,-2.0,-1.0,0.0,-1.0,0.0,1.0,-1.0,-1.0
1.6951637525566257e+18,-1.0,-1.0,-1.0,0.0,-2.0,-2.0,-1.0,0.0
1.6951637525566257e+18,0.0,-2.0,0.0,1.0,-2.0,0.0,1.0,0.0
1.695163752568617e+18,-1.0,1.0,-1.0,0.0,0.0,-1.0,0.0,0.0
1.695163752568617e+18,-2.0,-3.0,-1.0,-1.0,-3.0,0.0,0.0,0.0
1.6951637525926057e+18,0.0,-2.0,-1.0,-2.0,-1.0,-1.0,-1.0,1.0
1.6951637525926057e+18,-1.0,1.0,0.0,-1.0,0.0,-1.0,0.0,-2.0
1.6951637525926057e+18,-1.0,-2.0,0.0,-2.0,-2.0,1.0,0.0,-1.0
1.6951637525936028e+18,-1.0,-1.0,0.0,0.0,0.0,0.0,-1.0,0.0
1.695163752600598e+18,-1.0,0.0,-1.0,-1.0,0.0,-1.0,-2.0,0.0
1.695163752600598e+18,0.0,-1.0,-6.0,-2.0,1.0,0.0,-1.0,0.0
1.695163752622588e+18,0.0,3.0,8.0,-2.0,0.0,0.0,-1.0,-1.0
1.695163752622588e+18,1.0,-1.0,-3.0,-1.0,-1.0,0.0,-1.0,-1.0
1.6951637526245844e+18,-2.0,-1.0,0.0,0.0,-1.0,0.0,0.0,1.0
1.6951637526245844e+18,1.0,-1.0,3.0,-1.0,-1.0,-2.0,-1.0,-1.0
1.695163752628604e+18,-1.0,-1.0,-6.0,0.0,-1.0,0.0,-2.0,0.0
1.695163752628604e+18,0.0,3.0,5.0,1.0,-1.0,-3.0,-2.0,-2.0
1.6951637526375793e+18,0.0,1.0,0.0,-1.0,1.0,1.0,1.0,0.0
1.6951637526375793e+18,0.0,-1.0,-13.0,-2.0,0.0,-1.0,0.0,0.0
1.695163752651907e+18,-3.0,4.0,23.0,-1.0,-2.0,-3.0,-2.0,-4.0
1.695163752651907e+18,-1.0,1.0,-5.0,-2.0,-2.0,-1.0,0.0,0.0
1.6951637526598843e+18,-1.0,0.0,2.0,-4.0,-5.0,-4.0,-2.0,-1.0
1.6951637526608786e+18,-1.0,0.0,-1.0,1.0,1.0,0.0,0.0,-1.0
1.6951637526748915e+18,-2.0,-4.0,-10.0,-1.0,0.0,-2.0,-2.0,-1.0
1.6951637526748915e+18,-1.0,1.0,-15.0,-1.0,6.0,-1.0,2.0,0.0
1.6951637526768689e+18,-3.0,-7.0,16.0,-2.0,0.0,2.0,2.0,-1.0
1.6951637526768689e+18,-1.0,2.0,12.0,2.0,-15.0,-6.0,-4.0,-3.0
1.695163752697675e+18,-3.0,-4.0,-36.0,-14.0,-4.0,0.0,-4.0,-2.0
1.695163752697675e+18,-2.0,0.0,0.0,-1.0,3.0,-6.0,-1.0,-1.0
1.6951637526996808e+18,-2.0,-3.0,-7.0,11.0,-2.0,-10.0,0.0,0.0
1.6951637526996808e+18,0.0,-2.0,3.0,8.0,-1.0,11.0,1.0,-1.0
1.6951637527140644e+18,2.0,1.0,4.0,-12.0,0.0,3.0,0.0,-1.0
1.6951637527140644e+18,1.0,-3.0,1.0,3.0,0.0,7.0,5.0,4.0
1.6951637527160676e+18,-3.0,3.0,-4.0,-9.0,-6.0,-4.0,0.0,-1.0
1.6951637527160676e+18,-2.0,0.0,2.0,19.0,19.0,-1.0,-1.0,1.0
1.6951637527428357e+18,1.0,4.0,-2.0,-8.0,-18.0,-10.0,-2.0,0.0
1.6951637527428357e+18,1.0,-6.0,7.0,1.0,4.0,-3.0,-4.0,-4.0
1.6951637527438372e+18,9.0,12.0,-2.0,3.0,0.0,-3.0,-1.0,1.0
1.6951637527438372e+18,-10.0,-14.0,-11.0,-30.0,-22.0,-11.0,-5.0,-5.0
1.695163752748835e+18,4.0,8.0,2.0,18.0,14.0,10.0,5.0,3.0
1.695163752748835e+18,-9.0,-12.0,2.0,0.0,-4.0,0.0,1.0,-2.0
1.695163752759827e+18,-4.0,3.0,2.0,2.0,1.0,0.0,-3.0,-5.0
1.695163752759827e+18,22.0,8.0,5.0,-19.0,-8.0,-2.0,0.0,4.0
1.6951637527728914e+18,-11.0,-11.0,-23.0,8.0,2.0,-8.0,-4.0,-5.0
1.6951637527728914e+18,-1.0,4.0,5.0,-7.0,-5.0,-1.0,-1.0,-1.0
1.6951637527739041e+18,-3.0,-6.0,0.0,11.0,-2.0,3.0,3.0,-2.0
1.6951637527748833e+18,-3.0,4.0,0.0,7.0,15.0,6.0,-2.0,1.0
1.695163752795892e+18,3.0,1.0,9.0,-7.0,-14.0,0.0,4.0,0.0
1.695163752795892e+18,-3.0,5.0,-6.0,7.0,13.0,3.0,-1.0,1.0
1.6951637527968927e+18,-6.0,3.0,-5.0,-8.0,-12.0,-11.0,-6.0,-5.0
1.6951637527968927e+18,0.0,-8.0,0.0,22.0,22.0,0.0,2.0,-6.0
1.6951637528098962e+18,8.0,7.0,13.0,13.0,27.0,19.0,4.0,3.0
1.6951637528098962e+18,-4.0,-5.0,-17.0,0.0,-7.0,5.0,0.0,14.0
1.6951637528178877e+18,-9.0,-14.0,4.0,-1.0,-3.0,-1.0,4.0,-35.0
1.6951637528188915e+18,1.0,11.0,4.0,-6.0,1.0,-6.0,3.0,-12.0
1.6951637528368755e+18,-19.0,-17.0,-7.0,-2.0,-9.0,-13.0,-33.0,36.0
1.6951637528378765e+18,7.0,2.0,8.0,-3.0,-15.0,-10.0,-21.0,-20.0
1.6951637528378765e+18,10.0,16.0,0.0,11.0,28.0,10.0,6.0,33.0
1.6951637528378765e+18,-21.0,-22.0,-10.0,-6.0,-17.0,-11.0,-15.0,-15.0
1.6951637528628595e+18,0.0,-5.0,10.0,-3.0,-3.0,-8.0,12.0,-11.0
1.6951637528638587e+18,0.0,6.0,2.0,-6.0,1.0,13.0,5.0,-20.0
1.6951637528648591e+18,-4.0,-4.0,-7.0,-1.0,-11.0,-8.0,-10.0,8.0
1.6951637528648591e+18,12.0,13.0,6.0,-11.0,-10.0,-7.0,17.0,8.0
1.6951637528778504e+18,-4.0,0.0,2.0,-3.0,-6.0,16.0,8.0,0.0
1.6951637528788503e+18,2.0,0.0,1.0,28.0,27.0,4.0,-2.0,5.0
1.6951637528798502e+18,-6.0,-15.0,1.0,-10.0,-6.0,-5.0,-14.0,-34.0
1.6951637528798502e+18,-4.0,3.0,-1.0,-1.0,-16.0,0.0,-1.0,-9.0
1.6951637528978642e+18,3.0,12.0,-18.0,-1.0,2.0,-8.0,-13.0,-2.0
1.6951637528978642e+18,-11.0,-18.0,9.0,-8.0,-7.0,0.0,13.0,13.0
1.6951637528988639e+18,-8.0,-16.0,-17.0,-5.0,-7.0,-1.0,1.0,16.0
1.6951637528988639e+18,8.0,4.0,5.0,-19.0,-13.0,-2.0,-11.0,23.0
1.6951637529308237e+18,26.0,6.0,-1.0,8.0,8.0,-2.0,26.0,6.0
1.6951637529318195e+18,-13.0,-6.0,3.0,-3.0,-4.0,5.0,-2.0,-49.0
1.6951637529328192e+18,7.0,19.0,7.0,3.0,5.0,-1.0,-6.0,24.0
1.6951637529328192e+18,-18.0,-11.0,-17.0,-13.0,-14.0,-7.0,3.0,-15.0
1.6951637529338184e+18,-5.0,-19.0,-5.0,3.0,0.0,10.0,2.0,0.0
1.6951637529338184e+18,7.0,14.0,-6.0,-3.0,3.0,1.0,2.0,-34.0
1.695163752937821e+18,-2.0,-12.0,22.0,-6.0,-10.0,-8.0,-9.0,63.0
1.695163752937821e+18,2.0,10.0,-37.0,12.0,14.0,12.0,14.0,-13.0
1.6951637529648015e+18,11.0,2.0,27.0,6.0,3.0,-9.0,-5.0,-28.0
1.6951637529648015e+18,-12.0,-8.0,-9.0,-5.0,-14.0,-13.0,-28.0,35.0
1.6951637529658122e+18,17.0,3.0,-2.0,-5.0,3.0,9.0,30.0,-7.0
1.6951637529658122e+18,-6.0,10.0,41.0,11.0,12.0,4.0,-18.0,25.0
1.69516375297482e+18,-6.0,-11.0,-46.0,-3.0,0.0,1.0,10.0,-12.0
1.6951637529757955e+18,8.0,-11.0,-26.0,-12.0,-12.0,-6.0,3.0,-7.0
1.695163752976794e+18,-1.0,12.0,-10.0,-6.0,0.0,0.0,-14.0,-12.0
1.695163752976794e+18,-1.0,-18.0,7.0,5.0,9.0,3.0,7.0,-1.0
1.6951637529887862e+18,-4.0,-5.0,12.0,-8.0,-6.0,-3.0,-7.0,-21.0
1.6951637529887862e+18,26.0,23.0,23.0,3.0,-2.0,-5.0,-3.0,12.0
1.695163752997787e+18,-15.0,-18.0,-20.0,-4.0,1.0,4.0,14.0,-13.0
1.695163752997787e+18,9.0,-7.0,1.0,14.0,15.0,11.0,9.0,40.0
1.6951637530207693e+18,-25.0,3.0,8.0,-7.0,-12.0,-15.0,-37.0,-7.0
1.6951637530207693e+18,7.0,-14.0,-11.0,0.0,1.0,3.0,17.0,54.0
1.695163753021772e+18,5.0,12.0,18.0,3.0,4.0,0.0,-8.0,-14.0
1.695163753021772e+18,-13.0,-8.0,-17.0,-7.0,-3.0,1.0,4.0,-31.0
1.695163753038764e+18,16.0,15.0,2.0,-2.0,-3.0,-1.0,6.0,3.0
1.6951637530397606e+18,6.0,-4.0,20.0,7.0,8.0,2.0,10.0,11.0
1.6951637530397606e+18,4.0,-15.0,-12.0,0.0,0.0,-8.0,-27.0,-23.0
1.6951637530407642e+18,14.0,0.0,10.0,0.0,-1.0,15.0,43.0,11.0
1.6951637530497554e+18,-13.0,21.0,-21.0,-6.0,-2.0,-3.0,-5.0,-10.0
1.6951637530497554e+18,21.0,-2.0,-5.0,-3.0,-3.0,-2.0,3.0,1.0
1.695163753065743e+18,6.0,11.0,36.0,3.0,3.0,5.0,7.0,4.0
1.695163753065743e+18,-5.0,5.0,-17.0,-1.0,-1.0,-9.0,-25.0,15.0
1.6951637530807396e+18,12.0,3.0,32.0,-1.0,-2.0,-16.0,-23.0,-2.0
1.6951637530807396e+18,6.0,37.0,-44.0,-15.0,-11.0,-2.0,-18.0,-9.0
1.6951637530817395e+18,-12.0,-9.0,4.0,8.0,4.0,0.0,-6.0,2.0
1.6951637530817395e+18,-10.0,-30.0,-12.0,1.0,2.0,14.0,19.0,-1.0
1.6951637531127158e+18,2.0,-15.0,-1.0,-1.0,-3.0,-2.0,1.0,13.0
1.6951637531137188e+18,18.0,14.0,17.0,-1.0,-2.0,-6.0,9.0,-19.0
1.6951637531137188e+18,-31.0,-31.0,-22.0,0.0,3.0,8.0,3.0,-4.0
1.6951637531137188e+18,-3.0,57.0,-11.0,-4.0,-5.0,-10.0,14.0,-31.0
1.6951637531137188e+18,-5.0,-40.0,3.0,4.0,2.0,0.0,-23.0,19.0
1.6951637531137188e+18,-37.0,-8.0,14.0,1.0,1.0,-1.0,-14.0,-18.0
1.6951637531257088e+18,15.0,17.0,-4.0,-6.0,-6.0,-3.0,-4.0,16.0
1.6951637531267077e+18,-7.0,-24.0,-20.0,0.0,-3.0,-12.0,-32.0,3.0
1.6951637531407104e+18,-8.0,3.0,30.0,-2.0,-3.0,7.0,30.0,0.0
1.6951637531407104e+18,7.0,5.0,4.0,-2.0,-3.0,-1.0,10.0,59.0
1.6951637531417e+18,-1.0,-1.0,-20.0,13.0,28.0,4.0,-2.0,-44.0
1.6951637531427046e+18,-16.0,3.0,3.0,-6.0,-15.0,-14.0,-13.0,12.0
1.6951637531546918e+18,13.0,-1.0,4.0,12.0,35.0,28.0,43.0,-28.0
1.6951637531546918e+18,-12.0,-8.0,-19.0,-15.0,-18.0,-15.0,-34.0,24.0
1.6951637531726838e+18,-4.0,-4.0,-3.0,-6.0,-23.0,-5.0,9.0,-13.0
1.6951637531726838e+18,14.0,-2.0,36.0,19.0,31.0,9.0,-9.0,-10.0
1.6951637531846753e+18,-2.0,11.0,-53.0,-23.0,-32.0,-12.0,4.0,1.0
1.6951637531846753e+18,-16.0,-15.0,11.0,-19.0,-35.0,-11.0,14.0,-26.0
1.6951637531866762e+18,4.0,3.0,-20.0,27.0,41.0,4.0,2.0,9.0
1.6951637531876736e+18,7.0,19.0,5.0,4.0,3.0,11.0,-6.0,2.0
1.6951637531996664e+18,-11.0,1.0,56.0,7.0,30.0,7.0,-2.0,-1.0
1.695163753200666e+18,-3.0,-6.0,-33.0,-3.0,-62.0,-20.0,-2.0,-7.0
1.6951637532076872e+18,6.0,-11.0,-11.0,-9.0,51.0,22.0,5.0,5.0
1.6951637532086666e+18,1.0,5.0,6.0,6.0,-3.0,-5.0,-3.0,-8.0
1.6951637532156572e+18,-5.0,-9.0,-10.0,-5.0,-11.0,-1.0,0.0,4.0
1.6951637532156572e+18,-3.0,-3.0,3.0,-8.0,-20.0,-24.0,-2.0,-13.0
1.6951637532166566e+18,2.0,16.0,23.0,5.0,10.0,4.0,3.0,0.0
1.695163753217657e+18,2.0,-11.0,11.0,29.0,31.0,24.0,11.0,3.0
1.6951637532286748e+18,0.0,-2.0,-18.0,2.0,-13.0,-12.0,-9.0,3.0
1.695163753229656e+18,-5.0,0.0,6.0,-19.0,19.0,-1.0,-6.0,-10.0
1.6951637532696284e+18,-4.0,-6.0,-12.0,-44.0,-55.0,-11.0,-2.0,-6.0
1.6951637532706258e+18,-3.0,-7.0,1.0,9.0,14.0,-3.0,-9.0,-3.0
1.6951637532706258e+18,0.0,5.0,7.0,14.0,-22.0,-3.0,-4.0,3.0
1.6951637532716252e+18,-8.0,-1.0,-8.0,0.0,10.0,3.0,3.0,-11.0
1.6951637532756252e+18,0.0,2.0,4.0,-15.0,-7.0,2.0,2.0,2.0
1.6951637532756252e+18,-3.0,-9.0,-17.0,7.0,28.0,4.0,-12.0,-7.0
1.6951637532766213e+18,2.0,2.0,-16.0,-30.0,-46.0,-22.0,-3.0,1.0
1.6951637532766213e+18,-5.0,-8.0,12.0,57.0,76.0,32.0,10.0,-7.0
1.6951637532776205e+18,7.0,9.0,-4.0,-24.0,-26.0,-6.0,3.0,7.0
1.6951637532786266e+18,-2.0,-9.0,13.0,-32.0,-38.0,-30.0,-13.0,-5.0
1.6951637533016115e+18,-5.0,1.0,-31.0,-20.0,-22.0,-7.0,-2.0,-3.0
1.6951637533016115e+18,3.0,-1.0,25.0,73.0,70.0,31.0,6.0,2.0
1.6951637533016115e+18,3.0,5.0,6.0,-3.0,0.0,-6.0,-1.0,2.0
1.6951637533016115e+18,6.0,5.0,-6.0,18.0,27.0,17.0,9.0,2.0
1.695163753311603e+18,-9.0,-10.0,10.0,16.0,-12.0,-10.0,-6.0,-5.0
1.6951637533126057e+18,6.0,5.0,-16.0,-53.0,-11.0,5.0,6.0,5.0
1.6951637533186002e+18,0.0,-1.0,3.0,8.0,0.0,-2.0,2.0,0.0
1.6951637533186002e+18,12.0,20.0,-19.0,-24.0,-18.0,-19.0,-16.0,-1.0
1.6951637533345884e+18,-18.0,-30.0,12.0,21.0,41.0,11.0,-4.0,-9.0
1.6951637533345884e+18,-1.0,2.0,0.0,-19.0,-40.0,1.0,20.0,2.0
1.6951637533428618e+18,-10.0,-13.0,2.0,-1.0,-33.0,-20.0,-7.0,-9.0
1.6951637533428618e+18,5.0,12.0,-23.0,-45.0,18.0,16.0,11.0,6.0
1.695163753357622e+18,5.0,4.0,-5.0,14.0,31.0,12.0,-1.0,3.0
1.695163753357622e+18,-6.0,-9.0,13.0,-9.0,-26.0,-25.0,-21.0,-10.0
1.6951637533596268e+18,-5.0,-2.0,0.0,5.0,7.0,10.0,6.0,0.0
1.6951637533596268e+18,-6.0,-9.0,8.0,-37.0,-45.0,-16.0,-3.0,-2.0
1.695163753388688e+18,11.0,20.0,-11.0,-3.0,23.0,12.0,5.0,6.0
1.695163753388688e+18,-6.0,-11.0,10.0,12.0,-17.0,-6.0,-2.0,-4.0
1.6951637533896855e+18,-2.0,-2.0,5.0,-8.0,-11.0,0.0,-3.0,-1.0
1.6951637533896855e+18,0.0,-6.0,16.0,75.0,-6.0,-10.0,-2.0,0.0
1.695163753395691e+18,6.0,14.0,2.0,-46.0,-6.0,1.0,0.0,3.0
1.695163753395691e+18,-4.0,1.0,-19.0,3.0,15.0,2.0,-1.0,-2.0
1.6951637533966812e+18,-7.0,-15.0,7.0,7.0,-18.0,-6.0,-8.0,-5.0
1.6951637533977155e+18,2.0,7.0,13.0,45.0,28.0,8.0,7.0,0.0
1.6951637534188472e+18,-5.0,-15.0,-12.0,-20.0,-21.0,-9.0,0.0,-4.0
1.6951637534188472e+18,-3.0,-6.0,-6.0,-6.0,13.0,9.0,-2.0,-1.0
1.695163753419847e+18,0.0,11.0,10.0,28.0,-1.0,-17.0,-27.0,-8.0
1.6951637534208556e+18,-5.0,-6.0,0.0,-16.0,-6.0,6.0,2.0,3.0
1.695163753441834e+18,3.0,8.0,1.0,27.0,17.0,3.0,10.0,5.0
1.6951637534428337e+18,4.0,2.0,-3.0,-26.0,-19.0,-12.0,-9.0,-6.0
1.6951637534428337e+18,4.0,2.0,-11.0,1.0,11.0,12.0,-23.0,5.0
1.695163753443842e+18,-14.0,-15.0,4.0,-7.0,-22.0,-16.0,0.0,-7.0
1.6951637534568287e+18,1.0,7.0,-3.0,5.0,-6.0,-2.0,7.0,3.0
1.6951637534568287e+18,-10.0,-32.0,10.0,6.0,13.0,3.0,-5.0,-4.0
1.69516375346183e+18,8.0,5.0,12.0,9.0,-5.0,-9.0,1.0,2.0
1.69516375346183e+18,-4.0,-7.0,-4.0,-11.0,4.0,-1.0,-14.0,-10.0
1.6951637535287813e+18,5.0,24.0,-20.0,-10.0,-18.0,-4.0,-1.0,10.0
1.695163753529786e+18,-8.0,-18.0,17.0,26.0,-9.0,-7.0,5.0,-9.0
1.6951637535767544e+18,-1.0,20.0,-30.0,-2.0,49.0,15.0,13.0,-2.0
1.6951637535777536e+18,-2.0,-20.0,7.0,3.0,-14.0,-5.0,5.0,0.0
1.6951637535777536e+18,-10.0,-29.0,9.0,-3.0,10.0,-11.0,-22.0,-7.0
1.6951637535777536e+18,11.0,29.0,2.0,3.0,-5.0,9.0,-1.0,0.0
1.6951637535817556e+18,6.0,9.0,7.0,9.0,8.0,25.0,30.0,7.0
1.6951637535827553e+18,-6.0,-10.0,-6.0,-14.0,-12.0,1.0,-2.0,8.0
1.6951637535974482e+18,8.0,-16.0,9.0,5.0,13.0,8.0,8.0,6.0
1.6951637535974482e+18,-2.0,-1.0,-6.0,-30.0,-13.0,-3.0,4.0,3.0
1.6951637535984568e+18,1.0,45.0,-16.0,-7.0,-7.0,-3.0,-5.0,-4.0
1.6951637535984568e+18,-5.0,-17.0,3.0,7.0,5.0,-1.0,-1.0,12.0
1.6951637536054474e+18,-2.0,-1.0,-1.0,-4.0,-2.0,2.0,-1.0,-13.0
1.6951637536054474e+18,4.0,5.0,0.0,0.0,1.0,0.0,-1.0,-3.0
1.695163753611444e+18,-3.0,-20.0,0.0,-6.0,3.0,4.0,9.0,5.0
1.695163753611444e+18,1.0,8.0,3.0,11.0,14.0,4.0,-4.0,-3.0
1.6951637536204383e+18,-1.0,1.0,-5.0,-4.0,-3.0,-6.0,-8.0,2.0
1.6951637536204383e+18,-1.0,-10.0,5.0,-4.0,-7.0,-8.0,1.0,-3.0
1.6951637536498404e+18,3.0,1.0,1.0,4.0,13.0,14.0,7.0,7.0
1.6951637536508667e+18,-2.0,5.0,-7.0,-2.0,-11.0,-4.0,-2.0,-8.0
1.695163753651867e+18,0.0,-12.0,-10.0,-10.0,1.0,-4.0,-1.0,6.0
1.695163753651867e+18,-2.0,-7.0,-3.0,7.0,1.0,1.0,-1.0,-4.0
1.695163753665896e+18,-4.0,2.0,1.0,-4.0,-11.0,-14.0,-10.0,-2.0
1.695163753665896e+18,-2.0,-2.0,7.0,18.0,26.0,27.0,20.0,0.0
1.6951637536668902e+18,2.0,7.0,0.0,0.0,-2.0,1.0,-7.0,3.0
1.6951637536668902e+18,1.0,-9.0,-4.0,-8.0,-3.0,-4.0,-3.0,2.0
1.6951637536988882e+18,-6.0,-3.0,-4.0,-12.0,-7.0,-2.0,-3.0,-6.0
1.6951637536998884e+18,4.0,1.0,3.0,2.0,-13.0,-12.0,-5.0,-5.0
1.695163753700887e+18,2.0,6.0,1.0,5.0,8.0,-2.0,-8.0,2.0
1.695163753700887e+18,-2.0,-55.0,11.0,0.0,6.0,10.0,13.0,10.0
1.6951637537018872e+18,-7.0,-7.0,0.0,5.0,2.0,-1.0,-1.0,-5.0
1.6951637537018872e+18,0.0,-3.0,14.0,-1.0,-1.0,-5.0,-6.0,-2.0
1.6951637537318671e+18,-4.0,-2.0,-26.0,-11.0,-9.0,-4.0,-3.0,-1.0
1.6951637537318671e+18,-7.0,-16.0,-16.0,-5.0,5.0,4.0,3.0,-2.0
1.6951637537418621e+18,0.0,14.0,4.0,1.0,5.0,3.0,0.0,0.0
1.6951637537428623e+18,-4.0,-7.0,5.0,-11.0,-4.0,-3.0,-1.0,2.0
1.6951637537428623e+18,2.0,8.0,45.0,-1.0,-6.0,0.0,-2.0,-4.0
1.6951637537438671e+18,1.0,2.0,-37.0,-3.0,-3.0,-1.0,-3.0,4.0
1.6951637537438671e+18,0.0,11.0,0.0,4.0,-9.0,-4.0,1.0,-13.0
1.6951637537438671e+18,4.0,10.0,-22.0,1.0,3.0,3.0,1.0,-2.0
1.6951637537718671e+18,-7.0,-19.0,16.0,-7.0,-4.0,-2.0,0.0,-15.0
1.6951637537718671e+18,0.0,-25.0,8.0,-4.0,-12.0,-12.0,-22.0,-5.0
1.6951637537728486e+18,-4.0,-11.0,33.0,1.0,3.0,3.0,8.0,13.0
1.6951637537728486e+18,-21.0,14.0,-43.0,-8.0,-4.0,0.0,2.0,-32.0
1.695163753815825e+18,-9.0,10.0,-22.0,6.0,1.0,0.0,0.0,-6.0
1.695163753815825e+18,-1.0,2.0,65.0,1.0,0.0,4.0,7.0,50.0
1.6951637538993756e+18,32.0,-7.0,-73.0,3.0,-2.0,0.0,-11.0,-5.0
1.6951637538993756e+18,17.0,2.0,28.0,5.0,10.0,9.0,19.0,-15.0
1.6951637539003763e+18,4.0,0.0,38.0,-8.0,-18.0,-4.0,6.0,-7.0
1.6951637539013747e+18,5.0,37.0,-49.0,-2.0,10.0,-4.0,-11.0,-31.0
1.6951637539013747e+18,-41.0,-23.0,-9.0,4.0,2.0,4.0,-8.0,7.0
1.695163753902374e+18,16.0,17.0,-11.0,-4.0,-7.0,1.0,4.0,66.0
1.695163753934355e+18,-23.0,-32.0,-11.0,7.0,10.0,3.0,21.0,-70.0
1.695163753935356e+18,31.0,72.0,32.0,-6.0,-12.0,5.0,6.0,34.0
1.695163753935356e+18,12.0,53.0,2.0,-2.0,1.0,10.0,3.0,-45.0
1.695163753935356e+18,-32.0,-12.0,-15.0,1.0,2.0,5.0,21.0,-23.0
1.695163753936359e+18,-12.0,10.0,0.0,-2.0,-13.0,-34.0,-88.0,-3.0
1.695163753936359e+18,12.0,-20.0,6.0,3.0,-4.0,4.0,20.0,-24.0
1.6951637539443612e+18,-27.0,15.0,-28.0,-16.0,-5.0,1.0,-1.0,-68.0
1.695163753945354e+18,-18.0,2.0,33.0,24.0,24.0,15.0,-9.0,11.0
1.695163753945354e+18,67.0,-5.0,20.0,3.0,-4.0,8.0,25.0,-17.0
1.6951637539463562e+18,-38.0,-7.0,-2.0,-6.0,-7.0,-16.0,-7.0,-17.0
1.6951637539643387e+18,52.0,5.0,-41.0,15.0,13.0,19.0,30.0,77.0
1.6951637539643387e+18,6.0,-2.0,13.0,-16.0,-17.0,-20.0,-57.0,-49.0
1.6951637539733335e+18,-18.0,-37.0,-52.0,-8.0,-10.0,-15.0,-35.0,43.0
1.6951637539733335e+18,18.0,35.0,42.0,13.0,4.0,5.0,21.0,14.0
1.695163753975333e+18,33.0,-26.0,-42.0,-10.0,1.0,5.0,17.0,-20.0
1.695163753975333e+18,-32.0,1.0,30.0,-9.0,-13.0,-11.0,14.0,21.0
1.695163753975333e+18,-21.0,33.0,-3.0,-1.0,1.0,3.0,3.0,-45.0
1.6951637539763361e+18,26.0,11.0,-2.0,7.0,8.0,19.0,48.0,16.0
1.6951637539953208e+18,-92.0,-40.0,-34.0,-12.0,-10.0,-20.0,-71.0,-31.0
1.6951637540023168e+18,12.0,-3.0,-12.0,-3.0,-6.0,-4.0,1.0,28.0
1.6951637540033175e+18,-12.0,10.0,-11.0,11.0,3.0,14.0,27.0,3.0
1.6951637540033175e+18,1.0,17.0,24.0,-5.0,13.0,-5.0,-29.0,15.0
1.6951637540063155e+18,7.0,-7.0,-1.0,9.0,0.0,-2.0,-3.0,-15.0
1.6951637540063155e+18,9.0,6.0,7.0,-6.0,-5.0,5.0,19.0,-14.0
1.6951637540183078e+18,-49.0,-10.0,1.0,2.0,-3.0,-18.0,-51.0,9.0
1.6951637540183078e+18,27.0,3.0,65.0,8.0,2.0,-2.0,-3.0,-18.0
1.6951637540193065e+18,-22.0,-3.0,-5.0,5.0,0.0,-10.0,6.0,-16.0
1.6951637540203072e+18,16.0,-23.0,-21.0,4.0,23.0,20.0,10.0,25.0
1.6951637540482895e+18,2.0,7.0,1.0,5.0,6.0,0.0,13.0,-30.0
1.6951637540482895e+18,-42.0,-23.0,-10.0,-14.0,-12.0,1.0,-13.0,19.0
1.6951637540632814e+18,11.0,20.0,2.0,-10.0,-8.0,-8.0,-13.0,34.0
1.6951637540632814e+18,-18.0,-13.0,21.0,0.0,-11.0,-1.0,28.0,-31.0
1.695163754064281e+18,5.0,-14.0,-12.0,1.0,13.0,14.0,22.0,25.0
1.695163754064281e+18,9.0,10.0,-20.0,7.0,1.0,-7.0,-34.0,8.0
1.6951637541018212e+18,-2.0,2.0,-38.0,-4.0,4.0,14.0,25.0,-2.0
1.6951637541018212e+18,5.0,7.0,-3.0,-9.0,-13.0,-16.0,-9.0,-34.0
1.6951637541018212e+18,9.0,-23.0,-8.0,-3.0,-7.0,-9.0,-30.0,-2.0
1.6951637541028237e+18,-1.0,-1.0,-2.0,-2.0,10.0,14.0,29.0,44.0
1.6951637541038423e+18,2.0,0.0,-12.0,-2.0,-4.0,4.0,3.0,7.0
1.6951637541038423e+18,9.0,10.0,40.0,6.0,10.0,-1.0,-10.0,-17.0
1.6951637541068408e+18,0.0,-1.0,-43.0,-11.0,-4.0,2.0,4.0,-63.0
1.6951637541068408e+18,-12.0,15.0,-14.0,0.0,-9.0,-10.0,-8.0,-89.0
1.6951637541168133e+18,-11.0,-35.0,-3.0,-2.0,4.0,8.0,35.0,-19.0
1.6951637541168133e+18,2.0,-3.0,-10.0,2.0,-1.0,-5.0,-33.0,23.0
1.695163754128704e+18,22.0,18.0,36.0,12.0,8.0,9.0,27.0,13.0
1.695163754128704e+18,19.0,-23.0,-39.0,-14.0,-11.0,-13.0,-21.0,16.0
1.6951637541458877e+18,13.0,24.0,-5.0,-8.0,-7.0,-9.0,-14.0,6.0
1.6951637541458877e+18,-31.0,15.0,14.0,-9.0,-15.0,-6.0,13.0,-25.0
1.695163754146885e+18,19.0,-15.0,-30.0,4.0,11.0,4.0,-11.0,-4.0
1.695163754146885e+18,12.0,-2.0,41.0,-4.0,-4.0,-2.0,11.0,29.0
1.6951637541608778e+18,3.0,-4.0,11.0,17.0,23.0,6.0,-10.0,5.0
1.6951637541608778e+18,13.0,1.0,5.0,-4.0,-12.0,-7.0,8.0,-4.0
1.6951637541618762e+18,-40.0,7.0,-33.0,-3.0,-6.0,-6.0,-22.0,-14.0
1.6951637541628828e+18,28.0,-8.0,82.0,1.0,0.0,5.0,16.0,9.0
1.6951637541748682e+18,12.0,22.0,10.0,5.0,-10.0,-3.0,-2.0,-48.0
1.6951637541758682e+18,-1.0,-16.0,-18.0,2.0,6.0,3.0,28.0,16.0
1.6951637542078502e+18,-1.0,9.0,27.0,-6.0,-9.0,-11.0,-58.0,-15.0
1.6951637542098504e+18,-14.0,-9.0,-31.0,-3.0,-5.0,-1.0,9.0,27.0
1.6951637542098504e+18,23.0,12.0,32.0,1.0,-5.0,-3.0,31.0,1.0
1.695163754210849e+18,25.0,-1.0,-15.0,7.0,13.0,8.0,-1.0,53.0
1.695163754210849e+18,-9.0,-4.0,8.0,-5.0,-5.0,0.0,10.0,-37.0
1.6951637542118482e+18,6.0,1.0,-11.0,-8.0,-1.0,-1.0,-5.0,-7.0
1.6951637542218486e+18,-13.0,-6.0,-13.0,4.0,5.0,-1.0,-12.0,17.0
1.695163754222842e+18,-12.0,-1.0,-30.0,-16.0,-18.0,-7.0,2.0,-17.0
1.6951637542238436e+18,4.0,-6.0,-8.0,0.0,3.0,-9.0,2.0,-8.0
1.6951637542238436e+18,5.0,10.0,-15.0,19.0,29.0,22.0,-8.0,10.0
1.6951637542348352e+18,-8.0,-3.0,-11.0,-23.0,-14.0,-12.0,5.0,12.0
1.695163754235833e+18,-5.0,-7.0,13.0,6.0,11.0,8.0,-5.0,5.0
1.6951637542418296e+18,4.0,8.0,19.0,44.0,51.0,25.0,9.0,-5.0
1.6951637542418296e+18,1.0,-21.0,-43.0,-15.0,-12.0,-14.0,-1.0,1.0
1.6951637542648197e+18,-2.0,4.0,2.0,-10.0,10.0,7.0,-11.0,4.0
1.6951637542648197e+18,1.0,1.0,12.0,-8.0,-34.0,-27.0,-8.0,2.0
1.6951637542868055e+18,4.0,6.0,17.0,-7.0,-10.0,15.0,15.0,-2.0
1.6951637542868055e+18,-3.0,-7.0,-11.0,-12.0,-5.0,-5.0,-1.0,-7.0
1.695163754296797e+18,4.0,6.0,6.0,23.0,23.0,15.0,-5.0,8.0
1.695163754296797e+18,-4.0,-13.0,-2.0,-3.0,-7.0,-5.0,-1.0,11.0
1.695163754297798e+18,-7.0,5.0,9.0,-10.0,-18.0,-15.0,-7.0,-14.0
1.695163754297798e+18,3.0,7.0,5.0,-3.0,-18.0,-11.0,-12.0,0.0
1.695163754301817e+18,-4.0,-7.0,7.0,-7.0,0.0,3.0,0.0,4.0
1.6951637543027983e+18,-1.0,3.0,-14.0,9.0,8.0,-1.0,-8.0,-1.0
1.6951637543027983e+18,-2.0,-8.0,-1.0,-3.0,4.0,5.0,2.0,-5.0
1.6951637543027983e+18,-1.0,4.0,21.0,1.0,-17.0,-11.0,-2.0,-5.0
1.6951637543187855e+18,0.0,0.0,-3.0,-14.0,-11.0,-5.0,-3.0,6.0
1.6951637543187855e+18,-1.0,2.0,0.0,19.0,26.0,15.0,5.0,-2.0
1.6951637543197842e+18,-1.0,-1.0,3.0,-11.0,-14.0,-8.0,5.0,1.0
1.6951637543197842e+18,-1.0,-3.0,-6.0,4.0,10.0,0.0,-7.0,-3.0
1.695163754347768e+18,-2.0,-2.0,8.0,11.0,11.0,3.0,7.0,6.0
1.695163754347768e+18,-1.0,0.0,8.0,-14.0,-10.0,2.0,-3.0,-1.0
1.6951637543487693e+18,-1.0,-4.0,-18.0,9.0,-2.0,-4.0,-1.0,-2.0
1.6951637543487693e+18,-1.0,-2.0,-7.0,2.0,1.0,1.0,1.0,2.0
1.6951637543707625e+18,-1.0,2.0,-1.0,4.0,4.0,1.0,-3.0,3.0
1.6951637543717622e+18,2.0,-2.0,-8.0,-7.0,-6.0,3.0,-1.0,-1.0
1.6951637543717622e+18,2.0,5.0,8.0,-11.0,-11.0,-11.0,-3.0,-1.0
1.6951637543717622e+18,-2.0,-2.0,-13.0,-4.0,-2.0,3.0,2.0,-1.0
1.695163754377754e+18,-1.0,0.0,-18.0,12.0,14.0,4.0,2.0,3.0
1.6951637543787517e+18,-2.0,-2.0,-9.0,-7.0,-2.0,-4.0,-5.0,-3.0
1.6951637543917655e+18,0.0,-1.0,2.0,2.0,-2.0,-1.0,4.0,-1.0
1.6951637543927473e+18,0.0,-1.0,8.0,9.0,-2.0,0.0,0.0,-1.0
1.6951637544077338e+18,-1.0,3.0,6.0,-6.0,-17.0,-8.0,-3.0,0.0
1.6951637544077338e+18,-2.0,-9.0,0.0,-2.0,18.0,6.0,2.0,1.0
1.6951637544087337e+18,1.0,1.0,-5.0,1.0,-6.0,-3.0,0.0,-2.0
1.6951637544087337e+18,0.0,-1.0,-7.0,4.0,3.0,1.0,1.0,-1.0
1.6951637544137533e+18,-1.0,1.0,7.0,-3.0,-9.0,-4.0,-2.0,2.0
1.6951637544147313e+18,-1.0,0.0,-9.0,-18.0,-2.0,-2.0,-2.0,-4.0
1.6951637544217295e+18,1.0,-1.0,-1.0,-6.0,-4.0,0.0,1.0,0.0
1.6951637544247468e+18,-2.0,-1.0,-3.0,-4.0,3.0,-1.0,-1.0,-1.0
1.6951637544388849e+18,4.0,1.0,13.0,-3.0,-5.0,-1.0,0.0,2.0
1.6951637544388849e+18,-1.0,-2.0,2.0,15.0,-3.0,-1.0,-3.0,-1.0
1.6951637544388849e+18,1.0,0.0,0.0,-11.0,-1.0,0.0,1.0,1.0
1.6951637544398856e+18,-3.0,-5.0,-15.0,-2.0,-4.0,-4.0,-5.0,-3.0
1.6951637544678676e+18,-3.0,2.0,12.0,2.0,-2.0,-2.0,-1.0,-2.0
1.6951637544678676e+18,-3.0,0.0,-5.0,-14.0,-2.0,-1.0,-1.0,-1.0
1.6951637544688676e+18,2.0,2.0,-10.0,-14.0,-5.0,0.0,2.0,1.0
1.6951637544688676e+18,2.0,3.0,8.0,17.0,9.0,4.0,3.0,0.0
1.6951637544828593e+18,2.0,-6.0,5.0,5.0,-4.0,-3.0,-2.0,0.0
1.695163754483859e+18,-2.0,0.0,0.0,-9.0,-2.0,-2.0,-1.0,-1.0
1.6951637544908567e+18,-1.0,-1.0,10.0,14.0,-2.0,-1.0,0.0,-2.0
1.6951637544908567e+18,1.0,0.0,4.0,6.0,8.0,2.0,1.0,-1.0
1.6951637545288253e+18,-3.0,0.0,0.0,-1.0,-4.0,0.0,1.0,-1.0
1.6951637545288253e+18,-2.0,1.0,-1.0,11.0,3.0,1.0,1.0,0.0
1.6951637545298253e+18,-6.0,-2.0,-1.0,-15.0,-4.0,-3.0,-1.0,-1.0
1.6951637545308252e+18,0.0,-1.0,1.0,11.0,7.0,4.0,3.0,1.0
1.695163754531824e+18,-1.0,-4.0,-2.0,-6.0,-10.0,-7.0,-6.0,-4.0
1.695163754531824e+18,1.0,3.0,14.0,44.0,6.0,3.0,3.0,0.0
1.6951637545498143e+18,3.0,1.0,-4.0,-19.0,3.0,2.0,0.0,3.0
1.6951637545498143e+18,-5.0,-3.0,-8.0,-13.0,-9.0,-6.0,-7.0,-4.0
1.695163754559809e+18,4.0,0.0,0.0,0.0,3.0,3.0,5.0,7.0
1.695163754559809e+18,-9.0,-4.0,-3.0,-11.0,-3.0,-3.0,-1.0,-6.0
1.6951637545608092e+18,2.0,2.0,-2.0,9.0,1.0,0.0,1.0,-1.0
1.6951637545608092e+18,0.0,-1.0,17.0,27.0,5.0,1.0,0.0,-2.0
1.6951637545728005e+18,-2.0,-1.0,-11.0,-23.0,-7.0,-4.0,-3.0,-2.0
1.6951637545728005e+18,2.0,-1.0,2.0,5.0,-1.0,-1.0,-3.0,1.0
1.6951637545728005e+18,-3.0,-3.0,-8.0,-7.0,-5.0,-4.0,-3.0,-2.0
1.6951637545738002e+18,0.0,2.0,-7.0,-17.0,0.0,1.0,2.0,-1.0
1.6951637545797965e+18,-5.0,-2.0,1.0,8.0,0.0,1.0,1.0,-3.0
1.6951637545797965e+18,3.0,-2.0,-6.0,-8.0,-2.0,-1.0,-2.0,-1.0
1.6951637545797965e+18,-1.0,0.0,1.0,-5.0,-3.0,-2.0,-3.0,-4.0
1.695163754580796e+18,2.0,0.0,-5.0,-11.0,-3.0,-1.0,-1.0,1.0
1.695163754595788e+18,0.0,0.0,5.0,16.0,2.0,-2.0,-2.0,-2.0
1.695163754595788e+18,0.0,-1.0,-4.0,-10.0,-3.0,-2.0,-1.0,-2.0
1.6951637546007867e+18,0.0,-2.0,-1.0,5.0,-3.0,-4.0,-2.0,-1.0
1.6951637546017866e+18,-2.0,1.0,1.0,4.0,5.0,4.0,1.0,2.0
1.6951637546217733e+18,-1.0,1.0,-3.0,-14.0,-4.0,2.0,1.0,0.0
1.6951637546217733e+18,-1.0,-3.0,1.0,-11.0,-4.0,-4.0,-4.0,-1.0
1.6951637546217733e+18,-4.0,-2.0,-2.0,11.0,1.0,3.0,2.0,-1.0
1.6951637546227722e+18,-2.0,-3.0,-5.0,-5.0,-5.0,-6.0,-2.0,-1.0
1.6951637546397614e+18,-4.0,-1.0,2.0,0.0,0.0,-2.0,-2.0,-4.0
1.6951637546397614e+18,3.0,3.0,2.0,-2.0,1.0,0.0,0.0,1.0
1.6951637546397614e+18,0.0,-2.0,-10.0,7.0,3.0,-1.0,-1.0,0.0
1.695163754640761e+18,0.0,2.0,10.0,-19.0,-3.0,0.0,0.0,-1.0
1.6951637546537536e+18,0.0,1.0,-2.0,-1.0,4.0,4.0,2.0,2.0
1.6951637546537536e+18,0.0,-1.0,1.0,3.0,-1.0,0.0,1.0,2.0
1.695163754669745e+18,0.0,1.0,11.0,12.0,5.0,3.0,-1.0,-1.0
1.695163754669745e+18,-2.0,-3.0,-11.0,-5.0,-5.0,-9.0,-1.0,-1.0
1.6951637546847373e+18,-2.0,-3.0,-4.0,-2.0,1.0,4.0,-3.0,-2.0
1.6951637546847373e+18,0.0,1.0,3.0,-3.0,-1.0,1.0,0.0,0.0
1.6951637546857367e+18,1.0,0.0,2.0,-5.0,-10.0,-6.0,-1.0,0.0
1.6951637546857367e+18,-2.0,-3.0,4.0,16.0,9.0,-3.0,-1.0,-2.0
1.6951637546997276e+18,-1.0,-1.0,-1.0,-19.0,-2.0,4.0,1.0,1.0
1.6951637546997276e+18,0.0,-1.0,-4.0,0.0,-3.0,0.0,0.0,-1.0
1.6951637546997276e+18,-1.0,-1.0,0.0,-2.0,-1.0,2.0,-2.0,-2.0
1.6951637546997276e+18,0.0,0.0,-6.0,-6.0,-7.0,-6.0,-2.0,-1.0
1.695163754730125e+18,-2.0,-2.0,-3.0,2.0,-4.0,-7.0,-3.0,-2.0
1.695163754730125e+18,-2.0,-1.0,13.0,3.0,3.0,3.0,0.0,1.0
1.6951637547311247e+18,-2.0,-1.0,-14.0,-10.0,-2.0,-4.0,0.0,-2.0
1.6951637547311247e+18,0.0,1.0,-1.0,-1.0,-3.0,0.0,-1.0,-2.0
1.6951637547371213e+18,-1.0,-1.0,-3.0,4.0,1.0,-1.0,0.0,0.0
1.6951637547371213e+18,-2.0,-3.0,0.0,-3.0,-1.0,1.0,-1.0,-2.0
1.6951637547371213e+18,-1.0,-2.0,0.0,3.0,1.0,-2.0,-2.0,-1.0
1.6951637547381204e+18,1.0,0.0,-3.0,-2.0,0.0,4.0,-1.0,0.0
1.6951637547591045e+18,0.0,-1.0,-1.0,1.0,-2.0,-1.0,-1.0,-2.0
1.695163754760102e+18,0.0,1.0,0.0,2.0,3.0,-4.0,-1.0,-1.0
1.695163754760102e+18,-1.0,-1.0,-5.0,-9.0,-1.0,-1.0,-2.0,-3.0
1.6951637547611041e+18,-1.0,-2.0,2.0,0.0,-6.0,3.0,1.0,-2.0
1.6951637547818857e+18,2.0,-1.0,2.0,11.0,0.0,-6.0,-1.0,2.0
1.6951637547818857e+18,-2.0,0.0,1.0,8.0,-1.0,2.0,0.0,0.0
1.695163754782865e+18,0.0,0.0,-4.0,-9.0,9.0,3.0,1.0,1.0
1.695163754782865e+18,0.0,-2.0,-1.0,-2.0,1.0,3.0,-1.0,2.0
1.6951637547978547e+18,-1.0,2.0,-4.0,-3.0,-5.0,-6.0,-2.0,-3.0
1.695163754803851e+18,1.0,1.0,-3.0,-1.0,-2.0,-4.0,-1.0,0.0
1.6951637548048507e+18,-1.0,-2.0,3.0,2.0,-2.0,1.0,-2.0,-1.0
1.6951637548048507e+18,1.0,0.0,-2.0,-3.0,-1.0,0.0,-2.0,1.0
1.695163754818865e+18,-2.0,-6.0,0.0,7.0,0.0,-2.0,-1.0,-3.0
1.695163754819851e+18,-2.0,0.0,-3.0,-4.0,-1.0,-2.0,-2.0,0.0
1.695163754819851e+18,-1.0,0.0,4.0,2.0,-3.0,-3.0,0.0,-1.0
1.695163754819851e+18,-1.0,-1.0,-6.0,-6.0,0.0,-1.0,-1.0,-1.0
1.6951637548418289e+18,-2.0,1.0,0.0,-2.0,-2.0,1.0,-1.0,-1.0
1.6951637548418289e+18,0.0,-2.0,-1.0,3.0,1.0,-1.0,-1.0,-1.0
1.695163754842837e+18,-2.0,-2.0,2.0,-4.0,-3.0,-2.0,-1.0,-2.0
1.695163754842837e+18,-1.0,-1.0,2.0,2.0,1.0,-1.0,-1.0,-2.0
1.6951637548569318e+18,0.0,0.0,-1.0,-1.0,-2.0,-2.0,0.0,-1.0
1.6951637548569318e+18,-2.0,-1.0,-6.0,-6.0,-1.0,-2.0,0.0,-1.0
1.6951637548578834e+18,-1.0,0.0,5.0,0.0,-1.0,-2.0,1.0,0.0
1.6951637548578834e+18,-2.0,-1.0,-2.0,1.0,0.0,-1.0,0.0,-1.0
1.695163754880792e+18,-2.0,1.0,3.0,3.0,1.0,-1.0,-2.0,-4.0
1.695163754880792e+18,0.0,-1.0,-3.0,-4.0,-1.0,-1.0,-1.0,-1.0
1.6951637548817912e+18,0.0,1.0,1.0,3.0,-1.0,-1.0,-1.0,1.0
1.6951637548817912e+18,0.0,-2.0,-1.0,-4.0,-2.0,1.0,-1.0,-1.0
1.6951637549018153e+18,-1.0,-2.0,-5.0,-4.0,0.0,0.0,-2.0,-1.0
1.6951637549018153e+18,0.0,-1.0,-1.0,-1.0,0.0,0.0,-1.0,-3.0
1.6951637549027802e+18,0.0,-2.0,-1.0,0.0,0.0,-2.0,-2.0,0.0
1.6951637549027802e+18,0.0,1.0,5.0,0.0,-3.0,-1.0,-1.0,-2.0
1.6951637549187722e+18,-1.0,-2.0,-14.0,-4.0,-1.0,0.0,0.0,3.0
1.6951637549187722e+18,0.0,3.0,8.0,1.0,1.0,-1.0,0.0,0.0
1.6951637549187722e+18,-2.0,-7.0,-15.0,-2.0,-2.0,0.0,-2.0,-2.0
1.695163754919775e+18,-2.0,-3.0,9.0,1.0,0.0,-2.0,-1.0,0.0
1.6951637549467538e+18,0.0,-2.0,-4.0,-1.0,0.0,1.0,-1.0,-1.0
1.6951637549467538e+18,-1.0,1.0,12.0,3.0,-3.0,-1.0,-1.0,-1.0
1.6951637549548024e+18,0.0,-2.0,-3.0,-1.0,-1.0,0.0,0.0,-1.0
1.6951637549548024e+18,0.0,0.0,-6.0,0.0,-1.0,-3.0,-2.0,-1.0
1.6951637549638705e+18,-1.0,0.0,-5.0,-2.0,0.0,0.0,-2.0,1.0
1.6951637549638705e+18,-1.0,-3.0,-3.0,-2.0,-2.0,-1.0,-2.0,1.0
1.6951637549638705e+18,0.0,0.0,24.0,2.0,-2.0,-1.0,-1.0,-1.0
1.6951637549638705e+18,-2.0,0.0,-5.0,-4.0,-1.0,-1.0,-1.0,0.0
1.6951637549769306e+18,-1.0,-2.0,-6.0,-2.0,-1.0,0.0,1.0,-1.0
1.6951637549779361e+18,-3.0,-1.0,-1.0,1.0,-2.0,-2.0,0.0,-2.0
1.6951637549779361e+18,-1.0,0.0,-5.0,-3.0,-1.0,-2.0,0.0,1.0
1.6951637549779361e+18,-2.0,2.0,6.0,2.0,2.0,0.0,2.0,1.0
1.6951637549999017e+18,0.0,-8.0,-4.0,-2.0,-2.0,-1.0,0.0,0.0
1.6951637549999017e+18,-2.0,-1.0,-6.0,-1.0,-1.0,0.0,-2.0,-1.0
1.6951637549999017e+18,-2.0,-1.0,-2.0,-4.0,-1.0,0.0,-1.0,-2.0
1.6951637549999017e+18,-1.0,1.0,0.0,2.0,-1.0,-1.0,0.0,-2.0
1.6951637550218593e+18,2.0,-2.0,13.0,6.0,2.0,1.0,1.0,1.0
1.6951637550218593e+18,-2.0,0.0,-2.0,-2.0,-3.0,0.0,-1.0,-2.0
1.6951637550228424e+18,0.0,-3.0,2.0,1.0,0.0,1.0,-1.0,-1.0
1.6951637550228424e+18,1.0,-5.0,1.0,0.0,1.0,2.0,1.0,1.0
1.6951637550368553e+18,1.0,4.0,0.0,-2.0,-2.0,-2.0,0.0,-2.0
1.6951637550368553e+18,1.0,0.0,-4.0,-2.0,-2.0,-2.0,0.0,-1.0
1.6951637550378322e+18,1.0,1.0,-3.0,-1.0,-2.0,-1.0,1.0,1.0
1.6951637550378322e+18,1.0,3.0,-2.0,-3.0,-2.0,-1.0,-1.0,-1.0
1.6951637550688174e+18,-2.0,-2.0,5.0,-1.0,-1.0,-3.0,-3.0,-3.0
1.6951637550698153e+18,-2.0,2.0,-9.0,-5.0,0.0,0.0,0.0,0.0
1.6951637550708137e+18,-2.0,11.0,-7.0,-2.0,-4.0,-2.0,-1.0,-4.0
1.6951637550708137e+18,-6.0,-8.0,-5.0,1.0,-1.0,1.0,1.0,-3.0
1.6951637550987433e+18,1.0,3.0,3.0,-3.0,2.0,-1.0,-2.0,-1.0
1.6951637550997473e+18,0.0,1.0,-3.0,-2.0,-1.0,-2.0,-1.0,0.0
1.6951637550997473e+18,2.0,9.0,-12.0,-6.0,-3.0,-1.0,-1.0,-2.0
1.6951637551007465e+18,-2.0,-5.0,4.0,5.0,0.0,0.0,-2.0,-1.0
1.695163755104821e+18,1.0,3.0,5.0,-5.0,-2.0,-2.0,-1.0,0.0
1.695163755104821e+18,-1.0,-8.0,2.0,1.0,1.0,2.0,-2.0,-1.0
1.695163755112102e+18,-2.0,7.0,-6.0,2.0,0.0,0.0,-1.0,-1.0
1.695163755112102e+18,5.0,25.0,-22.0,-13.0,-7.0,-6.0,-5.0,-3.0
1.6951637551191204e+18,-2.0,5.0,-3.0,-1.0,-3.0,-1.0,-2.0,-2.0
1.6951637551200978e+18,-2.0,-25.0,7.0,9.0,6.0,3.0,2.0,0.0
1.6951637551200978e+18,-1.0,-4.0,9.0,0.0,1.0,-1.0,0.0,2.0
1.6951637551200978e+18,1.0,5.0,-18.0,-6.0,-5.0,-3.0,-1.0,0.0
1.695163755149818e+18,-7.0,-2.0,22.0,6.0,-1.0,-1.0,-2.0,-3.0
1.695163755149818e+18,0.0,10.0,-10.0,-5.0,-3.0,-3.0,-2.0,-2.0
1.6951637551582047e+18,-1.0,-11.0,-2.0,0.0,1.0,0.0,-1.0,-3.0
1.6951637551592046e+18,-4.0,-8.0,3.0,1.0,0.0,1.0,0.0,1.0
1.6951637551602058e+18,2.0,6.0,-11.0,-6.0,-4.0,-4.0,-1.0,1.0
1.6951637551602058e+18,0.0,8.0,-6.0,-3.0,-3.0,-2.0,-2.0,0.0
1.6951637551602058e+18,2.0,-16.0,11.0,5.0,3.0,1.0,-1.0,1.0
1.6951637551602058e+18,-5.0,-34.0,20.0,9.0,5.0,3.0,3.0,3.0
1.6951637551798019e+18,-2.0,-5.0,-3.0,0.0,1.0,1.0,0.0,1.0
1.6951637551798019e+18,5.0,4.0,0.0,-4.0,-6.0,-6.0,-3.0,-1.0
1.6951637551798019e+18,-4.0,-9.0,-13.0,-3.0,3.0,0.0,0.0,-2.0
1.6951637551808e+18,2.0,-7.0,16.0,3.0,-1.0,-1.0,0.0,-2.0
1.695163755201787e+18,7.0,6.0,-2.0,-3.0,-2.0,-1.0,-1.0,2.0
1.695163755201787e+18,-4.0,-3.0,-6.0,0.0,-1.0,-1.0,-1.0,-1.0
1.695163755202787e+18,2.0,17.0,4.0,-2.0,-4.0,-2.0,-3.0,-1.0
1.695163755202787e+18,-2.0,-9.0,10.0,7.0,2.0,2.0,2.0,-1.0
1.6951637552207775e+18,-1.0,0.0,-12.0,-5.0,-2.0,-4.0,0.0,-1.0
1.6951637552207775e+18,0.0,2.0,2.0,-4.0,-2.0,-1.0,-1.0,1.0
1.6951637552207775e+18,-1.0,-5.0,1.0,-1.0,0.0,-1.0,1.0,-1.0
1.6951637552207775e+18,-1.0,10.0,-18.0,-7.0,-1.0,-2.0,-5.0,-3.0
1.6951637552391644e+18,-3.0,-9.0,12.0,2.0,-3.0,1.0,0.0,-2.0
1.6951637552401692e+18,-2.0,-3.0,0.0,5.0,1.0,-3.0,1.0,-2.0
1.6951637552401692e+18,-3.0,-2.0,1.0,1.0,-2.0,4.0,1.0,0.0
1.6951637552401692e+18,0.0,2.0,-3.0,-3.0,-1.0,0.0,-1.0,1.0
1.6951637552618614e+18,-2.0,-3.0,-5.0,0.0,-1.0,-2.0,-1.0,0.0
1.6951637552618614e+18,-2.0,-2.0,0.0,-5.0,0.0,-1.0,0.0,-1.0
1.6951637552628004e+18,0.0,2.0,5.0,1.0,-4.0,-2.0,-1.0,-1.0
1.6951637552628004e+18,-1.0,-6.0,-15.0,-5.0,3.0,-2.0,-2.0,-1.0
1.6951637552853496e+18,4.0,10.0,-5.0,-2.0,-3.0,0.0,-2.0,-1.0
1.6951637552853496e+18,-2.0,-4.0,0.0,-2.0,1.0,0.0,-2.0,-4.0
1.6951637552853496e+18,-1.0,0.0,-1.0,-1.0,-1.0,-3.0,-1.0,0.0
1.6951637552863596e+18,-3.0,-12.0,-4.0,5.0,-2.0,1.0,0.0,-1.0
1.6951637552993646e+18,-2.0,-4.0,14.0,3.0,0.0,-3.0,0.0,-1.0
1.6951637552993646e+18,-2.0,-4.0,-5.0,-1.0,-1.0,4.0,0.0,-2.0
1.6951637553003415e+18,0.0,-3.0,-5.0,-1.0,3.0,-4.0,-1.0,-1.0
1.6951637553003415e+18,-1.0,5.0,-9.0,-7.0,-4.0,0.0,0.0,-2.0
1.6951637553219492e+18,-2.0,2.0,-10.0,0.0,1.0,3.0,-1.0,0.0
1.6951637553219492e+18,0.0,0.0,5.0,2.0,-2.0,-2.0,-1.0,1.0
1.6951637553228867e+18,-2.0,-2.0,2.0,0.0,1.0,-1.0,0.0,0.0
1.6951637553228867e+18,0.0,3.0,5.0,3.0,2.0,-1.0,-1.0,-1.0
1.6951637553367933e+18,2.0,-2.0,-12.0,-2.0,-3.0,-2.0,1.0,0.0
1.6951637553367933e+18,2.0,3.0,-3.0,0.0,-1.0,2.0,0.0,-1.0
1.695163755345352e+18,0.0,2.0,3.0,0.0,-1.0,1.0,-1.0,0.0
1.695163755345352e+18,0.0,3.0,-6.0,-4.0,-1.0,-5.0,-2.0,-1.0
1.695163755360344e+18,-3.0,-1.0,1.0,-4.0,1.0,2.0,0.0,-1.0
1.6951637553613435e+18,-2.0,0.0,3.0,1.0,-1.0,0.0,-2.0,-1.0
1.6951637553623442e+18,-1.0,0.0,4.0,6.0,-1.0,-2.0,-1.0,-2.0
1.6951637553623442e+18,2.0,2.0,2.0,-2.0,-1.0,-1.0,-1.0,0.0
1.6951637553843287e+18,-1.0,-8.0,5.0,3.0,0.0,0.0,-1.0,-1.0
1.6951637553843287e+18,-3.0,-2.0,-2.0,1.0,0.0,-1.0,2.0,-2.0
1.6951637553853276e+18,0.0,-1.0,-7.0,-3.0,-3.0,0.0,-1.0,-1.0
1.6951637553853276e+18,-1.0,6.0,1.0,-1.0,-2.0,0.0,-1.0,-1.0
1.6951637553973222e+18,0.0,-3.0,-2.0,-1.0,0.0,-3.0,-1.0,1.0
1.69516375539832e+18,1.0,4.0,0.0,-2.0,-1.0,2.0,-1.0,0.0
1.6951637553993203e+18,1.0,-1.0,-2.0,-3.0,-1.0,-3.0,-3.0,0.0
1.6951637553993203e+18,0.0,0.0,-1.0,6.0,-2.0,-1.0,0.0,1.0
1.6951637554193075e+18,-4.0,0.0,6.0,1.0,-3.0,-1.0,-1.0,-2.0
1.6951637554193075e+18,-5.0,-3.0,2.0,-1.0,1.0,0.0,1.0,-2.0
1.6951637554203072e+18,0.0,-2.0,-5.0,-3.0,-1.0,0.0,0.0,-2.0
1.6951637554203072e+18,-1.0,2.0,0.0,-3.0,-6.0,-2.0,-3.0,-2.0
1.6951637554422953e+18,-1.0,-3.0,1.0,-1.0,-1.0,0.0,-1.0,-1.0
1.6951637554422953e+18,1.0,-1.0,-2.0,-1.0,4.0,-2.0,-1.0,0.0
1.6951637554432955e+18,-3.0,-1.0,-3.0,-1.0,-1.0,2.0,0.0,-1.0
1.6951637554432955e+18,-1.0,-1.0,2.0,-3.0,1.0,0.0,2.0,-1.0
1.695163755457287e+18,-1.0,-1.0,-4.0,2.0,-2.0,1.0,-1.0,-1.0
1.695163755462283e+18,0.0,-1.0,4.0,-2.0,-2.0,0.0,-1.0,0.0
1.6951637554722775e+18,-1.0,1.0,13.0,7.0,-4.0,-5.0,-3.0,-2.0
1.6951637554722775e+18,-2.0,-3.0,-8.0,-2.0,-3.0,0.0,-1.0,-2.0
1.6951637554792724e+18,-1.0,-6.0,8.0,2.0,5.0,5.0,-1.0,0.0
1.6951637554792724e+18,1.0,-3.0,-10.0,-3.0,1.0,-4.0,1.0,1.0
1.695163755480272e+18,-2.0,3.0,-7.0,-2.0,0.0,0.0,0.0,-2.0
1.695163755480272e+18,-3.0,-8.0,8.0,1.0,0.0,0.0,1.0,-1.0
1.6951637555022597e+18,0.0,-5.0,3.0,-1.0,-2.0,0.0,-1.0,0.0
1.6951637555022597e+18,0.0,-2.0,-4.0,-1.0,-3.0,1.0,0.0,1.0
1.6951637555022597e+18,-1.0,3.0,3.0,-4.0,-2.0,-5.0,0.0,2.0
1.6951637555032594e+18,2.0,4.0,-2.0,-3.0,-1.0,3.0,0.0,0.0
1.6951637555172529e+18,-2.0,1.0,-8.0,-1.0,1.0,-2.0,0.0,-2.0
1.6951637555172529e+18,0.0,-1.0,9.0,12.0,-1.0,-3.0,-2.0,-3.0
1.6951637555182505e+18,-1.0,-10.0,-5.0,-3.0,-1.0,-1.0,0.0,0.0
1.6951637555182505e+18,2.0,4.0,-2.0,-3.0,-2.0,-1.0,-2.0,0.0
1.695163755547234e+18,0.0,1.0,-4.0,-5.0,3.0,0.0,-1.0,-1.0
1.6951637555482365e+18,-1.0,-3.0,-7.0,-4.0,-1.0,0.0,2.0,-1.0
1.6951637555482365e+18,0.0,1.0,-1.0,0.0,1.0,0.0,-2.0,-2.0
1.6951637555482365e+18,-1.0,2.0,-2.0,-2.0,0.0,-4.0,1.0,-1.0
1.695163755562225e+18,0.0,1.0,-4.0,-2.0,-3.0,-3.0,1.0,-2.0
1.695163755562225e+18,0.0,2.0,2.0,-2.0,-3.0,-2.0,-1.0,1.0
1.6951637555632248e+18,-1.0,-3.0,0.0,0.0,1.0,1.0,0.0,-1.0
1.6951637555632248e+18,-2.0,0.0,-2.0,-2.0,0.0,0.0,-2.0,-1.0
1.6951637555822134e+18,-1.0,1.0,-5.0,-1.0,-4.0,-3.0,-1.0,0.0
1.695163755583214e+18,-1.0,-1.0,3.0,-1.0,1.0,0.0,0.0,-1.0
1.695163755583214e+18,1.0,-3.0,-11.0,-1.0,-1.0,3.0,1.0,1.0
1.695163755583214e+18,-2.0,0.0,7.0,0.0,0.0,-1.0,0.0,0.0
1.6951637556074573e+18,-2.0,-4.0,-14.0,0.0,0.0,1.0,-1.0,0.0
1.6951637556074573e+18,0.0,-2.0,7.0,0.0,-1.0,-1.0,-1.0,0.0
1.695163755608458e+18,3.0,9.0,-9.0,-4.0,-1.0,-1.0,-1.0,0.0
1.695163755608458e+18,-3.0,-6.0,-1.0,-2.0,-2.0,-3.0,-4.0,-2.0
1.6951637556214515e+18,0.0,0.0,0.0,-1.0,-2.0,-4.0,-1.0,0.0
1.6951637556224517e+18,-1.0,-2.0,-3.0,-2.0,0.0,2.0,-1.0,0.0
1.6951637556224517e+18,0.0,0.0,-2.0,1.0,0.0,-1.0,0.0,1.0
1.6951637556224517e+18,1.0,1.0,-6.0,-1.0,1.0,1.0,0.0,1.0
1.6951637556364447e+18,0.0,-2.0,-2.0,-1.0,0.0,-2.0,-1.0,1.0
1.6951637556374449e+18,-1.0,0.0,-2.0,-2.0,-2.0,-2.0,-2.0,-2.0
1.6951637556384632e+18,-2.0,-3.0,5.0,0.0,-2.0,-4.0,-2.0,-2.0
1.6951637556384632e+18,0.0,0.0,1.0,-2.0,-6.0,1.0,1.0,-1.0
1.6951637556678106e+18,-2.0,-1.0,3.0,-1.0,6.0,-1.0,-1.0,-1.0
1.6951637556678106e+18,0.0,1.0,-2.0,-3.0,-1.0,3.0,-1.0,0.0
1.6951637556678106e+18,-1.0,-4.0,0.0,0.0,2.0,-8.0,-1.0,0.0
1.6951637556688105e+18,-1.0,0.0,-1.0,3.0,2.0,6.0,-1.0,-1.0
1.6951637556818022e+18,0.0,2.0,-2.0,-2.0,-7.0,0.0,-1.0,-3.0
1.6951637556818022e+18,0.0,-4.0,-4.0,0.0,-2.0,-2.0,0.0,-1.0
1.6951637556828042e+18,-2.0,-3.0,2.0,-4.0,1.0,2.0,0.0,0.0
1.6951637556828042e+18,0.0,1.0,-1.0,2.0,-1.0,-6.0,-3.0,0.0
1.6951637557128847e+18,-1.0,-1.0,1.0,3.0,0.0,0.0,0.0,-1.0
1.6951637557128847e+18,0.0,-1.0,-1.0,-2.0,-1.0,-4.0,0.0,0.0
1.6951637557128847e+18,-3.0,-5.0,2.0,2.0,-2.0,2.0,1.0,0.0
1.695163755713881e+18,-1.0,-5.0,3.0,-1.0,1.0,2.0,1.0,0.0
1.6951637557278006e+18,-1.0,-7.0,6.0,3.0,1.0,2.0,0.0,0.0
1.6951637557278006e+18,-1.0,1.0,0.0,-2.0,-1.0,-3.0,1.0,-2.0
1.6951637557288003e+18,-1.0,2.0,-2.0,-1.0,-2.0,2.0,-1.0,-2.0
1.6951637557288003e+18,-1.0,-2.0,-1.0,-2.0,0.0,-3.0,1.0,1.0
1.6951637557418522e+18,1.0,-1.0,-2.0,-1.0,-1.0,-2.0,-1.0,-1.0
1.6951637557418522e+18,0.0,-2.0,-1.0,-2.0,-2.0,-1.0,-2.0,-1.0
1.6951637557427904e+18,-1.0,-6.0,3.0,3.0,2.0,1.0,0.0,-1.0
1.6951637557427904e+18,1.0,4.0,2.0,-1.0,-2.0,-2.0,-1.0,-1.0
1.6951637557569966e+18,-1.0,-2.0,-9.0,-2.0,-1.0,-1.0,-1.0,-3.0
1.6951637557569966e+18,-2.0,0.0,4.0,1.0,0.0,1.0,-3.0,0.0
1.695163755758e+18,0.0,0.0,-5.0,-2.0,-3.0,1.0,-3.0,0.0
1.695163755758e+18,-2.0,-1.0,-1.0,-1.0,0.0,-3.0,0.0,0.0
1.6951637557798254e+18,0.0,2.0,-3.0,-1.0,1.0,-1.0,0.0,-1.0
1.6951637557798254e+18,0.0,-1.0,-7.0,-4.0,0.0,1.0,0.0,0.0
1.6951637557798254e+18,-2.0,-3.0,-1.0,-2.0,-1.0,0.0,0.0,0.0
1.6951637557798254e+18,-3.0,1.0,1.0,8.0,1.0,-1.0,0.0,-1.0
1.695163755809805e+18,5.0,-1.0,-2.0,-4.0,1.0,0.0,0.0,2.0
1.695163755809805e+18,-1.0,-1.0,2.0,-1.0,-1.0,-2.0,0.0,0.0
1.6951637558108083e+18,-2.0,-3.0,-4.0,-7.0,-1.0,1.0,0.0,0.0
1.6951637558108083e+18,0.0,0.0,-7.0,-3.0,2.0,2.0,-1.0,-2.0
1.6951637558168253e+18,-5.0,5.0,2.0,2.0,-1.0,0.0,-3.0,-2.0
1.6951637558168253e+18,0.0,-4.0,0.0,1.0,-1.0,1.0,1.0,-1.0
1.695163755817801e+18,2.0,0.0,0.0,1.0,1.0,-2.0,0.0,0.0
1.695163755817801e+18,1.0,2.0,1.0,-2.0,-3.0,-1.0,-2.0,-2.0
1.6951637558398177e+18,-3.0,-2.0,-4.0,-2.0,-1.0,-1.0,-2.0,-1.0
1.6951637558398177e+18,1.0,4.0,8.0,1.0,-2.0,-2.0,-1.0,-2.0
1.6951637558398177e+18,-2.0,-2.0,7.0,1.0,-3.0,0.0,0.0,-2.0
1.6951637558398177e+18,2.0,-1.0,-4.0,-1.0,3.0,0.0,0.0,-1.0
1.6951637558628977e+18,2.0,2.0,-1.0,-1.0,-3.0,-2.0,-1.0,0.0
1.6951637558628977e+18,0.0,-3.0,1.0,0.0,0.0,0.0,-1.0,1.0
1.6951637558628977e+18,0.0,-2.0,-7.0,-1.0,0.0,0.0,0.0,0.0
1.6951637558638966e+18,1.0,0.0,-1.0,0.0,-1.0,0.0,0.0,-1.0
1.6951637558878815e+18,-1.0,-4.0,-5.0,-1.0,-1.0,-1.0,-1.0,1.0
1.6951637558888824e+18,-2.0,0.0,-1.0,3.0,1.0,1.0,0.0,1.0
1.6951637558898806e+18,0.0,2.0,-1.0,-2.0,-1.0,-2.0,-2.0,-1.0
1.6951637558908792e+18,0.0,-1.0,-1.0,-2.0,-2.0,-2.0,-4.0,-2.0
1.6951637559008832e+18,1.0,0.0,0.0,-3.0,-1.0,0.0,-1.0,-2.0
1.695163755901873e+18,-1.0,-2.0,-5.0,-1.0,-1.0,0.0,-1.0,-1.0
1.6951637559028723e+18,-1.0,0.0,3.0,2.0,0.0,-1.0,-3.0,-2.0
1.69516375590388e+18,-1.0,-1.0,5.0,-1.0,-2.0,-1.0,-1.0,0.0
1.6951637559308572e+18,-2.0,-1.0,-5.0,1.0,-2.0,-2.0,0.0,-2.0
1.6951637559318556e+18,-1.0,-2.0,-1.0,-2.0,-1.0,-1.0,1.0,-1.0
1.6951637559328643e+18,1.0,1.0,-2.0,-1.0,-1.0,1.0,0.0,-1.0
1.6951637559338552e+18,-3.0,-6.0,3.0,0.0,0.0,-4.0,-1.0,-2.0
1.695163755936853e+18,-4.0,0.0,4.0,1.0,0.0,5.0,-1.0,-1.0
1.695163755936853e+18,2.0,0.0,-8.0,-1.0,-2.0,-2.0,-3.0,0.0
1.6951637559448484e+18,-2.0,-1.0,1.0,-3.0,-2.0,-3.0,-2.0,-1.0
1.6951637559458583e+18,0.0,0.0,-2.0,-2.0,-1.0,-2.0,-1.0,3.0
1.6951637559598387e+18,-1.0,-1.0,4.0,1.0,1.0,0.0,2.0,2.0
1.6951637559608425e+18,-3.0,-5.0,2.0,5.0,4.0,1.0,2.0,1.0
1.6951637559608425e+18,1.0,2.0,0.0,-2.0,-1.0,1.0,2.0,0.0
1.6951637559608425e+18,0.0,3.0,0.0,1.0,0.0,1.0,1.0,-1.0
1.6951637559818327e+18,0.0,-3.0,3.0,-1.0,3.0,-2.0,1.0,0.0
1.6951637559828257e+18,1.0,1.0,-5.0,-2.0,1.0,1.0,0.0,-1.0
1.6951637559828257e+18,0.0,0.0,-2.0,-1.0,1.0,1.0,0.0,1.0
1.6951637559838254e+18,-1.0,-1.0,1.0,-1.0,-1.0,0.0,0.0,-1.0
1.6951637559968174e+18,3.0,7.0,2.0,-3.0,-4.0,-2.0,-3.0,0.0
1.6951637559968174e+18,-1.0,-1.0,-2.0,-2.0,-2.0,-3.0,-1.0,0.0
1.6951637560048128e+18,-1.0,-4.0,-2.0,-2.0,-1.0,0.0,0.0,0.0
1.6951637560058127e+18,0.0,3.0,4.0,2.0,-1.0,1.0,0.0,-1.0
1.695163756027799e+18,1.0,-1.0,-4.0,-4.0,0.0,0.0,0.0,-1.0
1.695163756027799e+18,-1.0,1.0,-9.0,-1.0,1.0,0.0,-2.0,-3.0
1.695163756028799e+18,-2.0,0.0,1.0,0.0,0.0,-1.0,1.0,0.0
1.695163756028799e+18,0.0,0.0,-5.0,-5.0,-1.0,0.0,0.0,0.0
1.695163756047814e+18,0.0,5.0,7.0,1.0,0.0,-2.0,0.0,0.0
1.695163756050812e+18,-2.0,-18.0,-7.0,0.0,1.0,-2.0,0.0,-1.0
1.6951637560567834e+18,0.0,2.0,2.0,-3.0,-1.0,-1.0,-1.0,-1.0
1.695163756058782e+18,0.0,0.0,-1.0,-1.0,0.0,0.0,-1.0,0.0
1.695163756058782e+18,-1.0,-2.0,-1.0,0.0,-1.0,2.0,1.0,0.0
1.695163756058782e+18,-4.0,5.0,1.0,-1.0,-1.0,-4.0,-1.0,0.0
1.695163756072774e+18,5.0,2.0,-3.0,0.0,-3.0,1.0,-3.0,0.0
1.6951637560737743e+18,-2.0,-3.0,-7.0,-4.0,-1.0,-1.0,-2.0,0.0
1.6951637560797724e+18,-1.0,0.0,5.0,1.0,0.0,-2.0,0.0,0.0
1.6951637560807716e+18,2.0,2.0,5.0,0.0,-2.0,-1.0,-1.0,1.0
1.6951637560807716e+18,-2.0,-1.0,7.0,1.0,0.0,-1.0,0.0,-1.0
1.6951637560817772e+18,0.0,1.0,-2.0,-4.0,-3.0,-1.0,-2.0,0.0
1.6951637561017577e+18,0.0,-4.0,-5.0,-2.0,1.0,0.0,-1.0,-1.0
1.6951637561027566e+18,-1.0,2.0,2.0,-1.0,-3.0,0.0,-1.0,-2.0
1.6951637561027566e+18,-2.0,-2.0,-10.0,-1.0,-1.0,-3.0,-1.0,0.0
1.6951637561037612e+18,0.0,4.0,11.0,-2.0,-1.0,0.0,-2.0,-1.0
1.6951637561177482e+18,-1.0,-3.0,-10.0,0.0,-1.0,-1.0,0.0,1.0
1.6951637561187528e+18,3.0,-1.0,5.0,0.0,-2.0,0.0,1.0,-1.0
1.6951637561247447e+18,1.0,4.0,-3.0,-2.0,-1.0,0.0,-2.0,-1.0
1.6951637561257436e+18,0.0,-2.0,-2.0,1.0,1.0,1.0,-2.0,0.0
1.6951637561477302e+18,1.0,-1.0,-1.0,-2.0,0.0,-2.0,-1.0,-2.0
1.6951637561487311e+18,-2.0,3.0,-1.0,-2.0,1.0,1.0,0.0,-1.0
1.695163756149731e+18,-2.0,-3.0,0.0,-1.0,0.0,-1.0,1.0,-1.0
1.695163756149731e+18,-2.0,-5.0,-1.0,1.0,1.0,-1.0,1.0,0.0
1.695163756161722e+18,-1.0,-4.0,3.0,0.0,-1.0,0.0,-1.0,-1.0
1.6951637561627238e+18,0.0,2.0,1.0,-2.0,-2.0,0.0,0.0,-1.0
1.695163756163722e+18,-1.0,-1.0,2.0,1.0,-1.0,-1.0,-1.0,-1.0
1.695163756163722e+18,-1.0,-2.0,-1.0,-1.0,-1.0,-1.0,-1.0,-1.0
1.6951637561927104e+18,-3.0,-1.0,-2.0,-4.0,-2.0,0.0,-2.0,0.0
1.6951637561937055e+18,-1.0,-1.0,1.0,-3.0,-4.0,-2.0,0.0,-1.0
1.6951637561937055e+18,0.0,-2.0,-1.0,-2.0,0.0,-1.0,-2.0,-1.0
1.695163756194705e+18,-1.0,0.0,-4.0,0.0,-1.0,-1.0,0.0,-1.0
1.6951637562086966e+18,1.0,1.0,1.0,-2.0,-3.0,-2.0,-1.0,-2.0
1.6951637562156928e+18,-2.0,5.0,-11.0,-3.0,0.0,0.0,-2.0,-2.0
1.6951637562166927e+18,-4.0,1.0,7.0,7.0,2.0,0.0,-2.0,-1.0
1.6951637562166927e+18,1.0,2.0,4.0,-3.0,-2.0,-2.0,0.0,-2.0
1.6951637562216937e+18,1.0,-5.0,-1.0,1.0,2.0,-1.0,-1.0,-1.0
1.6951637562226883e+18,0.0,-1.0,0.0,-2.0,0.0,-2.0,0.0,1.0
1.6951637562226883e+18,0.0,-1.0,-8.0,-3.0,-1.0,0.0,-1.0,0.0
1.6951637562236877e+18,-1.0,-2.0,-1.0,1.0,0.0,-1.0,-1.0,-1.0
1.6951637562676628e+18,-5.0,2.0,0.0,0.0,-1.0,0.0,-2.0,0.0
1.6951637562676628e+18,0.0,-1.0,-1.0,-1.0,0.0,-1.0,0.0,0.0
1.695163756276657e+18,-1.0,-3.0,0.0,-2.0,0.0,0.0,0.0,0.0
1.695163756276657e+18,-1.0,0.0,0.0,-1.0,0.0,0.0,-1.0,-1.0
1.6951637562776563e+18,0.0,-1.0,-1.0,-2.0,-1.0,-1.0,0.0,-1.0
1.6951637562786563e+18,-1.0,-3.0,-2.0,-1.0,0.0,-1.0,-2.0,-1.0
1.6951637562786563e+18,-2.0,-3.0,-2.0,-1.0,-1.0,-2.0,1.0,-1.0
1.6951637562786563e+18,-1.0,-2.0,-4.0,-1.0,0.0,-1.0,1.0,-1.0
1.6951637562836526e+18,-1.0,1.0,-4.0,1.0,-2.0,0.0,-1.0,0.0
1.6951637562836526e+18,0.0,-1.0,2.0,3.0,-1.0,-1.0,-1.0,1.0
1.6951637562836526e+18,-1.0,-1.0,0.0,0.0,0.0,-2.0,0.0,0.0
1.695163756284652e+18,1.0,-2.0,-5.0,0.0,-1.0,-1.0,-2.0,0.0
1.6951637563046413e+18,0.0,0.0,1.0,-3.0,0.0,-1.0,-1.0,-1.0
1.6951637563046413e+18,-2.0,1.0,2.0,0.0,-1.0,2.0,-1.0,-2.0
1.6951637563116385e+18,0.0,-1.0,-1.0,-1.0,-1.0,1.0,-2.0,0.0
1.695163756312636e+18,-1.0,-1.0,-2.0,0.0,-1.0,1.0,0.0,2.0
1.6951637563196314e+18,0.0,0.0,0.0,0.0,-1.0,-2.0,0.0,-1.0
1.6951637563196314e+18,0.0,1.0,0.0,-2.0,-1.0,1.0,-2.0,-3.0
1.6951637563196314e+18,0.0,-2.0,-1.0,-1.0,1.0,-2.0,0.0,0.0
1.6951637563206313e+18,-1.0,0.0,0.0,0.0,-2.0,-3.0,-2.0,0.0
1.695163756350614e+18,-1.0,-1.0,0.0,0.0,0.0,-1.0,-2.0,1.0
1.695163756350614e+18,0.0,-1.0,-1.0,-1.0,-2.0,1.0,-1.0,-1.0
1.695163756350614e+18,0.0,-2.0,0.0,-1.0,-2.0,-1.0,0.0,-1.0
1.6951637563516165e+18,0.0,-1.0,-1.0,-2.0,-2.0,-1.0,-1.0,-1.0
1.6951637563656056e+18,-1.0,0.0,0.0,-2.0,-1.0,-1.0,0.0,0.0
1.6951637563656056e+18,0.0,-1.0,-2.0,-1.0,-2.0,0.0,-2.0,1.0
1.6951637563656056e+18,1.0,0.0,-1.0,-1.0,-1.0,1.0,-3.0,-1.0
1.695163756366605e+18,-1.0,-2.0,-1.0,-1.0,0.0,0.0,0.0,-2.0
1.695163756379598e+18,-1.0,-1.0,-1.0,0.0,-1.0,0.0,-2.0,-1.0
1.695163756379598e+18,0.0,0.0,-1.0,-2.0,-2.0,-1.0,-2.0,-1.0
1.6951637563805975e+18,0.0,0.0,-3.0,-1.0,0.0,-1.0,-2.0,0.0
1.6951637563805975e+18,-1.0,0.0,-2.0,0.0,0.0,0.0,-1.0,0.0
1.6951637564105812e+18,-1.0,-1.0,1.0,0.0,2.0,0.0,0.0,-3.0
1.6951637564125788e+18,-2.0,-2.0,0.0,0.0,0.0,-3.0,0.0,1.0
1.6951637564195756e+18,0.0,-1.0,-1.0,-1.0,-1.0,0.0,-2.0,-2.0
1.6951637564195756e+18,0.0,-1.0,-3.0,-1.0,0.0,-2.0,0.0,0.0
1.695163756425572e+18,0.0,-1.0,0.0,-1.0,0.0,0.0,0.0,0.0
1.695163756425572e+18,0.0,-1.0,-2.0,-3.0,-2.0,0.0,-1.0,0.0
1.695163756425572e+18,-2.0,0.0,-1.0,0.0,-1.0,-1.0,1.0,-1.0
1.695163756425572e+18,0.0,-1.0,-1.0,-1.0,-1.0,-1.0,-1.0,1.0
1.695163756439563e+18,0.0,0.0,0.0,1.0,-1.0,0.0,-1.0,-1.0
1.695163756439563e+18,1.0,-2.0,0.0,0.0,1.0,-1.0,0.0,-2.0
1.6951637564405622e+18,-1.0,-2.0,1.0,-2.0,-1.0,2.0,0.0,-1.0
1.6951637564405622e+18,-1.0,-1.0,1.0,-1.0,0.0,1.0,-1.0,-2.0
1.6951637564615524e+18,-1.0,0.0,-3.0,-2.0,-1.0,-1.0,0.0,0.0
1.6951637564615524e+18,-1.0,0.0,0.0,-1.0,1.0,0.0,-2.0,0.0
1.6951637564625523e+18,-1.0,-1.0,-2.0,-1.0,1.0,0.0,0.0,-1.0
1.6951637564625523e+18,0.0,1.0,-1.0,0.0,0.0,-1.0,0.0,0.0
1.6951637565015268e+18,-1.0,-3.0,0.0,1.0,-3.0,0.0,0.0,1.0
1.6951637565015268e+18,-2.0,0.0,-1.0,1.0,-1.0,-2.0,-2.0,-2.0
1.695163756502527e+18,0.0,-1.0,-2.0,0.0,-1.0,0.0,0.0,-1.0
1.695163756502527e+18,-2.0,-1.0,0.0,-1.0,0.0,-1.0,0.0,0.0
1.6951637565035264e+18,-1.0,-1.0,3.0,-3.0,-1.0,0.0,-2.0,-1.0
1.6951637565035264e+18,-2.0,-2.0,-10.0,-4.0,-4.0,0.0,0.0,0.0
1.6951637565145196e+18,0.0,-1.0,2.0,4.0,-1.0,-2.0,-2.0,1.0
1.6951637565145196e+18,-1.0,0.0,3.0,7.0,-1.0,0.0,-1.0,-1.0
1.6951637565375293e+18,-1.0,0.0,-2.0,0.0,-2.0,0.0,-2.0,-3.0
1.6951637565375293e+18,0.0,-2.0,2.0,0.0,1.0,1.0,-1.0,0.0
1.6951637565385062e+18,0.0,0.0,-2.0,-4.0,-2.0,-2.0,-1.0,-1.0
1.6951637565385062e+18,-2.0,-2.0,-2.0,-2.0,0.0,0.0,0.0,-1.0
1.6951637565455027e+18,0.0,0.0,-1.0,0.0,1.0,-1.0,0.0,0.0
1.6951637565455027e+18,-1.0,-2.0,1.0,-1.0,0.0,0.0,0.0,-1.0
1.6951637565455027e+18,-1.0,-1.0,-2.0,-3.0,-1.0,-1.0,-1.0,-1.0
1.6951637565455027e+18,0.0,1.0,0.0,-3.0,-2.0,0.0,1.0,-3.0
1.6951637565594941e+18,0.0,-2.0,-8.0,-1.0,-2.0,0.0,-2.0,-1.0
1.6951637565594941e+18,0.0,3.0,13.0,2.0,-2.0,-2.0,-1.0,0.0
1.69516375656649e+18,-1.0,-1.0,-5.0,-3.0,-1.0,-1.0,-1.0,1.0
1.6951637565674898e+18,-1.0,0.0,-5.0,-1.0,0.0,1.0,0.0,0.0
1.6951637565824842e+18,-2.0,-2.0,9.0,-3.0,0.0,-1.0,0.0,-1.0
1.6951637565834831e+18,-2.0,-2.0,-22.0,-3.0,1.0,0.0,-1.0,-2.0
1.6951637565834831e+18,-1.0,0.0,6.0,2.0,0.0,0.0,-1.0,0.0
1.6951637565834831e+18,1.0,-1.0,0.0,-1.0,0.0,0.0,-1.0,-2.0
1.6951637566124639e+18,1.0,-2.0,-1.0,1.0,-1.0,-1.0,-1.0,0.0
1.6951637566124639e+18,0.0,-1.0,1.0,-1.0,1.0,-2.0,-1.0,0.0
1.695163756613464e+18,-1.0,0.0,1.0,-2.0,-1.0,-1.0,1.0,-2.0
1.695163756613464e+18,-1.0,-2.0,-2.0,-3.0,-2.0,-1.0,-2.0,-2.0
1.695163756627479e+18,-2.0,-1.0,-7.0,4.0,-1.0,1.0,-1.0,0.0
1.695163756627479e+18,-1.0,-1.0,1.0,0.0,0.0,-1.0,-1.0,0.0
1.6951637566284554e+18,-2.0,0.0,-6.0,0.0,-2.0,-1.0,-1.0,-1.0
1.6951637566284554e+18,1.0,-1.0,3.0,-1.0,2.0,-1.0,-2.0,0.0
1.6951637566414495e+18,1.0,0.0,-1.0,-2.0,0.0,-2.0,-1.0,0.0
1.6951637566424497e+18,0.0,0.0,3.0,-2.0,-2.0,-2.0,0.0,0.0
1.6951637566424497e+18,-1.0,0.0,1.0,3.0,0.0,0.0,3.0,1.0
1.6951637566424497e+18,-1.0,-1.0,-2.0,0.0,-2.0,-1.0,0.0,1.0
1.695163756672453e+18,-2.0,1.0,-2.0,-1.0,0.0,-1.0,-1.0,-3.0
1.695163756672453e+18,-1.0,-2.0,-4.0,-1.0,-1.0,-1.0,-2.0,-2.0
1.695163756673429e+18,-1.0,1.0,1.0,-1.0,0.0,1.0,0.0,-2.0
1.695163756673429e+18,0.0,-2.0,-2.0,-1.0,-1.0,-1.0,0.0,-1.0
1.6951637566874225e+18,1.0,0.0,-3.0,-4.0,-2.0,-2.0,0.0,-1.0
1.6951637566874225e+18,-2.0,-1.0,2.0,-1.0,-2.0,-1.0,0.0,1.0
1.6951637566884204e+18,-2.0,-3.0,-2.0,-1.0,-1.0,-1.0,-1.0,-2.0
1.6951637566884204e+18,-1.0,0.0,-1.0,0.0,-1.0,0.0,1.0,-1.0
1.6951637567024353e+18,0.0,-1.0,-1.0,-2.0,-1.0,0.0,-1.0,-1.0
1.6951637567024353e+18,-1.0,-1.0,1.0,0.0,0.0,1.0,1.0,-2.0
1.6951637567034117e+18,0.0,1.0,1.0,-1.0,0.0,-1.0,-1.0,-2.0
1.6951637567034117e+18,-1.0,-1.0,-4.0,-3.0,-1.0,-1.0,-2.0,0.0
1.6951637567324237e+18,-1.0,-2.0,0.0,-1.0,-2.0,1.0,0.0,1.0
1.6951637567324237e+18,-1.0,-1.0,0.0,1.0,1.0,0.0,-1.0,-1.0
1.6951637567333965e+18,-1.0,-3.0,-4.0,-1.0,0.0,0.0,-2.0,0.0
1.6951637567333965e+18,0.0,-1.0,0.0,-1.0,-1.0,-1.0,1.0,-1.0
1.695163756739818e+18,0.0,0.0,0.0,-1.0,0.0,-1.0,-1.0,-1.0
1.695163756739818e+18,-1.0,0.0,0.0,-1.0,1.0,-1.0,1.0,2.0
1.695163756739818e+18,-2.0,-1.0,1.0,-3.0,0.0,-1.0,-2.0,0.0
1.695163756739818e+18,-1.0,-2.0,0.0,0.0,-1.0,0.0,1.0,-1.0
1.6951637567698196e+18,-1.0,-3.0,-2.0,1.0,-1.0,-1.0,0.0,-1.0
1.6951637567698196e+18,0.0,-1.0,-2.0,-1.0,-1.0,0.0,-1.0,-1.0
1.6951637567769234e+18,-2.0,-1.0,1.0,-1.0,0.0,0.0,-2.0,-1.0
1.6951637567769234e+18,-1.0,-1.0,-1.0,0.0,-1.0,-3.0,-1.0,0.0
1.6951637567928123e+18,0.0,0.0,0.0,1.0,-3.0,0.0,0.0,-2.0
1.6951637567928123e+18,0.0,0.0,0.0,-1.0,0.0,0.0,0.0,-1.0
1.6951637567938107e+18,1.0,0.0,0.0,-1.0,0.0,-2.0,0.0,0.0
1.6951637567938107e+18,-1.0,1.0,0.0,-1.0,-1.0,1.0,-1.0,-1.0
1.6951637568073605e+18,-2.0,-1.0,-3.0,-2.0,-1.0,1.0,0.0,-1.0
1.6951637568073605e+18,-2.0,-1.0,-3.0,0.0,-1.0,0.0,-2.0,0.0
1.6951637568148083e+18,-1.0,-2.0,-1.0,-2.0,-2.0,-1.0,-1.0,-1.0
1.6951637568148083e+18,0.0,-2.0,-2.0,-1.0,-2.0,-1.0,-1.0,-1.0
1.69516375682194e+18,1.0,1.0,0.0,0.0,1.0,-2.0,1.0,-1.0
1.69516375682194e+18,0.0,-1.0,0.0,-2.0,0.0,-2.0,1.0,1.0
1.6951637568228833e+18,0.0,0.0,-1.0,0.0,0.0,-2.0,-2.0,0.0
1.6951637568228833e+18,0.0,0.0,0.0,0.0,0.0,-1.0,-1.0,-1.0
1.6951637568758932e+18,0.0,1.0,0.0,-2.0,1.0,-1.0,-1.0,-1.0
1.6951637568758932e+18,-2.0,-1.0,0.0,-1.0,0.0,0.0,-1.0,-1.0
1.6951637568758932e+18,-1.0,0.0,-1.0,-1.0,-2.0,0.0,-1.0,-2.0
1.6951637568758932e+18,-1.0,0.0,1.0,0.0,-1.0,-2.0,-1.0,0.0
1.6951637568848243e+18,-2.0,-1.0,0.0,0.0,-1.0,-2.0,0.0,0.0
1.6951637568858345e+18,0.0,-2.0,-1.0,-1.0,-2.0,-1.0,1.0,-1.0
1.6951637568858345e+18,-2.0,1.0,-1.0,0.0,-1.0,1.0,0.0,0.0
1.6951637568858345e+18,-1.0,-1.0,-2.0,-1.0,-2.0,-1.0,-2.0,-1.0
