timestamp,left_data_Ac_X,left_data_Ac_Y,left_data_Ac_Z,left_data_Gy_X,left_data_Gy_Y,left_data_Gy_Z,left_data_flex_1,left_data_flex_2,left_data_flex_3,left_data_flex_4,left_data_flex_5,right_data_Ac_X,right_data_Ac_Y,right_data_Ac_Z,right_data_Gy_X,right_data_Gy_Y,right_data_Gy_Z,right_data_flex_1,right_data_flex_2,right_data_flex_3,right_data_flex_4,right_data_flex_5
1695162690997177800,-8.960299492,-0.948103845,-0.453701228,-0.543050528,0.035572741,-0.212637067,10,22,43,44,88,-8.601169586,4.104858875,1.053448796,-0.79992038,-0.024914242,0.163474724,-47,-24,-14,33,178
1695162690998177800,-8.961497307,-0.942118347,-0.466869324,-0.552110255,0.035972435,-0.204776406,17,25,37,44,87,-8.607154846,4.109647274,1.033097982,-0.799120963,-0.02571363,0.162941799,-50,-20,-9,35,180
1695162690999177800,-8.963891029,-0.937329948,-0.480037451,-0.561169982,0.03650536,-0.196249619,16,23,37,42,91,-8.61314106,4.113238335,1.016338587,-0.798188388,-0.026113322,0.162542105,-51,-24,-5,37,178
1695162691000177800,-8.965087891,-0.936132848,-0.490811348,-0.570096493,0.037304748,-0.187056661,17,27,36,40,88,-8.622717857,4.119224072,0.986411095,-0.796456337,-0.025980091,0.161742732,-50,-20,-11,36,181
1695162691001177800,-8.965087891,-0.937329948,-0.502782345,-0.578756511,0.038370594,-0.177330777,8,27,43,40,89,-8.629899979,4.120420933,0.975637197,-0.795923412,-0.025846859,0.161609486,-53,-24,-8,34,179
1695162691091120100,-8.919598579,-1.195903778,-0.671573579,-0.608467042,0.086600304,0.094061248,16,27,38,42,92,-9.593565941,4.434061527,0.788889468,-0.776871383,-0.02158346,0.140825421,-44,-21,-12,38,177
1695162691092120100,-8.916007042,-1.218648672,-0.679953277,-0.600206733,0.089797854,0.11191424,11,26,39,43,88,-9.593565941,4.489128113,0.821211159,-0.783133209,-0.011058193,0.137094945,-49,-24,-16,33,176
1695162691093120100,-8.913613319,-1.241393566,-0.688332975,-0.590880513,0.09272895,0.129500762,17,25,37,42,89,-9.589975357,4.542997837,0.849941611,-0.791793287,0.000666156,0.133231238,-55,-22,-11,34,180
1695162691094120100,-8.908824921,-1.26653266,-0.694318473,-0.580355287,0.0955268,0.147353753,16,25,40,40,88,-9.58039856,4.589684486,0.870292306,-0.802585006,0.013589587,0.129767224,-49,-21,-14,34,180
1695162691095120100,-8.907627106,-1.288080573,-0.697909772,-0.568630934,0.098591112,0.165339977,16,23,38,43,87,-9.557653427,4.630385876,0.888248801,-0.815641701,0.027312404,0.126836136,-47,-30,-15,36,180
1695162691131099700,-8.868123055,-1.502361536,-0.713472128,-0.264330775,0.103520676,0.464710563,16,25,41,40,91,-9.017760277,4.589684486,0.829590917,-1.040935636,0.096059717,0.314958632,-51,-25,-14,37,178
1695162691132099700,-8.866926193,-1.505952835,-0.714669228,-0.250075042,0.101921894,0.478566617,16,21,41,40,84,-8.996212959,4.565742493,0.830788016,-1.043200612,0.088998467,0.339206725,-51,-20,-11,37,181
1695162691133099700,-8.864531517,-1.513135433,-0.714669228,-0.236485451,0.100189894,0.492156208,16,26,39,43,91,-8.981847763,4.550180435,0.834379315,-1.044266462,0.084068909,0.355860651,-57,-20,-13,36,178
1695162691134099700,-8.865729332,-1.514332533,-0.714669228,-0.22382848,0.098591112,0.505346119,27,27,39,42,88,-8.968679428,4.526238441,0.842759013,-1.044932604,0.076474734,0.381307811,-49,-23,-8,36,180
1695162691135099700,-8.865729332,-1.514332533,-0.718260527,-0.211704448,0.096725874,0.518269539,16,25,39,42,91,-8.955511093,4.497508049,0.845153213,-1.044932604,0.068747319,0.407021433,-53,-21,-11,33,177
1695162691167077100,-8.882488251,-1.59932673,-0.811634362,-0.104453288,0.07820674,0.694267988,8,23,35,39,87,-9.156624794,3.987542868,0.726640224,-0.847084224,-0.122173049,0.873330772,-49,-25,-11,36,182
1695162691168077100,-8.888473511,-1.606509328,-0.82001406,-0.102454826,0.077807046,0.699597239,10,19,38,43,92,-9.17697525,3.965995073,0.714669228,-0.833894312,-0.131765693,0.897312403,-49,-21,-11,36,179
1695162691169077100,-8.896853447,-1.613691926,-0.825999558,-0.100589581,0.07714089,0.704526782,16,23,37,38,89,-9.202114105,3.944447279,0.702698171,-0.820837617,-0.141091883,0.921294034,-49,-20,-15,34,182
1695162691170077100,-8.905233383,-1.628057122,-0.831985116,-0.098990813,0.076474734,0.709056675,9,22,33,40,89,-9.222464561,3.921702385,0.687135875,-0.807781041,-0.150151595,0.945408881,-44,-21,-8,40,179
1695162691171077100,-8.914810181,-1.63643682,-0.835576415,-0.097258806,0.076075032,0.713453233,16,29,36,39,89,-9.248801231,3.896563292,0.664390981,-0.794857562,-0.159344569,0.969523728,-50,-19,-11,34,182
1695162691204057600,-9.162610054,-1.851915002,-0.951695204,-0.043433387,0.084868304,0.747693717,8,22,39,42,91,-9.564835548,3.256114244,0.365115762,-0.436332315,-0.27738744,1.361090302,-57,-21,-11,37,177
1695162691205057600,-9.17697525,-1.861491799,-0.9648633,-0.037837673,0.086600304,0.747427285,18,25,39,41,88,-9.551667213,3.215412855,0.362721562,-0.410485446,-0.27738744,1.374679923,-51,-22,-9,37,180
1695162691206057600,-9.194931984,-1.872265697,-0.970848799,-0.031842265,0.088465542,0.746761084,9,25,41,44,87,-9.533711433,3.190273762,0.368707061,-0.384505361,-0.276588053,1.38733685,-50,-20,-9,38,178
1695162691207057600,-9.212887764,-1.885433793,-0.979228497,-0.025447167,0.090597242,0.745961726,16,21,36,40,89,-9.5157547,3.168725967,0.36990416,-0.359591126,-0.274856061,1.39879477,-54,-23,-11,32,177
1695162691208057600,-9.224859238,-1.895010591,-0.987608194,-0.019052068,0.092862174,0.744762659,16,25,39,41,91,-9.493009567,3.142389774,0.375889659,-0.334676892,-0.272324651,1.409186721,-53,-20,-11,38,177
1695162691247030400,-9.364919662,-2.074575663,-1.079784989,0.135496169,0.146287903,0.656430304,8,25,39,40,87,-8.494627953,2.825158119,0.723048925,0.017320061,-0.081271052,1.378277183,-49,-24,-8,42,180
1695162691248030400,-9.361329079,-2.08295536,-1.07739079,0.144555897,0.150151595,0.647903562,16,27,36,38,88,-8.42759037,2.814383984,0.754173517,0.02384839,-0.065949462,1.363355279,-44,-21,-9,41,178
1695162691249030400,-9.357737541,-2.087743998,-1.073799491,0.153882071,0.154015318,0.638977051,11,22,41,39,88,-8.359354973,2.804807186,0.787692368,0.029444104,-0.049961712,1.347101092,-49,-23,-8,42,178
1695162691250030400,-9.35654068,-2.090138197,-1.073799491,0.163075045,0.157612562,0.629517615,16,22,37,42,89,-8.270770073,2.786850691,0.835576415,0.034640122,-0.028245023,1.323918939,-51,-24,-13,40,180
1695162691251030400,-9.354146004,-2.092532396,-1.07739079,0.172267988,0.161343038,0.619791746,9,22,40,40,89,-8.204929352,2.777273893,0.876277804,0.036905054,-0.011457887,1.305000067,-49,-22,-12,37,179
1695162691286012500,-9.257181168,-2.036268473,-1.042674899,0.319488525,0.217833072,0.401292503,6,25,37,42,89,-7.54532671,2.609679937,1.663970232,-0.158545166,0.279252678,0.766745806,-49,-21,-9,42,182
1695162691287012500,-9.254786491,-2.021903276,-1.042674899,0.32468453,0.218898922,0.388369083,16,22,36,40,88,-7.547720909,2.596511841,1.695094824,-0.173733547,0.289111793,0.731572747,-48,-21,-8,43,180
1695162691288012500,-9.254786491,-2.012326479,-1.045069098,0.328015327,0.219698325,0.379442573,10,25,35,40,91,-7.55131197,2.586935043,1.727416515,-0.188788652,0.298038274,0.695600271,-49,-19,-9,40,181
1695162691289012500,-9.254786491,-1.999158382,-1.046266198,0.332545161,0.220364481,0.366385907,16,25,38,43,91,-7.558494568,2.577358246,1.762132406,-0.203444093,0.30643183,0.65909493,-50,-19,-12,41,180
1695162691290012500,-9.257181168,-1.983596087,-1.049857497,0.336275637,0.220764175,0.353062779,16,25,39,40,89,-7.564480305,2.573766708,1.801636815,-0.217966303,0.313759565,0.622323155,-51,-21,-9,42,181
1695162691322989100,-9.39484787,-1.67234993,-1.052251697,0.31788975,0.206108719,0.123238891,5,23,41,38,91,-8.024167061,2.693476915,2.364274263,-0.446058184,0.340539038,-0.108983152,-46,-20,-8,38,180
1695162691323989100,-9.399636269,-1.655590534,-1.049857497,0.312427253,0.205309346,0.112047479,6,28,35,36,88,-8.056488991,2.698265314,2.384624958,-0.452053577,0.336275637,-0.144555897,-50,-21,-13,36,178
1695162691324989100,-9.409213066,-1.641225219,-1.045069098,0.30643183,0.204509944,0.101255737,16,25,37,42,87,-8.090007782,2.704250813,2.398990154,-0.457516104,0.331479341,-0.179462478,-47,-20,-7,40,177
1695162691325989100,-9.417592049,-1.628057122,-1.047463298,0.299903542,0.203710571,0.090597242,9,27,37,40,85,-8.127118111,2.706645012,2.406172752,-0.461912692,0.326016843,-0.213702917,-47,-21,-8,44,182
1695162691326989100,-9.421183586,-1.614889026,-1.052251697,0.293375194,0.202511474,0.07993874,5,21,35,40,87,-8.160636902,2.709039211,2.41455245,-0.464710563,0.319888234,-0.247143939,-49,-19,-8,40,180
1695162691357991900,-9.317035675,-1.509544134,-1.106121182,0.166672289,0.165473193,-0.088998467,5,22,36,38,87,-8.730456352,2.85867691,2.480392933,-0.26020062,0.146421134,-0.709323108,-51,-23,-12,37,181
1695162691358991900,-9.30386734,-1.504755735,-1.112106681,0.161343038,0.162142411,-0.098324656,16,19,39,41,88,-8.752004623,2.876633406,2.475604534,-0.239949465,0.135762632,-0.724511504,-49,-21,-9,36,179
1695162691359991900,-9.287108421,-1.499967337,-1.11450088,0.156147003,0.158944875,-0.107517615,8,23,35,42,89,-8.773551941,2.893392801,2.468421936,-0.219298616,0.125370592,-0.738900423,-45,-20,-9,38,180
1695162691360991900,-9.276334763,-1.493981838,-1.119289279,0.151217461,0.155614093,-0.116843797,6,23,36,39,88,-8.797493935,2.925714493,2.460042238,-0.199980095,0.114712104,-0.752756536,-51,-21,-9,37,182
1695162691361991900,-9.264363289,-1.48560214,-1.130063176,0.146554366,0.152416542,-0.126036748,17,28,41,44,89,-8.81066227,2.948459387,2.448071241,-0.188255742,0.107384384,-0.762215912,-50,-24,-11,40,182
1695162691398946500,-9.373299599,-1.26533556,-1.231816769,0.059154671,0.093395106,-0.259667695,17,22,35,39,87,-8.924386978,3.626018524,2.11647439,0.002664625,-0.005995406,-0.894381285,-50,-21,-8,40,180
1695162691399946500,-9.39484787,-1.249773264,-1.237802267,0.052626338,0.089531392,-0.263931066,9,23,38,40,89,-8.918401718,3.657143116,2.102109194,-0.002931087,-0.001998469,-0.895180702,-49,-25,-9,35,180
1695162691400946500,-9.417592049,-1.236605167,-1.248576164,0.045698319,0.085534461,-0.267395109,8,26,37,40,87,-8.911218643,3.693056107,2.085349798,-0.009592649,0.003064318,-0.895313919,-47,-19,-8,40,178
1695162691401946500,-9.441534042,-1.223437071,-1.259350061,0.038503829,0.081271052,-0.270725876,16,22,36,39,88,-8.901641846,3.724180698,2.063801765,-0.017320061,0.009192956,-0.895047486,-49,-20,-9,37,180
1695162691402946500,-9.455899239,-1.216254473,-1.26413846,0.033707503,0.07820674,-0.27272436,6,21,39,41,88,-8.888473511,3.749319792,2.041056871,-0.025846859,0.01612098,-0.893981636,-49,-23,-11,36,178
1695162691436921500,-9.698910713,-1.047463298,-1.511938334,-0.127901986,-0.0042634,-0.284315467,10,26,37,39,84,-8.615534782,3.82713151,1.583764434,-0.167471662,0.160277188,-0.751424193,-49,-22,-9,38,182
1695162691437921500,-9.698910713,-1.047463298,-1.52510643,-0.137094945,-0.006528331,-0.284182221,9,25,37,39,89,-8.605957985,3.818751812,1.55862534,-0.167604893,0.162941799,-0.738367558,-47,-19,-13,36,181
1695162691438921500,-9.701305389,-1.045069098,-1.538274646,-0.146287903,-0.008127105,-0.283915788,6,18,35,40,89,-8.601169586,3.804386616,1.538274646,-0.166672289,0.164540574,-0.724644721,-49,-21,-9,38,178
1695162691439921500,-9.697713852,-1.046266198,-1.549048543,-0.155214384,-0.009326187,-0.283649325,10,21,39,42,86,-8.595184326,3.791218281,1.515529633,-0.164807037,0.165872887,-0.710655391,-53,-24,-15,36,180
1695162691440921500,-9.696516991,-1.046266198,-1.56101954,-0.164007664,-0.010125575,-0.283649325,16,22,37,39,89,-8.590395927,3.782838583,1.497573137,-0.163075045,0.166272581,-0.701062799,-50,-19,-11,37,182
1695162691474902600,-9.50976944,-1.229422569,-1.610100627,-0.231955588,0.066615619,-0.270725876,5,19,36,38,89,-8.537723541,3.49673152,1.175553083,0.054091886,0.161209792,-0.417280257,-50,-19,-9,37,180
1695162691475902600,-9.494206429,-1.244984865,-1.605312228,-0.228091896,0.07274425,-0.269660026,9,21,39,36,85,-8.541314125,3.479972124,1.157596469,0.072477795,0.162408888,-0.405555874,-45,-21,-6,38,178
1695162691476902600,-9.478644371,-1.259350061,-1.59932673,-0.223295555,0.078739658,-0.268460959,16,21,39,40,89,-8.543708801,3.465606928,1.143231273,0.091529861,0.163607955,-0.394098014,-53,-20,-8,38,180
1695162691477902600,-9.469067574,-1.271321058,-1.59932673,-0.217966303,0.084335379,-0.267261863,17,25,39,42,87,-8.546102524,3.448847532,1.127668977,0.110981621,0.164940268,-0.382906556,-49,-24,-12,38,181
1695162691478902600,-9.458293915,-1.285686255,-1.59693253,-0.211571202,0.089398161,-0.266329229,5,26,37,44,87,-8.547300339,3.432088137,1.109712481,0.131232768,0.166139349,-0.372114837,-47,-23,-11,35,180
1695162691535866800,-9.248801231,-1.365892053,-1.456871748,0.015987748,0.104453288,-0.257136285,5,18,37,39,87,-8.789113998,3.538630009,1.042674899,0.454318523,0.223428801,-0.261799395,-51,-20,-9,36,183
1695162691536866800,-9.245209694,-1.359906554,-1.443703651,0.029710567,0.102055125,-0.25660339,17,23,39,39,86,-8.820239067,3.557783842,1.054645896,0.460580379,0.228491575,-0.261532933,-53,-22,-8,37,177
1695162691537866800,-9.241618156,-1.351526856,-1.434126854,0.043033689,0.099790201,-0.25553751,8,21,37,42,87,-8.856152534,3.578134537,1.057040095,0.465110272,0.233554363,-0.262065858,-49,-22,-9,36,179
1695162691538866800,-9.240421295,-1.345541358,-1.426944256,0.051560488,0.098058186,-0.255004585,6,18,36,39,86,-8.896853447,3.597288132,1.059434295,0.467908114,0.238750383,-0.262998462,-47,-21,-13,29,174
1695162691539866800,-9.238027573,-1.332373261,-1.419761658,0.063950993,0.095393561,-0.253938764,9,22,40,40,85,-8.943540573,3.620033026,1.063025594,0.469240427,0.243679941,-0.264597237,-51,-25,-12,34,176
1695162691612822200,-9.236829758,-1.00436759,-1.349132657,0.109649308,0.038770292,-0.211837664,8,21,38,37,85,-10.15859795,4.028244495,1.113303781,0.293774903,0.285114855,-0.361456335,-48,-17,-8,37,182
1695162691613822200,-9.238027573,-0.994790792,-1.357512355,0.10258805,0.035572741,-0.208640128,8,25,39,38,85,-10.17535686,4.036623955,1.120486379,0.281384379,0.286313951,-0.366652369,-47,-18,-9,40,180
1695162691614822200,-9.239224434,-0.985213995,-1.355118155,0.094993874,0.032241959,-0.205442563,16,21,37,41,88,-10.1837368,4.036623955,1.126471877,0.269926488,0.287513018,-0.371049017,-47,-19,-9,38,180
1695162691615822200,-9.241618156,-0.976834297,-1.355118155,0.086999997,0.02904441,-0.202511474,10,22,32,42,85,-10.1789484,4.035427094,1.134851575,0.259667695,0.288578868,-0.374379784,-47,-19,-9,38,179
1695162691616822200,-9.245209694,-0.969651699,-1.352723956,0.07820674,0.025580399,-0.199447155,17,23,41,39,83,-10.16458321,4.036623955,1.138442874,0.250075042,0.289511472,-0.376911163,-46,-23,-10,38,178
1695162691649802200,-9.307458878,-0.972045898,-1.380257249,-0.072877489,-0.048629403,-0.129633993,17,23,40,40,87,-8.694543839,3.446453333,0.974440098,0.442327708,0.204776406,-0.171468601,-49,-21,-9,36,180
1695162691650802200,-9.311050415,-0.975637197,-1.386242747,-0.077807046,-0.052226644,-0.124038287,17,23,40,39,85,-8.597578049,3.400963545,0.960074902,0.476568133,0.192785591,-0.147620216,-50,-22,-9,36,177
1695162691651802200,-9.313444138,-0.985213995,-1.388636947,-0.082203679,-0.055690661,-0.117909648,8,24,37,44,87,-8.474276543,3.34469986,0.939724147,0.52506429,0.176531389,-0.114978559,-49,-21,-1,37,181
1695162691652802200,-9.312247276,-0.992396593,-1.392228246,-0.086067379,-0.058754977,-0.111647777,9,20,42,39,89,-8.390480042,3.305195332,0.93014735,0.563168406,0.164007664,-0.090064317,-45,-19,-6,38,174
1695162691653802200,-9.313444138,-0.999579191,-1.392228246,-0.089398161,-0.061952524,-0.105385914,8,23,37,39,87,-8.310274124,3.27287364,0.924161851,0.601938725,0.151084229,-0.065283306,-44,-18,-8,38,180
1695162691689777700,-9.187748909,-1.171961784,-1.400607944,-0.087133229,-0.091663092,0.005595712,9,22,40,39,87,-7.414842606,3.108870983,0.907402456,1.180695295,-0.051560488,0.211038291,-45,-22,-8,40,177
1695162691690777700,-9.181763649,-1.176750183,-1.398213744,-0.086200617,-0.09272895,0.009326187,8,26,39,41,84,-7.407660007,3.113659382,0.907402456,1.191486955,-0.057422664,0.211837664,-46,-18,-8,42,178
1695162691691777700,-9.17697525,-1.180341482,-1.394622445,-0.085800916,-0.093794793,0.01292343,9,18,39,42,87,-7.405265808,3.116053581,0.902614057,1.197215915,-0.061019909,0.211437985,-48,-19,-12,39,179
1695162691692777700,-9.166201591,-1.185129881,-1.394622445,-0.085534461,-0.094860643,0.016387442,16,26,39,39,88,-7.405265808,3.124433279,0.894234359,1.204010725,-0.066349156,0.209705979,-51,-21,-7,40,180
1695162691693777700,-9.155426979,-1.18872118,-1.394622445,-0.085534461,-0.095926493,0.019451762,16,22,38,38,87,-7.412448406,3.137601376,0.882263303,1.207874417,-0.071278714,0.206508413,-53,-20,-9,40,180
1695162691732777400,-9.028534889,-1.296460271,-1.276109457,-0.118042871,-0.13656202,0.043833077,16,25,37,45,90,-8.81066227,3.353079557,0.301669419,0.999101043,-0.212503821,-0.127502292,-45,-21,-7,46,181
1695162691733777400,-9.027337074,-1.302445769,-1.273715258,-0.120174579,-0.140026033,0.044366002,6,25,45,40,87,-8.882488251,3.378218651,0.277727395,0.982313931,-0.215168446,-0.155747324,-48,-19,-8,44,182
1695162691734777400,-9.027337074,-1.312022567,-1.271321058,-0.122972436,-0.144689128,0.045298621,9,23,43,41,88,-8.942343712,3.399766445,0.252588272,0.965660036,-0.21610108,-0.184525266,-54,-21,-7,46,181
1695162691735777400,-9.027337074,-1.314416766,-1.268926859,-0.124970905,-0.148286372,0.046098009,17,22,41,40,85,-8.986636162,3.423708439,0.228646263,0.949405789,-0.215301678,-0.213702917,-46,-20,-6,46,176
1695162691736777400,-9.027337074,-1.316810966,-1.26653266,-0.12723583,-0.152150065,0.046764165,20,22,41,38,90,-9.021351814,3.446453333,0.20470424,0.933418036,-0.212903515,-0.242880553,-45,-19,-4,44,182
1695162691768736300,-9.088389397,-1.343147159,-1.26533556,-0.192519143,-0.236485451,0.065949462,9,20,39,40,85,-8.489839554,3.817554712,-0.16759412,0.705592692,0.077274114,-0.647104144,-44,-22,-7,45,178
1695162691769736300,-9.093177795,-1.340752959,-1.268926859,-0.198248088,-0.241281778,0.067015313,17,21,35,39,87,-8.482656479,3.82713151,-0.175973818,0.697332263,0.095660031,-0.653099477,-46,-23,-9,44,183
1695162691770736300,-9.09437561,-1.340752959,-1.273715258,-0.204509944,-0.245944872,0.067681469,11,19,39,38,87,-8.482656479,3.836708307,-0.183156431,0.688938737,0.113779478,-0.657362938,-47,-21,-5,44,181
1695162691771736300,-9.09437561,-1.341950059,-1.278503656,-0.210771829,-0.250741184,0.068480857,9,18,36,38,83,-8.491036415,3.848679304,-0.190339029,0.680545151,0.131765693,-0.660027564,-44,-22,-7,43,180
1695162691772736300,-9.095572472,-1.343147159,-1.285686255,-0.217033699,-0.255271077,0.069147013,8,22,39,41,88,-8.511386871,3.859453201,-0.195127442,0.672018409,0.149485439,-0.66122669,-49,-20,-4,45,182
1695162691802715500,-9.696516991,-1.169567585,-1.580173135,-0.378509969,-0.358658493,0.047563553,8,19,37,37,87,-9.47744751,4.584896088,0.192733243,0.278586507,0.423941821,-0.790061235,-47,-19,-8,44,181
1695162691803715500,-9.781511307,-1.144428372,-1.608903527,-0.392898917,-0.367585003,0.046364475,8,22,39,40,87,-9.504981041,4.641160011,0.223857865,0.236085743,0.436598748,-0.80458343,-47,-21,-9,41,178
1695162691804715500,-9.866505623,-1.121683478,-1.63643682,-0.408087283,-0.376244992,0.046098009,5,23,41,39,85,-9.514557838,4.693832397,0.256179571,0.19118683,0.448989272,-0.819105625,-51,-23,-12,42,176
1695162691805715500,-9.946710587,-1.104924083,-1.662773132,-0.424075037,-0.384638578,0.046497703,9,21,36,39,85,-9.520543098,4.742913723,0.284909993,0.144289434,0.460713625,-0.833361447,-49,-21,-7,42,181
1695162691806715500,-10.02212811,-1.089361787,-1.681926727,-0.440728962,-0.392632455,0.048096478,16,23,39,39,83,-9.522936821,4.786009312,0.310049117,0.095793262,0.471905053,-0.846951008,-46,-21,-9,42,179
1695162691838691800,-9.346963882,-1.509544134,-1.999158382,-0.633381307,-0.349998444,0.146421134,6,19,39,42,88,-9.136273384,4.732139587,0.497993946,-0.678813219,0.567831576,-0.827765703,-47,-23,-9,43,178
1695162691839691800,-9.240421295,-1.540668845,-2.00753808,-0.632448673,-0.336808592,0.149485439,11,21,42,39,87,-9.113529205,4.691438198,0.496796846,-0.695200622,0.563834608,-0.807647824,-44,-23,-9,46,181
1695162691840691800,-9.141061783,-1.572990537,-2.013523579,-0.630716681,-0.32255286,0.151617154,6,21,40,39,85,-9.090784073,4.65193367,0.499191046,-0.708123982,0.558505356,-0.785664618,-47,-21,-13,38,180
1695162691841691800,-9.045293808,-1.602918029,-2.014720678,-0.628052056,-0.30749771,0.152549773,8,25,43,44,85,-9.072827339,4.60764122,0.497993946,-0.717183769,0.552243471,-0.761816204,-50,-19,-8,40,182
1695162691842691800,-8.949525833,-1.63763392,-2.012326479,-0.624454796,-0.290977001,0.152816221,9,21,44,41,89,-9.048885345,4.562151432,0.496796846,-0.722246528,0.545182228,-0.736635566,-49,-20,-8,40,178
1695162691876694700,-8.540117264,-2.15597868,-1.511938334,-0.297638565,0.05595712,0.083535992,9,25,44,39,85,-8.675390244,3.788824081,0.379480958,-0.212903515,0.206908107,-0.107650839,-45,-18,-7,42,182
1695162691877694700,-8.590395927,-2.176329374,-1.472434044,-0.267661542,0.065816231,0.083402753,10,18,41,43,85,-8.676587105,3.781641483,0.385466486,-0.171068922,0.182526797,-0.074343033,-48,-19,-2,39,182
1695162691878694700,-8.649053574,-2.200271368,-1.432929754,-0.236218989,0.074076563,0.084068909,6,27,40,38,84,-8.684967041,3.774458885,0.396240383,-0.130166918,0.158278719,-0.041701376,-46,-20,-9,47,181
1695162691879694700,-8.706514359,-2.224213362,-1.399410844,-0.203710571,0.080471672,0.085800916,8,22,41,42,88,-8.699332237,3.770867586,0.405817181,-0.090597242,0.134430319,-0.010125575,-45,-20,-9,40,178
1695162691880694700,-8.765172005,-2.245761156,-1.369483352,-0.170003071,0.084868304,0.088465542,4,23,41,39,87,-8.716091156,3.774458885,0.417788208,-0.052626338,0.111114852,0.02051761,-48,-21,-14,41,181
1695162691910654400,-9.695320129,-2.108094692,-1.11569798,0.447923422,-0.078872897,0.123638593,9,20,34,38,78,-9.355342865,3.82593441,0.271741897,0.325617135,-0.234486982,0.37238133,-47,-21,-9,41,180
1695162691911654400,-9.718064308,-2.079364061,-1.108515382,0.466575801,-0.09246248,0.119508423,8,22,40,40,83,-9.380482674,3.822343111,0.246602774,0.333611012,-0.248209804,0.377444088,-45,-19,-6,42,182
1695162691912654400,-9.737217903,-2.050633669,-1.103726983,0.482430339,-0.105385914,0.114312403,8,18,37,43,85,-9.405621529,3.821146011,0.220266551,0.341205209,-0.261932611,0.381574243,-51,-21,-11,41,181
1695162691913654400,-9.751583099,-2.020706177,-1.096544385,0.495220512,-0.116977029,0.108183771,5,21,37,35,83,-9.421183586,3.818751812,0.20470424,0.346001506,-0.271125585,0.383972436,-49,-20,-9,41,178
1695162691914654400,-9.762357712,-1.987187386,-1.091755986,0.505212903,-0.127635539,0.101388969,8,17,37,42,87,-9.440337181,3.817554712,0.180762231,0.352929562,-0.284581929,0.386770278,-47,-24,-11,40,182
1695162692099458400,2.917334795,0.238223076,2.476801634,-1.708557367,4.365588188,4.365588188,28,1,-36,16,25,-2.263717651,2.952050686,10.79904652,-1.434367537,-2.146088839,0.859874368,-85,-34,-69,-1,157
1695162692100458400,2.551021814,0.368707061,2.37863946,-1.805016756,4.365588188,4.365588188,35,10,-28,24,32,-2.213439465,2.719813108,10.70088482,-1.630617142,-2.303168535,0.742630899,-86,-34,-69,-2,154
1695162692101458400,2.171540976,0.471657723,2.298433542,-1.899078012,4.365588188,4.365588188,31,10,-25,24,32,-2.15597868,2.485181332,10.59314537,-1.820471644,-2.45065546,0.628718197,-83,-34,-68,-1,156
1695162692102458400,1.774103403,0.537498295,2.221819162,-1.991673827,4.365588188,4.365588188,31,17,-28,24,33,-2.102109194,2.260126352,10.46625233,-2.004997015,-2.587750435,0.517736614,-82,-34,-68,-1,158
1695162692103458400,1.357512355,0.554257691,2.163161278,-2.082404375,4.365588188,4.365588188,18,0,-38,13,22,-2.057816267,2.053027868,10.3357687,-2.185258865,-2.714986086,0.4082205,-85,-34,-69,-2,156
1695162692226384400,-9.159018517,-1.276109457,-0.970848799,0.087133229,0.111514546,-0.424741209,-12,0,-21,12,19,-8.675390244,5.116408825,0.537498295,-0.362388968,-0.105652377,0.294574291,-70,-34,-28,24,161
1695162692227384400,-9.151836395,-1.278503656,-0.960074902,0.086866774,0.109382853,-0.414482385,-3,1,-19,10,17,-8.680178642,5.100846767,0.521935999,-0.385437965,-0.099390499,0.306964755,-67,-35,-23,21,160
1695162692228384400,-9.143456459,-1.282094955,-0.956483603,0.086733535,0.107251145,-0.403690636,0,17,-7,19,30,-8.690952301,5.085284233,0.517147541,-0.407554358,-0.093661562,0.320154667,-72,-34,-25,21,161
1695162692229384400,-9.133879662,-1.283292055,-0.949300945,0.086600304,0.104852989,-0.393032134,-1,10,-9,18,29,-8.700529099,5.068524837,0.503979445,-0.428471655,-0.088465542,0.334410399,-67,-34,-24,24,161
1695162692230384400,-9.125499725,-1.282094955,-0.946906745,0.086467072,0.102454826,-0.382107198,-12,-1,-23,8,17,-8.710105896,5.046977043,0.494402647,-0.448456347,-0.084068909,0.349465549,-70,-34,-25,20,158
1695162692268362300,-9.111134529,-1.514332533,-0.851138711,-0.103387438,0.004796324,0.012124043,-11,0,-18,13,25,-8.677783966,4.199429989,0.44651863,-0.02904441,0.013456355,0.124571204,-74,-34,-25,22,162
1695162692269362300,-9.109937668,-1.513135433,-0.85592711,-0.104986221,0.003863706,0.01505513,-1,20,-12,26,31,-8.681375504,4.195838451,0.44651863,-0.032108728,0.01385605,0.130699843,-70,-34,-25,22,158
1695162692270362300,-9.108740807,-1.514332533,-0.861912608,-0.106451757,0.002664625,0.017719755,-2,7,-8,19,29,-8.688557625,4.189853191,0.44532153,-0.034773353,0.014122511,0.136961713,-70,-34,-27,22,160
1695162692271362300,-9.107542992,-1.515529633,-0.863109708,-0.10778407,0.001998469,0.02051761,-1,10,-9,19,29,-8.68975544,4.186261654,0.448912829,-0.036372125,0.014255743,0.141225114,-71,-34,-24,24,161
1695162692272362300,-9.10634613,-1.517923832,-0.863109708,-0.109382853,0.001465544,0.023182238,-12,0,-23,11,20,-8.6957407,4.183867455,0.450109929,-0.038770292,0.014388974,0.14748697,-70,-34,-25,21,160
1695162692313334900,-9.214085579,-1.703474522,-0.790086567,0.012656967,-0.037837673,0.009192956,-8,0,-21,10,24,-8.785523415,3.53503871,0.497993946,-0.108583458,0.09246248,-0.041834611,-70,-34,-23,24,162
1695162692314334900,-9.210494041,-1.705868721,-0.796072066,0.012523737,-0.038770292,0.009192956,-1,11,-8,22,35,-8.785523415,3.544615507,0.515950441,-0.114578865,0.093128636,-0.050361406,-71,-34,-27,24,161
1695162692315334900,-9.204508781,-1.714248419,-0.804451764,0.012656967,-0.040102605,0.009192956,-1,10,-12,22,29,-8.783128738,3.554192305,0.529118598,-0.120441042,0.093395106,-0.058355279,-73,-34,-25,23,156
1695162692316334900,-9.203310966,-1.714248419,-0.808043063,0.012656967,-0.040502299,0.009192956,-1,6,-12,17,27,-8.781931877,3.557783842,0.539892495,-0.124171518,0.093395106,-0.063418068,-73,-34,-24,22,162
1695162692317334900,-9.202114105,-1.711854219,-0.81642276,0.013189893,-0.041434918,0.009326187,-14,0,-22,12,20,-8.77834034,3.568557739,0.549469292,-0.12936753,0.09272895,-0.070346095,-73,-34,-24,25,160
1695162692353336700,-9.1326828,-1.649604917,-0.948103845,-0.024647778,0.024114855,0.022649311,-13,-1,-18,13,21,-8.681375504,3.739742994,0.423773706,0.068214394,-0.026246555,0.033041347,-71,-34,-24,24,164
1695162692354336700,-9.130288124,-1.650802016,-0.949300945,-0.024914242,0.024647778,0.022116385,-1,17,-9,18,31,-8.678980827,3.740940094,0.426167905,0.067148544,-0.025846859,0.032108728,-71,-35,-25,24,157
1695162692355336700,-9.129091263,-1.648407817,-0.952892303,-0.025447167,0.024914242,0.021450229,-1,5,-12,18,32,-8.678980827,3.743334293,0.424970806,0.066215925,-0.025447167,0.031042879,-69,-34,-25,24,162
1695162692356336700,-9.129091263,-1.646013618,-0.954089403,-0.025846859,0.025180703,0.020650841,-1,10,-11,20,30,-8.677783966,3.742137194,0.428562105,0.065283306,-0.025047474,0.030243492,-67,-34,-23,26,162
1695162692357336700,-9.131484985,-1.644816518,-0.952892303,-0.026246555,0.025580399,0.020117918,-12,0,-21,11,18,-8.678980827,3.743334293,0.429759204,0.064750381,-0.024914242,0.029710567,-69,-33,-23,26,160
1695162692396287100,-9.141061783,-1.557428241,-0.981622696,-0.023715161,0.05489127,0.037171517,-2,2,-12,18,28,-8.686163902,3.749319792,0.405817181,0.062085759,-0.040235836,0.068347625,-69,-34,-25,22,163
1695162692397287100,-9.142259598,-1.55982244,-0.973242998,-0.024914242,0.053958651,0.037304748,-1,6,-15,19,29,-8.684967041,3.746925592,0.404620081,0.061552834,-0.039836142,0.068480857,-67,-34,-23,23,158
1695162692398287100,-9.145850182,-1.56101954,-0.974440098,-0.026379786,0.053026035,0.037437979,-1,9,-7,20,31,-8.683769226,3.746925592,0.40940848,0.060886677,-0.039436448,0.068480857,-70,-34,-29,24,161
1695162692399287100,-9.145850182,-1.564610839,-0.976834297,-0.027845331,0.052093416,0.037437979,-2,9,-10,20,24,-8.682572365,3.745728493,0.414196908,0.060353752,-0.039436448,0.068614088,-73,-34,-28,24,160
1695162692400287100,-9.15063858,-1.571793437,-0.973242998,-0.029310873,0.05142726,0.037437979,-12,-1,-20,11,16,-8.684967041,3.745728493,0.416591108,0.059954058,-0.039169986,0.068880551,-70,-34,-25,24,162
1695162692437264500,-9.114726067,-1.540668845,-0.690727174,0.057555895,0.0063951,-0.184658498,-8,1,-20,13,25,-8.913613319,3.900154591,0.20470424,-0.309629381,-0.047963247,0.243813157,-69,-34,-25,24,161
1695162692438264500,-9.109937668,-1.533486247,-0.689530075,0.059421133,0.007194487,-0.181860641,4,18,-6,24,32,-8.907627106,3.883395195,0.18674773,-0.309096456,-0.049162328,0.249009192,-71,-34,-24,21,160
1695162692439264500,-9.103952408,-1.520318031,-0.693121374,0.061952524,0.007993874,-0.177863702,0,18,-7,24,31,-8.908824921,3.869029999,0.169988319,-0.308297068,-0.049828485,0.253805518,-70,-34,-24,25,160
1695162692440264500,-9.10036087,-1.517923832,-0.690727174,0.063684531,0.008660031,-0.174666151,0,17,-6,20,29,-8.910021782,3.855861902,0.152031809,-0.307630926,-0.050228179,0.258735061,-71,-34,-24,25,162
1695162692441264500,-9.099164009,-1.520318031,-0.691924274,0.065683,0.009459418,-0.171202138,-12,0,-22,11,20,-8.910021782,3.840299606,0.1316811,-0.306565106,-0.050761104,0.263664633,-70,-34,-24,26,160
1695162692479240400,-9.185355186,-1.626860023,-0.709880829,-0.019185297,-0.041301683,-0.024114855,-10,1,-18,13,23,-8.584410667,3.761290789,0.377086759,0.086067379,-0.011990812,-0.004663093,-69,-33,-24,25,158
1695162692480240400,-9.181763649,-1.622071624,-0.712275028,-0.019318528,-0.041701376,-0.025313934,0,17,-5,24,33,-8.58680439,3.762487888,0.37349546,0.085934147,-0.011591119,-0.004529862,-70,-34,-25,24,158
1695162692481240400,-9.17697525,-1.618480325,-0.708683729,-0.019185297,-0.041967839,-0.026379786,-1,7,-8,20,31,-8.589199066,3.763684988,0.37110126,0.085800916,-0.01079173,-0.004529862,-70,-34,-23,24,161
1695162692482240400,-9.173383713,-1.613691926,-0.711077929,-0.019318528,-0.042367533,-0.027845331,-1,17,-7,23,29,-8.588001251,3.767276287,0.374692559,0.085800916,-0.010258805,-0.004529862,-69,-34,-25,25,160
1695162692483240400,-9.168595314,-1.608903527,-0.714669228,-0.019584993,-0.042500768,-0.02904441,-10,0,-19,12,21,-8.589199066,3.769670486,0.379480958,0.085800916,-0.009725881,-0.004529862,-70,-34,-23,26,160
1695162692521216800,-9.174580574,-1.581370234,-0.92775315,-0.052626338,0.025180703,-0.026379786,-4,0,-20,13,23,-8.671798706,3.683479309,0.278924495,0.051960181,-0.026246555,0.038503829,-70,-34,-27,24,169
1695162692522216800,-9.178172112,-1.577778935,-0.92775315,-0.053825419,0.024514547,-0.026513018,-1,10,-10,22,30,-8.674192429,3.684676409,0.281318694,0.052359879,-0.026113322,0.038637057,-71,-34,-24,24,160
1695162692523216800,-9.18296051,-1.575384736,-0.926556051,-0.054758042,0.02384839,-0.026646247,-1,10,-9,18,33,-8.680178642,3.682282209,0.281318694,0.052626338,-0.025980091,0.038637057,-72,-33,-24,24,161
1695162692524216800,-9.184157372,-1.575384736,-0.93014735,-0.055424199,0.02358193,-0.026779478,-2,10,-7,19,30,-8.680178642,3.682282209,0.289698392,0.053026035,-0.02571363,0.038503829,-70,-34,-25,22,160
1695162692525216800,-9.18894577,-1.571793437,-0.92895025,-0.056223582,0.023049004,-0.026513018,-10,-1,-21,11,19,-8.681375504,3.68108511,0.292092621,0.053292494,-0.02571363,0.038503829,-73,-34,-27,22,157
1695162692570212100,-9.167398453,-1.618480325,-0.981622696,-0.083402753,-0.000399694,0.031042879,-8,0,-16,13,25,-8.687360764,3.787626982,0.366312861,0.052226644,-0.043566614,0.034506891,-75,-36,-28,23,161
1695162692571212100,-9.173383713,-1.620874524,-0.990002394,-0.082203679,0.001332312,0.031709034,-1,9,-6,24,33,-8.68975544,3.788824081,0.362721562,0.050761104,-0.043166921,0.035039816,-73,-35,-27,25,157
1695162692572212100,-9.17697525,-1.626860023,-0.998382092,-0.080604896,0.003863706,0.032641653,-1,8,-9,16,27,-8.6957407,3.790021181,0.356736064,0.049162328,-0.04276723,0.035572741,-70,-34,-25,22,157
1695162692573212100,-9.178172112,-1.628057122,-1.00317049,-0.079805516,0.005196018,0.032908116,-2,9,-12,23,30,-8.699332237,3.791218281,0.355538964,0.048096478,-0.042633995,0.036372125,-74,-35,-23,25,160
1695162692574212100,-9.181763649,-1.631648421,-1.00317049,-0.078872897,0.006794794,0.033441041,-11,0,-21,13,18,-8.696937561,3.79361248,0.351947635,0.047163859,-0.042500768,0.037038282,-73,-34,-25,24,158
1695162692611164900,-6.05852747,0.234631762,1.274912357,3.255238771,-0.646437943,0.172401235,-16,181,628,424,692,3.835511208,-2.517503023,3.930082083,0.071145482,0.752090335,2.728176117,-69,-34,-79,-17,154
1695162692612164900,-5.989095688,0.389057785,1.343147159,3.174367666,-0.638577342,0.156546697,-17,179,632,428,703,3.79241538,-2.625242233,4.028244495,0.082869835,0.769943297,2.649969339,-70,-33,-78,-15,153
1695162692613164900,-5.919663906,0.533906996,1.41257906,3.087634087,-0.630183756,0.139226645,-4,192,637,439,713,3.751713991,-2.728192806,4.141968727,0.094061248,0.787796319,2.571496248,-71,-33,-79,-15,154
1695162692614164900,-5.855020046,0.675164878,1.482010841,2.997169971,-0.620857537,0.121107198,-7,189,634,440,715,3.713406801,-2.829946518,4.262876034,0.105119444,0.806048989,2.492490053,-70,-33,-79,-12,154
1695162692615164900,-5.797559261,0.803254664,1.563413739,2.90404129,-0.611664653,0.101655439,-18,179,633,434,716,3.672705412,-2.930502892,4.3921628,0.116843797,0.82430166,2.41375041,-72,-34,-81,-16,154
1695162692654140300,-10.55842972,-1.515529633,-0.921767652,1.24251461,0.421810091,-2.122773409,-10,9,8,23,76,-17.36753845,10.60391903,0.821211159,-1.386271119,-0.605269551,-4.365721226,-68,-18,-65,8,182
1695162692655140300,-10.58596325,-1.473631144,-0.92775315,1.26476419,0.400093406,-2.131300211,0,25,20,31,81,-17.49084091,10.76433086,0.829590917,-1.513107181,-0.459781021,-4.365721226,-69,-17,-65,10,180
1695162692656140300,-10.61349583,-1.430535555,-0.933738649,1.286081076,0.377177656,-2.138761044,1,25,21,32,78,-17.57583427,10.91157436,0.830788016,-1.637012243,-0.318289429,-4.365721226,-69,-17,-65,8,176
1695162692657140300,-10.64102936,-1.385045648,-0.938527048,1.30633235,0.352796346,-2.145555973,-1,21,15,30,78,-17.62611198,11.03248119,0.81761986,-1.757719755,-0.179995403,-4.365721226,-69,-16,-66,9,181
1695162692658140300,-10.66975975,-1.341950059,-0.943315446,1.325784087,0.32721591,-2.151417971,-7,4,9,19,71,-17.64406967,11.11987019,0.793677866,-1.875629425,-0.046098009,-4.365721226,-69,-17,-66,5,179
1695162692697115600,-9.204508781,-2.873042107,0.861912608,0.639243484,-0.465376705,0.170935676,-11,7,-21,24,70,-8.113949776,3.734954596,1.191115379,0.704260349,-0.152683005,-0.254871368,-71,-24,-39,18,166
1695162692698115600,-9.162610054,-2.832340717,0.872686505,0.650301635,-0.439263374,0.181061253,-6,5,-18,25,67,-8.116343498,3.733757496,1.18991828,0.703061283,-0.146021441,-0.251807034,-71,-25,-39,19,167
1695162692699115600,-9.121908188,-2.788047791,0.879869103,0.656830013,-0.411284834,0.190653905,2,21,-11,31,77,-8.118738174,3.733757496,1.191115379,0.702528298,-0.139892802,-0.248875946,-73,-23,-39,19,166
1695162692700115600,-9.080010414,-2.748543501,0.881066203,0.658428729,-0.381307811,0.199713632,-8,19,-9,31,76,-8.119935036,3.733757496,1.18991828,0.702528298,-0.133630931,-0.245545179,-67,-23,-39,20,167
1695162692701115600,-9.039308548,-2.709039211,0.883460402,0.655630887,-0.349865228,0.208107188,-11,1,-22,24,63,-8.117541313,3.731363297,1.194706678,0.703327715,-0.127768755,-0.241947934,-71,-20,-40,20,165
1695162692737116600,-9.242815971,-2.867056608,-0.82001406,0.325350702,0.288578868,0.361589581,-6,3,31,32,62,-8.259995461,3.791218281,2.19308877,-0.328681469,0.272591114,-0.830297053,-69,-27,-25,27,166
1695162692738116600,-9.241618156,-2.875436306,-0.804451764,0.379442573,0.282583475,0.366119444,-7,3,35,33,62,-8.245630264,3.786429882,2.172738075,-0.34693414,0.276987731,-0.842820823,-70,-28,-33,27,161
1695162692739116600,-9.236829758,-2.875436306,-0.791283667,0.433401227,0.27632159,0.370516092,2,19,43,45,71,-8.231265068,3.776853085,2.142810583,-0.363188356,0.279385895,-0.852546692,-67,-24,-27,28,162
1695162692740116600,-9.230844498,-2.876633406,-0.78170687,0.468973964,0.272457898,0.373180717,2,17,39,41,68,-8.221688271,3.761290789,2.112883091,-0.377310872,0.279918849,-0.859741151,-67,-27,-28,30,167
1695162692741116600,-9.2212677,-2.873042107,-0.762553215,0.521733522,0.266728938,0.376777947,-9,0,28,32,60,-8.212111473,3.739742994,2.084152699,-0.389301687,0.278719753,-0.864004612,-67,-27,-28,28,167
1695162692775070200,-9.242815971,-1.939303398,0.387860686,0.048895866,0.02358193,0.001598775,-6,-2,-6,31,59,-8.935160637,3.489548922,0.415394008,0.258601815,0.014788668,0.163874418,-66,-27,-27,31,167
1695162692776070200,-9.239224434,-1.935712099,0.392649084,0.051693719,0.023715161,0.003330781,-2,-3,-6,29,59,-8.927978516,3.487154722,0.416591108,0.261532933,0.011990812,0.160277188,-66,-25,-23,31,162
1695162692777070200,-9.235632896,-1.934514999,0.396240383,0.054624807,0.024381317,0.004929556,2,0,7,42,63,-8.918401718,3.483563423,0.416591108,0.264197558,0.009326187,0.156280249,-65,-29,-22,31,164
1695162692778070200,-9.232041359,-1.934514999,0.396240383,0.057422664,0.024781011,0.006661562,-1,1,3,41,63,-8.907627106,3.481169224,0.414196908,0.266462475,0.006794794,0.152150065,-67,-28,-27,30,165
1695162692779070200,-9.226056099,-1.9309237,0.403422982,0.06008729,0.025180703,0.008526799,-1,5,5,40,64,-8.895656586,3.477577925,0.422576606,0.268460959,0.004396631,0.147620216,-66,-27,-25,31,164
1695162692809074500,-9.056067467,-2.050633669,0.616506934,0.135762632,0.096059717,-0.007061256,-2,0,19,32,57,-8.72806263,3.709815502,0.237025961,0.006261868,-0.049162328,0.081937209,-67,-27,-28,29,166
1695162692810074500,-9.054870605,-2.054224968,0.621295333,0.140026033,0.102188364,-0.003464012,-4,-5,16,35,56,-8.726864815,3.707421303,0.237025961,0.006261868,-0.049295556,0.081137821,-65,-29,-27,29,162
1695162692811074500,-9.057265282,-2.060210466,0.617704034,0.144289434,0.10805054,0.000133231,2,1,26,45,63,-8.726864815,3.703830004,0.232237563,0.006261868,-0.049295556,0.080338441,-66,-28,-27,29,164
1695162692812074500,-9.063250542,-2.064998865,0.616506934,0.150551304,0.115378261,0.005196018,3,3,26,43,63,-8.72806263,3.701435804,0.232237563,0.006128637,-0.049428791,0.079405814,-66,-29,-29,29,165
1695162692813074500,-9.072827339,-2.068590164,0.616506934,0.15534763,0.120441042,0.008926493,1,0,26,44,62,-8.730456352,3.699041605,0.227449164,0.006261868,-0.049562022,0.078739658,-67,-29,-28,31,165
1695162692849029800,-9.827000618,-2.570175409,-0.517147541,-0.108583458,-0.100722812,0.719049037,-1,1,25,34,62,-8.838195801,3.306392431,0.422576606,-0.238750383,-0.05768913,0.745295525,-59,-18,-16,37,173
1695162692850029800,-9.812635422,-2.570175409,-0.518344641,-0.111514546,-0.099923424,0.701862156,-1,0,20,34,60,-8.828619003,3.263296843,0.423773706,-0.211304754,-0.052226644,0.738900423,-60,-15,-17,36,170
1695162692851029800,-9.799467087,-2.572569609,-0.523133099,-0.114312403,-0.098990813,0.68454212,9,0,25,38,62,-8.826224327,3.250128746,0.429759204,-0.203710571,-0.050894335,0.736635566,-58,-14,-17,36,177
1695162692852029800,-9.788693428,-2.574964046,-0.525527298,-0.117509954,-0.097791731,0.667355299,0,0,23,35,58,-8.821435928,3.238157749,0.432153404,-0.195849925,-0.049428791,0.734104156,-57,-17,-17,38,170
1695162692853029800,-9.774328232,-2.579752445,-0.532709897,-0.120840736,-0.096326187,0.650301635,0,0,21,34,60,-8.817844391,3.227383852,0.435744703,-0.187856048,-0.048362937,0.731572747,-60,-19,-18,38,173
1695162692889004800,-9.490615845,-2.63601613,-0.574608386,-0.150684536,-0.058621746,0.33187899,-1,0,22,38,61,-8.68975544,3.08253479,0.549469292,-0.065949462,-0.032241959,0.627385914,-60,-15,-19,33,172
1695162692890004800,-9.478644371,-2.633621931,-0.580593884,-0.149885148,-0.057156201,0.315624803,0,0,21,35,60,-8.670601845,3.078943491,0.565031588,-0.058488514,-0.031842265,0.606468618,-60,-18,-15,35,171
1695162692891004800,-9.466673851,-2.626439333,-0.579396784,-0.148819283,-0.055823889,0.299503833,1,0,21,35,62,-8.66341877,3.076549292,0.567425787,-0.05595712,-0.031575806,0.59674269,-59,-19,-17,36,170
1695162692892004800,-9.453505516,-2.625242233,-0.578199685,-0.147620216,-0.054624807,0.283516079,-1,1,20,36,61,-8.656236649,3.076549292,0.573411286,-0.053825419,-0.031575806,0.587016821,-58,-17,-18,37,173
1695162692893004800,-9.44512558,-2.622848034,-0.581790984,-0.146021441,-0.053692192,0.267928004,-1,0,21,35,61,-8.647856712,3.078943491,0.574608386,-0.052093416,-0.031176111,0.576624751,-60,-16,-12,32,170
1695162692928983100,-9.306262016,-2.519897223,-0.622492433,-0.102454826,-0.038503829,0.028777948,-1,0,20,38,61,-8.535328865,3.179499865,0.737414122,-0.054225113,0.021316998,0.317623258,-59,-17,-17,36,174
1695162692929983100,-9.306262016,-2.513911724,-0.618901134,-0.100456357,-0.036771823,0.018119449,-2,5,21,31,62,-8.540117264,3.23336935,0.746990919,-0.052759573,0.028245023,0.293641627,-60,-15,-15,36,172
1695162692930983100,-9.302670479,-2.505532026,-0.621295333,-0.098591112,-0.035039816,0.007194487,-1,1,17,35,61,-8.549694061,3.275267839,0.751779318,-0.051560488,0.033307809,0.27525574,-58,-17,-16,37,172
1695162692931983100,-9.300276756,-2.48996973,-0.623689532,-0.097125575,-0.033574272,-0.003464012,-1,2,20,34,59,-8.56046772,3.319560766,0.756567717,-0.050094947,0.038104136,0.256869823,-55,-16,-17,36,172
1695162692932983100,-9.295488358,-2.481590033,-0.623689532,-0.095926493,-0.031975497,-0.014255743,-1,5,21,31,61,-8.572439194,3.363853455,0.757764816,-0.048496172,0.042367533,0.238750383,-57,-19,-16,36,173
1695162692972980800,-9.22725296,-2.347514868,-0.651222885,-0.122173049,0.006261868,-0.228758052,-1,2,20,33,61,-8.5484972,4.040215492,0.908599555,0.023448698,0.079805516,0.125370592,-57,-17,-15,36,170
1695162692973980800,-9.224859238,-2.346317768,-0.653617084,-0.122439511,0.008393568,-0.240349159,-2,1,25,35,61,-8.553285599,4.059369087,0.914585054,0.026779478,0.08020521,0.126569673,-55,-18,-16,36,169
1695162692974980800,-9.218873978,-2.347514868,-0.652419984,-0.122705974,0.010525269,-0.251673818,-3,0,23,29,58,-8.56046772,4.090493679,0.925358951,0.031575806,0.080604896,0.128301695,-55,-16,-17,34,173
1695162692975980800,-9.214085579,-2.345120668,-0.654814184,-0.12230628,0.012523737,-0.263131708,-2,1,17,30,59,-8.570044518,4.127603531,0.936132848,0.035972435,0.080338441,0.130033687,-58,-18,-18,36,173
1695162692976980800,-9.217676163,-2.342726469,-0.661996782,-0.121373661,0.014388974,-0.274323106,-1,0,25,38,62,-8.579621315,4.16231966,0.952892303,0.039702907,0.079672284,0.131765693,-55,-18,-15,32,173
1695162693013957200,-9.392453194,-2.203862667,-0.665588081,-0.025980091,0.042234302,-0.454052061,-1,0,19,35,59,-9.085995674,6.540958881,1.468842745,-0.057289433,-0.01185758,0.258468598,-54,-18,-19,34,174
1695162693014957200,-9.404424667,-2.19189167,-0.657208383,-0.019185297,0.043566614,-0.462045938,-2,0,21,36,58,-9.133879662,6.779181957,1.516726732,-0.069280244,-0.022249617,0.282716691,-57,-17,-15,35,176
1695162693015957200,-9.43914032,-2.152387381,-0.639251828,0.001732006,0.04769678,-0.488159269,1,-1,19,35,59,-9.167398453,7.010222435,1.55982244,-0.079139359,-0.033973966,0.311494648,-58,-17,-13,34,174
1695162693016957200,-9.447520256,-2.139219284,-0.634463429,0.007727412,0.048895866,-0.495886683,-1,1,17,34,60,-9.17697525,7.234080315,1.628057122,-0.078739658,-0.043566614,0.348799407,-60,-16,-13,36,173
1695162693017957200,-9.455899239,-2.127248287,-0.63326633,0.013323124,0.049828485,-0.503480852,-1,2,19,34,61,-9.239224434,7.546523571,1.711854219,-0.085800916,-0.05595712,0.392632455,-57,-17,-18,33,173
1695162693056927100,-9.503783226,-1.918952703,-0.511162043,0.032641653,0.07714089,-0.631382823,-2,1,22,39,61,-10.1693716,11.97459984,2.329558372,-0.019584993,-0.824701369,1.810612559,-57,-16,-2,34,183
1695162693057927100,-9.497797966,-1.916558504,-0.506373644,0.030643184,0.080071971,-0.640575767,-1,0,17,32,57,-10.20169353,12.13381386,2.217030764,0.000399694,-0.847217441,1.890151501,-61,-16,2,43,183
1695162693058927100,-9.491812706,-1.914164305,-0.506373644,0.029310873,0.082203679,-0.647770226,-1,1,18,34,61,-10.22563553,12.24035645,2.130839586,0.014522205,-0.862006128,1.943843842,-60,-15,3,46,185
1695162693059927100,-9.481039047,-1.910573006,-0.500388145,0.028111791,0.084335379,-0.654831588,-1,0,24,38,59,-10.25197124,12.38520527,2.025494576,0.03237519,-0.886920393,2.022316933,-57,-16,8,42,186
1695162693060927100,-9.475052834,-1.906981707,-0.502782345,0.027179174,0.086200617,-0.661626339,-1,-1,13,34,59,-10.28668785,12.51329517,1.959654093,0.042633995,-0.911434889,2.099324703,-60,-18,10,47,195
1695162693102884100,-9.196128845,-1.788468719,-0.422576606,0.037304748,0.11711026,-0.745961726,-1,0,20,34,59,-10.1143055,14.15332317,2.402581453,-0.512807071,-1.19774878,2.869001627,-48,-15,97,79,233
1695162693103884100,-9.161413193,-1.750161409,-0.418985307,0.039836142,0.124171518,-0.7468943,-2,0,20,32,58,-10.09754562,14.19641876,2.472013235,-0.575026035,-1.212537527,2.878594398,-46,-14,104,78,236
1695162693104884100,-9.145850182,-1.732204914,-0.417788208,0.041168455,0.128301695,-0.746761084,-2,0,19,34,62,-10.07240677,14.22514915,2.53067112,-0.635113299,-1.225194454,2.885122538,-46,-18,108,82,238
1695162693105884100,-9.130288124,-1.715445518,-0.421379507,0.041834611,0.132298619,-0.746094942,0,0,19,34,58,-10.04846478,14.23712063,2.578555346,-0.694134772,-1.234254241,2.889652252,-45,-15,113,86,238
1695162693106884100,-9.119514465,-1.697489023,-0.424970806,0.042367533,0.136295557,-0.744895875,-1,0,16,38,57,-10.01973438,14.22514915,2.597708941,-0.747027516,-1.240116358,2.893782616,-44,-16,117,85,243
1695162693143860500,-9.045293808,-1.534683347,-0.401028782,0.069946401,0.170935676,-0.634447217,0,-1,19,34,57,-8.817844391,12.09909821,2.844311714,-1.018019915,-1.07983923,2.987977028,-26,-13,152,106,248
1695162693144860500,-9.040505409,-1.534683347,-0.397437483,0.073943339,0.170003071,-0.623655438,-2,0,19,36,57,-8.725667953,12.04163742,2.990357876,-1.008693695,-1.041335344,3.002765656,-26,-12,155,105,247
1695162693145860500,-9.032125473,-1.531091928,-0.395043284,0.078073502,0.168803975,-0.612597227,-2,0,21,30,57,-8.647856712,12.0153017,3.111265182,-1.004297137,-0.997635543,3.015955687,-25,-9,153,108,246
1695162693146860500,-9.026140213,-1.531091928,-0.399831682,0.08233691,0.167338446,-0.601272583,-1,-1,17,38,56,-8.608352661,12.01410389,3.178302765,-1.00456357,-0.966326177,3.023683071,-27,-12,152,109,245
1695162693147860500,-9.020154953,-1.529894829,-0.397437483,0.086866774,0.166006133,-0.589814663,-1,0,19,32,60,-8.561665535,12.03565216,3.256114244,-1.011225104,-0.918229699,3.033142328,-24,-7,155,109,244
1695162693191834300,-8.900444984,-1.441309452,-0.402225882,0.130300149,0.11298009,-0.367984682,-2,1,16,31,57,-6.190208435,8.078036308,3.167528868,-2.385905027,-0.75049156,3.332646132,-34,-2,159,114,239
1695162693192834300,-8.889671326,-1.437718153,-0.401028782,0.128701374,0.110049009,-0.35732618,-4,0,11,34,59,-6.063315868,7.781155586,3.111265182,-2.409353733,-0.770076573,3.336642981,-30,-2,159,111,240
1695162693193834300,-8.877699852,-1.436521053,-0.40940848,0.126702905,0.107117914,-0.34693414,-4,0,18,34,59,-5.863399982,7.320271492,3.041833162,-2.435467243,-0.803117871,3.339840651,-31,-2,158,112,241
1695162693194834300,-8.866926193,-1.438915253,-0.416591108,0.124304749,0.104053594,-0.336808592,-1,0,21,32,60,-5.663484097,6.848613739,2.990357876,-2.452254057,-0.839223564,3.339574099,-33,-2,161,112,240
1695162693195834300,-8.860940933,-1.442506552,-0.423773706,0.121506892,0.101122513,-0.326949447,-3,0,21,32,61,-5.450400352,6.373364925,2.955641985,-2.460514545,-0.877327681,3.335710526,-31,-2,163,110,234
1695162693229827700,-8.70172596,-1.570596337,-0.494402647,0.084735066,0.075675346,-0.17759724,-1,0,23,29,58,-0.075417355,1.235408068,3.774458885,-1.804483891,-1.080638647,2.71192193,-21,-2,177,113,240
1695162693230827700,-8.702922821,-1.577778935,-0.506373644,0.085800916,0.075675346,-0.170402765,-4,0,23,32,56,0.195127442,1.130063176,3.818751812,-1.793558955,-1.039869905,2.633981705,-19,0,179,114,241
1695162693231827700,-8.705317497,-1.584961534,-0.508767843,0.086866774,0.075808577,-0.165473193,-1,0,19,32,57,0.456095427,1.009155989,3.834314108,-1.78516531,-0.996303201,2.553776503,-23,-2,179,118,244
1695162693232827700,-8.70771122,-1.590947032,-0.511162043,0.088465542,0.075941809,-0.158145472,-3,0,25,38,57,0.711077929,0.869095206,3.841496706,-1.776505351,-0.951404333,2.472505331,-19,0,179,117,238
1695162693233827700,-8.710105896,-1.605312228,-0.508767843,0.091263399,0.076474734,-0.14801991,-1,-1,21,32,58,0.968454599,0.715866327,3.855861902,-1.768511534,-0.905572772,2.390568256,-19,-2,180,117,242
1695162693273787700,-8.789113998,-1.786074519,-0.438138902,0.18492496,0.104320064,0.031709034,-2,0,23,31,57,3.897760391,-2.092532396,4.231751442,-1.367885113,0.092995405,0.464977026,-18,0,180,118,242
1695162693274787700,-8.791508675,-1.796848416,-0.433350503,0.191453278,0.105785601,0.042234302,-1,0,21,35,58,3.919308186,-2.097320795,4.274847031,-1.359891295,0.153615624,0.327349156,-18,-2,185,121,240
1695162693275787700,-8.797493935,-1.806425214,-0.424970806,0.197715163,0.106984682,0.05249311,-1,0,20,31,61,3.930082083,-2.093729496,4.316745758,-1.356160879,0.216500759,0.186257273,-12,-1,183,122,240
1695162693276787700,-8.802282333,-1.817199111,-0.414196908,0.203843787,0.107917301,0.062485453,-1,-2,19,34,56,3.928884983,-2.084152699,4.341884613,-1.355761051,0.259800911,0.090863705,-19,1,183,120,240
1695162693277787700,-8.807070732,-1.827973008,-0.405817181,0.209972441,0.108583458,0.072344564,-1,0,20,35,56,3.919308186,-2.062604666,4.377797604,-1.357892871,0.325750381,-0.0528928,-21,-1,185,124,241
1695162693312762700,-8.971074104,-1.850717902,-0.385466486,0.206774876,0.075542115,0.170003071,-1,0,21,32,58,-0.44532153,-1.593341231,3.490746021,-0.70172894,0.796989322,-1.933318615,-15,3,179,122,242
1695162693313762700,-8.980650902,-1.847126603,-0.380678058,0.198114842,0.072477795,0.170402765,-1,3,21,34,56,-0.790086567,-1.443703651,3.466804028,-0.583552837,0.778336942,-1.981415033,-13,4,183,120,241
1695162693314762700,-8.989029884,-1.845929503,-0.377086759,0.188921899,0.069413476,0.170402765,-1,-3,21,34,59,-1.163581967,-1.241393566,3.464409828,-0.466709018,0.761016846,-2.025914192,-12,4,179,122,240
1695162693315762700,-8.999804497,-1.845929503,-0.377086759,0.178796321,0.066615619,0.170136288,-4,0,19,34,56,-1.56101954,-1.012747288,3.460818529,-0.346800923,0.748093367,-2.067882061,-9,3,180,120,242
1695162693316762700,-9.009381294,-1.849520802,-0.379480958,0.171735078,0.064750381,0.169736609,-2,-1,16,35,61,-1.990778685,-0.748188019,3.459621429,-0.226892799,0.739033639,-2.106785536,-12,3,181,120,240
1695162693354741700,-9.313444138,-1.958456993,-0.375889659,-0.084735066,0.025313934,0.121773355,-2,0,19,32,59,-10.98818874,10.68891335,5.213374138,-0.398494661,0.565966308,-2.492889643,-7,4,167,121,232
1695162693355741700,-9.326612473,-1.964442492,-0.374692559,-0.100856051,0.02384839,0.116710559,-2,0,17,32,58,-11.21922874,11.04086113,5.199008942,-0.516937196,0.509076536,-2.454519272,11,4,167,116,234
1695162693356741700,-9.340977669,-1.974019289,-0.37349546,-0.11711026,0.022382848,0.110981621,-1,0,16,31,59,-11.4454813,11.38203526,5.190629482,-0.659228146,0.421010703,-2.385238886,-3,5,163,116,231
1695162693357741700,-9.349357605,-1.982398987,-0.37349546,-0.133630931,0.020917306,0.105252676,-3,0,15,30,59,-11.52329254,11.50174522,5.20379734,-0.721580386,0.373713642,-2.342338324,5,4,167,120,232
1695162693358741700,-9.361329079,-1.989581585,-0.37229836,-0.150018379,0.019718224,0.099257268,-1,-1,18,30,57,-11.61068153,11.64300251,5.232527733,-0.80098623,0.301235855,-2.26679635,5,4,163,122,232
1695162693392717700,-9.40083313,-1.824381709,-0.59256494,-0.525197506,-0.02358193,-0.098591112,-3,-2,22,31,55,-9.375694275,12.15775585,6.022614479,0.489491582,-0.65656352,0.420078099,-3,1,163,116,231
1695162693393717700,-9.397241592,-1.804031014,-0.609324336,-0.550378263,-0.027845331,-0.114045948,-2,0,17,31,57,-9.192537308,12.14698219,6.068104267,0.62325573,-0.662958682,0.574093461,-9,1,158,113,230
1695162693394717700,-9.40083313,-1.789665818,-0.634463429,-0.575825453,-0.032241959,-0.129101068,-1,-1,20,38,60,-9.026140213,12.16134739,6.112396717,0.754888177,-0.666422606,0.723978519,-8,0,158,116,232
1695162693395717700,-9.397241592,-1.769315004,-0.661996782,-0.601539016,-0.036771823,-0.144156188,-2,1,19,32,59,-8.874108315,12.20085144,6.154295444,0.883189917,-0.668287933,0.870000005,-8,-1,153,114,231
1695162693396717700,-9.397241592,-1.745373011,-0.687135875,-0.627252638,-0.041168455,-0.158811629,-2,0,16,35,56,-8.731653214,12.2559185,6.194996834,1.006961703,-0.669220507,1.012290955,-10,1,155,113,232
1695162693442695000,-9.130288124,-1.553836942,-0.921767652,-0.981114864,-0.077540584,-0.241947934,-3,-1,19,34,55,-6.131550789,13.68765068,6.288370609,2.161676884,-1.105819345,3.629219055,-26,1,140,113,232
1695162693443695000,-9.109937668,-1.56101954,-0.915782154,-0.986310899,-0.073277183,-0.229424208,-1,-3,20,34,56,-5.978321552,13.70919895,6.233304024,2.184726,-1.131133199,3.769511461,-24,-2,142,111,231
1695162693444695000,-9.090784073,-1.571793437,-0.907402456,-0.989375174,-0.068614088,-0.214235827,-2,-2,20,34,59,-5.874173641,13.72595787,6.196194172,2.198448658,-1.146188259,3.863039732,-25,-2,137,114,232
1695162693445695000,-9.075222015,-1.586158633,-0.899022758,-0.990307808,-0.063551299,-0.197049007,-2,-5,21,35,59,-5.714959621,13.75588608,6.133944988,2.217101097,-1.165640116,4.002665997,-27,-2,140,113,231
1695162693446695000,-9.056067467,-1.602918029,-0.89184016,-0.988842309,-0.057822358,-0.177863702,-2,0,20,34,59,-5.553350925,13.78701019,6.086060524,2.232955694,-1.181494594,4.141359806,-29,-3,129,112,231
1695162693481689300,-9.041702271,-2.256535053,-0.579396784,-0.533857584,-0.00106585,0.470705956,-1,0,17,36,58,-1.89740479,12.87242508,5.495890141,1.824335337,-0.503214419,4.365588188,-42,-1,44,73,222
1695162693482689300,-9.045293808,-2.304419041,-0.561440289,-0.488425732,-0.005862175,0.511208296,-1,-1,21,33,59,-1.673547029,12.66053867,5.456385612,1.803418159,-0.44872281,4.365588188,-44,-1,35,70,222
1695162693483689300,-9.050082207,-2.351106167,-0.541089594,-0.44152835,-0.011591119,0.551177621,-2,0,20,34,60,-1.436521053,12.46660805,5.422866821,1.785698414,-0.393831551,4.365588188,-44,-2,30,64,218
1695162693484689300,-9.051279068,-2.396595955,-0.526724398,-0.393431842,-0.018652374,0.590347648,-1,0,20,34,58,-1.279700756,12.34450436,5.401319027,1.776505351,-0.355061263,4.365588188,-44,-1,27,60,218
1695162693485689300,-9.054870605,-2.442085743,-0.512359142,-0.344269514,-0.026646247,0.629251182,-3,0,19,34,57,-1.051054597,12.12543488,5.360617638,1.771042824,-0.29497394,4.365588188,-44,-2,17,56,215
1695162693525641400,-9.107542992,-2.692279816,-0.495599747,0.415281773,-0.244212866,1.103154659,-3,0,15,31,59,2.419340849,8.787917137,5.243301868,0.855611026,0.874529839,4.365588188,-55,-2,-35,31,198
1695162693526641400,-9.117119789,-2.686294317,-0.501585245,0.435932606,-0.253805518,1.110482335,-2,-3,13,31,59,2.577358246,8.519766808,5.331887245,0.765546679,0.901309311,4.365588188,-49,-1,-39,27,196
1695162693527641400,-9.127894402,-2.67552042,-0.507570744,0.453652382,-0.263131708,1.115944862,-3,-1,12,29,59,2.710236311,8.177395821,5.386953831,0.684009135,0.925424159,4.365588188,-49,-2,-40,26,194
1695162693528641400,-9.142259598,-2.667140722,-0.515950441,0.467908114,-0.271525264,1.119542003,-2,0,16,35,57,2.828749418,7.823053837,5.436035156,0.608467042,0.943943322,4.365588188,-50,-2,-35,22,193
1695162693529641400,-9.160215378,-2.645592928,-0.52073884,0.478300154,-0.279385895,1.121540666,-2,0,20,32,57,2.926911592,7.461529732,5.442020416,0.537454844,0.953402758,4.365588188,-47,-1,-43,19,192
1695162693569616600,-9.346963882,-2.518700123,-0.750582218,0.158811629,-0.219431862,0.909702957,-1,-5,11,34,58,4.683058739,1.644816518,5.424064159,-0.004529862,0.726776361,4.365588188,-54,-2,-66,-3,183
1695162693570616600,-9.354146004,-2.537853718,-0.761356115,0.123905048,-0.20570904,0.889984667,-1,0,13,30,55,4.778826714,1.444900751,5.420472622,-0.005329249,0.72144711,4.365588188,-49,-2,-66,-7,177
1695162693571616600,-9.36252594,-2.560598612,-0.774524271,0.089131698,-0.19118683,0.869600296,-2,-2,14,32,60,4.862623692,1.234210968,5.412093163,-0.004796324,0.721313894,4.365588188,-51,-4,-66,-4,178
1695162693572616600,-9.366117477,-2.585737944,-0.786495268,0.055157732,-0.176264927,0.848949432,-2,-4,14,30,59,4.923676014,1.04147768,5.402516365,-0.006528331,0.72611028,4.365588188,-47,-3,-66,-6,181
1695162693573616600,-9.372102737,-2.614468336,-0.792480767,0.022249617,-0.160676882,0.82789892,-2,0,11,30,57,4.970362663,0.861912608,5.394136429,-0.009059724,0.732238889,4.365588188,-50,-4,-68,-6,175
1695162693610592900,-9.378087997,-3.242946148,-0.81642276,-0.134430319,0.087932616,0.389834613,-6,0,13,29,56,5.112817764,-1.595735431,5.999869347,-0.060220521,0.684808552,3.915799379,-44,-5,-71,-12,170
1695162693611592900,-9.379284859,-3.245340347,-0.810437262,-0.122839205,0.095793262,0.36412096,-1,-1,11,28,58,5.122394562,-1.696291924,6.004657745,-0.067947932,0.666156173,3.833062649,-44,-4,-69,-10,172
1695162693612592900,-9.380482674,-3.248931646,-0.809240162,-0.110981621,0.102721281,0.338407338,-2,0,12,30,57,5.145139217,-1.806425214,6.005855083,-0.072611026,0.649635553,3.750059605,-44,-2,-69,-8,170
1695162693613592900,-9.384073257,-3.247734547,-0.799663365,-0.098591112,0.109249614,0.312826961,-3,0,13,30,52,5.179855347,-1.917755604,6.003460884,-0.073277183,0.634846866,3.66852212,-44,-3,-72,-11,170
1695162693614592900,-9.385271072,-3.242946148,-0.796072066,-0.086067379,0.114978559,0.287246555,-6,0,12,32,60,5.214571476,-2.023100376,6.002263546,-0.07194487,0.621124089,3.589116335,-44,-3,-72,-10,167
1695162693648571400,-9.48941803,-2.984372377,-0.622492433,0.163607955,0.11817611,-0.090464011,-4,-2,13,30,57,5.695806026,-2.360682964,5.686229229,-0.002398162,0.171202138,2.583487034,-44,-5,-73,-9,172
1695162693649571400,-9.48941803,-2.953247786,-0.616506934,0.181727409,0.113379791,-0.104453288,-4,-1,13,30,56,5.741295815,-2.348711967,5.64552784,-0.003464012,0.151350692,2.536189795,-44,-3,-77,-14,169
1695162693650571400,-9.48941803,-2.919728994,-0.614112735,0.198914245,0.108183771,-0.117776416,-2,0,13,31,56,5.787982464,-2.333149672,5.598840714,-0.004796324,0.135362938,2.486761093,-44,-3,-73,-10,168
1695162693651571400,-9.493009567,-2.879027605,-0.611718535,0.21503523,0.10285452,-0.130566612,-5,0,11,31,58,5.841852188,-2.325966835,5.553350925,-0.005595712,0.123638593,2.435333729,-44,-6,-73,-13,169
1695162693652571400,-9.48941803,-2.839523315,-0.609324336,0.229823887,0.097791731,-0.14282389,-1,0,15,30,57,5.889736176,-2.330755472,5.507861137,-0.005062787,0.116577335,2.382441044,-44,-9,-76,-11,169
1695162693695546500,-9.385271072,-2.285265446,-0.700303972,0.215834603,0.084735066,-0.322286367,-1,0,11,30,58,6.375759125,-2.381033659,4.673481941,0.049029093,0.420211345,1.361756563,-43,-8,-73,-14,169
1695162693696546500,-9.380482674,-2.270900249,-0.709880829,0.205042884,0.087799385,-0.332012266,-3,0,11,29,53,6.380547523,-2.409764051,4.626794815,0.042500768,0.434333831,1.325517535,-44,-9,-75,-14,168
1695162693697546500,-9.378087997,-2.264914751,-0.719457626,0.194117904,0.091130167,-0.341471672,-1,0,15,31,56,6.373364925,-2.450465441,4.581305027,0.036905054,0.447390497,1.289811611,-44,-7,-71,-12,169
1695162693698546500,-9.379284859,-2.256535053,-0.731428623,0.183326185,0.094327718,-0.351197541,-3,-1,13,28,56,6.368576527,-2.504334927,4.5370121,0.034107197,0.459647775,1.254638672,-44,-6,-75,-16,170
1695162693699546500,-9.381679535,-2.246958256,-0.741005421,0.172800913,0.0976585,-0.360790193,-4,-5,15,30,57,6.367379189,-2.539050817,4.513070107,0.034240428,0.467774898,1.231189847,-45,-4,-73,-16,168
1695162693736523300,-9.461885452,-2.257732153,-0.852335811,0.090064317,0.116444103,-0.520534456,-2,-3,13,30,55,4.724956989,-2.373851061,6.544550419,0.255004585,0.708257318,0.531725883,-45,-6,-88,-78,166
1695162693737523300,-9.475052834,-2.284068346,-0.861912608,0.093661562,0.11711026,-0.525197506,-3,-7,12,30,57,4.374206543,-2.286462545,6.992266178,0.231022969,0.631649256,0.502548277,-44,-5,-87,-80,167
1695162693738523300,-9.48941803,-2.30681324,-0.871489406,0.097258806,0.117909648,-0.52719599,-3,0,17,32,57,4.19464159,-2.206256866,7.281964302,0.206108719,0.574892759,0.481497705,-44,-5,-89,-80,167
1695162693739523300,-9.504981041,-2.333149672,-0.882263303,0.101522207,0.119108729,-0.528528333,-2,-3,13,31,58,4.012681961,-2.075772762,7.69855547,0.160143942,0.485894322,0.449255735,-47,-8,-91,-82,166
1695162693740523300,-9.52173996,-2.361880064,-0.89064306,0.106318533,0.120307811,-0.528661549,-2,-2,15,32,59,3.900154591,-1.977610588,8.082824707,0.10285452,0.393565059,0.416747332,-44,-7,-87,-82,168
1695162693781494500,-10.6254673,-5.02064085,-1.616086125,0.421810091,0.211171508,-0.536655426,-1,0,16,34,56,3.676296711,-3.53384161,7.165845871,0.197715163,-0.876528323,-0.018785605,-45,-9,-83,-38,161
1695162693782494500,-10.70567322,-5.285200119,-1.663970232,0.462578863,0.22382848,-0.542784095,-4,-1,13,30,57,3.588908434,-3.574543238,6.956353188,0.241681471,-0.960863709,-0.05249311,-46,-9,-82,-35,163
1695162693783494500,-10.7822876,-5.522226334,-1.703474522,0.507078111,0.237817764,-0.552376747,-1,0,13,33,62,3.479972124,-3.591302633,6.754043102,0.2809847,-1.056257248,-0.087666154,-47,-11,-80,-38,161
1695162693784494500,-10.8469305,-5.767632008,-1.750161409,0.553975463,0.253805518,-0.565966308,2,1,15,31,59,3.373430252,-3.629609823,6.530185223,0.31109494,-1.161776423,-0.12616998,-46,-5,-79,-35,162
1695162693785494500,-10.91277122,-6.013037682,-1.796848416,0.603004575,0.27059263,-0.583686054,-1,2,19,38,62,3.286041737,-3.694253206,6.289567947,0.338807046,-1.274223685,-0.166006133,-44,-7,-79,-33,160
1695162693823473200,-12.08712769,-9.178172112,-3.08133769,1.475802422,0.429271042,-2.034041405,-1,1,16,32,61,4.375403404,-3.918111086,1.648407817,0.77340734,-3.455884933,-1.608767271,-45,-12,-19,79,215
1695162693824473200,-12.13860226,-9.319430351,-3.087323189,1.516571164,0.4264732,-2.16181016,-4,0,15,32,60,4.57771349,-3.79361248,1.472434044,0.776604891,-3.474004745,-1.756787062,-44,-12,-5,81,221
1695162693825473200,-12.18409252,-9.467870712,-3.08133769,1.558672309,0.42327565,-2.288779497,0,0,16,32,61,4.704606533,-3.712209702,1.351526856,0.780068934,-3.475603342,-1.860973954,-44,-17,-5,89,230
1695162693826473200,-12.22359657,-9.61870575,-3.062183857,1.603571177,0.419811636,-2.413350821,-1,0,16,35,61,4.891354084,-3.596091032,1.182735682,0.78379941,-3.465344667,-2.02564764,-43,-13,3,94,240
1695162693827473200,-12.26190376,-9.769539833,-3.033453465,1.651534438,0.415947944,-2.534324646,-1,0,18,31,60,5.061342239,-3.475183725,1.016338587,0.778603375,-3.438964605,-2.197782516,-44,-12,12,96,246
1695162693871444600,-12.64617348,-12.07276249,-2.258929253,3.457617283,0.175865233,-3.527963161,1,39,151,45,63,7.249642849,-0.213083953,-1.659181833,-0.833494663,-0.526529849,-4.365721226,-43,-15,111,127,321
1695162693872444600,-12.59709263,-12.07994461,-2.23019886,3.616295576,0.146820813,-3.52942872,-1,42,155,42,65,7.341819286,0.0,-1.750161409,-0.926756501,-0.298837662,-4.365721226,-43,-16,121,127,322
1695162693873444600,-12.54322243,-12.07755089,-2.226607561,3.782301664,0.118442573,-3.528229475,0,47,157,46,65,7.402871609,0.161608621,-1.805228114,-0.987110257,-0.145222053,-4.365721226,-42,-13,126,133,324
1695162693874444600,-12.46780491,-12.05959415,-2.236184359,3.953104258,0.090996936,-3.525298595,0,51,164,45,69,7.491456985,0.422576606,-1.873462796,-1.073710561,0.085800916,-4.365721226,-41,-16,126,137,324
1695162693875444600,-12.38879681,-12.01290703,-2.246958256,4.122973919,0.062352221,-3.519170046,0,52,172,47,69,7.5812397,0.697909772,-1.935712099,-1.154049039,0.318289429,-4.365721226,-42,-15,132,137,323
1695162693913419700,-10.45069027,-9.470264435,-1.659181833,4.365588188,-0.166805506,-3.014490128,-1,153,369,159,279,7.823053837,5.596446514,0.77931267,-1.221730471,3.75379014,-4.365721226,-44,-8,136,143,304
1695162693914419700,-10.32978344,-9.340977669,-1.56101954,4.365588188,-0.17346707,-2.954136133,-2,159,369,170,296,7.62194109,5.986701488,1.069011092,-1.224794865,3.860641479,-4.365721226,-41,-7,139,143,306
1695162693915419700,-10.21725559,-9.198522568,-1.454477549,4.365588188,-0.176531389,-2.887653828,0,163,378,180,314,7.387309551,6.39491272,1.392228246,-1.22532773,3.965494394,-4.365721226,-44,-5,141,143,305
1695162693916419700,-10.1143055,-9.044096947,-1.370680451,4.365588188,-0.173733547,-2.817440987,-1,169,387,191,333,7.123947144,6.829460144,1.728613615,-1.22999084,4.070347786,-4.365721226,-44,-4,140,138,304
1695162693917419700,-10.04726696,-8.856152534,-1.296460271,4.365588188,-0.169869825,-2.74203229,0,170,394,207,350,6.822277546,7.290344238,2.075772762,-1.237851501,4.175866604,-4.365721226,-46,-5,140,144,306
1695162693958393000,-8.614337921,-2.541445017,-1.070208192,4.365588188,-1.247843862,-2.119042873,4,260,586,435,693,0.921767652,11.42632771,7.833827972,-2.540186882,4.365588188,-4.365721226,-64,15,125,126,280
1695162693959393000,-8.42759037,-2.346317768,-0.922964752,4.365588188,-1.292742729,-2.114646196,10,273,602,449,715,0.468066424,11.42632771,8.027758598,-2.639444113,4.365588188,-4.365721226,-62,20,123,126,279
1695162693960393000,-8.149862289,-2.066195965,-0.683544576,4.365588188,-1.350964785,-2.105586529,16,283,612,459,731,0.011971008,11.40238571,8.246828079,-2.736170053,4.365588188,-4.365721226,-60,23,123,120,276
1695162693961393000,-7.8733325,-1.81959331,-0.454898328,4.365588188,-1.393732071,-2.096793175,18,285,621,461,747,-0.432153404,11.36527538,8.479064941,-2.830497503,4.365588188,-4.365721226,-59,24,124,117,278
1695162693962393000,-7.618350029,-1.588552833,-0.25977087,4.365588188,-1.42104435,-2.086667776,18,288,633,478,755,-0.85353291,11.2934494,8.717288017,-2.921361446,4.365588188,-4.365721226,-63,19,125,125,276
1695162693999370000,-5.609614372,-2.574964046,2.370259762,3.88355732,-0.496153146,-1.666323066,51,327,723,462,889,-5.196614742,6.592434406,10.99776554,-3.309197664,3.920595646,-2.713120937,-76,27,130,113,247
1695162694000370000,-5.606023312,-2.679111719,2.439691544,3.879693508,-0.464177608,-1.619159341,52,325,720,460,894,-5.316324711,6.268020153,10.99656868,-3.237119436,3.829332352,-2.627320051,-75,28,129,112,249
1695162694001370000,-5.592854977,-2.754528999,2.505532026,3.882624626,-0.435133219,-1.571196079,55,325,719,461,905,-5.439626217,5.94719696,10.99058247,-3.158246517,3.73980093,-2.54351759,-76,25,130,114,249
1695162694002370000,-5.558139324,-2.801215887,2.555810213,3.890618563,-0.409952521,-1.522699833,61,322,724,460,910,-5.555745125,5.644330502,10.99297714,-3.073245049,3.652667522,-2.461713791,-76,24,129,110,248
1695162694003370000,-5.512649536,-2.82156682,2.607285738,3.904341459,-0.388901979,-1.474203706,57,325,717,458,917,-5.632359505,5.456385612,11.00015926,-3.014223576,3.596177816,-2.408820868,-76,24,131,113,249
1695162694047365500,-4.589684486,-0.488417149,3.497928619,3.193286419,-0.025313934,-0.926623285,84,328,712,443,971,-6.709750175,2.431311846,10.63384724,-1.992206693,2.33354497,-1.659261823,-85,25,126,105,242
1695162694048365500,-4.557363033,-0.457292527,3.562572241,3.102422476,-0.005595712,-0.913833082,84,326,714,444,971,-6.709750175,2.273294449,10.55962658,-1.978084207,2.277055264,-1.641808629,-83,28,126,110,244
1695162694049365500,-4.53102684,-0.434547603,3.624821424,3.013157606,0.013323124,-0.90064317,84,323,713,448,968,-6.704961777,2.104503393,10.4782238,-1.96183002,2.22096467,-1.624488473,-82,27,131,111,245
1695162694050365500,-4.502296448,-0.417788208,3.690661907,2.925091743,0.031176111,-0.887186825,86,327,706,440,965,-6.697779179,1.929726601,10.39442635,-1.942777991,2.165140867,-1.60703516,-79,27,129,109,246
1695162694051365500,-4.478354454,-0.411802679,3.763684988,2.839823961,0.048229709,-0.873597264,91,321,711,444,964,-6.677428722,1.762132406,10.30943298,-1.92026186,2.109716654,-1.589182258,-81,28,129,106,244
1695162694092319200,-4.453215122,-0.287304193,4.964377403,1.810878992,0.001465544,-0.58488518,96,320,691,435,926,-6.593631268,0.70509243,8.920795441,-1.208540678,1.446491599,-1.136862159,-87,-5,126,95,245
1695162694093319200,-4.45680666,-0.266953498,5.023035049,1.771975517,-0.01825268,-0.577024519,96,319,686,431,923,-6.677428722,0.741005421,8.880094528,-1.181094885,1.430237293,-1.112747312,-87,-2,126,100,244
1695162694094319200,-4.463989258,-0.248996973,5.088875771,1.73280549,-0.037970904,-0.569297075,98,320,685,433,920,-6.734889507,0.754173517,8.868123055,-1.16297555,1.418246627,-1.096093416,-89,0,126,104,245
1695162694095319200,-4.475960255,-0.228646263,5.160701752,1.692702889,-0.057822358,-0.561036766,96,320,684,429,920,-6.83784008,0.788889468,8.852560997,-1.139526844,1.40026021,-1.07051301,-88,0,128,101,241
1695162694096319200,-4.487931252,-0.20470424,5.231330872,1.651667714,-0.077274114,-0.55264318,95,319,682,429,919,-6.994660378,0.85592711,8.846575737,-1.113946438,1.37801075,-1.044932604,-87,4,126,98,244
1695162694136294700,-4.581305027,1.223437071,6.329071999,0.553309321,-0.232355282,-0.368117899,93,310,664,419,887,-7.91403389,0.492008448,9.957485199,-0.684009135,0.044366002,-0.695200622,-89,-15,125,96,244
1695162694137294700,-4.576516628,1.294066072,6.274005413,0.465643197,-0.249408886,-0.363588065,94,308,666,422,887,-7.678205013,0.390254885,9.816226959,-0.645505369,0.023715161,-0.667488515,-85,-17,122,98,242
1695162694138294700,-4.570530891,1.329979062,6.227318764,0.379975498,-0.266728938,-0.357192963,94,311,662,419,887,-7.453149796,0.311246216,9.666589737,-0.602338433,0.012656967,-0.63831085,-89,-17,126,95,241
1695162694139294700,-4.552574635,1.323993564,6.198588371,0.296839207,-0.283915788,-0.348532915,95,311,663,423,887,-7.238868713,0.245405674,9.516951561,-0.554908097,0.010125575,-0.608333826,-87,-18,125,96,245
1695162694140294700,-4.522646904,1.268926859,6.206967831,0.217566609,-0.299770296,-0.337208271,95,310,662,417,883,-7.035361767,0.187944829,9.361329079,-0.503480852,0.014921899,-0.577024519,-87,-18,123,98,242
1695162694194541600,-4.423287868,-1.734599113,7.961917877,0.289111793,-0.098857582,0.09272895,88,304,641,413,867,-5.884947777,1.452083349,8.003816605,0.266196012,0.289111793,-0.093794793,-89,-19,116,95,241
1695162694195541600,-4.412513733,-1.703474522,8.045714378,0.301235855,-0.086600304,0.100189894,88,304,645,413,867,-5.904101372,1.555034041,8.010998726,0.248343036,0.279385895,-0.095393561,-87,-23,118,95,244
1695162694196541600,-4.401739597,-1.666364431,8.122329712,0.30643183,-0.075675346,0.103520676,88,298,643,412,865,-5.914875507,1.644816518,8.016983986,0.225294024,0.267395109,-0.099124044,-94,-22,117,95,243
1695162694197541600,-4.395754337,-1.631648421,8.200140953,0.305099547,-0.067015313,0.102454826,88,304,637,412,862,-5.923254967,1.738190413,8.013393402,0.188388973,0.248742729,-0.106451757,-86,-21,119,96,245
1695162694198541600,-4.390965939,-1.593341231,8.271966934,0.297505349,-0.060753446,0.097258806,84,305,639,413,867,-5.926846504,1.775300503,8.008605003,0.168004602,0.238617152,-0.110848397,-87,-26,119,95,242
1695162694233082800,-4.095282078,-1.401805043,9.63067627,-0.306565106,-0.208773345,-0.192652375,80,299,628,406,846,-5.850231647,1.064222693,8.032546997,0.033574272,0.000666156,-0.048229709,-93,-17,113,94,246
1695162694234082800,-4.064157486,-1.417367458,9.661801338,-0.327082694,-0.216500759,-0.199980095,84,295,629,398,849,-5.862202644,1.031900883,8.064867973,0.051826954,0.001199081,-0.040102605,-86,-17,115,94,246
1695162694235082800,-4.034229755,-1.434126854,9.685743332,-0.344669193,-0.223695248,-0.20570904,80,298,628,407,847,-5.877765179,0.998382092,8.109161377,0.070212863,0.002398162,-0.033041347,-85,-16,115,91,243
1695162694236082800,-4.001908302,-1.45088625,9.708487511,-0.359191418,-0.230756521,-0.210105672,80,294,621,406,846,-5.894524574,0.974440098,8.154650688,0.087932616,0.004396631,-0.02691271,-87,-18,112,94,245
1695162694237082800,-3.981557369,-1.461660147,9.716867447,-0.366652369,-0.235819295,-0.212237358,83,295,626,411,845,-5.913678169,0.954089403,8.200140953,0.104852989,0.006528331,-0.021849923,-88,-18,117,95,245
1695162694373540300,-3.560178041,-1.212663174,9.621099472,-0.249142408,-0.285781026,-0.137761101,84,288,618,406,834,-5.844246387,0.671573579,8.440757751,0.167871356,-0.097258806,-0.068347625,-89,-34,112,94,244
1695162694374540300,-3.558980942,-1.197100878,9.617507935,-0.240882084,-0.2809847,-0.129767224,82,290,621,404,835,-5.813121796,0.646434486,8.429984093,0.170669213,-0.104320064,-0.06674885,-87,-19,112,95,247
1695162694375540300,-3.556586742,-1.181538582,9.610325813,-0.232754961,-0.275921881,-0.121506892,82,294,619,404,833,-5.785588264,0.618901134,8.419210434,0.174133226,-0.110848397,-0.063551299,-87,-20,114,94,245
1695162694376540300,-3.552995205,-1.164779186,9.604340553,-0.225693718,-0.270992339,-0.113379791,80,294,616,404,833,-5.760449409,0.587776542,8.409633636,0.178396642,-0.117243491,-0.059287902,-85,-19,120,94,247
1695162694377540300,-3.543418407,-1.145625472,9.59835434,-0.219298616,-0.266062796,-0.105652377,84,293,619,404,832,-5.748478413,0.554257691,8.388085365,0.183992341,-0.12337213,-0.054225113,-83,-20,115,95,247
1695162694517458300,-3.545812607,-1.053448796,9.48941803,-0.285914242,-0.197981626,0.028644716,84,288,617,408,828,-5.692214489,0.044292733,8.169015884,0.500816226,-0.248609498,0.134030625,-86,-23,113,95,244
1695162694518458300,-3.543418407,-1.052251697,9.469067574,-0.293774903,-0.199980095,0.035306279,84,290,608,403,829,-5.701791286,-0.011971008,8.154650688,0.525197506,-0.257802457,0.153748855,-86,-24,111,93,246
1695162694519458300,-3.544615507,-1.046266198,9.447520256,-0.302301675,-0.201978564,0.041834611,79,288,612,400,823,-5.707777023,-0.051475335,8.140285492,0.543183744,-0.264330775,0.167471662,-85,-23,112,95,245
1695162694520458300,-3.539827108,-1.039083481,9.423578262,-0.311494648,-0.203977033,0.048096478,80,288,613,400,823,-5.71974802,-0.141257897,8.109161377,0.583686054,-0.278852999,0.196116373,-83,-21,110,94,246
1695162694521458300,-3.53384161,-1.040280581,9.403226852,-0.32148698,-0.20570904,0.053825419,79,287,613,402,824,-5.72573328,-0.190339029,8.092401505,0.606468618,-0.286580414,0.211304754,-85,-24,113,94,246
1695162694619397200,-3.459621429,-1.238999367,8.708909035,-0.589415014,-0.189987749,0.139359877,80,288,606,402,815,-5.196614742,-1.142034173,6.84621954,2.032842159,-0.785131693,0.90530628,-83,-37,94,88,245
1695162694620397200,-3.453635931,-1.223437071,8.66940403,-0.612064302,-0.188255742,0.143356815,81,287,607,397,819,-5.133168221,-1.125274777,6.744466305,2.135430336,-0.820038319,0.956467032,-85,-36,94,85,243
1695162694621397200,-3.448847532,-1.201889277,8.62511158,-0.637245059,-0.18599081,0.147353753,79,288,604,398,815,-5.076904774,-1.096544385,6.637924194,2.236685991,-0.853879035,1.009493113,-85,-35,85,82,242
1695162694622397200,-3.438073635,-1.177947283,8.582015991,-0.664957106,-0.183326185,0.151483908,81,288,608,402,817,-5.030217648,-1.049857497,6.540958881,2.336476088,-0.8866539,1.064251184,-81,-34,83,82,241
1695162694623397200,-3.430891037,-1.145625472,8.54251194,-0.69599998,-0.179862171,0.155747324,78,288,607,397,814,-4.999093056,-0.990002394,6.439205647,2.432669163,-0.91676414,1.118742704,-86,-34,79,78,242
1695162694659375300,-3.737348795,-0.402225882,7.052121162,-1.899344444,-0.123771824,0.248742729,58,284,570,382,795,-4.374206543,0.827196658,4.997896194,3.477068901,-1.102488518,1.962496161,-76,79,14,40,224
1695162694660375300,-3.764882088,-0.361524463,6.939593792,-1.979150176,-0.132032156,0.25194028,56,282,570,382,788,-4.333505154,0.861912608,4.892550945,3.503182173,-1.101822376,1.998335361,-76,97,11,40,222
1695162694661375300,-3.780444384,-0.33399114,6.866570473,-2.03244257,-0.138160795,0.253805518,53,284,565,384,787,-4.289212227,0.85473001,4.753687382,3.530627728,-1.102088809,2.037771702,-76,115,11,41,222
1695162694662375300,-3.810372114,-0.292092621,6.756437302,-2.112781048,-0.148286372,0.25660339,52,279,560,382,782,-4.214992046,0.875080705,4.611232281,3.591381311,-1.11101532,2.096526861,-76,119,7,42,220
1695162694663375300,-3.831919909,-0.253785372,6.636727333,-2.193385839,-0.159744263,0.258735061,51,277,553,375,782,-4.135983467,1.00317049,4.545392036,3.637479305,-1.111681461,2.146888256,-76,95,7,38,218
1695162694702350100,-3.90374589,-0.10175357,4.542997837,-3.446558952,-0.439796329,0.424474716,30,224,427,316,670,-4.086902142,2.031480074,2.938882589,4.365588188,-1.369750381,2.110116482,-70,40,-9,36,212
1695162694703350100,-3.97916317,-0.16879122,4.341884613,-3.49865222,-0.444192976,0.4243415,31,225,427,314,662,-4.046200752,2.066195965,2.871845007,4.365588188,-1.39986062,2.063085794,-66,41,-6,34,208
1695162694704350100,-3.992331266,-0.282515794,4.168305397,-3.546615601,-0.454584986,0.429670751,31,224,417,305,654,-4.0090909,2.098517895,2.774879694,4.365588188,-1.430503845,2.013257265,-67,34,-8,36,210
1695162694705350100,-3.951629877,-0.430956304,4.040215492,-3.587517738,-0.467641652,0.44152835,30,221,411,304,644,-3.97676897,2.128445387,2.67552042,4.365588188,-1.465277195,1.963295579,-67,37,-7,34,210
1695162694706350100,-3.888183594,-0.605733037,3.949235678,-3.623356819,-0.480032146,0.461513042,28,218,403,299,639,-3.961206675,2.157175779,2.613271236,4.365588188,-1.490857482,1.930120945,-70,36,-5,34,210
1695162694739352400,-4.31554842,-1.793257117,2.960430384,-4.191987991,-0.215967834,1.224528432,28,163,253,186,429,-3.647566319,3.359065056,0.629675031,4.365588188,-2.619992256,0.815641701,-60,29,-9,36,208
1695162694740352400,-4.357447147,-1.842338204,2.890998602,-4.227160931,-0.182926491,1.273024559,31,165,250,183,420,-3.667917013,3.411737442,0.514753342,4.365588188,-2.692336798,0.749558926,-60,29,-12,34,205
1695162694741352400,-4.395754337,-1.895010591,2.816778183,-4.26233387,-0.146287903,1.322186708,29,160,244,178,406,-3.684676409,3.483563423,0.407014281,4.365588188,-2.765080929,0.684941769,-62,28,-13,34,213
1695162694742352400,-4.42448473,-1.938106298,2.738966703,-4.301370621,-0.105785601,1.374280214,32,162,234,174,398,-3.703830004,3.56616354,0.284909993,4.365588188,-2.840090275,0.61859268,-61,30,-8,37,206
1695162694743352400,-4.473566055,-1.966836691,2.665943623,-4.344137669,-0.064217456,1.425441027,29,157,229,164,386,-3.720589399,3.653551817,0.171185419,4.365588188,-2.916964769,0.550644696,-60,27,-11,37,204
1695162694775331900,-5.42765522,-3.265691042,1.277306557,-4.365721226,0.670153141,2.36751914,21,73,117,78,213,-5.073313236,5.913678169,-2.061407566,4.365588188,-4.365721226,-1.096892834,-54,29,-21,31,204
1695162694776331900,-5.522226334,-3.336320162,1.193509579,-4.365721226,0.687339962,2.409220457,24,71,107,78,207,-5.19781208,6.130353451,-2.167949677,4.365588188,-4.365721226,-1.218932509,-55,30,-27,30,204
1695162694777331900,-5.631162167,-3.432088137,1.109712481,-4.365721226,0.698531389,2.445725918,20,65,103,77,205,-5.323507309,6.343437195,-2.288856745,4.365588188,-4.365721226,-1.34683454,-54,29,-22,29,205
1695162694778331900,-5.747281075,-3.53503871,1.017535686,-4.365721226,0.706525266,2.478500605,21,61,99,77,199,-5.445611954,6.543353081,-2.408566952,4.356528282,-4.365721226,-1.477401257,-51,29,-28,29,203
1695162694779331900,-5.862202644,-3.652354717,0.916979253,-4.365721226,0.713053584,2.507811785,22,64,92,72,195,-5.562927723,6.738480568,-2.511517525,4.277655125,-4.365721226,-1.610499263,-49,29,-23,31,205
1695162694812311700,-8.737639427,-6.06211853,-1.581370234,-4.365721226,0.106584989,2.800920248,5,38,38,45,144,-7.297526836,10.69250488,-2.179920673,1.541618705,-4.365721226,-4.202912807,-44,29,-39,21,204
1695162694813311700,-8.894459724,-6.13514185,-1.756146908,-4.365721226,0.041168455,2.810912609,8,36,37,45,142,-7.360973358,10.83974838,-2.109291792,1.339640021,-4.365721226,-4.311895847,-44,28,-35,20,202
1695162694814311700,-9.045293808,-6.20936203,-1.916558504,-4.365721226,-0.026513018,2.820372105,16,41,35,45,142,-7.413645744,10.96544361,-2.026691675,1.138061285,-4.365721226,-4.365721226,-44,28,-38,18,205
1695162694815311700,-9.194931984,-6.282385349,-2.068590164,-4.365721226,-0.0955268,2.829031944,16,32,36,48,142,-7.455543995,11.07078838,-1.9333179,0.935283303,-4.365721226,-4.365721226,-44,23,-37,19,200
1695162694816311700,-9.346963882,-6.36019659,-2.218227863,-4.365721226,-0.167471662,2.837692022,9,38,29,45,140,-7.475894928,11.14261436,-1.848323703,0.731972396,-4.365721226,-4.365721226,-46,29,-37,18,203
1695162694867385100,-11.49216843,-8.579621315,-3.685873508,-4.365721226,-1.703627825,2.786664724,6,32,3,35,119,-7.697358608,8.725667953,0.760159016,-1.934117913,-1.686441064,-4.365721226,-44,29,-43,14,202
1695162694868385100,-11.52449036,-8.63109684,-3.684676409,-4.365721226,-1.772375226,2.782134771,8,32,1,34,127,-7.852981567,8.535328865,0.881066203,-1.984479427,-1.494721293,-4.365721226,-43,27,-48,14,198
1695162694869385100,-11.55202293,-8.664615631,-3.670311213,-4.365721226,-1.83605969,2.776938677,16,30,1,34,127,-8.014590263,8.321047783,0.988805294,-2.023782492,-1.305133224,-4.365721226,-43,26,-47,14,201
1695162694870385100,-11.56279755,-8.681375504,-3.655946016,-4.365721226,-1.875629425,2.773075104,9,31,5,34,127,-8.196549416,8.112752914,1.103726983,-2.053759575,-1.117543578,-4.365721226,-42,30,-45,15,201
1695162694871385100,-11.57117653,-8.693346024,-3.624821424,-4.365721226,-1.930254221,2.76641345,5,35,1,34,127,-8.397662163,7.903259754,1.199495077,-2.07547617,-0.932218969,-4.365721226,-44,28,-48,15,200
1695162694932397900,-11.519701,-7.501033783,-2.67432332,-2.162476301,-2.043500662,2.559505224,6,29,-6,31,112,-13.8911581,6.105214119,2.549824715,-1.161776423,1.788762569,-3.900877476,-46,23,-49,14,198
1695162694933397900,-11.54364395,-7.423222542,-2.597708941,-2.000999928,-2.013257265,2.554042816,6,32,-7,30,112,-14.18684196,6.161478043,2.579752445,-1.075708985,1.882157683,-3.901277065,-47,25,-49,10,197
1695162694934397900,-11.57117653,-7.35977602,-2.522291422,-1.842188358,-1.980349183,2.549912691,5,30,-6,29,112,-14.46696377,6.234501362,2.596511841,-0.991240382,1.969690681,-3.90647316,-44,27,-46,13,200
1695162694935397900,-11.6023016,-7.296329498,-2.450465441,-1.685375214,-1.945042849,2.547381163,5,30,-6,28,112,-14.72194672,6.299144745,2.60130024,-0.904240429,2.052560329,-3.915133238,-46,29,-46,10,197
1695162694936397900,-11.63821411,-7.231686115,-2.370259762,-1.531093359,-1.907471657,2.546981812,6,29,-6,31,113,-14.97214031,6.372167587,2.607285738,-0.815108716,2.130367517,-3.925925016,-45,25,-49,10,202
1695162695029454400,-12.33492756,-6.374562263,-1.356315255,0.790194511,-0.987909675,2.758019924,16,28,-9,31,111,-15.73948193,8.564059258,0.908599555,0.626986206,2.310096502,-4.017188549,-53,28,-45,12,195
1695162695030454400,-12.35048962,-6.343437195,-1.331176162,0.886787176,-0.939280272,2.768012047,16,30,-6,30,112,-15.5359745,8.62511158,0.834379315,0.665623307,2.252274275,-3.962163925,-49,25,-45,8,196
1695162695031454400,-12.35767174,-6.308721542,-1.310825467,0.980049014,-0.891183794,2.776672125,17,30,-7,29,111,-15.3145113,8.672995567,0.762553215,0.697598815,2.191387415,-3.896747351,-44,27,-41,9,198
1695162695032454400,-12.36365795,-6.271611214,-1.295263171,1.070113301,-0.844019949,2.783866644,9,29,-11,27,110,-15.07269669,8.706514359,0.697909772,0.724511504,2.12703681,-3.819206715,-49,25,-39,10,198
1695162695033454400,-12.36365795,-6.223727226,-1.283292055,1.185624838,-0.782333851,2.79039526,7,31,-8,29,110,-14.81053162,8.74003315,0.654814184,0.744895875,2.060554266,-3.73047471,-49,25,-43,8,197
1695162695081532600,-11.44188976,-4.945223808,-1.484405041,2.130633831,0.021050537,2.42880559,16,27,-6,29,110,-10.23640919,6.628347397,0.325611442,0.188388973,0.799254179,-0.432468593,-45,25,-34,15,192
1695162695082532600,-11.35929012,-4.827907562,-1.498770237,2.142624855,0.065283306,2.380309343,6,26,-5,29,109,-10.15979481,6.442796707,0.319625914,0.159477785,0.737701356,-0.229557425,-49,21,-37,14,195
1695162695083532600,-11.27788734,-4.707000732,-1.508347034,2.15035224,0.109516084,2.328482389,8,29,-3,31,110,-10.09634876,6.263231754,0.322020143,0.136295557,0.67734766,-0.030909648,-50,23,-34,10,194
1695162695084532600,-11.19169617,-4.583699226,-1.511938334,2.153549671,0.153082699,2.27359128,6,29,1,30,110,-10.04846478,6.089652061,0.328005642,0.118309341,0.617793262,0.161875948,-51,17,-34,15,192
1695162695085532600,-11.10430717,-4.453215122,-1.517923832,2.151950836,0.196516067,2.215235949,6,27,-4,29,119,-10.01255131,5.919663906,0.337582439,0.105252676,0.559171498,0.347866774,-47,18,-33,16,193
1695162695197518700,-9.8054533,-2.087743998,-1.493981838,1.278486967,0.79525727,0.771408916,16,29,13,34,110,-9.738415718,3.867832899,0.40821138,0.865203619,-0.293108732,2.246278524,-50,17,-25,25,195
1695162695198518700,-9.777919769,-2.003946781,-1.492784739,1.196016788,0.806448698,0.691203654,9,31,10,32,108,-9.706093788,3.843890905,0.404620081,0.935416579,-0.319355279,2.256404161,-51,13,-24,20,180
1695162695199518700,-9.755174637,-1.922544003,-1.493981838,1.111947894,0.814842284,0.612197518,5,29,9,32,104,-9.664195061,3.82473731,0.404620081,1.006295562,-0.343869835,2.259202242,-49,15,-25,25,190
1695162695200518700,-9.733627319,-1.849520802,-1.491587639,1.026813149,0.820571184,0.534656942,8,27,10,34,107,-9.61870575,3.811569214,0.404620081,1.076908112,-0.365719765,2.254672289,-53,19,-29,21,193
1695162695201518700,-9.710882187,-1.784877419,-1.490390539,0.940612555,0.824168444,0.459248066,4,30,10,34,109,-9.578003883,3.806780815,0.40821138,1.146588087,-0.385171533,2.243747234,-49,14,-24,25,188
1695162695236521800,-9.654618263,-1.794454217,-1.318008065,-0.423808575,0.515071988,-0.428871363,10,28,17,36,110,-8.638279915,4.455609322,0.502782345,1.724545121,-0.523998499,1.401459336,-48,3,-20,28,190
1695162695237521800,-9.654618263,-1.841141105,-1.308431268,-0.469640136,0.48456201,-0.444326192,6,31,15,31,108,-8.58680439,4.499902248,0.51954174,1.6994977,-0.52146709,1.354295611,-49,14,-20,30,187
1695162695238521800,-9.655815125,-1.889025092,-1.30005157,-0.511741161,0.453652382,-0.456050515,0,24,14,34,109,-8.54251194,4.540603638,0.541089594,1.668721318,-0.51786983,1.308996916,-49,13,-20,26,188
1695162695239521800,-9.654618263,-1.939303398,-1.297657371,-0.550245047,0.422609508,-0.464177608,3,29,13,34,108,-8.514978409,4.566939831,0.55665189,1.645139337,-0.514938712,1.279819369,-50,12,-21,26,188
1695162695240521800,-9.655815125,-1.987187386,-1.296460271,-0.584618628,0.391033709,-0.469240427,5,32,16,35,108,-8.47786808,4.611232281,0.568622887,1.605436444,-0.509609461,1.237584949,-48,13,-22,28,190
1695162695314928700,-9.375694275,-2.82036972,-1.288080573,-0.61965853,-0.098058186,-0.170003071,4,32,24,39,108,-8.367734909,4.647145271,0.538695395,0.352396637,-0.314026028,0.739966273,-53,11,-21,28,188
1695162695315928700,-9.351752281,-2.839523315,-1.290474772,-0.595543683,-0.111647777,-0.149218991,6,26,25,39,108,-8.384494781,4.600458622,0.523133099,0.292575806,-0.301635504,0.727042913,-47,11,-15,28,188
1695162695316928700,-9.33020401,-2.853888512,-1.284489155,-0.569963276,-0.123105668,-0.129767224,2,28,24,42,109,-8.400056839,4.552574635,0.506373644,0.235819295,-0.289378256,0.714918852,-50,13,-19,28,188
1695162695317928700,-9.308655739,-2.863465309,-1.279700756,-0.543716669,-0.132298619,-0.11191424,5,29,23,40,108,-8.410830498,4.520252705,0.496796846,0.199713632,-0.281117916,0.7074579,-47,12,-23,27,187
1695162695318928700,-9.287108421,-2.864662409,-1.273715258,-0.51680398,-0.139493108,-0.095393561,4,32,24,39,108,-8.42759037,4.473566055,0.48362875,0.14801991,-0.268727422,0.696799397,-50,13,-23,27,189
1695162695360467600,-9.163806915,-2.466027737,-1.271321058,-0.174266458,-0.005329249,-0.150418073,5,30,26,41,106,-8.813055992,3.507505417,0.40821138,-0.330013782,-0.071678407,0.64044255,-51,12,-23,30,174
1695162695361467600,-9.17697525,-2.433706045,-1.272518158,-0.17453292,0.008127105,-0.171601832,6,30,25,40,107,-8.823830605,3.464409828,0.411802679,-0.334810108,-0.062085759,0.641108751,-47,14,-21,26,188
1695162695362467600,-9.194931984,-2.403778553,-1.277306557,-0.176797852,0.021316998,-0.193984687,4,32,26,42,105,-8.834604263,3.422511339,0.422576606,-0.338407338,-0.052226644,0.641641676,-45,10,-20,27,189
1695162695363467600,-9.212887764,-2.373851061,-1.276109457,-0.180928022,0.034640122,-0.217433393,5,30,24,38,107,-8.840589523,3.377021551,0.433350503,-0.340405822,-0.042101074,0.641908109,-47,13,-20,26,188
1695162695364467600,-9.234436035,-2.343923569,-1.276109457,-0.186523736,0.047963247,-0.242081165,3,31,24,40,108,-8.846575737,3.333925962,0.440533102,-0.340805531,-0.031842265,0.641908109,-50,12,-19,25,186
1695162695410568800,-9.619902611,-2.122459888,-1.071405292,-0.372114837,0.258335382,-0.741431832,8,32,24,36,107,-8.962694168,2.971204281,0.671573579,-0.214901984,0.132165387,0.549578846,-51,11,-19,29,188
1695162695411568800,-9.63067627,-2.121262789,-1.061828494,-0.375179172,0.265663087,-0.76514703,4,27,23,38,105,-8.962694168,2.97359848,0.684741676,-0.208906576,0.135629401,0.540385902,-46,13,-19,28,188
1695162695412568800,-9.637859344,-2.122459888,-1.049857497,-0.376511484,0.272591114,-0.788196027,8,30,26,40,106,-8.960299492,2.977189779,0.694318473,-0.20357734,0.138160795,0.530926466,-46,15,-18,26,187
1695162695413568800,-9.643844604,-2.129642487,-1.040280581,-0.375978559,0.278852999,-0.810845315,1,27,26,40,105,-8.957905769,2.979583979,0.707486629,-0.199313939,0.140159264,0.521600306,-51,14,-23,29,189
1695162695414568800,-9.649829865,-2.130839586,-1.031900883,-0.373580426,0.284715146,-0.832428753,1,31,19,38,104,-8.953117371,2.985569477,0.721851826,-0.195716694,0.141624808,0.512274086,-47,11,-20,29,188
1695162695474335200,-9.627084732,-2.013523579,-0.812831461,-0.069413476,0.317490041,-1.095027566,8,29,26,37,103,-8.884882927,3.089717388,0.755370617,-0.289777964,0.055024505,0.333078086,-51,11,-23,24,190
1695162695475335200,-9.622296333,-1.991975784,-0.803254664,-0.047163859,0.316690654,-1.101555824,2,26,26,40,103,-8.878896713,3.087323189,0.751779318,-0.298437983,0.048496172,0.32361868,-46,11,-17,28,188
1695162695476335200,-9.615114212,-1.97042799,-0.791283667,-0.025047474,0.315624803,-1.107817769,2,27,24,40,102,-8.868123055,3.08133769,0.745793819,-0.306698322,0.042367533,0.31429249,-47,11,-21,24,186
1695162695477335200,-9.607931137,-1.942894697,-0.78050977,-0.003597243,0.31429249,-1.113013744,6,29,26,39,108,-8.859743118,3.080140591,0.74339962,-0.314558983,0.036771823,0.304966301,-50,10,-19,25,188
1695162695478335200,-9.599552155,-1.915361404,-0.768538773,0.017453292,0.312826961,-1.117810011,2,30,26,39,103,-8.858546257,3.075352192,0.739808321,-0.322019905,0.03130934,0.295640111,-49,9,-24,28,186
1695162695595405700,-9.409213066,-1.350329757,-0.664390981,0.216900453,0.246877491,-1.106485486,5,29,28,40,105,-8.717288017,3.128024578,0.604535937,-0.385437965,-0.000399694,0.109915771,-51,10,-19,28,185
1695162695596405700,-9.397241592,-1.323993564,-0.663193882,0.214901984,0.241681471,-1.100889683,4,29,25,38,105,-8.706514359,3.138798475,0.604535937,-0.385837674,0.000799387,0.100323126,-50,13,-20,30,188
1695162695597405700,-9.387664795,-1.297657371,-0.663193882,0.211704448,0.236618683,-1.095160842,5,30,26,36,101,-8.6957407,3.148375273,0.605733037,-0.385837674,0.002264931,0.090996936,-49,12,-16,28,189
1695162695598405700,-9.375694275,-1.273715258,-0.666785181,0.207707509,0.231022969,-1.089032173,6,31,27,38,105,-8.68975544,3.156754971,0.599747539,-0.385970891,0.003863706,0.081937209,-51,11,-24,20,189
1695162695599405700,-9.36252594,-1.250970364,-0.666785181,0.202511474,0.225693718,-1.082503796,9,31,27,39,107,-8.681375504,3.165134668,0.598550439,-0.385704458,0.005462481,0.07301072,-49,11,-23,25,190
1695162695642387500,-9.09437561,-1.07858789,-0.678756177,0.010258805,0.114312403,-0.893182218,0,30,28,40,103,-8.74601841,3.711012602,0.761356115,-0.349465549,0.043833077,-0.050094947,-49,11,-20,28,188
1695162695643387500,-9.076418877,-1.07739079,-0.679953277,-0.002797856,0.105918832,-0.875462472,8,29,30,39,104,-8.759186745,3.79241538,0.787692368,-0.346534461,0.043833077,-0.050094947,-49,12,-21,24,184
1695162695644387500,-9.06205368,-1.080982089,-0.682347476,-0.01185758,0.099790201,-0.862006128,6,29,29,41,107,-8.765172005,3.848679304,0.803254664,-0.344669193,0.043566614,-0.048895866,-47,13,-20,29,190
1695162695645387500,-9.046490669,-1.083376288,-0.687135875,-0.02051761,0.093661562,-0.848283291,4,27,28,44,104,-8.77834034,3.93965888,0.824802458,-0.342404276,0.042633995,-0.044765696,-45,1,-17,30,188
1695162695646387500,-9.038111687,-1.080982089,-0.691924274,-0.025846859,0.089531392,-0.838957131,3,28,35,39,104,-8.795100212,4.040215492,0.848744512,-0.341205209,0.04103522,-0.037837673,-50,11,-19,28,186
1695162695705916400,-8.874108315,-1.168370485,-0.719457626,-0.078739658,-0.01079173,-0.539453328,2,27,36,42,105,-9.724050522,7.99064827,1.308431268,-0.093261868,-0.580488503,0.82643342,-47,12,-17,31,184
1695162695706916400,-8.872911453,-1.168370485,-0.719457626,-0.078606427,-0.015188362,-0.521600306,2,26,35,40,103,-9.775525093,8.275558472,1.356315255,-0.048762634,-0.648436427,0.906238914,-50,21,-19,32,192
1695162695707916400,-8.870517731,-1.168370485,-0.719457626,-0.078473203,-0.019451762,-0.503614068,4,26,35,40,105,-9.822212219,8.579621315,1.399410844,0.000133231,-0.715851426,0.989241958,-47,9,-9,29,183
1695162695708916400,-8.864531517,-1.173158884,-0.726640224,-0.078339972,-0.023715161,-0.485361397,5,26,39,40,105,-9.873687744,8.919598579,1.441309452,0.052359879,-0.783399701,1.073843837,-45,13,-17,31,188
1695162695709916400,-8.860940933,-1.175553083,-0.727837324,-0.078339972,-0.027712099,-0.467108727,4,29,33,42,103,-9.922768593,9.270348549,1.482010841,0.104719758,-0.850148499,1.158845425,-50,11,-16,31,188
1695162695890518600,-9.021351814,-1.22702837,-0.836773515,-0.090730481,-0.094460949,-0.117909648,8,26,35,44,101,-9.573215485,15.00206757,2.142810583,0.610065818,-1.693235755,3.315859079,-46,9,-10,63,188
1695162695891518600,-9.028534889,-1.229422569,-0.842759013,-0.092062794,-0.097125575,-0.100856051,0,25,39,43,105,-9.490615845,15.1672678,2.187103271,0.640176117,-1.696300149,3.446159124,-45,11,-5,52,189
1695162695892518600,-9.03571701,-1.236605167,-0.847547412,-0.093395106,-0.099656969,-0.083935678,4,29,38,42,103,-9.423578262,15.33366489,2.234987259,0.676947892,-1.696699739,3.574727297,-45,7,-2,52,198
1695162695893518600,-9.041702271,-1.247379065,-0.85473001,-0.094594181,-0.102188364,-0.067281775,5,29,35,40,101,-9.355342865,15.57308483,2.296039343,0.728641689,-1.689372063,3.740067244,-47,8,-5,53,193
1695162695894518600,-9.045293808,-1.254561663,-0.859518409,-0.095393561,-0.103653908,-0.056090351,6,29,36,40,104,-9.32421875,15.75384712,2.324769735,0.770476282,-1.680978656,3.857310772,-45,11,-3,52,195
1695162695983487900,-8.948328972,-1.541865945,-0.922964752,-0.081670754,-0.102321595,0.218099549,4,30,41,42,107,-8.012195587,17.99362373,2.266111851,0.532258809,-1.369883537,4.365588188,-50,11,49,88,224
1695162695984487900,-8.938752174,-1.55982244,-0.921767652,-0.078073502,-0.100589581,0.230623275,5,28,38,44,103,-7.928399086,17.97327232,2.249352455,0.498817772,-1.32751596,4.365588188,-53,7,57,90,223
1695162695985487900,-8.930372238,-1.572990537,-0.922964752,-0.074209802,-0.098857582,0.242347628,2,30,40,42,107,-7.864952564,17.95292091,2.215833664,0.465776414,-1.283283353,4.365588188,-57,9,59,93,229
1695162695986487900,-8.920795441,-1.586158633,-0.92775315,-0.070079632,-0.097258806,0.253938764,2,29,37,43,105,-7.823053837,17.94334412,2.187103271,0.432335377,-1.238650918,4.365588188,-53,8,63,94,231
1695162695987487900,-8.910021782,-1.601720929,-0.925358951,-0.065683,-0.095926493,0.265130162,4,29,39,40,101,-7.800309181,17.91222,2.146401882,0.396096468,-1.192952514,4.365588188,-57,11,67,95,233
1695162696064416900,-8.81066227,-1.829170108,-0.92775315,0.023182238,-0.072211333,0.442061275,5,29,51,45,106,-6.879738808,16.24824905,1.571793437,-0.543583453,-0.286313951,4.365588188,-57,8,136,127,276
1695162696065416900,-8.813055992,-1.837549806,-0.926556051,0.02797856,-0.07087902,0.452453285,2,25,55,46,108,-6.806715488,16.0662899,1.578976035,-0.626320064,-0.238350689,4.365588188,-55,7,137,127,275
1695162696066416900,-8.81066227,-1.844732404,-0.921767652,0.032774884,-0.069546707,0.462578863,6,26,53,45,109,-6.730101109,15.87595177,1.592144132,-0.70639205,-0.188255742,4.365588188,-65,7,141,129,278
1695162696067416900,-8.809465408,-1.855506301,-0.915782154,0.037704438,-0.068347625,0.47270444,5,28,61,45,107,-6.658275127,15.68561268,1.617283225,-0.785131693,-0.135762632,4.365588188,-58,11,142,130,279
1695162696068416900,-8.811859131,-1.862688899,-0.914585054,0.042633995,-0.067015313,0.482430339,1,27,59,45,110,-6.596025467,15.49168205,1.634042621,-0.860540569,-0.08020521,4.365588188,-57,7,143,129,279
1695162696158362600,-8.872911453,-1.920149803,-1.031900883,0.038237367,-0.020784073,0.599007666,2,27,89,60,115,-5.655104637,9.655815125,1.098938584,-1.962362885,0.210105672,4.365588188,-15,5,167,147,279
1695162696159362600,-8.886079788,-1.927332401,-1.04147768,0.03011026,-0.017320061,0.602338433,4,30,85,60,113,-5.437232018,9.306262016,1.197100878,-2.006462336,0.215967834,4.365588188,-12,8,167,153,279
1695162696160362600,-8.898050308,-1.9321208,-1.053448796,0.021183766,-0.013589587,0.605269551,6,23,85,61,115,-5.24210453,8.968679428,1.282094955,-2.04962945,0.229557425,4.365588188,-10,9,171,149,278
1695162696161362600,-8.914810181,-1.940500498,-1.057040095,0.012124043,-0.010392036,0.607534468,6,30,85,60,116,-5.115211964,8.755595207,1.327584863,-2.078007698,0.241681471,4.358393669,-6,10,170,152,279
1695162696162362600,-8.933963776,-1.948880196,-1.069011092,0.002797856,-0.007194487,0.609133244,6,29,84,61,116,-4.926070213,8.440757751,1.364694953,-2.119442463,0.263797849,4.302569866,-3,6,172,148,277
1695162696202337100,-9.137471199,-2.109291792,-1.173158884,-0.168670759,-0.073810108,0.494154662,4,25,73,58,113,-1.119289279,2.85867691,2.021903276,-2.660228014,0.58168757,3.050595522,21,18,173,148,270
1695162696203337100,-9.131484985,-2.11527729,-1.181538582,-0.17866309,-0.081670754,0.479632467,3,29,69,56,111,-0.884657502,2.63721323,2.084152699,-2.683010578,0.592079639,2.966526747,23,19,176,150,273
1695162696204337100,-9.127894402,-2.11647439,-1.185129881,-0.189188361,-0.089398161,0.464710563,1,27,63,60,112,-0.646434486,2.425326347,2.138022184,-2.70406127,0.603137791,2.879793167,22,20,179,150,273
1695162696205337100,-9.119514465,-2.118868589,-1.18752408,-0.199980095,-0.096859112,0.449255735,3,25,71,58,112,-0.411802679,2.209848166,2.19428587,-2.723646164,0.61392951,2.790261745,20,17,175,148,271
1695162696206337100,-9.114726067,-2.120065689,-1.193509579,-0.207574263,-0.101522207,0.438464016,1,29,67,59,112,-0.175973818,1.994369984,2.258929253,-2.742565155,0.624721289,2.699131489,15,21,176,152,271
1695162696248335400,-9.114726067,-2.093729496,-1.258152962,-0.481098026,-0.150418073,0.093395106,4,30,62,55,111,3.873818398,-1.568202138,3.707421303,-2.220565081,0.607800961,1.353762627,20,28,185,158,268
1695162696249335400,-9.123106003,-2.102109194,-1.259350061,-0.495886683,-0.148686066,0.077274114,3,27,63,54,111,4.036623955,-1.648407817,3.830722809,-2.15288353,0.589148581,1.289012313,20,29,182,153,265
1695162696250335400,-9.129091263,-2.111685991,-1.260547161,-0.509875953,-0.146820813,0.061819296,1,26,64,56,111,4.197035789,-1.711854219,3.968389273,-2.086001396,0.573027551,1.220131636,19,29,179,152,266
1695162696251335400,-9.1326828,-2.121262789,-1.258152962,-0.523199081,-0.144555897,0.047163859,-1,28,65,55,110,4.352658749,-1.763329506,4.116829872,-2.021251202,0.560104132,1.147120953,18,27,183,154,265
1695162696252335400,-9.13866806,-2.135627985,-1.254561663,-0.535589576,-0.142024502,0.033307809,2,27,63,58,111,4.509479046,-1.806425214,4.260481834,-1.959431767,0.551444113,1.070113301,19,24,177,152,264
1695162696287289600,-9.093177795,-2.327163935,-1.259350061,-0.567165375,-0.047830015,-0.103520676,1,26,68,55,110,5.196614742,-2.062604666,5.693411827,-1.458615541,0.992173016,-0.894248068,-6,27,179,152,258
1695162696288289600,-9.097966194,-2.312798738,-1.274912357,-0.562102616,-0.043300152,-0.107650839,4,29,63,55,109,5.085284233,-2.108094692,5.674258232,-1.434101105,1.008293986,-0.980848432,5,30,174,152,257
1695162696289289600,-9.099164009,-2.302024841,-1.279700756,-0.559038281,-0.040235836,-0.110581927,2,30,61,56,110,4.947618008,-2.157175779,5.637147903,-1.405456305,1.017886639,-1.060254216,-6,30,180,153,260
1695162696290289600,-9.102754593,-2.284068346,-1.297657371,-0.554508388,-0.035839204,-0.114978559,3,27,63,55,111,4.783615112,-2.211045265,5.590460777,-1.370949507,1.020018339,-1.132332325,-3,30,180,158,259
1695162696291289600,-9.102754593,-2.263717651,-1.307234168,-0.550511479,-0.031842265,-0.119508423,6,28,60,59,111,4.590881824,-2.261323452,5.544970989,-1.33071363,1.015222073,-1.198415041,5,30,179,158,262
1695162696329264400,-9.056067467,-2.105700493,-1.394622445,-0.58128792,0.048762634,-0.134963244,6,28,61,55,109,-0.474051923,-1.027112484,4.735731125,0.104852989,0.7074579,-2.316624641,-2,31,180,147,252
1695162696330264400,-9.048885345,-2.118868589,-1.393425345,-0.583019912,0.055157732,-0.128701374,2,31,63,56,110,-0.760159016,-0.910993755,4.600458622,0.195983157,0.722379804,-2.373381138,-1,32,184,148,251
1695162696331264400,-9.046490669,-2.133233786,-1.391031146,-0.58381933,0.061552834,-0.121240422,1,29,64,57,110,-1.048660398,-0.787692368,4.446032524,0.290044397,0.741831601,-2.428539038,7,31,184,145,252
1695162696332264400,-9.044096947,-2.148796082,-1.387439847,-0.58381933,0.068081163,-0.11298009,16,29,63,60,110,-1.335964561,-0.659602582,4.282029629,0.387303203,0.764880538,-2.481964588,5,30,181,147,256
1695162696333264400,-9.040505409,-2.170343876,-1.382651448,-0.582886636,0.075142421,-0.103920363,4,27,63,55,110,-1.622071624,-0.529118598,4.108449936,0.488425732,0.791260302,-2.532992363,6,30,183,148,252
1695162696365244400,-9.156624794,-2.855085611,-1.253364563,-0.434333831,0.105252676,0.035039816,2,29,66,55,110,-8.335412979,6.517016888,2.585737944,2.337808609,1.287147045,-2.52233386,-12,32,169,140,251
1695162696366244400,-9.193734169,-2.931699991,-1.206677675,-0.425807029,0.087932616,0.023448698,0,27,63,54,110,-8.58680439,7.126341343,2.643198729,2.387503862,1.283683062,-2.46317935,-9,35,169,142,253
1695162696367244400,-9.228450775,-3.009511471,-1.158793569,-0.415947944,0.067947932,0.009992342,2,30,63,55,110,-8.797493935,7.754819393,2.716221809,2.423876047,1.275422573,-2.39696312,-13,33,170,143,252
1695162696368244400,-9.263166428,-3.093308687,-1.11450088,-0.404889733,0.045298621,-0.005062787,-1,23,61,50,112,-8.961497307,8.385691643,2.808398485,2.446525097,1.262765646,-2.32448554,-11,32,165,142,257
1695162696369244400,-9.296685219,-3.177105665,-1.071405292,-0.392632455,0.020650841,-0.020917306,4,26,64,52,107,-9.066842079,9.005789757,2.919728994,2.455185175,1.247177601,-2.246145487,-13,35,169,141,251
1695162696406243800,-9.345766068,-3.79241538,-0.597353339,-0.063684531,-0.278053582,-0.170669213,2,25,73,55,106,-6.743268967,13.23993587,3.08253479,0.911834598,0.512540579,-0.186390504,-12,31,171,140,272
1695162696407243800,-9.33020401,-3.790021181,-0.59256494,-0.045431852,-0.271525264,-0.163741201,9,27,70,54,110,-6.460753441,12.97178459,3.066972494,0.817373693,0.477234304,-0.08313629,-12,30,167,138,270
1695162696408243800,-9.317035675,-3.787626982,-0.586579442,-0.027045943,-0.262998462,-0.15534763,4,27,71,58,110,-6.181828976,12.67131233,3.062183857,0.73077333,0.44512558,0.014655436,-12,30,168,140,274
1695162696409243800,-9.307458878,-3.784035683,-0.579396784,-0.008393568,-0.252206743,-0.145355284,4,27,72,56,108,-5.904101372,12.33971596,3.069366693,0.652166963,0.416347623,0.106052071,-11,30,168,137,272
1695162696410243800,-9.299078941,-3.779247284,-0.577002585,0.010525269,-0.239816234,-0.134163857,4,26,71,55,110,-5.631162167,11.98417664,3.096899986,0.582220554,0.39209953,0.191320062,-12,29,163,137,272
1695162696465498900,-9.249998093,-3.161543369,-0.751779318,0.339473218,0.07274425,0.063018374,4,26,58,50,110,-1.78128612,8.677783966,3.986345768,0.249009192,0.346134782,0.825234294,-14,26,159,133,264
1695162696466498900,-9.238027573,-3.076549292,-0.770932972,0.347200602,0.085667685,0.064350687,3,29,56,48,108,-1.647210717,8.680178642,4.095282078,0.230623275,0.347067386,0.837491572,-15,26,159,130,266
1695162696467498900,-9.224859238,-2.993949175,-0.786495268,0.35266307,0.098591112,0.064084224,-1,22,55,45,108,-1.55982244,8.680178642,4.173093796,0.216234297,0.347866774,0.845352232,-13,27,159,129,265
1695162696468498900,-9.210494041,-2.912546396,-0.800860465,0.355327696,0.111248083,0.062085759,5,26,55,48,110,-1.432929754,8.684967041,4.298789024,0.191719756,0.350531399,0.856277168,-18,23,158,133,264
1695162696469498900,-9.199720383,-2.82276392,-0.82001406,0.355194479,0.122839205,0.05808882,6,30,55,50,108,-1.313219666,8.68975544,4.426878929,0.16414088,0.3547948,0.865603387,-18,25,158,127,266
1695162696528451100,-9.163806915,-2.059013367,-0.85592711,0.17759724,0.143223584,-0.228491575,0,21,35,45,105,-1.139639974,8.40723896,6.514622688,-0.242347628,0.488425732,0.794990778,-33,24,155,129,246
1695162696529451100,-9.154230118,-2.059013367,-0.837970614,0.172134757,0.135895863,-0.238483921,1,18,36,33,101,-1.193509579,8.469488144,6.533776283,-0.23941654,0.46697551,0.811378241,-33,26,153,127,245
1695162696530451100,-9.153033257,-2.067393064,-0.81761986,0.16773814,0.12936753,-0.24674426,-1,21,35,42,100,-1.22583127,8.54251194,6.570886612,-0.234486982,0.43939665,0.83575958,-34,27,153,127,245
1695162696531451100,-9.157821655,-2.076969862,-0.806845963,0.166006133,0.122039817,-0.252606452,-1,22,37,45,106,-1.233013868,8.629899979,6.6163764,-0.228091896,0.405156225,0.869200587,-30,24,153,128,244
1695162696532451100,-9.168595314,-2.08295536,-0.796072066,0.165872887,0.113912709,-0.255937219,0,20,35,44,104,-1.216254473,8.729259491,6.677428722,-0.221430331,0.36518684,0.911834598,-34,23,152,130,242
1695162696634004600,-8.951920509,-2.275688648,-0.654814184,0.377444088,0.087799385,-0.012523737,0,20,39,45,105,0.538695395,10.59554005,6.564900875,0.440995395,-0.75622052,3.175566673,-59,16,128,125,230
1695162696635004600,-8.911218643,-2.281674147,-0.647631586,0.394364446,0.092595711,0.006928025,2,19,39,45,104,0.654814184,10.71285534,6.555324078,0.499217451,-0.815641701,3.370616913,-57,16,126,127,232
1695162696636004600,-8.880094528,-2.294842243,-0.642843127,0.411684513,0.098058186,0.025180703,-1,22,37,44,101,0.764947414,10.84812832,6.557718277,0.560237348,-0.869333863,3.567133188,-59,10,119,124,231
1695162696637004600,-8.864531517,-2.302024841,-0.636857629,0.423542112,0.101388969,0.037038282,2,20,37,40,104,0.882263303,10.99058247,6.572083473,0.621656954,-0.917430282,3.765914202,-60,13,113,120,230
1695162696638004600,-8.856152534,-2.317587137,-0.63326633,0.441261858,0.105385914,0.054758042,0,25,33,43,104,1.00317049,11.16655636,6.603208065,0.68094486,-0.960464001,3.965761185,-62,13,107,120,230
1695162696674980200,-8.910021782,-1.990778685,-0.694318473,0.57449311,0.129500762,0.15681316,-1,18,33,45,102,2.463633537,12.38281155,6.776787758,-0.284581929,-0.760084212,4.365588188,-77,11,12,106,217
1695162696675980200,-8.919598579,-1.956062794,-0.700303972,0.564634025,0.125637069,0.149352223,-1,21,35,42,105,2.683900118,11.92312431,6.789956093,-0.344269514,-0.70639205,4.365588188,-79,9,12,109,215
1695162696676980200,-8.927978516,-1.920149803,-0.70628953,0.552909672,0.121906579,0.140825421,4,25,32,43,103,2.93529129,11.42153931,6.792350292,-0.388768762,-0.639776468,4.365588188,-80,7,8,108,216
1695162696677980200,-8.938752174,-1.889025092,-0.717063427,0.539186835,0.11817611,0.131499231,4,17,33,42,103,3.215412855,10.84812832,6.823474884,-0.406888187,-0.568231225,4.365588188,-82,7,4,112,213
1695162696678980200,-8.951920509,-1.856703401,-0.729034424,0.523732007,0.113646246,0.121640123,-1,19,33,44,103,3.507505417,10.24718285,6.860584736,-0.402358323,-0.49029094,4.365588188,-85,7,3,111,208
1695162696725952200,-8.979453087,-1.59812963,-0.939724147,0.035839204,0.043833077,-0.069280244,-1,18,35,39,103,6.9084692,6.123170853,6.021417141,2.541252851,-0.539186835,3.906339884,-89,7,-10,32,172
1695162696726952200,-8.963891029,-1.611297727,-0.942118347,0.009192956,0.042500768,-0.077274114,0,25,39,42,103,7.182605267,6.187814236,5.865794182,2.701396704,-0.569030643,3.881558895,-92,3,-15,31,172
1695162696727952200,-8.953117371,-1.630451322,-0.948103845,-0.015454824,0.041434918,-0.084868304,2,21,36,40,101,7.463923931,6.282385349,5.738901615,2.859808683,-0.585551262,3.864372253,-90,8,-16,28,172
1695162696728952200,-8.943540573,-1.648407817,-0.954089403,-0.038104136,0.040635526,-0.091929555,2,22,38,42,103,7.764396191,6.399701118,5.623979568,3.013823748,-0.588349164,3.853980064,-92,8,-18,20,171
1695162696729952200,-8.930372238,-1.668758631,-0.956483603,-0.058888208,0.040235836,-0.098191425,3,25,36,43,100,8.078036308,6.556521416,5.53659153,3.161310911,-0.57809037,3.848784208,-90,4,-21,21,173
1695162696780562600,-9.027337074,-1.968033791,-0.980425596,-0.13243185,0.084601834,-0.14495559,-1,24,36,40,101,10.39442635,9.293093681,4.990713596,3.39499855,0.868534446,3.954702854,-83,10,-62,-18,169
1695162696781562600,-9.038111687,-1.981201887,-0.974440098,-0.121373661,0.088865243,-0.141225114,0,21,39,41,104,10.30464458,9.24760437,4.970362663,3.28894639,0.921027541,3.96309638,-89,12,-60,-20,168
1695162696782562600,-9.052476883,-1.990778685,-0.970848799,-0.109249614,0.092862174,-0.136961713,0,23,43,42,100,10.21725559,9.159018517,4.93804121,3.177698135,0.967525303,3.96882534,-87,8,-61,-20,167
1695162696783562600,-9.058462143,-2.003946781,-0.970848799,-0.096192956,0.096992344,-0.132298619,0,18,39,42,101,10.11550236,9.06205368,4.86980629,3.064185143,1.008027554,3.9724226,-83,11,-65,-19,167
1695162696784562600,-9.069235802,-2.014720678,-0.961272001,-0.08207044,0.100989282,-0.126702905,0,24,43,43,99,9.987412453,8.919598579,4.777629375,2.947741032,1.03933692,3.971490145,-89,11,-63,-20,170
1695162696862150200,-9.0740242,-1.914164305,-1.057040095,0.181327716,0.04969525,0.005329249,5,26,40,44,101,8.378508568,4.876988888,4.373009205,1.153782606,1.417980194,3.671186686,-85,9,-69,-19,169
1695162696863150200,-9.056067467,-1.89860189,-1.064222693,0.188655436,0.042500768,0.010258805,1,27,41,42,101,8.257601738,4.624400616,4.378994942,1.077973962,1.459548235,3.640810251,-83,6,-70,-17,167
1695162696864150200,-9.041702271,-1.884236693,-1.060631394,0.195183769,0.035972435,0.014655436,0,22,37,44,100,8.131906509,4.376600742,4.374206543,1.004830003,1.501249552,3.605903625,-83,8,-71,-23,167
1695162696865150200,-9.026140213,-1.873462796,-1.060631394,0.200646251,0.02917764,0.01825268,1,21,40,43,103,8.00261879,4.114435673,4.365826607,0.934084237,1.542684555,3.565800905,-85,3,-71,-18,167
1695162696866150200,-9.011775017,-1.8579005,-1.055842996,0.205042884,0.023182238,0.02158346,0,23,41,45,101,7.866149902,3.848679304,4.352658749,0.868134797,1.582520604,3.520102739,-83,9,-73,-19,170
1695162696925477900,-8.847772598,-1.67115283,-0.946906745,0.160810098,0.018119449,0.050761104,0,20,39,44,104,5.858611584,-0.427365005,4.638765812,0.13456355,1.983280301,2.318623304,-88,7,-74,-20,166
1695162696926477900,-8.8429842,-1.67115283,-0.945709646,0.153748855,0.02051761,0.0528928,-2,25,38,40,99,5.798756599,-0.579396784,4.675876141,0.092995405,1.984079599,2.256537437,-85,5,-79,-16,167
1695162696927477900,-8.8429842,-1.67234993,-0.933738649,0.146287903,0.022782542,0.055424199,2,21,36,42,101,5.730521679,-0.74220252,4.708197594,0.053159267,1.983946323,2.193785667,-83,7,-80,-19,167
1695162696928477900,-8.841787338,-1.673547029,-0.933738649,0.139093414,0.024914242,0.05808882,1,25,35,44,104,5.662287235,-0.915782154,4.736927986,0.017586524,1.98261404,2.131033659,-86,8,-76,-22,166
1695162696929477900,-8.838195801,-1.67234993,-0.932541549,0.131632462,0.026779478,0.060753446,0,22,38,43,103,5.592854977,-1.089361787,4.772840977,-0.013722817,1.979549766,2.068681479,-85,1,-76,-22,167
1695162697000784500,-8.896853447,-1.78128612,-0.943315446,0.069679938,0.00319755,0.112180702,-1,18,27,40,101,4.681861401,-2.45285964,6.115988255,-0.15787901,1.736669183,0.968324661,-87,8,-81,-19,168
1695162697001784500,-8.896853447,-1.778891921,-0.943315446,0.069147013,-0.000133231,0.113513015,-2,19,32,40,99,4.662707806,-2.450465441,6.184223175,-0.158278719,1.713220596,0.91423279,-87,7,-78,-18,169
1695162697002784500,-8.901641846,-1.776497602,-0.957680702,0.068347625,-0.003464012,0.114578865,-1,21,40,43,101,4.657919407,-2.440888643,6.250063419,-0.158811629,1.688439488,0.861739695,-85,7,-80,-14,167
1695162697003784500,-8.900444984,-1.776497602,-0.968454599,0.067415006,-0.006794794,0.115777947,2,22,36,42,103,4.660313606,-2.419340849,6.3242836,-0.159611031,1.662459373,0.811511457,-83,9,-77,-20,166
1695162697004784500,-8.901641846,-1.774103403,-0.978031397,0.066215925,-0.009992342,0.116710559,1,23,40,39,99,4.667496204,-2.400187254,6.373364925,-0.161076576,1.644206762,0.779669225,-84,4,-77,-20,168
1695162697049169900,-8.969876289,-1.704671621,-1.100135684,-0.046364475,-0.017719755,0.115111791,0,18,37,39,99,5.366602898,-1.602918029,6.940790653,-0.202911183,1.109150052,0.140958652,-85,7,-81,-23,169
1695162697050169900,-8.979453087,-1.703474522,-1.102529883,-0.055690661,-0.014921899,0.114445634,0,21,36,40,96,5.412093163,-1.556231141,6.949170589,-0.193851456,1.092762589,0.111781009,-82,5,-84,-22,172
1695162697051169900,-8.985439301,-1.704671621,-1.103726983,-0.064883612,-0.01185758,0.114179172,-1,22,37,41,99,5.450400352,-1.504755735,6.959944248,-0.181860641,1.077574253,0.083935678,-86,5,-84,-19,164
1695162697052169900,-8.993818283,-1.70946002,-1.110909581,-0.073810108,-0.008526799,0.113912709,1,21,37,44,99,5.486313343,-1.44849205,6.98508358,-0.168670759,1.0637182,0.057422664,-85,4,-90,-24,168
1695162697053169900,-9.001001358,-1.71065712,-1.112106681,-0.079672284,-0.006261868,0.113779478,1,21,35,40,100,5.482721806,-1.398213744,7.006631374,-0.152816221,1.050261855,0.033840735,-82,9,-94,-21,168
1695162697154315500,-9.186552048,-1.966836691,-1.074996591,-0.103520676,0.064750381,0.150950998,0,21,37,41,103,4.966771603,0.305260718,8.671798706,0.043433387,0.131232768,0.078339972,-83,8,-98,-48,168
1695162697155315500,-9.191340446,-1.984793186,-1.069011092,-0.095660031,0.068081163,0.155081168,-1,20,40,45,103,5.116408825,0.343567938,8.561665535,0.041568145,0.100722812,0.081404284,-87,7,-98,-47,168
1695162697156315500,-9.203310966,-2.00993228,-1.053448796,-0.084601834,0.072344564,0.160943344,-1,17,37,40,100,5.27442646,0.379480958,8.438364029,0.042234302,0.078073502,0.082203679,-82,3,-103,-50,167
1695162697157315500,-9.212887764,-2.025494576,-1.043871999,-0.075675346,0.074875958,0.165339977,0,25,35,38,96,5.436035156,0.412999779,8.311470985,0.045698319,0.062751912,0.080604896,-84,1,-99,-49,168
1695162697158315500,-9.222464561,-2.039859772,-1.033097982,-0.066215925,0.07714089,0.169603363,1,21,36,40,98,5.592854977,0.447715729,8.167819023,0.051160797,0.053159267,0.076474734,-83,5,-98,-48,168
1695162697259253500,-9.284713745,-2.197877169,-0.843956113,0.042101074,0.070212863,0.164540574,-1,18,40,42,99,7.036558628,0.512359142,6.897695065,0.170003071,-0.003996937,-0.001998469,-84,5,-99,-55,167
1695162697260253500,-9.287108421,-2.200271368,-0.830788016,0.040502299,0.066482387,0.158278719,0,21,39,43,103,7.036558628,0.529118598,6.962338448,0.182393566,-0.015188362,0.003064318,-77,3,-104,-55,167
1695162697261253500,-9.283516884,-2.202665567,-0.81761986,0.037837673,0.062485453,0.151483908,-1,21,35,39,98,7.030573368,0.549469292,7.035361767,0.193851456,-0.027445635,0.008526799,-86,6,-101,-56,167
1695162697262253500,-9.279925346,-2.206256866,-0.804451764,0.033973966,0.058754977,0.144022971,-1,19,39,44,98,7.024587631,0.573411286,7.113173485,0.204509944,-0.040502299,0.014255743,-83,7,-100,-58,166
1695162697263253500,-9.276334763,-2.209848166,-0.803254664,0.031042879,0.056223582,0.13869372,1,19,36,41,97,7.013813972,0.59615624,7.187393665,0.21450229,-0.054491576,0.019851454,-85,3,-99,-57,168
1695162697330216600,-9.239224434,-2.251746655,-0.834379315,-0.140425727,0.023049004,0.005728943,1,19,34,39,98,6.363788128,0.173579618,7.533355713,0.357725888,-0.492555887,0.067015313,-83,7,-98,-49,165
1695162697331216600,-9.244012833,-2.257732153,-0.849941611,-0.147620216,0.024114855,0.001998469,0,25,36,41,99,6.259640217,0.08379706,7.479485989,0.370116383,-0.537055135,0.065683,-83,7,-95,-47,166
1695162697332216600,-9.252392769,-2.272097349,-0.870292306,-0.154148534,0.025447167,-0.001465544,3,19,37,40,99,6.142324448,-0.008379706,7.431602001,0.384238869,-0.584352195,0.063950993,-83,5,-97,-46,163
1695162697333216600,-9.255983353,-2.278082848,-0.885854602,-0.160143942,0.02691271,-0.004663093,0,19,37,44,99,6.008249283,-0.08259996,7.400477409,0.399560481,-0.63471365,0.062085759,-87,4,-93,-48,165
1695162697334216600,-9.261969566,-2.286462545,-0.903811157,-0.165872887,0.028245023,-0.007460949,0,23,35,38,99,5.821501255,-0.096965171,7.365761757,0.401026011,-0.688272595,0.053692192,-85,7,-93,-42,165
1695162697398172600,-10.04487324,-3.42131424,-1.586158633,-0.17506586,0.009192956,0.038370594,4,18,35,42,97,3.878606796,-2.585737944,4.666299343,0.955401242,-2.211238861,-0.483895868,-83,7,-34,32,162
1695162697399172600,-10.1143055,-3.609259129,-1.622071624,-0.158012256,0.007594181,0.046897396,-1,22,35,43,97,3.938461781,-2.63841033,4.540603638,0.977384388,-2.295707464,-0.560637057,-81,0,-64,44,168
1695162697400172600,-10.1885252,-3.816357613,-1.654393315,-0.138427258,0.006528331,0.056356817,1,23,35,41,99,4.001908302,-2.661155224,4.396951199,0.991906583,-2.373780966,-0.647503793,-82,5,-47,56,179
1695162697401172600,-10.25795746,-4.041412354,-1.687912226,-0.116577335,0.006261868,0.066349156,4,20,30,44,100,4.066551685,-2.711433411,4.229357243,1.001898885,-2.443460941,-0.746228158,-85,5,-41,65,184
1695162697402172600,-10.3261919,-4.279635429,-1.716642618,-0.092196018,0.006928025,0.076474734,0,21,31,45,99,4.128800869,-2.788047791,4.052186489,1.012024522,-2.504214287,-0.853879035,-85,4,-34,78,199
1695162697465135100,-12.16134739,-10.17775154,-2.450465441,0.824701369,-0.097791731,-0.48309648,-1,18,31,42,99,5.729324818,-1.386242747,1.144428372,0.357459426,-1.551344633,-3.981215954,-76,12,62,152,327
1695162697466135100,-12.31577396,-10.57997704,-2.504334927,0.937148511,-0.149751917,-0.573027551,-1,17,32,45,95,5.760449409,-1.047463298,1.057040095,0.251407355,-1.423042774,-4.158679962,-79,11,62,153,324
1695162697467135100,-12.44865131,-10.93791008,-2.56778121,1.064517617,-0.207307816,-0.661759555,-1,23,36,42,101,5.795165062,-0.673967779,0.973242998,0.136695251,-1.293408871,-4.336277008,-76,12,71,156,331
1695162697468135100,-12.54801083,-11.17733097,-2.607285738,1.194418073,-0.269926488,-0.754488528,0,25,41,39,99,5.838260651,-0.283712894,0.906205356,0.010125575,-1.163508415,-4.365721226,-76,13,72,154,328
1695162697469135100,-12.61863995,-11.34133339,-2.624045134,1.323918939,-0.335076571,-0.854145467,-1,21,47,40,101,5.888539314,0.136469498,0.85473001,-0.134430319,-1.03467381,-4.365721226,-77,14,73,157,334
1695162697543091900,-13.35246277,-12.37562847,-1.978807688,2.935217381,-0.384372145,-2.957067251,2,38,149,65,135,7.295132637,5.491101742,1.756146908,-2.624255657,1.902408838,-4.365721226,-55,15,112,164,314
1695162697544091900,-13.37161636,-12.41513252,-1.871068597,2.989575624,-0.327349156,-3.003431797,2,37,155,64,141,7.230489254,5.57848978,1.906981707,-2.628252506,2.059888124,-4.365721226,-57,15,111,160,312
1695162697545091900,-13.38598156,-12.46181965,-1.807622313,3.028745651,-0.290577352,-3.029012203,4,37,164,66,144,7.12993288,5.688623428,2.08295536,-2.622257233,2.214436293,-4.365721226,-54,15,117,159,307
1695162697546091900,-13.41471195,-12.53484344,-1.721431017,3.093762636,-0.238217458,-3.057257175,1,42,170,71,148,6.997054577,5.813121796,2.261323452,-2.604537487,2.366053581,-4.365721226,-59,15,111,159,306
