timestamp,EMG_s0,EMG_s1,EMG_s2,EMG_s3,EMG_s4,EMG_s5,EMG_s6,EMG_s7
1.6951636348834327e+18,-2.0,0.0,0.0,1.0,-2.0,-1.0,0.0,0.0
1.6951636348844431e+18,1.0,0.0,-1.0,-1.0,0.0,-1.0,1.0,-1.0
1.6951636348844431e+18,0.0,-1.0,-1.0,-2.0,-1.0,-2.0,-1.0,0.0
1.6951636348844431e+18,-1.0,-1.0,-3.0,0.0,0.0,-1.0,0.0,-1.0
1.695163634887451e+18,1.0,1.0,1.0,-1.0,1.0,0.0,0.0,-1.0
1.6951636348884306e+18,-1.0,-1.0,0.0,-2.0,1.0,0.0,1.0,-2.0
1.6951636348884306e+18,-2.0,-3.0,-1.0,-2.0,-1.0,-1.0,-2.0,1.0
1.6951636348884306e+18,-2.0,-1.0,-1.0,-1.0,-1.0,-1.0,-1.0,0.0
1.695163634898422e+18,-2.0,1.0,-1.0,-2.0,-1.0,-1.0,1.0,2.0
1.695163634898422e+18,0.0,0.0,-4.0,-1.0,-2.0,-1.0,-1.0,1.0
1.6951636349014203e+18,0.0,2.0,0.0,0.0,-1.0,-1.0,0.0,-2.0
1.69516363490242e+18,-2.0,0.0,1.0,-2.0,-1.0,-1.0,0.0,-1.0
1.695163634913436e+18,-1.0,-3.0,-1.0,-1.0,-3.0,0.0,-2.0,-2.0
1.695163634913436e+18,-1.0,-1.0,1.0,1.0,-3.0,-2.0,-2.0,-1.0
1.6951636349254305e+18,-1.0,1.0,-1.0,0.0,1.0,0.0,0.0,-1.0
1.6951636349254305e+18,-1.0,0.0,0.0,0.0,-1.0,0.0,-1.0,-2.0
1.6951636349413988e+18,-1.0,-1.0,-1.0,0.0,-1.0,-1.0,-1.0,-1.0
1.6951636349413988e+18,-1.0,-1.0,-1.0,-1.0,0.0,-1.0,-1.0,-2.0
1.6951636349573903e+18,1.0,-2.0,0.0,0.0,-2.0,1.0,0.0,-3.0
1.6951636349573903e+18,-1.0,-2.0,-3.0,-2.0,-2.0,0.0,-2.0,0.0
1.6951636349603868e+18,-1.0,-1.0,-2.0,0.0,-1.0,-1.0,0.0,0.0
1.6951636349603868e+18,-3.0,-2.0,-1.0,-1.0,-1.0,-1.0,-1.0,-1.0
1.695163634970403e+18,-1.0,0.0,-1.0,1.0,-1.0,-1.0,0.0,0.0
1.6951636349713833e+18,1.0,0.0,0.0,0.0,0.0,-3.0,-1.0,-1.0
1.69516363497238e+18,0.0,-1.0,-1.0,-1.0,-1.0,1.0,-1.0,-1.0
1.69516363497238e+18,-1.0,-1.0,0.0,-1.0,0.0,-1.0,0.0,0.0
1.6951636349933673e+18,0.0,-1.0,0.0,0.0,-1.0,1.0,-1.0,0.0
1.6951636349933673e+18,0.0,0.0,0.0,1.0,0.0,0.0,0.0,-2.0
1.6951636349943675e+18,0.0,-2.0,-1.0,-2.0,-1.0,-1.0,-1.0,-2.0
1.6951636349953684e+18,-1.0,-2.0,0.0,-2.0,-1.0,-1.0,-1.0,-2.0
1.69516363500736e+18,-2.0,-2.0,-1.0,-2.0,-2.0,-1.0,0.0,1.0
1.69516363500736e+18,-1.0,-1.0,-1.0,0.0,-1.0,2.0,-2.0,1.0
1.6951636350183762e+18,-2.0,0.0,-1.0,1.0,-2.0,0.0,-2.0,-2.0
1.6951636350183762e+18,-2.0,-1.0,-1.0,0.0,1.0,-1.0,-2.0,0.0
1.6951636350543345e+18,-1.0,0.0,-1.0,-3.0,1.0,-1.0,1.0,1.0
1.6951636350543345e+18,0.0,0.0,-1.0,-2.0,-1.0,-1.0,-1.0,0.0
1.6951636350563325e+18,-1.0,-2.0,0.0,-1.0,0.0,-1.0,-2.0,-1.0
1.6951636350563325e+18,-1.0,-1.0,-1.0,0.0,0.0,-2.0,-1.0,-1.0
1.6951636350573322e+18,-1.0,0.0,0.0,-1.0,-1.0,-2.0,-1.0,-1.0
1.6951636350573322e+18,-1.0,-2.0,0.0,0.0,0.0,0.0,-1.0,-1.0
1.6951636350673277e+18,-1.0,0.0,0.0,-1.0,1.0,0.0,0.0,-1.0
1.6951636350673277e+18,-2.0,0.0,-2.0,-2.0,-3.0,0.0,-1.0,-1.0
1.6951636350683249e+18,0.0,-1.0,0.0,0.0,-1.0,-2.0,-1.0,-1.0
1.6951636350683249e+18,0.0,1.0,0.0,0.0,-1.0,0.0,0.0,-1.0
1.6951636350843164e+18,0.0,-2.0,-1.0,-2.0,-1.0,-1.0,0.0,-3.0
1.6951636350843164e+18,-1.0,-2.0,-1.0,-1.0,-1.0,-1.0,-2.0,0.0
1.6951636350843164e+18,-1.0,0.0,-2.0,0.0,0.0,0.0,0.0,-1.0
1.6951636350853153e+18,0.0,0.0,0.0,-2.0,2.0,0.0,1.0,-2.0
1.6951636350973084e+18,-1.0,0.0,-3.0,0.0,0.0,-2.0,0.0,1.0
1.6951636350973084e+18,0.0,-1.0,-1.0,0.0,-2.0,-2.0,0.0,-2.0
1.6951636351043264e+18,0.0,-2.0,-1.0,-1.0,-1.0,1.0,-3.0,1.0
1.6951636351043264e+18,-1.0,-3.0,-1.0,0.0,-2.0,-1.0,-1.0,0.0
1.695163635119318e+18,0.0,0.0,-1.0,0.0,-2.0,1.0,-1.0,0.0
1.695163635119318e+18,-1.0,-1.0,-1.0,-1.0,0.0,0.0,0.0,-2.0
1.6951636351263137e+18,0.0,0.0,1.0,-1.0,-3.0,0.0,1.0,-2.0
1.6951636351272952e+18,-1.0,-1.0,-2.0,-2.0,-2.0,-2.0,-1.0,0.0
1.6951636351442819e+18,-1.0,0.0,0.0,1.0,-1.0,-2.0,-2.0,-2.0
1.6951636351442819e+18,-2.0,-2.0,0.0,0.0,0.0,-1.0,-1.0,0.0
1.6951636351442819e+18,0.0,-1.0,0.0,-3.0,0.0,-1.0,0.0,0.0
1.695163635145285e+18,-2.0,0.0,0.0,-2.0,0.0,0.0,0.0,0.0
1.6951636351732652e+18,0.0,-1.0,1.0,-2.0,-1.0,0.0,-2.0,-1.0
1.6951636351732652e+18,-1.0,-2.0,-3.0,0.0,0.0,-1.0,-1.0,-1.0
1.6951636351742659e+18,-2.0,-2.0,-1.0,1.0,-1.0,1.0,0.0,1.0
1.6951636351752863e+18,0.0,0.0,0.0,0.0,0.0,-1.0,-1.0,0.0
1.695163635187279e+18,-1.0,0.0,-1.0,-1.0,-1.0,-1.0,1.0,0.0
1.6951636351882565e+18,0.0,-1.0,2.0,-3.0,-1.0,0.0,-2.0,-2.0
1.6951636351882565e+18,1.0,-2.0,-1.0,1.0,-2.0,-3.0,-3.0,-2.0
1.6951636351882565e+18,0.0,-1.0,-1.0,0.0,-3.0,-3.0,-1.0,-1.0
1.6951636352062467e+18,-5.0,-3.0,-1.0,-1.0,-4.0,-2.0,-3.0,-1.0
1.6951636352062467e+18,-2.0,-1.0,-2.0,-3.0,-3.0,-2.0,-2.0,0.0
1.6951636352062467e+18,-2.0,-1.0,-1.0,-2.0,-1.0,-2.0,0.0,-4.0
1.695163635210245e+18,-1.0,-2.0,-1.0,0.0,-1.0,-2.0,-1.0,-2.0
1.6951636352252352e+18,0.0,-1.0,-2.0,-1.0,0.0,-1.0,-1.0,0.0
1.6951636352252352e+18,0.0,-1.0,-1.0,2.0,-2.0,-1.0,-1.0,-1.0
1.6951636352252352e+18,-2.0,-3.0,-2.0,-2.0,-2.0,0.0,-2.0,-3.0
1.6951636352262374e+18,-2.0,-2.0,-1.0,-3.0,-1.0,0.0,0.0,-1.0
1.6951636352482217e+18,-1.0,-1.0,-1.0,0.0,-2.0,0.0,-2.0,-3.0
1.6951636352542213e+18,0.0,-1.0,1.0,-1.0,1.0,0.0,0.0,-1.0
1.6951636352542213e+18,1.0,0.0,-2.0,-1.0,0.0,-1.0,-1.0,-1.0
1.695163635255221e+18,-2.0,0.0,-1.0,0.0,-1.0,0.0,-2.0,-4.0
1.6951636352722125e+18,0.0,-1.0,-1.0,0.0,0.0,-1.0,-2.0,0.0
1.6951636352722125e+18,0.0,-2.0,0.0,-2.0,-1.0,-1.0,-1.0,-1.0
1.6951636352732078e+18,-1.0,-2.0,-1.0,0.0,-2.0,0.0,-2.0,-1.0
1.6951636352732078e+18,0.0,-2.0,-1.0,0.0,-1.0,0.0,-2.0,-1.0
1.695163635285201e+18,-2.0,0.0,-1.0,0.0,1.0,-2.0,-1.0,0.0
1.695163635285201e+18,-1.0,-1.0,-1.0,1.0,-2.0,-1.0,-1.0,0.0
1.695163635285201e+18,-1.0,-2.0,-1.0,-1.0,0.0,0.0,1.0,1.0
1.6951636352862024e+18,-1.0,-2.0,0.0,0.0,-2.0,-2.0,-1.0,0.0
1.6951636353072108e+18,-1.0,-2.0,-2.0,0.0,-2.0,-1.0,0.0,-1.0
1.6951636353072108e+18,-1.0,0.0,-1.0,-2.0,-1.0,-1.0,-1.0,-2.0
1.6951636353081907e+18,-2.0,0.0,0.0,0.0,-1.0,-1.0,-1.0,-2.0
1.6951636353081907e+18,-1.0,0.0,-1.0,0.0,0.0,0.0,0.0,0.0
1.6951636353271782e+18,0.0,-1.0,0.0,-2.0,-1.0,-1.0,-1.0,-4.0
1.6951636353281764e+18,-1.0,-2.0,-2.0,0.0,-1.0,-1.0,-1.0,0.0
1.6951636353281764e+18,-1.0,1.0,-3.0,-2.0,0.0,-2.0,0.0,0.0
1.6951636353281764e+18,0.0,-1.0,0.0,-1.0,0.0,0.0,3.0,0.0
1.6951636353451666e+18,-1.0,-1.0,-1.0,-1.0,1.0,2.0,2.0,2.0
1.6951636353451666e+18,-1.0,0.0,1.0,0.0,1.0,2.0,0.0,0.0
1.695163635346167e+18,0.0,0.0,1.0,0.0,1.0,0.0,0.0,-3.0
1.695163635346167e+18,2.0,0.0,0.0,-1.0,-1.0,-1.0,-2.0,-1.0
1.6951636353761503e+18,1.0,1.0,0.0,-1.0,-1.0,-1.0,0.0,0.0
1.6951636353761503e+18,1.0,-1.0,0.0,0.0,-1.0,-1.0,-1.0,2.0
1.6951636353761503e+18,-1.0,0.0,2.0,-1.0,-1.0,0.0,-1.0,0.0
1.6951636353791498e+18,-1.0,0.0,-1.0,0.0,0.0,-1.0,-1.0,1.0
1.69516363539114e+18,-1.0,-2.0,1.0,-1.0,0.0,0.0,-1.0,-1.0
1.69516363539114e+18,0.0,-1.0,0.0,-1.0,0.0,0.0,-1.0,0.0
1.69516363539114e+18,-1.0,0.0,-1.0,-2.0,-2.0,-2.0,0.0,0.0
1.69516363539114e+18,0.0,1.0,-1.0,-1.0,-2.0,-3.0,0.0,-1.0
1.6951636354051318e+18,0.0,0.0,-1.0,-1.0,-2.0,-1.0,-1.0,0.0
1.6951636354051318e+18,0.0,1.0,1.0,-1.0,-1.0,0.0,0.0,-1.0
1.6951636354061325e+18,0.0,-1.0,0.0,0.0,0.0,0.0,-1.0,-2.0
1.6951636354061325e+18,0.0,-1.0,-2.0,-2.0,0.0,1.0,0.0,0.0
1.6951636354271416e+18,1.0,-1.0,0.0,0.0,0.0,-1.0,0.0,0.0
1.695163635428119e+18,-2.0,-1.0,0.0,-2.0,-1.0,0.0,0.0,-1.0
1.695163635428119e+18,-1.0,-2.0,-1.0,-2.0,-1.0,0.0,-1.0,0.0
1.695163635428119e+18,-2.0,-2.0,0.0,-1.0,0.0,0.0,-1.0,1.0
1.695163635442111e+18,-1.0,-2.0,0.0,-1.0,-2.0,0.0,-1.0,0.0
1.695163635442111e+18,-2.0,-1.0,0.0,0.0,-1.0,0.0,0.0,1.0
1.695163635451106e+18,0.0,0.0,1.0,-1.0,0.0,-3.0,-2.0,0.0
1.695163635451106e+18,0.0,-1.0,-1.0,-1.0,-1.0,-1.0,-1.0,-1.0
1.6951636354650972e+18,-1.0,0.0,-1.0,0.0,-1.0,0.0,-2.0,-1.0
1.6951636354650972e+18,0.0,0.0,-2.0,1.0,0.0,-2.0,0.0,-1.0
1.6951636354660992e+18,-1.0,-1.0,0.0,0.0,0.0,-2.0,-1.0,-1.0
1.6951636354660992e+18,-1.0,0.0,-1.0,1.0,0.0,-1.0,-1.0,-2.0
1.695163635496092e+18,-1.0,-1.0,1.0,1.0,-1.0,0.0,1.0,-1.0
1.695163635496092e+18,0.0,-1.0,-7.0,-3.0,-4.0,-1.0,1.0,0.0
1.6951636354970798e+18,-1.0,0.0,2.0,2.0,-2.0,1.0,0.0,1.0
1.6951636354970798e+18,1.0,-1.0,0.0,-2.0,4.0,-1.0,0.0,-1.0
1.6951636355030853e+18,-1.0,1.0,-4.0,-4.0,-1.0,1.0,1.0,0.0
1.6951636355040778e+18,-3.0,-8.0,0.0,-1.0,-1.0,0.0,-1.0,-2.0
1.6951636355100718e+18,0.0,-3.0,-10.0,0.0,0.0,1.0,-2.0,-1.0
1.6951636355110728e+18,0.0,1.0,3.0,-4.0,-4.0,-2.0,-1.0,1.0
1.6951636355250632e+18,0.0,1.0,0.0,-2.0,-3.0,-3.0,-1.0,-1.0
1.6951636355250632e+18,0.0,1.0,7.0,9.0,7.0,1.0,0.0,1.0
1.695163635526063e+18,-1.0,0.0,-3.0,-7.0,-1.0,-1.0,0.0,-1.0
1.695163635526063e+18,-3.0,-3.0,0.0,2.0,-1.0,-1.0,0.0,0.0
1.6951636355474903e+18,1.0,0.0,-3.0,-1.0,-2.0,-1.0,-1.0,-1.0
1.6951636355474903e+18,1.0,0.0,-3.0,-5.0,-4.0,-1.0,0.0,-1.0
1.6951636355484948e+18,0.0,0.0,5.0,5.0,0.0,-1.0,-1.0,-1.0
1.6951636355484948e+18,0.0,0.0,-3.0,-2.0,-2.0,0.0,0.0,0.0
1.695163635561911e+18,-2.0,-1.0,0.0,-3.0,-2.0,-2.0,-2.0,-4.0
1.695163635561911e+18,-2.0,-1.0,-2.0,-1.0,-1.0,0.0,-1.0,-3.0
1.6951636355698793e+18,0.0,-1.0,0.0,-1.0,0.0,0.0,2.0,-1.0
1.6951636355698793e+18,-2.0,-4.0,3.0,-1.0,-7.0,-3.0,-3.0,-3.0
1.6951636355938788e+18,-3.0,-4.0,-12.0,-2.0,-2.0,-1.0,-2.0,-1.0
1.695163635594877e+18,-4.0,-2.0,-2.0,-3.0,-12.0,-6.0,-1.0,-1.0
1.695163635594877e+18,-3.0,-3.0,-5.0,-11.0,-9.0,-4.0,-3.0,-3.0
1.695163635594877e+18,1.0,0.0,0.0,11.0,19.0,9.0,3.0,0.0
1.6951636356088957e+18,-1.0,-2.0,4.0,0.0,-2.0,-2.0,0.0,-1.0
1.6951636356088957e+18,-1.0,-1.0,-3.0,-1.0,2.0,-2.0,-3.0,-2.0
1.6951636356228864e+18,-4.0,-2.0,-1.0,-2.0,-8.0,-5.0,-2.0,-2.0
1.6951636356228864e+18,0.0,-1.0,-6.0,-6.0,-8.0,-6.0,-4.0,-3.0
1.6951636356238858e+18,0.0,-1.0,-1.0,1.0,3.0,2.0,0.0,-2.0
1.6951636356238858e+18,0.0,2.0,-2.0,-2.0,-4.0,-2.0,0.0,0.0
1.6951636356378788e+18,0.0,-1.0,-6.0,-4.0,-1.0,0.0,-2.0,-1.0
1.6951636356388777e+18,-3.0,-6.0,6.0,3.0,-3.0,0.0,-2.0,-1.0
1.6951636356468792e+18,-3.0,0.0,7.0,-2.0,2.0,4.0,4.0,0.0
1.6951636356468792e+18,1.0,1.0,8.0,8.0,9.0,-4.0,-3.0,0.0
1.6951636356468792e+18,-2.0,-9.0,-22.0,7.0,-2.0,3.0,-1.0,-2.0
1.6951636356468792e+18,-4.0,0.0,2.0,-2.0,-1.0,-4.0,-2.0,-2.0
1.6951636356678674e+18,0.0,-1.0,-5.0,-9.0,-7.0,-7.0,-2.0,-1.0
1.6951636356688607e+18,0.0,0.0,-4.0,3.0,-2.0,5.0,2.0,0.0
1.6951636356688607e+18,1.0,8.0,10.0,-3.0,2.0,-2.0,0.0,-1.0
1.6951636356698621e+18,-4.0,-14.0,-9.0,-6.0,-7.0,4.0,4.0,1.0
1.695163635683852e+18,-2.0,-2.0,1.0,-2.0,-7.0,-5.0,-1.0,-1.0
1.6951636356848576e+18,-1.0,-2.0,-4.0,4.0,10.0,1.0,-1.0,0.0
1.695163635690848e+18,1.0,1.0,1.0,3.0,4.0,4.0,-1.0,0.0
1.6951636356918477e+18,0.0,2.0,0.0,1.0,-9.0,-10.0,-2.0,-3.0
1.6951636357138573e+18,0.0,1.0,-2.0,-5.0,-4.0,0.0,0.0,-1.0
1.6951636357148337e+18,-1.0,0.0,3.0,2.0,12.0,13.0,3.0,-1.0
1.6951636357148337e+18,-1.0,-6.0,5.0,-1.0,-3.0,-6.0,1.0,1.0
1.6951636357148337e+18,0.0,-1.0,-7.0,-3.0,14.0,6.0,0.0,2.0
1.6951636357288274e+18,0.0,0.0,11.0,15.0,7.0,0.0,1.0,2.0
1.6951636357298301e+18,0.0,2.0,-5.0,-7.0,-4.0,0.0,-1.0,-3.0
1.6951636357298301e+18,-2.0,0.0,6.0,-4.0,-7.0,1.0,0.0,0.0
1.6951636357308242e+18,1.0,2.0,-9.0,6.0,-7.0,-6.0,0.0,-2.0
1.6951636357418422e+18,-2.0,0.0,6.0,3.0,11.0,0.0,-1.0,-2.0
1.6951636357428173e+18,-1.0,-2.0,-3.0,-3.0,-6.0,-3.0,17.0,18.0
1.6951636357498135e+18,-6.0,0.0,3.0,-8.0,4.0,0.0,-15.0,-28.0
1.6951636357498135e+18,2.0,-1.0,2.0,1.0,-10.0,-7.0,3.0,11.0
1.695163635783794e+18,-5.0,15.0,-6.0,-2.0,-8.0,1.0,-3.0,-34.0
1.6951636357847936e+18,-10.0,-8.0,6.0,1.0,2.0,5.0,5.0,-6.0
1.6951636357847936e+18,6.0,-39.0,-11.0,4.0,18.0,-4.0,-15.0,5.0
1.6951636357847936e+18,16.0,34.0,-11.0,-10.0,-11.0,-2.0,31.0,17.0
1.6951636357927892e+18,8.0,-3.0,1.0,14.0,18.0,10.0,-17.0,19.0
1.6951636358047818e+18,15.0,18.0,15.0,9.0,2.0,3.0,7.0,-9.0
1.695163635805782e+18,-4.0,5.0,24.0,6.0,13.0,9.0,-1.0,33.0
1.695163635805782e+18,-10.0,-24.0,-36.0,-11.0,-2.0,2.0,-28.0,58.0
1.695163635806781e+18,0.0,-2.0,0.0,-7.0,1.0,-6.0,34.0,10.0
1.695163635806781e+18,1.0,16.0,-12.0,-9.0,-22.0,-17.0,-46.0,-54.0
1.6951636358247703e+18,2.0,-15.0,-14.0,-2.0,-7.0,-4.0,4.0,-32.0
1.6951636358247703e+18,0.0,15.0,23.0,-1.0,5.0,3.0,23.0,-26.0
1.69516363582577e+18,-2.0,6.0,-17.0,2.0,-14.0,-5.0,-3.0,25.0
1.69516363582577e+18,-12.0,-5.0,3.0,-5.0,2.0,-7.0,-1.0,-15.0
1.6951636358267694e+18,0.0,-2.0,14.0,7.0,-1.0,-4.0,-15.0,-6.0
1.6951636358267694e+18,-4.0,7.0,-3.0,2.0,13.0,12.0,17.0,-17.0
1.6951636358477568e+18,-7.0,-35.0,-3.0,-2.0,2.0,4.0,-1.0,-21.0
1.6951636358477568e+18,-2.0,18.0,-14.0,-8.0,-5.0,-10.0,-2.0,127.0
1.6951636358487562e+18,11.0,21.0,-12.0,-8.0,-17.0,-4.0,-11.0,-69.0
1.6951636358487562e+18,-4.0,-5.0,19.0,4.0,-3.0,-5.0,43.0,-51.0
1.69516363587774e+18,-10.0,-7.0,-6.0,2.0,11.0,7.0,-42.0,17.0
1.6951636358807383e+18,25.0,11.0,5.0,6.0,7.0,8.0,-7.0,44.0
1.6951636358807383e+18,-21.0,-38.0,17.0,-1.0,0.0,-4.0,-25.0,1.0
1.6951636358807383e+18,19.0,28.0,-59.0,-7.0,-6.0,4.0,1.0,69.0
1.6951636358867346e+18,-14.0,-10.0,-17.0,-10.0,-9.0,-10.0,3.0,-57.0
1.6951636358867346e+18,-8.0,-7.0,25.0,2.0,-2.0,0.0,3.0,-31.0
1.6951636358877363e+18,-1.0,29.0,-17.0,0.0,3.0,7.0,35.0,33.0
1.6951636358877363e+18,-3.0,-20.0,55.0,2.0,-5.0,-6.0,-20.0,-48.0
1.695163635907722e+18,-2.0,10.0,11.0,-9.0,-10.0,-4.0,0.0,-23.0
1.695163635907722e+18,2.0,-10.0,-4.0,6.0,7.0,2.0,0.0,19.0
1.695163635908722e+18,0.0,5.0,-6.0,-1.0,0.0,5.0,27.0,-25.0
1.695163635908722e+18,-7.0,-9.0,21.0,4.0,0.0,-4.0,-23.0,-41.0
1.695163635932709e+18,18.0,-4.0,-22.0,-1.0,7.0,8.0,-5.0,47.0
1.6951636359407037e+18,-13.0,-8.0,13.0,1.0,11.0,2.0,15.0,-25.0
1.6951636359417034e+18,-1.0,21.0,10.0,-1.0,-6.0,-5.0,-10.0,23.0
1.6951636359417034e+18,-1.0,-12.0,-16.0,-5.0,2.0,-3.0,-14.0,39.0
1.6951636359477e+18,-4.0,-12.0,-2.0,-5.0,-16.0,-12.0,13.0,-63.0
1.6951636359477e+18,-6.0,-25.0,-26.0,-8.0,-5.0,2.0,-7.0,-50.0
1.6951636359477e+18,2.0,43.0,-35.0,-9.0,-14.0,-12.0,-24.0,71.0
1.6951636359477e+18,-12.0,-31.0,42.0,10.0,20.0,6.0,-8.0,-14.0
1.6951636359816799e+18,-1.0,-8.0,3.0,4.0,-1.0,-1.0,2.0,8.0
1.6951636359826796e+18,-1.0,2.0,5.0,-2.0,-2.0,-4.0,-9.0,-21.0
1.6951636359826796e+18,-7.0,-7.0,-6.0,-7.0,-2.0,7.0,32.0,-19.0
1.6951636359826796e+18,-4.0,-14.0,-13.0,-7.0,-11.0,-14.0,-45.0,-6.0
1.695163635983679e+18,2.0,17.0,-3.0,5.0,5.0,2.0,19.0,-65.0
1.695163635983679e+18,-8.0,-8.0,-10.0,-5.0,-8.0,-3.0,4.0,62.0
1.6951636359986703e+18,-3.0,-12.0,-21.0,-5.0,-1.0,2.0,-15.0,-1.0
1.6951636359996698e+18,8.0,24.0,26.0,5.0,2.0,10.0,34.0,19.0
1.6951636360126628e+18,6.0,15.0,-29.0,5.0,2.0,-8.0,-26.0,23.0
1.6951636360126628e+18,9.0,-15.0,5.0,-3.0,-5.0,15.0,44.0,-12.0
1.6951636360136622e+18,-31.0,-4.0,6.0,0.0,-3.0,-23.0,-52.0,-34.0
1.6951636360136622e+18,22.0,-21.0,-65.0,-2.0,-2.0,-5.0,-9.0,69.0
1.6951636360366484e+18,27.0,25.0,67.0,-1.0,-1.0,1.0,8.0,-12.0
1.6951636360366484e+18,-45.0,-3.0,-74.0,-12.0,-6.0,-11.0,-26.0,-43.0
1.6951636360376512e+18,20.0,14.0,27.0,6.0,9.0,20.0,55.0,55.0
1.6951636360376512e+18,-34.0,17.0,-13.0,-4.0,-2.0,4.0,-5.0,-73.0
1.6951636360496435e+18,-18.0,-26.0,18.0,-1.0,-2.0,-2.0,0.0,27.0
1.695163636050641e+18,-12.0,7.0,-9.0,1.0,-2.0,-2.0,3.0,-21.0
1.695163636050641e+18,-14.0,15.0,-32.0,-8.0,-2.0,-1.0,3.0,-16.0
1.695163636050641e+18,-15.0,-3.0,19.0,9.0,8.0,4.0,-11.0,-5.0
1.695163636073628e+18,12.0,-1.0,-12.0,-3.0,-3.0,5.0,12.0,29.0
1.695163636073628e+18,0.0,-21.0,-9.0,2.0,1.0,-2.0,0.0,50.0
1.695163636073628e+18,-2.0,24.0,-33.0,-13.0,-10.0,-14.0,-10.0,-71.0
1.695163636074627e+18,-3.0,-3.0,8.0,2.0,3.0,4.0,-16.0,44.0
1.6951636360886193e+18,3.0,5.0,55.0,6.0,0.0,-6.0,-19.0,-17.0
1.6951636360886193e+18,4.0,8.0,-4.0,0.0,-1.0,3.0,25.0,-21.0
1.6951636360886193e+18,7.0,-3.0,0.0,7.0,7.0,-4.0,-26.0,36.0
1.6951636360886193e+18,-5.0,-8.0,-30.0,-3.0,-5.0,-7.0,-4.0,-32.0
1.6951636361116058e+18,-5.0,-1.0,-8.0,3.0,4.0,12.0,27.0,11.0
1.6951636361116058e+18,-3.0,-13.0,76.0,-1.0,-3.0,-8.0,-32.0,-9.0
1.6951636361126047e+18,14.0,-9.0,21.0,14.0,7.0,11.0,32.0,-16.0
1.6951636361126047e+18,14.0,5.0,-24.0,-11.0,-11.0,-11.0,-15.0,7.0
1.695163636134593e+18,-13.0,15.0,-15.0,-2.0,-5.0,-2.0,-15.0,21.0
1.695163636134593e+18,21.0,-4.0,8.0,2.0,0.0,-1.0,21.0,-45.0
1.695163636151583e+18,-4.0,-14.0,18.0,8.0,-4.0,0.0,1.0,27.0
1.695163636151583e+18,23.0,15.0,-22.0,-3.0,4.0,3.0,11.0,62.0
1.695163636159578e+18,-9.0,-11.0,-34.0,-9.0,-12.0,-11.0,-9.0,-4.0
1.695163636159578e+18,2.0,3.0,56.0,5.0,18.0,3.0,-8.0,0.0
1.695163636159578e+18,6.0,-4.0,-10.0,-7.0,-8.0,2.0,-4.0,-24.0
1.6951636361605778e+18,-21.0,0.0,-31.0,-7.0,-21.0,-9.0,7.0,-24.0
1.695163636183565e+18,0.0,1.0,25.0,-14.0,-14.0,1.0,14.0,-21.0
1.695163636184564e+18,13.0,21.0,-36.0,8.0,7.0,-7.0,-27.0,59.0
1.695163636184564e+18,-10.0,-28.0,4.0,-6.0,3.0,5.0,27.0,-7.0
1.695163636184564e+18,23.0,2.0,29.0,12.0,24.0,26.0,-11.0,37.0
1.695163636196557e+18,-4.0,-13.0,-83.0,-8.0,5.0,-8.0,5.0,1.0
1.695163636196557e+18,-7.0,0.0,-5.0,7.0,-35.0,-22.0,-11.0,-47.0
1.695163636196557e+18,-1.0,-6.0,-18.0,-8.0,39.0,18.0,6.0,7.0
1.695163636196557e+18,-2.0,5.0,22.0,-9.0,-22.0,-3.0,11.0,-21.0
1.6951636362075515e+18,1.0,-2.0,6.0,12.0,11.0,3.0,2.0,-7.0
1.6951636362085512e+18,5.0,24.0,-4.0,-10.0,18.0,15.0,1.0,8.0
1.6951636362085512e+18,8.0,-17.0,-4.0,2.0,-30.0,-14.0,-1.0,17.0
1.6951636362085512e+18,-5.0,0.0,44.0,-6.0,-4.0,-8.0,0.0,-35.0
1.6951636362385326e+18,1.0,14.0,-17.0,-7.0,-20.0,-9.0,-10.0,24.0
1.6951636362385326e+18,9.0,5.0,8.0,-10.0,4.0,1.0,1.0,-6.0
1.6951636362395338e+18,3.0,0.0,13.0,25.0,-16.0,-9.0,-1.0,3.0
1.6951636362395338e+18,-7.0,4.0,21.0,-46.0,9.0,6.0,-2.0,-26.0
1.6951636362535245e+18,3.0,4.0,4.0,32.0,8.0,3.0,3.0,10.0
1.6951636362535245e+18,2.0,-22.0,-44.0,-22.0,-28.0,-9.0,3.0,8.0
1.695163636254524e+18,0.0,5.0,20.0,-7.0,31.0,6.0,-6.0,-6.0
1.695163636254524e+18,-2.0,10.0,-19.0,17.0,-27.0,-15.0,1.0,-7.0
1.6951636362675162e+18,2.0,-5.0,49.0,10.0,2.0,-1.0,-3.0,18.0
1.6951636362675162e+18,-1.0,-5.0,-23.0,-16.0,65.0,28.0,9.0,-2.0
1.695163636268516e+18,0.0,6.0,40.0,31.0,8.0,0.0,-5.0,6.0
1.695163636268516e+18,-1.0,-8.0,-8.0,4.0,11.0,5.0,-1.0,-11.0
1.6951636362945034e+18,2.0,-2.0,11.0,-5.0,-23.0,-7.0,-4.0,4.0
1.695163636300498e+18,0.0,-2.0,4.0,21.0,-18.0,-9.0,-6.0,-6.0
1.6951636363014979e+18,2.0,2.0,-5.0,-31.0,-5.0,-4.0,2.0,3.0
1.6951636363014979e+18,0.0,-3.0,-1.0,12.0,6.0,5.0,4.0,0.0
1.6951636363144904e+18,0.0,-4.0,-14.0,-8.0,15.0,6.0,3.0,0.0
1.6951636363144904e+18,1.0,6.0,20.0,-2.0,-39.0,-12.0,-2.0,1.0
1.6951636363154918e+18,-4.0,-9.0,-22.0,-13.0,-10.0,-10.0,-9.0,3.0
1.6951636363154918e+18,3.0,1.0,8.0,14.0,21.0,5.0,4.0,-5.0
1.6951636363274819e+18,-4.0,-1.0,7.0,8.0,6.0,1.0,0.0,1.0
1.6951636363274819e+18,3.0,7.0,9.0,19.0,-6.0,-6.0,1.0,-1.0
1.695163636342474e+18,-4.0,-18.0,-6.0,-16.0,7.0,7.0,-3.0,-3.0
1.6951636363434732e+18,-4.0,-11.0,-17.0,-21.0,-23.0,-4.0,0.0,-7.0
1.6951636364284247e+18,-1.0,2.0,3.0,9.0,27.0,-4.0,-23.0,-7.0
1.6951636364284247e+18,3.0,1.0,-15.0,-20.0,-12.0,4.0,14.0,7.0
1.695163636429425e+18,4.0,10.0,22.0,52.0,2.0,-12.0,-12.0,-3.0
1.695163636429425e+18,-6.0,-10.0,19.0,-2.0,4.0,-3.0,7.0,-1.0
1.695163636429425e+18,1.0,2.0,-23.0,-34.0,-13.0,-8.0,-18.0,-1.0
1.695163636429425e+18,-1.0,-7.0,7.0,26.0,10.0,20.0,18.0,2.0
1.6951636364873905e+18,5.0,13.0,3.0,-45.0,-25.0,-3.0,7.0,1.0
1.6951636364873905e+18,-4.0,-9.0,4.0,51.0,32.0,12.0,11.0,-2.0
1.6951636364883901e+18,-3.0,-4.0,0.0,-4.0,10.0,1.0,-2.0,0.0
1.6951636364883901e+18,-1.0,1.0,0.0,-10.0,-18.0,-8.0,-10.0,-5.0
1.695163636489389e+18,0.0,-6.0,7.0,11.0,-1.0,5.0,9.0,3.0
1.695163636489389e+18,3.0,6.0,-6.0,-6.0,-4.0,-7.0,-1.0,0.0
1.695163636494387e+18,-6.0,-12.0,-20.0,-5.0,-9.0,4.0,5.0,-2.0
1.695163636494387e+18,-1.0,4.0,16.0,4.0,0.0,-10.0,-27.0,-6.0
1.6951636364953874e+18,2.0,-2.0,-6.0,1.0,8.0,22.0,52.0,11.0
1.6951636364953874e+18,-1.0,-3.0,-3.0,-8.0,3.0,4.0,-5.0,0.0
1.6951636364993825e+18,-4.0,-4.0,14.0,-4.0,-6.0,-4.0,-2.0,-2.0
1.6951636364993825e+18,-6.0,-7.0,-6.0,9.0,-15.0,-6.0,-3.0,-4.0
1.6951636365183726e+18,-2.0,-3.0,8.0,10.0,15.0,2.0,1.0,2.0
1.6951636365203725e+18,1.0,1.0,-13.0,-19.0,-24.0,-9.0,-5.0,-2.0
1.695163636521372e+18,0.0,1.0,-3.0,21.0,38.0,12.0,-2.0,-1.0
1.695163636521372e+18,-3.0,-1.0,-5.0,-24.0,-11.0,2.0,12.0,2.0
1.695163636521372e+18,-2.0,4.0,-6.0,-15.0,-4.0,-6.0,-13.0,-3.0
1.695163636521372e+18,-5.0,-9.0,18.0,24.0,-7.0,-10.0,-5.0,-5.0
1.6951636365393605e+18,4.0,4.0,-2.0,4.0,15.0,13.0,9.0,5.0
1.6951636365393605e+18,-2.0,-3.0,-4.0,-8.0,-8.0,-9.0,-6.0,-3.0
1.6951636365453573e+18,-3.0,-5.0,7.0,18.0,0.0,-1.0,1.0,-1.0
1.6951636365453573e+18,0.0,0.0,-12.0,-15.0,-9.0,-7.0,-12.0,-3.0
1.6951636365653635e+18,-3.0,-6.0,8.0,-2.0,1.0,-1.0,3.0,2.0
1.695163636566347e+18,0.0,-4.0,1.0,3.0,7.0,5.0,5.0,1.0
1.695163636566347e+18,14.0,33.0,-2.0,-3.0,-12.0,-6.0,-7.0,2.0
1.695163636566347e+18,-7.0,-6.0,-3.0,-8.0,-15.0,-8.0,-5.0,-6.0
1.695163636575339e+18,4.0,-7.0,18.0,21.0,30.0,11.0,4.0,2.0
1.695163636575339e+18,0.0,7.0,-17.0,-20.0,-14.0,-9.0,-19.0,-6.0
1.6951636365763392e+18,-3.0,-6.0,6.0,6.0,4.0,4.0,20.0,3.0
1.6951636365763392e+18,1.0,1.0,-7.0,-11.0,-2.0,1.0,2.0,1.0
1.695163636590331e+18,-6.0,-16.0,6.0,9.0,-7.0,-2.0,-2.0,1.0
1.695163636590331e+18,2.0,-26.0,17.0,10.0,5.0,3.0,5.0,4.0
1.695163636590331e+18,-1.0,-5.0,-14.0,-22.0,-11.0,-6.0,-10.0,-3.0
1.695163636590331e+18,-1.0,-6.0,-5.0,7.0,18.0,5.0,-2.0,-1.0
1.695163636613318e+18,-7.0,8.0,0.0,-3.0,-16.0,-5.0,-3.0,-5.0
1.695163636613318e+18,1.0,6.0,-4.0,11.0,10.0,4.0,6.0,1.0
1.6951636366143176e+18,-5.0,-12.0,-5.0,-14.0,0.0,0.0,-6.0,-2.0
1.6951636366143176e+18,5.0,8.0,10.0,13.0,11.0,4.0,3.0,4.0
1.6951636366263127e+18,-1.0,2.0,-7.0,-9.0,5.0,-2.0,-3.0,-2.0
1.6951636366273106e+18,1.0,10.0,-2.0,-7.0,-20.0,-5.0,2.0,0.0
1.6951636366353052e+18,-6.0,-10.0,-6.0,-5.0,-5.0,-3.0,-11.0,-6.0
1.6951636366353052e+18,-4.0,6.0,-9.0,-7.0,6.0,4.0,0.0,-1.0
1.695163636658292e+18,3.0,2.0,-1.0,-1.0,-3.0,0.0,1.0,0.0
1.695163636658292e+18,-1.0,1.0,1.0,2.0,-4.0,-3.0,3.0,-1.0
1.6951636366592916e+18,-2.0,0.0,-2.0,-3.0,-4.0,-5.0,-6.0,-2.0
1.6951636366592916e+18,0.0,4.0,-5.0,4.0,11.0,2.0,-3.0,-2.0
1.695163636681281e+18,-2.0,-8.0,-3.0,1.0,-8.0,-3.0,1.0,2.0
1.695163636681281e+18,-2.0,7.0,-4.0,-6.0,-1.0,-1.0,0.0,-2.0
1.695163636686279e+18,2.0,-8.0,0.0,-5.0,-2.0,1.0,1.0,1.0
1.695163636686279e+18,-3.0,-9.0,10.0,0.0,7.0,4.0,5.0,2.0
1.6951636367032663e+18,2.0,8.0,-5.0,7.0,11.0,3.0,2.0,-1.0
1.6951636367032663e+18,-6.0,-10.0,4.0,15.0,21.0,1.0,-1.0,-3.0
1.695163636704266e+18,-3.0,0.0,-7.0,-6.0,4.0,1.0,-1.0,-2.0
1.695163636704266e+18,1.0,2.0,8.0,-10.0,-17.0,-5.0,-2.0,-1.0
1.695163636709262e+18,4.0,8.0,30.0,22.0,15.0,3.0,2.0,2.0
1.6951636367102653e+18,-6.0,-16.0,-46.0,-19.0,-11.0,-3.0,-4.0,-4.0
1.6951636367192576e+18,2.0,23.0,8.0,7.0,3.0,-1.0,0.0,1.0
1.6951636367192576e+18,-2.0,-14.0,6.0,-2.0,-3.0,-3.0,-1.0,-1.0
1.695163636733251e+18,-3.0,-8.0,-34.0,-14.0,-10.0,0.0,-1.0,-1.0
1.695163636733251e+18,3.0,9.0,26.0,6.0,-4.0,-2.0,-1.0,0.0
1.695163636734249e+18,-4.0,-8.0,-14.0,2.0,0.0,0.0,2.0,0.0
1.695163636734249e+18,0.0,1.0,3.0,-2.0,-1.0,-3.0,-3.0,-2.0
1.695163636764232e+18,1.0,3.0,-3.0,-10.0,-10.0,-7.0,-4.0,-3.0
1.695163636764232e+18,0.0,2.0,-10.0,0.0,2.0,1.0,3.0,1.0
1.695163636764232e+18,-3.0,-2.0,26.0,0.0,-1.0,-6.0,-2.0,8.0
1.695163636764232e+18,1.0,2.0,-19.0,2.0,5.0,5.0,2.0,-26.0
1.6951636367782239e+18,1.0,-3.0,-12.0,-8.0,-8.0,-3.0,-2.0,27.0
1.6951636367782239e+18,16.0,4.0,11.0,-3.0,-1.0,3.0,7.0,4.0
1.6951636367792236e+18,-5.0,-17.0,-22.0,1.0,0.0,6.0,10.0,2.0
1.6951636367792236e+18,-6.0,-12.0,14.0,1.0,-1.0,-3.0,21.0,-11.0
1.695163636808206e+18,-9.0,9.0,-4.0,-8.0,-14.0,-17.0,-42.0,-21.0
1.695163636808206e+18,-8.0,4.0,5.0,-1.0,3.0,-5.0,-26.0,15.0
1.695163636809206e+18,22.0,-10.0,-32.0,-2.0,1.0,-2.0,-1.0,9.0
1.695163636809206e+18,19.0,8.0,-13.0,1.0,5.0,8.0,21.0,15.0
1.6951636368231977e+18,2.0,8.0,20.0,-1.0,2.0,8.0,13.0,-6.0
1.6951636368231977e+18,2.0,-1.0,16.0,-13.0,-12.0,-14.0,-7.0,14.0
1.6951636368241974e+18,-15.0,14.0,-20.0,1.0,-2.0,-5.0,-8.0,-18.0
1.6951636368241974e+18,-31.0,-3.0,6.0,1.0,4.0,10.0,-2.0,4.0
1.695163636845185e+18,41.0,6.0,-2.0,-8.0,-7.0,-5.0,8.0,-11.0
1.695163636845185e+18,-37.0,-20.0,36.0,9.0,6.0,3.0,6.0,-16.0
1.6951636368551798e+18,11.0,4.0,-22.0,-1.0,0.0,-1.0,-15.0,66.0
1.6951636368551798e+18,46.0,10.0,-30.0,-10.0,-10.0,-21.0,-37.0,30.0
1.6951636368561787e+18,-53.0,-28.0,15.0,1.0,0.0,-1.0,-10.0,-69.0
1.6951636368561787e+18,21.0,16.0,-1.0,2.0,-2.0,5.0,7.0,-5.0
1.6951636368571786e+18,-25.0,-8.0,28.0,2.0,-2.0,2.0,16.0,-11.0
1.6951636368571786e+18,5.0,28.0,-2.0,4.0,10.0,10.0,7.0,-35.0
1.695163636875169e+18,2.0,-22.0,-8.0,-2.0,-2.0,-1.0,16.0,52.0
1.695163636875169e+18,27.0,4.0,-4.0,0.0,0.0,4.0,12.0,-28.0
1.6951636368991762e+18,-32.0,38.0,-28.0,0.0,3.0,4.0,14.0,-46.0
1.6951636369001567e+18,34.0,18.0,50.0,-3.0,-6.0,-12.0,-58.0,107.0
1.6951636369011668e+18,-10.0,-83.0,-37.0,-9.0,-9.0,-5.0,-6.0,-67.0
1.6951636369011668e+18,-16.0,55.0,4.0,4.0,7.0,6.0,35.0,-25.0
1.6951636369021527e+18,-18.0,-84.0,29.0,-2.0,3.0,0.0,-8.0,27.0
1.6951636369021527e+18,0.0,-38.0,-52.0,5.0,2.0,-3.0,8.0,-91.0
1.6951636369131466e+18,39.0,63.0,74.0,-12.0,-18.0,-5.0,-8.0,127.0
1.6951636369131466e+18,13.0,12.0,-100.0,-9.0,5.0,-5.0,-41.0,-6.0
1.6951636369141458e+18,-15.0,32.0,36.0,-4.0,-6.0,1.0,9.0,-30.0
1.6951636369141458e+18,-9.0,34.0,-47.0,-14.0,-29.0,-10.0,3.0,-22.0
1.6951636369431283e+18,-13.0,-30.0,34.0,38.0,58.0,22.0,17.0,-54.0
1.6951636369431283e+18,-45.0,-55.0,-40.0,-10.0,-14.0,-4.0,17.0,19.0
1.6951636369441313e+18,50.0,26.0,13.0,2.0,3.0,-10.0,-22.0,-43.0
1.6951636369441313e+18,-19.0,-72.0,38.0,5.0,-6.0,10.0,19.0,35.0
1.6951636369591204e+18,14.0,118.0,-25.0,-2.0,-7.0,-9.0,-4.0,-8.0
1.6951636369591204e+18,-31.0,-79.0,33.0,14.0,11.0,19.0,34.0,37.0
1.6951636369591204e+18,48.0,59.0,-63.0,-16.0,-8.0,-12.0,-12.0,-29.0
1.6951636369601193e+18,-63.0,-35.0,45.0,-17.0,-11.0,-13.0,-31.0,6.0
1.6951636369811177e+18,7.0,-5.0,-100.0,2.0,9.0,-5.0,-10.0,1.0
1.6951636369811177e+18,-20.0,0.0,59.0,11.0,16.0,29.0,60.0,6.0
1.6951636369811177e+18,-13.0,-40.0,40.0,-6.0,-20.0,-23.0,-60.0,-2.0
1.6951636369811177e+18,38.0,14.0,-40.0,-2.0,5.0,-3.0,-3.0,-30.0
1.6951636369950991e+18,-8.0,-10.0,23.0,-8.0,-1.0,16.0,19.0,48.0
1.6951636369950991e+18,11.0,15.0,7.0,-14.0,-22.0,-21.0,-51.0,-15.0
1.695163637027081e+18,-4.0,-11.0,-40.0,7.0,5.0,15.0,58.0,7.0
1.695163637027081e+18,-5.0,26.0,-51.0,-2.0,9.0,-2.0,-2.0,-14.0
1.695163637028081e+18,-35.0,-51.0,18.0,-10.0,-11.0,0.0,20.0,-9.0
1.695163637029082e+18,44.0,19.0,-63.0,-4.0,-10.0,-17.0,-40.0,2.0
1.695163637029082e+18,-20.0,-24.0,110.0,3.0,-3.0,10.0,36.0,33.0
1.6951636370300823e+18,2.0,-2.0,-43.0,-8.0,7.0,0.0,-7.0,1.0
1.6951636370730547e+18,7.0,14.0,-27.0,-5.0,-17.0,-12.0,-2.0,-20.0
1.6951636370730547e+18,-9.0,-50.0,-29.0,-21.0,-8.0,12.0,26.0,-23.0
1.6951636370730547e+18,-41.0,39.0,25.0,-5.0,-4.0,-5.0,7.0,-29.0
1.6951636370740554e+18,24.0,-9.0,16.0,11.0,3.0,-25.0,-56.0,104.0
1.6951636370890468e+18,-12.0,-39.0,-17.0,-2.0,-6.0,-5.0,-12.0,13.0
1.6951636370890468e+18,16.0,42.0,61.0,-11.0,-4.0,-6.0,7.0,3.0
1.6951636370900467e+18,8.0,-41.0,-13.0,-4.0,-3.0,2.0,7.0,-42.0
1.6951636370900467e+18,-65.0,3.0,49.0,4.0,-1.0,2.0,-1.0,-92.0
1.695163637119051e+18,-39.0,-37.0,-84.0,-16.0,-3.0,9.0,1.0,-14.0
1.695163637119051e+18,-1.0,34.0,-27.0,-5.0,-9.0,-7.0,-20.0,-48.0
1.6951636371200404e+18,-39.0,-3.0,21.0,14.0,23.0,19.0,16.0,66.0
1.69516363712103e+18,49.0,-5.0,-14.0,5.0,6.0,3.0,-3.0,27.0
1.69516363712103e+18,3.0,-11.0,56.0,6.0,-1.0,-7.0,-3.0,10.0
1.69516363712103e+18,-36.0,14.0,-41.0,-6.0,1.0,1.0,16.0,-56.0
1.6951636371230264e+18,29.0,-5.0,-50.0,1.0,-6.0,-16.0,-33.0,29.0
1.6951636371230264e+18,35.0,19.0,-31.0,-5.0,0.0,5.0,7.0,45.0
1.6951636371300216e+18,0.0,52.0,74.0,5.0,-5.0,0.0,26.0,-19.0
1.6951636371300216e+18,14.0,10.0,-8.0,3.0,3.0,-3.0,-9.0,41.0
1.6951636371310213e+18,-2.0,-9.0,-27.0,-6.0,1.0,3.0,-12.0,-23.0
1.6951636371310213e+18,-52.0,-9.0,40.0,-8.0,-8.0,3.0,18.0,-42.0
1.6951636371610048e+18,32.0,-6.0,-25.0,5.0,13.0,20.0,-9.0,11.0
1.6951636371610048e+18,-31.0,4.0,19.0,1.0,0.0,-1.0,-1.0,-13.0
1.6951636371850125e+18,23.0,18.0,11.0,0.0,-4.0,-16.0,-34.0,15.0
1.6951636371850125e+18,-39.0,-2.0,25.0,5.0,4.0,14.0,18.0,-4.0
1.695163637186012e+18,-16.0,-40.0,-52.0,-2.0,4.0,3.0,17.0,-5.0
1.695163637186012e+18,23.0,32.0,42.0,-9.0,-8.0,-7.0,-18.0,-8.0
1.695163637186012e+18,-10.0,-5.0,8.0,20.0,16.0,7.0,-5.0,-16.0
1.695163637186012e+18,42.0,4.0,38.0,6.0,5.0,9.0,28.0,18.0
1.6951636371919872e+18,-55.0,2.0,20.0,-20.0,-13.0,-16.0,-27.0,-65.0
1.6951636371919872e+18,-14.0,-1.0,0.0,-8.0,1.0,6.0,16.0,19.0
1.6951636371919872e+18,20.0,6.0,24.0,6.0,2.0,7.0,4.0,14.0
1.6951636371919872e+18,-14.0,-16.0,-33.0,10.0,-2.0,-5.0,5.0,-36.0
1.6951636372149737e+18,14.0,18.0,-10.0,-7.0,-16.0,-14.0,-35.0,1.0
1.695163637215977e+18,24.0,12.0,-8.0,21.0,29.0,20.0,24.0,8.0
1.695163637215977e+18,-16.0,10.0,-18.0,-8.0,-2.0,-1.0,3.0,54.0
1.695163637215977e+18,-18.0,13.0,25.0,2.0,3.0,0.0,-5.0,-32.0
1.6951636372359613e+18,22.0,1.0,-38.0,-3.0,-3.0,9.0,11.0,37.0
1.6951636372359613e+18,32.0,-14.0,-36.0,-13.0,-11.0,-12.0,-15.0,-2.0
1.695163637236966e+18,36.0,-5.0,20.0,6.0,3.0,4.0,6.0,-1.0
1.695163637236966e+18,-5.0,5.0,24.0,3.0,1.0,3.0,4.0,-18.0
1.6951636372579502e+18,-17.0,7.0,-44.0,-13.0,-7.0,-10.0,-5.0,-13.0
1.6951636372589484e+18,-14.0,-14.0,21.0,2.0,0.0,-2.0,-2.0,18.0
1.6951636372589484e+18,0.0,-14.0,-34.0,-11.0,-7.0,-10.0,-13.0,-5.0
1.6951636372589484e+18,-6.0,-13.0,-30.0,-7.0,4.0,7.0,1.0,8.0
1.6951636372719409e+18,7.0,-6.0,20.0,3.0,-7.0,-6.0,1.0,-5.0
1.6951636372719409e+18,-6.0,-3.0,-8.0,-4.0,-5.0,-10.0,-6.0,-1.0
1.6951636372809388e+18,-11.0,4.0,-16.0,-6.0,0.0,7.0,3.0,-19.0
1.6951636372809388e+18,4.0,-9.0,-17.0,-6.0,-10.0,-9.0,-10.0,12.0
1.6951636373029245e+18,2.0,7.0,21.0,13.0,15.0,7.0,3.0,7.0
1.6951636373029245e+18,8.0,17.0,-1.0,-2.0,-7.0,-1.0,-2.0,-14.0
1.6951636373049219e+18,-3.0,-21.0,-25.0,1.0,-3.0,-9.0,-9.0,8.0
1.6951636373049219e+18,-4.0,5.0,3.0,-6.0,-7.0,1.0,-4.0,6.0
1.6951636373089416e+18,5.0,8.0,9.0,8.0,15.0,4.0,7.0,0.0
1.6951636373089416e+18,4.0,3.0,-22.0,-10.0,-19.0,-16.0,-13.0,2.0
1.6951636373229128e+18,-3.0,2.0,17.0,0.0,-2.0,5.0,1.0,-20.0
1.6951636373229128e+18,-5.0,-2.0,6.0,-5.0,4.0,-1.0,6.0,7.0
1.6951636373489188e+18,0.0,-5.0,-19.0,14.0,0.0,6.0,7.0,-3.0
1.6951636373548938e+18,5.0,5.0,-17.0,1.0,7.0,4.0,-3.0,9.0
1.6951636373548938e+18,-4.0,-3.0,24.0,-1.0,-6.0,-9.0,-2.0,-7.0
1.695163637355893e+18,0.0,2.0,14.0,-6.0,-10.0,1.0,2.0,1.0
1.695163637355893e+18,0.0,1.0,-18.0,-3.0,-4.0,-18.0,-4.0,-10.0
1.695163637355893e+18,0.0,-1.0,19.0,4.0,7.0,11.0,-5.0,12.0
1.6951636373628884e+18,-2.0,-3.0,2.0,19.0,12.0,12.0,8.0,-3.0
1.6951636373638907e+18,1.0,3.0,-2.0,-4.0,-1.0,-3.0,-4.0,-6.0
1.69516363737888e+18,-2.0,3.0,8.0,-6.0,-6.0,-2.0,-1.0,-1.0
1.69516363737888e+18,1.0,1.0,-1.0,-1.0,-5.0,-5.0,-5.0,8.0
1.6951636373938716e+18,-2.0,-5.0,-4.0,3.0,4.0,-1.0,2.0,-8.0
1.6951636373938716e+18,-5.0,-1.0,9.0,1.0,-1.0,-1.0,-2.0,-6.0
1.6951636373948708e+18,1.0,8.0,-10.0,-3.0,-2.0,-2.0,0.0,2.0
1.6951636373948708e+18,2.0,-14.0,-17.0,-3.0,-9.0,-7.0,-4.0,5.0
1.695163637407865e+18,-1.0,1.0,-4.0,-10.0,-6.0,-5.0,-2.0,-9.0
1.6951636374088645e+18,-1.0,-4.0,-7.0,10.0,19.0,9.0,2.0,4.0
1.6951636374288517e+18,3.0,12.0,-10.0,-6.0,-2.0,7.0,2.0,3.0
1.6951636374298662e+18,0.0,3.0,-21.0,4.0,9.0,0.0,-3.0,0.0
1.6951636374298662e+18,-2.0,-7.0,12.0,-4.0,-4.0,-1.0,2.0,-4.0
1.6951636374298662e+18,-4.0,0.0,0.0,-3.0,-7.0,-4.0,-1.0,-2.0
1.6951636374378488e+18,-1.0,-6.0,-5.0,-12.0,1.0,-1.0,-1.0,-4.0
1.6951636374378488e+18,0.0,-1.0,6.0,14.0,1.0,3.0,-2.0,2.0
1.6951636374528374e+18,1.0,12.0,-10.0,-6.0,-3.0,-3.0,-4.0,-2.0
1.6951636374528374e+18,-2.0,-8.0,-12.0,-3.0,-4.0,-3.0,-1.0,-1.0
1.6951636374528374e+18,-1.0,-5.0,11.0,11.0,7.0,1.0,-1.0,-3.0
1.6951636374528374e+18,-3.0,-2.0,-16.0,-21.0,-8.0,-4.0,-5.0,2.0
1.6951636374678303e+18,-3.0,3.0,-4.0,0.0,-2.0,0.0,1.0,-1.0
1.6951636374688292e+18,-2.0,-2.0,5.0,-1.0,-2.0,1.0,0.0,-2.0
1.6951636374748242e+18,0.0,0.0,1.0,-1.0,0.0,0.0,0.0,1.0
1.6951636374748242e+18,0.0,2.0,5.0,-2.0,5.0,2.0,0.0,3.0
1.69516363750081e+18,2.0,-5.0,6.0,7.0,2.0,0.0,2.0,0.0
1.69516363750081e+18,-2.0,-1.0,-12.0,-6.0,-8.0,-4.0,-5.0,-3.0
1.69516363750081e+18,-1.0,-3.0,4.0,-2.0,1.0,-2.0,-3.0,-1.0
1.69516363750081e+18,-1.0,3.0,-1.0,6.0,-1.0,1.0,0.0,0.0
1.69516363750381e+18,-2.0,-5.0,-9.0,-8.0,-4.0,-1.0,-3.0,-4.0
1.6951636375048072e+18,-1.0,3.0,12.0,19.0,2.0,-1.0,0.0,-1.0
1.695163637520798e+18,4.0,1.0,-4.0,-5.0,2.0,-1.0,3.0,0.0
1.695163637520798e+18,0.0,-4.0,1.0,-12.0,-3.0,-2.0,-2.0,0.0
1.6951636375217974e+18,-1.0,2.0,-3.0,10.0,1.0,0.0,-1.0,-4.0
1.695163637522797e+18,-5.0,-2.0,-15.0,-16.0,-2.0,1.0,-1.0,-2.0
1.69516363753679e+18,-4.0,-5.0,7.0,10.0,-4.0,0.0,0.0,-1.0
1.69516363753679e+18,2.0,0.0,-3.0,5.0,1.0,1.0,-1.0,-1.0
1.69516363753679e+18,-2.0,-2.0,4.0,3.0,0.0,0.0,-2.0,-1.0
1.6951636375377892e+18,-1.0,1.0,-7.0,-1.0,1.0,-1.0,0.0,1.0
1.695163637549782e+18,-2.0,0.0,4.0,-1.0,-2.0,0.0,-1.0,-2.0
1.695163637549782e+18,3.0,1.0,-4.0,-3.0,0.0,-1.0,1.0,2.0
1.6951636375577807e+18,1.0,2.0,-4.0,0.0,-1.0,4.0,2.0,0.0
1.6951636375587763e+18,2.0,1.0,6.0,0.0,-1.0,-3.0,-2.0,0.0
1.695163637580764e+18,-2.0,-4.0,-13.0,-9.0,-4.0,-4.0,-1.0,-1.0
1.695163637580764e+18,0.0,1.0,9.0,9.0,1.0,1.0,1.0,0.0
1.695163637581763e+18,-1.0,-6.0,-2.0,-2.0,0.0,-2.0,-1.0,-1.0
1.6951636375827628e+18,3.0,1.0,9.0,3.0,1.0,3.0,2.0,-1.0
1.6951636375967575e+18,-2.0,-4.0,-10.0,-13.0,-5.0,-2.0,-2.0,0.0
1.695163637597755e+18,-3.0,-1.0,6.0,8.0,0.0,2.0,-1.0,0.0
1.695163637598754e+18,5.0,1.0,-6.0,-15.0,-1.0,0.0,0.0,0.0
1.695163637598754e+18,-2.0,0.0,3.0,13.0,2.0,-2.0,-1.0,-1.0
1.6951636376257377e+18,1.0,2.0,2.0,-3.0,-4.0,-2.0,-3.0,-1.0
1.6951636376257377e+18,-3.0,-2.0,-4.0,0.0,-2.0,-6.0,0.0,-2.0
1.695163637626738e+18,-1.0,0.0,9.0,1.0,3.0,6.0,1.0,-1.0
1.69516363762775e+18,0.0,-2.0,-10.0,-19.0,-2.0,1.0,2.0,0.0
1.6951636376407324e+18,-3.0,-2.0,1.0,13.0,4.0,-4.0,-4.0,-4.0
1.6951636376407324e+18,-3.0,-2.0,9.0,3.0,-1.0,0.0,0.0,-1.0
1.695163637646748e+18,2.0,1.0,2.0,-7.0,-4.0,-5.0,-3.0,1.0
1.695163637646748e+18,0.0,0.0,-10.0,1.0,2.0,3.0,1.0,0.0
1.6951636376557204e+18,-2.0,-2.0,-1.0,-1.0,2.0,3.0,1.0,0.0
1.6951636376557204e+18,-1.0,-2.0,4.0,5.0,-2.0,-3.0,-3.0,-1.0
1.6951636376567222e+18,-3.0,-2.0,-3.0,1.0,-4.0,-5.0,-2.0,-1.0
1.6951636376577219e+18,-1.0,-1.0,6.0,1.0,0.0,-1.0,-1.0,-1.0
1.6951636376858097e+18,1.0,-1.0,-2.0,-5.0,-4.0,-1.0,1.0,0.0
1.6951636376858097e+18,-2.0,-1.0,1.0,3.0,-2.0,-7.0,-1.0,-2.0
1.6951636376868122e+18,-1.0,0.0,-4.0,0.0,8.0,8.0,1.0,-1.0
1.6951636376878075e+18,-2.0,0.0,8.0,4.0,-3.0,0.0,1.0,0.0
1.6951636376928044e+18,1.0,-2.0,-6.0,-4.0,-4.0,3.0,1.0,-1.0
1.6951636376928044e+18,0.0,1.0,-6.0,-9.0,1.0,1.0,1.0,-1.0
1.6951636376992614e+18,3.0,-1.0,-6.0,-11.0,-4.0,-3.0,-1.0,0.0
1.6951636376992614e+18,-2.0,-5.0,4.0,6.0,-3.0,-4.0,-2.0,-2.0
1.695163637722248e+18,-3.0,0.0,-4.0,2.0,2.0,-1.0,-2.0,-3.0
1.695163637722248e+18,-1.0,0.0,-1.0,11.0,-2.0,0.0,-1.0,-1.0
1.6951636377308795e+18,-4.0,-4.0,-9.0,-6.0,-2.0,-5.0,-2.0,-1.0
1.6951636377308795e+18,1.0,1.0,2.0,-4.0,3.0,2.0,0.0,1.0
1.6951636377379533e+18,-1.0,-3.0,5.0,-1.0,-1.0,0.0,0.0,0.0
1.6951636377379533e+18,0.0,1.0,-15.0,-11.0,-1.0,0.0,-3.0,-2.0
1.6951636377445105e+18,0.0,-2.0,1.0,8.0,1.0,1.0,-1.0,-2.0
1.6951636377445105e+18,-3.0,-3.0,-6.0,-5.0,-5.0,-4.0,-3.0,-2.0
1.6951636377530237e+18,-1.0,0.0,6.0,5.0,0.0,-1.0,0.0,0.0
1.6951636377530237e+18,2.0,-2.0,-1.0,-4.0,1.0,1.0,0.0,1.0
1.6951636377598223e+18,-2.0,-1.0,0.0,0.0,1.0,-1.0,1.0,0.0
1.6951636377598223e+18,0.0,1.0,0.0,-2.0,-2.0,-2.0,0.0,0.0
1.6951636377792484e+18,-1.0,0.0,-2.0,0.0,0.0,0.0,0.0,0.0
1.6951636377792484e+18,-1.0,-2.0,0.0,-2.0,-3.0,0.0,0.0,-1.0
1.695163637780256e+18,-1.0,0.0,-3.0,-2.0,-1.0,-1.0,-2.0,-2.0
1.695163637780256e+18,-1.0,-1.0,0.0,1.0,0.0,0.0,-1.0,-1.0
1.6951636377992356e+18,0.0,0.0,-1.0,4.0,0.0,0.0,0.0,1.0
1.6951636378002355e+18,-1.0,1.0,1.0,-3.0,-2.0,1.0,0.0,0.0
1.6951636378002355e+18,-3.0,-1.0,-2.0,4.0,-1.0,-2.0,0.0,0.0
1.695163637801234e+18,-1.0,0.0,-1.0,-1.0,-2.0,-1.0,-2.0,-1.0
1.6951636378142267e+18,-1.0,0.0,-1.0,-2.0,0.0,0.0,-1.0,-1.0
1.6951636378142267e+18,1.0,2.0,2.0,-2.0,2.0,1.0,-1.0,0.0
1.6951636378202232e+18,-3.0,-3.0,-4.0,-5.0,-3.0,-3.0,-3.0,0.0
1.6951636378202232e+18,0.0,0.0,1.0,3.0,-2.0,-4.0,-2.0,-2.0
1.6951636378462167e+18,-1.0,-1.0,-1.0,-1.0,1.0,0.0,-2.0,-2.0
1.6951636378462167e+18,-2.0,-2.0,-3.0,-4.0,-1.0,1.0,-1.0,1.0
1.6951636378472092e+18,0.0,0.0,0.0,1.0,1.0,0.0,0.0,-2.0
1.6951636378472092e+18,-1.0,0.0,0.0,-1.0,0.0,0.0,-1.0,-2.0
1.6951636378592018e+18,-1.0,1.0,0.0,0.0,-2.0,-1.0,-2.0,0.0
1.6951636378602002e+18,1.0,-1.0,-1.0,2.0,0.0,-1.0,-2.0,-1.0
1.6951636378612014e+18,-1.0,-1.0,-2.0,-1.0,-1.0,-1.0,-1.0,-1.0
1.6951636378612014e+18,-1.0,-2.0,0.0,-3.0,0.0,1.0,-2.0,-1.0
1.6951636378731914e+18,-1.0,0.0,1.0,3.0,2.0,0.0,1.0,1.0
1.6951636378731914e+18,-1.0,-3.0,-3.0,-6.0,-2.0,-2.0,-1.0,-1.0
1.6951636378791875e+18,-1.0,-1.0,-1.0,-3.0,-2.0,-1.0,-1.0,0.0
1.695163637880187e+18,0.0,-1.0,-1.0,-1.0,-1.0,-1.0,0.0,-1.0
1.695163637904177e+18,-3.0,-1.0,-4.0,-1.0,-1.0,-3.0,-1.0,-1.0
1.695163637904177e+18,0.0,-1.0,0.0,2.0,2.0,-1.0,0.0,0.0
1.6951636379051743e+18,-1.0,-1.0,-1.0,-2.0,0.0,0.0,0.0,0.0
1.6951636379061732e+18,-1.0,-3.0,-2.0,-3.0,0.0,-1.0,0.0,1.0
1.6951636379181693e+18,-1.0,2.0,6.0,2.0,-1.0,0.0,-1.0,-3.0
1.695163637919166e+18,-3.0,-6.0,-10.0,0.0,-1.0,-1.0,0.0,-1.0
1.695163637920165e+18,-1.0,-3.0,-13.0,-3.0,-2.0,-1.0,-2.0,-2.0
1.695163637920165e+18,-1.0,-1.0,-2.0,-3.0,-1.0,-1.0,-3.0,0.0
1.6951636379331835e+18,-1.0,1.0,-2.0,0.0,0.0,-1.0,-1.0,-2.0
1.6951636379351813e+18,0.0,3.0,3.0,-1.0,-2.0,-1.0,0.0,-2.0
1.69516363794815e+18,-1.0,0.0,1.0,4.0,0.0,0.0,1.0,-3.0
1.6951636379491553e+18,0.0,0.0,0.0,-3.0,-1.0,-2.0,0.0,-1.0
1.6951636379631654e+18,-2.0,-2.0,-4.0,-1.0,-1.0,-2.0,-2.0,-1.0
1.6951636379641398e+18,-2.0,1.0,-1.0,2.0,3.0,0.0,-1.0,-2.0
1.6951636379651397e+18,1.0,-1.0,-2.0,-2.0,2.0,2.0,1.0,0.0
1.6951636379651397e+18,-3.0,-3.0,0.0,1.0,0.0,-1.0,-4.0,-4.0
1.6951636379781325e+18,0.0,-2.0,-1.0,-3.0,-5.0,-3.0,-2.0,1.0
1.695163637979131e+18,-1.0,-4.0,-2.0,-5.0,0.0,-1.0,-4.0,-2.0
1.6951636379801303e+18,1.0,0.0,4.0,3.0,0.0,0.0,2.0,1.0
1.6951636379801303e+18,0.0,0.0,0.0,4.0,5.0,1.0,0.0,-2.0
1.6951636379921285e+18,0.0,-2.0,-2.0,2.0,-5.0,-4.0,-1.0,-2.0
1.6951636379921285e+18,-2.0,-2.0,2.0,1.0,-1.0,-1.0,-4.0,-2.0
1.6951636380091392e+18,0.0,0.0,1.0,-5.0,-10.0,1.0,2.0,0.0
1.6951636380091392e+18,1.0,4.0,5.0,-7.0,-2.0,-5.0,2.0,1.0
1.6951636380231306e+18,1.0,0.0,2.0,2.0,-6.0,4.0,1.0,4.0
1.695163638024106e+18,-2.0,0.0,-3.0,1.0,16.0,0.0,0.0,-2.0
1.695163638025105e+18,-2.0,-5.0,-4.0,-8.0,-13.0,-8.0,-4.0,-1.0
1.695163638025105e+18,1.0,2.0,-1.0,3.0,3.0,1.0,0.0,0.0
1.695163638038101e+18,0.0,-1.0,1.0,0.0,5.0,8.0,0.0,1.0
1.695163638038101e+18,-1.0,0.0,0.0,13.0,14.0,3.0,7.0,2.0
1.6951636380401014e+18,-3.0,0.0,0.0,5.0,6.0,7.0,-4.0,-1.0
1.6951636380401014e+18,-3.0,-5.0,-2.0,-1.0,-3.0,-3.0,1.0,0.0
1.6951636380520906e+18,-2.0,0.0,-6.0,-12.0,-14.0,-16.0,-6.0,-5.0
1.6951636380520906e+18,0.0,-1.0,5.0,-8.0,-14.0,0.0,-5.0,0.0
1.6951636380721024e+18,-1.0,1.0,2.0,4.0,-4.0,-7.0,-1.0,-2.0
1.6951636380780997e+18,-1.0,-2.0,-5.0,-8.0,2.0,3.0,-3.0,1.0
1.6951636380780997e+18,0.0,-1.0,1.0,4.0,8.0,7.0,0.0,0.0
1.6951636380790738e+18,0.0,0.0,-6.0,-13.0,-11.0,-15.0,2.0,2.0
1.6951636380790738e+18,-1.0,-1.0,5.0,-5.0,-16.0,-6.0,-1.0,0.0
1.6951636380790738e+18,0.0,1.0,-11.0,-2.0,9.0,16.0,-1.0,0.0
1.695163638098088e+18,1.0,1.0,11.0,4.0,21.0,6.0,1.0,0.0
1.6951636380990633e+18,1.0,-2.0,0.0,-6.0,3.0,4.0,5.0,1.0
1.6951636381000666e+18,0.0,0.0,2.0,-4.0,-2.0,3.0,-3.0,-1.0
1.6951636381000666e+18,-5.0,0.0,-1.0,-3.0,-16.0,-12.0,1.0,-2.0
1.6951636381120594e+18,-6.0,-11.0,-4.0,6.0,-5.0,-3.0,-7.0,-4.0
1.6951636381120594e+18,-2.0,2.0,-3.0,2.0,-42.0,-95.0,-11.0,-1.0
1.6951636381210493e+18,-1.0,-9.0,6.0,-2.0,27.0,78.0,10.0,2.0
1.6951636381210493e+18,4.0,8.0,1.0,30.0,48.0,38.0,13.0,5.0
1.695163638142038e+18,2.0,6.0,-5.0,-15.0,-27.0,-17.0,2.0,-4.0
1.695163638143038e+18,-3.0,-13.0,-1.0,-23.0,3.0,1.0,-6.0,-5.0
1.695163638144042e+18,-2.0,-4.0,-4.0,9.0,-18.0,-18.0,-4.0,0.0
1.695163638144042e+18,-2.0,-4.0,0.0,1.0,-3.0,-30.0,-11.0,-11.0
1.6951636381590308e+18,-2.0,13.0,2.0,12.0,18.0,36.0,27.0,8.0
1.6951636381590308e+18,-3.0,-6.0,0.0,15.0,14.0,19.0,-2.0,-7.0
1.6951636381600274e+18,3.0,19.0,6.0,-10.0,-10.0,22.0,-1.0,-5.0
1.6951636381610268e+18,-9.0,-40.0,-9.0,-13.0,-17.0,-80.0,-61.0,11.0
1.695163638181017e+18,2.0,5.0,-3.0,-1.0,-4.0,27.0,-8.0,6.0
1.695163638181017e+18,8.0,9.0,6.0,2.0,9.0,60.0,23.0,-1.0
1.695163638182025e+18,0.0,-8.0,-4.0,4.0,25.0,-3.0,13.0,21.0
1.6951636381830339e+18,8.0,24.0,2.0,-1.0,-9.0,2.0,3.0,-48.0
1.6951636381960115e+18,-4.0,-9.0,-5.0,-9.0,-42.0,-116.0,-9.0,7.0
1.6951636381960115e+18,-2.0,-17.0,-3.0,-6.0,0.0,73.0,-2.0,7.0
1.695163638197008e+18,-14.0,2.0,-6.0,-3.0,21.0,0.0,-2.0,-36.0
1.695163638198011e+18,0.0,0.0,8.0,27.0,35.0,2.0,2.0,18.0
1.695163638225994e+18,5.0,-7.0,-11.0,0.0,13.0,19.0,-8.0,15.0
1.695163638225994e+18,8.0,21.0,24.0,-5.0,-10.0,8.0,6.0,-10.0
1.6951636382279892e+18,4.0,-2.0,-9.0,-11.0,-61.0,-109.0,-14.0,18.0
1.695163638228989e+18,-8.0,-11.0,3.0,-13.0,-7.0,29.0,10.0,-6.0
1.6951636382409853e+18,-3.0,3.0,-2.0,27.0,70.0,76.0,-5.0,-55.0
1.6951636382409853e+18,-9.0,-16.0,-14.0,-1.0,-7.0,17.0,-14.0,30.0
1.69516363824298e+18,-4.0,0.0,5.0,0.0,-8.0,-70.0,10.0,-71.0
1.6951636382439805e+18,-6.0,-23.0,-11.0,-7.0,-12.0,57.0,0.0,34.0
1.6951636382549732e+18,36.0,35.0,22.0,-1.0,9.0,-16.0,11.0,78.0
1.695163638255972e+18,1.0,2.0,3.0,-12.0,2.0,-17.0,-18.0,-30.0
1.6951636382789604e+18,-19.0,-6.0,-10.0,-1.0,-11.0,-8.0,-8.0,18.0
1.6951636382789604e+18,-1.0,4.0,3.0,-3.0,-23.0,-22.0,33.0,-27.0
1.6951636382789604e+18,-19.0,5.0,11.0,-10.0,-13.0,16.0,15.0,-5.0
1.6951636382789604e+18,-3.0,-14.0,-46.0,5.0,8.0,-24.0,-3.0,-36.0
1.6951636382839547e+18,11.0,-4.0,24.0,1.0,3.0,9.0,28.0,8.0
1.6951636382839547e+18,-11.0,5.0,-16.0,-6.0,-3.0,8.0,-50.0,24.0
1.695163638300948e+18,33.0,12.0,-2.0,1.0,-1.0,8.0,0.0,69.0
1.695163638300948e+18,-20.0,-43.0,-8.0,3.0,1.0,-32.0,14.0,-11.0
1.6951636383019474e+18,-6.0,27.0,0.0,0.0,11.0,28.0,-5.0,-49.0
1.6951636383019474e+18,-10.0,-27.0,-18.0,-7.0,-1.0,12.0,10.0,-9.0
1.6951636383159373e+18,1.0,15.0,15.0,-7.0,-16.0,-33.0,-9.0,5.0
1.6951636383159373e+18,-2.0,19.0,4.0,3.0,-6.0,-6.0,8.0,2.0
1.695163638316939e+18,-4.0,-12.0,-5.0,6.0,16.0,33.0,15.0,-10.0
1.695163638316939e+18,18.0,17.0,-33.0,4.0,6.0,-11.0,-12.0,7.0
1.6951636383838653e+18,-6.0,-12.0,32.0,-14.0,-20.0,-15.0,8.0,11.0
1.6951636383848453e+18,10.0,-1.0,-47.0,0.0,3.0,14.0,38.0,33.0
1.6951636383858414e+18,-7.0,-10.0,55.0,8.0,10.0,2.0,-67.0,-9.0
1.6951636383858414e+18,-9.0,14.0,-7.0,-9.0,-16.0,-20.0,-1.0,-30.0
1.6951636383868516e+18,-13.0,-23.0,25.0,13.0,5.0,3.0,5.0,-28.0
1.6951636383868516e+18,1.0,-4.0,-11.0,-2.0,7.0,10.0,5.0,-1.0
1.6951636384018332e+18,15.0,-1.0,-5.0,-5.0,-1.0,-6.0,-1.0,31.0
1.6951636384018332e+18,6.0,24.0,10.0,-3.0,-8.0,-5.0,16.0,16.0
1.6951636384018332e+18,-6.0,-24.0,-22.0,-6.0,-3.0,2.0,-7.0,-27.0
1.6951636384018332e+18,-8.0,-18.0,26.0,2.0,4.0,-4.0,-10.0,3.0
1.6951636384028326e+18,-26.0,11.0,-16.0,-9.0,-6.0,1.0,13.0,-61.0
1.6951636384028326e+18,-13.0,-5.0,26.0,4.0,-1.0,-7.0,-18.0,-10.0
1.6951636384138268e+18,19.0,-3.0,22.0,4.0,4.0,3.0,-14.0,103.0
1.6951636384138268e+18,15.0,-23.0,-25.0,-15.0,-12.0,-8.0,8.0,18.0
1.6951636384148347e+18,32.0,4.0,-46.0,-3.0,1.0,-7.0,-4.0,6.0
1.6951636384148347e+18,-56.0,23.0,108.0,11.0,-1.0,7.0,6.0,-24.0
1.6951636384285396e+18,-2.0,-30.0,-50.0,-3.0,4.0,11.0,11.0,-33.0
1.6951636384285396e+18,10.0,-29.0,57.0,14.0,10.0,-3.0,-2.0,-11.0
1.695163638519819e+18,21.0,4.0,-20.0,-4.0,-1.0,4.0,1.0,-18.0
1.695163638519819e+18,5.0,-16.0,-30.0,-4.0,-6.0,-7.0,-10.0,-18.0
1.6951636385218245e+18,-28.0,-2.0,-10.0,0.0,5.0,11.0,17.0,8.0
1.6951636385218245e+18,5.0,25.0,6.0,2.0,-5.0,-6.0,-5.0,24.0
1.6951636385218245e+18,-35.0,-32.0,-27.0,-3.0,-3.0,-3.0,-8.0,-35.0
1.6951636385218245e+18,11.0,7.0,-2.0,2.0,-1.0,-8.0,-7.0,1.0
1.6951636385418468e+18,8.0,52.0,-10.0,-3.0,2.0,10.0,-10.0,-40.0
1.6951636385438367e+18,16.0,-22.0,-14.0,-7.0,-7.0,-2.0,0.0,48.0
1.6951636385438367e+18,-6.0,-15.0,1.0,-4.0,18.0,-13.0,-5.0,-11.0
1.695163638544843e+18,11.0,10.0,-7.0,30.0,12.0,13.0,-3.0,8.0
1.695163638544843e+18,-7.0,1.0,-44.0,-20.0,-50.0,-16.0,-2.0,19.0
1.695163638545837e+18,-2.0,-25.0,-18.0,-40.0,8.0,-25.0,-6.0,-19.0
1.6951636385748252e+18,-4.0,-4.0,4.0,34.0,15.0,17.0,6.0,6.0
1.6951636385748252e+18,7.0,18.0,12.0,7.0,6.0,22.0,13.0,8.0
1.6951636385758423e+18,-5.0,-9.0,13.0,-2.0,41.0,12.0,9.0,21.0
1.6951636385758423e+18,1.0,-1.0,-10.0,49.0,64.0,22.0,-2.0,-10.0
1.6951636385788165e+18,-8.0,-1.0,-3.0,2.0,-27.0,4.0,0.0,-9.0
1.6951636385788165e+18,2.0,9.0,14.0,-10.0,25.0,-7.0,0.0,4.0
1.695163638617793e+18,2.0,-9.0,-30.0,-25.0,-52.0,-20.0,-8.0,6.0
1.6951636386187927e+18,3.0,5.0,45.0,12.0,1.0,-6.0,-5.0,-8.0
1.6951636386187927e+18,-17.0,8.0,19.0,-5.0,-3.0,-13.0,-3.0,-8.0
1.6951636386187927e+18,8.0,2.0,-10.0,14.0,-16.0,3.0,0.0,4.0
1.695163638622815e+18,2.0,2.0,-12.0,-45.0,-20.0,-10.0,-4.0,9.0
1.6951636386237944e+18,1.0,8.0,20.0,33.0,-2.0,-3.0,0.0,-7.0
1.6951636386237944e+18,-4.0,-7.0,7.0,18.0,0.0,2.0,7.0,2.0
1.6951636386247903e+18,-1.0,4.0,1.0,19.0,23.0,4.0,-6.0,1.0
1.6951636386247903e+18,0.0,-1.0,-1.0,-3.0,11.0,-2.0,0.0,4.0
1.6951636386247903e+18,0.0,-2.0,-26.0,-19.0,29.0,7.0,0.0,-7.0
1.6951636386457774e+18,0.0,-5.0,-22.0,-43.0,-10.0,9.0,0.0,0.0
1.6951636386467779e+18,5.0,3.0,4.0,-8.0,-4.0,2.0,6.0,5.0
1.6951636386477763e+18,4.0,20.0,15.0,42.0,15.0,3.0,5.0,9.0
1.6951636386477763e+18,-5.0,-7.0,6.0,-1.0,-31.0,-5.0,-5.0,-10.0
1.6951636386607685e+18,0.0,-3.0,-3.0,4.0,-3.0,-9.0,-3.0,0.0
1.6951636386607685e+18,-7.0,-12.0,-7.0,-30.0,-18.0,-15.0,-9.0,-9.0
1.6951636386627679e+18,-2.0,-4.0,-12.0,-1.0,7.0,4.0,-2.0,3.0
1.6951636386627679e+18,2.0,4.0,1.0,-38.0,-28.0,3.0,14.0,4.0
1.695163638674773e+18,1.0,7.0,12.0,27.0,1.0,-10.0,-9.0,-4.0
1.695163638674773e+18,-4.0,-4.0,5.0,8.0,2.0,9.0,15.0,2.0
1.695163638690752e+18,-1.0,-4.0,-6.0,-17.0,20.0,12.0,6.0,3.0
1.6951636386917517e+18,2.0,-3.0,3.0,32.0,12.0,0.0,-10.0,-3.0
1.6951636387017464e+18,-3.0,5.0,5.0,1.0,-4.0,-2.0,-6.0,0.0
1.695163638706767e+18,-1.0,-6.0,-21.0,-2.0,-33.0,-20.0,-2.0,-2.0
1.695163638706767e+18,-5.0,-1.0,11.0,4.0,29.0,8.0,0.0,0.0
1.6951636387077427e+18,1.0,-2.0,0.0,16.0,30.0,29.0,13.0,4.0
1.6951636387277356e+18,5.0,7.0,-1.0,3.0,13.0,-1.0,-1.0,2.0
1.6951636387287337e+18,1.0,4.0,11.0,-1.0,-13.0,-12.0,-12.0,-1.0
1.6951636387347256e+18,-5.0,-12.0,4.0,-14.0,-24.0,-11.0,-3.0,-2.0
1.6951636387357258e+18,-3.0,1.0,-12.0,-27.0,-10.0,-7.0,-7.0,-5.0
1.6951636387357258e+18,5.0,10.0,19.0,43.0,17.0,14.0,7.0,3.0
1.6951636387367299e+18,-4.0,-1.0,-18.0,-20.0,-2.0,-6.0,-6.0,-3.0
1.695163638768732e+18,1.0,-3.0,4.0,-8.0,-4.0,9.0,8.0,5.0
1.6951636387717107e+18,-1.0,3.0,24.0,37.0,-8.0,-9.0,-12.0,-7.0
1.6951636387727058e+18,-4.0,-11.0,-13.0,-44.0,-10.0,-2.0,5.0,-1.0
1.695163638773706e+18,2.0,4.0,-5.0,-16.0,5.0,-10.0,-3.0,-4.0
1.695163638773706e+18,1.0,10.0,-18.0,-4.0,-13.0,11.0,23.0,7.0
1.695163638773706e+18,-2.0,-2.0,2.0,2.0,12.0,0.0,-3.0,3.0
1.6951636387827036e+18,-6.0,-9.0,-12.0,-12.0,1.0,-3.0,-16.0,-7.0
1.6951636387827036e+18,3.0,3.0,-19.0,-20.0,4.0,-1.0,0.0,-2.0
1.6951636387837007e+18,-5.0,-15.0,6.0,11.0,-11.0,-2.0,11.0,3.0
1.6951636387837007e+18,2.0,26.0,3.0,1.0,-21.0,-7.0,-7.0,-5.0
1.6951636388116828e+18,-5.0,-14.0,-2.0,4.0,4.0,4.0,13.0,3.0
1.6951636388126828e+18,1.0,7.0,-19.0,-21.0,0.0,-5.0,-11.0,-3.0
1.6951636388126828e+18,-3.0,-6.0,18.0,33.0,-2.0,-11.0,-24.0,-9.0
1.6951636388136855e+18,-4.0,2.0,-8.0,-29.0,-16.0,0.0,7.0,-1.0
1.6951636388326712e+18,-1.0,4.0,-14.0,-21.0,-26.0,-16.0,-9.0,-5.0
1.6951636388326712e+18,-1.0,2.0,3.0,7.0,9.0,6.0,2.0,3.0
1.6951636388486597e+18,4.0,16.0,-13.0,-8.0,-2.0,-3.0,-5.0,0.0
1.6951636388486597e+18,-5.0,-26.0,8.0,-2.0,8.0,6.0,3.0,1.0
1.6951636388496594e+18,-14.0,-4.0,10.0,21.0,-4.0,-11.0,-10.0,-13.0
1.6951636388496594e+18,9.0,-23.0,7.0,2.0,-12.0,-4.0,-8.0,6.0
1.6951636388638354e+18,0.0,30.0,-10.0,7.0,5.0,1.0,3.0,-3.0
1.6951636388638354e+18,-6.0,-22.0,-3.0,-19.0,-3.0,2.0,-2.0,0.0
1.6951636388648356e+18,11.0,25.0,-11.0,-10.0,-5.0,-2.0,8.0,0.0
1.6951636388648356e+18,-15.0,-40.0,19.0,16.0,-4.0,-2.0,-1.0,-4.0
1.6951636388658353e+18,1.0,4.0,0.0,-2.0,9.0,-3.0,-12.0,-2.0
1.6951636388668342e+18,5.0,11.0,-7.0,-12.0,-14.0,-2.0,3.0,1.0
1.695163638878829e+18,-1.0,-24.0,3.0,-3.0,5.0,6.0,10.0,11.0
1.695163638878829e+18,-3.0,16.0,-2.0,-1.0,-12.0,-8.0,-1.0,-5.0
1.6951636388798272e+18,-1.0,2.0,18.0,11.0,-1.0,-3.0,-5.0,1.0
1.6951636388808271e+18,0.0,9.0,-10.0,7.0,29.0,3.0,-2.0,-5.0
1.695163638900815e+18,0.0,-34.0,-7.0,-19.0,-4.0,2.0,5.0,7.0
1.695163638900815e+18,2.0,25.0,4.0,9.0,5.0,6.0,5.0,3.0
1.695163638902815e+18,-5.0,-16.0,8.0,13.0,2.0,-3.0,-5.0,-4.0
1.695163638902815e+18,3.0,-20.0,2.0,1.0,-22.0,-8.0,-3.0,4.0
1.695163638923802e+18,-3.0,11.0,1.0,4.0,11.0,2.0,0.0,-2.0
1.695163638923802e+18,-3.0,1.0,-11.0,-3.0,10.0,3.0,-1.0,0.0
1.6951636389258007e+18,-2.0,-7.0,3.0,-3.0,4.0,12.0,10.0,-17.0
1.6951636389258007e+18,3.0,9.0,1.0,-1.0,-12.0,-5.0,-2.0,28.0
1.6951636389407928e+18,4.0,-5.0,5.0,-9.0,-3.0,-3.0,-5.0,-49.0
1.6951636389407928e+18,-5.0,0.0,-3.0,-2.0,-5.0,-1.0,0.0,9.0
1.695163638941793e+18,-1.0,-4.0,2.0,9.0,-1.0,-7.0,-5.0,2.0
1.695163638941793e+18,-4.0,-8.0,-4.0,-8.0,0.0,6.0,1.0,-2.0
1.6951636389608886e+18,5.0,11.0,-7.0,-3.0,-7.0,-5.0,-1.0,13.0
1.6951636389608886e+18,3.0,4.0,2.0,7.0,1.0,0.0,-3.0,-4.0
1.6951636389628902e+18,-1.0,-6.0,1.0,-3.0,7.0,-15.0,10.0,6.0
1.6951636389628902e+18,-5.0,7.0,-12.0,-4.0,-1.0,15.0,2.0,-13.0
1.6951636389829435e+18,1.0,8.0,0.0,0.0,8.0,11.0,5.0,10.0
1.6951636389829435e+18,4.0,-2.0,-2.0,-3.0,-8.0,-6.0,-2.0,-14.0
1.6951636389987635e+18,1.0,-1.0,0.0,-9.0,-6.0,-5.0,-10.0,12.0
1.6951636389987635e+18,3.0,-2.0,12.0,32.0,41.0,0.0,0.0,-3.0
1.69516363899974e+18,-4.0,2.0,4.0,11.0,12.0,5.0,8.0,4.0
1.69516363899974e+18,-3.0,-5.0,-2.0,-4.0,-8.0,3.0,1.0,4.0
1.695163639000741e+18,2.0,-5.0,-6.0,-11.0,-16.0,-1.0,0.0,-5.0
1.6951636390017398e+18,-1.0,2.0,2.0,-12.0,-10.0,-7.0,-2.0,-7.0
1.6951636390327237e+18,1.0,4.0,-2.0,-2.0,-1.0,-2.0,-6.0,0.0
1.6951636390337247e+18,1.0,-7.0,3.0,5.0,3.0,-1.0,1.0,1.0
1.6951636390347249e+18,-3.0,-2.0,-6.0,-2.0,-2.0,1.0,-4.0,-1.0
1.6951636390347249e+18,3.0,7.0,-4.0,-6.0,-6.0,-3.0,-3.0,-7.0
1.6951636390467151e+18,1.0,9.0,-1.0,4.0,10.0,1.0,-2.0,10.0
1.6951636390477143e+18,-1.0,-14.0,19.0,25.0,5.0,0.0,1.0,-1.0
1.6951636390477143e+18,-7.0,-11.0,-26.0,-22.0,-11.0,-4.0,-10.0,-8.0
1.6951636390477143e+18,2.0,9.0,7.0,4.0,-8.0,-3.0,-2.0,3.0
1.6951636390736983e+18,-2.0,-3.0,-17.0,-32.0,-6.0,-3.0,-1.0,-3.0
1.6951636390736983e+18,-2.0,11.0,-4.0,0.0,0.0,0.0,-2.0,-2.0
1.6951636390747195e+18,4.0,10.0,33.0,18.0,13.0,9.0,4.0,2.0
1.6951636390756992e+18,0.0,-1.0,-37.0,-3.0,-7.0,-8.0,-4.0,-3.0
1.6951636390806932e+18,-1.0,-17.0,-30.0,-8.0,-5.0,-1.0,3.0,4.0
1.6951636390806932e+18,-2.0,7.0,35.0,4.0,3.0,1.0,-1.0,-6.0
1.6951636390826941e+18,-3.0,-1.0,10.0,10.0,3.0,1.0,2.0,5.0
1.6951636390826941e+18,1.0,7.0,-5.0,-14.0,-15.0,-9.0,-4.0,-5.0
1.6951636391196716e+18,29.0,21.0,43.0,20.0,11.0,7.0,23.0,26.0
1.6951636391196716e+18,-37.0,-75.0,-100.0,-18.0,-5.0,-6.0,-20.0,-76.0
1.695163639120671e+18,23.0,15.0,58.0,-3.0,-10.0,2.0,12.0,78.0
1.6951636391216714e+18,21.0,17.0,-16.0,-9.0,-3.0,-3.0,4.0,5.0
1.6951636391216714e+18,-45.0,-18.0,9.0,9.0,-1.0,13.0,11.0,-14.0
1.6951636391216714e+18,-8.0,27.0,28.0,1.0,7.0,-3.0,-7.0,-18.0
1.6951636391486548e+18,26.0,-30.0,-41.0,3.0,1.0,-19.0,-5.0,7.0
1.6951636391486548e+18,12.0,9.0,10.0,8.0,4.0,8.0,13.0,-17.0
1.6951636391496548e+18,-14.0,5.0,-45.0,-8.0,-6.0,0.0,-26.0,34.0
1.6951636391496548e+18,23.0,-1.0,5.0,-7.0,-2.0,-2.0,35.0,51.0
1.6951636391637548e+18,27.0,-23.0,-18.0,7.0,9.0,9.0,-7.0,-33.0
1.6951636391637548e+18,-42.0,-1.0,1.0,-7.0,-5.0,-4.0,14.0,40.0
1.6951636391647608e+18,-9.0,-45.0,10.0,1.0,-10.0,-7.0,-19.0,-116.0
1.6951636391647608e+18,-46.0,64.0,16.0,-3.0,3.0,13.0,30.0,-58.0
1.695163639165759e+18,11.0,54.0,-33.0,-12.0,-13.0,-22.0,-82.0,66.0
1.6951636391667625e+18,33.0,1.0,22.0,14.0,10.0,12.0,14.0,34.0
1.695163639178254e+18,12.0,9.0,21.0,-4.0,-6.0,-3.0,-7.0,-1.0
1.695163639178254e+18,-79.0,-74.0,-29.0,-13.0,-11.0,-6.0,9.0,-5.0
1.695163639180258e+18,33.0,22.0,0.0,8.0,11.0,16.0,33.0,-102.0
1.695163639180258e+18,3.0,-23.0,-37.0,-2.0,2.0,5.0,41.0,-59.0
1.6951636392173916e+18,-66.0,65.0,26.0,-6.0,-10.0,-26.0,-76.0,-16.0
1.6951636392173916e+18,64.0,-24.0,-19.0,0.0,-3.0,-5.0,-35.0,70.0
1.6951636392183972e+18,-96.0,-8.0,5.0,-1.0,2.0,13.0,51.0,-39.0
1.6951636392183972e+18,9.0,20.0,64.0,-4.0,-8.0,-7.0,-45.0,93.0
1.6951636392193892e+18,91.0,11.0,-11.0,6.0,5.0,6.0,41.0,-3.0
1.6951636392193892e+18,1.0,8.0,-12.0,-3.0,0.0,-3.0,-11.0,22.0
1.6951636392298202e+18,-19.0,-6.0,3.0,11.0,6.0,7.0,-5.0,-33.0
1.6951636392308388e+18,-15.0,-29.0,-19.0,-7.0,-9.0,-15.0,-10.0,-47.0
1.695163639253817e+18,-8.0,-45.0,-36.0,-16.0,-29.0,-1.0,43.0,-7.0
1.6951636392548178e+18,14.0,70.0,126.0,36.0,51.0,2.0,-58.0,-5.0
1.6951636392558162e+18,43.0,-35.0,-89.0,-23.0,-14.0,-11.0,5.0,-19.0
1.6951636392558162e+18,-45.0,-48.0,8.0,-38.0,-31.0,-2.0,-20.0,15.0
1.6951636392618125e+18,29.0,25.0,-8.0,52.0,52.0,-7.0,-9.0,50.0
1.6951636392628122e+18,2.0,-34.0,-9.0,-17.0,-16.0,3.0,16.0,39.0
1.695163639263814e+18,-1.0,54.0,28.0,12.0,10.0,9.0,15.0,5.0
1.695163639263814e+18,-11.0,-43.0,-1.0,21.0,18.0,3.0,-14.0,-65.0
1.6951636392748055e+18,-14.0,36.0,-5.0,-37.0,-29.0,-8.0,18.0,9.0
1.695163639276806e+18,68.0,-59.0,-27.0,6.0,-1.0,2.0,-12.0,60.0
1.695163639302789e+18,-6.0,7.0,40.0,-3.0,2.0,3.0,-1.0,-35.0
1.6951636393088097e+18,-6.0,31.0,28.0,8.0,-1.0,0.0,-7.0,-12.0
1.6951636393088097e+18,-35.0,-13.0,16.0,5.0,3.0,0.0,-7.0,-65.0
1.695163639309804e+18,60.0,23.0,-29.0,-5.0,-7.0,-11.0,22.0,64.0
1.695163639309804e+18,-45.0,5.0,6.0,-8.0,-13.0,-16.0,-27.0,79.0
1.695163639309804e+18,5.0,-80.0,-60.0,-10.0,-7.0,-4.0,-15.0,-60.0
1.695163639336768e+18,-36.0,19.0,30.0,21.0,25.0,16.0,20.0,-33.0
1.695163639336768e+18,-21.0,16.0,-26.0,-18.0,-17.0,-7.0,-16.0,-66.0
1.695163639337769e+18,-25.0,-13.0,-21.0,0.0,4.0,8.0,34.0,0.0
1.6951636393387676e+18,42.0,29.0,1.0,11.0,8.0,1.0,-17.0,54.0
1.6951636393387676e+18,43.0,-5.0,23.0,-2.0,-10.0,0.0,7.0,6.0
1.6951636393387676e+18,-55.0,-9.0,-34.0,-15.0,-11.0,-3.0,12.0,-32.0
1.6951636393507625e+18,-28.0,-34.0,14.0,5.0,4.0,5.0,-15.0,-3.0
1.6951636393507625e+18,14.0,37.0,24.0,13.0,13.0,0.0,9.0,-9.0
1.6951636394287153e+18,44.0,5.0,2.0,-8.0,-9.0,5.0,-8.0,40.0
1.6951636394287153e+18,-13.0,-4.0,-22.0,9.0,0.0,7.0,20.0,-28.0
1.6951636394327137e+18,-41.0,-8.0,5.0,2.0,2.0,-8.0,-17.0,-28.0
1.6951636394367104e+18,27.0,16.0,-3.0,-3.0,-4.0,-4.0,14.0,32.0
1.695163639437711e+18,8.0,-36.0,-67.0,8.0,8.0,5.0,-4.0,68.0
1.695163639437711e+18,8.0,34.0,-24.0,-27.0,-14.0,-6.0,5.0,-26.0
1.695163639454699e+18,0.0,-12.0,-12.0,-5.0,-8.0,-1.0,1.0,-12.0
1.695163639454699e+18,-33.0,-16.0,-7.0,8.0,5.0,3.0,-8.0,-27.0
1.6951636394616955e+18,32.0,-4.0,26.0,11.0,6.0,-1.0,-49.0,83.0
1.6951636394626964e+18,-5.0,-8.0,-9.0,-4.0,-7.0,-1.0,9.0,-6.0
1.6951636394806853e+18,12.0,-16.0,-26.0,-3.0,6.0,8.0,3.0,13.0
1.6951636394806853e+18,-1.0,32.0,9.0,-16.0,-11.0,-12.0,-11.0,-28.0
1.6951636394806853e+18,-33.0,-31.0,-14.0,-11.0,-12.0,-11.0,5.0,-27.0
1.6951636394806853e+18,25.0,16.0,38.0,31.0,17.0,13.0,-7.0,17.0
1.6951636394936998e+18,-26.0,9.0,52.0,2.0,9.0,1.0,12.0,23.0
1.6951636394936998e+18,-29.0,-23.0,-56.0,4.0,1.0,9.0,15.0,-37.0
1.6951636394946785e+18,7.0,-31.0,31.0,-10.0,-3.0,1.0,-19.0,20.0
1.6951636394946785e+18,24.0,34.0,-8.0,7.0,3.0,-1.0,-2.0,-11.0
1.6951636394956764e+18,-2.0,-15.0,-21.0,-3.0,-5.0,-8.0,-5.0,-1.0
1.6951636394956764e+18,19.0,-7.0,24.0,13.0,5.0,2.0,-17.0,22.0
1.6951636395036736e+18,-27.0,12.0,6.0,-4.0,-4.0,-2.0,7.0,-44.0
1.6951636395036736e+18,-12.0,7.0,-53.0,-5.0,-2.0,-9.0,10.0,-11.0
1.6951636395046743e+18,31.0,-18.0,20.0,9.0,5.0,10.0,8.0,71.0
1.6951636395046743e+18,-17.0,12.0,-4.0,-15.0,-7.0,-4.0,-5.0,-13.0
1.6951636395229437e+18,12.0,7.0,-10.0,3.0,5.0,10.0,13.0,-21.0
1.6951636395229437e+18,-17.0,-1.0,34.0,-2.0,0.0,1.0,6.0,-21.0
1.6951636395248883e+18,28.0,7.0,-23.0,-1.0,-6.0,-9.0,0.0,-41.0
1.6951636395248883e+18,0.0,3.0,-1.0,-3.0,0.0,0.0,-5.0,39.0
1.6951636395381412e+18,11.0,8.0,17.0,6.0,5.0,-3.0,-6.0,-10.0
1.6951636395381412e+18,-5.0,-14.0,-22.0,-4.0,1.0,-1.0,10.0,-7.0
1.695163639544822e+18,-46.0,-10.0,-8.0,-4.0,-10.0,-7.0,-26.0,-14.0
1.695163639544822e+18,-18.0,12.0,-20.0,3.0,2.0,2.0,-30.0,19.0
1.6951636395608223e+18,2.0,1.0,22.0,9.0,6.0,6.0,21.0,-1.0
1.6951636395608223e+18,-4.0,7.0,-11.0,-16.0,-18.0,-5.0,0.0,-15.0
1.6951636395668582e+18,9.0,-15.0,-66.0,8.0,11.0,-5.0,-9.0,13.0
1.6951636395668582e+18,0.0,14.0,48.0,-4.0,0.0,6.0,-11.0,-9.0
1.6951636395839053e+18,-20.0,6.0,-22.0,-6.0,-7.0,-4.0,3.0,-24.0
1.6951636395839053e+18,-3.0,-18.0,-24.0,-10.0,-6.0,-1.0,-10.0,36.0
1.69516363958491e+18,15.0,-7.0,5.0,-3.0,-2.0,3.0,8.0,-9.0
1.6951636395859128e+18,11.0,8.0,-10.0,0.0,4.0,-6.0,-3.0,19.0
1.6951636395978737e+18,-10.0,-6.0,-17.0,-1.0,-3.0,5.0,12.0,1.0
1.695163639598863e+18,8.0,4.0,2.0,-9.0,-11.0,-12.0,-19.0,-17.0
1.6951636396128532e+18,-3.0,2.0,-4.0,-3.0,-9.0,2.0,6.0,-13.0
1.6951636396128532e+18,-6.0,-21.0,35.0,7.0,4.0,-10.0,-6.0,1.0
1.6951636396288412e+18,-1.0,6.0,-26.0,-6.0,2.0,6.0,4.0,-11.0
1.6951636396288412e+18,-4.0,-13.0,-7.0,7.0,2.0,-4.0,-9.0,13.0
1.6951636396308403e+18,-15.0,-2.0,12.0,-1.0,-5.0,-5.0,-3.0,-11.0
1.6951636396308403e+18,8.0,10.0,6.0,-9.0,5.0,13.0,6.0,8.0
1.6951636396458337e+18,7.0,-3.0,-41.0,-24.0,-14.0,-15.0,-7.0,6.0
1.6951636396468308e+18,-1.0,-14.0,-41.0,12.0,3.0,0.0,-2.0,2.0
1.6951636396468308e+18,2.0,11.0,21.0,-5.0,4.0,2.0,7.0,5.0
1.6951636396468308e+18,3.0,3.0,1.0,10.0,1.0,6.0,4.0,-3.0
1.6951636396578222e+18,2.0,-3.0,20.0,1.0,-5.0,-5.0,-1.0,-1.0
1.6951636396578222e+18,-2.0,8.0,19.0,-10.0,-3.0,-3.0,-4.0,-1.0
1.6951636396658191e+18,-3.0,-14.0,9.0,0.0,-23.0,-15.0,-8.0,-10.0
1.6951636396668224e+18,-2.0,0.0,1.0,0.0,18.0,1.0,2.0,6.0
1.6951636396668224e+18,7.0,-31.0,31.0,-10.0,-3.0,1.0,-19.0,20.0
1.6951636396678226e+18,24.0,34.0,-8.0,7.0,3.0,-1.0,-2.0,-11.0
1.6951636396748132e+18,-2.0,-15.0,-21.0,-3.0,-5.0,-8.0,-5.0,-1.0
1.6951636396748132e+18,19.0,-7.0,24.0,13.0,5.0,2.0,-17.0,22.0
1.69516363968081e+18,-27.0,12.0,6.0,-4.0,-4.0,-2.0,7.0,-44.0
1.69516363968081e+18,-12.0,7.0,-53.0,-5.0,-2.0,-9.0,10.0,-11.0
1.695163639689806e+18,-1.0,-9.0,-7.0,0.0,-1.0,4.0,-1.0,0.0
1.695163639689806e+18,-3.0,10.0,16.0,5.0,-4.0,-6.0,-2.0,-9.0
1.6951636396918052e+18,-1.0,-3.0,-2.0,7.0,20.0,11.0,4.0,13.0
1.6951636396918052e+18,0.0,-10.0,-14.0,-16.0,-26.0,-16.0,-1.0,-10.0
1.695163639718792e+18,0.0,2.0,3.0,7.0,8.0,3.0,0.0,7.0
1.695163639719791e+18,2.0,-2.0,-6.0,-5.0,-1.0,3.0,-1.0,-2.0
1.6951636397207875e+18,3.0,17.0,27.0,-3.0,-9.0,-8.0,0.0,-7.0
1.6951636397217866e+18,-2.0,-14.0,-27.0,14.0,19.0,15.0,3.0,2.0
1.6951636397217866e+18,-2.0,-2.0,-17.0,-8.0,-9.0,-10.0,-4.0,-4.0
1.6951636397217866e+18,-5.0,-10.0,11.0,3.0,7.0,5.0,-1.0,0.0
1.6951636397287816e+18,-1.0,4.0,-8.0,-9.0,-5.0,-4.0,-2.0,-5.0
1.6951636397287816e+18,2.0,0.0,6.0,4.0,-5.0,-9.0,-3.0,3.0
1.695163639732801e+18,-46.0,-10.0,-8.0,-4.0,-10.0,-7.0,-26.0,-14.0
1.695163639732801e+18,-18.0,12.0,-20.0,3.0,2.0,2.0,-30.0,19.0
1.6951636397338015e+18,2.0,1.0,22.0,9.0,6.0,6.0,21.0,-1.0
1.6951636397338015e+18,-4.0,7.0,-11.0,-16.0,-18.0,-5.0,0.0,-15.0
1.6951636397877496e+18,1.0,2.0,5.0,2.0,-4.0,2.0,-1.0,1.0
1.6951636397877496e+18,0.0,-8.0,-2.0,4.0,14.0,9.0,1.0,0.0
1.6951636397897482e+18,0.0,0.0,-1.0,-4.0,1.0,-6.0,-1.0,-1.0
1.6951636397897482e+18,0.0,5.0,2.0,-8.0,-11.0,1.0,2.0,0.0
1.695163639801762e+18,0.0,0.0,2.0,-4.0,-11.0,-5.0,-3.0,-3.0
1.695163639801762e+18,-4.0,-3.0,3.0,7.0,8.0,6.0,5.0,0.0
1.6951636398037545e+18,2.0,8.0,0.0,10.0,12.0,5.0,-3.0,-1.0
1.6951636398037545e+18,-1.0,-5.0,6.0,1.0,-6.0,-8.0,-4.0,0.0
1.6951636398047416e+18,-2.0,3.0,0.0,-12.0,-2.0,-4.0,-4.0,-3.0
1.6951636398047416e+18,1.0,-5.0,2.0,0.0,-9.0,-4.0,0.0,1.0
1.6951636398156797e+18,1.0,1.0,5.0,-6.0,-6.0,1.0,-1.0,-1.0
1.6951636398156797e+18,-2.0,-2.0,-1.0,7.0,8.0,-8.0,-2.0,0.0
1.695163639817683e+18,2.0,-3.0,-4.0,-12.0,-5.0,-1.0,0.0,-3.0
1.695163639817683e+18,3.0,1.0,1.0,-1.0,7.0,9.0,3.0,2.0
1.6951636398306936e+18,0.0,0.0,10.0,17.0,1.0,-4.0,-2.0,-2.0
1.6951636398306936e+18,-1.0,-1.0,-8.0,-34.0,-14.0,-2.0,-1.0,-3.0
1.6951636398326743e+18,-1.0,-1.0,-1.0,11.0,17.0,2.0,-1.0,-2.0
1.6951636398326743e+18,-1.0,0.0,0.0,-7.0,-7.0,-4.0,-2.0,1.0
1.6951636398486648e+18,-1.0,0.0,0.0,12.0,-2.0,-1.0,-2.0,0.0
1.695163639850664e+18,-1.0,-4.0,14.0,15.0,19.0,7.0,0.0,-2.0
1.695163639850664e+18,0.0,-1.0,-9.0,-3.0,-7.0,0.0,2.0,0.0
1.6951636398516634e+18,-1.0,-1.0,0.0,-11.0,-3.0,-4.0,-2.0,-2.0
1.6951636398616594e+18,1.0,-1.0,2.0,5.0,6.0,3.0,0.0,1.0
1.6951636398616594e+18,-2.0,-1.0,5.0,11.0,-9.0,-8.0,-3.0,-1.0
1.6951636398668541e+18,0.0,1.0,-3.0,-13.0,-6.0,3.0,1.0,-1.0
1.6951636398668541e+18,2.0,1.0,-6.0,-12.0,2.0,0.0,0.0,0.0
1.6951636398908895e+18,0.0,-3.0,1.0,-11.0,2.0,1.0,-1.0,-3.0
1.6951636398908895e+18,-5.0,-6.0,-14.0,-7.0,-5.0,-1.0,-2.0,-1.0
1.6951636398928876e+18,-1.0,0.0,8.0,6.0,-2.0,-1.0,1.0,1.0
1.6951636398928876e+18,-2.0,2.0,11.0,16.0,-3.0,-6.0,-3.0,-1.0
1.695163639896891e+18,-5.0,-4.0,-12.0,-13.0,-2.0,-1.0,-1.0,-3.0
1.695163639896891e+18,0.0,-1.0,-1.0,3.0,-3.0,-1.0,-1.0,-1.0
1.695163639905883e+18,1.0,0.0,-8.0,-15.0,-4.0,-3.0,-3.0,0.0
1.695163639906888e+18,-1.0,-1.0,7.0,13.0,1.0,-3.0,-4.0,-1.0
1.6951636399228751e+18,1.0,-3.0,-6.0,-5.0,5.0,1.0,1.0,7.0
1.6951636399388652e+18,-7.0,-1.0,0.0,3.0,5.0,11.0,1.0,-9.0
1.6951636399398636e+18,-4.0,-1.0,-4.0,-7.0,-6.0,-3.0,-2.0,-2.0
1.6951636399398636e+18,2.0,3.0,10.0,18.0,-1.0,-5.0,-2.0,-1.0
1.695163639950857e+18,-3.0,-1.0,-5.0,0.0,4.0,-1.0,0.0,1.0
1.6951636399528568e+18,-4.0,-3.0,-15.0,-17.0,-6.0,-3.0,-1.0,0.0
1.6951636399528568e+18,7.0,0.0,4.0,0.0,2.0,-1.0,-2.0,1.0
1.6951636399538609e+18,-4.0,0.0,0.0,5.0,1.0,-1.0,0.0,-2.0
1.6951636399658486e+18,-2.0,-2.0,14.0,16.0,3.0,0.0,-3.0,-1.0
1.6951636399658486e+18,3.0,0.0,0.0,-3.0,-2.0,-7.0,-1.0,2.0
1.695163639966847e+18,-8.0,-1.0,3.0,5.0,-3.0,6.0,1.0,-3.0
1.6951636399678492e+18,7.0,0.0,-12.0,-13.0,-2.0,1.0,0.0,7.0
1.6951636399808387e+18,-3.0,-1.0,-3.0,-5.0,-5.0,-6.0,-2.0,-4.0
1.6951636399808387e+18,0.0,1.0,4.0,3.0,1.0,1.0,-2.0,1.0
1.6951636399818396e+18,-1.0,-2.0,3.0,8.0,2.0,3.0,0.0,0.0
1.6951636399818396e+18,-3.0,-2.0,-4.0,-15.0,-6.0,-5.0,-5.0,-4.0
1.6951636400028273e+18,-3.0,0.0,-2.0,-3.0,-1.0,-26.0,-7.0,-4.0
1.6951636400038275e+18,1.0,-1.0,1.0,-16.0,-6.0,22.0,2.0,0.0
1.6951636400048256e+18,0.0,-2.0,7.0,17.0,-26.0,-31.0,-5.0,-3.0
1.6951636400048256e+18,0.0,0.0,13.0,12.0,-3.0,6.0,4.0,1.0
1.6951636400328082e+18,1.0,-1.0,-17.0,-5.0,31.0,24.0,10.0,1.0
1.6951636400328082e+18,1.0,2.0,3.0,-3.0,22.0,26.0,9.0,2.0
1.6951636400348083e+18,1.0,2.0,1.0,8.0,16.0,21.0,2.0,1.0
1.6951636400348083e+18,-3.0,-3.0,-5.0,-11.0,-15.0,-19.0,-9.0,-4.0
1.6951636400398052e+18,-1.0,-3.0,3.0,-1.0,-19.0,-19.0,-5.0,-1.0
1.6951636400398052e+18,0.0,-2.0,-1.0,3.0,-5.0,-16.0,-3.0,-1.0
1.6951636400478003e+18,-2.0,-1.0,-7.0,-12.0,0.0,4.0,-1.0,-1.0
1.6951636400488026e+18,-3.0,-4.0,-3.0,-1.0,-3.0,-12.0,-3.0,-3.0
1.6951636400627922e+18,1.0,2.0,1.0,-1.0,-1.0,2.0,-1.0,-2.0
1.6951636400647923e+18,1.0,-1.0,1.0,5.0,-2.0,-5.0,0.0,1.0
1.6951636400647923e+18,0.0,0.0,2.0,-3.0,-4.0,-6.0,-2.0,-2.0
1.6951636400647923e+18,-2.0,-4.0,-7.0,-3.0,7.0,6.0,1.0,-2.0
1.695163640076784e+18,0.0,-1.0,-2.0,-1.0,-1.0,10.0,2.0,-1.0
1.695163640076784e+18,0.0,-1.0,8.0,7.0,-4.0,-7.0,-5.0,0.0
1.6951636400937748e+18,0.0,0.0,1.0,-5.0,1.0,-6.0,0.0,1.0
1.6951636400937748e+18,-1.0,1.0,2.0,0.0,4.0,7.0,2.0,2.0
1.69516364010077e+18,-1.0,-1.0,-7.0,0.0,-1.0,7.0,1.0,-1.0
1.69516364010077e+18,1.0,0.0,0.0,2.0,-4.0,-11.0,-2.0,-1.0
1.6951636401017697e+18,-2.0,-2.0,-5.0,-3.0,3.0,1.0,0.0,-1.0
1.6951636401017697e+18,-1.0,-1.0,4.0,-1.0,1.0,4.0,1.0,-3.0
1.695163640122758e+18,1.0,0.0,4.0,2.0,-2.0,-2.0,-1.0,-1.0
1.695163640123758e+18,0.0,0.0,3.0,2.0,-1.0,-4.0,-1.0,0.0
1.695163640124757e+18,0.0,-1.0,-6.0,-2.0,1.0,0.0,-1.0,-2.0
1.695163640124757e+18,-1.0,-2.0,-9.0,-5.0,1.0,6.0,0.0,0.0
1.6951636401367496e+18,-1.0,0.0,5.0,0.0,-11.0,-11.0,-3.0,-1.0
1.6951636401367496e+18,0.0,-1.0,2.0,-1.0,5.0,7.0,1.0,-1.0
1.6951636401457454e+18,-1.0,0.0,2.0,-1.0,-2.0,2.0,0.0,0.0
1.6951636401457454e+18,-1.0,1.0,-7.0,-1.0,1.0,-2.0,-2.0,-2.0
1.6951636401607355e+18,-2.0,0.0,-1.0,0.0,0.0,-8.0,-2.0,0.0
1.6951636401607355e+18,1.0,3.0,2.0,0.0,-3.0,9.0,2.0,1.0
1.6951636401617357e+18,-2.0,0.0,2.0,2.0,2.0,-1.0,2.0,2.0
1.6951636401617357e+18,-2.0,-1.0,-4.0,0.0,5.0,4.0,0.0,-2.0
1.695163640182726e+18,-1.0,0.0,2.0,-2.0,-3.0,1.0,-2.0,-2.0
1.6951636401837222e+18,0.0,-3.0,-4.0,-2.0,-4.0,-9.0,-3.0,-2.0
1.6951636401847247e+18,0.0,1.0,1.0,-2.0,-3.0,-4.0,0.0,-1.0
1.6951636401847247e+18,-1.0,-3.0,-5.0,-3.0,-3.0,-1.0,0.0,1.0
1.6951636401967153e+18,1.0,-2.0,-1.0,1.0,1.0,6.0,1.0,-2.0
1.6951636401967153e+18,0.0,2.0,-2.0,-5.0,-4.0,-8.0,-4.0,-1.0
1.6951636402117082e+18,-2.0,-5.0,7.0,-2.0,1.0,1.0,-2.0,-2.0
1.6951636402117082e+18,-3.0,0.0,0.0,-1.0,-2.0,-3.0,0.0,-3.0
1.6951636402276966e+18,-1.0,0.0,-1.0,-2.0,0.0,3.0,-1.0,0.0
1.6951636402286976e+18,-1.0,0.0,-1.0,2.0,3.0,0.0,0.0,1.0
1.695163640229719e+18,1.0,0.0,-9.0,-5.0,-4.0,-1.0,-3.0,0.0
1.695163640229719e+18,0.0,3.0,7.0,-1.0,0.0,0.0,0.0,0.0
1.6951636402427067e+18,-3.0,-1.0,-3.0,0.0,-2.0,3.0,-2.0,0.0
1.6951636402436915e+18,-1.0,-1.0,1.0,0.0,-2.0,-2.0,0.0,-1.0
1.6951636402446884e+18,-2.0,-1.0,-2.0,0.0,-1.0,0.0,1.0,-3.0
1.6951636402446884e+18,1.0,1.0,-1.0,0.0,-2.0,-3.0,1.0,-1.0
1.6951636402566807e+18,0.0,-2.0,0.0,0.0,1.0,2.0,0.0,-1.0
1.6951636402566807e+18,0.0,-2.0,-5.0,0.0,-2.0,-4.0,-1.0,-1.0
1.6951636402736714e+18,-1.0,-2.0,-7.0,0.0,-3.0,0.0,-1.0,-1.0
1.6951636402736714e+18,0.0,0.0,6.0,-4.0,-2.0,0.0,-1.0,0.0
1.695163640279667e+18,-3.0,0.0,2.0,1.0,-1.0,2.0,-2.0,0.0
1.6951636402806674e+18,-1.0,-4.0,-10.0,-2.0,-3.0,-3.0,0.0,-2.0
1.695163640286686e+18,-1.0,0.0,9.0,2.0,-2.0,0.0,0.0,0.0
1.695163640286686e+18,0.0,-3.0,-9.0,-2.0,0.0,-2.0,-2.0,-1.0
1.695163640310826e+18,1.0,-2.0,-4.0,1.0,0.0,0.0,0.0,-1.0
1.6951636403118236e+18,-1.0,-1.0,5.0,1.0,-2.0,-3.0,-1.0,-2.0
1.6951636403118236e+18,-1.0,0.0,-4.0,-1.0,2.0,0.0,-2.0,0.0
1.6951636403118236e+18,-1.0,-4.0,-5.0,-1.0,0.0,0.0,0.0,-1.0
1.69516364032574e+18,0.0,2.0,3.0,-1.0,-2.0,-2.0,0.0,-1.0
1.6951636403267397e+18,-2.0,-3.0,-6.0,0.0,0.0,0.0,-3.0,-1.0
1.6951636403277425e+18,0.0,1.0,-1.0,-2.0,0.0,0.0,0.0,-2.0
1.6951636403277425e+18,-1.0,0.0,0.0,-1.0,-3.0,1.0,-1.0,-1.0
1.69516364033984e+18,-2.0,0.0,-5.0,0.0,-1.0,0.0,-1.0,-1.0
1.69516364033984e+18,-2.0,0.0,3.0,-1.0,-1.0,-2.0,-1.0,-1.0
1.695163640348861e+18,-2.0,-2.0,2.0,0.0,0.0,-1.0,-1.0,0.0
1.695163640348861e+18,-1.0,-1.0,-10.0,-1.0,-1.0,-1.0,0.0,0.0
1.6951636403708826e+18,0.0,2.0,2.0,-1.0,1.0,0.0,1.0,1.0
1.6951636403708826e+18,0.0,-1.0,-1.0,0.0,0.0,-1.0,-1.0,0.0
1.6951636403718812e+18,1.0,-2.0,-1.0,0.0,-1.0,-1.0,-1.0,0.0
1.6951636403728812e+18,-1.0,-1.0,-4.0,-2.0,0.0,1.0,1.0,0.0
1.6951636403772485e+18,-2.0,-1.0,7.0,-1.0,-2.0,-1.0,1.0,1.0
1.6951636403772485e+18,-1.0,-1.0,-1.0,-1.0,0.0,-1.0,0.0,0.0
1.6951636403852426e+18,-1.0,-1.0,-2.0,-1.0,0.0,-2.0,-2.0,1.0
1.6951636403862428e+18,-1.0,0.0,2.0,0.0,0.0,-2.0,0.0,-1.0
1.6951636404002342e+18,0.0,-1.0,-3.0,0.0,-2.0,-1.0,-2.0,-1.0
1.6951636404002342e+18,-2.0,0.0,1.0,-1.0,-1.0,-1.0,-1.0,-2.0
1.6951636404062528e+18,-1.0,0.0,-3.0,1.0,-1.0,1.0,0.0,-1.0
1.6951636404072302e+18,-1.0,0.0,0.0,0.0,-1.0,0.0,-2.0,-2.0
1.6951636404233283e+18,1.0,0.0,-2.0,-1.0,0.0,1.0,-1.0,-1.0
1.6951636404233283e+18,0.0,-1.0,0.0,0.0,-1.0,0.0,-2.0,0.0
1.6951636404298179e+18,0.0,1.0,0.0,-2.0,-2.0,-1.0,-1.0,0.0
1.6951636404298179e+18,0.0,1.0,0.0,-1.0,-1.0,-3.0,-2.0,0.0
1.6951636404458844e+18,0.0,-2.0,-2.0,-1.0,0.0,0.0,0.0,0.0
1.6951636404458844e+18,-1.0,-1.0,-2.0,-2.0,-1.0,0.0,0.0,-1.0
1.6951636404475113e+18,0.0,-2.0,-2.0,1.0,-1.0,-1.0,-1.0,-1.0
1.6951636404475113e+18,-1.0,0.0,0.0,0.0,-3.0,0.0,-1.0,0.0
1.6951636404598405e+18,0.0,-2.0,0.0,0.0,0.0,-1.0,-1.0,0.0
1.6951636404598405e+18,-1.0,1.0,-1.0,0.0,0.0,-2.0,2.0,-1.0
1.6951636404728394e+18,-3.0,0.0,1.0,-1.0,-2.0,-1.0,-1.0,-2.0
1.6951636404728394e+18,-1.0,-1.0,0.0,0.0,0.0,0.0,-2.0,0.0
1.6951636404818545e+18,-2.0,0.0,-1.0,-1.0,1.0,0.0,-1.0,0.0
1.695163640482832e+18,-1.0,-1.0,0.0,0.0,-1.0,0.0,-2.0,-1.0
1.6951636404909117e+18,-2.0,-1.0,-1.0,0.0,-1.0,-3.0,-1.0,-3.0
1.6951636404909117e+18,-2.0,0.0,-2.0,-3.0,0.0,0.0,-2.0,0.0
1.6951636405062144e+18,0.0,0.0,0.0,0.0,0.0,1.0,-1.0,-2.0
1.6951636405062144e+18,0.0,-1.0,-1.0,-2.0,0.0,-1.0,-1.0,-1.0
1.6951636405072172e+18,-1.0,1.0,0.0,-3.0,-1.0,1.0,2.0,1.0
1.6951636405072172e+18,-1.0,-1.0,0.0,-1.0,0.0,0.0,-1.0,0.0
1.695163640520206e+18,-2.0,-1.0,-1.0,0.0,-2.0,-1.0,0.0,-1.0
1.695163640520206e+18,-1.0,-2.0,-1.0,1.0,0.0,0.0,-3.0,0.0
1.695163640527206e+18,0.0,-2.0,-1.0,-1.0,0.0,0.0,-1.0,0.0
1.695163640527206e+18,0.0,-2.0,0.0,0.0,0.0,0.0,0.0,1.0
1.6951636405431933e+18,-2.0,-1.0,-1.0,-1.0,-1.0,-1.0,0.0,0.0
1.6951636405431933e+18,-1.0,0.0,0.0,0.0,-1.0,-1.0,1.0,0.0
1.6951636405451924e+18,-2.0,1.0,-2.0,0.0,-1.0,0.0,-1.0,0.0
1.6951636405451924e+18,0.0,-1.0,0.0,-1.0,-3.0,-3.0,0.0,-2.0
1.6951636405672922e+18,2.0,0.0,-1.0,-2.0,-1.0,0.0,0.0,0.0
1.6951636405672922e+18,0.0,1.0,0.0,-2.0,-1.0,-2.0,0.0,1.0
1.6951636405682967e+18,2.0,-3.0,-2.0,0.0,0.0,-2.0,-1.0,-1.0
1.6951636405682967e+18,-2.0,-2.0,-2.0,-2.0,-1.0,-1.0,-1.0,0.0
1.6951636405809014e+18,0.0,0.0,-1.0,-2.0,0.0,-1.0,-1.0,-2.0
1.6951636405809014e+18,-3.0,-1.0,0.0,-2.0,-2.0,-1.0,0.0,-1.0
1.6951636405878986e+18,-1.0,0.0,-2.0,0.0,-1.0,-1.0,0.0,0.0
1.6951636405878986e+18,0.0,0.0,1.0,1.0,1.0,0.0,-1.0,-1.0
1.69516364060389e+18,0.0,0.0,0.0,0.0,-1.0,0.0,0.0,-1.0
1.6951636406058883e+18,1.0,-2.0,-1.0,-2.0,-1.0,-1.0,-1.0,0.0
1.6951636406058883e+18,-1.0,-1.0,-1.0,0.0,0.0,0.0,0.0,-1.0
1.6951636406068954e+18,-2.0,-3.0,-1.0,-1.0,0.0,-1.0,1.0,-2.0
1.695163640642869e+18,-2.0,0.0,0.0,-1.0,0.0,0.0,1.0,0.0
1.695163640644867e+18,-1.0,0.0,0.0,0.0,-2.0,-1.0,0.0,-2.0
1.6951636406458696e+18,-1.0,0.0,1.0,0.0,-2.0,1.0,0.0,-1.0
1.6951636406458696e+18,-1.0,0.0,-1.0,0.0,0.0,0.0,-1.0,0.0
1.6951636406458696e+18,-1.0,-1.0,0.0,-1.0,-1.0,0.0,-1.0,-1.0
1.6951636406468733e+18,-1.0,-2.0,1.0,0.0,-1.0,-1.0,-1.0,-1.0
1.695163640648862e+18,-1.0,-1.0,-1.0,-2.0,-2.0,-1.0,0.0,0.0
1.695163640648862e+18,-1.0,-1.0,-1.0,-1.0,-1.0,1.0,1.0,-2.0
1.6951636406628575e+18,-1.0,-1.0,0.0,-1.0,0.0,-2.0,-1.0,-1.0
1.695163640663862e+18,0.0,-2.0,-1.0,0.0,-1.0,-1.0,-1.0,-2.0
1.6951636406668536e+18,-1.0,0.0,-1.0,-3.0,-1.0,0.0,-1.0,-3.0
1.6951636406668536e+18,-2.0,-1.0,0.0,-2.0,-1.0,-2.0,-3.0,0.0
1.6951636406862162e+18,-1.0,-2.0,-2.0,-3.0,-1.0,-1.0,0.0,-3.0
1.6951636406872159e+18,0.0,-2.0,-2.0,-1.0,-1.0,-1.0,0.0,-1.0
1.695163640692212e+18,-1.0,0.0,0.0,0.0,-1.0,-1.0,-1.0,1.0
1.695163640692212e+18,0.0,-2.0,0.0,0.0,-2.0,1.0,-1.0,-1.0
1.6951636406992082e+18,-1.0,-1.0,-1.0,0.0,1.0,-2.0,-1.0,-2.0
1.6951636407002074e+18,-1.0,-1.0,-1.0,0.0,0.0,0.0,1.0,-2.0
1.6951636407082063e+18,-1.0,-1.0,-1.0,-2.0,0.0,-1.0,-2.0,-1.0
1.6951636407092037e+18,0.0,-2.0,-1.0,-1.0,0.0,-1.0,0.0,-1.0
1.6951636407251932e+18,-1.0,-1.0,-1.0,-1.0,0.0,0.0,-1.0,0.0
1.6951636407251932e+18,-1.0,-1.0,-3.0,-1.0,-3.0,0.0,-1.0,0.0
1.6951636407251932e+18,-1.0,-1.0,-2.0,0.0,-1.0,-2.0,0.0,-1.0
1.6951636407262003e+18,-1.0,1.0,-1.0,-1.0,-2.0,-1.0,0.0,-1.0
1.6951636407461814e+18,1.0,-1.0,0.0,1.0,-1.0,-3.0,-3.0,1.0
1.6951636407461814e+18,-1.0,-2.0,-1.0,0.0,1.0,0.0,-1.0,0.0
1.6951636407471808e+18,-2.0,-2.0,-2.0,1.0,-2.0,0.0,0.0,0.0
1.6951636407471808e+18,-1.0,-3.0,-1.0,-1.0,-1.0,0.0,-2.0,-1.0
1.695163640760174e+18,0.0,1.0,-1.0,0.0,-1.0,0.0,0.0,1.0
1.695163640760174e+18,-1.0,0.0,0.0,-1.0,0.0,-1.0,0.0,-2.0
1.6951636407681705e+18,-1.0,-2.0,0.0,-1.0,-1.0,-1.0,-2.0,0.0
1.6951636407691725e+18,-2.0,1.0,-1.0,-2.0,1.0,-1.0,0.0,-2.0
1.6951636407941604e+18,-1.0,1.0,-2.0,0.0,0.0,-1.0,-1.0,-2.0
1.6951636407951598e+18,1.0,-1.0,-1.0,0.0,-1.0,-1.0,0.0,1.0
1.6951636407951598e+18,0.0,-2.0,0.0,-1.0,1.0,0.0,1.0,-2.0
1.695163640796155e+18,0.0,0.0,-2.0,0.0,-1.0,-2.0,-1.0,0.0
1.6951636408061466e+18,0.0,-1.0,0.0,-1.0,0.0,-2.0,-1.0,-2.0
1.6951636408071468e+18,-1.0,0.0,-1.0,-2.0,-1.0,-1.0,0.0,-1.0
1.695163640812145e+18,0.0,-1.0,0.0,-3.0,1.0,-3.0,-1.0,0.0
1.6951636408131436e+18,-1.0,-1.0,0.0,0.0,0.0,0.0,-1.0,1.0
1.6951636408191644e+18,-2.0,-3.0,0.0,-2.0,-2.0,0.0,-1.0,0.0
1.6951636408201398e+18,0.0,-1.0,2.0,1.0,0.0,-1.0,-2.0,0.0
1.69516364083613e+18,0.0,0.0,-2.0,-1.0,-1.0,1.0,-1.0,-2.0
1.69516364083613e+18,0.0,1.0,-1.0,-1.0,1.0,-2.0,-1.0,-1.0
1.6951636408431255e+18,0.0,1.0,-1.0,-1.0,-2.0,-1.0,0.0,0.0
1.69516364084413e+18,-2.0,-1.0,0.0,0.0,0.0,1.0,0.0,0.0
1.6951636408491474e+18,-1.0,1.0,0.0,0.0,-1.0,-1.0,0.0,-2.0
1.6951636408501225e+18,-1.0,-2.0,0.0,-1.0,-1.0,0.0,-1.0,-3.0
1.6951636408681226e+18,-1.0,1.0,-1.0,-1.0,0.0,-1.0,-1.0,-1.0
1.6951636408681226e+18,-2.0,0.0,-1.0,-1.0,-1.0,-1.0,-1.0,-1.0
1.6951636408681226e+18,-1.0,-2.0,-2.0,-1.0,0.0,0.0,-2.0,-1.0
1.695163640869112e+18,-2.0,0.0,0.0,1.0,-2.0,1.0,-1.0,0.0
1.6951636408801047e+18,-1.0,-4.0,-2.0,-1.0,1.0,0.0,-1.0,-1.0
1.6951636408801047e+18,-1.0,-2.0,-1.0,-3.0,-2.0,-2.0,1.0,-1.0
1.695163640889102e+18,-1.0,1.0,-1.0,0.0,0.0,0.0,-1.0,-2.0
1.695163640889102e+18,-1.0,-1.0,-1.0,-1.0,-3.0,0.0,0.0,-2.0
1.695163640911087e+18,-2.0,-2.0,1.0,-1.0,0.0,0.0,0.0,-1.0
1.695163640911087e+18,1.0,0.0,-1.0,-2.0,-1.0,0.0,-3.0,-1.0
1.6951636409120947e+18,-1.0,0.0,-1.0,-3.0,0.0,-3.0,-1.0,1.0
1.6951636409130954e+18,-1.0,0.0,-2.0,0.0,-1.0,1.0,-1.0,-1.0
1.6951636409260795e+18,-1.0,-1.0,-3.0,2.0,-3.0,1.0,0.0,-1.0
1.6951636409260795e+18,0.0,0.0,-1.0,0.0,-1.0,0.0,-1.0,-1.0
1.6951636409270866e+18,-2.0,-1.0,0.0,1.0,-1.0,0.0,1.0,-1.0
1.695163640928077e+18,1.0,1.0,1.0,0.0,0.0,-1.0,-3.0,0.0
1.6951636409400707e+18,0.0,0.0,-2.0,-1.0,0.0,-2.0,0.0,0.0
1.6951636409410706e+18,0.0,2.0,-1.0,-1.0,0.0,-2.0,-2.0,-3.0
1.6951636409480655e+18,-1.0,-1.0,0.0,0.0,1.0,-2.0,-1.0,1.0
1.6951636409490703e+18,-1.0,-2.0,-2.0,-1.0,-1.0,1.0,1.0,0.0
1.695163640964057e+18,-1.0,-2.0,1.0,0.0,-1.0,0.0,0.0,0.0
1.695163640964057e+18,-1.0,-1.0,0.0,0.0,-1.0,-1.0,-1.0,0.0
1.6951636409660567e+18,1.0,-1.0,0.0,0.0,-1.0,-2.0,1.0,-2.0
1.6951636409660567e+18,-1.0,-2.0,-2.0,-1.0,-2.0,-2.0,-1.0,-2.0
1.6951636409860436e+18,0.0,0.0,0.0,0.0,-1.0,0.0,-2.0,0.0
1.6951636409860436e+18,-1.0,-2.0,-2.0,-3.0,-2.0,-1.0,0.0,0.0
1.6951636409870477e+18,0.0,-1.0,1.0,-3.0,1.0,0.0,-1.0,-1.0
1.6951636409880433e+18,0.0,-1.0,0.0,-2.0,-1.0,-2.0,0.0,-1.0
1.6951636409990612e+18,-1.0,-1.0,-1.0,-1.0,0.0,0.0,-1.0,-1.0
1.6951636410000356e+18,-1.0,2.0,-1.0,-1.0,1.0,0.0,-2.0,0.0
1.6951636410170317e+18,-1.0,0.0,-1.0,-2.0,-1.0,0.0,0.0,-1.0
1.6951636410170317e+18,-1.0,-1.0,-1.0,0.0,-2.0,-1.0,-1.0,-1.0
1.695163641031018e+18,1.0,-1.0,-2.0,-2.0,-2.0,-1.0,-2.0,-1.0
1.695163641031018e+18,-2.0,-2.0,-1.0,0.0,-1.0,0.0,-1.0,-1.0
1.6951636410320182e+18,-1.0,0.0,-1.0,-1.0,-2.0,0.0,-1.0,-1.0
1.6951636410330337e+18,-1.0,-1.0,1.0,-3.0,0.0,0.0,-1.0,-1.0
1.6951636410460096e+18,0.0,0.0,0.0,-1.0,-1.0,0.0,0.0,0.0
1.6951636410470098e+18,0.0,0.0,0.0,-2.0,-2.0,0.0,0.0,0.0
1.695163641048009e+18,-1.0,-2.0,-3.0,0.0,0.0,0.0,-1.0,-1.0
1.695163641048009e+18,-2.0,0.0,-2.0,0.0,-1.0,0.0,-1.0,-1.0
1.6951636410610017e+18,-2.0,1.0,-2.0,-1.0,-1.0,0.0,-1.0,0.0
1.6951636410610017e+18,0.0,-1.0,-1.0,-1.0,-1.0,-2.0,-1.0,0.0
1.6951636410819896e+18,-1.0,-1.0,-2.0,0.0,-1.0,-1.0,-1.0,-2.0
1.6951636410860111e+18,1.0,0.0,0.0,1.0,1.0,-1.0,-1.0,0.0
1.6951636410979807e+18,0.0,-1.0,0.0,-1.0,0.0,-1.0,0.0,-2.0
1.6951636410979807e+18,-1.0,-1.0,0.0,1.0,0.0,0.0,-2.0,-2.0
1.6951636411079741e+18,0.0,-1.0,-2.0,0.0,-1.0,-1.0,-1.0,-1.0
1.6951636411079741e+18,-1.0,-1.0,0.0,-1.0,-1.0,-1.0,-1.0,-1.0
1.695163641108974e+18,-1.0,-1.0,-1.0,-1.0,-2.0,-1.0,0.0,0.0
1.6951636411099738e+18,-1.0,-1.0,-1.0,0.0,-2.0,-1.0,0.0,-1.0
1.695163641111972e+18,0.0,1.0,0.0,-1.0,-1.0,0.0,0.0,0.0
1.695163641111972e+18,0.0,0.0,-1.0,-2.0,-1.0,-1.0,-1.0,-1.0
1.695163641118993e+18,0.0,-1.0,-1.0,0.0,0.0,-2.0,-1.0,0.0
1.6951636411199675e+18,0.0,0.0,-1.0,0.0,0.0,-1.0,-3.0,-1.0
1.695163641127988e+18,-1.0,-1.0,-1.0,-1.0,-1.0,-1.0,-1.0,0.0
1.6951636411289628e+18,-1.0,-1.0,-1.0,1.0,0.0,-3.0,0.0,1.0
1.6951636411429535e+18,-1.0,1.0,1.0,-1.0,0.0,1.0,0.0,-1.0
1.695163641143961e+18,0.0,-1.0,-1.0,-1.0,0.0,-1.0,0.0,-1.0
1.695163641144953e+18,2.0,-2.0,0.0,0.0,-2.0,1.0,-3.0,-1.0
1.695163641144953e+18,0.0,-1.0,1.0,1.0,-1.0,0.0,0.0,0.0
1.6951636411729416e+18,0.0,-1.0,0.0,-2.0,-3.0,-1.0,0.0,0.0
1.695163641173936e+18,0.0,-1.0,0.0,0.0,-1.0,-2.0,1.0,0.0
1.6951636411749363e+18,-3.0,-1.0,0.0,-1.0,1.0,0.0,0.0,-1.0
1.6951636411749363e+18,-1.0,-1.0,0.0,-2.0,0.0,-2.0,0.0,-1.0
1.695163641179937e+18,2.0,-1.0,1.0,-1.0,-1.0,-2.0,1.0,0.0
1.695163641179937e+18,0.0,-1.0,-1.0,0.0,0.0,-1.0,0.0,-1.0
1.695163641187933e+18,0.0,0.0,0.0,0.0,1.0,-1.0,-2.0,1.0
1.695163641188932e+18,-2.0,0.0,-2.0,0.0,1.0,-2.0,-2.0,0.0
1.6951636412029197e+18,-1.0,0.0,-2.0,-1.0,0.0,-1.0,0.0,-1.0
1.6951636412029197e+18,1.0,-1.0,0.0,-1.0,-1.0,-1.0,-1.0,-3.0
1.6951636412169162e+18,-1.0,-2.0,1.0,1.0,-2.0,-2.0,-2.0,-2.0
1.6951636412269317e+18,0.0,-2.0,-2.0,-1.0,-4.0,-1.0,-2.0,-2.0
1.695163641233903e+18,-3.0,-3.0,-1.0,-1.0,-3.0,-2.0,-3.0,-2.0
1.695163641233903e+18,-3.0,-3.0,-2.0,-1.0,-2.0,-2.0,-1.0,-1.0
1.6951636412349015e+18,-2.0,-1.0,-3.0,0.0,-3.0,-3.0,-2.0,-3.0
1.6951636412349015e+18,-1.0,-2.0,-2.0,-1.0,-3.0,0.0,0.0,-2.0
1.6951636412479186e+18,-1.0,-4.0,-2.0,0.0,-1.0,0.0,-2.0,-1.0
1.695163641248894e+18,-2.0,-1.0,-2.0,0.0,1.0,0.0,0.0,0.0
1.6951636412498929e+18,-1.0,0.0,-1.0,0.0,-1.0,-1.0,-1.0,-3.0
1.6951636412498929e+18,-1.0,0.0,-1.0,1.0,0.0,-1.0,-1.0,0.0
1.6951636412628854e+18,-2.0,0.0,0.0,-2.0,0.0,-1.0,-1.0,-2.0
1.6951636412628854e+18,-2.0,0.0,-1.0,-2.0,0.0,0.0,0.0,-3.0
1.6951636412768776e+18,-2.0,-1.0,-1.0,-1.0,-2.0,-1.0,-2.0,1.0
1.695163641277881e+18,-2.0,-3.0,-2.0,0.0,1.0,0.0,-2.0,-2.0
1.695163641301866e+18,-1.0,0.0,-1.0,-2.0,0.0,0.0,-2.0,-1.0
1.695163641301866e+18,-2.0,-1.0,0.0,1.0,-1.0,-1.0,-1.0,0.0
1.6951636413088591e+18,-1.0,0.0,0.0,-2.0,-1.0,-2.0,-1.0,-1.0
1.695163641309859e+18,0.0,0.0,0.0,0.0,-1.0,1.0,-1.0,-1.0
1.69516364131086e+18,0.0,-1.0,0.0,-1.0,-2.0,-1.0,0.0,0.0
1.695163641311859e+18,0.0,-1.0,-3.0,1.0,-3.0,-2.0,0.0,0.0
1.695163641311859e+18,0.0,-1.0,-1.0,-1.0,-2.0,-1.0,-1.0,-1.0
1.6951636413128584e+18,-1.0,0.0,0.0,-2.0,-2.0,-2.0,0.0,-1.0
1.6951636413228562e+18,-1.0,-1.0,-1.0,-1.0,2.0,-2.0,0.0,-1.0
1.6951636413228562e+18,0.0,-2.0,-1.0,-1.0,-1.0,1.0,0.0,-1.0
1.6951636413298478e+18,0.0,-1.0,-2.0,-3.0,0.0,0.0,-1.0,1.0
1.6951636413298478e+18,0.0,-1.0,-2.0,-2.0,1.0,-1.0,0.0,-1.0
1.695163641344822e+18,-1.0,1.0,-1.0,-2.0,0.0,0.0,0.0,0.0
1.695163641344822e+18,-1.0,0.0,0.0,-1.0,1.0,1.0,-1.0,0.0
1.695163641352892e+18,0.0,-1.0,-1.0,-1.0,-2.0,0.0,1.0,-1.0
1.6951636413538908e+18,0.0,-2.0,1.0,0.0,-1.0,-1.0,2.0,-1.0
1.6951636413598195e+18,-2.0,-3.0,-2.0,1.0,-2.0,0.0,-2.0,-1.0
1.6951636413598195e+18,-1.0,-1.0,1.0,-1.0,-1.0,-1.0,0.0,-2.0
1.6951636413748884e+18,-2.0,-3.0,-2.0,1.0,-2.0,-2.0,0.0,-2.0
1.6951636413748884e+18,0.0,-1.0,0.0,-2.0,0.0,-1.0,-1.0,-1.0
1.695163641383884e+18,-1.0,0.0,0.0,0.0,-2.0,-1.0,0.0,1.0
1.6951636413848852e+18,-3.0,0.0,0.0,-1.0,0.0,-1.0,-1.0,0.0
1.6951636413858944e+18,0.0,0.0,-1.0,-1.0,0.0,0.0,0.0,1.0
1.6951636413858944e+18,1.0,-1.0,0.0,-2.0,0.0,-2.0,-2.0,-1.0
1.695163641406872e+18,0.0,-1.0,-1.0,-1.0,-2.0,-2.0,-2.0,0.0
1.6951636414078717e+18,-2.0,1.0,-1.0,-1.0,0.0,0.0,-2.0,-1.0
1.6951636414078717e+18,0.0,-2.0,0.0,-1.0,-1.0,-1.0,0.0,-1.0
1.6951636414088786e+18,-2.0,0.0,-1.0,1.0,0.0,-1.0,-1.0,-1.0
1.6951636414368896e+18,0.0,-1.0,-1.0,1.0,-1.0,-1.0,-1.0,0.0
1.695163641446885e+18,0.0,-2.0,-1.0,-1.0,-2.0,-2.0,-1.0,0.0
1.6951636414478556e+18,-2.0,0.0,0.0,-2.0,0.0,0.0,0.0,-1.0
1.695163641448857e+18,-2.0,-2.0,-2.0,-1.0,-1.0,0.0,-1.0,0.0
1.695163641448857e+18,-1.0,-2.0,-1.0,-1.0,0.0,0.0,-2.0,-1.0
1.695163641448857e+18,1.0,0.0,-2.0,-1.0,0.0,0.0,-1.0,0.0
1.6951636414518446e+18,-2.0,1.0,0.0,0.0,0.0,0.0,-2.0,1.0
1.6951636414518446e+18,-1.0,-2.0,-1.0,-1.0,-2.0,1.0,-1.0,-1.0
1.6951636414678377e+18,-1.0,1.0,-1.0,1.0,0.0,0.0,-2.0,-1.0
1.6951636414688384e+18,0.0,-1.0,-1.0,-1.0,1.0,-1.0,-1.0,-1.0
1.6951636414688384e+18,0.0,-1.0,-1.0,1.0,0.0,-1.0,0.0,0.0
1.6951636414698358e+18,-1.0,0.0,-1.0,-1.0,-1.0,0.0,0.0,-1.0
1.6951636414908244e+18,1.0,-2.0,-3.0,-1.0,-2.0,0.0,1.0,-2.0
1.695163641491824e+18,-1.0,-1.0,0.0,-2.0,-1.0,-1.0,-1.0,0.0
1.6951636414928225e+18,-1.0,0.0,-1.0,0.0,-2.0,1.0,-2.0,-1.0
1.695163641493824e+18,0.0,-2.0,0.0,-2.0,0.0,0.0,0.0,-1.0
1.6951636415138104e+18,-1.0,-2.0,1.0,-2.0,-1.0,-3.0,0.0,0.0
1.6951636415138104e+18,-1.0,0.0,-2.0,-1.0,-1.0,-1.0,-1.0,0.0
1.69516364151481e+18,-1.0,-1.0,-2.0,-2.0,-2.0,0.0,0.0,-1.0
1.6951636415158085e+18,0.0,-1.0,-2.0,-2.0,0.0,0.0,-1.0,0.0
1.6951636415268014e+18,-1.0,0.0,-1.0,0.0,1.0,-1.0,-2.0,0.0
1.6951636415268014e+18,-2.0,-1.0,-2.0,2.0,-1.0,-1.0,-1.0,-1.0
1.695163641527801e+18,-1.0,-2.0,1.0,0.0,0.0,-1.0,0.0,0.0
1.695163641527801e+18,-1.0,0.0,-1.0,-1.0,0.0,-1.0,0.0,-1.0
1.6951636415587835e+18,-1.0,0.0,0.0,-1.0,-1.0,0.0,-1.0,-1.0
1.6951636415587835e+18,0.0,-2.0,-2.0,-2.0,0.0,0.0,-1.0,1.0
1.6951636415597857e+18,-1.0,0.0,-1.0,-1.0,0.0,0.0,-1.0,-3.0
1.6951636415597857e+18,-1.0,0.0,0.0,1.0,-1.0,0.0,0.0,1.0
1.6951636415707756e+18,-1.0,-1.0,0.0,-2.0,-1.0,0.0,-2.0,-1.0
1.6951636415707756e+18,-1.0,-1.0,-2.0,-1.0,-2.0,-2.0,-1.0,0.0
1.6951636415727752e+18,0.0,-2.0,-1.0,-2.0,0.0,-3.0,1.0,-2.0
1.6951636415727752e+18,-1.0,0.0,0.0,-2.0,-2.0,-1.0,-1.0,0.0
1.695163641600758e+18,-1.0,0.0,-2.0,0.0,-2.0,1.0,-2.0,-3.0
1.6951636416017585e+18,-2.0,-2.0,2.0,0.0,-2.0,0.0,0.0,0.0
1.6951636416027581e+18,0.0,0.0,0.0,-2.0,-1.0,-1.0,0.0,-1.0
1.6951636416027581e+18,-2.0,-2.0,-1.0,-1.0,0.0,-1.0,-1.0,-1.0
1.6951636416077535e+18,-1.0,-2.0,-3.0,-3.0,-1.0,-2.0,-3.0,-1.0
1.6951636416087565e+18,-1.0,0.0,-1.0,-1.0,-2.0,0.0,-1.0,-3.0
1.6951636416147507e+18,-1.0,0.0,-1.0,1.0,0.0,-1.0,0.0,-1.0
1.6951636416147507e+18,0.0,-1.0,0.0,1.0,-2.0,0.0,-3.0,0.0
1.695163641628748e+18,-2.0,-1.0,-1.0,1.0,0.0,-1.0,1.0,-2.0
1.695163641628748e+18,-1.0,-2.0,-1.0,-1.0,-1.0,-2.0,0.0,0.0
1.6951636416297434e+18,-1.0,-2.0,-2.0,0.0,-2.0,-1.0,-1.0,-1.0
1.6951636416297434e+18,1.0,-1.0,-1.0,0.0,0.0,1.0,-1.0,-1.0
1.6951636416457324e+18,1.0,0.0,-1.0,-1.0,-1.0,-1.0,0.0,0.0
1.6951636416467325e+18,-1.0,0.0,0.0,-2.0,0.0,1.0,0.0,-1.0
1.6951636416477325e+18,-2.0,-1.0,-2.0,0.0,-1.0,0.0,0.0,0.0
1.6951636416477325e+18,-1.0,-1.0,-3.0,-1.0,0.0,0.0,0.0,0.0
1.6951636416687199e+18,-1.0,0.0,-1.0,0.0,-2.0,0.0,0.0,2.0
1.6951636416687199e+18,0.0,0.0,-1.0,-1.0,0.0,-2.0,-1.0,-1.0
1.6951636416697188e+18,-1.0,0.0,-1.0,0.0,0.0,-2.0,-1.0,-1.0
1.6951636416697188e+18,-2.0,-1.0,-2.0,-1.0,0.0,-2.0,-1.0,-2.0
1.6951636416907128e+18,0.0,-1.0,-2.0,-1.0,0.0,0.0,-2.0,-2.0
1.6951636416947105e+18,-1.0,0.0,0.0,0.0,-1.0,0.0,-1.0,-1.0
1.695163641697729e+18,-1.0,-2.0,-1.0,-1.0,-1.0,0.0,0.0,-1.0
1.695163641697729e+18,-1.0,0.0,1.0,-1.0,0.0,-3.0,-2.0,-2.0
1.6951636417056986e+18,-1.0,0.0,0.0,0.0,0.0,0.0,1.0,1.0
1.6951636417056986e+18,0.0,0.0,-2.0,-1.0,-1.0,0.0,-2.0,0.0
1.6951636417076984e+18,-1.0,1.0,-1.0,0.0,-1.0,0.0,0.0,1.0
1.6951636417076984e+18,0.0,-1.0,-1.0,-2.0,1.0,-1.0,-1.0,-1.0
1.69516364172821e+18,-1.0,-1.0,0.0,0.0,1.0,0.0,-2.0,-1.0
1.69516364172821e+18,-2.0,0.0,-1.0,1.0,0.0,-1.0,0.0,0.0
1.6951636417302152e+18,1.0,-1.0,-1.0,-1.0,0.0,0.0,-1.0,-2.0
1.6951636417302152e+18,0.0,1.0,-2.0,1.0,-3.0,-1.0,-1.0,-1.0
1.6951636417428984e+18,0.0,-1.0,-2.0,-1.0,-1.0,-1.0,0.0,0.0
1.6951636417438956e+18,0.0,-2.0,0.0,1.0,-1.0,-1.0,-1.0,-1.0
1.6951636417508316e+18,0.0,-1.0,0.0,-1.0,-1.0,-1.0,-2.0,-1.0
1.695163641751838e+18,-1.0,-1.0,-1.0,-1.0,-1.0,-1.0,-1.0,0.0
1.6951636417738962e+18,-2.0,0.0,-1.0,-1.0,-2.0,0.0,0.0,-2.0
1.6951636417738962e+18,-2.0,0.0,-2.0,-1.0,-1.0,0.0,1.0,0.0
1.6951636417748954e+18,0.0,-1.0,0.0,-2.0,1.0,0.0,0.0,0.0
1.6951636417748954e+18,-2.0,-1.0,0.0,-1.0,1.0,-2.0,-1.0,-1.0
1.6951636417892183e+18,0.0,-2.0,-2.0,0.0,0.0,-1.0,0.0,-2.0
1.6951636417892183e+18,0.0,-1.0,0.0,0.0,-1.0,-2.0,0.0,-2.0
1.6951636417902152e+18,-2.0,0.0,-1.0,1.0,0.0,-1.0,-1.0,1.0
1.6951636417902152e+18,0.0,-1.0,0.0,0.0,-2.0,-1.0,-1.0,-1.0
1.6951636418038953e+18,-2.0,0.0,0.0,1.0,-1.0,-1.0,-1.0,0.0
1.6951636418038953e+18,-1.0,-2.0,-1.0,-3.0,0.0,0.0,-2.0,-2.0
1.695163641811843e+18,1.0,0.0,-2.0,-2.0,0.0,0.0,-1.0,0.0
1.69516364181284e+18,-1.0,0.0,0.0,-1.0,-1.0,-1.0,-1.0,1.0
1.6951636418257454e+18,0.0,0.0,0.0,-2.0,-1.0,-1.0,-1.0,-1.0
1.6951636418267492e+18,1.0,-1.0,-1.0,1.0,1.0,-1.0,-3.0,-1.0
1.6951636418337408e+18,-1.0,0.0,-2.0,0.0,-1.0,0.0,0.0,-1.0
1.6951636418337408e+18,0.0,0.0,-2.0,0.0,-1.0,0.0,0.0,2.0
1.695163641849191e+18,1.0,-1.0,-1.0,-1.0,-1.0,-2.0,-3.0,0.0
1.695163641849191e+18,0.0,0.0,-4.0,-2.0,0.0,-2.0,-1.0,0.0
1.6951636418501921e+18,0.0,-1.0,-1.0,-3.0,0.0,-2.0,-1.0,-2.0
1.6951636418501921e+18,-1.0,0.0,1.0,0.0,0.0,-1.0,1.0,-3.0
1.695163641862742e+18,-1.0,-1.0,-2.0,0.0,0.0,1.0,1.0,-1.0
1.695163641863742e+18,-1.0,0.0,-1.0,-1.0,-1.0,-1.0,-1.0,-1.0
1.6951636418774907e+18,-2.0,-1.0,1.0,1.0,0.0,0.0,0.0,-2.0
1.6951636418774907e+18,-2.0,-1.0,-1.0,-1.0,-1.0,0.0,0.0,0.0
1.6951636418867187e+18,0.0,0.0,-1.0,-1.0,-1.0,-2.0,-1.0,1.0
1.6951636418867187e+18,0.0,0.0,-3.0,-1.0,-1.0,0.0,0.0,0.0
1.6951636418877156e+18,-1.0,-1.0,-2.0,-1.0,-1.0,-1.0,0.0,-2.0
1.6951636418877156e+18,-1.0,0.0,0.0,0.0,-2.0,-1.0,-1.0,-1.0
1.695163641909979e+18,-1.0,-1.0,1.0,1.0,-1.0,1.0,-1.0,-1.0
1.6951636419109844e+18,0.0,-1.0,0.0,-1.0,-1.0,1.0,0.0,0.0
1.6951636419109844e+18,0.0,-2.0,-1.0,-1.0,0.0,-1.0,-2.0,0.0
1.6951636419109844e+18,-1.0,-2.0,-2.0,-1.0,-1.0,1.0,0.0,-3.0
1.6951636419309125e+18,-2.0,-2.0,-2.0,-1.0,0.0,-2.0,0.0,-2.0
1.695163641931899e+18,-2.0,-1.0,1.0,-2.0,0.0,-1.0,-1.0,0.0
1.6951636419328965e+18,-1.0,-1.0,0.0,1.0,0.0,-2.0,0.0,0.0
1.6951636419328965e+18,0.0,-1.0,-3.0,-1.0,0.0,-2.0,-1.0,-1.0
1.6951636419467174e+18,-2.0,-1.0,-2.0,-1.0,-1.0,0.0,0.0,0.0
1.6951636419467174e+18,-1.0,-1.0,-1.0,0.0,-1.0,0.0,-1.0,-1.0
1.6951636419477148e+18,-3.0,0.0,0.0,0.0,-2.0,-1.0,-2.0,-1.0
1.6951636419477148e+18,0.0,1.0,-1.0,0.0,0.0,-1.0,-2.0,-1.0
1.6951636419687488e+18,0.0,0.0,1.0,0.0,-1.0,-1.0,1.0,-2.0
1.6951636419687488e+18,0.0,-1.0,-2.0,-1.0,-2.0,-1.0,0.0,-1.0
1.6951636419747428e+18,-2.0,-1.0,0.0,0.0,0.0,-2.0,0.0,-1.0
1.6951636419757448e+18,-1.0,-1.0,0.0,0.0,-1.0,-1.0,-2.0,0.0
1.6951636419827387e+18,1.0,-2.0,0.0,-1.0,1.0,1.0,-1.0,0.0
1.6951636419827387e+18,-1.0,0.0,0.0,1.0,-2.0,-1.0,0.0,-2.0
1.695163642008973e+18,0.0,2.0,-3.0,1.0,-1.0,0.0,-1.0,0.0
1.6951636420099735e+18,-1.0,0.0,0.0,0.0,0.0,0.0,0.0,-2.0
1.6951636420109727e+18,-2.0,-1.0,0.0,-2.0,1.0,0.0,-1.0,-1.0
1.6951636420109727e+18,-2.0,-3.0,1.0,-1.0,0.0,-1.0,-1.0,-3.0
1.6951636420197489e+18,-1.0,-2.0,-1.0,-1.0,-1.0,0.0,-2.0,-1.0
1.6951636420197489e+18,-1.0,-1.0,-1.0,0.0,0.0,-1.0,-1.0,0.0
1.6951636420277466e+18,-2.0,-1.0,0.0,0.0,0.0,0.0,-1.0,1.0
1.6951636420277466e+18,-1.0,-1.0,-3.0,1.0,-1.0,-1.0,0.0,-1.0
