timestamp,left_data_Ac_X,left_data_Ac_Y,left_data_Ac_Z,left_data_Gy_X,left_data_Gy_Y,left_data_Gy_Z,left_data_flex_1,left_data_flex_2,left_data_flex_3,left_data_flex_4,left_data_flex_5,right_data_Ac_X,right_data_Ac_Y,right_data_Ac_Z,right_data_Gy_X,right_data_Gy_Y,right_data_Gy_Z,right_data_flex_1,right_data_flex_2,right_data_flex_3,right_data_flex_4,right_data_flex_5
1695163634668560500,-9.046490669,-1.174355984,-1.928529501,-0.055557426,0.020917306,-0.016387442,-1,42,55,45,44,-8.760383606,3.04901576,1.951274395,-0.08726646,0.046098009,0.032108728,-60,-11,-16,31,160
1695163634669560500,-9.045293808,-1.174355984,-1.922544003,-0.055024505,0.021983154,-0.017053599,-1,43,55,45,45,-8.773551941,3.062183857,1.947683096,-0.090597242,0.050228179,0.032641653,-61,-12,-17,31,154
1695163634670560500,-9.041702271,-1.175553083,-1.917755604,-0.054491576,0.02358193,-0.01825268,-1,46,55,45,44,-8.781931877,3.069366693,1.945288897,-0.093128636,0.0528928,0.033441041,-61,-11,-17,31,160
1695163634671560500,-9.041702271,-1.174355984,-1.917755604,-0.054358348,0.024114855,-0.018785605,1,43,55,45,45,-8.796297073,3.08133769,1.948880196,-0.096859112,0.056889739,0.034906585,-60,-9,-17,32,160
1695163634672560500,-9.046490669,-1.173158884,-1.912967205,-0.054358348,0.025047474,-0.019984685,4,44,55,45,43,-8.808267593,3.089717388,1.948880196,-0.100323126,0.06115314,0.036638591,-65,-9,-16,32,157
1695163634754503400,-9.054870605,-1.136048675,-1.89860189,-0.062352221,0.021316998,-0.037437979,-1,41,55,45,45,-8.918401718,2.962824583,2.092532396,-0.131632462,0.12616998,0.123238891,-63,-9,-19,32,160
1695163634755503400,-9.052476883,-1.137245774,-1.89620769,-0.062485453,0.021450229,-0.037704438,-1,43,48,44,43,-8.918401718,2.941276789,2.100912094,-0.131099537,0.126436442,0.12723583,-63,-13,-16,31,156
1695163634756503400,-9.051279068,-1.136048675,-1.895010591,-0.062352221,0.021849923,-0.037837673,1,43,53,45,44,-8.918401718,2.920926094,2.111685991,-0.130433381,0.126303226,0.131099537,-67,-12,-17,34,157
1695163634757503400,-9.056067467,-1.137245774,-1.893813491,-0.062085759,0.022116385,-0.037837673,-1,44,51,45,45,-8.917203903,2.904166698,2.126051188,-0.129900455,0.126036748,0.13456355,-61,-13,-19,31,156
1695163634758503400,-9.056067467,-1.137245774,-1.892616391,-0.061686065,0.022249617,-0.038104136,-1,41,56,45,46,-8.917203903,2.889801502,2.141613483,-0.129234299,0.125503823,0.137894332,-64,-11,-17,31,154
1695163634790483200,-9.033323288,-1.092953086,-1.879448295,-0.051826954,0.019718224,-0.035839204,2,38,56,45,46,-8.803479195,2.558204412,2.243366957,-0.081004597,0.081004597,0.152150065,-62,-11,-17,33,160
1695163634791483200,-9.033323288,-1.089361787,-1.878251195,-0.052093416,0.019052068,-0.035705972,0,45,57,46,46,-8.801085472,2.545036316,2.244564056,-0.075275652,0.077673815,0.151350692,-62,-7,-16,32,160
1695163634792483200,-9.030928612,-1.084573388,-1.878251195,-0.052626338,0.018785605,-0.03543951,0,39,57,45,46,-8.798690796,2.534262419,2.240972757,-0.069546707,0.074343033,0.150284842,-62,-11,-16,32,160
1695163634793483200,-9.02973175,-1.083376288,-1.879448295,-0.0528928,0.018519141,-0.035173047,1,45,56,44,43,-8.798690796,2.523488522,2.242169857,-0.063684531,0.07087902,0.149218991,-63,-10,-16,34,156
1695163634794483200,-9.026140213,-1.082179189,-1.884236693,-0.053292494,0.018385911,-0.035039816,0,43,57,45,42,-8.797493935,2.512714624,2.243366957,-0.05768913,0.0678147,0.14801991,-66,-8,-16,33,160
1695163634839454800,-9.024943352,-1.079784989,-1.89620769,-0.05249311,0.017986218,-0.023981623,1,43,54,45,45,-8.863334656,2.620453835,2.234987259,0.004130168,0.031575806,0.110715166,-61,-9,-16,32,158
1695163634840454800,-9.026140213,-1.074996591,-1.891419291,-0.051960181,0.017986218,-0.023448698,-1,43,53,45,45,-8.866926193,2.631227732,2.225410461,0.003730475,0.030909648,0.109382853,-62,-13,-18,32,160
1695163634841454800,-9.028534889,-1.072602391,-1.892616391,-0.051826954,0.017719755,-0.022649311,0,41,57,45,45,-8.869319916,2.643198729,2.220622063,0.003064318,0.030376723,0.10805054,-65,-15,-18,30,154
1695163634842454800,-9.033323288,-1.069011092,-1.89620769,-0.05142726,0.017453292,-0.02158346,-1,45,53,42,46,-8.870517731,2.649184227,2.213439465,0.002398162,0.029843798,0.106851459,-62,-13,-16,32,160
1695163634843454800,-9.03571701,-1.067813993,-1.899798989,-0.051027562,0.017453292,-0.020650841,1,41,51,44,45,-8.875306129,2.653972626,2.209848166,0.001865237,0.029310873,0.105785601,-63,-9,-17,33,160
1695163634871458000,-9.046490669,-1.083376288,-1.885433793,-0.044898927,0.02051761,0.000799387,-1,42,55,45,45,-8.967482567,2.652775526,2.085349798,0.021450229,0.009859112,0.100323126,-73,-11,-16,31,161
1695163634872458000,-9.048885345,-1.086967587,-1.885433793,-0.043833077,0.020384381,0.0021317,1,43,58,45,44,-8.968679428,2.651578426,2.079364061,0.02358193,0.008660031,0.099923424,-65,-9,-17,33,157
1695163634873458000,-9.051279068,-1.089361787,-1.889025092,-0.042900458,0.020117918,0.00319755,-2,42,52,44,46,-8.973467827,2.649184227,2.069787264,0.025580399,0.007594181,0.099390499,-63,-9,-16,34,160
1695163634874458000,-9.054870605,-1.091755986,-1.887827992,-0.042101074,0.019984685,0.003996937,-1,41,57,44,46,-8.979453087,2.650381327,2.064998865,0.027712099,0.006661562,0.098990813,-62,-8,-15,33,159
1695163634875458000,-9.056067467,-1.089361787,-1.886630893,-0.041168455,0.019718224,0.005062787,-1,43,47,44,45,-8.979453087,2.647987127,2.056619167,0.029710567,0.005728943,0.098191425,-62,-9,-15,34,160
1695163634907437900,-9.056067467,-1.138442874,-1.869871497,-0.038903523,0.019318528,0.014655436,-1,44,55,45,46,-8.916007042,2.659958124,1.981201887,0.047430322,0.007194487,0.070346095,-63,-13,-17,35,161
1695163634908437900,-9.057265282,-1.140837073,-1.873462796,-0.039303213,0.019451762,0.014655436,-1,39,53,45,45,-8.912415504,2.661155224,1.984793186,0.047963247,0.007594181,0.068614088,-63,-11,-17,34,159
1695163634909437900,-9.059659004,-1.143231273,-1.869871497,-0.039836142,0.019451762,0.014788668,-1,41,56,44,45,-8.912415504,2.661155224,1.981201887,0.048362937,0.008260337,0.066882081,-66,-11,-17,33,161
1695163634910437900,-9.058462143,-1.145625472,-1.862688899,-0.040369064,0.019584993,0.014655436,-2,41,57,45,46,-8.913613319,2.659958124,1.976413488,0.048895866,0.009059724,0.064883612,-65,-11,-15,36,154
1695163634911437900,-9.063250542,-1.148019671,-1.862688899,-0.040768761,0.019718224,0.014655436,-1,42,56,45,46,-8.917203903,2.658761024,1.97162509,0.049562022,0.009592649,0.063151613,-62,-10,-16,34,164
1695163634944397300,-9.081207275,-1.182735682,-1.865083098,-0.049295556,0.014655436,0.005062787,-1,42,57,45,45,-9.011775017,2.766499996,1.944091797,0.070212863,0.012523737,0.027845331,-65,-9,-17,33,162
1695163634945397300,-9.081207275,-1.185129881,-1.8602947,-0.04969525,0.014522205,0.004529862,0,42,57,43,42,-9.018958092,2.774879694,1.941697598,0.071145482,0.012523737,0.025980091,-60,-9,-16,35,158
1695163634946397300,-9.077615738,-1.186326981,-1.850717902,-0.050094947,0.014522205,0.003996937,-1,42,57,45,43,-9.024943352,2.784456491,1.945288897,0.072078094,0.012656967,0.024381317,-63,-11,-19,32,167
1695163634947397300,-9.078812599,-1.18752408,-1.848323703,-0.050627869,0.014522205,0.003597243,-1,39,56,45,45,-9.033323288,2.79163909,1.950077295,0.072877489,0.012790199,0.022782542,-63,-13,-17,33,161
1695163634948397300,-9.078812599,-1.186326981,-1.844732404,-0.051027562,0.014655436,0.003064318,2,43,53,45,43,-9.040505409,2.801215887,1.951274395,0.073543645,0.01292343,0.021183766,-63,-11,-17,34,161
1695163634979393600,-9.06803894,-1.209071875,-1.801636815,-0.046098009,0.01612098,0.001465544,-1,41,55,44,46,-9.045293808,2.941276789,1.97162509,0.082736596,0.008793262,0.014655436,-63,-7,-17,36,162
1695163634980393600,-9.066842079,-1.211466074,-1.798045516,-0.04516539,0.015721286,0.001732006,-1,38,54,46,46,-9.044096947,2.943670988,1.975216389,0.083802447,0.007594181,0.01505513,-61,-7,-15,34,161
1695163634981393600,-9.064447403,-1.215057373,-1.801636815,-0.043966308,0.015454824,0.001865237,0,43,55,44,43,-9.036913872,2.948459387,1.975216389,0.084868304,0.0063951,0.015454824,-63,-7,-22,33,166
1695163634982393600,-9.06205368,-1.217451572,-1.801636815,-0.04276723,0.015454824,0.001865237,1,41,55,45,44,-9.02973175,2.952050686,1.974019289,0.086067379,0.005196018,0.015854517,-63,-8,-15,36,163
1695163634983393600,-9.06205368,-1.219845772,-1.802833915,-0.041701376,0.01505513,0.0021317,0,43,56,44,45,-9.024943352,2.952050686,1.97042799,0.087133229,0.003863706,0.016387442,-62,-9,-12,34,162
1695163635013377000,-9.036913872,-1.238999367,-1.789665818,-0.035705972,0.003996937,-0.002931087,1,43,57,45,45,-8.792705536,3.009511471,1.97042799,0.103520676,-0.017053599,0.043300152,-64,-9,-15,34,162
1695163635014377000,-9.034520149,-1.237802267,-1.789665818,-0.036372125,0.00319755,-0.003464012,-2,43,51,44,45,-8.76636982,3.008314371,1.97042799,0.104453288,-0.017053599,0.045698319,-58,-12,-15,34,162
1695163635015377000,-9.033323288,-1.238999367,-1.787271619,-0.036905054,0.002531394,-0.003996937,-1,42,52,45,45,-8.741230011,3.005920172,1.966836691,0.105785601,-0.016653905,0.047963247,-63,-9,-15,34,161
1695163635016377000,-9.032125473,-1.231816769,-1.788468719,-0.037437979,0.001732006,-0.004529862,0,42,51,42,45,-8.717288017,3.003525972,1.962048292,0.106984682,-0.016653905,0.050228179,-63,-11,-17,36,162
1695163635017377000,-9.036913872,-1.229422569,-1.796848416,-0.037970904,0.000932619,-0.005062787,-1,42,53,44,46,-8.699332237,2.999934673,1.958456993,0.108183771,-0.016920367,0.052359879,-65,-8,-14,34,161
1695163635051333000,-9.071630478,-1.216254473,-1.844732404,-0.044898927,-0.016254211,-0.015721286,-1,40,58,45,46,-8.279149055,2.876633406,1.878251195,0.156546697,-0.028111791,0.09659265,-62,-12,-19,33,167
1695163635052333000,-9.070432663,-1.216254473,-1.855506301,-0.044898927,-0.016920367,-0.01612098,0,43,55,44,50,-8.265981674,2.875436306,1.865083098,0.160143942,-0.029577335,0.098591112,-62,-9,-17,34,161
1695163635053333000,-9.071630478,-1.218648672,-1.856703401,-0.04516539,-0.017586524,-0.016787136,1,43,56,46,44,-8.249221802,2.877830505,1.8602947,0.164274111,-0.031442571,0.100722812,-67,-9,-15,37,160
1695163635054333000,-9.070432663,-1.218648672,-1.861491799,-0.045431852,-0.018119449,-0.017320061,0,41,58,45,45,-8.226476669,2.885013103,1.847126603,0.167871356,-0.033041347,0.103254206,-64,-14,-17,34,160
1695163635055333000,-9.065644264,-1.219845772,-1.866280198,-0.045565084,-0.018652374,-0.017852986,0,46,54,45,45,-8.209717751,2.881421804,1.835155606,0.170935676,-0.03437366,0.105385914,-63,-11,-16,34,158
1695163635102304500,-9.02374649,-1.213860273,-1.927332401,-0.032508422,-0.012790199,-0.022249617,-1,39,58,44,43,-8.234856606,2.892195702,1.471236944,0.277120978,-0.061419602,0.139892802,-63,-13,-17,32,162
1695163635103304500,-9.026140213,-1.212663174,-1.926135302,-0.031042879,-0.012390506,-0.022382848,1,39,53,44,44,-8.258798599,2.895787001,1.452083349,0.285248101,-0.062218986,0.140958652,-61,-11,-16,32,161
1695163635104304500,-9.027337074,-1.211466074,-1.922544003,-0.029710567,-0.012124043,-0.022516079,0,46,55,44,44,-8.281543732,2.900575399,1.428141356,0.293641627,-0.063151613,0.141891271,-60,-9,-15,34,163
1695163635105304500,-9.032125473,-1.207874775,-1.921346903,-0.028511487,-0.011990812,-0.022649311,2,43,56,45,46,-8.311470985,2.907757998,1.405396342,0.302035213,-0.064217456,0.142424196,-63,-11,-19,34,160
1695163635106304500,-9.032125473,-1.207874775,-1.922544003,-0.027445635,-0.01185758,-0.022649311,-1,41,57,45,43,-8.336610794,2.914940596,1.382651448,0.310695261,-0.065416537,0.142957121,-62,-5,-14,33,159
1695163635135287700,-9.015366554,-1.179144382,-1.936909199,-0.026113322,-0.008526799,-0.020384381,1,45,58,45,45,-8.737639427,3.138798475,1.061828494,0.456450224,-0.0528928,0.146021441,-62,-12,-17,33,158
1695163635136287700,-9.012971878,-1.181538582,-1.938106298,-0.026246555,-0.007860643,-0.019984685,-1,39,53,42,45,-8.744821548,3.150769472,1.046266198,0.460846871,-0.049428791,0.146820813,-66,-12,-18,31,161
1695163635137287700,-9.010578156,-1.182735682,-1.939303398,-0.026513018,-0.006794794,-0.019584993,0,38,56,45,44,-8.752004623,3.163937569,1.034295082,0.464710563,-0.045565084,0.147886679,-60,-9,-16,36,164
1695163635138287700,-9.008183479,-1.185129881,-1.939303398,-0.026246555,-0.005728943,-0.019451762,-1,44,57,45,43,-8.761581421,3.178302765,1.023521185,0.468041331,-0.041568145,0.148952529,-62,-8,-13,34,160
1695163635139287700,-9.004592896,-1.18752408,-1.941697598,-0.026113322,-0.004529862,-0.018918836,0,42,55,45,46,-8.769960403,3.19506216,1.018732786,0.47057274,-0.036905054,0.149885148,-62,-8,-17,31,156
1695163635171286300,-9.014169693,-1.211466074,-1.938106298,-0.009192956,0.012523737,-0.011591119,-1,38,58,44,45,-8.720879555,3.404554844,1.070208192,0.383972436,0.141358346,0.144289434,-62,-9,-15,37,162
1695163635172286300,-9.015366554,-1.212663174,-1.934514999,-0.008660031,0.012790199,-0.011724349,0,45,56,44,46,-8.718485832,3.410540342,1.080982089,0.373047471,0.154548228,0.14175804,-62,-11,-12,36,163
1695163635173286300,-9.017760277,-1.215057373,-1.9333179,-0.008260337,0.01292343,-0.01185758,0,39,55,43,45,-8.718485832,3.41772294,1.092953086,0.361856043,0.16773814,0.138960183,-63,-9,-12,36,162
1695163635174286300,-9.017760277,-1.215057373,-1.9309237,-0.007860643,0.01292343,-0.012124043,0,43,53,45,44,-8.719682693,3.42011714,1.103726983,0.349998444,0.181061253,0.135762632,-62,-9,-15,32,160
1695163635175286300,-9.020154953,-1.218648672,-1.927332401,-0.007594181,0.012790199,-0.012124043,-1,41,53,44,44,-8.716091156,3.423708439,1.11689508,0.33760795,0.193984687,0.132298619,-62,-7,-16,36,161
1695163635214239800,-9.033323288,-1.234210968,-1.921346903,-0.023715161,0.010392036,-0.027312404,-1,41,53,44,43,-8.805873871,3.375824451,1.430535555,0.083003066,0.351197541,0.030909648,-60,-7,-16,34,160
1695163635215239800,-9.03571701,-1.236605167,-1.920149803,-0.024514547,0.010658499,-0.028245023,-5,38,51,43,46,-8.811859131,3.365050554,1.444900751,0.072344564,0.354528338,0.024914242,-63,-8,-16,35,164
1695163635216239800,-9.040505409,-1.238999367,-1.920149803,-0.025180703,0.011191424,-0.02917764,-1,43,53,42,43,-8.81664753,3.357867956,1.455674648,0.062352221,0.35732618,0.019052068,-60,-7,-13,32,161
1695163635217239800,-9.044096947,-1.241393566,-1.914164305,-0.025846859,0.011724349,-0.030243492,-1,37,55,45,44,-8.827422142,3.349488258,1.468842745,0.053159267,0.359857589,0.013456355,-60,-9,-13,35,160
1695163635218239800,-9.044096947,-1.242590666,-1.914164305,-0.026779478,0.012124043,-0.031042879,-1,41,55,42,44,-8.835801125,3.341108561,1.480813742,0.045032158,0.361856043,0.007993874,-62,-11,-16,36,160
1695163635252218100,-9.056067467,-1.206677675,-1.924938202,-0.045032158,0.015721286,-0.04969525,-1,43,56,45,44,-9.02973175,3.270479441,1.67115283,0.025180703,0.342803985,-0.054758042,-63,-13,-12,35,160
1695163635253218100,-9.056067467,-1.203086376,-1.923741102,-0.046497703,0.015721286,-0.050361406,0,41,58,45,43,-9.041702271,3.27407074,1.679532528,0.027578866,0.339339972,-0.057022974,-61,-8,-13,36,162
1695163635254218100,-9.056067467,-1.205480576,-1.914164305,-0.04769678,0.015588055,-0.050894335,-1,37,52,48,45,-9.051279068,3.280056238,1.690306425,0.029977029,0.335609496,-0.059154671,-63,-7,-15,34,157
1695163635255218100,-9.058462143,-1.207874775,-1.910573006,-0.048895866,0.015721286,-0.051160797,-1,39,56,45,45,-9.057265282,3.282450438,1.698686123,0.032508422,0.331745774,-0.061286367,-62,-13,-16,37,160
1695163635256218100,-9.06205368,-1.210268974,-1.910573006,-0.050094947,0.015721286,-0.051294025,-1,38,54,46,44,-9.064447403,3.287238836,1.713051319,0.034773353,0.327882051,-0.063284837,-62,-11,-14,33,164
1695163635290199100,-9.054870605,-1.22583127,-1.889025092,-0.044499233,0.015854517,-0.036638591,-1,41,53,45,46,-9.235632896,3.374627352,1.794454217,0.063018374,0.222895861,-0.093661562,-61,-9,-13,37,162
1695163635291199100,-9.048885345,-1.22583127,-1.886630893,-0.043699846,0.015321592,-0.035839204,-2,38,54,45,41,-9.244012833,3.38061285,1.796848416,0.064883612,0.21663399,-0.094327718,-63,-12,-14,36,161
1695163635292199100,-9.042900085,-1.22583127,-1.880645394,-0.042900458,0.014788668,-0.034640122,0,43,56,44,45,-9.252392769,3.386598349,1.796848416,0.066615619,0.210638598,-0.094727404,-61,-13,-12,36,161
1695163635293199100,-9.036913872,-1.22822547,-1.875856996,-0.042101074,0.014255743,-0.033574272,-1,39,56,42,43,-9.257181168,3.393780947,1.792060018,0.068614088,0.204376727,-0.095127106,-60,-11,-17,33,161
1695163635294199100,-9.033323288,-1.22822547,-1.871068597,-0.041434918,0.013589587,-0.032508422,-1,38,53,42,45,-9.26556015,3.396175146,1.790862918,0.070612557,0.198114842,-0.095393561,-61,-8,-13,36,162
1695163635325192100,-9.03571701,-1.290474772,-1.847126603,-0.033574272,0.001998469,-0.016520673,0,42,56,45,43,-9.284713745,3.542221308,1.70826292,0.095127106,0.067415006,-0.064084224,-61,-13,-15,36,160
1695163635326192100,-9.034520149,-1.294066072,-1.843535304,-0.033041347,0.000799387,-0.016387442,0,42,55,45,42,-9.281123161,3.549403906,1.699883223,0.094061248,0.061286367,-0.060886677,-60,-8,-15,33,156
1695163635327192100,-9.034520149,-1.295263171,-1.848323703,-0.032508422,-0.000666156,-0.016387442,0,43,49,42,41,-9.275136948,3.560178041,1.697489023,0.09272895,0.055157732,-0.057555895,-61,-9,-17,35,161
1695163635328192100,-9.033323288,-1.297657371,-1.856703401,-0.031842265,-0.001732006,-0.016254211,-1,41,56,45,44,-9.270348549,3.56736064,1.687912226,0.091529861,0.049428791,-0.054225113,-60,-8,-15,36,162
1695163635329192100,-9.033323288,-1.303642869,-1.861491799,-0.031442571,-0.003064318,-0.01612098,-1,47,55,42,46,-9.270348549,3.572149038,1.679532528,0.089664623,0.043699846,-0.050627869,-62,-11,-16,33,158
1695163635376149900,-9.011775017,-1.388636947,-1.887827992,-0.035572741,-0.0042634,-0.014122511,0,41,58,44,43,-9.202114105,3.610456228,1.564610839,0.036771823,-0.044499233,0.039303213,-61,-8,-15,36,160
1695163635377149900,-9.014169693,-1.395819545,-1.890222192,-0.034906585,-0.003464012,-0.014388974,-1,42,53,44,44,-9.197325706,3.609259129,1.555034041,0.035306279,-0.04969525,0.045565084,-61,-7,-11,43,162
1695163635378149900,-9.014169693,-1.403002143,-1.891419291,-0.033840735,-0.002797856,-0.014655436,0,39,52,45,46,-9.193734169,3.60566783,1.543063045,0.034107197,-0.055157732,0.051960181,-60,-13,-9,33,162
1695163635379149900,-9.017760277,-1.407790542,-1.893813491,-0.032774884,-0.001865237,-0.014921899,-4,38,53,44,45,-9.192537308,3.600879431,1.531091928,0.033041347,-0.060620211,0.058222052,-61,-8,-15,36,162
1695163635380149900,-9.016563416,-1.413776159,-1.89860189,-0.03130934,-0.00106585,-0.015188362,0,45,53,45,44,-9.186552048,3.597288132,1.519120932,0.032508422,-0.066349156,0.064750381,-62,-5,-13,43,164
1695163635413125400,-9.0740242,-1.431732655,-1.89740479,0.004396631,-0.004529862,-0.022915773,-1,38,51,45,46,-9.045293808,3.493140221,1.308431268,0.048895866,-0.159477785,0.189721286,-61,-7,-15,37,160
1695163635414125400,-9.0740242,-1.435323954,-1.895010591,0.005329249,-0.005196018,-0.02358193,-1,42,55,45,43,-9.03571701,3.488351822,1.297657371,0.050228179,-0.162275642,0.195050538,-61,-13,-14,36,160
1695163635415125400,-9.072827339,-1.434126854,-1.89740479,0.005862175,-0.005462481,-0.023981623,-2,41,56,45,46,-9.02374649,3.482366323,1.282094955,0.051560488,-0.164940268,0.199980095,-69,-12,-18,34,158
1695163635416125400,-9.070432663,-1.435323954,-1.89740479,0.0063951,-0.005728943,-0.024514547,0,43,52,45,43,-9.012971878,3.472789526,1.271321058,0.052759573,-0.167338446,0.204909652,-61,-7,-13,36,158
1695163635417125400,-9.071630478,-1.435323954,-1.89740479,0.006528331,-0.005862175,-0.025047474,-1,41,53,44,43,-8.999804497,3.468001127,1.26294136,0.053825419,-0.169203669,0.209439516,-62,-9,-13,36,161
1695163635448127600,-9.167398453,-1.429338455,-1.874659896,-0.008526799,-0.007327718,-0.046764165,0,38,53,45,41,-8.750806808,3.355473757,1.138442874,0.065416537,-0.160810098,0.268860638,-65,-8,-13,37,158
1695163635449127600,-9.178172112,-1.430535555,-1.872265697,-0.010258805,-0.008526799,-0.048629403,-1,40,52,45,45,-8.738836288,3.353079557,1.137245774,0.064350687,-0.158944875,0.270459414,-61,-7,-13,33,160
1695163635450127600,-9.18894577,-1.423352957,-1.871068597,-0.012257273,-0.009992342,-0.050494641,-1,41,53,40,44,-8.726864815,3.348291159,1.136048675,0.063151613,-0.156413481,0.271791726,-61,-8,-16,36,162
1695163635451127600,-9.197325706,-1.420958757,-1.875856996,-0.014255743,-0.011591119,-0.05249311,-1,37,48,44,43,-8.710105896,3.345896959,1.133654475,0.061419602,-0.153748855,0.272857577,-70,-12,-14,35,162
1695163635452127600,-9.206902504,-1.417367458,-1.878251195,-0.016520673,-0.013189893,-0.054491576,0,41,56,43,40,-8.694543839,3.341108561,1.134851575,0.059154671,-0.150950998,0.27379021,-63,-12,-13,40,160
1695163635480094300,-9.172186852,-1.382651448,-1.892616391,-0.06674885,-0.024248086,-0.082603365,-4,41,52,45,41,-8.524555206,3.184288263,1.084573388,-0.044366002,-0.047030624,0.20357734,-62,-11,-15,37,160
1695163635481094300,-9.163806915,-1.383848548,-1.886630893,-0.068214394,-0.023448698,-0.083003066,0,41,53,42,43,-8.526948929,3.178302765,1.088164687,-0.051294025,-0.03956968,0.193718225,-61,-8,-15,36,161
1695163635482094300,-9.153033257,-1.382651448,-1.887827992,-0.069147013,-0.022516079,-0.083269522,-1,41,55,44,44,-8.528146744,3.168725967,1.083376288,-0.058222052,-0.031709034,0.182660028,-62,-13,-8,37,158
1695163635483094300,-9.148244858,-1.387439847,-1.886630893,-0.069946401,-0.02158346,-0.083669223,-1,41,55,44,43,-8.525752068,3.162740469,1.080982089,-0.065683,-0.02358193,0.171068922,-63,-7,-13,37,156
1695163635484094300,-9.14465332,-1.389834046,-1.883039594,-0.070612557,-0.020784073,-0.083669223,0,45,53,44,45,-8.528146744,3.163937569,1.083376288,-0.073277183,-0.015321592,0.15841195,-61,-8,-15,34,162
1695163635515070300,-9.014169693,-1.363497853,-1.81959331,-0.058621746,-0.031709034,-0.085534461,2,37,55,44,45,-9.047688484,3.471592426,1.22822547,-0.349865228,0.163741201,-0.181860641,-61,-11,-16,34,160
1695163635516070300,-9.006986618,-1.361103654,-1.816002011,-0.058355279,-0.033174578,-0.085267991,0,43,53,44,43,-9.078812599,3.487154722,1.223437071,-0.367185295,0.169603363,-0.197581932,-61,-7,-14,39,162
1695163635517070300,-8.999804497,-1.357512355,-1.812410712,-0.058355279,-0.034506891,-0.08513476,-1,38,58,45,45,-9.10634613,3.500322819,1.221042871,-0.383572727,0.174399704,-0.212104142,-65,-9,-15,34,164
1695163635518070300,-8.999804497,-1.349132657,-1.813607812,-0.058488514,-0.035705972,-0.084868304,1,39,53,44,40,-9.133879662,3.514688015,1.213860273,-0.398761094,0.177996933,-0.225560486,-66,-8,-16,40,161
1695163635519070300,-8.999804497,-1.347935557,-1.808819413,-0.058754977,-0.036905054,-0.084335379,0,44,52,45,43,-9.155426979,3.525461912,1.204283476,-0.412483901,0.180528328,-0.237684533,-62,-5,-16,36,164
1695163635718830700,-9.440337181,-1.680729628,-2.04704237,-0.882923424,-0.301635504,-0.501215935,-4,35,36,39,2686,-9.737217903,3.693056107,0.618901134,0.780068934,-0.531192958,-0.407687575,-59,-7,-8,36,162
1695163635719830700,-9.431957245,-1.665167332,-2.056619167,-0.891050577,-0.296972424,-0.517603338,-7,35,36,38,2686,-9.737217903,3.709815502,0.606930137,0.792459369,-0.53758806,-0.396762639,-61,-9,-6,41,164
1695163635720830700,-9.422380447,-1.651999116,-2.059013367,-0.899044454,-0.292176098,-0.534257293,-5,37,37,36,2686,-9.738415718,3.722983599,0.59376204,0.804183781,-0.542917311,-0.385704458,-59,-7,-9,37,164
1695163635721830700,-9.41280365,-1.641225219,-2.061407566,-0.906771779,-0.287379771,-0.550644696,-6,34,38,38,2686,-9.743204117,3.733757496,0.584185243,0.815508366,-0.547313929,-0.374379784,-60,-8,-12,37,165
1695163635722830700,-9.405621529,-1.626860023,-2.074575663,-0.91423279,-0.282317013,-0.566898882,-3,35,36,39,2686,-9.746794701,3.744531393,0.582988143,0.82643342,-0.550644696,-0.362655431,-60,-7,-7,37,162
1695163635804779800,-9.455899239,-1.425747156,-0.974440098,0.413549751,0.149218991,0.108983152,-3,37,44,40,34,-8.279149055,2.476801634,-1.774103403,0.785664618,-0.217966303,1.375346184,-70,-17,-13,35,152
1695163635805779800,-9.453505516,-1.426944256,-0.980425596,0.413150072,0.140558958,0.113646246,-1,35,42,40,33,-8.275558472,2.48996973,-1.763329506,0.807914257,-0.19838132,1.35509491,-68,-19,-12,38,151
1695163635806779800,-9.447520256,-1.429338455,-0.990002394,0.412217438,0.128035218,0.120707504,-3,41,43,39,33,-8.268375397,2.503137827,-1.752555609,0.827365994,-0.178396642,1.332712054,-70,-18,-12,36,151
1695163635807779800,-9.443928719,-1.430535555,-0.993593693,0.410618693,0.115644716,0.127502292,-2,36,43,38,34,-8.268375397,2.513911724,-1.735796213,0.844019949,-0.157612562,1.308597207,-66,-16,-13,36,151
1695163635808779800,-9.435548782,-1.428141356,-1.007958889,0.408486992,0.103653908,0.133630931,-5,39,41,40,33,-8.270770073,2.523488522,-1.726219416,0.858542085,-0.136295557,1.282883525,-67,-19,-17,37,151
1695163635873740000,-8.916007042,-1.740584612,0.407014281,-0.158678412,-0.055690661,-0.544915795,-6,35,32,42,33,-7.667430878,3.111265182,1.482010841,1.116477847,-0.304966301,-0.505612552,-67,-18,-17,31,152
1695163635874740000,-8.906430244,-1.725022316,0.40821138,-0.142690659,-0.052759573,-0.531326175,-2,37,34,42,32,-7.688978672,3.107673883,1.492784739,1.11567843,-0.305366009,-0.523332298,-67,-19,-17,31,151
1695163635875740000,-8.898050308,-1.713051319,0.41060558,-0.127369061,-0.049828485,-0.517736614,-3,37,31,38,32,-7.716512203,3.107673883,1.501164436,1.11567843,-0.306698322,-0.541584969,-68,-19,-19,31,151
1695163635876740000,-8.888473511,-1.699883223,0.41060558,-0.112713635,-0.046897396,-0.504013777,-2,38,31,38,31,-7.745242596,3.112462282,1.508347034,1.116611004,-0.308830023,-0.560370564,-65,-20,-19,31,151
1695163635877740000,-8.878896713,-1.685518026,0.412999779,-0.098857582,-0.044099543,-0.490424216,-1,35,31,40,36,-7.776367188,3.118447781,1.510741234,1.118209839,-0.31216079,-0.579689145,-65,-19,-17,31,151
1695163635939702400,-9.405621529,-1.432929754,-0.661996782,-0.308030635,-0.302168459,0.562369049,-4,35,37,34,32,-9.10036087,3.582922935,0.59376204,0.081803977,0.215301678,0.218099549,-73,-20,-19,30,151
1695163635940702400,-9.418789864,-1.443703651,-0.677559078,-0.325217426,-0.317223608,0.570762634,-4,35,36,38,30,-9.093177795,3.60207653,0.617704034,0.086733535,0.206641659,0.212637067,-69,-20,-17,31,151
1695163635941702400,-9.428366661,-1.44968915,-0.699106872,-0.342137843,-0.332012266,0.579022944,-4,37,39,38,32,-9.085995674,3.622427225,0.634463429,0.089664623,0.198114842,0.207174569,-70,-21,-18,31,149
1695163635942702400,-9.437943459,-1.455674648,-0.717063427,-0.358924955,-0.346800923,0.587283254,-5,37,36,35,29,-9.077615738,3.643975019,0.644040287,0.090996936,0.189321592,0.201179162,-70,-20,-21,30,151
1695163635943702400,-9.45111084,-1.458068848,-0.739808321,-0.375578851,-0.361323118,0.595410407,-4,35,36,35,33,-9.069235802,3.664325714,0.657208383,0.091130167,0.18079479,0.195183769,-71,-18,-19,29,150
1695163636022654800,-8.995016098,-1.886630893,-1.042674899,0.328947932,0.539986193,-0.29710567,-2,35,32,31,2686,-9.631873131,3.787626982,2.017114878,-0.026113322,0.530526757,-0.951404333,-70,-18,-18,28,151
1695163636023654800,-8.967482567,-1.891419291,-1.017535686,0.363854527,0.554108739,-0.281517595,-6,35,33,30,2686,-9.674968719,3.79480958,2.015917778,-0.018119449,0.524131715,-0.943143904,-71,-18,-21,30,151
1695163636024654800,-8.943540573,-1.899798989,-0.999579191,0.399160802,0.567431867,-0.26592955,-2,35,33,32,2686,-9.714473724,3.803189516,2.012326479,-0.009326187,0.517203629,-0.934350669,-70,-18,-19,28,151
1695163636025654800,-8.917203903,-1.904587507,-0.976834297,0.435000002,0.580488503,-0.250208259,-3,36,31,30,2686,-9.753977776,3.815160513,2.00993228,0.000532925,0.51000917,-0.925024509,-70,-19,-22,26,151
1695163636026654800,-8.893261909,-1.910573006,-0.961272001,0.471505344,0.59314549,-0.234486982,-3,33,32,30,2686,-9.783905029,3.82593441,2.012326479,0.011191424,0.502681494,-0.914765656,-71,-20,-21,29,151
1695163636085618200,-8.325836182,-1.802833915,1.017535686,-0.665090322,0.112447165,-0.01718683,-2,33,-83,12,23,-8.878896713,2.839523315,0.571017087,0.192519143,-0.819771826,0.67161864,-107,-25,-66,13,170
1695163636086618200,-8.309077263,-1.789665818,0.990002394,-0.670819342,0.138160795,-0.027845331,-1,32,-81,10,21,-8.900444984,2.85987401,0.574608386,0.176797852,-0.819905043,0.690670729,-105,-27,-65,13,168
1695163636087618200,-8.309077263,-1.78128612,0.968454599,-0.676148593,0.160543635,-0.038237367,-2,34,-83,10,20,-8.914810181,2.874239206,0.582988143,0.162275642,-0.819238901,0.70852375,-104,-25,-66,15,169
1695163636088618200,-8.322244644,-1.774103403,0.958877802,-0.68094486,0.178796321,-0.048229709,-3,32,-79,8,20,-8.923190117,2.881421804,0.59376204,0.14908576,-0.817373693,0.725044429,-105,-23,-64,15,168
1695163636089618200,-8.339004517,-1.780089021,0.9660604,-0.684941769,0.192918837,-0.05768913,-2,32,-82,10,23,-8.931569099,2.889801502,0.605733037,0.13762787,-0.813643157,0.740632474,-103,-27,-64,15,168
1695163636149582600,-9.232041359,-1.869871497,-0.398634583,-0.186523736,-0.068747319,0.236085743,-7,31,-40,4,2686,-8.058882713,3.627215624,0.061052144,-0.40462327,0.430736601,-0.52253288,-78,-20,-37,31,157
1695163636150582600,-9.229647636,-1.869871497,-0.399831682,-0.185058191,-0.067415006,0.235419586,-3,29,-43,6,2686,-8.031349182,3.637989521,0.096965171,-0.440862179,0.444859117,-0.53758806,-76,-19,-36,29,156
1695163636151582600,-9.22725296,-1.872265697,-0.403422982,-0.183725879,-0.066349156,0.234486982,-5,29,-40,7,2686,-8.00261879,3.649960518,0.126892686,-0.476967841,0.457915753,-0.551710546,-76,-19,-37,30,158
1695163636152582600,-9.224859238,-1.877054095,-0.407014281,-0.182526797,-0.065150075,0.233820826,-6,31,-39,9,2686,-7.976283073,3.657143116,0.160411507,-0.51320678,0.470039815,-0.564900458,-78,-21,-39,26,158
1695163636153582600,-9.226056099,-1.880645394,-0.415394008,-0.181460962,-0.063950993,0.232888207,-6,32,-40,6,2686,-7.953537941,3.666719913,0.192733243,-0.54904592,0.481231242,-0.577290952,-76,-20,-38,28,156
1695163636227536900,-9.184157372,-1.983596087,0.160411507,-0.005062787,-0.076341502,0.954868257,-1,33,-6,13,2686,-8.857349396,2.953247786,0.505176544,-0.280318528,-0.396096468,-0.367318511,-76,-21,-37,28,154
1695163636228536900,-9.197325706,-1.97162509,0.14963761,0.000399694,-0.080338441,0.953269541,-1,37,-6,13,2686,-8.874108315,2.946065187,0.48243165,-0.244745791,-0.40462327,-0.372914255,-77,-21,-36,26,153
1695163636229536900,-9.20929718,-1.954865694,0.143652096,0.004529862,-0.084735066,0.950738132,-1,32,-6,14,2686,-8.886079788,2.944868088,0.460883826,-0.207174569,-0.412617147,-0.377577305,-76,-22,-36,29,156
1695163636230536900,-9.217676163,-1.938106298,0.128089786,0.006794794,-0.089797854,0.946607947,0,34,-6,13,2686,-8.898050308,2.946065187,0.442927301,-0.167604893,-0.421143949,-0.381574243,-76,-20,-36,29,156
1695163636231536900,-9.229647636,-1.926135302,0.120907187,0.007727412,-0.095260337,0.941545129,0,37,-6,14,2686,-8.908824921,2.956839085,0.420182407,-0.126569673,-0.429404289,-0.384638578,-77,-20,-36,28,156
1695163636299495900,-7.611167431,-1.303642869,-2.245761156,-3.382208109,-0.274456352,-0.243813157,-2,32,11,13,2686,-1.988384485,2.179920673,1.808819413,-0.427672267,-0.115511484,1.487793326,-108,47,122,106,214
1695163636300495900,-7.50701952,-1.446097851,-2.189497471,-3.438565254,-0.228358343,-0.250474721,-4,32,13,12,2686,-1.908178806,2.144007683,1.830367208,-0.437264919,-0.139093414,1.411584973,-108,45,120,105,211
1695163636301495900,-7.414842606,-1.589749932,-2.121262789,-3.485329151,-0.179462478,-0.255137831,-2,32,13,13,2686,-1.829170108,2.109291792,1.855506301,-0.446058184,-0.164407358,1.336709023,-108,45,115,100,212
1695163636302495900,-7.338228226,-1.734599113,-2.056619167,-3.522634029,-0.127502292,-0.257802457,-1,33,13,13,2686,-1.751358509,2.072181463,1.891419291,-0.455784082,-0.190387443,1.263032079,-107,44,120,100,209
1695163636303495900,-7.279570103,-1.883039594,-1.984793186,-3.550612688,-0.073143952,-0.258335382,-1,32,15,13,2686,-1.675941229,2.031480074,1.920149803,-0.465509921,-0.215701386,1.190021396,-107,43,115,100,212
1695163636365458200,-8.977059364,-1.978807688,0.336385339,-0.191053599,-0.056756508,-0.45085454,-1,33,-104,-14,2686,-8.762778282,4.133589268,1.195903778,0.243147001,0.049562022,-0.182526797,-78,-13,-43,28,169
1695163636366458200,-8.881291389,-1.989581585,0.319625914,-0.29923737,-0.045565084,-0.494421154,1,32,-104,-14,2686,-8.771158218,4.131195068,1.193509579,0.241415009,0.049295556,-0.179462478,-79,-18,-43,28,167
1695163636367458200,-8.785523415,-2.001552582,0.304063618,-0.403424203,-0.03437366,-0.535323083,0,32,-102,-12,2686,-8.775946617,4.12999773,1.200692177,0.239949465,0.048762634,-0.176398173,-82,-16,-40,30,168
1695163636368458200,-8.688557625,-2.011129379,0.293289721,-0.504013777,-0.022782542,-0.572894335,0,32,-103,-12,2686,-8.777143478,4.127603531,1.201889277,0.238883615,0.048229709,-0.173200607,-79,-17,-41,29,168
1695163636369458200,-8.595184326,-2.026691675,0.277727395,-0.600339949,-0.010258805,-0.607534468,1,33,-105,-14,2686,-8.77834034,4.12401247,1.204283476,0.237817764,0.047563553,-0.170136288,-81,-15,-39,31,170
1695163636420426500,-9.139864922,-1.976413488,-0.916979253,-0.08833231,-0.140026033,0.136029094,-6,32,-39,8,14,-8.658630371,3.758896589,0.837970614,0.062352221,-0.046364475,0.063551299,-79,-15,-41,31,169
1695163636421426500,-9.141061783,-1.981201887,-0.925358951,-0.089531392,-0.140159264,0.134963244,-4,32,-44,8,12,-8.658630371,3.758896589,0.836773515,0.062085759,-0.046497703,0.062085759,-73,-2,-32,38,180
1695163636422426500,-9.145850182,-1.984793186,-0.940921247,-0.090597242,-0.140026033,0.133764163,-3,32,-41,10,11,-8.658630371,3.758896589,0.834379315,0.061819296,-0.046497703,0.060620211,-75,-3,-31,38,180
1695163636423426500,-9.14465332,-1.993172884,-0.955286503,-0.091263399,-0.139892802,0.132565081,-6,32,-42,10,11,-8.656236649,3.75650239,0.836773515,0.061419602,-0.046098009,0.059154671,-76,-3,-33,36,178
1695163636424426500,-9.14465332,-1.997961283,-0.960074902,-0.091929555,-0.139626339,0.131366,-3,35,-43,8,13,-8.658630371,3.760093689,0.839167714,0.061019909,-0.045964777,0.057555895,-75,-5,-34,36,176
1695163636474396300,-9.120711327,-1.869871497,-0.907402456,-0.055424199,0.002931087,-0.02691271,-6,32,-21,10,2686,-8.585607529,3.7181952,0.925358951,0.013323124,-0.027312404,-0.009725881,-80,-15,-41,31,168
1695163636475396300,-9.115922928,-1.863885999,-0.907402456,-0.055157732,0.003064318,-0.02691271,-4,35,-21,7,2686,-8.588001251,3.724180698,0.920570552,0.021183766,-0.031709034,-0.009592649,-79,-17,-40,30,166
1695163636476396300,-9.114726067,-1.865083098,-0.909796655,-0.055157732,0.00319755,-0.026779478,-3,33,-23,10,2686,-8.593987465,3.730166197,0.919373453,0.029310873,-0.036372125,-0.009459418,-80,-16,-39,31,167
1695163636477396300,-9.114726067,-1.862688899,-0.907402456,-0.055290964,0.003064318,-0.026779478,-5,32,-21,11,2686,-8.597578049,3.736151695,0.915782154,0.037171517,-0.04103522,-0.009326187,-81,-14,-41,31,167
1695163636478396300,-9.118317604,-1.8602947,-0.912190855,-0.055424199,0.002931087,-0.02691271,-2,34,-24,11,2686,-8.597578049,3.745728493,0.918176353,0.045032158,-0.045565084,-0.009059724,-79,-15,-37,31,165
1695163636519369600,-9.102754593,-1.945288897,-0.934935749,-0.100189894,0.007327718,-0.063418068,-3,32,-20,10,2686,-8.480262756,2.984372377,4.286818027,0.086333841,-0.101388969,0.06115314,-75,-30,-34,30,172
1695163636520369600,-9.095572472,-1.941697598,-0.939724147,-0.101522207,0.005728943,-0.064483918,-3,33,-21,11,2686,-8.459911346,2.932897091,4.267664433,0.089398161,-0.114445634,0.063817769,-75,-27,-37,31,172
1695163636521369600,-9.093177795,-1.939303398,-0.944512546,-0.10258805,0.003863706,-0.065283306,-5,32,-20,12,2686,-8.440757751,2.910152197,4.270058632,0.095393561,-0.125237361,0.068081163,-74,-23,-34,32,172
1695163636522369600,-9.090784073,-1.936909199,-0.948103845,-0.103653908,0.002264931,-0.066082694,-3,32,-21,9,2686,-8.432378769,2.901772499,4.270058632,0.100856051,-0.132831544,0.072344564,-76,-24,-34,31,169
1695163636523369600,-9.084798813,-1.940500498,-0.949300945,-0.104320064,0.000666156,-0.066615619,-4,34,-19,13,2686,-8.426392555,2.8969841,4.259284973,0.104053594,-0.139626339,0.076075032,-76,-28,-35,31,169
1695163636564344100,-10.49139214,-6.770802498,-2.934094191,0.279119462,-0.287246555,-1.534957051,-4,32,-11,14,2686,-2.856282711,1.30124867,9.232041359,0.126702905,0.03011026,0.353462487,-90,-23,-49,13,165
1695163636565344100,-10.51054573,-6.882133007,-2.959233284,0.286980093,-0.306698322,-1.623289466,-3,38,-6,17,2686,-2.846705914,1.308431268,9.26556015,0.152016848,0.015987748,0.359191418,-87,-23,-49,10,162
1695163636566344100,-10.53089619,-6.99106884,-2.986766577,0.293375194,-0.325217426,-1.710689068,-4,32,-6,16,2686,-2.835932016,1.303642869,9.300276756,0.176131696,0.001598775,0.36412096,-87,-25,-48,11,163
1695163636567344100,-10.56920338,-7.090428352,-3.016694069,0.297372133,-0.343070447,-1.797022939,-7,33,-6,18,2686,-2.82036972,1.291671872,9.332598686,0.20411025,-0.012523737,0.367984682,-89,-25,-53,12,165
1695163636568344100,-10.61828423,-7.17422533,-3.043030262,0.30176878,-0.360124022,-1.884022951,-8,32,-4,16,2686,-2.814383984,1.303642869,9.35654068,0.229424208,-0.026646247,0.372248113,-90,-28,-49,11,162
1695163636604321600,-8.890868187,-1.612494826,-1.808819413,0.170802444,0.077274114,-0.329880536,-6,53,35,45,2686,-8.815450668,3.45842433,1.079784989,0.005862175,-0.06674885,0.223562017,-73,-21,-41,30,166
1695163636605321600,-8.838195801,-1.584961534,-1.801636815,0.15787901,0.080604896,-0.340539038,-4,57,31,45,2686,-8.815450668,3.454833031,1.07858789,0.005862175,-0.067548238,0.22489433,-71,-21,-39,30,161
1695163636606321600,-8.789113998,-1.55862534,-1.794454217,0.144822344,0.084068909,-0.349865228,-4,58,34,45,2686,-8.815450668,3.448847532,1.082179189,0.006128637,-0.068747319,0.226759583,-72,-18,-40,30,161
1695163636607321600,-8.744821548,-1.537077546,-1.78368032,0.131499231,0.08753293,-0.358125567,-5,57,32,46,2686,-8.814253807,3.441664934,1.084573388,0.006528331,-0.069946401,0.228358343,-71,-18,-39,30,162
1695163636608321600,-8.702922821,-1.510741234,-1.777694821,0.11817611,0.090996936,-0.365053594,-4,57,35,46,2686,-8.81664753,3.434482336,1.079784989,0.007061256,-0.071012251,0.230090365,-71,-20,-39,29,158
1695163636643301600,-9.194931984,-2.285265446,-0.626083732,-0.105652377,0.029710567,0.111381322,-6,54,28,45,20,-8.798690796,3.337517262,1.15520227,0.044366002,-0.019451762,0.05808882,-73,-21,-39,30,157
1695163636644301600,-9.199720383,-2.287659645,-0.621295333,-0.105519146,0.029843798,0.106718227,-3,58,27,45,19,-8.803479195,3.333925962,1.144428372,0.045298621,-0.020251149,0.056756508,-70,-19,-36,31,161
1695163636645301600,-9.199720383,-2.287659645,-0.618901134,-0.105385914,0.03011026,0.102188364,-1,58,27,45,18,-8.807070732,3.332728863,1.144428372,0.046098009,-0.021316998,0.055157732,-73,-22,-39,31,162
1695163636646301600,-9.200917244,-2.287659645,-0.615309834,-0.105385914,0.030243492,0.099124044,-2,53,26,45,19,-8.811859131,3.329137564,1.146822572,0.047430322,-0.022116385,0.053558957,-72,-19,-39,30,158
1695163636647301600,-9.200917244,-2.287659645,-0.610521436,-0.105119444,0.030376723,0.094460949,-3,57,29,44,19,-8.814253807,3.327940464,1.143231273,0.048629403,-0.023049004,0.051960181,-71,-23,-39,29,157
1695163636683278500,-9.129091263,-1.938106298,-0.553060591,-0.046098009,0.008393568,-0.031842265,-4,55,29,42,17,-9.179368973,5.408501625,1.968033791,-0.127502292,-0.024647778,0.309229732,-65,-8,-33,36,170
1695163636684278500,-9.130288124,-1.934514999,-0.55784899,-0.04623124,0.008127105,-0.030909648,-5,51,26,41,14,-9.185355186,5.621585369,2.148796082,-0.201845318,-0.179462478,0.610998452,-61,-13,-31,37,168
1695163636685278500,-9.126696587,-1.9321208,-0.55665189,-0.046364475,0.007860643,-0.029843798,-4,51,26,38,15,-9.206902504,5.668272495,2.177526474,-0.198780999,-0.193318531,0.637111843,-62,-12,-33,36,168
1695163636686278500,-9.124302864,-1.9309237,-0.554257691,-0.046497703,0.007860643,-0.02917764,-3,53,26,45,14,-9.232041359,5.72573328,2.200271368,-0.194650844,-0.206774876,0.661759555,-67,-12,-33,36,167
1695163636687278500,-9.121908188,-1.927332401,-0.554257691,-0.046497703,0.007727412,-0.028111791,-6,55,28,43,15,-9.261969566,5.790376663,2.22900176,-0.189854518,-0.219831541,0.684941769,-60,-12,-31,37,168
1695163636717256400,-9.10634613,-2.013523579,-0.597353339,-0.068880551,0.0021317,0.001998469,2,61,35,45,27,-10.09156036,8.534132004,3.058592558,-0.161076576,-0.528928041,1.117810011,-62,-12,-34,36,170
1695163636718256400,-9.10634613,-2.012326479,-0.599747539,-0.069147013,0.001998469,0.001732006,0,58,35,48,21,-10.14303589,8.723274231,3.104082584,-0.173333839,-0.565433383,1.169503927,-63,-11,-34,33,169
1695163636719256400,-9.107542992,-2.013523579,-0.597353339,-0.069147013,0.0021317,0.001598775,-2,59,32,48,19,-10.19690514,8.908824921,3.150769472,-0.188655436,-0.605802417,1.227459431,-62,-12,-29,37,169
1695163636720256400,-9.105149269,-2.014720678,-0.591367841,-0.069413476,0.0021317,0.001199081,-1,55,31,44,18,-10.25556278,9.084798813,3.190273762,-0.206375197,-0.649635553,1.291010737,-61,-9,-32,34,168
1695163636721256400,-9.102754593,-2.014720678,-0.588973641,-0.06981317,0.0021317,0.000666156,-1,62,29,44,20,-10.31182671,9.249998093,3.226186752,-0.225693718,-0.697332263,1.360690594,-61,-12,-34,34,168
1695163636753259800,-9.107542992,-2.041056871,-0.597353339,-0.077007659,0.007460949,-0.004529862,0,62,35,50,20,-10.76552773,11.13902378,4.159925461,-0.112447165,-1.689771891,2.925358295,-60,-15,-29,46,172
1695163636754259800,-9.107542992,-2.04704237,-0.59495914,-0.077407345,0.008260337,-0.005196018,-1,62,31,47,20,-10.72482681,11.34253025,4.31554842,-0.10285452,-1.716284752,2.970390558,-59,-13,-25,49,170
1695163636755259800,-9.102754593,-2.049436569,-0.591367841,-0.077807046,0.008793262,-0.005728943,0,57,29,46,20,-10.68412495,11.55800915,4.53102684,-0.109649308,-1.741998434,3.012358189,-60,-13,-25,51,169
1695163636756259800,-9.099164009,-2.050633669,-0.591367841,-0.078073502,0.009326187,-0.006261868,-1,59,27,45,30,-10.62187576,11.77348709,4.762067318,-0.130166918,-1.763981581,3.05099535,-60,-11,-21,56,167
1695163636757259800,-9.10036087,-2.056619167,-0.585382342,-0.078473203,0.010125575,-0.007194487,-1,55,35,46,21,-10.54166985,11.99255657,4.994304657,-0.16467382,-1.781701326,3.084569454,-60,-11,-21,54,172
1695163636786239200,-9.050082207,-2.08295536,-0.603338838,-0.081404284,0.008393568,-0.024381317,-1,59,31,47,23,-9.659406662,11.66574764,3.429693937,-1.106618643,-1.573194504,3.284283161,-64,-12,59,111,240
1695163636787239200,-9.051279068,-2.085349798,-0.606930137,-0.080471672,0.008526799,-0.024514547,-1,62,29,46,21,-9.682151794,11.54723454,3.327940464,-1.106618643,-1.576658487,3.26962781,-66,-13,61,112,242
1695163636788239200,-9.051279068,-2.090138197,-0.606930137,-0.079539053,0.008926493,-0.024248086,-1,59,30,45,20,-9.672574997,11.41794777,3.277662039,-1.098491549,-1.587050557,3.250042915,-66,-14,65,117,246
1695163636789239200,-9.053673744,-2.092532396,-0.608127236,-0.078606427,0.009326187,-0.024114855,-1,61,30,46,22,-9.606734276,11.27070427,3.286041737,-1.083836079,-1.60024035,3.226993799,-61,-9,73,120,247
1695163636790239200,-9.056067467,-2.097320795,-0.598550439,-0.077007659,0.009725881,-0.023715161,-1,58,31,45,27,-9.532513618,11.09233665,3.329137564,-1.060254216,-1.611564994,3.204344511,-69,-13,77,122,249
1695163636818200200,-9.149441719,-2.140416384,-0.588973641,-0.030376723,0.027845331,-0.007860643,-1,59,29,45,23,-6.817489147,9.343372345,4.237737179,-1.01961863,-1.642341495,2.775872946,-61,-13,155,154,294
1695163636819200200,-9.160215378,-2.142810583,-0.584185243,-0.029577335,0.027845331,-0.007993874,-1,54,32,46,24,-6.661866188,9.366117477,4.337096214,-1.082770228,-1.642075062,2.760151625,-62,-12,153,158,292
1695163636820200200,-9.168595314,-2.146401882,-0.579396784,-0.02917764,0.027712099,-0.008393568,-2,53,27,45,23,-6.569689274,9.380482674,4.398148537,-1.129934072,-1.640476227,2.749359846,-59,-13,158,157,296
1695163636821200200,-9.174580574,-2.145204782,-0.571017087,-0.028911179,0.027445635,-0.008793262,-1,58,29,45,19,-6.429628849,9.41280365,4.49271965,-1.208940268,-1.636612654,2.73203969,-60,-13,158,159,294
1695163636822200200,-9.180566788,-2.151190281,-0.562637389,-0.028777948,0.027312404,-0.009459418,-1,59,31,48,21,-6.275202751,9.424775124,4.582501888,-1.297272682,-1.631283402,2.710856199,-59,-12,159,162,293
1695163636852178800,-9.258378029,-2.214636564,-0.487220049,-0.034906585,0.024781011,-0.047430322,-1,61,31,46,20,-2.968810081,5.748478413,4.363432407,-2.507145405,-1.45688355,2.289712191,-50,-4,202,179,306
1695163636853178800,-9.260771751,-2.215833664,-0.48243165,-0.034240428,0.024248086,-0.050361406,0,62,28,46,16,-2.853888512,5.61919117,4.38617754,-2.505013704,-1.446891308,2.269727468,-47,-7,203,178,305
1695163636854178800,-9.257181168,-2.214636564,-0.476446152,-0.033840735,0.023448698,-0.053425729,-1,58,28,45,23,-2.67552042,5.436035156,4.429273129,-2.497552872,-1.429304719,2.237618446,-47,-5,206,181,306
1695163636855178800,-9.257181168,-2.209848166,-0.468066424,-0.033041347,0.022249617,-0.057422664,-1,58,32,46,19,-2.504334927,5.275623322,4.485537052,-2.487027645,-1.409186721,2.202578783,-44,-3,206,182,307
1695163636856178800,-9.258378029,-2.206256866,-0.465672225,-0.032508422,0.021050537,-0.060353752,0,59,29,45,20,-2.329558372,5.12957716,4.546588898,-2.475436449,-1.386537552,2.163542032,-45,-5,206,182,306
1695163636887182200,-9.077615738,-2.141613483,-0.435744703,-0.021183766,-0.009725881,-0.083802447,-1,58,33,45,23,1.659181833,3.313575268,4.560954094,-3.232189894,-0.367318511,0.565433383,-27,0,227,200,295
1695163636888182200,-9.063250542,-2.138022184,-0.440533102,-0.018785605,-0.010924961,-0.08313629,-1,61,31,46,19,1.890222192,2.977189779,4.41849947,-3.307065725,-0.300036758,0.460047454,-33,4,229,195,295
1695163636889182200,-9.048885345,-2.135627985,-0.441730201,-0.016520673,-0.012257273,-0.08233691,-2,59,31,45,19,2.11767149,2.607285738,4.262876034,-3.374347687,-0.233421117,0.352929562,-32,3,231,196,292
1695163636890182200,-9.040505409,-2.132036686,-0.441730201,-0.01398928,-0.013589587,-0.081404284,-1,53,27,44,19,2.335543871,2.209848166,4.106055737,-3.430704355,-0.166672289,0.245411947,-28,1,227,196,293
1695163636891182200,-9.032125473,-2.127248287,-0.444124401,-0.011457887,-0.014921899,-0.08020521,-2,59,30,45,23,2.548627615,1.794454217,3.94205308,-3.475070477,-0.099790201,0.138160795,-30,2,229,197,293
1695163636921139700,-9.076418877,-2.149993181,-0.550666392,0.008127105,-0.034506891,-0.054624807,-2,59,27,45,24,2.749740601,-2.30561614,2.250549555,-3.024882078,1.630750299,-1.906539083,-33,3,227,194,284
1695163636922139700,-9.080010414,-2.158372879,-0.561440289,0.007327718,-0.034906585,-0.05489127,-1,55,29,45,25,2.473210335,-2.313995838,2.237381458,-3.001699686,1.741865277,-2.011924982,-33,8,227,198,284
1695163636923139700,-9.085995674,-2.163161278,-0.567425787,0.0063951,-0.035039816,-0.055290964,0,60,33,46,20,2.159569979,-2.313995838,2.227804661,-2.980116367,1.85111475,-2.114779472,-34,7,225,192,283
1695163636924139700,-9.093177795,-2.164358377,-0.573411286,0.005196018,-0.035306279,-0.056090351,-2,58,29,44,19,1.810016513,-2.30561614,2.242169857,-2.95853281,1.957966328,-2.214169979,-37,7,225,195,284
1695163636925139700,-9.101557732,-2.167949677,-0.575805485,0.003996937,-0.035705972,-0.057156201,-1,57,30,46,23,1.55862534,-2.293645144,2.256535053,-2.944277048,2.027513027,-2.278387547,-37,8,223,194,281
1695163636953121200,-9.147047997,-2.243366957,-0.682347476,-0.02904441,-0.027312404,-0.120041348,-1,54,29,46,16,-9.343372345,1.088164687,4.411316395,-2.728708982,2.219499111,-2.63198328,-43,14,207,190,272
1695163636954121200,-9.135076523,-2.243366957,-0.681150377,-0.029710567,-0.025447167,-0.124304749,-1,57,35,50,21,-9.935936928,1.255758762,4.680664539,-2.722846746,2.147820711,-2.566966295,-40,16,209,190,275
1695163636955121200,-9.121908188,-2.251746655,-0.679953277,-0.029577335,-0.023049004,-0.128301695,-1,58,33,45,20,-10.53688145,1.41138196,4.967968464,-2.715918779,2.074277163,-2.494488478,-42,15,211,189,274
1695163636956121200,-9.11233139,-2.249352455,-0.678756177,-0.029444104,-0.02051761,-0.132298619,-1,57,31,46,19,-10.93671322,1.493981838,5.154716492,-2.70619297,2.024981737,-2.442261934,-44,11,206,186,275
1695163636957121200,-9.10634613,-2.250549555,-0.67037648,-0.028911179,-0.017719755,-0.136029094,0,61,33,46,19,-11.51491261,1.595735431,5.42166996,-2.684209824,1.949972391,-2.356594324,-43,11,207,188,274
1695163636987102100,-9.069235802,-2.184709072,-0.590170741,0.018119449,0.019718224,-0.168004602,-1,57,28,48,17,-14.98052025,1.889025092,9.167398453,-0.203444093,-0.485761106,0.602205217,-44,11,192,175,272
1695163636988102100,-9.063250542,-2.175132275,-0.587776542,0.020117918,0.018652374,-0.168137819,0,63,28,45,20,-14.71835518,1.78128612,9.230844498,0.010392036,-0.655231237,0.786863685,-44,14,191,177,272
1695163636989102100,-9.060855865,-2.164358377,-0.582988143,0.022116385,0.017320061,-0.168004602,-1,60,33,46,17,-14.44421864,1.674744129,9.278728485,0.231289431,-0.823369026,0.971522212,-44,10,190,176,272
1695163636990102100,-9.059659004,-2.157175779,-0.579396784,0.02384839,0.015987748,-0.167604893,-1,59,29,44,19,-14.16529465,1.569399238,9.312247276,0.460447162,-0.989241958,1.156180739,-43,9,190,174,272
1695163636991102100,-9.052476883,-2.15478158,-0.573411286,0.02571363,0.014522205,-0.166938737,-1,61,35,45,19,-13.88996124,1.48560214,9.331400871,0.698398173,-1.153116345,1.340572715,-43,10,188,172,282
1695163637022081700,-8.918401718,-2.199074268,-0.464475125,0.061019909,0.009859112,-0.114445634,-1,57,26,45,14,-8.823830605,4.478354454,9.429563522,4.365588188,-3.752724409,4.365588188,-72,1,121,148,250
1695163637023081700,-8.925583839,-2.205059767,-0.462080926,0.063551299,0.01079173,-0.110715166,-1,55,29,45,16,-8.622717857,4.681861401,9.423578262,4.365588188,-3.805217505,4.365588188,-69,3,124,148,252
1695163637024081700,-8.927978516,-2.211045265,-0.454898328,0.065816231,0.011457887,-0.107517615,-1,54,31,45,17,-8.306682587,4.988319397,9.414001465,4.365588188,-3.873964787,4.365588188,-69,7,109,144,247
1695163637025081700,-8.933963776,-2.219424963,-0.450109929,0.0678147,0.01185758,-0.104453288,-2,57,31,45,16,-7.981071472,5.275623322,9.537302017,4.365588188,-3.916332245,4.365588188,-67,3,107,141,247
1695163637026081700,-8.938752174,-2.226607561,-0.442927301,0.069546707,0.011457887,-0.100856051,-1,60,29,47,15,-7.601590633,5.555745125,9.446322441,4.365588188,-3.940980196,4.365588188,-70,3,99,140,247
1695163637054086200,-9.222464561,-2.200271368,-0.426167905,-0.073810108,-0.068347625,-0.138427258,-1,57,31,45,15,0.610521436,9.28591156,5.509057999,4.365588188,-2.674484015,4.365588188,-66,3,-4,89,215
1695163637055086200,-9.228450775,-2.201468468,-0.427365005,-0.09033078,-0.072477795,-0.144689128,-1,58,30,47,17,0.879869103,9.319430351,5.24210453,4.365588188,-2.560171604,4.365588188,-70,2,-3,85,215
1695163637056086200,-9.233239174,-2.201468468,-0.426167905,-0.107517615,-0.076208271,-0.151217461,-1,54,29,46,16,1.156399369,9.334992409,4.984727859,4.365588188,-2.449722767,4.365588188,-69,2,-7,80,215
1695163637057086200,-9.235632896,-2.200271368,-0.426167905,-0.125237361,-0.079672284,-0.158278719,-1,58,31,47,19,1.419761658,9.364919662,4.756081581,4.365588188,-2.344336987,4.365588188,-67,1,-12,74,214
1695163637058086200,-9.242815971,-2.197877169,-0.426167905,-0.143090352,-0.082736596,-0.165872887,-1,58,31,45,14,1.693897724,9.367314339,4.572925091,4.365588188,-2.24747777,4.365588188,-63,5,-8,72,214
1695163637087062300,-9.37449646,-2.006340981,-0.707486629,-0.548379779,-0.125903517,-0.404356807,-1,61,29,46,17,5.346252441,8.051700592,3.275267839,4.365588188,-0.238883615,4.365588188,-73,-1,-34,18,189
1695163637088062300,-9.37449646,-1.987187386,-0.731428623,-0.572228134,-0.127768755,-0.419012249,-1,58,31,45,19,5.395333767,7.906851292,3.180696964,4.365588188,-0.12337213,4.365588188,-65,-2,-31,25,192
1695163637089062300,-9.373299599,-1.966836691,-0.755370617,-0.595943332,-0.12936753,-0.433401227,-1,58,36,45,17,5.438429356,7.753622055,3.105279684,4.365588188,-0.013189893,4.365588188,-67,-2,-32,20,190
1695163637090062300,-9.370905876,-1.942894697,-0.78170687,-0.619392037,-0.130566612,-0.447257251,0,59,36,46,18,5.474342346,7.605181694,3.064578056,4.365588188,0.092595711,4.365588188,-69,4,-34,20,191
1695163637091062300,-9.364919662,-1.921346903,-0.809240162,-0.642441094,-0.131232768,-0.460447162,-1,59,33,45,19,5.499481201,7.451952934,3.039438963,4.365588188,0.196249619,4.365588188,-64,1,-34,20,193
1695163637118049300,-8.868123055,-1.731007814,-0.986411095,-0.754355311,-0.008260337,-0.459381312,-1,61,35,46,19,6.131550789,3.734954596,3.141192675,2.809180498,1.004030585,4.365588188,-62,3,-48,11,183
1695163637119049300,-8.8429842,-1.728613615,-0.976834297,-0.739699841,0.004929556,-0.441128641,1,58,33,50,17,6.196194172,3.515885115,3.180696964,2.661826849,1.021217465,4.365588188,-64,5,-48,9,183
1695163637120049300,-8.817844391,-1.721431017,-0.9648633,-0.723845303,0.017986218,-0.42074427,-1,62,31,45,20,6.236895561,3.362656355,3.203441858,2.565101147,1.034407258,4.365588188,-64,3,-45,6,183
1695163637121049300,-8.793902397,-1.711854219,-0.950498104,-0.706791699,0.030909648,-0.399027556,-1,59,35,45,20,6.283582211,3.114856482,3.252522945,2.423209667,1.057456374,4.365588188,-65,-1,-45,12,181
1695163637122049300,-8.768763542,-1.713051319,-0.93134445,-0.690404296,0.043433387,-0.376378268,-1,63,33,51,19,6.320692539,2.85867691,3.302801132,2.286114693,1.084901929,4.365588188,-63,4,-45,9,183
1695163637150008200,-8.655038834,-1.9321208,-0.470460624,-0.216900453,0.110448696,0.190653905,0,64,33,48,17,5.573701382,-0.905008256,4.286818027,1.340972424,1.644339919,2.989575624,-61,1,-55,14,183
1695163637151008200,-8.655038834,-1.947683096,-0.456095427,-0.188255742,0.10258805,0.219964772,-2,58,30,45,15,5.522226334,-0.987608194,4.412513733,1.338973999,1.651667714,2.901776314,-60,3,-47,10,188
1695163637152008200,-8.65743351,-1.957259893,-0.44651863,-0.160410419,0.093794793,0.248609498,-1,62,33,47,15,5.482721806,-1.064222693,4.562151432,1.335110307,1.657529831,2.81371069,-61,3,-48,9,182
1695163637153008200,-8.655038834,-1.963245392,-0.434547603,-0.133897394,0.084601834,0.275921881,1,57,33,45,17,5.444414616,-1.128866076,4.708197594,1.330447078,1.662192941,2.725777864,-63,0,-49,6,183
1695163637154008200,-8.655038834,-1.964442492,-0.427365005,-0.108983152,0.07500919,0.302434921,-1,59,31,45,23,5.406107426,-1.182735682,4.854243755,1.325251102,1.664990902,2.638511419,-63,3,-49,8,182
1695163637183006800,-8.862137794,-2.04823947,-0.561440289,-0.06008729,-0.016520673,0.618992329,0,59,29,45,16,4.87339735,-1.255758762,7.040150166,0.870133221,1.389868379,1.204543591,-62,3,-60,4,182
1695163637184006800,-8.893261909,-2.068590164,-0.571017087,-0.077673815,-0.012656967,0.626053572,-1,61,32,46,18,4.848258495,-1.250970364,7.128735542,0.837091923,1.366819382,1.1353966,-60,1,-49,8,182
1695163637185006800,-8.923190117,-2.094926596,-0.585382342,-0.096192956,-0.007860643,0.631915808,-1,59,29,45,17,4.813542366,-1.237802267,7.231686115,0.805516064,1.343370557,1.066649318,-62,1,-59,5,178
1695163637186006800,-8.954314232,-2.132036686,-0.59615624,-0.115644716,-0.002531394,0.636712074,-1,59,30,46,18,4.788403511,-1.238999367,7.303512096,0.785531402,1.32751596,1.02215004,-59,-2,-55,5,182
1695163637187006800,-8.991424561,-2.167949677,-0.608127236,-0.135629401,0.003597243,0.64044255,-2,59,31,46,17,4.757278919,-1.244984865,7.39209795,0.751157701,1.303534389,0.958865225,-62,1,-57,6,180
1695163637215971000,-9.381679535,-2.869450808,-0.895431459,-0.497352213,0.09246248,0.519868255,-1,59,29,46,19,3.545812607,-1.289277673,7.69855547,-0.194117904,-0.095127106,0.037837673,-60,3,-55,22,178
1695163637216971000,-9.37449646,-2.901772499,-0.907402456,-0.509476244,0.094594181,0.504946411,-1,58,31,46,18,3.541024208,-1.363497853,7.638700485,-0.253672272,-0.218366012,-0.017320061,-61,1,-49,20,176
1695163637217971000,-9.366117477,-2.93529129,-0.922964752,-0.519735038,0.09659265,0.489358336,-1,58,29,47,17,3.544615507,-1.443703651,7.556100368,-0.314558983,-0.342670739,-0.073810108,-60,-1,-49,24,176
1695163637218971000,-9.351752281,-2.968810081,-0.938527048,-0.52826184,0.098324656,0.473104149,-2,59,30,47,20,3.568557739,-1.555034041,7.447164536,-0.367052078,-0.463378251,-0.130966306,-65,-2,-56,24,176
1695163637219971000,-9.333795547,-3.001131773,-0.943315446,-0.534923434,0.100323126,0.456317008,-1,61,26,45,16,3.593696833,-1.680729628,7.32745409,-0.41394946,-0.583153129,-0.187456369,-60,1,-49,26,176
1695163637250954200,-8.945934296,-3.229778051,-1.007958889,-0.320021451,0.158145472,0.161742732,-1,61,31,46,15,4.560954094,-2.552218914,3.829525709,-0.923159301,-2.216168404,-1.72347939,-65,-2,-23,69,193
1695163637251954200,-8.936357498,-3.217807055,-1.00556469,-0.297905058,0.161742732,0.152549773,-1,55,29,45,19,4.631583214,-2.523488522,3.545812607,-0.999101043,-2.248943329,-1.848716736,-65,-1,-18,73,197
1695163637252954200,-8.927978516,-3.205836058,-1.00436759,-0.275522202,0.165073514,0.144022971,-1,62,29,45,21,4.717774391,-2.45285964,3.300406933,-1.076108694,-2.277987719,-1.974087358,-62,-4,-12,78,202
1695163637253954200,-8.923190117,-3.190273762,-1.000776291,-0.253272593,0.168137819,0.13656202,-1,59,28,45,14,4.824316502,-2.351106167,3.020285368,-1.160710573,-2.294508457,-2.111582041,-64,-1,-4,82,208
1695163637254954200,-8.920795441,-3.171120167,-0.998382092,-0.231422648,0.170802444,0.129767224,-1,59,28,47,18,4.94043541,-2.293645144,2.698265314,-1.245845199,-2.300637007,-2.260934353,-66,-2,-6,89,212
1695163637286932400,-9.034520149,-2.780865192,-0.961272001,-0.138294026,0.158545166,0.041301683,-1,53,30,48,21,8.546102524,0.195127442,-2.852691412,-2.772408962,0.12230628,-4.365721226,-39,-2,132,140,284
1695163637287932400,-9.051279068,-2.779668093,-0.962469101,-0.160277188,0.15841195,0.03650536,-1,51,35,47,17,8.680178642,0.517147541,-3.05140996,-2.832629442,0.365719765,-4.365721226,-42,-2,131,134,285
1695163637288932400,-9.072827339,-2.792836189,-0.963666201,-0.186257273,0.159078106,0.031042879,-1,58,31,47,19,8.781931877,0.849941611,-3.201047659,-2.891650677,0.61392951,-4.365721226,-37,-1,142,141,285
1695163637289932400,-9.097966194,-2.825158119,-0.963666201,-0.214901984,0.160676882,0.025313934,1,50,31,46,17,8.878896713,1.192312479,-3.319560766,-2.944676876,0.865470171,-4.365721226,-36,-2,143,133,286
1695163637290932400,-9.131484985,-2.880224705,-0.962469101,-0.245811626,0.163075045,0.019052068,-1,52,32,45,17,8.966285706,1.52630353,-3.408146143,-2.995571136,1.12140727,-4.365721226,-33,-2,148,141,290
1695163637319926900,-10.36330223,-7.290344238,-1.18752408,0.109915771,0.07500919,-0.215168446,-2,43,26,45,2686,7.024587631,7.164648533,0.063446343,-3.327050686,4.365588188,-4.365721226,-39,-2,147,128,302
1695163637320926900,-10.41118622,-7.602787495,-1.229422569,0.186523736,0.068614088,-0.248742729,-4,43,26,45,2686,6.483498096,7.485471725,0.378283858,-3.336776495,4.365588188,-4.365721226,-40,3,152,127,304
1695163637321926900,-10.45907021,-7.910442352,-1.285686255,0.265396625,0.064483918,-0.287912726,-5,43,26,45,2686,5.90529871,7.795520782,0.693121374,-3.345036745,4.365588188,-4.365721226,-37,1,152,127,308
1695163637322926900,-10.51533413,-8.210914612,-1.344344258,0.344003052,0.062485453,-0.332811654,-1,46,26,44,2686,5.307945251,8.111555099,1.013944387,-3.352897406,4.365588188,-4.365721226,-37,1,151,128,311
1695163637323926900,-10.57758331,-8.517372131,-1.41138196,0.420344561,0.06261868,-0.383306265,-4,45,27,46,2686,4.718971729,8.457517624,1.363497853,-3.364754915,4.365588188,-4.365721226,-40,1,155,127,311
1695163637352892500,-12.82693577,-13.42548561,-1.63523972,1.363088846,0.280185282,-2.018719673,-1,73,55,44,2686,-3.331531763,9.581595421,8.335412979,-4.365721226,4.365588188,-4.057157516,-59,16,141,118,290
1695163637353892500,-12.91671848,-13.61941624,-1.620874524,1.434900403,0.291776419,-2.112514496,-6,80,61,45,2686,-3.803189516,9.375694275,8.608352661,-4.365721226,4.365588188,-3.935517788,-57,21,142,117,294
1695163637354892500,-13.03044319,-13.79419327,-1.610100627,1.511241913,0.298571229,-2.201779366,-1,83,63,46,2686,-4.301183224,9.155426979,8.829815865,-4.365721226,4.365588188,-3.809880495,-59,20,141,116,290
1695163637355892500,-13.14656162,-14.00727749,-1.590947032,1.592513084,0.302701384,-2.288779497,-6,94,75,46,2686,-4.811148167,8.924386978,9.018958092,-4.365721226,4.365588188,-3.681845188,-60,19,141,111,286
1695163637356892500,-13.25789165,-14.20839024,-1.581370234,1.687240362,0.303633988,-2.367252827,-4,98,81,46,2686,-5.327098846,8.668207169,9.185355186,-4.365721226,4.365588188,-3.554875851,-59,18,140,117,291
1695163637391870300,-13.77144814,-14.26585102,-2.808398485,4.365588188,0.296306252,-2.88538909,-4,271,298,130,243,-9.307458878,0.951695204,12.33372974,-3.200081348,2.754689217,-1.927323103,-67,27,151,117,289
1695163637392870300,-13.69243908,-14.15212631,-2.852691412,4.365588188,0.348399699,-2.849416494,-2,278,309,132,237,-9.228450775,0.719457626,12.41034412,-3.086967707,2.595611095,-1.874696851,-65,27,151,114,288
1695163637393870300,-13.61821938,-14.01565647,-2.901772499,4.365588188,0.402358323,-2.802119493,-4,278,315,141,257,-9.141061783,0.515950441,12.48336792,-2.980116367,2.445592642,-1.824601769,-67,24,151,116,288
1695163637394870300,-13.55716705,-13.89235497,-2.995146275,4.365588188,0.458315462,-2.74709487,-2,285,323,154,280,-9.050082207,0.339976639,12.56117916,-2.881258726,2.305033445,-1.777304769,-69,27,150,114,291
1695163637395870300,-13.51526833,-13.76665974,-3.173514366,4.365588188,0.516004622,-2.68367672,-6,288,330,156,2686,-8.957905769,0.189141929,12.634202,-2.792393684,2.174999952,-1.734137893,-65,27,148,117,288
1695163637426865600,-13.016078,-8.165425301,-6.302735806,4.365588188,-0.302967817,-1.27768755,-8,355,509,287,616,-7.268796444,-2.359485865,11.82735634,-1.795823812,1.223062754,-1.127802491,-71,-53,152,116,284
1695163637427865600,-12.76468658,-7.715314865,-6.20337677,4.365588188,-0.403823912,-1.227192998,-4,355,523,291,629,-7.490260124,-2.342726469,11.89080238,-1.726277113,1.174300075,-1.107817769,-70,-56,151,114,285
1695163637428865600,-12.47977638,-7.258022308,-6.088454723,4.365588188,-0.4960199,-1.181494594,-9,361,533,301,647,-7.700949669,-2.343923569,11.99375343,-1.660327673,1.114346027,-1.091030598,-72,-52,152,111,286
1695163637429865600,-12.20204926,-6.804321289,-6.02620554,4.365588188,-0.58381933,-1.142857671,-6,365,545,306,657,-7.814674377,-2.343923569,12.07036781,-1.619692206,1.069846869,-1.079306245,-69,-57,155,112,283
1695163637430865600,-11.8967886,-6.357802391,-5.990292549,4.365588188,-0.670153141,-1.110215902,-11,369,552,314,673,-7.936778545,-2.317587137,12.18169785,-1.564800858,0.996169984,-1.060520649,-69,-56,155,113,282
1695163637459833700,-7.394492149,-0.390254885,-3.690661907,4.365588188,-1.31206131,-0.847350657,11,423,700,456,2686,-5.177461147,-2.920926094,10.198102,-0.58954823,-0.007194487,-0.634447217,-71,-66,149,114,292
1695163637460833700,-7.243657112,-0.458489627,-3.487154722,4.365588188,-1.286347628,-0.84042269,18,426,706,458,2686,-5.005078793,-2.883816004,9.981427193,-0.519068897,0.007327718,-0.602871358,-71,-67,151,108,290
1695163637461833700,-7.101202011,-0.543483794,-3.295618534,4.365588188,-1.256237268,-0.832695246,22,431,709,461,2686,-4.843470097,-2.832340717,9.779116631,-0.447257251,0.023981623,-0.570496202,-70,-66,152,112,286
1695163637462833700,-6.967126846,-0.628477931,-3.147178173,4.365588188,-1.219865203,-0.82643342,21,430,711,460,2686,-4.697423935,-2.773682594,9.582792282,-0.374646246,0.042500768,-0.536921918,-71,-66,152,112,294
1695163637463833700,-6.83784008,-0.691924274,-3.039438963,4.365588188,-1.182826996,-0.817906559,25,430,714,461,2686,-4.565742493,-2.698265314,9.399636269,-0.301502287,0.061819296,-0.502681494,-74,-67,151,109,289
1695163637493834100,-5.231330872,0.486022949,-0.433350503,4.365588188,-0.853745818,-0.101122513,43,437,730,467,2686,-4.598064423,-0.693121374,8.327033043,0.408087283,-0.144555897,-0.012523737,-72,-65,143,111,292
1695163637494834100,-5.134365559,0.681150377,-0.307654917,4.36265707,-0.852546692,-0.078473203,48,437,730,464,2686,-4.638765812,-0.768538773,8.303091049,0.420611024,-0.185591117,0.008260337,-71,-66,145,109,290
1695163637495834100,-5.046977043,0.873883605,-0.183156431,4.304035187,-0.851081192,-0.061286367,48,437,730,462,2686,-4.67827034,-0.866701007,8.275558472,0.439263374,-0.22702603,0.029710567,-71,-66,144,110,292
1695163637496834100,-4.965574265,1.071405292,-0.068234749,4.240483761,-0.850148499,-0.047830015,49,435,732,463,2686,-4.715380192,-0.980425596,8.246828079,0.465110272,-0.267928004,0.052093416,-72,-65,145,110,293
1695163637497834100,-4.891354084,1.274912357,0.038307227,4.171203613,-0.850281775,-0.037038282,47,432,731,467,2686,-4.756081581,-1.110909581,8.221688271,0.498684525,-0.307897419,0.075408876,-70,-66,143,105,294
1695163637532789900,-4.303577423,2.400187254,2.728192806,2.378177643,-1.088366032,-0.081937209,63,426,734,460,2686,-5.376179695,-3.330334663,7.146692276,2.445193052,-1.148053527,0.727309346,-69,-44,126,95,302
1695163637533789900,-4.270058632,2.446874142,2.82156682,2.309563637,-1.095826983,-0.087799385,60,427,734,458,2686,-5.425261021,-3.390189648,7.018602371,2.602805614,-1.204543591,0.758085787,-70,-39,126,95,301
1695163637534789900,-4.247313976,2.467224836,2.922123194,2.238684654,-1.102222085,-0.09272895,63,426,731,460,2686,-5.468356609,-3.442862034,6.891709805,2.765614033,-1.261966348,0.785398185,-75,-35,121,95,301
1695163637535789900,-4.218583584,2.527079821,3.039438963,2.164874554,-1.105552793,-0.095926493,63,425,730,458,2686,-5.500678539,-3.485957623,6.76960516,2.932153225,-1.318589687,0.810978532,-68,-29,123,95,304
1695163637536789900,-4.163516521,2.661155224,3.093308687,2.088532925,-1.106885076,-0.101122513,63,421,731,459,2686,-5.517437935,-3.512293816,6.636727333,3.100823879,-1.372015357,0.83575958,-68,-34,121,95,302
1695163637565773200,-3.999513865,1.086967587,4.881777287,0.612330794,-0.629251182,0.059021436,76,415,720,447,2686,-4.744110584,-0.428562105,3.23576355,4.365588188,-1.628751874,1.412650943,-65,-29,75,95,301
1695163637566773200,-4.128800869,0.858321309,5.011064053,0.628851414,-0.587283254,0.100056656,75,414,715,447,2686,-4.641160011,-0.274136096,3.046621561,4.365588188,-1.601706028,1.423309445,-66,-29,71,96,304
1695163637567773200,-4.254496574,0.673967779,5.13556242,0.651633978,-0.549179137,0.14175804,70,416,713,450,2686,-4.532223701,-0.120907187,2.874239206,4.365588188,-1.570929646,1.430903554,-67,-29,69,100,305
1695163637568773200,-4.371812344,0.531512797,5.264849663,0.678013802,-0.514938712,0.182660028,73,415,711,444,2686,-4.414907932,0.023942016,2.726995707,4.365588188,-1.535223484,1.435833097,-69,-27,67,102,300
1695163637569773200,-4.474762917,0.434547603,5.394136429,0.705192924,-0.483895868,0.221696794,73,414,709,444,2686,-4.283226967,0.154426008,2.592920542,4.365588188,-1.494321704,1.437698364,-67,-28,62,102,301
1695163637600753100,-5.325901508,0.468066424,7.516596317,0.044765696,-0.250208259,0.18599081,66,405,686,434,2686,-2.110488892,3.168725967,0.453701228,4.365588188,-0.668021441,1.120741129,-63,-24,39,112,272
1695163637601753100,-5.323507309,0.412999779,7.596801758,-0.014388974,-0.25300613,0.162808567,66,404,688,438,2686,-2.027888775,3.333925962,0.418985307,4.365588188,-0.656163871,1.094094992,-63,-23,44,111,266
1695163637602753100,-5.31871891,0.354341865,7.672219276,-0.06981317,-0.255803972,0.141225114,68,401,691,430,2686,-1.940500498,3.460818529,0.399831682,4.365588188,-0.653499246,1.066782594,-63,-28,41,112,266
1695163637603753100,-5.305551052,0.293289721,7.741651058,-0.121373661,-0.258468598,0.120973967,68,405,686,434,2686,-1.844732404,3.56736064,0.41060558,4.365588188,-0.658828497,1.040269494,-62,-23,39,110,264
1695163637604753100,-5.289988518,0.237025961,7.806294441,-0.169203669,-0.260733545,0.10285452,69,405,684,432,2686,-1.753752708,3.675099611,0.448912829,4.365588188,-0.668021441,1.014156222,-66,-23,36,112,259
1695163637632755000,-5.027823448,0.226252064,7.574057102,-0.611531377,-0.375445634,-0.028245023,68,400,668,429,2686,-2.537853718,4.687847137,0.627280831,4.28245163,-2.063218832,-0.239283308,-66,-22,17,88,228
1695163637633755000,-5.015852451,0.244208574,7.498639584,-0.635513008,-0.385704458,-0.031842265,66,397,669,429,2686,-2.657563925,4.712985992,0.537498295,4.134298801,-2.181927919,-0.369716704,-63,-19,15,85,222
1695163637634755000,-5.013458252,0.254982471,7.420828342,-0.660693705,-0.396362931,-0.035839204,63,397,666,428,2686,-2.730587006,4.715380192,0.472854823,4.042635441,-2.262532949,-0.457782537,-63,-19,14,85,224
1695163637635755000,-5.009867191,0.263362199,7.334636688,-0.68667376,-0.407687575,-0.039702907,65,398,666,426,2686,-2.826355219,4.699818134,0.368707061,3.923127174,-2.381908178,-0.591147006,-64,-22,11,81,219
1695163637636755000,-5.012261391,0.278924495,7.237671852,-0.713320017,-0.42074427,-0.044366002,63,398,666,427,2686,-2.919728994,4.690241337,0.271741897,3.82653451,-2.500350475,-0.724911153,-67,-20,11,80,221
1695163637665712800,-4.104858875,1.886630893,3.706224203,-2.037638664,-1.038137794,-0.632848382,49,385,619,407,2686,-5.202600479,7.418434143,-0.486022949,2.550978661,-3.881292582,-3.259369135,-65,-18,-25,50,208
1695163637666712800,-4.000710964,1.947683096,3.451241732,-2.164874554,-1.07517612,-0.676015317,50,387,619,406,2686,-5.415684223,7.672219276,-0.572214186,2.439730406,-3.931387424,-3.385405779,-67,-19,-23,53,209
1695163637667712800,-3.882198095,1.999158382,3.216609955,-2.297439575,-1.10422051,-0.7131868,47,389,619,403,2686,-5.64313364,7.912836552,-0.654814184,2.331546545,-3.980816126,-3.508511543,-65,-21,-21,46,209
1695163637668712800,-3.749319792,2.039859772,3.004723072,-2.436932802,-1.122339964,-0.743030608,50,386,620,406,2686,-5.853823185,8.160636902,-0.729034424,2.225094795,-4.029046059,-3.627353668,-63,-18,-21,46,209
1695163637669712800,-3.594893932,2.076969862,2.819172382,-2.583220482,-1.127402782,-0.765013814,48,393,620,406,2686,-6.039373875,8.406042099,-0.788889468,2.121574163,-4.074344635,-3.742598772,-63,-21,-27,43,208
1695163637707255100,-2.217030764,0.068234749,-0.616506934,-4.365721226,0.635513008,-0.050494641,43,397,638,411,2686,-7.779958248,10.55603504,0.29688102,-0.09352833,-3.469208241,-4.365721226,-68,-21,-36,34,208
1695163637708255100,-2.297236443,-0.034715924,-0.758961916,-4.365721226,0.725977063,0.0063951,39,389,639,411,2686,-7.783549786,10.47104073,0.412999779,-0.236485451,-3.361823797,-4.365721226,-61,-18,-38,31,201
1695163637709255100,-2.384624958,-0.126892686,-0.89064306,-4.365721226,0.811378241,0.063151613,41,394,635,407,2686,-7.799111843,10.37886429,0.535104096,-0.379042894,-3.248710632,-4.365721226,-60,-18,-35,31,205
1695163637710255100,-2.49236393,-0.209492654,-1.013944387,-4.365721226,0.888252676,0.119641654,41,393,635,408,2686,-7.827842236,10.26992798,0.644040287,-0.522666156,-3.130001545,-4.365721226,-63,-18,-34,32,203
1695163637711255100,-2.610877037,-0.280121595,-1.126471877,-4.365721226,0.956467032,0.175865233,40,397,634,410,2686,-7.880515099,10.14183807,0.749385118,-0.662825465,-3.008228064,-4.365721226,-60,-21,-39,31,202
1695163637849204400,-5.226542473,-1.605312228,-0.052672438,-4.365721226,1.220131636,1.010025978,32,340,560,374,736,-11.17733097,6.342240334,1.951274395,-1.124338388,-0.525863707,-4.17027092,-60,-18,-41,24,204
1695163637850204400,-5.370194435,-1.722628117,0.073023155,-4.365721226,1.21240437,1.058921933,30,343,545,366,718,-11.37365532,6.157886982,2.033874273,-1.025081158,-0.401958644,-4.146289349,-60,-20,-39,25,204
1695163637851204400,-5.516240597,-1.848323703,0.210689753,-4.365721226,1.206808567,1.113013744,32,335,532,361,709,-11.56758595,5.989095688,2.111685991,-0.919295549,-0.279119462,-4.12217474,-61,-17,-41,28,200
1695163637852204400,-5.667075634,-1.984793186,0.329202741,-4.365721226,1.204277158,1.171369076,31,333,522,349,692,-11.75792408,5.838260651,2.184709072,-0.80818069,-0.1573461,-4.098992348,-60,-19,-35,24,204
1695163637853204400,-5.823895454,-2.127248287,0.434547603,-4.365721226,1.204010725,1.236652374,32,330,517,349,2686,-11.9614315,5.697002888,2.262520552,-0.692802429,-0.036905054,-4.07594347,-60,-21,-41,22,202
1695163637934154700,-9.797073364,-6.640318394,1.866280198,-4.365721226,2.160477877,3.092563629,-1,142,182,141,286,-15.80771637,6.72531271,3.404554844,1.232921839,1.826866746,-3.86916852,-58,-18,-38,24,202
1695163637935154700,-9.985017776,-6.962338448,1.772906303,-4.365721226,2.196450233,3.13120079,0,129,161,135,272,-15.94777775,6.922834396,3.414131641,1.268094897,1.8786937,-3.864638567,-59,-18,-41,24,203
1695163637936154700,-10.23281765,-7.254431248,1.483207941,-4.365721226,2.209240437,3.163176298,-1,117,147,122,2686,-16.06868553,7.122750282,3.41772294,1.294607997,1.923326135,-3.858909845,-60,-17,-38,25,198
1695163637937154700,-10.54166985,-7.522581577,1.090558887,-4.365721226,2.193918943,3.18542552,0,112,135,109,2686,-16.16445351,7.319074631,3.414131641,1.311794877,1.961563587,-3.85198164,-60,-16,-35,24,202
1695163637938154700,-10.86369038,-7.770381451,0.654814184,-4.365721226,2.153816223,3.19142127,-1,103,122,99,2686,-16.22789955,7.517793179,3.397372246,1.319655418,1.992606401,-3.842921972,-55,-18,-40,28,202
1695163638008137200,-13.52843666,-8.856152534,-2.272097349,-4.365721226,-0.087399691,2.350065708,-1,61,8,31,137,-13.55118179,8.966285706,2.347514868,0.124437973,1.409053564,-2.74456358,-60,-18,-36,26,201
1695163638009137200,-13.59786892,-8.783128738,-2.316390038,-4.365721226,-0.198647782,2.303701401,-3,61,3,30,132,-13.30817032,8.870517731,2.300827742,0.032108728,1.35722661,-2.621191502,-60,-19,-35,26,198
1695163638010137200,-13.66610336,-8.710105896,-2.346317768,-4.365721226,-0.304300129,2.258402586,-1,59,3,30,132,-13.07473564,8.76636982,2.250549555,-0.056223582,1.305799365,-2.491424084,-63,-19,-34,28,199
1695163638011137200,-13.73553562,-8.635885239,-2.379836559,-4.365721226,-0.404490054,2.214169979,-1,57,0,29,2686,-12.84848309,8.649053574,2.205059767,-0.140692189,1.254905105,-2.357260227,-58,-16,-37,26,200
1695163638012137200,-13.80017853,-8.559270859,-2.41455245,-4.365721226,-0.499217451,2.172068834,-1,57,-4,34,479,-12.63180828,8.514978409,2.159569979,-0.220630929,1.205076575,-2.21883297,-57,-18,-34,25,200
1695163638077072400,-13.41950035,-7.326257229,-2.816778183,-4.365721226,-1.266895771,1.826333761,-1,57,-17,22,2686,-10.94389629,6.374562263,2.086546898,-0.379309326,0.440728962,0.384105653,-60,-17,-34,30,194
1695163638078072400,-13.36443424,-7.317877293,-2.826355219,-4.365721226,-1.263565183,1.823802471,-1,57,-22,16,2686,-10.94389629,6.370970726,2.086546898,-0.32615009,0.402225107,0.480165392,-60,-16,-34,31,198
1695163638079072400,-13.30457878,-7.315483093,-2.831143618,-4.365721226,-1.256770372,1.822203636,1,54,-21,17,2686,-10.94988155,6.382941723,2.08295536,-0.268993855,0.363188356,0.570496202,-60,-18,-35,31,200
1695163638080072400,-13.24831486,-7.316680431,-2.829946518,-4.365721226,-1.246245027,1.822336912,-3,53,-21,18,2686,-10.96185207,6.415263653,2.093729496,-0.208506882,0.323218971,0.654964805,-59,-18,-34,28,196
1695163638081072400,-13.18965721,-7.32745409,-2.825158119,-4.365721226,-1.232388973,1.82313633,-1,51,-23,16,2686,-10.97023201,6.459556103,2.100912094,-0.145355284,0.2831164,0.733837724,-60,-19,-34,30,198
1695163638141061200,-11.88840866,-8.485051155,-1.698686123,-2.949739456,-0.622056663,1.837125659,-1,54,-21,16,2686,-11.53406715,9.415198326,2.488772631,0.76514703,-0.692535996,1.974620223,-60,-20,-34,31,196
1695163638142061200,-11.82496262,-8.536525726,-1.624465823,-2.768811703,-0.583552837,1.831929564,-1,57,-21,18,2686,-11.59152794,9.611522675,2.481590033,0.778736591,-0.755421162,2.058555841,-57,-18,-35,31,197
1695163638143061200,-11.76031876,-8.585607529,-1.555034041,-2.580689192,-0.545715153,1.82566762,-1,57,-22,18,2686,-11.65377712,9.807847023,2.475604534,0.789261878,-0.818839192,2.144490004,-58,-19,-34,29,196
1695163638144061200,-11.70046329,-8.620323181,-1.492784739,-2.385905027,-0.508943319,1.818073511,-1,54,-23,16,2686,-11.71961689,10.00776291,2.472013235,0.797122538,-0.882656932,2.231889725,-58,-18,-34,30,195
1695163638145061200,-11.64060879,-8.641871452,-1.435323954,-2.184726,-0.473503798,1.809147,-1,57,-25,17,2686,-11.79264069,10.21246719,2.463633537,0.802451789,-0.946607947,2.320355177,-57,-17,-35,30,196
1695163638209022400,-10.67095661,-7.066486359,-1.181538582,1.522166848,-0.021983154,1.398395061,-1,51,-16,17,105,-13.71877575,12.90235329,2.127248287,0.985911131,-1.915865302,4.168805599,-58,-17,-21,42,198
1695163638210022400,-10.60272217,-6.867767811,-1.200692177,1.709223509,-0.005329249,1.35829246,-2,54,-11,18,2686,-13.80137539,13.03523159,2.136825085,0.996036768,-1.93744874,4.267929554,-49,-18,-20,44,196
1695163638211022400,-10.55124664,-6.715735912,-1.209071875,1.840456247,0.0063951,1.327382803,-1,55,-10,20,2686,-13.88277817,13.17648888,2.152387381,1.003764153,-1.955701351,4.365588188,-54,-19,-21,40,194
1695163638212022400,-10.49857426,-6.560112476,-1.221042871,1.96396172,0.017320061,1.296073556,-1,55,-13,16,2686,-13.93545055,13.27225685,2.164358377,1.007494569,-1.965960145,4.365588188,-49,-18,-17,45,196
1695163638213022400,-10.45308495,-6.398504257,-1.237802267,2.080272675,0.027712099,1.263831615,0,52,-13,18,2686,-14.00967121,13.42309189,2.19308877,1.011225104,-1.97795105,4.365588188,-49,-18,-19,46,198
1695163638271967500,-9.575610161,-2.811989784,-1.364694953,2.430804014,0.116577335,0.608333826,-1,57,9,24,104,-14.54118443,15.98369026,2.444479942,0.266862184,-1.235852957,4.365588188,-55,-20,12,100,215
1695163638272967500,-9.525331497,-2.677914619,-1.357512355,2.342471838,0.11711026,0.57555896,-1,57,14,21,100,-14.51484776,15.977705,2.373851061,0.201179162,-1.16657269,4.365588188,-52,-18,14,101,215
1695163638273967500,-9.476250648,-2.554613113,-1.347935557,2.250675201,0.118042871,0.543450236,-1,54,11,23,99,-14.48851204,15.94059467,2.322375536,0.127502292,-1.100223541,4.365588188,-56,-20,14,104,214
1695163638274967500,-9.43315506,-2.444479942,-1.344344258,2.156347752,0.119508423,0.512274086,-2,57,11,26,97,-14.45738697,15.88433075,2.273294449,0.046098009,-1.037604928,4.365588188,-54,-20,14,104,215
1695163638275967500,-9.393650055,-2.348711967,-1.344344258,2.059754848,0.120840736,0.481764168,-1,51,12,24,99,-14.41429138,15.81370258,2.233790159,-0.040502299,-0.978183806,4.365588188,-55,-18,19,107,215
1695163638307940500,-9.148244858,-1.408987641,-1.48679924,0.210105672,-0.092062794,0.016653905,-1,61,17,28,100,-11.54962921,10.34295177,2.45285964,-1.34217155,-0.502548277,4.365588188,-55,-21,99,132,257
1695163638308940500,-9.155426979,-1.429338455,-1.492784739,0.118042871,-0.114578865,-0.002664625,-1,59,17,26,97,-11.24915695,9.904812813,2.52827692,-1.373880625,-0.48456201,4.365588188,-50,-18,110,142,260
1695163638309940500,-9.166201591,-1.458068848,-1.497573137,0.03011026,-0.137894332,-0.021183766,0,61,17,30,100,-10.94629002,9.503783226,2.618059635,-1.407188296,-0.465509921,4.365588188,-51,-18,113,143,267
1695163638310940500,-9.173383713,-1.493981838,-1.499967337,-0.053425729,-0.160943344,-0.038903523,-1,57,15,29,98,-10.65419769,9.126696587,2.71382761,-1.442094922,-0.445658505,4.365588188,-50,-19,124,144,272
1695163638311940500,-9.181763649,-1.537077546,-1.504755735,-0.132032156,-0.18385911,-0.055557426,-3,57,19,30,99,-10.36689377,8.755595207,2.825158119,-1.477667689,-0.423675328,4.365588188,-48,-20,126,144,273
1695163638337945700,-9.31823349,-2.382230759,-1.695094824,-0.75155741,-0.541052043,-0.235153139,0,61,16,30,97,-5.220556736,2.677914619,2.881421804,-2.313827038,-0.233820826,4.365588188,-27,-18,183,172,313
1695163638338945700,-9.317035675,-2.408566952,-1.71065712,-0.748892784,-0.551177621,-0.240482375,-1,58,21,29,97,-4.872200489,2.448071241,2.918531895,-2.337275743,-0.225160792,4.365588188,-19,-17,186,173,315
1695163638339945700,-9.317035675,-2.434903145,-1.729810715,-0.744496226,-0.559704423,-0.246078104,0,63,21,28,96,-4.526238441,2.243366957,2.972401381,-2.357526779,-0.212503821,4.365588188,-21,-17,190,171,318
1695163638340945700,-9.319430351,-2.456450939,-1.74657011,-0.738234282,-0.566898882,-0.251140893,0,59,22,28,99,-4.183867455,2.081758261,3.056198359,-2.379243612,-0.195716694,4.365588188,-17,-18,189,174,316
1695163638341945700,-9.321824074,-2.474407434,-1.760935307,-0.730373681,-0.57236141,-0.256336898,0,62,23,32,97,-3.955221176,1.974019289,3.113659382,-2.398961544,-0.182793275,4.365588188,-18,-21,188,176,315
1695163638390837200,-9.185355186,-2.359485865,-1.788468719,-0.499217451,-0.397029072,-0.400226623,-1,60,21,30,99,1.574187636,-0.59495914,3.422511339,-3.513041258,0.556506872,1.431436419,-13,-4,195,174,311
1695163638391837200,-9.175778389,-2.34033227,-1.778891921,-0.490024507,-0.373980075,-0.411817759,-1,61,23,29,97,1.786074519,-0.730231524,3.34230566,-3.559272766,0.608333826,1.25117445,-15,-4,196,171,308
1695163638392837200,-9.168595314,-2.321178436,-1.770512104,-0.481364459,-0.349865228,-0.423675328,-1,61,23,32,97,1.984793186,-0.85473001,3.268085241,-3.604438066,0.657496214,1.067448735,-14,-5,195,171,309
1695163638393837200,-9.157821655,-2.302024841,-1.763329506,-0.473104149,-0.324950993,-0.435666144,1,63,21,30,99,2.185906172,-0.962469101,3.209427357,-3.65093565,0.704393566,0.879992306,-18,-7,193,170,308
1695163638394837200,-9.15063858,-2.282871246,-1.753752708,-0.465243489,-0.299637049,-0.447790205,-1,64,24,31,98,2.391807556,-1.07739079,3.177105665,-3.698632479,0.750757992,0.689071953,-15,-4,196,169,306
1695163638462858100,-9.117119789,-2.11767149,-1.496376038,-0.286980093,0.160277188,-0.627785623,0,60,26,29,97,4.230554581,-2.804807186,2.513911724,-4.31962347,2.076675415,-2.59401226,-42,-2,189,160,292
1695163638463858100,-9.11233139,-2.108094692,-1.489193439,-0.272324651,0.176131696,-0.633514524,-1,59,22,27,96,4.084507942,-2.852691412,2.500743628,-4.306166649,2.162742615,-2.725378036,-40,-1,190,159,290
1695163638464858100,-9.105149269,-2.102109194,-1.478419542,-0.257269531,0.190653905,-0.639110267,-1,63,25,30,96,3.888183594,-2.887407303,2.512714624,-4.289113522,2.249076605,-2.852880478,-41,1,190,160,286
1695163638465858100,-9.097966194,-2.096123695,-1.467645645,-0.241415009,0.204376727,-0.64403981,2,59,21,31,100,3.635595322,-2.901772499,2.52947402,-4.268063068,2.335410357,-2.976119518,-42,0,187,159,284
1695163638466858100,-9.084798813,-2.085349798,-1.460463047,-0.22489433,0.217166916,-0.648836136,0,64,19,32,100,3.326743364,-2.889801502,2.554613113,-4.243681431,2.420411825,-3.094295502,-44,-1,185,159,284
1695163638573842300,-8.768763542,-1.817199111,-1.247379065,0.133630931,0.319488525,-0.694134772,-1,64,26,32,97,-9.747992516,2.321178436,6.496666431,-3.994405746,2.325817585,-3.168105841,-67,2,137,142,264
1695163638574842300,-8.763975143,-1.796848416,-1.237802267,0.150817752,0.321353763,-0.693068922,0,60,26,29,99,-10.64940929,2.477998734,6.786364555,-3.922461033,2.191387415,-3.003964663,-65,9,132,142,260
1695163638575842300,-8.761581421,-1.776497602,-1.231816769,0.167071983,0.323085755,-0.691736579,1,62,24,30,99,-11.54603767,2.570175409,7.084442616,-3.819872856,2.047631025,-2.825434923,-70,4,132,140,263
1695163638576842300,-8.762778282,-1.741781712,-1.217451572,0.187722817,0.325617135,-0.688805521,2,64,25,35,97,-12.108675,2.651578426,7.264008045,-3.739268064,1.947307825,-2.696600199,-71,-1,126,138,264
1695163638577842300,-8.765172005,-1.719036818,-1.203086376,0.202245027,0.327615619,-0.686007679,0,62,23,29,99,-12.89876175,2.738966703,7.502231121,-3.596177816,1.784366012,-2.48902607,-71,0,126,140,257
1695163638637785600,-8.956708908,-1.441309452,-1.010353088,0.316424191,0.381574243,-0.512274086,0,63,26,41,97,-10.73679733,2.67552042,8.416815758,3.402859211,-2.280785561,3.107218981,-74,-3,20,112,241
1695163638638785600,-8.969876289,-1.441309452,-1.006761789,0.316157728,0.384372145,-0.496686071,-1,63,24,29,101,-10.08198357,2.917334795,8.390480042,3.792160749,-2.423876047,3.382874489,-76,-2,14,115,236
1695163638639785600,-8.986636162,-1.440112352,-1.000776291,0.316024512,0.386770278,-0.480831534,1,60,26,30,94,-9.436745644,3.210624456,8.336610794,4.159213066,-2.550179243,3.647738218,-77,-2,7,109,234
1695163638640785600,-9.003395081,-1.437718153,-0.994790792,0.315491587,0.389168471,-0.464577317,-1,64,26,32,99,-8.808267593,3.544615507,8.230068207,4.365588188,-2.663159132,3.902476072,-74,-2,11,112,233
1695163638641785600,-9.015366554,-1.434126854,-0.987608194,0.314692199,0.391033709,-0.448189914,-1,58,26,36,97,-8.202534676,3.910928488,8.048109055,4.365588188,-2.768012047,4.146822453,-76,-2,13,112,231
1695163638705746400,-9.082404137,-1.520318031,-0.991199493,0.341604888,0.362921923,-0.175332308,-1,64,25,28,97,1.22702837,10.34295177,5.491101742,4.365588188,-3.502116442,4.365588188,-76,-1,-7,52,202
1695163638706746400,-9.072827339,-1.52510643,-0.993593693,0.346401215,0.360523731,-0.165339977,-1,63,26,30,95,1.600523829,10.42555141,5.377377033,4.365588188,-3.459215879,4.365588188,-76,-3,-11,50,201
1695163638707746400,-9.06205368,-1.52510643,-0.995987892,0.351464033,0.358258814,-0.155747324,-1,59,25,32,97,1.993172884,10.51293945,5.316324711,4.365588188,-3.405257225,4.365588188,-77,-1,-14,42,202
1695163638708746400,-9.054870605,-1.528697729,-1.000776291,0.356660008,0.355993867,-0.146421134,1,59,25,32,98,2.403778553,10.57279491,5.278017521,4.365588188,-3.338908195,4.365588188,-76,-2,-13,44,199
1695163638709746400,-9.050082207,-1.531091928,-1.00317049,0.362255752,0.353995383,-0.137494639,-1,59,24,33,99,2.689885616,10.57878017,5.273229122,4.365588188,-3.288280249,4.365588188,-76,-2,-16,41,199
1695163638771729200,-8.881291389,-1.507149935,-1.027112484,0.460580379,0.371581942,0.051960181,-1,58,23,32,97,6.695384979,7.113173485,3.479972124,4.365588188,-1.036938667,4.365588188,-76,-2,-44,8,189
1695163638772729200,-8.868123055,-1.509544134,-1.017535686,0.464977026,0.375712097,0.063018374,0,62,26,29,99,6.84023428,6.979097843,3.470395327,4.365588188,-0.929554343,4.365588188,-76,-4,-41,10,189
1695163638773729200,-8.851364136,-1.514332533,-1.011550188,0.469640136,0.380508423,0.074076563,-1,60,26,33,97,6.992266178,6.864176273,3.463212729,4.365588188,-0.820171535,4.365588188,-76,-2,-47,8,186
1695163638774729200,-8.838195801,-1.521515131,-1.00436759,0.474303216,0.385304749,0.085267991,-1,64,25,33,98,7.149086475,6.766014099,3.452438831,4.365588188,-0.711721301,4.365588188,-77,-4,-47,10,186
1695163638775729200,-8.826224327,-1.531091928,-0.997184992,0.479366004,0.390900433,0.096326187,0,64,26,30,97,7.303512096,6.649895191,3.454833031,4.365588188,-0.603937209,4.365588188,-76,-5,-49,6,185
1695163638840663100,-9.828198433,-2.152387381,0.687135875,0.596076548,-0.122972436,0.01505513,5,58,26,40,98,7.851784706,2.895787001,3.7181952,4.017588139,0.908104122,4.365588188,-75,-2,-59,0,183
1695163638841663100,-9.788693428,-2.069787264,0.908599555,0.553575814,-0.186257273,-0.011191424,2,57,24,40,96,7.823053837,2.695871115,3.79241538,3.944710732,0.959131658,4.365588188,-74,-4,-61,0,182
1695163638842663100,-9.751583099,-2.013523579,1.042674899,0.507611036,-0.226892799,-0.029310873,8,56,26,40,99,7.791929245,2.504334927,3.857059002,3.86916852,1.008027554,4.365588188,-74,-4,-62,0,183
1695163638843663100,-9.724050522,-1.978807688,1.113303781,0.472038269,-0.250741184,-0.040369064,2,53,24,39,98,7.747636795,2.333149672,3.915716887,3.791627884,1.053592682,4.365588188,-74,-2,-60,0,182
1695163638844663100,-9.685743332,-1.939303398,1.197100878,0.413283318,-0.281384379,-0.054624807,3,53,26,38,101,7.69855547,2.196680069,3.991134167,3.708891153,1.097425699,4.365588188,-75,-4,-62,-1,181
1695163638876827100,-8.985439301,-1.331176162,-0.326808542,-0.381041348,-0.296572745,-0.037038282,4,53,23,29,95,6.151901245,-0.623689532,6.198588371,1.976618648,1.743996978,2.862339973,-71,-2,-64,-1,183
1695163638877827100,-8.949525833,-1.323993564,-0.416591108,-0.407021433,-0.281917304,-0.03650536,4,55,23,30,98,6.030993938,-0.763750315,6.308721542,1.896280289,1.771842241,2.756820679,-76,-3,-64,-1,181
1695163638878827100,-8.913613319,-1.315613866,-0.495599747,-0.432468593,-0.264996946,-0.035306279,2,54,23,35,96,5.90529871,-0.900219858,6.42484045,1.822336912,1.795424223,2.651967764,-76,-8,-62,-1,183
1695163638879827100,-8.884882927,-1.310825467,-0.568622887,-0.457382828,-0.246344566,-0.033973966,2,53,23,31,96,5.770026207,-1.035492182,6.551733017,1.752656937,1.815009117,2.548047543,-71,-4,-65,-1,183
1695163638880827100,-8.863334656,-1.310825467,-0.63206923,-0.482163846,-0.22596018,-0.032508422,1,57,25,34,96,5.622782707,-1.176750183,6.660669327,1.688972473,1.829131722,2.445193052,-73,-4,-66,-1,182
1695163638938791800,-9.178172112,-2.488772631,-0.864306808,-0.937415004,0.016787136,0.033441041,1,54,25,30,94,4.644751072,-1.842338204,8.323442459,1.139660001,1.267562032,0.688805521,-76,-4,-66,-36,182
1695163638939791800,-9.190143585,-2.578555346,-0.869095206,-0.94794029,0.012124043,0.032508422,1,49,25,31,93,4.612429619,-1.768117905,8.359354973,1.118076563,1.227725863,0.607534468,-76,-4,-72,-51,180
1695163638940791800,-9.199720383,-2.668337822,-0.881066203,-0.955401242,0.006528331,0.030643184,6,53,25,34,97,4.589684486,-1.675941229,8.358158112,1.098358274,1.190954089,0.529594183,-74,-5,-69,-60,180
1695163638941791800,-9.205705643,-2.764105797,-0.903811157,-0.959664643,-0.000133231,0.027845331,1,52,24,30,96,4.564545631,-1.628057122,8.340201378,1.085035205,1.166439533,0.479232758,-67,-2,-73,-65,182
1695163638942791800,-9.20929718,-2.85867691,-0.926556051,-0.960197508,-0.007860643,0.024248086,4,53,21,35,98,4.459200859,-1.555034041,8.344989777,1.068514585,1.12247324,0.411817759,-75,-3,-71,-66,181
1695163639064707100,-8.823830605,-3.49553442,-1.370680451,-0.512274086,-0.104986221,-0.096459419,0,51,20,30,98,5.731719017,0.469263524,8.07324791,0.2311562,-0.213969365,0.007194487,-76,-4,-71,-43,180
1695163639065707100,-8.802282333,-3.475183725,-1.370680451,-0.495886683,-0.102454826,-0.105785601,1,49,15,31,97,5.760449409,0.502782345,7.972691536,0.238483921,-0.24154824,-0.0042634,-72,-7,-71,-36,180
1695163639066707100,-8.783128738,-3.450044632,-1.358709455,-0.483362943,-0.099257268,-0.116044402,4,51,19,32,97,5.777208805,0.51954174,7.910442352,0.240615621,-0.259401232,-0.015588055,-76,-4,-70,-44,180
1695163639067707100,-8.774748802,-3.424905539,-1.343147159,-0.474702895,-0.096059717,-0.12723583,2,58,21,32,98,5.784391403,0.518344641,7.795520782,0.24154824,-0.284581929,-0.036905054,-76,-3,-67,-38,178
1695163639068707100,-8.767566681,-3.411737442,-1.319205165,-0.470039815,-0.09352833,-0.139093414,5,55,21,31,96,5.777208805,0.513556242,7.667430878,0.24154824,-0.310695261,-0.061819296,-75,-5,-72,-38,178
1695163639100704400,-8.738836288,-3.478775024,-0.618901134,-0.278320044,-0.189987749,-0.180261865,3,53,20,30,97,5.379771233,-0.272938997,5.422866821,-0.699464023,-1.922393441,-0.633914232,-76,-8,-66,-2,171
1695163639101704400,-8.714894295,-3.439270735,-0.605733037,-0.258202136,-0.195317,-0.177996933,8,54,23,30,96,5.3570261,-0.37110126,5.232527733,-0.780868292,-2.047097921,-0.696666181,-76,-5,-65,0,168
1695163639102704400,-8.6957407,-3.393780947,-0.591367841,-0.23941654,-0.199846849,-0.175998464,3,50,15,38,95,5.341464043,-0.459686726,5.038597584,-0.866136253,-2.168604851,-0.766079664,-77,-4,-63,3,168
1695163639103704400,-8.678980827,-3.34350276,-0.579396784,-0.221163854,-0.203444093,-0.173866764,8,53,17,32,97,5.345055103,-0.544680893,4.838681698,-0.953136265,-2.285448551,-0.842021406,-76,-4,-62,9,167
1695163639104704400,-8.66341877,-3.294421434,-0.566228688,-0.204243496,-0.205975503,-0.171735078,5,53,18,31,99,5.374982834,-0.635660529,4.644751072,-1.038803935,-2.394165277,-0.925157726,-79,-7,-61,15,169
1695163639144654900,-8.759186745,-2.709039211,-0.529118598,-0.079139359,-0.148286372,-0.097525269,16,58,26,35,99,8.007407188,-0.934935749,-0.611718535,-3.721681595,-1.846851468,-3.877695084,-70,-4,75,116,284
1695163639145654900,-8.787917137,-2.709039211,-0.530315697,-0.079006128,-0.142690659,-0.093395106,6,55,25,36,110,8.232462883,-0.992396593,-0.945709646,-3.857444286,-1.676315427,-4.095262051,-70,-9,78,111,292
1695163639146654900,-8.814253807,-2.71382761,-0.530315697,-0.079139359,-0.136828482,-0.089131698,6,49,26,38,96,8.458714485,-1.045069098,-1.250970364,-3.975753546,-1.485395074,-4.313361168,-67,-5,84,119,297
1695163639147654900,-8.838195801,-2.722207308,-0.531512797,-0.079139359,-0.130833074,-0.085001536,8,53,27,39,100,8.656236649,-1.109712481,-1.552639842,-4.072612286,-1.277554274,-4.365721226,-62,-7,89,118,301
1695163639148654900,-8.863334656,-2.731784105,-0.529118598,-0.079006128,-0.124571204,-0.080871366,5,53,24,38,98,8.823830605,-1.163581967,-1.839944005,-4.150019646,-1.055324674,-4.365721226,-62,-9,94,122,310
1695163639308783900,-9.187748909,-3.547009706,-0.435744703,0.096459419,0.084335379,0.053692192,6,51,26,40,99,8.371326447,0.699106872,-3.219004154,-2.628918886,4.365588188,-4.365721226,-59,-4,103,117,286
1695163639309783900,-9.196128845,-3.610456228,-0.433350503,0.120707504,0.096992344,0.063684531,5,57,26,34,98,8.276755333,0.925358951,-2.82276392,-2.526064157,4.365588188,-4.365721226,-57,-2,99,114,282
1695163639310783900,-9.20929718,-3.677493811,-0.430956304,0.146421134,0.109782539,0.073943339,9,51,26,38,96,8.221688271,1.113303781,-2.549824715,-2.459848404,4.365588188,-4.365721226,-57,-3,96,116,282
1695163639311783900,-9.223662376,-3.745728493,-0.432153404,0.17346707,0.122439511,0.084335379,16,57,26,34,96,8.155848503,1.495178938,-2.151190281,-2.366186857,4.365588188,-4.365721226,-60,-2,91,114,279
1695163639312783900,-9.235632896,-3.817554712,-0.439336002,0.202378258,0.134963244,0.095260337,8,54,26,36,99,8.06726265,1.966836691,-1.799242616,-2.290910959,4.365588188,-4.365721226,-60,-1,94,113,277
1695163639371750200,-10.10712242,-6.021417141,-0.385466486,0.789128661,0.445658505,0.358791709,0,53,12,24,95,-1.440112352,9.139864922,4.806359768,-2.177398205,4.365588188,-4.365721226,-66,17,96,112,245
1695163639372750200,-10.24838066,-6.163872242,-0.427365005,0.775272548,0.469373643,0.369983137,-1,53,16,25,95,-1.842338204,9.267954826,5.27682066,-2.204977036,4.365588188,-4.365721226,-70,21,95,112,240
1695163639373750200,-10.39322948,-6.299144745,-0.48482585,0.744496226,0.492955565,0.37917611,5,50,15,24,94,-2.238578558,9.363722801,5.752069473,-2.244679928,4.365588188,-4.365721226,-67,19,94,112,240
1695163639374750200,-10.54645824,-6.441599846,-0.566228688,0.696932614,0.518402755,0.38490504,-1,54,16,22,92,-2.612074137,9.417592049,6.227318764,-2.292643309,4.365588188,-4.365721226,-71,17,94,110,236
1695163639375750200,-10.699687,-6.586448669,-0.676361978,0.633647799,0.546248078,0.385304749,3,54,13,20,95,-2.979583979,9.448717117,6.712144375,-2.347934246,4.365588188,-4.365721226,-73,19,94,110,234
1695163639434709500,-12.86165142,-10.86369038,-3.713406801,-0.854678452,0.903840721,-1.470739603,-1,58,4,13,2686,-7.903259754,5.826289654,10.53089619,-2.826234341,3.965894222,-2.870333672,-77,28,89,104,215
1695163639435709500,-13.02685165,-11.35330486,-3.82713151,-0.825101078,0.890650809,-1.624488473,-1,58,10,13,2686,-8.048109055,5.525817394,10.60870743,-2.747494698,3.788696766,-2.739367485,-81,27,89,105,215
1695163639436709500,-13.20761395,-11.83813,-3.898957491,-0.771142364,0.86946708,-1.770376682,-1,63,9,13,2686,-8.173804283,5.239710331,10.68771648,-2.659162283,3.610699892,-2.610000134,-77,27,90,104,215
1695163639437709500,-13.3943615,-12.35168648,-3.957615376,-0.682543635,0.844686031,-1.909736514,-1,64,13,13,2686,-8.288725853,4.961983204,10.77869606,-2.561503649,3.434434891,-2.481964588,-82,29,91,108,215
1695163639438709500,-13.56315231,-12.82693577,-3.981557369,-0.567032158,0.813376725,-2.038571119,-1,71,20,16,2686,-8.383296967,4.697423935,10.8804493,-2.456117868,3.261767149,-2.355927944,-80,29,89,105,215
1695163639466693900,-13.48534107,-15.09663868,-4.553771496,4.365588188,0.6357795,-2.481565237,1,153,154,51,2686,-8.693346024,2.768894196,12.03086376,-1.18375957,1.330180645,-1.000966311,-79,27,92,98,215
1695163639467693900,-13.40872669,-14.81532001,-4.745307922,4.365588188,0.692802429,-2.445326328,2,154,160,48,2686,-8.661025047,2.705447912,12.01410389,-1.171901941,1.301535964,-0.988975525,-81,30,94,95,214
1695163639468693900,-13.33211231,-14.5735054,-4.904522419,4.365588188,0.750225127,-2.41375041,-1,156,168,54,2686,-8.609549522,2.610877037,11.99495029,-1.156047463,1.26010108,-0.972987771,-81,26,94,95,215
1695163639469693900,-13.27465153,-14.33528233,-5.039794445,4.365588188,0.804050565,-2.380575657,-1,160,173,55,2686,-8.562862396,2.518700123,11.97220516,-1.142857671,1.219199181,-0.959264934,-83,28,94,98,215
1695163639470693900,-13.24592113,-14.11501598,-5.191826344,4.365588188,0.852413476,-2.346202135,-1,157,184,60,2686,-8.523358345,2.420537949,11.93988419,-1.131532907,1.178696752,-0.948073506,-82,27,92,94,215
1695163639501670600,-12.40435886,-6.909666061,-6.605602264,4.365588188,-0.075675346,-0.775405824,-1,207,335,138,2686,-7.433996201,1.355118155,10.91396809,-0.786996901,0.418346077,-0.811111748,-85,-9,94,97,216
1695163639502670600,-12.20444298,-6.385335922,-6.525396824,4.365588188,-0.233954057,-0.673350692,-1,211,343,141,2686,-7.465120792,1.428141356,10.84214211,-0.764880538,0.372781008,-0.788728893,-81,-9,94,95,215
1695163639503670600,-11.9662199,-5.845443249,-6.399701118,4.365588188,-0.398627877,-0.576091886,-1,211,347,146,2686,-7.541735172,1.496376038,10.79665279,-0.73863399,0.321353763,-0.765813112,-83,-6,94,95,216
1695163639504670600,-11.70405483,-5.31273365,-6.235698223,4.365588188,-0.565433383,-0.485361397,-1,219,359,157,2686,-7.630321026,1.546654344,10.787076,-0.708923399,0.2648637,-0.742764115,-81,-5,94,95,218
1695163639505670600,-11.42034245,-4.79079771,-6.063315868,4.365588188,-0.732771814,-0.402225107,-1,218,370,163,2686,-7.703343868,1.586158633,10.7822876,-0.678013802,0.20464319,-0.718516052,-81,-4,95,94,217
1695163639644853100,-6.342240334,2.258929253,-1.867477298,4.365588188,-2.954668999,-0.221696794,18,351,650,455,975,-5.380968094,1.555034041,9.161413193,0.035839204,-0.396496177,-0.220231235,-81,-34,97,92,218
1695163639645853100,-6.269217014,2.358288765,-1.689109325,4.365588188,-2.976652384,-0.255271077,18,355,662,478,994,-5.24210453,1.537077546,9.059659004,0.066082694,-0.378243476,-0.200646251,-80,-37,96,91,218
1695163639646853100,-6.181828976,2.401384354,-1.489193439,4.365588188,-2.992640257,-0.285914242,18,362,671,494,1009,-5.15950489,1.520318031,8.981847763,0.085534461,-0.365586549,-0.187722817,-81,-35,99,95,225
1695163639647853100,-6.113594055,2.408566952,-1.278503656,4.365588188,-3.001166821,-0.311894357,25,367,679,512,1017,-5.044582844,1.499967337,8.872911453,0.114045948,-0.346267998,-0.169070452,-79,-41,97,92,222
1695163639648853100,-6.06451273,2.371456861,-1.040280581,4.365588188,-3.003031969,-0.337341517,28,373,695,525,1024,-4.906916618,1.468842745,8.748413086,0.150817752,-0.320287883,-0.145355284,-83,-36,94,93,219
1695163639711794300,-5.118803024,-0.74220252,1.738190413,2.390701294,-1.564934134,-0.140425727,44,389,715,522,1012,-4.710591793,0.900219858,8.198944092,0.630316973,-0.408087283,0.120307811,-81,-31,94,85,218
1695163639712794300,-5.196614742,-0.775721371,1.804031014,2.379110098,-1.503247976,-0.100056656,42,386,713,521,1009,-4.759673119,0.865503907,8.207323074,0.656830013,-0.445392013,0.133231238,-81,-31,87,88,220
1695163639713794300,-5.267243862,-0.790086567,1.8602947,2.369384289,-1.450488567,-0.060620211,46,389,713,518,1007,-4.808753967,0.829590917,8.224082947,0.684275687,-0.485894322,0.146287903,-82,-24,87,86,221
1695163639714794300,-5.323507309,-0.787692368,1.917755604,2.36032486,-1.407321692,-0.023049004,48,389,711,518,1006,-4.855441093,0.793677866,8.238448143,0.7131868,-0.529194474,0.159611031,-82,-22,87,90,218
1695163639715794300,-5.360617638,-0.774524271,1.990778685,2.35139823,-1.372681499,0.011724349,46,385,705,511,1005,-4.904522419,0.754173517,8.24203968,0.743430316,-0.57555896,0.173067391,-78,-20,88,88,217
1695163639750766900,-4.307168961,0.834379315,3.308786631,1.596110225,-1.29487443,-0.096992344,43,384,700,502,968,-5.100846767,0.345962137,7.325059891,1.857509971,-1.788229704,0.573693693,-82,-17,63,85,237
1695163639751766900,-4.262876034,0.900219858,3.414131641,1.517903566,-1.283683062,-0.124970905,45,384,700,499,965,-5.045780182,0.347159237,7.240066051,1.94357729,-1.841921806,0.607267976,-81,-17,64,86,236
1695163639752766900,-4.219780445,0.952892303,3.527856112,1.438497663,-1.272358298,-0.151217461,44,386,698,495,963,-4.979939461,0.350750536,7.153874874,2.032176018,-1.892016768,0.641908109,-77,-18,62,85,241
1695163639753766900,-4.185064793,0.992396593,3.652354717,1.35829246,-1.260234356,-0.175199077,42,386,698,498,963,-4.899733543,0.363918662,7.077260017,2.122640133,-1.938114762,0.676947892,-79,-17,62,89,240
1695163639754766900,-4.153939724,1.009155989,3.778050184,1.27835381,-1.248243451,-0.196649313,43,383,698,498,961,-4.807557106,0.381875157,6.999448776,2.214303255,-1.979283333,0.712787151,-77,-17,59,88,240
1695163639779772500,-2.798821688,1.216254473,5.029020786,0.21863246,-1.053859115,-0.261532933,51,373,679,487,939,-2.797624588,1.391031146,5.493495941,3.464145422,-1.86363852,1.324318528,-76,-18,35,97,232
1695163639780772500,-2.743755102,1.118092179,5.122394562,0.174932614,-1.018419623,-0.247943342,52,367,682,480,941,-2.718616009,1.446097851,5.384559631,3.487460852,-1.838058233,1.346701384,-76,-16,31,98,232
1695163639781772500,-2.710236311,0.980425596,5.209783077,0.136162326,-0.977384388,-0.2311562,55,372,676,480,936,-2.650381327,1.493981838,5.268440723,3.507978678,-1.813410401,1.367218971,-75,-16,32,95,230
1695163639782772500,-2.695871115,0.81642276,5.305551052,0.104053594,-0.931686044,-0.211437985,52,368,676,478,937,-2.608482838,1.522712231,5.184643745,3.521035194,-1.798355341,1.380142331,-76,-16,33,98,232
1695163639783772500,-2.699462414,0.63326633,5.408501625,0.079805516,-0.882923424,-0.189321592,54,363,681,483,933,-2.551021814,1.570596337,5.056553841,3.53662324,-1.777571201,1.398395061,-76,-17,34,98,232
1695163639848663000,-3.725377798,-1.010353088,7.070077419,0.323352218,-0.220364481,0.184791744,50,361,657,461,914,-2.296039343,2.400187254,2.540247917,4.02331686,-1.812211275,1.126603365,-73,-17,37,95,219
1695163639849663000,-3.740940094,-0.956483603,7.120356083,0.304566622,-0.203044415,0.178796321,49,359,655,461,915,-2.286462545,2.463633537,2.512714624,4.04796505,-1.822470069,1.094494581,-74,-13,37,95,221
1695163639850663000,-3.761290789,-0.902614057,7.163451672,0.278852999,-0.186523736,0.169869825,48,365,659,461,917,-2.262520552,2.52827692,2.445677042,4.070747375,-1.839656949,1.036539078,-67,-15,40,93,220
1695163639851663000,-3.780444384,-0.85353291,7.201758862,0.246611029,-0.170535982,0.158012256,44,361,657,461,914,-2.244564056,2.547430515,2.373851061,4.091398239,-1.860041261,0.972854555,-71,-14,39,94,219
1695163639852663000,-3.800795317,-0.811634362,7.238868713,0.208773345,-0.155880541,0.143756509,48,361,652,462,915,-2.214636564,2.580949545,2.345120668,4.113514423,-1.879759669,0.906905055,-70,-14,37,93,219
1695163639939861600,-3.731363297,-1.061828494,7.633912086,-0.458715141,-0.053692192,-0.07274425,44,354,647,458,905,-3.23336935,5.240907669,0.883460402,3.96669364,-2.52593112,-0.968191385,-71,-12,19,70,214
1695163639940861600,-3.691859007,-1.025915384,7.618350029,-0.471905053,-0.043033689,-0.072344564,46,357,644,459,904,-3.283647537,5.406107426,0.802057564,3.909004688,-2.585885286,-1.10635221,-67,-15,17,70,214
1695163639941861600,-3.659537315,-0.978031397,7.586028099,-0.48562786,-0.030509954,-0.070612557,50,354,646,458,904,-3.323152065,5.559336185,0.731428623,3.849583387,-2.647304535,-1.243980169,-66,-13,15,69,213
1695163639942861600,-3.632004023,-0.922964752,7.54891777,-0.499750376,-0.01718683,-0.068081163,46,354,646,460,900,-3.350685358,5.714959621,0.691924274,3.785099506,-2.704327583,-1.380808592,-71,-13,14,64,215
1695163639943861600,-3.60207653,-0.863109708,7.502231121,-0.514805496,-0.002931087,-0.065016843,48,352,647,459,901,-3.360262156,5.883750439,0.651222885,3.711822271,-2.751758099,-1.518303156,-69,-11,11,66,206
1695163639997828600,-3.377021551,0.258573771,6.029797077,-1.103421092,0.399427265,-0.009326187,47,352,651,460,895,-3.547009706,8.076839447,1.210268974,1.60703516,-2.609333754,-3.715552807,-64,-9,-9,47,206
1695163639998828600,-3.409343243,0.287304193,5.94719696,-1.144456267,0.42540735,-0.006528331,48,357,652,460,894,-3.701435804,8.307879448,1.246181965,1.459548235,-2.544983149,-3.821738243,-66,-17,-9,46,205
1695163639999828600,-3.447650433,0.318428814,5.876567841,-1.185891271,0.452186853,-0.003464012,45,356,657,461,895,-3.878606796,8.55448246,1.292868972,1.304866791,-2.474503756,-3.927257299,-62,-11,-13,45,208
1695163640000828600,-3.491943121,0.344765037,5.810727596,-1.227725863,0.479632467,-0.000532925,49,355,657,458,893,-4.068945885,8.805873871,1.335964561,1.149119377,-2.400160789,-4.032909393,-63,-12,-14,45,208
1695163640001828600,-3.551798105,0.357933164,5.754463673,-1.269960165,0.507744253,0.002398162,50,361,655,459,893,-4.262876034,9.058462143,1.383848548,0.991640151,-2.324085712,-4.139361382,-67,-8,-16,44,205
1695163640060792300,-4.663905144,0.375889659,4.94402647,-1.891750336,0.655897439,0.088732004,40,357,651,455,887,-6.144718647,11.24077702,2.297236443,-1.976085782,-0.297505349,-4.365721226,-67,-7,-32,29,202
1695163640061792300,-4.647145271,0.428562105,4.892550945,-1.93851459,0.649235845,0.090730481,42,359,646,454,884,-6.147112846,11.03966427,2.293645144,-2.057623148,-0.180528328,-4.365721226,-64,-8,-29,28,203
1695163640062792300,-4.627991676,0.480037451,4.839878559,-1.990607977,0.64257431,0.092196018,43,354,647,451,885,-6.144718647,10.80742645,2.290053844,-2.12703681,-0.066349156,-4.365721226,-67,-7,-33,28,202
1695163640063792300,-4.600458622,0.529118598,4.786009312,-2.047897339,0.636312425,0.092995405,41,359,648,451,887,-6.141127586,10.63863564,2.272097349,-2.165807009,0.007860643,-4.365721226,-69,-7,-29,27,200
1695163640064792300,-4.56933403,0.571017087,4.728548527,-2.110116482,0.629917264,0.093128636,37,357,648,452,886,-6.13274765,10.36330223,2.244564056,-2.21270442,0.115378261,-4.365721226,-66,-8,-33,28,202
1695163640119758100,-4.778826714,0.070628949,2.986766577,-3.995071888,-0.381973952,-0.396496177,31,335,563,395,827,-7.959523678,4.441244125,2.251746655,-0.644705951,1.228258848,-3.1144135,-65,-11,-31,29,199
1695163640120758100,-4.729745388,0.003591303,2.904166698,-4.11537981,-0.471505344,-0.423542112,32,337,554,393,819,-8.173804283,4.326322556,2.300827742,-0.487626314,1.25903523,-3.01728797,-61,-8,-32,29,199
1695163640121758100,-4.679467201,-0.070628949,2.834734917,-4.233156204,-0.558505356,-0.445525289,32,334,547,387,810,-8.38928318,4.242525578,2.351106167,-0.330679953,1.290611029,-2.926557302,-63,-7,-31,30,200
1695163640122758100,-4.630385876,-0.156820208,2.777273893,-4.34840107,-0.640042901,-0.460980088,31,326,539,380,803,-8.620323181,4.193444252,2.404975653,-0.175199077,1.323119402,-2.843287945,-65,-12,-33,29,194
1695163640123758100,-4.587290287,-0.252588272,2.728192806,-4.365721226,-0.716384411,-0.468574256,31,325,537,378,796,-8.857349396,4.168305397,2.458845139,-0.021983154,1.356826901,-2.768145561,-70,-7,-29,31,197
1695163640189718000,-4.742913723,-3.910928488,2.479195833,-4.365721226,-0.811378241,0.874796331,32,242,293,222,2686,-13.45062542,4.637568474,2.646790028,2.077341557,2.232955694,-2.699531317,-60,-8,-25,31,198
1695163640190718000,-4.824316502,-4.137180328,2.41335535,-4.365721226,-0.744496226,1.000300169,32,238,282,211,497,-13.73074722,4.741716385,2.634819031,2.141692162,2.267729044,-2.742964745,-59,-6,-19,30,198
1695163640191718000,-4.90811348,-4.375403404,2.335543871,-4.365721226,-0.670819342,1.130200505,33,237,268,205,2686,-14.00488281,4.863820553,2.647987127,2.198315382,2.299038172,-2.791460991,-60,-9,-24,30,196
1695163640192718000,-5.000290394,-4.600458622,2.248155355,-4.365721226,-0.589947879,1.263032079,33,224,255,196,2686,-14.27063942,4.981136799,2.659958124,2.24707818,2.329015255,-2.844486952,-60,-9,-23,28,194
1695163640193718000,-5.105635166,-4.83509016,2.139219284,-4.365721226,-0.504013777,1.395064354,30,217,240,185,2686,-14.53400135,5.111620426,2.663549423,2.291710615,2.354995489,-2.898712158,-59,-5,-23,29,197
1695163640265673400,-7.588422298,-7.293935299,1.9333179,-4.365721226,1.155781031,4.069281578,5,85,65,77,206,-16.30930138,8.435969353,2.56658411,1.484728932,2.035906553,-3.918197632,-62,-6,-20,29,199
1695163640266673400,-7.686584473,-7.246051311,1.96923089,-4.365721226,1.265430331,4.186791897,4,80,59,75,196,-16.15846634,8.461109161,2.483984232,1.379209876,1.983946323,-3.920995474,-61,-9,-21,24,197
1695163640267673400,-7.795520782,-7.186196327,1.916558504,-4.365721226,1.379209876,4.296174526,4,78,58,68,191,-15.99326706,8.458714485,2.37744236,1.275689125,1.928522229,-3.912601709,-61,-13,-23,27,197
1695163640268673400,-7.930793285,-7.092822552,1.798045516,-4.365721226,1.486194491,4.365588188,8,71,47,62,183,-15.80771637,8.458714485,2.274491549,1.175765634,1.870300174,-3.892084122,-61,-8,-23,26,198
1695163640269673400,-8.095993042,-6.98508358,1.650802016,-4.365721226,1.579722881,4.365588188,4,68,43,63,181,-15.60540676,8.446743965,2.172738075,1.078240395,1.809147,-3.862640142,-61,-8,-23,26,197
1695163640350835600,-11.76989555,-5.303156853,-0.775721371,-4.365721226,1.919462442,4.365588188,-4,49,-9,27,2686,-11.21922874,5.930437565,1.231816769,0.197715163,0.620857537,-1.400393605,-61,-5,-16,29,194
1695163640351835600,-11.91713905,-5.258863926,-0.857124209,-4.365721226,1.88442266,4.365588188,-1,53,-11,28,2686,-11.10430717,5.71974802,1.193509579,0.199980095,0.563967824,-1.210805535,-60,-9,-15,28,194
1695163640352835600,-12.06438255,-5.243301868,-0.942118347,-4.365721226,1.846318603,4.365588188,-2,49,-12,26,2686,-11.03607273,5.585672379,1.167173386,0.20570904,0.525330782,-1.084369063,-62,-7,-16,30,194
1695163640353835600,-12.20324612,-5.248090267,-1.025915384,-4.365721226,1.804750323,4.312162399,-1,47,-15,23,2686,-10.94389629,5.394136429,1.136048675,0.219298616,0.467241943,-0.895580411,-61,-5,-15,29,196
1695163640354835600,-12.33612442,-5.252878666,-1.102529883,-4.365721226,1.759185314,4.248077869,-2,46,-14,27,2686,-10.8756609,5.240907669,1.109712481,0.236885145,0.406754971,-0.709989309,-61,-9,-14,30,196
1695163640393236100,-14.6417408,-6.215347767,-1.462857246,-3.60257268,0.381574243,3.046598673,-2,49,-19,20,2686,-9.816226959,3.989937067,1.159990668,0.982180715,-0.422742724,1.565333724,-59,-7,-3,37,192
1695163640394236100,-14.75426769,-6.278793812,-1.45088625,-3.367686033,0.254604906,2.985978603,-7,46,-20,22,2686,-9.773131371,3.974374771,1.15520227,1.003897429,-0.437264919,1.603571177,-59,-5,-3,41,196
1695163640395236100,-14.83686829,-6.327875137,-1.438915253,-3.183959961,0.158545166,2.943744183,-4,46,-21,14,890,-9.730035782,3.962403774,1.145625472,1.023615599,-0.449255735,1.634613991,-59,-12,-2,38,193
1695163640396236100,-14.91348267,-6.372167587,-1.426944256,-2.994505405,0.062085759,2.904707432,-8,48,-22,19,127,-9.689333916,3.951629877,1.142034173,1.042534471,-0.458448708,1.658728957,-60,-9,-2,38,192
1695163640397236100,-14.98052025,-6.409277916,-1.426944256,-2.800121069,-0.03437366,2.868335247,-6,48,-17,22,115,-9.639056206,3.94085598,1.131260276,1.060920358,-0.465110272,1.676315427,-60,-11,-2,39,192
1695163640469853800,-14.65849972,-6.287173748,-1.831564307,0.764480829,-1.354428768,2.657963037,-4,42,-8,22,2686,-8.936357498,4.165910721,1.035492182,1.152849913,-0.349732012,1.121940255,-58,-8,-2,41,189
1695163640470853800,-14.53400135,-6.236895561,-1.848323703,0.909569621,-1.37801075,2.657030821,-6,48,-7,20,2686,-8.912415504,4.176684856,1.019929886,1.138194442,-0.343603373,1.075309396,-57,-8,-2,45,189
1695163640471853800,-14.39992619,-6.179434776,-1.856703401,1.046931148,-1.394797802,2.655031919,-6,45,-7,20,2686,-8.884882927,4.185064793,1.00556469,1.121007562,-0.338540584,1.0300107,-59,-9,-1,42,194
1695163640472853800,-14.25507736,-6.121973515,-1.8590976,1.176298618,-1.405323029,2.651568174,-4,45,-8,26,2686,-8.858546257,4.20062685,0.998382092,1.101822376,-0.334277183,0.986177683,-59,-11,-2,40,189
1695163640473853800,-14.10424232,-6.051344872,-1.854309201,1.297938704,-1.409719825,2.646105766,-4,43,-7,23,147,-8.833407402,4.212597847,0.992396593,1.080372095,-0.330280244,0.944476247,-60,-8,-2,38,190
1695163640522202000,-11.08754826,-3.706224203,-1.224634171,2.103987694,-0.457116395,1.866436481,-1,43,5,29,113,-8.595184326,4.05577755,0.726640224,0.528794825,-0.356526792,0.61606127,-51,-8,-2,40,190
1695163640523202000,-10.95945835,-3.53384161,-1.175553083,2.068281651,-0.377710581,1.782234311,-2,50,7,30,111,-8.607154846,4.027047157,0.699106872,0.510542154,-0.363987744,0.617926478,-60,-10,-3,40,192
1695163640524202000,-10.84333992,-3.360262156,-1.125274777,2.025514603,-0.298970878,1.693902016,-1,53,8,29,111,-8.61912632,4.000710964,0.673967779,0.494687587,-0.371581942,0.621124089,-60,-13,-3,37,188
1695163640525202000,-10.73679733,-3.191470861,-1.085770488,1.975952506,-0.221163854,1.60237205,-2,46,8,28,110,-8.633491516,3.973177671,0.648828685,0.481231242,-0.379575789,0.624987781,-60,-11,-2,38,186
1695163640526202000,-10.6398325,-3.025073767,-1.051054597,1.919995427,-0.14495559,1.507644653,-2,49,9,30,115,-8.649053574,3.944447279,0.621295333,0.470173031,-0.388102591,0.629917264,-59,-12,-2,40,192
1695163640644861900,-9.732429504,-1.236605167,-0.871489406,0.100589581,0.716650844,-0.300436467,-4,48,13,29,110,-8.858546257,3.752911091,0.395043284,0.515471697,-0.452453285,0.794990778,-62,-12,-4,40,190
1695163640645861900,-9.707290649,-1.217451572,-0.875080705,-0.005728943,0.724911153,-0.379575789,-1,51,11,29,110,-8.866926193,3.763684988,0.403422982,0.516670763,-0.445658505,0.804050565,-51,-8,-2,40,189
1695163640646861900,-9.684545517,-1.200692177,-0.879869103,-0.111514546,0.729574263,-0.455650836,-2,49,9,25,112,-8.871714592,3.776853085,0.41060558,0.516404271,-0.437797844,0.812710524,-60,-8,-2,40,188
1695163640647861900,-9.662998199,-1.192312479,-0.894234359,-0.215301678,0.73077333,-0.528928041,-3,46,12,29,110,-8.878896713,3.785232782,0.414196908,0.514405787,-0.42900458,0.821370602,-60,-9,-2,37,188
1695163640648861900,-9.637859344,-1.194706678,-0.903811157,-0.316157728,0.728641689,-0.598607957,-1,51,15,25,113,-8.882488251,3.797203779,0.416591108,0.510941803,-0.419278711,0.829897404,-57,-9,-2,36,188
1695163640721193300,-9.385271072,-1.793257117,-1.180341482,-1.483529806,0.293908119,-1.25796926,-1,51,20,31,112,-9.057265282,3.854664803,0.573411286,0.179196015,-0.175465539,0.914499223,-59,-9,-2,37,188
1695163640722193300,-9.379284859,-1.845929503,-1.18752408,-1.502715111,0.258468598,-1.258502364,-1,49,20,34,112,-9.065644264,3.839102507,0.586579442,0.154548228,-0.163474724,0.91463244,-57,-11,-2,34,202
1695163640723193300,-9.366117477,-1.904587507,-1.195903778,-1.517237306,0.223162323,-1.255837679,0,53,23,29,112,-9.072827339,3.82473731,0.599747539,0.130033687,-0.151617154,0.914099514,-56,-7,-2,40,189
1695163640724193300,-9.36252594,-1.962048292,-1.200692177,-1.526963234,0.188255742,-1.249975562,2,51,20,32,115,-9.075222015,3.805583715,0.605733037,0.105785601,-0.140159264,0.913433373,-59,-9,0,38,190
1695163640725193300,-9.355342865,-2.020706177,-1.213860273,-1.531493068,0.153615624,-1.241049051,0,50,19,35,112,-9.081207275,3.785232782,0.617704034,0.081803977,-0.129234299,0.912500799,-60,-11,-1,36,189
1695163640795159600,-9.283516884,-2.772485495,-1.368286252,-0.922359884,-0.38490504,-0.694534421,0,51,25,35,112,-8.999804497,3.314772367,0.737414122,-0.227159262,-0.011058193,0.866669238,-58,-8,-2,37,188
1695163640796159600,-9.267954826,-2.772485495,-1.37427175,-0.87159878,-0.401425719,-0.661626339,-1,57,26,35,114,-8.990227699,3.287238836,0.745793819,-0.234353751,-0.008793262,0.863205194,-51,-9,-2,40,188
1695163640797159600,-9.248801231,-2.768894196,-1.382651448,-0.821104169,-0.415415019,-0.629784048,2,57,26,35,112,-8.978256226,3.260902643,0.751779318,-0.240748852,-0.006794794,0.859474719,-57,-9,-1,40,189
1695163640798159600,-9.230844498,-2.756923199,-1.394622445,-0.771675348,-0.428071976,-0.599274099,-1,50,25,32,111,-8.966285706,3.236960649,0.758961916,-0.246611029,-0.005062787,0.855611026,-59,-8,-2,40,188
1695163640799159600,-9.214085579,-2.740163803,-1.397016644,-0.722912669,-0.438996941,-0.570496202,3,50,26,31,111,-8.959102631,3.211821556,0.763750315,-0.251673818,-0.003730475,0.851614058,-55,-12,-2,40,189
1695163640867110700,-9.114726067,-2.189497471,-1.499967337,-0.213969365,-0.32361868,-0.397295564,-1,52,26,34,110,-8.6957407,2.809595585,0.82001406,-0.207707509,0.004396631,0.707724333,-55,-3,-1,40,192
1695163640868110700,-9.120711327,-2.15597868,-1.499967337,-0.210905045,-0.304566622,-0.407954067,-1,54,26,35,113,-8.680178642,2.795230389,0.824802458,-0.199180692,0.003863706,0.696399689,-55,-9,-1,40,188
1695163640869110700,-9.127894402,-2.123656988,-1.502361536,-0.209705979,-0.284581929,-0.420611024,0,53,26,32,114,-8.667010307,2.778470993,0.823605359,-0.190254211,0.003064318,0.684675336,-57,-8,1,43,192
1695163640870110700,-9.136273384,-2.093729496,-1.504755735,-0.210105672,-0.263931066,-0.434600294,-1,51,26,31,110,-8.649053574,2.765302896,0.823605359,-0.180928022,0.002398162,0.672551274,-56,-9,1,42,192
1695163640871110700,-9.143456459,-2.070984364,-1.501164436,-0.21197091,-0.242347628,-0.450321585,2,53,29,32,112,-8.633491516,2.755726099,0.824802458,-0.171202138,0.001865237,0.660294056,-55,-8,-1,44,188
1695163640939074100,-9.449913979,-1.927332401,-1.33955586,-0.289911181,0.207574263,-0.82896477,2,53,26,38,110,-8.420407295,2.709039211,0.89303726,-0.002531394,0.000799387,0.371848404,-59,-9,0,40,188
1695163640940074100,-9.467870712,-1.938106298,-1.326387763,-0.283649325,0.226892799,-0.844952524,2,53,31,34,112,-8.416815758,2.716221809,0.900219858,0.002797856,0.001732006,0.353196025,-60,-15,-2,40,187
1695163640941074100,-9.487024307,-1.947683096,-1.310825467,-0.275522202,0.245278716,-0.859874368,-1,57,27,34,110,-8.412027359,2.724601507,0.903811157,0.007727412,0.002664625,0.334543616,-59,-9,-1,41,190
1695163640942074100,-9.502586365,-1.956062794,-1.296460271,-0.265130162,0.262731999,-0.87413013,-1,53,26,38,110,-8.409633636,2.735375404,0.908599555,0.012124043,0.003464012,0.315624803,-57,-5,3,38,190
1695163640943074100,-9.522936821,-1.964442492,-1.283292055,-0.25300613,0.279252678,-0.887453258,-1,57,26,35,113,-8.409633636,2.746149302,0.915782154,0.01612098,0.004529862,0.29603982,-59,-7,-2,41,189
1695163641015031100,-9.61870575,-1.89620769,-1.016338587,0.229424208,0.420344561,-1.016154647,0,57,26,36,111,-8.358158112,2.958036184,0.925358951,0.023448698,0.015588055,-0.086866774,-59,-7,-2,40,186
1695163641016031100,-9.610325813,-1.873462796,-1.001973391,0.260866761,0.421943337,-1.016954064,-1,51,28,39,112,-8.358158112,2.970007181,0.926556051,0.022249617,0.01612098,-0.105918832,-56,-8,-1,44,190
1695163641017031100,-9.599552155,-1.853112102,-0.982819796,0.291909665,0.423142403,-1.016954064,-1,54,26,32,110,-8.361749649,2.980781078,0.920570552,0.020917306,0.017053599,-0.124437973,-58,-7,1,38,192
1695163641018031100,-9.589975357,-1.832761407,-0.9672575,0.322019905,0.4243415,-1.016554356,0,52,28,32,111,-8.365341187,2.989160776,0.920570552,0.019984685,0.017719755,-0.136695251,-57,-8,-2,38,187
1695163641019031100,-9.576807022,-1.811213613,-0.951695204,0.351464033,0.425140887,-1.015888214,1,54,31,33,110,-8.376114845,3.001131773,0.920570552,0.018918836,0.018918836,-0.154548228,-57,-8,-2,40,189
1695163641084985000,-9.281123161,-1.259350061,-0.729034424,0.635912716,0.422742724,-0.918096483,1,53,29,39,112,-8.655038834,3.251325846,0.882263303,0.027845331,0.026646247,-0.411018372,-60,-9,-3,40,187
1695163641085985000,-9.266757965,-1.236605167,-0.720654726,0.636712074,0.421410412,-0.908370614,-1,51,31,34,112,-8.667010307,3.264493942,0.878672004,0.030243492,0.024781011,-0.420078099,-55,-8,0,41,190
1695163641086985000,-9.251194954,-1.215057373,-0.707486629,0.635912716,0.419944882,-0.898111761,-1,53,29,35,111,-8.680178642,3.277662039,0.872686505,0.033041347,0.022782542,-0.428738147,-55,-5,-1,41,190
1695163641087985000,-9.236829758,-1.197100878,-0.701501071,0.634047449,0.418745786,-0.88771975,-1,57,30,38,207,-8.688557625,3.287238836,0.867898107,0.036238898,0.020784073,-0.436998457,-59,-9,0,42,188
1695163641088985000,-9.223662376,-1.179144382,-0.694318473,0.631249607,0.417280257,-0.876528323,-1,54,30,36,127,-8.705317497,3.298012733,0.85592711,0.040768761,0.018119449,-0.447390497,-58,-8,1,41,192
