timestamp,EMG_s0,EMG_s1,EMG_s2,EMG_s3,EMG_s4,EMG_s5,EMG_s6,EMG_s7
1.6951624133894735e+18,1.0,-1.0,0.0,-2.0,-1.0,-1.0,-1.0,-1.0
1.6951624133904476e+18,0.0,-1.0,-2.0,1.0,1.0,-1.0,1.0,-2.0
1.6951624133904476e+18,-1.0,-2.0,-2.0,-1.0,-2.0,-1.0,-1.0,-1.0
1.6951624133904476e+18,-1.0,-1.0,-2.0,1.0,0.0,-2.0,0.0,-1.0
1.6951624133924467e+18,0.0,0.0,0.0,0.0,-2.0,0.0,0.0,-1.0
1.6951624133924467e+18,-1.0,-2.0,-3.0,-2.0,-3.0,0.0,0.0,0.0
1.6951624133934482e+18,-2.0,0.0,0.0,-1.0,1.0,0.0,1.0,-1.0
1.6951624133934482e+18,-1.0,1.0,0.0,1.0,0.0,-1.0,0.0,-2.0
1.695162413399446e+18,-3.0,-1.0,-2.0,0.0,1.0,0.0,-1.0,-2.0
1.695162413399446e+18,0.0,-2.0,0.0,2.0,-1.0,-3.0,-1.0,0.0
1.6951624134064404e+18,-1.0,-2.0,-2.0,-1.0,-1.0,1.0,1.0,1.0
1.6951624134064404e+18,-1.0,-2.0,-1.0,-1.0,0.0,2.0,1.0,2.0
1.695162413431427e+18,-1.0,1.0,1.0,-1.0,0.0,0.0,2.0,0.0
1.695162413431427e+18,1.0,4.0,3.0,1.0,2.0,2.0,0.0,0.0
1.6951624134334241e+18,1.0,0.0,2.0,-1.0,1.0,-2.0,-2.0,1.0
1.6951624134334241e+18,0.0,0.0,0.0,-2.0,0.0,0.0,-1.0,0.0
1.6951624134354455e+18,-1.0,-1.0,-1.0,-1.0,-1.0,0.0,0.0,1.0
1.6951624134364234e+18,-1.0,-1.0,0.0,-1.0,0.0,-1.0,0.0,0.0
1.6951624134604093e+18,0.0,1.0,0.0,-2.0,-1.0,0.0,1.0,0.0
1.6951624134654044e+18,0.0,1.0,0.0,0.0,-2.0,-1.0,-2.0,-2.0
1.6951624134654044e+18,1.0,1.0,1.0,-2.0,0.0,-1.0,0.0,0.0
1.6951624134654044e+18,-1.0,-1.0,0.0,-2.0,-2.0,0.0,-2.0,0.0
1.6951624134823944e+18,-1.0,-1.0,0.0,1.0,1.0,-1.0,1.0,-1.0
1.6951624134823944e+18,0.0,-1.0,-1.0,-2.0,1.0,0.0,-1.0,-1.0
1.6951624134833943e+18,0.0,0.0,-1.0,-1.0,-1.0,0.0,-1.0,0.0
1.695162413484395e+18,0.0,0.0,0.0,-2.0,0.0,-1.0,0.0,-1.0
1.6951624135024018e+18,0.0,-1.0,0.0,0.0,0.0,0.0,-2.0,0.0
1.6951624135024018e+18,-1.0,-1.0,-1.0,1.0,-3.0,-3.0,-1.0,-2.0
1.6951624135024018e+18,-1.0,0.0,-1.0,1.0,-2.0,-2.0,-1.0,0.0
1.6951624135024018e+18,-1.0,0.0,-1.0,-2.0,-1.0,0.0,-1.0,0.0
1.695162413519397e+18,-1.0,-1.0,-1.0,-1.0,-1.0,1.0,1.0,0.0
1.695162413520375e+18,-1.0,0.0,0.0,-1.0,1.0,-2.0,-1.0,-1.0
1.695162413521376e+18,0.0,1.0,0.0,-2.0,-1.0,1.0,0.0,-2.0
1.695162413521376e+18,0.0,0.0,-2.0,-1.0,0.0,-1.0,-1.0,0.0
1.695162413542361e+18,-1.0,-1.0,-2.0,0.0,0.0,0.0,-2.0,0.0
1.695162413542361e+18,0.0,0.0,-2.0,-1.0,-1.0,-1.0,0.0,1.0
1.6951624135763418e+18,-2.0,-2.0,-1.0,0.0,-1.0,0.0,0.0,-2.0
1.6951624135763418e+18,-1.0,-1.0,-1.0,0.0,-1.0,0.0,-1.0,0.0
1.6951624135793398e+18,-1.0,-1.0,0.0,0.0,1.0,1.0,0.0,-1.0
1.695162413580342e+18,0.0,1.0,-2.0,0.0,0.0,0.0,0.0,0.0
1.695162413580342e+18,-2.0,-3.0,-1.0,-1.0,-1.0,-1.0,0.0,0.0
1.695162413580342e+18,0.0,-2.0,2.0,-1.0,0.0,-1.0,0.0,0.0
1.6951624135813417e+18,-2.0,-2.0,0.0,-2.0,0.0,-2.0,-1.0,1.0
1.6951624135813417e+18,-1.0,-4.0,0.0,-1.0,-1.0,1.0,1.0,1.0
1.6951624135943324e+18,0.0,0.0,-2.0,0.0,3.0,2.0,1.0,1.0
1.6951624135953324e+18,-1.0,1.0,1.0,-1.0,1.0,2.0,0.0,-1.0
1.69516241359633e+18,3.0,0.0,1.0,0.0,1.0,0.0,1.0,0.0
1.69516241359633e+18,1.0,1.0,1.0,-1.0,-2.0,-1.0,0.0,-1.0
1.695162413600327e+18,-1.0,1.0,0.0,0.0,-1.0,-1.0,-1.0,0.0
1.695162413601328e+18,0.0,-1.0,-1.0,-1.0,-1.0,1.0,0.0,-1.0
1.6951624136163195e+18,-2.0,0.0,1.0,-1.0,0.0,1.0,0.0,1.0
1.6951624136183176e+18,0.0,-1.0,1.0,0.0,-1.0,0.0,-1.0,-2.0
1.6951624136313124e+18,-1.0,1.0,1.0,0.0,0.0,-1.0,0.0,-1.0
1.6951624136313124e+18,-1.0,-1.0,-2.0,-2.0,-2.0,-3.0,-1.0,0.0
1.6951624136572954e+18,-1.0,1.0,-1.0,-1.0,-2.0,0.0,-1.0,-2.0
1.6951624136572954e+18,-1.0,0.0,0.0,-2.0,2.0,0.0,1.0,-1.0
1.6951624136572954e+18,0.0,-1.0,2.0,0.0,2.0,2.0,1.0,1.0
1.6951624136572954e+18,0.0,0.0,-1.0,-3.0,-1.0,-2.0,0.0,-1.0
1.6951624136632916e+18,0.0,-1.0,-2.0,-1.0,-1.0,0.0,-2.0,0.0
1.6951624136632916e+18,-1.0,-1.0,0.0,2.0,0.0,0.0,-2.0,-1.0
1.6951624136642913e+18,1.0,-2.0,-8.0,-7.0,-6.0,-3.0,-1.0,-2.0
1.6951624136642913e+18,0.0,0.0,7.0,-2.0,0.0,0.0,0.0,0.0
1.6951624136842798e+18,-2.0,0.0,-1.0,5.0,-8.0,-4.0,1.0,-1.0
1.6951624136842798e+18,-3.0,-2.0,0.0,-14.0,-9.0,-7.0,-2.0,0.0
1.6951624136842798e+18,0.0,-1.0,-5.0,5.0,4.0,4.0,1.0,2.0
1.6951624136842798e+18,0.0,2.0,7.0,4.0,13.0,2.0,-2.0,-1.0
1.6951624136992712e+18,-1.0,1.0,1.0,3.0,-4.0,-1.0,-1.0,1.0
1.6951624136992712e+18,-2.0,-5.0,-5.0,-2.0,3.0,1.0,1.0,-1.0
1.695162413706267e+18,-2.0,1.0,8.0,-8.0,-8.0,-4.0,-1.0,-1.0
1.695162413706267e+18,-1.0,-1.0,-6.0,3.0,-5.0,-1.0,0.0,1.0
1.6951624137212608e+18,2.0,1.0,3.0,1.0,3.0,-1.0,-1.0,0.0
1.6951624137212608e+18,-1.0,0.0,-5.0,2.0,0.0,-1.0,-1.0,0.0
1.6951624137222666e+18,1.0,-2.0,-2.0,-5.0,-1.0,0.0,0.0,0.0
1.6951624137222666e+18,-1.0,0.0,-1.0,-7.0,-5.0,-1.0,-1.0,-1.0
1.6951624137442455e+18,0.0,0.0,-3.0,-5.0,0.0,-2.0,-1.0,-3.0
1.6951624137442455e+18,-1.0,-1.0,2.0,2.0,-2.0,0.0,-2.0,-2.0
1.6951624137442455e+18,-2.0,0.0,1.0,3.0,3.0,-1.0,0.0,-1.0
1.6951624137442455e+18,0.0,-2.0,-2.0,2.0,-3.0,-2.0,-2.0,-3.0
1.6951624137582387e+18,-1.0,-2.0,-3.0,0.0,1.0,1.0,-1.0,1.0
1.6951624137582387e+18,-1.0,0.0,0.0,1.0,-4.0,-1.0,2.0,1.0
1.695162413766244e+18,-1.0,2.0,5.0,7.0,2.0,1.0,0.0,2.0
1.695162413766244e+18,-1.0,0.0,-5.0,1.0,-6.0,-1.0,1.0,0.0
1.6951624137812244e+18,0.0,-1.0,-1.0,-14.0,-3.0,-3.0,-1.0,-2.0
1.6951624137812244e+18,0.0,-1.0,1.0,1.0,3.0,3.0,-1.0,-1.0
1.6951624137822262e+18,-2.0,0.0,-2.0,-9.0,-18.0,-9.0,-2.0,-2.0
1.6951624137822262e+18,0.0,-2.0,-2.0,30.0,41.0,11.0,2.0,3.0
1.6951624138042115e+18,-2.0,-1.0,-4.0,11.0,-2.0,0.0,-1.0,-1.0
1.6951624138042115e+18,1.0,2.0,9.0,-3.0,1.0,-1.0,0.0,0.0
1.69516241381123e+18,-1.0,0.0,7.0,0.0,-1.0,0.0,-3.0,-3.0
1.69516241381123e+18,-2.0,-4.0,-12.0,-9.0,-4.0,0.0,-1.0,-2.0
1.695162413820204e+18,0.0,0.0,-1.0,1.0,-7.0,-12.0,-3.0,-5.0
1.695162413820204e+18,-2.0,-5.0,-9.0,3.0,8.0,7.0,-3.0,-2.0
1.6951624138261983e+18,1.0,2.0,-6.0,4.0,9.0,3.0,-1.0,-1.0
1.6951624138261983e+18,-2.0,-3.0,5.0,-6.0,-4.0,1.0,0.0,-2.0
1.695162413841191e+18,-2.0,-2.0,4.0,7.0,5.0,2.0,0.0,0.0
1.695162413841191e+18,-2.0,0.0,-3.0,-18.0,-17.0,-13.0,-3.0,-3.0
1.6951624138421914e+18,-2.0,-4.0,-5.0,1.0,7.0,-3.0,-3.0,0.0
1.6951624138421914e+18,-3.0,-2.0,-3.0,8.0,-16.0,0.0,1.0,-1.0
1.6951624138641784e+18,-1.0,0.0,-1.0,-9.0,-5.0,1.0,-3.0,-4.0
1.6951624138641784e+18,0.0,0.0,-2.0,-6.0,-8.0,-1.0,0.0,-1.0
1.6951624138641784e+18,-2.0,-4.0,-2.0,10.0,11.0,3.0,3.0,-1.0
1.6951624138651763e+18,0.0,0.0,-3.0,-11.0,-6.0,-3.0,-2.0,0.0
1.6951624138781686e+18,-2.0,-4.0,-2.0,-3.0,-14.0,-6.0,-3.0,-3.0
1.6951624138781686e+18,-3.0,-4.0,-5.0,13.0,16.0,4.0,0.0,-3.0
1.695162413886164e+18,-1.0,-1.0,1.0,4.0,10.0,6.0,1.0,0.0
1.695162413886164e+18,0.0,-1.0,1.0,-4.0,-11.0,-3.0,-3.0,-2.0
1.6951624139111741e+18,0.0,-2.0,-8.0,-11.0,1.0,2.0,-1.0,-1.0
1.6951624139121728e+18,0.0,3.0,8.0,1.0,-10.0,-6.0,-2.0,0.0
1.6951624139121728e+18,-1.0,-2.0,0.0,-4.0,-6.0,-4.0,-3.0,-3.0
1.6951624139121728e+18,1.0,2.0,1.0,-5.0,1.0,-3.0,-4.0,-2.0
1.695162413924142e+18,-2.0,0.0,-1.0,1.0,3.0,1.0,0.0,-1.0
1.695162413924142e+18,-1.0,0.0,0.0,14.0,1.0,0.0,3.0,-1.0
1.695162413924142e+18,-1.0,-2.0,-4.0,-13.0,-4.0,-4.0,-2.0,-2.0
1.6951624139251428e+18,0.0,0.0,3.0,-1.0,-7.0,-3.0,-2.0,-2.0
1.6951624139381345e+18,-1.0,-3.0,-3.0,-11.0,-9.0,-2.0,0.0,-1.0
1.6951624139381345e+18,-2.0,-1.0,-6.0,2.0,8.0,-3.0,-3.0,-1.0
1.6951624139471304e+18,-2.0,0.0,2.0,-4.0,-13.0,0.0,-1.0,0.0
1.695162413952143e+18,-2.0,-3.0,-1.0,-16.0,-13.0,-7.0,-1.0,2.0
1.695162413961144e+18,-1.0,-1.0,-7.0,8.0,13.0,0.0,2.0,3.0
1.695162413961144e+18,1.0,0.0,11.0,0.0,1.0,11.0,5.0,3.0
1.6951624139621294e+18,0.0,4.0,-1.0,-14.0,-18.0,-10.0,-6.0,-1.0
1.6951624139621294e+18,-3.0,-4.0,-6.0,11.0,26.0,8.0,0.0,-1.0
1.6951624139881088e+18,-1.0,-2.0,5.0,-2.0,-6.0,-4.0,-1.0,-1.0
1.695162413990107e+18,-2.0,-3.0,-22.0,3.0,7.0,-1.0,-4.0,-3.0
1.695162413990107e+18,2.0,2.0,3.0,3.0,10.0,5.0,4.0,0.0
1.6951624139911101e+18,-1.0,-1.0,-2.0,-5.0,-15.0,-1.0,-1.0,0.0
1.6951624139980997e+18,-1.0,-1.0,-1.0,1.0,-5.0,-4.0,-2.0,-1.0
1.6951624139980997e+18,1.0,1.0,5.0,7.0,36.0,16.0,3.0,1.0
1.695162414006095e+18,0.0,-2.0,-2.0,4.0,0.0,-9.0,-3.0,-3.0
1.695162414006095e+18,-1.0,-2.0,-3.0,12.0,-1.0,-2.0,1.0,-2.0
1.6951624140230853e+18,2.0,-1.0,4.0,-4.0,1.0,9.0,0.0,0.0
1.6951624140290834e+18,0.0,1.0,6.0,-3.0,-24.0,-11.0,-1.0,1.0
1.6951624140290834e+18,-2.0,-4.0,-11.0,-13.0,-5.0,0.0,0.0,0.0
1.6951624140300846e+18,0.0,2.0,5.0,-1.0,11.0,1.0,3.0,0.0
1.6951624140440735e+18,-2.0,-2.0,-5.0,10.0,5.0,-2.0,-1.0,-2.0
1.6951624140440735e+18,-1.0,-1.0,16.0,6.0,-5.0,-5.0,-4.0,-2.0
1.6951624140450732e+18,-1.0,-1.0,-11.0,3.0,13.0,7.0,2.0,0.0
1.6951624140450732e+18,-1.0,-1.0,-16.0,-5.0,-16.0,-6.0,-3.0,-2.0
1.69516241405809e+18,-1.0,2.0,17.0,-16.0,-5.0,-3.0,-2.0,-2.0
1.69516241405809e+18,-2.0,-5.0,-5.0,4.0,11.0,2.0,-2.0,-2.0
1.6951624140740588e+18,1.0,0.0,-9.0,9.0,-12.0,-7.0,-4.0,-1.0
1.6951624140740588e+18,-4.0,-6.0,7.0,-13.0,2.0,-3.0,-2.0,-2.0
1.695162414090047e+18,0.0,2.0,-3.0,3.0,0.0,-1.0,0.0,0.0
1.695162414090047e+18,5.0,10.0,-7.0,-1.0,5.0,5.0,1.0,-1.0
1.695162414090047e+18,-3.0,-8.0,6.0,-6.0,-14.0,-4.0,1.0,-1.0
1.695162414090047e+18,-1.0,2.0,3.0,-7.0,-2.0,1.0,0.0,5.0
1.695162414104039e+18,-3.0,-8.0,-8.0,2.0,11.0,4.0,0.0,-10.0
1.695162414104039e+18,-3.0,1.0,7.0,2.0,-10.0,-5.0,-2.0,0.0
1.6951624141050412e+18,3.0,6.0,-8.0,0.0,-7.0,2.0,-5.0,6.0
1.6951624141050412e+18,2.0,8.0,-2.0,-7.0,0.0,-6.0,-4.0,-23.0
1.6951624141183163e+18,3.0,0.0,8.0,7.0,-1.0,1.0,0.0,19.0
1.6951624141183163e+18,1.0,-5.0,-4.0,-9.0,-9.0,0.0,8.0,6.0
1.695162414125792e+18,-6.0,-9.0,-2.0,-3.0,-6.0,-5.0,-4.0,-5.0
1.695162414125792e+18,-5.0,-5.0,-16.0,-22.0,-30.0,-12.0,-9.0,-4.0
1.6951624141496166e+18,0.0,5.0,6.0,14.0,26.0,0.0,-1.0,6.0
1.6951624141496166e+18,-4.0,-1.0,-9.0,-8.0,0.0,6.0,7.0,-22.0
1.695162414150634e+18,1.0,-4.0,-1.0,1.0,-2.0,11.0,26.0,17.0
1.695162414150634e+18,0.0,11.0,47.0,18.0,16.0,1.0,-10.0,-28.0
1.6951624141655493e+18,-6.0,-15.0,-61.0,-19.0,-17.0,-6.0,-34.0,-11.0
1.6951624141655493e+18,-5.0,1.0,1.0,-6.0,-9.0,-8.0,-12.0,33.0
1.6951624141665418e+18,6.0,5.0,-9.0,4.0,5.0,-3.0,7.0,-27.0
1.6951624141665418e+18,2.0,-16.0,2.0,-6.0,-10.0,-1.0,0.0,30.0
1.6951624141871744e+18,-1.0,2.0,50.0,3.0,0.0,8.0,19.0,20.0
1.6951624141871744e+18,9.0,12.0,-62.0,-2.0,-11.0,-14.0,-20.0,-35.0
1.6951624141871744e+18,0.0,-12.0,17.0,8.0,13.0,3.0,-1.0,3.0
1.6951624141881774e+18,-8.0,-12.0,-24.0,5.0,4.0,1.0,9.0,21.0
1.6951624142101586e+18,-5.0,-3.0,10.0,4.0,3.0,-1.0,-17.0,-27.0
1.695162414211158e+18,-1.0,15.0,10.0,8.0,19.0,16.0,34.0,5.0
1.6951624142121564e+18,2.0,-5.0,5.0,-4.0,-4.0,-3.0,-5.0,14.0
1.6951624142121564e+18,-6.0,-9.0,-15.0,-4.0,-9.0,-10.0,-28.0,-17.0
1.6951624142251492e+18,3.0,3.0,-6.0,2.0,-1.0,0.0,7.0,-9.0
1.6951624142251492e+18,-6.0,-7.0,23.0,-14.0,-16.0,-8.0,4.0,17.0
1.6951624142261496e+18,-3.0,-4.0,-21.0,2.0,0.0,-3.0,4.0,-8.0
1.6951624142261496e+18,-6.0,3.0,69.0,19.0,21.0,14.0,8.0,-27.0
1.6951624142658652e+18,11.0,20.0,-27.0,-11.0,-10.0,-4.0,13.0,35.0
1.6951624142668682e+18,2.0,7.0,-13.0,-3.0,-5.0,-9.0,-30.0,-24.0
1.6951624142668682e+18,-11.0,-38.0,9.0,1.0,1.0,1.0,-5.0,-8.0
1.6951624142668682e+18,6.0,16.0,11.0,5.0,7.0,7.0,9.0,23.0
1.6951624142678636e+18,-3.0,-9.0,27.0,7.0,4.0,-4.0,3.0,-33.0
1.6951624142678636e+18,1.0,12.0,10.0,-9.0,-11.0,-2.0,9.0,5.0
1.695162414268863e+18,-7.0,-22.0,-52.0,-3.0,-2.0,-4.0,-23.0,7.0
1.695162414268863e+18,6.0,6.0,8.0,-1.0,-3.0,-1.0,7.0,-1.0
1.6951624142926597e+18,-8.0,14.0,24.0,-2.0,0.0,2.0,9.0,-1.0
1.6951624142936591e+18,-7.0,-28.0,-26.0,6.0,6.0,2.0,-6.0,-13.0
1.6951624142946588e+18,1.0,27.0,85.0,0.0,5.0,5.0,2.0,-11.0
1.6951624142946588e+18,6.0,-24.0,-86.0,-5.0,-2.0,-1.0,16.0,42.0
1.695162414317646e+18,7.0,18.0,63.0,9.0,-11.0,-8.0,27.0,3.0
1.695162414317646e+18,1.0,9.0,21.0,0.0,10.0,3.0,-48.0,10.0
1.695162414317646e+18,4.0,1.0,17.0,6.0,2.0,1.0,-8.0,-10.0
1.6951624143186445e+18,-3.0,-29.0,-50.0,-16.0,-10.0,2.0,2.0,-21.0
1.6951624143216435e+18,-6.0,-14.0,-35.0,12.0,5.0,-5.0,-8.0,1.0
1.6951624143216435e+18,1.0,-1.0,22.0,0.0,-5.0,0.0,17.0,-13.0
1.6951624143366326e+18,-3.0,10.0,-49.0,-3.0,7.0,5.0,15.0,-20.0
1.6951624143366326e+18,5.0,1.0,-45.0,2.0,3.0,-3.0,-20.0,23.0
1.695162414353623e+18,-4.0,9.0,11.0,-3.0,-3.0,4.0,1.0,-3.0
1.695162414353623e+18,6.0,-18.0,32.0,-10.0,-10.0,-9.0,12.0,5.0
1.6951624143546237e+18,-1.0,17.0,-32.0,-12.0,-17.0,-12.0,-22.0,20.0
1.6951624143546237e+18,5.0,16.0,-10.0,19.0,13.0,8.0,25.0,-24.0
1.6951624143746117e+18,-2.0,10.0,38.0,-2.0,6.0,5.0,1.0,6.0
1.6951624143746117e+18,1.0,-5.0,-16.0,-2.0,-4.0,-4.0,-9.0,-1.0
1.6951624143756104e+18,-3.0,-11.0,-46.0,-5.0,0.0,0.0,6.0,-2.0
1.6951624143756104e+18,-3.0,12.0,19.0,-7.0,-12.0,-6.0,1.0,-6.0
1.6951624143806083e+18,2.0,-17.0,2.0,7.0,12.0,4.0,-8.0,19.0
1.6951624143806083e+18,2.0,3.0,-17.0,2.0,2.0,7.0,17.0,25.0
1.695162414389608e+18,0.0,7.0,48.0,-7.0,-8.0,-3.0,-1.0,-22.0
1.695162414389608e+18,-4.0,7.0,44.0,11.0,-5.0,-12.0,-19.0,6.0
1.6951624144045932e+18,3.0,-10.0,-43.0,-7.0,5.0,16.0,22.0,5.0
1.6951624144045932e+18,-1.0,14.0,-15.0,-7.0,-14.0,-17.0,-27.0,7.0
1.695162414405593e+18,5.0,-8.0,14.0,12.0,8.0,1.0,0.0,11.0
1.695162414405593e+18,-5.0,15.0,5.0,-5.0,-4.0,1.0,4.0,-7.0
1.6951624144265626e+18,1.0,-19.0,-50.0,-5.0,-8.0,-3.0,-5.0,-6.0
1.6951624144265626e+18,-10.0,-7.0,-63.0,-12.0,2.0,-3.0,4.0,-23.0
1.6951624144272479e+18,-2.0,-11.0,49.0,-9.0,-8.0,-4.0,-2.0,-1.0
1.6951624144272479e+18,3.0,18.0,57.0,-1.0,-2.0,-4.0,-4.0,25.0
1.695162414442544e+18,-1.0,4.0,-14.0,-2.0,-3.0,-3.0,-13.0,-17.0
1.695162414442544e+18,-5.0,-10.0,2.0,11.0,12.0,5.0,14.0,1.0
1.6951624144865416e+18,2.0,11.0,42.0,15.0,4.0,-2.0,-7.0,11.0
1.6951624144875456e+18,-10.0,-31.0,-105.0,-32.0,-12.0,-4.0,-4.0,-15.0
1.6951624144885412e+18,2.0,5.0,67.0,6.0,-6.0,-8.0,-8.0,6.0
1.6951624144925394e+18,-1.0,-4.0,34.0,-5.0,-4.0,4.0,8.0,1.0
1.695162414493542e+18,3.0,9.0,8.0,-1.0,0.0,2.0,2.0,4.0
1.695162414493542e+18,0.0,-2.0,26.0,3.0,4.0,3.0,1.0,-5.0
1.695162414493542e+18,-4.0,14.0,-31.0,-5.0,-4.0,-4.0,-7.0,-8.0
1.6951624144965366e+18,-5.0,-31.0,25.0,-5.0,-8.0,-2.0,4.0,-9.0
1.695162414497535e+18,-3.0,12.0,-30.0,5.0,5.0,3.0,11.0,20.0
1.695162414499552e+18,3.0,4.0,3.0,-9.0,0.0,3.0,7.0,3.0
1.695162414541509e+18,-8.0,-36.0,-99.0,-11.0,-6.0,-9.0,-25.0,-3.0
1.695162414541509e+18,3.0,24.0,-30.0,6.0,-3.0,-3.0,2.0,-4.0
1.6951624145425119e+18,-4.0,3.0,-22.0,-2.0,2.0,0.0,0.0,-10.0
1.6951624145425119e+18,6.0,24.0,103.0,21.0,11.0,7.0,12.0,4.0
1.6951624145435077e+18,-11.0,-11.0,-38.0,-11.0,-5.0,-4.0,-10.0,-12.0
1.6951624145435077e+18,2.0,-10.0,-27.0,4.0,4.0,0.0,1.0,4.0
1.6951624145564995e+18,-2.0,11.0,83.0,9.0,3.0,-3.0,-6.0,-5.0
1.6951624145564995e+18,-1.0,-1.0,7.0,-2.0,-6.0,-5.0,-9.0,-17.0
1.6951624145574986e+18,1.0,-19.0,1.0,-1.0,-1.0,3.0,7.0,-1.0
1.6951624145574986e+18,2.0,2.0,40.0,8.0,0.0,3.0,0.0,9.0
1.6951624145584988e+18,5.0,16.0,-38.0,-6.0,-1.0,0.0,0.0,6.0
1.6951624145584988e+18,-5.0,3.0,30.0,10.0,14.0,4.0,3.0,-8.0
1.6951624145888497e+18,2.0,20.0,14.0,-14.0,-9.0,-6.0,-1.0,-4.0
1.6951624145888497e+18,-1.0,-8.0,15.0,1.0,-4.0,-1.0,-2.0,26.0
1.6951624145888497e+18,-16.0,-5.0,6.0,-1.0,-9.0,-5.0,-7.0,-22.0
1.6951624145898524e+18,2.0,-23.0,-25.0,3.0,6.0,1.0,-1.0,13.0
1.6951624145918474e+18,3.0,23.0,78.0,7.0,-5.0,0.0,9.0,-4.0
1.6951624145918474e+18,-5.0,3.0,-46.0,-9.0,-3.0,-1.0,-6.0,2.0
1.6951624145928458e+18,0.0,-40.0,-21.0,0.0,5.0,6.0,13.0,3.0
1.6951624145928458e+18,-4.0,-7.0,-14.0,-7.0,-8.0,-9.0,-20.0,-30.0
1.6951624146308247e+18,1.0,3.0,24.0,10.0,5.0,4.0,13.0,11.0
1.6951624146308247e+18,6.0,22.0,-46.0,-1.0,0.0,-3.0,-6.0,-11.0
1.6951624146318218e+18,1.0,-8.0,-37.0,-9.0,-17.0,-3.0,10.0,12.0
1.6951624146318218e+18,5.0,-2.0,-17.0,9.0,18.0,0.0,-7.0,16.0
1.695162414632821e+18,3.0,2.0,0.0,-12.0,-5.0,-4.0,2.0,-12.0
1.6951624146338345e+18,-8.0,-17.0,-48.0,8.0,13.0,17.0,9.0,-6.0
1.6951624146368228e+18,10.0,46.0,-3.0,-8.0,-4.0,-2.0,-1.0,9.0
1.6951624146368228e+18,-6.0,-30.0,-61.0,0.0,-4.0,-1.0,5.0,20.0
1.6951624146518126e+18,-2.0,1.0,-24.0,1.0,-8.0,-7.0,-14.0,-32.0
1.6951624146518126e+18,-4.0,21.0,98.0,-10.0,-11.0,-10.0,-2.0,-14.0
1.695162414652812e+18,1.0,5.0,-2.0,2.0,9.0,4.0,0.0,1.0
1.695162414652812e+18,3.0,13.0,16.0,5.0,-3.0,3.0,2.0,-6.0
1.6951624147047798e+18,2.0,6.0,34.0,7.0,9.0,4.0,1.0,8.0
1.6951624147047798e+18,2.0,5.0,-14.0,-8.0,-13.0,-5.0,-2.0,-8.0
1.6951624147047798e+18,-11.0,-37.0,-30.0,13.0,22.0,9.0,-1.0,-5.0
1.695162414705782e+18,-5.0,19.0,64.0,-11.0,-24.0,-12.0,-7.0,-4.0
1.6951624147537754e+18,1.0,-14.0,-27.0,8.0,3.0,1.0,3.0,4.0
1.6951624147537754e+18,-5.0,2.0,48.0,3.0,4.0,6.0,16.0,-2.0
1.6951624147537754e+18,10.0,14.0,-47.0,-4.0,0.0,-13.0,-22.0,6.0
1.6951624147537754e+18,-6.0,-1.0,-15.0,4.0,16.0,10.0,1.0,-11.0
1.6951624147537754e+18,2.0,-23.0,-29.0,-1.0,-4.0,0.0,4.0,15.0
1.6951624147537754e+18,1.0,-6.0,-17.0,3.0,-13.0,-12.0,-5.0,3.0
1.6951624147547538e+18,-2.0,0.0,42.0,-16.0,-11.0,-2.0,4.0,-10.0
1.6951624147547538e+18,3.0,9.0,-30.0,6.0,2.0,-1.0,-1.0,5.0
1.6951624147797368e+18,-7.0,-9.0,23.0,0.0,6.0,7.0,2.0,7.0
1.6951624147797368e+18,-4.0,0.0,24.0,3.0,0.0,-2.0,1.0,-13.0
1.695162414780737e+18,-5.0,-8.0,1.0,0.0,-2.0,1.0,-2.0,10.0
1.695162414780737e+18,6.0,18.0,13.0,-6.0,-7.0,1.0,17.0,-22.0
1.695162414796728e+18,7.0,17.0,39.0,3.0,1.0,-8.0,-23.0,11.0
1.6951624147977267e+18,-5.0,10.0,16.0,0.0,-8.0,-2.0,-8.0,-1.0
1.6951624147977267e+18,6.0,-13.0,-67.0,3.0,24.0,7.0,2.0,-1.0
1.6951624147977267e+18,0.0,-9.0,47.0,9.0,0.0,-1.0,2.0,2.0
1.6951624148157169e+18,-7.0,-14.0,44.0,-3.0,0.0,0.0,6.0,-9.0
1.6951624148167214e+18,8.0,0.0,-89.0,-7.0,0.0,1.0,3.0,11.0
1.6951624148486976e+18,0.0,-22.0,5.0,-9.0,-3.0,-1.0,-3.0,-4.0
1.6951624148486976e+18,1.0,5.0,-23.0,-5.0,1.0,1.0,3.0,8.0
1.6951624148496973e+18,-3.0,-5.0,-7.0,10.0,6.0,0.0,-1.0,-6.0
1.6951624148496973e+18,1.0,-22.0,-2.0,-5.0,1.0,-1.0,-2.0,8.0
1.6951624148496973e+18,-2.0,13.0,-6.0,-3.0,-6.0,-1.0,4.0,-11.0
1.6951624148506962e+18,-7.0,-32.0,-79.0,-5.0,-4.0,-1.0,0.0,7.0
1.6951624148556936e+18,-2.0,-8.0,-25.0,-10.0,-8.0,-4.0,-4.0,-15.0
1.6951624148556936e+18,1.0,-11.0,-35.0,0.0,7.0,6.0,5.0,10.0
1.6951624148556936e+18,-4.0,17.0,25.0,6.0,-3.0,-2.0,0.0,-11.0
1.6951624148556936e+18,2.0,-5.0,29.0,0.0,-5.0,-1.0,-1.0,7.0
1.6951624148566986e+18,2.0,28.0,-52.0,-13.0,-6.0,-3.0,-3.0,-17.0
1.6951624148566986e+18,-4.0,-28.0,18.0,9.0,10.0,2.0,0.0,6.0
1.6951624148766835e+18,-3.0,-7.0,-41.0,2.0,8.0,7.0,2.0,10.0
1.6951624148766835e+18,0.0,9.0,28.0,8.0,7.0,-3.0,-2.0,0.0
1.6951624148776858e+18,-3.0,-19.0,15.0,-7.0,-8.0,-1.0,1.0,0.0
1.6951624148776858e+18,-1.0,10.0,3.0,-9.0,-7.0,-6.0,-2.0,9.0
1.6951624148936717e+18,6.0,4.0,-15.0,3.0,-1.0,5.0,8.0,11.0
1.6951624148936717e+18,-3.0,3.0,-41.0,-10.0,-5.0,-2.0,-3.0,-5.0
1.6951624148946714e+18,-3.0,-10.0,-16.0,8.0,2.0,-2.0,-3.0,-5.0
1.6951624148946714e+18,1.0,10.0,7.0,-5.0,-1.0,1.0,1.0,-6.0
1.69516241490667e+18,-2.0,-5.0,14.0,-4.0,-8.0,-8.0,-16.0,-5.0
1.69516241490667e+18,3.0,15.0,27.0,5.0,8.0,3.0,4.0,-3.0
1.69516241490667e+18,2.0,13.0,40.0,-5.0,-13.0,-6.0,-3.0,4.0
1.6951624149076667e+18,-6.0,-26.0,-27.0,4.0,2.0,-1.0,0.0,-2.0
1.6951624149616563e+18,-6.0,-4.0,-11.0,-1.0,5.0,-2.0,-2.0,-1.0
1.6951624149626345e+18,0.0,16.0,20.0,-3.0,-3.0,0.0,-3.0,-21.0
1.6951624149626345e+18,-4.0,-24.0,3.0,3.0,2.0,-2.0,4.0,-2.0
1.6951624149626345e+18,-2.0,-6.0,19.0,0.0,0.0,-1.0,-8.0,-5.0
1.6951624150036334e+18,-1.0,3.0,0.0,0.0,0.0,-4.0,-5.0,7.0
1.6951624150046126e+18,2.0,2.0,-19.0,-6.0,-6.0,-3.0,2.0,4.0
1.695162415020602e+18,2.0,9.0,14.0,-3.0,4.0,2.0,-3.0,1.0
1.6951624150216023e+18,0.0,16.0,39.0,4.0,0.0,-2.0,-2.0,-5.0
1.6951624150216023e+18,-1.0,-2.0,-4.0,-1.0,-4.0,2.0,8.0,-2.0
1.6951624150216023e+18,1.0,5.0,-7.0,-1.0,-3.0,-2.0,-5.0,7.0
1.6951624150225974e+18,-6.0,1.0,23.0,-1.0,0.0,0.0,3.0,-8.0
1.6951624150225974e+18,5.0,-14.0,4.0,2.0,4.0,-1.0,-1.0,21.0
1.695162415059579e+18,-4.0,5.0,11.0,-2.0,-4.0,-2.0,-4.0,-12.0
1.695162415059579e+18,-2.0,-6.0,-16.0,-2.0,-1.0,1.0,6.0,29.0
1.695162415059579e+18,4.0,-1.0,-35.0,-2.0,2.0,3.0,1.0,-2.0
1.695162415059579e+18,-4.0,4.0,2.0,-1.0,-4.0,0.0,-2.0,-7.0
1.6951624150605768e+18,2.0,-14.0,-3.0,-1.0,-1.0,-1.0,-3.0,1.0
1.6951624150605768e+18,1.0,1.0,-5.0,-2.0,-3.0,-3.0,0.0,-4.0
1.6951624150605768e+18,2.0,3.0,19.0,-1.0,-2.0,0.0,-3.0,-1.0
1.6951624150605768e+18,2.0,11.0,4.0,0.0,0.0,-1.0,-1.0,-7.0
1.6951624151105728e+18,1.0,-2.0,4.0,-1.0,-1.0,-1.0,5.0,1.0
1.6951624151115594e+18,-2.0,-13.0,-13.0,1.0,2.0,1.0,0.0,-1.0
1.6951624151115594e+18,-2.0,-4.0,1.0,-1.0,2.0,2.0,0.0,5.0
1.6951624151115594e+18,-1.0,8.0,1.0,-2.0,-1.0,0.0,-1.0,-5.0
1.6951624151125468e+18,-2.0,-6.0,7.0,-2.0,-1.0,-2.0,0.0,3.0
1.6951624151125468e+18,0.0,-4.0,-7.0,-1.0,1.0,-2.0,-2.0,-2.0
1.6951624151135465e+18,1.0,-3.0,-7.0,-1.0,-2.0,-1.0,-3.0,3.0
1.6951624151135465e+18,-3.0,2.0,-17.0,-2.0,-1.0,0.0,2.0,-3.0
1.69516241512354e+18,0.0,4.0,7.0,-1.0,-3.0,0.0,2.0,1.0
1.69516241512354e+18,0.0,-2.0,2.0,-2.0,0.0,0.0,-3.0,-3.0
1.695162415132535e+18,7.0,3.0,-8.0,-14.0,-1.0,1.0,0.0,-1.0
1.695162415132535e+18,-9.0,-2.0,5.0,12.0,2.0,1.0,1.0,1.0
1.695162415132535e+18,5.0,2.0,13.0,12.0,4.0,0.0,0.0,-3.0
1.695162415132535e+18,9.0,-1.0,-9.0,-15.0,-6.0,-3.0,0.0,21.0
1.6951624151465288e+18,-14.0,0.0,7.0,2.0,0.0,0.0,-3.0,-18.0
1.6951624151465288e+18,-7.0,-6.0,-12.0,-13.0,-1.0,-1.0,-1.0,-2.0
1.695162415147527e+18,1.0,1.0,-3.0,-2.0,-3.0,-2.0,-3.0,-2.0
1.695162415147527e+18,-6.0,-1.0,-7.0,2.0,-2.0,-1.0,1.0,3.0
1.6951624151705155e+18,4.0,0.0,0.0,-4.0,1.0,1.0,1.0,4.0
1.6951624151715146e+18,1.0,-1.0,-14.0,-14.0,-3.0,0.0,-1.0,3.0
1.6951624151715146e+18,1.0,-2.0,6.0,7.0,-2.0,-2.0,-2.0,1.0
1.695162415172516e+18,-2.0,1.0,7.0,0.0,4.0,1.0,-1.0,-6.0
1.6951624151995213e+18,-3.0,-1.0,-5.0,7.0,-1.0,0.0,0.0,3.0
1.6951624151995213e+18,-2.0,1.0,16.0,26.0,-2.0,-3.0,-2.0,-8.0
1.6951624152004959e+18,-1.0,0.0,-6.0,-16.0,0.0,0.0,1.0,3.0
1.6951624152004959e+18,1.0,1.0,4.0,13.0,-1.0,-3.0,-1.0,-6.0
1.6951624152064955e+18,-7.0,-5.0,-24.0,-47.0,-9.0,-5.0,-2.0,-1.0
1.6951624152064955e+18,5.0,3.0,-3.0,2.0,4.0,1.0,0.0,2.0
1.6951624152074926e+18,1.0,0.0,5.0,5.0,0.0,-1.0,0.0,1.0
1.6951624152074926e+18,-1.0,1.0,-2.0,2.0,0.0,0.0,-2.0,-6.0
1.6951624152304796e+18,0.0,-1.0,4.0,13.0,1.0,-1.0,1.0,1.0
1.6951624152304796e+18,-1.0,0.0,-5.0,-6.0,-4.0,-2.0,-1.0,-2.0
1.6951624152304796e+18,-6.0,-3.0,-1.0,-1.0,2.0,1.0,0.0,-2.0
1.6951624152304796e+18,2.0,2.0,8.0,0.0,4.0,2.0,1.0,-2.0
1.6951624152524672e+18,0.0,-1.0,1.0,3.0,-1.0,-3.0,-2.0,3.0
1.6951624152524672e+18,0.0,-3.0,-2.0,-2.0,-5.0,-1.0,-3.0,-1.0
1.6951624152524672e+18,-3.0,-1.0,0.0,2.0,-3.0,-1.0,0.0,0.0
1.6951624152534682e+18,1.0,1.0,-3.0,-3.0,-5.0,-3.0,-1.0,-3.0
1.6951624152724575e+18,1.0,1.0,3.0,6.0,4.0,4.0,1.0,1.0
1.6951624152724575e+18,-1.0,-3.0,-5.0,-1.0,0.0,0.0,1.0,0.0
1.6951624152744566e+18,1.0,-1.0,-6.0,-11.0,-2.0,1.0,0.0,0.0
1.6951624152744566e+18,-1.0,0.0,4.0,1.0,-1.0,-2.0,-3.0,-2.0
1.695162415289447e+18,-2.0,1.0,2.0,4.0,-1.0,-2.0,0.0,0.0
1.695162415289447e+18,0.0,1.0,0.0,-1.0,0.0,-1.0,-1.0,-2.0
1.695162415289447e+18,-2.0,-1.0,-1.0,3.0,-3.0,-5.0,-2.0,0.0
1.695162415289447e+18,-2.0,-1.0,-7.0,-9.0,-5.0,7.0,-2.0,-4.0
1.695162415312432e+18,-4.0,-1.0,6.0,10.0,9.0,1.0,2.0,-1.0
1.695162415312432e+18,-2.0,-2.0,-5.0,-4.0,-3.0,1.0,-1.0,-3.0
1.6951624153134387e+18,1.0,0.0,1.0,1.0,7.0,5.0,-3.0,-2.0
1.6951624153134387e+18,0.0,-1.0,2.0,0.0,2.0,-4.0,0.0,-1.0
1.6951624153254262e+18,-2.0,-2.0,1.0,1.0,-4.0,-3.0,-4.0,-1.0
1.6951624153254262e+18,0.0,-1.0,-2.0,-4.0,-3.0,-1.0,2.0,-2.0
1.6951624153344218e+18,-1.0,-2.0,-1.0,0.0,-6.0,-6.0,-2.0,-2.0
1.6951624153344218e+18,-1.0,0.0,2.0,0.0,-1.0,4.0,0.0,-2.0
1.6951624153494108e+18,1.0,0.0,1.0,0.0,-1.0,-3.0,-2.0,-1.0
1.6951624153494108e+18,1.0,0.0,-1.0,-6.0,-1.0,-1.0,-1.0,0.0
1.6951624153494108e+18,-1.0,-1.0,0.0,-1.0,2.0,1.0,0.0,-2.0
1.6951624153504105e+18,1.0,-1.0,0.0,-1.0,0.0,-3.0,-1.0,-1.0
1.695162415372397e+18,0.0,-1.0,-2.0,0.0,-2.0,1.0,1.0,-1.0
1.695162415372397e+18,0.0,0.0,-3.0,-2.0,-1.0,-1.0,-1.0,2.0
1.6951624153733996e+18,0.0,1.0,1.0,3.0,0.0,2.0,1.0,1.0
1.6951624153733996e+18,-1.0,0.0,0.0,0.0,0.0,-1.0,0.0,0.0
1.6951624153874143e+18,-1.0,-1.0,0.0,2.0,-1.0,0.0,-1.0,-2.0
1.6951624153874143e+18,1.0,0.0,-2.0,-1.0,-2.0,-2.0,-1.0,-1.0
1.6951624153943852e+18,0.0,-1.0,1.0,3.0,0.0,1.0,0.0,0.0
1.6951624153943852e+18,-2.0,-1.0,-1.0,-3.0,-2.0,-2.0,-1.0,-1.0
1.6951624154093768e+18,0.0,0.0,2.0,0.0,-2.0,-1.0,-1.0,0.0
1.6951624154093768e+18,-1.0,-1.0,-2.0,-2.0,1.0,-1.0,-1.0,-1.0
1.6951624154093768e+18,-1.0,-1.0,0.0,-3.0,-1.0,-1.0,1.0,-1.0
1.6951624154093768e+18,1.0,-1.0,0.0,0.0,1.0,-3.0,-2.0,0.0
1.695162415432363e+18,1.0,-1.0,0.0,1.0,-2.0,0.0,0.0,-1.0
1.695162415432363e+18,-2.0,-1.0,0.0,1.0,1.0,2.0,-1.0,-1.0
1.695162415432363e+18,-1.0,-1.0,0.0,1.0,-1.0,0.0,-1.0,-1.0
1.6951624154333678e+18,-1.0,-2.0,2.0,-1.0,-2.0,-1.0,0.0,0.0
1.6951624154453793e+18,-1.0,1.0,9.0,3.0,-1.0,0.0,0.0,0.0
1.6951624154463616e+18,-1.0,-2.0,-16.0,-2.0,0.0,0.0,-1.0,-2.0
1.6951624154543508e+18,1.0,6.0,9.0,3.0,-2.0,-1.0,-1.0,1.0
1.6951624154543508e+18,0.0,-7.0,-15.0,-13.0,-2.0,0.0,1.0,-1.0
1.695162415477337e+18,-2.0,1.0,4.0,5.0,-1.0,-2.0,0.0,0.0
1.695162415477337e+18,-1.0,-1.0,1.0,-7.0,-1.0,-1.0,1.0,-1.0
1.6951624154783368e+18,0.0,-1.0,1.0,5.0,2.0,0.0,-1.0,-1.0
1.6951624154783368e+18,1.0,3.0,4.0,5.0,1.0,2.0,0.0,0.0
1.6951624154923315e+18,-2.0,-2.0,-16.0,-13.0,-5.0,-2.0,-1.0,1.0
1.6951624154923315e+18,-1.0,3.0,14.0,5.0,1.0,-1.0,-1.0,-2.0
1.6951624154933315e+18,-1.0,0.0,-9.0,-7.0,-1.0,-2.0,-1.0,0.0
1.6951624154933315e+18,-1.0,2.0,4.0,2.0,-1.0,-4.0,0.0,-2.0
1.6951624155063444e+18,0.0,-2.0,-1.0,3.0,0.0,1.0,-1.0,-1.0
1.6951624155063444e+18,1.0,2.0,4.0,2.0,-1.0,0.0,1.0,-1.0
1.6951624155143176e+18,-1.0,1.0,1.0,-3.0,-2.0,0.0,0.0,0.0
1.6951624155143176e+18,0.0,-1.0,3.0,4.0,1.0,-1.0,-2.0,0.0
1.6951624155283082e+18,0.0,0.0,-2.0,0.0,-1.0,-2.0,-2.0,-1.0
1.6951624155283082e+18,-2.0,-2.0,-8.0,-4.0,-1.0,-1.0,-1.0,0.0
1.6951624155423004e+18,-1.0,-3.0,-1.0,2.0,-1.0,-2.0,-2.0,-1.0
1.6951624155423004e+18,-1.0,-1.0,-2.0,-2.0,0.0,0.0,0.0,-1.0
1.6951624155522944e+18,0.0,0.0,-1.0,-2.0,-1.0,1.0,1.0,-3.0
1.6951624155522944e+18,0.0,-3.0,5.0,1.0,1.0,0.0,-1.0,0.0
1.6951624155532977e+18,-2.0,-4.0,-3.0,0.0,-2.0,-1.0,-1.0,-1.0
1.6951624155542948e+18,-1.0,1.0,0.0,1.0,-2.0,-1.0,-1.0,-1.0
1.6951624155792827e+18,0.0,-2.0,-1.0,1.0,0.0,0.0,0.0,0.0
1.6951624155802844e+18,0.0,0.0,-2.0,-1.0,-3.0,0.0,1.0,0.0
1.6951624155802844e+18,-1.0,-2.0,0.0,-1.0,-1.0,1.0,0.0,-1.0
1.6951624155802844e+18,0.0,-1.0,-2.0,-3.0,0.0,-1.0,-2.0,-1.0
1.6951624155882778e+18,-2.0,-2.0,-1.0,-1.0,1.0,1.0,-1.0,-1.0
1.6951624155882778e+18,1.0,-1.0,-2.0,-2.0,-1.0,0.0,-2.0,0.0
1.6951624155972713e+18,1.0,-1.0,-1.0,-3.0,-1.0,0.0,-1.0,-2.0
1.6951624155972713e+18,0.0,-2.0,-1.0,0.0,-2.0,-1.0,-2.0,-1.0
1.6951624156152614e+18,0.0,-2.0,0.0,0.0,-1.0,0.0,-2.0,0.0
1.695162415616266e+18,1.0,0.0,-3.0,-1.0,-1.0,-1.0,-3.0,-1.0
1.695162415616266e+18,-1.0,-2.0,-1.0,-2.0,0.0,-2.0,-2.0,-3.0
1.695162415616266e+18,-1.0,-1.0,0.0,0.0,0.0,-1.0,0.0,-1.0
1.6951624156332472e+18,-1.0,-1.0,0.0,-2.0,0.0,-1.0,-2.0,-2.0
1.6951624156342474e+18,-1.0,0.0,-2.0,-2.0,-1.0,-1.0,0.0,-2.0
1.6951624156502415e+18,0.0,-2.0,-1.0,-1.0,-1.0,1.0,-1.0,-1.0
1.6951624156502415e+18,0.0,-1.0,-2.0,-1.0,-2.0,0.0,-2.0,1.0
1.69516241565124e+18,0.0,-1.0,-2.0,0.0,-1.0,1.0,0.0,-1.0
1.69516241565124e+18,0.0,-1.0,0.0,-2.0,0.0,-2.0,0.0,1.0
1.695162415664232e+18,-1.0,0.0,-2.0,-3.0,-1.0,-1.0,0.0,0.0
1.695162415665232e+18,0.0,1.0,0.0,-2.0,-1.0,0.0,-1.0,-1.0
1.6951624156842186e+18,0.0,-2.0,0.0,0.0,0.0,-2.0,0.0,0.0
1.6951624156882202e+18,0.0,0.0,-1.0,-2.0,-2.0,-1.0,-1.0,1.0
1.6951624156882202e+18,-1.0,-1.0,0.0,1.0,-2.0,0.0,-1.0,0.0
1.6951624156882202e+18,-2.0,1.0,0.0,0.0,-1.0,0.0,-2.0,-1.0
1.6951624157022085e+18,0.0,-1.0,-1.0,0.0,-1.0,-2.0,0.0,-1.0
1.6951624157022085e+18,-1.0,-2.0,0.0,-2.0,0.0,0.0,-3.0,-3.0
1.6951624157032082e+18,-2.0,2.0,-3.0,1.0,-1.0,-2.0,-2.0,0.0
1.6951624157042076e+18,1.0,0.0,-1.0,-1.0,-2.0,0.0,-1.0,-1.0
1.6951624157082058e+18,0.0,0.0,1.0,-1.0,-1.0,0.0,-2.0,-1.0
1.6951624157082058e+18,0.0,-1.0,-1.0,-2.0,1.0,-3.0,0.0,-1.0
1.6951624157172022e+18,0.0,-3.0,1.0,-2.0,0.0,-2.0,0.0,-1.0
1.6951624157172022e+18,-2.0,0.0,-1.0,0.0,-1.0,-1.0,0.0,-1.0
1.6951624157321948e+18,0.0,1.0,0.0,0.0,-1.0,-2.0,-1.0,0.0
1.6951624157321948e+18,0.0,-2.0,-2.0,-1.0,-3.0,0.0,0.0,-1.0
1.6951624157391885e+18,0.0,-1.0,0.0,-1.0,0.0,-1.0,0.0,-1.0
1.6951624157401884e+18,-2.0,0.0,-1.0,-1.0,0.0,-1.0,0.0,-1.0
1.6951624157621742e+18,1.0,-1.0,-1.0,-1.0,0.0,-2.0,-1.0,-1.0
1.6951624157631775e+18,-3.0,-1.0,-2.0,-1.0,-2.0,-1.0,-1.0,-1.0
1.695162415765174e+18,-2.0,-1.0,-1.0,-2.0,-1.0,0.0,0.0,-1.0
1.6951624157661737e+18,0.0,-1.0,0.0,-1.0,0.0,-2.0,0.0,0.0
1.6951624157771666e+18,-2.0,0.0,-2.0,-2.0,-2.0,0.0,-1.0,-1.0
1.6951624157771666e+18,-1.0,0.0,0.0,0.0,1.0,0.0,-1.0,-1.0
1.695162415779167e+18,-1.0,0.0,-1.0,-1.0,0.0,2.0,-1.0,0.0
1.695162415779167e+18,-1.0,-2.0,-2.0,-2.0,0.0,-2.0,0.0,-1.0
1.6951624157921597e+18,-1.0,-1.0,2.0,-1.0,-1.0,0.0,-1.0,0.0
1.6951624157921597e+18,-2.0,-2.0,0.0,1.0,0.0,-1.0,-1.0,-1.0
1.695162415793161e+18,-1.0,0.0,-1.0,1.0,-1.0,1.0,1.0,0.0
1.6951624157941573e+18,1.0,-3.0,1.0,1.0,-1.0,-1.0,-1.0,-1.0
1.6951624158151447e+18,0.0,-1.0,-2.0,0.0,-1.0,0.0,0.0,2.0
1.6951624158161472e+18,-1.0,-1.0,0.0,-3.0,-1.0,-1.0,-1.0,0.0
1.6951624158161472e+18,1.0,-1.0,0.0,-2.0,0.0,-1.0,-2.0,0.0
1.6951624158161472e+18,-2.0,0.0,-2.0,-1.0,0.0,0.0,0.0,0.0
1.695162415853146e+18,0.0,1.0,-1.0,0.0,-1.0,0.0,-1.0,0.0
1.695162415854124e+18,0.0,1.0,0.0,0.0,-1.0,0.0,-1.0,-2.0
1.6951624158551247e+18,-1.0,-1.0,0.0,-1.0,0.0,-1.0,0.0,-2.0
1.6951624158551247e+18,0.0,0.0,-2.0,-2.0,0.0,-1.0,-1.0,0.0
1.6951624158561203e+18,-1.0,-1.0,1.0,-1.0,-1.0,0.0,0.0,-2.0
1.6951624158561203e+18,-2.0,0.0,0.0,-1.0,-1.0,0.0,0.0,-1.0
1.695162415883105e+18,0.0,-2.0,0.0,0.0,0.0,1.0,-1.0,-2.0
1.695162415883105e+18,-1.0,-1.0,0.0,-1.0,-2.0,2.0,-1.0,-1.0
1.695162415884129e+18,-1.0,0.0,-1.0,-1.0,-3.0,-2.0,0.0,-1.0
1.695162415884129e+18,0.0,-3.0,-1.0,-1.0,-2.0,0.0,-2.0,0.0
1.6951624158951012e+18,-1.0,0.0,-3.0,-1.0,0.0,0.0,-1.0,-1.0
1.6951624158951012e+18,0.0,-1.0,-1.0,-1.0,-1.0,-2.0,-2.0,-2.0
1.6951624158951012e+18,0.0,0.0,-1.0,-1.0,1.0,0.0,0.0,-2.0
1.6951624158961032e+18,0.0,-2.0,-1.0,-1.0,-1.0,-1.0,1.0,-1.0
1.6951624158980974e+18,-1.0,0.0,0.0,-1.0,-1.0,0.0,0.0,-1.0
1.6951624158980974e+18,-1.0,-1.0,-1.0,-1.0,0.0,0.0,-2.0,-1.0
1.695162415914097e+18,-2.0,-1.0,0.0,-1.0,0.0,-2.0,0.0,-2.0
1.695162415914097e+18,0.0,0.0,-2.0,-1.0,-1.0,-1.0,-1.0,-1.0
1.695162415914097e+18,-1.0,0.0,-2.0,-1.0,0.0,-1.0,0.0,-1.0
1.695162415914097e+18,-1.0,0.0,-2.0,-1.0,-1.0,-1.0,0.0,0.0
1.6951624159420705e+18,0.0,0.0,-2.0,1.0,-2.0,-1.0,-2.0,-1.0
1.6951624159420705e+18,-2.0,0.0,-3.0,0.0,0.0,-1.0,0.0,1.0
1.6951624159440724e+18,0.0,-3.0,-2.0,0.0,0.0,-1.0,-1.0,-1.0
1.6951624159440724e+18,-1.0,-1.0,-2.0,0.0,-1.0,-1.0,1.0,-1.0
1.6951624159480673e+18,0.0,-1.0,0.0,0.0,1.0,-1.0,0.0,-2.0
1.6951624159480673e+18,0.0,-1.0,0.0,0.0,0.0,-1.0,-1.0,-1.0
1.6951624159570652e+18,-1.0,-1.0,-1.0,-2.0,-1.0,-2.0,-1.0,-1.0
1.6951624159570652e+18,-1.0,0.0,-1.0,-1.0,0.0,-1.0,0.0,-2.0
1.6951624159750538e+18,-2.0,-1.0,-1.0,-3.0,0.0,1.0,0.0,0.0
1.6951624159750538e+18,-1.0,-1.0,-2.0,-1.0,0.0,-1.0,-2.0,-1.0
1.6951624159750538e+18,0.0,0.0,-1.0,1.0,-1.0,-2.0,-2.0,1.0
1.6951624159750538e+18,1.0,0.0,0.0,0.0,-1.0,0.0,-1.0,0.0
1.6951624159950428e+18,0.0,-2.0,0.0,-2.0,0.0,-2.0,-2.0,-1.0
1.6951624159950428e+18,-1.0,-1.0,-2.0,-1.0,0.0,-1.0,-1.0,-1.0
1.6951624159960422e+18,-1.0,-1.0,-1.0,-1.0,0.0,-1.0,-1.0,0.0
1.695162415997049e+18,1.0,0.0,-1.0,-1.0,-1.0,0.0,-1.0,-1.0
1.695162416016047e+18,-1.0,0.0,-1.0,0.0,-2.0,0.0,0.0,0.0
1.695162416016047e+18,-2.0,0.0,0.0,-2.0,-1.0,1.0,0.0,-1.0
1.695162416017032e+18,0.0,-1.0,-2.0,0.0,0.0,0.0,-1.0,0.0
1.6951624160180314e+18,-1.0,-2.0,0.0,-2.0,1.0,0.0,-1.0,1.0
1.69516241603302e+18,-1.0,-1.0,-2.0,-1.0,-2.0,-1.0,-1.0,-1.0
1.69516241603302e+18,-1.0,-2.0,0.0,-1.0,0.0,-1.0,0.0,-1.0
1.6951624160340188e+18,-2.0,0.0,0.0,-1.0,-2.0,0.0,0.0,-1.0
1.6951624160340188e+18,-2.0,1.0,-1.0,-2.0,0.0,-1.0,0.0,-1.0
1.6951624160620052e+18,-1.0,-1.0,-1.0,-1.0,-2.0,-2.0,-2.0,-1.0
1.6951624160630057e+18,1.0,0.0,0.0,0.0,-3.0,-1.0,0.0,1.0
1.6951624160640077e+18,-1.0,-1.0,0.0,-1.0,-1.0,-1.0,-1.0,-1.0
1.6951624160640077e+18,0.0,-1.0,1.0,0.0,0.0,-1.0,-1.0,-2.0
1.6951624160680015e+18,0.0,-2.0,-1.0,-1.0,1.0,0.0,0.0,-1.0
1.6951624160680015e+18,0.0,-1.0,-2.0,1.0,-2.0,-1.0,1.0,-1.0
1.6951624160949865e+18,-1.0,0.0,-3.0,-1.0,1.0,0.0,-2.0,1.0
1.695162416097985e+18,0.0,-2.0,-2.0,0.0,0.0,0.0,-3.0,0.0
1.6951624160989847e+18,-1.0,0.0,-1.0,-1.0,0.0,-1.0,-2.0,-1.0
1.6951624160989847e+18,0.0,-1.0,0.0,0.0,-1.0,0.0,-2.0,0.0
1.6951624160989847e+18,0.0,-1.0,-1.0,0.0,-2.0,0.0,0.0,-1.0
1.6951624160989847e+18,-2.0,-2.0,-1.0,0.0,-2.0,-1.0,-1.0,-2.0
1.695162416121992e+18,1.0,-1.0,-1.0,-3.0,2.0,0.0,0.0,-1.0
1.695162416121992e+18,-2.0,0.0,0.0,-2.0,0.0,-2.0,0.0,1.0
1.695162416123967e+18,0.0,-1.0,-1.0,-1.0,-2.0,-2.0,0.0,-2.0
1.695162416123967e+18,-1.0,0.0,1.0,-1.0,-1.0,-1.0,0.0,-2.0
1.695162416132963e+18,-1.0,0.0,0.0,0.0,-2.0,-1.0,-2.0,-1.0
1.695162416132963e+18,0.0,-2.0,-2.0,-1.0,1.0,-1.0,-2.0,-2.0
1.6951624161449603e+18,-1.0,0.0,2.0,-1.0,1.0,0.0,0.0,-1.0
1.6951624161449603e+18,0.0,0.0,-1.0,0.0,-1.0,0.0,-1.0,1.0
1.6951624161519524e+18,-1.0,0.0,-1.0,-1.0,-2.0,0.0,-1.0,-2.0
1.6951624161519524e+18,0.0,0.0,0.0,1.0,-2.0,-1.0,0.0,-1.0
1.6951624161539512e+18,-2.0,1.0,0.0,0.0,-1.0,0.0,-2.0,0.0
1.6951624161539512e+18,1.0,0.0,-1.0,0.0,0.0,-1.0,1.0,-1.0
1.6951624161819338e+18,-1.0,-1.0,0.0,1.0,0.0,-2.0,-1.0,1.0
1.6951624161829366e+18,0.0,0.0,1.0,1.0,1.0,1.0,-1.0,0.0
1.6951624161839332e+18,0.0,-2.0,-1.0,-1.0,0.0,0.0,1.0,-3.0
1.6951624161839332e+18,-1.0,1.0,-1.0,-2.0,-1.0,-1.0,-1.0,0.0
1.69516241619693e+18,0.0,0.0,-2.0,-1.0,0.0,0.0,1.0,-1.0
1.695162416197926e+18,0.0,1.0,0.0,-2.0,0.0,-1.0,-2.0,-1.0
1.695162416198925e+18,-1.0,0.0,-2.0,1.0,0.0,-2.0,-1.0,-1.0
1.695162416198925e+18,0.0,-2.0,-1.0,-1.0,0.0,0.0,-1.0,-1.0
1.6951624162139215e+18,1.0,0.0,0.0,1.0,-1.0,0.0,0.0,-2.0
1.6951624162139215e+18,-1.0,-1.0,-2.0,0.0,-1.0,0.0,1.0,-2.0
1.6951624162139215e+18,-2.0,0.0,0.0,-1.0,-1.0,-2.0,-1.0,-1.0
1.695162416214916e+18,-1.0,-2.0,0.0,-1.0,-1.0,0.0,-1.0,0.0
1.6951624162349033e+18,0.0,-1.0,1.0,-2.0,-1.0,-1.0,1.0,0.0
1.6951624162349033e+18,1.0,-1.0,0.0,-1.0,-1.0,0.0,-2.0,-1.0
1.695162416235927e+18,0.0,-1.0,-1.0,-1.0,0.0,0.0,1.0,-2.0
1.695162416235927e+18,-3.0,-1.0,-1.0,0.0,0.0,-1.0,0.0,-1.0
1.6951624162598907e+18,-1.0,-2.0,-1.0,-1.0,1.0,0.0,-2.0,1.0
1.6951624162598907e+18,0.0,-2.0,-2.0,0.0,0.0,-1.0,0.0,-1.0
1.6951624162608914e+18,0.0,-1.0,-1.0,-1.0,0.0,-1.0,-2.0,1.0
1.6951624162608914e+18,0.0,1.0,-1.0,-1.0,-1.0,-1.0,0.0,-1.0
1.695162416271893e+18,0.0,-1.0,-1.0,-3.0,-1.0,0.0,0.0,0.0
1.6951624162728827e+18,-1.0,0.0,0.0,-1.0,-1.0,1.0,-2.0,-2.0
1.6951624162738819e+18,0.0,0.0,-1.0,-1.0,-1.0,-1.0,-2.0,0.0
1.6951624162738819e+18,-1.0,-2.0,0.0,-2.0,-1.0,-3.0,1.0,-2.0
1.69516241629587e+18,-1.0,-1.0,0.0,-1.0,-1.0,-2.0,-1.0,-1.0
1.69516241629587e+18,-2.0,-1.0,-1.0,-2.0,-2.0,-1.0,-1.0,1.0
1.6951624162968745e+18,-2.0,-2.0,0.0,0.0,-2.0,1.0,-1.0,0.0
1.6951624162968745e+18,-2.0,-1.0,-3.0,1.0,-2.0,0.0,0.0,-1.0
1.695162416308864e+18,0.0,-3.0,-1.0,-2.0,-1.0,-1.0,-2.0,-1.0
1.695162416308864e+18,-1.0,-1.0,0.0,0.0,1.0,1.0,1.0,-1.0
1.6951624163168563e+18,1.0,1.0,-1.0,0.0,1.0,-1.0,-1.0,-2.0
1.6951624163168563e+18,0.0,-1.0,-1.0,-2.0,-1.0,0.0,-2.0,-1.0
1.6951624163318492e+18,-1.0,0.0,-2.0,0.0,0.0,-1.0,-2.0,0.0
1.6951624163318492e+18,-2.0,-1.0,-2.0,-1.0,-1.0,-1.0,0.0,-1.0
1.6951624163468426e+18,0.0,-1.0,-2.0,0.0,-1.0,-1.0,0.0,0.0
1.6951624163468426e+18,-1.0,0.0,-1.0,-1.0,-1.0,0.0,1.0,-2.0
1.6951624163548352e+18,0.0,-2.0,-1.0,1.0,-2.0,0.0,1.0,-1.0
1.6951624163548352e+18,0.0,0.0,0.0,-1.0,0.0,-2.0,-2.0,-1.0
1.695162416355836e+18,-1.0,-1.0,0.0,0.0,-3.0,-1.0,0.0,-1.0
1.6951624163568366e+18,0.0,-2.0,-2.0,-2.0,-1.0,0.0,-1.0,0.0
1.695162416368827e+18,0.0,-1.0,0.0,0.0,-1.0,-2.0,0.0,-2.0
1.695162416368827e+18,-1.0,-2.0,0.0,0.0,-2.0,-1.0,1.0,0.0
1.6951624163768246e+18,-1.0,-2.0,0.0,-2.0,-1.0,-1.0,-2.0,-1.0
1.6951624163778412e+18,0.0,0.0,-1.0,1.0,-1.0,-1.0,-1.0,1.0
1.6951624163908396e+18,-2.0,0.0,-1.0,0.0,0.0,-1.0,-2.0,0.0
1.695162416391814e+18,0.0,-1.0,0.0,-1.0,-2.0,-2.0,-2.0,-3.0
1.695162416399812e+18,-1.0,0.0,-2.0,-1.0,-1.0,-1.0,-2.0,-1.0
1.695162416399812e+18,-1.0,-1.0,-1.0,0.0,1.0,-2.0,-1.0,-1.0
1.6951624164237988e+18,1.0,0.0,0.0,-1.0,0.0,-1.0,-2.0,-2.0
1.6951624164237988e+18,0.0,-1.0,-2.0,-2.0,-2.0,-2.0,-1.0,-1.0
1.6951624164257946e+18,-1.0,-2.0,-1.0,-1.0,0.0,-1.0,0.0,0.0
1.6951624164257946e+18,1.0,1.0,0.0,-1.0,-1.0,-1.0,0.0,-2.0
1.6951624164387876e+18,-2.0,0.0,-2.0,0.0,-1.0,-1.0,0.0,0.0
1.6951624164477837e+18,0.0,0.0,0.0,-4.0,1.0,-1.0,-1.0,0.0
1.6951624164477837e+18,0.0,-1.0,-1.0,0.0,0.0,-1.0,-2.0,-1.0
1.6951624164477837e+18,-1.0,-1.0,-1.0,-1.0,0.0,0.0,0.0,-1.0
1.6951624164507804e+18,-1.0,-1.0,0.0,-2.0,-3.0,-1.0,-1.0,0.0
1.6951624164517796e+18,-1.0,-1.0,-1.0,1.0,-1.0,-1.0,-1.0,0.0
1.6951624164597747e+18,1.0,-1.0,0.0,-1.0,0.0,-1.0,1.0,1.0
1.6951624164597747e+18,-2.0,-1.0,0.0,0.0,-1.0,-3.0,0.0,1.0
1.6951624164857836e+18,1.0,-1.0,-1.0,0.0,0.0,0.0,0.0,-1.0
1.6951624164927596e+18,-1.0,-1.0,0.0,-1.0,0.0,0.0,-1.0,-1.0
1.6951624164927596e+18,-2.0,2.0,0.0,0.0,-2.0,0.0,0.0,-1.0
1.6951624164927596e+18,-1.0,1.0,-1.0,0.0,-1.0,-1.0,-1.0,0.0
1.6951624164967593e+18,-2.0,-1.0,-1.0,-2.0,0.0,-1.0,0.0,-2.0
1.695162416497753e+18,-1.0,-2.0,-4.0,-2.0,-2.0,-1.0,-1.0,-1.0
1.6951624164987592e+18,-2.0,-3.0,-1.0,-1.0,-2.0,0.0,-1.0,-2.0
1.6951624164987592e+18,-2.0,1.0,-1.0,0.0,-3.0,-1.0,-2.0,-2.0
1.6951624165117468e+18,-1.0,-2.0,0.0,-1.0,-3.0,-3.0,0.0,0.0
1.6951624165117468e+18,-1.0,-1.0,-2.0,-2.0,0.0,-1.0,-1.0,-2.0
1.6951624165187653e+18,-1.0,-1.0,-2.0,-3.0,-1.0,0.0,-2.0,-1.0
1.6951624165187653e+18,-2.0,-2.0,0.0,0.0,-1.0,-1.0,-2.0,-1.0
1.6951624165347348e+18,0.0,0.0,-2.0,1.0,1.0,-1.0,-1.0,-1.0
1.6951624165347348e+18,-2.0,-2.0,-1.0,1.0,-2.0,-2.0,0.0,-1.0
1.6951624165357317e+18,0.0,0.0,-1.0,0.0,-1.0,-2.0,1.0,-1.0
1.6951624165367337e+18,-1.0,0.0,0.0,-1.0,0.0,0.0,0.0,0.0
1.6951624165567196e+18,1.0,0.0,0.0,-1.0,-2.0,1.0,-3.0,-1.0
1.6951624165577198e+18,-1.0,0.0,0.0,-2.0,1.0,1.0,-2.0,-1.0
1.695162416558718e+18,-2.0,0.0,-2.0,0.0,0.0,-1.0,-3.0,-1.0
1.695162416558718e+18,1.0,0.0,-1.0,-1.0,0.0,0.0,-1.0,-2.0
1.6951624165737124e+18,-1.0,-1.0,-2.0,2.0,-1.0,-1.0,0.0,-2.0
1.6951624165737124e+18,-3.0,-1.0,-2.0,-1.0,-3.0,1.0,-1.0,-1.0
1.695162416595697e+18,-1.0,0.0,-1.0,0.0,-2.0,-2.0,-2.0,-2.0
1.695162416595697e+18,-1.0,-1.0,-2.0,-2.0,-1.0,-1.0,0.0,-2.0
1.6951624165966968e+18,-2.0,0.0,0.0,-2.0,1.0,-1.0,0.0,1.0
1.6951624165966968e+18,-2.0,0.0,0.0,0.0,-1.0,-1.0,1.0,1.0
1.6951624165976963e+18,-2.0,-2.0,-1.0,1.0,2.0,2.0,0.0,2.0
1.6951624165976963e+18,0.0,0.0,3.0,0.0,1.0,0.0,0.0,-1.0
1.6951624166246802e+18,1.0,0.0,0.0,-1.0,3.0,1.0,0.0,-1.0
1.6951624166246802e+18,2.0,1.0,0.0,0.0,0.0,-1.0,1.0,0.0
1.6951624166256801e+18,1.0,0.0,1.0,-3.0,-1.0,0.0,0.0,-1.0
1.6951624166266788e+18,-1.0,0.0,0.0,-4.0,-1.0,0.0,-1.0,0.0
1.695162416631676e+18,0.0,-1.0,0.0,-1.0,-3.0,-1.0,-1.0,0.0
1.695162416631676e+18,0.0,1.0,0.0,-1.0,1.0,-1.0,-1.0,-1.0
1.6951624166386744e+18,1.0,0.0,0.0,0.0,0.0,0.0,-1.0,1.0
1.6951624166386744e+18,1.0,0.0,-1.0,1.0,-2.0,-1.0,1.0,-1.0
1.6951624166546698e+18,-3.0,-1.0,-2.0,-1.0,0.0,-1.0,-1.0,0.0
1.6951624166546698e+18,0.0,0.0,0.0,-1.0,-1.0,0.0,-1.0,-1.0
1.6951624166556628e+18,0.0,0.0,1.0,-2.0,1.0,-1.0,0.0,-1.0
1.695162416656664e+18,-1.0,0.0,0.0,-1.0,-1.0,1.0,-2.0,-1.0
1.6951624166771638e+18,-2.0,0.0,-1.0,-1.0,-1.0,0.0,0.0,1.0
1.6951624166771638e+18,-1.0,-2.0,0.0,1.0,-1.0,-2.0,0.0,0.0
1.69516241667817e+18,0.0,-2.0,-1.0,-1.0,0.0,-2.0,-1.0,0.0
1.6951624166791667e+18,0.0,-1.0,-1.0,-1.0,0.0,0.0,0.0,0.0
1.695162416700155e+18,0.0,-1.0,0.0,-1.0,-1.0,-1.0,-2.0,-2.0
1.695162416700155e+18,-2.0,-2.0,-2.0,0.0,-2.0,0.0,-1.0,-1.0
1.6951624167011538e+18,-1.0,-1.0,-1.0,-1.0,-3.0,0.0,-1.0,-2.0
1.6951624167011538e+18,-1.0,-1.0,0.0,-3.0,0.0,-1.0,0.0,-1.0
1.6951624167161454e+18,0.0,0.0,-1.0,0.0,2.0,0.0,-1.0,-1.0
1.6951624167221435e+18,-1.0,0.0,-1.0,-1.0,1.0,-1.0,-1.0,-1.0
1.6951624167221435e+18,-1.0,-2.0,-1.0,0.0,-1.0,-1.0,1.0,0.0
1.6951624167221435e+18,0.0,1.0,-1.0,-3.0,0.0,-1.0,-1.0,-1.0
1.6951624167371318e+18,-1.0,0.0,1.0,-3.0,-2.0,1.0,0.0,0.0
1.6951624167371318e+18,0.0,-1.0,0.0,0.0,-1.0,0.0,-2.0,-1.0
1.6951624167391324e+18,-2.0,1.0,-1.0,-1.0,0.0,-1.0,0.0,0.0
1.6951624167391324e+18,-1.0,0.0,-1.0,0.0,-2.0,-2.0,-1.0,-1.0
1.6951624167511265e+18,-1.0,0.0,0.0,-1.0,0.0,-2.0,-1.0,0.0
1.6951624167511265e+18,0.0,0.0,-2.0,0.0,-1.0,0.0,-1.0,-1.0
1.6951624167691146e+18,-2.0,-1.0,-1.0,-1.0,0.0,-1.0,-2.0,-1.0
1.6951624167691146e+18,-2.0,-1.0,1.0,-1.0,-2.0,-1.0,-1.0,-2.0
1.695162416782106e+18,0.0,-1.0,-2.0,-1.0,0.0,-1.0,-1.0,-2.0
1.695162416782106e+18,-1.0,-1.0,-1.0,-1.0,-1.0,-2.0,-2.0,-1.0
1.6951624167841057e+18,-1.0,-1.0,-3.0,-2.0,-2.0,1.0,1.0,0.0
1.6951624167841057e+18,0.0,-1.0,2.0,0.0,-1.0,-2.0,0.0,0.0
1.6951624167970995e+18,-1.0,1.0,5.0,4.0,8.0,2.0,3.0,1.0
1.695162416798099e+18,-1.0,-1.0,-3.0,-3.0,-1.0,-2.0,-1.0,0.0
1.6951624167990979e+18,-2.0,-1.0,-1.0,-2.0,-5.0,-2.0,-2.0,-3.0
1.6951624167990979e+18,-2.0,0.0,-6.0,0.0,-2.0,1.0,0.0,2.0
1.69516241681109e+18,-1.0,2.0,10.0,3.0,1.0,0.0,-4.0,-2.0
1.69516241681109e+18,1.0,0.0,0.0,0.0,-11.0,-6.0,-1.0,0.0
1.6951624168270838e+18,-1.0,-1.0,-4.0,-15.0,-9.0,-6.0,-2.0,-2.0
1.6951624168270838e+18,-1.0,-1.0,0.0,14.0,12.0,6.0,1.0,-1.0
1.695162416835076e+18,-2.0,0.0,-3.0,-8.0,-13.0,-2.0,0.0,-1.0
1.695162416835076e+18,-2.0,-6.0,2.0,6.0,12.0,7.0,3.0,0.0
1.6951624168360773e+18,-1.0,1.0,2.0,-1.0,-5.0,-7.0,-3.0,-1.0
1.6951624168360773e+18,-1.0,-3.0,-10.0,-18.0,-10.0,-2.0,-2.0,-2.0
1.6951624168570637e+18,-2.0,-1.0,-3.0,4.0,-2.0,-6.0,-1.0,-3.0
1.6951624168570637e+18,-1.0,1.0,0.0,-3.0,1.0,-3.0,1.0,0.0
1.6951624168640604e+18,0.0,-2.0,2.0,8.0,5.0,15.0,4.0,1.0
1.6951624168650596e+18,0.0,0.0,0.0,-4.0,3.0,-3.0,-2.0,0.0
1.6951624168740541e+18,0.0,-3.0,-6.0,-8.0,-5.0,-1.0,-3.0,-1.0
1.6951624168740541e+18,-3.0,-1.0,-1.0,-3.0,-3.0,-5.0,-3.0,0.0
1.6951624168870474e+18,-2.0,-1.0,2.0,8.0,1.0,-9.0,-3.0,-1.0
1.6951624168880468e+18,1.0,1.0,3.0,-1.0,-2.0,1.0,-3.0,0.0
1.6951624168950423e+18,-2.0,-2.0,-12.0,-3.0,-5.0,1.0,1.0,0.0
1.6951624168950423e+18,-1.0,-3.0,3.0,8.0,14.0,0.0,1.0,-1.0
1.695162416896042e+18,-1.0,-1.0,-5.0,-4.0,-3.0,0.0,1.0,1.0
1.6951624168970412e+18,-1.0,-2.0,12.0,4.0,-11.0,-9.0,-2.0,0.0
1.69516241691703e+18,-1.0,-1.0,-1.0,1.0,15.0,7.0,1.0,0.0
1.69516241691703e+18,1.0,2.0,-1.0,-7.0,0.0,6.0,1.0,0.0
1.6951624169280246e+18,-2.0,-1.0,-4.0,4.0,-1.0,0.0,1.0,0.0
1.6951624169300234e+18,-1.0,-2.0,-1.0,3.0,8.0,2.0,0.0,-1.0
1.6951624169400164e+18,-2.0,-3.0,-6.0,-4.0,-17.0,-16.0,-6.0,-4.0
1.6951624169400164e+18,0.0,1.0,-2.0,0.0,1.0,6.0,0.0,-1.0
1.695162416941016e+18,2.0,1.0,8.0,1.0,-2.0,-3.0,1.0,0.0
1.695162416941016e+18,-1.0,-2.0,-6.0,-5.0,-7.0,-4.0,-1.0,-1.0
1.695162416954009e+18,1.0,-2.0,-1.0,-3.0,9.0,16.0,2.0,0.0
1.695162416954009e+18,0.0,1.0,-2.0,-10.0,-19.0,-8.0,-2.0,-2.0
1.6951624169620037e+18,-3.0,-3.0,-1.0,0.0,-2.0,-6.0,-3.0,-1.0
1.6951624169630044e+18,-1.0,-1.0,2.0,3.0,16.0,6.0,3.0,1.0
1.6951624169779948e+18,-3.0,2.0,5.0,-3.0,-4.0,-4.0,0.0,-2.0
1.6951624169779948e+18,-2.0,1.0,-3.0,-10.0,-15.0,-9.0,-1.0,1.0
1.6951624169789947e+18,-1.0,-1.0,-6.0,-2.0,3.0,5.0,0.0,1.0
1.6951624169799951e+18,0.0,0.0,2.0,4.0,1.0,-10.0,-2.0,1.0
1.695162416990987e+18,-2.0,0.0,0.0,12.0,4.0,-2.0,1.0,2.0
1.695162416990987e+18,1.0,-1.0,1.0,-9.0,9.0,15.0,4.0,1.0
1.695162416999982e+18,-1.0,-5.0,-6.0,1.0,-10.0,-8.0,-1.0,-2.0
1.695162416999982e+18,-1.0,-1.0,-13.0,-11.0,-3.0,3.0,-4.0,-2.0
1.6951624170149965e+18,-1.0,2.0,18.0,-4.0,-16.0,-11.0,-3.0,0.0
1.6951624170159736e+18,1.0,3.0,3.0,5.0,5.0,-6.0,-2.0,-1.0
1.6951624170159736e+18,0.0,-6.0,-2.0,-2.0,3.0,4.0,3.0,0.0
1.6951624170169728e+18,0.0,-1.0,0.0,1.0,1.0,13.0,0.0,-3.0
1.6951624170369628e+18,0.0,-3.0,-8.0,-15.0,-22.0,-13.0,-4.0,-1.0
1.695162417037965e+18,-1.0,-3.0,-1.0,6.0,6.0,0.0,-4.0,-1.0
1.69516241703896e+18,-2.0,3.0,2.0,4.0,24.0,3.0,-3.0,-2.0
1.69516241703896e+18,-4.0,0.0,-5.0,-3.0,-7.0,-13.0,-2.0,-1.0
1.6951624170509522e+18,3.0,9.0,-3.0,-8.0,1.0,15.0,5.0,2.0
1.6951624170509522e+18,-4.0,-19.0,-2.0,8.0,9.0,4.0,-1.0,-4.0
1.6951624170599483e+18,-2.0,-7.0,-7.0,0.0,-9.0,-8.0,4.0,21.0
1.6951624170599483e+18,-1.0,13.0,8.0,-12.0,-23.0,-11.0,-10.0,-28.0
1.6951624170769403e+18,1.0,-3.0,-9.0,1.0,31.0,11.0,3.0,8.0
1.695162417079938e+18,0.0,-26.0,13.0,-18.0,-64.0,-30.0,-8.0,1.0
1.695162417079938e+18,-3.0,7.0,2.0,47.0,73.0,38.0,7.0,-5.0
1.6951624170809372e+18,1.0,0.0,6.0,8.0,-15.0,-3.0,7.0,5.0
1.6951624170959276e+18,-5.0,1.0,0.0,6.0,28.0,1.0,1.0,-6.0
1.695162417096927e+18,5.0,-2.0,-13.0,-6.0,8.0,11.0,1.0,-11.0
1.6951624171049219e+18,-1.0,12.0,4.0,-16.0,-47.0,-30.0,-18.0,21.0
1.6951624171049219e+18,-5.0,12.0,9.0,7.0,20.0,2.0,-1.0,-19.0
1.6951624171109181e+18,6.0,-26.0,-9.0,13.0,-1.0,8.0,14.0,7.0
1.6951624171109181e+18,-16.0,5.0,-3.0,11.0,16.0,-4.0,-16.0,-16.0
1.6951624171319073e+18,5.0,-7.0,11.0,-30.0,-40.0,-17.0,-20.0,-39.0
1.6951624171319073e+18,3.0,0.0,-32.0,20.0,21.0,-2.0,-7.0,41.0
1.6951624171498964e+18,4.0,4.0,15.0,-20.0,-25.0,-8.0,1.0,3.0
1.6951624171498964e+18,-2.0,6.0,9.0,9.0,26.0,24.0,9.0,-8.0
1.695162417150897e+18,-8.0,-8.0,-26.0,-7.0,-6.0,4.0,45.0,10.0
1.6951624171518956e+18,-12.0,-37.0,0.0,-29.0,-36.0,-8.0,-13.0,5.0
1.6951624171568914e+18,2.0,5.0,15.0,-1.0,-12.0,-16.0,-23.0,-19.0
1.6951624171568914e+18,9.0,6.0,-19.0,14.0,13.0,-5.0,-10.0,-7.0
1.6951624171648873e+18,-7.0,20.0,33.0,-12.0,-12.0,3.0,8.0,-15.0
1.6951624171648873e+18,0.0,-16.0,-15.0,9.0,16.0,10.0,2.0,-10.0
1.6951624171798794e+18,-2.0,4.0,8.0,19.0,13.0,0.0,2.0,15.0
1.6951624171798794e+18,-7.0,1.0,-6.0,-23.0,-10.0,-3.0,-6.0,-18.0
1.6951624171808786e+18,5.0,2.0,-3.0,-2.0,0.0,-1.0,10.0,26.0
1.6951624171808786e+18,2.0,5.0,4.0,2.0,11.0,4.0,-9.0,-21.0
1.6951624172198564e+18,0.0,0.0,-28.0,-2.0,-5.0,-3.0,-4.0,-11.0
1.6951624172238538e+18,-1.0,5.0,20.0,0.0,-10.0,-6.0,8.0,69.0
1.6951624172238538e+18,5.0,-21.0,-12.0,5.0,13.0,7.0,4.0,-12.0
1.6951624172248535e+18,-4.0,10.0,13.0,-7.0,-4.0,2.0,5.0,4.0
1.6951624172248535e+18,-3.0,2.0,-14.0,6.0,1.0,0.0,-9.0,-23.0
1.6951624172248535e+18,-6.0,-5.0,11.0,1.0,0.0,-3.0,-2.0,-25.0
1.69516241723285e+18,9.0,4.0,-27.0,-2.0,9.0,6.0,6.0,26.0
1.69516241723285e+18,-1.0,3.0,42.0,2.0,3.0,-3.0,0.0,-11.0
1.6951624172338478e+18,-2.0,0.0,-11.0,-5.0,-10.0,-6.0,-2.0,5.0
1.6951624172338478e+18,-2.0,0.0,-9.0,-7.0,-3.0,0.0,10.0,2.0
1.695162417239845e+18,2.0,6.0,11.0,12.0,12.0,3.0,-11.0,-7.0
1.695162417239845e+18,13.0,1.0,-17.0,-2.0,-6.0,-5.0,2.0,17.0
1.6951624172638316e+18,-13.0,-3.0,9.0,3.0,8.0,8.0,13.0,1.0
1.6951624172638316e+18,3.0,7.0,-5.0,1.0,-1.0,3.0,12.0,15.0
1.6951624172658342e+18,-7.0,-3.0,-29.0,-10.0,-12.0,-12.0,-35.0,-20.0
1.6951624172738268e+18,-4.0,-26.0,-10.0,-2.0,-5.0,-3.0,11.0,-7.0
1.6951624172768238e+18,8.0,4.0,10.0,1.0,2.0,1.0,-2.0,13.0
1.695162417277823e+18,2.0,-9.0,-44.0,-7.0,-1.0,1.0,-8.0,-24.0
1.6951624172788227e+18,-6.0,24.0,61.0,0.0,-10.0,-7.0,-7.0,34.0
1.6951624172798272e+18,1.0,-11.0,-58.0,0.0,6.0,1.0,9.0,1.0
1.6951624172908147e+18,-7.0,-8.0,8.0,-6.0,-1.0,1.0,-6.0,-13.0
1.6951624172908147e+18,-2.0,-1.0,15.0,-2.0,0.0,-1.0,3.0,-4.0
1.6951624172998103e+18,4.0,-8.0,-38.0,-9.0,-6.0,-4.0,-2.0,-16.0
1.6951624172998103e+18,-8.0,8.0,27.0,4.0,4.0,3.0,-1.0,-3.0
1.695162417329794e+18,1.0,4.0,0.0,-9.0,-10.0,-7.0,-3.0,0.0
1.695162417329794e+18,-3.0,-14.0,-11.0,3.0,5.0,4.0,-3.0,13.0
1.6951624173367898e+18,-2.0,-3.0,18.0,-1.0,2.0,0.0,-2.0,-16.0
1.6951624173367898e+18,-2.0,3.0,-6.0,-2.0,-4.0,3.0,4.0,3.0
1.6951624173457843e+18,3.0,1.0,-11.0,-1.0,-4.0,-4.0,-3.0,12.0
1.6951624173457843e+18,-2.0,4.0,3.0,-12.0,-14.0,-9.0,-7.0,5.0
1.695162417346785e+18,-1.0,-13.0,-10.0,0.0,2.0,3.0,-1.0,-12.0
1.695162417346785e+18,-3.0,3.0,-10.0,-2.0,-5.0,-1.0,-1.0,-2.0
1.695162417350781e+18,-2.0,-1.0,5.0,-10.0,-5.0,-5.0,4.0,-1.0
1.695162417350781e+18,3.0,7.0,-12.0,8.0,4.0,-2.0,-9.0,8.0
1.695162417366774e+18,-7.0,-3.0,23.0,-1.0,0.0,1.0,0.0,-11.0
1.695162417366774e+18,9.0,16.0,29.0,-4.0,-2.0,-3.0,2.0,19.0
1.695162417373768e+18,-7.0,-26.0,-61.0,0.0,-5.0,-1.0,0.0,-4.0
1.695162417373768e+18,-3.0,9.0,48.0,-4.0,-11.0,-6.0,4.0,-3.0
1.6951624173807636e+18,0.0,-23.0,-11.0,-1.0,3.0,-1.0,-8.0,-6.0
1.6951624173807636e+18,-3.0,4.0,0.0,-1.0,3.0,4.0,4.0,-10.0
1.6951624174067492e+18,0.0,1.0,31.0,3.0,4.0,3.0,0.0,19.0
1.6951624174067492e+18,6.0,12.0,-7.0,9.0,6.0,1.0,13.0,-12.0
1.6951624174067492e+18,1.0,-13.0,-17.0,-7.0,-6.0,-9.0,-19.0,14.0
1.6951624174067492e+18,-1.0,1.0,-22.0,-4.0,-4.0,-3.0,-3.0,1.0
1.6951624174107466e+18,-6.0,0.0,66.0,2.0,0.0,-1.0,15.0,-17.0
1.6951624174107466e+18,1.0,11.0,-5.0,0.0,-2.0,-4.0,-26.0,-4.0
1.6951624174197414e+18,2.0,14.0,8.0,0.0,-4.0,-2.0,11.0,2.0
1.6951624174207444e+18,0.0,-2.0,30.0,19.0,11.0,3.0,-6.0,4.0
1.69516241744173e+18,3.0,11.0,11.0,0.0,5.0,5.0,6.0,3.0
1.6951624174427295e+18,1.0,-9.0,-20.0,-17.0,-10.0,0.0,5.0,-8.0
1.6951624174457272e+18,-8.0,-1.0,-1.0,13.0,1.0,0.0,3.0,-10.0
1.6951624174457272e+18,-2.0,19.0,1.0,3.0,6.0,0.0,-3.0,-3.0
1.6951624174567204e+18,-6.0,-13.0,-12.0,3.0,3.0,2.0,-3.0,-4.0
1.69516241745772e+18,3.0,4.0,30.0,5.0,-6.0,0.0,1.0,1.0
1.69516241745872e+18,4.0,-26.0,-54.0,-1.0,7.0,0.0,1.0,-15.0
1.6951624174597207e+18,-7.0,1.0,-2.0,-3.0,3.0,1.0,-3.0,14.0
1.695162417479708e+18,-2.0,-13.0,-40.0,-1.0,-3.0,-3.0,-6.0,1.0
1.695162417480707e+18,-1.0,5.0,-20.0,-1.0,-2.0,-3.0,-1.0,-5.0
1.695162417480707e+18,-5.0,11.0,1.0,-2.0,-5.0,0.0,0.0,12.0
1.6951624174817057e+18,-6.0,2.0,-9.0,-6.0,-8.0,-3.0,2.0,-16.0
1.6951624174940575e+18,18.0,22.0,-18.0,-7.0,-2.0,-2.0,3.0,26.0
1.6951624174940575e+18,0.0,-19.0,55.0,10.0,0.0,-3.0,-6.0,-3.0
1.6951624175007708e+18,-2.0,-22.0,11.0,9.0,9.0,6.0,1.0,4.0
1.6951624175007708e+18,2.0,-9.0,-2.0,-4.0,-5.0,-4.0,4.0,16.0
1.6951624175171395e+18,7.0,-2.0,15.0,1.0,-4.0,-4.0,-10.0,-8.0
1.6951624175171395e+18,-5.0,7.0,-22.0,3.0,6.0,3.0,7.0,2.0
1.695162417518155e+18,7.0,9.0,35.0,5.0,0.0,3.0,7.0,-5.0
1.695162417519153e+18,-6.0,-29.0,-45.0,-30.0,-14.0,-3.0,-2.0,4.0
1.6951624175384957e+18,-11.0,23.0,-11.0,11.0,4.0,-3.0,-8.0,-28.0
1.6951624175394903e+18,-3.0,7.0,23.0,-5.0,-6.0,-1.0,2.0,0.0
1.6951624175474826e+18,0.0,12.0,-64.0,-2.0,-12.0,-7.0,-7.0,-8.0
1.6951624175474826e+18,5.0,-16.0,-18.0,3.0,14.0,2.0,1.0,6.0
1.6951624175564792e+18,0.0,-3.0,2.0,12.0,17.0,6.0,2.0,2.0
1.695162417560477e+18,-6.0,-9.0,-13.0,-5.0,10.0,3.0,2.0,13.0
1.695162417560477e+18,-8.0,-28.0,56.0,1.0,-4.0,2.0,2.0,2.0
1.6951624175614812e+18,3.0,3.0,-3.0,-2.0,-13.0,-6.0,-4.0,-9.0
1.6951624175764652e+18,-3.0,1.0,-40.0,-5.0,6.0,4.0,5.0,-8.0
1.6951624175764652e+18,-1.0,-2.0,-3.0,5.0,-4.0,-4.0,3.0,-19.0
1.6951624175844818e+18,11.0,19.0,-3.0,-17.0,2.0,-6.0,-22.0,30.0
1.6951624175844818e+18,-3.0,22.0,11.0,3.0,-5.0,-2.0,-1.0,-14.0
1.6951624176068685e+18,3.0,-1.0,12.0,-6.0,-4.0,-1.0,-2.0,3.0
1.6951624176068685e+18,6.0,5.0,-11.0,11.0,6.0,3.0,8.0,7.0
1.695162417608857e+18,-11.0,34.0,41.0,-7.0,1.0,7.0,15.0,-41.0
1.695162417608857e+18,-4.0,-2.0,-27.0,2.0,2.0,-8.0,-18.0,0.0
1.6951624176128576e+18,-7.0,-14.0,-4.0,-1.0,-5.0,-2.0,1.0,18.0
1.6951624176138545e+18,-5.0,-3.0,-9.0,4.0,-7.0,-5.0,-10.0,-11.0
1.6951624176218732e+18,5.0,-3.0,-1.0,-4.0,-2.0,0.0,6.0,10.0
1.6951624176218732e+18,1.0,13.0,20.0,0.0,1.0,2.0,0.0,-5.0
1.6951624176370847e+18,-3.0,-27.0,24.0,17.0,-4.0,-2.0,-3.0,2.0
1.695162417638096e+18,-3.0,-9.0,0.0,-12.0,-15.0,-3.0,-1.0,6.0
1.695162417639089e+18,0.0,-2.0,-4.0,13.0,26.0,6.0,3.0,10.0
1.695162417639089e+18,-8.0,-32.0,27.0,2.0,-1.0,3.0,-1.0,-14.0
1.6951624176671862e+18,5.0,11.0,-14.0,-7.0,2.0,0.0,-2.0,-1.0
1.6951624176671862e+18,1.0,5.0,-26.0,4.0,-1.0,1.0,4.0,2.0
1.6951624176681933e+18,0.0,-6.0,21.0,-7.0,-8.0,-3.0,-4.0,2.0
1.695162417669191e+18,-1.0,12.0,2.0,-7.0,-2.0,-3.0,6.0,0.0
1.6951624176825032e+18,1.0,7.0,39.0,-5.0,-4.0,-3.0,-7.0,1.0
1.6951624176825032e+18,-1.0,-18.0,0.0,5.0,8.0,4.0,-1.0,-2.0
1.695162417683504e+18,-1.0,-10.0,-7.0,-5.0,-4.0,-4.0,8.0,6.0
1.695162417683504e+18,5.0,2.0,2.0,5.0,0.0,-2.0,-5.0,-1.0
1.6951624177205606e+18,-4.0,-3.0,39.0,-5.0,-10.0,-4.0,-2.0,-6.0
1.6951624177215593e+18,2.0,-7.0,-17.0,2.0,8.0,4.0,4.0,13.0
1.6951624177225805e+18,0.0,6.0,6.0,3.0,1.0,0.0,-7.0,-5.0
1.6951624177225805e+18,0.0,-10.0,13.0,-2.0,-10.0,-3.0,1.0,-3.0
1.6951624177235564e+18,2.0,-10.0,12.0,-2.0,4.0,3.0,6.0,-2.0
1.6951624177235564e+18,-4.0,12.0,-21.0,11.0,8.0,2.0,-5.0,2.0
1.6951624177355525e+18,-1.0,1.0,11.0,-13.0,-16.0,-6.0,-3.0,-6.0
1.6951624177355525e+18,0.0,4.0,-11.0,13.0,16.0,3.0,-2.0,-5.0
1.695162417736549e+18,1.0,9.0,9.0,-3.0,-10.0,-8.0,-3.0,9.0
1.695162417736549e+18,1.0,2.0,8.0,4.0,10.0,4.0,-1.0,-1.0
1.6951624177495414e+18,-6.0,-5.0,20.0,0.0,-15.0,-8.0,-6.0,-8.0
1.6951624177495414e+18,3.0,2.0,2.0,11.0,6.0,9.0,6.0,7.0
1.6951624177575378e+18,-6.0,-7.0,-45.0,-11.0,-6.0,-5.0,-4.0,-28.0
1.6951624177595543e+18,-3.0,-7.0,16.0,-4.0,-1.0,-2.0,2.0,8.0
1.6951624177605535e+18,8.0,5.0,-38.0,-3.0,-1.0,-3.0,-10.0,21.0
1.6951624177605535e+18,2.0,2.0,28.0,1.0,-5.0,-2.0,3.0,-3.0
1.6951624177792325e+18,-3.0,0.0,-16.0,-1.0,1.0,1.0,4.0,-2.0
1.6951624177802345e+18,-4.0,1.0,12.0,-14.0,-7.0,0.0,7.0,-15.0
1.6951624177872276e+18,-2.0,9.0,10.0,9.0,7.0,-1.0,-8.0,-4.0
1.6951624177872276e+18,0.0,-8.0,-9.0,0.0,6.0,2.0,5.0,9.0
1.6951624177932237e+18,-1.0,-1.0,-7.0,-8.0,-1.0,1.0,-10.0,-25.0
1.6951624177932237e+18,-3.0,9.0,-10.0,-1.0,-7.0,-5.0,-1.0,-1.0
1.6951624178192302e+18,4.0,0.0,1.0,-7.0,1.0,3.0,6.0,2.0
1.6951624178202074e+18,-5.0,-10.0,-11.0,-5.0,-8.0,-3.0,-6.0,-7.0
1.6951624178202074e+18,-1.0,8.0,4.0,6.0,6.0,-1.0,0.0,7.0
1.695162417821208e+18,1.0,-14.0,-8.0,-6.0,-1.0,-2.0,0.0,1.0
1.6951624178312243e+18,-4.0,3.0,-2.0,6.0,4.0,1.0,1.0,-4.0
1.6951624178312243e+18,1.0,-6.0,11.0,-5.0,-4.0,-3.0,-1.0,8.0
1.6951624178474511e+18,-2.0,7.0,-22.0,1.0,0.0,2.0,-1.0,2.0
1.6951624178474511e+18,1.0,-4.0,0.0,1.0,2.0,0.0,-4.0,-3.0
1.695162417848452e+18,0.0,0.0,-8.0,-3.0,-3.0,-2.0,0.0,4.0
1.695162417848452e+18,-1.0,11.0,-3.0,-11.0,-11.0,-5.0,-1.0,-3.0
1.695162417853447e+18,-2.0,-6.0,-10.0,-1.0,1.0,2.0,1.0,7.0
1.695162417853447e+18,1.0,4.0,-6.0,1.0,4.0,-1.0,-4.0,-19.0
1.6951624178694382e+18,-4.0,-9.0,-10.0,-2.0,-1.0,1.0,3.0,-7.0
1.6951624178694382e+18,1.0,8.0,-5.0,-3.0,-4.0,0.0,-6.0,-1.0
1.6951624178764334e+18,0.0,-4.0,0.0,7.0,4.0,0.0,2.0,5.0
1.6951624178764334e+18,1.0,0.0,-13.0,-7.0,-3.0,-1.0,2.0,23.0
1.69516241788443e+18,-2.0,3.0,3.0,-4.0,-3.0,-4.0,-7.0,-18.0
1.69516241788443e+18,2.0,5.0,-8.0,-2.0,0.0,-1.0,1.0,-1.0
1.6951624178996618e+18,0.0,-4.0,2.0,1.0,-3.0,-1.0,0.0,6.0
1.6951624178996618e+18,-3.0,-16.0,-16.0,-3.0,-1.0,0.0,0.0,2.0
1.6951624179016643e+18,0.0,0.0,-21.0,-1.0,2.0,2.0,2.0,1.0
1.6951624179016643e+18,-4.0,-7.0,-30.0,-1.0,-3.0,0.0,-2.0,-2.0
1.6951624179226194e+18,-1.0,4.0,8.0,-2.0,-1.0,-1.0,-1.0,-2.0
1.6951624179226194e+18,1.0,12.0,29.0,-1.0,-1.0,0.0,-2.0,-3.0
1.6951624179236188e+18,-2.0,-3.0,-4.0,1.0,0.0,0.0,0.0,-2.0
1.6951624179236188e+18,1.0,0.0,-18.0,-3.0,2.0,-1.0,2.0,0.0
1.6951624179370857e+18,-1.0,0.0,2.0,-1.0,-3.0,-1.0,1.0,0.0
1.6951624179380902e+18,0.0,0.0,5.0,-1.0,0.0,-2.0,-3.0,1.0
1.6951624179380902e+18,-2.0,0.0,4.0,1.0,0.0,0.0,0.0,1.0
1.6951624179390902e+18,0.0,0.0,11.0,0.0,-3.0,-1.0,1.0,1.0
1.6951624179592236e+18,0.0,-1.0,1.0,-1.0,-3.0,-2.0,0.0,2.0
1.6951624179602237e+18,-3.0,0.0,-3.0,-2.0,-2.0,-2.0,-3.0,-3.0
1.6951624179612224e+18,-3.0,-1.0,-1.0,1.0,1.0,0.0,1.0,-1.0
1.6951624179622228e+18,-1.0,0.0,-11.0,-3.0,0.0,0.0,1.0,0.0
1.6951624179818903e+18,-1.0,-3.0,-9.0,-3.0,-2.0,-1.0,-1.0,-1.0
1.695162417982858e+18,-3.0,2.0,1.0,1.0,-2.0,-1.0,-3.0,-5.0
1.695162417983866e+18,1.0,-2.0,-8.0,-2.0,-1.0,1.0,0.0,0.0
1.695162417983866e+18,7.0,5.0,10.0,-1.0,2.0,1.0,1.0,3.0
1.695162417997611e+18,-4.0,-6.0,3.0,0.0,0.0,-2.0,-2.0,-3.0
1.695162417997611e+18,3.0,2.0,-4.0,-5.0,-2.0,-1.0,-1.0,1.0
1.6951624179988127e+18,-4.0,-2.0,-5.0,2.0,3.0,1.0,1.0,-2.0
1.6951624179988127e+18,-2.0,-2.0,5.0,5.0,-1.0,-2.0,-1.0,-1.0
1.6951624180206e+18,3.0,6.0,29.0,5.0,0.0,-1.0,-1.0,-2.0
1.6951624180206e+18,7.0,0.0,-1.0,-7.0,-3.0,-2.0,-1.0,1.0
1.695162418021599e+18,-5.0,-7.0,-19.0,-2.0,-1.0,1.0,0.0,0.0
1.695162418021599e+18,7.0,-5.0,-1.0,-8.0,-1.0,1.0,1.0,15.0
1.695162418036616e+18,-27.0,-1.0,-12.0,-2.0,-1.0,-3.0,-6.0,-29.0
1.6951624180376128e+18,-2.0,-1.0,18.0,19.0,-2.0,-2.0,-3.0,-2.0
1.6951624180425859e+18,1.0,0.0,0.0,1.0,0.0,-1.0,-1.0,0.0
1.6951624180425859e+18,-6.0,-1.0,7.0,-9.0,-1.0,-3.0,-1.0,-4.0
1.695162418064597e+18,7.0,0.0,-9.0,-2.0,-1.0,0.0,1.0,11.0
1.6951624180715694e+18,0.0,-1.0,6.0,5.0,0.0,-1.0,0.0,0.0
1.6951624180715694e+18,2.0,-1.0,-11.0,-2.0,0.0,-2.0,-1.0,-4.0
1.6951624180725678e+18,-7.0,-4.0,5.0,10.0,3.0,1.0,0.0,0.0
1.6951624180795645e+18,11.0,3.0,-5.0,-6.0,2.0,0.0,1.0,5.0
1.6951624180805645e+18,-9.0,-7.0,-15.0,-12.0,-5.0,-2.0,-4.0,-6.0
1.6951624180815634e+18,8.0,4.0,6.0,5.0,-5.0,-2.0,2.0,6.0
1.6951624180815634e+18,-4.0,-2.0,0.0,-7.0,-1.0,-1.0,0.0,-5.0
1.695162418093556e+18,2.0,1.0,-3.0,1.0,2.0,4.0,0.0,2.0
1.695162418093556e+18,-2.0,-1.0,7.0,9.0,2.0,-1.0,-2.0,-1.0
1.695162418107548e+18,-5.0,-3.0,-6.0,-9.0,-2.0,-3.0,-2.0,-3.0
1.695162418107548e+18,5.0,3.0,3.0,-1.0,-3.0,-3.0,-4.0,-4.0
1.6951624181165663e+18,-2.0,-2.0,-8.0,-3.0,-5.0,-5.0,-1.0,0.0
1.695162418117546e+18,2.0,-1.0,2.0,-1.0,2.0,2.0,1.0,1.0
1.69516241812354e+18,1.0,-1.0,-1.0,1.0,2.0,2.0,-1.0,-2.0
1.69516241812354e+18,-4.0,-1.0,3.0,4.0,-2.0,-2.0,-1.0,-1.0
1.6951624181392156e+18,3.0,-1.0,-1.0,2.0,-3.0,-2.0,0.0,4.0
1.695162418140214e+18,0.0,-1.0,-3.0,-8.0,-3.0,-3.0,-1.0,-1.0
1.6951624181412142e+18,-1.0,0.0,0.0,-4.0,-5.0,-3.0,-2.0,0.0
1.6951624181412142e+18,0.0,1.0,7.0,0.0,-1.0,0.0,-1.0,-2.0
1.695162418153207e+18,-1.0,-3.0,-6.0,0.0,4.0,1.0,2.0,3.0
1.695162418153207e+18,-2.0,0.0,-3.0,-2.0,-1.0,-3.0,0.0,-1.0
1.695162418162202e+18,-1.0,-1.0,-4.0,-1.0,-1.0,-1.0,1.0,-1.0
1.695162418162202e+18,0.0,-3.0,3.0,0.0,-2.0,-3.0,-1.0,0.0
1.6951624181775818e+18,1.0,1.0,-3.0,-3.0,-3.0,-1.0,-2.0,-1.0
1.6951624181775818e+18,0.0,1.0,-2.0,-1.0,-2.0,0.0,1.0,0.0
1.6951624181786068e+18,0.0,-2.0,1.0,0.0,-1.0,2.0,1.0,2.0
1.6951624181786068e+18,-2.0,-1.0,-4.0,1.0,0.0,-1.0,-1.0,-1.0
1.6951624181995853e+18,-2.0,0.0,1.0,0.0,0.0,0.0,0.0,0.0
1.6951624181995853e+18,0.0,0.0,-2.0,-3.0,0.0,1.0,-1.0,0.0
1.6951624182015603e+18,-2.0,0.0,1.0,-1.0,-1.0,-2.0,-2.0,-1.0
1.6951624182015603e+18,-1.0,-1.0,-2.0,-1.0,-2.0,-1.0,1.0,-2.0
1.695162418214559e+18,0.0,-1.0,-1.0,-2.0,-2.0,-2.0,-1.0,0.0
1.695162418214559e+18,1.0,0.0,2.0,-1.0,1.0,-2.0,-1.0,1.0
1.6951624182225477e+18,1.0,-2.0,-1.0,-1.0,1.0,0.0,0.0,-1.0
1.6951624182225477e+18,-2.0,0.0,-2.0,-1.0,0.0,1.0,-1.0,-3.0
1.6951624182362806e+18,0.0,-3.0,-1.0,-1.0,0.0,-2.0,0.0,0.0
1.6951624182372838e+18,-1.0,-2.0,-1.0,-3.0,-1.0,-1.0,-2.0,0.0
1.6951624182435786e+18,-2.0,-1.0,-1.0,0.0,1.0,0.0,1.0,-2.0
1.6951624182435786e+18,-2.0,0.0,-1.0,-3.0,-1.0,-1.0,0.0,-1.0
1.6951624182596626e+18,-1.0,-1.0,1.0,0.0,-2.0,1.0,1.0,0.0
1.6951624182596626e+18,0.0,1.0,-3.0,-1.0,0.0,0.0,-1.0,-2.0
1.695162418261665e+18,0.0,0.0,-2.0,1.0,0.0,-1.0,-2.0,0.0
1.695162418261665e+18,-1.0,-2.0,0.0,0.0,-1.0,-2.0,-1.0,-1.0
1.6951624182736594e+18,0.0,-1.0,0.0,-1.0,-1.0,-1.0,-1.0,0.0
1.6951624182736594e+18,-1.0,-1.0,-1.0,-4.0,1.0,0.0,1.0,-3.0
1.6951624182866742e+18,-1.0,1.0,-1.0,-1.0,-1.0,-1.0,0.0,-2.0
1.6951624182866742e+18,-2.0,-2.0,-1.0,1.0,-1.0,-1.0,0.0,0.0
1.69516241829665e+18,-1.0,-2.0,-1.0,0.0,-2.0,-2.0,-1.0,0.0
1.69516241829665e+18,-1.0,-2.0,-2.0,0.0,-1.0,-2.0,-1.0,-2.0
1.6951624183036406e+18,-1.0,-2.0,0.0,-1.0,-2.0,-1.0,-3.0,-1.0
1.6951624183036406e+18,0.0,2.0,1.0,0.0,1.0,-1.0,0.0,-1.0
1.6951624183278638e+18,-3.0,-5.0,-4.0,-1.0,0.0,-1.0,-2.0,-1.0
1.6951624183278638e+18,0.0,-1.0,3.0,0.0,-1.0,-2.0,-2.0,0.0
1.695162418329865e+18,-3.0,-2.0,-3.0,-3.0,-1.0,0.0,-1.0,-1.0
1.695162418329865e+18,-2.0,1.0,1.0,1.0,-1.0,-2.0,-2.0,-2.0
1.695162418342855e+18,1.0,3.0,11.0,1.0,0.0,-1.0,0.0,-1.0
1.695162418342855e+18,-2.0,-1.0,0.0,-1.0,-1.0,0.0,-1.0,0.0
1.695162418343855e+18,0.0,-4.0,-6.0,-2.0,0.0,-1.0,1.0,-1.0
1.695162418343855e+18,1.0,-3.0,-10.0,-2.0,0.0,-2.0,-1.0,0.0
1.6951624183678454e+18,0.0,0.0,-2.0,-1.0,-1.0,0.0,-1.0,0.0
1.6951624183688458e+18,-2.0,-1.0,2.0,-1.0,-2.0,-1.0,-1.0,0.0
1.6951624183748426e+18,0.0,0.0,2.0,0.0,0.0,-1.0,-2.0,-1.0
1.6951624183758428e+18,0.0,-2.0,-2.0,-1.0,-1.0,0.0,0.0,-1.0
1.695162418379835e+18,0.0,0.0,0.0,0.0,-1.0,0.0,-2.0,-1.0
1.6951624183818332e+18,-1.0,-1.0,-3.0,0.0,0.0,0.0,0.0,-1.0
1.6951624183818332e+18,-2.0,-2.0,-1.0,-1.0,-1.0,0.0,0.0,1.0
1.6951624183818332e+18,-1.0,0.0,2.0,0.0,-1.0,-2.0,-2.0,-2.0
1.695162418393829e+18,-1.0,-1.0,0.0,0.0,-1.0,-1.0,-2.0,-2.0
1.695162418393829e+18,-1.0,0.0,-4.0,-1.0,-2.0,0.0,-1.0,-1.0
1.6951624184028206e+18,0.0,0.0,4.0,-1.0,-2.0,-1.0,-2.0,0.0
1.6951624184028206e+18,0.0,-3.0,-1.0,-1.0,-2.0,1.0,-1.0,-1.0
1.6951624184248082e+18,0.0,-1.0,-9.0,-4.0,-2.0,0.0,-1.0,-1.0
1.6951624184258063e+18,0.0,0.0,1.0,-3.0,0.0,1.0,0.0,0.0
1.6951624184268116e+18,0.0,1.0,-1.0,0.0,-1.0,-1.0,-1.0,0.0
1.6951624184268116e+18,0.0,-1.0,3.0,-1.0,-2.0,-1.0,1.0,0.0
1.6951624184418017e+18,-1.0,0.0,0.0,0.0,-1.0,-1.0,0.0,0.0
1.6951624184428037e+18,0.0,-1.0,-2.0,-1.0,0.0,-1.0,0.0,1.0
1.6951624184428037e+18,-1.0,0.0,1.0,0.0,0.0,-1.0,0.0,-2.0
1.695162418443797e+18,-2.0,0.0,2.0,-1.0,-1.0,0.0,0.0,-1.0
1.6951624184637852e+18,0.0,-2.0,-3.0,0.0,-2.0,-1.0,0.0,-1.0
1.6951624184717814e+18,-1.0,-1.0,-2.0,1.0,0.0,-1.0,-1.0,-1.0
1.6951624184727875e+18,-2.0,0.0,1.0,-1.0,-2.0,0.0,-1.0,-1.0
1.6951624184727875e+18,0.0,1.0,-4.0,1.0,0.0,-2.0,-1.0,-1.0
1.6951624184767767e+18,-1.0,-1.0,-2.0,-1.0,1.0,-1.0,1.0,1.0
1.6951624184767767e+18,0.0,-2.0,0.0,1.0,-2.0,-2.0,0.0,-1.0
1.6951624185005018e+18,-1.0,-2.0,-4.0,0.0,-2.0,-1.0,0.0,0.0
1.6951624185005018e+18,-1.0,-1.0,-1.0,1.0,-1.0,0.0,1.0,0.0
1.6951624185015012e+18,0.0,2.0,-1.0,-2.0,1.0,0.0,-2.0,-1.0
1.6951624185015012e+18,0.0,-1.0,-1.0,0.0,-1.0,0.0,0.0,-1.0
1.6951624185025032e+18,2.0,-2.0,-1.0,-1.0,0.0,-1.0,1.0,-1.0
1.6951624185035003e+18,-2.0,-1.0,-2.0,-2.0,-1.0,0.0,-1.0,2.0
1.695162418529487e+18,-1.0,-1.0,2.0,0.0,-1.0,-1.0,-2.0,-3.0
1.695162418529487e+18,-2.0,-2.0,-2.0,-1.0,0.0,-3.0,-2.0,1.0
1.6951624185314826e+18,-1.0,-3.0,-1.0,-1.0,0.0,0.0,-1.0,-1.0
1.6951624185314826e+18,-1.0,0.0,1.0,0.0,0.0,1.0,-1.0,-1.0
1.6951624185364803e+18,0.0,-1.0,-1.0,-1.0,1.0,1.0,0.0,0.0
1.6951624185364803e+18,-1.0,0.0,-3.0,-2.0,-1.0,0.0,-2.0,-1.0
1.695162418550747e+18,-1.0,-1.0,-1.0,0.0,-2.0,-2.0,-3.0,-1.0
1.695162418550747e+18,-1.0,-1.0,0.0,-1.0,0.0,-1.0,0.0,-2.0
1.6951624185596073e+18,-1.0,1.0,1.0,-2.0,-2.0,0.0,-1.0,-2.0
1.6951624185596073e+18,-1.0,-1.0,-2.0,0.0,0.0,-1.0,-1.0,-2.0
1.6951624185606052e+18,-1.0,1.0,0.0,1.0,-1.0,-1.0,-2.0,-1.0
1.6951624185616064e+18,0.0,-1.0,-2.0,-2.0,-3.0,0.0,-3.0,0.0
1.6951624185895892e+18,-1.0,-3.0,0.0,1.0,-2.0,0.0,-3.0,2.0
1.6951624185895892e+18,-1.0,-1.0,0.0,-2.0,-1.0,-1.0,0.0,0.0
1.6951624185906115e+18,-1.0,1.0,-2.0,-3.0,-1.0,-1.0,-2.0,0.0
1.6951624185915873e+18,0.0,-1.0,1.0,0.0,-1.0,-2.0,0.0,0.0
1.6951624185955476e+18,0.0,-1.0,0.0,-1.0,-1.0,0.0,2.0,-2.0
1.695162418596553e+18,-1.0,-1.0,-1.0,-1.0,-1.0,1.0,-2.0,-2.0
1.6951624186045809e+18,0.0,0.0,-1.0,0.0,-1.0,0.0,-1.0,-1.0
1.6951624186045809e+18,-1.0,0.0,-1.0,-1.0,-1.0,0.0,0.0,-1.0
1.695162418627455e+18,-1.0,0.0,-2.0,-1.0,1.0,-3.0,-1.0,-1.0
1.695162418627455e+18,-1.0,1.0,-1.0,-1.0,-1.0,0.0,0.0,-1.0
1.695162418628455e+18,-2.0,0.0,-1.0,-1.0,0.0,-1.0,0.0,-2.0
1.6951624186294636e+18,-1.0,-2.0,-1.0,0.0,0.0,0.0,-1.0,-2.0
1.6951624186424458e+18,-1.0,0.0,-1.0,0.0,-2.0,-2.0,-1.0,0.0
1.695162418643449e+18,1.0,-1.0,0.0,2.0,-1.0,-2.0,-1.0,-2.0
1.6951624186444452e+18,1.0,-1.0,0.0,0.0,0.0,1.0,0.0,-1.0
1.6951624186444452e+18,1.0,0.0,0.0,-1.0,0.0,-1.0,0.0,0.0
1.6951624186554716e+18,-1.0,-1.0,-2.0,-1.0,-1.0,0.0,-2.0,-1.0
1.6951624186564434e+18,0.0,0.0,0.0,-2.0,-1.0,-3.0,-1.0,1.0
1.6951624186649843e+18,-1.0,-1.0,-1.0,0.0,-1.0,-1.0,-1.0,0.0
1.6951624186649843e+18,-1.0,-1.0,-1.0,-2.0,0.0,0.0,-2.0,-1.0
1.69516241867961e+18,-1.0,-2.0,-2.0,-1.0,-1.0,-2.0,1.0,-1.0
1.69516241867961e+18,-1.0,-1.0,-2.0,0.0,-2.0,-1.0,0.0,-1.0
1.695162418681612e+18,0.0,-2.0,-1.0,-1.0,0.0,-1.0,0.0,-1.0
1.695162418681612e+18,0.0,0.0,1.0,0.0,0.0,0.0,-2.0,-1.0
1.695162418702335e+18,0.0,0.0,0.0,0.0,-1.0,-1.0,0.0,-1.0
1.695162418703336e+18,-1.0,-2.0,-2.0,-1.0,1.0,-1.0,-1.0,-1.0
1.6951624187043395e+18,0.0,1.0,-2.0,0.0,-2.0,-1.0,0.0,0.0
1.6951624187053353e+18,-1.0,0.0,-1.0,-1.0,-2.0,-2.0,-1.0,0.0
1.695162418716328e+18,-2.0,-3.0,-5.0,0.0,-2.0,-1.0,0.0,-2.0
1.6951624187173356e+18,-1.0,1.0,3.0,-2.0,0.0,1.0,-1.0,0.0
1.6951624187333184e+18,0.0,-2.0,-8.0,1.0,-1.0,0.0,-1.0,-1.0
1.695162418734318e+18,1.0,0.0,1.0,-1.0,-1.0,0.0,0.0,0.0
1.695162418741321e+18,0.0,1.0,1.0,0.0,-1.0,0.0,-2.0,-2.0
1.695162418741321e+18,1.0,-4.0,-4.0,-2.0,-1.0,1.0,-1.0,-1.0
1.6951624187423206e+18,0.0,1.0,4.0,0.0,-1.0,-1.0,-2.0,-1.0
1.6951624187423206e+18,0.0,-3.0,0.0,0.0,-1.0,-2.0,-1.0,-1.0
1.6951624187703316e+18,-1.0,-2.0,-1.0,-1.0,-1.0,0.0,0.0,-1.0
1.6951624187763277e+18,-1.0,-1.0,-1.0,1.0,-1.0,1.0,1.0,-1.0
1.695162418777301e+18,0.0,-1.0,1.0,-1.0,1.0,-1.0,-1.0,0.0
1.6951624187782935e+18,-1.0,-1.0,-3.0,0.0,-1.0,-2.0,-1.0,-1.0
1.6951624187782935e+18,0.0,0.0,0.0,-1.0,-1.0,-2.0,-2.0,0.0
1.6951624187792934e+18,0.0,2.0,-1.0,0.0,1.0,-1.0,-1.0,0.0
1.6951624187942866e+18,0.0,-1.0,-1.0,0.0,0.0,-1.0,0.0,-1.0
1.6951624187952852e+18,0.0,0.0,-3.0,0.0,-1.0,-1.0,-1.0,-1.0
1.6951624187992814e+18,-1.0,-1.0,-1.0,0.0,-3.0,-1.0,-2.0,-2.0
1.6951624188002831e+18,-2.0,-1.0,0.0,-1.0,-1.0,-2.0,0.0,-1.0
1.695162418815272e+18,-1.0,-1.0,-1.0,-1.0,0.0,0.0,0.0,0.0
1.6951624188172746e+18,-1.0,-2.0,0.0,-1.0,0.0,0.0,-1.0,-1.0
1.6951624188312635e+18,-1.0,-1.0,0.0,1.0,-1.0,1.0,0.0,-1.0
1.6951624188322614e+18,0.0,-1.0,-1.0,-1.0,-1.0,-1.0,-1.0,0.0
1.6951624188332613e+18,-2.0,0.0,1.0,-1.0,-1.0,0.0,-2.0,1.0
1.6951624188332613e+18,-1.0,0.0,1.0,-1.0,-1.0,0.0,-2.0,0.0
1.6951624188452547e+18,-1.0,0.0,0.0,0.0,0.0,-2.0,0.0,0.0
1.6951624188472545e+18,0.0,0.0,3.0,1.0,0.0,-2.0,-3.0,-1.0
1.6951624188482524e+18,-1.0,-2.0,-13.0,-1.0,0.0,-2.0,0.0,-1.0
1.6951624188492516e+18,0.0,1.0,0.0,0.0,-1.0,0.0,-1.0,0.0
1.6951624188672425e+18,0.0,0.0,-2.0,0.0,-1.0,0.0,-2.0,-1.0
1.6951624188682414e+18,0.0,-1.0,-2.0,-1.0,1.0,0.0,-1.0,1.0
1.6951624188692462e+18,-1.0,1.0,2.0,-1.0,-3.0,-1.0,1.0,1.0
1.6951624188692462e+18,-1.0,-1.0,-2.0,0.0,-1.0,-2.0,0.0,-2.0
1.6951624188822323e+18,1.0,0.0,-1.0,-1.0,1.0,-2.0,-1.0,0.0
1.695162418883232e+18,0.0,0.0,0.0,-1.0,0.0,-3.0,-2.0,-2.0
1.6951624188842317e+18,-1.0,-1.0,-2.0,0.0,-1.0,0.0,-1.0,-2.0
1.6951624188842317e+18,-2.0,-1.0,-2.0,-1.0,-2.0,-1.0,-1.0,2.0
1.6951624189202115e+18,0.0,-1.0,1.0,0.0,0.0,0.0,-1.0,-2.0
1.6951624189242107e+18,-3.0,0.0,-2.0,-1.0,-1.0,2.0,-1.0,0.0
1.695162418927208e+18,1.0,-1.0,2.0,-2.0,1.0,-1.0,-1.0,0.0
1.695162418927208e+18,-1.0,-1.0,0.0,0.0,1.0,-1.0,-2.0,0.0
1.6951624189282158e+18,-2.0,0.0,-1.0,0.0,-1.0,-1.0,0.0,-2.0
1.6951624189282158e+18,-1.0,0.0,-1.0,-1.0,0.0,-1.0,-1.0,0.0
1.695162418932204e+18,0.0,-2.0,-9.0,-2.0,-1.0,-1.0,-1.0,0.0
1.6951624189332058e+18,-2.0,2.0,4.0,-1.0,-1.0,-1.0,1.0,-1.0
1.6951624189431972e+18,0.0,0.0,-2.0,-2.0,0.0,0.0,0.0,0.0
1.6951624189441974e+18,0.0,-3.0,1.0,0.0,-2.0,-1.0,0.0,0.0
1.6951624189452045e+18,-2.0,0.0,8.0,-1.0,-1.0,-2.0,-1.0,0.0
1.6951624189461965e+18,-1.0,-3.0,-13.0,-2.0,-2.0,-1.0,-1.0,-1.0
1.6951624189571958e+18,0.0,0.0,0.0,1.0,1.0,0.0,1.0,0.0
1.695162418958189e+18,-1.0,-1.0,2.0,2.0,3.0,4.0,2.0,0.0
1.6951624189681846e+18,0.0,-1.0,-1.0,-1.0,0.0,-1.0,-2.0,-1.0
1.6951624189691845e+18,0.0,0.0,1.0,-2.0,-1.0,0.0,-2.0,-1.0
1.695162418980177e+18,0.0,-1.0,-1.0,-2.0,-1.0,-3.0,-1.0,-1.0
1.695162418982176e+18,-1.0,0.0,-3.0,-2.0,-2.0,-1.0,-2.0,0.0
1.695162418982176e+18,0.0,-1.0,2.0,-1.0,-1.0,2.0,1.0,-1.0
1.6951624189831816e+18,-1.0,0.0,0.0,-2.0,0.0,-1.0,-1.0,-2.0
1.6951624190021678e+18,-1.0,-1.0,-3.0,-1.0,0.0,1.0,0.0,0.0
1.695162419003164e+18,0.0,0.0,-1.0,-1.0,-2.0,-2.0,-1.0,-3.0
1.6951624190091645e+18,-2.0,1.0,0.0,-1.0,-3.0,-1.0,-1.0,-1.0
1.6951624190101594e+18,1.0,0.0,-1.0,1.0,0.0,-1.0,0.0,-1.0
1.6951624190171558e+18,-2.0,0.0,0.0,-1.0,-1.0,-1.0,-1.0,0.0
1.6951624190181555e+18,-1.0,-1.0,-1.0,-2.0,0.0,-1.0,-1.0,0.0
1.6951624190361454e+18,0.0,0.0,0.0,0.0,1.0,0.0,1.0,-1.0
1.6951624190371453e+18,-1.0,-2.0,1.0,1.0,1.0,0.0,0.0,-1.0
1.6951624190481377e+18,-1.0,-1.0,-1.0,0.0,-3.0,0.0,-1.0,0.0
1.695162419049137e+18,-1.0,-1.0,-2.0,-2.0,-1.0,-1.0,-2.0,0.0
1.6951624190501358e+18,-1.0,-1.0,-1.0,-1.0,-2.0,-1.0,-1.0,-2.0
1.6951624190501358e+18,0.0,0.0,1.0,-1.0,0.0,-1.0,-1.0,0.0
1.6951624190651525e+18,-2.0,0.0,4.0,-1.0,0.0,-1.0,0.0,-2.0
1.6951624190691494e+18,-2.0,-1.0,-13.0,-1.0,1.0,-2.0,-1.0,-1.0
1.695162419070149e+18,-1.0,0.0,0.0,0.0,2.0,1.0,0.0,1.0
1.695162419070149e+18,0.0,-1.0,-1.0,-1.0,-2.0,1.0,-1.0,-2.0
1.695162419077122e+18,0.0,-2.0,-1.0,-3.0,-2.0,-2.0,-3.0,-2.0
1.695162419077122e+18,0.0,-2.0,2.0,1.0,2.0,-2.0,-1.0,-2.0
1.695162419085116e+18,-1.0,1.0,2.0,-2.0,-2.0,-1.0,0.0,0.0
1.695162419085116e+18,-2.0,-1.0,-1.0,1.0,-2.0,-1.0,0.0,0.0
1.6951624191081032e+18,-2.0,-2.0,3.0,-3.0,-3.0,1.0,1.0,-3.0
1.6951624191081032e+18,-2.0,-3.0,-5.0,-4.0,-5.0,-3.0,-2.0,-1.0
1.6951624191091018e+18,-1.0,0.0,10.0,3.0,1.0,-1.0,0.0,-3.0
1.6951624191091018e+18,0.0,1.0,-1.0,-2.0,-2.0,0.0,1.0,-1.0
1.6951624191440822e+18,-1.0,0.0,0.0,-1.0,-1.0,-3.0,-2.0,-1.0
1.6951624191450816e+18,-2.0,-1.0,-2.0,-1.0,0.0,0.0,1.0,-1.0
1.6951624191450816e+18,0.0,0.0,-4.0,-2.0,0.0,0.0,1.0,0.0
1.6951624191450816e+18,-1.0,-3.0,1.0,0.0,0.0,-2.0,-1.0,1.0
1.6951624191460833e+18,1.0,-2.0,-2.0,2.0,1.0,-2.0,-1.0,-1.0
1.6951624191460833e+18,0.0,1.0,2.0,-1.0,-1.0,0.0,-1.0,0.0
1.6951624191460833e+18,-2.0,-2.0,-4.0,0.0,-3.0,-2.0,-3.0,-1.0
1.6951624191480796e+18,0.0,0.0,-1.0,-1.0,-2.0,-2.0,0.0,-2.0
1.6951624191590774e+18,-1.0,-1.0,1.0,-1.0,2.0,1.0,-1.0,-1.0
1.6951624191600786e+18,1.0,-1.0,-4.0,0.0,0.0,2.0,2.0,0.0
1.6951624191660695e+18,-1.0,-2.0,0.0,-1.0,-2.0,-1.0,-1.0,-1.0
1.6951624191660695e+18,-2.0,-3.0,-2.0,-1.0,0.0,-1.0,0.0,-1.0
1.6951624191820613e+18,1.0,0.0,1.0,-1.0,0.0,-1.0,-1.0,1.0
1.6951624191830597e+18,-1.0,0.0,3.0,-1.0,-3.0,-3.0,0.0,-2.0
1.695162419184061e+18,0.0,-3.0,-3.0,1.0,1.0,-1.0,-3.0,0.0
1.695162419184061e+18,-1.0,0.0,-1.0,-3.0,1.0,0.0,-1.0,0.0
1.695162419196057e+18,-3.0,-1.0,-3.0,-1.0,-1.0,-1.0,-1.0,0.0
1.6951624191970516e+18,1.0,-1.0,2.0,6.0,3.0,4.0,-1.0,-1.0
1.6951624192060483e+18,0.0,0.0,-4.0,-3.0,-2.0,-1.0,0.0,-1.0
1.6951624192070584e+18,-1.0,1.0,1.0,-1.0,-1.0,-1.0,-1.0,-1.0
1.6951624192220426e+18,-1.0,-1.0,-4.0,-2.0,-3.0,-2.0,-1.0,-1.0
1.6951624192230423e+18,0.0,-1.0,0.0,-4.0,-3.0,-3.0,-1.0,1.0
1.6951624192330307e+18,-1.0,-1.0,0.0,-2.0,-1.0,-2.0,-1.0,0.0
1.6951624192340403e+18,-1.0,-1.0,-2.0,0.0,-1.0,-1.0,-2.0,0.0
1.695162419250021e+18,1.0,-1.0,-3.0,0.0,-2.0,-1.0,-2.0,-1.0
1.695162419250021e+18,-1.0,0.0,-1.0,2.0,0.0,-1.0,1.0,-1.0
1.6951624192510203e+18,-1.0,-1.0,-1.0,-1.0,0.0,-2.0,-2.0,-1.0
1.695162419252024e+18,-2.0,0.0,0.0,0.0,1.0,0.0,-1.0,-1.0
1.6951624192560182e+18,-2.0,-2.0,-4.0,0.0,0.0,-1.0,-1.0,1.0
1.6951624192560182e+18,-1.0,-1.0,0.0,0.0,0.0,-2.0,-2.0,-1.0
1.6951624192720092e+18,0.0,-1.0,0.0,-2.0,-1.0,0.0,-1.0,-1.0
1.6951624192730084e+18,-1.0,-1.0,0.0,2.0,1.0,1.0,2.0,-1.0
1.6951624192820042e+18,-1.0,-1.0,1.0,0.0,0.0,-1.0,0.0,-1.0
1.695162419295999e+18,-2.0,0.0,-2.0,-2.0,-4.0,-1.0,0.0,-2.0
1.6951624192979945e+18,0.0,-1.0,-2.0,1.0,-1.0,-1.0,-1.0,1.0
1.6951624192979945e+18,-1.0,-1.0,-1.0,0.0,-3.0,-2.0,0.0,-1.0
1.6951624193099873e+18,-1.0,3.0,1.0,-1.0,-1.0,0.0,-1.0,0.0
1.6951624193099873e+18,-3.0,-3.0,0.0,-2.0,-1.0,-3.0,0.0,-1.0
1.6951624193119872e+18,-1.0,0.0,2.0,-1.0,-1.0,1.0,0.0,-2.0
1.6951624193119872e+18,0.0,-3.0,-10.0,-1.0,-1.0,-1.0,-1.0,0.0
1.6951624193159841e+18,-2.0,0.0,-2.0,0.0,-2.0,0.0,0.0,-1.0
1.6951624193169838e+18,1.0,1.0,0.0,0.0,-2.0,-1.0,-1.0,-1.0
1.6951624193249784e+18,-2.0,-1.0,-1.0,-2.0,0.0,-2.0,0.0,-1.0
1.6951624193249784e+18,0.0,-1.0,0.0,-2.0,-2.0,-2.0,-1.0,1.0
1.695162419338969e+18,1.0,0.0,-1.0,1.0,1.0,1.0,-1.0,-1.0
1.695162419338969e+18,0.0,-1.0,-1.0,-1.0,-1.0,-1.0,-2.0,0.0
1.6951624193459666e+18,1.0,1.0,1.0,5.0,0.0,2.0,1.0,-1.0
1.695162419346968e+18,0.0,1.0,2.0,-3.0,0.0,0.0,-2.0,-2.0
1.6951624193779533e+18,-2.0,-2.0,-3.0,-2.0,-1.0,-2.0,0.0,0.0
1.695162419378948e+18,-1.0,-1.0,2.0,-2.0,-2.0,1.0,1.0,0.0
1.6951624193799524e+18,-2.0,0.0,3.0,-1.0,1.0,-2.0,-1.0,1.0
1.6951624193799524e+18,-2.0,-1.0,-8.0,-1.0,-2.0,-1.0,-1.0,-1.0
1.6951624193849436e+18,0.0,-1.0,-1.0,1.0,2.0,2.0,1.0,-1.0
1.6951624193849436e+18,0.0,0.0,1.0,-2.0,0.0,3.0,-1.0,0.0
1.6951624193869437e+18,-2.0,-1.0,-4.0,-3.0,-3.0,-2.0,-1.0,0.0
1.6951624193869437e+18,-1.0,-2.0,1.0,1.0,-3.0,-2.0,-1.0,-1.0
1.695162419399937e+18,-1.0,-1.0,0.0,-1.0,-1.0,0.0,-4.0,-1.0
1.695162419399937e+18,-1.0,-1.0,-6.0,0.0,-2.0,-4.0,-2.0,0.0
1.695162419405934e+18,0.0,-3.0,-1.0,-1.0,1.0,-1.0,0.0,-2.0
1.695162419405934e+18,-1.0,1.0,2.0,0.0,0.0,-2.0,1.0,0.0
1.695162419422923e+18,-1.0,-2.0,2.0,1.0,0.0,-1.0,-1.0,0.0
1.695162419422923e+18,-1.0,0.0,-1.0,-2.0,-1.0,-1.0,-1.0,0.0
1.695162419423922e+18,-1.0,-2.0,-3.0,-1.0,-1.0,-1.0,-2.0,0.0
1.695162419424921e+18,-2.0,1.0,4.0,1.0,-2.0,-2.0,0.0,-2.0
1.6951624194608998e+18,0.0,-1.0,-5.0,0.0,-1.0,0.0,1.0,-1.0
1.6951624194619e+18,0.0,-1.0,-1.0,0.0,1.0,-1.0,0.0,-1.0
1.6951624194629002e+18,-2.0,-1.0,-1.0,-2.0,-1.0,-2.0,-1.0,-1.0
1.6951624194639035e+18,0.0,0.0,-3.0,-1.0,-1.0,1.0,-1.0,-1.0
1.6951624194639035e+18,-1.0,1.0,3.0,2.0,-2.0,-1.0,-2.0,-1.0
1.6951624194639035e+18,0.0,-1.0,-6.0,-3.0,-2.0,-1.0,0.0,-3.0
1.6951624194758917e+18,-1.0,-2.0,-2.0,1.0,0.0,-1.0,0.0,-2.0
1.6951624194768975e+18,-1.0,-1.0,1.0,-3.0,1.0,0.0,-3.0,0.0
1.695162419483887e+18,-2.0,-1.0,1.0,-2.0,-3.0,-1.0,-1.0,-1.0
1.695162419483887e+18,-1.0,0.0,2.0,-1.0,1.0,-1.0,-2.0,-1.0
1.6951624194848865e+18,-2.0,0.0,-1.0,1.0,1.0,2.0,0.0,1.0
1.695162419485889e+18,-1.0,-1.0,1.0,-1.0,0.0,0.0,0.0,-2.0
1.695162419504875e+18,-2.0,0.0,-3.0,-4.0,-2.0,-2.0,0.0,1.0
1.6951624195058752e+18,0.0,1.0,1.0,1.0,1.0,-2.0,-2.0,-1.0
1.6951624195068746e+18,-2.0,-1.0,-1.0,-2.0,-1.0,-2.0,-1.0,0.0
1.6951624195068746e+18,0.0,-1.0,-1.0,4.0,2.0,1.0,1.0,0.0
1.6951624195188682e+18,-1.0,-2.0,1.0,-2.0,-1.0,0.0,-1.0,-2.0
1.6951624195198723e+18,-1.0,0.0,0.0,0.0,-2.0,-2.0,0.0,-2.0
1.6951624195368824e+18,1.0,-3.0,1.0,-2.0,-2.0,-1.0,-1.0,-3.0
1.6951624195478508e+18,-2.0,0.0,0.0,-1.0,0.0,-2.0,-4.0,-2.0
1.6951624195488558e+18,0.0,-1.0,-4.0,0.0,0.0,-2.0,-3.0,-2.0
1.6951624195488558e+18,-2.0,0.0,-1.0,0.0,-1.0,0.0,-1.0,0.0
1.6951624195488558e+18,1.0,1.0,-2.0,0.0,2.0,-1.0,-1.0,-1.0
1.6951624195488558e+18,0.0,-3.0,-2.0,-2.0,-3.0,-2.0,-1.0,0.0
1.6951624195648404e+18,0.0,-2.0,-3.0,-6.0,-7.0,-2.0,-1.0,-3.0
1.6951624195658406e+18,-2.0,-1.0,4.0,-1.0,2.0,-1.0,-3.0,-4.0
1.6951624195658406e+18,1.0,-2.0,-9.0,7.0,2.0,0.0,1.0,2.0
1.6951624195668467e+18,-2.0,-1.0,1.0,-6.0,-6.0,-2.0,-1.0,-2.0
1.695162419578833e+18,-1.0,-2.0,-2.0,1.0,2.0,-3.0,0.0,-1.0
1.695162419578833e+18,0.0,1.0,8.0,-1.0,-3.0,4.0,-2.0,-1.0
1.695162419586828e+18,-2.0,-3.0,-6.0,-11.0,-15.0,-14.0,-6.0,-4.0
1.6951624195878333e+18,-1.0,1.0,11.0,13.0,12.0,-7.0,1.0,1.0
1.6951624196028206e+18,0.0,-1.0,-11.0,2.0,1.0,20.0,2.0,2.0
1.6951624196028206e+18,-2.0,-3.0,1.0,-9.0,0.0,4.0,4.0,2.0
1.6951624196038188e+18,3.0,3.0,0.0,11.0,14.0,5.0,6.0,4.0
1.6951624196048187e+18,-1.0,-2.0,-2.0,-10.0,-10.0,-5.0,-2.0,-1.0
1.6951624196268303e+18,2.0,2.0,8.0,2.0,8.0,-8.0,-3.0,0.0
1.6951624196278147e+18,0.0,3.0,-6.0,-1.0,-5.0,6.0,1.0,1.0
1.6951624196278147e+18,1.0,-3.0,19.0,-2.0,-4.0,-3.0,0.0,0.0
1.6951624196278147e+18,-1.0,3.0,-22.0,-5.0,-5.0,-5.0,-2.0,-3.0
1.6951624196387983e+18,0.0,-3.0,-5.0,-7.0,-6.0,1.0,2.0,-1.0
1.6951624196387983e+18,0.0,0.0,5.0,27.0,40.0,3.0,-3.0,-2.0
1.6951624196477937e+18,-2.0,-1.0,-2.0,-14.0,-15.0,-6.0,-3.0,-1.0
1.6951624196477937e+18,0.0,3.0,12.0,-5.0,0.0,-4.0,-3.0,0.0
1.6951624196627853e+18,0.0,2.0,6.0,-2.0,-21.0,1.0,-1.0,0.0
1.695162419663785e+18,1.0,0.0,-4.0,8.0,23.0,20.0,0.0,1.0
1.695162419663785e+18,-2.0,-1.0,1.0,2.0,3.0,-15.0,0.0,-1.0
1.6951624196647892e+18,1.0,-3.0,2.0,3.0,10.0,36.0,3.0,1.0
1.6951624197007636e+18,-3.0,-2.0,-7.0,-13.0,-10.0,-20.0,-3.0,-2.0
1.6951624197017682e+18,-2.0,-3.0,1.0,-6.0,-45.0,-29.0,-2.0,2.0
1.6951624197017682e+18,-3.0,2.0,-1.0,-2.0,12.0,7.0,-5.0,-24.0
1.6951624197017682e+18,0.0,0.0,-8.0,4.0,8.0,3.0,-5.0,9.0
1.695162419702764e+18,1.0,6.0,10.0,15.0,29.0,15.0,2.0,8.0
1.695162419702764e+18,3.0,-7.0,-15.0,-10.0,-2.0,-10.0,15.0,-15.0
1.6951624197067597e+18,-12.0,-18.0,10.0,10.0,-10.0,-5.0,-19.0,-7.0
1.695162419707762e+18,-4.0,-1.0,-7.0,-26.0,-23.0,3.0,10.0,19.0
1.6951624197217516e+18,2.0,3.0,-1.0,29.0,17.0,-26.0,-15.0,-15.0
1.6951624197217516e+18,5.0,4.0,6.0,1.0,8.0,13.0,-15.0,17.0
1.6951624197377508e+18,3.0,6.0,-21.0,-22.0,-27.0,3.0,2.0,1.0
1.6951624197377508e+18,-2.0,-1.0,3.0,12.0,23.0,11.0,10.0,-10.0
1.6951624197527332e+18,0.0,2.0,5.0,5.0,14.0,8.0,-1.0,-1.0
1.6951624197537372e+18,2.0,6.0,-5.0,-14.0,-27.0,-37.0,11.0,-10.0
1.6951624197537372e+18,-1.0,-8.0,4.0,-8.0,-5.0,2.0,-11.0,15.0
1.6951624197547328e+18,0.0,16.0,33.0,-18.0,-17.0,14.0,7.0,-8.0
1.69516241975873e+18,-1.0,-20.0,-60.0,8.0,17.0,-5.0,3.0,-7.0
1.69516241975873e+18,-4.0,-3.0,7.0,8.0,3.0,-2.0,-12.0,19.0
1.6951624197707474e+18,1.0,-2.0,-12.0,3.0,30.0,40.0,16.0,5.0
1.695162419776719e+18,0.0,-2.0,-10.0,-13.0,-18.0,-24.0,2.0,-18.0
1.6951624197897124e+18,-6.0,15.0,44.0,-27.0,-22.0,-5.0,-1.0,-6.0
1.6951624197897124e+18,-1.0,-13.0,-12.0,0.0,-8.0,-11.0,-6.0,-15.0
1.6951624197917158e+18,2.0,17.0,6.0,17.0,-4.0,-23.0,-31.0,3.0
1.6951624197917158e+18,0.0,-18.0,-12.0,4.0,9.0,15.0,12.0,-7.0
1.695162419804703e+18,-5.0,-2.0,3.0,-13.0,-12.0,-1.0,-10.0,2.0
1.6951624198057062e+18,-5.0,5.0,-4.0,-11.0,-20.0,-2.0,-7.0,28.0
1.695162419806703e+18,7.0,-8.0,13.0,28.0,33.0,8.0,24.0,-13.0
1.695162419806703e+18,-7.0,-8.0,14.0,12.0,6.0,-10.0,-29.0,-32.0
1.6951624198276948e+18,0.0,-2.0,5.0,-1.0,-10.0,4.0,10.0,14.0
1.6951624198276948e+18,8.0,10.0,12.0,-21.0,-6.0,8.0,0.0,24.0
1.6951624198296955e+18,-3.0,0.0,-25.0,-5.0,-7.0,0.0,11.0,-8.0
1.6951624198306898e+18,3.0,-13.0,3.0,16.0,18.0,-1.0,-2.0,10.0
1.6951624198506788e+18,-1.0,6.0,16.0,-2.0,-11.0,-3.0,-8.0,-8.0
1.6951624198516767e+18,-15.0,-23.0,-12.0,7.0,13.0,7.0,-11.0,-28.0
1.6951624198606963e+18,7.0,10.0,0.0,-19.0,-8.0,-7.0,9.0,25.0
1.695162419862676e+18,1.0,6.0,11.0,8.0,-12.0,-12.0,-5.0,0.0
1.695162419865669e+18,4.0,13.0,-27.0,-25.0,-15.0,6.0,10.0,3.0
1.695162419865669e+18,-4.0,2.0,49.0,27.0,22.0,1.0,9.0,-25.0
1.695162419866668e+18,-5.0,-18.0,-15.0,-8.0,-8.0,-6.0,-30.0,18.0
1.695162419866668e+18,0.0,10.0,-24.0,-5.0,-12.0,-8.0,-4.0,25.0
1.695162419878662e+18,-2.0,-17.0,0.0,5.0,9.0,-5.0,-14.0,-32.0
1.6951624198796613e+18,6.0,10.0,-11.0,-3.0,-1.0,11.0,18.0,11.0
1.695162419887656e+18,-9.0,1.0,28.0,4.0,1.0,5.0,11.0,-5.0
1.695162419887656e+18,3.0,2.0,-16.0,1.0,4.0,-4.0,-1.0,2.0
1.6951624199026463e+18,2.0,-4.0,20.0,-5.0,-11.0,-4.0,5.0,-5.0
1.6951624199026463e+18,3.0,-2.0,-27.0,-3.0,0.0,-1.0,-10.0,-7.0
1.6951624199156431e+18,-3.0,10.0,29.0,5.0,4.0,4.0,12.0,6.0
1.6951624199166395e+18,6.0,1.0,-10.0,-11.0,-6.0,-1.0,-9.0,-30.0
1.6951624199326556e+18,-4.0,-15.0,-29.0,13.0,8.0,1.0,-4.0,29.0
1.695162419933656e+18,-6.0,-22.0,-45.0,-8.0,-6.0,2.0,13.0,3.0
1.695162419933656e+18,8.0,21.0,81.0,4.0,-4.0,-9.0,-19.0,-12.0
1.695162419933656e+18,7.0,9.0,-9.0,1.0,2.0,-2.0,12.0,10.0
1.6951624199386276e+18,-3.0,8.0,8.0,2.0,-8.0,-6.0,-1.0,-16.0
1.6951624199396396e+18,5.0,-12.0,-38.0,-7.0,8.0,6.0,1.0,15.0
1.695162419978604e+18,-10.0,-9.0,-87.0,-5.0,-1.0,1.0,1.0,-11.0
1.6951624199796042e+18,-3.0,5.0,34.0,-18.0,-11.0,-7.0,-8.0,-11.0
1.6951624199806036e+18,12.0,2.0,-9.0,-3.0,1.0,5.0,17.0,6.0
1.6951624199806036e+18,-8.0,-4.0,19.0,5.0,-2.0,-2.0,-2.0,-20.0
1.6951624199926016e+18,15.0,12.0,-14.0,0.0,-9.0,-7.0,-14.0,-11.0
1.6951624200035901e+18,3.0,-9.0,9.0,0.0,1.0,-8.0,-11.0,27.0
1.6951624200055918e+18,-3.0,5.0,-37.0,-14.0,5.0,7.0,-1.0,-1.0
1.6951624200066132e+18,-8.0,-9.0,31.0,15.0,10.0,6.0,12.0,3.0
1.6951624200066132e+18,-15.0,-6.0,15.0,-13.0,-12.0,-2.0,13.0,-8.0
1.6951624200075901e+18,-17.0,2.0,35.0,8.0,12.0,4.0,-7.0,-33.0
1.6951624200075901e+18,16.0,-9.0,-8.0,1.0,-12.0,-9.0,-13.0,26.0
1.695162420009588e+18,-10.0,1.0,-42.0,-14.0,-2.0,3.0,5.0,-17.0
1.695162420015584e+18,-11.0,14.0,42.0,13.0,4.0,-4.0,-6.0,-13.0
1.695162420015584e+18,-4.0,-40.0,12.0,-7.0,-5.0,-7.0,-5.0,60.0
1.695162420032573e+18,13.0,39.0,44.0,11.0,7.0,5.0,12.0,-27.0
1.695162420033572e+18,-3.0,-11.0,-6.0,-17.0,-17.0,-3.0,-10.0,21.0
1.695162420033572e+18,4.0,-22.0,-52.0,6.0,21.0,7.0,13.0,10.0
1.695162420033572e+18,-1.0,1.0,-26.0,4.0,5.0,7.0,11.0,-7.0
1.6951624200525614e+18,2.0,-10.0,6.0,11.0,-3.0,-2.0,0.0,-4.0
1.6951624200525614e+18,1.0,6.0,-28.0,-7.0,-2.0,-7.0,-13.0,-16.0
1.6951624200535734e+18,-3.0,11.0,7.0,9.0,-6.0,-1.0,9.0,2.0
1.6951624200535734e+18,4.0,8.0,-1.0,-4.0,-2.0,-3.0,-7.0,-15.0
1.6951624200575583e+18,2.0,-31.0,-53.0,-1.0,1.0,2.0,-1.0,27.0
1.6951624200585592e+18,9.0,13.0,74.0,-7.0,-4.0,2.0,-2.0,-5.0
1.6951624200675523e+18,3.0,16.0,-7.0,5.0,-5.0,-2.0,-2.0,-7.0
1.6951624200675523e+18,5.0,0.0,-29.0,13.0,2.0,-3.0,11.0,18.0
1.6951624200895396e+18,-7.0,1.0,-59.0,-27.0,1.0,0.0,-15.0,8.0
1.6951624200895396e+18,-3.0,20.0,24.0,6.0,-15.0,-9.0,-9.0,-34.0
1.6951624200915397e+18,-6.0,-28.0,-7.0,12.0,20.0,10.0,17.0,8.0
1.6951624200915397e+18,19.0,-1.0,-74.0,2.0,-3.0,-2.0,2.0,2.0
1.6951624201125266e+18,-12.0,-3.0,92.0,9.0,-3.0,-1.0,7.0,7.0
1.6951624201125266e+18,-6.0,-2.0,-58.0,-17.0,1.0,3.0,7.0,16.0
1.695162420113529e+18,2.0,17.0,-12.0,-12.0,-5.0,-9.0,-26.0,-4.0
1.695162420113529e+18,-14.0,-22.0,22.0,16.0,2.0,6.0,7.0,-27.0
1.6951624201185234e+18,-24.0,-31.0,38.0,6.0,7.0,0.0,-1.0,-3.0
1.6951624201185234e+18,5.0,-62.0,27.0,22.0,12.0,5.0,11.0,17.0
1.6951624201275174e+18,2.0,26.0,1.0,-13.0,-15.0,-4.0,0.0,10.0
1.6951624201275174e+18,-12.0,-1.0,29.0,10.0,6.0,4.0,1.0,3.0
1.6951624201415094e+18,5.0,2.0,-87.0,-30.0,0.0,-4.0,-6.0,-5.0
1.6951624201415094e+18,6.0,20.0,55.0,8.0,-10.0,-9.0,0.0,9.0
1.6951624201485059e+18,4.0,-3.0,4.0,-6.0,7.0,3.0,-16.0,26.0
1.6951624201485059e+18,6.0,-8.0,3.0,-2.0,-1.0,-3.0,0.0,-8.0
1.695162420180487e+18,3.0,12.0,-19.0,3.0,6.0,3.0,1.0,-6.0
1.695162420180487e+18,17.0,38.0,-6.0,-6.0,-5.0,0.0,10.0,-33.0
1.6951624201815104e+18,6.0,-2.0,-4.0,-2.0,-7.0,-7.0,-3.0,32.0
1.6951624201815104e+18,13.0,21.0,-26.0,-6.0,4.0,5.0,-5.0,1.0
1.695162420182486e+18,-25.0,-7.0,45.0,7.0,-9.0,0.0,4.0,1.0
1.695162420182486e+18,1.0,-24.0,1.0,0.0,12.0,-4.0,-6.0,-24.0
1.6951624202074747e+18,1.0,-4.0,-5.0,0.0,-3.0,2.0,3.0,-16.0
1.6951624202084716e+18,5.0,-21.0,34.0,10.0,1.0,0.0,3.0,11.0
1.695162420210473e+18,-4.0,-3.0,-13.0,0.0,2.0,-2.0,1.0,-10.0
1.695162420210473e+18,-4.0,25.0,-2.0,-19.0,-25.0,-17.0,-11.0,9.0
1.695162420210473e+18,0.0,-22.0,-32.0,14.0,19.0,14.0,6.0,-13.0
1.695162420210473e+18,2.0,39.0,-15.0,-21.0,-19.0,-22.0,-28.0,10.0
1.6951624202424701e+18,22.0,4.0,0.0,12.0,4.0,16.0,22.0,19.0
1.6951624202424701e+18,3.0,29.0,-5.0,1.0,-4.0,1.0,1.0,-17.0
1.695162420243452e+18,7.0,-15.0,39.0,-2.0,4.0,1.0,-6.0,18.0
1.695162420243452e+18,-9.0,14.0,-17.0,5.0,2.0,1.0,0.0,-18.0
1.695162420243452e+18,3.0,-18.0,20.0,11.0,1.0,7.0,8.0,2.0
1.695162420243452e+18,0.0,-16.0,-6.0,3.0,7.0,1.0,-15.0,-15.0
1.6951624202544502e+18,-7.0,-42.0,-9.0,-14.0,-15.0,-5.0,4.0,10.0
1.6951624202544502e+18,4.0,-16.0,50.0,-9.0,-16.0,-10.0,9.0,-7.0
1.6951624202614408e+18,-9.0,-3.0,13.0,4.0,4.0,3.0,-7.0,-7.0
1.6951624202614408e+18,-2.0,-14.0,-49.0,-17.0,-6.0,-8.0,-11.0,12.0
1.6951624202694362e+18,-9.0,-4.0,26.0,3.0,0.0,3.0,3.0,-26.0
1.6951624202694362e+18,6.0,4.0,-14.0,-7.0,-18.0,-9.0,-3.0,5.0
1.6951624202844268e+18,-7.0,-5.0,16.0,-7.0,-10.0,-4.0,-4.0,-13.0
1.6951624202844268e+18,11.0,20.0,5.0,17.0,14.0,-4.0,-1.0,24.0
1.6951624202864276e+18,-10.0,14.0,-47.0,-12.0,-11.0,2.0,2.0,-12.0
1.6951624202864276e+18,-9.0,-20.0,-2.0,-5.0,17.0,10.0,6.0,3.0
1.6951624203114125e+18,-22.0,20.0,-82.0,-6.0,-2.0,-8.0,-15.0,-13.0
1.6951624203144113e+18,16.0,-30.0,23.0,12.0,11.0,9.0,5.0,22.0
1.6951624203144113e+18,-9.0,2.0,-8.0,-17.0,-19.0,-10.0,0.0,-40.0
1.695162420315413e+18,-9.0,23.0,-17.0,18.0,11.0,5.0,1.0,19.0
1.6951624203214098e+18,0.0,-2.0,0.0,-10.0,-4.0,-8.0,-2.0,1.0
1.6951624203224074e+18,-9.0,0.0,-20.0,-4.0,3.0,2.0,1.0,7.0
1.6951624203294098e+18,9.0,2.0,3.0,0.0,-7.0,-1.0,5.0,20.0
1.6951624203304023e+18,10.0,-1.0,11.0,5.0,6.0,0.0,-7.0,-22.0
1.6951624203443937e+18,7.0,14.0,8.0,-6.0,-11.0,-10.0,-3.0,19.0
1.6951624203453947e+18,-21.0,-1.0,-24.0,20.0,13.0,6.0,-8.0,-30.0
1.6951624203463946e+18,0.0,-9.0,40.0,-32.0,-2.0,-3.0,7.0,-26.0
1.6951624203463946e+18,-10.0,2.0,-9.0,-1.0,-6.0,0.0,-2.0,10.0
1.69516242036738e+18,6.0,8.0,46.0,15.0,1.0,-5.0,-7.0,5.0
1.69516242036738e+18,-16.0,15.0,25.0,5.0,-1.0,7.0,5.0,0.0
1.695162420368384e+18,1.0,-8.0,-55.0,-11.0,-5.0,-4.0,-6.0,-12.0
1.6951624203693798e+18,-3.0,-21.0,-3.0,5.0,8.0,-1.0,3.0,-4.0
1.6951624203813957e+18,-5.0,4.0,11.0,-5.0,8.0,2.0,-5.0,1.0
1.6951624203813957e+18,-8.0,6.0,-4.0,-4.0,-9.0,3.0,9.0,-23.0
1.6951624203923692e+18,-9.0,-26.0,21.0,17.0,4.0,-3.0,-19.0,0.0
1.6951624203933688e+18,-5.0,-1.0,-15.0,-25.0,-13.0,-3.0,2.0,7.0
1.695162420404383e+18,7.0,-10.0,13.0,17.0,6.0,-5.0,-6.0,-6.0
1.695162420404383e+18,4.0,-2.0,13.0,3.0,7.0,3.0,-1.0,7.0
1.6951624204063813e+18,-3.0,21.0,-24.0,-9.0,8.0,4.0,9.0,8.0
1.6951624204063813e+18,1.0,-10.0,-20.0,12.0,1.0,4.0,1.0,-14.0
1.695162420427364e+18,-2.0,-3.0,-22.0,-17.0,-4.0,-1.0,-1.0,1.0
1.695162420428347e+18,-3.0,5.0,-25.0,-7.0,-7.0,-5.0,-5.0,3.0
1.695162420428347e+18,4.0,-7.0,-18.0,1.0,-4.0,-4.0,4.0,9.0
1.6951624204293455e+18,-7.0,3.0,-10.0,-1.0,0.0,-1.0,-4.0,-28.0
1.695162420440362e+18,10.0,3.0,-3.0,5.0,4.0,1.0,10.0,21.0
1.6951624204413494e+18,1.0,1.0,4.0,2.0,3.0,1.0,-1.0,18.0
1.6951624204574766e+18,9.0,22.0,17.0,9.0,-3.0,-1.0,-5.0,-7.0
1.6951624204574766e+18,-5.0,-5.0,-14.0,-10.0,-6.0,-2.0,3.0,9.0
1.6951624205107136e+18,-1.0,14.0,19.0,1.0,0.0,3.0,1.0,-16.0
1.6951624205115402e+18,1.0,-7.0,5.0,-1.0,-3.0,-4.0,2.0,9.0
1.695162420512545e+18,-2.0,8.0,16.0,9.0,8.0,1.0,-3.0,7.0
1.695162420512545e+18,-2.0,9.0,20.0,2.0,3.0,1.0,5.0,-1.0
1.6951624205135483e+18,-1.0,-4.0,-2.0,-3.0,-5.0,2.0,-5.0,-10.0
1.6951624205135483e+18,-2.0,-2.0,10.0,-3.0,-5.0,-3.0,-1.0,7.0
1.695162420517465e+18,1.0,-12.0,8.0,4.0,2.0,0.0,5.0,1.0
1.695162420517465e+18,-3.0,2.0,8.0,-3.0,-2.0,-3.0,-5.0,6.0
1.6951624205244618e+18,-1.0,-12.0,-19.0,6.0,3.0,2.0,1.0,4.0
1.6951624205254602e+18,-4.0,8.0,8.0,-5.0,-4.0,-4.0,-5.0,-3.0
1.695162420536455e+18,1.0,-2.0,-1.0,1.0,1.0,0.0,3.0,4.0
1.6951624205374559e+18,-4.0,-3.0,7.0,0.0,1.0,1.0,-4.0,2.0
1.695162420547447e+18,-1.0,1.0,5.0,0.0,0.0,-3.0,-2.0,-9.0
1.695162420547447e+18,0.0,4.0,-1.0,-7.0,-4.0,-4.0,-2.0,5.0
1.6951624205484465e+18,-2.0,7.0,11.0,5.0,0.0,-2.0,-1.0,-7.0
1.6951624205484465e+18,-1.0,0.0,-6.0,-1.0,2.0,1.0,-1.0,18.0
1.6951624205764308e+18,-19.0,-2.0,-5.0,-1.0,-1.0,-3.0,-3.0,-26.0
1.6951624205764308e+18,1.0,-3.0,17.0,3.0,-2.0,0.0,-1.0,2.0
1.6951624205774397e+18,-6.0,6.0,-5.0,-1.0,-3.0,-1.0,-3.0,-1.0
1.6951624205774397e+18,1.0,-2.0,2.0,2.0,0.0,1.0,-1.0,-7.0
1.695162420599644e+18,-1.0,-7.0,12.0,-2.0,-2.0,0.0,1.0,2.0
1.695162420599644e+18,-2.0,-1.0,-3.0,0.0,-1.0,-2.0,-3.0,2.0
1.6951624206016468e+18,9.0,-1.0,-2.0,1.0,1.0,-1.0,-1.0,1.0
1.6951624206016468e+18,0.0,1.0,10.0,-5.0,-2.0,-1.0,1.0,3.0
1.6951624206070636e+18,3.0,2.0,-27.0,-3.0,-2.0,0.0,-2.0,1.0
1.6951624206070636e+18,-2.0,-7.0,-7.0,3.0,1.0,2.0,1.0,-2.0
1.6951624206087137e+18,4.0,-3.0,-3.0,-8.0,0.0,1.0,2.0,7.0
1.6951624206087137e+18,-8.0,-1.0,-3.0,-2.0,0.0,-1.0,0.0,-8.0
1.695162420620671e+18,0.0,0.0,17.0,5.0,1.0,-3.0,-1.0,5.0
1.695162420620671e+18,2.0,-1.0,-5.0,-4.0,0.0,-2.0,-1.0,1.0
1.6951624206462587e+18,-5.0,0.0,-4.0,7.0,3.0,-2.0,1.0,1.0
1.6951624206472302e+18,1.0,-2.0,-1.0,-2.0,-2.0,-2.0,-3.0,-10.0
1.6951624206475622e+18,0.0,-3.0,-2.0,-3.0,0.0,1.0,1.0,-2.0
1.6951624206475622e+18,2.0,-1.0,-6.0,-6.0,-3.0,-1.0,0.0,-2.0
1.6951624206582195e+18,-16.0,-3.0,8.0,7.0,1.0,-1.0,-4.0,-2.0
1.6951624206582195e+18,0.0,0.0,-4.0,1.0,-2.0,1.0,0.0,-3.0
1.6951624206675392e+18,0.0,-4.0,-8.0,1.0,3.0,0.0,0.0,0.0
1.6951624206675392e+18,-5.0,1.0,17.0,3.0,-2.0,-1.0,-1.0,2.0
1.6951624206685386e+18,4.0,6.0,-12.0,-1.0,-3.0,2.0,1.0,2.0
1.6951624206685386e+18,0.0,-10.0,13.0,7.0,2.0,-2.0,0.0,-1.0
1.69516242068052e+18,-2.0,-4.0,-11.0,-2.0,-2.0,0.0,2.0,6.0
1.6951624206815273e+18,-1.0,-2.0,0.0,-4.0,1.0,1.0,-2.0,-10.0
1.695162420689518e+18,0.0,0.0,-1.0,-4.0,0.0,-2.0,-1.0,1.0
1.6951624206905175e+18,-8.0,1.0,-2.0,5.0,-1.0,-1.0,0.0,-3.0
1.6951624207194995e+18,1.0,0.0,21.0,-5.0,0.0,0.0,-1.0,0.0
1.6951624207194995e+18,1.0,-4.0,-12.0,-20.0,-3.0,-1.0,1.0,2.0
1.6951624207214996e+18,-3.0,-3.0,-5.0,10.0,-1.0,0.0,0.0,-2.0
1.6951624207214996e+18,-11.0,-3.0,2.0,-5.0,-3.0,-3.0,-3.0,0.0
1.6951624207274957e+18,4.0,2.0,1.0,5.0,0.0,0.0,-1.0,2.0
1.6951624207274957e+18,-4.0,3.0,0.0,7.0,2.0,2.0,0.0,-7.0
1.695162420728497e+18,5.0,-2.0,-7.0,-11.0,-5.0,-2.0,-2.0,-1.0
1.695162420729497e+18,2.0,5.0,-3.0,-4.0,-1.0,-1.0,-1.0,2.0
1.6951624207564815e+18,-3.0,1.0,5.0,0.0,0.0,0.0,1.0,6.0
1.6951624207564815e+18,0.0,-2.0,1.0,5.0,1.0,0.0,-3.0,-5.0
1.695162420780469e+18,0.0,-4.0,-19.0,5.0,1.0,0.0,-2.0,-2.0
1.6951624207814684e+18,1.0,7.0,23.0,2.0,-1.0,-2.0,-1.0,-2.0
1.6951624207814684e+18,2.0,-4.0,-20.0,-6.0,-2.0,0.0,-1.0,0.0
1.6951624207814684e+18,1.0,0.0,-2.0,1.0,0.0,0.0,1.0,2.0
1.6951624207814684e+18,-1.0,0.0,4.0,-6.0,-2.0,-2.0,-1.0,0.0
1.6951624207814684e+18,8.0,-2.0,-4.0,-2.0,-2.0,0.0,-1.0,6.0
1.6951624207874621e+18,-9.0,1.0,4.0,2.0,0.0,-1.0,-4.0,-7.0
1.6951624207874621e+18,-2.0,-3.0,-4.0,-4.0,-2.0,-2.0,-2.0,7.0
1.6951624207884639e+18,0.0,-1.0,-1.0,-5.0,-1.0,0.0,-1.0,-4.0
1.6951624207884639e+18,2.0,-1.0,-4.0,-4.0,0.0,1.0,-1.0,-1.0
1.6951624208096136e+18,1.0,0.0,4.0,2.0,-3.0,-3.0,-1.0,-4.0
1.695162420810459e+18,1.0,-1.0,-5.0,4.0,-2.0,-2.0,0.0,0.0
1.695162420811482e+18,-1.0,0.0,11.0,5.0,-1.0,0.0,0.0,0.0
1.695162420811482e+18,-1.0,0.0,-8.0,-4.0,1.0,-1.0,-2.0,0.0
1.695162420824215e+18,0.0,-1.0,-2.0,2.0,0.0,0.0,-1.0,-2.0
1.695162420824215e+18,-1.0,-1.0,2.0,-1.0,-2.0,-2.0,-2.0,-2.0
1.6951624208382075e+18,-1.0,-1.0,-3.0,-9.0,-2.0,-1.0,0.0,-2.0
1.6951624208382075e+18,-1.0,0.0,-1.0,2.0,0.0,0.0,-1.0,-3.0
1.6951624208492247e+18,-2.0,-1.0,-3.0,-1.0,0.0,1.0,-2.0,-1.0
1.6951624208502036e+18,2.0,0.0,-2.0,0.0,-2.0,-2.0,-1.0,1.0
1.6951624208502036e+18,-2.0,-3.0,3.0,-2.0,0.0,-1.0,-1.0,1.0
1.6951624208502036e+18,-1.0,0.0,-3.0,-2.0,1.0,-1.0,1.0,-1.0
1.6951624208611945e+18,1.0,0.0,2.0,0.0,1.0,0.0,0.0,-2.0
1.6951624208611945e+18,0.0,-2.0,-2.0,0.0,-2.0,1.0,1.0,1.0
1.6951624208702364e+18,-1.0,-2.0,3.0,1.0,-1.0,-1.0,0.0,0.0
1.6951624208702364e+18,-1.0,0.0,-3.0,-2.0,0.0,1.0,-1.0,-3.0
1.6951624208846126e+18,0.0,-2.0,0.0,-3.0,-2.0,-1.0,-1.0,-2.0
1.6951624208855788e+18,0.0,2.0,0.0,1.0,-1.0,-2.0,-1.0,1.0
1.6951624208865782e+18,-6.0,-1.0,-1.0,0.0,0.0,-1.0,-2.0,-2.0
1.6951624208865782e+18,3.0,0.0,-2.0,-1.0,0.0,1.0,0.0,0.0
1.6951624209228626e+18,1.0,-1.0,0.0,0.0,-1.0,0.0,2.0,-2.0
1.6951624209228626e+18,0.0,-2.0,0.0,-1.0,1.0,-1.0,-1.0,0.0
1.6951624209248591e+18,0.0,0.0,1.0,-1.0,0.0,-1.0,0.0,0.0
1.6951624209258606e+18,-2.0,0.0,-3.0,-2.0,0.0,-1.0,0.0,-1.0
1.6951624209318577e+18,1.0,0.0,2.0,4.0,1.0,1.0,0.0,1.0
1.695162420932857e+18,0.0,-1.0,-2.0,0.0,0.0,0.0,-2.0,1.0
1.695162420932857e+18,-1.0,0.0,-1.0,-2.0,-2.0,0.0,1.0,-1.0
1.695162420932857e+18,0.0,-1.0,-2.0,-1.0,0.0,-2.0,-1.0,0.0
1.6951624209524017e+18,0.0,-1.0,4.0,0.0,-1.0,-2.0,-2.0,1.0
1.6951624209524017e+18,1.0,-2.0,-12.0,-1.0,-2.0,-2.0,-2.0,1.0
1.6951624209534034e+18,1.0,-1.0,0.0,0.0,0.0,-1.0,-1.0,-1.0
1.6951624209534034e+18,-1.0,0.0,-1.0,-1.0,-3.0,-2.0,-2.0,0.0
1.6951624209658665e+18,-1.0,1.0,0.0,-1.0,0.0,0.0,0.0,-1.0
1.6951624209668419e+18,-1.0,-1.0,0.0,-2.0,0.0,-1.0,0.0,-1.0
1.695162420982836e+18,-1.0,-2.0,-3.0,-2.0,-2.0,0.0,-1.0,0.0
1.695162420982836e+18,-2.0,-1.0,-2.0,0.0,0.0,-1.0,-3.0,-2.0
1.695162420982836e+18,-1.0,0.0,-2.0,-1.0,0.0,-1.0,0.0,0.0
1.6951624209838354e+18,0.0,0.0,2.0,0.0,0.0,1.0,-1.0,-3.0
1.6951624209898286e+18,0.0,-2.0,-2.0,-2.0,-1.0,0.0,-1.0,0.0
1.6951624209898286e+18,-1.0,0.0,-1.0,-1.0,1.0,-1.0,2.0,0.0
1.6951624210044657e+18,-3.0,-2.0,-1.0,-3.0,-2.0,-2.0,0.0,0.0
1.6951624210044657e+18,-1.0,-1.0,-2.0,-4.0,-1.0,-2.0,-2.0,-1.0
1.6951624210064668e+18,-1.0,-1.0,0.0,-1.0,0.0,-1.0,-3.0,-1.0
1.6951624210064668e+18,-1.0,-1.0,-1.0,-3.0,0.0,0.0,0.0,0.0
1.6951624210345439e+18,-1.0,0.0,-1.0,0.0,-1.0,-1.0,-3.0,-1.0
1.6951624210355366e+18,-2.0,-1.0,1.0,0.0,1.0,1.0,-1.0,0.0
1.6951624210365368e+18,-1.0,0.0,-1.0,-2.0,-1.0,1.0,-1.0,1.0
1.6951624210365368e+18,0.0,-2.0,-1.0,0.0,-1.0,0.0,-1.0,-1.0
1.6951624210408084e+18,-1.0,-1.0,-2.0,-1.0,-1.0,0.0,-1.0,-2.0
1.6951624210408084e+18,-1.0,-2.0,-1.0,-1.0,-1.0,1.0,-3.0,0.0
1.695162421049959e+18,-1.0,2.0,4.0,1.0,-1.0,-3.0,-1.0,0.0
1.695162421049959e+18,-2.0,-2.0,-3.0,-1.0,1.0,-1.0,-1.0,0.0
1.69516242106495e+18,-1.0,-2.0,0.0,-1.0,-1.0,0.0,1.0,-1.0
1.69516242106495e+18,-1.0,-1.0,-1.0,-2.0,-1.0,-2.0,1.0,-2.0
1.6951624210729482e+18,-1.0,-1.0,-2.0,0.0,-2.0,-1.0,0.0,0.0
1.695162421073946e+18,0.0,0.0,0.0,0.0,-1.0,0.0,0.0,0.0
1.695162421086939e+18,0.0,-2.0,-2.0,0.0,0.0,-1.0,-1.0,1.0
1.695162421086939e+18,-2.0,0.0,0.0,0.0,-2.0,0.0,-2.0,-2.0
1.6951624210889362e+18,-1.0,0.0,-3.0,-1.0,0.0,1.0,-1.0,0.0
1.6951624210889362e+18,0.0,-1.0,1.0,1.0,-2.0,-2.0,0.0,-1.0
1.695162421100953e+18,0.0,-2.0,-2.0,1.0,-2.0,-1.0,0.0,-3.0
1.695162421100953e+18,0.0,-1.0,-1.0,0.0,-1.0,-1.0,1.0,0.0
1.6951624211159206e+18,0.0,-2.0,-1.0,-2.0,-1.0,-1.0,1.0,0.0
1.6951624211159206e+18,-1.0,-3.0,-1.0,-1.0,0.0,0.0,-1.0,0.0
1.6951624211239176e+18,0.0,-2.0,-1.0,0.0,0.0,-2.0,-2.0,-2.0
1.6951624211239176e+18,1.0,0.0,1.0,0.0,0.0,-1.0,-1.0,-1.0
1.6951624211309235e+18,0.0,-1.0,-2.0,-1.0,-1.0,-1.0,1.0,-1.0
1.6951624211309235e+18,0.0,0.0,-2.0,-3.0,-3.0,-1.0,-1.0,1.0
1.695162421147164e+18,-2.0,0.0,0.0,-1.0,1.0,-1.0,3.0,1.0
1.695162421147164e+18,-2.0,-2.0,0.0,-1.0,3.0,0.0,0.0,-1.0
1.695162421149167e+18,0.0,-1.0,-1.0,-1.0,1.0,-1.0,-2.0,-1.0
1.695162421149167e+18,-2.0,1.0,0.0,-2.0,0.0,-1.0,0.0,-1.0
1.695162421160739e+18,-2.0,0.0,0.0,-2.0,-1.0,0.0,-2.0,-1.0
1.6951624211615409e+18,0.0,-1.0,-1.0,-1.0,-2.0,-2.0,-1.0,0.0
1.6951624211696325e+18,0.0,0.0,0.0,1.0,-1.0,0.0,-2.0,0.0
1.6951624211696325e+18,-1.0,-1.0,0.0,0.0,-1.0,-3.0,0.0,0.0
1.6951624211844319e+18,0.0,1.0,0.0,-1.0,-2.0,0.0,-1.0,-1.0
1.6951624211844319e+18,0.0,-2.0,0.0,-1.0,-1.0,0.0,0.0,0.0
1.695162421190431e+18,-1.0,-2.0,-2.0,-1.0,-1.0,-1.0,1.0,0.0
1.6951624211914284e+18,-1.0,-1.0,-1.0,0.0,0.0,1.0,-2.0,-1.0
1.695162421207419e+18,0.0,-1.0,-2.0,0.0,0.0,0.0,-3.0,1.0
1.695162421207419e+18,-1.0,-2.0,0.0,-1.0,-1.0,-1.0,0.0,-1.0
1.695162421208418e+18,-1.0,-1.0,0.0,0.0,-1.0,-1.0,1.0,-1.0
1.695162421208418e+18,0.0,0.0,-1.0,-1.0,-1.0,-1.0,0.0,-1.0
1.6951624212294067e+18,0.0,-1.0,-2.0,-1.0,0.0,0.0,0.0,-2.0
1.6951624212304056e+18,0.0,0.0,-1.0,0.0,0.0,1.0,-1.0,-1.0
1.695162421231406e+18,-1.0,0.0,0.0,-2.0,-2.0,-2.0,-1.0,-2.0
1.695162421231406e+18,-2.0,-1.0,0.0,-1.0,-2.0,0.0,-1.0,-1.0
1.6951624212443983e+18,-2.0,-1.0,-1.0,-1.0,-1.0,-1.0,-1.0,1.0
1.6951624212443983e+18,-2.0,-1.0,1.0,-1.0,-2.0,-1.0,-2.0,-1.0
1.6951624212504156e+18,-1.0,-1.0,0.0,-1.0,1.0,-1.0,-2.0,-1.0
1.6951624212513943e+18,1.0,1.0,-1.0,-1.0,0.0,1.0,-1.0,0.0
1.6951624212673843e+18,-1.0,-1.0,0.0,-3.0,-2.0,0.0,-2.0,-2.0
1.6951624212673843e+18,-2.0,-1.0,0.0,-1.0,0.0,-1.0,0.0,0.0
1.6951624212683845e+18,-2.0,1.0,0.0,-1.0,-2.0,0.0,0.0,-1.0
1.6951624212693842e+18,-1.0,0.0,-2.0,0.0,-3.0,-1.0,0.0,-1.0
1.6951624212893724e+18,1.0,-2.0,-1.0,0.0,0.0,-2.0,-1.0,0.0
1.6951624212903718e+18,-1.0,-2.0,-1.0,-1.0,0.0,0.0,0.0,-1.0
1.6951624212913708e+18,0.0,-1.0,-2.0,0.0,1.0,0.0,-2.0,-2.0
1.6951624212913708e+18,-2.0,-2.0,-1.0,0.0,0.0,-1.0,-2.0,-1.0
1.695162421304364e+18,-1.0,-1.0,0.0,0.0,-1.0,-1.0,-1.0,0.0
1.695162421304364e+18,-1.0,1.0,0.0,0.0,-1.0,-2.0,0.0,-2.0
1.695162421311361e+18,1.0,-2.0,-1.0,0.0,-1.0,-1.0,-1.0,-1.0
1.695162421311361e+18,0.0,-2.0,-1.0,1.0,-2.0,0.0,-1.0,-2.0
1.6951624213293494e+18,1.0,-2.0,0.0,1.0,-2.0,0.0,0.0,1.0
1.6951624213303524e+18,-1.0,0.0,-3.0,0.0,-2.0,-1.0,-2.0,-2.0
1.6951624213313508e+18,-1.0,-3.0,3.0,-2.0,-1.0,-1.0,-2.0,-1.0
1.6951624213323507e+18,-1.0,-1.0,-7.0,-1.0,-1.0,-1.0,0.0,-1.0
1.6951624213493379e+18,-1.0,-1.0,0.0,-1.0,1.0,1.0,-1.0,-1.0
1.6951624213503368e+18,-1.0,2.0,-1.0,0.0,-1.0,-1.0,0.0,0.0
1.6951624213513362e+18,-3.0,-2.0,0.0,-1.0,-1.0,-1.0,0.0,0.0
1.6951624213513362e+18,1.0,-2.0,3.0,0.0,0.0,-2.0,-2.0,1.0
1.695162421364329e+18,-1.0,1.0,-2.0,0.0,-2.0,-2.0,-1.0,-1.0
1.695162421364329e+18,0.0,-2.0,-3.0,0.0,0.0,0.0,-1.0,-1.0
1.695162421378327e+18,-2.0,0.0,0.0,-1.0,-1.0,0.0,-2.0,-1.0
1.695162421378327e+18,0.0,-1.0,0.0,-3.0,-1.0,0.0,0.0,-1.0
1.6951624213863173e+18,-1.0,-1.0,-3.0,-2.0,-1.0,1.0,0.0,-2.0
1.6951624213873183e+18,1.0,-2.0,6.0,-3.0,-1.0,-1.0,-1.0,-2.0
1.6951624214093033e+18,-1.0,-1.0,-5.0,0.0,0.0,-1.0,-2.0,-1.0
1.6951624214103032e+18,-2.0,2.0,1.0,-1.0,0.0,-1.0,-1.0,0.0
1.6951624214103032e+18,-1.0,-1.0,-5.0,0.0,-2.0,-1.0,-1.0,0.0
1.6951624214103032e+18,-2.0,2.0,11.0,-1.0,-1.0,-1.0,0.0,-1.0
1.695162421417298e+18,1.0,-1.0,-17.0,0.0,-1.0,0.0,0.0,-1.0
1.695162421417298e+18,-1.0,-1.0,10.0,0.0,-2.0,-1.0,-1.0,0.0
1.695162421423296e+18,0.0,-1.0,-2.0,-2.0,0.0,0.0,0.0,-2.0
1.695162421423296e+18,-1.0,0.0,-5.0,-1.0,-2.0,-1.0,0.0,1.0
1.69516242143229e+18,-2.0,0.0,5.0,-1.0,0.0,0.0,-2.0,0.0
1.69516242143229e+18,-2.0,-1.0,-4.0,-1.0,0.0,-1.0,-1.0,-2.0
1.6951624214472827e+18,0.0,0.0,-1.0,-1.0,-1.0,0.0,0.0,-1.0
1.6951624214472827e+18,1.0,-1.0,-5.0,0.0,0.0,-2.0,-1.0,0.0
1.6951624214482834e+18,0.0,-1.0,2.0,-2.0,-1.0,-1.0,0.0,0.0
1.6951624214482834e+18,-1.0,-1.0,-5.0,0.0,-2.0,-1.0,1.0,0.0
1.695162421469269e+18,-2.0,1.0,1.0,0.0,-1.0,-1.0,-1.0,0.0
1.695162421469269e+18,-1.0,-1.0,-2.0,0.0,-1.0,-1.0,-1.0,-1.0
1.6951624214712701e+18,0.0,0.0,2.0,-2.0,-3.0,-1.0,1.0,-1.0
1.6951624214712701e+18,-1.0,-1.0,0.0,-1.0,0.0,-1.0,0.0,-1.0
1.6951624214922552e+18,-1.0,0.0,2.0,-3.0,0.0,-2.0,0.0,-1.0
1.6951624214922552e+18,1.0,-2.0,-2.0,-2.0,0.0,-1.0,-1.0,-1.0
1.6951624214932572e+18,1.0,-1.0,1.0,1.0,-1.0,-1.0,0.0,-2.0
1.6951624214932572e+18,1.0,-2.0,-1.0,-1.0,1.0,1.0,-1.0,0.0
1.695162421507248e+18,0.0,0.0,0.0,-2.0,-1.0,0.0,-1.0,-1.0
1.695162421507248e+18,0.0,-1.0,-5.0,-1.0,-2.0,0.0,-2.0,-1.0
1.6951624215082465e+18,-1.0,0.0,1.0,-1.0,0.0,-1.0,0.0,-1.0
1.6951624215082465e+18,-1.0,-1.0,0.0,0.0,-1.0,-2.0,0.0,-2.0
1.6951624215308623e+18,-1.0,-2.0,-1.0,0.0,-1.0,-2.0,-1.0,1.0
1.6951624215308623e+18,-1.0,-1.0,-1.0,-3.0,-1.0,1.0,0.0,0.0
1.6951624215358595e+18,0.0,0.0,1.0,-1.0,1.0,0.0,0.0,-1.0
1.6951624215358595e+18,-1.0,0.0,-6.0,-2.0,0.0,-1.0,-2.0,-1.0
1.6951624215518508e+18,-1.0,0.0,1.0,0.0,0.0,-1.0,1.0,0.0
1.6951624215518508e+18,-2.0,-1.0,-1.0,0.0,-1.0,0.0,-1.0,1.0
1.69516242155385e+18,0.0,-1.0,3.0,-1.0,-1.0,-1.0,-2.0,1.0
1.69516242155385e+18,-2.0,-1.0,-1.0,-1.0,-2.0,-1.0,0.0,-1.0
1.69516242157184e+18,-1.0,-2.0,-1.0,-1.0,0.0,-1.0,1.0,0.0
1.69516242157184e+18,-1.0,-1.0,-1.0,1.0,0.0,0.0,-1.0,0.0
1.69516242157184e+18,-1.0,-1.0,-1.0,-1.0,-2.0,0.0,0.0,-2.0
1.69516242157184e+18,2.0,-1.0,-1.0,-1.0,-2.0,0.0,-2.0,0.0
1.6951624215898511e+18,-1.0,0.0,-2.0,-1.0,-2.0,-1.0,0.0,0.0
1.6951624215898511e+18,-1.0,-1.0,0.0,0.0,-2.0,-2.0,-1.0,-1.0
1.6951624215908314e+18,0.0,-1.0,-2.0,-1.0,0.0,1.0,-1.0,-1.0
1.6951624215908314e+18,-3.0,0.0,0.0,1.0,-2.0,-1.0,-1.0,0.0
1.695162421605842e+18,0.0,-1.0,1.0,-1.0,-1.0,-1.0,-2.0,-1.0
1.695162421605842e+18,-1.0,0.0,-3.0,-3.0,1.0,0.0,-2.0,-1.0
1.6951624216198167e+18,-2.0,-1.0,-1.0,-1.0,-2.0,-1.0,-2.0,-1.0
1.6951624216198167e+18,0.0,1.0,0.0,-1.0,1.0,0.0,0.0,-1.0
1.6951624216265787e+18,-2.0,-1.0,-2.0,1.0,1.0,-3.0,0.0,0.0
1.6951624216265787e+18,0.0,0.0,-1.0,-1.0,-2.0,-1.0,-1.0,0.0
1.695162421642397e+18,-1.0,-1.0,-1.0,-2.0,-1.0,-1.0,-1.0,1.0
1.695162421642397e+18,0.0,-2.0,0.0,-2.0,0.0,0.0,-1.0,0.0
1.6951624216487114e+18,-2.0,-2.0,-2.0,-1.0,-1.0,0.0,-1.0,-1.0
1.6951624216487114e+18,1.0,-2.0,-1.0,1.0,-1.0,-1.0,-1.0,-3.0
1.6951624216577224e+18,-1.0,0.0,0.0,0.0,0.0,-3.0,1.0,-1.0
1.6951624216577224e+18,-1.0,-1.0,0.0,-1.0,-1.0,-1.0,0.0,0.0
1.6951624216727086e+18,1.0,-1.0,-1.0,0.0,-2.0,-1.0,-1.0,-1.0
1.6951624216737027e+18,0.0,-1.0,-1.0,1.0,-1.0,-1.0,0.0,0.0
1.6951624216807e+18,-1.0,-2.0,-1.0,1.0,0.0,-1.0,0.0,0.0
1.6951624216817055e+18,-2.0,0.0,0.0,1.0,-1.0,-1.0,0.0,-1.0
1.695162421689695e+18,-1.0,-3.0,-3.0,1.0,-1.0,-1.0,-1.0,-1.0
1.6951624216906936e+18,-2.0,-1.0,-1.0,-1.0,-1.0,-1.0,0.0,-1.0
1.6951624216906936e+18,-1.0,-1.0,-1.0,0.0,0.0,-2.0,-2.0,-1.0
1.6951624216916982e+18,0.0,-1.0,-2.0,-1.0,-1.0,0.0,-2.0,-2.0
1.695162421732669e+18,-2.0,-1.0,0.0,-1.0,0.0,-1.0,0.0,-1.0
1.6951624217456612e+18,0.0,-1.0,-1.0,-2.0,-2.0,-1.0,-1.0,0.0
1.695162421746666e+18,-2.0,-1.0,-1.0,-2.0,-1.0,-1.0,-2.0,-1.0
1.6951624217476593e+18,0.0,0.0,-1.0,0.0,0.0,-2.0,-1.0,0.0
1.6951624217476593e+18,-2.0,-1.0,1.0,1.0,-1.0,0.0,0.0,-1.0
1.6951624217476593e+18,-1.0,-1.0,-2.0,0.0,-1.0,0.0,1.0,-3.0
1.6951624217506573e+18,0.0,-1.0,-1.0,0.0,-2.0,-1.0,0.0,-1.0
1.6951624217506573e+18,0.0,-1.0,-1.0,-1.0,1.0,1.0,-2.0,0.0
1.6951624217506573e+18,1.0,-1.0,-2.0,-1.0,0.0,-1.0,-3.0,-1.0
1.695162421751657e+18,-2.0,-1.0,-1.0,-1.0,0.0,-2.0,-1.0,-1.0
1.695162421751657e+18,-1.0,-1.0,-1.0,-2.0,-1.0,0.0,-2.0,-1.0
1.6951624217526572e+18,1.0,0.0,0.0,0.0,-1.0,-1.0,-1.0,-1.0
1.6951624217696463e+18,1.0,-1.0,-1.0,-2.0,0.0,-1.0,0.0,-1.0
1.6951624217706455e+18,0.0,-2.0,0.0,-1.0,0.0,0.0,-2.0,-1.0
1.6951624217716454e+18,-1.0,0.0,-3.0,-1.0,1.0,0.0,-1.0,-1.0
1.6951624217716454e+18,-1.0,-2.0,-1.0,-1.0,-3.0,-1.0,-1.0,0.0
1.695162421783637e+18,-1.0,0.0,-2.0,-2.0,-1.0,-1.0,-4.0,0.0
1.695162421783637e+18,-1.0,-1.0,0.0,-1.0,0.0,-1.0,-2.0,0.0
1.695162421791633e+18,-1.0,0.0,-1.0,0.0,0.0,-2.0,0.0,1.0
1.6951624217926323e+18,-2.0,-1.0,-2.0,-1.0,1.0,0.0,0.0,0.0
1.695162421808625e+18,-2.0,-1.0,0.0,0.0,-2.0,-1.0,-1.0,0.0
1.695162421808625e+18,0.0,-1.0,-1.0,0.0,0.0,0.0,1.0,-1.0
1.6951624218096225e+18,0.0,-1.0,0.0,-1.0,-2.0,-1.0,0.0,0.0
1.6951624218096225e+18,-1.0,0.0,-2.0,-3.0,0.0,-1.0,0.0,0.0
1.6951624218296123e+18,-1.0,0.0,-1.0,-1.0,-1.0,0.0,-2.0,0.0
1.6951624218296123e+18,-1.0,-1.0,-3.0,-1.0,0.0,-1.0,-1.0,-1.0
1.695162421831613e+18,-1.0,0.0,1.0,0.0,1.0,-1.0,1.0,-2.0
1.695162421831613e+18,-1.0,-2.0,-1.0,0.0,-1.0,0.0,-1.0,-2.0
1.695162421843604e+18,-3.0,0.0,0.0,-2.0,2.0,1.0,0.0,-1.0
1.695162421843604e+18,-1.0,1.0,1.0,-3.0,-2.0,-1.0,-1.0,0.0
1.6951624218675044e+18,-1.0,0.0,-2.0,0.0,1.0,-1.0,-3.0,0.0
1.6951624218675044e+18,0.0,-1.0,0.0,2.0,-1.0,-2.0,0.0,-1.0
1.6951624218684982e+18,-1.0,-2.0,-1.0,-1.0,0.0,0.0,-1.0,-2.0
1.6951624218684982e+18,-2.0,0.0,0.0,-1.0,-1.0,-1.0,-1.0,0.0
1.6951624218824855e+18,-1.0,0.0,-3.0,-1.0,-1.0,-1.0,-2.0,-2.0
1.6951624218824855e+18,1.0,0.0,-1.0,-1.0,0.0,0.0,-1.0,0.0
1.695162421897133e+18,-2.0,-4.0,1.0,0.0,-1.0,-2.0,-1.0,0.0
1.695162421897133e+18,-1.0,0.0,1.0,-1.0,-1.0,-1.0,1.0,-2.0
1.6951624218981402e+18,-1.0,0.0,-1.0,-1.0,0.0,0.0,-1.0,0.0
1.6951624218991355e+18,-2.0,-1.0,-3.0,0.0,-2.0,-1.0,0.0,0.0
1.6951624219195853e+18,0.0,-1.0,-2.0,0.0,-1.0,0.0,0.0,1.0
1.6951624219195853e+18,-1.0,-1.0,-2.0,0.0,0.0,-1.0,-2.0,-2.0
1.6951624219215895e+18,-1.0,-2.0,0.0,1.0,-1.0,-1.0,-1.0,-2.0
1.6951624219215895e+18,-1.0,-2.0,-1.0,-1.0,-1.0,-1.0,-1.0,-1.0
1.695162421926413e+18,-1.0,1.0,-1.0,0.0,-1.0,-1.0,1.0,-2.0
1.695162421926413e+18,0.0,1.0,-2.0,0.0,0.0,0.0,-2.0,0.0
1.695162421933495e+18,1.0,-1.0,-1.0,-1.0,0.0,0.0,-1.0,-1.0
1.695162421933495e+18,-2.0,0.0,1.0,-2.0,-1.0,0.0,-1.0,-1.0
1.6951624219495631e+18,0.0,-1.0,-2.0,1.0,-2.0,0.0,-1.0,-1.0
1.6951624219495631e+18,0.0,-2.0,0.0,-2.0,0.0,-1.0,0.0,1.0
1.695162421951578e+18,-1.0,-1.0,0.0,-2.0,-2.0,0.0,0.0,1.0
1.695162421951578e+18,0.0,-1.0,-1.0,-1.0,0.0,-1.0,-1.0,0.0
1.6951624219720192e+18,1.0,0.0,-1.0,-1.0,-1.0,0.0,-1.0,1.0
1.6951624219720192e+18,0.0,-1.0,-2.0,-1.0,-1.0,-2.0,-1.0,-1.0
1.6951624219739968e+18,-2.0,-1.0,0.0,-1.0,0.0,-1.0,0.0,-1.0
1.6951624219739968e+18,-1.0,-1.0,-2.0,0.0,1.0,-1.0,0.0,-1.0
1.6951624219875735e+18,0.0,-1.0,-1.0,-2.0,-1.0,-1.0,0.0,-1.0
1.6951624219875735e+18,-1.0,-1.0,-1.0,0.0,-1.0,-1.0,-1.0,0.0
1.6951624219886612e+18,-2.0,-1.0,-1.0,0.0,-2.0,0.0,0.0,1.0
1.6951624219886612e+18,0.0,0.0,-2.0,0.0,-1.0,-1.0,-1.0,-1.0
1.6951624220095634e+18,-1.0,-2.0,-1.0,0.0,-1.0,0.0,-2.0,0.0
1.6951624220095634e+18,-3.0,0.0,-1.0,0.0,-2.0,-1.0,-1.0,0.0
1.6951624220114642e+18,-1.0,-1.0,-2.0,-1.0,-2.0,-2.0,2.0,0.0
1.6951624220114642e+18,1.0,0.0,0.0,-2.0,0.0,-2.0,0.0,-1.0
1.6951624220325722e+18,0.0,-1.0,0.0,0.0,1.0,0.0,-2.0,1.0
1.6951624220325722e+18,0.0,0.0,1.0,0.0,-1.0,-1.0,0.0,-1.0
1.6951624220345723e+18,1.0,-2.0,1.0,1.0,-1.0,0.0,-1.0,1.0
1.6951624220345723e+18,-1.0,-1.0,0.0,-2.0,-1.0,0.0,0.0,-1.0
1.695162422054564e+18,-1.0,0.0,-1.0,-1.0,-2.0,0.0,-1.0,-2.0
1.695162422056563e+18,-1.0,-1.0,-3.0,-1.0,1.0,-1.0,-1.0,-2.0
1.6951624220605555e+18,-1.0,0.0,0.0,-1.0,0.0,-1.0,-1.0,-2.0
1.6951624220615562e+18,-3.0,0.0,-1.0,1.0,-2.0,-1.0,-1.0,-3.0
1.6951624220705505e+18,2.0,-2.0,2.0,-2.0,0.0,-1.0,-1.0,-3.0
1.6951624220705505e+18,-1.0,-1.0,0.0,0.0,-1.0,-1.0,1.0,0.0
1.695162422071555e+18,1.0,1.0,-1.0,-1.0,-1.0,-1.0,-2.0,0.0
1.6951624220725494e+18,-2.0,0.0,-2.0,0.0,2.0,0.0,-1.0,-2.0
1.6951624220835423e+18,-1.0,0.0,-1.0,-1.0,-3.0,-1.0,-1.0,-2.0
1.6951624220835423e+18,1.0,0.0,-2.0,0.0,-1.0,0.0,-2.0,0.0
1.6951624221075538e+18,0.0,-1.0,-1.0,-2.0,0.0,0.0,-1.0,-1.0
1.6951624221075538e+18,-1.0,-2.0,-2.0,-1.0,0.0,-1.0,0.0,0.0
1.695162422108533e+18,-3.0,0.0,-1.0,-1.0,-1.0,-2.0,-1.0,0.0
1.695162422108533e+18,0.0,-1.0,-2.0,-1.0,1.0,0.0,-1.0,-2.0
1.6951624221135268e+18,-1.0,-1.0,-1.0,1.0,-1.0,-2.0,0.0,0.0
1.6951624221145252e+18,-1.0,0.0,0.0,0.0,0.0,1.0,-2.0,-2.0
1.6951624221345152e+18,-1.0,-1.0,-1.0,-1.0,1.0,-2.0,2.0,0.0
1.6951624221435098e+18,-1.0,-1.0,-1.0,-3.0,-2.0,-1.0,-1.0,0.0
1.6951624221455127e+18,-1.0,0.0,-3.0,-2.0,-1.0,1.0,-1.0,-1.0
1.6951624221455127e+18,-1.0,-1.0,-2.0,0.0,-1.0,0.0,-1.0,1.0
1.6951624221465165e+18,0.0,0.0,-2.0,-1.0,-1.0,-1.0,-1.0,-2.0
1.6951624221465165e+18,-1.0,0.0,-1.0,-2.0,0.0,-1.0,1.0,-1.0
1.6951624221525033e+18,-1.0,0.0,-2.0,-1.0,-2.0,-1.0,0.0,-1.0
1.695162422153504e+18,0.0,-1.0,-1.0,-1.0,-1.0,-2.0,0.0,1.0
1.6951624221664963e+18,-1.0,-1.0,0.0,-2.0,0.0,-2.0,-2.0,0.0
1.6951624221675003e+18,0.0,-2.0,-1.0,0.0,-1.0,-1.0,-1.0,-1.0
1.6951624221734912e+18,-1.0,0.0,0.0,0.0,-1.0,0.0,-3.0,-1.0
1.6951624221734912e+18,0.0,-1.0,-2.0,0.0,0.0,-1.0,0.0,0.0
1.6951624221894815e+18,1.0,-1.0,-1.0,-1.0,1.0,0.0,1.0,-1.0
1.695162422190482e+18,-1.0,-1.0,-1.0,-1.0,-1.0,-2.0,-1.0,1.0
1.695162422191481e+18,-1.0,-1.0,-3.0,-1.0,-1.0,-2.0,-1.0,-1.0
1.695162422191481e+18,-1.0,0.0,-1.0,0.0,-2.0,-1.0,0.0,0.0
1.6951624222184648e+18,-1.0,-1.0,0.0,-1.0,-1.0,1.0,0.0,1.0
1.6951624222184648e+18,-1.0,-2.0,0.0,-1.0,-1.0,-2.0,-1.0,-1.0
1.6951624222184648e+18,0.0,-2.0,-1.0,-1.0,-1.0,-1.0,-1.0,-3.0
1.6951624222194665e+18,0.0,-1.0,0.0,-1.0,0.0,2.0,0.0,-1.0
1.6951624222264604e+18,0.0,-1.0,-1.0,1.0,-1.0,-2.0,-1.0,1.0
1.6951624222264604e+18,-1.0,-1.0,-2.0,1.0,0.0,0.0,0.0,-1.0
1.6951624222344563e+18,-1.0,-1.0,-1.0,-1.0,-1.0,-1.0,-1.0,2.0
1.6951624222354596e+18,0.0,-1.0,0.0,-2.0,-3.0,-1.0,-1.0,-1.0
1.6951624222494492e+18,-1.0,0.0,1.0,-2.0,0.0,-1.0,0.0,-1.0
1.6951624222494492e+18,0.0,0.0,1.0,-1.0,-2.0,-1.0,-2.0,-2.0
1.695162422251446e+18,1.0,-1.0,-1.0,-2.0,1.0,0.0,-1.0,-1.0
1.695162422251446e+18,0.0,-1.0,-1.0,-1.0,-2.0,-1.0,-2.0,0.0
1.6951624222724342e+18,0.0,0.0,-1.0,-2.0,-1.0,-1.0,0.0,-1.0
1.6951624222724342e+18,0.0,0.0,-1.0,0.0,-1.0,0.0,0.0,1.0
1.695162422273436e+18,-1.0,-1.0,1.0,-1.0,2.0,-1.0,1.0,0.0
1.695162422273436e+18,0.0,0.0,-2.0,-2.0,-1.0,-2.0,-1.0,0.0
1.6951624222864276e+18,0.0,-1.0,-2.0,1.0,-1.0,-1.0,0.0,-2.0
1.6951624222864276e+18,-1.0,1.0,-1.0,-3.0,-1.0,-1.0,-1.0,-1.0
1.6951624222934213e+18,-1.0,-1.0,0.0,-1.0,-1.0,0.0,0.0,0.0
1.6951624222934213e+18,0.0,-2.0,-1.0,0.0,0.0,-1.0,0.0,-1.0
1.6951624223094141e+18,0.0,0.0,0.0,-1.0,-1.0,-1.0,-1.0,-1.0
1.6951624223094141e+18,-1.0,-1.0,0.0,-1.0,2.0,0.0,1.0,1.0
1.6951624223114145e+18,-1.0,2.0,-1.0,1.0,0.0,-1.0,-1.0,0.0
1.6951624223114145e+18,-3.0,-1.0,1.0,-1.0,-1.0,-1.0,-1.0,0.0
1.6951624223394033e+18,-2.0,0.0,-1.0,0.0,2.0,3.0,0.0,-1.0
1.6951624223403986e+18,-2.0,-1.0,0.0,0.0,0.0,-2.0,-1.0,-1.0
1.6951624223413947e+18,-2.0,-1.0,0.0,-1.0,-2.0,0.0,0.0,0.0
1.6951624223413947e+18,0.0,0.0,-1.0,-2.0,-2.0,-2.0,-2.0,0.0
1.6951624223463974e+18,1.0,-1.0,-1.0,0.0,-3.0,-3.0,-1.0,-1.0
1.6951624223473915e+18,-2.0,-2.0,-1.0,-3.0,0.0,0.0,-1.0,-1.0
1.6951624223563863e+18,0.0,-2.0,0.0,-1.0,2.0,0.0,2.0,0.0
1.6951624223563863e+18,-1.0,2.0,-2.0,-1.0,-1.0,0.0,0.0,1.0
1.695162422369381e+18,-1.0,-1.0,-1.0,-2.0,0.0,1.0,-3.0,0.0
1.695162422370378e+18,-1.0,-2.0,-3.0,1.0,-2.0,-1.0,-1.0,-1.0
1.6951624223713774e+18,1.0,0.0,-1.0,-2.0,0.0,-1.0,-2.0,-1.0
1.6951624223723776e+18,0.0,-2.0,0.0,0.0,-1.0,1.0,1.0,-2.0
1.6951624223993615e+18,-3.0,-1.0,-1.0,0.0,-2.0,-2.0,-1.0,0.0
1.6951624224003638e+18,-1.0,1.0,1.0,0.0,1.0,-1.0,-1.0,0.0
1.6951624224023598e+18,-1.0,0.0,0.0,0.0,1.0,1.0,0.0,-1.0
1.6951624224023598e+18,-1.0,-2.0,-1.0,-1.0,0.0,1.0,0.0,0.0
1.695162422414352e+18,0.0,0.0,-2.0,-3.0,-1.0,-1.0,1.0,0.0
1.695162422414352e+18,-1.0,-1.0,0.0,-3.0,-2.0,-1.0,-2.0,-2.0
1.695162422416351e+18,1.0,-3.0,-1.0,-1.0,-2.0,-1.0,-1.0,-3.0
1.695162422416351e+18,-1.0,0.0,-1.0,-2.0,-1.0,-2.0,-1.0,-1.0
1.6951624224293445e+18,-2.0,-2.0,0.0,-1.0,-3.0,-1.0,-2.0,0.0
1.6951624224293445e+18,-2.0,-1.0,-1.0,0.0,1.0,1.0,-1.0,-1.0
1.6951624224313434e+18,-1.0,-1.0,0.0,-1.0,-1.0,-3.0,0.0,-1.0
1.6951624224313434e+18,0.0,-1.0,1.0,2.0,0.0,-1.0,0.0,-1.0
1.6951624224523343e+18,0.0,0.0,-1.0,-1.0,0.0,-1.0,0.0,-1.0
1.6951624224523343e+18,1.0,-1.0,-2.0,1.0,-3.0,-1.0,-2.0,0.0
1.6951624224533307e+18,-1.0,0.0,-2.0,1.0,-1.0,-1.0,-1.0,-1.0
1.6951624224533307e+18,-2.0,-1.0,0.0,0.0,0.0,-2.0,-1.0,-1.0
1.6951624224653228e+18,-1.0,-1.0,1.0,1.0,1.0,-1.0,0.0,0.0
1.6951624224663224e+18,-1.0,0.0,1.0,0.0,0.0,1.0,0.0,0.0
1.695162422474318e+18,-1.0,-1.0,0.0,-1.0,-3.0,-3.0,-2.0,-1.0
1.6951624224753193e+18,-1.0,1.0,-3.0,-3.0,1.0,-1.0,-1.0,-1.0
1.69516242249031e+18,2.0,-1.0,1.0,-2.0,1.0,1.0,1.0,0.0
1.69516242249031e+18,-1.0,-2.0,-2.0,0.0,-3.0,-1.0,0.0,-1.0
1.6951624224913088e+18,-2.0,-1.0,-2.0,0.0,1.0,1.0,0.0,1.0
1.6951624224913088e+18,-3.0,-1.0,0.0,-1.0,-3.0,-1.0,-1.0,0.0
1.6951624225122964e+18,-3.0,-1.0,-1.0,-1.0,-5.0,-4.0,-1.0,0.0
1.6951624225122964e+18,-2.0,0.0,0.0,-2.0,-1.0,1.0,0.0,0.0
1.695162422513298e+18,0.0,0.0,0.0,2.0,0.0,3.0,0.0,1.0
1.695162422514297e+18,0.0,-2.0,-1.0,-1.0,3.0,0.0,0.0,0.0
1.6951624225262884e+18,0.0,-1.0,-3.0,-2.0,2.0,-1.0,-1.0,-1.0
1.6951624225332844e+18,0.0,0.0,-2.0,-4.0,-3.0,-3.0,-1.0,-2.0
1.6951624225352845e+18,-1.0,-2.0,-1.0,-3.0,0.0,0.0,-1.0,-2.0
1.6951624225352845e+18,-2.0,-1.0,0.0,7.0,1.0,-1.0,-1.0,-1.0
1.6951624225492764e+18,1.0,-1.0,-2.0,-3.0,-5.0,-2.0,-1.0,0.0
1.6951624225502756e+18,-2.0,-2.0,-3.0,-2.0,-2.0,-2.0,-2.0,-1.0
1.6951624225522757e+18,0.0,1.0,-1.0,-4.0,-2.0,-2.0,-1.0,0.0
1.6951624225522757e+18,-1.0,-2.0,-2.0,-4.0,1.0,-1.0,-2.0,-1.0
1.6951624225792591e+18,-2.0,0.0,-1.0,1.0,-2.0,-1.0,-1.0,-2.0
1.6951624225802578e+18,0.0,-2.0,-1.0,1.0,1.0,-1.0,1.0,0.0
1.6951624225812567e+18,-2.0,-1.0,-1.0,-2.0,-1.0,-3.0,1.0,-2.0
1.6951624225812567e+18,0.0,-1.0,0.0,-1.0,1.0,0.0,1.0,0.0
1.6951624225932513e+18,0.0,0.0,-1.0,1.0,0.0,0.0,0.0,0.0
1.6951624225942497e+18,-2.0,0.0,-1.0,-1.0,0.0,0.0,-1.0,-1.0
1.6951624226002478e+18,-3.0,-1.0,0.0,2.0,-2.0,1.0,-1.0,-2.0
1.6951624226012477e+18,0.0,1.0,-2.0,-3.0,-2.0,-3.0,-1.0,0.0
1.695162422608241e+18,-2.0,-1.0,-1.0,0.0,-1.0,-2.0,-4.0,-1.0
1.6951624226092406e+18,0.0,0.0,1.0,4.0,3.0,-1.0,1.0,1.0
1.6951624226172362e+18,0.0,0.0,-1.0,2.0,4.0,2.0,3.0,1.0
1.6951624226172362e+18,0.0,0.0,1.0,-2.0,1.0,2.0,0.0,-1.0
1.6951624226312284e+18,1.0,2.0,2.0,0.0,-1.0,-4.0,0.0,-1.0
1.6951624226312284e+18,3.0,0.0,1.0,-3.0,-4.0,-1.0,-2.0,0.0
1.6951624226392233e+18,0.0,1.0,0.0,2.0,1.0,2.0,1.0,2.0
1.6951624226392233e+18,0.0,0.0,0.0,1.0,3.0,4.0,3.0,2.0
1.69516242264622e+18,-2.0,-2.0,-1.0,0.0,-1.0,2.0,-1.0,1.0
1.69516242264622e+18,-1.0,0.0,3.0,-8.0,-5.0,-4.0,-2.0,-3.0
1.6951624226542162e+18,1.0,-2.0,-9.0,-5.0,-4.0,-4.0,-2.0,-2.0
1.695162422655218e+18,-1.0,0.0,-1.0,-4.0,-3.0,-9.0,-5.0,-1.0
1.6951624226762038e+18,1.0,1.0,0.0,6.0,-9.0,-4.0,-2.0,-1.0
1.6951624226762038e+18,-2.0,-3.0,3.0,5.0,15.0,8.0,3.0,1.0
1.6951624227011878e+18,1.0,0.0,3.0,-6.0,1.0,8.0,2.0,0.0
1.695162422702189e+18,0.0,0.0,-2.0,2.0,-3.0,2.0,-1.0,-1.0
1.695162422702189e+18,-2.0,-1.0,-1.0,3.0,6.0,-1.0,1.0,-1.0
1.695162422702189e+18,-1.0,0.0,-7.0,-7.0,-9.0,-11.0,-3.0,-1.0
1.695162422707198e+18,0.0,-2.0,1.0,-3.0,-7.0,-8.0,-3.0,-1.0
1.6951624227131837e+18,1.0,-1.0,-1.0,-3.0,-3.0,-5.0,0.0,0.0
1.695162422714181e+18,0.0,0.0,4.0,-7.0,-3.0,8.0,-1.0,1.0
1.695162422714181e+18,1.0,-3.0,-3.0,7.0,5.0,1.0,0.0,0.0
1.6951624227151836e+18,-1.0,0.0,-2.0,-2.0,6.0,-1.0,-1.0,1.0
1.6951624227151836e+18,1.0,1.0,-1.0,-1.0,-3.0,2.0,-1.0,-1.0
1.6951624227296026e+18,3.0,9.0,10.0,7.0,2.0,-1.0,9.0,21.0
1.6951624227296026e+18,0.0,4.0,-5.0,-8.0,-2.0,0.0,-9.0,-43.0
1.6951624227315679e+18,-9.0,-5.0,12.0,6.0,3.0,5.0,2.0,24.0
1.6951624227315679e+18,2.0,3.0,2.0,-4.0,-15.0,-8.0,-4.0,-24.0
1.695162422753545e+18,5.0,-22.0,-33.0,5.0,25.0,0.0,11.0,39.0
1.695162422754545e+18,-6.0,11.0,11.0,-4.0,-17.0,4.0,-3.0,-25.0
1.695162422754545e+18,-3.0,-3.0,2.0,-3.0,-1.0,-17.0,-25.0,6.0
1.695162422754545e+18,-2.0,6.0,1.0,10.0,22.0,29.0,4.0,-5.0
1.695162422765559e+18,8.0,12.0,7.0,-15.0,-27.0,-15.0,9.0,32.0
1.695162422765559e+18,-2.0,-4.0,1.0,8.0,10.0,10.0,2.0,-24.0
1.6951624227902377e+18,3.0,11.0,-8.0,13.0,9.0,-10.0,-4.0,-36.0
1.6951624227902377e+18,-19.0,-5.0,8.0,-42.0,-36.0,-8.0,-4.0,20.0
1.695162422791273e+18,4.0,-19.0,3.0,9.0,16.0,11.0,2.0,-4.0
1.695162422791273e+18,0.0,-18.0,4.0,-3.0,-10.0,-5.0,4.0,34.0
1.695162422792253e+18,7.0,8.0,-35.0,-8.0,-9.0,6.0,13.0,8.0
1.695162422792253e+18,11.0,6.0,4.0,9.0,9.0,-9.0,-3.0,3.0
1.695162422812627e+18,-20.0,-25.0,-19.0,-3.0,-2.0,-2.0,7.0,-43.0
1.695162422812627e+18,-9.0,-21.0,7.0,-2.0,3.0,-9.0,-21.0,-69.0
1.6951624228137398e+18,1.0,13.0,14.0,-8.0,-14.0,-2.0,12.0,62.0
1.6951624228137398e+18,1.0,-49.0,-9.0,14.0,-15.0,9.0,-25.0,12.0
1.695162422825596e+18,12.0,13.0,0.0,-7.0,20.0,-6.0,-3.0,30.0
1.695162422825596e+18,-4.0,13.0,14.0,10.0,17.0,7.0,3.0,-35.0
1.6951624228415654e+18,-1.0,15.0,4.0,8.0,7.0,6.0,15.0,34.0
1.6951624228435666e+18,-3.0,12.0,1.0,-10.0,-14.0,-4.0,12.0,-37.0
1.695162422853564e+18,-8.0,-5.0,12.0,-4.0,-18.0,-8.0,-23.0,-24.0
1.695162422854582e+18,6.0,-3.0,-18.0,3.0,6.0,-16.0,1.0,36.0
1.695162422854582e+18,1.0,5.0,4.0,-2.0,5.0,29.0,6.0,-24.0
1.695162422854582e+18,0.0,11.0,11.0,11.0,15.0,2.0,13.0,13.0
1.6951624229031124e+18,2.0,3.0,-2.0,1.0,-14.0,-8.0,-14.0,-32.0
1.6951624229031124e+18,0.0,3.0,22.0,-7.0,-8.0,-3.0,-1.0,20.0
1.6951624229050924e+18,-1.0,-16.0,-12.0,0.0,5.0,0.0,8.0,4.0
1.6951624229050924e+18,3.0,-5.0,13.0,-3.0,-3.0,-4.0,-10.0,-31.0
1.695162422906087e+18,1.0,5.0,7.0,-2.0,-5.0,3.0,2.0,19.0
1.695162422906087e+18,1.0,10.0,-5.0,5.0,4.0,4.0,8.0,12.0
1.6951624229121047e+18,1.0,3.0,37.0,-3.0,0.0,-2.0,-7.0,-22.0
1.6951624229121047e+18,-2.0,1.0,-16.0,-10.0,0.0,-5.0,5.0,1.0
1.6951624229121047e+18,0.0,-5.0,-18.0,-12.0,-10.0,-5.0,-9.0,-5.0
1.6951624229121047e+18,3.0,-6.0,-48.0,5.0,8.0,12.0,9.0,38.0
1.6951624229155784e+18,-6.0,-9.0,14.0,11.0,-6.0,-7.0,-24.0,-32.0
1.6951624229155784e+18,0.0,13.0,-2.0,2.0,8.0,0.0,15.0,8.0
1.6951624229325837e+18,-8.0,17.0,23.0,1.0,-11.0,-2.0,-3.0,-38.0
1.6951624229325837e+18,8.0,-18.0,16.0,-4.0,0.0,2.0,1.0,27.0
1.695162422933613e+18,-6.0,0.0,-38.0,-7.0,-2.0,-7.0,-5.0,-11.0
1.695162422933613e+18,4.0,-4.0,8.0,6.0,-4.0,-7.0,1.0,-6.0
1.6951624229553664e+18,-11.0,-6.0,-23.0,-4.0,9.0,12.0,-8.0,0.0
1.6951624229553664e+18,5.0,13.0,-14.0,0.0,-7.0,-2.0,0.0,6.0
1.695162422956364e+18,-3.0,-6.0,20.0,-9.0,-8.0,-9.0,-6.0,-15.0
1.695162422956364e+18,-5.0,0.0,-3.0,10.0,14.0,7.0,7.0,-7.0
1.695162422969867e+18,3.0,14.0,-27.0,3.0,3.0,4.0,8.0,41.0
1.6951624229708746e+18,0.0,11.0,83.0,2.0,-2.0,-6.0,-8.0,10.0
1.695162422975863e+18,1.0,-17.0,-71.0,-14.0,-19.0,-8.0,-5.0,4.0
1.6951624229768988e+18,-7.0,-5.0,-28.0,-6.0,1.0,-2.0,-9.0,-5.0
1.6951624229928538e+18,-1.0,-6.0,29.0,15.0,18.0,3.0,5.0,-22.0
1.6951624229938527e+18,-7.0,11.0,-26.0,-4.0,-6.0,5.0,6.0,-11.0
1.6951624229938527e+18,4.0,-13.0,11.0,3.0,8.0,1.0,-1.0,8.0
1.6951624229948541e+18,7.0,20.0,10.0,-8.0,-5.0,-9.0,-17.0,25.0
1.695162423022837e+18,-3.0,-3.0,-31.0,2.0,4.0,4.0,0.0,-11.0
1.6951624230458232e+18,2.0,-31.0,-36.0,-16.0,-16.0,-9.0,0.0,21.0
1.6951624230458232e+18,-10.0,17.0,32.0,6.0,7.0,2.0,9.0,-23.0
1.6951624230468247e+18,2.0,-13.0,-13.0,12.0,12.0,10.0,8.0,7.0
1.6951624230468247e+18,1.0,4.0,8.0,-22.0,-18.0,-7.0,-4.0,2.0
1.6951624230468247e+18,-2.0,5.0,18.0,8.0,10.0,0.0,-1.0,0.0
1.6951624230468247e+18,-5.0,-12.0,-33.0,-6.0,-3.0,0.0,5.0,-2.0
1.6951624230468247e+18,2.0,8.0,30.0,-12.0,-13.0,-12.0,-9.0,-15.0
1.6951624230668099e+18,7.0,13.0,-4.0,1.0,0.0,-1.0,-2.0,31.0
1.6951624230668099e+18,-6.0,-15.0,-23.0,-3.0,-3.0,2.0,6.0,-19.0
1.6951624230968182e+18,7.0,2.0,14.0,13.0,0.0,-1.0,-2.0,12.0
1.6951624230968182e+18,-6.0,-7.0,4.0,12.0,9.0,2.0,3.0,-9.0
1.6951624231057866e+18,2.0,-10.0,-25.0,-30.0,-24.0,-5.0,-9.0,-27.0
1.6951624231057866e+18,0.0,0.0,-20.0,7.0,12.0,0.0,9.0,13.0
1.695162423107789e+18,3.0,9.0,30.0,-3.0,-5.0,-5.0,-15.0,8.0
1.695162423107789e+18,3.0,7.0,0.0,5.0,3.0,5.0,10.0,2.0
1.695162423107789e+18,-4.0,-2.0,2.0,-2.0,-3.0,-5.0,-13.0,-4.0
1.6951624231087875e+18,-3.0,-28.0,-35.0,-12.0,-17.0,-6.0,-8.0,-1.0
1.6951624231198024e+18,0.0,-3.0,-8.0,12.0,19.0,6.0,13.0,-11.0
1.6951624231207793e+18,1.0,12.0,3.0,1.0,0.0,-2.0,-6.0,13.0
1.6951624231207793e+18,0.0,-10.0,62.0,4.0,1.0,1.0,4.0,-9.0
1.6951624231207793e+18,-1.0,23.0,4.0,-2.0,-4.0,-3.0,-2.0,-15.0
1.6951624231267779e+18,0.0,-7.0,-18.0,-8.0,-5.0,-1.0,0.0,-4.0
1.6951624231317752e+18,-4.0,-6.0,-16.0,-3.0,-3.0,-2.0,-6.0,-2.0
1.6951624231417902e+18,10.0,22.0,43.0,13.0,6.0,1.0,3.0,9.0
1.6951624231427686e+18,-5.0,-17.0,-42.0,-3.0,-4.0,-2.0,-2.0,12.0
1.6951624231437655e+18,-4.0,2.0,11.0,3.0,1.0,-1.0,-2.0,-17.0
1.6951624231437655e+18,1.0,-5.0,-13.0,-15.0,-2.0,-1.0,0.0,8.0
1.69516242315711e+18,-4.0,-10.0,-13.0,2.0,-6.0,-3.0,2.0,4.0
1.69516242315711e+18,6.0,7.0,10.0,7.0,15.0,7.0,2.0,-2.0
1.6951624231587832e+18,5.0,2.0,-27.0,-15.0,-4.0,0.0,-3.0,0.0
1.6951624231587832e+18,0.0,9.0,23.0,9.0,6.0,-1.0,1.0,12.0
1.695162423171515e+18,-9.0,-11.0,13.0,2.0,-5.0,0.0,3.0,-14.0
1.6951624231724826e+18,5.0,16.0,-11.0,-2.0,0.0,-3.0,-9.0,7.0
1.695162423177981e+18,-7.0,-46.0,-26.0,3.0,2.0,4.0,7.0,-4.0
1.6951624231789734e+18,4.0,5.0,58.0,13.0,1.0,0.0,-1.0,17.0
1.6951624232025646e+18,-2.0,5.0,-47.0,-14.0,3.0,0.0,-1.0,-10.0
1.6951624232025646e+18,-5.0,1.0,35.0,3.0,-4.0,0.0,0.0,1.0
1.6951624232045645e+18,4.0,13.0,19.0,-4.0,-2.0,-4.0,-4.0,6.0
1.6951624232055887e+18,-1.0,8.0,8.0,-2.0,-4.0,-6.0,-6.0,-16.0
1.695162423208564e+18,-3.0,-17.0,-62.0,9.0,12.0,6.0,9.0,7.0
1.6951624232095654e+18,1.0,9.0,35.0,-2.0,-5.0,0.0,-1.0,1.0
1.6951624232175552e+18,-12.0,-17.0,-18.0,7.0,6.0,3.0,0.0,-9.0
1.6951624232175552e+18,2.0,15.0,-15.0,-5.0,-6.0,-8.0,-4.0,-2.0
1.6951624232345708e+18,8.0,22.0,-24.0,-1.0,-3.0,1.0,-5.0,9.0
1.6951624232385495e+18,-5.0,-35.0,0.0,3.0,-3.0,1.0,-1.0,-4.0
1.695162423239549e+18,3.0,-6.0,34.0,0.0,0.0,0.0,4.0,16.0
1.695162423239549e+18,-13.0,-34.0,-40.0,3.0,1.0,3.0,-2.0,-55.0
1.695162423254535e+18,-2.0,12.0,21.0,4.0,1.0,-1.0,-1.0,19.0
1.695162423255537e+18,1.0,3.0,-12.0,-8.0,-4.0,-4.0,0.0,0.0
1.695162423256538e+18,6.0,18.0,-1.0,-9.0,-11.0,-9.0,0.0,-24.0
1.695162423256538e+18,-5.0,-24.0,5.0,-3.0,3.0,1.0,0.0,6.0
1.6951624232705265e+18,-1.0,-3.0,6.0,8.0,3.0,2.0,-3.0,-5.0
1.6951624232715261e+18,-20.0,2.0,12.0,-6.0,0.0,1.0,0.0,-7.0
1.6951624232835177e+18,11.0,23.0,3.0,8.0,1.0,-2.0,-3.0,13.0
1.6951624232835177e+18,-9.0,4.0,-50.0,-14.0,-11.0,-4.0,1.0,14.0
1.6951624233085043e+18,17.0,0.0,9.0,2.0,9.0,3.0,0.0,-8.0
1.695162423313527e+18,-21.0,-23.0,23.0,8.0,-8.0,-2.0,7.0,2.0
1.695162423313527e+18,4.0,4.0,-54.0,-34.0,-11.0,-3.0,-8.0,8.0
1.695162423313527e+18,1.0,7.0,12.0,9.0,1.0,0.0,3.0,-1.0
1.6951624233154998e+18,-7.0,-2.0,30.0,-5.0,-3.0,1.0,6.0,-4.0
1.6951624233154998e+18,26.0,26.0,16.0,14.0,1.0,-6.0,-10.0,21.0
1.6951624233164992e+18,-11.0,-62.0,-49.0,-13.0,9.0,9.0,5.0,21.0
1.6951624233175045e+18,1.0,-10.0,-16.0,3.0,-8.0,-3.0,-7.0,-12.0
1.6951624233364877e+18,-14.0,-24.0,5.0,4.0,2.0,-3.0,-2.0,-8.0
1.6951624233374902e+18,12.0,36.0,9.0,-2.0,-13.0,-9.0,-3.0,-26.0
1.6951624233464824e+18,1.0,8.0,22.0,17.0,21.0,5.0,5.0,5.0
1.6951624233464824e+18,0.0,-4.0,-29.0,-7.0,5.0,6.0,-2.0,22.0
1.695162423399454e+18,-1.0,-11.0,-13.0,5.0,-3.0,-1.0,7.0,-20.0
1.695162423399454e+18,-11.0,7.0,-45.0,-26.0,-12.0,-7.0,-14.0,10.0
1.695162423400453e+18,3.0,-4.0,42.0,2.0,-2.0,-4.0,-2.0,4.0
1.695162423400453e+18,-6.0,23.0,8.0,-4.0,-1.0,-1.0,6.0,-30.0
1.695162423400453e+18,6.0,-7.0,16.0,-4.0,-7.0,-6.0,-14.0,8.0
1.6951624234014572e+18,-4.0,20.0,-29.0,2.0,2.0,3.0,3.0,-2.0
1.6951624234214438e+18,-2.0,-10.0,-33.0,12.0,9.0,-1.0,-3.0,-5.0
1.695162423422443e+18,7.0,28.0,41.0,-22.0,-9.0,0.0,2.0,3.0
1.695162423422443e+18,-4.0,6.0,5.0,1.0,-1.0,-2.0,-7.0,-7.0
1.6951624234234378e+18,0.0,-23.0,-20.0,-4.0,13.0,7.0,-6.0,-3.0
1.6951624234264366e+18,4.0,11.0,21.0,5.0,7.0,6.0,3.0,-3.0
1.6951624234264366e+18,-3.0,-38.0,-31.0,-2.0,-2.0,-2.0,0.0,5.0
1.6951624234354304e+18,-5.0,-12.0,4.0,-5.0,1.0,1.0,4.0,-9.0
1.6951624234354304e+18,6.0,0.0,-3.0,6.0,2.0,3.0,9.0,26.0
1.6951624234364314e+18,-5.0,0.0,-22.0,-12.0,-11.0,-3.0,2.0,-13.0
1.6951624234364314e+18,1.0,22.0,32.0,-6.0,-7.0,-6.0,-12.0,15.0
1.695162423466414e+18,-13.0,-11.0,37.0,7.0,10.0,8.0,4.0,-16.0
1.6951624234734195e+18,15.0,0.0,-5.0,4.0,-1.0,-1.0,3.0,2.0
1.6951624234754094e+18,-5.0,14.0,-31.0,1.0,-6.0,-3.0,0.0,-11.0
1.695162423476409e+18,1.0,4.0,-46.0,4.0,4.0,-1.0,-5.0,8.0
1.695162423476409e+18,6.0,17.0,29.0,-7.0,-17.0,-7.0,2.0,11.0
1.6951624234794063e+18,-7.0,-9.0,12.0,-2.0,16.0,7.0,8.0,-31.0
1.6951624234794063e+18,4.0,7.0,26.0,-1.0,-10.0,-7.0,-12.0,15.0
1.695162423480406e+18,2.0,-4.0,8.0,13.0,12.0,3.0,-2.0,11.0
1.6951624234953966e+18,-2.0,9.0,-3.0,-3.0,-9.0,-2.0,-3.0,-4.0
1.6951624234963968e+18,3.0,-18.0,16.0,10.0,7.0,1.0,3.0,11.0
1.6951624234963968e+18,-3.0,3.0,-3.0,-12.0,-16.0,-4.0,2.0,-13.0
1.6951624234973965e+18,-3.0,-19.0,4.0,13.0,12.0,4.0,7.0,-11.0
