timestamp,EMG_s0,EMG_s1,EMG_s2,EMG_s3,EMG_s4,EMG_s5,EMG_s6,EMG_s7
1683951746957588,-3,-4,-4,-4,-2,-6,-5,-4
1683951746957588,-2,0,0,-2,0,-4,-1,-2
1683951746958527,2,4,3,0,-6,4,6,3
1683951746958527,-3,-4,-2,-9,-14,7,-2,-3
1683951746958527,0,0,3,9,31,-12,-3,-2
1683951746958527,0,0,-8,-5,11,16,2,0
1683951746962523,-2,-1,-5,1,5,0,0,0
1683951746962523,-3,-4,-7,-4,-8,-10,-4,-2
1683951746963523,1,1,6,-3,-18,0,2,1
1683951746963523,1,0,2,-1,5,2,2,1
1683951746968544,-4,-4,-8,-5,-1,-18,-4,-4
1683951746968544,0,1,0,-1,2,13,1,-2
1683951746983510,-1,0,-7,-5,-15,2,1,2
1683951746983510,0,-1,0,5,-3,-9,-1,-3
1683951746990527,-1,-2,-11,-13,-7,-4,-3,-2
1683951746990527,1,2,-2,2,-2,-16,2,1
1683951747005620,1,1,5,-1,9,17,3,3
1683951747005620,-3,-3,1,-4,-4,-6,-6,-2
1683951747014625,-3,-4,6,7,-15,1,-4,-1
1683951747014625,0,2,6,-3,-3,-8,1,0
1683951747029210,-2,-1,-17,3,14,-1,0,-1
1683951747029210,-1,1,28,3,-28,8,-1,0
1683951747030213,2,5,11,15,21,1,-1,1
1683951747030213,-2,-4,-8,-7,-1,6,-3,1
1683951747038204,0,2,10,5,-10,-8,0,0
1683951747038204,-1,-2,-15,-6,1,2,0,0
1683951747059166,-1,-3,1,-3,5,-12,-2,-3
1683951747059166,-2,0,2,2,1,2,0,-1
1683951747062164,-1,-2,0,-5,-4,-5,-2,-1
1683951747062164,-1,0,-10,-1,5,3,0,-1
1683951747073158,1,2,7,0,4,-4,1,-3
1683951747073158,-1,-2,-8,0,-4,-6,-2,0
1683951747111641,0,-1,0,-4,2,21,4,2
1683951747111641,-1,-1,-1,9,11,-14,-3,-3
1683951747112148,-2,-1,2,-8,-10,-2,-1,-1
1683951747112148,0,1,6,5,7,18,1,3
1683951747113154,-3,-6,-7,-16,-13,-21,-3,-3
1683951747113154,0,1,15,19,2,12,1,-1
1683951747113154,-1,1,-25,-9,6,1,-2,-1
1683951747113154,-2,2,16,7,-2,-4,1,-1
1683951747133217,-2,-3,-1,0,2,-6,-1,-2
1683951747133217,-1,-2,-9,-15,-6,7,2,0
1683951747134205,-1,-1,5,6,13,-7,-2,-1
1683951747134205,-2,-3,-4,6,-25,-48,-1,-2
1683951747139640,-1,0,-3,3,10,41,-5,-2
1683951747139640,-1,0,-6,-16,-6,0,1,1
1683951747155927,-3,-8,-15,-18,0,2,3,0
1683951747155927,2,10,15,19,26,14,1,-2
1683951747162208,0,-2,12,24,-9,-4,4,-1
1683951747162208,-8,-17,-54,-74,3,-6,-5,-5
1683951747169766,0,6,-5,42,-13,-15,-3,-1
1683951747169766,0,-6,-12,-35,-5,14,-2,1
1683951747184648,-2,-1,-9,38,11,-65,-6,-2
1683951747184648,-2,0,13,-4,-6,10,-1,-1
1683951747192208,-5,-8,-16,-19,1,7,-3,-4
1683951747192208,-3,-8,-25,-13,-19,1,-2,-2
1683951747201077,-1,0,-4,-36,-53,-7,-5,-1
1683951747201077,4,8,27,43,-4,-10,0,1
1683951747215366,0,-1,7,-6,19,0,-2,1
1683951747215366,0,3,9,15,18,13,2,0
1683951747221832,-1,-4,-15,-23,-7,0,1,0
1683951747221832,0,-1,-21,-4,13,0,-1,-1
1683951747229518,1,4,30,12,-39,7,2,-1
1683951747229518,-3,-3,0,-24,-2,17,-5,-1
1683951747244626,-4,-16,-59,-36,14,-37,-4,-2
1683951747244626,4,21,30,49,29,24,6,2
1683951747260117,-1,-4,6,6,-30,16,-5,-4
1683951747260117,-2,0,-8,13,25,-18,-4,-4
1683951747268348,-1,-3,-1,-28,-47,-8,0,0
1683951747268348,-2,-7,1,-13,-28,3,-2,0
1683951747275367,1,1,-2,-2,4,-25,0,0
1683951747275367,-1,-2,-1,-16,-16,12,-1,-1
1683951747282154,1,4,9,20,35,31,2,2
1683951747282154,2,3,4,-3,4,-22,2,0
1683951747289647,-3,-4,-18,19,12,0,1,-2
1683951747289647,-1,-3,-3,-11,-9,17,-3,0
1683951747303900,0,5,24,24,15,12,0,-1
1683951747303900,-1,2,17,0,0,-5,-2,-1
1683951747312198,-3,-9,-17,-17,-6,-8,1,0
1683951747312198,-1,0,6,-4,-4,3,0,-2
1683951747320833,1,3,8,5,0,12,4,0
1683951747320833,0,-2,1,3,15,-11,1,1
1683951747335268,-1,-1,-5,-26,-32,50,-5,-3
1683951747335268,0,-4,-33,10,39,-12,1,1
1683951747342203,1,0,-3,24,-6,-21,2,-1
1683951747342203,-1,-4,-20,-25,-14,26,-2,0
1683951747349474,-1,1,-5,4,33,-36,-1,0
1683951747349474,-2,-4,-5,0,-18,29,0,-2
1683951747364270,-3,-3,-4,2,16,-5,-3,-3
1683951747364270,-3,-5,-10,1,-1,-21,-5,-2
1683951747372203,6,9,35,15,-5,-34,2,3
1683951747372203,0,-2,-2,-1,0,18,-3,-1
1683951747380452,2,3,9,-11,-13,-1,-1,1
1683951747380452,-3,-4,-1,12,-23,-19,0,-3
1683951747395267,0,0,3,-15,40,37,1,-1
1683951747395267,1,2,7,11,1,-18,1,-2
1683951747402208,0,3,13,6,5,12,0,0
1683951747402208,1,1,2,-7,-1,2,0,0
1683951747409471,-2,-3,-10,1,-5,-2,1,0
1683951747409471,-1,0,12,5,-5,-24,-2,2
1683951747424270,-1,-3,-14,-8,0,4,-2,-2
1683951747424270,-2,-1,0,-1,5,39,-3,-1
1683951747432207,-2,0,9,8,8,9,4,0
1683951747432207,0,-1,-3,-9,-15,-21,1,-3
1683951747440438,-1,-3,3,2,12,-1,-4,-3
1683951747440438,3,6,27,13,-42,-38,-1,1
1683951747455267,2,-2,-8,2,10,5,0,0
1683951747455267,0,4,9,-6,11,-2,-1,1
1683951747461830,-1,-1,-2,-2,4,2,1,0
1683951747461830,-1,-3,-10,-6,9,-9,0,-1
1683951747469766,-2,-2,-2,-7,-14,-6,-1,-3
1683951747469766,1,-2,2,5,-14,-11,1,-1
1683951747484641,0,-3,-7,-4,7,-5,-1,-1
1683951747484641,0,3,15,9,16,-5,0,-2
1683951747492211,-2,0,-4,-2,-4,10,0,-1
1683951747492211,-1,-3,-9,-6,-1,-8,-1,-1
1683951747500316,1,3,13,7,-3,8,0,0
1683951747500316,-2,-5,-16,7,-3,1,-1,-1
1683951747515323,-1,-2,-7,-30,0,-8,-1,-1
1683951747515323,0,0,6,8,-6,-6,3,0
1683951747522174,-1,2,-1,-12,0,6,0,0
1683951747522174,-1,-5,-8,16,4,2,0,0
1683951747529495,-1,4,14,25,-3,-11,-2,0
1683951747529495,-1,-2,-6,-4,2,11,-1,0
1683951747543893,1,2,7,-4,-1,3,1,2
1683951747543893,-3,-5,-14,-12,7,2,-3,-4
1683951747552168,1,0,1,-4,-7,0,-2,-1
1683951747552168,1,0,11,3,4,-6,-2,-1
1683951747560421,-1,0,7,10,0,-1,1,1
1683951747560421,-1,0,-9,-10,-3,1,0,0
1683951747575391,-1,-4,-20,-6,-6,-3,-2,-2
1683951747575391,0,8,28,9,-2,0,1,0
1683951747590415,1,-1,-2,-2,0,1,0,0
1683951747590415,-2,-3,1,-2,5,3,-1,-1
1683951747590415,1,-4,1,-1,0,2,-1,-2
1683951747590415,-2,-8,-27,-3,-1,-5,-2,-4
1683951747612400,2,6,20,6,-2,4,1,-1
1683951747612400,0,-2,-6,-1,-3,2,-2,-1
1683951747621017,-1,-1,3,5,6,-3,-1,0
1683951747621017,-3,-5,-5,-9,-9,-4,-2,-2
1683951747621794,-1,1,9,16,3,-3,-2,-1
1683951747621794,-2,-2,-4,-6,-5,8,1,-1
1683951747643209,0,1,6,-2,1,-11,-2,0
1683951747643209,-1,-4,-7,0,-5,0,0,-2
1683951747645187,-2,-3,-33,-26,-4,1,0,-2
1683951747645187,-2,2,11,3,3,-2,0,0
1683951747674193,1,2,3,5,-2,0,0,2
1683951747674193,0,-1,0,-8,-3,4,-1,0
1683951747675192,-1,-4,-5,0,-2,0,-1,-1
1683951747675192,-2,-1,4,14,-3,-4,-3,-1
1683951747676197,1,3,-7,-9,3,2,-1,2
1683951747676197,1,0,-7,-2,0,-3,-1,0
1683951747681204,0,1,8,0,-2,0,-1,-1
1683951747681204,-1,-1,-3,-6,-3,-1,-2,-1
1683951747695391,-4,-4,6,1,0,1,1,-2
1683951747695391,-1,1,1,4,3,-5,0,0
1683951747701642,3,-2,0,1,-1,-2,-1,0
1683951747701642,-5,-2,-1,-7,-1,-1,0,-2
1683951747717780,-1,-1,1,0,0,-2,-2,0
1683951747717780,0,0,5,2,-1,0,0,-1
1683951747723894,-1,-2,-2,-6,-3,0,-1,1
1683951747723894,0,-1,4,4,2,-1,1,0
1683951747732197,0,-1,-3,-1,1,-2,0,0
1683951747732197,0,0,-1,1,-1,2,0,2
1683951747740409,-3,-2,3,0,-1,0,0,-2
1683951747740409,3,-1,0,-3,-3,-2,-1,1
1683951747755437,4,2,9,14,4,0,-1,-1
1683951747755437,-8,3,4,-1,0,0,0,-2
1683951747761447,-6,-7,-2,-1,1,-2,-2,-3
1683951747761447,2,10,-1,-3,1,-3,0,1
1683951747777066,-2,-3,-8,-7,-3,1,0,-3
1683951747777066,5,5,22,5,3,-1,-1,1
1683951747784627,1,0,11,14,0,0,1,-1
1683951747784627,-3,-4,-16,-14,1,2,1,0
1683951747792142,2,3,7,-1,-2,-1,0,1
1683951747792142,1,-3,-10,0,0,-2,-2,-2
1683951747800368,-3,-3,0,-6,-5,-2,-2,0
1683951747800368,-4,-16,-25,-51,-12,-3,-3,-3
1683951747815339,6,19,48,62,23,3,1,1
1683951747815339,8,24,73,38,18,3,3,6
1683951747822143,-1,1,6,-7,-17,-1,-2,-2
1683951747822143,0,0,11,11,20,-1,-1,0
1683951747837830,-7,-15,-28,-36,-16,-5,-3,-3
1683951747837830,-8,-20,-50,-21,-17,-3,-3,-5
1683951747852799,-2,-6,21,-15,-5,1,0,-1
1683951747852799,4,11,-54,62,-3,-8,-1,0
1683951747852799,0,6,10,0,39,4,-1,-2
1683951747852799,-1,-6,-39,-19,5,11,1,2
1683951747860791,4,8,29,20,-12,-41,4,5
1683951747860791,-17,-50,-128,-83,-24,45,-4,-11
1683951747874847,23,62,79,67,36,-2,12,15
1683951747874847,-8,-27,-99,-69,-24,-47,-1,-4
1683951747881777,0,3,-40,-6,-2,40,-6,-4
1683951747881777,-13,-37,-68,-113,-39,-6,-2,-5
1683951747897896,-4,-4,40,47,-14,-86,-11,-2
1683951747897896,-3,1,89,-9,22,78,-4,-6
1683951747904469,27,71,77,106,59,-98,19,21
1683951747904469,1,12,-29,-40,-17,72,-10,-5
1683951747912210,-3,1,41,-10,25,74,-7,-5
1683951747912210,-29,-85,-119,-108,-99,-27,-13,-18
1683951747920424,15,47,70,82,72,37,10,10
1683951747920424,1,3,10,-49,15,-33,3,4
1683951747935395,-17,-50,-128,-122,-46,-47,-6,-9
1683951747935395,35,103,108,120,95,14,15,19
1683951747941399,-31,-79,-115,-128,-45,8,-12,-18
1683951747941399,17,44,66,127,14,-14,11,12
1683951747966045,-21,-51,-128,-120,-45,-9,-13,-16
1683951747966045,12,23,42,61,17,-52,6,9
1683951747967051,2,3,-36,-80,21,62,-4,2
1683951747967051,-14,-29,-19,-47,-49,-87,-3,-7
1683951747972053,-8,-24,-18,-128,-66,9,3,0
1683951747972053,-17,-50,-109,-108,-19,15,-3,-12
1683951747987171,31,55,61,11,-39,-19,15,20
1683951747987171,-7,-32,-65,-42,77,-21,-7,-7
1683951747995396,-6,-18,-18,-27,-3,5,-5,-4
1683951747995396,3,22,23,46,38,47,-11,-4
1683951748001960,-9,-20,58,16,-5,49,0,-6
1683951748001960,16,34,1,-14,-85,0,8,10
1683951748017886,1,5,75,107,58,24,2,3
1683951748017886,4,15,45,99,106,22,17,6
1683951748024671,-5,-9,-96,53,-25,37,-11,-7
1683951748024671,-4,-8,31,-57,-30,-31,-7,-2
1683951748032175,-9,-18,-39,3,-8,-67,-8,-9
1683951748032175,-11,-30,-45,0,-46,30,-17,-5
1683951748047192,-6,-13,-9,35,16,43,18,-3
1683951748047192,-2,6,62,53,42,22,10,3
1683951748055839,8,24,35,30,-37,46,7,5
1683951748055839,-6,-15,-28,-72,-32,3,-13,-10
1683951748061899,-8,-16,-15,-61,31,-26,-9,-7
1683951748061899,5,15,-27,27,63,37,-15,-3
1683951748077890,-11,-23,-67,-84,-46,79,-8,-13
1683951748077890,4,12,36,39,-3,-48,8,5
1683951748084226,-10,-23,-41,-13,-62,-58,-8,-6
1683951748084226,-5,-11,-31,34,12,31,1,-5
1683951748100390,23,58,45,51,69,4,9,12
1683951748100390,6,10,-101,-87,-37,-57,5,6
1683951748106420,-17,-51,-40,-116,-84,21,-23,-9
1683951748106420,9,30,127,97,114,34,5,3
1683951748122653,-8,-19,-22,-82,-77,-50,0,-3
1683951748122653,-1,1,-29,-30,6,-15,-4,-3
1683951748124630,-1,8,63,71,51,-2,2,0
1683951748124630,-7,-23,-43,-103,-125,-71,-6,-3
1683951748137643,19,42,74,122,74,-17,3,11
1683951748137643,0,-3,12,-46,-12,81,14,1
1683951748144676,-1,1,-111,-95,13,-6,-10,-6
1683951748144676,1,-8,-46,-72,-38,-35,3,2
1683951748160217,-9,-17,-50,-7,-40,-10,-8,-10
1683951748160217,-9,-24,36,43,1,29,5,0
1683951748167217,7,27,113,101,31,-116,10,5
1683951748167217,2,6,20,50,27,37,5,0
1683951748182913,6,12,14,1,14,3,5,6
1683951748182913,-2,4,5,1,-21,14,-4,-1
1683951748184850,0,-5,-57,-43,-8,7,4,0
1683951748184850,-2,-2,45,33,-19,-28,-3,-2
1683951748197905,2,2,-31,-27,11,1,3,1
1683951748197905,1,10,66,25,-27,-29,-8,-3
1683951748204837,3,6,-1,3,3,-10,1,2
1683951748204837,1,5,-2,-45,15,-4,-5,-2
1683951748220400,-4,-6,-5,8,1,19,0,0
1683951748220400,-3,-2,-18,-15,5,-23,-1,-3
1683951748227193,-2,-9,-31,-17,-4,9,-3,-3
1683951748227193,-3,2,3,-14,-8,15,-1,-1
1683951748243269,-1,-9,-21,2,-12,-29,2,0
1683951748243269,1,2,-1,0,6,-33,-1,0
1683951748245210,-2,-6,-7,-13,-1,9,-3,-4
1683951748245210,1,4,12,9,8,-5,2,0
1683951748257441,-2,-2,1,-2,10,0,1,1
1683951748257441,0,1,-12,-8,-3,-11,0,0
1683951748264411,-3,-5,-6,-8,-2,17,-3,-1
1683951748264411,0,4,4,10,3,4,0,-1
1683951748280206,-2,0,-1,-1,5,7,-1,-2
1683951748280206,-1,-2,-8,-20,-6,-4,-3,0
1683951748287167,-4,-5,-11,0,-7,-9,-1,-4
1683951748287167,0,0,10,10,9,3,0,0
1683951748303184,-1,-1,-1,-4,5,4,1,-1
1683951748303184,0,-6,-6,-7,-2,-15,0,1
1683951748305126,-1,-1,0,-3,0,1,-2,-2
1683951748305126,-4,-3,2,5,1,6,-1,-2
1683951748317807,-12,-30,-12,-10,-1,2,0,-3
1683951748317807,34,71,15,4,3,-4,-2,8
1683951748324764,0,4,0,1,0,3,0,0
1683951748324764,2,6,3,-4,-1,5,-1,-3
1683951748340391,-3,-6,-7,1,-1,-6,-2,-2
1683951748340391,-11,-28,-6,-5,0,-9,-1,-3
1683951748347192,0,0,-2,-3,0,3,-2,1
1683951748347192,-2,-1,1,1,2,0,2,-1
1683951748363270,1,2,2,0,1,0,-1,-1
1683951748363270,-4,-24,-6,-4,0,-4,-1,-2
1683951748365209,1,17,1,-2,-1,2,-1,0
1683951748365209,-5,-7,1,1,-1,-3,-1,-1
1683951748376303,1,5,-3,-1,0,-1,1,2
1683951748376303,-4,-2,-5,-6,-5,-3,-2,-4
1683951748385214,-4,-11,-5,1,-2,-3,-1,-3
1683951748385214,2,0,2,2,2,1,-2,3
1683951748400475,4,10,1,-1,1,0,0,1
1683951748400475,-5,-2,-2,-1,-1,-5,0,-3
1683951748407167,-1,-8,-1,0,0,3,2,-2
1683951748407167,2,4,0,-1,-1,1,-1,1
1683951748424852,0,3,-1,0,1,-2,-2,-1
1683951748424852,-4,-7,-3,0,-3,-3,-1,-1
1683951748425835,2,-1,-6,3,-1,0,-1,-1
1683951748425835,-2,-1,-1,-1,1,-1,-2,0
1683951748437191,-1,-2,0,-3,-1,-1,-1,0
1683951748437191,-2,0,-1,1,1,-3,-3,-2
1683951748445372,-1,-1,1,-3,-1,-1,-1,0
1683951748445372,-1,0,-6,-5,-1,-3,-2,-3
1683951748460416,-1,2,13,8,3,1,-5,-4
1683951748460416,0,0,-1,-5,-2,-1,1,3
1683951748467192,1,-1,-2,-1,1,0,5,3
1683951748467192,1,-2,-1,1,-2,0,0,1
1683951748483269,-2,0,-8,-7,1,2,0,-1
1683951748483269,-2,-5,-2,-3,-1,-5,-5,-5
1683951748484210,-1,-3,0,-1,-1,-3,-5,-4
1683951748484210,0,-2,0,2,1,1,2,-1
1683951748497165,4,2,-1,1,0,0,1,2
1683951748497165,-2,1,1,1,2,3,-2,1
1683951748505395,-5,-4,-5,-5,-5,-22,0,-1
1683951748505395,0,1,2,-2,-2,2,1,-2
1683951748520366,1,0,2,0,-2,-2,-1,-1
1683951748520366,-11,-21,-19,-12,-11,0,-1,-7
1683951748527165,6,26,36,25,23,9,-10,-1
1683951748527165,13,5,1,-1,-1,-2,13,11
1683951748543472,-4,1,-5,-6,-2,-2,9,2
1683951748543472,-2,-3,4,6,0,2,3,1
1683951748544415,-11,-21,-20,-17,-10,-1,-4,-4
1683951748544415,0,5,-2,-2,1,-4,-11,-6
1683951748556639,4,0,2,8,1,4,-1,0
1683951748556639,1,0,-9,-9,-1,0,-6,-1
1683951748565772,-3,-7,-6,-3,-5,-20,-2,-8
1683951748565772,-1,0,2,2,2,8,1,1
1683951748580341,0,-4,-8,-6,-3,-5,-1,0
1683951748580341,-3,1,2,3,2,-1,2,-1
1683951748587272,0,-1,-3,1,0,5,3,1
1683951748587272,-3,-3,3,0,-1,-1,-2,-1
1683951748603210,-7,-4,-4,-5,0,-4,-6,-6
1683951748603210,2,2,5,6,2,-1,0,1
1683951748605169,6,2,3,-4,-3,15,7,3
1683951748605169,-1,7,-7,-6,-3,-4,2,-1
1683951748617167,-5,-1,0,2,-2,-3,-5,-2
1683951748617167,-5,3,3,-2,2,-2,-1,0
1683951748625257,2,-2,-5,-1,-2,0,-3,-2
1683951748625257,1,-1,0,1,0,-1,0,-2
1683951748640390,5,3,-2,-2,-1,0,-1,-1
1683951748640390,-1,3,2,5,1,-1,0,2
1683951748647166,-4,0,-2,-6,-2,-1,-5,-3
1683951748647166,1,-7,-3,-2,-1,0,3,0
1683951748663160,4,3,4,-1,-2,3,2,1
1683951748663160,-2,-3,-1,-5,-3,-5,0,-3
1683951748665160,-6,-5,-3,-1,-1,4,-1,0
1683951748665160,-7,-6,0,4,0,-4,-8,-6
1683951748677192,1,-3,-5,-3,-2,3,7,-3
1683951748677192,2,1,0,-3,0,1,-6,5
1683951748685402,0,-2,-1,5,-2,-1,-1,-3
1683951748685402,3,0,1,-4,-1,1,5,4
1683951748700363,-4,-3,-4,0,0,-5,0,-4
1683951748700363,-1,0,-1,-7,-1,-1,-7,-4
1683951748707216,-2,-3,-1,12,1,1,1,1
1683951748707216,4,2,-1,-5,-4,-2,1,0
1683951748723269,0,-3,-4,0,3,-3,-9,-1
1683951748723269,1,-1,1,-1,-3,0,1,1
1683951748724230,0,-2,-2,-6,0,0,-2,0
1683951748724230,-1,-4,0,3,0,2,-2,-5
1683951748737190,-7,-2,0,-2,-4,-3,0,0
1683951748737190,2,0,-7,-5,-2,0,1,-1
1683951748745945,-3,-8,-7,-10,-11,-9,5,-2
1683951748745945,1,4,-20,2,15,-13,-6,-1
1683951748760391,7,4,9,3,1,-8,3,3
1683951748760391,-11,-11,-16,-19,1,-8,-10,-6
1683951748767191,2,1,-26,-21,-13,9,-2,2
1683951748767191,-4,-8,2,5,-6,-54,0,1
1683951748783356,-2,4,-12,5,1,68,-9,-4
1683951748783356,1,4,15,7,2,38,10,-2
1683951748784351,0,-7,-18,-28,-9,31,-9,-1
1683951748784351,-9,-14,-25,-30,-19,-6,-7,-5
1683951748797344,-17,-31,-38,-65,-18,22,-6,-13
1683951748797344,15,42,48,81,29,4,3,5
1683951748805341,-6,-26,-7,-67,-38,-65,5,1
1683951748805341,4,26,6,23,17,-39,-5,0
1683951748820368,19,47,111,106,45,-76,12,13
1683951748820368,-10,-30,-75,-70,-6,63,-1,-8
1683951748827169,-13,-33,-67,-58,-24,-59,-7,-9
1683951748827169,2,10,-18,41,-33,-51,-3,2
1683951748842212,-4,-17,-36,51,43,33,6,-2
1683951748842212,11,34,-6,-28,-16,-9,3,6
1683951748850423,1,3,-3,2,28,-4,4,0
1683951748850423,-15,-49,-51,-101,-58,57,2,-8
1683951748857194,-5,4,-21,-62,-41,-47,-32,-10
1683951748857194,8,-2,-6,25,19,19,19,11
1683951748865372,7,38,118,92,41,-14,-13,2
1683951748865372,8,29,56,-90,42,127,6,1
1683951748880344,1,-2,18,69,27,-79,2,6
1683951748880344,-29,-73,-82,-77,-51,-27,-11,-19
1683951748887350,15,49,61,62,-35,64,-3,7
1683951748887350,-20,-61,-73,-35,-24,-47,-11,-12
1683951748902787,24,82,57,70,27,-17,17,16
1683951748902787,-12,-33,-119,22,23,64,-8,-12
1683951748909777,-3,-10,16,-46,45,-28,12,3
1683951748909777,-8,-15,-7,-13,-63,27,-20,-9
1683951748917194,12,18,-15,-1,11,62,21,10
1683951748917194,-3,11,57,3,-8,54,-16,-8
1683951748925780,-17,-50,-128,-76,17,-48,-12,-13
1683951748925780,10,30,49,127,12,-25,17,9
1683951748940343,-31,-88,-128,-128,-89,-67,-21,-24
1683951748940343,32,91,127,39,91,-17,11,22
1683951748947193,-5,-19,-19,-87,-87,49,2,-2
1683951748947193,-21,-33,-64,31,50,5,-15,-14
1683951748963275,15,31,28,48,0,-77,-8,10
1683951748963275,-10,-38,-84,-58,-22,34,1,-1
1683951748969666,34,96,113,127,97,15,41,26
1683951748969666,-24,-48,-45,-118,-77,92,-13,-10
1683951748986046,8,11,-48,-8,-4,-24,14,5
1683951748986046,7,23,86,-16,-11,10,13,9
1683951748987055,-15,-35,-70,-52,-5,-58,-17,-11
1683951748987055,-4,1,-9,-38,-14,-94,-16,-8
1683951749000368,5,18,94,21,8,60,8,3
1683951749000368,-8,-30,-90,-113,-88,-92,0,-2
1683951749007167,-12,-21,-2,-15,-7,-43,-31,-13
1683951749007167,10,23,5,25,-18,-29,5,6
1683951749030480,0,-1,18,31,93,74,-4,-2
1683951749030480,-19,-42,-15,-65,-46,-108,3,-9
1683951749032414,34,97,123,127,14,81,24,18
1683951749032414,-17,-40,28,-47,88,-45,-1,-5
1683951749047408,12,31,42,15,-77,-25,10,7
1683951749047408,10,19,-40,-1,-5,52,-5,3
1683951749048406,-12,-34,-69,-120,58,32,-9,-10
1683951749048406,21,48,41,3,40,-66,11,13
1683951749060407,-34,-73,2,-114,-65,107,-17,-21
1683951749060407,5,24,96,67,4,-30,-10,-3
1683951749066396,-12,-28,-58,-71,-51,4,4,-2
1683951749066396,21,39,-69,-75,4,-31,4,8
1683951749082206,-25,-59,-114,-93,-5,-42,-10,-12
1683951749082206,-13,-27,4,-22,-19,14,-15,-9
1683951749089498,-5,-9,-24,11,32,12,-10,-8
1683951749089498,7,26,127,127,84,46,8,6
1683951749106042,2,2,-19,-42,-31,16,9,4
1683951749106042,1,0,9,14,57,-49,-5,-3
1683951749107051,-15,-32,1,-10,-82,40,10,-8
1683951749107051,16,46,48,78,84,-5,8,8
1683951749120424,1,-2,-1,-58,20,12,-7,-6
1683951749120424,1,10,-21,-17,65,-11,-4,0
1683951749127143,-13,-27,-1,-28,-27,-5,-19,-9
1683951749127143,2,4,-16,-11,-53,17,4,4
1683951749142561,4,10,-63,-43,-19,-9,-2,2
1683951749142561,2,2,23,-1,-29,-16,5,3
1683951749157196,10,22,21,66,23,-24,9,7
1683951749157196,-14,-27,10,-11,-39,-7,-4,-8
1683951749165915,17,31,27,72,-44,-82,8,14
1683951749165915,-6,-16,-27,7,14,54,4,-4
1683951749166920,6,9,-20,4,30,-10,0,3
1683951749166920,5,10,41,35,-6,11,4,3
1683951749180449,-9,-17,20,-7,12,-8,-1,-4
1683951749180449,2,3,-20,-9,7,-42,-4,0
1683951749186419,2,5,6,14,0,47,4,2
1683951749186419,1,-3,-35,-34,-14,25,1,0
1683951749202409,-7,-12,-16,-34,13,-18,-11,-6
1683951749202409,5,12,9,29,1,-8,3,2
1683951749209403,0,-1,-28,-31,-3,-8,-2,1
1683951749209403,-4,-15,-29,-44,-11,11,-1,-1
1683951749226045,-2,1,6,3,10,25,-3,-1
1683951749226045,0,-1,-4,-10,-8,-6,4,2
1683951749227055,0,-1,-1,-5,-9,-31,1,1
1683951749227055,-2,-3,-22,-15,-13,11,-1,-2
1683951749240365,-1,0,9,9,18,23,0,0
1683951749240365,0,3,2,5,-6,-6,1,0
1683951749247168,-2,-2,-16,-15,-2,5,-1,0
1683951749247168,-1,-1,-11,-7,-4,1,-2,-1
1683951749262474,-3,-4,-7,-17,7,12,-2,-3
1683951749262474,-3,-4,2,-4,-4,-2,-2,-1
1683951749269437,2,3,-4,2,-6,-9,0,1
1683951749269437,-3,-5,-17,-19,-5,3,-1,-2
1683951749285777,-1,-2,5,0,4,2,0,-1
1683951749285777,-1,0,-1,-2,-6,-4,-2,0
1683951749286783,1,2,1,4,3,-2,2,0
1683951749286783,0,-2,-9,-8,-4,2,-1,-2
1683951749299516,-2,-4,-5,-12,3,16,-2,-2
1683951749299516,1,1,1,7,-1,2,-1,0
1683951749308689,3,-1,-6,-6,-1,4,-1,-1
1683951749308689,-1,-1,-7,-10,-4,1,1,-1
1683951749322931,-3,-2,-1,0,2,4,-1,-2
1683951749322931,-1,1,-2,-3,-3,-2,-1,-1
1683951749329476,1,-1,0,2,0,-9,-3,2
1683951749329476,-1,-1,-7,-7,-5,-2,0,-1
1683951749346040,-1,0,2,0,4,4,-2,-2
1683951749346040,-2,-1,-1,2,-2,-3,0,-1
1683951749347049,-3,0,-6,-4,1,-4,-1,-2
1683951749347049,-1,-1,-3,-4,0,-1,0,1
1683951749360416,0,-1,0,-3,0,3,0,-1
1683951749360416,2,-1,-2,-1,-1,-3,0,-1
1683951749368411,-3,-2,-1,-1,-2,-3,0,-3
1683951749368411,1,-1,-4,-5,-2,3,2,0
1683951749382876,-1,-1,1,-1,1,-2,-2,-1
1683951749382876,1,0,0,0,0,-3,-4,-1
1683951749389517,1,0,2,3,0,4,9,-1
1683951749389517,-2,-3,-6,-7,-3,0,-3,-2
1683951749406017,0,-2,-1,-5,-1,1,-2,-1
1683951749406017,0,0,0,1,-1,-1,1,-1
1683951749407026,-1,-2,-4,-5,1,-3,-5,0
1683951749407026,0,-3,0,-1,0,-1,1,0
1683951749429418,0,-2,-2,0,1,-2,-2,-1
1683951749429418,-3,-1,-1,-4,-1,0,-1,-1
1683951749431414,2,-1,1,-3,-1,2,2,4
1683951749431414,1,1,-7,7,-2,-1,2,-1
1683951749443215,-3,-1,-1,-3,-3,3,0,-1
1683951749443215,-1,0,0,1,-1,0,0,-2
1683951749449517,-3,-5,2,6,-3,-4,-2,-4
1683951749449517,-1,4,-6,-14,3,-1,-3,0
1683951749465342,1,3,2,2,1,4,4,1
1683951749465342,-4,-3,-1,-1,-5,-1,0,-2
1683951749465342,-1,-1,-3,0,-4,-3,-4,-2
1683951749465342,-3,-7,-1,-7,-5,2,-5,-3
1683951749487841,1,0,-7,7,1,-3,-2,-1
1683951749487841,1,5,10,2,6,-1,0,-1
1683951749488349,0,-2,-3,-12,-5,-2,1,-1
1683951749488349,-3,-8,-12,-13,-5,4,3,-1
1683951749503213,6,11,-17,0,7,0,-3,-1
1683951749503213,-1,-4,0,-4,0,-1,-2,-3
1683951749509264,0,0,-2,-2,-2,-3,-4,-1
1683951749509264,0,0,2,-4,-2,-5,-3,-2
1683951749532205,-6,-9,-12,-18,-10,0,-1,-2
1683951749532205,0,-1,-8,0,1,5,3,1
1683951749533209,2,4,6,1,1,-5,-4,-2
1683951749533209,-1,-3,-7,-4,-1,0,0,-2
1683951749547842,-1,0,10,8,2,3,1,1
1683951749547842,2,4,7,9,1,-7,-5,1
1683951749548348,-2,-4,-6,2,1,3,1,0
1683951749548348,1,3,2,4,0,-2,0,0
1683951749563210,-3,-1,7,-1,-1,-3,0,-2
1683951749563210,0,-1,-2,-4,-5,-2,1,0
1683951749569607,0,1,-5,-5,2,-4,-5,0
1683951749569607,0,2,8,8,3,-2,-1,1
1683951749592206,-2,-3,5,-3,-2,2,-4,-3
1683951749592206,0,-4,-16,-10,-5,0,1,-1
1683951749593210,0,3,9,2,4,5,9,1
1683951749593210,4,10,36,44,7,3,-1,2
1683951749615192,-5,-8,1,-5,-5,-14,-9,-3
1683951749615192,-5,-12,-48,-47,-3,-1,-5,-6
1683951749616175,2,7,34,48,6,-1,-2,0
1683951749616175,0,2,-8,-1,2,0,5,1
1683951749623837,0,-5,-5,3,-4,-3,-2,-1
1683951749623837,-1,5,16,2,-2,9,2,3
1683951749637786,-5,-5,-23,-21,-9,-13,-2,-2
1683951749637786,-4,-5,-12,-9,-5,2,0,-2
1683951749645367,3,2,5,6,1,-1,2,1
1683951749645367,-2,-3,-7,2,3,-3,-3,-2
1683951749645367,1,0,-8,-10,-1,2,-1,-1
1683951749645367,-2,1,4,2,-5,1,-3,0
1683951749667867,-1,-1,-3,-7,3,-11,-2,-3
1683951749667867,1,2,10,16,2,8,1,2
1683951749668354,-2,-2,-3,1,1,9,-1,1
1683951749668354,-1,-4,-3,-9,-6,-20,-5,-4
1683951749683210,1,2,-2,1,-1,-6,4,2
1683951749683210,-1,0,4,8,4,-4,-2,-1
1683951749689516,-3,-3,-1,-3,3,-2,-6,-5
1683951749689516,-1,-4,-8,-13,-4,5,3,-1
1683951749705369,-3,-2,-8,2,6,41,0,-1
1683951749705369,-1,1,10,9,4,-36,-2,-3
1683951749705369,3,1,-4,-7,-21,11,-1,1
1683951749705369,-3,-6,-2,1,14,9,0,-3
1683951749727207,0,0,4,-7,-19,-61,-4,0
1683951749727207,1,-2,0,-7,53,105,2,0
1683951749728205,-5,-9,-8,-27,-52,-10,-7,-6
1683951749728205,9,29,69,88,18,14,1,4
1683951749743199,0,-4,-2,2,53,-13,8,3
1683951749743199,-6,-11,-20,-11,-71,-14,-4,-5
1683951749749436,-1,-2,4,-27,30,-20,0,1
1683951749749436,-11,-23,-59,-112,-52,37,-6,-6
1683951749765341,1,4,4,49,26,-42,8,2
1683951749765341,4,11,50,-10,-21,-20,3,4
1683951749765772,-6,-27,-60,-39,24,-75,-2,-3
1683951749765772,12,39,58,74,-8,-23,19,11
1683951749787836,-11,-33,-61,-79,-50,-17,-11,-8
1683951749787836,-14,-55,-122,-109,-25,44,-3,-9
1683951749788348,23,85,122,126,71,73,12,13
1683951749788348,5,12,-17,73,85,87,-8,1
1683951749802964,13,45,72,73,29,-15,1,5
1683951749802964,-14,-41,-54,-51,-34,-88,-11,-5
1683951749817715,15,40,69,10,14,32,13,11
1683951749817715,-14,-37,-34,-92,-33,49,-10,-11
1683951749825181,-8,-14,-43,-43,25,-57,-14,-6
1683951749825181,0,6,-35,62,-67,-83,-9,0
1683951749832242,16,43,6,82,52,77,21,9
1683951749832242,-15,-40,-66,-116,-66,-49,-7,-7
1683951749847905,-9,-32,-83,-18,-25,-14,-5,-7
1683951749847905,12,45,102,78,34,62,15,7
1683951749847905,-17,-57,-128,-82,-50,-53,-10,-8
1683951749847905,20,61,66,127,-48,-93,8,11
1683951749862901,-21,-61,-89,-113,5,127,-9,-8
1683951749862901,4,5,-81,28,64,-56,-20,-3
1683951749869412,1,5,17,-84,41,-46,3,2
1683951749869412,4,12,68,62,32,-29,8,3
1683951749884618,6,9,-29,-38,-13,-48,11,10
1683951749884618,3,-4,-45,91,-54,-96,4,2
1683951749892180,-7,-8,76,54,-34,-12,-2,-7
1683951749892180,-37,-96,-117,-128,-89,31,-12,-22
1683951749907840,39,98,127,92,8,4,10,24
1683951749907840,-20,-29,-21,-68,22,33,-23,-20
1683951749908349,-4,-21,-128,-58,-23,-57,-27,-6
1683951749908349,-13,-22,-37,-123,26,27,-2,-9
1683951749923212,5,8,1,11,-5,45,0,1
1683951749923212,-8,-13,-78,-116,-68,37,12,-1
1683951749929516,2,4,43,123,63,-44,6,4
1683951749929516,-10,-21,-71,-100,-55,-65,-23,-13
1683951749944739,-30,-62,-58,-90,25,42,-19,-20
1683951749944739,22,53,86,31,-24,-9,9,11
1683951749952215,-16,-38,-3,-48,5,-1,-9,-10
1683951749952215,19,40,-75,50,85,-11,17,13
1683951749967879,-12,-32,-55,-35,-87,-13,-17,-7
1683951749967879,19,45,33,89,49,4,24,16
1683951749968352,-6,-13,-3,-1,12,-19,1,-4
1683951749968352,-1,-1,1,-19,9,69,-3,0
1683951749984229,1,2,34,-18,1,35,-3,2
1683951749984229,-7,-13,74,14,108,104,17,-1
1683951749989226,28,67,-5,65,-23,7,6,11
1683951749989226,8,9,-31,-43,36,-51,9,7
1683951750004227,-10,-14,13,-82,-52,36,19,-3
1683951750004227,-9,-13,15,2,32,82,-22,-5
1683951750012261,-10,-19,41,39,15,14,-19,-11
1683951750012261,-20,-53,-11,-73,-65,-16,-11,-14
1683951750027384,28,73,73,113,55,34,13,15
1683951750027384,3,4,-68,-80,-20,-84,5,0
1683951750028351,-22,-50,-113,-128,22,37,-22,-15
1683951750028351,7,19,41,63,19,-33,-19,3
1683951750043237,-8,-12,6,75,1,-37,10,-7
1683951750043237,-11,-28,-16,-108,-85,73,-21,-7
1683951750049226,4,7,0,41,20,-47,1,6
1683951750049226,11,35,101,98,-2,51,18,7
1683951750064301,10,23,-7,70,59,3,-1,3
1683951750064301,1,-2,-21,-25,-27,-122,-1,4
1683951750072236,-6,-9,-7,-27,-18,127,17,-2
1683951750072236,8,16,9,77,19,-34,-4,4
1683951750087835,0,-1,-11,-16,-22,-59,-4,0
1683951750087835,9,21,-7,5,14,-59,1,3
1683951750088351,-6,-18,-47,-37,-28,44,-2,-4
1683951750088351,-4,-12,-57,-94,-7,-21,-2,-2
1683951750102906,-6,-11,10,-15,-3,2,-4,-5
1683951750102906,-2,0,-2,-7,46,44,7,-1
1683951750109859,-5,-13,-24,-72,-103,-14,-5,-5
1683951750109859,-5,-11,10,-21,9,11,3,-2
1683951750124301,1,2,-4,27,-6,-1,-4,-3
1683951750124301,-1,0,26,33,18,37,3,-2
1683951750132261,2,7,23,24,-19,1,8,2
1683951750132261,2,6,2,-11,8,6,1,1
1683951750147852,3,6,2,-7,-15,-32,-2,0
1683951750147852,1,5,9,30,14,-29,2,1
1683951750148352,-3,-7,-7,-19,2,22,-1,-3
1683951750148352,5,7,5,21,19,4,2,1
1683951750163235,-2,-5,-15,-12,5,7,1,-1
1683951750163235,-2,-5,8,4,-9,-5,-4,-2
1683951750169259,-1,-1,-5,3,-11,-22,-2,-2
1683951750169259,2,6,8,28,8,4,0,1
1683951750184687,-1,1,-2,-1,-8,4,2,1
1683951750184687,0,-2,3,0,2,3,-1,0
1683951750191670,1,0,3,-2,-2,-24,0,2
1683951750191670,0,4,3,19,13,-1,1,2
1683951750207628,-4,-4,-11,-16,-2,-7,-2,-1
1683951750207628,-1,1,3,2,8,4,1,-1
1683951750208627,0,-1,-2,-1,-1,-9,-1,1
1683951750208627,-1,0,0,6,-1,-2,-1,-1
1683951750223618,-1,-4,-8,-11,-6,3,0,-3
1683951750223618,2,4,8,10,2,8,-2,1
1683951750229616,-1,2,3,4,-7,-7,0,-1
1683951750229616,2,-1,1,3,3,1,-2,-1
1683951750244370,-2,-2,-3,-5,0,-1,-1,0
1683951750244370,-3,-6,0,3,3,0,1,-2
1683951750251439,4,11,2,-3,-3,-11,-2,1
1683951750251439,-2,0,0,3,2,1,0,-1
1683951750267410,1,0,-4,-4,1,0,0,-1
1683951750267410,-3,-3,-1,-1,-3,-3,1,-2
1683951750268376,-1,-3,-5,-5,-3,-8,-1,0
1683951750268376,-1,0,3,7,0,2,-1,-1
1683951750283388,1,-1,1,1,1,-2,-2,1
1683951750283388,-1,-2,0,-1,-2,-1,-2,-1
1683951750297828,-1,-4,-3,-1,-3,-3,0,-2
1683951750297828,1,0,0,3,2,-2,0,1
1683951750306194,-2,0,-3,-4,-3,-3,-2,-2
1683951750306194,-1,0,3,1,6,3,-1,-1
1683951750312190,-2,-2,-1,-2,0,-2,-3,0
1683951750312190,0,-2,0,0,0,-5,1,-1
1683951750327784,-1,0,-3,-4,-2,3,4,0
1683951750327784,0,0,1,1,-2,-1,-2,1
1683951750328369,-2,-2,1,-1,-4,-5,-2,0
1683951750328369,-2,-1,0,0,1,-2,-1,-2
1683951750342929,-1,-1,-1,-4,-1,0,-1,-2
1683951750342929,-1,0,1,1,0,0,-1,-1
1683951750349858,-1,-2,-2,-1,-1,-6,1,0
1683951750349858,-1,1,-1,2,-1,2,-1,0
1683951750364793,0,-1,-1,-2,-1,-1,-1,0
1683951750364793,-2,-2,1,-1,-2,-1,-2,-1
1683951750371786,0,-1,0,0,1,-2,1,-2
1683951750371786,0,-2,1,-1,-1,0,-1,-2
1683951750387781,2,4,-1,4,4,0,0,1
1683951750387781,1,-2,2,-5,-3,0,-4,-3
1683951750387781,0,-7,-16,-11,-3,0,2,0
1683951750387781,2,8,26,18,6,1,0,2
1683951750402767,-2,-4,-3,-8,-2,-3,1,-1
1683951750402767,0,0,-3,-3,0,0,5,-1
1683951750408784,-1,-2,1,-1,-3,0,-3,-2
1683951750408784,-1,-3,-12,-10,-3,-4,-2,-1
1683951750423755,-1,-2,-3,-1,-2,2,-6,-2
1683951750423755,-2,1,2,2,-1,-1,0,0
1683951750432202,1,1,2,4,2,-2,2,-1
1683951750432202,0,-3,-5,-2,0,0,-1,0
1683951750447817,-1,-2,2,-2,-1,0,0,-1
1683951750447817,-1,-3,-5,-3,-2,-3,-3,-2
1683951750448352,-1,0,-1,-2,0,-1,-5,0
1683951750448352,-2,-2,-3,-14,-5,1,-2,-3
1683951750463210,1,3,0,22,5,-1,0,0
1683951750463210,-2,-2,1,2,0,-2,-4,-2
1683951750469474,-1,0,2,0,-1,0,0,-1
1683951750469474,-2,-3,7,-5,-5,-1,0,-1
1683951750484269,-6,-15,-38,-31,-10,-2,-4,-4
1683951750484269,6,18,31,3,7,1,4,3
1683951750492221,6,11,52,42,14,7,1,5
1683951750492221,0,5,15,21,2,-11,-4,0
1683951750507508,-1,-6,-16,-25,-9,-4,-1,-2
1683951750507508,-5,-13,-31,-30,-6,-1,-5,-4
1683951750508349,-3,-2,3,24,2,0,4,-1
1683951750508349,0,-1,-2,-8,0,1,-2,0
1683951750523222,-1,1,14,10,-2,-6,2,2
1683951750523222,-1,1,9,8,1,4,1,-2
1683951750529270,-1,-1,-9,-13,-5,-3,-4,-1
1683951750529270,-2,-4,-10,2,0,1,-1,-1
1683951750544671,0,4,8,4,0,-1,1,-2
1683951750544671,2,-1,-8,6,1,-3,1,1
1683951750552183,-2,-1,-10,-14,-1,-3,-1,-2
1683951750552183,-2,-3,-11,-4,-3,-2,-2,-2
1683951750568414,-2,2,4,0,5,5,-1,-1
1683951750568414,0,0,5,4,-1,-2,-2,-2
1683951750569419,-1,-4,-7,-8,-4,-10,-5,-1
1683951750569419,-1,-1,2,1,0,8,3,0
1683951750591071,-1,-2,12,7,-2,1,-1,-1
1683951750591071,-1,-1,-27,-6,-2,-4,-1,-1
1683951750592081,0,2,4,11,1,-3,-1,-1
1683951750592081,1,0,-7,-8,-3,-2,3,2
1683951750604212,0,1,8,8,5,-3,-2,-2
1683951750604212,-4,-6,-3,-4,2,-4,-1,-2
1683951750612202,-1,-3,-12,-14,-6,1,-1,-2
1683951750612202,-1,0,1,2,1,4,2,0
1683951750627819,0,-1,-1,-1,-3,-1,-1,-1
1683951750627819,-1,-2,7,8,-7,-52,-7,-1
1683951750628357,-2,-2,-7,-5,8,40,7,1
1683951750628357,-1,-1,0,1,-1,-6,2,-2
1683951750642906,1,1,-3,-1,-2,-3,-2,-1
1683951750642906,0,0,0,3,1,-5,-1,0
1683951750649863,-2,-4,-2,-11,-18,-33,-6,-3
1683951750649863,0,-1,-13,-9,12,25,1,-1
1683951750664644,1,1,3,1,2,5,2,3
1683951750664644,-1,-1,4,7,-2,14,-1,0
1683951750671650,-1,-1,-3,-10,1,-7,-1,-1
1683951750671650,-3,-6,-6,-3,-9,-30,0,0
1683951750687762,-3,-2,-17,-10,1,13,-10,-3
1683951750687762,0,1,7,4,-18,-8,4,2
1683951750687762,-1,-1,-3,-6,-6,-1,-1,0
1683951750687762,0,2,5,3,10,0,2,0
1683951750703751,-3,-4,-2,-3,-7,-20,-3,-2
1683951750703751,0,-4,-3,-4,-18,-32,4,0
1683951750709746,-3,-12,-43,-30,0,17,-4,-3
1683951750709746,10,24,52,59,4,-23,6,6
1683951750724339,3,11,37,33,25,-6,0,0
1683951750724339,-4,-4,-17,-14,-20,42,-15,-3
1683951750732182,0,0,13,13,0,-29,4,2
1683951750732182,-12,-32,-70,-109,-19,6,-15,-11
1683951750747913,14,34,61,87,33,42,14,13
1683951750747913,0,-2,-56,-40,23,101,10,1
1683951750747913,-10,-26,-105,-65,-34,-21,-18,-11
1683951750747913,16,48,80,72,1,-2,14,9
1683951750770245,-17,-41,-124,-104,11,30,-2,-12
1683951750770245,5,15,-40,46,36,31,5,2
1683951750770245,4,11,67,18,1,32,15,6
1683951750770245,1,-6,-47,72,32,51,3,1
1683951750784675,-13,-44,-93,-96,-67,-33,-11,-9
1683951750784675,15,47,93,96,26,-32,5,8
1683951750792184,3,15,48,-29,22,-32,-3,2
1683951750792184,-6,-19,-59,-104,-63,-37,-9,-4
1683951750807189,4,22,51,94,84,49,-2,-2
1683951750807189,-21,-67,-20,-94,-101,-8,-8,-13
1683951750814179,29,89,81,109,48,-91,4,12
1683951750814179,-9,-35,-65,-79,-68,59,1,-2
1683951750823170,23,64,69,40,58,-16,9,13
1683951750823170,-17,-47,-91,-77,-15,-54,-9,-11
1683951750829511,-15,-39,-100,-63,5,111,-16,-14
1683951750829511,10,31,30,30,-53,-54,14,5
1683951750845370,5,12,24,63,27,-34,6,8
1683951750845370,7,24,-21,64,0,-58,-3,5
1683951750852202,-14,-58,-80,-51,58,-25,1,-5
1683951750852202,-9,-15,16,-67,-65,-73,-24,-9
1683951750867142,24,73,90,100,64,16,18,16
1683951750867142,-18,-45,-60,-66,-8,-39,0,-9
1683951750874746,16,43,-74,102,-114,-73,2,7
1683951750874746,-2,-13,-91,-56,5,40,-7,2
1683951750890344,5,11,5,23,40,-7,1,4
1683951750890344,-15,-43,-77,-102,-65,-37,-20,-10
1683951750890344,8,19,73,92,-17,-7,10,6
1683951750890344,-12,-29,7,75,70,6,2,-6
1683951750904342,3,-1,8,-44,-128,-29,11,6
1683951750904342,3,10,-10,73,44,-28,-4,2
1683951750912329,-21,-48,-20,-70,-33,4,-6,-13
1683951750912329,8,22,21,44,33,6,8,6
1683951750928339,-28,-64,-50,-14,-11,40,-33,-24
1683951750928339,13,42,124,79,24,109,28,9
1683951750934341,10,14,-53,-71,-39,33,-2,8
1683951750934341,-7,-4,10,18,52,-47,3,-5
1683951750950434,-22,-46,-74,-128,-57,8,-3,-12
1683951750950434,9,19,-47,-56,-20,-21,1,2
1683951750950434,-15,-30,3,-74,7,99,-13,-11
1683951750950434,-3,-4,35,62,5,-25,-4,-6
1683951750965557,-12,-31,-42,-30,-58,33,-11,-9
1683951750965557,12,33,59,44,71,15,3,5
1683951750971539,-4,-6,-5,-18,48,5,5,-2
1683951750971539,-4,-9,-26,-53,13,-22,-13,-5
1683951750987134,0,1,-24,-45,-96,-37,4,-1
1683951750987134,-22,-53,-37,-108,58,-11,-3,-12
1683951750994777,14,36,90,127,5,-94,14,12
1683951750994777,-1,4,-40,-58,3,78,-4,-2
1683951751010292,3,4,-40,23,-34,-2,-1,1
1683951751010292,-6,-12,-22,-25,-59,-79,-12,-2
1683951751010292,9,19,17,51,-2,18,5,5
1683951751010292,-2,-6,-31,18,2,-20,-7,0
1683951751025846,-17,-40,18,-78,-19,-53,-5,-11
1683951751025846,29,67,67,124,72,7,14,18
1683951751032199,-25,-53,-31,-127,-8,68,-9,-14
1683951751032199,7,19,5,24,-14,2,3,3
1683951751047213,3,4,15,2,34,-11,-17,-2
1683951751047213,-2,-7,-2,-14,2,30,-2,-3
1683951751054218,4,12,56,14,32,64,-4,3
1683951751054218,1,-1,-27,-48,-48,0,-3,-2
1683951751070320,2,-1,-52,-37,6,-74,6,3
1683951751070320,3,6,-7,10,49,-10,3,2
1683951751070320,0,-2,-23,-50,12,-60,3,-2
1683951751070320,-3,-9,-15,-49,31,74,0,1
1683951751085371,3,4,-30,59,52,-33,-11,0
1683951751085371,-2,4,-1,-16,-63,-16,-6,-4
1683951751091435,-2,-1,6,20,1,-50,-7,-3
1683951751091435,0,7,44,19,7,-1,2,1
1683951751106780,2,2,6,-4,13,28,6,3
1683951751106780,-8,-12,-65,-75,-40,12,-7,-6
1683951751114357,-3,-1,-9,47,43,31,2,0
1683951751114357,0,5,24,28,-6,-8,0,0
1683951751130325,1,7,10,35,8,-9,-1,0
1683951751130325,-4,-5,8,-10,-5,50,3,-1
1683951751130325,-1,0,-33,-13,-28,2,-1,0
1683951751130325,1,3,5,25,11,-16,1,1
1683951751145297,-1,2,9,-2,1,6,1,-1
1683951751145297,3,7,45,31,9,8,-1,3
1683951751152183,0,-4,-14,-3,-8,-12,-1,-1
1683951751152183,-1,3,2,15,13,0,0,-2
1683951751167169,3,4,-5,8,2,3,0,0
1683951751167169,-1,-2,-1,-2,-12,8,-1,0
1683951751174649,1,0,-4,-1,-4,9,4,0
1683951751174649,-2,-2,-10,-14,4,-18,-5,-2
1683951751190347,0,-5,2,-18,-14,13,2,1
1683951751190347,0,3,12,21,4,2,-4,-1
1683951751190347,-1,-1,-1,-3,-9,-10,-3,-2
1683951751190347,0,0,9,4,-4,-7,1,0
1683951751205418,-1,0,0,3,6,5,0,-1
1683951751205418,1,2,5,15,2,17,0,-1
1683951751212177,-2,-2,-8,0,-3,-9,-1,0
1683951751212177,-3,-3,-4,-9,-3,-11,0,-1
1683951751227194,-1,3,0,2,-4,8,-1,-1
1683951751227194,0,-1,-3,-3,-1,-3,0,-1
1683951751234741,-1,-2,-2,-11,-10,-7,-3,-1
1683951751234741,0,1,3,7,4,-4,-2,-1
1683951751250335,-1,-1,2,-1,-1,6,2,0
1683951751250335,-1,1,7,5,-4,-1,0,-1
1683951751250335,-1,-3,-2,-1,0,-6,-2,-1
1683951751250335,2,6,1,3,3,7,-1,0
1683951751274230,-2,0,-1,0,0,2,1,0
1683951751274230,0,0,0,-1,-2,-4,0,-1
1683951751275208,-2,-4,-4,1,-2,-1,-4,-3
1683951751275208,4,2,1,-5,0,-5,2,1
1683951751287277,-1,-3,-2,-9,-5,-2,0,-3
1683951751287277,0,-1,1,6,4,0,-1,0
1683951751294641,-4,-4,-5,-1,-3,-1,0,0
1683951751294641,0,0,5,5,-2,-6,-2,1
1683951751310094,-1,-2,-2,2,-1,-2,-3,-3
1683951751310094,0,0,2,3,0,6,0,1
1683951751317193,-3,-2,-7,-4,0,-4,0,-1
1683951751317193,-1,0,6,4,3,-7,0,-1
1683951751326976,0,-1,-2,-2,0,5,0,-2
1683951751326976,0,-2,1,-1,-1,-1,0,-1
1683951751331996,-2,0,-1,-4,-6,-5,-2,-3
1683951751331996,-5,-6,-4,-1,0,-2,-7,-4
1683951751346433,2,2,5,1,0,3,4,2
1683951751346433,0,-3,-4,-4,-2,-6,-1,-1
1683951751354411,1,1,-1,-1,0,-1,0,-1
1683951751354411,-1,-4,-5,-3,-1,5,1,0
1683951751369500,-1,0,2,5,0,-4,-4,-2
1683951751369500,-4,-3,-4,-1,-3,-6,-2,-3
1683951751370507,3,3,1,-3,-1,4,2,4
1683951751370507,-1,0,-3,-3,-2,-1,0,2
1683951751386176,-3,-6,-3,-2,-1,-5,-2,-1
1683951751386176,-1,2,1,1,0,5,1,0
1683951751392156,-1,-1,6,-10,-3,1,0,1
1683951751392156,-2,-2,-3,12,-1,-4,-2,0
1683951751407165,0,3,0,2,3,0,0,0
1683951751407165,-2,-1,1,0,-2,6,2,3
1683951751414646,1,0,2,1,-2,-6,-2,0
1683951751414646,-3,-10,-7,-14,-6,-6,-2,-5
1683951751431043,1,3,-3,-7,2,5,-3,1
1683951751431043,5,8,37,28,7,0,5,3
1683951751432052,0,0,-2,0,-2,-4,-4,-2
1683951751432052,-1,-2,-5,-6,0,0,0,-1
1683951751445772,-1,-6,-6,-9,-5,0,0,-1
1683951751445772,-1,-5,-19,-12,-6,-5,-2,-1
1683951751451821,2,4,11,14,1,0,-1,2
1683951751451821,3,5,14,12,3,3,-1,1
1683951751475345,-1,-1,3,-2,0,-2,-1,1
1683951751475345,-1,-2,-1,0,-1,-2,-2,-3
1683951751475345,-3,-1,0,-4,-4,1,0,0
1683951751475345,-1,1,-20,-18,-1,-1,0,-1
1683951751490267,-1,1,9,20,2,-2,1,-1
1683951751490267,0,-2,-6,-22,-2,1,-2,-1
1683951751490267,0,-2,-11,18,0,4,5,1
1683951751490267,0,2,18,0,-1,-3,0,2
1683951751505275,0,-3,-5,-1,1,0,-4,-1
1683951751505275,0,-4,-6,-17,-7,-1,-2,1
1683951751512262,0,0,-1,8,2,-2,-3,-2
1683951751512262,1,-2,2,13,4,-1,2,1
1683951751526440,-3,0,-10,-7,-4,1,0,-1
1683951751526440,-2,-1,-6,-12,3,0,-1,1
1683951751534379,-2,-3,-3,-13,-3,-4,0,-2
1683951751534379,-2,-3,-6,-6,-2,-1,-2,-2
1683951751550321,-2,-6,-9,-25,-6,-1,-1,-1
1683951751550321,-1,6,18,36,9,-1,-1,-2
1683951751550321,-2,-4,-9,-9,-3,-5,-1,-3
1683951751550321,-2,-1,-2,-1,0,1,-2,-2
1683951751565372,0,-2,0,-3,-2,0,4,2
1683951751565372,-1,-2,-9,-3,-6,-6,-2,-1
1683951751579539,-1,2,5,0,3,5,0,0
1683951751579539,-1,-1,2,5,-3,-8,-3,-3
1683951751587146,2,1,-3,-4,0,-1,-2,-1
1683951751587146,0,0,-4,-2,0,0,1,1
1683951751594640,0,-1,4,6,2,-2,-2,-1
1683951751594640,-1,1,-5,-14,-4,-1,0,-1
1683951751610328,-2,1,1,6,1,3,-1,-4
1683951751610328,-1,-1,0,3,-2,-4,1,0
1683951751610328,-2,-2,-1,-4,-1,0,-2,0
1683951751610328,1,0,-1,0,-1,-2,-1,-1
1683951751625373,-3,-4,3,-8,-4,-4,-2,-1
1683951751625373,2,4,-7,24,2,2,0,2
1683951751632155,-2,-2,-9,-14,0,0,-3,0
1683951751632155,-2,-3,-4,1,-3,0,2,0
1683951751655344,-1,-8,-14,-10,-4,0,0,-1
1683951751655344,2,12,30,19,8,1,0,1
1683951751655344,0,1,-5,2,1,-1,2,1
1683951751655344,0,0,-1,10,2,1,-1,0
1683951751670474,-1,-3,0,-4,-2,-2,-1,-2
1683951751670474,-1,-7,-16,-18,-7,-3,-1,-4
1683951751670474,0,0,3,4,2,-2,-2,-1
1683951751670474,0,0,7,-4,-1,3,2,0
1683951751685657,0,2,2,9,4,-2,0,1
1683951751685657,-2,-3,-4,-6,-4,-2,-4,-3
1683951751691655,0,1,4,2,-2,-3,-1,0
1683951751691655,-2,-5,-9,-5,2,2,-2,-3
1683951751707146,1,3,6,7,-2,0,2,1
1683951751707146,-3,-3,-4,-2,1,-6,-3,-3
1683951751714619,1,0,3,-11,1,9,-4,-1
1683951751714619,-1,-3,-2,2,-6,-17,1,1
1683951751729633,0,4,7,6,8,-3,-5,1
1683951751729633,-1,-4,0,-9,-3,1,2,-1
1683951751737154,-1,0,-2,2,-3,-1,1,0
1683951751737154,-2,-1,5,-2,-11,-48,-8,-2
1683951751745398,1,3,0,8,14,31,8,1
1683951751745398,0,-4,-16,-17,-5,9,-5,-2
1683951751752176,-4,-3,-5,-4,7,10,-3,-5
1683951751752176,-1,-4,-1,-6,1,23,0,0
1683951751767196,0,-4,-28,-20,-1,-54,7,2
1683951751767196,0,2,17,-2,-4,14,-1,1
1683951751774262,-3,-4,-22,11,-11,-39,0,-4
1683951751774262,4,8,33,21,24,5,7,6
1683951751789445,-7,-10,-63,-15,-45,-86,-18,-11
1683951751789445,10,28,79,66,-4,-15,13,6
1683951751796723,-7,-23,-70,-18,-14,32,6,-1
1683951751796723,7,15,82,9,34,16,2,6
1683951751812212,-5,-13,-61,-35,8,126,11,-2
1683951751812212,3,17,62,52,86,-30,-12,-3
1683951751813218,2,-4,-83,-50,-68,-63,-2,0
1683951751813218,8,22,70,96,23,3,9,4
1683951751827145,-3,-10,60,-57,22,46,-11,0
1683951751827145,-33,-97,-128,-99,-71,-39,-22,-20
1683951751834265,31,91,118,96,58,-35,13,19
1683951751834265,-30,-95,-128,-126,49,-62,-19,-22
1683951751849485,44,121,94,127,74,47,29,27
1683951751849485,0,11,3,83,53,64,-3,-3
1683951751856398,-17,-57,-61,-114,-30,-57,-3,-5
1683951751856398,-13,-42,-111,-78,-128,-14,-16,-10
1683951751872522,9,43,121,127,96,-1,5,9
1683951751872522,-15,-40,-77,-74,27,35,-5,-10
1683951751873500,22,54,30,126,-57,-14,11,13
1683951751873500,-9,-25,-65,-47,4,-17,0,-2
1683951751886513,-5,-25,-46,-113,-67,-41,4,1
1683951751886513,-14,-33,-64,-51,-97,10,-7,-5
1683951751894509,22,45,45,59,52,6,-5,8
1683951751894509,6,14,-5,29,-13,-6,-1,3
1683951751909368,-2,-6,3,11,-87,-74,-3,-2
1683951751909368,-15,-35,-50,-128,-57,25,-2,-7
1683951751917144,1,8,58,85,16,23,7,1
1683951751917144,0,16,38,59,4,41,-12,-5
1683951751932379,10,17,-20,77,18,-49,0,4
1683951751932379,9,20,58,-86,64,42,2,5
1683951751933364,-25,-52,-40,-128,4,70,-16,-17
1683951751933364,-1,18,70,-40,7,-4,9,-5
1683951751947101,6,8,-22,34,41,-43,-3,-1
1683951751947101,4,10,40,13,-24,49,-3,4
1683951751954601,-3,2,70,73,27,35,2,-6
1683951751954601,16,41,11,17,76,-5,4,7
1683951751969492,-10,-24,16,-25,-84,-44,-1,-3
1683951751969492,2,6,-24,-20,-20,-124,11,3
1683951751976425,-1,-4,-22,50,6,-49,-10,-1
1683951751976425,4,15,47,70,2,55,5,4
1683951751992568,-28,-64,-37,-114,-35,-56,-24,-19
1683951751992568,27,68,73,127,42,-43,13,16
1683951751993530,-21,-50,-41,-88,11,39,-6,-11
1683951751993530,13,20,-28,-2,-92,33,22,14
1683951752015318,-14,-25,-28,-17,3,-17,-18,-14
1683951752015318,-8,-17,9,-66,-12,-52,-4,-5
1683951752015318,10,20,-36,30,-42,-25,5,7
1683951752015318,-6,-20,-74,-68,4,71,1,-2
1683951752029327,7,13,18,27,82,35,19,8
1683951752029327,-2,-1,14,14,-83,37,1,-2
1683951752037169,-6,-9,5,-1,15,-101,-9,-5
1683951752037169,-4,-9,-7,-21,-21,-36,0,-3
1683951752052214,5,4,-51,-55,-45,53,-8,3
1683951752052214,2,3,-75,-69,-30,-33,6,2
1683951752053227,-8,-18,14,-128,-12,10,-1,-5
1683951752053227,3,14,69,16,24,-7,0,2
1683951752068212,-10,-9,21,26,11,1,-16,-12
1683951752068212,-1,4,8,5,-52,68,-3,-2
1683951752074217,-1,-6,-36,-57,-23,74,8,1
1683951752074217,-14,-30,-79,-72,-14,-34,-18,-13
1683951752089398,4,2,51,45,-15,5,3,5
1683951752089398,0,-14,-100,-73,35,-13,5,-2
1683951752097076,-5,-3,2,-25,28,-20,3,-3
1683951752097076,-10,-21,-40,-121,-61,-14,-13,-4
1683951752112190,0,3,6,23,-32,15,2,-1
1683951752112190,-4,-9,5,22,100,-19,-8,-4
1683951752113193,2,1,-11,0,-25,35,-3,3
1683951752113193,-3,-2,13,26,23,-33,6,0
1683951752127101,-1,-3,-30,-49,1,17,6,-4
1683951752127101,3,5,8,34,-19,19,1,3
1683951752134609,0,4,-26,-11,8,7,-4,-3
1683951752134609,1,4,50,2,-10,-8,2,0
1683951752149415,-2,2,-4,62,27,22,-3,-2
1683951752149415,11,26,14,54,13,15,5,7
1683951752157192,-2,-6,-27,3,0,-43,-6,-1
1683951752157192,-2,-7,-42,-57,-23,-15,-8,-2
1683951752172081,-5,-10,-22,-40,43,26,-2,-2
1683951752172081,0,0,-6,0,12,-36,-4,-2
1683951752173083,-7,-4,17,9,-36,-10,-6,-2
1683951752173083,5,12,-8,30,31,-3,1,4
1683951752187116,-3,-7,-12,-31,-8,47,1,0
1683951752187116,2,7,27,28,9,7,2,1
1683951752194121,-1,-2,10,9,1,-46,-6,-3
1683951752194121,4,11,23,45,16,12,2,1
1683951752209484,-2,-7,-23,-28,1,-9,0,-3
1683951752209484,0,1,14,17,-8,-7,-3,-2
1683951752217171,1,-1,1,11,15,22,4,0
1683951752217171,1,5,2,24,9,0,-1,-1
1683951752232213,-2,-7,-7,-17,-15,-25,-6,-3
1683951752232213,0,1,1,0,8,-2,-1,-1
1683951752233220,1,-1,10,7,5,22,1,1
1683951752233220,2,6,15,29,13,4,2,2
1683951752247170,-5,-6,-9,-22,-21,-4,0,-2
1683951752247170,1,3,8,8,1,-17,1,0
1683951752254237,-1,0,-2,2,8,23,1,0
1683951752254237,2,4,10,19,0,-3,0,1
1683951752269182,-1,-3,-9,-13,-5,-6,-3,-2
1683951752269182,-1,0,0,4,-1,-5,-3,-1
1683951752276695,-2,-3,3,4,2,8,2,0
1683951752276695,-1,1,1,6,8,0,-1,-2
1683951752292828,0,-1,1,-8,-5,-13,-1,0
1683951752292828,0,1,5,4,3,9,-1,1
1683951752292828,1,-2,1,2,3,15,0,1
1683951752292828,-4,2,4,10,2,-1,-2,-3
1683951752308352,-1,-3,-5,-8,-2,2,-3,0
1683951752308352,0,0,2,3,-2,2,1,2
1683951752314455,0,-1,1,2,3,-1,0,-3
1683951752314455,1,0,0,4,1,-5,0,-1
1683951752330399,-2,0,-3,-4,-3,1,-1,0
1683951752330399,-3,-1,-1,-1,2,-4,-2,-3
1683951752337165,-1,-1,2,3,0,-3,-2,-1
1683951752337165,-1,1,2,6,2,9,1,0
1683951752352206,0,-3,-2,-6,-4,0,0,-1
1683951752352206,1,-1,2,3,0,-4,-2,-3
1683951752353211,-2,0,-3,0,1,8,0,-1
1683951752353211,-2,0,1,2,-1,-1,-1,0
1683951752375835,-1,-2,-2,-3,0,-7,-3,-3
1683951752375835,-1,0,-1,0,-1,-12,1,-2
1683951752376840,-1,-1,2,1,7,25,-4,0
1683951752376840,0,-2,4,5,-2,1,-1,2
1683951752389475,0,-1,-10,-12,0,-7,1,-2
1683951752389475,-1,-3,3,-1,-1,16,-1,0
1683951752397191,0,0,1,-1,-1,-6,-1,-1
1683951752397191,0,-2,2,-10,-4,-9,-1,-4
1683951752412467,-4,-4,-11,5,-7,1,2,1
1683951752412467,3,3,-5,-9,2,10,-2,2
1683951752413446,-2,-3,-4,-3,7,-7,1,-1
1683951752413446,0,0,-3,1,0,-1,-1,-1
1683951752426459,0,-2,-2,-6,-5,-2,2,1
1683951752426459,-2,-2,-7,0,-3,-9,-3,-3
1683951752434535,0,0,3,1,-3,-6,-1,1
1683951752434535,1,1,-6,-2,2,7,-1,0
1683951752449515,-2,-1,-1,1,-2,-4,-1,-1
1683951752449515,-1,-1,3,1,0,-2,0,-2
1683951752457166,-2,-1,0,-2,0,9,0,-1
1683951752457166,-1,-3,-1,3,0,-5,0,1
1683951752472151,-1,2,7,2,3,-6,-8,-5
1683951752472151,0,-3,-1,0,0,-2,1,0
1683951752473157,-1,1,3,-5,-2,4,1,0
1683951752473157,-2,-3,-12,-1,0,-4,-2,-2
1683951752487190,1,1,7,10,7,2,9,2
1683951752487190,0,3,11,-15,1,5,0,1
1683951752494739,0,-1,20,22,-1,-5,0,-1
1683951752494739,0,7,1,6,4,1,-1,-2
1683951752509482,-2,-6,-10,-7,-3,3,0,-2
1683951752509482,-2,-4,-5,-3,-4,-4,0,-2
1683951752517191,0,-1,-2,-1,-5,-6,0,-2
1683951752517191,-2,-5,-5,-14,-5,0,-2,-1
1683951752532205,-1,3,4,-3,-2,3,1,1
1683951752532205,-1,-1,-4,8,0,-1,-1,-2
1683951752533209,0,-3,-11,-13,-2,-3,-2,-1
1683951752533209,0,-1,4,7,-2,-2,0,0
1683951752547166,-2,0,-4,-4,-1,-2,-1,-1
1683951752547166,-2,-2,3,4,1,0,-3,-4
1683951752554641,-1,2,-7,-3,0,0,-1,2
1683951752554641,1,0,4,1,0,-1,1,0
1683951752569503,-1,0,4,4,0,4,-1,1
1683951752569503,-1,-1,0,-1,0,0,-1,-2
1683951752577166,-1,0,0,-2,-1,-3,0,-1
1683951752577166,-2,-2,1,2,-1,-4,1,-3
1683951752592215,0,-1,-5,-8,-1,2,-3,0
1683951752592215,0,2,9,10,-1,4,3,2
1683951752593229,0,-2,-4,-2,3,0,-1,-1
1683951752593229,-2,-3,-2,2,-4,0,-3,0
1683951752607218,2,6,13,13,11,-3,-4,0
1683951752607218,0,1,8,4,-4,0,1,0
1683951752614211,-1,-1,-12,3,0,-4,-4,0
1683951752614211,-3,-1,-1,-3,-2,-3,-5,-2
1683951752629487,-1,-3,-4,-5,-3,3,-2,-2
1683951752629487,-3,-1,-3,0,-2,-5,1,1
1683951752637120,1,-1,-1,-3,-3,-2,0,-1
1683951752637120,-1,1,0,-1,-1,-1,0,0
1683951752652213,1,-3,-14,-10,-2,-2,0,-1
1683951752652213,-1,2,7,7,5,0,0,-3
1683951752653218,0,2,0,0,-1,-5,-2,-2
1683951752653218,0,-3,-1,-3,-3,-1,1,-2
1683951752667159,-2,-4,-3,-1,-4,-1,-1,-2
1683951752667159,0,-2,-6,-2,-1,-2,-3,1
1683951752674225,-1,1,1,0,-3,3,1,1
1683951752674225,1,1,-5,2,-3,-5,2,1
1683951752689427,-1,0,2,-2,3,2,0,-2
1683951752689427,-1,-2,-4,-4,3,7,-1,-1
1683951752697171,-1,-2,-6,-3,1,1,1,0
1683951752697171,0,-1,2,-2,-1,5,2,-2
1683951752712207,-1,0,2,0,-4,-16,-3,0
1683951752712207,-1,0,-5,-3,-2,-3,-1,-1
1683951752720431,-2,-1,-4,-6,-1,0,1,-3
1683951752720431,-1,-3,0,-3,0,2,0,-2
1683951752727145,-1,-2,-4,-1,-2,0,0,-1
1683951752727145,0,-1,-5,-9,-1,-2,-5,-4
1683951752742358,1,1,16,15,-1,-4,-3,-2
1683951752742358,-2,-1,-4,-3,1,4,2,0
1683951752749477,0,1,2,-5,-1,3,1,1
1683951752749477,-2,-1,-3,-1,-4,-10,0,-1
1683951752756658,1,0,-3,-7,-1,4,0,0
1683951752756658,-1,1,1,1,-2,-3,0,-1
1683951752772209,-1,-2,2,1,-4,-2,1,-1
1683951752772209,-3,-4,-3,-4,3,5,3,0
1683951752780345,0,2,-5,7,-1,-3,1,1
1683951752780345,0,0,-1,3,5,-1,0,0
1683951752786349,-1,0,-3,-5,-5,-5,-1,-2
1683951752786349,-2,-3,-1,-4,-3,-7,-2,-1
1683951752794345,-2,-2,2,-2,-7,-25,1,0
1683951752794345,-2,-4,-1,-6,5,-39,-8,-4
1683951752809486,-1,0,-5,-2,6,11,-4,-1
1683951752809486,2,5,8,17,7,24,1,1
1683951752817146,1,1,7,5,0,23,-1,0
1683951752817146,-2,-3,-8,-8,-6,-60,-5,0
1683951752831464,0,1,-1,-1,2,-58,-8,-2
1683951752831464,1,3,31,15,-8,10,8,0
1683951752839429,2,4,-1,-6,26,-6,5,-1
1683951752839429,1,-2,-18,1,1,33,1,2
1683951752855409,3,6,9,16,5,17,4,3
1683951752855409,-6,-12,-15,-18,-1,-55,-11,-4
1683951752855409,1,3,-24,-14,-13,-18,14,6
1683951752855409,-4,-12,-44,-19,-12,42,-1,-3
1683951752869436,12,30,66,93,37,-5,22,10
1683951752869436,0,0,24,-26,-17,40,14,2
1683951752876406,-5,-12,-36,-23,8,-11,-4,-4
1683951752876406,-1,5,49,-57,-38,6,-5,-3
1683951752892155,-3,-17,-71,21,19,37,0,-3
1683951752892155,3,8,47,13,42,15,7,2
1683951752899194,-8,-17,-38,-94,-6,-5,-14,-8
1683951752899194,2,16,91,73,-18,-21,1,1
1683951752915318,-8,-20,-43,25,-104,-61,-11,-5
1683951752915318,2,6,-97,-7,84,4,-3,0
1683951752915318,0,1,-51,-96,-27,49,-1,-2
1683951752915318,6,21,65,73,59,-20,6,4
1683951752929327,-26,-69,-107,-115,-40,-18,-21,-18
1683951752929327,19,50,43,78,-10,27,0,8
1683951752945422,-9,-29,-38,-9,-77,10,1,-4
1683951752945422,-9,-23,-47,40,82,3,-5,-7
1683951752951417,5,8,-40,13,-15,4,6,4
1683951752951417,-7,-2,14,5,53,-21,-13,-4
1683951752959438,8,27,50,58,10,90,4,2
1683951752959438,-2,-7,-75,-98,-57,59,5,0
1683951752974405,-17,-42,-73,-128,2,4,-16,-12
1683951752974405,12,15,38,67,5,-33,11,10
1683951752975403,3,22,108,105,70,28,-1,3
1683951752975403,4,10,-14,57,-28,1,0,3
1683951752989327,5,14,71,-1,29,34,3,4
1683951752989327,-19,-50,-108,-100,-46,-56,-18,-12
1683951752997166,12,30,-31,-56,15,-54,7,9
1683951752997166,-4,-12,-38,74,-4,-49,2,-2
1683951753012164,-2,-7,-57,-32,-26,-12,-2,-1
1683951753012164,11,33,59,-27,-66,-13,12,8
1683951753019724,-18,-55,-60,-60,70,-25,-8,-8
1683951753019724,-8,-17,-43,36,-45,-2,-10,-10
1683951753035240,26,76,127,115,78,-58,14,16
1683951753035240,-30,-75,-119,-127,-59,58,-5,-17
1683951753035240,19,42,-27,117,72,-4,1,8
1683951753035240,-1,2,21,-113,2,6,-6,1
1683951753049443,-40,-95,-64,-128,-38,-34,-20,-24
1683951753049443,28,64,118,102,44,76,8,16
1683951753057141,-23,-58,-60,-122,-94,-4,-21,-18
1683951753057141,11,28,-7,88,88,66,3,2
1683951753071501,-8,-18,-21,-56,-56,-57,-11,-9
1683951753071501,-28,-77,-117,-128,-91,-76,-11,-19
1683951753078878,3,14,25,53,18,41,13,5
1683951753078878,-3,-3,44,-46,-35,-101,-9,1
1683951753095270,10,27,-38,-18,32,-11,5,6
1683951753095270,-8,-10,51,73,-4,40,1,-4
1683951753095270,24,49,59,83,30,-83,9,14
1683951753095270,-20,-52,-36,-128,-52,10,-1,-8
1683951753109472,13,37,109,39,33,39,12,9
1683951753109472,-1,-1,-14,22,14,-55,-2,-2
1683951753117166,-11,-24,-40,-25,-55,-35,-7,-11
1683951753117166,8,16,33,23,13,19,8,6
1683951753132219,3,5,-86,-12,12,63,-1,-2
1683951753132219,-5,-11,-11,-63,-18,-6,-5,-3
1683951753139300,5,26,103,91,21,40,0,3
1683951753139300,18,43,20,55,33,21,7,8
1683951753156236,-5,-14,-18,-54,-28,-6,-3,-5
1683951753156236,9,22,54,37,-19,-41,5,4
1683951753157231,-10,-23,-4,-22,-7,18,1,-6
1683951753157231,-4,-5,-25,-58,-23,-20,-4,-2
1683951753169221,4,15,14,30,26,47,6,4
1683951753169221,0,3,-36,-2,14,11,-7,-2
1683951753177220,-3,-7,-9,-8,-22,-8,0,-2
1683951753177220,0,-1,-28,-25,13,12,4,1
1683951753193284,2,8,42,21,-7,9,4,0
1683951753193284,0,-2,-17,-7,19,29,-2,0
1683951753200378,-4,-6,-5,-30,-18,-18,-8,-2
1683951753200378,-1,-1,5,-9,2,-3,-1,-2
1683951753215303,4,7,6,34,5,11,0,2
1683951753215303,1,3,-10,-5,5,-4,-2,0
1683951753215303,-3,-5,-25,-18,-3,-5,-1,-1
1683951753215303,-4,-9,-20,-17,-7,1,0,-2
1683951753229377,1,6,16,28,5,13,3,2
1683951753229377,-2,-2,-15,-10,6,-3,-2,-1
1683951753245353,-2,-1,2,-11,-19,-17,-4,0
1683951753245353,-2,-6,-7,-14,1,7,0,-2
1683951753251359,-1,3,9,0,-2,-1,-1,0
1683951753251359,1,3,-2,9,7,-6,-1,-2
1683951753260353,-2,-3,-2,-5,-9,-4,-3,0
1683951753260353,0,-2,-3,3,-1,-3,-2,0
1683951753275325,3,5,5,15,3,4,0,0
1683951753275325,1,1,-11,-2,4,1,0,-2
1683951753275325,0,-1,-3,1,-2,0,0,-1
1683951753275325,-2,-2,-7,-8,0,-2,-2,-1
1683951753289357,-2,2,11,7,-1,-3,-4,-1
1683951753289357,-1,1,-5,-5,2,2,2,-1
1683951753297331,-1,-4,-3,-11,-5,-6,2,0
1683951753297331,-1,-1,-1,1,2,-3,-2,1
1683951753312165,2,1,7,6,-1,4,0,-1
1683951753312165,1,-1,-2,3,0,-3,-2,0
1683951753319242,1,-5,-5,-2,-1,-5,-3,-2
1683951753319242,-1,-3,-6,-2,-2,2,1,-2
1683951753336879,-1,3,4,7,2,1,0,0
1683951753336879,0,-1,-4,-3,0,-1,-1,0
1683951753336879,-2,-1,1,-5,-3,-5,-1,-1
1683951753336879,1,0,-3,-4,0,2,-1,0
1683951753348904,-1,-2,0,-2,-1,-1,-1,-2
1683951753348904,0,2,2,3,1,-3,-1,-2
1683951753356872,1,0,-2,-1,-3,-1,-1,-1
1683951753356872,-1,-3,-1,-1,-1,-3,-1,1
1683951753372146,-1,0,1,1,1,-1,-1,-1
1683951753372146,-1,-1,-3,-2,-1,3,-1,0
1683951753379527,-1,-1,-1,1,-1,1,-3,0
1683951753379527,-2,-3,-2,-2,-1,-2,0,-3
1683951753395284,-1,-1,2,1,0,-2,-5,-2
1683951753395284,3,0,-3,-3,0,1,6,4
1683951753395284,-1,0,-2,-5,-2,-3,1,2
1683951753395284,-1,0,1,-3,-2,-1,1,-1
1683951753409600,-1,-2,0,0,-1,-1,2,-1
1683951753409600,-2,-1,-3,0,0,-3,-5,-2
1683951753417126,-1,0,-2,-1,0,-3,-3,-3
1683951753417126,-1,-2,-1,0,-3,-1,-1,-1
1683951753432168,-2,-5,-7,-9,0,-1,-1,-2
1683951753432168,-2,2,-2,-1,0,-1,1,-3
1683951753447842,-2,-10,1,-1,-2,-7,0,1
1683951753447842,-2,2,-1,-6,4,0,-5,-2
1683951753455292,2,3,8,3,-1,-2,0,1
1683951753455292,-2,-1,3,1,-2,-5,-2,-1
1683951753455292,-2,3,-12,-3,1,7,-3,-2
1683951753455292,-2,-4,-3,-10,-5,-2,0,-1
1683951753469491,-3,-8,-14,-13,-7,-3,3,-1
1683951753469491,1,6,23,24,7,3,1,0
1683951753477141,5,11,9,18,0,-1,3,0
1683951753477141,-1,1,-1,2,3,-5,-11,-2
1683951753491206,-1,-1,-3,-1,-4,1,0,-2
1683951753491206,-2,-6,-10,-17,-4,1,0,-2
1683951753499200,-4,-14,-31,-55,-14,0,0,-4
1683951753499200,9,19,57,95,21,7,6,5
1683951753515268,-1,0,3,4,-1,0,-1,1
1683951753515268,-2,-2,-19,-11,2,-5,-4,-2
1683951753515268,-3,-5,4,-6,-3,-3,-2,-2
1683951753515268,-1,-4,-19,-29,-6,3,3,-1
1683951753529474,1,-2,-3,3,0,0,2,1
1683951753529474,1,1,10,6,0,0,1,-1
1683951753537166,0,1,-5,4,-3,-5,-1,-1
1683951753537166,-1,-4,-4,-11,-4,-1,0,-1
1683951753552149,2,6,6,9,3,0,-1,-1
1683951753552149,-3,-4,-8,-10,-7,-7,-3,-3
1683951753576678,0,2,2,4,5,6,1,-1
1683951753576678,-1,-1,-6,-9,-2,0,2,1
1683951753577687,0,1,1,3,1,0,-1,1
1683951753577687,-1,-3,-4,-8,-5,-5,-1,-2
1683951753578683,-1,-4,-1,-6,3,2,-2,-3
1683951753578683,1,2,-1,17,0,-1,5,0
1683951753589476,-1,-1,9,-2,-4,-8,-4,-1
1683951753589476,1,3,8,1,3,12,2,3
1683951753597166,-1,2,-2,2,0,0,-4,0
1683951753597166,-3,-7,-14,-31,-2,-1,-4,-4
1683951753620318,-2,1,5,21,2,-1,3,2
1683951753620318,-2,-3,0,3,-5,0,1,0
1683951753620318,1,-1,-6,-2,-1,-3,-2,-1
1683951753620318,-1,-3,-2,-12,-2,-2,-3,-2
1683951753643270,-2,0,-6,-3,0,1,-1,-1
1683951753643270,1,0,-3,-4,-1,-1,-2,-1
1683951753644210,-1,0,2,6,2,-1,0,0
1683951753644210,-2,-3,-7,-3,-3,-4,-3,-1
1683951753657623,0,-1,1,-8,-3,6,2,-1
1683951753657623,2,-1,-9,1,2,-6,-4,0
1683951753665366,-1,0,4,1,0,-4,-4,-2
1683951753665366,-1,0,8,8,-3,3,0,-1
1683951753671389,0,-1,-4,-5,-1,-4,-1,-2
1683951753671389,0,-2,-1,1,-2,-1,0,1
1683951753679473,0,1,3,8,1,4,3,0
1683951753679473,-3,-1,-3,-8,-5,-4,-3,-2
1683951753694621,-2,-1,-10,-5,0,0,2,0
1683951753694621,-1,-2,-11,-17,-5,-4,2,0
1683951753702680,-2,-4,17,10,-4,-1,-3,-1
1683951753702680,3,7,-10,2,11,2,2,3
1683951753709480,1,1,7,5,0,4,-2,-1
1683951753709480,-2,-4,-7,0,0,-2,0,-1
1683951753716648,2,4,19,7,-4,-8,1,0
1683951753716648,-4,-6,-10,-13,-3,6,-1,-5
1683951753731869,-1,0,-1,-4,-2,-1,-1,1
1683951753731869,1,0,2,2,1,1,-8,-4
1683951753739479,-1,-1,-7,-5,2,0,0,-1
1683951753739479,-2,-3,0,0,-4,-3,-1,1
1683951753754591,2,3,-1,3,3,-3,-5,0
1683951753754591,-2,0,1,2,-3,-3,-2,-1
1683951753762206,0,1,-4,0,3,9,-1,-1
1683951753762206,1,-1,4,-1,-2,-6,0,0
1683951753777662,-2,-1,-2,0,2,-6,-2,-3
1683951753777662,-2,1,1,-3,-1,3,-1,1
1683951753777662,0,-1,-2,3,0,-2,-1,1
1683951753777662,-3,-2,-3,-3,-1,-4,-2,-2
1683951753792168,-1,-3,-1,-8,-7,-4,1,-2
1683951753792168,0,-2,0,6,8,3,2,0
1683951753799641,0,-1,-3,-5,-1,0,1,0
1683951753799641,-1,-3,-10,-10,-6,-2,-1,1
1683951753823277,0,0,-2,1,2,7,-2,-1
1683951753823277,-2,-1,1,2,0,-3,-1,0
1683951753824212,-1,-2,0,-2,-2,-5,-1,-1
1683951753824212,-1,-3,2,-1,-3,0,0,0
1683951753845834,-1,0,-2,-5,-1,-13,1,1
1683951753845834,-3,-8,-10,-15,5,35,-4,-1
1683951753845834,0,5,5,10,-1,-12,-2,-1
1683951753845834,-1,-3,-2,-16,-5,-5,-2,-2
1683951753852180,0,7,23,32,5,-1,-1,-1
1683951753852180,-3,-6,-9,-5,-6,-4,2,-1
1683951753859521,1,1,6,4,-3,-8,-1,-1
1683951753859521,1,5,18,-2,2,24,1,2
1683951753874740,-14,-31,-70,-81,-10,23,-7,-10
1683951753874740,17,49,81,91,24,-64,9,11
1683951753882206,-2,-6,-1,-28,-9,18,2,0
1683951753882206,-6,-16,-25,2,-12,-9,10,0
1683951753897842,-2,-7,-39,-34,-8,26,6,0
1683951753897842,3,-6,21,-44,-2,-7,-7,-1
1683951753898352,15,44,98,102,10,41,8,8
1683951753898352,-5,-16,-46,-29,-13,-21,-6,-2
1683951753912200,-4,-8,-12,-57,20,-37,-11,-5
1683951753912200,2,4,52,39,-3,19,5,1
1683951753927840,11,32,-14,5,35,8,8,6
1683951753927840,-5,-14,-18,-8,11,-68,-5,-6
1683951753934770,-5,-20,-13,-23,-37,-4,-1,-1
1683951753934770,5,27,37,90,8,-42,0,1
1683951753942845,-14,-35,31,-83,-20,11,-2,-7
1683951753942845,13,42,38,109,43,-6,3,6
1683951753957771,-2,-8,-44,-2,-5,-47,-6,0
1683951753957771,-23,-61,-83,-128,-76,116,-12,-19
1683951753957771,15,55,88,113,99,23,5,6
1683951753957771,-21,-59,-100,-58,-8,-94,-22,-11
1683951753980809,9,35,17,127,12,70,11,2
1683951753980809,-7,-23,-113,-17,-9,-49,-13,-6
1683951753981815,-6,-22,-103,-90,58,59,-11,-4
1683951753981815,-2,-4,-40,-104,8,44,1,0
1683951753994391,-16,-42,-65,-64,-73,-45,3,-8
1683951753994391,32,70,31,56,85,75,24,23
1683951754002205,-30,-87,-110,-103,-82,-94,-20,-17
1683951754002205,34,95,103,127,112,115,11,14
1683951754017802,-18,-57,-20,-128,-30,9,-6,-5
1683951754017802,16,56,80,115,95,-51,12,8
1683951754017802,-16,-47,-104,-95,-128,-3,-3,-7
1683951754017802,8,25,107,64,32,18,4,4
1683951754032147,7,17,92,-27,-59,17,2,6
1683951754032147,8,16,-79,14,89,49,-14,-2
1683951754047865,-19,-37,17,-92,20,5,-5,-11
1683951754047865,12,4,-96,-128,-5,28,6,5
1683951754054419,18,51,65,74,103,107,14,13
1683951754054419,-29,-69,-80,-124,-101,9,-23,-15
1683951754062471,17,56,102,127,66,49,3,9
1683951754062471,-7,-24,-107,-32,-67,105,-5,-4
1683951754077816,1,12,33,72,97,-22,-4,-3
1683951754077816,0,-1,67,-22,-62,-59,6,5
1683951754078349,-14,-30,-4,81,-1,12,-3,-10
1683951754078349,15,36,76,64,16,50,20,12
1683951754092172,-2,0,-12,11,8,-59,-4,-2
1683951754092172,-20,-49,-102,-83,-75,-60,-8,-10
1683951754099516,4,13,36,-7,-4,-8,-2,3
1683951754099516,-17,-46,-22,-91,-75,-73,-5,-11
1683951754114737,20,43,52,84,14,-5,16,11
1683951754114737,-9,-27,-33,-108,1,-41,3,-4
1683951754122206,11,18,-43,44,-21,8,10,6
1683951754122206,-11,-21,-8,-43,-30,-28,-5,-9
1683951754137824,-6,-6,-31,-27,16,2,-16,-9
1683951754137824,-4,0,47,-42,-19,-5,-3,-1
1683951754138356,-1,-1,14,-60,-9,0,-9,-3
1683951754138356,-10,-9,82,30,-35,-25,-3,-6
1683951754152201,11,26,33,107,60,7,10,6
1683951754152201,-3,-7,-24,-10,-35,33,8,1
1683951754159095,5,5,-2,-47,-15,-32,11,6
1683951754159095,-7,-10,39,27,23,-78,-8,-2
1683951754174614,-3,-6,-19,-26,-28,41,-1,-2
1683951754174614,7,16,-21,25,63,32,6,3
1683951754182848,1,-1,-30,-13,-26,-17,-1,3
1683951754182848,-3,1,-21,-2,11,31,-10,-3
1683951754197829,-2,-1,6,20,-28,37,-5,-1
1683951754197829,-3,-1,4,46,28,20,4,-2
1683951754197829,3,4,-13,-15,9,5,2,0
1683951754197829,-1,-3,-31,-26,-6,-23,3,2
1683951754212146,-7,-18,-29,-54,-35,-37,-10,-7
1683951754212146,4,10,27,24,7,24,-1,2
1683951754219518,-7,-12,-28,-82,-10,-31,-11,-5
1683951754219518,-3,-8,11,-14,5,6,0,0
1683951754234628,-3,-5,-12,-43,-27,-22,0,-1
1683951754234628,4,6,24,60,14,-17,-2,1
1683951754242559,5,9,-4,25,28,-2,2,1
1683951754242559,-1,1,-15,2,2,-1,2,0
1683951754257070,-4,-3,9,6,-8,-7,1,-1
1683951754257070,-1,-1,16,9,4,4,-3,-1
1683951754258060,1,1,-13,3,-9,-17,-4,1
1683951754258060,-2,-5,-23,-7,-4,12,-4,-3
1683951754272165,0,0,3,-25,3,-10,-3,-2
1683951754272165,-4,-8,-6,-18,-15,5,-1,-3
1683951754279199,1,6,-2,26,3,-4,2,2
1683951754279199,-3,-3,7,9,-3,-1,-3,-4
1683951754294377,-1,-3,-13,-9,5,-27,-3,-1
1683951754294377,-2,-4,-10,-13,-8,-4,-1,-1
1683951754302223,1,2,18,37,0,-1,2,-1
1683951754302223,-1,-1,7,3,0,1,0,-1
1683951754317810,0,-1,-10,-14,-6,-3,2,1
1683951754317810,-2,1,-3,-5,-8,-4,-3,-1
1683951754318351,0,-2,-9,2,3,-5,-2,-2
1683951754318351,0,0,1,0,-6,-6,-2,0
1683951754332353,0,-1,-6,-9,0,-6,-2,0
1683951754332353,-1,-3,3,1,-3,-11,-1,0
1683951754339349,-1,0,-1,7,1,-3,3,0
1683951754339349,1,3,3,3,-1,2,-2,0
1683951754354399,0,-2,2,1,-5,-4,-2,-3
1683951754354399,3,1,2,-1,-4,-4,0,-2
1683951754362209,0,-2,-2,5,-1,-2,-3,-2
1683951754362209,3,3,0,3,-2,-4,0,0
1683951754379421,-1,-2,-7,-11,-2,-2,-1,-3
1683951754379421,-5,-8,-1,-3,-5,-4,-4,-2
1683951754380422,-1,9,-1,5,0,-2,3,1
1683951754380422,0,-5,3,2,0,-1,2,-1
1683951754392185,-7,-5,-5,-4,1,1,-1,-2
1683951754392185,7,1,2,0,-1,2,0,0
1683951754399674,-11,-10,-6,4,-3,-1,-6,-6
1683951754399674,14,13,10,3,1,4,2,3
1683951754414768,4,4,-1,-1,-3,-1,0,2
1683951754414768,-5,-3,-2,-4,-4,-8,-1,-1
1683951754422666,3,1,-1,1,1,-1,0,-2
1683951754422666,-10,-9,-5,-3,-3,1,-2,-3
1683951754437665,0,-4,-3,-2,0,1,-3,-2
1683951754437665,0,2,1,0,-2,-3,-2,-2
1683951754438641,-2,-11,-2,0,-2,2,2,0
1683951754438641,0,11,2,2,-1,2,-1,1
1683951754451633,-1,-5,0,-2,1,-4,-5,-2
1683951754451633,-1,-3,1,-1,-2,0,2,0
1683951754459652,1,12,3,3,1,0,0,0
1683951754459652,-12,-19,-7,-3,-3,-4,-3,-5
1683951754474620,14,20,6,0,2,2,1,5
1683951754474620,1,4,2,-1,-1,0,-1,0
1683951754482637,-6,-13,-5,-1,-1,1,1,0
1683951754482637,7,13,5,3,0,-6,-6,1
1683951754497608,-6,-3,-3,-4,-1,1,-2,-1
1683951754497608,4,8,1,0,-2,-3,1,-2
1683951754498607,2,-2,0,1,-1,-2,1,1
1683951754498607,-2,1,-4,-4,1,2,3,0
1683951754511602,-4,-9,-6,-7,-2,0,3,-2
1683951754511602,4,1,0,1,0,-3,-2,-2
1683951754519595,-6,16,1,-1,-3,-4,-3,-2
1683951754519595,-1,-4,0,0,1,3,-4,-2
1683951754534593,5,1,-2,-1,-3,-3,1,1
1683951754534593,-12,-13,-9,-14,-7,1,7,-1
1683951754542580,2,0,4,8,5,-5,-3,-1
1683951754542580,-2,-3,-8,-2,-3,0,1,0
1683951754557575,-2,0,7,6,-3,-3,-4,-5
1683951754557575,-1,-6,-25,-29,-4,2,-3,0
1683951754558595,5,-3,1,-15,3,0,-2,0
1683951754558595,-2,4,-4,33,4,-5,0,-2
1683951754571626,0,2,15,0,5,4,-3,-1
1683951754571626,-3,-6,-1,-2,-2,-3,1,-1
1683951754579626,2,-7,-10,-10,-4,-3,-3,-2
1683951754579626,-2,-3,-15,-19,-5,-5,-7,-5
1683951754595552,-3,-5,-9,-11,-1,-2,-4,1
1683951754595552,-1,11,7,-1,4,-6,-6,-4
1683951754602607,0,-7,6,10,0,-4,-2,0
1683951754602607,2,13,11,4,-1,-4,0,-2
1683951754616598,1,0,-5,1,-1,5,4,2
1683951754616598,-1,-4,0,0,-1,2,-2,-1
1683951754624535,1,0,-6,2,-3,0,5,3
1683951754624535,-4,-8,5,-2,1,2,0,0
1683951754631590,-6,-2,-7,-3,-3,-7,-2,-2
1683951754631590,1,2,-1,7,1,-6,-6,-1
1683951754639586,-3,-7,7,0,-5,4,0,-1
1683951754639586,-1,-9,-30,-55,-3,0,1,1
1683951754654578,1,-5,-29,48,5,2,2,1
1683951754654578,-2,4,11,7,-3,1,-2,-2
1683951754662863,0,8,14,21,7,-1,-2,-1
1683951754662863,-1,-5,-6,-11,-5,-2,-3,-1
1683951754677207,-6,-8,-20,-29,-7,-6,-9,-4
1683951754677207,-2,-3,3,0,-1,4,6,2
1683951754685315,-1,-2,-11,-3,-4,0,-1,-3
1683951754685315,1,0,10,21,2,1,2,0
1683951754691317,-2,-4,13,-2,2,-1,0,0
1683951754691317,3,4,4,9,1,-1,-1,0
1683951754699478,1,0,1,-20,-3,-1,0,-2
1683951754699478,0,-4,9,11,1,2,1,0
1683951754715394,2,6,12,4,2,0,1,1
1683951754715394,-2,-2,2,-3,0,1,1,0
1683951754722540,2,3,-6,5,3,-3,-8,-3
1683951754722540,-1,0,7,6,0,1,-1,0
1683951754736660,-1,0,-1,-10,-3,0,3,-2
1683951754736660,-4,-9,-7,-2,-6,1,3,-3
1683951754745367,-1,-5,-10,-8,-1,2,2,-1
1683951754745367,-2,0,-4,6,-2,-4,-4,-1
1683951754760316,0,1,4,-13,-3,-1,-1,-1
1683951754760316,2,1,12,11,2,3,-2,0
1683951754760316,0,-1,1,4,-2,-1,-1,0
1683951754760316,-2,-6,-5,-18,-7,-1,-4,-1
1683951754774233,-2,-4,-28,-41,-4,-3,1,-2
1683951754774233,1,8,29,47,3,-5,2,1
1683951754782206,-1,-1,-1,-3,2,4,-2,0
1683951754782206,3,0,-2,-2,-2,0,1,-2
1683951754797142,-2,-4,-2,-6,-2,6,-1,-2
1683951754797142,-3,-6,-16,-12,-3,-6,-3,-2
1683951754805365,-1,1,1,-1,-2,-3,3,2
1683951754805365,0,1,8,4,3,-2,-4,-4
1683951754820291,0,0,7,6,1,-3,-1,-1
1683951754820291,2,-2,-20,-5,3,0,-4,-1
1683951754820291,-2,2,9,11,-1,-4,1,-2
1683951754820291,0,0,5,2,3,-1,-2,2
1683951754834315,-3,-1,7,10,1,4,-1,-1
1683951754834315,0,2,0,-6,-1,-3,-5,-2
1683951754842113,-1,-2,-8,-7,-4,-1,0,-2
1683951754842113,0,0,2,6,-2,4,3,0
1683951754857140,0,-1,10,6,-1,-4,0,1
1683951754857140,-2,-2,-14,-12,-1,-8,2,0
1683951754865366,2,2,8,3,2,5,-2,-1
1683951754865366,-1,0,2,-1,-2,1,3,0
1683951754880414,1,-2,1,5,1,-1,0,1
1683951754880414,-2,-4,-5,-8,-1,9,-1,0
1683951754880414,0,0,2,2,-2,-6,-1,1
1683951754880414,-5,-5,-10,-3,-8,-2,-1,-3
1683951754894637,7,12,27,33,8,-5,1,0
1683951754894637,-2,-4,-6,-7,5,10,-4,-1
1683951754902875,-1,-2,-3,-4,-2,-3,0,-1
1683951754902875,-1,-3,-7,-6,-2,2,4,-1
1683951754917141,-1,-3,-9,-10,-6,1,1,0
1683951754917141,-1,-1,4,1,-4,-6,0,-1
1683951754925341,1,-2,1,3,1,5,-1,-1
1683951754925341,-1,-1,-13,-10,1,-1,0,1
1683951754940292,-1,-1,-17,-9,-3,-2,1,-1
1683951754940292,-2,0,4,1,2,-3,0,0
1683951754940292,-2,-3,-6,-6,-2,-3,-1,0
1683951754940292,-4,2,6,3,0,2,0,0
1683951754954641,0,0,1,-2,-1,2,-1,-1
1683951754954641,1,-2,-3,-1,-2,-5,-1,-1
1683951754962205,-2,-2,-5,-2,-5,-5,2,-1
1683951754962205,3,0,8,5,0,-2,-3,-1
1683951754977117,0,-1,1,0,1,3,-1,-1
1683951754977117,-3,-4,1,-4,-4,-2,0,-2
1683951754984859,0,-1,0,1,1,4,0,0
1683951754984859,-2,0,4,4,0,-9,-1,0
1683951755000793,-2,-2,-11,-3,0,3,-2,0
1683951755000793,1,0,1,1,0,2,-5,0
1683951755001791,-1,-1,-1,-2,0,-4,1,-1
1683951755001791,-1,-4,0,1,-3,2,-2,-1
1683951755014268,0,2,8,8,0,-9,2,0
1683951755014268,2,2,-3,-4,0,2,1,0
1683951755022205,0,-3,-2,-2,2,3,-5,-3
1683951755022205,-1,-1,4,3,-3,-11,-2,-1
1683951755037165,-1,-3,1,-2,-1,2,0,-2
1683951755037165,-1,-2,0,-1,-2,0,-1,-1
1683951755045341,-2,-1,-1,-1,-1,-3,0,0
1683951755045341,0,0,-2,-5,-1,3,2,0
1683951755068479,-2,-1,-2,-3,-5,-12,-7,-3
1683951755068479,-2,-1,-1,0,6,-2,-1,-1
1683951755068479,-1,-1,-5,-7,-5,8,3,1
1683951755068479,0,-2,-12,-6,-5,-33,-7,-3
1683951755074475,0,2,11,12,1,22,3,0
1683951755074475,1,0,4,1,10,42,-1,-2
1683951755082505,-3,-5,7,1,2,-5,-11,-3
1683951755082505,0,-10,-60,-72,-9,-30,1,0
1683951755097141,-4,-1,-13,37,-5,-21,-14,-5
1683951755097141,9,23,75,71,1,-33,9,8
1683951755105366,-2,-4,-14,-3,-8,34,0,-2
1683951755105366,-3,-12,5,-45,5,-18,-2,-2
1683951755120290,-6,-16,-34,7,3,47,4,-5
1683951755120290,-11,-30,-112,-72,-75,-65,-3,-6
1683951755120290,14,56,59,103,61,-40,6,9
1683951755120290,-17,-42,-50,-69,-67,-36,-8,-10
1683951755134636,-23,-35,-87,-87,22,-24,-17,-13
1683951755134636,19,44,96,93,101,-7,24,19
1683951755141776,-30,-73,-128,-128,-127,5,-23,-23
1683951755141776,17,41,50,127,83,65,17,13
1683951755157164,30,53,72,-59,-66,1,22,19
1683951755157164,-3,7,15,56,22,-10,-3,0
1683951755165315,17,38,-24,-56,33,-22,-1,4
1683951755165315,-6,-3,52,-72,43,17,5,-3
1683951755180315,-41,-87,-88,-101,-87,56,-12,-21
1683951755180315,17,69,17,73,65,53,8,5
1683951755180315,-21,-61,-59,-45,-37,-18,2,-9
1683951755180315,29,84,38,127,70,-24,2,11
1683951755194646,-2,-36,-79,-33,-39,-71,7,4
1683951755194646,0,-5,43,-61,-57,30,-7,2
1683951755202180,-7,-14,-10,-46,5,-64,2,1
1683951755202180,1,6,-51,107,47,123,-3,-1
1683951755217122,-26,-51,-50,-78,34,19,-44,-26
1683951755217122,26,44,-10,49,-9,68,21,17
1683951755224758,13,21,10,25,-25,-20,0,8
1683951755224758,-8,-16,-26,-14,-38,-31,-16,-9
1683951755240315,2,8,21,37,-24,13,15,8
1683951755240315,-42,-94,-124,-128,-56,25,-37,-36
1683951755240315,27,63,110,117,114,-41,24,17
1683951755240315,-7,-19,-8,-56,-48,57,5,0
1683951755254640,13,34,25,119,115,54,-7,6
1683951755254640,-6,-19,2,-26,3,-21,-4,-5
1683951755262180,-3,-13,-3,-22,-46,3,4,-2
1683951755262180,-21,-56,-85,-128,-41,5,-17,-16
1683951755278349,27,67,93,90,63,-82,16,16
1683951755278349,2,-14,-40,-11,-25,-50,-2,0
1683951755285467,5,15,79,100,7,96,-3,-3
1683951755285467,3,5,-4,-18,-47,-54,-1,4
1683951755308370,4,13,30,17,32,-69,-6,0
1683951755308370,-21,-38,-70,-88,-35,23,-12,-13
1683951755308370,-6,-18,-71,-67,2,-55,9,0
1683951755308370,-11,-31,-36,-72,2,15,-10,-8
1683951755314467,10,27,81,81,12,58,11,6
1683951755314467,-2,-12,-10,-30,-28,-77,10,7
1683951755322172,-8,-13,-61,-26,-7,-17,-13,-10
1683951755322172,3,2,-2,-5,12,-44,5,4
1683951755337116,-15,-36,-64,-83,18,-27,0,-7
1683951755337116,16,40,64,10,8,84,5,8
1683951755345340,0,8,87,42,-1,127,-3,-1
1683951755345340,1,-2,22,-21,-22,-64,2,2
1683951755360340,2,9,56,0,-10,79,5,-1
1683951755360340,6,12,2,16,27,12,0,5
1683951755360340,-3,-17,-108,-89,-36,-37,-4,2
1683951755360340,-7,-7,9,17,3,67,-5,-5
1683951755374599,11,12,-95,32,19,-21,6,9
1683951755374599,0,10,-5,-15,-12,41,-10,-4
1683951755381833,-1,3,23,-22,-14,5,-1,0
1683951755381833,-10,-24,-69,-90,9,28,-12,-8
1683951755397141,-2,2,54,6,22,94,-5,-6
1683951755397141,9,16,-15,51,29,1,11,6
1683951755405315,-15,-34,-75,-17,18,-18,-18,-12
1683951755405315,6,25,93,103,-17,18,5,2
1683951755419428,-3,-13,1,-49,-75,-128,-10,-3
1683951755419428,-9,-19,-52,-89,41,-6,4,-7
1683951755420413,4,12,30,45,18,17,4,3
1683951755420413,4,6,-11,34,5,13,13,5
1683951755434267,6,16,-1,-1,-14,41,0,0
1683951755434267,-9,-17,12,2,-17,-66,-5,-3
1683951755442147,-2,-2,15,19,-7,79,5,-2
1683951755442147,0,3,-2,-51,-16,-11,0,0
1683951755457141,-1,0,-36,-32,-18,8,4,1
1683951755457141,-3,-13,-11,-9,2,-1,-5,-4
1683951755465003,5,7,-3,7,-5,-6,3,3
1683951755465003,0,-2,-4,-2,3,-17,-4,-1
1683951755480291,-4,-5,6,-10,-32,-3,-1,-3
1683951755480291,1,-2,-10,-3,-15,-33,-1,-1
1683951755480905,-1,1,26,11,30,23,-1,-1
1683951755480905,2,3,5,18,-6,-31,0,3
1683951755494607,0,3,5,1,-5,-14,2,2
1683951755494607,-5,-6,18,20,-11,-12,-3,-4
1683951755502167,-2,-4,-9,-13,-17,-14,0,0
1683951755502167,4,7,2,21,11,2,2,2
1683951755517163,2,4,0,7,7,0,2,2
1683951755517163,-4,-5,1,-7,-6,0,-5,-4
1683951755525214,-1,-4,1,-7,11,-10,-2,-1
1683951755525214,1,8,16,18,3,-5,0,1
1683951755539520,1,0,5,-10,-2,-2,4,2
1683951755539520,-4,-8,-3,-4,-1,-6,-4,-2
1683951755547868,3,-1,1,-2,-2,-13,-7,-18
1683951755547868,-2,7,14,17,-2,-9,-1,16
1683951755554414,-4,-10,-7,-5,-5,1,2,-5
1683951755554414,-9,-17,-12,-3,2,5,-3,-1
1683951755561372,14,10,8,2,1,-8,19,-3
1683951755561372,2,8,4,4,-1,-4,-17,0
1683951755585765,13,24,7,0,6,1,4,-3
1683951755585765,-12,-3,1,1,0,-1,-13,5
1683951755592787,-11,-23,-1,-8,-4,-9,1,6
1683951755592787,4,-27,-6,1,-2,-6,-5,-21
1683951755607759,-1,32,8,3,0,-6,10,17
1683951755607759,8,3,5,5,-2,-1,6,-2
1683951755608755,-7,-11,-6,-5,-7,-6,-5,2
1683951755608755,4,23,8,8,3,4,12,-8
1683951755614639,-3,-20,-8,-4,-1,-1,-17,-11
1683951755614639,6,0,2,-2,-4,-3,-2,-2
1683951755621834,-2,11,3,0,3,0,-5,-2
1683951755621834,0,-8,-2,2,1,0,5,-2
1683951755636208,-19,-7,-2,-3,-2,-4,1,2
1683951755636208,14,6,0,-2,0,-3,0,0
1683951755645275,0,-1,-3,-4,-1,-2,0,0
1683951755645275,14,-1,2,4,-1,-7,-2,5
1683951755660207,-12,0,-1,-1,-3,-2,-1,0
1683951755660207,11,-6,-2,-2,0,4,3,-5
1683951755667336,-6,2,-3,-1,-1,-2,-4,3
1683951755667336,5,2,2,1,-1,-2,2,1
1683951755682206,32,-7,-3,-3,2,2,-1,0
1683951755682206,-35,1,0,-1,0,-2,6,-6
1683951755683210,-2,1,0,-2,0,-5,-4,3
1683951755683210,-2,-1,-1,0,-4,-1,2,-6
1683951755697140,11,-5,0,0,0,1,0,16
1683951755697140,-1,-1,5,1,-1,-3,0,1
1683951755705297,-2,3,-8,-3,2,0,-1,3
1683951755705297,-24,-3,3,3,-2,1,4,-2
1683951755719600,-1,-4,-11,-10,0,-2,-4,-8
1683951755719600,4,0,8,5,2,-3,-6,-1
1683951755727865,-4,2,6,4,0,4,7,2
1683951755727865,0,0,1,1,-3,-2,-5,0
1683951755742144,-4,-7,-19,-9,0,1,-3,-5
1683951755742144,-2,6,17,16,5,1,0,3
1683951755743153,-4,-3,1,-7,-3,-1,-4,-6
1683951755743153,-1,-7,-1,-17,-8,-7,-1,1
1683951755759420,-5,10,5,38,5,-3,2,0
1683951755759420,-1,-2,-1,-7,-1,6,-2,-4
1683951755765534,11,2,-2,-1,-1,-3,-1,0
1683951755765534,-8,0,3,-2,-3,-3,2,1
1683951755779665,-11,-8,-10,-18,-6,0,-2,-5
1683951755779665,7,-2,-9,-2,-1,-1,-2,-1
1683951755787840,1,0,-2,-3,-4,-6,0,1
1683951755787840,-2,2,-8,-10,5,1,-4,0
1683951755802206,0,1,11,11,1,1,0,-6
1683951755802206,2,0,-9,-5,-2,-1,1,1
1683951755810315,-3,-5,5,-2,-4,-1,-4,-2
1683951755810315,-2,-2,-25,-11,-2,2,-1,0
1683951755817167,5,7,41,27,7,3,0,1
1683951755817167,-5,-6,-10,0,0,-2,1,-2
1683951755825247,1,8,2,23,2,3,0,0
1683951755825247,1,-1,0,9,1,2,3,3
1683951755839474,0,-4,-4,-14,-7,-5,-3,-2
1683951755839474,-4,-5,-9,-11,-5,5,6,0
1683951755847815,3,1,11,2,4,-2,-1,0
1683951755847815,0,3,7,9,3,-1,-2,-1
1683951755862436,-3,-3,-9,-12,-1,-1,-2,-2
1683951755862436,0,-1,0,-1,-4,-1,-4,-2
1683951755863414,-2,-1,-20,-12,0,-1,1,-2
1683951755863414,2,2,14,8,1,-4,3,1
1683951755876440,-4,-5,-6,-8,-3,8,-1,-4
1683951755876440,-2,-1,-6,-3,-6,-18,-8,-3
1683951755885438,1,-1,5,0,3,10,-2,-2
1683951755885438,-3,-1,6,5,0,1,-4,-1
1683951755899530,-3,-4,-9,-10,-3,-2,0,-1
1683951755899530,1,1,2,0,1,2,-1,0
1683951755907819,-1,0,4,4,-4,-8,-5,-1
1683951755907819,-1,-1,-5,-2,2,5,2,-2
1683951755922210,-3,-1,-4,-5,-1,0,0,-2
1683951755922210,-1,0,4,3,-1,-3,-1,0
1683951755923216,-2,-2,-5,-3,-2,-6,2,0
1683951755923216,-1,0,5,-1,1,7,-1,-2
1683951755937169,-1,-1,-8,1,-2,-6,1,0
1683951755937169,-1,2,3,0,2,-1,-1,-2
1683951755945321,-4,-3,-5,-4,1,-1,0,0
1683951755945321,1,-2,8,0,-6,-5,1,-1
1683951755959647,-3,-3,-9,-2,4,-5,-4,-3
1683951755959647,1,4,22,16,4,3,-2,-1
1683951755967740,-2,-5,-19,-18,-7,-1,0,-1
1683951755967740,3,9,38,34,6,-4,2,1
1683951755982158,0,-4,-3,-7,-6,-2,1,0
1683951755982158,-1,-5,-14,-11,0,0,-1,-1
1683951755983177,-2,-3,-3,-1,-3,-2,-1,-2
1683951755983177,0,0,-4,1,0,3,-2,1
1683951755997169,0,1,0,-1,0,-3,-3,-1
1683951755997169,-2,-1,-2,0,-5,-3,0,1
1683951756005318,0,2,2,-4,-1,2,2,-1
1683951756005318,-2,-4,-15,-15,1,1,-1,-2
1683951756019482,1,1,-9,1,2,8,-1,1
1683951756019482,-2,-5,-7,-10,-5,0,2,0
1683951756027373,-1,0,6,5,3,0,-2,-2
1683951756027373,-1,-2,-10,-4,-4,-4,0,0
1683951756041987,-1,-1,7,-4,-1,7,2,0
1683951756041987,2,-2,-4,-3,-2,-2,1,-2
1683951756042987,-1,2,5,5,0,0,-2,-1
1683951756042987,-2,-3,-7,-6,-1,1,0,-3
1683951756056508,-3,-2,0,0,-1,-6,-2,-2
1683951756056508,1,1,-2,-2,0,1,-1,0
1683951756065369,2,0,1,4,-1,-4,2,3
1683951756065369,0,0,-2,2,0,-16,-10,-5
1683951756079531,0,-1,3,0,2,6,1,-1
1683951756079531,-2,-2,1,1,2,-4,2,-1
1683951756087595,-3,1,1,-1,-4,-10,-2,0
1683951756087595,2,-3,-6,-3,2,8,2,2
1683951756102846,0,0,3,2,-7,-16,-2,-1
1683951756102846,8,0,-3,-4,-2,0,-1,1
1683951756102846,-5,-2,-2,-2,3,4,0,4
1683951756102846,1,-2,-7,-3,-1,-1,0,-1
1683951756117144,-7,-5,-2,-5,-7,14,1,0
1683951756117144,-3,0,-1,0,-2,-16,9,-7
1683951756124803,4,-1,-2,-3,4,-27,-15,-10
1683951756124803,-2,2,4,2,0,31,4,21
1683951756138796,0,-6,-6,-7,-8,-24,-14,-5
1683951756138796,-3,1,1,4,13,28,-5,0
1683951756147771,-1,0,-3,-2,-16,11,5,1
1683951756147771,-4,-1,-2,-3,-13,-53,-9,-8
1683951756164213,2,1,1,6,25,69,-1,-3
1683951756164213,-2,-3,-7,-5,-10,7,2,5
1683951756164213,-1,-1,14,9,4,6,9,-2
1683951756164213,-1,-4,-16,-8,-14,1,-8,-6
1683951756177144,2,5,4,10,13,24,10,8
1683951756177144,-7,-4,2,-10,0,-27,-22,-10
1683951756185317,-1,-8,-20,-12,-1,-11,0,1
1683951756185317,0,1,-2,-7,-22,-53,2,1
1683951756199463,-2,2,-14,-10,29,85,8,-1
1683951756199463,3,8,46,20,-29,-10,10,7
1683951756207844,-4,-2,-16,4,22,43,-6,-4
1683951756207844,-3,-14,2,-24,-5,-22,-6,-1
1683951756222211,-3,-3,-62,-25,-11,-26,-5,-7
1683951756222211,11,32,77,50,13,-39,11,11
1683951756223218,-5,-22,-32,-89,-1,16,8,2
1683951756223218,17,50,77,113,-11,-4,15,7
1683951756236233,-11,-38,-51,-51,8,-12,-9,-7
1683951756236233,-5,-3,-104,32,46,-34,-8,-8
1683951756245344,6,8,86,10,-11,46,9,6
1683951756245344,-15,-44,-128,-121,-23,32,-16,-10
1683951756259399,9,29,55,82,8,-50,-1,1
1683951756259399,1,-9,-21,-17,7,23,9,5
1683951756267841,-13,-38,-97,-89,3,37,-17,-14
1683951756267841,5,17,-63,107,-28,-12,4,-1
1683951756282207,-8,-21,-95,18,-60,-42,-1,-5
1683951756282207,-12,-35,-42,-87,-27,36,-8,-9
1683951756283211,12,33,55,122,-8,12,7,11
1683951756283211,3,14,-7,4,13,50,7,2
1683951756297114,-3,-11,-23,-81,37,-55,0,0
1683951756297114,4,8,21,-7,-54,43,-1,5
1683951756305205,-8,-18,-21,-18,25,31,-1,-6
1683951756305205,-8,-16,-15,-121,-36,-32,-11,-7
1683951756319474,-2,-1,11,50,11,-81,-6,-1
1683951756319474,18,56,66,82,63,-24,0,10
1683951756327815,-11,-32,-70,-128,-68,-93,-15,-7
1683951756327815,-2,-1,-9,111,66,35,10,1
1683951756342415,7,21,107,-74,18,102,19,9
1683951756342415,5,14,0,39,12,-61,-6,0
1683951756343412,15,40,80,-5,4,56,20,14
1683951756343412,-5,-9,28,31,56,-44,2,0
1683951756366508,1,10,5,-39,-43,-23,-3,1
1683951756366508,-13,-37,-72,-97,22,63,3,-5
1683951756367513,18,61,115,118,21,25,6,8
1683951756367513,-9,-34,-113,-128,-14,95,-5,-6
1683951756379472,-10,-26,-9,-1,-3,48,-4,-7
1683951756379472,0,13,16,15,-30,31,3,2
1683951756387847,-6,-8,-42,-90,7,19,-19,-6
1683951756387847,-5,-13,-11,-37,-24,-23,-9,-5
1683951756402207,7,29,15,75,19,71,-3,1
1683951756402207,-3,-22,-64,-33,9,39,-5,-4
1683951756403212,-5,-11,-25,45,5,-114,1,-1
1683951756403212,9,34,95,46,15,20,7,3
1683951756417141,-2,-18,-70,-85,-35,-55,-1,2
1683951756417141,-5,-21,-74,-15,-16,-36,-5,-3
1683951756425001,-2,1,-3,10,1,13,-7,-7
1683951756425001,-9,-17,29,-12,-12,11,-6,-5
1683951756439622,7,26,71,81,8,-1,6,5
1683951756439622,-9,-12,72,47,-42,-30,1,-7
1683951756455270,8,18,-5,90,24,-69,-3,2
1683951756455270,-3,-5,52,-26,-15,32,-6,-3
1683951756462281,-7,-19,-42,24,-9,29,-8,-9
1683951756462281,-1,8,5,-16,-9,-7,3,-2
1683951756463282,-4,-12,-7,9,-26,-42,-4,-2
1683951756463282,3,13,35,79,47,17,-7,-3
1683951756476408,2,5,-2,-27,-6,1,1,1
1683951756476408,-3,-5,8,-38,14,24,3,1
1683951756492203,-7,-18,-73,-43,-6,-24,0,-5
1683951756492203,9,28,29,50,-16,-52,4,4
1683951756499515,1,-2,5,-6,-14,-15,-1,0
1683951756499515,-8,-11,-30,-23,3,-37,-18,-7
1683951756507840,-2,-13,18,-22,-24,61,2,-1
1683951756507840,0,4,-56,-16,63,25,-8,-3
1683951756522169,-1,3,16,24,68,-31,-9,-2
1683951756522169,1,-5,30,23,-17,-23,3,2
1683951756530340,0,8,-64,-12,-26,-23,3,0
1683951756530340,-3,-9,-1,-24,-4,-42,5,0
1683951756536363,2,6,17,44,-25,-10,1,2
1683951756536363,-3,-9,-36,-31,7,29,-1,-3
1683951756545621,-2,-3,-29,-27,-11,-45,-2,-1
1683951756545621,-5,-9,-8,10,21,67,2,-2
1683951756559430,-1,-1,-9,-19,-24,-7,0,-2
1683951756559430,3,4,-4,-9,13,8,-2,2
1683951756567421,-1,-1,9,9,32,47,5,2
1683951756567421,0,0,2,-11,-17,-3,4,3
1683951756581543,-1,-1,-3,-16,2,-14,-1,-1
1683951756581543,1,3,-8,-2,-7,-4,-1,-1
1683951756590340,0,-2,-2,13,6,10,4,0
1683951756590340,0,-8,-13,-20,2,-21,-4,-3
1683951756605991,2,-2,-9,-14,-9,-7,1,-2
1683951756605991,-2,-4,-1,12,-2,9,0,-1
1683951756605991,0,3,6,1,9,-6,-3,-2
1683951756605991,-1,-1,0,-18,-21,-33,2,1
1683951756619476,-2,1,-1,-4,-12,4,1,0
1683951756619476,-1,-1,11,5,2,-15,0,0
1683951756627235,0,-1,10,10,4,6,0,-1
1683951756627235,2,2,1,-7,-6,-2,1,1
1683951756642178,-1,-2,-7,-3,8,-6,-4,-1
1683951756642178,-1,-1,-9,-5,8,7,1,-1
1683951756650315,0,-3,2,3,2,3,-2,-1
1683951756650315,-1,-2,-9,-10,-8,-6,1,0
1683951756665410,-2,-4,-2,-8,-5,-7,-1,-3
1683951756665410,0,-1,-3,-6,-3,-8,0,0
1683951756666410,-2,-1,6,5,2,2,-1,-1
1683951756666410,2,0,2,-3,-6,-17,-1,-1
1683951756679470,-7,0,1,0,-2,-3,-1,0
1683951756679470,2,4,4,-1,4,5,-1,-1
1683951756687540,-1,-1,0,0,1,-2,-3,-3
1683951756687540,0,-1,-3,-4,-1,1,6,2
1683951756702168,0,-1,-2,-3,-3,1,-1,0
1683951756702168,-2,0,-3,-2,-1,0,0,-2
1683951756710428,-1,-2,0,0,0,-2,-4,0
1683951756710428,0,1,-1,-5,-5,-7,-1,-2
1683951756725575,1,0,0,-2,0,-3,-1,-1
1683951756725575,-1,1,3,1,-1,-4,-2,-1
1683951756727554,2,-2,1,1,0,4,0,0
1683951756727554,-3,0,0,-4,-2,-6,-2,0
1683951756739573,1,-1,-4,-1,-2,-4,-2,-3
1683951756739573,-1,1,0,0,0,3,0,0
1683951756748361,-1,1,0,1,-1,-1,-2,2
1683951756748361,-1,0,-2,-2,-2,-6,-2,-1
1683951756763223,1,-2,-3,-3,0,-1,-2,0
1683951756763223,-3,-3,-2,-1,-2,-1,0,1
1683951756771222,0,-1,1,0,-2,-2,0,-1
1683951756771222,-3,-2,-2,-1,-2,-3,0,-2
1683951756784221,-2,0,1,-1,-1,2,1,3
1683951756784221,-1,0,-2,0,-1,0,-1,0
1683951756793214,1,1,2,2,-2,-4,-2,-2
1683951756793214,1,0,-1,-4,-1,4,0,0
1683951756799211,-2,-1,-2,-1,-2,0,-1,0
1683951756799211,-2,-2,-2,-2,0,-5,-3,-2
1683951756808207,0,0,0,0,2,3,0,0
1683951756808207,-1,-2,0,-2,-3,0,0,1
1683951756821785,-2,-1,-1,-2,-3,-5,-2,-2
1683951756821785,0,1,-1,-5,-1,-1,-2,-2
1683951756830364,-1,1,1,1,2,3,0,0
1683951756830364,0,-3,-1,-1,-1,-4,-5,0
1683951756844235,0,-1,1,-1,-1,-4,3,-1
1683951756844235,-1,-2,-2,-1,0,6,0,2
1683951756853193,-2,-5,-1,-4,-4,-2,-1,-1
1683951756853193,0,1,-10,-6,0,-5,-1,0
1683951756859235,-1,0,-3,-3,0,3,-1,0
1683951756859235,2,3,3,4,1,1,-2,1
1683951756868348,0,-3,-2,-2,0,-6,-1,-2
1683951756868348,-2,-2,-1,-1,-4,-2,-1,-2
1683951756881344,1,-3,2,1,-3,3,1,2
1683951756881344,0,-2,-2,-12,-2,-3,1,-2
1683951756898627,1,3,-10,2,4,-4,0,0
1683951756898627,0,-1,3,2,2,4,1,0
1683951756904670,1,1,4,8,1,-2,0,0
1683951756904670,-3,-5,2,-2,-4,-5,-2,-1
1683951756913215,-1,-1,1,-8,0,4,0,-2
1683951756913215,1,2,-8,8,2,0,-2,1
1683951756919639,-1,0,8,6,0,-2,4,1
1683951756919639,-1,-3,-8,-3,-1,-2,-4,-1
1683951756928348,-5,-5,-8,-26,-5,3,2,-2
1683951756928348,-1,-6,-8,7,0,-4,-1,0
1683951756942182,0,5,17,15,-1,-7,-6,-3
1683951756942182,1,0,-14,1,2,1,3,1
1683951756950403,1,1,2,-4,-1,2,0,-1
1683951756950403,-1,-3,5,-4,-3,-2,2,-1
