timestamp,EMG_s0,EMG_s1,EMG_s2,EMG_s3,EMG_s4,EMG_s5,EMG_s6,EMG_s7
1683955302878840,-5,4,4,-12,-69,-111,-41,-9
1683955302878840,-5,5,-4,-6,-44,30,-40,-9
1683955302879839,5,-4,-2,2,65,92,47,10
1683955302879839,0,-3,-1,7,-10,-91,-2,2
1683955302883837,-3,7,-6,-33,-45,-37,-35,-8
1683955302883837,2,-2,2,7,41,58,26,4
1683955302885837,-6,-6,-2,0,8,-91,8,2
1683955302885837,-3,5,-2,-1,-57,-45,-40,-9
1683955302889835,0,-6,0,6,22,82,15,2
1683955302889835,4,-7,-1,5,37,-11,34,9
1683955302898829,-2,2,-3,-12,-65,-59,-40,-7
1683955302898829,-1,8,14,23,2,56,-7,-2
1683955302914821,4,-5,1,11,50,52,34,8
1683955302914821,-1,4,1,-7,-18,-68,-13,-2
1683955302920816,-3,3,4,-3,-39,-17,-32,-8
1683955302920816,-1,-7,-8,-16,24,47,17,2
1683955302929810,4,-3,-5,4,12,-44,12,3
1683955302929810,-1,2,4,0,-35,-43,-23,-7
1683955302952799,0,0,0,3,5,38,2,-2
1683955302952799,-1,-7,-4,-16,21,18,16,1
1683955302955797,-3,1,-3,4,-14,-20,-12,-3
1683955302955797,-3,0,-5,-6,-7,25,-5,-1
1683955302957797,2,-2,3,7,12,20,11,3
1683955302957797,0,-3,-8,-23,-6,-21,-3,-2
1683955303004771,3,-5,2,11,62,111,42,8
1683955303004771,5,-6,-4,-13,29,-82,28,7
1683955303005769,-7,6,10,17,-68,-76,-53,-14
1683955303005769,-1,-1,-1,-6,26,86,15,3
1683955303006769,5,-6,-2,2,43,-15,32,9
1683955303006769,-6,3,-1,-13,-63,-46,-44,-11
1683955303009789,2,2,4,12,14,94,4,1
1683955303009789,4,-5,-3,0,39,44,36,8
1683955303017311,-4,4,-6,-8,-43,-76,-29,-6
1683955303017311,-3,5,2,0,-19,51,-20,-6
1683955303025882,2,-5,-5,-3,48,51,37,7
1683955303025882,-1,-1,3,2,-6,-72,-2,0
1683955303032151,-7,1,-6,-6,-55,-33,-39,-10
1683955303032151,1,1,-5,-2,34,65,19,3
1683955303047292,3,-3,2,10,33,-14,24,5
1683955303047292,0,9,2,3,-47,-41,-32,-8
1683955303055185,-2,-2,-10,-32,2,46,-4,-4
1683955303055185,1,-6,-3,10,31,36,24,5
1683955303070057,-2,-2,-4,-13,-19,-33,-13,-3
1683955303070057,-6,-2,-4,-12,-18,25,-14,-3
1683955303077055,0,-1,7,25,21,24,12,2
1683955303077055,-1,-3,1,4,-2,-21,-1,0
1683955303086051,-1,2,-6,-20,-17,-16,-12,-3
1683955303086051,-1,-3,3,2,5,17,6,-1
1683955303092047,0,-3,-2,2,3,-16,2,-2
1683955303092047,-2,2,5,4,-14,-7,-11,-3
1683955303109042,0,-3,-14,-17,4,19,4,-2
1683955303109042,3,1,9,6,10,0,9,1
1683955303115146,-1,2,3,2,-15,-15,-12,-4
1683955303115146,-2,-1,3,3,-1,20,-2,-3
1683955303124164,-2,-5,-1,8,10,12,7,1
1683955303124164,1,-1,-2,2,-5,-18,-5,0
1683955303137645,1,2,-1,0,-8,-6,-7,-1
1683955303137645,-2,-2,-1,0,5,13,5,-2
1683955303154148,0,-2,2,9,10,-9,3,4
1683955303154148,-1,-1,-5,-8,-8,-7,-9,-2
1683955303155148,-2,-3,0,-5,-15,10,0,-1
1683955303155148,1,-2,-3,-3,9,2,5,2
1683955303168416,-2,0,5,4,-13,-6,-6,-4
1683955303168416,-2,1,-1,16,12,26,0,-2
1683955303175185,0,2,-1,-5,1,7,2,1
1683955303175185,-3,0,1,2,-11,-2,-7,1
1683955303184148,-1,-2,-6,-15,0,7,0,1
1683955303184148,-1,-6,3,19,5,1,2,-2
1683955303197371,0,1,-4,1,0,-21,-1,-2
1683955303197371,1,4,9,0,-9,1,-2,1
1683955303206832,0,-2,0,1,5,8,3,0
1683955303206832,-1,1,-4,-10,2,-4,5,3
1683955303212148,-1,0,1,-3,-8,3,-9,-3
1683955303212148,0,-4,-1,11,14,28,5,0
1683955303229392,0,-1,-4,4,-3,3,1,1
1683955303229392,-1,-1,-1,-15,-10,-1,-6,-2
1683955303244148,-1,0,1,15,6,17,2,2
1683955303244148,0,-1,-1,-6,0,2,2,-2
1683955303245146,-1,0,-1,-13,-12,-26,-8,-3
1683955303245146,-3,-3,-10,-4,0,0,-5,-3
1683955303257315,-1,-2,2,-3,6,5,4,1
1683955303257315,-1,-5,-6,-1,1,-2,1,-1
1683955303265983,0,6,4,20,-4,6,-5,-2
1683955303265983,1,-1,0,-16,0,14,3,0
1683955303272208,0,-1,-2,-3,5,2,3,0
1683955303272208,-3,-2,-2,-2,-13,1,-7,-3
1683955303288421,-3,-4,-4,-4,-3,11,-4,-4
1683955303288421,1,1,0,13,10,0,6,1
1683955303294461,1,4,4,-12,-50,-18,-6,-2
1683955303294461,-1,-1,-8,-6,27,2,-4,0
1683955303310262,-1,-5,0,5,11,4,6,2
1683955303310262,-1,5,-3,1,-6,-7,-4,0
1683955303317300,-3,-4,-4,-4,-2,5,-4,-2
1683955303317300,0,3,3,3,-1,13,4,0
1683955303326258,1,1,4,-4,-4,4,2,0
1683955303326258,-2,-3,-4,1,-14,3,-11,-5
1683955303332294,-1,-1,3,1,15,20,4,1
1683955303332294,2,1,1,7,6,-1,3,0
1683955303348325,-3,-1,-9,-19,-9,-15,-7,-3
1683955303348325,-2,0,-4,-5,0,2,-2,-1
1683955303354321,-2,-1,2,1,7,1,2,-1
1683955303354321,0,-3,-2,1,-5,-8,-2,-1
1683955303378349,-3,-1,-2,-3,-3,7,-5,-1
1683955303378349,0,0,4,11,6,13,5,1
1683955303378349,-1,-3,-5,1,5,2,1,0
1683955303378349,0,1,-4,-15,-15,4,-4,-3
1683955303387346,1,0,1,7,7,23,3,-1
1683955303387346,-1,-2,2,0,-1,0,2,-1
1683955303400342,-3,-2,-1,7,3,-10,-8,-3
1683955303400342,-1,1,4,4,-4,4,-3,-1
1683955303408369,2,-1,-3,-4,0,2,4,2
1683955303408369,0,-2,-5,-3,-5,-27,-3,-2
1683955303415180,1,3,2,-1,-4,4,-3,-1
1683955303415180,-2,-5,-4,-2,11,11,5,-1
1683955303430174,0,1,2,-1,-2,-1,1,0
1683955303430174,-1,-2,-3,-9,-14,8,-10,-3
1683955303437169,0,0,3,5,10,13,5,1
1683955303437169,-1,-3,-7,-12,-8,-3,4,1
1683955303445794,0,5,1,25,1,-6,-5,-3
1683955303445794,0,-6,-5,-19,-12,38,-1,-2
1683955303452191,-1,-4,0,14,26,0,1,-2
1683955303452191,0,2,0,-19,12,-12,-4,1
1683955303476507,-5,-4,-2,-7,-18,8,-8,-3
1683955303476507,-4,-5,-3,-6,-40,-2,-4,-4
1683955303477513,-2,-1,-12,-26,-57,9,-3,-3
1683955303477513,0,1,-1,25,31,8,-6,1
1683955303491848,4,2,3,3,38,-12,4,4
1683955303491848,0,0,0,4,-115,0,2,0
1683955303506456,-7,-14,-22,-33,-40,-10,-11,-6
1683955303506456,3,9,12,31,127,42,9,2
1683955303507461,1,-5,3,15,-29,9,-2,1
1683955303507461,-3,-6,-21,-64,65,-1,-20,-8
1683955303512456,2,13,40,76,72,9,5,4
1683955303512456,-4,-8,-18,-34,-70,-1,-8,-5
1683955303528384,1,-3,-8,-31,-85,9,0,0
1683955303528384,3,3,11,-7,58,3,5,7
1683955303535203,-6,-11,-14,-30,-53,-3,-3,-6
1683955303535203,0,5,14,31,2,-5,1,-2
1683955303550229,-5,-5,-19,-22,-25,-6,-9,-4
1683955303550229,5,8,29,7,25,-16,13,7
1683955303556952,4,3,4,17,-8,7,4,8
1683955303556952,-3,-2,5,37,28,-19,10,-2
1683955303565885,-6,-6,-8,-40,-75,6,-21,-8
1683955303565885,-1,-4,-6,58,62,28,15,1
1683955303571888,1,3,14,25,34,-3,1,1
1683955303571888,1,-1,-13,-36,-117,1,-11,0
1683955303588415,0,-3,-4,2,78,8,3,2
1683955303588415,1,8,13,83,-18,-4,8,4
1683955303595213,-1,-1,-14,-38,-95,-2,-5,-4
1683955303595213,-8,-16,-28,-49,-5,9,-17,-8
1683955303610186,2,12,49,15,-90,7,3,-1
1683955303610186,-2,0,-14,-8,42,-32,-9,-1
1683955303617348,2,0,-12,-60,-36,15,-1,2
1683955303617348,6,1,19,100,124,10,13,3
1683955303625886,2,-1,-17,-1,106,12,24,7
1683955303625886,-6,-4,-1,-24,-83,10,-15,-8
1683955303640188,0,2,5,47,52,25,0,-2
1683955303640188,2,-1,-11,-63,33,1,3,2
1683955303648596,-4,-5,-3,-52,32,12,3,-5
1683955303648596,5,10,5,61,102,24,6,5
1683955303654640,0,-3,-11,-5,14,10,9,1
1683955303654640,0,-1,-10,-51,4,-49,-4,3
1683955303669365,0,9,44,111,-2,-2,-6,-3
1683955303669365,-1,-12,-30,-68,-67,13,4,1
1683955303677294,-2,2,9,59,-55,-28,-7,-6
1683955303677294,4,6,11,-19,45,8,-4,5
1683955303685791,-6,-2,-5,33,111,43,1,-9
1683955303685791,0,-2,6,-1,-39,-2,-4,1
1683955303700184,7,-2,-17,-52,-27,3,7,9
1683955303700184,-10,0,22,43,-74,-14,-25,-18
1683955303715904,11,2,-25,-70,30,-9,14,14
1683955303715904,-8,-2,29,75,64,-23,-9,-12
1683955303715904,-3,-3,-10,-74,15,9,-5,-2
1683955303715904,-5,-10,-7,-19,-109,16,6,0
1683955303730254,8,6,-17,18,10,-16,4,8
1683955303730254,-13,-11,10,28,50,2,-16,-15
1683955303737710,10,12,-6,2,-35,26,7,6
1683955303737710,3,-2,2,27,15,6,18,8
1683955303745930,-14,-6,16,82,-53,-1,-24,-18
1683955303745930,6,0,-17,-98,-28,11,4,8
1683955303759407,-3,1,7,52,110,-6,10,-3
1683955303759407,2,2,4,-34,-56,3,0,2
1683955303768402,2,11,8,33,-10,-5,-7,1
1683955303768402,4,1,-6,-73,-81,-1,1,4
1683955303774417,-9,-13,-13,-24,-55,11,-5,-6
1683955303774417,-2,4,-5,-32,-40,2,-20,-6
1683955303790319,-4,-12,-13,-26,10,21,2,-1
1683955303790319,4,2,0,-33,29,4,10,7
1683955303797659,-8,-3,4,0,21,0,-26,-9
1683955303797659,-4,-4,-12,-17,-4,46,0,-4
1683955303806680,3,-3,14,3,0,3,15,2
1683955303806680,-5,-2,-29,-3,29,-45,-18,-7
1683955303819350,4,0,12,-33,73,18,17,9
1683955303819350,-6,0,-7,63,72,-3,-3,-10
1683955303829146,5,1,-9,-63,86,-8,9,9
1683955303829146,1,1,6,49,113,11,1,-4
1683955303835205,-1,-3,8,23,109,21,2,-1
1683955303835205,5,-1,-13,-39,35,-10,12,8
1683955303858397,-9,-5,8,49,-38,-6,-15,-12
1683955303858397,1,2,-12,-62,-72,4,4,2
1683955303858397,-1,1,-5,0,-112,-17,-11,-4
1683955303858397,4,4,12,-14,-18,-15,0,4
1683955303865929,-1,-4,-18,-6,-41,-1,2,0
1683955303865929,2,-1,0,-50,-90,4,-4,0
1683955303880255,-6,-4,-1,1,-29,-36,1,-4
1683955303880255,0,3,-2,-7,-49,-7,-9,-1
1683955303888385,-5,-8,4,3,2,10,1,-2
1683955303888385,1,3,-4,-10,-25,3,2,2
1683955303895254,3,3,3,-14,33,-4,-6,3
1683955303895254,-3,-4,4,33,-33,13,4,-1
1683955303910404,0,-3,-4,-10,7,-6,-2,0
1683955303910404,2,6,7,20,35,4,-1,0
1683955303917660,-2,-4,-2,21,2,-1,-3,-4
1683955303917660,1,-2,2,13,37,-3,8,1
1683955303925835,0,1,-3,-17,17,-10,-3,2
1683955303925835,-2,-2,3,22,-21,3,-7,-4
1683955303940210,1,2,0,-4,-3,21,6,2
1683955303940210,0,0,1,-9,17,-2,-4,-1
1683955303948256,0,2,-5,-19,-11,2,-5,0
1683955303948256,-3,-3,1,24,-18,14,5,-1
1683955303954276,-2,-1,0,-2,15,-1,-1,0
1683955303954276,0,-3,0,4,-8,-8,-6,-1
1683955303969462,1,0,-3,-13,-26,3,-1,1
1683955303969462,0,1,0,20,27,2,8,1
1683955303977563,0,1,4,9,20,-14,-5,1
1683955303977563,-2,-1,1,-5,-13,2,-5,-1
1683955304000878,-2,-1,-3,-8,12,11,4,-1
1683955304000878,-2,-3,1,6,12,3,-1,-2
1683955304000878,-3,-1,2,-2,-4,4,-9,-5
1683955304000878,1,2,-8,2,2,26,6,3
1683955304015878,1,0,-3,-3,-3,1,4,2
1683955304015878,-1,-1,3,4,-12,-5,-6,-2
1683955304015878,0,0,0,-5,-7,9,-1,-2
1683955304015878,0,-4,-2,-13,-2,-2,2,0
1683955304030228,1,1,11,18,3,-23,-5,0
1683955304030228,-1,3,-3,3,4,5,-4,0
1683955304037315,0,-3,-1,0,13,8,3,0
1683955304037315,-2,-1,-2,-10,-2,-2,2,-1
1683955304060882,-2,1,-2,-10,-10,7,-8,-4
1683955304060882,-1,-4,2,6,3,25,0,-2
1683955304060882,-1,-2,2,13,11,1,4,0
1683955304060882,-2,1,-1,7,3,-7,-4,-1
1683955304075911,1,0,-4,-6,4,8,-2,0
1683955304075911,-1,-3,-3,-4,13,-1,5,0
1683955304075911,0,1,-3,-5,-7,-18,-2,-3
1683955304075911,-2,-1,2,-6,9,4,-7,-2
1683955304089918,1,0,-7,-1,3,9,3,0
1683955304089918,-1,0,-3,-6,-7,-1,2,-1
1683955304097213,0,-1,0,4,-15,5,-8,0
1683955304097213,1,1,2,2,4,30,2,0
1683955304112195,0,0,0,-2,-5,3,6,1
1683955304112195,-2,-4,-5,-2,-11,-2,-8,-2
1683955304120195,-2,0,-1,-8,4,13,-2,-2
1683955304120195,2,-1,4,14,7,-3,6,0
1683955304135887,-4,-5,1,1,-8,-14,-5,-1
1683955304135887,0,1,-3,-6,6,5,-3,-1
1683955304135887,1,-1,2,7,10,2,4,1
1683955304135887,1,5,9,13,-5,-8,4,2
1683955304149490,-2,0,-1,-9,-14,5,-9,-2
1683955304149490,-2,-2,2,-1,-2,14,3,-1
1683955304157689,-1,-1,-2,-11,4,2,3,2
1683955304157689,-4,-3,-4,-9,-9,-2,-9,-2
1683955304172525,-1,-1,0,-7,4,5,0,-1
1683955304172525,0,2,6,14,7,0,5,3
1683955304179485,1,-4,-9,-22,-16,-12,-4,-3
1683955304179485,1,7,16,33,10,3,-1,-1
1683955304195565,0,-1,-5,-7,3,0,4,0
1683955304195565,1,-1,0,-3,-8,-7,0,0
1683955304196569,-4,0,4,-6,-9,2,-10,-2
1683955304196569,-3,-4,-8,-19,-4,18,1,-2
1683955304210162,1,-4,-1,-6,4,2,4,-1
1683955304210162,1,5,0,7,-4,2,-4,-1
1683955304217669,0,0,10,30,11,7,0,1
1683955304217669,2,1,3,3,1,-2,5,3
1683955304232213,1,1,15,24,2,-14,-4,-1
1683955304232213,-2,0,-7,-8,-7,3,-7,-3
1683955304240162,1,-1,-7,-5,8,2,5,1
1683955304240162,-3,-4,-4,0,-3,-9,1,-1
1683955304255839,-3,0,-1,-8,-15,5,-13,-3
1683955304255839,-3,-4,-5,13,9,17,2,0
1683955304255839,1,5,9,16,11,1,6,2
1683955304255839,-2,-4,-6,-6,-21,0,-8,-2
1683955304269535,-1,0,-17,-16,5,17,-2,-2
1683955304269535,-1,-3,8,17,4,-2,8,-1
1683955304277786,-1,-2,-18,-26,-15,-4,-4,0
1683955304277786,-4,-4,-5,9,1,4,-12,-5
1683955304300836,0,4,16,5,1,5,4,0
1683955304300836,-1,-3,-5,-8,-11,-7,0,0
1683955304300836,-1,1,12,-2,2,4,-9,-3
1683955304300836,0,0,-2,-14,10,22,1,-1
1683955304315833,-1,-3,-12,-11,-5,1,7,2
1683955304315833,0,1,4,16,-2,3,-10,-2
1683955304315833,-1,1,3,5,14,23,-2,-3
1683955304315833,1,-3,-3,-7,2,-1,7,-2
1683955304329834,-5,-8,-9,-7,-12,-31,0,2
1683955304329834,0,3,-10,6,22,8,-3,1
1683955304337684,0,-1,1,1,-1,-1,5,2
1683955304337684,0,-3,-4,-8,-16,-20,0,-2
1683955304352391,0,4,2,7,0,10,-13,-6
1683955304352391,-4,-7,-6,-14,1,34,-2,-4
1683955304360210,-1,-1,-4,-2,-10,0,7,3
1683955304360210,-1,5,12,-9,-3,8,-13,-6
1683955304375886,1,1,0,6,13,19,0,1
1683955304375886,2,0,12,-6,-2,-5,7,2
1683955304375886,-2,-3,-5,3,-12,-30,-7,-2
1683955304375886,-5,-2,-13,-4,7,3,-2,-1
1683955304389479,1,-3,-5,-11,1,3,5,0
1683955304389479,4,4,7,-1,-10,-14,1,-1
1683955304397412,-4,-5,4,-3,-5,6,-12,-3
1683955304397412,0,-5,-16,15,14,29,9,2
1683955304412578,-2,0,-1,-31,-9,2,2,0
1683955304412578,-1,5,16,30,3,3,-10,-2
1683955304419576,-2,-7,-20,-19,-2,32,1,-3
1683955304419576,1,-5,9,6,0,-1,9,3
1683955304435862,1,1,-5,5,-6,-25,4,5
1683955304435862,-1,0,11,-3,2,2,-10,-5
1683955304435862,2,6,8,-1,5,-2,5,0
1683955304435862,1,-2,8,18,-8,-31,3,1
1683955304449871,-2,0,9,11,7,9,-14,-6
1683955304449871,-3,-7,-18,-23,0,15,1,-1
1683955304457866,-1,-6,-23,-13,-3,-1,8,0
1683955304457866,3,11,21,-5,-10,9,-11,-3
1683955304472215,1,6,-13,8,11,29,2,1
1683955304472215,0,1,4,0,-11,-3,0,2
1683955304480217,1,9,19,19,2,-14,-8,-3
1683955304480217,-3,-3,-5,-5,1,0,-8,-1
1683955304495245,-1,-7,-19,-31,3,0,9,-2
1683955304495245,5,6,8,19,-7,-33,4,4
1683955304496209,-3,4,-2,1,-3,2,-12,-5
1683955304496209,0,1,-18,-15,10,16,3,2
1683955304510201,-1,-4,13,16,-7,2,4,-1
1683955304510201,0,4,9,18,11,7,-5,-1
1683955304517194,-2,-5,-1,-1,5,48,1,-2
1683955304517194,-2,-4,-11,-9,-5,1,10,2
1683955304540745,1,7,17,23,5,-7,-11,-4
1683955304540745,-6,-4,-2,-14,22,8,2,-3
1683955304540745,0,-1,1,-3,-19,-8,8,3
1683955304540745,-2,-3,-11,-2,-1,-26,-5,-2
1683955304555114,-3,-9,-9,1,-5,4,-8,-3
1683955304555114,0,-7,-10,-13,5,8,7,1
1683955304563147,2,2,13,-1,4,-5,6,2
1683955304563147,-7,-4,-2,-2,-14,8,-12,-5
1683955304570031,4,5,3,-14,11,46,2,1
1683955304570031,1,-2,6,7,-19,3,4,-4
1683955304577619,-3,-5,-14,-9,11,-3,-3,0
1683955304577619,4,5,16,13,1,13,-2,0
1683955304592207,-2,-4,-11,-9,-1,-4,6,-1
1683955304592207,-11,-17,0,1,-10,-39,-8,-6
1683955304600184,-2,2,-9,-13,-28,1,-10,-3
1683955304600184,2,5,-4,3,10,3,9,1
1683955304615121,-7,-17,-15,-14,13,-17,4,1
1683955304615121,1,10,20,16,-33,11,-7,-4
1683955304623148,-2,0,-2,4,14,15,1,-2
1683955304623148,-2,-5,-10,-14,-21,0,1,0
1683955304629427,4,14,6,11,-1,0,-4,-1
1683955304629427,3,2,-16,-14,12,14,5,4
1683955304636853,-1,-7,1,5,2,-2,4,1
1683955304636853,2,3,-2,-3,-10,-26,-7,-2
1683955304652209,-4,-4,-8,-8,-7,3,-8,-3
1683955304652209,0,0,2,-1,-35,2,5,1
1683955304659388,0,3,5,9,4,-10,1,1
1683955304659388,-4,-9,-7,9,2,5,-11,-4
1683955304675186,2,2,-2,14,13,29,4,2
1683955304675186,-1,-5,-31,-17,10,3,9,1
1683955304683160,2,5,31,28,5,4,-3,-1
1683955304683160,-3,-3,0,-8,-2,13,-2,-2
1683955304698348,1,-1,8,-2,-5,-2,1,-2
1683955304698348,0,4,11,21,4,-20,-7,0
1683955304698348,2,7,-23,-33,4,9,-2,1
1683955304698348,3,4,10,12,-8,1,9,0
1683955304712203,-1,-4,-7,-8,-1,-13,-3,1
1683955304712203,-3,-8,3,-3,-15,7,-19,-9
1683955304720184,11,25,-2,23,22,32,-4,0
1683955304720184,-2,-3,-12,-22,12,3,12,3
1683955304735184,0,11,25,21,-4,6,-5,-1
1683955304735184,2,5,-5,-9,27,13,2,1
1683955304743243,-3,-7,2,6,-4,-3,-1,-3
1683955304743243,2,5,-12,-10,-7,-17,-8,0
1683955304757834,-2,-1,-6,6,13,6,-5,-2
1683955304757834,-4,-7,-6,-17,14,3,4,0
1683955304758839,-5,-11,3,3,-11,-6,1,0
1683955304758839,-1,5,2,-12,-17,8,-13,-6
1683955304771937,-7,-17,-12,-8,47,30,12,3
1683955304771937,2,4,11,4,-11,7,4,0
1683955304780184,-7,-17,-14,-12,-11,6,-10,-5
1683955304780184,16,30,25,12,11,47,6,9
1683955304794356,13,27,11,-4,-19,1,6,5
1683955304794356,-6,-11,-16,-21,9,-11,-4,-2
1683955304802409,-6,-12,-23,-5,-10,3,0,-2
1683955304802409,-3,-7,26,13,-3,-1,3,1
1683955304817577,-2,0,-4,20,-14,2,-1,-3
1683955304817577,-1,6,4,-7,8,12,-13,-1
1683955304818517,-3,-5,4,-10,-14,13,5,0
1683955304818517,-4,-17,-30,-44,21,0,1,-3
1683955304834215,-2,-1,2,24,4,4,-6,-1
1683955304834215,-2,-3,-14,-21,12,9,0,0
1683955304840186,-2,0,26,4,6,0,7,-1
1683955304840186,-13,-22,16,29,-23,-17,-13,-8
1683955304855213,10,16,-49,-98,-12,16,-1,4
1683955304855213,7,14,7,18,19,5,13,5
1683955304862223,-8,-16,-14,8,29,-9,-10,-8
1683955304862223,-2,7,20,44,21,7,9,6
1683955304878392,-4,-8,10,-23,-52,11,-2,-4
1683955304878392,-4,-6,13,38,-3,6,1,-2
1683955304878392,7,16,17,-2,-2,7,-3,3
1683955304878392,-6,-10,-8,-38,-2,25,-8,-7
1683955304893433,-4,-10,19,67,37,-5,3,-5
1683955304893433,-1,0,12,10,-41,-7,-6,-1
1683955304899391,8,15,-27,-58,-35,10,1,0
1683955304899391,-3,-12,-17,25,3,0,13,6
1683955304915162,3,6,-15,-69,-40,-6,-9,1
1683955304915162,1,4,1,76,55,10,-11,-5
1683955304923236,-1,-3,20,50,-81,10,4,0
1683955304923236,0,-4,-25,17,30,5,-1,-1
1683955304938223,-6,-5,18,34,-56,2,-13,-7
1683955304938223,6,9,-2,-22,-3,51,6,4
1683955304945864,-3,-5,-17,-29,9,4,3,2
1683955304945864,-7,-5,59,43,-39,-6,-16,-6
1683955304952211,11,17,-36,-20,53,54,6,6
1683955304952211,-4,-9,-11,-87,-7,1,8,0
1683955304960163,4,1,16,-15,50,-27,9,4
1683955304960163,2,8,0,-18,-46,13,-11,-2
1683955304984582,-7,-13,14,5,-2,-4,-4,-6
1683955304984582,9,14,-20,-34,4,6,8,7
1683955304985588,-9,-13,-8,13,4,14,-19,-4
1683955304985588,5,8,-27,-43,7,34,5,3
1683955304997777,4,7,44,41,-14,-4,9,2
1683955304997777,-9,-17,-7,50,43,-1,-6,-5
1683955304998785,-6,-6,24,16,-12,2,-10,-5
1683955304998785,3,7,17,54,-5,3,9,0
1683955305012211,-5,-11,-20,17,16,-44,-2,-3
1683955305012211,-2,-2,2,-13,-24,14,-11,-5
1683955305019311,2,-3,-8,-10,30,10,8,2
1683955305019311,0,3,10,22,22,7,-2,-2
1683955305035240,-14,-26,-15,-35,-64,8,-20,-11
1683955305035240,-6,-8,-1,5,25,23,8,2
1683955305043212,0,-2,-16,-4,-8,12,8,1
1683955305043212,-1,0,10,-2,-8,6,-10,-3
1683955305058229,-5,-9,15,19,15,24,-1,-4
1683955305058229,2,-1,-16,-15,-22,4,4,0
1683955305059209,0,1,-6,22,6,-20,-4,-1
1683955305059209,-5,-5,-6,-7,16,11,-6,-4
1683955305072221,1,1,-2,-5,-6,5,10,3
1683955305072221,1,1,-2,9,-13,-3,0,0
1683955305088192,1,8,8,13,13,16,-7,-1
1683955305088192,0,1,6,-3,-1,34,4,-1
1683955305095185,2,3,-8,2,26,8,9,2
1683955305095185,-2,1,1,0,-21,9,-12,-3
1683955305102207,-4,-3,4,9,0,34,1,-2
1683955305102207,1,-2,-15,-24,10,4,8,1
1683955305118354,-1,1,5,15,3,-15,-5,-1
1683955305118354,-2,-2,3,2,-5,7,-6,-2
1683955305118354,3,1,-3,-5,-4,7,9,3
1683955305118354,1,1,-13,-9,3,-13,3,1
1683955305132478,0,2,5,4,8,11,-9,-1
1683955305132478,-1,-4,5,4,-11,24,3,-1
1683955305140184,1,1,-10,-6,8,6,5,0
1683955305140184,-2,2,-6,-7,-3,10,-9,-3
1683955305155210,0,0,3,11,7,18,2,-2
1683955305155210,0,-3,-6,-8,-3,7,6,-1
1683955305162332,1,2,4,4,-4,-5,-10,-3
1683955305162332,-2,-3,0,-6,4,-4,-3,-4
1683955305177781,0,-2,6,-2,3,4,7,3
1683955305177781,0,1,11,3,-3,-7,-1,-1
1683955305178787,-1,2,5,0,-1,5,-9,-2
1683955305178787,1,-2,-9,-3,0,13,7,1
1683955305192546,-1,-1,-9,-3,6,0,1,2
1683955305192546,-2,2,-11,0,-8,4,-13,-2
1683955305199542,-2,-3,-13,1,3,-11,6,0
1683955305199542,2,-1,-10,-3,3,4,7,2
1683955305215738,-1,0,1,4,-6,-2,-11,-4
1683955305215738,-1,-2,-6,-2,5,-2,-2,0
1683955305222796,1,-2,-2,-2,0,5,8,2
1683955305222796,-3,-6,9,4,-3,-3,-8,-3
1683955305237799,3,8,-10,-13,7,0,-5,0
1683955305237799,-1,-4,0,-2,7,8,11,0
1683955305238810,0,-2,-2,-5,-5,2,-1,-1
1683955305238810,-4,2,6,0,0,6,-10,-4
1683955305252155,-1,-6,-4,0,-3,-10,3,0
1683955305252155,0,1,4,-1,-4,3,2,0
1683955305260214,-2,3,5,-1,-1,0,-10,-3
1683955305260214,-2,-4,-12,-11,-5,1,-1,1
1683955305275215,0,0,5,4,1,2,7,0
1683955305275215,-1,-1,1,-1,-1,0,-2,-3
1683955305282213,-2,-4,2,2,-3,3,-8,-4
1683955305282213,1,0,-5,-6,-2,-13,2,1
1683955305298349,0,2,6,8,15,1,10,1
1683955305298349,-3,0,4,7,-1,2,-11,-5
1683955305298349,-2,-1,-3,-3,1,3,1,0
1683955305298349,0,-2,-1,-2,0,6,4,0
1683955305312149,-3,0,-11,-9,-7,-20,-12,-4
1683955305312149,3,7,16,20,3,-1,4,1
1683955305320165,0,-2,-6,-14,-3,-2,7,0
1683955305320165,-1,1,-4,6,6,-1,1,-1
1683955305335188,-4,-4,0,-1,-6,5,-13,-5
1683955305335188,0,-4,-10,-10,0,17,3,1
1683955305342213,0,5,-1,2,1,0,1,0
1683955305342213,-2,-2,7,-2,-9,5,-10,-3
1683955305358373,-1,-8,-31,-21,5,20,1,0
1683955305358373,3,5,13,26,12,-3,14,5
1683955305358373,-1,-1,0,-7,-2,-13,-7,-3
1683955305358373,-1,-3,-11,-9,9,4,-3,-2
1683955305372027,2,0,10,5,0,0,5,0
1683955305372027,-2,-4,-16,-14,-6,-5,-8,-3
1683955305379489,-1,1,1,1,-1,5,-4,-1
1683955305379489,0,2,10,11,5,15,8,1
1683955305395216,0,-2,-11,-12,0,0,2,1
1683955305395216,-1,-1,-1,-9,-16,1,-12,-3
1683955305402214,-1,-1,2,12,1,1,5,1
1683955305402214,0,0,-1,0,8,-1,9,-1
1683955305418317,0,2,7,5,-5,-14,-10,-2
1683955305418317,-3,-6,1,8,-9,-2,-3,-2
1683955305418317,2,1,-17,-21,5,2,6,3
1683955305418317,-3,-1,21,16,2,-12,-9,-5
1683955305432211,-3,-2,-2,-3,-19,4,-2,1
1683955305432211,-1,-3,-3,-11,43,17,12,0
1683955305440191,-6,-8,-16,-22,-91,4,-9,-5
1683955305440191,0,-1,-3,-3,34,5,-9,-3
1683955305455162,-2,1,12,13,-29,21,1,-3
1683955305455162,-1,-2,-17,-43,-12,-3,0,-1
1683955305462819,1,2,14,31,33,-3,-7,-1
1683955305462819,1,3,-9,-6,-18,3,-3,1
1683955305477842,2,-1,10,8,0,1,7,3
1683955305477842,-1,-2,-6,-9,-9,22,-8,-2
1683955305478849,-1,2,4,5,-1,7,-2,-3
1683955305478849,3,0,-2,4,-6,16,7,4
1683955305492150,-2,-4,-4,2,33,6,-3,-1
1683955305492150,-2,-2,-13,-24,-29,-1,-12,-1
1683955305500214,2,4,34,47,19,42,8,3
1683955305500214,-1,4,22,37,-1,5,3,0
1683955305515171,0,1,3,-22,14,-13,-8,-2
1683955305515171,-1,-4,-7,13,3,2,5,-1
1683955305522239,0,-7,0,-28,4,0,0,1
1683955305522239,6,14,-32,-8,32,-3,-1,3
1683955305537666,-2,0,10,15,12,10,-9,-3
1683955305537666,0,1,3,4,-58,12,4,-2
1683955305545890,-1,-2,-4,10,21,2,2,0
1683955305545890,-4,-4,-1,-21,-38,7,-12,-4
1683955305551918,2,1,-2,0,19,33,13,0
1683955305551918,2,1,4,6,28,-4,-2,1
1683955305560172,-4,-4,-16,-20,-26,-10,-14,-6
1683955305560172,-2,-1,11,-1,11,3,7,1
1683955305575891,-1,0,-2,4,-12,1,5,-1
1683955305575891,-5,-5,-3,-2,-3,-25,-11,-4
1683955305581960,0,3,-6,-3,-5,5,3,2
1683955305581960,1,-4,3,-3,21,14,9,3
1683955305596910,-1,-1,-8,-18,-17,5,-9,-5
1683955305596910,0,2,4,11,9,6,-2,-1
1683955305605879,1,-2,-5,-3,22,26,7,1
1683955305605879,0,-1,3,1,-19,2,-5,-2
1683955305620769,0,2,-3,2,-3,2,-8,0
1683955305620769,1,-2,-7,2,28,7,8,2
1683955305620769,-2,0,6,-2,-18,3,3,-1
1683955305620769,-4,-5,-12,-11,4,11,-8,-4
1683955305635157,1,4,11,2,-10,9,0,-1
1683955305635157,2,8,20,21,-6,5,4,2
1683955305642191,-4,-9,-16,-9,-6,4,-3,-1
1683955305642191,-5,-5,-5,-12,-19,3,-8,-4
1683955305657621,0,-4,-18,-8,12,28,11,3
1683955305657621,1,0,5,-19,20,5,0,0
1683955305665864,-3,-2,2,7,-4,-7,-13,-5
1683955305665864,1,2,-6,-9,-25,6,1,-1
1683955305680760,-2,-5,-5,1,7,-2,4,2
1683955305680760,-3,-3,-3,-9,-45,-40,-13,-4
1683955305680760,0,3,8,13,14,9,1,-1
1683955305680760,0,-7,-18,-24,2,-1,8,2
1683955305695079,1,5,10,18,-4,-6,-6,0
1683955305695079,-1,-2,-1,0,16,12,-5,0
1683955305702798,5,5,11,7,28,33,10,4
1683955305702798,2,1,-3,4,-5,0,-1,2
1683955305717802,-2,0,0,6,23,-1,-4,-2
1683955305717802,1,5,24,17,-39,11,5,3
1683955305725864,0,-2,-11,-7,4,-1,4,2
1683955305725864,1,4,-6,-19,13,-41,-8,-1
1683955305740864,1,1,5,16,-10,12,2,0
1683955305740864,-3,-8,-15,1,8,6,0,-2
1683955305740864,-1,1,0,4,1,-7,-7,-2
1683955305740864,3,4,12,10,-10,9,0,1
1683955305755216,1,3,-13,-13,-8,26,9,1
1683955305755216,1,-2,0,10,35,7,0,-2
1683955305762211,-3,-2,-9,-37,-91,3,-9,-2
1683955305762211,-5,-6,-1,25,47,38,6,-4
1683955305777663,-3,-9,-16,-10,-22,-1,-4,-2
1683955305777663,0,9,24,-1,3,-16,-7,-1
1683955305785421,1,3,-8,-3,-33,10,4,0
1683955305785421,0,-3,1,9,21,1,4,-1
1683955305800918,-4,-4,-4,-5,25,-1,-7,-3
1683955305800918,-5,-6,-14,-23,-61,10,-4,-3
1683955305800918,1,0,0,12,77,36,6,1
1683955305800918,-3,-1,-7,-15,-34,4,-8,-3
1683955305814962,1,7,28,20,5,6,-6,0
1683955305814962,2,-2,-18,-9,1,9,9,4
1683955305822161,-2,-3,5,5,31,-1,2,-1
1683955305822161,-2,2,3,-4,-10,-28,-13,-5
1683955305838352,-3,-10,1,44,4,15,6,2
1683955305838352,-1,0,-5,-55,-69,8,-4,-2
1683955305853222,-3,-5,-11,0,0,-9,-6,-4
1683955305853222,3,5,13,15,25,12,-2,3
1683955305860861,0,3,16,3,22,20,6,-1
1683955305860861,-2,-4,-12,13,28,8,-1,0
1683955305860861,-4,-3,-12,-15,-6,8,-7,-1
1683955305860861,-1,-3,0,-2,-12,24,5,1
1683955305875207,-1,0,2,8,24,1,1,-2
1683955305875207,-4,-5,-3,-15,-41,-14,-7,-1
1683955305882262,0,3,6,-2,-2,-5,3,0
1683955305882262,-1,-3,2,11,11,4,4,2
1683955305897660,-2,-2,-18,-25,-34,-9,-6,-1
1683955305897660,-2,-1,14,13,60,10,-1,-3
1683955305905885,0,-6,-29,14,5,13,4,-1
1683955305905885,2,5,13,-19,-46,4,-3,0
1683955305928386,-5,-9,-24,-14,37,3,-9,-2
1683955305928386,-1,-3,4,4,2,47,8,2
1683955305929398,-2,-5,-6,-10,-5,9,-1,1
1683955305929398,-2,-2,-9,3,-1,-8,-8,-5
1683955305934414,1,4,7,-16,-38,0,1,2
1683955305934414,0,-4,-15,-4,11,-5,1,-1
1683955305942451,0,3,16,13,6,-11,-5,-1
1683955305942451,-2,3,2,17,-4,14,-2,-3
1683955305966514,-2,-6,-9,-11,-30,-28,3,0
1683955305966514,5,11,22,50,6,2,-3,1
1683955305966514,0,0,13,-38,32,7,-3,-1
1683955305966514,-1,-3,-6,4,21,31,6,2
1683955305980839,0,1,1,-4,5,12,-1,-2
1683955305980839,-3,0,-12,0,-8,2,-8,-3
1683955305980839,-1,3,9,8,8,50,7,-1
1683955305980839,0,-2,-5,-11,-12,-9,3,0
1683955306003379,0,2,12,5,14,-16,-6,0
1683955306003379,1,3,-4,12,14,6,-1,-1
1683955306003379,1,3,6,-5,-7,-10,7,3
1683955306003379,-3,-6,-10,-2,11,5,-4,-3
1683955306016897,5,9,16,15,-19,15,-2,0
1683955306016897,-3,-5,-5,-27,-24,28,2,-2
1683955306025889,3,8,7,26,16,0,-4,-2
1683955306025889,-4,-5,-10,-10,-8,-2,-5,-3
1683955306040822,-1,1,10,1,10,13,6,1
1683955306040822,-1,-3,0,6,4,-1,1,0
1683955306040822,-3,-4,-8,-21,-26,-22,-8,-3
1683955306040822,-2,3,17,15,-1,11,0,0
1683955306054966,-2,-2,-11,1,-20,23,1,-1
1683955306054966,1,1,-3,2,17,-4,5,2
1683955306062215,-1,-1,-3,2,-14,8,-10,-5
1683955306062215,1,-3,-2,7,6,32,3,0
1683955306077688,1,4,-6,-30,-31,-3,3,-2
1683955306077688,-2,-2,-5,-1,2,19,-3,-2
1683955306085426,-1,-2,-1,8,-11,5,-2,0
1683955306085426,3,3,-8,-7,-4,5,1,2
1683955306100332,-2,-5,2,10,18,-12,-3,-3
1683955306100332,-5,-7,-19,2,1,2,-8,-2
1683955306101353,3,6,24,1,10,20,5,4
1683955306101353,-3,-3,0,3,-1,2,1,-2
1683955306115188,1,6,-4,-11,-14,15,-9,-5
1683955306115188,0,-1,1,-1,4,0,0,-1
1683955306122488,-2,-7,-7,5,11,5,6,1
1683955306122488,1,-2,-6,-4,-5,-6,-7,-2
1683955306137434,-1,-7,-1,-5,-15,21,-2,-1
1683955306137434,2,3,6,1,-14,7,3,0
1683955306145430,-2,-3,-8,-6,5,-9,-4,1
1683955306145430,-5,1,0,-9,-9,-6,-7,-2
1683955306160422,-2,-3,2,8,31,31,4,0
1683955306160422,1,2,3,1,4,-7,-1,1
1683955306161421,0,1,-2,-5,-21,7,-7,-5
1683955306161421,-2,-1,0,5,13,15,1,-2
1683955306175145,0,-1,3,5,6,1,1,-2
1683955306175145,-3,-3,-2,-5,7,2,0,0
1683955306181788,1,1,-10,-10,-15,32,-2,-1
1683955306181788,1,-3,-2,-3,-22,10,4,1
1683955306197593,2,-2,-7,-5,4,-13,4,2
1683955306197593,0,2,-3,-4,15,11,-3,-1
1683955306205795,-1,-4,-4,4,7,12,2,0
1683955306205795,-1,-3,-9,-11,-15,-5,1,2
1683955306220740,-2,0,1,-4,15,7,-6,-1
1683955306220740,-2,-5,-1,1,5,10,-1,-4
1683955306220740,-1,-5,-7,-6,-6,1,3,-1
1683955306220740,1,5,4,-1,8,4,-9,-2
1683955306234905,-1,-2,0,-2,-14,5,-3,1
1683955306234905,-2,-5,-24,-27,29,11,5,0
1683955306242206,-1,0,22,-2,-25,-29,-2,-2
1683955306242206,2,1,-4,-11,-8,10,-3,0
1683955306257662,-2,-2,-1,12,11,14,2,-1
1683955306257662,-2,-5,-8,-14,-22,2,-1,-1
1683955306265960,-2,-3,-7,14,33,10,-7,-2
1683955306265960,1,2,11,6,0,36,4,0
1683955306280835,0,1,0,-18,-31,5,4,1
1683955306280835,0,1,7,25,31,7,-6,0
1683955306280835,1,0,-5,-15,-69,-20,-5,-1
1683955306280835,0,1,8,7,13,2,7,1
1683955306303287,1,-2,-4,7,26,-24,-1,2
1683955306303287,-1,4,11,10,-84,27,-11,-4
1683955306303287,1,-1,-1,-9,48,16,5,2
1683955306303287,-3,-3,-5,-4,10,3,2,-1
1683955306325844,-1,-2,-3,-5,-20,12,-7,-4
1683955306325844,1,3,9,13,18,25,3,-1
1683955306326850,-2,-6,-6,-4,7,12,2,1
1683955306326850,2,7,5,-10,-48,6,-5,-1
1683955306340840,-1,-4,-5,4,16,15,1,1
1683955306340840,0,-2,5,2,5,2,8,1
1683955306340840,0,0,4,4,-17,-9,-5,-1
1683955306340840,-1,-3,-4,8,47,10,-2,0
1683955306356192,0,-3,-12,-20,-58,12,2,-2
1683955306356192,1,5,14,5,24,-2,1,-2
1683955306362249,-5,-7,-9,1,2,12,-2,-2
1683955306362249,-2,-4,-5,-3,2,28,4,0
1683955306377336,-1,-1,1,-2,-12,6,-1,-2
1683955306377336,-2,1,-5,6,-5,6,-4,0
1683955306385864,-3,0,0,7,14,23,0,-3
1683955306385864,-1,-1,1,-2,2,2,5,0
1683955306400839,-1,-2,2,-1,9,3,-5,-1
1683955306400839,0,-3,-4,-9,0,18,-3,1
1683955306400839,3,8,5,15,24,10,5,3
1683955306400839,-2,-4,-5,-6,-34,-15,-2,0
1683955306415189,0,1,-1,-10,-15,9,-6,-2
1683955306415189,0,0,0,4,10,20,7,1
1683955306422190,2,3,2,5,17,9,1,-1
1683955306422190,-1,-4,-2,-5,-11,9,-7,-3
1683955306437207,-1,1,1,4,14,23,4,0
1683955306437207,-1,0,1,-1,2,2,4,2
1683955306445177,-1,-1,2,0,0,-10,-4,-1
1683955306445177,-1,-1,-3,2,13,20,1,-3
1683955306460167,-1,-2,3,-1,28,2,4,1
1683955306460167,-1,-1,0,2,-17,-16,-5,-6
1683955306468165,-3,-7,-3,-5,-39,17,-6,-4
1683955306468165,1,9,4,1,2,17,5,1
1683955306475158,-1,5,2,8,20,7,1,-8
1683955306475158,1,-4,-3,-7,11,9,-4,9
1683955306482216,-1,4,3,4,11,18,-1,-4
1683955306482216,1,-4,-1,1,1,4,0,1
1683955306497518,0,0,0,1,-13,-9,-8,-3
1683955306497518,-2,-5,-4,-7,-4,14,4,-6
1683955306505413,-2,-9,-2,10,17,9,7,5
1683955306505413,-1,-3,-1,-16,-18,-25,-4,-2
1683955306528391,-3,1,1,6,7,12,-8,-2
1683955306528391,-3,0,-3,-14,-36,-1,2,-4
1683955306529396,3,0,3,15,35,3,4,10
1683955306529396,-4,-2,-1,-5,-14,10,-16,-10
1683955306535145,-2,-2,-2,7,14,11,5,-7
1683955306535145,4,-2,2,4,22,4,-15,7
1683955306542145,-1,0,-2,-7,-23,-1,-5,-5
1683955306542145,0,-1,-2,3,15,12,-1,-1
1683955306557708,0,-1,0,-11,-40,3,2,2
1683955306557708,-4,1,2,7,18,-10,1,-3
1683955306565399,-4,-11,-6,-3,8,11,-5,-2
1683955306565399,1,10,2,4,-12,11,5,6
1683955306580185,-1,-5,-1,0,19,10,-2,0
1683955306580185,-1,-2,-1,-9,-40,10,-3,-4
1683955306595884,1,7,2,-1,4,33,0,0
1683955306595884,-2,-5,-3,-1,-14,8,7,1
1683955306603271,0,0,-1,8,10,2,-5,1
1683955306603271,-1,2,-1,-3,-8,18,-1,-3
1683955306603271,0,-1,2,-1,3,5,2,-3
1683955306603271,-3,-6,-6,1,3,-9,-3,-2
1683955306617374,0,6,8,8,15,22,-7,0
1683955306617374,-3,-7,-6,-6,-11,11,5,-1
1683955306625797,-3,1,-2,-6,-34,-2,-2,-2
1683955306625797,-4,-4,-4,3,13,14,1,6
1683955306648411,3,-3,-1,-6,-13,18,-5,-2
1683955306648411,3,2,3,0,19,6,6,1
1683955306649416,-1,3,-1,0,-6,3,-9,-4
1683955306649416,1,3,2,-1,25,13,-1,2
1683955306663338,-5,-8,-6,-14,-70,5,2,-3
1683955306663338,-1,-1,-1,5,12,-11,-2,1
1683955306663338,1,3,-2,-7,6,6,0,1
1683955306663338,1,-2,6,9,2,19,4,-5
1683955306686418,0,-2,-8,-6,7,-4,2,5
1683955306686418,-3,0,3,-6,-13,9,-6,-2
1683955306686418,0,-6,-2,4,6,15,1,-1
1683955306686418,2,7,0,0,8,2,7,2
1683955306699515,-1,0,-1,0,5,-4,-2,0
1683955306699515,1,0,0,2,17,8,1,4
1683955306708365,-1,0,0,-5,-14,5,1,-6
1683955306708365,-4,-5,-3,5,4,-7,-7,-6
1683955306723273,1,2,3,-9,-27,4,-4,1
1683955306723273,0,3,2,6,27,14,4,-5
1683955306723273,0,-4,-7,-2,10,-2,4,3
1683955306723273,0,-3,-1,0,-22,3,-7,-3
1683955306737709,0,1,2,0,-19,7,3,-1
1683955306737709,-1,-3,-1,-1,4,1,2,-1
1683955306745866,-1,2,1,-5,-22,3,-5,-3
1683955306745866,1,-4,-4,0,5,14,2,1
1683955306760184,-2,-2,-1,8,27,9,6,2
1683955306760184,-1,-2,1,4,-12,-12,-5,0
1683955306768381,0,5,2,-5,-2,16,-4,-1
1683955306768381,-2,-6,-5,-4,6,10,5,-2
1683955306783270,-1,-1,0,7,28,5,0,1
1683955306783270,-3,-2,-2,-6,-8,8,-6,-3
1683955306783270,-2,1,2,5,5,34,5,1
1683955306783270,0,6,4,-3,3,3,-4,-1
1683955306797334,-4,-8,0,5,1,5,-6,-8
1683955306797334,2,5,-4,-3,-24,21,2,4
1683955306805265,-1,-3,-4,-3,6,1,1,-1
1683955306805265,-1,1,5,-1,0,-16,-5,-2
1683955306836374,-1,0,-2,0,20,8,3,5
1683955306836374,-1,-4,-5,-2,15,10,5,-1
1683955306837314,-1,-1,3,0,-1,-4,-1,-1
1683955306837314,-2,-1,-5,-5,-29,9,-6,0
1683955306843338,0,4,3,2,17,25,1,3
1683955306843338,-2,-2,0,-2,-17,3,1,-2
1683955306843338,-2,-1,-1,-5,-15,3,-4,0
1683955306843338,0,-1,0,0,1,3,0,-3
1683955306857658,1,2,1,5,11,5,3,1
1683955306857658,1,2,1,-2,27,-7,-4,-1
1683955306865884,-2,-1,1,-2,-21,22,-6,-2
1683955306865884,0,1,-2,9,25,9,2,1
1683955306879593,-2,-5,-5,-8,-14,0,0,0
1683955306879593,-2,-2,-1,-1,-18,11,-6,-1
1683955306887679,1,0,0,-4,-14,9,2,0
1683955306887679,-1,-1,4,7,32,9,3,0
1683955306902891,-1,-2,-1,1,0,9,-5,-2
1683955306902891,0,-1,-1,-4,5,2,-1,-2
1683955306903834,1,0,-2,0,-1,3,2,1
1683955306903834,-2,-1,-2,-3,-20,-13,-7,1
1683955306926508,0,2,3,2,1,19,-1,-4
1683955306926508,-1,1,2,1,3,5,2,0
1683955306926508,1,-2,-3,4,6,-6,-1,-1
1683955306926508,0,-2,-3,-7,4,11,-2,0
1683955306940183,-1,0,0,-2,-5,11,0,0
1683955306940183,-1,-4,-2,-5,-8,5,-1,-2
1683955306948356,1,5,8,7,15,5,-4,0
1683955306948356,-3,-6,-2,-5,-7,14,2,-2
1683955306963419,-1,-2,-6,1,18,2,2,2
1683955306963419,0,-1,1,5,15,9,-3,-2
1683955306963419,-2,0,-6,-15,-44,12,-6,-2
1683955306963419,0,-4,-1,-1,0,11,7,1
1683955306977390,0,1,1,-1,-8,-6,-2,0
1683955306977390,-1,-1,-5,-1,4,8,-4,-1
1683955306985833,-2,-2,1,8,19,21,2,0
1683955306985833,1,-1,-1,-6,-15,8,-1,-1
1683955307000184,0,-1,-3,-4,1,8,-4,0
1683955307000184,-2,-1,1,8,1,13,0,-1
1683955307007852,-5,-10,-24,-30,-29,4,-2,-2
1683955307007852,9,22,40,20,41,1,4,4
1683955307023013,-4,-2,10,-5,-59,27,-3,-2
1683955307023013,-1,-6,-5,1,19,12,6,1
1683955307030821,-1,-4,-5,-3,-5,-13,-3,-3
1683955307030821,-4,-6,-16,-8,-14,13,-8,-2
1683955307037684,0,3,-1,1,3,15,3,1
1683955307037684,0,5,11,-3,-7,8,2,1
1683955307045813,-2,0,2,3,39,12,-3,-2
1683955307045813,-2,-4,-7,-2,-23,16,-2,-2
1683955307060159,2,3,2,-9,-4,3,1,0
1683955307060159,-4,-4,-6,5,-11,7,-6,-4
1683955307068408,-1,3,1,5,27,9,3,1
1683955307068408,-2,-3,-5,0,-6,9,2,-2
1683955307083306,-3,-6,-5,-6,-1,-33,-2,-1
1683955307083306,0,3,2,4,10,10,-4,0
1683955307083306,1,0,6,6,-6,8,4,0
1683955307083306,-3,-6,-11,-8,8,7,1,0
1683955307097256,0,2,12,12,-3,12,-8,-3
1683955307097256,-1,2,-4,-22,-45,12,3,2
1683955307105171,0,2,16,17,-16,6,0,0
1683955307105171,-5,-4,-13,-25,-24,-6,-9,-4
1683955307120167,0,-2,-5,2,23,10,3,-1
1683955307120167,0,0,3,4,11,2,1,0
1683955307128353,0,-5,-6,-6,-11,-11,-5,-3
1683955307128353,-1,-2,-4,0,9,12,-5,-2
1683955307142875,2,5,20,29,17,5,6,1
1683955307142875,1,-1,0,-27,35,3,4,0
1683955307143811,-4,-2,-7,-13,-15,12,-7,-5
1683955307143811,-1,-3,-5,2,8,13,1,0
1683955307157811,-1,-1,-6,-4,-9,6,-1,1
1683955307157811,-1,1,-1,6,26,8,-2,-1
1683955307165792,0,1,4,-1,-8,8,0,-1
1683955307165792,1,-1,6,6,14,6,6,1
1683955307180168,-4,-5,-9,-5,25,-11,-7,-3
1683955307180168,-3,-2,-5,0,-65,6,-6,-3
1683955307187572,1,5,10,2,6,11,5,2
1683955307187572,-3,-3,2,7,1,-1,-3,-3
1683955307202604,-1,0,-7,-4,16,12,-3,-3
1683955307202604,1,-1,-3,-5,-24,6,0,-3
1683955307203576,1,-4,-1,15,-11,3,4,1
1683955307203576,1,3,4,-6,39,4,-1,-1
1683955307217559,-1,-1,-4,1,-17,11,-5,-1
1683955307217559,-3,-1,0,15,34,5,1,-3
1683955307225554,0,-2,-1,-16,-21,-2,-2,0
1683955307225554,-1,0,4,8,13,10,0,-1
1683955307239839,-2,-2,-8,-9,-19,3,2,0
1683955307239839,1,-2,0,-9,6,-4,-2,1
1683955307248397,-2,0,-2,-5,1,4,-5,-3
1683955307248397,2,0,0,-5,-32,18,1,-1
1683955307263227,2,-1,0,8,27,6,5,1
1683955307263227,-3,-1,-1,18,-27,0,-5,-6
1683955307263227,3,0,-3,-22,44,11,-1,8
1683955307263227,0,-2,-4,5,-6,1,0,2
1683955307277672,-3,-4,-1,0,-75,3,-7,-8
1683955307277672,3,2,6,4,31,2,-2,3
1683955307285431,-1,1,-4,4,9,12,2,-6
1683955307285431,0,1,0,2,-17,-3,-1,-1
1683955307300145,-2,-1,-5,-9,10,4,-5,0
1683955307300145,-1,-3,4,-2,3,18,3,-2
1683955307308196,-3,-2,2,8,-12,0,0,-4
1683955307308196,-2,-1,-2,-6,0,5,-1,6
1683955307323261,0,-2,-1,-5,17,11,-7,-7
1683955307323261,-1,1,-1,-1,13,4,4,3
1683955307323261,1,-3,-4,4,2,-13,-2,2
1683955307323261,-2,-2,0,5,12,4,-1,-2
1683955307337669,-1,-2,0,7,16,8,7,2
1683955307337669,-1,-4,-8,-30,12,6,1,-2
1683955307345896,-6,-3,3,16,1,6,-12,-18
1683955307345896,3,0,-4,5,-8,24,3,19
1683955307360143,1,2,-6,-17,-12,3,3,0
1683955307360143,0,1,7,22,29,4,-7,-2
1683955307368381,2,1,-3,-2,19,14,9,6
1683955307368381,-7,-10,-7,2,-58,1,-5,-14
1683955307391428,-1,2,11,-19,1,-26,-8,-2
1683955307391428,-4,-8,-13,-6,13,13,3,0
1683955307391428,2,3,2,5,7,7,1,2
1683955307391428,0,-1,-5,-13,-6,-6,-1,1
1683955307397451,2,2,6,15,108,12,4,5
1683955307397451,-1,2,2,-30,-112,4,-5,-4
1683955307404447,-3,2,8,54,44,1,1,-2
1683955307404447,-3,-2,-3,32,77,8,-2,-7
1683955307419404,1,2,-9,-42,-92,-10,-2,-3
1683955307419404,1,1,1,5,-13,4,4,4
1683955307427400,0,-6,-13,-41,-28,-21,-3,5
1683955307427400,-3,1,11,25,46,8,-5,-6
1683955307442186,1,4,-3,4,-40,-4,1,0
1683955307442186,-1,-3,-4,-15,-49,2,-3,0
1683955307450819,2,5,-2,8,-41,7,-5,1
1683955307450819,-2,1,3,13,23,18,4,-1
1683955307457619,1,-3,-5,-17,3,12,3,2
1683955307457619,-2,-1,3,32,21,-4,-9,-3
1683955307465120,-2,-4,3,36,63,24,6,2
1683955307465120,1,-1,-7,-54,-73,-3,3,1
1683955307480120,-2,-3,1,39,52,-15,-4,-1
1683955307480120,2,1,-2,-55,-74,11,-2,-1
1683955307488354,-3,-4,5,28,46,12,4,-3
1683955307488354,-5,-1,-1,-15,-111,-11,-12,-5
1683955307502208,2,2,1,10,23,17,3,4
1683955307502208,-6,-8,-11,29,95,32,2,-10
1683955307510515,6,1,-3,-70,-94,2,-2,13
1683955307510515,-2,0,-1,-5,-6,3,-13,-8
1683955307541808,-3,2,3,13,3,38,2,-2
1683955307541808,1,5,7,20,-7,3,0,-1
1683955307542812,0,0,-1,-10,19,-25,-1,-4
1683955307542812,-1,1,-1,7,34,3,2,0
1683955307543812,0,-2,-4,-21,-12,14,2,0
1683955307543812,1,-1,-4,-17,14,-26,-1,4
1683955307547830,0,-2,2,51,54,11,-4,-1
1683955307547830,-1,-2,-4,-11,-35,23,9,1
1683955307562178,1,2,11,16,56,2,-2,-1
1683955307562178,-3,-1,5,-16,-83,5,-9,0
1683955307578395,2,3,-10,-33,-87,15,-2,0
1683955307578395,-7,-11,-2,43,75,4,2,-6
1683955307585835,-2,-3,-8,-19,-13,-29,-7,0
1683955307585835,1,2,-1,5,71,-7,-2,2
1683955307585835,0,8,18,-31,60,6,2,-2
1683955307585835,2,4,6,-10,10,-23,1,1
1683955307600190,-2,-3,-12,9,-47,6,-6,-4
1683955307600190,2,2,0,4,38,16,9,5
1683955307608365,-9,-10,-13,20,64,3,-1,-7
1683955307608365,2,4,2,-82,-97,6,-10,1
1683955307621832,-3,-2,7,74,111,25,9,3
1683955307621832,-1,-5,-4,9,75,4,2,-2
1683955307637842,1,5,-5,8,89,60,-4,-2
1683955307637842,-5,-3,-5,-20,-34,36,-5,-7
1683955307645851,0,-11,-13,-15,-48,-15,2,2
1683955307645851,4,11,25,9,71,-32,8,4
1683955307645851,-7,-4,8,34,42,-13,-9,-6
1683955307645851,3,2,4,43,96,23,9,3
1683955307659875,-5,-8,-7,-35,-4,11,-8,-9
1683955307659875,-5,-7,-37,-50,-123,5,-15,-4
1683955307667834,6,1,14,-39,19,22,11,6
1683955307667834,-4,-3,8,28,65,-8,8,-5
1683955307682824,-8,-8,-4,-9,14,-19,-9,-7
1683955307682824,4,0,-4,54,0,17,12,8
1683955307690824,-3,-2,-4,-35,-108,-8,-11,-5
1683955307690824,3,0,-7,-7,35,19,1,1
1683955307705825,-6,-6,-7,0,17,51,-12,-6
1683955307705825,1,1,8,-13,-48,-5,3,1
1683955307705825,0,1,19,105,54,-9,14,1
1683955307705825,4,3,-3,-29,54,0,1,0
1683955307719864,-2,3,10,-20,-96,-17,-18,-5
1683955307719864,2,3,2,-6,89,12,8,1
1683955307728353,1,-2,-12,-42,-95,-21,-6,2
1683955307728353,-2,-7,-29,-85,-104,-22,-6,0
1683955307742457,5,12,32,77,-18,-2,12,3
1683955307742457,-8,-10,-2,55,34,21,-12,-8
1683955307750452,0,2,5,46,9,-9,8,11
1683955307750452,-1,1,2,13,12,3,-9,-2
1683955307765463,9,11,16,-21,25,10,21,9
1683955307765463,-2,-3,-2,-20,-11,1,-11,1
1683955307766439,-9,-7,-10,-38,-8,76,-3,-16
1683955307766439,-5,-6,3,61,52,6,-5,-3
1683955307780189,6,4,-4,-49,30,3,11,9
1683955307780189,0,3,26,62,-24,-22,-12,-4
1683955307788391,-1,0,-2,36,77,-16,-13,-3
1683955307788391,2,3,6,27,85,25,14,2
1683955307802158,0,-4,-22,-68,-72,38,-14,-1
1683955307802158,-1,-7,-15,-72,-58,15,11,1
1683955307810843,-3,1,-3,23,-31,-12,-14,-6
1683955307810843,7,5,19,44,-19,3,-5,8
1683955307825749,0,4,-4,52,89,54,1,-4
1683955307825749,2,5,-5,-20,24,-19,0,-4
1683955307825749,4,0,5,-26,103,8,19,6
1683955307825749,-5,-3,-3,3,65,-26,2,-4
1683955307839982,2,-1,3,54,52,-8,5,6
1683955307839982,0,1,-25,-57,-91,-10,-4,-3
1683955307848395,-9,-11,-5,-30,-98,-19,-12,-9
1683955307848395,-6,-2,6,47,8,13,2,-29
1683955307862471,4,-7,-8,-38,39,3,35,39
1683955307862471,-7,-1,-5,-67,-77,16,-36,-19
1683955307870883,10,8,29,126,110,17,22,15
1683955307870883,4,5,1,-126,-92,17,-5,0
1683955307885036,-11,-7,-6,-21,51,-13,-26,-4
1683955307885036,0,1,5,30,99,27,46,-10
1683955307886000,10,7,-5,5,-128,-75,-13,18
1683955307886000,0,4,11,38,73,-35,-5,0
1683955307899993,4,0,-12,-50,-63,-2,1,-5
1683955307899993,0,-6,-2,-98,-41,-1,-7,13
1683955307907847,-11,-11,-17,-25,56,17,9,-17
1683955307907847,8,15,34,117,96,14,11,15
1683955307922206,-2,5,15,46,70,18,-8,-9
1683955307922206,-5,-6,-3,-29,-60,20,-10,-7
1683955307930858,-2,-4,-7,-53,-66,25,-11,-4
1683955307930858,1,-5,-10,-50,-85,-18,-12,10
1683955307945809,-4,-8,-5,-74,-61,10,1,-10
1683955307945809,-2,3,15,127,110,-5,-5,1
1683955307945809,-1,1,-13,-45,19,35,-4,-7
1683955307945809,-3,-8,-23,-48,-38,-6,2,1
1683955307960165,-5,-3,4,-10,-125,-21,-11,-10
1683955307960165,0,0,-5,-4,34,8,3,1
1683955307968331,1,1,-7,-51,-31,0,0,4
1683955307968331,0,1,16,18,-15,9,1,2
1683955307983098,-2,-3,-10,51,-13,-7,-6,-7
1683955307983098,-1,-3,5,35,17,6,3,7
1683955307990831,-3,-4,-6,-25,7,22,-4,-3
1683955307990831,-4,-7,-14,-40,-39,11,-8,-1
1683955308005832,1,4,14,-11,5,9,0,-4
1683955308005832,3,3,5,50,32,-9,10,5
1683955308005832,-1,-4,-5,-15,45,-10,-7,-2
1683955308005832,-4,-2,-8,-19,-12,12,-1,-3
1683955308020701,-3,-8,-6,7,-9,-9,-4,-3
1683955308020701,4,11,32,5,3,4,3,3
1683955308028407,-2,2,-4,-5,55,10,0,-1
1683955308028407,-3,-4,-3,27,-76,-2,-4,-3
1683955308042205,-4,0,1,0,-2,-5,2,-1
1683955308042205,-2,-5,-5,-6,8,-1,-10,-2
1683955308050859,0,1,-3,3,-12,20,-3,-1
1683955308050859,1,1,-3,-1,4,-4,3,2
1683955308065858,-1,0,-14,4,2,-7,0,0
1683955308065858,-3,0,-8,1,3,11,-5,-3
1683955308065858,-1,-2,3,13,-9,4,5,1
1683955308065858,-2,-5,-7,-11,-6,-3,0,0
1683955308080133,-1,0,-5,15,16,11,-6,-4
1683955308080133,-1,2,20,31,15,13,3,4
1683955308087925,-2,-2,-1,-17,-23,-6,2,-3
1683955308087925,-1,0,1,-7,3,9,-5,-2
1683955308101812,-4,-6,-10,-19,-7,18,2,-3
1683955308101812,2,-1,-8,-14,-3,4,1,3
1683955308110859,0,1,9,4,-11,-6,0,0
1683955308110859,-2,-3,-6,-4,5,15,-4,-4
1683955308125835,5,0,6,8,-1,9,2,1
1683955308125835,-5,-10,-21,-2,-1,0,-3,-3
1683955308125835,4,8,12,14,4,4,0,2
1683955308125835,-1,-1,-3,4,8,19,-2,0
1683955308139776,2,2,0,-3,-3,1,3,0
1683955308139776,0,-4,-6,-10,-11,7,1,0
1683955308148365,-4,-8,-11,-17,-13,11,-4,-6
1683955308148365,2,6,12,30,13,6,10,2
1683955308162202,-1,-1,0,-2,-3,-5,-7,-3
1683955308162202,-4,-5,-9,-9,0,4,-13,-7
1683955308170833,2,5,3,1,-4,8,11,5
1683955308170833,-2,-2,-3,-10,0,15,5,2
1683955308185855,-8,-5,-1,2,1,-3,-5,-1
1683955308185855,3,4,5,9,5,13,-1,-2
1683955308185855,4,-1,-14,-19,-8,9,1,1
1683955308185855,-3,-6,-7,-6,0,-22,-6,-3
1683955308199904,-1,9,12,7,5,3,-5,-7
1683955308199904,-2,-12,-7,-4,1,5,5,4
1683955308207839,-5,1,8,6,-3,-8,-5,-5
1683955308207839,-3,-4,-15,-17,-4,4,-1,2
1683955308222144,3,0,1,-2,0,11,-4,-6
1683955308222144,2,-3,-11,-13,-1,18,1,7
1683955308230478,-9,-6,-2,4,-1,1,-8,-14
1683955308230478,-8,-7,-8,-9,-7,13,-4,9
1683955308245395,27,10,11,11,6,14,15,11
1683955308245395,-18,4,8,9,1,-7,-8,-15
1683955308246333,-7,-10,-14,-19,-5,2,-3,4
1683955308246333,12,-2,4,8,9,18,16,11
1683955308260184,-16,-1,-4,-7,-6,-6,-22,-15
1683955308260184,10,8,9,0,0,-2,2,10
1683955308275187,-8,-13,-4,6,-4,2,-1,-2
1683955308275187,9,25,7,6,-1,16,-1,-1
1683955308282212,13,-3,-10,0,-6,-3,-1,14
1683955308282212,-11,-4,0,-1,-1,10,-34,-32
1683955308297183,-3,1,4,1,2,15,5,6
1683955308297183,-2,-5,3,10,7,7,-5,-9
1683955308313195,5,4,-3,9,4,-8,-9,9
1683955308313195,-11,-13,-6,-6,0,11,21,28
1683955308329529,19,6,5,-5,-4,28,7,-5
1683955308329529,-8,-2,-10,3,4,-4,-12,-6
1683955308329529,4,-1,14,7,9,7,21,10
1683955308329529,7,0,-7,-7,3,9,-2,4
1683955308331533,4,9,12,13,5,-3,-11,-3
1683955308331533,7,-9,-7,-19,-1,-2,24,16
1683955308342591,-13,-5,-10,1,3,14,-2,-4
1683955308342591,7,7,10,-19,-9,0,-1,-5
1683955308350889,-3,-11,-6,-11,-4,-1,-2,0
1683955308350889,-11,16,4,-4,-11,12,-9,-3
1683955308365161,1,-1,4,-7,0,14,2,-2
1683955308365161,0,2,-2,-12,-8,1,0,7
1683955308373328,14,5,-3,-7,-1,5,-12,-20
1683955308373328,-8,-11,2,-7,2,6,16,44
1683955308380162,-5,-6,-6,-13,-13,3,-19,-37
1683955308380162,-2,4,-4,2,-1,6,16,39
1683955308388573,3,6,6,-9,-2,5,-20,-8
1683955308388573,-1,-9,-1,14,13,6,-5,-20
1683955308402605,4,1,-8,-12,-17,3,-5,4
1683955308402605,1,5,2,8,8,-11,27,1
1683955308410889,16,-8,-8,13,24,20,14,36
1683955308410889,-6,-12,-7,-15,-28,-1,-17,-111
1683955308425211,26,7,9,0,-6,1,-1,59
1683955308425211,-6,-5,5,15,10,7,8,19
1683955308434219,-6,9,7,17,-5,-4,-9,-1
1683955308434219,-3,-7,-5,2,13,74,24,10
1683955308440211,4,-8,-13,5,2,8,16,-28
1683955308440211,4,18,3,-8,-15,0,-28,-7
1683955308448551,31,-7,5,7,1,56,5,26
1683955308448551,-10,-3,6,-7,-1,-20,1,3
1683955308471512,-20,-8,-5,3,0,-43,-1,-52
1683955308471512,32,-4,-22,-10,-13,9,17,7
1683955308473157,-24,1,11,-1,-5,15,14,0
1683955308473157,30,2,8,9,-13,-51,-26,-26
1683955308484847,-52,14,-2,-2,-3,23,49,-13
1683955308484847,9,-11,2,9,-5,20,40,-26
1683955308500187,-43,-14,-19,-26,-13,-9,16,-20
1683955308500187,30,-4,-4,1,-9,-22,-31,38
1683955308508404,-38,1,0,-4,10,30,37,69
1683955308508404,13,3,-1,-15,-10,16,-84,-100
1683955308510339,-16,-5,-10,-9,12,-81,4,12
1683955308510339,-50,1,-8,-1,-4,70,38,26
1683955308522211,20,-5,-5,-10,-23,-17,-21,-19
1683955308522211,8,-2,5,21,27,-15,-14,-6
1683955308531419,17,4,6,-5,-4,4,-25,16
1683955308531419,-32,-4,-11,-23,-20,63,-19,-57
1683955308545161,4,-4,5,6,34,7,-13,3
1683955308545161,-12,-3,-1,5,-2,-20,27,55
1683955308554221,10,17,18,-12,3,-5,-18,-102
1683955308554221,-30,-17,-13,13,13,-42,14,8
1683955308568386,72,13,-1,-24,5,-74,4,49
1683955308568386,-3,8,-1,-20,-45,14,-31,-44
1683955308575161,-11,2,25,44,-12,27,44,75
1683955308575161,13,7,-1,-1,-3,-1,-5,16
1683955308581838,-23,-11,-2,-1,-15,13,-28,-19
1683955308581838,-9,3,15,-9,40,66,3,0
1683955308598850,6,-3,-16,-3,-31,-5,14,23
1683955308598850,8,-3,-2,-12,0,-24,-14,0
1683955308605059,-12,1,12,14,-7,92,-6,-8
1683955308605059,-8,-14,-16,6,25,-5,13,11
1683955308613996,0,-4,-10,-21,-8,-28,-38,-3
1683955308613996,28,-8,-12,-6,-4,96,-10,5
1683955308628366,-8,9,17,6,12,11,27,-38
1683955308628366,17,-5,-7,16,22,-35,-63,-9
1683955308635161,3,5,7,-10,21,19,-7,-4
1683955308635161,10,3,-1,17,-28,-13,-3,0
1683955308641951,-4,-12,-10,16,38,-21,11,5
1683955308641951,-39,2,0,-30,-53,6,41,65
1683955308650889,12,4,8,54,71,61,6,-45
1683955308650889,3,0,1,-15,29,2,-5,17
1683955308664968,-8,-8,-5,22,7,-17,-16,-7
1683955308664968,-5,-1,-1,-3,-18,-35,5,2
1683955308674229,-7,-7,-19,-15,13,10,-3,0
1683955308674229,-5,4,5,11,27,-32,26,11
1683955308687686,8,-1,-9,-19,-83,28,-22,2
1683955308687686,0,-2,-7,4,19,35,2,-12
1683955308696358,-10,-10,-18,-25,-18,-18,12,4
1683955308696358,7,11,24,24,27,-6,-6,-12
1683955308702210,-5,-7,-5,-19,-9,22,-14,-3
1683955308702210,-1,0,11,-5,0,17,6,-6
1683955308711402,-1,3,10,43,2,-2,9,4
1683955308711402,5,7,3,6,4,13,2,8
1683955308725163,-7,-5,-31,-41,36,14,-4,-7
1683955308725163,0,2,31,37,-50,-29,14,1
1683955308734219,-4,-6,-2,-39,-18,11,-11,-1
1683955308734219,-4,-4,-22,-6,7,2,-1,-2
1683955308747473,6,10,33,20,16,5,7,6
1683955308747473,-5,-14,-55,-13,15,16,-7,-18
1683955308756526,5,12,-3,-8,33,-5,5,9
1683955308756526,-4,-5,-22,-15,-78,-54,1,1
1683955308762602,2,-3,6,-12,-27,8,0,-1
1683955308762602,2,5,30,30,13,56,4,2
1683955308777624,-7,-11,2,26,-59,11,-2,-3
1683955308777624,0,10,-3,-14,52,-50,1,0
1683955308786607,-6,-13,-16,-25,-59,107,-18,-5
1683955308786607,1,-5,-77,-56,11,35,1,-3
1683955308794603,3,10,13,74,-5,1,4,4
1683955308794603,6,4,35,18,50,40,2,4
1683955308807647,-4,-3,-6,20,27,-71,-7,-3
1683955308807647,-5,-11,-1,-33,33,-50,5,0
1683955308815886,-13,-17,-28,-76,-80,6,-19,-11
1683955308815886,-5,-6,2,22,30,-9,-5,-6
1683955308821886,14,24,-7,34,98,-49,16,12
1683955308821886,-9,-16,7,-100,-128,3,-7,-5
1683955308830883,4,10,17,-25,38,36,-1,4
1683955308830883,-1,-2,32,73,-82,42,-1,-3
1683955308853578,-9,-21,-34,-63,-74,0,-5,-8
1683955308853578,0,-4,-12,25,104,-23,-6,-2
1683955308855518,-3,-3,23,-62,-8,-47,5,-2
1683955308855518,3,5,-57,14,31,-8,5,5
1683955308867278,-5,-3,2,-34,72,-20,-2,-5
1683955308867278,2,4,21,63,85,-14,-2,1
1683955308875836,0,-8,-21,-31,-98,23,9,5
1683955308875836,-4,-4,-14,-31,-18,22,-7,-4
1683955308881719,5,5,17,-34,-46,20,3,6
1683955308881719,0,3,15,69,31,33,5,-1
1683955308890861,-5,-12,-20,-12,103,27,0,-6
1683955308890861,2,8,-18,-109,13,-7,-23,-4
1683955308905157,-4,-12,11,105,-20,21,4,-1
1683955308905157,9,14,-8,-96,39,13,15,8
1683955308913268,7,15,13,54,-28,-18,7,5
1683955308913268,-3,-4,13,-40,40,-17,-12,-5
1683955308927659,-5,-16,-18,20,127,18,-2,-2
1683955308927659,-4,1,12,5,-128,-49,-23,-4
1683955308935888,-1,-11,-47,-96,41,-10,0,-2
1683955308935888,21,31,83,101,10,35,49,21
1683955308942147,-9,1,9,-26,-28,-62,-24,-11
1683955308942147,2,6,9,-38,-58,-3,11,3
1683955308950847,-18,-21,-24,44,107,69,-3,-23
1683955308950847,19,12,16,-23,-32,-31,2,25
1683955308973286,2,2,-3,0,-93,-1,-7,-2
1683955308973286,6,9,40,115,29,-33,18,8
1683955308975221,4,14,14,39,-11,-6,-8,2
1683955308975221,-19,-22,-30,-48,-87,-19,-16,-19
1683955308987688,6,3,7,21,75,24,15,15
1683955308987688,-13,-16,-36,-119,-78,-13,-3,-17
1683955308995865,1,-4,-7,30,49,-11,0,-1
1683955308995865,-13,-5,33,111,118,10,-9,-13
1683955309002107,13,14,-17,49,97,19,25,17
1683955309002107,0,-10,-10,-69,-106,33,-1,7
1683955309010822,0,5,28,27,-22,-21,-42,-4
1683955309010822,-10,-19,-44,-120,-83,77,49,-5
1683955309024450,5,13,15,12,-79,8,-11,-2
1683955309024450,5,2,-10,3,127,6,-2,3
1683955309034217,2,1,12,6,-97,-56,11,4
1683955309034217,5,-3,9,26,-31,5,-8,6
1683955309047351,-2,1,-9,-48,-43,48,14,-3
1683955309047351,-4,-5,-17,6,-33,7,-23,-1
1683955309055865,10,13,12,-24,-37,83,35,12
1683955309055865,-6,0,-7,-4,-31,-28,-19,-6
1683955309061932,-2,-3,5,10,49,16,0,-3
1683955309061932,-3,0,23,26,19,-56,-17,-6
1683955309070890,9,12,1,0,98,10,13,13
1683955309070890,-20,-14,5,67,-5,8,-32,-34
1683955309085188,10,9,10,2,4,-26,49,41
1683955309085188,0,-6,-1,11,108,1,-21,-25
1683955309094107,-8,-2,-13,-63,-128,-128,-41,-15
1683955309094107,3,0,0,-23,127,-21,0,-7
1683955309107687,-7,-8,10,30,22,4,-2,-3
1683955309107687,10,16,6,28,14,31,31,20
1683955309115865,4,9,8,12,-17,-3,5,1
1683955309115865,2,0,-6,-25,-65,99,7,9
1683955309131488,-10,-18,-7,-10,-34,-6,-19,-21
1683955309131488,1,1,-1,-44,-85,24,13,7
1683955309133153,-10,-10,5,14,4,20,-9,-13
1683955309133153,-1,-5,4,20,23,-37,-16,5
1683955309145163,2,1,-7,-37,-82,-11,-11,-6
1683955309145163,6,30,14,-4,-15,11,6,-6
1683955309154217,-9,-20,-11,22,12,-19,23,12
1683955309154217,2,-2,-10,-21,-44,-10,-8,5
1683955309168351,-1,1,-13,-38,-28,-12,3,0
1683955309168351,-5,-6,2,35,11,-50,-36,-3
1683955309176352,1,-6,-8,-56,80,27,11,-3
1683955309176352,1,7,-18,-28,-17,92,4,-3
1683955309182418,-1,0,22,77,51,-29,-19,-12
1683955309182418,-11,-17,-16,3,-49,24,20,3
1683955309191424,4,6,-6,4,6,48,-5,9
1683955309191424,-1,-9,-1,-22,-3,-33,0,-1
1683955309205224,4,7,1,-44,24,63,14,1
1683955309205224,-2,-8,6,44,47,28,-16,-4
1683955309214219,0,0,5,22,4,41,9,-4
1683955309214219,4,15,3,6,-6,-42,14,5
1683955309227607,1,2,-2,-54,-38,5,2,1
1683955309227607,9,15,12,64,57,-49,-3,2
1683955309236359,-3,8,8,-15,-71,-33,-6,-5
1683955309236359,2,-1,5,4,39,-31,-1,0
1683955309242148,-6,-7,-5,-6,12,-33,-24,-17
1683955309242148,-4,-3,-1,-21,5,20,51,15
1683955309258350,-5,-11,-3,-13,23,-103,-4,-2
1683955309258350,6,4,-3,-3,3,-128,28,17
1683955309265137,-5,-8,-6,11,-18,33,-18,-10
1683955309265137,-4,-6,-4,5,0,127,4,-4
1683955309274221,-6,-6,-9,29,14,68,-16,0
1683955309274221,-4,-2,7,12,-12,123,-14,-5
1683955309287217,-1,0,-10,5,-2,76,-4,0
1683955309287217,-7,-13,-2,2,11,-67,2,3
1683955309303961,5,4,5,8,17,15,17,10
1683955309303961,-8,-7,-2,6,0,1,-51,-13
1683955309304966,0,-5,-1,4,9,-48,16,3
1683955309304966,4,10,8,-4,-7,-42,4,-5
1683955309310967,-2,-6,-1,1,-6,-16,11,1
1683955309310967,-4,-5,-9,-9,1,-18,-11,3
1683955309333479,-3,-5,-1,-7,-1,-55,7,2
1683955309333479,-2,-11,-6,15,3,-6,-12,-2
1683955309335439,5,22,26,-2,15,4,-5,-10
1683955309335439,3,-2,-9,-3,-3,-30,8,7
1683955309347411,6,8,4,-7,-1,-38,11,14
1683955309347411,-8,-9,-9,-10,-2,4,-17,-11
1683955309356407,-1,-1,-4,11,1,3,-11,2
1683955309356407,0,4,5,-15,11,-11,21,1
1683955309362405,-10,-4,1,1,-2,15,-22,-14
1683955309362405,-1,-10,-6,-12,-4,11,-6,1
1683955309371399,2,8,-5,1,4,-1,14,5
1683955309371399,0,1,2,-1,-12,3,-4,-4
1683955309385134,-2,1,8,16,2,-1,6,6
1683955309385134,-3,-6,-5,-16,6,6,1,-4
1683955309394163,-5,15,2,0,-4,-10,2,-4
1683955309394163,5,-23,-6,-7,-7,-5,-34,-13
1683955309407268,1,14,2,13,8,10,11,6
1683955309407268,1,5,14,-1,2,-12,3,0
1683955309423270,-5,-14,-10,-6,-7,-6,-17,-10
1683955309423270,-1,4,-4,-3,-2,21,8,10
1683955309431333,5,0,-5,-1,0,14,-8,-6
1683955309431333,-2,2,-1,-4,-6,-8,-6,3
1683955309437634,1,-9,-12,2,2,14,-3,-1
1683955309437634,-8,-3,-1,-12,-3,25,0,-4
1683955309445183,-11,-4,6,3,0,-25,9,4
1683955309445183,-13,3,-13,-10,-5,8,-42,-32
1683955309454210,38,-6,4,10,10,30,8,22
1683955309454210,-7,30,21,4,6,12,1,-1
1683955309467683,-14,-7,-12,-14,-14,-17,-18,-18
1683955309467683,28,-16,-6,-12,-3,33,33,24
1683955309475861,-11,1,-14,6,1,29,-16,2
1683955309475861,-12,-4,4,3,-6,-36,12,0
1683955309491093,12,13,6,-9,5,-4,-11,-11
1683955309491093,-11,-9,-9,6,2,32,14,4
1683955309493103,-13,-12,-17,-22,-4,3,6,-8
1683955309493103,11,-3,9,20,6,-15,-10,0
1683955309505159,8,4,-7,0,1,43,10,9
1683955309505159,10,3,6,9,-4,20,-2,7
1683955309514190,-7,-4,-16,-24,-10,-14,-2,5
1683955309514190,3,12,43,33,18,8,12,-3
1683955309527526,-8,-14,-8,-2,-1,20,-6,-8
1683955309527526,3,9,8,14,5,-19,-3,-5
1683955309535885,-3,1,5,9,-7,-26,1,17
1683955309535885,-11,-12,-25,-5,-6,26,-28,-43
1683955309551533,22,-1,5,6,0,15,12,24
1683955309551533,-19,5,17,5,4,3,3,-1
1683955309553155,-23,22,15,-1,1,25,-1,-3
1683955309553155,9,-5,-19,-22,-7,22,10,-3
1683955309565155,-11,-5,4,8,7,-6,-7,11
1683955309565155,10,15,-3,-20,3,1,-9,-24
1683955309580162,3,-6,-1,0,9,14,11,-4
1683955309580162,-7,-12,-10,-16,-11,-3,-13,28
1683955309587643,14,4,3,-14,-4,-39,-2,-64
1683955309587643,1,-5,-15,-5,-10,10,0,17
1683955309613144,-12,-19,0,-7,-2,0,-2,-44
1683955309613144,9,18,2,-9,-10,10,15,26
1683955309614106,10,-1,-22,-18,-11,1,24,19
1683955309614106,6,18,20,11,9,-15,-112,-49
1683955309626099,10,-15,4,10,-7,-1,-2,-10
1683955309626099,51,0,-14,-4,-3,26,-2,16
1683955309628103,-20,-6,4,15,11,16,10,-1
1683955309628103,-31,0,-2,-7,3,-2,34,15
1683955309634093,3,-8,-4,-13,-1,-4,-32,-1
1683955309634093,-9,15,-1,8,4,6,-18,-51
1683955309647089,9,-17,-14,-5,-2,-1,-5,29
1683955309647089,-19,-14,-15,0,-6,32,6,103
1683955309655890,-23,-12,1,1,17,31,-2,-1
1683955309655890,14,2,-5,9,5,4,18,5
1683955309671423,-9,-6,1,-8,-2,13,-9,-5
1683955309671423,-34,-18,-16,2,-14,-25,71,-12
1683955309673423,48,11,11,0,20,3,5,99
1683955309673423,-39,-17,-8,-3,-9,-8,44,67
1683955309684282,-12,16,9,3,-15,-27,-39,-62
1683955309684282,-26,-19,-9,-9,-9,-28,0,-46
1683955309699487,-5,-2,-18,-2,-1,8,-1,-37
1683955309699487,1,22,13,7,-13,28,18,54
1683955309707645,-46,-44,-17,8,-23,0,4,-67
1683955309707645,37,42,37,4,24,-28,-81,-83
1683955309716353,-1,6,-4,-22,-14,0,-2,-3
1683955309716353,3,-22,-4,-5,3,28,-52,-46
1683955309738602,-9,8,-9,5,4,14,3,15
1683955309738602,0,-13,-15,7,12,69,16,25
1683955309740562,13,4,-5,-8,-23,-38,-6,-40
1683955309740562,-21,-19,0,-1,1,-7,-2,-1
1683955309744539,54,16,5,-2,11,26,32,1
1683955309744539,-2,11,8,3,1,-5,13,-3
1683955309753557,-2,7,12,16,-6,20,-10,10
1683955309753557,-13,-17,-27,-6,7,-3,42,-9
1683955309767687,27,4,8,5,-5,0,-25,21
1683955309767687,-4,21,7,11,4,6,11,-11
1683955309776359,-51,-37,-24,15,0,1,11,8
1683955309776359,31,8,7,-6,-16,-19,-16,-2
1683955309791487,22,-7,1,0,11,55,-36,43
1683955309791487,17,1,-65,-32,-7,-29,20,21
1683955309793154,-11,4,24,-8,-15,-11,-4,-9
1683955309793154,-36,-5,-11,5,4,5,-3,17
1683955309805054,-31,3,13,4,-9,-30,5,20
1683955309805054,26,-14,-7,-27,-9,-3,8,21
1683955309814058,3,-3,-9,-10,-1,37,10,-17
1683955309814058,2,-1,15,-7,9,-4,-10,-14
1683955309827445,-9,3,2,-33,-17,-1,-3,-3
1683955309827445,-1,6,17,0,-16,8,-22,6
1683955309835890,-5,-23,-30,36,29,18,-44,-16
1683955309835890,7,24,39,23,6,6,28,-6
1683955309851538,-23,0,2,-65,-9,-10,4,6
1683955309851538,12,-4,-2,-24,-16,-13,-5,-2
1683955309853154,14,2,4,42,27,5,16,-3
1683955309853154,-7,-4,-12,-30,-13,52,8,-11
1683955309865111,3,-6,-18,12,11,-6,-6,-1
1683955309865111,4,-5,7,24,6,58,5,2
1683955309873550,4,14,8,-119,-54,-5,7,4
1683955309873550,-5,-10,-29,50,28,-13,-13,-15
1683955309886994,6,17,38,4,20,45,19,13
1683955309886994,2,-4,14,3,-6,18,-2,-3
1683955309895928,-35,-12,-23,-42,-31,-31,-7,-15
1683955309895928,24,35,42,80,39,23,9,8
1683955309910914,6,10,-14,-19,1,9,3,0
1683955309910914,-13,-19,-47,-34,9,-22,4,1
1683955309912915,9,8,57,55,-6,6,0,-2
1683955309912915,13,-1,-53,-62,-20,3,-29,-5
1683955309924907,-7,1,22,37,0,0,34,5
1683955309924907,-4,-15,-20,-65,-32,14,-15,-5
1683955309933902,2,12,39,44,16,48,12,3
1683955309933902,-21,-20,-17,-40,-8,2,-4,-12
1683955309947660,-1,5,-7,29,-1,-14,-18,-8
1683955309947660,43,12,41,-7,-12,-4,27,26
1683955309956618,-13,-27,-43,-48,-13,5,-15,-8
1683955309956618,3,11,-5,53,37,-2,12,2
1683955309971157,-2,7,53,8,16,11,-14,-3
1683955309971157,-25,6,18,39,15,31,17,-5
1683955309972157,18,4,-14,1,7,0,-7,23
1683955309972157,-48,-30,-20,-32,-33,-2,-6,-12
1683955309985090,43,18,-17,1,-21,41,24,11
1683955309985090,-1,-25,-58,-29,-7,3,-9,-2
1683955309994170,20,51,83,27,37,-14,-5,11
1683955309994170,-8,-12,-15,-4,-14,15,-16,-14
1683955310007684,-65,-27,-31,11,13,6,-8,-6
1683955310007684,12,10,14,-26,-22,58,-30,5
1683955310015861,68,14,-4,46,10,12,20,34
1683955310015861,8,4,10,-20,-11,18,6,21
1683955310032168,-37,-15,-12,-11,-11,4,21,6
1683955310032168,-7,33,16,48,24,8,21,-33
1683955310033175,-2,-11,-59,-46,-18,-21,-10,-30
1683955310033175,-3,-10,44,30,28,9,-13,-9
1683955310045190,-119,-26,20,-11,-9,-12,-40,-76
1683955310045190,71,19,6,28,10,-35,11,0
1683955310054229,43,34,16,11,-2,21,18,35
1683955310054229,-35,-16,-20,-21,-22,-29,-16,-25
1683955310067671,48,8,-17,-37,1,5,0,-17
1683955310067671,-61,-6,85,87,36,29,-41,-24
1683955310076699,-114,14,-2,5,10,2,20,-19
1683955310076699,108,-39,-13,-20,-40,3,14,25
1683955310091546,-17,-17,-31,-6,-12,33,2,-1
1683955310091546,84,12,-9,34,9,10,15,14
1683955310093163,55,9,23,-3,8,2,13,49
1683955310093163,-128,-48,-65,-31,10,31,-56,-63
1683955310105156,127,97,80,50,17,14,103,118
1683955310105156,-128,-35,-53,-46,-25,-45,-23,-23
1683955310114151,-128,-77,-7,1,-5,-2,-12,-59
1683955310114151,114,66,8,-11,-5,-12,9,43
1683955310127391,-72,-79,-70,-70,-41,5,-80,-52
1683955310127391,-97,-19,55,24,-2,13,32,10
1683955310136365,105,95,53,94,89,55,51,25
1683955310136365,-102,-26,0,-75,-41,11,3,-15
1683955310151441,-32,14,49,75,12,-3,-18,-13
1683955310151441,-62,-6,-57,-104,-30,33,8,9
1683955310152434,-9,-34,-57,-23,-6,25,-21,-8
1683955310152434,29,-5,31,55,-34,-40,9,0
1683955310165498,37,52,1,60,64,28,-11,26
1683955310165498,-2,-4,23,77,56,26,-8,-12
1683955310173421,20,-15,5,-26,-48,16,36,-4
1683955310173421,-18,-5,-22,-29,7,14,16,-4
1683955310187411,15,-44,-58,-35,-43,4,-14,-4
1683955310187411,89,45,74,65,13,14,34,39
1683955310196407,-6,12,23,-10,-11,-4,-17,4
1683955310196407,-30,-3,-36,-18,24,16,-20,-12
1683955310211399,-25,2,-19,-44,20,5,11,-6
1683955310211399,33,-18,-83,30,-30,-58,1,9
1683955310212398,-82,-51,-57,-31,-74,-18,-51,-49
1683955310212398,66,71,-40,31,98,29,13,36
1683955310233238,13,3,70,68,1,-60,13,-1
1683955310233238,14,-21,-27,-17,-58,10,-14,0
1683955310235192,2,26,39,57,31,35,8,13
1683955310235192,-42,-45,-13,21,-17,11,-1,-24
1683955310247316,-63,38,72,92,-28,26,44,3
1683955310247316,66,21,-6,43,91,104,11,25
1683955310255797,9,-16,-69,-96,-24,14,6,-10
1683955310255797,36,20,56,75,19,-18,35,38
1683955310270808,-13,-15,-6,-34,-22,-20,-26,-5
1683955310270808,-128,-44,-28,-73,-23,10,-35,-43
1683955310277778,56,12,29,3,-16,-101,-6,-6
1683955310277778,-3,17,-77,-100,-40,1,-6,22
1683955310293268,-23,-22,36,20,36,21,30,1
1683955310293268,5,13,-51,-6,11,-2,-13,-8
1683955310295211,-28,-8,-7,50,87,22,-44,-19
1683955310295211,-81,-55,37,71,-92,-53,-45,-28
1683955310307634,97,39,-32,-39,75,13,51,28
1683955310307634,19,-4,44,17,-114,-59,-7,5
1683955310315885,-4,-12,33,72,10,5,0,12
1683955310315885,-14,22,48,42,-67,30,5,-13
1683955310338412,-1,6,29,62,12,-57,-50,4
1683955310338412,6,1,25,40,-24,-3,-30,-2
1683955310340419,-7,15,-6,35,-29,42,23,-7
1683955310340419,-47,-41,45,94,0,-14,-29,-36
1683955310345179,34,-13,-49,-93,-11,13,16,26
1683955310345179,29,12,-70,-20,-1,-52,-20,-2
1683955310354178,-32,-22,22,64,-2,-5,16,-6
1683955310354178,15,13,-4,6,17,-12,-1,0
1683955310367681,-32,-20,-8,7,13,38,-26,-31
1683955310367681,-16,-12,30,-20,8,11,18,-3
1683955310376189,-47,-18,-43,-78,-18,21,8,-2
1683955310376189,53,63,-21,-94,68,23,20,19
1683955310390841,-22,-2,-62,-15,-27,17,-20,-16
1683955310390841,14,-1,26,-32,-13,20,29,9
1683955310397141,1,12,-31,-48,15,-4,1,12
1683955310397141,18,10,28,-6,2,48,8,1
1683955310413269,-13,-14,-1,-67,-15,8,-21,-4
1683955310413269,-26,4,9,-2,32,-3,-4,-15
1683955310415206,18,9,-3,-7,0,-1,-9,6
1683955310415206,-5,-3,14,12,14,6,12,-1
1683955310436508,-14,-11,-24,-17,-20,-7,-10,-6
1683955310436508,5,6,7,12,19,20,-3,-7
1683955310437513,-1,-8,-6,-6,-1,21,5,-2
1683955310437513,17,-5,-1,-24,1,7,0,-5
1683955310450504,8,-12,3,16,-8,29,-25,-6
1683955310450504,11,6,-3,-12,15,9,32,22
1683955310457500,-9,-7,-1,5,-16,-82,-17,-9
1683955310457500,9,9,3,-12,16,38,7,4
1683955310473271,9,2,-3,10,-4,127,-3,-3
1683955310473271,-8,-5,10,12,11,29,22,3
1683955310475209,-4,-5,-11,-17,-4,57,-11,-4
1683955310475209,-9,-8,4,2,5,0,5,3
1683955310487658,-5,-8,-9,4,0,-110,10,1
1683955310487658,0,6,9,-5,1,-54,-17,-13
1683955310495886,5,5,-1,2,1,1,0,8
1683955310495886,1,3,7,-4,9,-23,6,3
1683955310510836,-19,-5,4,12,-14,-36,11,1
1683955310510836,-2,-5,-8,-5,6,23,-6,-5
1683955310516832,5,2,-2,-3,0,7,-5,1
1683955310516832,-3,-9,0,5,3,4,8,10
1683955310532820,-10,5,-7,-5,-8,-18,-11,-17
1683955310532820,6,-5,0,5,7,1,5,-2
1683955310540815,1,13,-1,-4,1,2,2,-2
1683955310540815,17,-9,2,-2,-3,-20,4,7
1683955310547658,-23,20,6,9,1,-21,-13,1
1683955310547658,4,-10,-3,-14,8,36,-1,3
1683955310555886,-6,-5,1,2,-5,36,-5,-6
1683955310555886,-12,-7,-3,-7,-1,-4,-3,-3
1683955310570858,12,6,-4,1,-1,22,3,9
1683955310570858,-4,2,0,3,1,27,0,-4
1683955310577233,13,1,-1,-4,-4,-28,-2,2
1683955310577233,9,14,4,0,4,-19,-1,1
1683955310593114,-11,-26,-17,3,-3,19,4,-3
1683955310593114,12,-1,14,6,1,10,-1,-2
1683955310595112,0,5,-1,-3,-3,-4,-6,-2
1683955310595112,-27,2,2,1,2,20,6,2
1683955310607639,0,-8,-8,-3,-4,19,-1,-11
1683955310607639,12,6,1,1,-2,-20,-7,1
1683955310616512,2,-15,-2,-2,1,8,10,5
1683955310616512,7,1,-5,-5,-2,24,11,-13
1683955310632165,-14,3,0,-5,-5,-8,-10,2
1683955310632165,-9,-34,-10,0,-1,-14,13,1
1683955310637733,-2,15,0,-1,3,29,1,3
1683955310637733,-12,-3,3,-2,-1,20,-6,3
1683955310653271,-8,-20,-4,-1,-1,1,-8,-2
1683955310653271,6,2,-5,-1,3,18,3,-2
1683955310655210,24,4,-1,1,1,14,19,13
1683955310655210,11,-20,-13,-9,-10,-5,-38,-19
1683955310667358,4,18,8,3,4,7,-1,12
1683955310667358,-6,9,0,0,0,14,1,3
1683955310676207,-7,-20,-6,-1,-3,5,4,31
1683955310676207,2,32,6,3,1,-4,8,4
1683955310690474,36,-5,-1,-3,2,15,-4,-15
1683955310690474,-56,-6,3,3,0,10,-13,-11
1683955310697658,-21,-16,-4,-6,-7,1,-4,-2
1683955310697658,-4,-2,-7,6,2,2,-16,-30
1683955310713111,9,-5,1,2,-3,7,29,61
1683955310713111,-68,31,18,8,4,-3,0,-9
1683955310721520,30,5,0,-1,-1,6,-2,-16
1683955310721520,-73,-3,-2,-5,-3,15,32,-10
1683955310727524,-38,-4,1,17,4,-15,-13,-1
1683955310727524,24,-6,-10,-17,-5,12,11,-69
1683955310735889,-4,3,6,3,4,-1,-1,56
1683955310735889,-12,-22,-1,5,4,18,6,-14
1683955310750860,62,12,-1,-8,-5,5,-45,37
1683955310750860,79,12,-4,12,2,46,74,37
1683955310765088,-11,-18,-6,-6,2,10,44,-41
1683955310765088,106,-4,-10,-5,-3,13,-11,70
1683955310774092,-53,-6,-6,-6,-8,8,-10,-30
1683955310774092,2,-9,-14,-1,-7,0,-6,14
1683955310775093,13,-5,4,6,2,6,-1,16
1683955310775093,-13,1,3,-13,0,-8,4,-62
1683955310787093,-17,12,3,-14,-2,-33,-42,-44
1683955310787093,-21,-2,-7,-1,4,0,-27,58
1683955310796081,14,-1,-4,-3,3,1,24,-52
1683955310796081,-8,-8,-2,-17,-13,-5,-1,-6
1683955310810808,-2,2,4,-6,-5,13,60,-7
1683955310810808,34,-7,3,-11,-18,-18,-36,-46
1683955310817818,-79,3,-1,-25,2,10,-7,-4
1683955310817818,80,16,-5,-7,7,9,-2,70
1683955310834233,-68,-9,5,26,4,17,-1,-2
1683955310834233,20,6,17,-24,-1,14,-5,-10
1683955310835221,15,-20,-12,9,-1,-11,-24,-28
1683955310835221,-52,6,3,0,19,-14,0,-55
1683955310847636,40,8,0,-23,-19,6,-24,-12
1683955310847636,-20,-10,-14,16,-4,-17,0,-5
1683955310855890,-14,8,16,30,9,-2,-29,-2
1683955310855890,-3,1,-6,-2,-19,-1,-16,-7
1683955310870845,8,-5,-4,-11,-6,9,16,2
1683955310870845,1,3,8,-5,-7,2,-7,12
1683955310876847,17,5,-16,28,-1,13,4,12
1683955310876847,-18,10,24,1,-15,7,8,18
1683955310893218,23,-3,-10,-23,-11,23,13,0
1683955310893218,-3,-7,4,-5,17,-12,7,19
1683955310895216,-37,19,7,-7,-4,2,-22,0
1683955310895216,20,-3,0,27,28,50,4,2
1683955310907686,3,-1,-5,-34,-31,-1,1,-6
1683955310907686,4,8,6,-9,45,7,-2,-1
1683955310915863,-11,-22,-44,-50,4,-62,-24,-13
1683955310915863,9,-10,-20,20,17,-5,10,-3
1683955310930837,-2,-15,-17,63,51,-52,7,-4
1683955310930837,34,21,24,-19,-20,7,-8,9
1683955310936902,10,-15,-16,15,13,18,-1,2
1683955310936902,-8,9,5,11,16,-42,9,16
1683955310953220,9,-1,1,13,-4,13,-15,-2
1683955310953220,-18,-7,-2,-7,-27,32,29,-6
1683955310955216,-8,4,16,-14,-19,-50,-2,-8
1683955310955216,-9,10,-2,57,26,-3,-17,4
1683955310967958,8,14,22,-11,-9,127,20,10
1683955310967958,-12,-12,-42,26,29,-1,0,11
1683955310975958,24,46,100,-88,-58,14,11,16
1683955310975958,-31,-25,-27,-4,-34,19,-10,2
1683955310990954,-11,-4,-25,-32,2,-22,6,-41
1683955310990954,-2,-20,-18,-41,-12,-39,-8,1
1683955310998949,0,-2,-4,23,-43,34,-7,4
1683955310998949,7,9,19,20,0,43,3,1
1683955311013213,12,6,19,-19,-16,-27,5,0
1683955311013213,-21,-8,-11,21,-3,11,-17,-7
1683955311015212,15,1,-14,7,-8,71,-3,-4
1683955311015212,-38,-15,-8,-11,4,-13,-1,-1
1683955311027687,2,3,-3,-10,11,-20,1,14
1683955311027687,-4,0,-19,11,-11,-36,-22,-14
1683955311036359,-5,-6,-10,-1,13,-84,20,33
1683955311036359,11,11,28,21,33,97,25,-11
1683955311050835,1,-6,-1,26,-9,110,-21,-4
1683955311050835,24,3,-2,-11,-18,5,-30,-64
1683955311057636,-7,8,-8,36,59,-35,19,-6
1683955311057636,19,-4,-4,-60,-58,-55,-43,-5
1683955311073275,-18,-9,-10,10,15,-52,4,-2
1683955311073275,4,7,33,45,48,-16,16,14
1683955311080059,4,-8,-5,-4,-22,14,-9,-30
1683955311080059,-4,-1,-1,15,9,-31,2,21
1683955311087663,13,-1,1,15,16,-61,24,54
1683955311087663,-4,-6,-14,-2,7,-34,-60,-75
1683955311095863,8,3,15,2,-24,6,-3,68
1683955311095863,7,-2,-5,-25,-15,-28,-1,1
1683955311110047,8,0,-1,14,20,-23,10,12
1683955311110047,-3,7,19,11,-19,-20,28,46
1683955311118354,3,-6,-13,5,10,19,-32,-32
1683955311118354,-3,-1,0,-22,-6,14,4,-5
1683955311133281,-8,-2,-10,-7,-7,-24,-11,-5
1683955311133281,-31,0,-7,-13,-12,57,5,8
1683955311135215,7,2,10,19,7,-37,-5,-7
1683955311135215,-5,-4,-12,-18,-3,-12,3,1
1683955311147638,-9,0,-4,-9,-8,3,-11,-17
1683955311147638,13,-2,-2,2,11,-14,9,23
1683955311163282,-3,-5,-1,-5,-5,21,4,-1
1683955311163282,-5,6,-2,-19,-9,-20,0,3
1683955311170863,16,5,17,19,9,-4,4,-2
1683955311170863,-4,-2,8,-23,-28,16,7,10
1683955311177761,-6,-3,-4,54,22,11,-6,-4
1683955311177761,-3,-10,-18,-52,-20,1,-8,-13
1683955311193280,13,20,48,76,32,-3,14,7
1683955311193280,-8,1,4,-4,-8,-17,3,9
1683955311199278,-9,-6,-15,-32,-3,14,-8,-11
1683955311199278,0,-12,9,-11,-25,-13,2,0
1683955311207637,-2,-3,-39,-1,18,0,0,0
1683955311207637,-10,-6,-10,-81,-25,1,-6,1
1683955311223841,12,8,44,68,25,6,13,3
1683955311223841,14,20,3,54,36,1,12,8
1683955311230842,-17,-23,-45,-61,-35,-3,-21,-14
1683955311230842,-2,-5,-4,21,7,-5,3,4
1683955311237776,-5,-11,-20,-41,-12,5,-5,-7
1683955311237776,-9,-6,25,-24,-20,-22,-10,-7
1683955311253281,-5,-8,-34,-8,-6,-1,-6,-6
1683955311253281,11,18,35,15,26,-5,17,13
1683955311268376,-7,-21,-69,-64,-1,4,-5,-3
1683955311268376,8,25,42,81,59,5,4,8
1683955311268376,-6,-15,-5,-66,-26,17,-3,-7
1683955311268376,3,2,-8,66,31,25,3,3
1683955311276379,2,10,42,69,20,10,-2,1
1683955311276379,-8,-24,-74,-117,-44,1,-6,-8
1683955311290485,-1,4,26,79,1,29,-2,-5
1683955311290485,-1,16,40,88,30,-42,-9,2
1683955311297662,11,16,36,44,-8,-2,16,7
1683955311297662,-2,-9,15,30,-52,29,-2,-4
1683955311313283,-6,-12,-39,-15,-28,-3,-9,-7
1683955311313283,-8,-16,-32,-33,-73,-1,-6,-2
1683955311320165,-7,-10,-20,-73,-56,19,-2,-9
1683955311320165,16,32,70,107,70,26,17,13
1683955311336514,-3,-6,30,-14,-55,-34,-8,-1
1683955311336514,4,4,-1,-30,-12,-28,11,3
1683955311337295,-8,-22,-61,-44,-36,21,-4,-7
1683955311337295,-8,-16,-42,-19,-13,-35,-19,-8
1683955311349487,5,12,-5,-71,-5,6,1,3
1683955311349487,18,38,73,104,80,41,21,17
1683955311358389,-6,-7,2,-100,-5,-4,-7,-3
1683955311358389,-17,-20,-48,-114,-13,1,-21,-15
1683955311373281,-2,-12,-17,-22,-38,-7,8,0
1683955311373281,6,10,56,44,24,3,15,9
1683955311380102,22,40,-49,20,101,41,6,13
1683955311380102,21,37,98,109,79,-20,38,18
1683955311396494,-18,-37,-2,-56,-25,19,-18,-12
1683955311396494,3,8,-68,-92,16,18,-17,-4
1683955311397504,-15,-26,69,80,-9,-32,2,-7
1683955311397504,21,30,-50,-16,77,34,23,19
1683955311411387,-12,-19,-73,-64,-61,-9,-23,-12
1683955311411387,-17,-34,-47,-32,-74,1,-15,-14
1683955311418380,27,43,-3,10,107,52,43,24
1683955311418380,-15,-24,26,13,-62,-5,-19,-12
1683955311441512,5,17,-32,-57,62,3,-14,0
1683955311441512,-17,-41,-58,-59,-46,-20,-3,-13
1683955311443158,-4,-1,35,38,-30,-2,-13,-4
1683955311443158,-4,-4,16,23,-66,-18,-13,-2
1683955311456514,39,69,-2,48,115,116,43,30
1683955311456514,-11,-21,-52,-79,37,18,-14,-10
1683955311457525,-1,-4,4,37,-37,-44,-24,-5
1683955311457525,-25,-43,-41,29,-64,4,-24,-22
1683955311470160,14,22,58,100,38,17,27,15
1683955311470160,14,28,-26,-50,67,40,9,9
1683955311479209,-23,-35,12,48,-111,-22,-18,-16
1683955311479209,16,16,-106,-96,62,54,-2,7
1683955311493223,-9,-15,40,47,-21,-27,11,-3
1683955311493223,5,8,-48,-40,11,55,-26,-3
1683955311500163,-16,-29,8,-29,2,74,-5,-15
1683955311500163,0,-3,39,68,-26,7,4,0
1683955311516449,16,36,47,52,50,40,19,11
1683955311516449,7,10,10,54,77,1,18,6
1683955311517445,-6,-14,-43,-11,-11,-16,-2,-2
1683955311517445,-14,3,-24,-4,-49,27,-18,-7
1683955311529441,-5,-12,43,127,-53,-43,-9,-6
1683955311529441,-16,-26,48,90,-33,-21,-9,-10
1683955311538434,6,13,-2,-1,17,9,8,5
1683955311538434,5,8,70,69,-2,18,5,3
1683955311553271,8,5,-9,9,70,-6,3,3
1683955311553271,-4,-2,-17,24,-80,9,5,3
1683955311560134,6,11,-4,-25,42,5,6,2
1683955311560134,-6,-10,5,6,-55,-10,-9,-6
1683955311576510,-10,-22,-16,-55,-5,28,-9,-6
1683955311576510,19,27,-35,-94,42,24,22,13
1683955311577515,-3,-4,17,53,-9,-14,-9,-4
1683955311577515,-14,-24,10,67,-15,-42,-8,-12
1683955311589478,-1,0,-5,37,-18,-36,8,1
1683955311589478,-14,-21,6,17,-36,12,-12,-11
1683955311606547,0,1,-24,-44,-13,-62,0,2
1683955311606547,6,3,-68,-128,61,17,12,6
1683955311612551,-11,-14,33,52,-29,-23,-12,-8
1683955311612551,-8,-11,33,62,-63,-7,-19,-4
1683955311619573,11,16,-2,-4,38,47,9,6
1683955311619573,-5,-13,20,74,-53,29,11,-2
1683955311636536,5,23,-23,-69,32,4,-3,3
1683955311636536,-10,-19,28,76,-29,-38,-4,-7
1683955311637546,17,24,-48,-44,84,4,19,11
1683955311637546,-1,-4,4,25,-3,-25,-6,-2
1683955311649543,-5,-10,-7,-13,-23,-3,-11,-5
1683955311649543,2,-2,16,27,-8,8,9,1
1683955311658385,-6,-2,19,7,-19,18,-7,-3
1683955311658385,5,9,-4,-36,21,4,-2,0
1683955311673290,-4,-8,-13,-24,9,29,4,0
1683955311673290,3,3,9,-13,7,18,0,0
1683955311680222,-6,-9,-4,0,-32,1,-11,-5
1683955311680222,3,7,-3,-24,31,35,6,2
1683955311696218,-2,-6,0,-6,-14,7,-5,-1
1683955311696218,-2,2,4,2,-12,-8,-6,0
1683955311697211,-2,-1,1,2,-10,-3,-4,-2
1683955311697211,2,2,3,3,13,6,7,1
1683955311710209,-1,-3,3,13,-11,-15,-4,-5
1683955311710209,2,4,-1,-3,3,6,-5,0
1683955311719126,0,-3,3,10,-4,20,0,0
1683955311719126,4,4,-5,-26,13,6,2,3
1683955311732497,-4,-6,-6,-5,-11,5,-7,-2
1683955311732497,2,4,-5,-9,10,24,9,2
1683955311740140,-4,-4,3,9,-14,7,-1,-1
1683955311740140,-1,-1,1,-2,-1,0,-7,-2
1683955311756419,0,-3,-5,-5,-1,17,-3,-1
1683955311756419,-1,-2,1,3,2,9,7,0
1683955311757262,-4,-2,4,15,-9,-4,-5,-3
1683955311757262,0,-2,-1,-4,5,4,-1,1
1683955311770142,6,11,0,-2,2,8,7,8
1683955311770142,3,2,0,-11,-1,1,-11,-14
1683955311778379,-1,-3,1,4,-6,8,-2,7
1683955311778379,-1,0,-4,-6,9,22,6,-1
1683955311793287,-4,-4,-2,-1,-6,6,-1,-2
1683955311793287,0,-1,-3,0,-3,8,-3,1
1683955311800219,-2,1,0,3,0,4,-4,-5
1683955311800219,4,4,-2,-4,1,7,2,3
1683955311818016,-2,-6,-3,2,-5,-8,-4,-2
1683955311818016,7,1,-2,-2,1,6,-1,3
1683955311819013,-4,-11,-2,1,0,9,1,-6
1683955311819013,2,11,1,-3,0,-2,-2,3
1683955311830041,-6,5,1,1,-6,7,-6,-4
1683955311830041,-3,-10,-6,-4,2,15,1,-1
1683955311846168,6,23,6,5,-3,8,1,4
1683955311846168,1,-5,1,2,-3,6,-8,-6
1683955311853191,-8,-6,-3,-2,1,14,0,1
1683955311853191,0,1,0,1,2,7,3,0
1683955311860157,-4,-7,-2,3,-4,-1,-4,-3
1683955311860157,-1,-4,-1,0,4,0,0,0
1683955311876461,-4,0,1,4,5,3,3,-7
1683955311876461,-1,0,-4,3,5,6,-1,2
1683955311877465,-1,-4,-2,0,-4,8,-7,-4
1683955311877465,-2,1,0,0,1,15,7,3
1683955311890138,0,-7,-1,1,-4,7,-1,-3
1683955311890138,-4,3,0,-2,-10,7,-5,0
1683955311898772,1,-6,-3,-9,-4,3,0,-2
1683955311898772,-1,1,-1,-7,5,9,1,1
1683955311912755,-1,-2,-3,2,3,-7,-3,-4
1683955311912755,-6,-1,-2,-7,4,3,0,-1
1683955311920164,1,-3,1,7,4,8,3,3
1683955311920164,-1,-1,-3,-6,-2,8,5,-1
1683955311935943,1,-3,0,-7,-9,8,-8,-3
1683955311935943,0,0,-1,-8,-7,12,3,-2
1683955311937962,-4,-9,0,-2,-3,8,2,-2
1683955311937962,5,1,1,-5,-9,8,-7,-1
1683955311949957,2,0,-1,-8,-6,10,0,1
1683955311949957,0,0,2,2,4,6,3,1
1683955311958854,1,-2,-3,-1,3,1,-2,0
1683955311958854,-4,-8,-5,-4,-2,14,-3,-2
1683955311973284,3,2,1,-2,1,2,2,0
1683955311973284,-1,-1,2,4,2,-1,-1,-4
1683955311980139,0,2,-3,-5,-9,9,-6,-2
1683955311980139,-3,2,8,4,8,13,3,0
1683955311996488,0,-1,-1,3,5,7,1,-1
1683955311996488,-9,-1,1,1,0,8,-8,-3
1683955311997494,6,1,0,-1,-3,11,1,2
1683955311997494,-2,-2,-5,1,0,3,8,-1
1683955312010164,9,1,-1,2,-2,0,-11,-2
1683955312010164,-6,0,-3,-12,-10,8,-5,-2
1683955312018400,24,4,0,2,4,6,6,17
1683955312018400,12,-5,-2,1,1,-2,3,1
1683955312033283,-17,-7,-2,-3,-1,8,-5,1
1683955312033283,-1,3,5,5,2,10,6,4
1683955312040164,-9,-1,2,5,5,7,-6,-10
1683955312040164,-5,1,0,2,-4,5,-2,11
1683955312056242,4,1,2,-4,-3,7,-1,-18
1683955312056242,0,-9,-11,0,0,5,-7,-5
1683955312057216,-3,3,10,0,-2,4,18,6
1683955312057216,-13,6,3,0,-9,5,-5,3
1683955312069209,14,4,6,5,7,8,13,-12
1683955312069209,-10,-1,0,0,4,-5,7,6
1683955312079203,-12,-9,-9,-9,-11,5,-14,-11
1683955312079203,-6,1,5,9,9,19,11,55
1683955312093194,-1,-3,-7,-8,1,8,-2,-28
1683955312093194,6,-1,-3,-2,-4,7,-2,11
1683955312100196,-1,7,-6,-6,-3,10,0,4
1683955312100196,-6,0,11,8,9,3,-2,-15
1683955312116483,-17,3,0,3,-3,-8,-11,17
1683955312116483,8,5,-2,5,2,7,8,-3
1683955312117492,10,-6,3,-7,-4,9,24,-10
1683955312117492,2,1,1,8,-5,-30,-3,-45
1683955312129453,12,-2,-7,-10,-8,7,-10,21
1683955312129453,-19,1,12,8,7,10,-6,-4
1683955312138373,-18,-10,-10,-11,-7,-8,-18,-43
1683955312138373,13,4,-5,-10,2,14,3,23
1683955312153274,-13,-15,-16,-12,-8,30,-22,5
1683955312153274,25,3,2,5,5,5,-13,-55
1683955312159519,4,-3,3,0,-7,-3,0,36
1683955312159519,-15,-8,-12,-3,-9,33,-20,-16
1683955312175859,-15,-13,-5,-3,1,1,6,-40
1683955312175859,-27,13,9,3,0,-6,49,-12
1683955312182664,-81,-17,-13,-1,0,33,-15,-35
1683955312182664,37,18,18,12,16,9,-19,11
1683955312190047,-4,-9,-5,5,3,9,-58,-39
1683955312190047,24,-6,-7,-9,-5,13,4,2
1683955312198774,-22,12,4,-5,-5,-4,-17,-76
1683955312198774,-22,-19,-15,-12,-10,1,24,106
1683955312213158,30,17,3,11,5,0,5,-42
1683955312213158,32,15,13,6,1,14,-21,27
1683955312220158,-5,-8,-1,1,3,0,-23,19
1683955312220158,25,-2,-13,-11,-9,-76,-20,-6
1683955312236336,-8,2,2,-13,-6,-5,22,-7
1683955312236336,-1,-3,-1,-6,-8,-8,-16,-17
1683955312242208,17,12,12,19,10,1,44,21
1683955312242208,21,1,3,4,26,10,-75,-78
1683955312258413,-28,-5,0,2,-2,37,34,25
1683955312258413,-8,-10,-11,6,-3,-4,-12,10
1683955312260417,25,1,-5,-20,-5,-22,24,42
1683955312260417,-26,0,2,2,6,20,7,-21
1683955312273272,14,2,1,1,-6,-2,0,24
1683955312273272,-18,-12,-13,-4,14,93,-20,-17
1683955312280133,25,-1,-2,6,11,13,-3,13
1683955312280133,-19,-4,-8,-3,-14,-3,17,-20
1683955312295677,5,1,8,14,9,15,-1,10
1683955312295677,1,5,5,2,-9,-21,8,21
1683955312302690,-1,5,6,3,3,27,-15,-8
1683955312302690,-6,-4,1,-8,-4,20,13,-11
1683955312318342,-10,1,-2,-2,-6,-30,18,23
1683955312318342,-9,-6,-5,1,-4,-13,-14,-9
1683955312320280,6,4,6,-13,-4,4,-1,12
1683955312320280,4,-4,-12,1,-11,-15,6,-17
1683955312332526,-12,8,10,-1,3,5,-6,14
1683955312332526,-14,-6,-3,11,5,5,5,4
1683955312340160,-2,-4,-9,-9,-1,-8,-10,-10
1683955312340160,8,1,-6,-7,-13,12,-13,-32
1683955312355860,-3,-11,-15,-7,-5,36,-10,9
1683955312355860,1,-7,-7,-12,-3,-5,11,6
1683955312362203,4,6,9,9,-7,-11,-4,-1
1683955312362203,-19,-4,1,-1,-14,87,17,16
1683955312377854,24,-7,-11,1,6,2,2,-16
1683955312377854,-13,-3,-5,-11,-16,-48,-4,4
1683955312385864,12,5,5,4,3,4,0,10
1683955312385864,-4,-1,2,0,1,-10,0,4
1683955312393878,5,2,4,17,15,-8,11,6
1683955312393878,4,8,14,-4,-3,8,0,8
1683955312407637,-1,-7,-14,0,12,58,-26,-37
1683955312407637,-1,1,10,5,3,-5,5,4
1683955312415837,4,-3,-7,-4,-13,-4,7,11
1683955312415837,-2,-2,3,-10,9,27,-3,-34
1683955312421877,-1,3,8,2,-1,3,8,18
1683955312421877,4,1,-4,-9,-16,-13,0,22
1683955312438915,-5,1,-2,-13,-34,43,-38,-15
1683955312438915,-3,-1,-2,-10,-16,13,5,6
1683955312439850,4,-2,-4,9,19,-3,6,4
1683955312439850,-10,-2,-2,-12,-9,10,5,-3
1683955312452878,-10,-5,7,28,-2,21,-2,-2
1683955312452878,7,-5,-14,-17,0,3,8,7
1683955312459874,-9,-9,-12,2,-9,7,-12,0
1683955312459874,2,3,-4,-11,-14,24,-5,-2
1683955312475811,-3,-3,-4,-6,25,1,8,-7
1683955312475811,-1,-6,-7,-8,6,-30,-6,5
1683955312482824,4,5,9,26,-9,-12,2,8
1683955312482824,-2,0,6,-7,9,2,13,-3
1683955312498417,6,4,4,-18,6,-58,7,6
1683955312498417,-3,0,-10,3,-8,13,2,1
1683955312500446,5,9,29,16,3,46,8,5
1683955312500446,-7,-11,-22,-21,-4,1,-3,-11
1683955312512731,3,12,25,28,20,12,6,9
1683955312512731,2,3,8,-3,-18,48,-6,2
1683955312520136,-7,-13,-25,-12,15,-3,-1,-4
1683955312520136,-3,-2,-5,12,25,-32,-8,-10
1683955312535864,-11,-9,-13,5,0,67,-15,-2
1683955312535864,-5,-8,-13,-17,-16,-13,-2,-3
1683955312542073,2,7,21,17,17,-13,2,0
1683955312542073,0,3,0,9,6,24,0,1
1683955312558419,-20,-26,-37,9,22,11,-8,-10
1683955312558419,9,12,15,-11,20,-45,8,9
1683955312560428,-16,-21,-29,-8,-23,93,-18,-16
1683955312560428,8,11,-1,-6,13,35,6,3
1683955312572212,12,20,55,-2,-57,-128,14,15
1683955312572212,-1,-8,-33,-1,5,127,-1,1
1683955312580866,-1,-2,7,-21,-28,76,-6,0
1683955312580866,12,25,58,55,21,9,-1,6
1683955312595785,-3,-11,-20,-10,33,-3,10,1
1683955312595785,5,12,33,10,-16,-38,0,4
1683955312602105,-3,0,4,15,-3,-77,2,-1
1683955312602105,-7,-19,-41,1,-14,-5,1,-6
1683955312618409,-6,-10,-41,-15,53,-1,-4,-3
1683955312618409,14,25,38,7,3,-37,-4,9
1683955312620385,1,-4,-12,1,37,-22,5,2
1683955312620385,-6,-11,-3,-5,-81,-18,-12,-9
1683955312632401,-3,-3,-21,-17,-36,23,-18,1
1683955312632401,2,-1,0,-1,-6,-40,26,10
1683955312641370,1,-3,8,-10,31,-38,11,2
1683955312641370,-7,-9,-29,20,79,-11,-5,-3
1683955312663820,16,23,36,40,25,0,14,15
1683955312663820,-9,-15,-27,-17,-11,-1,-1,-6
1683955312664778,4,3,2,-22,-72,-17,-3,2
1683955312664778,-5,-6,-5,-11,5,-8,-9,-4
1683955312678813,-2,-4,10,18,-11,27,13,2
1683955312678813,4,8,18,65,49,2,-1,2
1683955312679816,-3,-6,-19,-16,20,5,-4,1
1683955312679816,-4,-7,-11,-49,-25,-7,3,-4
1683955312692161,2,6,15,0,18,-2,0,-1
1683955312692161,-11,-16,-33,-40,-43,-11,-23,-11
1683955312700836,11,20,31,67,43,-13,13,9
1683955312700836,-1,-3,1,-18,-5,0,5,-3
1683955312715872,0,2,-8,-85,-85,2,-13,0
1683955312715872,-4,-8,-7,76,92,-1,5,-2
1683955312721911,-2,-8,-18,-40,60,3,8,-2
1683955312721911,1,6,-11,-2,-58,-2,-13,-6
1683955312738428,-3,-6,-7,5,49,14,4,0
1683955312738428,4,3,18,-41,-125,-5,-9,0
1683955312740433,0,3,1,32,31,-8,-3,-1
1683955312740433,-3,-3,-4,-16,37,5,-1,-3
1683955312752501,1,-4,-12,-39,-113,4,-3,0
1683955312752501,-1,1,19,71,61,-10,21,-1
1683955312760873,-12,-13,-46,-77,-47,-11,2,-9
1683955312760873,2,3,1,7,-28,-3,-7,0
1683955312775597,-8,-22,-25,8,60,-2,10,-1
1683955312775597,1,16,35,56,13,-4,-13,-6
1683955312789629,2,-7,-15,-56,-98,7,5,9
1683955312789629,-10,-11,-4,41,109,-2,5,-8
1683955312798412,0,16,52,56,-56,-8,-8,-9
1683955312798412,-9,-13,-7,0,-58,4,-16,-5
1683955312800437,5,5,4,14,59,3,11,2
1683955312800437,11,10,0,-57,-54,8,3,15
1683955312812444,4,3,-2,-18,40,15,15,8
1683955312812444,-19,-25,-32,-11,-10,21,-18,-18
1683955312820796,-1,4,30,66,-9,39,1,-3
1683955312820796,-5,-4,-3,-71,-71,27,-9,-2
1683955312835806,14,22,19,31,62,5,-2,9
1683955312835806,3,-4,-31,-81,-124,41,21,6
1683955312841829,0,-9,-16,-3,51,-80,2,4
1683955312841829,-13,-10,12,83,16,-35,-23,-17
1683955312858395,9,11,0,-50,-78,43,15,12
1683955312858395,-7,-5,-4,-2,38,-76,13,-6
1683955312860402,4,15,-4,-38,-117,-8,-22,-3
1683955312860402,5,-2,9,59,127,47,28,8
1683955312872419,1,0,5,-8,-85,-15,-42,-1
1683955312872419,-6,-5,6,66,104,53,-4,-4
